EXPLAIN
TAG	EISPOT
TITLE	LABEL	Potentiostatic EIS	Test &Identifier
DATE	LABEL	10/8/2019	Date
TIME	LABEL	9:56:08	Time
NOTES	NOTES	2	&Notes...
	
	
PSTAT	PSTAT	REF600-11020	Potentiostat
VDC	POTEN	0.00000E+000	T	DC &Voltage (V)
FREQINIT	QUANT	1.00000E+006	Initial Fre&q. (Hz)
FREQFINAL	QUANT	1.00000E+000	Final Fre&q. (Hz)
PTSPERDEC	QUANT	1.00000E+001	Points/&decade
VAC	QUANT	2.50000E+001	AC &Voltage (mV rms)
AREA	QUANT	1.00000E-002	&Area (cm^2)
CONDIT	TWOPARAM	T	5.00000E+000	0.00000E+000	Conditionin&g	Time(s)	E(V)
DELAY	TWOPARAM	T	5.00000E+000	0.00000E+000	Init. De&lay	Time(s)	Stab.(mV/s)
SPEED	SELECTOR	1	&Optimize for:
ZGUESS	QUANT	1.00000E+004	E&stimated Z (ohms)
OCVCURVE	TABLE	19
	Pt	T	Vf	Vm	Ach	Over
	#	s	V vs. Ref.	V	V	bits
	0	0.258333	-3.91775E-003	-3.91775E-003	5.38733E-004	...........
	1	0.516667	-3.84688E-003	-2.07811E-004	5.36066E-004	...........
	2	0.775	-3.40282E-003	3.77230E-003	5.34300E-004	...........
	3	1.03333	-1.67863E-003	3.05484E-002	5.34766E-004	.........v.
	4	1.29167	2.90649E-003	3.16317E-002	5.36933E-004	...........
	5	1.55	1.03265E-002	4.13013E-003	5.33000E-004	...........
	6	1.80833	1.63760E-002	-8.59852E-003	5.29000E-004	...........
	7	2.06667	1.61059E-002	-2.27132E-003	5.27800E-004	...........
	8	2.325	1.03223E-002	1.51770E-002	5.28066E-004	...........
	9	2.58333	4.69886E-003	-4.38794E-003	5.30800E-004	...........
	10	2.84167	2.18744E-003	-1.22299E-002	5.27500E-004	...........
	11	3.1	4.56718E-004	-1.23638E-002	5.28900E-004	...........
	12	3.35833	-2.60992E-003	3.22693E-003	5.31800E-004	...........
	13	3.61667	-5.94152E-003	-3.27470E-002	5.35000E-004	.........v.
	14	3.875	-8.62348E-003	1.79450E-003	5.27100E-004	...........
	15	4.13333	-1.00277E-002	2.36651E-002	5.32466E-004	...........
	16	4.39167	-7.73356E-003	6.36479E-004	5.37933E-004	...........
	17	4.65	-1.74931E-003	2.37563E-003	5.33033E-004	...........
	18	4.90833	3.38257E-003	-4.91669E-003	5.34166E-004	...........
EOC	QUANT	0.0033826	Open Circuit (V)
PSTATMODEL	IQUANT	4	Pstat Model
PSTATSECTION	LABEL	REF600-11020	Pstat Section
PSTATSERIALNO	LABEL	11020	Pstat Serial Number
CTRLMODE	IQUANT	1	Control Mode
IESTAB	IQUANT	0	I/E Stability
CASPEED	IQUANT	1	Control Amp Speed
CONVENTION	IQUANT	1	Current Convention
ICHRANGE	IQUANT	2	Ich Range
ICHRANGEMODE	TOGGLE	F	Ich Auto Range
ICHOFFSETENABLE	TOGGLE	T	Ich Offset Enable
ICHOFFSET	QUANT	0	Ich Offset (V)
ICHFILTER	IQUANT	3	Ich Filter
VCHRANGE	IQUANT	2	Vch Range
VCHRANGEMODE	TOGGLE	F	Vch Auto Range
VCHOFFSETENABLE	TOGGLE	T	Vch Offset Enable
VCHOFFSET	QUANT	0	Vch Offset (V)
VCHFILTER	IQUANT	3	Vch Filter
ACHRANGE	IQUANT	2	Ach Range
ACHOFFSETENABLE	TOGGLE	F	Ach Offset Enable
ACHOFFSET	QUANT	0	Ach Offset (V)
ACHFILTER	IQUANT	3	Ach Filter
IERANGELOWERLIMIT	IQUANT	1	I/E Range Lower Limit
IERANGEMODE	TOGGLE	F	I/E AutoRange
IERANGE	IQUANT	5	I/E Range
POSFEEDENABLE	TOGGLE	F	Positive Feedback IR Comp
POSFEEDRESISTANCE	QUANT	0	Positive Feedback Resistance (ohm)
ACHSELECT	IQUANT	0	Ach Select
CABLEID	IQUANT	14	Cable ID
DCCALDATE	LABEL	8/19/2019	DC Calibration Date
ACCALDATE	LABEL	8/19/2019	AC Calibration Date
THERMOSELECT	IQUANT	1	Thermo Select
FRAMEWORKVERSION	QUANT	6.33	Framework Version
INSTRUMENTVERSION	LABEL	3.50	Instrument Version
ZCURVE	TABLE
	Pt	Time	Freq	Zreal	Zimag	Zsig	Zmod	Zphz	Idc	Vdc	IERange
	#	s	Hz	ohm	ohm	V	ohm	°	A	V	#
	0	2	1000078	1741.313	-9875.48	1	10027.83	-80	2.081937E-006	0.005605	8
	1	3	794390.6	1119.67	-12105.77	1	12157.43	-84.71571	2.444915E-006	0.005227	8
	2	5	630984.4	1315.727	-15011.98	1	15069.53	-84.9911	-6.994258E-007	0.0054673	8
	3	7	501234.4	1512.132	-18404.29	1	18466.3	-85.30302	-7.342404E-007	0.0053283	8
	4	9	398109.4	1582.695	-23871.27	1	23923.68	-86.20677	2.604561E-007	0.0052193	8
	5	10	316265.6	1829.397	-29375.11	1	29432.02	-86.43639	-1.044689E-006	0.0052764	8
	6	12	251203.1	3381.881	-36608.59	1	36764.46	-84.72203	-8.032922E-007	0.0054598	8
	7	14	199546.9	3924.429	-45545.51	1	45714.27	-85.07527	-3.309731E-006	0.005856	8
	8	15	158578.1	3118.873	-56985.53	1	57070.81	-86.86727	7.765851E-007	0.0049517	8
	9	17	125953.1	6012.981	-70536.85	1	70792.68	-85.12755	-4.057827E-007	0.0070427	7
	10	19	100078.1	6612.695	-88403.23	1	88650.21	-85.72215	-1.151694E-007	0.0052689	7
	11	20	79453.13	7319.602	-110520.2	1	110762.4	-86.21091	-1.439142E-008	0.0050958	7
	12	22	63140.62	9336.456	-137533.7	1	137850.3	-86.11644	-1.38127E-008	0.0050865	7
	13	24	50203.12	10845.35	-172349.5	1	172690.4	-86.39932	1.161788E-007	0.0048317	7
	14	26	39890.62	10666.3	-212776.2	1	213043.3	-87.13021	1.764944E-007	0.0047972	7
	15	27	31640.63	17417.61	-267411.9	1	267978.5	-86.27336	1.785046E-008	0.0049548	7
	16	29	25171.88	20842.97	-336554.3	1	337199.1	-86.45617	1.152719E-007	0.0048249	7
	17	30	20015.62	3162.857	-402494.9	1	402507.3	-89.54977	-5.316954E-008	0.0051876	7
	18	32	15890.62	19265.01	-525809.6	1	526162.4	-87.9017	-8.556027E-008	0.0053309	7
	19	34	12609.37	45382.54	-660228.9	1	661786.8	-86.06781	1.917937E-008	0.0048995	6
	20	35	10078.13	60829.71	-808407.2	1	810692.6	-85.69681	5.884492E-009	0.0047956	6
	21	37	8015.625	87812.66	-1013187	1	1016985	-85.04656	2.962343E-008	0.0045952	6
	22	39	6328.125	82004.99	-1253854	1	1256532	-86.25805	-1.081803E-008	0.0053184	6
	23	40	5015.625	105519.1	-1595360	1	1598846	-86.2159	-1.661067E-008	0.0051262	6
	24	42	3984.375	175893	-1911622	1	1919697	-84.74288	3.03268E-008	0.0045797	6
	25	44	3170.956	178064	-2460558	1	2466992	-85.86087	5.748678E-009	0.0047905	6
	26	45	2527.573	102771.8	-2994895	1	2996658	-88.03463	3.011311E-008	0.0045842	6
	27	47	1976.103	-93747.7	-3910464	1	3911587	-91.37332	6.939431E-009	0.0050467	6
	28	49	1577.524	-386989.9	-5527627	1	5541158	-94.00475	2.631065E-008	0.0045091	6
	29	51	1265.625	366960.3	-6085183	1	6096238	-86.54902	-9.892378E-010	0.0050501	5
	30	52	998.264	662582.8	-7395628	1	7425250	-84.88047	-1.312385E-010	0.0052957	5
	31	54	796.875	1083136	-9392849	1	9455094	-83.422	2.713336E-009	0.0045376	5
	32	55	627.7902	729706.9	-1.214378E+007	1	1.216568E+007	-86.56129	-1.241106E-009	0.0052657	5
	33	57	505.5147	1500719	-1.461697E+007	1	1.469381E+007	-84.138	2.49438E-010	0.0048096	5
	34	58	397.9953	2514578	-1.645121E+007	1	1.664227E+007	-81.30956	3.791385E-010	0.0050101	5
	35	60	315.5048	2148545	-2.10909E+007	1	2.120006E+007	-84.1833	1.869226E-011	0.0050115	5
	36	61	252.4038	-2222833	-2.777E+007	1	2.785882E+007	-94.57645	1.51175E-010	0.00501	5
	37	63	198.6229	7848034	-3.67233E+007	1	3.755252E+007	-77.93694	2.331273E-010	0.0050112	5
	38	64	158.3615	-1592378	-4.224376E+007	1	4.227376E+007	-92.15874	2.777564E-010	0.0050068	5
	39	66	125.558	1395829	-5.616368E+007	1	5.618102E+007	-88.57632	-1.264883E-010	0.0050135	4
	40	68	100.4464	3907313	-5.671191E+007	1	5.684635E+007	-86.05869	-3.033246E-011	0.0050095	4
	41	69	79.00281	5.02054E+007	4665966	1	5.042176E+007	5.309676	-2.005758E-010	0.005014	4
	42	71	63.3446	6249096	-2370218	1	6683497	-20.77122	-3.917607E-011	0.0050068	4
	43	73	49.86702	-7431054	1.250273E+008	1	1.25248E+008	93.4014	1.105699E-010	0.0050067	5
	44	75	39.72458	6.998108E+007	1396075	1	6.9995E+007	1.142861	-2.207933E-011	0.0050053	4
	45	76	31.6723	5.054564E+007	1.247617E+007	1	5.206262E+007	13.86516	2.621052E-010	0.0050068	5
	46	78	24.93351	3.314968E+007	-2.905985E+008	1	2.924831E+008	-83.49218	6.015115E-011	0.0050067	4
	47	80	19.86229	4.395718E+007	-4.490221E+007	1	6.283664E+007	-45.60932	2.296568E-010	0.0050044	4
	48	82	15.83615	-1.739735E+007	6751460	1	1.866146E+007	158.7901	9.978101E-010	0.0050064	5
	49	83	12.40079	-2.357129E+007	1.606487E+007	1	2.852518E+007	145.7238	-4.5373E-010	0.0050077	4
	50	85	9.93114	9.19583E+007	-3.672245E+008	1	3.785633E+008	-75.94141	-5.715238E-011	0.0050064	4
	51	87	7.944915	-6.407282E+007	-2.507151E+007	1	6.88034E+007	-158.6297	-2.540337E-010	0.0050145	4
	52	89	6.317385	2.91236E+008	-1.02864E+008	1	3.08868E+008	-19.45313	1.153021E-010	0.0050135	5
	53	92	5.008013	4.193134E+008	2.675278E+008	1	4.973881E+008	32.53845	1.64101E-011	0.0050071	4
	54	95	3.945707	2.842873E+008	-3.609184E+007	1	2.865692E+008	-7.235309	5.338082E-011	0.0050069	4
	55	99	3.158693	3.76825E+008	-9.256695E+007	1	3.88028E+008	-13.80141	2.77771E-011	0.0050012	4
	56	103	2.504006	7.215057E+008	-2.395119E+007	1	7.219032E+008	-1.901299	5.644813E-011	0.005007	3
	57	107	1.998082	7.500362E+008	-1.438607E+008	1	7.637082E+008	-10.85775	4.977986E-011	0.0049685	3
	58	112	1.584686	7.319129E+008	-1.037062E+008	1	7.392236E+008	-8.064671	4.736084E-011	0.0050009	3
	59	118	1.266892	1.412912E+009	-1.485509E+008	1	1.4207E+009	-6.00192	1.644801E-012	0.004981	2
	60	125	0.999041	1.407477E+009	-1.41861E+008	1	1.414608E+009	-5.755459	1.14475E-012	0.0050425	2
