EXPLAIN
TAG	EISPOT
TITLE	LABEL	Potentiostatic EIS	Test &Identifier
DATE	LABEL	11/11/2019	Date
TIME	LABEL	11:42:05	Time
NOTES	NOTES	3	&Notes...
	
	
	
PSTAT	PSTAT	REF600-11020	Potentiostat
VDC	POTEN	0.00000E+000	T	DC &Voltage (V)
FREQINIT	QUANT	1.00000E+006	Initial Fre&q. (Hz)
FREQFINAL	QUANT	1.00000E+000	Final Fre&q. (Hz)
PTSPERDEC	QUANT	1.00000E+001	Points/&decade
VAC	QUANT	2.50000E+001	AC &Voltage (mV rms)
AREA	QUANT	1.00000E-002	&Area (cm^2)
CONDIT	TWOPARAM	T	5.00000E+000	0.00000E+000	Conditionin&g	Time(s)	E(V)
DELAY	TWOPARAM	T	5.00000E+000	0.00000E+000	Init. De&lay	Time(s)	Stab.(mV/s)
SPEED	SELECTOR	1	&Optimize for:
ZGUESS	QUANT	1.00000E+005	E&stimated Z (ohms)
OCVCURVE	TABLE	19
	Pt	T	Vf	Vm	Ach	Over
	#	s	V vs. Ref.	V	V	bits
	0	0.258333	4.40947E-003	4.40947E-003	5.68899E-004	...........
	1	0.516667	4.40655E-003	4.25635E-003	5.68432E-004	...........
	2	0.775	4.38892E-003	4.12862E-003	5.73699E-004	...........
	3	1.03333	4.34033E-003	4.01562E-003	5.68966E-004	...........
	4	1.29167	4.25671E-003	3.92594E-003	5.66332E-004	...........
	5	1.55	4.15160E-003	3.84334E-003	5.64232E-004	...........
	6	1.80833	4.04378E-003	3.77879E-003	5.67466E-004	...........
	7	2.06667	3.94567E-003	3.72362E-003	5.66399E-004	...........
	8	2.325	3.86132E-003	3.65196E-003	5.69066E-004	...........
	9	2.58333	3.78865E-003	3.59568E-003	5.67832E-004	...........
	10	2.84167	3.72332E-003	3.55349E-003	5.74066E-004	...........
	11	3.1	3.66308E-003	3.51065E-003	5.63532E-004	...........
	12	3.35833	3.60833E-003	3.46862E-003	5.67299E-004	...........
	13	3.61667	3.55945E-003	3.44022E-003	5.68466E-004	...........
	14	3.875	3.51593E-003	3.40352E-003	5.66566E-004	...........
	15	4.13333	3.47700E-003	3.37707E-003	5.65066E-004	...........
	16	4.39167	3.44169E-003	3.34289E-003	5.66999E-004	...........
	17	4.65	3.40889E-003	3.31615E-003	5.70599E-004	...........
	18	4.90833	3.37771E-003	3.28953E-003	5.69899E-004	...........
EOC	QUANT	0.0033777	Open Circuit (V)
PSTATMODEL	IQUANT	4	Pstat Model
PSTATSECTION	LABEL	REF600-11020	Pstat Section
PSTATSERIALNO	LABEL	11020	Pstat Serial Number
CTRLMODE	IQUANT	1	Control Mode
IESTAB	IQUANT	0	I/E Stability
CASPEED	IQUANT	1	Control Amp Speed
CONVENTION	IQUANT	1	Current Convention
ICHRANGE	IQUANT	2	Ich Range
ICHRANGEMODE	TOGGLE	F	Ich Auto Range
ICHOFFSETENABLE	TOGGLE	T	Ich Offset Enable
ICHOFFSET	QUANT	0	Ich Offset (V)
ICHFILTER	IQUANT	3	Ich Filter
VCHRANGE	IQUANT	2	Vch Range
VCHRANGEMODE	TOGGLE	F	Vch Auto Range
VCHOFFSETENABLE	TOGGLE	T	Vch Offset Enable
VCHOFFSET	QUANT	0	Vch Offset (V)
VCHFILTER	IQUANT	3	Vch Filter
ACHRANGE	IQUANT	2	Ach Range
ACHOFFSETENABLE	TOGGLE	F	Ach Offset Enable
ACHOFFSET	QUANT	0	Ach Offset (V)
ACHFILTER	IQUANT	3	Ach Filter
IERANGELOWERLIMIT	IQUANT	1	I/E Range Lower Limit
IERANGEMODE	TOGGLE	F	I/E AutoRange
IERANGE	IQUANT	4	I/E Range
POSFEEDENABLE	TOGGLE	F	Positive Feedback IR Comp
POSFEEDRESISTANCE	QUANT	0	Positive Feedback Resistance (ohm)
ACHSELECT	IQUANT	0	Ach Select
CABLEID	IQUANT	14	Cable ID
DCCALDATE	LABEL	8/19/2019	DC Calibration Date
ACCALDATE	LABEL	8/19/2019	AC Calibration Date
THERMOSELECT	IQUANT	1	Thermo Select
FRAMEWORKVERSION	QUANT	6.33	Framework Version
INSTRUMENTVERSION	LABEL	3.50	Instrument Version
ZCURVE	TABLE
	Pt	Time	Freq	Zreal	Zimag	Zsig	Zmod	Zphz	Idc	Vdc	IERange
	#	s	Hz	ohm	ohm	V	ohm	°	A	V	#
	0	1	1000078	2517.325	-1593.997	1	2979.556	-32.34243	-1.977342E-006	0.0065407	8
	1	2	794390.6	2820.571	-1527.466	1	3207.612	-28.43754	2.497913E-007	0.0060892	8
	2	3	630984.4	3092.671	-1406.513	1	3397.483	-24.45552	-3.990849E-006	0.0059329	8
	3	5	501234.4	3321.947	-1280.711	1	3560.274	-21.08316	-4.047511E-006	0.0055726	8
	4	6	398109.4	3503.267	-1130.945	1	3681.292	-17.89142	-1.135821E-006	0.0049055	8
	5	7	316265.6	3653.773	-991.538	1	3785.922	-15.18292	7.767103E-007	0.0054523	8
	6	9	251203.1	3766.946	-867.1624	1	3865.469	-12.96381	-5.448906E-006	0.0058733	8
	7	10	199546.9	3854.606	-757.8927	1	3928.408	-11.1236	-4.356085E-007	0.0048026	8
	8	12	158578.1	3952.788	-640.3204	1	4004.315	-9.201533	6.277047E-006	0.0043839	8
	9	13	125953.1	3998.186	-524.8417	1	4032.487	-7.478454	-7.090228E-007	0.0080731	7
	10	14	100078.1	4049.976	-478.5897	1	4078.156	-6.739444	5.671161E-008	0.0059367	7
	11	16	79453.13	4087.046	-455.1375	1	4112.31	-6.354334	5.817116E-008	0.0059306	7
	12	17	63140.62	4126.311	-439.3113	1	4149.631	-6.077153	5.881973E-008	0.0059317	7
	13	18	50203.12	4163.463	-433.5989	1	4185.981	-5.945567	-2.714565E-007	0.004187	7
	14	20	39890.62	4200.119	-436.2335	1	4222.712	-5.929603	-2.823658E-007	0.0062997	7
	15	21	31640.63	4240.005	-452.4804	1	4264.081	-6.091376	-1.144654E-006	0.0060181	7
	16	22	25171.88	4282.525	-478.2131	1	4309.142	-6.371604	7.807728E-007	0.0048212	7
	17	24	20015.62	4328.536	-515.3381	1	4359.105	-6.789448	4.750046E-007	0.0034223	7
	18	25	15890.62	4375.298	-561.8148	1	4411.221	-7.317086	7.486606E-007	0.0033296	7
	19	26	12609.37	4427.437	-621.6809	1	4470.87	-7.99296	1.286011E-007	0.0036923	7
	20	28	10078.13	4480.832	-694.3246	1	4534.307	-8.808182	-2.834254E-007	0.0062896	7
	21	29	8015.625	4544.298	-784.6978	1	4611.55	-9.79708	7.486497E-007	0.0033233	7
	22	30	6328.125	4611.668	-892.8232	1	4697.299	-10.95696	6.092002E-008	0.0059183	7
	23	32	5015.625	4684.442	-1024.903	1	4795.25	-12.3412	1.292028E-007	0.0036876	7
	24	33	3984.375	4764.054	-1188.887	1	4910.16	-14.01218	1.037081E-006	0.003947	7
	25	34	3170.956	4844.54	-1378.149	1	5036.751	-15.87971	7.791304E-007	0.0048056	7
	26	36	2527.573	4934.322	-1614.56	1	5191.757	-18.11862	1.022224E-006	0.0036381	7
	27	37	1976.103	5044.991	-1926.236	1	5400.214	-20.89743	-2.694984E-007	0.0041769	7
	28	38	1577.524	5155.283	-2266.764	1	5631.622	-23.73496	5.665795E-007	0.0052043	7
	29	40	1265.625	5273.743	-2699.513	1	5924.502	-27.10691	7.431583E-007	0.0033252	7
	30	41	998.264	5420.66	-3251.787	1	6321.208	-30.95902	6.225768E-008	0.0059072	7
	31	43	796.875	5573.088	-3899.349	1	6801.782	-34.97951	3.637538E-007	0.0055035	7
	32	44	627.7902	5771.62	-4742.963	1	7470.428	-39.41246	-2.796658E-007	0.0041573	7
	33	45	505.5147	5962.875	-5686.531	1	8239.691	-43.64111	4.716718E-007	0.0034001	7
	34	47	397.9953	6227.998	-6964.569	1	9343.082	-48.19564	7.617893E-009	0.0050151	7
	35	48	315.5048	6534.596	-8506.762	1	10726.88	-52.4698	1.653242E-009	0.0049609	6
	36	49	252.4038	6889.717	-10334.28	1	12420.37	-56.30917	1.148875E-009	0.0049578	6
	37	51	198.6229	7371.185	-12760.77	1	14736.75	-59.98737	6.097735E-010	0.0049565	6
	38	52	158.3615	7948.36	-15594.6	1	17503.37	-62.99267	7.745535E-010	0.0049546	6
	39	53	125.558	8714.818	-19154.03	1	21043.4	-65.53512	1.061531E-009	0.0049628	6
	40	55	100.4464	9695.09	-23347.88	1	25280.79	-67.44957	5.229295E-010	0.0049584	6
	41	56	79.00281	11086.46	-28873.23	1	30928.52	-68.9947	1.345306E-009	0.0049467	6
	42	58	63.3446	12817.26	-34761.51	1	37049.22	-69.76007	1.232111E-009	0.0049481	6
	43	59	49.86702	15158.73	-43419.16	1	45989.24	-70.75461	-1.203104E-011	0.0049576	6
	44	60	39.72458	18111.15	-52528.34	1	55562.95	-70.97641	1.228361E-009	0.0049609	6
	45	62	31.6723	22305.79	-63629.76	1	67426.21	-70.68158	4.456727E-010	0.0049631	6
	46	63	24.93351	27918.17	-77430.86	1	82310.16	-70.17292	8.706683E-010	0.0049462	6
	47	64	19.86229	35040.67	-93028.61	1	99409.1	-69.36034	1.812007E-009	0.0049558	6
	48	66	15.83615	43790.91	-110351.2	1	118722.5	-68.35523	-3.615269E-011	0.0049661	5
	49	67	12.40079	58048.23	-133653.2	1	145714.7	-66.52374	-4.881259E-010	0.0049595	5
	50	69	9.93114	73327.27	-154919.9	1	171397.4	-64.6707	7.720702E-011	0.004964	5
	51	70	7.944915	91902.83	-179407.7	1	201576.9	-62.87589	6.298833E-010	0.0049588	5
	52	72	6.317385	114228.2	-206010.6	1	235559.8	-60.99264	3.353922E-010	0.0049805	5
	53	74	5.008013	140718.6	-235024.5	1	273931.1	-59.08935	5.081369E-010	0.0049687	5
	54	76	3.945707	171322.6	-267025.3	1	317260	-57.3159	-1.067113E-010	0.0049602	5
	55	79	3.158693	202613.4	-299323.7	1	361451	-55.90577	3.261857E-010	0.0049784	5
	56	82	2.504006	237693.3	-336372.9	1	411879.7	-54.75359	-2.28243E-010	0.0049667	5
	57	85	1.998082	272690.2	-376199.4	1	464635.3	-54.06331	1.752526E-010	0.0049184	5
	58	88	1.584686	310080.6	-426117.7	1	526997.4	-53.95708	-2.996245E-011	0.0049417	5
	59	92	1.266892	349096.1	-481108	1	594418.3	-54.03504	2.092126E-010	0.0049198	5
	60	96	0.999041	392805.1	-553477.4	1	678699.5	-54.63653	-2.903849E-012	0.0049893	5
