EXPLAIN
TAG	EISPOT
TITLE	LABEL	Potentiostatic EIS	Test &Identifier
DATE	LABEL	10/20/2019	Date
TIME	LABEL	11:01:33	Time
NOTES	NOTES	1	&Notes...
	
PSTAT	PSTAT	REF600-11020	Potentiostat
VDC	POTEN	0.00000E+000	T	DC &Voltage (V)
FREQINIT	QUANT	1.00000E+006	Initial Fre&q. (Hz)
FREQFINAL	QUANT	1.00000E+000	Final Fre&q. (Hz)
PTSPERDEC	QUANT	1.00000E+001	Points/&decade
VAC	QUANT	2.50000E+001	AC &Voltage (mV rms)
AREA	QUANT	1.00000E-002	&Area (cm^2)
CONDIT	TWOPARAM	T	5.00000E+000	0.00000E+000	Conditionin&g	Time(s)	E(V)
DELAY	TWOPARAM	T	5.00000E+000	0.00000E+000	Init. De&lay	Time(s)	Stab.(mV/s)
SPEED	SELECTOR	1	&Optimize for:
ZGUESS	QUANT	1.00000E+005	E&stimated Z (ohms)
OCVCURVE	TABLE	19
	Pt	T	Vf	Vm	Ach	Over
	#	s	V vs. Ref.	V	V	bits
	0	0.258333	5.20179E-003	5.20179E-003	5.32300E-004	...........
	1	0.516667	5.20256E-003	5.24207E-003	5.35366E-004	...........
	2	0.775	5.20705E-003	5.26790E-003	5.35733E-004	...........
	3	1.03333	5.21885E-003	5.28684E-003	5.34433E-004	...........
	4	1.29167	5.23847E-003	5.33124E-003	5.36033E-004	...........
	5	1.55	5.26572E-003	5.46150E-003	5.33100E-004	...........
	6	1.80833	5.30115E-003	5.29251E-003	5.34800E-004	...........
	7	2.06667	5.33716E-003	5.42777E-003	5.36933E-004	...........
	8	2.325	5.36365E-003	5.45498E-003	5.43666E-004	...........
	9	2.58333	5.38505E-003	5.48199E-003	5.41233E-004	...........
	10	2.84167	5.41183E-003	5.51661E-003	5.36799E-004	...........
	11	3.1	5.44494E-003	5.56121E-003	5.42866E-004	...........
	12	3.35833	5.48057E-003	5.58616E-003	5.41899E-004	...........
	13	3.61667	5.51668E-003	5.62844E-003	5.37433E-004	...........
	14	3.875	5.55252E-003	5.66007E-003	5.39399E-004	...........
	15	4.13333	5.58793E-003	5.69536E-003	5.42799E-004	...........
	16	4.39167	5.62282E-003	5.71750E-003	5.31633E-004	...........
	17	4.65	5.65652E-003	5.75508E-003	5.36199E-004	...........
	18	4.90833	5.68870E-003	5.78563E-003	5.38666E-004	...........
EOC	QUANT	0.0056887	Open Circuit (V)
PSTATMODEL	IQUANT	4	Pstat Model
PSTATSECTION	LABEL	REF600-11020	Pstat Section
PSTATSERIALNO	LABEL	11020	Pstat Serial Number
CTRLMODE	IQUANT	1	Control Mode
IESTAB	IQUANT	0	I/E Stability
CASPEED	IQUANT	1	Control Amp Speed
CONVENTION	IQUANT	1	Current Convention
ICHRANGE	IQUANT	2	Ich Range
ICHRANGEMODE	TOGGLE	F	Ich Auto Range
ICHOFFSETENABLE	TOGGLE	T	Ich Offset Enable
ICHOFFSET	QUANT	0	Ich Offset (V)
ICHFILTER	IQUANT	3	Ich Filter
VCHRANGE	IQUANT	2	Vch Range
VCHRANGEMODE	TOGGLE	F	Vch Auto Range
VCHOFFSETENABLE	TOGGLE	T	Vch Offset Enable
VCHOFFSET	QUANT	0	Vch Offset (V)
VCHFILTER	IQUANT	3	Vch Filter
ACHRANGE	IQUANT	2	Ach Range
ACHOFFSETENABLE	TOGGLE	F	Ach Offset Enable
ACHOFFSET	QUANT	0	Ach Offset (V)
ACHFILTER	IQUANT	3	Ach Filter
IERANGELOWERLIMIT	IQUANT	1	I/E Range Lower Limit
IERANGEMODE	TOGGLE	F	I/E AutoRange
IERANGE	IQUANT	5	I/E Range
POSFEEDENABLE	TOGGLE	F	Positive Feedback IR Comp
POSFEEDRESISTANCE	QUANT	0	Positive Feedback Resistance (ohm)
ACHSELECT	IQUANT	0	Ach Select
CABLEID	IQUANT	14	Cable ID
DCCALDATE	LABEL	8/19/2019	DC Calibration Date
ACCALDATE	LABEL	8/19/2019	AC Calibration Date
THERMOSELECT	IQUANT	1	Thermo Select
FRAMEWORKVERSION	QUANT	6.33	Framework Version
INSTRUMENTVERSION	LABEL	3.50	Instrument Version
ZCURVE	TABLE
	Pt	Time	Freq	Zreal	Zimag	Zsig	Zmod	Zphz	Idc	Vdc	IERange
	#	s	Hz	ohm	ohm	V	ohm	°	A	V	#
	0	1	1000078	2151.148	-850.8962	1	2313.323	-21.58149	-2.760022E-006	0.0080706	8
	1	3	794390.6	2296.729	-771.6288	1	2422.886	-18.57073	-3.055896E-006	0.0083272	8
	2	4	630984.4	2398.278	-691.8862	1	2496.086	-16.09248	-2.934876E-006	0.0080952	8
	3	5	501234.4	2473.164	-613.5543	1	2548.135	-13.93292	-2.96286E-006	0.0079484	8
	4	7	398109.4	2547.827	-551.6251	1	2606.859	-12.21644	-1.232442E-006	0.0077061	8
	5	8	316265.6	2604.061	-491.7765	1	2650.09	-10.69435	-3.289304E-006	0.0080636	8
	6	10	251203.1	2656.657	-446.0246	1	2693.839	-9.53047	-1.561326E-007	0.0073223	8
	7	11	199546.9	2694.924	-417.0815	1	2727.008	-8.797617	-4.810031E-008	0.0072682	8
	8	13	158578.1	2724.035	-404.809	1	2753.949	-8.452659	-2.167565E-006	0.0077521	8
	9	14	125953.1	2785.506	-339.1647	1	2806.078	-6.942193	-7.737174E-007	0.0094594	7
	10	15	100078.1	2817.551	-334.4778	1	2837.335	-6.770026	-1.028656E-008	0.0073565	7
	11	17	79453.13	2853.159	-347.7369	1	2874.272	-6.948816	-7.876159E-008	0.0074296	7
	12	18	63140.62	2891.451	-364.2504	1	2914.303	-7.180012	-5.385345E-008	0.0074538	7
	13	19	50203.12	2934.447	-385.881	1	2959.709	-7.491436	-4.213935E-008	0.0073198	7
	14	21	39890.62	2980.429	-410.5367	1	3008.571	-7.842806	1.366132E-007	0.0070907	7
	15	22	31640.63	3029.787	-441.4757	1	3061.782	-8.290325	-3.806691E-008	0.0073166	7
	16	23	25171.88	3082.905	-476.9211	1	3119.576	-8.79387	1.367006E-007	0.0070896	7
	17	25	20015.62	3136.509	-520.3842	1	3179.385	-9.420241	-7.659662E-009	0.0073371	7
	18	26	15890.62	3201.803	-567.7607	1	3251.752	-10.05547	4.319732E-008	0.0071586	7
	19	28	12609.37	3269.175	-624.746	1	3328.335	-10.8189	-4.129234E-008	0.0073167	7
	20	29	10078.13	3341.952	-686.417	1	3411.717	-11.60679	6.994934E-008	0.0071754	7
	21	30	8015.625	3428.101	-755.8694	1	3510.443	-12.43431	8.194946E-008	0.0072448	7
	22	32	6328.125	3513.208	-839.8136	1	3612.191	-13.44396	1.389697E-007	0.00708	7
	23	33	5015.625	3607.214	-931.8664	1	3725.637	-14.48477	-1.977537E-008	0.0074367	7
	24	34	3984.375	3708.265	-1035.338	1	3850.085	-15.5996	8.083522E-008	0.0072424	7
	25	36	3170.956	3802.878	-1157.846	1	3975.235	-16.93369	-9.891205E-009	0.0073364	7
	26	37	2527.573	3903.345	-1303.04	1	4115.096	-18.46038	-1.998941E-008	0.0074381	7
	27	39	1976.103	4010.385	-1497.663	1	4280.909	-20.47795	3.264583E-008	0.0072541	7
	28	40	1577.524	4116.294	-1650.253	1	4434.773	-21.84622	-4.503663E-008	0.0073851	7
	29	41	1265.625	4210.609	-1982.634	1	4654.038	-25.21417	-1.097106E-008	0.0072554	7
	30	43	998.264	4323.741	-2339.923	1	4916.297	-28.42137	4.53179E-008	0.0071504	7
	31	44	796.875	4434.227	-2772.563	1	5229.673	-32.01627	-3.675424E-008	0.0073019	7
	32	45	627.7902	4565.415	-3341.315	1	5657.508	-36.19948	8.159714E-008	0.0072469	7
	33	47	505.5147	4700.175	-3984.839	1	6162.028	-40.2915	-7.345544E-009	0.0073212	7
	34	48	397.9953	4874.308	-4863.657	1	6885.785	-44.93733	4.747715E-009	0.0073029	7
	35	49	315.5048	5074.302	-5930.428	1	7805.031	-49.44843	4.562136E-009	0.0073063	7
	36	51	252.4038	5305.438	-7198.581	1	8942.44	-53.60935	4.239384E-009	0.0073076	7
	37	52	198.6229	5616.872	-8885.132	1	10511.65	-57.70035	4.7728E-010	0.0072418	6
	38	54	158.3615	5981.411	-10856.76	1	12395.43	-61.14793	1.514796E-009	0.0072408	6
	39	55	125.558	6465.043	-13344.33	1	14827.94	-64.15079	6.486455E-010	0.007243	6
	40	56	100.4464	7041.481	-16303.44	1	17759.07	-66.6404	6.758738E-010	0.007245	6
	41	58	79.00281	7843.214	-20116.8	1	21591.7	-68.7	-4.309327E-010	0.0072419	6
	42	59	63.3446	8654.055	-24731.52	1	26201.92	-70.71404	-2.409184E-012	0.0072411	6
	43	60	49.86702	10411.8	-30099.97	1	31849.86	-70.91913	-9.809031E-010	0.007238	6
	44	62	39.72458	11966.91	-36910.03	1	38801.51	-72.03636	7.745895E-010	0.0072447	6
	45	63	31.6723	14209.67	-44853.42	1	47050.44	-72.42168	1.484196E-009	0.0072376	6
	46	65	24.93351	17395.43	-55275.78	1	57948.36	-72.53108	8.420603E-010	0.0072392	6
	47	66	19.86229	21325.2	-67016.89	1	70328	-72.3486	9.638748E-010	0.0072389	6
	48	67	15.83615	25640.93	-80940.13	1	84904.43	-72.42238	2.80061E-009	0.0072358	6
	49	69	12.40079	33202.64	-97952.2	1	103426.5	-71.27499	1.647794E-009	0.0072391	6
	50	70	9.93114	42370.25	-118072.6	1	125444.7	-70.25951	3.825215E-010	0.0072395	5
	51	72	7.944915	53607.48	-140070.7	1	149978.5	-69.05728	-5.053518E-011	0.007244	5
	52	74	6.317385	67395.68	-165816.7	1	178989.8	-67.88087	4.33252E-010	0.0072369	5
	53	76	5.008013	85240.78	-196295.7	1	214004.7	-66.52726	1.859202E-010	0.0072494	5
	54	78	3.945707	107513.5	-231231.9	1	255004.6	-65.06348	-2.497655E-010	0.0072352	5
	55	81	3.158693	132848.7	-268191.7	1	299291.7	-63.6485	3.554005E-010	0.0072539	5
	56	84	2.504006	164387.5	-311092.9	1	351855.2	-62.14717	-3.769058E-010	0.0072435	5
	57	87	1.998082	199733.5	-356746.1	1	408853.6	-60.75659	8.565863E-011	0.0071992	5
	58	90	1.584686	240991.8	-408558.7	1	474338.7	-59.46541	-9.184772E-011	0.0072608	5
	59	94	1.266892	287282.8	-465154.9	1	546717.9	-58.30025	-5.75579E-011	0.0072041	5
	60	98	0.999041	341943.6	-530926.7	1	631512.9	-57.21642	3.092451E-010	0.00728	5
