EXPLAIN
TAG	EISPOT
TITLE	LABEL	Potentiostatic EIS	Test &Identifier
DATE	LABEL	9/26/2019	Date
TIME	LABEL	10:25:17	Time
NOTES	NOTES	2	&Notes...
	
	
PSTAT	PSTAT	REF600-11020	Potentiostat
VDC	POTEN	0.00000E+000	T	DC &Voltage (V)
FREQINIT	QUANT	1.00000E+006	Initial Fre&q. (Hz)
FREQFINAL	QUANT	1.00000E+000	Final Fre&q. (Hz)
PTSPERDEC	QUANT	1.00000E+001	Points/&decade
VAC	QUANT	2.50000E+001	AC &Voltage (mV rms)
AREA	QUANT	1.00000E-002	&Area (cm^2)
CONDIT	TWOPARAM	T	5.00000E+000	0.00000E+000	Conditionin&g	Time(s)	E(V)
DELAY	TWOPARAM	T	5.00000E+000	0.00000E+000	Init. De&lay	Time(s)	Stab.(mV/s)
SPEED	SELECTOR	1	&Optimize for:
ZGUESS	QUANT	1.00000E+004	E&stimated Z (ohms)
OCVCURVE	TABLE	19
	Pt	T	Vf	Vm	Ach	Over
	#	s	V vs. Ref.	V	V	bits
	0	0.258333	5.28635E-002	5.28635E-002	5.63499E-004	...........
	1	0.516667	5.29278E-002	5.62332E-002	5.63666E-004	...........
	2	0.775	5.33211E-002	5.93183E-002	5.67166E-004	...........
	3	1.03333	5.44243E-002	6.21632E-002	5.69399E-004	...........
	4	1.29167	5.63735E-002	6.48103E-002	5.66899E-004	...........
	5	1.55	5.89207E-002	6.72660E-002	5.69332E-004	...........
	6	1.80833	6.16830E-002	6.95787E-002	5.64932E-004	...........
	7	2.06667	6.43902E-002	7.17527E-002	5.63299E-004	...........
	8	2.325	6.69313E-002	7.38183E-002	5.61932E-004	...........
	9	2.58333	6.92941E-002	7.57676E-002	5.63932E-004	...........
	10	2.84167	7.15017E-002	7.76140E-002	5.67899E-004	...........
	11	3.1	7.35781E-002	7.93291E-002	5.69199E-004	...........
	12	3.35833	7.55374E-002	8.09959E-002	5.68766E-004	...........
	13	3.61667	7.73887E-002	8.25601E-002	5.61832E-004	...........
	14	3.875	7.91440E-002	8.42077E-002	5.62666E-004	...........
	15	4.13333	8.08238E-002	8.57453E-002	5.67432E-004	...........
	16	4.39167	8.24506E-002	8.71991E-002	5.66499E-004	...........
	17	4.65	8.40357E-002	8.87307E-002	5.63732E-004	...........
	18	4.90833	8.55815E-002	9.01299E-002	5.66666E-004	...........
EOC	QUANT	0.0855815	Open Circuit (V)
PSTATMODEL	IQUANT	4	Pstat Model
PSTATSECTION	LABEL	REF600-11020	Pstat Section
PSTATSERIALNO	LABEL	11020	Pstat Serial Number
CTRLMODE	IQUANT	1	Control Mode
IESTAB	IQUANT	0	I/E Stability
CASPEED	IQUANT	1	Control Amp Speed
CONVENTION	IQUANT	1	Current Convention
ICHRANGE	IQUANT	2	Ich Range
ICHRANGEMODE	TOGGLE	F	Ich Auto Range
ICHOFFSETENABLE	TOGGLE	T	Ich Offset Enable
ICHOFFSET	QUANT	0	Ich Offset (V)
ICHFILTER	IQUANT	3	Ich Filter
VCHRANGE	IQUANT	2	Vch Range
VCHRANGEMODE	TOGGLE	F	Vch Auto Range
VCHOFFSETENABLE	TOGGLE	T	Vch Offset Enable
VCHOFFSET	QUANT	0	Vch Offset (V)
VCHFILTER	IQUANT	3	Vch Filter
ACHRANGE	IQUANT	2	Ach Range
ACHOFFSETENABLE	TOGGLE	F	Ach Offset Enable
ACHOFFSET	QUANT	0	Ach Offset (V)
ACHFILTER	IQUANT	3	Ach Filter
IERANGELOWERLIMIT	IQUANT	1	I/E Range Lower Limit
IERANGEMODE	TOGGLE	F	I/E AutoRange
IERANGE	IQUANT	7	I/E Range
POSFEEDENABLE	TOGGLE	F	Positive Feedback IR Comp
POSFEEDRESISTANCE	QUANT	0	Positive Feedback Resistance (ohm)
ACHSELECT	IQUANT	0	Ach Select
CABLEID	IQUANT	14	Cable ID
DCCALDATE	LABEL	8/19/2019	DC Calibration Date
ACCALDATE	LABEL	8/19/2019	AC Calibration Date
THERMOSELECT	IQUANT	1	Thermo Select
FRAMEWORKVERSION	QUANT	6.33	Framework Version
INSTRUMENTVERSION	LABEL	3.50	Instrument Version
ZCURVE	TABLE
	Pt	Time	Freq	Zreal	Zimag	Zsig	Zmod	Zphz	Idc	Vdc	IERange
	#	s	Hz	ohm	ohm	V	ohm	°	A	V	#
	0	1	1000078	2091.326	-2200.772	1	3035.958	-46.46069	2.400162E-006	0.0881111	8
	1	3	794390.6	2519.969	-2342.739	1	3440.737	-42.91269	-6.341772E-006	0.0886735	8
	2	4	630984.4	2952.568	-2442.336	1	3831.796	-39.59723	3.269427E-007	0.0874916	8
	3	6	501234.4	3397.086	-2490.479	1	4212.206	-36.24596	-8.893822E-007	0.0874776	8
	4	8	398109.4	3848.309	-2517.081	1	4598.389	-33.18767	3.853219E-006	0.0864068	8
	5	9	316265.6	4281.046	-2474.635	1	4944.813	-30.02983	1.924909E-006	0.0866179	8
	6	11	251203.1	4672.703	-2418.003	1	5261.263	-27.3604	2.973013E-006	0.0864449	8
	7	12	199546.9	5073.998	-2368.989	1	5599.782	-25.0273	-3.08255E-006	0.0876997	8
	8	14	158578.1	5430.834	-2316.441	1	5904.224	-23.09995	1.997921E-006	0.0866536	8
	9	15	125953.1	5778.227	-2050.842	1	6131.383	-19.54109	-8.484523E-007	0.0888114	7
	10	17	100078.1	6045.43	-1901.568	1	6337.443	-17.46078	-4.719161E-008	0.0871362	7
	11	18	79453.13	6512.218	-1990.154	1	6809.53	-16.99331	6.627261E-008	0.0869132	7
	12	20	63140.62	6828.032	-1886.929	1	7083.962	-15.44815	8.015104E-008	0.0868518	7
	13	21	50203.12	7130.727	-1778.753	1	7349.233	-14.00653	1.371901E-007	0.0868237	7
	14	23	39890.62	7228.223	-1537.444	1	7389.922	-12.00787	-3.534041E-008	0.0870418	7
	15	24	31640.63	7286.049	-1338.637	1	7408	-10.41062	8.620289E-008	0.0868478	7
	16	26	25171.88	7377.484	-1204.616	1	7475.184	-9.273576	-1.228617E-008	0.0869774	7
	17	27	20015.62	7486.632	-1116.015	1	7569.356	-8.478517	-5.81914E-008	0.0870745	7
	18	29	15890.62	7576.459	-1050.53	1	7648.944	-7.894135	9.546726E-008	0.0869664	7
	19	31	12609.37	7643.102	-1005.442	1	7708.95	-7.494171	-3.249716E-009	0.0870698	7
	20	32	10078.13	7704.559	-996.984	1	7768.796	-7.373205	-4.367415E-009	0.087164	7
	21	34	8015.625	7762.531	-1022.932	1	7829.641	-7.507077	-4.74176E-008	0.0871216	7
	22	35	6328.125	7823.357	-1079.661	1	7897.505	-7.857463	-4.816636E-008	0.0871252	7
	23	37	5015.625	7888.895	-1175.878	1	7976.049	-8.477796	-2.798381E-009	0.087067	7
	24	38	3984.375	7985.458	-1319.36	1	8093.717	-9.381673	7.177918E-008	0.0869023	7
	25	40	3170.956	8147.575	-1512.021	1	8286.688	-10.5133	1.428901E-007	0.0868126	7
	26	41	2527.573	8152.374	-1745.899	1	8337.228	-12.08778	-5.081428E-009	0.0871581	7
	27	43	1976.103	8221.469	-2077.403	1	8479.867	-14.18069	7.23035E-008	0.0868964	7
	28	44	1577.524	8303.34	-2452.858	1	8658.058	-16.45747	-4.008769E-008	0.0870629	7
	29	46	1265.625	8402.948	-2933.243	1	8900.194	-19.24272	9.725893E-008	0.0869638	7
	30	48	998.264	8533.649	-3533.655	1	9236.335	-22.49371	-4.176516E-008	0.0870652	7
	31	49	796.875	8683.015	-4259.613	1	9671.56	-26.13111	-7.185978E-009	0.0869953	6
	32	50	627.7902	8860.567	-5216.726	1	10282.21	-30.48777	-8.053559E-009	0.0870433	6
	33	52	505.5147	9052.495	-6288.115	1	11022.16	-34.78492	-9.359391E-009	0.0871146	6
	34	53	397.9953	9310.771	-7742.263	1	12109.21	-39.74482	-6.758563E-010	0.0869863	6
	35	54	315.5048	9614.09	-9497.235	1	13514	-44.64967	4.031407E-010	0.086987	6
	36	56	252.4038	9977.52	-11576.43	1	15282.82	-49.24255	1.142069E-010	0.0869805	6
	37	57	198.6229	10466.72	-14328.05	1	17743.88	-53.85166	-3.135887E-010	0.0869809	6
	38	58	158.3615	11054.29	-17553.08	1	20743.87	-57.79876	-4.776266E-010	0.0869746	6
	39	60	125.558	11829.45	-21589.01	1	24617.5	-61.27998	-7.143668E-011	0.0869815	6
	40	61	100.4464	12822.87	-26376.46	1	29328.21	-64.07337	-1.587177E-009	0.086978	6
	41	63	79.00281	14176.8	-32754.81	1	35691.16	-66.59628	-1.54595E-009	0.08698	6
	42	64	63.3446	15470.76	-39305.52	1	42240.6	-68.51527	-1.099349E-010	0.0869785	6
	43	65	49.86702	18483.08	-49395.53	1	52740.33	-69.48489	2.415158E-010	0.086967	6
	44	67	39.72458	20939.15	-60070.52	1	63615.37	-70.78267	-4.353282E-010	0.0869804	6
	45	68	31.6723	24536.06	-73071.8	1	77081.16	-71.43896	-2.762394E-010	0.0869773	6
	46	70	24.93351	30085.13	-89623.52	1	94538.3	-71.44395	-7.72104E-010	0.0869712	6
	47	71	19.86229	36753.14	-108675	1	114721.7	-71.31482	-4.910126E-010	0.086989	5
	48	73	15.83615	44465.03	-130950.4	1	138293.7	-71.24476	-1.546173E-009	0.0869795	5
	49	74	12.40079	59403.09	-160313.1	1	170965	-69.66811	4.458149E-010	0.0869799	5
	50	76	9.93114	72405.17	-190188.5	1	203504.7	-69.15806	-9.81948E-010	0.0869882	5
	51	77	7.944915	92861.29	-224752.3	1	243180.6	-67.55096	-4.879908E-010	0.0869901	5
	52	79	6.317385	116319.9	-266118	1	290429.2	-66.38991	-1.196138E-009	0.0869776	5
	53	81	5.008013	147448	-312960	1	345955	-64.77299	-1.18073E-009	0.0869749	5
	54	83	3.945707	186704.7	-366144.6	1	410999.4	-62.98203	-9.671036E-010	0.0869817	5
	55	86	3.158693	230428.9	-420421.9	1	479428.9	-61.27331	-1.106757E-009	0.0869608	5
	56	89	2.504006	282682.1	-481813.6	1	558617.5	-59.59967	-9.589228E-010	0.0869832	5
	57	92	1.998082	342233.5	-546994.3	1	645233.6	-57.96735	-7.391415E-010	0.0869683	5
	58	95	1.584686	412360.5	-619667.2	1	744331	-56.35803	-9.983322E-010	0.0869255	5
	59	99	1.266892	483372.5	-696781.6	1	848029.3	-55.25012	-7.90868E-010	0.0869673	5
	60	103	0.999041	572051.4	-788273.7	1	973970	-54.03155	-1.151231E-009	0.0869611	5
