EXPLAIN
TAG	EISPOT
TITLE	LABEL	Potentiostatic EIS	Test &Identifier
DATE	LABEL	10/12/2019	Date
TIME	LABEL	10:03:53	Time
NOTES	NOTES	1	&Notes...
	
PSTAT	PSTAT	REF600-11020	Potentiostat
VDC	POTEN	0.00000E+000	T	DC &Voltage (V)
FREQINIT	QUANT	1.00000E+006	Initial Fre&q. (Hz)
FREQFINAL	QUANT	1.00000E+000	Final Fre&q. (Hz)
PTSPERDEC	QUANT	1.00000E+001	Points/&decade
VAC	QUANT	2.50000E+001	AC &Voltage (mV rms)
AREA	QUANT	1.00000E-002	&Area (cm^2)
CONDIT	TWOPARAM	T	5.00000E+000	0.00000E+000	Conditionin&g	Time(s)	E(V)
DELAY	TWOPARAM	T	5.00000E+000	0.00000E+000	Init. De&lay	Time(s)	Stab.(mV/s)
SPEED	SELECTOR	1	&Optimize for:
ZGUESS	QUANT	1.00000E+004	E&stimated Z (ohms)
OCVCURVE	TABLE	19
	Pt	T	Vf	Vm	Ach	Over
	#	s	V vs. Ref.	V	V	bits
	0	0.258333	7.45403E-003	7.45403E-003	5.56832E-004	...........
	1	0.516667	7.45387E-003	7.44567E-003	5.56832E-004	...........
	2	0.775	7.45429E-003	7.51095E-003	5.50366E-004	...........
	3	1.03333	7.45987E-003	7.56078E-003	5.52966E-004	...........
	4	1.29167	7.47797E-003	7.61777E-003	5.50699E-004	...........
	5	1.55	7.51200E-003	7.67626E-003	5.49433E-004	...........
	6	1.80833	7.55874E-003	7.72628E-003	5.53166E-004	...........
	7	2.06667	7.61202E-003	7.77090E-003	5.50899E-004	...........
	8	2.325	7.66676E-003	7.84526E-003	5.53733E-004	...........
	9	2.58333	7.72160E-003	7.90236E-003	5.48433E-004	...........
	10	2.84167	7.77826E-003	7.97410E-003	5.47499E-004	...........
	11	3.1	7.83837E-003	8.04118E-003	5.41366E-004	...........
	12	3.35833	7.90191E-003	8.10595E-003	5.55166E-004	...........
	13	3.61667	7.96759E-003	8.16483E-003	5.54766E-004	...........
	14	3.875	8.03342E-003	8.22810E-003	5.51999E-004	...........
	15	4.13333	8.09780E-003	8.28232E-003	5.49599E-004	...........
	16	4.39167	8.15998E-003	8.33682E-003	5.51133E-004	...........
	17	4.65	8.21962E-003	8.38895E-003	5.50433E-004	...........
	18	4.90833	8.27647E-003	8.43167E-003	5.54466E-004	...........
EOC	QUANT	0.0082765	Open Circuit (V)
PSTATMODEL	IQUANT	4	Pstat Model
PSTATSECTION	LABEL	REF600-11020	Pstat Section
PSTATSERIALNO	LABEL	11020	Pstat Serial Number
CTRLMODE	IQUANT	1	Control Mode
IESTAB	IQUANT	0	I/E Stability
CASPEED	IQUANT	1	Control Amp Speed
CONVENTION	IQUANT	1	Current Convention
ICHRANGE	IQUANT	2	Ich Range
ICHRANGEMODE	TOGGLE	F	Ich Auto Range
ICHOFFSETENABLE	TOGGLE	T	Ich Offset Enable
ICHOFFSET	QUANT	0	Ich Offset (V)
ICHFILTER	IQUANT	3	Ich Filter
VCHRANGE	IQUANT	2	Vch Range
VCHRANGEMODE	TOGGLE	F	Vch Auto Range
VCHOFFSETENABLE	TOGGLE	T	Vch Offset Enable
VCHOFFSET	QUANT	0	Vch Offset (V)
VCHFILTER	IQUANT	3	Vch Filter
ACHRANGE	IQUANT	2	Ach Range
ACHOFFSETENABLE	TOGGLE	F	Ach Offset Enable
ACHOFFSET	QUANT	0	Ach Offset (V)
ACHFILTER	IQUANT	3	Ach Filter
IERANGELOWERLIMIT	IQUANT	1	I/E Range Lower Limit
IERANGEMODE	TOGGLE	F	I/E AutoRange
IERANGE	IQUANT	6	I/E Range
POSFEEDENABLE	TOGGLE	F	Positive Feedback IR Comp
POSFEEDRESISTANCE	QUANT	0	Positive Feedback Resistance (ohm)
ACHSELECT	IQUANT	0	Ach Select
CABLEID	IQUANT	14	Cable ID
DCCALDATE	LABEL	8/19/2019	DC Calibration Date
ACCALDATE	LABEL	8/19/2019	AC Calibration Date
THERMOSELECT	IQUANT	1	Thermo Select
FRAMEWORKVERSION	QUANT	6.33	Framework Version
INSTRUMENTVERSION	LABEL	3.50	Instrument Version
ZCURVE	TABLE
	Pt	Time	Freq	Zreal	Zimag	Zsig	Zmod	Zphz	Idc	Vdc	IERange
	#	s	Hz	ohm	ohm	V	ohm	°	A	V	#
	0	1	1000078	2406.191	-1672.348	1	2930.273	-34.80003	6.515462E-006	0.0094598	8
	1	3	794390.6	2732.004	-1563.62	1	3147.817	-29.78399	4.923589E-007	0.0095484	8
	2	4	630984.4	3018.982	-1439.281	1	3344.516	-25.48919	-2.989393E-007	0.0099027	8
	3	6	501234.4	3249.707	-1278.539	1	3492.171	-21.47627	-8.008132E-007	0.0102335	8
	4	7	398109.4	3440.992	-1119.606	1	3618.556	-18.02349	1.785792E-006	0.0094662	8
	5	8	316265.6	3582.803	-958.45	1	3708.788	-14.97673	3.013573E-006	0.0092501	8
	6	10	251203.1	3687.136	-823.0984	1	3777.892	-12.5841	3.811101E-006	0.00917	8
	7	11	199546.9	3761.307	-701.3173	1	3826.131	-10.56184	-9.049245E-007	0.0097427	8
	8	13	158578.1	3837.822	-604.1774	1	3885.088	-8.946486	-2.918076E-006	0.010414	8
	9	14	125953.1	3914.936	-479.5596	1	3944.198	-6.983649	-3.266724E-007	0.0101605	7
	10	16	100078.1	3919.235	-433.1282	1	3943.095	-6.306364	4.103293E-008	0.0096637	7
	11	17	79453.13	3951.839	-396.2607	1	3971.656	-5.72605	-4.437561E-008	0.0098755	7
	12	18	63140.62	3982.465	-371.2259	1	3999.73	-5.325443	4.168927E-008	0.0097355	7
	13	20	50203.12	4011.469	-356.9938	1	4027.323	-5.085542	4.315821E-008	0.0096476	7
	14	21	39890.62	4039.078	-350.2766	1	4054.238	-4.956401	4.32176E-008	0.0097233	7
	15	22	31640.63	4068.139	-353.7466	1	4083.49	-4.969676	9.703117E-008	0.0096867	7
	16	24	25171.88	4095.77	-365.7475	1	4112.067	-5.102912	-4.129861E-008	0.009868	7
	17	25	20015.62	4130.209	-389.4252	1	4148.527	-5.386325	-3.208329E-008	0.0097747	7
	18	26	15890.62	4155.632	-417.8835	1	4176.59	-5.742266	5.874318E-008	0.00968	7
	19	28	12609.37	4185.471	-459.7757	1	4210.649	-6.268829	7.587673E-008	0.0096159	7
	20	29	10078.13	4216.436	-516.6931	1	4247.977	-6.986343	-5.263767E-008	0.0098314	7
	21	31	8015.625	4260.921	-585.0314	1	4300.896	-7.817922	1.084131E-008	0.0098661	7
	22	32	6328.125	4286.365	-687.7482	1	4341.189	-9.115428	9.803666E-009	0.0097123	7
	23	33	5015.625	4325.97	-808.0424	1	4400.79	-10.58028	1.04475E-008	0.0098647	7
	24	35	3984.375	4374.458	-954.283	1	4477.335	-12.30621	-9.29427E-009	0.0098253	7
	25	36	3170.956	4421.527	-1139.152	1	4565.914	-14.44736	1.153985E-008	0.0097457	7
	26	37	2527.573	4478.679	-1363.056	1	4681.505	-16.92727	4.377706E-008	0.0097267	7
	27	39	1976.103	4551.967	-1666.385	1	4847.396	-20.10668	-1.325258E-008	0.009811	7
	28	40	1577.524	4630.117	-2000.072	1	5043.636	-23.3629	-4.09642E-008	0.0098624	7
	29	41	1265.625	4734.095	-2406.415	1	5310.602	-26.94495	4.466936E-008	0.0096356	7
	30	43	998.264	4856.516	-2932.979	1	5673.457	-31.12889	-2.065814E-008	0.0097527	7
	31	44	796.875	5000.717	-3546.665	1	6130.742	-35.34546	-1.344638E-008	0.0097677	7
	32	45	627.7902	5173.903	-4338.181	1	6751.969	-39.97894	-7.550291E-008	0.0100014	7
	33	47	505.5147	5361.102	-5216.743	1	7480.363	-44.21812	-6.538723E-008	0.0098959	7
	34	48	397.9953	5609.301	-6400.305	1	8510.474	-48.7683	5.642986E-009	0.0097927	7
	35	49	315.5048	5894.256	-7820.426	1	9792.92	-52.99466	5.679923E-009	0.0097895	7
	36	51	252.4038	6224.005	-9498.322	1	11355.9	-56.76421	3.962222E-010	0.0097211	6
	37	52	198.6229	6659.723	-11721.54	1	13481.34	-60.39645	1.362799E-009	0.0097226	6
	38	53	158.3615	7177.936	-14319.07	1	16017.44	-63.37608	1.027268E-009	0.0097241	6
	39	55	125.558	7852.08	-17580.12	1	19253.98	-65.9323	1.195578E-009	0.0097268	6
	40	56	100.4464	8662.746	-21433.86	1	23118.25	-67.99332	1.244009E-009	0.009725	6
	41	58	79.00281	9908.93	-26465.38	1	28259.57	-69.47354	6.861047E-010	0.0097253	6
	42	59	63.3446	11192.86	-31883.16	1	33790.77	-70.65593	8.248726E-010	0.0097197	6
	43	60	49.86702	13475.73	-39692	1	41917.18	-71.24727	7.458772E-010	0.0097258	6
	44	62	39.72458	15800.99	-48267.07	1	50787.62	-71.87332	1.172299E-009	0.0097268	6
	45	63	31.6723	19209.83	-58509.39	1	61582.2	-71.82393	4.896492E-010	0.0097208	6
	46	64	24.93351	23522.93	-71494.16	1	75264.49	-71.78782	4.043583E-010	0.0097242	6
	47	66	19.86229	29012.68	-86177.76	1	90930.42	-71.39364	3.580331E-010	0.0097148	6
	48	67	15.83615	36099.71	-102932.8	1	109079.5	-70.67365	1.683096E-010	0.0097294	5
	49	69	12.40079	45744.13	-124934.4	1	133045.5	-69.89003	1.016906E-009	0.0097248	5
	50	70	9.93114	57311.47	-148869.6	1	159520.4	-68.94441	6.07825E-010	0.0097283	5
	51	72	7.944915	72030.73	-175980.3	1	190151.3	-67.74016	3.800201E-010	0.0097275	5
	52	73	6.317385	89325.31	-207942.4	1	226316.3	-66.75321	-1.648727E-010	0.0097288	5
	53	75	5.008013	112017.1	-245059.8	1	269447.8	-65.43481	4.247657E-013	0.0097211	5
	54	78	3.945707	140191.5	-287799.7	1	320128.6	-64.02861	4.049499E-010	0.0097276	5
	55	80	3.158693	172410.8	-332739.4	1	374754.6	-62.60881	-8.262184E-012	0.0097279	5
	56	84	2.504006	211402.7	-384783.8	1	439032.7	-61.21533	2.952255E-010	0.009719	5
	57	86	1.998082	255069.2	-440264.2	1	508815.1	-59.91393	-1.172058E-010	0.0097582	5
	58	90	1.584686	306400.1	-504404.7	1	590173.8	-58.72346	2.054096E-010	0.0097583	5
	59	93	1.266892	362199.1	-571416.7	1	676539.2	-57.63096	-1.241829E-010	0.0097549	5
	60	97	0.999041	425944.5	-652301.8	1	779054.8	-56.85599	3.279257E-010	0.0097112	5
