EXPLAIN
TAG	EISPOT
TITLE	LABEL	Potentiostatic EIS	Test &Identifier
DATE	LABEL	10/18/2019	Date
TIME	LABEL	10:26:32	Time
NOTES	NOTES	1	&Notes...
	
PSTAT	PSTAT	REF600-11020	Potentiostat
VDC	POTEN	0.00000E+000	T	DC &Voltage (V)
FREQINIT	QUANT	1.00000E+006	Initial Fre&q. (Hz)
FREQFINAL	QUANT	1.00000E+000	Final Fre&q. (Hz)
PTSPERDEC	QUANT	1.00000E+001	Points/&decade
VAC	QUANT	2.50000E+001	AC &Voltage (mV rms)
AREA	QUANT	1.00000E-002	&Area (cm^2)
CONDIT	TWOPARAM	T	5.00000E+000	0.00000E+000	Conditionin&g	Time(s)	E(V)
DELAY	TWOPARAM	T	5.00000E+000	0.00000E+000	Init. De&lay	Time(s)	Stab.(mV/s)
SPEED	SELECTOR	0	&Optimize for:
ZGUESS	QUANT	1.00000E+005	E&stimated Z (ohms)
OCVCURVE	TABLE	19
	Pt	T	Vf	Vm	Ach	Over
	#	s	V vs. Ref.	V	V	bits
	0	0.258333	4.71405E-003	4.71405E-003	4.95733E-004	...........
	1	0.516667	4.71377E-003	4.69945E-003	4.94100E-004	...........
	2	0.775	4.70955E-003	4.55439E-003	4.96033E-004	...........
	3	1.03333	4.69029E-003	4.46762E-003	4.98300E-004	...........
	4	1.29167	4.64613E-003	4.49303E-003	5.02500E-004	...........
	5	1.55	4.58503E-003	4.44437E-003	4.99667E-004	...........
	6	1.80833	4.52666E-003	4.40133E-003	5.00967E-004	...........
	7	2.06667	4.47954E-003	4.32471E-003	5.02733E-004	...........
	8	2.325	4.43734E-003	4.31140E-003	4.96667E-004	...........
	9	2.58333	4.39411E-003	4.27552E-003	5.02867E-004	...........
	10	2.84167	4.35132E-003	4.23394E-003	4.99667E-004	...........
	11	3.1	4.31263E-003	4.24992E-003	5.01367E-004	...........
	12	3.35833	4.28039E-003	4.20877E-003	5.01333E-004	...........
	13	3.61667	4.25469E-003	4.17051E-003	4.98433E-004	...........
	14	3.875	4.23143E-003	4.14220E-003	4.98433E-004	...........
	15	4.13333	4.20483E-003	4.06848E-003	4.99300E-004	...........
	16	4.39167	4.17288E-003	4.12123E-003	5.00167E-004	...........
	17	4.65	4.14666E-003	4.40184E-003	5.00667E-004	...........
	18	4.90833	4.16400E-003	4.95848E-003	4.99467E-004	...........
EOC	QUANT	0.004164	Open Circuit (V)
PSTATMODEL	IQUANT	4	Pstat Model
PSTATSECTION	LABEL	REF600-11020	Pstat Section
PSTATSERIALNO	LABEL	11020	Pstat Serial Number
CTRLMODE	IQUANT	1	Control Mode
IESTAB	IQUANT	0	I/E Stability
CASPEED	IQUANT	1	Control Amp Speed
CONVENTION	IQUANT	1	Current Convention
ICHRANGE	IQUANT	2	Ich Range
ICHRANGEMODE	TOGGLE	F	Ich Auto Range
ICHOFFSETENABLE	TOGGLE	T	Ich Offset Enable
ICHOFFSET	QUANT	0	Ich Offset (V)
ICHFILTER	IQUANT	3	Ich Filter
VCHRANGE	IQUANT	2	Vch Range
VCHRANGEMODE	TOGGLE	F	Vch Auto Range
VCHOFFSETENABLE	TOGGLE	T	Vch Offset Enable
VCHOFFSET	QUANT	0	Vch Offset (V)
VCHFILTER	IQUANT	3	Vch Filter
ACHRANGE	IQUANT	2	Ach Range
ACHOFFSETENABLE	TOGGLE	F	Ach Offset Enable
ACHOFFSET	QUANT	0	Ach Offset (V)
ACHFILTER	IQUANT	3	Ach Filter
IERANGELOWERLIMIT	IQUANT	1	I/E Range Lower Limit
IERANGEMODE	TOGGLE	F	I/E AutoRange
IERANGE	IQUANT	4	I/E Range
POSFEEDENABLE	TOGGLE	F	Positive Feedback IR Comp
POSFEEDRESISTANCE	QUANT	0	Positive Feedback Resistance (ohm)
ACHSELECT	IQUANT	0	Ach Select
CABLEID	IQUANT	14	Cable ID
DCCALDATE	LABEL	8/19/2019	DC Calibration Date
ACCALDATE	LABEL	8/19/2019	AC Calibration Date
THERMOSELECT	IQUANT	1	Thermo Select
FRAMEWORKVERSION	QUANT	6.33	Framework Version
INSTRUMENTVERSION	LABEL	3.50	Instrument Version
ZCURVE	TABLE
	Pt	Time	Freq	Zreal	Zimag	Zsig	Zmod	Zphz	Idc	Vdc	IERange
	#	s	Hz	ohm	ohm	V	ohm	°	A	V	#
	0	2	1000078	2359.333	-1093.795	1	2600.546	-24.8726	9.005433E-007	0.0065915	8
	1	2	794390.6	2539.774	-1002.889	1	2730.612	-21.54775	4.702408E-006	0.0053349	8
	2	2	630984.4	2700.526	-898.9907	1	2846.23	-18.41232	-1.416964E-006	0.0062651	8
	3	3	501234.4	2819.232	-800.1236	1	2930.575	-15.84442	-1.436664E-007	0.0061465	8
	4	3	398109.4	2915.117	-704.3207	1	2998.996	-13.58291	1.428931E-006	0.0056255	8
	5	3	316265.6	2994.908	-623.2473	1	3059.071	-11.7556	-1.434175E-006	0.0061596	8
	6	3	251203.1	3060.005	-565.7642	1	3111.868	-10.47512	-7.310398E-007	0.0061625	8
	7	4	199546.9	3096.634	-502.553	1	3137.149	-9.218167	2.775805E-006	0.0053228	8
	8	4	158578.1	3145.294	-482.022	1	3182.015	-8.712892	-2.070282E-006	0.0062469	8
	9	4	125953.1	3225.853	-391.4664	1	3249.519	-6.919172	7.088698E-007	0.0044077	7
	10	5	100078.1	3246.734	-379.8139	1	3268.874	-6.672327	-4.85768E-009	0.0058417	7
	11	5	79453.13	3282.53	-384.2367	1	3304.942	-6.676379	-3.927802E-008	0.0058567	7
	12	5	63140.62	3324.207	-394.94	1	3347.585	-6.775397	6.197956E-008	0.0057074	7
	13	6	50203.12	3368.902	-410.4496	1	3393.813	-6.946386	6.36938E-008	0.0057064	7
	14	6	39890.62	3417.019	-431.0297	1	3444.097	-7.189433	-4.610793E-009	0.005832	7
	15	6	31640.63	3468.737	-456.0294	1	3498.586	-7.489632	-1.158205E-008	0.0058617	7
	16	7	25171.88	3524.912	-486.2765	1	3558.296	-7.854617	-7.828488E-008	0.005943	7
	17	7	20015.62	3565.331	-514.6702	1	3602.287	-8.214139	-1.753135E-008	0.0057904	7
	18	7	15890.62	3648.554	-559.9808	1	3691.277	-8.725677	1.312374E-007	0.0056119	7
	19	8	12609.37	3714.35	-603.7174	1	3763.093	-9.231923	-4.255032E-008	0.0058393	7
	20	8	10078.13	3781.677	-657.5533	1	3838.418	-9.8639	-4.205805E-008	0.0058322	7
	21	8	8015.625	3852.394	-735.4446	1	3921.966	-10.80805	-1.541383E-008	0.0058525	7
	22	8	6328.125	3923.431	-791.0682	1	4002.387	-11.39952	-2.053328E-008	0.0057878	7
	23	9	5015.625	3994.919	-881.2551	1	4090.965	-12.43988	3.14332E-008	0.0057772	7
	24	9	3984.375	4079.968	-992.205	1	4198.882	-13.66839	3.280368E-008	0.0057756	7
	25	9	3170.956	4134.575	-1129.562	1	4286.096	-15.28027	9.747427E-009	0.0057365	7
	26	10	2527.573	4204.198	-1301.276	1	4400.978	-17.19825	-3.726312E-009	0.0058236	7
	27	10	1976.103	4283.686	-1538.472	1	4551.578	-19.75559	1.308842E-007	0.0056041	7
	28	10	1577.524	4338.83	-1749.612	1	4678.31	-21.96152	1.067879E-008	0.0057402	7
	29	11	1265.625	4447.409	-2146.363	1	4938.251	-25.76241	-1.35511E-008	0.0057766	7
	30	11	998.264	4547.317	-2588.84	1	5232.607	-29.65336	9.312977E-009	0.0057406	7
	31	11	796.875	4659.318	-3121.774	1	5608.45	-33.82235	-4.612427E-008	0.0058974	7
	32	12	627.7902	4803.312	-3813.379	1	6132.999	-38.44628	-1.244346E-008	0.0057744	7
	33	12	505.5147	4958.521	-4587.148	1	6754.914	-42.77205	3.5136E-008	0.0056674	7
	34	12	397.9953	5173.395	-5645.59	1	7657.46	-47.4991	8.978978E-010	0.0058217	7
	35	13	315.5048	5429.717	-6913.397	1	8790.728	-51.85424	9.252276E-010	0.0058212	7
	36	13	252.4038	5747.832	-8404.997	1	10182.41	-55.63338	-4.890592E-010	0.0057542	6
	37	13	198.6229	6175.195	-10374.19	1	12072.98	-59.23694	9.756773E-011	0.0057575	6
	38	14	158.3615	6694.853	-12651.27	1	14313.48	-62.11292	1.423744E-009	0.0057556	6
	39	14	125.558	7382.135	-15504.1	1	17171.87	-64.53897	5.003641E-010	0.0057532	6
	40	14	100.4464	8205.828	-18817.62	1	20528.97	-66.43936	-1.580892E-009	0.0057537	6
	41	15	79.00281	9376.396	-23081.66	1	24913.44	-67.89168	-5.830496E-010	0.005755	6
	42	15	63.3446	11161.72	-28165.33	1	30296.37	-68.38193	5.370234E-010	0.0057538	6
	43	15	49.86702	12973.78	-34386.14	1	36752.22	-69.32867	7.450965E-010	0.0057505	6
	44	16	39.72458	15173.75	-41375.74	1	44070.34	-69.86047	2.801914E-010	0.0057592	6
	45	16	31.6723	18114.24	-49689.25	1	52888.06	-69.97065	3.769131E-010	0.0057541	6
	46	16	24.93351	22001.03	-60487.99	1	64364.92	-70.01238	2.604237E-010	0.0057512	6
	47	17	19.86229	26790.81	-72608.73	1	77393.64	-69.7472	-5.839222E-010	0.0057511	6
	48	17	15.83615	32821.56	-86287.23	1	92318.69	-69.1744	1.333781E-009	0.0057553	6
	49	17	12.40079	40491.36	-105085.3	1	112616.4	-68.92738	1.759905E-010	0.0057644	5
	50	18	9.93114	49074.5	-123675.4	1	133056	-68.35678	7.196555E-010	0.0057727	5
	51	18	7.944915	59977.76	-145728.8	1	157588.7	-67.62935	1.1347E-009	0.0057599	5
	52	19	6.317385	73818.17	-172582.6	1	187706.9	-66.84232	6.423959E-010	0.0057415	5
	53	20	5.008013	90525.27	-204271.4	1	223431.5	-66.09892	3.794795E-010	0.0057584	5
	54	21	3.945707	110740.8	-241691.6	1	265854.1	-65.3832	1.254445E-010	0.0057611	5
	55	22	3.158693	134146.6	-282221.4	1	312480.8	-64.57714	-2.24821E-010	0.0057436	5
	56	24	2.504006	162797.3	-330281.6	1	368224	-63.76109	8.328737E-011	0.0057475	5
	57	25	1.998082	194557.5	-383828.4	1	430321.9	-63.12016	8.19437E-011	0.0057643	5
	58	26	1.584686	234328	-446289.8	1	504067.7	-62.29793	-8.901965E-011	0.0057175	5
	59	28	1.266892	278199.5	-517132.6	1	587214.6	-61.72128	-7.683774E-011	0.0057047	5
	60	31	0.999041	330230	-602898.8	1	687414.6	-61.28885	-8.480326E-011	0.0057166	5
