EXPLAIN
TAG	EISPOT
TITLE	LABEL	Potentiostatic EIS	Test &Identifier
DATE	LABEL	9/24/2019	Date
TIME	LABEL	10:11:52	Time
NOTES	NOTES	1	&Notes...
	
PSTAT	PSTAT	REF600-11020	Potentiostat
VDC	POTEN	0.00000E+000	T	DC &Voltage (V)
FREQINIT	QUANT	1.00000E+006	Initial Fre&q. (Hz)
FREQFINAL	QUANT	1.00000E+000	Final Fre&q. (Hz)
PTSPERDEC	QUANT	1.00000E+001	Points/&decade
VAC	QUANT	2.50000E+001	AC &Voltage (mV rms)
AREA	QUANT	1.00000E-002	&Area (cm^2)
CONDIT	TWOPARAM	T	5.00000E+000	0.00000E+000	Conditionin&g	Time(s)	E(V)
DELAY	TWOPARAM	T	5.00000E+000	0.00000E+000	Init. De&lay	Time(s)	Stab.(mV/s)
SPEED	SELECTOR	1	&Optimize for:
ZGUESS	QUANT	1.00000E+004	E&stimated Z (ohms)
OCVCURVE	TABLE	19
	Pt	T	Vf	Vm	Ach	Over
	#	s	V vs. Ref.	V	V	bits
	0	0.258333	-1.01691E-002	-1.01691E-002	5.52832E-004	...........
	1	0.516667	-1.02053E-002	-1.20598E-002	5.44666E-004	...........
	2	0.775	-1.04212E-002	-1.35441E-002	5.54799E-004	...........
	3	1.03333	-1.10117E-002	-1.49306E-002	5.53533E-004	...........
	4	1.29167	-1.20266E-002	-1.62290E-002	5.56966E-004	...........
	5	1.55	-1.33192E-002	-1.74398E-002	5.55999E-004	...........
	6	1.80833	-1.46949E-002	-1.85767E-002	5.50333E-004	...........
	7	2.06667	-1.60296E-002	-1.96579E-002	5.54299E-004	...........
	8	2.325	-1.72790E-002	-2.06800E-002	5.50633E-004	...........
	9	2.58333	-1.84427E-002	-2.16492E-002	5.44733E-004	...........
	10	2.84167	-1.95337E-002	-2.25724E-002	5.46799E-004	...........
	11	3.1	-2.05635E-002	-2.34538E-002	5.47566E-004	...........
	12	3.35833	-2.15404E-002	-2.42933E-002	5.46899E-004	...........
	13	3.61667	-2.24698E-002	-2.50984E-002	5.47233E-004	...........
	14	3.875	-2.33557E-002	-2.58673E-002	5.53999E-004	...........
	15	4.13333	-2.42019E-002	-2.66190E-002	5.52866E-004	...........
	16	4.39167	-2.50119E-002	-2.73279E-002	5.51399E-004	...........
	17	4.65	-2.57889E-002	-2.80015E-002	5.43766E-004	...........
	18	4.90833	-2.65339E-002	-2.86509E-002	5.48999E-004	...........
EOC	QUANT	-0.0265339	Open Circuit (V)
PSTATMODEL	IQUANT	4	Pstat Model
PSTATSECTION	LABEL	REF600-11020	Pstat Section
PSTATSERIALNO	LABEL	11020	Pstat Serial Number
CTRLMODE	IQUANT	1	Control Mode
IESTAB	IQUANT	0	I/E Stability
CASPEED	IQUANT	1	Control Amp Speed
CONVENTION	IQUANT	1	Current Convention
ICHRANGE	IQUANT	2	Ich Range
ICHRANGEMODE	TOGGLE	F	Ich Auto Range
ICHOFFSETENABLE	TOGGLE	T	Ich Offset Enable
ICHOFFSET	QUANT	0	Ich Offset (V)
ICHFILTER	IQUANT	3	Ich Filter
VCHRANGE	IQUANT	2	Vch Range
VCHRANGEMODE	TOGGLE	F	Vch Auto Range
VCHOFFSETENABLE	TOGGLE	T	Vch Offset Enable
VCHOFFSET	QUANT	0	Vch Offset (V)
VCHFILTER	IQUANT	3	Vch Filter
ACHRANGE	IQUANT	2	Ach Range
ACHOFFSETENABLE	TOGGLE	F	Ach Offset Enable
ACHOFFSET	QUANT	0	Ach Offset (V)
ACHFILTER	IQUANT	3	Ach Filter
IERANGELOWERLIMIT	IQUANT	1	I/E Range Lower Limit
IERANGEMODE	TOGGLE	F	I/E AutoRange
IERANGE	IQUANT	6	I/E Range
POSFEEDENABLE	TOGGLE	F	Positive Feedback IR Comp
POSFEEDRESISTANCE	QUANT	0	Positive Feedback Resistance (ohm)
ACHSELECT	IQUANT	0	Ach Select
CABLEID	IQUANT	14	Cable ID
DCCALDATE	LABEL	8/19/2019	DC Calibration Date
ACCALDATE	LABEL	8/19/2019	AC Calibration Date
THERMOSELECT	IQUANT	1	Thermo Select
FRAMEWORKVERSION	QUANT	6.33	Framework Version
INSTRUMENTVERSION	LABEL	3.50	Instrument Version
ZCURVE	TABLE
	Pt	Time	Freq	Zreal	Zimag	Zsig	Zmod	Zphz	Idc	Vdc	IERange
	#	s	Hz	ohm	ohm	V	ohm	°	A	V	#
	0	2	1000078	2340.932	-2113.35	1	3153.761	-42.07513	-5.089255E-006	-0.0230422	8
	1	4	794390.6	2748.255	-2174.572	1	3504.521	-38.353	4.166366E-006	-0.0252178	8
	2	5	630984.4	3151.691	-2198.059	1	3842.476	-34.89278	-9.141972E-007	-0.0247827	8
	3	7	501234.4	3562.132	-2143.082	1	4157.112	-31.03233	5.331625E-006	-0.0258064	8
	4	8	398109.4	3949.238	-2063.48	1	4455.831	-27.5871	3.992014E-007	-0.0252286	8
	5	10	316265.6	4312.682	-1964.591	1	4739.076	-24.49107	-1.201945E-007	-0.0248265	8
	6	11	251203.1	4625.873	-1813.951	1	4968.814	-21.41171	3.489216E-006	-0.0255491	8
	7	12	199546.9	4883.693	-1639.123	1	5151.425	-18.55339	1.276886E-006	-0.025166	8
	8	14	158578.1	5090.667	-1492.059	1	5304.821	-16.3357	-3.46187E-007	-0.0247684	8
	9	15	125953.1	5309.591	-1284.785	1	5462.822	-13.60264	4.405496E-007	-0.0263639	7
	10	17	100078.1	5452.964	-1166.706	1	5576.381	-12.07681	-4.429902E-008	-0.0248887	7
	11	18	79453.13	5575.365	-1079.504	1	5678.911	-10.95804	-3.392887E-008	-0.0249419	7
	12	19	63140.62	5684.092	-1011.049	1	5773.311	-10.08591	4.151268E-008	-0.0250057	7
	13	21	50203.12	5774.503	-964.956	1	5854.573	-9.486834	8.137435E-008	-0.0251209	7
	14	22	39890.62	5863.223	-946.9286	1	5939.197	-9.174228	-4.251442E-008	-0.0248981	7
	15	23	31640.63	5955.038	-949.024	1	6030.185	-9.054792	-4.352235E-008	-0.0247974	7
	16	25	25171.88	6039.317	-969.472	1	6116.635	-9.119706	-6.387063E-008	-0.0248538	7
	17	26	20015.62	6130.677	-1013.486	1	6213.884	-9.386891	4.484248E-008	-0.0251001	7
	18	27	15890.62	6232.427	-1078.864	1	6325.116	-9.82086	-4.229579E-008	-0.0248713	7
	19	29	12609.37	6342.155	-1163.338	1	6447.967	-10.39419	-3.759954E-008	-0.0249491	7
	20	30	10078.13	6457.861	-1268.74	1	6581.313	-11.11501	-2.153734E-008	-0.0248895	7
	21	31	8015.625	6591.08	-1399.036	1	6737.925	-11.98385	8.359528E-008	-0.0250026	7
	22	33	6328.125	6743.241	-1560.889	1	6921.537	-13.03298	-4.682735E-008	-0.0249218	7
	23	34	5015.625	6914.804	-1749.196	1	7132.615	-14.19596	5.872497E-009	-0.0250323	7
	24	36	3984.375	7106.619	-1964.665	1	7373.191	-15.45376	-6.220665E-008	-0.0248597	7
	25	37	3170.956	7319.547	-2218.744	1	7648.438	-16.86341	-1.430293E-008	-0.0249337	7
	26	38	2527.573	7561.192	-2496.59	1	7962.7	-18.27243	-6.196862E-008	-0.0248622	7
	27	40	1976.103	7845.482	-2842.252	1	8344.458	-19.91438	-3.198174E-008	-0.0249552	7
	28	41	1577.524	8151.499	-3197.838	1	8756.318	-21.42011	-3.125289E-008	-0.0249633	7
	29	42	1265.625	8458.938	-3580.971	1	9185.694	-22.94468	1.443351E-008	-0.0250272	7
	30	44	998.264	8814.418	-4076.245	1	9711.32	-24.81827	5.953254E-009	-0.0252236	6
	31	45	796.875	9142.513	-4622.965	1	10244.87	-26.82371	8.50273E-009	-0.0252036	6
	32	46	627.7902	9493.276	-5329.446	1	10886.93	-29.30949	-1.287083E-009	-0.0251287	6
	33	48	505.5147	9803.17	-6119.873	1	11556.6	-31.97549	3.949952E-009	-0.0251404	6
	34	49	397.9953	10145.07	-7216.507	1	12449.92	-35.42543	1.94635E-009	-0.0250008	6
	35	50	315.5048	10488.75	-8571.85	1	13545.87	-39.25713	1.599857E-009	-0.0250069	6
	36	52	252.4038	10846.34	-10206.42	1	14893.42	-43.25896	7.379125E-010	-0.0250034	6
	37	53	198.6229	11280.06	-12417.37	1	16775.9	-47.7477	1.494844E-009	-0.0250049	6
	38	55	158.3615	11777.98	-15041.33	1	19103.99	-51.93759	1.121017E-009	-0.0250096	6
	39	56	125.558	12388.51	-18378.69	1	22164.19	-56.01731	9.227952E-010	-0.0250124	6
	40	57	100.4464	13136.07	-22327.03	1	25904.68	-59.52965	1.25109E-010	-0.0250123	6
	41	59	79.00281	14112.42	-27630.27	1	31025.67	-62.9439	1.864377E-009	-0.0250115	6
	42	60	63.3446	15143.13	-33857.14	1	37089.36	-65.90268	6.298468E-010	-0.0250077	6
	43	61	49.86702	17159.46	-41178.16	1	44610.41	-67.37789	-3.703663E-011	-0.0250079	6
	44	63	39.72458	19257.35	-50628.12	1	54166.89	-69.17476	1.117994E-009	-0.025003	6
	45	64	31.6723	22026.28	-61587.57	1	65407.84	-70.32083	5.622034E-010	-0.0250106	6
	46	66	24.93351	25834.44	-75958.41	1	80231.53	-71.21616	1.165142E-009	-0.0250146	6
	47	67	19.86229	30385.14	-92197	1	97074.9	-71.75946	8.943518E-010	-0.0250102	6
	48	68	15.83615	36835.84	-112155.6	1	118049.9	-71.81801	-3.431788E-011	-0.0250085	5
	49	70	12.40079	44254.55	-138237	1	145148	-72.2483	-4.534636E-010	-0.0250055	5
	50	71	9.93114	53166.92	-164567.6	1	172942.9	-72.09589	7.351871E-010	-0.0250093	5
	51	73	7.944915	63582.65	-197534.2	1	207515.1	-72.15759	9.754169E-010	-0.0250071	5
	52	75	6.317385	79106.84	-237413.3	1	250245.8	-71.57177	6.994011E-010	-0.0250139	5
	53	77	5.008013	97073.8	-285925.4	1	301954.8	-71.24728	6.882744E-010	-0.0249907	5
	54	79	3.945707	120363.6	-344650.8	1	365063.8	-70.74909	5.401312E-010	-0.025006	5
	55	82	3.158693	146831.4	-409674.3	1	435192.5	-70.28181	6.051627E-010	-0.0249837	5
	56	85	2.504006	180214.7	-490901.2	1	522935.3	-69.84132	4.120802E-010	-0.0250101	5
	57	88	1.998082	219549.2	-582243.8	1	622261.7	-69.33983	4.574972E-010	-0.0250339	5
	58	91	1.584686	270114.2	-691798.3	1	742661.8	-68.67173	4.85417E-010	-0.0249774	5
	59	95	1.266892	327175	-820062.7	1	882919.2	-68.24981	4.279612E-010	-0.0250407	5
	60	99	0.999041	404554.5	-978437	1	1058775	-67.53638	4.56735E-010	-0.0249677	4
