EXPLAIN
TAG	EISPOT
TITLE	LABEL	Potentiostatic EIS	Test &Identifier
DATE	LABEL	11/12/2019	Date
TIME	LABEL	22:30:30	Time
NOTES	NOTES	3	&Notes...
	
	
	
PSTAT	PSTAT	REF600-11020	Potentiostat
VDC	POTEN	0.00000E+000	T	DC &Voltage (V)
FREQINIT	QUANT	1.00000E+006	Initial Fre&q. (Hz)
FREQFINAL	QUANT	1.00000E+000	Final Fre&q. (Hz)
PTSPERDEC	QUANT	1.00000E+001	Points/&decade
VAC	QUANT	2.50000E+001	AC &Voltage (mV rms)
AREA	QUANT	1.00000E-002	&Area (cm^2)
CONDIT	TWOPARAM	T	5.00000E+000	0.00000E+000	Conditionin&g	Time(s)	E(V)
DELAY	TWOPARAM	T	5.00000E+000	0.00000E+000	Init. De&lay	Time(s)	Stab.(mV/s)
SPEED	SELECTOR	1	&Optimize for:
ZGUESS	QUANT	1.00000E+005	E&stimated Z (ohms)
OCVCURVE	TABLE	19
	Pt	T	Vf	Vm	Ach	Over
	#	s	V vs. Ref.	V	V	bits
	0	0.258333	2.82607E-003	2.82607E-003	5.51832E-004	...........
	1	0.516667	2.82398E-003	2.71674E-003	5.55399E-004	...........
	2	0.775	2.81074E-003	2.59125E-003	5.52466E-004	...........
	3	1.03333	2.77215E-003	2.48462E-003	5.51966E-004	...........
	4	1.29167	2.70189E-003	2.39870E-003	5.47299E-004	...........
	5	1.55	2.60908E-003	2.32199E-003	5.46699E-004	...........
	6	1.80833	2.51032E-003	2.25877E-003	5.43033E-004	...........
	7	2.06667	2.41840E-003	2.20915E-003	5.48899E-004	...........
	8	2.325	2.33882E-003	2.15396E-003	5.51166E-004	...........
	9	2.58333	2.27119E-003	2.09485E-003	5.49066E-004	...........
	10	2.84167	2.21155E-003	2.04179E-003	5.48799E-004	...........
	11	3.1	2.15565E-003	1.99445E-003	5.52966E-004	...........
	12	3.35833	2.10159E-003	1.94994E-003	5.51799E-004	...........
	13	3.61667	2.04983E-003	1.91143E-003	5.56699E-004	...........
	14	3.875	2.00136E-003	1.87031E-003	5.57833E-004	...........
	15	4.13333	1.95650E-003	1.83473E-003	5.53599E-004	...........
	16	4.39167	1.91482E-003	1.80155E-003	5.58899E-004	...........
	17	4.65	1.87581E-003	1.76595E-003	5.48399E-004	...........
	18	4.90833	1.83886E-003	1.72676E-003	5.53099E-004	...........
EOC	QUANT	0.0018389	Open Circuit (V)
PSTATMODEL	IQUANT	4	Pstat Model
PSTATSECTION	LABEL	REF600-11020	Pstat Section
PSTATSERIALNO	LABEL	11020	Pstat Serial Number
CTRLMODE	IQUANT	1	Control Mode
IESTAB	IQUANT	0	I/E Stability
CASPEED	IQUANT	1	Control Amp Speed
CONVENTION	IQUANT	1	Current Convention
ICHRANGE	IQUANT	2	Ich Range
ICHRANGEMODE	TOGGLE	F	Ich Auto Range
ICHOFFSETENABLE	TOGGLE	T	Ich Offset Enable
ICHOFFSET	QUANT	0	Ich Offset (V)
ICHFILTER	IQUANT	3	Ich Filter
VCHRANGE	IQUANT	2	Vch Range
VCHRANGEMODE	TOGGLE	F	Vch Auto Range
VCHOFFSETENABLE	TOGGLE	T	Vch Offset Enable
VCHOFFSET	QUANT	0	Vch Offset (V)
VCHFILTER	IQUANT	3	Vch Filter
ACHRANGE	IQUANT	2	Ach Range
ACHOFFSETENABLE	TOGGLE	F	Ach Offset Enable
ACHOFFSET	QUANT	0	Ach Offset (V)
ACHFILTER	IQUANT	3	Ach Filter
IERANGELOWERLIMIT	IQUANT	1	I/E Range Lower Limit
IERANGEMODE	TOGGLE	F	I/E AutoRange
IERANGE	IQUANT	4	I/E Range
POSFEEDENABLE	TOGGLE	F	Positive Feedback IR Comp
POSFEEDRESISTANCE	QUANT	0	Positive Feedback Resistance (ohm)
ACHSELECT	IQUANT	0	Ach Select
CABLEID	IQUANT	14	Cable ID
DCCALDATE	LABEL	8/19/2019	DC Calibration Date
ACCALDATE	LABEL	8/19/2019	AC Calibration Date
THERMOSELECT	IQUANT	1	Thermo Select
FRAMEWORKVERSION	QUANT	6.33	Framework Version
INSTRUMENTVERSION	LABEL	3.50	Instrument Version
ZCURVE	TABLE
	Pt	Time	Freq	Zreal	Zimag	Zsig	Zmod	Zphz	Idc	Vdc	IERange
	#	s	Hz	ohm	ohm	V	ohm	°	A	V	#
	0	1	1000078	1879.689	-968.05	1	2114.321	-27.2487	8.688202E-006	0.0028479	8
	1	2	794390.6	2033.202	-917.41	1	2230.594	-24.28559	-3.345559E-006	0.0032208	8
	2	4	630984.4	2186.9	-852.4443	1	2347.167	-21.29562	6.853975E-006	0.0026744	8
	3	5	501234.4	2318.435	-775.7733	1	2444.783	-18.5008	-4.479746E-006	0.0039074	8
	4	6	398109.4	2428.465	-712.3207	1	2530.779	-16.34754	4.163518E-006	0.0032595	8
	5	8	316265.6	2523.471	-641.3309	1	2603.692	-14.25962	-5.413292E-006	0.004055	8
	6	9	251203.1	2606.348	-575.0385	1	2669.03	-12.44184	-4.894158E-007	0.0036645	8
	7	11	199546.9	2679.401	-514.5626	1	2728.363	-10.87095	-4.603237E-008	0.003012	8
	8	12	158578.1	2742.717	-461.5899	1	2781.288	-9.55316	-3.968039E-006	0.0036069	8
	9	13	125953.1	2795.969	-381.5802	1	2821.887	-7.771438	-1.895652E-006	0.0061626	7
	10	15	100078.1	2834.726	-341.4226	1	2855.212	-6.867789	7.264189E-008	0.002165	7
	11	16	79453.13	2867.751	-315.9787	1	2885.106	-6.287685	-6.143971E-007	0.0031559	7
	12	17	63140.62	2897.256	-296.4593	1	2912.384	-5.84241	-8.726369E-007	0.0037123	7
	13	19	50203.12	2926.778	-282.8868	1	2940.418	-5.520755	3.741268E-007	0.001907	7
	14	20	39890.62	2949.857	-274.5652	1	2962.607	-5.317626	-6.179725E-007	0.0031524	7
	15	21	31640.63	2978.639	-273.1019	1	2991.133	-5.238619	8.798394E-007	0.0020351	7
	16	23	25171.88	2998.219	-277.1171	1	3010.998	-5.280689	-7.204583E-007	0.0046296	7
	17	24	20015.62	3022.242	-287.9801	1	3035.931	-5.443103	-4.889815E-007	0.0045558	7
	18	26	15890.62	3044.893	-306.3336	1	3060.263	-5.744952	-8.755138E-007	0.0037121	7
	19	27	12609.37	3069.83	-331.8373	1	3087.713	-6.169507	-8.752936E-007	0.0037057	7
	20	28	10078.13	3093.838	-366.6939	1	3115.493	-6.759389	-1.008212E-006	0.0041712	7
	21	30	8015.625	3123.698	-412.6804	1	3150.84	-7.525921	5.263928E-007	0.0033705	7
	22	31	6328.125	3153.38	-473.001	1	3188.657	-8.530661	7.860485E-007	0.0018624	7
	23	32	5015.625	3181.576	-546.4239	1	3228.158	-9.74526	-6.140564E-007	0.0031545	7
	24	34	3984.375	3215.834	-637.4241	1	3278.399	-11.21152	-4.879142E-007	0.0045503	7
	25	35	3170.956	3254.164	-750.5398	1	3339.594	-12.98758	3.488577E-007	0.0036371	7
	26	37	2527.573	3292.693	-888.5476	1	3410.476	-15.1018	-8.73812E-007	0.003715	7
	27	38	1976.103	3346.091	-1076.31	1	3514.935	-17.83101	7.015964E-007	0.0030158	7
	28	39	1577.524	3394.947	-1288.477	1	3631.231	-20.78315	3.48903E-007	0.0036374	7
	29	41	1265.625	3453.884	-1536.612	1	3780.276	-23.98399	-6.180397E-007	0.0031526	7
	30	42	998.264	3529.143	-1873.173	1	3995.451	-27.95815	-6.17156E-007	0.0031472	7
	31	43	796.875	3613.666	-2266.266	1	4265.506	-32.09338	8.674697E-008	0.0039912	7
	32	45	627.7902	3719.509	-2777.348	1	4642.026	-36.74861	-8.732274E-007	0.003702	7
	33	46	505.5147	3837.459	-3358.106	1	5099.311	-41.18871	8.442283E-007	0.0026162	7
	34	48	397.9953	4002.342	-4128.647	1	5750.171	-45.88995	6.043689E-009	0.0032633	7
	35	49	315.5048	4202.097	-5058.22	1	6575.957	-50.28202	3.318508E-009	0.0032634	7
	36	50	252.4038	4444.89	-6148.497	1	7586.9	-54.13596	3.801258E-009	0.0032564	7
	37	52	198.6229	4780.081	-7583.333	1	8964.157	-57.77512	6.459208E-009	0.0032594	7
	38	53	158.3615	5193.731	-9240.869	1	10600.4	-60.6623	8.285153E-010	0.0032066	6
	39	54	125.558	5738.982	-11307.04	1	12680.1	-63.08955	8.481218E-010	0.0031967	6
	40	56	100.4464	6427.479	-13706.66	1	15138.86	-64.87666	1.166792E-009	0.0032037	6
	41	57	79.00281	7375.858	-16843.54	1	18387.72	-66.35119	1.166678E-009	0.0032057	6
	42	59	63.3446	8453.18	-20336.42	1	22023.31	-67.42895	9.292953E-011	0.0032093	6
	43	60	49.86702	10107.8	-24675.51	1	26665.49	-67.72457	2.497261E-010	0.0032021	6
	44	61	39.72458	12131.46	-29744.68	1	32123.49	-67.81175	1.146908E-009	0.0032036	6
	45	63	31.6723	14759.53	-35639.59	1	38574.91	-67.50394	6.394464E-010	0.0032106	6
	46	64	24.93351	18141.52	-42901.3	1	46579.35	-67.07813	1.012395E-009	0.0032001	6
	47	66	19.86229	22275.72	-50883.11	1	55545.46	-66.35706	1.644035E-009	0.0032105	6
	48	67	15.83615	27278.14	-60078.73	1	65981.45	-65.58006	4.169287E-010	0.003208	6
	49	68	12.40079	34245.41	-71320.65	1	79116.27	-64.35149	1.729133E-009	0.0032113	6
	50	70	9.93114	41585.75	-83024.64	1	92857.23	-63.39442	1.499845E-010	0.003214	6
	51	71	7.944915	50484.41	-95806.9	1	108294.2	-62.21351	1.737305E-009	0.0032078	5
	52	73	6.317385	61193.95	-111074.6	1	126815.9	-61.14846	1.096824E-010	0.0032301	5
	53	75	5.008013	73870.08	-128067.3	1	147844.6	-60.02337	3.034334E-010	0.0032122	5
	54	78	3.945707	88553.19	-147458.5	1	172004.9	-59.01394	7.859864E-010	0.0032151	5
	55	80	3.158693	104048.7	-167963.1	1	197579.7	-58.22288	-1.79085E-010	0.0031978	5
	56	83	2.504006	121530.6	-191967	1	227202.5	-57.66289	7.5525E-010	0.003206	5
	57	86	1.998082	139825.8	-218729.3	1	259603.1	-57.41067	3.444258E-010	0.0032396	5
	58	89	1.584686	159928.8	-250447.8	1	297155.4	-57.43885	2.164439E-010	0.0031725	5
	59	93	1.266892	180408.4	-288413.8	1	340190.8	-57.97322	3.01203E-010	0.0032264	5
	60	97	0.999041	205057.2	-336700.7	1	394228.1	-58.65779	-2.88383E-010	0.0031686	5
