EXPLAIN
TAG	EISPOT
TITLE	LABEL	Potentiostatic EIS	Test &Identifier
DATE	LABEL	10/22/2019	Date
TIME	LABEL	10:08:45	Time
NOTES	NOTES	1	&Notes...
	
PSTAT	PSTAT	REF600-11020	Potentiostat
VDC	POTEN	0.00000E+000	T	DC &Voltage (V)
FREQINIT	QUANT	1.00000E+006	Initial Fre&q. (Hz)
FREQFINAL	QUANT	1.00000E+000	Final Fre&q. (Hz)
PTSPERDEC	QUANT	1.00000E+001	Points/&decade
VAC	QUANT	2.50000E+001	AC &Voltage (mV rms)
AREA	QUANT	1.00000E-002	&Area (cm^2)
CONDIT	TWOPARAM	T	5.00000E+000	0.00000E+000	Conditionin&g	Time(s)	E(V)
DELAY	TWOPARAM	T	5.00000E+000	0.00000E+000	Init. De&lay	Time(s)	Stab.(mV/s)
SPEED	SELECTOR	1	&Optimize for:
ZGUESS	QUANT	1.00000E+005	E&stimated Z (ohms)
OCVCURVE	TABLE	19
	Pt	T	Vf	Vm	Ach	Over
	#	s	V vs. Ref.	V	V	bits
	0	0.258333	9.05255E-003	9.05255E-003	5.18133E-004	...........
	1	0.516667	9.05494E-003	9.17769E-003	5.17500E-004	...........
	2	0.775	9.07054E-003	9.34447E-003	5.16900E-004	...........
	3	1.03333	9.11628E-003	9.42868E-003	5.22433E-004	...........
	4	1.29167	9.19797E-003	9.52311E-003	5.20166E-004	...........
	5	1.55	9.30532E-003	9.78978E-003	5.21400E-004	...........
	6	1.80833	9.42503E-003	9.60688E-003	5.29666E-004	...........
	7	2.06667	9.53861E-003	9.71516E-003	5.19633E-004	...........
	8	2.325	9.63242E-003	1.02316E-002	5.14100E-004	...........
	9	2.58333	9.73689E-003	1.04921E-002	5.16133E-004	...........
	10	2.84167	9.89961E-003	1.03890E-002	5.19066E-004	...........
	11	3.1	1.01065E-002	1.05722E-002	5.12700E-004	...........
	12	3.35833	1.02992E-002	1.07724E-002	5.17833E-004	...........
	13	3.61667	1.04544E-002	1.08138E-002	5.15133E-004	...........
	14	3.875	1.05853E-002	1.08340E-002	5.18900E-004	...........
	15	4.13333	1.06967E-002	1.09432E-002	5.13400E-004	...........
	16	4.39167	1.07878E-002	1.10892E-002	5.19966E-004	...........
	17	4.65	1.08718E-002	1.12154E-002	5.19266E-004	...........
	18	4.90833	1.09664E-002	1.13196E-002	5.24466E-004	...........
EOC	QUANT	0.0109664	Open Circuit (V)
PSTATMODEL	IQUANT	4	Pstat Model
PSTATSECTION	LABEL	REF600-11020	Pstat Section
PSTATSERIALNO	LABEL	11020	Pstat Serial Number
CTRLMODE	IQUANT	1	Control Mode
IESTAB	IQUANT	0	I/E Stability
CASPEED	IQUANT	1	Control Amp Speed
CONVENTION	IQUANT	1	Current Convention
ICHRANGE	IQUANT	2	Ich Range
ICHRANGEMODE	TOGGLE	F	Ich Auto Range
ICHOFFSETENABLE	TOGGLE	T	Ich Offset Enable
ICHOFFSET	QUANT	0	Ich Offset (V)
ICHFILTER	IQUANT	3	Ich Filter
VCHRANGE	IQUANT	2	Vch Range
VCHRANGEMODE	TOGGLE	F	Vch Auto Range
VCHOFFSETENABLE	TOGGLE	T	Vch Offset Enable
VCHOFFSET	QUANT	0	Vch Offset (V)
VCHFILTER	IQUANT	3	Vch Filter
ACHRANGE	IQUANT	2	Ach Range
ACHOFFSETENABLE	TOGGLE	F	Ach Offset Enable
ACHOFFSET	QUANT	0	Ach Offset (V)
ACHFILTER	IQUANT	3	Ach Filter
IERANGELOWERLIMIT	IQUANT	1	I/E Range Lower Limit
IERANGEMODE	TOGGLE	F	I/E AutoRange
IERANGE	IQUANT	5	I/E Range
POSFEEDENABLE	TOGGLE	F	Positive Feedback IR Comp
POSFEEDRESISTANCE	QUANT	0	Positive Feedback Resistance (ohm)
ACHSELECT	IQUANT	0	Ach Select
CABLEID	IQUANT	14	Cable ID
DCCALDATE	LABEL	8/19/2019	DC Calibration Date
ACCALDATE	LABEL	8/19/2019	AC Calibration Date
THERMOSELECT	IQUANT	1	Thermo Select
FRAMEWORKVERSION	QUANT	6.33	Framework Version
INSTRUMENTVERSION	LABEL	3.50	Instrument Version
ZCURVE	TABLE
	Pt	Time	Freq	Zreal	Zimag	Zsig	Zmod	Zphz	Idc	Vdc	IERange
	#	s	Hz	ohm	ohm	V	ohm	°	A	V	#
	0	1	1000078	2081.546	-981.918	1	2301.52	-25.25444	-6.248242E-006	0.0139712	8
	1	3	794390.6	2253.77	-902.0772	1	2427.596	-21.81388	1.32566E-006	0.0130482	8
	2	4	630984.4	2380.487	-825.3132	1	2519.496	-19.1214	-1.882328E-006	0.0131203	8
	3	6	501234.4	2497.216	-735.9883	1	2603.414	-16.42149	1.855421E-007	0.012807	8
	4	7	398109.4	2597.927	-657.383	1	2679.809	-14.20014	-3.004806E-006	0.0132797	8
	5	8	316265.6	2668.766	-593.4844	1	2733.959	-12.53751	-1.111697E-006	0.0128505	8
	6	10	251203.1	2730.523	-533.6179	1	2782.176	-11.05778	3.802689E-006	0.0119188	8
	7	11	199546.9	2786.763	-483.1324	1	2828.333	-9.83543	-4.199687E-006	0.0135358	8
	8	12	158578.1	2821.616	-452.6138	1	2857.688	-9.113148	-6.077328E-007	0.0126175	8
	9	14	125953.1	2886.612	-399.3087	1	2914.099	-7.875816	6.492801E-007	0.0106804	7
	10	15	100078.1	2922.559	-390.1917	1	2948.491	-7.604606	-3.751369E-008	0.0125412	7
	11	17	79453.13	2963.349	-396.9647	1	2989.819	-7.629814	-3.555026E-010	0.0125206	7
	12	18	63140.62	3006.981	-409.6435	1	3034.755	-7.757697	-7.481414E-008	0.0126341	7
	13	19	50203.12	3054.056	-426.8102	1	3083.735	-7.95567	3.267397E-008	0.0124711	7
	14	21	39890.62	3104.25	-448.9652	1	3136.549	-8.22958	-3.766998E-008	0.0125894	7
	15	22	31640.63	3158.551	-476.3707	1	3194.272	-8.576674	-3.391946E-008	0.0125404	7
	16	23	25171.88	3215.094	-509.8998	1	3255.276	-9.011805	-6.117261E-009	0.0125385	7
	17	25	20015.62	3274.699	-550.0749	1	3320.578	-9.53537	2.090145E-009	0.0125143	7
	18	26	15890.62	3340.848	-592.875	1	3393.047	-10.06308	-1.344012E-008	0.0125535	7
	19	27	12609.37	3409.971	-646.1182	1	3470.645	-10.72916	-1.289162E-008	0.0126424	7
	20	29	10078.13	3481.447	-704.752	1	3552.063	-11.44378	-1.16133E-008	0.0124801	7
	21	30	8015.625	3561.687	-771.3908	1	3644.263	-12.22039	-5.2186E-008	0.0126701	7
	22	32	6328.125	3639.289	-859.8041	1	3739.477	-13.29273	8.067585E-008	0.012458	7
	23	33	5015.625	3722.223	-960.536	1	3844.161	-14.46975	-1.416677E-008	0.0125503	7
	24	34	3984.375	3804.342	-1072.731	1	3952.692	-15.74715	-5.909397E-009	0.0125423	7
	25	36	3170.956	3892.385	-1224.732	1	4080.519	-17.46609	2.326112E-009	0.0125132	7
	26	37	2527.573	3980.081	-1401.962	1	4219.78	-19.40453	-1.456214E-008	0.012634	7
	27	38	1976.103	4077.09	-1643.043	1	4395.708	-21.94914	3.814192E-008	0.0123777	7
	28	40	1577.524	4175.161	-1927.309	1	4598.532	-24.77867	8.296676E-008	0.012456	7
	29	41	1265.625	4272.459	-2255.422	1	4831.235	-27.82948	-1.363545E-008	0.0125472	7
	30	42	998.264	4388.961	-2702.473	1	5154.254	-31.6224	-4.723664E-009	0.0125415	7
	31	44	796.875	4517.423	-3231.983	1	5554.532	-35.58176	-3.998123E-008	0.0125359	7
	32	45	627.7902	4669.757	-3926.068	1	6100.873	-40.05523	7.47021E-008	0.0123551	7
	33	47	505.5147	4839.189	-4710.33	1	6753.145	-44.22691	6.101078E-008	0.0124032	7
	34	48	397.9953	5058.364	-5774.385	1	7676.625	-48.78162	4.809374E-009	0.0125257	7
	35	49	315.5048	5325.274	-7055.785	1	8839.833	-52.95673	5.398805E-009	0.0125294	7
	36	51	252.4038	5649.299	-8566.766	1	10261.78	-56.5974	1.474081E-009	0.0124638	6
	37	52	198.6229	6086.687	-10560.47	1	12188.99	-60.04236	9.533441E-010	0.0124618	6
	38	53	158.3615	6614.503	-12873.15	1	14473.06	-62.80492	1.004499E-009	0.0124621	6
	39	55	125.558	7318.018	-15762.86	1	17378.75	-65.09658	8.695032E-010	0.0124633	6
	40	56	100.4464	8190.146	-19123.45	1	20803.48	-66.81563	-1.670904E-010	0.0124628	6
	41	58	79.00281	9381.256	-23562.96	1	25361.8	-68.29073	8.799007E-010	0.0124595	6
	42	59	63.3446	10659.44	-28261.8	1	30205.18	-69.33514	6.826641E-010	0.0124627	6
	43	60	49.86702	12935.86	-34795.57	1	37122.35	-69.6065	-1.870542E-010	0.01246	6
	44	62	39.72458	15207.02	-41986.65	1	44655.71	-70.09027	1.131469E-009	0.0124646	6
	45	63	31.6723	18057.45	-50590.08	1	53716.18	-70.35666	-1.320828E-010	0.0124626	6
	46	65	24.93351	22199.98	-61442.95	1	65330.5	-70.13468	2.891766E-010	0.0124649	6
	47	66	19.86229	27134.04	-73590.82	1	78433.83	-69.76031	1.12477E-009	0.0124678	6
	48	67	15.83615	33396.22	-87438.08	1	93598.74	-69.09608	1.374294E-009	0.0124616	6
	49	69	12.40079	41082.38	-105508.9	1	113224.9	-68.72537	1.186602E-009	0.012463	5
	50	70	9.93114	50163.32	-125637.3	1	135281.5	-68.2346	6.778302E-010	0.0124608	5
	51	72	7.944915	61145.9	-148141.1	1	160264.2	-67.5714	-2.927291E-010	0.0124606	5
	52	73	6.317385	74869.42	-175314.4	1	190632	-66.87471	4.631246E-010	0.0124524	5
	53	75	5.008013	91726.12	-207234.5	1	226627	-66.12486	2.281064E-010	0.0124732	5
	54	78	3.945707	112635.6	-245420.8	1	270033.6	-65.3473	-1.597249E-010	0.0124635	5
	55	81	3.158693	135956.9	-286096.5	1	316757.8	-64.58231	2.826969E-010	0.0124822	5
	56	84	2.504006	165108.7	-335798	1	374194	-63.8171	-2.694547E-010	0.012468	5
	57	87	1.998082	198051.1	-389910.6	1	437326.5	-63.07217	1.512834E-011	0.0124273	5
	58	90	1.584686	236981.2	-453169	1	511392.4	-62.39303	-4.067063E-011	0.0124848	5
	59	93	1.266892	281249.3	-524894.1	1	595495.6	-61.81666	-2.565948E-011	0.012424	5
	60	98	0.999041	334942.5	-610926.6	1	696719.3	-61.2661	1.229648E-010	0.012503	5
