EXPLAIN
TAG	EISPOT
TITLE	LABEL	Potentiostatic EIS	Test &Identifier
DATE	LABEL	11/3/2019	Date
TIME	LABEL	10:57:11	Time
NOTES	NOTES	1	&Notes...
	
PSTAT	PSTAT	REF600-11020	Potentiostat
VDC	POTEN	0.00000E+000	T	DC &Voltage (V)
FREQINIT	QUANT	1.00000E+006	Initial Fre&q. (Hz)
FREQFINAL	QUANT	1.00000E+000	Final Fre&q. (Hz)
PTSPERDEC	QUANT	1.00000E+001	Points/&decade
VAC	QUANT	2.50000E+001	AC &Voltage (mV rms)
AREA	QUANT	1.00000E-002	&Area (cm^2)
CONDIT	TWOPARAM	T	5.00000E+000	0.00000E+000	Conditionin&g	Time(s)	E(V)
DELAY	TWOPARAM	T	5.00000E+000	0.00000E+000	Init. De&lay	Time(s)	Stab.(mV/s)
SPEED	SELECTOR	1	&Optimize for:
ZGUESS	QUANT	1.00000E+005	E&stimated Z (ohms)
OCVCURVE	TABLE	19
	Pt	T	Vf	Vm	Ach	Over
	#	s	V vs. Ref.	V	V	bits
	0	0.258333	6.46592E-003	6.46592E-003	5.66199E-004	...........
	1	0.516667	6.46122E-003	6.21980E-003	5.69766E-004	...........
	2	0.775	6.43325E-003	6.03379E-003	5.61999E-004	...........
	3	1.03333	6.35764E-003	5.88179E-003	5.65999E-004	...........
	4	1.29167	6.23056E-003	5.74550E-003	5.69932E-004	...........
	5	1.55	6.07455E-003	5.62592E-003	5.63266E-004	...........
	6	1.80833	5.91672E-003	5.51594E-003	5.62032E-004	...........
	7	2.06667	5.77220E-003	5.41341E-003	5.69132E-004	...........
	8	2.325	5.64447E-003	5.33601E-003	5.74799E-004	...........
	9	2.58333	5.53228E-003	5.26326E-003	5.70666E-004	...........
	10	2.84167	5.43416E-003	5.19548E-003	5.67666E-004	...........
	11	3.1	5.34848E-003	5.13680E-003	5.65832E-004	...........
	12	3.35833	5.27294E-003	5.07899E-003	5.71032E-004	...........
	13	3.61667	5.20524E-003	5.02775E-003	5.62632E-004	...........
	14	3.875	5.14357E-003	4.97846E-003	5.68799E-004	...........
	15	4.13333	5.08673E-003	4.93354E-003	5.66899E-004	...........
	16	4.39167	5.03399E-003	4.89122E-003	5.61399E-004	...........
	17	4.65	4.98497E-003	4.85442E-003	5.60466E-004	...........
	18	4.90833	4.93941E-003	4.81239E-003	5.71699E-004	...........
EOC	QUANT	0.0049394	Open Circuit (V)
PSTATMODEL	IQUANT	4	Pstat Model
PSTATSECTION	LABEL	REF600-11020	Pstat Section
PSTATSERIALNO	LABEL	11020	Pstat Serial Number
CTRLMODE	IQUANT	1	Control Mode
IESTAB	IQUANT	0	I/E Stability
CASPEED	IQUANT	1	Control Amp Speed
CONVENTION	IQUANT	1	Current Convention
ICHRANGE	IQUANT	2	Ich Range
ICHRANGEMODE	TOGGLE	F	Ich Auto Range
ICHOFFSETENABLE	TOGGLE	T	Ich Offset Enable
ICHOFFSET	QUANT	0	Ich Offset (V)
ICHFILTER	IQUANT	3	Ich Filter
VCHRANGE	IQUANT	2	Vch Range
VCHRANGEMODE	TOGGLE	F	Vch Auto Range
VCHOFFSETENABLE	TOGGLE	T	Vch Offset Enable
VCHOFFSET	QUANT	0	Vch Offset (V)
VCHFILTER	IQUANT	3	Vch Filter
ACHRANGE	IQUANT	2	Ach Range
ACHOFFSETENABLE	TOGGLE	F	Ach Offset Enable
ACHOFFSET	QUANT	0	Ach Offset (V)
ACHFILTER	IQUANT	3	Ach Filter
IERANGELOWERLIMIT	IQUANT	1	I/E Range Lower Limit
IERANGEMODE	TOGGLE	F	I/E AutoRange
IERANGE	IQUANT	4	I/E Range
POSFEEDENABLE	TOGGLE	F	Positive Feedback IR Comp
POSFEEDRESISTANCE	QUANT	0	Positive Feedback Resistance (ohm)
ACHSELECT	IQUANT	0	Ach Select
CABLEID	IQUANT	14	Cable ID
DCCALDATE	LABEL	8/19/2019	DC Calibration Date
ACCALDATE	LABEL	8/19/2019	AC Calibration Date
THERMOSELECT	IQUANT	1	Thermo Select
FRAMEWORKVERSION	QUANT	6.33	Framework Version
INSTRUMENTVERSION	LABEL	3.50	Instrument Version
ZCURVE	TABLE
	Pt	Time	Freq	Zreal	Zimag	Zsig	Zmod	Zphz	Idc	Vdc	IERange
	#	s	Hz	ohm	ohm	V	ohm	°	A	V	#
	0	2	1000078	2141.417	-1635.733	1	2694.678	-37.37459	3.651652E-006	0.0068385	8
	1	3	794390.6	2467.534	-1627.793	1	2956.084	-33.41221	6.667026E-006	0.0059765	8
	2	5	630984.4	2768.444	-1555.823	1	3175.668	-29.33531	-3.416631E-006	0.0065125	8
	3	6	501234.4	3045.159	-1464.177	1	3378.876	-25.67923	-1.065523E-006	0.007142	8
	4	7	398109.4	3266.364	-1337.88	1	3529.739	-22.27367	-6.169867E-007	0.0062906	8
	5	9	316265.6	3461.003	-1230.023	1	3673.077	-19.56496	-6.671661E-007	0.0062691	8
	6	10	251203.1	3620.735	-1112.53	1	3787.802	-17.08042	7.507763E-007	0.0069647	8
	7	11	199546.9	3743.678	-1016.421	1	3879.206	-15.18983	-9.106076E-007	0.0069983	8
	8	13	158578.1	3842.844	-944.5176	1	3957.216	-13.80878	5.979939E-006	0.0058296	8
	9	14	125953.1	3980.02	-821.9373	1	4064.006	-11.66845	-1.872467E-006	0.0061686	7
	10	15	100078.1	4056.527	-781.3278	1	4131.088	-10.90223	7.743475E-008	0.0075199	7
	11	17	79453.13	4141.119	-780.2342	1	4213.98	-10.67009	1.025614E-006	0.0047365	7
	12	18	63140.62	4207.595	-785.093	1	4280.213	-10.56925	-9.376661E-007	0.0082756	7
	13	19	50203.12	4292.354	-811.0237	1	4368.302	-10.69968	6.491361E-007	0.0067173	7
	14	21	39890.62	4366.04	-844.1412	1	4446.896	-10.94269	-1.286267E-006	0.0080432	7
	15	22	31640.63	4465.732	-902.9307	1	4556.1	-11.43058	1.1405E-006	0.0049627	7
	16	23	25171.88	4559.557	-975.018	1	4662.641	-12.07036	1.028483E-006	0.0047296	7
	17	25	20015.62	4658.133	-1061.853	1	4777.628	-12.84153	6.505128E-007	0.0067123	7
	18	26	15890.62	4767.339	-1171.031	1	4909.057	-13.80068	-1.148576E-006	0.0082087	7
	19	28	12609.37	4907.504	-1303.434	1	5077.65	-14.87435	1.025548E-006	0.0047245	7
	20	29	10078.13	5019.62	-1458.791	1	5227.299	-16.2048	4.171639E-007	0.007048	7
	21	30	8015.625	5210.545	-1632.417	1	5460.272	-17.3953	1.159415E-006	0.0053015	7
	22	32	6328.125	5377.257	-1834.51	1	5681.577	-18.83764	-1.286409E-006	0.0080332	7
	23	33	5015.625	5581.322	-2075.916	1	5954.879	-20.40218	-9.370551E-007	0.0082657	7
	24	34	3984.375	5807.565	-2348.39	1	6264.403	-22.0168	-1.106722E-006	0.0070501	7
	25	36	3170.956	6080.133	-2666.954	1	6639.327	-23.6839	8.002886E-008	0.0075048	7
	26	37	2527.573	6370.375	-3018.395	1	7049.283	-25.35241	8.596575E-008	0.0075054	7
	27	38	1976.103	6725.294	-3448.6	1	7557.938	-27.14787	-7.756208E-007	0.0063359	7
	28	40	1577.524	7114.25	-3913.859	1	8119.781	-28.81711	-3.352457E-007	0.0056126	7
	29	41	1265.625	7484.826	-4388.773	1	8676.633	-30.38548	8.722576E-008	0.0075034	7
	30	43	998.264	7940.499	-5001.452	1	9384.351	-32.20544	1.138775E-006	0.0049586	7
	31	44	796.875	8373.662	-5672.869	1	10114.33	-34.11629	8.841011E-007	0.0062597	7
	32	45	627.7902	8854.75	-6522.618	1	10997.78	-36.37624	5.008614E-007	0.0047508	7
	33	47	505.5147	9303.766	-7447.368	1	11917.35	-38.67616	1.59603E-007	0.0036165	6
	34	48	397.9953	9798.92	-8709.273	1	13109.93	-41.63066	1.070734E-009	0.0064648	6
	35	49	315.5048	10290.72	-10251.01	1	14525.23	-44.88924	8.778896E-010	0.0064639	6
	36	51	252.4038	10787.17	-12100.06	1	16210.33	-48.28308	2.6363E-010	0.0064586	6
	37	52	198.6229	11375.34	-14598.81	1	18507.39	-52.0744	1.065487E-009	0.0064605	6
	38	53	158.3615	12011.31	-17565.05	1	21279.16	-55.63494	8.017758E-010	0.0064655	6
	39	55	125.558	12779.35	-21347.95	1	24880.65	-59.09433	7.982913E-010	0.0064564	6
	40	56	100.4464	13713.3	-25828.4	1	29243.13	-62.03444	1.561663E-009	0.0064589	6
	41	57	79.00281	14934.36	-31927.79	1	35247.96	-64.93195	-4.654264E-011	0.0064576	6
	42	59	63.3446	16893.16	-38781.6	1	42301.2	-66.46219	-7.735513E-012	0.0064672	6
	43	60	49.86702	18297.39	-47942.72	1	51315.68	-69.1106	-4.995924E-010	0.0064654	6
	44	62	39.72458	21038.43	-58095.93	1	61787.97	-70.09303	6.101179E-010	0.0064678	6
	45	63	31.6723	24540.9	-71095.91	1	75212.26	-70.95634	6.778896E-010	0.0064678	6
	46	64	24.93351	29014.96	-87045.46	1	91753.91	-71.56516	-8.217141E-011	0.0064659	6
	47	66	19.86229	34834.3	-105487.7	1	111090.4	-71.72566	5.678946E-010	0.0064736	5
	48	67	15.83615	40612.33	-127887.6	1	134181.2	-72.3821	-1.391674E-009	0.0064757	5
	49	68	12.40079	52501.89	-154964.4	1	163616.7	-71.28364	1.006799E-009	0.006468	5
	50	70	9.93114	65113.82	-187792.5	1	198760.7	-70.87688	7.659493E-012	0.0064758	5
	51	71	7.944915	80094.49	-224039	1	237925.7	-70.32791	1.948785E-010	0.0064695	5
	52	73	6.317385	100680	-267937.1	1	286228.4	-69.4058	6.292662E-011	0.0064747	5
	53	75	5.008013	126851.9	-319918.6	1	344150.1	-68.37103	2.594102E-010	0.0064627	5
	54	78	3.945707	159963.3	-381244	1	413443.2	-67.23794	4.276074E-011	0.0064718	5
	55	80	3.158693	199958.1	-447167.6	1	489838.8	-65.90743	1.530446E-010	0.00649	5
	56	84	2.504006	250159.2	-525194.4	1	581729.1	-64.53073	-4.433259E-014	0.0064583	5
	57	87	1.998082	308708.4	-609282.6	1	683027.3	-63.1298	-8.629784E-011	0.0064555	5
	58	90	1.584686	382400.5	-703573.9	1	800778.6	-61.47541	5.020086E-011	0.0065061	5
	59	93	1.266892	462365.1	-807047.4	1	930111.3	-60.1912	-4.449021E-011	0.006447	5
	60	98	0.999041	563962.9	-927292.6	1	1085323	-58.69278	2.343172E-010	0.0064986	4
