EXPLAIN
TAG	EISPOT
TITLE	LABEL	Potentiostatic IDE	Test &Identifier
DATE	LABEL	9/6/2019	Date
TIME	LABEL	7:24:32	Time
NOTES	NOTES	1	&Notes...
	
PSTAT	PSTAT	REF600-11020	Potentiostat
VDC	POTEN	0.00000E+000	T	DC &Voltage (V)
FREQINIT	QUANT	1.00000E+006	Initial Fre&q. (Hz)
FREQFINAL	QUANT	1.00000E+000	Final Fre&q. (Hz)
PTSPERDEC	QUANT	1.00000E+001	Points/&decade
VAC	QUANT	2.50000E+001	AC &Voltage (mV rms)
AREA	QUANT	1.00000E-002	&Area (cm^2)
CONDIT	TWOPARAM	T	5.00000E+000	0.00000E+000	Conditionin&g	Time(s)	E(V)
DELAY	TWOPARAM	T	5.00000E+000	0.00000E+000	Init. De&lay	Time(s)	Stab.(mV/s)
SPEED	SELECTOR	1	&Optimize for:
ZGUESS	QUANT	1.00000E+007	E&stimated Z (ohms)
OCVCURVE	TABLE	19
	Pt	T	Vf	Vm	Ach	Over
	#	s	V vs. Ref.	V	V	bits
	0	0.258333	7.26384E-003	7.26384E-003	5.66666E-004	...........
	1	0.516667	7.26018E-003	7.07212E-003	5.65032E-004	...........
	2	0.775	7.23824E-003	6.91927E-003	5.68332E-004	...........
	3	1.03333	7.17834E-003	6.79008E-003	5.69366E-004	...........
	4	1.29167	7.07650E-003	6.68189E-003	5.70499E-004	...........
	5	1.55	6.95024E-003	6.59237E-003	5.68832E-004	...........
	6	1.80833	6.82252E-003	6.51105E-003	5.76966E-004	...........
	7	2.06667	6.70742E-003	6.44104E-003	5.76566E-004	...........
	8	2.325	6.60873E-003	6.37978E-003	5.76132E-004	...........
	9	2.58333	6.52470E-003	6.32455E-003	5.73266E-004	...........
	10	2.84167	6.45227E-003	6.27358E-003	5.77966E-004	...........
	11	3.1	6.38873E-003	6.22798E-003	5.78966E-004	...........
	12	3.35833	6.33206E-003	6.18757E-003	5.77199E-004	...........
	13	3.61667	6.28104E-003	6.14973E-003	5.69099E-004	...........
	14	3.875	6.23488E-003	6.11385E-003	5.72299E-004	...........
	15	4.13333	6.19285E-003	6.08049E-003	5.70866E-004	...........
	16	4.39167	6.15415E-003	6.04802E-003	5.67032E-004	...........
	17	4.65	6.11810E-003	6.02009E-003	5.68266E-004	...........
	18	4.90833	6.08437E-003	5.99357E-003	5.68566E-004	...........
EOC	QUANT	0.0060844	Open Circuit (V)
PSTATMODEL	IQUANT	4	Pstat Model
PSTATSECTION	LABEL	REF600-11020	Pstat Section
PSTATSERIALNO	LABEL	11020	Pstat Serial Number
CTRLMODE	IQUANT	1	Control Mode
IESTAB	IQUANT	0	I/E Stability
CASPEED	IQUANT	1	Control Amp Speed
CONVENTION	IQUANT	1	Current Convention
ICHRANGE	IQUANT	2	Ich Range
ICHRANGEMODE	TOGGLE	F	Ich Auto Range
ICHOFFSETENABLE	TOGGLE	T	Ich Offset Enable
ICHOFFSET	QUANT	0	Ich Offset (V)
ICHFILTER	IQUANT	3	Ich Filter
VCHRANGE	IQUANT	2	Vch Range
VCHRANGEMODE	TOGGLE	F	Vch Auto Range
VCHOFFSETENABLE	TOGGLE	T	Vch Offset Enable
VCHOFFSET	QUANT	0	Vch Offset (V)
VCHFILTER	IQUANT	3	Vch Filter
ACHRANGE	IQUANT	2	Ach Range
ACHOFFSETENABLE	TOGGLE	F	Ach Offset Enable
ACHOFFSET	QUANT	0	Ach Offset (V)
ACHFILTER	IQUANT	3	Ach Filter
IERANGELOWERLIMIT	IQUANT	1	I/E Range Lower Limit
IERANGEMODE	TOGGLE	F	I/E AutoRange
IERANGE	IQUANT	3	I/E Range
POSFEEDENABLE	TOGGLE	F	Positive Feedback IR Comp
POSFEEDRESISTANCE	QUANT	0	Positive Feedback Resistance (ohm)
ACHSELECT	IQUANT	0	Ach Select
CABLEID	IQUANT	14	Cable ID
DCCALDATE	LABEL	8/19/2019	DC Calibration Date
ACCALDATE	LABEL	8/19/2019	AC Calibration Date
THERMOSELECT	IQUANT	1	Thermo Select
FRAMEWORKVERSION	QUANT	6.33	Framework Version
INSTRUMENTVERSION	LABEL	3.50	Instrument Version
ZCURVE	TABLE
	Pt	Time	Freq	Zreal	Zimag	Zsig	Zmod	Zphz	Idc	Vdc	IERange
	#	s	Hz	ohm	ohm	V	ohm	°	A	V	#
	0	2	1000078	2341.858	-1716.458	1	2903.537	-36.23945	8.815175E-007	0.0086026	8
	1	4	794390.6	2689.591	-1632.422	1	3146.22	-31.25525	2.708552E-006	0.0074906	8
	2	5	630984.4	2993.991	-1505.932	1	3351.39	-26.7017	-1.643676E-006	0.0080476	8
	3	6	501234.4	3246.02	-1346.237	1	3514.114	-22.52548	-5.986956E-007	0.0080248	8
	4	8	398109.4	3427.967	-1176.304	1	3624.175	-18.93961	2.818737E-007	0.0076182	8
	5	9	316265.6	3571.589	-1023.706	1	3715.404	-15.99361	-1.998412E-006	0.0081115	8
	6	10	251203.1	3683.817	-878.9296	1	3787.218	-13.41944	1.430265E-006	0.00732	8
	7	12	199546.9	3761.673	-774.0258	1	3840.482	-11.62726	-7.313523E-007	0.0078281	8
	8	13	158578.1	3834.969	-682.4747	1	3895.222	-10.09077	1.293206E-006	0.0074152	8
	9	14	125953.1	3888.527	-589.6958	1	3932.987	-8.623211	-5.749849E-007	0.0091357	7
	10	16	100078.1	3936.15	-544.4451	1	3973.625	-7.875136	2.711537E-008	0.0075432	7
	11	17	79453.13	3975.687	-521.7126	1	4009.772	-7.475966	-1.855761E-009	0.0076455	7
	12	18	63140.62	4015.685	-512.6384	1	4048.274	-7.274973	-6.379782E-009	0.0076455	7
	13	20	50203.12	4055.755	-519.3986	1	4088.878	-7.297837	-1.450275E-008	0.0076212	7
	14	21	39890.62	4097.447	-540.3983	1	4132.929	-7.513182	-2.008477E-008	0.0076865	7
	15	22	31640.63	4141.832	-574.0389	1	4181.422	-7.890666	-2.563863E-008	0.0076364	7
	16	24	25171.88	4187.055	-623.2868	1	4233.192	-8.4669	-2.534643E-008	0.0076365	7
	17	25	20015.62	4238.584	-688.494	1	4294.138	-9.226253	1.654123E-009	0.0075759	7
	18	26	15890.62	4294.248	-773.7045	1	4363.391	-10.21354	-3.433827E-008	0.0076761	7
	19	28	12609.37	4356.664	-882.291	1	4445.104	-11.44844	-5.499975E-009	0.0076438	7
	20	29	10078.13	4423.367	-1006.875	1	4536.515	-12.82353	-5.564058E-009	0.0076419	7
	21	30	8015.625	4499.912	-1167.871	1	4648.993	-14.5491	-1.821893E-008	0.0076915	7
	22	31	6328.125	4591.191	-1367.351	1	4790.479	-16.58461	3.2606E-009	0.0075791	7
	23	33	5015.625	4693.096	-1607.083	1	4960.631	-18.90302	-4.517048E-009	0.0076467	7
	24	34	3984.375	4811.927	-1895.865	1	5171.938	-21.50408	-3.409918E-008	0.0076723	7
	25	35	3170.956	4948.925	-2237.99	1	5431.432	-24.33331	-3.298183E-008	0.0076716	7
	26	37	2527.573	5109.205	-2649.785	1	5755.461	-27.4126	-1.424963E-008	0.0076162	7
	27	38	1976.103	5316.066	-3185.127	1	6197.224	-30.92798	3.086121E-008	0.0075384	7
	28	40	1577.524	5538.486	-3779.57	1	6705.22	-34.31039	-5.637985E-009	0.0076398	7
	29	41	1265.625	5806.086	-4467.184	1	7325.733	-37.57457	-2.534645E-008	0.0076391	7
	30	42	998.264	6137.611	-5350.376	1	8142.284	-41.07983	3.28794E-008	0.0075426	7
	31	43	796.875	6510.353	-6356.783	1	9099.087	-44.3162	2.004926E-008	0.0076012	7
	32	45	627.7902	6990.676	-7629.8	1	10348.11	-47.50305	-5.510006E-009	0.0076039	6
	33	46	505.5147	7484.017	-8999.321	1	11704.63	-50.25241	9.229838E-009	0.0073741	6
	34	47	397.9953	8139.37	-10829.74	1	13547.42	-53.07236	8.037042E-010	0.0075708	6
	35	49	315.5048	8880.007	-12961.76	1	15711.84	-55.58525	5.036192E-010	0.0075719	6
	36	50	252.4038	9712.58	-15422.51	1	18226.03	-57.79866	7.443571E-010	0.007567	6
	37	51	198.6229	10766.98	-18613.94	1	21503.64	-59.95337	8.660423E-010	0.007566	6
	38	53	158.3615	11951.39	-22261.95	1	25267.18	-61.77074	7.169279E-010	0.0075643	6
	39	54	125.558	13397.5	-26782.96	1	29946.95	-63.42465	6.862788E-010	0.0075672	6
	40	55	100.4464	15055.18	-32026.2	1	35388.36	-64.82227	7.865626E-010	0.0075665	6
	41	57	79.00281	17261.28	-38846.3	1	42508.67	-66.04212	6.946951E-010	0.0075655	6
	42	58	63.3446	19528.21	-46482.46	1	50417.96	-67.21176	4.357597E-010	0.0075674	6
	43	59	49.86702	22878.66	-56174.46	1	60654.79	-67.83998	5.423341E-010	0.0075657	6
	44	61	39.72458	26617.5	-67651.02	1	72699.05	-68.52269	6.999325E-010	0.0075681	6
	45	62	31.6723	31097.27	-81184.27	1	86936.33	-69.04089	6.808804E-010	0.0075708	6
	46	64	24.93351	37175.36	-98453.3	1	105238.1	-69.31378	4.989955E-010	0.0075672	6
	47	65	19.86229	44247.76	-118115.5	1	126131.4	-69.46333	7.549301E-010	0.0075739	5
	48	66	15.83615	52673.42	-141610.7	1	151089.6	-69.59685	2.967848E-010	0.0075833	5
	49	68	12.40079	65123.63	-171625.2	1	183565.5	-69.22062	8.446053E-010	0.0075761	5
	50	69	9.93114	78234.78	-204359.3	1	218822.8	-69.05168	5.811326E-010	0.0075781	5
	51	71	7.944915	95016.3	-242966.3	1	260884.5	-68.64114	5.425056E-010	0.0075775	5
	52	72	6.317385	116289.2	-289923.7	1	312376.3	-68.14415	4.829249E-011	0.0075787	5
	53	74	5.008013	143197.8	-345218.6	1	373739.8	-67.47116	3.250463E-010	0.0075827	5
	54	77	3.945707	177959	-411946.6	1	448742	-66.63588	7.568812E-011	0.0075775	5
	55	79	3.158693	218389.8	-483792.3	1	530800.5	-65.70499	7.013077E-011	0.0075603	5
	56	82	2.504006	269759.2	-569951.3	1	630566.8	-64.67171	3.255722E-010	0.0075782	5
	57	85	1.998082	331696.6	-664921.1	1	743063	-63.48764	2.25779E-010	0.0076184	5
	58	88	1.584686	406102.6	-773265.6	1	873418	-62.2925	2.068293E-010	0.0075809	5
	59	92	1.266892	496456.6	-891564.4	1	1020469	-60.88929	4.332134E-011	0.007611	5
	60	96	0.999041	605320.6	-1029232	1	1194040	-59.539	1.321485E-010	0.0075404	4
