EXPLAIN
TAG	EISPOT
TITLE	LABEL	Potentiostatic EIS	Test &Identifier
DATE	LABEL	9/26/2019	Date
TIME	LABEL	9:05:22	Time
NOTES	NOTES	2	&Notes...
	
	
PSTAT	PSTAT	REF600-11020	Potentiostat
VDC	POTEN	0.00000E+000	T	DC &Voltage (V)
FREQINIT	QUANT	1.00000E+006	Initial Fre&q. (Hz)
FREQFINAL	QUANT	1.00000E+000	Final Fre&q. (Hz)
PTSPERDEC	QUANT	1.00000E+001	Points/&decade
VAC	QUANT	2.50000E+001	AC &Voltage (mV rms)
AREA	QUANT	1.00000E-002	&Area (cm^2)
CONDIT	TWOPARAM	T	5.00000E+000	0.00000E+000	Conditionin&g	Time(s)	E(V)
DELAY	TWOPARAM	T	5.00000E+000	0.00000E+000	Init. De&lay	Time(s)	Stab.(mV/s)
SPEED	SELECTOR	1	&Optimize for:
ZGUESS	QUANT	1.00000E+004	E&stimated Z (ohms)
OCVCURVE	TABLE	19
	Pt	T	Vf	Vm	Ach	Over
	#	s	V vs. Ref.	V	V	bits
	0	0.258333	2.75454E-002	2.75454E-002	5.62432E-004	...........
	1	0.516667	2.75757E-002	2.91323E-002	5.66632E-004	...........
	2	0.775	2.77610E-002	3.05908E-002	5.62866E-004	...........
	3	1.03333	2.82821E-002	3.19837E-002	5.66599E-004	...........
	4	1.29167	2.92078E-002	3.32930E-002	5.62999E-004	...........
	5	1.55	3.04287E-002	3.45494E-002	5.61266E-004	...........
	6	1.80833	3.17661E-002	3.54693E-002	5.64732E-004	...........
	7	2.06667	3.30841E-002	3.69058E-002	5.65332E-004	...........
	8	2.325	3.43330E-002	3.78822E-002	5.63266E-004	...........
	9	2.58333	3.55217E-002	3.87638E-002	5.63232E-004	...........
	10	2.84167	3.66452E-002	3.93483E-002	5.63599E-004	...........
	11	3.1	3.76728E-002	4.06258E-002	5.65332E-004	...........
	12	3.35833	3.86128E-002	4.14043E-002	5.64132E-004	...........
	13	3.61667	3.95173E-002	4.21650E-002	5.68066E-004	...........
	14	3.875	4.04095E-002	4.29086E-002	5.64499E-004	...........
	15	4.13333	4.12676E-002	4.36049E-002	5.62732E-004	...........
	16	4.39167	4.20719E-002	4.42781E-002	5.67266E-004	...........
	17	4.65	4.28234E-002	4.49180E-002	5.62432E-004	...........
	18	4.90833	4.35318E-002	4.55394E-002	5.63666E-004	...........
EOC	QUANT	0.0435318	Open Circuit (V)
PSTATMODEL	IQUANT	4	Pstat Model
PSTATSECTION	LABEL	REF600-11020	Pstat Section
PSTATSERIALNO	LABEL	11020	Pstat Serial Number
CTRLMODE	IQUANT	1	Control Mode
IESTAB	IQUANT	0	I/E Stability
CASPEED	IQUANT	1	Control Amp Speed
CONVENTION	IQUANT	1	Current Convention
ICHRANGE	IQUANT	2	Ich Range
ICHRANGEMODE	TOGGLE	F	Ich Auto Range
ICHOFFSETENABLE	TOGGLE	T	Ich Offset Enable
ICHOFFSET	QUANT	0	Ich Offset (V)
ICHFILTER	IQUANT	3	Ich Filter
VCHRANGE	IQUANT	2	Vch Range
VCHRANGEMODE	TOGGLE	F	Vch Auto Range
VCHOFFSETENABLE	TOGGLE	T	Vch Offset Enable
VCHOFFSET	QUANT	0	Vch Offset (V)
VCHFILTER	IQUANT	3	Vch Filter
ACHRANGE	IQUANT	2	Ach Range
ACHOFFSETENABLE	TOGGLE	F	Ach Offset Enable
ACHOFFSET	QUANT	0	Ach Offset (V)
ACHFILTER	IQUANT	3	Ach Filter
IERANGELOWERLIMIT	IQUANT	1	I/E Range Lower Limit
IERANGEMODE	TOGGLE	F	I/E AutoRange
IERANGE	IQUANT	6	I/E Range
POSFEEDENABLE	TOGGLE	F	Positive Feedback IR Comp
POSFEEDRESISTANCE	QUANT	0	Positive Feedback Resistance (ohm)
ACHSELECT	IQUANT	0	Ach Select
CABLEID	IQUANT	14	Cable ID
DCCALDATE	LABEL	8/19/2019	DC Calibration Date
ACCALDATE	LABEL	8/19/2019	AC Calibration Date
THERMOSELECT	IQUANT	1	Thermo Select
FRAMEWORKVERSION	QUANT	6.33	Framework Version
INSTRUMENTVERSION	LABEL	3.50	Instrument Version
ZCURVE	TABLE
	Pt	Time	Freq	Zreal	Zimag	Zsig	Zmod	Zphz	Idc	Vdc	IERange
	#	s	Hz	ohm	ohm	V	ohm	°	A	V	#
	0	1	1000078	2131.891	-1881.488	1	2843.406	-41.42982	8.569467E-006	0.0444518	8
	1	3	794390.6	2504.16	-1923.638	1	3157.721	-37.53064	-1.851592E-006	0.0451268	8
	2	4	630984.4	2894.505	-1897.693	1	3461.127	-33.24961	-2.284333E-006	0.0457892	8
	3	6	501234.4	3269.176	-1836.403	1	3749.652	-29.32435	4.364869E-006	0.0444147	8
	4	7	398109.4	3600.245	-1723.962	1	3991.718	-25.58723	1.964963E-006	0.044612	8
	5	8	316265.6	3893.602	-1561.331	1	4194.983	-21.85074	-8.06455E-007	0.0453772	8
	6	10	251203.1	4121.203	-1384.669	1	4347.599	-18.57166	9.329399E-007	0.044886	8
	7	11	199546.9	4304.802	-1230.628	1	4477.25	-15.95382	-2.999777E-006	0.0455198	8
	8	13	158578.1	4456.075	-1063.438	1	4581.212	-13.42252	2.241014E-006	0.0446001	8
	9	14	125953.1	4614.893	-881.8915	1	4698.401	-10.81861	3.991923E-007	0.0441376	7
	10	16	100078.1	4688.044	-774.1165	1	4751.527	-9.376396	-8.281989E-008	0.0451756	7
	11	17	79453.13	4765.268	-691.681	1	4815.205	-8.258833	1.372851E-007	0.0448269	7
	12	18	63140.62	4822.45	-626.9726	1	4863.036	-7.407544	-2.657472E-008	0.0450154	7
	13	20	50203.12	4873.202	-579.0462	1	4907.483	-6.776258	-4.728224E-008	0.0451238	7
	14	21	39890.62	4922.339	-547.5951	1	4952.704	-6.347878	-1.390426E-008	0.0449848	7
	15	23	31640.63	4966.367	-532.9379	1	4994.879	-6.124938	-8.051646E-008	0.0451531	7
	16	24	25171.88	5012.51	-531.5315	1	5040.614	-6.05308	-2.659974E-008	0.0450068	7
	17	25	20015.62	5056.953	-547.5639	1	5086.512	-6.179876	-8.170256E-008	0.0451571	7
	18	27	15890.62	5104.448	-575.6419	1	5136.804	-6.43421	1.402277E-007	0.0448196	7
	19	28	12609.37	5150.226	-619.6594	1	5187.37	-6.860674	-8.061491E-008	0.0451593	7
	20	29	10078.13	5201.066	-669.1238	1	5243.932	-7.330907	-4.486003E-008	0.0451158	7
	21	31	8015.625	5256.336	-746.1941	1	5309.037	-8.079771	4.161426E-008	0.0448806	7
	22	32	6328.125	5314.693	-846.4256	1	5381.673	-9.049011	-5.22376E-008	0.0450567	7
	23	33	5015.625	5377.613	-968.199	1	5464.077	-10.20634	8.500456E-008	0.0448474	7
	24	35	3984.375	5442.67	-1120.995	1	5556.914	-11.63813	-5.807864E-009	0.0451555	7
	25	36	3170.956	5513.756	-1307.708	1	5666.71	-13.34242	-7.865839E-008	0.0451465	7
	26	37	2527.573	5594.309	-1537.984	1	5801.869	-15.37196	4.468811E-008	0.0449616	7
	27	39	1976.103	5686.028	-1847.21	1	5978.553	-17.99733	-4.387708E-008	0.0451142	7
	28	40	1577.524	5789.326	-2199.086	1	6192.921	-20.79937	-4.621446E-008	0.0451124	7
	29	42	1265.625	5900.793	-2616.548	1	6454.896	-23.9136	7.176302E-008	0.0449018	7
	30	43	998.264	6037.476	-3165.176	1	6816.851	-27.66599	-5.151441E-008	0.0452019	7
	31	44	796.875	6196.964	-3800.746	1	7269.665	-31.52178	-4.182746E-008	0.0450348	7
	32	46	627.7902	6392.903	-4626.424	1	7891.325	-35.89256	-1.277927E-008	0.0449788	7
	33	47	505.5147	6591.238	-5544.023	1	8612.816	-40.06787	-5.173176E-008	0.0450618	7
	34	48	397.9953	6870.199	-6784.176	1	9655.29	-44.63904	5.141689E-009	0.0450396	7
	35	50	315.5048	7182.549	-8265.27	1	10950.05	-49.00924	-4.535775E-010	0.0449783	6
	36	51	252.4038	7532.109	-10013.81	1	12530.32	-53.05053	8.682106E-011	0.0449755	6
	37	53	198.6229	7981.049	-12323.94	1	14682.52	-57.07268	3.347436E-010	0.0449751	6
	38	54	158.3615	8499.655	-15019.86	1	17258.05	-60.49471	9.413099E-010	0.0449753	6
	39	55	125.558	9159.81	-18426.27	1	20577.4	-63.56775	6.194668E-010	0.0449789	6
	40	57	100.4464	9967.75	-22443.94	1	24557.82	-66.05315	-8.259007E-010	0.0449774	6
	41	58	79.00281	10965.06	-27778.69	1	29864.5	-68.4594	-7.403817E-010	0.0449744	6
	42	59	63.3446	12203.65	-33414.88	1	35573.63	-69.93699	4.485746E-010	0.0449718	6
	43	61	49.86702	14344.58	-41980.63	1	44363.72	-71.13495	5.966408E-010	0.0449737	6
	44	62	39.72458	16407.66	-51070.93	1	53641.88	-72.18924	1.164976E-010	0.0449755	6
	45	64	31.6723	19399.91	-62312.04	1	65262.14	-72.70682	-3.854099E-011	0.0449772	6
	46	65	24.93351	23388.91	-76537.72	1	80031.64	-73.00755	2.743728E-010	0.0449774	6
	47	66	19.86229	28553.44	-93044.95	1	97327.6	-72.93991	2.673945E-010	0.0449746	6
	48	68	15.83615	35411.98	-112772.2	1	118201.4	-72.56702	-6.576449E-011	0.0449778	5
	49	69	12.40079	44861.37	-138044.5	1	145151.1	-71.997	-8.348054E-010	0.0449795	5
	50	70	9.93114	55535.81	-165651.8	1	174713.3	-71.46595	-3.765213E-010	0.04498	5
	51	72	7.944915	69443.01	-196703.3	1	208601.4	-70.55523	-9.200694E-010	0.0449771	5
	52	74	6.317385	88439.75	-236529.8	1	252523.1	-69.49896	-4.308811E-010	0.0449798	5
	53	76	5.008013	112806.3	-282354.9	1	304055.2	-68.22233	-4.713142E-010	0.0449744	5
	54	78	3.945707	144802	-335704.6	1	365602.5	-66.66766	-6.818136E-011	0.0449807	5
	55	81	3.158693	182364.4	-391527.8	1	431915.2	-65.02501	-2.5568E-010	0.0449918	5
	56	84	2.504006	229360.9	-456990.3	1	511318.5	-63.34818	-4.078149E-010	0.04497	5
	57	87	1.998082	284036.7	-526438.4	1	598175.8	-61.65119	-4.714232E-010	0.0449581	5
	58	90	1.584686	351292.4	-602074.6	1	697065.4	-59.73772	-3.361452E-010	0.0450122	5
	59	93	1.266892	425793.8	-684621.9	1	806230.4	-58.12086	-3.92062E-010	0.0449412	5
	60	98	0.999041	515473.7	-776093.4	1	931683.5	-56.40828	-1.710311E-010	0.0450218	5
