EXPLAIN
TAG	EISPOT
TITLE	LABEL	Potentiostatic EIS	Test &Identifier
DATE	LABEL	10/12/2019	Date
TIME	LABEL	10:52:54	Time
NOTES	NOTES	1	&Notes...
	
PSTAT	PSTAT	REF600-11020	Potentiostat
VDC	POTEN	0.00000E+000	T	DC &Voltage (V)
FREQINIT	QUANT	1.00000E+006	Initial Fre&q. (Hz)
FREQFINAL	QUANT	1.00000E+000	Final Fre&q. (Hz)
PTSPERDEC	QUANT	1.00000E+001	Points/&decade
VAC	QUANT	2.50000E+001	AC &Voltage (mV rms)
AREA	QUANT	1.00000E-002	&Area (cm^2)
CONDIT	TWOPARAM	T	5.00000E+000	0.00000E+000	Conditionin&g	Time(s)	E(V)
DELAY	TWOPARAM	T	5.00000E+000	0.00000E+000	Init. De&lay	Time(s)	Stab.(mV/s)
SPEED	SELECTOR	1	&Optimize for:
ZGUESS	QUANT	1.00000E+004	E&stimated Z (ohms)
OCVCURVE	TABLE	19
	Pt	T	Vf	Vm	Ach	Over
	#	s	V vs. Ref.	V	V	bits
	0	0.258333	8.52533E-003	8.52533E-003	5.16900E-004	...........
	1	0.516667	8.51965E-003	8.22764E-003	5.15100E-004	...........
	2	0.775	8.48574E-003	7.99850E-003	5.16566E-004	...........
	3	1.03333	8.39363E-003	7.80220E-003	5.13633E-004	...........
	4	1.29167	8.23771E-003	7.63352E-003	5.17833E-004	...........
	5	1.55	8.04479E-003	7.49260E-003	5.16166E-004	...........
	6	1.80833	7.84924E-003	7.37094E-003	5.15000E-004	...........
	7	2.06667	7.67219E-003	7.25543E-003	5.16633E-004	...........
	8	2.325	7.51906E-003	7.13749E-003	5.17966E-004	...........
	9	2.58333	7.38568E-003	7.04438E-003	5.19100E-004	...........
	10	2.84167	7.26646E-003	6.97242E-003	5.13533E-004	...........
	11	3.1	7.15958E-003	6.90949E-003	5.15433E-004	...........
	12	3.35833	7.06601E-003	6.83911E-003	5.16733E-004	...........
	13	3.61667	6.98512E-003	6.78368E-003	5.21033E-004	...........
	14	3.875	6.91396E-003	6.72932E-003	5.20066E-004	...........
	15	4.13333	6.84966E-003	6.67817E-003	5.21600E-004	...........
	16	4.39167	6.79055E-003	6.62978E-003	5.14333E-004	...........
	17	4.65	6.73573E-003	6.59101E-003	5.18366E-004	...........
	18	4.90833	6.68496E-003	6.55254E-003	5.11233E-004	...........
EOC	QUANT	0.006685	Open Circuit (V)
PSTATMODEL	IQUANT	4	Pstat Model
PSTATSECTION	LABEL	REF600-11020	Pstat Section
PSTATSERIALNO	LABEL	11020	Pstat Serial Number
CTRLMODE	IQUANT	1	Control Mode
IESTAB	IQUANT	0	I/E Stability
CASPEED	IQUANT	1	Control Amp Speed
CONVENTION	IQUANT	1	Current Convention
ICHRANGE	IQUANT	2	Ich Range
ICHRANGEMODE	TOGGLE	F	Ich Auto Range
ICHOFFSETENABLE	TOGGLE	T	Ich Offset Enable
ICHOFFSET	QUANT	0	Ich Offset (V)
ICHFILTER	IQUANT	3	Ich Filter
VCHRANGE	IQUANT	2	Vch Range
VCHRANGEMODE	TOGGLE	F	Vch Auto Range
VCHOFFSETENABLE	TOGGLE	T	Vch Offset Enable
VCHOFFSET	QUANT	0	Vch Offset (V)
VCHFILTER	IQUANT	3	Vch Filter
ACHRANGE	IQUANT	2	Ach Range
ACHOFFSETENABLE	TOGGLE	F	Ach Offset Enable
ACHOFFSET	QUANT	0	Ach Offset (V)
ACHFILTER	IQUANT	3	Ach Filter
IERANGELOWERLIMIT	IQUANT	1	I/E Range Lower Limit
IERANGEMODE	TOGGLE	F	I/E AutoRange
IERANGE	IQUANT	6	I/E Range
POSFEEDENABLE	TOGGLE	F	Positive Feedback IR Comp
POSFEEDRESISTANCE	QUANT	0	Positive Feedback Resistance (ohm)
ACHSELECT	IQUANT	0	Ach Select
CABLEID	IQUANT	14	Cable ID
DCCALDATE	LABEL	8/19/2019	DC Calibration Date
ACCALDATE	LABEL	8/19/2019	AC Calibration Date
THERMOSELECT	IQUANT	1	Thermo Select
FRAMEWORKVERSION	QUANT	6.33	Framework Version
INSTRUMENTVERSION	LABEL	3.50	Instrument Version
ZCURVE	TABLE
	Pt	Time	Freq	Zreal	Zimag	Zsig	Zmod	Zphz	Idc	Vdc	IERange
	#	s	Hz	ohm	ohm	V	ohm	°	A	V	#
	0	2	1000078	2765.341	-1934.974	1	3375.09	-34.98138	2.10809E-006	0.009435	8
	1	4	794390.6	3145.378	-1864.195	1	3656.313	-30.65427	3.085957E-006	0.0079839	8
	2	5	630984.4	3484.476	-1734.525	1	3892.319	-26.4635	-2.763594E-006	0.0089608	8
	3	6	501234.4	3770.512	-1590.763	1	4092.346	-22.87468	-9.746738E-007	0.0086635	8
	4	8	398109.4	3992.251	-1413.846	1	4235.213	-19.50147	4.612774E-007	0.0084813	8
	5	9	316265.6	4174.724	-1250.711	1	4358.049	-16.67776	-7.044164E-007	0.0086446	8
	6	10	251203.1	4323.92	-1117.575	1	4466.012	-14.49172	-1.343953E-006	0.0086312	8
	7	12	199546.9	4444.252	-983.268	1	4551.724	-12.47544	-1.182164E-006	0.0085383	8
	8	13	158578.1	4543.728	-888.5152	1	4629.787	-11.06443	-2.865054E-006	0.0089327	8
	9	14	125953.1	4617.877	-773.9889	1	4682.291	-9.51474	4.34394E-008	0.0078795	7
	10	16	100078.1	4690.748	-738.3901	1	4748.508	-8.94576	9.329629E-008	0.0082409	7
	11	17	79453.13	4756.994	-722.7984	1	4811.593	-8.639688	-5.129058E-008	0.0083774	7
	12	18	63140.62	4822.085	-721.7148	1	4875.795	-8.512196	-6.678334E-008	0.0084285	7
	13	20	50203.12	4889.465	-737.0809	1	4944.71	-8.572719	4.213465E-008	0.0082632	7
	14	21	39890.62	4959.787	-769.4114	1	5019.111	-8.818004	8.748849E-009	0.0082792	7
	15	22	31640.63	5037.297	-816.934	1	5103.111	-9.211857	-7.245912E-008	0.0085225	7
	16	24	25171.88	5120.495	-882.4689	1	5195.981	-9.77833	4.325823E-008	0.0081768	7
	17	25	20015.62	5211.001	-962.088	1	5299.07	-10.46052	1.208522E-008	0.0083944	7
	18	26	15890.62	5311.207	-1063.043	1	5416.547	-11.31825	-1.044752E-008	0.0082964	7
	19	28	12609.37	5426.498	-1183.867	1	5554.135	-12.30705	-6.955872E-008	0.0085178	7
	20	29	10078.13	5550.379	-1323.68	1	5706.036	-13.41361	-4.667588E-008	0.0083551	7
	21	31	8015.625	5684.941	-1492.489	1	5877.591	-14.71011	-3.138476E-008	0.0082972	7
	22	32	6328.125	5855.592	-1687.798	1	6093.982	-16.07894	-2.074738E-008	0.0082856	7
	23	33	5015.625	6039.91	-1920.057	1	6337.754	-17.6352	-6.769412E-008	0.0083959	7
	24	35	3984.375	6237.277	-2185.813	1	6609.19	-19.31268	1.363041E-008	0.0083955	7
	25	36	3170.956	6481.442	-2483.278	1	6940.876	-20.96367	-4.668248E-008	0.0083665	7
	26	37	2527.573	6750.395	-2829.689	1	7319.493	-22.74288	5.600433E-008	0.0082061	7
	27	39	1976.103	7080.091	-3257.583	1	7793.558	-24.70738	-6.844968E-008	0.0083866	7
	28	40	1577.524	7438.76	-3697.525	1	8307.035	-26.43023	-3.132805E-008	0.0082926	7
	29	41	1265.625	7819.645	-4184.318	1	8868.785	-28.15138	5.558521E-008	0.0082049	7
	30	43	998.264	8273.894	-4765.633	1	9548.22	-29.94127	-4.226842E-009	0.0082494	6
	31	44	796.875	8732.12	-5398.343	1	10266.06	-31.72505	-8.625068E-009	0.0082802	6
	32	45	627.7902	9220.017	-6171.566	1	11094.91	-33.79701	9.470536E-009	0.0082098	6
	33	47	505.5147	9672.3	-7011.875	1	11946.54	-35.93999	-1.012357E-008	0.0084118	6
	34	48	397.9953	10151.7	-8145.353	1	13015.52	-38.74227	4.350481E-010	0.0082534	6
	35	49	315.5048	10612.49	-9534.48	1	14266.44	-41.93718	1.307013E-009	0.0082482	6
	36	51	252.4038	11060.1	-11217.14	1	15752.78	-45.40391	1.145198E-009	0.0082458	6
	37	52	198.6229	11576.2	-13505.33	1	17787.7	-49.39822	8.052983E-010	0.0082462	6
	38	53	158.3615	12122.54	-16233.1	1	20260.05	-53.24841	3.153313E-010	0.0082433	6
	39	55	125.558	12787.81	-19746.28	1	23525.38	-57.07266	2.977096E-010	0.0082451	6
	40	56	100.4464	13542.55	-23942.47	1	27507.14	-60.50624	6.456943E-010	0.0082441	6
	41	58	79.00281	14707.73	-29530.6	1	32990.51	-63.52438	8.952444E-010	0.0082472	6
	42	59	63.3446	15894.25	-35559.21	1	38949.77	-65.91632	9.917651E-010	0.0082427	6
	43	60	49.86702	17945.36	-44460.37	1	47945.39	-68.01972	8.37293E-010	0.0082441	6
	44	62	39.72458	19951.01	-54292.33	1	57842.02	-69.82294	7.980311E-010	0.0082549	6
	45	63	31.6723	22975.71	-66111.05	1	69989.67	-70.83601	8.09333E-010	0.0082492	6
	46	64	24.93351	26795.21	-81538.79	1	85828.65	-71.80849	4.818069E-010	0.0082476	6
	47	66	19.86229	31780.08	-99081.9	1	104053.8	-72.21658	7.557E-010	0.0082411	6
	48	67	15.83615	37462.34	-119161.2	1	124911.2	-72.5477	-7.463369E-010	0.008245	5
	49	69	12.40079	47757.43	-147270.8	1	154820.7	-72.033	1.279726E-009	0.0082451	5
	50	70	9.93114	56901.55	-177902.1	1	186780.5	-72.26325	2.834648E-010	0.0082441	5
	51	72	7.944915	69240.4	-212469.9	1	223467.4	-71.95007	-3.371838E-010	0.0082511	5
	52	73	6.317385	86666.41	-256241.2	1	270500.7	-71.31333	1.973205E-011	0.0082405	5
	53	75	5.008013	108177	-308368.4	1	326792.5	-70.6689	1.608251E-011	0.0082384	5
	54	78	3.945707	135341.2	-370254.9	1	394215.6	-69.92086	2.407249E-010	0.0082562	5
	55	80	3.158693	166513.4	-439017.9	1	469535.3	-69.22895	-4.915207E-012	0.0082329	5
	56	84	2.504006	206486.6	-521787.8	1	561158.8	-68.40985	3.125627E-010	0.0082462	5
	57	86	1.998082	253258.4	-615025.2	1	665128.4	-67.61885	1.564624E-010	0.008287	5
	58	90	1.584686	309086.3	-724795.6	1	787948.6	-66.90437	1.36624E-010	0.0082432	5
	59	93	1.266892	376345.4	-851113.4	1	930607.3	-66.14594	9.039165E-011	0.008289	5
	60	98	0.999041	459305.8	-1005882	1	1105785	-65.4576	5.153188E-011	0.008205	4
