EXPLAIN
TAG	EISPOT
TITLE	LABEL	Potentiostatic EIS	Test &Identifier
DATE	LABEL	9/22/2019	Date
TIME	LABEL	10:42:56	Time
NOTES	NOTES	1	&Notes...
	
PSTAT	PSTAT	REF600-11020	Potentiostat
VDC	POTEN	0.00000E+000	T	DC &Voltage (V)
FREQINIT	QUANT	1.00000E+006	Initial Fre&q. (Hz)
FREQFINAL	QUANT	1.00000E+000	Final Fre&q. (Hz)
PTSPERDEC	QUANT	1.00000E+001	Points/&decade
VAC	QUANT	2.50000E+001	AC &Voltage (mV rms)
AREA	QUANT	1.00000E-002	&Area (cm^2)
CONDIT	TWOPARAM	T	5.00000E+000	0.00000E+000	Conditionin&g	Time(s)	E(V)
DELAY	TWOPARAM	T	5.00000E+000	0.00000E+000	Init. De&lay	Time(s)	Stab.(mV/s)
SPEED	SELECTOR	1	&Optimize for:
ZGUESS	QUANT	1.00000E+004	E&stimated Z (ohms)
OCVCURVE	TABLE	19
	Pt	T	Vf	Vm	Ach	Over
	#	s	V vs. Ref.	V	V	bits
	0	0.258333	2.39881E-002	2.39881E-002	5.61866E-004	...........
	1	0.516667	2.40035E-002	2.47964E-002	5.63266E-004	...........
	2	0.775	2.40992E-002	2.56051E-002	5.66266E-004	...........
	3	1.03333	2.43711E-002	2.63146E-002	5.66699E-004	...........
	4	1.29167	2.48574E-002	2.69990E-002	5.63199E-004	...........
	5	1.55	2.54993E-002	2.76361E-002	5.64266E-004	...........
	6	1.80833	2.62015E-002	2.82434E-002	5.61499E-004	...........
	7	2.06667	2.68959E-002	2.88224E-002	5.61099E-004	...........
	8	2.325	2.75544E-002	2.93655E-002	5.64099E-004	...........
	9	2.58333	2.81723E-002	2.98729E-002	5.66032E-004	...........
	10	2.84167	2.87529E-002	3.03693E-002	5.64232E-004	...........
	11	3.1	2.93000E-002	3.08070E-002	5.60799E-004	...........
	12	3.35833	2.98155E-002	3.12217E-002	5.65732E-004	...........
	13	3.61667	3.02997E-002	3.16494E-002	5.59066E-004	...........
	14	3.875	3.07552E-002	3.20454E-002	5.62099E-004	...........
	15	4.13333	3.11875E-002	3.24038E-002	5.63899E-004	...........
	16	4.39167	3.15999E-002	3.27531E-002	5.64732E-004	...........
	17	4.65	3.19930E-002	3.31397E-002	5.70932E-004	...........
	18	4.90833	3.23692E-002	3.34461E-002	5.64032E-004	...........
EOC	QUANT	0.0323692	Open Circuit (V)
PSTATMODEL	IQUANT	4	Pstat Model
PSTATSECTION	LABEL	REF600-11020	Pstat Section
PSTATSERIALNO	LABEL	11020	Pstat Serial Number
CTRLMODE	IQUANT	1	Control Mode
IESTAB	IQUANT	0	I/E Stability
CASPEED	IQUANT	1	Control Amp Speed
CONVENTION	IQUANT	1	Current Convention
ICHRANGE	IQUANT	2	Ich Range
ICHRANGEMODE	TOGGLE	F	Ich Auto Range
ICHOFFSETENABLE	TOGGLE	T	Ich Offset Enable
ICHOFFSET	QUANT	0	Ich Offset (V)
ICHFILTER	IQUANT	3	Ich Filter
VCHRANGE	IQUANT	2	Vch Range
VCHRANGEMODE	TOGGLE	F	Vch Auto Range
VCHOFFSETENABLE	TOGGLE	T	Vch Offset Enable
VCHOFFSET	QUANT	0	Vch Offset (V)
VCHFILTER	IQUANT	3	Vch Filter
ACHRANGE	IQUANT	2	Ach Range
ACHOFFSETENABLE	TOGGLE	F	Ach Offset Enable
ACHOFFSET	QUANT	0	Ach Offset (V)
ACHFILTER	IQUANT	3	Ach Filter
IERANGELOWERLIMIT	IQUANT	1	I/E Range Lower Limit
IERANGEMODE	TOGGLE	F	I/E AutoRange
IERANGE	IQUANT	6	I/E Range
POSFEEDENABLE	TOGGLE	F	Positive Feedback IR Comp
POSFEEDRESISTANCE	QUANT	0	Positive Feedback Resistance (ohm)
ACHSELECT	IQUANT	0	Ach Select
CABLEID	IQUANT	14	Cable ID
DCCALDATE	LABEL	8/19/2019	DC Calibration Date
ACCALDATE	LABEL	8/19/2019	AC Calibration Date
THERMOSELECT	IQUANT	1	Thermo Select
FRAMEWORKVERSION	QUANT	6.33	Framework Version
INSTRUMENTVERSION	LABEL	3.50	Instrument Version
ZCURVE	TABLE
	Pt	Time	Freq	Zreal	Zimag	Zsig	Zmod	Zphz	Idc	Vdc	IERange
	#	s	Hz	ohm	ohm	V	ohm	°	A	V	#
	0	2	1000078	2451.375	-2019.665	1	3176.207	-39.48479	-9.310583E-007	0.0349005	8
	1	3	794390.6	2839.848	-2017.77	1	3483.695	-35.39458	-3.740224E-006	0.0349006	8
	2	4	630984.4	3257.321	-1963.92	1	3803.567	-31.08683	-2.426618E-006	0.0345148	8
	3	6	501234.4	3601.948	-1873.829	1	4060.205	-27.48465	1.246668E-006	0.0337197	8
	4	7	398109.4	3900.509	-1709.752	1	4258.781	-23.6698	-1.445626E-006	0.0341474	8
	5	9	316265.6	4182.021	-1568.867	1	4466.615	-20.56336	-2.334267E-007	0.0338847	8
	6	10	251203.1	4417.183	-1407.624	1	4636.044	-17.67553	2.835638E-007	0.0338021	8
	7	12	199546.9	4564.967	-1237.658	1	4729.77	-15.16942	-2.713684E-006	0.0342579	8
	8	13	158578.1	4712.102	-1119.28	1	4843.21	-13.36201	-9.066854E-007	0.0339724	8
	9	14	125953.1	4863.87	-954.683	1	4956.677	-11.10488	-7.885356E-007	0.0354039	7
	10	16	100078.1	4940.165	-877.3311	1	5017.463	-10.07025	-3.208797E-008	0.0338398	7
	11	17	79453.13	5020.76	-830.3039	1	5088.953	-9.390252	9.091315E-008	0.033711	7
	12	19	63140.62	5093.744	-802.3218	1	5156.544	-8.951185	4.420523E-008	0.033629	7
	13	20	50203.12	5167.66	-793.8846	1	5228.285	-8.733815	1.150391E-008	0.0338696	7
	14	21	39890.62	5237.589	-804.3881	1	5298.998	-8.731255	-6.557847E-008	0.0338533	7
	15	23	31640.63	5315.709	-834.3463	1	5380.79	-8.920287	1.001776E-008	0.0338719	7
	16	24	25171.88	5393.832	-881.7535	1	5465.428	-9.284272	-3.807786E-008	0.0337823	7
	17	25	20015.62	5480.641	-949.369	1	5562.259	-9.82739	1.249084E-007	0.0335958	7
	18	27	15890.62	5576.71	-1035.845	1	5672.096	-10.52247	-5.955421E-008	0.0339684	7
	19	28	12609.37	5682.974	-1141.888	1	5796.559	-11.36124	8.414504E-008	0.0335978	7
	20	29	10078.13	5796.89	-1268.81	1	5934.123	-12.34608	6.917113E-008	0.0336615	7
	21	31	8015.625	5924.364	-1419.834	1	6092.127	-13.47732	4.692747E-008	0.0337137	7
	22	32	6328.125	6075.093	-1609.237	1	6284.616	-14.83639	-6.412908E-008	0.0338483	7
	23	33	5015.625	6239.49	-1829.237	1	6502.103	-16.3396	-6.498312E-008	0.0338676	7
	24	35	3984.375	6424.842	-2082.245	1	6753.839	-17.95714	8.42627E-008	0.0335916	7
	25	36	3170.956	6633.588	-2377.601	1	7046.806	-19.71862	-3.839073E-008	0.033776	7
	26	37	2527.573	6868.404	-2720.477	1	7387.555	-21.60781	4.430212E-008	0.0336242	7
	27	39	1976.103	7161.721	-3154.488	1	7825.666	-23.77181	7.973249E-009	0.0336903	7
	28	40	1577.524	7474.719	-3623.154	1	8306.544	-25.86045	1.124964E-008	0.0338619	7
	29	42	1265.625	7814.011	-4143.364	1	8844.56	-27.93469	-6.386655E-008	0.0338322	7
	30	43	998.264	8227.375	-4769.958	1	9510.11	-30.10373	-5.198328E-009	0.0336859	6
	31	44	796.875	8658.112	-5477.708	1	10245.4	-32.32022	-6.715307E-009	0.0338682	6
	32	46	627.7902	9147.265	-6350.187	1	11135.41	-34.76904	1.01899E-008	0.0336785	6
	33	47	505.5147	9625.86	-7281.679	1	12069.79	-37.10645	-1.064691E-008	0.0337741	6
	34	48	397.9953	10169.01	-8519.866	1	13266.38	-39.95716	1.197424E-010	0.0337242	6
	35	50	315.5048	10712.55	-9986.15	1	14645.2	-42.9901	9.271216E-010	0.0337291	6
	36	51	252.4038	11247.55	-11725.58	1	16247.97	-46.19206	4.250857E-011	0.0337294	6
	37	52	198.6229	11853.42	-14052.5	1	18384.13	-49.85204	6.589924E-010	0.0337261	6
	38	54	158.3615	12473.95	-16815.6	1	20937.14	-53.43166	8.060163E-010	0.0337212	6
	39	55	125.558	13199.97	-20345.3	1	24252.23	-57.02463	1.907512E-010	0.0337201	6
	40	56	100.4464	14034.24	-24550.48	1	28278.72	-60.24564	5.037109E-010	0.033721	6
	41	58	79.00281	15084.68	-30303.24	1	33850.17	-63.53629	3.360562E-010	0.0337227	6
	42	59	63.3446	16041.74	-36776.79	1	40123.18	-66.43356	5.501474E-010	0.0337208	6
	43	61	49.86702	18317.12	-45191.54	1	48762.61	-67.93621	8.19323E-010	0.0337256	6
	44	62	39.72458	20283.68	-55386.41	1	58983.75	-69.88619	7.452877E-010	0.0337236	6
	45	63	31.6723	23117.8	-67861.41	1	71691.02	-71.18797	-1.080374E-010	0.0337177	6
	46	65	24.93351	26880.04	-83643.71	1	87856.74	-72.18449	3.10252E-010	0.0337134	6
	47	66	19.86229	31676.47	-101965.2	1	106772.2	-72.7421	4.585944E-010	0.0337276	5
	48	67	15.83615	37991.36	-124429.7	1	130100.3	-73.02132	-1.061175E-010	0.0337282	5
	49	69	12.40079	46168.74	-152381.6	1	159222.2	-73.14419	-2.762967E-010	0.0337272	5
	50	70	9.93114	58010.75	-184211	1	193129.3	-72.52001	-7.707003E-011	0.0337367	5
	51	72	7.944915	71849.98	-222641.8	1	233948.2	-72.1143	6.3401E-012	0.0337326	5
	52	74	6.317385	90354.92	-266852.9	1	281734.8	-71.29418	-6.437778E-011	0.0337373	5
	53	76	5.008013	114686.5	-320705.7	1	340595.3	-70.32262	4.558279E-011	0.0337132	5
	54	78	3.945707	146238.9	-385525.8	1	412329.8	-69.2271	2.482428E-010	0.0337325	5
	55	81	3.158693	183097.4	-455494.2	1	490917.1	-68.10109	2.59304E-011	0.0337106	5
	56	84	2.504006	231359.8	-539100.4	1	586648.6	-66.77296	2.506939E-010	0.0337351	5
	57	87	1.998082	288467.7	-630658.5	1	693501.1	-65.4203	3.049168E-010	0.0337332	5
	58	90	1.584686	362716	-737226.9	1	821624.3	-63.80279	1.139601E-010	0.033677	5
	59	94	1.266892	444914.3	-849989.6	1	959391	-62.37086	2.509535E-010	0.0337139	5
	60	98	0.999041	550947.8	-987753	1	1131017	-60.84814	-8.717006E-011	0.0337319	4
