EXPLAIN
TAG	EISPOT
TITLE	LABEL	Potentiostatic EIS	Test &Identifier
DATE	LABEL	10/10/2019	Date
TIME	LABEL	10:37:16	Time
NOTES	NOTES	1	&Notes...
	
PSTAT	PSTAT	REF600-11020	Potentiostat
VDC	POTEN	0.00000E+000	T	DC &Voltage (V)
FREQINIT	QUANT	1.00000E+006	Initial Fre&q. (Hz)
FREQFINAL	QUANT	1.00000E+000	Final Fre&q. (Hz)
PTSPERDEC	QUANT	1.00000E+001	Points/&decade
VAC	QUANT	2.50000E+001	AC &Voltage (mV rms)
AREA	QUANT	1.00000E-002	&Area (cm^2)
CONDIT	TWOPARAM	T	5.00000E+000	0.00000E+000	Conditionin&g	Time(s)	E(V)
DELAY	TWOPARAM	T	5.00000E+000	0.00000E+000	Init. De&lay	Time(s)	Stab.(mV/s)
SPEED	SELECTOR	1	&Optimize for:
ZGUESS	QUANT	1.00000E+004	E&stimated Z (ohms)
OCVCURVE	TABLE	19
	Pt	T	Vf	Vm	Ach	Over
	#	s	V vs. Ref.	V	V	bits
	0	0.258333	6.59640E-003	6.59640E-003	5.91332E-004	...........
	1	0.516667	6.59741E-003	6.64912E-003	5.90699E-004	...........
	2	0.775	6.60560E-003	6.80420E-003	5.97665E-004	...........
	3	1.03333	6.63790E-003	7.08159E-003	5.94399E-004	...........
	4	1.29167	6.72569E-003	7.67997E-003	5.99132E-004	...........
	5	1.55	6.91458E-003	8.38715E-003	6.00699E-004	...........
	6	1.80833	7.23793E-003	8.55045E-003	5.96799E-004	...........
	7	2.06667	7.65944E-003	8.54628E-003	5.97965E-004	...........
	8	2.325	8.06789E-003	8.63471E-003	6.03498E-004	...........
	9	2.58333	8.36542E-003	8.65822E-003	5.93465E-004	...........
	10	2.84167	8.53438E-003	8.59035E-003	5.99165E-004	...........
	11	3.1	8.60709E-003	8.50151E-003	5.99365E-004	...........
	12	3.35833	8.61186E-003	8.28068E-003	5.93865E-004	...........
	13	3.61667	8.56040E-003	8.21593E-003	5.95965E-004	...........
	14	3.875	8.46436E-003	8.09172E-003	5.94432E-004	...........
	15	4.13333	8.34312E-003	7.87682E-003	5.89265E-004	...........
	16	4.39167	8.20714E-003	7.61020E-003	5.89465E-004	...........
	17	4.65	8.05169E-003	7.56393E-003	5.98365E-004	...........
	18	4.90833	7.88800E-003	7.83064E-003	5.99199E-004	...........
EOC	QUANT	0.007888	Open Circuit (V)
PSTATMODEL	IQUANT	4	Pstat Model
PSTATSECTION	LABEL	REF600-11020	Pstat Section
PSTATSERIALNO	LABEL	11020	Pstat Serial Number
CTRLMODE	IQUANT	1	Control Mode
IESTAB	IQUANT	0	I/E Stability
CASPEED	IQUANT	1	Control Amp Speed
CONVENTION	IQUANT	1	Current Convention
ICHRANGE	IQUANT	2	Ich Range
ICHRANGEMODE	TOGGLE	F	Ich Auto Range
ICHOFFSETENABLE	TOGGLE	T	Ich Offset Enable
ICHOFFSET	QUANT	0	Ich Offset (V)
ICHFILTER	IQUANT	3	Ich Filter
VCHRANGE	IQUANT	2	Vch Range
VCHRANGEMODE	TOGGLE	F	Vch Auto Range
VCHOFFSETENABLE	TOGGLE	T	Vch Offset Enable
VCHOFFSET	QUANT	0	Vch Offset (V)
VCHFILTER	IQUANT	3	Vch Filter
ACHRANGE	IQUANT	2	Ach Range
ACHOFFSETENABLE	TOGGLE	F	Ach Offset Enable
ACHOFFSET	QUANT	0	Ach Offset (V)
ACHFILTER	IQUANT	3	Ach Filter
IERANGELOWERLIMIT	IQUANT	1	I/E Range Lower Limit
IERANGEMODE	TOGGLE	F	I/E AutoRange
IERANGE	IQUANT	6	I/E Range
POSFEEDENABLE	TOGGLE	F	Positive Feedback IR Comp
POSFEEDRESISTANCE	QUANT	0	Positive Feedback Resistance (ohm)
ACHSELECT	IQUANT	0	Ach Select
CABLEID	IQUANT	14	Cable ID
DCCALDATE	LABEL	8/19/2019	DC Calibration Date
ACCALDATE	LABEL	8/19/2019	AC Calibration Date
THERMOSELECT	IQUANT	1	Thermo Select
FRAMEWORKVERSION	QUANT	6.33	Framework Version
INSTRUMENTVERSION	LABEL	3.50	Instrument Version
ZCURVE	TABLE
	Pt	Time	Freq	Zreal	Zimag	Zsig	Zmod	Zphz	Idc	Vdc	IERange
	#	s	Hz	ohm	ohm	V	ohm	°	A	V	#
	0	1	1000078	2530.11	-1925.663	1	3179.565	-37.27471	4.945279E-006	0.0090797	8
	1	3	794390.6	2917.098	-1887.284	1	3474.378	-32.90178	-5.666579E-006	0.0107132	8
	2	4	630984.4	3286.49	-1798.078	1	3746.211	-28.6836	7.991564E-007	0.0099441	8
	3	6	501234.4	3607.97	-1629.226	1	3958.766	-24.30218	2.522675E-006	0.009108	8
	4	7	398109.4	3868.862	-1449.756	1	4131.572	-20.54219	2.847013E-006	0.0089774	8
	5	8	316265.6	4079.952	-1260.034	1	4270.093	-17.16254	2.847886E-006	0.0089594	8
	6	10	251203.1	4249.963	-1084.469	1	4386.144	-14.31477	1.564281E-006	0.0090445	8
	7	11	199546.9	4370.977	-940.6956	1	4471.056	-12.1456	-3.296941E-006	0.0102371	8
	8	13	158578.1	4455.877	-796.8096	1	4526.56	-10.13859	-2.732619E-006	0.0099378	8
	9	14	125953.1	4541.425	-677.0872	1	4591.622	-8.479842	-6.870836E-007	0.0119087	7
	10	16	100078.1	4574.835	-550.0291	1	4607.782	-6.855722	4.019999E-008	0.0094838	7
	11	17	79453.13	4614.463	-493.6976	1	4640.798	-6.106798	-1.251033E-008	0.0094817	7
	12	19	63140.62	4648.396	-450.6534	1	4670.19	-5.537415	-6.803268E-009	0.009568	7
	13	20	50203.12	4683.084	-422.727	1	4702.125	-5.157927	-9.661507E-009	0.00947	7
	14	21	39890.62	4711.857	-404.9423	1	4729.226	-4.911994	-1.444963E-008	0.0096685	7
	15	23	31640.63	4744.248	-399.6644	1	4761.053	-4.815335	1.447002E-007	0.0092972	7
	16	24	25171.88	4775.14	-406.0849	1	4792.375	-4.860822	1.472099E-007	0.0092956	7
	17	25	20015.62	4803.034	-407.7799	1	4820.313	-4.852801	-4.286288E-008	0.0095655	7
	18	27	15890.62	4837.486	-452.2346	1	4858.579	-5.340799	-9.175494E-009	0.0095664	7
	19	28	12609.37	4873.87	-489.9822	1	4898.438	-5.740798	-1.220089E-008	0.0095446	7
	20	29	10078.13	4907.843	-543.9224	1	4937.892	-6.324121	-1.853457E-008	0.0094934	7
	21	31	8015.625	4936.729	-614.5467	1	4974.832	-7.095939	-5.645536E-008	0.0096222	7
	22	32	6328.125	4985.14	-708.0107	1	5035.166	-8.083329	-8.156972E-008	0.0096416	7
	23	33	5015.625	5030.28	-823.2903	1	5097.208	-9.295012	-3.942333E-008	0.0095344	7
	24	35	3984.375	5076.373	-974.338	1	5169.032	-10.86498	-5.536772E-008	0.009685	7
	25	36	3170.956	5132.933	-1143.766	1	5258.821	-12.56193	-5.550678E-008	0.0096864	7
	26	38	2527.573	5194.37	-1357.321	1	5368.78	-14.6443	-4.544136E-008	0.00954	7
	27	39	1976.103	5271.4	-1646.62	1	5522.592	-17.34717	4.250968E-008	0.0094659	7
	28	40	1577.524	5359.663	-1974.464	1	5711.786	-20.22346	-2.203817E-008	0.00949	7
	29	42	1265.625	5443.306	-2360.235	1	5932.983	-23.44171	-3.711523E-008	0.0095356	7
	30	43	998.264	5555.956	-2875.263	1	6255.86	-27.36202	-5.574816E-008	0.0096844	7
	31	44	796.875	5678.824	-3472.381	1	6656.311	-31.44417	1.537611E-008	0.0094398	7
	32	46	627.7902	5835.808	-4252.458	1	7220.807	-36.08021	-2.103178E-008	0.0094929	7
	33	47	505.5147	5990.475	-5131.352	1	7887.748	-40.58287	-5.525349E-008	0.0096841	7
	34	48	397.9953	6212.408	-6320.11	1	8862.155	-45.49237	5.065479E-009	0.009532	7
	35	50	315.5048	6471.479	-7753.876	1	10099.64	-50.15121	3.763589E-010	0.0094694	6
	36	51	252.4038	6774.478	-9451.086	1	11628.27	-54.36729	-7.532183E-012	0.0094718	6
	37	52	198.6229	7185.288	-11702.54	1	13732.36	-58.45032	6.863571E-010	0.0094717	6
	38	54	158.3615	7678.265	-14329.72	1	16257.2	-61.81634	1.331763E-010	0.0094651	6
	39	55	125.558	8330.229	-17639.19	1	19507.27	-64.72065	8.257415E-010	0.0094643	6
	40	56	100.4464	9125.274	-21524.65	1	23379.07	-67.02571	1.505702E-010	0.0094647	6
	41	58	79.00281	10263.31	-26701.19	1	28605.75	-68.97441	1.257627E-011	0.0094669	6
	42	59	63.3446	11721.56	-32730.64	1	34766.22	-70.29645	1.231797E-009	0.0094631	6
	43	61	49.86702	13434.61	-39901.07	1	42102.07	-71.39172	7.005589E-010	0.0094692	6
	44	62	39.72458	16104.16	-48700.9	1	51294.46	-71.70225	8.769481E-010	0.0094714	6
	45	63	31.6723	19221.91	-59297.08	1	62334.78	-72.03924	1.060926E-009	0.0094659	6
	46	65	24.93351	23778.48	-72581.38	1	76377.18	-71.86062	7.842821E-010	0.0094651	6
	47	66	19.86229	29564.11	-87705.65	1	92554.41	-71.37189	-3.260311E-011	0.0094642	6
	48	68	15.83615	36822.53	-105911.6	1	112130.1	-70.82885	7.638395E-010	0.0094694	5
	49	69	12.40079	46958.73	-127585.5	1	135952.9	-69.79351	1.062375E-009	0.0094662	5
	50	71	9.93114	59281.67	-152021	1	163170.8	-68.69635	1.709584E-009	0.0094637	5
	51	72	7.944915	73940.23	-180632.1	1	195179.7	-67.73868	-1.829277E-010	0.009471	5
	52	74	6.317385	94687.45	-212420.7	1	232568.8	-65.97486	-8.757416E-010	0.009481	5
	53	76	5.008013	120214.9	-248872.8	1	276386.1	-64.21771	2.093827E-010	0.0094645	5
	54	78	3.945707	151799.9	-289859.5	1	327202.9	-62.35888	4.003757E-010	0.0094686	5
	55	81	3.158693	187428.6	-331518.7	1	380833.5	-60.51777	1.339798E-010	0.009475	5
	56	84	2.504006	229765.4	-378198.8	1	442522.9	-58.72025	1.209222E-010	0.0094561	5
	57	87	1.998082	275275.4	-426770.2	1	507847.7	-57.17716	-1.907753E-010	0.0094722	5
	58	90	1.584686	328402	-480466.5	1	581975.9	-55.64714	1.588002E-010	0.0095121	5
	59	94	1.266892	378565.5	-538344.3	1	658123.4	-54.88498	4.913953E-010	0.009466	5
	60	98	0.999041	440154.6	-603677.3	1	747102.6	-53.90337	-2.906968E-011	0.0094734	5
