EXPLAIN
TAG	EISPOT
TITLE	LABEL	Potentiostatic EIS	Test &Identifier
DATE	LABEL	9/20/2019	Date
TIME	LABEL	9:43:49	Time
NOTES	NOTES	1	&Notes...
	
PSTAT	PSTAT	REF600-11020	Potentiostat
VDC	POTEN	0.00000E+000	T	DC &Voltage (V)
FREQINIT	QUANT	1.00000E+006	Initial Fre&q. (Hz)
FREQFINAL	QUANT	1.00000E+000	Final Fre&q. (Hz)
PTSPERDEC	QUANT	1.00000E+001	Points/&decade
VAC	QUANT	2.50000E+001	AC &Voltage (mV rms)
AREA	QUANT	1.00000E-002	&Area (cm^2)
CONDIT	TWOPARAM	T	5.00000E+000	0.00000E+000	Conditionin&g	Time(s)	E(V)
DELAY	TWOPARAM	T	5.00000E+000	0.00000E+000	Init. De&lay	Time(s)	Stab.(mV/s)
SPEED	SELECTOR	1	&Optimize for:
ZGUESS	QUANT	1.00000E+004	E&stimated Z (ohms)
OCVCURVE	TABLE	19
	Pt	T	Vf	Vm	Ach	Over
	#	s	V vs. Ref.	V	V	bits
	0	0.258333	9.39125E-002	9.39125E-002	5.57899E-004	...........
	1	0.516667	9.40352E-002	1.00335E-001	5.68499E-004	...........
	2	0.775	9.47836E-002	1.06156E-001	5.64932E-004	...........
	3	1.03333	9.68785E-002	1.11477E-001	5.64432E-004	...........
	4	1.29167	1.00569E-001	1.16446E-001	5.64732E-004	...........
	5	1.55	1.05377E-001	1.21103E-001	5.66399E-004	...........
	6	1.80833	1.10580E-001	1.25448E-001	5.62299E-004	...........
	7	2.06667	1.15677E-001	1.29534E-001	5.59732E-004	...........
	8	2.325	1.20460E-001	1.33411E-001	5.65299E-004	...........
	9	2.58333	1.24907E-001	1.37081E-001	5.67932E-004	...........
	10	2.84167	1.29058E-001	1.40432E-001	5.62032E-004	...........
	11	3.1	1.32948E-001	1.43580E-001	5.61499E-004	...........
	12	3.35833	1.36595E-001	1.46565E-001	5.62299E-004	...........
	13	3.61667	1.40009E-001	1.49419E-001	5.64466E-004	...........
	14	3.875	1.43214E-001	1.52213E-001	5.63732E-004	...........
	15	4.13333	1.46245E-001	1.54849E-001	5.55266E-004	...........
	16	4.39167	1.49135E-001	1.57382E-001	5.59932E-004	...........
	17	4.65	1.51904E-001	1.59768E-001	5.64566E-004	...........
	18	4.90833	1.54555E-001	1.62061E-001	5.61066E-004	...........
EOC	QUANT	0.1545551	Open Circuit (V)
PSTATMODEL	IQUANT	4	Pstat Model
PSTATSECTION	LABEL	REF600-11020	Pstat Section
PSTATSERIALNO	LABEL	11020	Pstat Serial Number
CTRLMODE	IQUANT	1	Control Mode
IESTAB	IQUANT	0	I/E Stability
CASPEED	IQUANT	1	Control Amp Speed
CONVENTION	IQUANT	1	Current Convention
ICHRANGE	IQUANT	2	Ich Range
ICHRANGEMODE	TOGGLE	F	Ich Auto Range
ICHOFFSETENABLE	TOGGLE	T	Ich Offset Enable
ICHOFFSET	QUANT	0	Ich Offset (V)
ICHFILTER	IQUANT	3	Ich Filter
VCHRANGE	IQUANT	2	Vch Range
VCHRANGEMODE	TOGGLE	F	Vch Auto Range
VCHOFFSETENABLE	TOGGLE	T	Vch Offset Enable
VCHOFFSET	QUANT	0	Vch Offset (V)
VCHFILTER	IQUANT	3	Vch Filter
ACHRANGE	IQUANT	2	Ach Range
ACHOFFSETENABLE	TOGGLE	F	Ach Offset Enable
ACHOFFSET	QUANT	0	Ach Offset (V)
ACHFILTER	IQUANT	3	Ach Filter
IERANGELOWERLIMIT	IQUANT	1	I/E Range Lower Limit
IERANGEMODE	TOGGLE	F	I/E AutoRange
IERANGE	IQUANT	7	I/E Range
POSFEEDENABLE	TOGGLE	F	Positive Feedback IR Comp
POSFEEDRESISTANCE	QUANT	0	Positive Feedback Resistance (ohm)
ACHSELECT	IQUANT	0	Ach Select
CABLEID	IQUANT	14	Cable ID
DCCALDATE	LABEL	8/19/2019	DC Calibration Date
ACCALDATE	LABEL	8/19/2019	AC Calibration Date
THERMOSELECT	IQUANT	1	Thermo Select
FRAMEWORKVERSION	QUANT	6.33	Framework Version
INSTRUMENTVERSION	LABEL	3.50	Instrument Version
ZCURVE	TABLE
	Pt	Time	Freq	Zreal	Zimag	Zsig	Zmod	Zphz	Idc	Vdc	IERange
	#	s	Hz	ohm	ohm	V	ohm	°	A	V	#
	0	1	1000078	2088.608	-832.4497	1	2248.39	-21.73058	5.654688E-007	0.1566745	8
	1	2	794390.6	2214.715	-722.7236	1	2329.655	-18.07295	-3.233071E-006	0.1569159	8
	2	4	630984.4	2310.232	-626.7661	1	2393.744	-15.17898	-6.265075E-007	0.1566054	8
	3	5	501234.4	2382.455	-542.127	1	2443.357	-12.81936	-1.180338E-006	0.156492	8
	4	6	398109.4	2429.879	-460.6615	1	2473.16	-10.73485	-1.959891E-006	0.1565482	8
	5	8	316265.6	2477.517	-393.423	1	2508.56	-9.023074	-1.044979E-006	0.1563636	8
	6	9	251203.1	2508.146	-343.311	1	2531.533	-7.794118	-5.18042E-007	0.1563151	8
	7	10	199546.9	2532.898	-312.6809	1	2552.125	-7.03744	-1.11576E-006	0.1563398	8
	8	12	158578.1	2555.587	-273.389	1	2570.168	-6.106109	2.677556E-006	0.1555614	8
	9	13	125953.1	2590.425	-224.5326	1	2600.137	-4.953897	7.28164E-007	0.1544061	7
	10	14	100078.1	2608.607	-206.0525	1	2616.732	-4.516387	5.792256E-008	0.1559099	7
	11	16	79453.13	2625.86	-204.6727	1	2633.824	-4.45691	-5.106108E-008	0.156178	7
	12	17	63140.62	2646.896	-208.7563	1	2655.115	-4.509489	4.995586E-008	0.1559416	7
	13	18	50203.12	2668.312	-214.1174	1	2676.889	-4.587842	3.085172E-008	0.1559214	7
	14	20	39890.62	2691.311	-222.4996	1	2700.493	-4.726083	-1.839089E-008	0.1560787	7
	15	21	31640.63	2714.304	-235.1974	1	2724.475	-4.952371	-2.599655E-008	0.1561682	7
	16	22	25171.88	2738.584	-251.6691	1	2750.124	-5.250594	1.075498E-007	0.15586	7
	17	24	20015.62	2763.522	-273.0435	1	2776.979	-5.642665	-1.70234E-008	0.1560109	7
	18	25	15890.62	2789.791	-299.1404	1	2805.783	-6.120259	-4.432871E-008	0.1560531	7
	19	27	12609.37	2817.202	-334.722	1	2837.018	-6.775754	-4.317068E-008	0.156058	7
	20	28	10078.13	2844.525	-377.1909	1	2869.424	-7.553493	-3.737932E-008	0.1560622	7
	21	29	8015.625	2874.088	-429.1776	1	2905.955	-8.493026	-1.824858E-008	0.1560821	7
	22	31	6328.125	2907.583	-497.1163	1	2949.773	-9.70218	-1.863301E-008	0.1560229	7
	23	32	5015.625	2942.788	-580.0553	1	2999.411	-11.15067	1.083218E-007	0.1558661	7
	24	33	3984.375	2981.448	-680.2576	1	3058.069	-12.85279	-4.050161E-008	0.1560576	7
	25	35	3170.956	3025.156	-802.262	1	3129.727	-14.85277	6.198108E-008	0.1559022	7
	26	36	2527.573	3072.767	-951.283	1	3216.65	-17.20176	-3.370224E-008	0.1560659	7
	27	37	1976.103	3130.869	-1149.533	1	3335.231	-20.16127	-1.745942E-008	0.156021	7
	28	39	1577.524	3191.054	-1373.427	1	3474.065	-23.287	6.238739E-008	0.1558997	7
	29	40	1265.625	3263.12	-1643.057	1	3653.435	-26.72631	2.182717E-008	0.1560105	7
	30	41	998.264	3339.836	-1995.921	1	3890.784	-30.86298	6.673752E-009	0.1559686	7
	31	43	796.875	3430.966	-2412.149	1	4194.042	-35.10923	-2.160685E-008	0.1561581	7
	32	44	627.7902	3547.936	-2954.786	1	4617.208	-39.78815	-1.618183E-008	0.1560791	7
	33	46	505.5147	3679.457	-3565.312	1	5123.461	-44.09735	-6.990718E-008	0.1561354	7
	34	47	397.9953	3859.478	-4386.136	1	5842.41	-48.65459	-1.200359E-009	0.1560587	7
	35	48	315.5048	4080.929	-5370.148	1	6744.811	-52.76776	-2.163501E-010	0.1560619	7
	36	50	252.4038	4350.614	-6522.167	1	7840.058	-56.29472	-1.015234E-009	0.1560549	7
	37	51	198.6229	4722.68	-8033.21	1	9318.593	-59.54897	-7.007536E-010	0.156054	7
	38	52	158.3615	5177.179	-9770.72	1	11057.58	-62.08237	-6.713281E-009	0.1559887	6
	39	54	125.558	5769.565	-11928.67	1	13250.7	-64.18823	-5.737943E-009	0.1559888	6
	40	55	100.4464	6484.396	-14427.46	1	15817.68	-65.79856	-6.296653E-009	0.1559898	6
	41	56	79.00281	7481.381	-17691.04	1	19207.91	-67.07693	-6.035286E-009	0.1559883	6
	42	58	63.3446	8626.625	-21386.49	1	23060.8	-68.03242	-6.701686E-009	0.1559892	6
	43	59	49.86702	10212.31	-25796.66	1	27744.53	-68.40251	-7.455554E-009	0.155989	6
	44	61	39.72458	12245.73	-31140.47	1	33461.71	-68.53319	-6.724797E-009	0.1559944	6
	45	62	31.6723	14631.32	-37371.71	1	40133.78	-68.61926	-6.801009E-009	0.1559883	6
	46	63	24.93351	18014.91	-45184.64	1	48643.48	-68.26305	-6.299786E-009	0.1559906	6
	47	65	19.86229	21981.38	-53879.55	1	58190.96	-67.80589	-6.631625E-009	0.1559918	6
	48	66	15.83615	27322.9	-64267.64	1	69834.59	-66.9676	-4.000431E-009	0.1559877	6
	49	67	12.40079	33992.43	-76967.67	1	84139.81	-66.17156	-7.860057E-009	0.1559935	6
	50	69	9.93114	41267.54	-89951.25	1	98965.8	-65.35545	-7.193439E-009	0.1559991	6
	51	70	7.944915	50286.26	-105046.6	1	116462.4	-64.41936	-5.431322E-009	0.155998	5
	52	72	6.317385	61572.88	-122975.9	1	137529.3	-63.40331	-6.044203E-009	0.1560001	5
	53	74	5.008013	75369.08	-143643.6	1	162215.8	-62.31423	-6.382667E-009	0.1560062	5
	54	76	3.945707	92456.45	-167971.4	1	191735.7	-61.17031	-7.253169E-009	0.155995	5
	55	79	3.158693	111565.8	-193548.3	1	223400.7	-60.03983	-6.460337E-009	0.1560035	5
	56	82	2.504006	135382.6	-223133.2	1	260992.1	-58.75336	-7.618146E-009	0.1560037	5
	57	85	1.998082	162042.4	-254170.8	1	301430.8	-57.48112	-6.589175E-009	0.1559575	5
	58	88	1.584686	194384.2	-291205.3	1	350122.4	-56.27625	-6.907688E-009	0.1559584	5
	59	92	1.266892	229829	-327815	1	400354.9	-54.96594	-6.440899E-009	0.1559619	5
	60	96	0.999041	273123.2	-373070	1	462360.8	-53.79227	-7.178979E-009	0.1560041	5
