EXPLAIN
TAG	EISPOT
TITLE	LABEL	Potentiostatic EIS	Test &Identifier
DATE	LABEL	10/8/2019	Date
TIME	LABEL	8:29:44	Time
NOTES	NOTES	2	&Notes...
	
	
PSTAT	PSTAT	REF600-11020	Potentiostat
VDC	POTEN	0.00000E+000	T	DC &Voltage (V)
FREQINIT	QUANT	1.00000E+006	Initial Fre&q. (Hz)
FREQFINAL	QUANT	1.00000E+000	Final Fre&q. (Hz)
PTSPERDEC	QUANT	1.00000E+001	Points/&decade
VAC	QUANT	2.50000E+001	AC &Voltage (mV rms)
AREA	QUANT	1.00000E-002	&Area (cm^2)
CONDIT	TWOPARAM	T	5.00000E+000	0.00000E+000	Conditionin&g	Time(s)	E(V)
DELAY	TWOPARAM	T	5.00000E+000	0.00000E+000	Init. De&lay	Time(s)	Stab.(mV/s)
SPEED	SELECTOR	1	&Optimize for:
ZGUESS	QUANT	1.00000E+004	E&stimated Z (ohms)
OCVCURVE	TABLE	19
	Pt	T	Vf	Vm	Ach	Over
	#	s	V vs. Ref.	V	V	bits
	0	0.258333	7.00170E-003	7.00170E-003	5.47933E-004	...........
	1	0.516667	7.00189E-003	7.01206E-003	5.43933E-004	...........
	2	0.775	7.00267E-003	6.99902E-003	5.53466E-004	...........
	3	1.03333	7.00480E-003	7.05865E-003	5.50299E-004	...........
	4	1.29167	7.01180E-003	7.11517E-003	5.48299E-004	...........
	5	1.55	7.03048E-003	7.17937E-003	5.53966E-004	...........
	6	1.80833	7.06681E-003	7.31485E-003	5.52199E-004	...........
	7	2.06667	7.12213E-003	7.30564E-003	5.55533E-004	...........
	8	2.325	7.18987E-003	7.38710E-003	5.49033E-004	...........
	9	2.58333	7.25872E-003	7.46221E-003	5.52832E-004	...........
	10	2.84167	7.32392E-003	7.53485E-003	5.49099E-004	...........
	11	3.1	7.38898E-003	7.60293E-003	5.50166E-004	...........
	12	3.35833	7.45802E-003	7.73484E-003	5.46699E-004	...........
	13	3.61667	7.53252E-003	7.72275E-003	5.44533E-004	...........
	14	3.875	7.60851E-003	7.79466E-003	5.49033E-004	...........
	15	4.13333	7.67784E-003	7.85217E-003	5.43933E-004	...........
	16	4.39167	7.73805E-003	7.91826E-003	5.54833E-004	...........
	17	4.65	7.79442E-003	7.97819E-003	5.44666E-004	...........
	18	4.90833	7.85206E-003	8.04104E-003	5.51166E-004	...........
EOC	QUANT	0.0078521	Open Circuit (V)
PSTATMODEL	IQUANT	4	Pstat Model
PSTATSECTION	LABEL	REF600-11020	Pstat Section
PSTATSERIALNO	LABEL	11020	Pstat Serial Number
CTRLMODE	IQUANT	1	Control Mode
IESTAB	IQUANT	0	I/E Stability
CASPEED	IQUANT	1	Control Amp Speed
CONVENTION	IQUANT	1	Current Convention
ICHRANGE	IQUANT	2	Ich Range
ICHRANGEMODE	TOGGLE	F	Ich Auto Range
ICHOFFSETENABLE	TOGGLE	T	Ich Offset Enable
ICHOFFSET	QUANT	0	Ich Offset (V)
ICHFILTER	IQUANT	3	Ich Filter
VCHRANGE	IQUANT	2	Vch Range
VCHRANGEMODE	TOGGLE	F	Vch Auto Range
VCHOFFSETENABLE	TOGGLE	T	Vch Offset Enable
VCHOFFSET	QUANT	0	Vch Offset (V)
VCHFILTER	IQUANT	3	Vch Filter
ACHRANGE	IQUANT	2	Ach Range
ACHOFFSETENABLE	TOGGLE	F	Ach Offset Enable
ACHOFFSET	QUANT	0	Ach Offset (V)
ACHFILTER	IQUANT	3	Ach Filter
IERANGELOWERLIMIT	IQUANT	1	I/E Range Lower Limit
IERANGEMODE	TOGGLE	F	I/E AutoRange
IERANGE	IQUANT	6	I/E Range
POSFEEDENABLE	TOGGLE	F	Positive Feedback IR Comp
POSFEEDRESISTANCE	QUANT	0	Positive Feedback Resistance (ohm)
ACHSELECT	IQUANT	0	Ach Select
CABLEID	IQUANT	14	Cable ID
DCCALDATE	LABEL	8/19/2019	DC Calibration Date
ACCALDATE	LABEL	8/19/2019	AC Calibration Date
THERMOSELECT	IQUANT	1	Thermo Select
FRAMEWORKVERSION	QUANT	6.33	Framework Version
INSTRUMENTVERSION	LABEL	3.50	Instrument Version
ZCURVE	TABLE
	Pt	Time	Freq	Zreal	Zimag	Zsig	Zmod	Zphz	Idc	Vdc	IERange
	#	s	Hz	ohm	ohm	V	ohm	°	A	V	#
	0	1	1000078	2328.214	-1316.787	1	2674.792	-29.49155	4.550305E-006	0.0088028	8
	1	3	794390.6	2553.679	-1213.619	1	2827.393	-25.41909	-2.232726E-006	0.0096506	8
	2	4	630984.4	2768.555	-1105.566	1	2981.136	-21.76828	-2.569943E-006	0.0100999	8
	3	6	501234.4	2922.886	-981.979	1	3083.431	-18.5704	-2.08576E-006	0.0098922	8
	4	7	398109.4	3064.355	-845.656	1	3178.9	-15.42766	1.047023E-006	0.0091286	8
	5	8	316265.6	3162.499	-730.8252	1	3245.844	-13.01212	5.763028E-009	0.0094134	8
	6	10	251203.1	3244.302	-626.5846	1	3304.256	-10.93117	1.360144E-006	0.0088854	8
	7	11	199546.9	3302.978	-570.6655	1	3351.914	-9.80239	-4.220128E-006	0.01031	8
	8	12	158578.1	3332.512	-486.6872	1	3367.863	-8.308859	-4.041446E-006	0.0102967	8
	9	14	125953.1	3394.13	-392.8891	1	3416.794	-6.602911	6.673428E-007	0.0074488	7
	10	15	100078.1	3419.128	-348.904	1	3436.884	-5.826564	7.334047E-008	0.009145	7
	11	16	79453.13	3445.74	-327.5499	1	3461.273	-5.430184	-1.336664E-008	0.009268	7
	12	18	63140.62	3473.78	-315.3487	1	3488.064	-5.187077	-3.817629E-008	0.0093107	7
	13	19	50203.12	3500.487	-309.2398	1	3514.12	-5.048513	4.228782E-008	0.0091549	7
	14	21	39890.62	3528.446	-309.6592	1	3542.008	-5.015474	2.537066E-009	0.0092357	7
	15	22	31640.63	3555.922	-319.2024	1	3570.22	-5.129489	6.425642E-008	0.0091951	7
	16	23	25171.88	3584.172	-334.9606	1	3599.79	-5.339097	-7.893187E-008	0.0094342	7
	17	25	20015.62	3613.123	-358.4531	1	3630.86	-5.665699	4.334108E-008	0.0091567	7
	18	26	15890.62	3646.312	-389.9666	1	3667.106	-6.104477	-1.821734E-008	0.0093482	7
	19	27	12609.37	3678.532	-431.9107	1	3703.801	-6.69666	3.717305E-008	0.0092579	7
	20	29	10078.13	3716.024	-483.6654	1	3747.368	-7.415741	-7.570799E-008	0.0094233	7
	21	30	8015.625	3750.093	-547.6111	1	3789.865	-8.307954	8.951768E-008	0.0092313	7
	22	31	6328.125	3794.102	-631.6813	1	3846.327	-9.452491	7.930463E-010	0.0093024	7
	23	33	5015.625	3839.397	-733.6441	1	3908.862	-10.81785	-1.263376E-008	0.0094294	7
	24	34	3984.375	3887.664	-861.2104	1	3981.911	-12.49067	1.315625E-007	0.0090947	7
	25	36	3170.956	3939.825	-1011.757	1	4067.662	-14.40248	-2.942981E-008	0.0092995	7
	26	37	2527.573	3997.893	-1199.161	1	4173.864	-16.69652	7.765666E-008	0.0091295	7
	27	38	1976.103	4073.002	-1447.761	1	4322.656	-19.56791	-3.758717E-008	0.0093111	7
	28	40	1577.524	4151.236	-1730.227	1	4497.382	-22.62628	-7.961789E-008	0.0094165	7
	29	41	1265.625	4240.668	-2061.253	1	4715.085	-25.9229	3.796687E-008	0.0092468	7
	30	42	998.264	4351.962	-2499.105	1	5018.476	-29.86651	1.357538E-007	0.0090855	7
	31	44	796.875	4471.509	-3006.301	1	5388.157	-33.91387	-3.468678E-008	0.0093189	7
	32	45	627.7902	4616.779	-3668.335	1	5896.722	-38.46945	-3.759794E-008	0.0093687	7
	33	47	505.5147	4769.816	-4400.189	1	6489.439	-42.69176	9.089269E-008	0.0092281	7
	34	48	397.9953	4967.391	-5397.294	1	7335.241	-47.37514	4.972077E-009	0.0093065	7
	35	49	315.5048	5193.543	-6599.259	1	8397.804	-51.79765	4.761524E-009	0.0093055	7
	36	51	252.4038	5455.145	-8021.341	1	9700.54	-55.78121	4.748232E-009	0.0092979	7
	37	52	198.6229	5803.56	-9912.89	1	11486.81	-59.65292	9.281298E-010	0.0092439	6
	38	53	158.3615	6214.38	-12123.77	1	13623.66	-62.86131	3.742867E-010	0.0092382	6
	39	55	125.558	6752.966	-14915.29	1	16372.8	-65.64115	9.155139E-010	0.0092403	6
	40	56	100.4464	7413.778	-18216.89	1	19667.72	-67.85502	5.62241E-010	0.0092389	6
	41	57	79.00281	8331.025	-22570.45	1	24058.91	-69.74029	7.900506E-010	0.0092427	6
	42	59	63.3446	9363.246	-27534.54	1	29083.01	-71.21917	1.835388E-010	0.0092412	6
	43	60	49.86702	11084.12	-33840.54	1	35609.54	-71.86432	2.078501E-011	0.009239	6
	44	62	39.72458	13176.63	-41440.12	1	43484.56	-72.36101	4.642009E-010	0.0092455	6
	45	63	31.6723	15974.04	-50392.7	1	52863.92	-72.41184	2.97214E-010	0.0092402	6
	46	64	24.93351	19821.64	-61938.3	1	65032.69	-72.25417	9.058168E-010	0.0092375	6
	47	66	19.86229	24775.99	-74905.65	1	78896.8	-71.69772	-2.799126E-011	0.0092445	6
	48	67	15.83615	31437.39	-89757.8	1	95104	-70.69735	7.405417E-010	0.0092399	6
	49	68	12.40079	40634.22	-108858.8	1	116195.4	-69.53067	-6.350552E-010	0.009251	5
	50	70	9.93114	51181.47	-129615.7	1	139354.9	-68.45238	-1.25743E-010	0.0092488	5
	51	71	7.944915	64470.21	-152392.8	1	165468.9	-67.06906	1.319745E-010	0.0092423	5
	52	73	6.317385	81820.3	-178263	1	196143.5	-65.34552	4.619314E-010	0.0092592	5
	53	75	5.008013	102589.2	-207732	1	231683.2	-63.71737	4.068284E-010	0.0092523	5
	54	78	3.945707	127770.2	-241308.6	1	273047.7	-62.09929	2.260905E-010	0.0092497	5
	55	80	3.158693	154978.7	-275466.2	1	316069.7	-60.63768	7.924405E-011	0.0092595	5
	56	84	2.504006	186546.9	-315229.3	1	366291.2	-59.38372	2.109942E-010	0.0092379	5
	57	86	1.998082	220074.4	-357856.7	1	420112.1	-58.40935	-1.471195E-010	0.0092807	5
	58	90	1.584686	257272.2	-409175.2	1	483335.6	-57.84004	1.374121E-010	0.0092746	5
	59	93	1.266892	297027.7	-464818.7	1	551617.5	-57.42068	-1.457146E-010	0.009279	5
	60	98	0.999041	342491.7	-535291.8	1	635482.4	-57.38798	1.39755E-010	0.0092153	5
