EXPLAIN
TAG	EISPOT
TITLE	LABEL	Potentiostatic IDE	Test &Identifier
DATE	LABEL	9/4/2019	Date
TIME	LABEL	12:06:04	Time
NOTES	NOTES	1	&Notes...
	
PSTAT	PSTAT	REF600-11020	Potentiostat
VDC	POTEN	0.00000E+000	T	DC &Voltage (V)
FREQINIT	QUANT	1.00000E+006	Initial Fre&q. (Hz)
FREQFINAL	QUANT	1.00000E+000	Final Fre&q. (Hz)
PTSPERDEC	QUANT	1.00000E+001	Points/&decade
VAC	QUANT	2.50000E+001	AC &Voltage (mV rms)
AREA	QUANT	1.00000E-002	&Area (cm^2)
CONDIT	TWOPARAM	T	5.00000E+000	0.00000E+000	Conditionin&g	Time(s)	E(V)
DELAY	TWOPARAM	T	5.00000E+000	0.00000E+000	Init. De&lay	Time(s)	Stab.(mV/s)
SPEED	SELECTOR	1	&Optimize for:
ZGUESS	QUANT	1.00000E+007	E&stimated Z (ohms)
OCVCURVE	TABLE	19
	Pt	T	Vf	Vm	Ach	Over
	#	s	V vs. Ref.	V	V	bits
	0	0.258333	7.01771E-002	7.01771E-002	5.65966E-004	...........
	1	0.516667	7.01996E-002	7.13552E-002	5.69466E-004	...........
	2	0.775	7.03398E-002	7.25781E-002	5.69532E-004	...........
	3	1.03333	7.07396E-002	7.35618E-002	5.66832E-004	...........
	4	1.29167	7.14492E-002	7.43478E-002	5.69132E-004	...........
	5	1.55	7.23570E-002	7.48614E-002	5.63699E-004	...........
	6	1.80833	7.32872E-002	7.56806E-002	5.62266E-004	...........
	7	2.06667	7.41406E-002	7.67273E-002	5.59432E-004	...........
	8	2.325	7.49360E-002	7.73586E-002	5.65966E-004	...........
	9	2.58333	7.57241E-002	7.79731E-002	5.68099E-004	...........
	10	2.84167	7.65035E-002	7.86768E-002	5.69166E-004	...........
	11	3.1	7.72451E-002	7.93313E-002	5.66932E-004	...........
	12	3.35833	7.79444E-002	7.99751E-002	5.60066E-004	...........
	13	3.61667	7.86162E-002	8.06006E-002	5.65732E-004	...........
	14	3.875	7.92708E-002	8.11817E-002	5.65632E-004	...........
	15	4.13333	7.99092E-002	8.17669E-002	5.65966E-004	...........
	16	4.39167	8.05277E-002	8.22892E-002	5.63932E-004	...........
	17	4.65	8.11232E-002	8.28352E-002	5.66332E-004	...........
	18	4.90833	8.16950E-002	8.33352E-002	5.62466E-004	...........
EOC	QUANT	0.081695	Open Circuit (V)
PSTATMODEL	IQUANT	4	Pstat Model
PSTATSECTION	LABEL	REF600-11020	Pstat Section
PSTATSERIALNO	LABEL	11020	Pstat Serial Number
CTRLMODE	IQUANT	1	Control Mode
IESTAB	IQUANT	0	I/E Stability
CASPEED	IQUANT	1	Control Amp Speed
CONVENTION	IQUANT	1	Current Convention
ICHRANGE	IQUANT	2	Ich Range
ICHRANGEMODE	TOGGLE	F	Ich Auto Range
ICHOFFSETENABLE	TOGGLE	T	Ich Offset Enable
ICHOFFSET	QUANT	0	Ich Offset (V)
ICHFILTER	IQUANT	3	Ich Filter
VCHRANGE	IQUANT	2	Vch Range
VCHRANGEMODE	TOGGLE	F	Vch Auto Range
VCHOFFSETENABLE	TOGGLE	T	Vch Offset Enable
VCHOFFSET	QUANT	0	Vch Offset (V)
VCHFILTER	IQUANT	3	Vch Filter
ACHRANGE	IQUANT	2	Ach Range
ACHOFFSETENABLE	TOGGLE	F	Ach Offset Enable
ACHOFFSET	QUANT	0	Ach Offset (V)
ACHFILTER	IQUANT	3	Ach Filter
IERANGELOWERLIMIT	IQUANT	1	I/E Range Lower Limit
IERANGEMODE	TOGGLE	F	I/E AutoRange
IERANGE	IQUANT	4	I/E Range
POSFEEDENABLE	TOGGLE	F	Positive Feedback IR Comp
POSFEEDRESISTANCE	QUANT	0	Positive Feedback Resistance (ohm)
ACHSELECT	IQUANT	0	Ach Select
CABLEID	IQUANT	14	Cable ID
DCCALDATE	LABEL	8/19/2019	DC Calibration Date
ACCALDATE	LABEL	8/19/2019	AC Calibration Date
THERMOSELECT	IQUANT	1	Thermo Select
FRAMEWORKVERSION	QUANT	6.33	Framework Version
INSTRUMENTVERSION	LABEL	3.50	Instrument Version
ZCURVE	TABLE
	Pt	Time	Freq	Zreal	Zimag	Zsig	Zmod	Zphz	Idc	Vdc	IERange
	#	s	Hz	ohm	ohm	V	ohm	°	A	V	#
	0	2	1000078	2298.873	-2226.484	1	3200.319	-44.08356	1.155992E-005	0.0828355	8
	1	4	794390.6	2769.428	-2208.282	1	3542.067	-38.5681	1.042906E-005	0.0830142	8
	2	5	630984.4	3192.766	-2104.428	1	3823.921	-33.38983	1.218411E-005	0.0826261	8
	3	7	501234.4	3575.331	-1981.267	1	4087.593	-28.99299	9.841244E-006	0.082854	8
	4	8	398109.4	3880.372	-1796.424	1	4276.029	-24.84184	8.350838E-006	0.0831005	8
	5	10	316265.6	4127.946	-1637.899	1	4441.019	-21.64235	9.932876E-006	0.0830849	8
	6	11	251203.1	4323.527	-1455.599	1	4561.979	-18.6068	1.029791E-005	0.0827218	8
	7	13	199546.9	4498.471	-1349.814	1	4696.62	-16.70243	9.77849E-006	0.082919	8
	8	15	158578.1	4635.677	-1256.971	1	4803.07	-15.17105	1.055063E-005	0.0827204	8
	9	16	125953.1	4741.696	-1160.128	1	4881.555	-13.7482	9.422499E-007	0.0824279	7
	10	18	100078.1	4820.95	-1108.085	1	4946.656	-12.94448	8.669751E-007	0.0830372	7
	11	19	79453.13	4912.776	-1107.742	1	5036.116	-12.70666	8.545891E-007	0.083063	7
	12	20	63140.62	5002.161	-1141.109	1	5130.667	-12.85059	9.199933E-007	0.0829569	7
	13	22	50203.12	5094.514	-1201.109	1	5234.189	-13.26609	8.934475E-007	0.0829965	7
	14	23	39890.62	5192.373	-1297.028	1	5351.917	-14.02518	8.604477E-007	0.0830506	7
	15	24	31640.63	5300.673	-1430.915	1	5490.415	-15.10689	8.679768E-007	0.0830273	7
	16	26	25171.88	5421.854	-1603.132	1	5653.896	-16.47188	8.654624E-007	0.0830713	7
	17	27	20015.62	5556.478	-1809.309	1	5843.633	-18.03637	8.905783E-007	0.0830038	7
	18	28	15890.62	5711.947	-2075.586	1	6077.367	-19.96994	8.922896E-007	0.0830033	7
	19	30	12609.37	5893.274	-2392.995	1	6360.59	-22.09987	9.306693E-007	0.0829148	7
	20	31	10078.13	6095.451	-2760.385	1	6691.356	-24.36387	8.7438E-007	0.0830848	7
	21	32	8015.625	6335.019	-3204.342	1	7099.315	-26.83093	8.734559E-007	0.0830233	7
	22	34	6328.125	6625.035	-3757.082	1	7616.216	-29.55774	8.915812E-007	0.0830017	7
	23	35	5015.625	6951.797	-4404.287	1	8229.533	-32.35616	9.096085E-007	0.0829998	7
	24	36	3984.375	7343.31	-5156.409	1	8972.89	-35.0762	8.731889E-007	0.0830824	7
	25	38	3170.956	7788.026	-6034.105	1	9852.09	-37.76826	8.677228E-007	0.0830308	7
	26	39	2527.573	8295.123	-7060.598	1	10893.17	-40.40358	9.215934E-007	0.082952	7
	27	40	1976.103	8940.116	-8409.173	1	12273.54	-43.24712	9.423028E-007	0.0829507	7
	28	42	1577.524	9670.94	-9825.26	1	13786.32	-45.4535	8.254757E-008	0.0830522	6
	29	43	1265.625	10466.18	-11484.57	1	15538.22	-47.6563	8.709407E-008	0.0829467	6
	30	44	998.264	11513.56	-13590.1	1	17811.59	-49.72866	8.378046E-008	0.0829542	6
	31	46	796.875	12644.68	-15924.9	1	20334.46	-51.54974	8.808749E-008	0.0829891	6
	32	47	627.7902	14092.76	-18866.43	1	23548.84	-53.24117	8.790027E-008	0.0829386	6
	33	48	505.5147	15646.54	-22011	1	27005.53	-54.59285	8.940675E-008	0.0829292	6
	34	50	397.9953	17633.88	-26079.45	1	31481.61	-55.93501	8.802829E-008	0.0826106	6
	35	51	315.5048	19928.39	-30748.15	1	36641.36	-57.05205	8.794799E-008	0.0826091	6
	36	52	252.4038	22525.38	-36018	1	42481.63	-57.97846	8.803745E-008	0.0826059	6
	37	54	198.6229	25806.02	-42684.2	1	49878.77	-58.84368	8.82658E-008	0.0826033	6
	38	55	158.3615	29489.65	-50145.47	1	58173.95	-59.54098	8.829367E-008	0.0826055	6
	39	57	125.558	33971.68	-59052.27	1	68126.69	-60.08897	8.820626E-008	0.0826104	6
	40	58	100.4464	39018.1	-69262.74	1	79496.79	-60.60593	8.791003E-008	0.0826062	6
	41	59	79.00281	45096.62	-81830.14	1	93433.81	-61.14083	8.824964E-008	0.0826022	6
	42	61	63.3446	53339.36	-95354	1	109258.7	-60.77811	8.792721E-008	0.0825993	6
	43	62	49.86702	60118	-113016	1	128010.9	-61.98959	8.798418E-008	0.0826001	6
	44	63	39.72458	70410.91	-132502.4	1	150048.6	-62.01411	8.767335E-009	0.0826039	5
	45	65	31.6723	81423.52	-155218	1	175278.2	-62.31961	8.929166E-009	0.0826087	5
	46	66	24.93351	94986.29	-184065.4	1	207129.1	-62.70417	8.788938E-009	0.0826023	5
	47	67	19.86229	109864	-216154.4	1	242472.4	-63.0573	8.935037E-009	0.0826064	5
	48	69	15.83615	126351.4	-253656.4	1	283383.5	-63.52118	8.778781E-009	0.0826086	5
	49	70	12.40079	148253.9	-302254.5	1	336655.6	-63.87235	9.273488E-009	0.082609	5
	50	72	9.93114	172456.9	-356721.5	1	396221.7	-64.19857	8.869436E-009	0.0826125	5
	51	73	7.944915	197663.8	-421047.7	1	465136.7	-64.85196	8.913163E-009	0.0826086	5
	52	75	6.317385	230488	-499025	1	549682.3	-65.20889	8.8958E-009	0.0826186	5
	53	77	5.008013	269650.3	-593508.4	1	651892.3	-65.56614	8.903799E-009	0.0825999	5
	54	80	3.945707	317362.9	-712124.4	1	779641.1	-65.97955	8.843928E-008	0.0825981	6
	55	82	3.158693	373102.9	-841174.1	1	920206.3	-66.08031	8.925787E-009	0.0826262	5
	56	86	2.504006	443807	-1004430	1	1098109	-66.16177	8.778281E-009	0.0828869	5
	57	89	1.998082	526278.2	-1189890	1	1301080	-66.14061	8.843497E-009	0.082839	5
	58	92	1.584686	630730.4	-1416771	1	1550826	-66.00191	8.945254E-010	0.0828776	4
	59	96	1.266892	762211.3	-1672705	1	1838181	-65.5024	9.458797E-010	0.082848	4
	60	100	0.999041	929341.6	-1989787	1	2196117	-64.96481	8.996984E-010	0.082913	4
