EXPLAIN
TAG	EISPOT
TITLE	LABEL	Potentiostatic IDE	Test &Identifier
DATE	LABEL	9/6/2019	Date
TIME	LABEL	7:38:16	Time
NOTES	NOTES	1	&Notes...
	
PSTAT	PSTAT	REF600-11020	Potentiostat
VDC	POTEN	0.00000E+000	T	DC &Voltage (V)
FREQINIT	QUANT	1.00000E+006	Initial Fre&q. (Hz)
FREQFINAL	QUANT	1.00000E+000	Final Fre&q. (Hz)
PTSPERDEC	QUANT	1.00000E+001	Points/&decade
VAC	QUANT	2.50000E+001	AC &Voltage (mV rms)
AREA	QUANT	1.00000E-002	&Area (cm^2)
CONDIT	TWOPARAM	T	5.00000E+000	0.00000E+000	Conditionin&g	Time(s)	E(V)
DELAY	TWOPARAM	T	5.00000E+000	0.00000E+000	Init. De&lay	Time(s)	Stab.(mV/s)
SPEED	SELECTOR	1	&Optimize for:
ZGUESS	QUANT	1.00000E+007	E&stimated Z (ohms)
OCVCURVE	TABLE	19
	Pt	T	Vf	Vm	Ach	Over
	#	s	V vs. Ref.	V	V	bits
	0	0.258333	5.82393E-003	5.82393E-003	5.74366E-004	...........
	1	0.516667	5.81579E-003	5.39778E-003	5.69499E-004	...........
	2	0.775	5.76595E-003	5.00158E-003	5.68966E-004	...........
	3	1.03333	5.62618E-003	4.66026E-003	5.66732E-004	...........
	4	1.29167	5.37869E-003	4.24788E-003	5.63199E-004	...........
	5	1.55	5.04935E-003	3.83727E-003	5.70832E-004	...........
	6	1.80833	4.67921E-003	3.67348E-003	5.70932E-004	...........
	7	2.06667	4.30991E-003	3.42666E-003	5.68899E-004	...........
	8	2.325	3.97695E-003	3.18662E-003	5.70266E-004	...........
	9	2.58333	3.69166E-003	2.96707E-003	5.67132E-004	...........
	10	2.84167	3.44367E-003	2.87696E-003	5.67899E-004	...........
	11	3.1	3.23282E-003	3.11021E-003	5.68332E-004	...........
	12	3.35833	3.07839E-003	2.69566E-003	5.71799E-004	...........
	13	3.61667	2.97246E-003	2.39012E-003	5.69566E-004	...........
	14	3.875	2.85681E-003	2.20356E-003	5.70599E-004	...........
	15	4.13333	2.68501E-003	2.00205E-003	5.69732E-004	...........
	16	4.39167	2.46887E-003	1.82299E-003	5.68699E-004	...........
	17	4.65	2.24485E-003	1.63998E-003	5.68932E-004	...........
	18	4.90833	2.03499E-003	1.50543E-003	5.75066E-004	...........
EOC	QUANT	0.002035	Open Circuit (V)
PSTATMODEL	IQUANT	4	Pstat Model
PSTATSECTION	LABEL	REF600-11020	Pstat Section
PSTATSERIALNO	LABEL	11020	Pstat Serial Number
CTRLMODE	IQUANT	1	Control Mode
IESTAB	IQUANT	0	I/E Stability
CASPEED	IQUANT	1	Control Amp Speed
CONVENTION	IQUANT	1	Current Convention
ICHRANGE	IQUANT	2	Ich Range
ICHRANGEMODE	TOGGLE	F	Ich Auto Range
ICHOFFSETENABLE	TOGGLE	T	Ich Offset Enable
ICHOFFSET	QUANT	0	Ich Offset (V)
ICHFILTER	IQUANT	3	Ich Filter
VCHRANGE	IQUANT	2	Vch Range
VCHRANGEMODE	TOGGLE	F	Vch Auto Range
VCHOFFSETENABLE	TOGGLE	T	Vch Offset Enable
VCHOFFSET	QUANT	0	Vch Offset (V)
VCHFILTER	IQUANT	3	Vch Filter
ACHRANGE	IQUANT	2	Ach Range
ACHOFFSETENABLE	TOGGLE	F	Ach Offset Enable
ACHOFFSET	QUANT	0	Ach Offset (V)
ACHFILTER	IQUANT	3	Ach Filter
IERANGELOWERLIMIT	IQUANT	1	I/E Range Lower Limit
IERANGEMODE	TOGGLE	F	I/E AutoRange
IERANGE	IQUANT	2	I/E Range
POSFEEDENABLE	TOGGLE	F	Positive Feedback IR Comp
POSFEEDRESISTANCE	QUANT	0	Positive Feedback Resistance (ohm)
ACHSELECT	IQUANT	0	Ach Select
CABLEID	IQUANT	14	Cable ID
DCCALDATE	LABEL	8/19/2019	DC Calibration Date
ACCALDATE	LABEL	8/19/2019	AC Calibration Date
THERMOSELECT	IQUANT	1	Thermo Select
FRAMEWORKVERSION	QUANT	6.33	Framework Version
INSTRUMENTVERSION	LABEL	3.50	Instrument Version
ZCURVE	TABLE
	Pt	Time	Freq	Zreal	Zimag	Zsig	Zmod	Zphz	Idc	Vdc	IERange
	#	s	Hz	ohm	ohm	V	ohm	°	A	V	#
	0	2	1000078	1281.151	-2816.536	1	3094.224	-65.54074	2.558301E-006	0.0042185	8
	1	3	794390.6	1398.328	-3378.573	1	3656.512	-67.51624	-6.059706E-007	0.0039502	8
	2	4	630984.4	1559.103	-4097.359	1	4383.966	-69.16747	-1.238147E-006	0.0040435	8
	3	6	501234.4	1728.855	-4969.796	1	5261.921	-70.81862	3.944148E-006	0.0031419	8
	4	7	398109.4	1945.027	-6066.334	1	6370.521	-72.22278	1.14513E-006	0.0033354	8
	5	9	316265.6	2181.541	-7404.074	1	7718.771	-73.58289	1.222975E-006	0.0034872	8
	6	10	251203.1	2590.814	-9001.931	1	9367.341	-73.94384	8.359062E-007	0.0034617	8
	7	12	199546.9	3099.032	-11164.09	1	11586.23	-74.48591	4.713245E-007	0.0035538	8
	8	13	158578.1	3666.443	-13713.59	1	14195.26	-75.03159	-1.024101E-006	0.0038497	8
	9	15	125953.1	4787.157	-16848.44	1	17515.33	-74.13853	-3.539322E-007	0.0042264	7
	10	16	100078.1	6072.833	-20542.89	1	21421.71	-73.53141	-7.602942E-009	0.0036837	7
	11	18	79453.13	7991.301	-25096.7	1	26338.28	-72.33746	-2.660706E-008	0.0036506	7
	12	19	63140.62	10653.86	-30489.42	1	32297.21	-70.73914	-2.688492E-008	0.0036431	7
	13	20	50203.12	14261.73	-36518.71	1	39204.76	-68.66776	-4.882041E-008	0.0036952	7
	14	22	39890.62	19459.83	-43872.04	1	47994.18	-66.0799	-5.927993E-009	0.0037143	7
	15	23	31640.63	26339.88	-51110.4	1	57498.37	-62.73556	-2.306345E-008	0.0036481	7
	16	24	25171.88	35061.07	-58314.19	1	68042.81	-58.98385	-3.9724E-010	0.0036484	7
	17	26	20015.62	46278.18	-64906.2	1	79715.02	-54.5111	6.372759E-008	0.0034955	7
	18	28	15890.62	59290.73	-71133.23	1	92603.06	-50.18823	-1.396187E-011	0.0036579	7
	19	29	12609.37	73263.78	-73179.41	1	103551	-44.96699	2.394977E-009	0.0034346	6
	20	30	10078.13	88141.16	-74630.41	1	115492.7	-40.25508	-4.638166E-009	0.0037138	6
	21	32	8015.625	101460.1	-73470.8	1	125268.1	-35.90961	3.051484E-009	0.0034156	6
	22	33	6328.125	114729.9	-71418.82	1	135142.9	-31.90207	-3.896806E-009	0.0036364	6
	23	35	5015.625	126157	-68318.02	1	143467.5	-28.43696	1.278518E-008	0.0033458	6
	24	36	3984.375	137413.6	-64428.07	1	151767.8	-25.12012	-5.069689E-010	0.0035618	6
	25	38	3170.956	145403.3	-61603.34	1	157914.8	-22.96102	-7.459048E-009	0.0036213	6
	26	39	2527.573	153140.8	-58463.79	1	163921.1	-20.8951	7.919565E-009	0.0035605	6
	27	41	1976.103	160952	-57043.53	1	170761.6	-19.515	-7.122298E-010	0.003684	6
	28	42	1577.524	168338.4	-54787.69	1	177029.7	-18.02808	-6.839994E-010	0.0036719	6
	29	44	1265.625	175656.2	-51929.85	1	183171.5	-16.46944	-2.21566E-011	0.0035015	5
	30	45	998.264	182191.7	-51812.73	1	189415.8	-15.875	-3.991813E-011	0.0036703	5
	31	47	796.875	188933.2	-52814.14	1	196176.2	-15.61773	-4.247654E-010	0.0036023	5
	32	48	627.7902	195428.7	-53648.16	1	202658.6	-15.35043	-3.622217E-010	0.0036482	5
	33	49	505.5147	200797	-55437.73	1	208309.4	-15.43421	-2.596976E-010	0.0036583	5
	34	51	397.9953	208552.6	-57341.7	1	216292	-15.37363	2.480638E-010	0.0035815	5
	35	52	315.5048	215501	-59999.68	1	223697.7	-15.55824	2.781983E-010	0.0035834	5
	36	53	252.4038	221630.7	-62813.61	1	230360	-15.82356	8.537134E-011	0.0035737	5
	37	55	198.6229	229057.7	-67346.87	1	238753.1	-16.38424	1.855311E-010	0.0035782	5
	38	56	158.3615	236399.5	-72545.08	1	247280.3	-17.05993	8.772102E-011	0.0035714	5
	39	57	125.558	243779.4	-78929.84	1	256238.8	-17.94069	7.61133E-011	0.0035783	5
	40	59	100.4464	250606.5	-87220.18	1	265350.7	-19.18975	1.597544E-010	0.0035787	5
	41	60	79.00281	260470.3	-99574	1	278854.3	-20.92113	1.740073E-010	0.0035707	5
	42	61	63.3446	264137.9	-109021.2	1	285752.4	-22.42806	1.839237E-011	0.003574	5
	43	63	49.86702	279687.4	-126204.2	1	306842.9	-24.28647	2.276814E-010	0.0035726	5
	44	64	39.72458	287222	-146370.5	1	322367.5	-27.00373	1.558626E-010	0.0035763	5
	45	65	31.6723	301365.8	-169664.8	1	345843.2	-29.37891	-1.864631E-010	0.0035683	5
	46	67	24.93351	316144.3	-201183.2	1	374729.1	-32.47125	2.015243E-010	0.0035687	5
	47	68	19.86229	332857.9	-234617.3	1	407234.1	-35.17838	2.626053E-010	0.0035767	5
	48	69	15.83615	355463.8	-276519.2	1	450352.5	-37.87974	2.635431E-010	0.0035666	5
	49	71	12.40079	383785.4	-326593.7	1	503939.1	-40.39711	-2.490494E-011	0.0035733	5
	50	72	9.93114	417604	-382195.6	1	566097.7	-42.46508	2.418117E-010	0.0035707	5
	51	74	7.944915	453399.4	-439461.2	1	631424.7	-44.10564	1.83786E-010	0.0035725	5
	52	75	6.317385	502457.8	-512507.8	1	717724.3	-45.56731	1.564698E-010	0.0035607	5
	53	78	5.008013	558284.5	-593398.6	1	814741.4	-46.74637	1.136654E-010	0.0035719	5
	54	80	3.945707	625638.7	-686422.5	1	928762.4	-47.65244	1.089506E-010	0.0035695	5
	55	83	3.158693	697727	-787921.2	1	1052446	-48.47418	-8.088998E-012	0.0035478	4
	56	86	2.504006	783281.1	-909202.3	1	1200074	-49.25498	2.028135E-010	0.0035669	4
	57	89	1.998082	876196	-1039037	1	1359161	-49.85983	1.697847E-010	0.0035937	4
	58	92	1.584686	984317	-1194269	1	1547630	-50.50463	3.69441E-011	0.0035203	4
	59	96	1.266892	1095885	-1375767	1	1758891	-51.46048	1.525137E-010	0.0035773	4
	60	100	0.999041	1233578	-1592961	1	2014755	-52.24604	-4.393864E-011	0.003543	4
