EXPLAIN
TAG	EISPOT
TITLE	LABEL	Potentiostatic IDE	Test &Identifier
DATE	LABEL	9/18/2019	Date
TIME	LABEL	8:24:35	Time
NOTES	NOTES	1	&Notes...
	
PSTAT	PSTAT	REF600-11020	Potentiostat
VDC	POTEN	0.00000E+000	T	DC &Voltage (V)
FREQINIT	QUANT	1.00000E+006	Initial Fre&q. (Hz)
FREQFINAL	QUANT	1.00000E+000	Final Fre&q. (Hz)
PTSPERDEC	QUANT	1.00000E+001	Points/&decade
VAC	QUANT	2.50000E+001	AC &Voltage (mV rms)
AREA	QUANT	1.00000E-002	&Area (cm^2)
CONDIT	TWOPARAM	T	5.00000E+000	0.00000E+000	Conditionin&g	Time(s)	E(V)
DELAY	TWOPARAM	T	5.00000E+000	0.00000E+000	Init. De&lay	Time(s)	Stab.(mV/s)
SPEED	SELECTOR	1	&Optimize for:
ZGUESS	QUANT	1.00000E+007	E&stimated Z (ohms)
OCVCURVE	TABLE	19
	Pt	T	Vf	Vm	Ach	Over
	#	s	V vs. Ref.	V	V	bits
	0	0.258333	-2.21366E-003	-2.21366E-003	5.75866E-004	...........
	1	0.516667	-2.23350E-003	-3.25212E-003	5.76799E-004	...........
	2	0.775	-2.35110E-003	-4.01553E-003	5.74899E-004	...........
	3	1.03333	-2.66785E-003	-4.64895E-003	5.70632E-004	...........
	4	1.29167	-3.18151E-003	-4.33395E-003	5.70432E-004	...........
	5	1.55	-3.73798E-003	-4.53366E-003	5.74132E-004	...........
	6	1.80833	-4.17641E-003	-5.30858E-003	5.74332E-004	...........
	7	2.06667	-4.50484E-003	-6.09251E-003	5.68632E-004	...........
	8	2.325	-4.87185E-003	-6.95547E-003	5.72699E-004	...........
	9	2.58333	-5.39081E-003	-7.56153E-003	5.71666E-004	...........
	10	2.84167	-6.04826E-003	-8.08004E-003	5.73066E-004	...........
	11	3.1	-6.74871E-003	-8.48459E-003	5.72699E-004	...........
	12	3.35833	-7.40018E-003	-8.94135E-003	5.72132E-004	...........
	13	3.61667	-7.96559E-003	-9.39203E-003	5.74266E-004	...........
	14	3.875	-8.38920E-003	-6.13237E-003	5.79099E-004	...........
	15	4.13333	-8.51733E-003	-8.60042E-003	5.73199E-004	...........
	16	4.39167	-8.35141E-003	-9.33815E-003	5.71232E-004	...........
	17	4.65	-8.23400E-003	-9.47911E-003	5.74999E-004	...........
	18	4.90833	-8.44960E-003	-1.01118E-002	5.70899E-004	...........
EOC	QUANT	-0.0084496	Open Circuit (V)
PSTATMODEL	IQUANT	4	Pstat Model
PSTATSECTION	LABEL	REF600-11020	Pstat Section
PSTATSERIALNO	LABEL	11020	Pstat Serial Number
CTRLMODE	IQUANT	1	Control Mode
IESTAB	IQUANT	0	I/E Stability
CASPEED	IQUANT	1	Control Amp Speed
CONVENTION	IQUANT	1	Current Convention
ICHRANGE	IQUANT	2	Ich Range
ICHRANGEMODE	TOGGLE	F	Ich Auto Range
ICHOFFSETENABLE	TOGGLE	T	Ich Offset Enable
ICHOFFSET	QUANT	0	Ich Offset (V)
ICHFILTER	IQUANT	3	Ich Filter
VCHRANGE	IQUANT	2	Vch Range
VCHRANGEMODE	TOGGLE	F	Vch Auto Range
VCHOFFSETENABLE	TOGGLE	T	Vch Offset Enable
VCHOFFSET	QUANT	0	Vch Offset (V)
VCHFILTER	IQUANT	3	Vch Filter
ACHRANGE	IQUANT	2	Ach Range
ACHOFFSETENABLE	TOGGLE	F	Ach Offset Enable
ACHOFFSET	QUANT	0	Ach Offset (V)
ACHFILTER	IQUANT	3	Ach Filter
IERANGELOWERLIMIT	IQUANT	1	I/E Range Lower Limit
IERANGEMODE	TOGGLE	F	I/E AutoRange
IERANGE	IQUANT	3	I/E Range
POSFEEDENABLE	TOGGLE	F	Positive Feedback IR Comp
POSFEEDRESISTANCE	QUANT	0	Positive Feedback Resistance (ohm)
ACHSELECT	IQUANT	0	Ach Select
CABLEID	IQUANT	14	Cable ID
DCCALDATE	LABEL	8/19/2019	DC Calibration Date
ACCALDATE	LABEL	8/19/2019	AC Calibration Date
THERMOSELECT	IQUANT	1	Thermo Select
FRAMEWORKVERSION	QUANT	6.33	Framework Version
INSTRUMENTVERSION	LABEL	3.50	Instrument Version
ZCURVE	TABLE
	Pt	Time	Freq	Zreal	Zimag	Zsig	Zmod	Zphz	Idc	Vdc	IERange
	#	s	Hz	ohm	ohm	V	ohm	°	A	V	#
	0	2	1000078	1927.266	-850.8635	1	2106.733	-23.82084	-1.966308E-006	-0.0060423	8
	1	3	794390.6	2065.061	-754.0471	1	2198.423	-20.05942	-1.201681E-006	-0.0062098	8
	2	4	630984.4	2169.814	-661.9089	1	2268.528	-16.9645	1.508442E-006	-0.0069321	8
	3	6	501234.4	2242.455	-570.5516	1	2313.9	-14.27497	-2.657842E-006	-0.0062614	8
	4	7	398109.4	2309.1	-479.791	1	2358.42	-11.73805	-7.059025E-007	-0.0067034	8
	5	8	316265.6	2355.147	-418.4054	1	2392.025	-10.07382	-2.872992E-008	-0.0068925	8
	6	10	251203.1	2387.491	-361.6025	1	2414.719	-8.612397	-2.470575E-006	-0.0063839	8
	7	11	199546.9	2419.516	-319.7166	1	2440.549	-7.527495	4.054974E-007	-0.0070423	8
	8	12	158578.1	2446.455	-278.4215	1	2462.247	-6.492675	9.440421E-007	-0.0071515	8
	9	14	125953.1	2469.622	-238.3031	1	2481.092	-5.511622	4.698294E-008	-0.0067902	7
	10	15	100078.1	2488.121	-218.0018	1	2497.653	-5.007299	-1.339505E-008	-0.0068955	7
	11	16	79453.13	2506.445	-210.735	1	2515.288	-4.805968	5.009798E-008	-0.0070071	7
	12	18	63140.62	2525.255	-209.3241	1	2533.916	-4.738544	2.17863E-008	-0.0070005	7
	13	19	50203.12	2544.937	-211.0871	1	2553.676	-4.741484	5.549093E-008	-0.0070972	7
	14	20	39890.62	2564.457	-216.4577	1	2573.576	-4.824718	-9.83198E-009	-0.0069091	7
	15	22	31640.63	2585.937	-226.5072	1	2595.838	-5.005871	-2.267278E-008	-0.0069087	7
	16	23	25171.88	2608.848	-240.0153	1	2619.865	-5.256444	-8.680236E-009	-0.0069491	7
	17	24	20015.62	2632.53	-258.8117	1	2645.221	-5.614873	5.401434E-009	-0.006987	7
	18	26	15890.62	2656.592	-282.5388	1	2671.574	-6.070807	4.782596E-008	-0.0069989	7
	19	27	12609.37	2683.026	-313.2878	1	2701.255	-6.660072	5.939083E-009	-0.006989	7
	20	28	10078.13	2709.755	-349.2205	1	2732.165	-7.343533	3.410583E-009	-0.0069242	7
	21	30	8015.625	2739.142	-395.376	1	2767.53	-8.213516	1.772818E-008	-0.0070224	7
	22	31	6328.125	2771.647	-453.0795	1	2808.435	-9.283994	5.812119E-008	-0.0070988	7
	23	33	5015.625	2806.337	-523.1501	1	2854.683	-10.55972	-4.894498E-008	-0.006885	7
	24	34	3984.375	2844.14	-608.5051	1	2908.506	-12.07639	-2.105836E-008	-0.0069528	7
	25	35	3170.956	2884.124	-711.455	1	2970.579	-13.85706	-7.315844E-009	-0.0069477	7
	26	37	2527.573	2930.753	-836.197	1	3047.71	-15.92441	-6.139823E-008	-0.0068806	7
	27	38	1976.103	2985.502	-1003.503	1	3149.641	-18.5788	1.482153E-008	-0.0069342	7
	28	39	1577.524	3041.037	-1190.604	1	3265.799	-21.38097	-5.104837E-008	-0.0068868	7
	29	41	1265.625	3104.619	-1416.275	1	3412.403	-24.52167	-1.486908E-009	-0.0070116	7
	30	42	998.264	3175.254	-1710.888	1	3606.852	-28.31664	2.23443E-008	-0.0069959	7
	31	43	796.875	3254.832	-2059.447	1	3851.656	-32.32299	-2.473541E-008	-0.0068861	7
	32	45	627.7902	3352.965	-2512.49	1	4189.866	-36.84546	5.18394E-009	-0.006926	7
	33	46	505.5147	3459.264	-3020.634	1	4592.466	-41.1275	-1.987378E-008	-0.0069367	7
	34	47	397.9953	3601.759	-3708.856	1	5169.94	-45.8393	7.344198E-009	-0.0069481	7
	35	49	315.5048	3772.238	-4539.251	1	5902.083	-50.27253	7.494063E-009	-0.0069506	7
	36	50	252.4038	3977.11	-5517.372	1	6801.382	-54.21465	6.987442E-009	-0.0069505	7
	37	51	198.6229	4258.483	-6810.198	1	8032.028	-57.98185	7.543952E-009	-0.0069491	7
	38	53	158.3615	4603.034	-8310.584	1	9500.2	-61.01898	7.723653E-009	-0.0069553	7
	39	54	125.558	5063.664	-10186.53	1	11375.68	-63.56831	2.812589E-009	-0.007011	6
	40	55	100.4464	5642.333	-12376.48	1	13601.96	-65.49216	3.373548E-009	-0.0070132	6
	41	57	79.00281	6444.117	-15228.35	1	16535.7	-67.06358	3.06015E-009	-0.0070171	6
	42	58	63.3446	7455.365	-18354.05	1	19810.44	-67.89314	2.358539E-009	-0.0070119	6
	43	59	49.86702	8827.314	-22596.21	1	24259.23	-68.66167	1.737431E-009	-0.0070147	6
	44	61	39.72458	10571.79	-27212.56	1	29193.94	-68.76939	2.830908E-009	-0.007008	6
	45	62	31.6723	12814.2	-32764.1	1	35180.82	-68.63929	3.269246E-009	-0.0070118	6
	46	63	24.93351	15859.24	-39571.45	1	42631.15	-68.16032	2.700733E-009	-0.0070152	6
	47	65	19.86229	19565.97	-47132.84	1	51032.65	-67.45549	3.8994E-009	-0.0070066	6
	48	66	15.83615	24153.44	-56000.95	1	60987.66	-66.66926	2.342174E-009	-0.0070142	6
	49	67	12.40079	30607.23	-66761.41	1	73443.09	-65.37058	2.560697E-009	-0.0070118	6
	50	69	9.93114	37533.27	-77779.86	1	86362.34	-64.24001	2.355617E-009	-0.0070148	6
	51	70	7.944915	45942.36	-90416.23	1	101418.9	-63.06393	1.238464E-009	-0.0070061	6
	52	72	6.317385	56271.48	-105069.6	1	119189.3	-61.82811	1.409791E-009	-0.0069962	5
	53	74	5.008013	68791.16	-121469.5	1	139596.1	-60.47607	1.462265E-009	-0.0070142	5
	54	76	3.945707	84077.53	-140293.4	1	163558.1	-59.06583	1.651939E-009	-0.0070069	5
	55	79	3.158693	100547.6	-159868.7	1	188859.3	-57.83263	1.497023E-009	-0.0070258	5
	56	82	2.504006	121057.5	-188709.3	1	224201	-57.31972	2.42397E-009	-0.0070134	5
	57	85	1.998082	144392.3	-214741.6	1	258772.3	-56.08311	2.664556E-009	-0.0069961	5
	58	88	1.584686	169823.4	-242638.4	1	296164.4	-55.0117	1.605109E-009	-0.0070413	5
	59	92	1.266892	200354.8	-275374.4	1	340548.2	-53.9614	1.749848E-009	-0.0069818	5
	60	96	0.999041	232448.5	-308883.1	1	386576.1	-53.03689	1.208093E-009	-0.0070475	5
