EXPLAIN
TAG	EISPOT
TITLE	LABEL	Potentiostatic IDE	Test &Identifier
DATE	LABEL	9/8/2019	Date
TIME	LABEL	8:28:09	Time
NOTES	NOTES	1	&Notes...
	
PSTAT	PSTAT	REF600-11020	Potentiostat
VDC	POTEN	0.00000E+000	T	DC &Voltage (V)
FREQINIT	QUANT	1.00000E+006	Initial Fre&q. (Hz)
FREQFINAL	QUANT	1.00000E+000	Final Fre&q. (Hz)
PTSPERDEC	QUANT	1.00000E+001	Points/&decade
VAC	QUANT	2.50000E+001	AC &Voltage (mV rms)
AREA	QUANT	1.00000E-002	&Area (cm^2)
CONDIT	TWOPARAM	T	5.00000E+000	0.00000E+000	Conditionin&g	Time(s)	E(V)
DELAY	TWOPARAM	T	5.00000E+000	0.00000E+000	Init. De&lay	Time(s)	Stab.(mV/s)
SPEED	SELECTOR	1	&Optimize for:
ZGUESS	QUANT	1.00000E+007	E&stimated Z (ohms)
OCVCURVE	TABLE	19
	Pt	T	Vf	Vm	Ach	Over
	#	s	V vs. Ref.	V	V	bits
	0	0.258333	7.75673E-003	7.75673E-003	5.75632E-004	...........
	1	0.516667	7.76466E-003	8.17184E-003	5.75599E-004	...........
	2	0.775	7.81404E-003	8.60068E-003	5.75499E-004	...........
	3	1.03333	7.95617E-003	9.02407E-003	5.75432E-004	...........
	4	1.29167	8.21579E-003	9.42892E-003	5.75232E-004	...........
	5	1.55	8.56841E-003	9.80434E-003	5.71232E-004	...........
	6	1.80833	8.96579E-003	1.01591E-002	5.71032E-004	...........
	7	2.06667	9.36803E-003	1.05107E-002	5.66066E-004	...........
	8	2.325	9.75502E-003	1.08368E-002	5.67732E-004	...........
	9	2.58333	1.01218E-002	1.11489E-002	5.67766E-004	...........
	10	2.84167	1.04696E-002	1.14520E-002	5.72766E-004	...........
	11	3.1	1.08004E-002	1.17369E-002	5.70999E-004	...........
	12	3.35833	1.11160E-002	1.20117E-002	5.69132E-004	...........
	13	3.61667	1.14176E-002	1.22748E-002	5.69766E-004	...........
	14	3.875	1.17063E-002	1.25466E-002	5.69032E-004	...........
	15	4.13333	1.19848E-002	1.28177E-002	5.70166E-004	...........
	16	4.39167	1.22585E-002	1.31561E-002	5.70399E-004	...........
	17	4.65	1.25369E-002	1.35117E-002	5.71532E-004	...........
	18	4.90833	1.28313E-002	1.38433E-002	5.71866E-004	...........
EOC	QUANT	0.0128313	Open Circuit (V)
PSTATMODEL	IQUANT	4	Pstat Model
PSTATSECTION	LABEL	REF600-11020	Pstat Section
PSTATSERIALNO	LABEL	11020	Pstat Serial Number
CTRLMODE	IQUANT	1	Control Mode
IESTAB	IQUANT	0	I/E Stability
CASPEED	IQUANT	1	Control Amp Speed
CONVENTION	IQUANT	1	Current Convention
ICHRANGE	IQUANT	2	Ich Range
ICHRANGEMODE	TOGGLE	F	Ich Auto Range
ICHOFFSETENABLE	TOGGLE	T	Ich Offset Enable
ICHOFFSET	QUANT	0	Ich Offset (V)
ICHFILTER	IQUANT	3	Ich Filter
VCHRANGE	IQUANT	2	Vch Range
VCHRANGEMODE	TOGGLE	F	Vch Auto Range
VCHOFFSETENABLE	TOGGLE	T	Vch Offset Enable
VCHOFFSET	QUANT	0	Vch Offset (V)
VCHFILTER	IQUANT	3	Vch Filter
ACHRANGE	IQUANT	2	Ach Range
ACHOFFSETENABLE	TOGGLE	F	Ach Offset Enable
ACHOFFSET	QUANT	0	Ach Offset (V)
ACHFILTER	IQUANT	3	Ach Filter
IERANGELOWERLIMIT	IQUANT	1	I/E Range Lower Limit
IERANGEMODE	TOGGLE	F	I/E AutoRange
IERANGE	IQUANT	3	I/E Range
POSFEEDENABLE	TOGGLE	F	Positive Feedback IR Comp
POSFEEDRESISTANCE	QUANT	0	Positive Feedback Resistance (ohm)
ACHSELECT	IQUANT	0	Ach Select
CABLEID	IQUANT	14	Cable ID
DCCALDATE	LABEL	8/19/2019	DC Calibration Date
ACCALDATE	LABEL	8/19/2019	AC Calibration Date
THERMOSELECT	IQUANT	1	Thermo Select
FRAMEWORKVERSION	QUANT	6.33	Framework Version
INSTRUMENTVERSION	LABEL	3.50	Instrument Version
ZCURVE	TABLE
	Pt	Time	Freq	Zreal	Zimag	Zsig	Zmod	Zphz	Idc	Vdc	IERange
	#	s	Hz	ohm	ohm	V	ohm	°	A	V	#
	0	2	1000078	2472.39	-1648.634	1	2971.65	-33.69607	1.580184E-006	0.0152343	8
	1	4	794390.6	2802.493	-1570.52	1	3212.553	-29.26632	-5.260444E-007	0.0148149	8
	2	5	630984.4	3082.793	-1428.777	1	3397.796	-24.86624	-1.266338E-006	0.0150132	8
	3	7	501234.4	3305.456	-1272.73	1	3542.017	-21.05866	-1.021995E-006	0.0148556	8
	4	8	398109.4	3504.373	-1121.107	1	3679.336	-17.74033	2.968923E-006	0.0137576	8
	5	10	316265.6	3643.608	-979.338	1	3772.927	-15.04453	-1.971948E-006	0.0145882	8
	6	11	251203.1	3746.386	-833.8615	1	3838.064	-12.54821	6.702718E-006	0.0132224	8
	7	13	199546.9	3835.105	-725.5452	1	3903.133	-10.7129	-6.150283E-006	0.01573	8
	8	14	158578.1	3905.469	-659.5594	1	3960.771	-9.58572	-1.968585E-006	0.0150349	8
	9	16	125953.1	3977.816	-520.6091	1	4011.74	-7.456383	1.299488E-007	0.0138448	7
	10	17	100078.1	4009.185	-472.7453	1	4036.961	-6.725011	1.107727E-008	0.0142935	7
	11	18	79453.13	4043.175	-447.3201	1	4067.845	-6.313292	-4.284727E-008	0.0144101	7
	12	20	63140.62	4078.194	-436.55	1	4101.493	-6.109957	-5.266264E-008	0.0144203	7
	13	21	50203.12	4114.024	-435.819	1	4137.044	-6.047073	-2.325553E-008	0.0144381	7
	14	22	39890.62	4147.264	-447.0598	1	4171.29	-6.152516	2.809676E-008	0.0142779	7
	15	24	31640.63	4184.095	-471.1859	1	4210.542	-6.425213	3.20067E-008	0.0143592	7
	16	25	25171.88	4224.583	-507.6096	1	4254.969	-6.851593	-7.505167E-008	0.0144792	7
	17	26	20015.62	4268.836	-556.8655	1	4305.004	-7.432211	1.726003E-009	0.0142984	7
	18	28	15890.62	4318.037	-617.3622	1	4361.947	-8.136601	-6.508311E-008	0.0144946	7
	19	29	12609.37	4371.696	-698.2426	1	4427.106	-9.074573	-2.413846E-008	0.0144303	7
	20	30	10078.13	4429.458	-788.9222	1	4499.166	-10.09894	9.831417E-008	0.0141962	7
	21	32	8015.625	4499.121	-904.7849	1	4589.197	-11.37066	-5.39222E-008	0.0144091	7
	22	33	6328.125	4577.395	-1050.673	1	4696.43	-12.92747	1.552344E-007	0.0141474	7
	23	34	5015.625	4667.167	-1221.346	1	4824.327	-14.66483	-5.646162E-008	0.0144552	7
	24	36	3984.375	4766.174	-1424.938	1	4974.622	-16.64503	-1.731881E-008	0.0144351	7
	25	37	3170.956	4880.597	-1667.345	1	5157.545	-18.86156	-5.456916E-008	0.0144032	7
	26	38	2527.573	5009.397	-1955.132	1	5377.416	-21.32035	4.638892E-009	0.0142876	7
	27	40	1976.103	5174.012	-2330.36	1	5674.59	-24.24666	-4.657122E-008	0.0145033	7
	28	41	1577.524	5350.346	-2740.064	1	6011.169	-27.11828	9.335099E-008	0.0141947	7
	29	42	1265.625	5546.026	-3217.1	1	6411.563	-30.11687	1.025442E-007	0.0141576	7
	30	44	998.264	5795.13	-3829.599	1	6946.176	-33.45794	-1.540203E-008	0.0144266	7
	31	45	796.875	6069.789	-4526.893	1	7571.994	-36.71585	2.94616E-009	0.0142785	7
	32	46	627.7902	6404.533	-5423.939	1	8392.685	-40.26096	-2.185808E-009	0.0142904	7
	33	48	505.5147	6760.452	-6395.111	1	9305.975	-43.40926	-1.391771E-008	0.0144127	7
	34	49	397.9953	7226.038	-7679.773	1	10544.88	-46.74355	-4.152366E-009	0.014321	6
	35	50	315.5048	7762.86	-9200.314	1	12037.76	-49.84365	-4.380476E-009	0.0143304	6
	36	52	252.4038	8381.145	-10961.2	1	13798.24	-52.59776	-4.312723E-009	0.0143197	6
	37	53	198.6229	9188.434	-13247.8	1	16122.4	-55.25554	-4.039844E-009	0.014324	6
	38	54	158.3615	10133.47	-15861.02	1	18821.77	-57.42585	-3.286903E-009	0.0143289	6
	39	56	125.558	11340.59	-19070.26	1	22187.47	-59.26115	-3.745852E-009	0.0143235	6
	40	57	100.4464	12806.16	-22763.68	1	26118.63	-60.6392	-4.751856E-009	0.0143178	6
	41	58	79.00281	14750.92	-27418.81	1	31134.88	-61.72039	-4.686459E-009	0.0143296	6
	42	60	63.3446	17355.67	-32389.2	1	36746.15	-61.81549	-4.393605E-009	0.0143275	6
	43	61	49.86702	20167.74	-39432.2	1	44290.36	-62.91236	-4.719662E-009	0.0143215	6
	44	63	39.72458	23948.75	-46359.18	1	52179.65	-62.67951	-4.185415E-009	0.0143261	6
	45	64	31.6723	28596.74	-54996.05	1	61986.61	-62.52656	-4.816828E-009	0.0143248	6
	46	65	24.93351	34688.53	-64956.73	1	73638.79	-61.89666	-3.941787E-009	0.0143231	6
	47	67	19.86229	41896.7	-75900.7	1	86696.31	-61.10158	-4.388159E-009	0.0143274	6
	48	68	15.83615	50886.54	-89299.05	1	102780.2	-60.3236	-2.283435E-009	0.0143253	6
	49	69	12.40079	61632.16	-102569.7	1	119662.3	-58.99916	-3.013739E-009	0.0143256	5
	50	71	9.93114	75160.36	-117941.5	1	139854.5	-57.49193	-5.098649E-009	0.0143325	5
	51	72	7.944915	90225.74	-134119.9	1	161644.1	-56.0703	-4.542069E-009	0.0143234	5
	52	74	6.317385	108402.7	-152575.4	1	187164.1	-54.60674	-4.716583E-009	0.014324	5
	53	76	5.008013	130239.1	-172359.8	1	216032.7	-52.92445	-4.494749E-009	0.0143304	5
	54	78	3.945707	155844.7	-193455.8	1	248420.5	-51.14566	-5.018903E-009	0.0143199	5
	55	81	3.158693	183624.1	-213821.7	1	281846.6	-49.34493	-4.324726E-009	0.0143206	5
	56	84	2.504006	215704.8	-235496.8	1	319354.5	-47.51167	-4.558712E-009	0.014338	5
	57	87	1.998082	250011.7	-257019.9	1	358559.8	-45.79189	-3.755488E-009	0.0143331	5
	58	90	1.584686	289123.9	-277730.6	1	400907.6	-43.84856	-5.751104E-009	0.0142826	5
	59	94	1.266892	329291.5	-298863	1	444693.1	-42.2267	-5.459678E-009	0.0143348	5
	60	98	0.999041	375693.2	-320228.4	1	493651.3	-40.44317	-6.732421E-009	0.0143017	5
