EXPLAIN
TAG	EISPOT
TITLE	LABEL	Potentiostatic EIS	Test &Identifier
DATE	LABEL	10/10/2019	Date
TIME	LABEL	8:01:59	Time
NOTES	NOTES	1	&Notes...
	
PSTAT	PSTAT	REF600-11020	Potentiostat
VDC	POTEN	0.00000E+000	T	DC &Voltage (V)
FREQINIT	QUANT	1.00000E+006	Initial Fre&q. (Hz)
FREQFINAL	QUANT	1.00000E+000	Final Fre&q. (Hz)
PTSPERDEC	QUANT	1.00000E+001	Points/&decade
VAC	QUANT	2.50000E+001	AC &Voltage (mV rms)
AREA	QUANT	1.00000E-002	&Area (cm^2)
CONDIT	TWOPARAM	T	5.00000E+000	0.00000E+000	Conditionin&g	Time(s)	E(V)
DELAY	TWOPARAM	T	5.00000E+000	0.00000E+000	Init. De&lay	Time(s)	Stab.(mV/s)
SPEED	SELECTOR	1	&Optimize for:
ZGUESS	QUANT	1.00000E+004	E&stimated Z (ohms)
OCVCURVE	TABLE	19
	Pt	T	Vf	Vm	Ach	Over
	#	s	V vs. Ref.	V	V	bits
	0	0.258333	6.92227E-003	6.92227E-003	5.65832E-004	...........
	1	0.516667	6.91151E-003	6.35900E-003	5.68466E-004	...........
	2	0.775	6.85627E-003	6.39211E-003	5.66266E-004	...........
	3	1.03333	6.73565E-003	6.40617E-003	5.66932E-004	...........
	4	1.29167	6.58818E-003	6.42400E-003	5.67432E-004	...........
	5	1.55	6.47659E-003	6.43767E-003	5.67166E-004	...........
	6	1.80833	6.42469E-003	6.44702E-003	5.66532E-004	...........
	7	2.06667	6.41627E-003	6.45439E-003	5.65166E-004	...........
	8	2.325	6.42314E-003	6.27219E-003	5.64899E-004	...........
	9	2.58333	6.41755E-003	6.24937E-003	5.71099E-004	...........
	10	2.84167	6.38448E-003	6.26604E-003	5.66032E-004	...........
	11	3.1	6.33488E-003	6.26112E-003	5.70199E-004	...........
	12	3.35833	6.29476E-003	6.37845E-003	5.64832E-004	...........
	13	3.61667	6.28751E-003	6.62337E-003	5.69032E-004	...........
	14	3.875	6.32926E-003	6.63125E-003	5.63966E-004	...........
	15	4.13333	6.41281E-003	6.49967E-003	5.66499E-004	...........
	16	4.39167	6.49543E-003	6.44081E-003	5.63266E-004	...........
	17	4.65	6.53351E-003	6.48726E-003	5.61566E-004	...........
	18	4.90833	6.52582E-003	6.49274E-003	5.61566E-004	...........
EOC	QUANT	0.0065258	Open Circuit (V)
PSTATMODEL	IQUANT	4	Pstat Model
PSTATSECTION	LABEL	REF600-11020	Pstat Section
PSTATSERIALNO	LABEL	11020	Pstat Serial Number
CTRLMODE	IQUANT	1	Control Mode
IESTAB	IQUANT	0	I/E Stability
CASPEED	IQUANT	1	Control Amp Speed
CONVENTION	IQUANT	1	Current Convention
ICHRANGE	IQUANT	2	Ich Range
ICHRANGEMODE	TOGGLE	F	Ich Auto Range
ICHOFFSETENABLE	TOGGLE	T	Ich Offset Enable
ICHOFFSET	QUANT	0	Ich Offset (V)
ICHFILTER	IQUANT	3	Ich Filter
VCHRANGE	IQUANT	2	Vch Range
VCHRANGEMODE	TOGGLE	F	Vch Auto Range
VCHOFFSETENABLE	TOGGLE	T	Vch Offset Enable
VCHOFFSET	QUANT	0	Vch Offset (V)
VCHFILTER	IQUANT	3	Vch Filter
ACHRANGE	IQUANT	2	Ach Range
ACHOFFSETENABLE	TOGGLE	F	Ach Offset Enable
ACHOFFSET	QUANT	0	Ach Offset (V)
ACHFILTER	IQUANT	3	Ach Filter
IERANGELOWERLIMIT	IQUANT	1	I/E Range Lower Limit
IERANGEMODE	TOGGLE	F	I/E AutoRange
IERANGE	IQUANT	6	I/E Range
POSFEEDENABLE	TOGGLE	F	Positive Feedback IR Comp
POSFEEDRESISTANCE	QUANT	0	Positive Feedback Resistance (ohm)
ACHSELECT	IQUANT	0	Ach Select
CABLEID	IQUANT	14	Cable ID
DCCALDATE	LABEL	8/19/2019	DC Calibration Date
ACCALDATE	LABEL	8/19/2019	AC Calibration Date
THERMOSELECT	IQUANT	1	Thermo Select
FRAMEWORKVERSION	QUANT	6.33	Framework Version
INSTRUMENTVERSION	LABEL	3.50	Instrument Version
ZCURVE	TABLE
	Pt	Time	Freq	Zreal	Zimag	Zsig	Zmod	Zphz	Idc	Vdc	IERange
	#	s	Hz	ohm	ohm	V	ohm	°	A	V	#
	0	2	1000078	2431.592	-1057.655	1	2651.654	-23.5073	-5.447154E-006	0.00974	8
	1	3	794390.6	2591.9	-938.5923	1	2756.611	-19.9066	1.559949E-006	0.0085168	8
	2	5	630984.4	2726.58	-816.4131	1	2846.185	-16.66915	-3.59837E-006	0.0088176	8
	3	6	501234.4	2821.569	-711.47	1	2909.886	-14.15234	1.290577E-006	0.0082672	8
	4	8	398109.4	2906.645	-610.9927	1	2970.168	-11.87105	2.859908E-006	0.0075517	8
	5	9	316265.6	2957.663	-535.0526	1	3005.67	-10.25413	6.991247E-007	0.0077914	8
	6	10	251203.1	3006.289	-458.3534	1	3041.03	-8.668832	-1.112224E-006	0.0084968	8
	7	12	199546.9	3038.873	-406.0469	1	3065.881	-7.610646	2.781332E-006	0.0075486	8
	8	13	158578.1	3076.256	-369.7435	1	3098.396	-6.853658	-1.890289E-007	0.0080725	8
	9	14	125953.1	3122.661	-308.0287	1	3137.816	-5.633603	2.175546E-007	0.0077584	7
	10	16	100078.1	3140.06	-288.0227	1	3153.241	-5.240804	-3.451331E-008	0.008101	7
	11	17	79453.13	3165.015	-287.8752	1	3178.08	-5.197061	4.378014E-008	0.0079382	7
	12	18	63140.62	3192.237	-293.5819	1	3205.709	-5.254565	-6.38291E-009	0.0081168	7
	13	20	50203.12	3221.226	-303.8811	1	3235.528	-5.389168	4.349576E-008	0.007942	7
	14	21	39890.62	3251.782	-319.6633	1	3267.457	-5.614367	7.116673E-008	0.0079588	7
	15	23	31640.63	3284.916	-342.9723	1	3302.772	-5.960556	7.157303E-008	0.0079614	7
	16	24	25171.88	3321.328	-372.3721	1	3342.137	-6.397026	-9.867764E-009	0.0080971	7
	17	25	20015.62	3361.367	-403.9726	1	3385.555	-6.852999	-3.837473E-008	0.0081527	7
	18	27	15890.62	3403.779	-453.076	1	3433.801	-7.582054	7.141207E-008	0.0079565	7
	19	28	12609.37	3452.26	-508.6127	1	3489.526	-8.38095	8.872327E-009	0.008024	7
	20	29	10078.13	3505.894	-567.1852	1	3551.477	-9.189716	4.718612E-009	0.0080126	7
	21	31	8015.625	3568.953	-637.4071	1	3625.426	-10.12614	-8.62697E-009	0.0080974	7
	22	32	6328.125	3633.078	-726.6232	1	3705.029	-11.31005	7.8513E-008	0.0079105	7
	23	33	5015.625	3707.508	-827.1478	1	3798.656	-12.57676	-1.356358E-008	0.0081023	7
	24	35	3984.375	3792.937	-952.016	1	3910.589	-14.09	8.128685E-008	0.0079054	7
	25	36	3170.956	3876.368	-1078.029	1	4023.478	-15.54141	-4.498195E-008	0.0081081	7
	26	38	2527.573	3970.747	-1234.759	1	4158.3	-17.27381	-3.938742E-008	0.0081496	7
	27	39	1976.103	4079.197	-1437.768	1	4325.161	-19.41569	-8.867615E-009	0.0080919	7
	28	40	1577.524	4205.905	-1664.121	1	4523.156	-21.58687	-8.094089E-009	0.0080923	7
	29	42	1265.625	4297.987	-1927.406	1	4710.37	-24.15356	-4.452874E-008	0.0081083	7
	30	43	998.264	4420.557	-2270.486	1	4969.55	-27.18593	8.534846E-010	0.0080151	7
	31	44	796.875	4544.964	-2683.439	1	5278.025	-30.55846	-5.191256E-008	0.0082332	7
	32	46	627.7902	4685.944	-3220.992	1	5686.199	-34.50359	-4.070598E-008	0.0081537	7
	33	47	505.5147	4830.026	-3824.438	1	6160.802	-38.37235	-6.627701E-008	0.00818	7
	34	48	397.9953	5005.427	-4651.267	1	6832.904	-42.89961	4.160339E-009	0.0080849	7
	35	50	315.5048	5207.226	-5655.913	1	7687.948	-47.36518	4.904521E-009	0.0080871	7
	36	51	252.4038	5440.347	-6849.644	1	8747.285	-51.54155	5.040657E-009	0.0080847	7
	37	52	198.6229	5748.3	-8434.851	1	10207.33	-55.72581	1.016998E-009	0.0080234	6
	38	54	158.3615	6109.868	-10290.03	1	11967.26	-59.29961	2.298027E-010	0.0080199	6
	39	55	125.558	6575.913	-12624.07	1	14234.11	-62.48487	1.019349E-009	0.0080238	6
	40	57	100.4464	7132.543	-15379.47	1	16952.91	-65.11951	1.02815E-009	0.0080168	6
	41	58	79.00281	7944.578	-19025.18	1	20617.31	-67.33545	1.001265E-010	0.0080192	6
	42	59	63.3446	8751.932	-23181.97	1	24779.02	-69.31688	1.028039E-009	0.0080193	6
	43	61	49.86702	10180.45	-28347.93	1	30120.53	-70.24552	8.478395E-010	0.0080179	6
	44	62	39.72458	11719.53	-34709.46	1	36634.6	-71.34293	2.587056E-010	0.0080202	6
	45	64	31.6723	13767.17	-42110.32	1	44303.66	-71.89582	5.356375E-010	0.0080209	6
	46	65	24.93351	16519.38	-51732.97	1	54306.45	-72.29067	3.2262E-010	0.0080141	6
	47	66	19.86229	19845.99	-62735.79	1	65800.02	-72.44563	1.242427E-009	0.0080261	6
	48	68	15.83615	23879.93	-75712.91	1	79389.52	-72.49467	5.243435E-010	0.0080209	6
	49	69	12.40079	30049.55	-93017.01	1	97750.4	-72.09673	-4.186678E-010	0.0080218	6
	50	70	9.93114	36662.11	-110804.5	1	116712.2	-71.69206	5.519293E-010	0.0080236	5
	51	72	7.944915	45140.54	-132481.3	1	139960.6	-71.18441	-9.672027E-011	0.0080229	5
	52	74	6.317385	55484.27	-158711	1	168130	-70.73074	6.668989E-010	0.0080258	5
	53	76	5.008013	68611.76	-190502.1	1	202481.2	-70.19287	4.091091E-010	0.00803	5
	54	78	3.945707	85465.24	-228655.7	1	244106	-69.50563	-4.065276E-011	0.0080161	5
	55	81	3.158693	104589.2	-270616.3	1	290124.3	-68.86922	3.151291E-010	0.0080391	5
	56	84	2.504006	129305.9	-322153.7	1	347135.4	-68.13049	-1.26776E-010	0.0080276	5
	57	87	1.998082	158048.2	-379259.5	1	410873.5	-67.37712	2.392423E-010	0.0079833	5
	58	90	1.584686	192988.6	-449077.4	1	488789.4	-66.74465	4.378813E-011	0.0079981	5
	59	94	1.266892	235277.6	-526765.9	1	576921	-65.93229	1.838601E-010	0.0079809	5
	60	98	0.999041	287854.3	-622532.5	1	685862.1	-65.18453	1.653729E-011	0.0080573	5
