EXPLAIN
TAG	EISPOT
TITLE	LABEL	Potentiostatic EIS	Test &Identifier
DATE	LABEL	8/14/2018	Date
TIME	LABEL	5:21:55	Time
NOTES	NOTES	1	&Notes...
	
PSTAT	PSTAT	REF600-11020	Potentiostat
VDC	POTEN	0.00000E+000	T	DC &Voltage (V)
FREQINIT	QUANT	1.00000E+006	Initial Fre&q. (Hz)
FREQFINAL	QUANT	1.00000E+000	Final Fre&q. (Hz)
PTSPERDEC	QUANT	1.00000E+001	Points/&decade
VAC	QUANT	2.50000E+001	AC &Voltage (mV rms)
AREA	QUANT	1.00000E-002	&Area (cm^2)
CONDIT	TWOPARAM	T	5.00000E+000	0.00000E+000	Conditionin&g	Time(s)	E(V)
DELAY	TWOPARAM	T	5.00000E+000	0.00000E+000	Init. De&lay	Time(s)	Stab.(mV/s)
SPEED	SELECTOR	0	&Optimize for:
ZGUESS	QUANT	1.00000E+005	E&stimated Z (ohms)
OCVCURVE	TABLE	19
	Pt	T	Vf	Vm	Ach	Over
	#	s	V vs. Ref.	V	V	bits
	0	0.258333	2.08024E-003	2.08024E-003	5.44866E-004	...........
	1	0.516667	2.07148E-003	1.62168E-003	5.46966E-004	...........
	2	0.775	2.01850E-003	1.22926E-003	5.49466E-004	...........
	3	1.03333	1.87098E-003	8.36546E-004	5.46066E-004	...........
	4	1.29167	1.61215E-003	5.24976E-004	5.47366E-004	...........
	5	1.55	1.27824E-003	2.69793E-004	5.50099E-004	...........
	6	1.80833	9.26954E-004	3.21314E-005	5.49933E-004	...........
	7	2.06667	6.00736E-004	-1.84110E-004	5.40566E-004	...........
	8	2.325	3.14647E-004	-3.87919E-004	5.43533E-004	...........
	9	2.58333	6.63554E-005	-4.90655E-004	5.46433E-004	...........
	10	2.84167	-1.48272E-004	-6.52900E-004	5.41699E-004	...........
	11	3.1	-3.32657E-004	-8.23885E-004	5.33566E-004	...........
	12	3.35833	-4.96247E-004	-9.72015E-004	5.32000E-004	...........
	13	3.61667	-6.51442E-004	-1.11512E-003	5.39199E-004	...........
	14	3.875	-8.03783E-004	-1.22619E-003	5.44533E-004	...........
	15	4.13333	-9.50487E-004	-1.33242E-003	5.35833E-004	...........
	16	4.39167	-1.08644E-003	-1.43852E-003	5.38399E-004	...........
	17	4.65	-1.20954E-003	-1.52981E-003	5.44166E-004	...........
	18	4.90833	-1.32111E-003	-1.61233E-003	5.42566E-004	...........
EOC	QUANT	-0.0013211	Open Circuit (V)
PSTATMODEL	IQUANT	4	Pstat Model
PSTATSECTION	LABEL	REF600-11020	Pstat Section
PSTATSERIALNO	LABEL	11020	Pstat Serial Number
CTRLMODE	IQUANT	1	Control Mode
IESTAB	IQUANT	0	I/E Stability
CASPEED	IQUANT	1	Control Amp Speed
CONVENTION	IQUANT	1	Current Convention
ICHRANGE	IQUANT	2	Ich Range
ICHRANGEMODE	TOGGLE	F	Ich Auto Range
ICHOFFSETENABLE	TOGGLE	T	Ich Offset Enable
ICHOFFSET	QUANT	0	Ich Offset (V)
ICHFILTER	IQUANT	3	Ich Filter
VCHRANGE	IQUANT	2	Vch Range
VCHRANGEMODE	TOGGLE	F	Vch Auto Range
VCHOFFSETENABLE	TOGGLE	T	Vch Offset Enable
VCHOFFSET	QUANT	0	Vch Offset (V)
VCHFILTER	IQUANT	3	Vch Filter
ACHRANGE	IQUANT	2	Ach Range
ACHOFFSETENABLE	TOGGLE	F	Ach Offset Enable
ACHOFFSET	QUANT	0	Ach Offset (V)
ACHFILTER	IQUANT	3	Ach Filter
IERANGELOWERLIMIT	IQUANT	1	I/E Range Lower Limit
IERANGEMODE	TOGGLE	F	I/E AutoRange
IERANGE	IQUANT	4	I/E Range
POSFEEDENABLE	TOGGLE	F	Positive Feedback IR Comp
POSFEEDRESISTANCE	QUANT	0	Positive Feedback Resistance (ohm)
ACHSELECT	IQUANT	0	Ach Select
CABLEID	IQUANT	14	Cable ID
DCCALDATE	LABEL	8/19/2019	DC Calibration Date
ACCALDATE	LABEL	8/19/2019	AC Calibration Date
THERMOSELECT	IQUANT	1	Thermo Select
FRAMEWORKVERSION	QUANT	6.33	Framework Version
INSTRUMENTVERSION	LABEL	3.50	Instrument Version
ZCURVE	TABLE
	Pt	Time	Freq	Zreal	Zimag	Zsig	Zmod	Zphz	Idc	Vdc	IERange
	#	s	Hz	ohm	ohm	V	ohm	°	A	V	#
	0	1	1000078	2067.9	-1201.413	1	2391.569	-30.15581	-7.634691E-007	0.0008987	8
	1	2	794390.6	2334.302	-1104.896	1	2582.588	-25.32962	-9.256063E-007	0.0008343	8
	2	2	630984.4	2521.74	-1004.815	1	2714.558	-21.72536	4.825156E-007	0.000405	8
	3	2	501234.4	2678.473	-899.0048	1	2825.319	-18.55385	-3.595941E-006	0.0012354	8
	4	3	398109.4	2789.262	-796.8747	1	2900.861	-15.94431	2.232659E-007	0.0003271	8
	5	3	316265.6	2871.093	-699.4623	1	2955.068	-13.69181	-3.177521E-007	0.0004066	8
	6	3	251203.1	2938.65	-617.7294	1	3002.875	-11.87122	-2.566136E-007	0.0003875	8
	7	4	199546.9	2998.479	-565.4767	1	3051.334	-10.67986	-9.805215E-007	0.0006563	8
	8	4	158578.1	3057.606	-511.1843	1	3100.043	-9.491186	1.743257E-007	0.0002672	8
	9	4	125953.1	3111.949	-423.4344	1	3140.625	-7.748495	3.054646E-007	-0.0002998	7
	10	5	100078.1	3143.568	-412.3512	1	3170.497	-7.472991	1.463486E-009	0.0003712	7
	11	5	79453.13	3178.77	-412.5967	1	3205.435	-7.395508	-2.328991E-008	0.0003417	7
	12	5	63140.62	3216.076	-426.0075	1	3244.168	-7.545579	-4.779577E-009	0.0003014	7
	13	6	50203.12	3256.782	-448.8245	1	3287.563	-7.846634	-4.058442E-008	0.0002839	7
	14	6	39890.62	3300.779	-480.0732	1	3335.508	-8.275209	-1.977846E-008	0.0003338	7
	15	6	31640.63	3347.287	-522.0742	1	3387.757	-8.864961	-4.359423E-008	0.0003471	7
	16	6	25171.88	3401.136	-575.3657	1	3449.46	-9.60175	6.851948E-008	0.0002314	7
	17	7	20015.62	3458.402	-639.5349	1	3517.037	-10.4769	6.717865E-008	0.0001218	7
	18	7	15890.62	3526.168	-715.9169	1	3598.111	-11.47675	1.147289E-007	0.0000989	7
	19	7	12609.37	3603.263	-805.7205	1	3692.248	-12.60448	-4.571169E-008	0.0003178	7
	20	8	10078.13	3671.209	-915.8902	1	3783.733	-14.00815	6.960869E-008	0.000141	7
	21	8	8015.625	3778.089	-1031.853	1	3916.462	-15.2758	-3.390071E-008	0.0002747	7
	22	8	6328.125	3892.025	-1179.946	1	4066.956	-16.86574	-2.329926E-008	0.00033	7
	23	9	5015.625	4016.91	-1348.558	1	4237.237	-18.55794	1.142882E-007	9.032261E-005	7
	24	9	3984.375	4155.578	-1542.14	1	4432.497	-20.35995	-5.602251E-008	0.0003476	7
	25	9	3170.956	4313.62	-1763.932	1	4660.341	-22.24071	-4.276598E-008	0.0003	7
	26	10	2527.573	4489.299	-2018.155	1	4922.068	-24.2062	6.878825E-008	0.000112	7
	27	10	1976.103	4704.504	-2336.245	1	5252.657	-26.40887	-2.829297E-009	0.000293	7
	28	10	1577.524	4942.069	-2679.211	1	5621.585	-28.46316	1.327499E-009	0.0003564	7
	29	11	1265.625	5173.966	-3059.269	1	6010.744	-30.59503	3.40726E-008	0.0002178	7
	30	11	998.264	5454.352	-3532.793	1	6498.506	-32.9312	-1.427556E-009	0.0002019	7
	31	11	796.875	5744.604	-4063.61	1	7036.576	-35.27477	3.396584E-008	0.0002184	7
	32	12	627.7902	6062.253	-4731.615	1	7690.194	-37.97219	-4.463969E-008	0.0002927	7
	33	12	505.5147	6350.823	-5471.877	1	8382.982	-40.74823	7.023017E-008	0.0002218	7
	34	12	397.9953	6680.896	-6467.367	1	9298.452	-44.06959	1.953245E-009	0.0002773	7
	35	12	315.5048	7014.75	-7682.603	1	10403.32	-47.60175	4.902875E-010	0.0002113	6
	36	13	252.4038	7352.277	-9143.909	1	11733.16	-51.19854	1.070919E-009	0.0002107	6
	37	13	198.6229	7758.601	-11116.6	1	13556.35	-55.08769	4.925699E-010	0.0002122	6
	38	13	158.3615	8205.781	-13451.77	1	15757.06	-58.61619	9.656522E-010	0.0002085	6
	39	14	125.558	8765.274	-16428.33	1	18620.42	-61.91801	3.730865E-010	0.0002086	6
	40	14	100.4464	9444.015	-19997.41	1	22115.29	-64.72042	-6.988656E-010	0.0002053	6
	41	14	79.00281	10320.94	-24706.06	1	26775.2	-67.32731	-5.640525E-010	0.0002045	6
	42	15	63.3446	11744.76	-29848.18	1	32075.74	-68.52119	7.56108E-010	0.0002045	6
	43	15	49.86702	13326.93	-37028.92	1	39354.14	-70.20589	1.228751E-009	0.0002017	6
	44	16	39.72458	15088.92	-45326.48	1	47772.01	-71.58771	3.872357E-010	0.000208	6
	45	16	31.6723	17548.48	-55122.52	1	57848.43	-72.34091	6.861035E-010	0.000206	6
	46	16	24.93351	21105.16	-68041.73	1	71239.77	-72.76717	3.398083E-010	0.0002027	6
	47	17	19.86229	25583	-82741.9	1	86606.65	-72.81889	1.231195E-010	0.0002069	6
	48	17	15.83615	31617.75	-99855.5	1	104741.6	-72.43038	8.183259E-010	0.0002036	6
	49	17	12.40079	37962.77	-122118.1	1	127882.8	-72.73113	-1.353365E-009	0.0002082	5
	50	18	9.93114	48507.13	-147072.8	1	154865.6	-71.74657	-8.457653E-011	0.0002093	5
	51	18	7.944915	59775.94	-175953.5	1	185830	-71.23605	3.582475E-010	0.0002058	5
	52	19	6.317385	74657.27	-209756.3	1	222646.4	-70.40814	5.010829E-011	0.0002095	5
	53	19	5.008013	93368.83	-250652.7	1	267478	-69.5695	-3.247178E-011	0.0001982	5
	54	20	3.945707	116917.1	-300469	1	322414.7	-68.73821	2.837247E-010	0.0002111	5
	55	22	3.158693	143861.2	-353490.3	1	381643.1	-67.85498	2.227798E-011	0.0002181	5
	56	24	2.504006	177780.4	-418781.3	1	454954.6	-66.99788	-6.341028E-011	0.0002049	5
	57	25	1.998082	217892.1	-490762	1	536958.4	-66.05938	1.301735E-010	0.0002384	5
	58	26	1.584686	266012.1	-578274.6	1	636524.9	-65.2971	1.084564E-010	0.0002451	5
	59	28	1.266892	321747.5	-673469.6	1	746379.8	-64.46404	5.828858E-011	0.0002077	5
	60	31	0.999041	393897.2	-790422.2	1	883132.1	-63.51119	3.791295E-011	0.00018	5
