EXPLAIN
TAG	EISPOT
TITLE	LABEL	Potentiostatic IDE	Test &Identifier
DATE	LABEL	9/14/2019	Date
TIME	LABEL	12:39:15	Time
NOTES	NOTES	1	&Notes...
	
PSTAT	PSTAT	REF600-11020	Potentiostat
VDC	POTEN	0.00000E+000	T	DC &Voltage (V)
FREQINIT	QUANT	1.00000E+006	Initial Fre&q. (Hz)
FREQFINAL	QUANT	1.00000E+000	Final Fre&q. (Hz)
PTSPERDEC	QUANT	1.00000E+001	Points/&decade
VAC	QUANT	2.50000E+001	AC &Voltage (mV rms)
AREA	QUANT	1.00000E-002	&Area (cm^2)
CONDIT	TWOPARAM	T	5.00000E+000	0.00000E+000	Conditionin&g	Time(s)	E(V)
DELAY	TWOPARAM	T	5.00000E+000	0.00000E+000	Init. De&lay	Time(s)	Stab.(mV/s)
SPEED	SELECTOR	1	&Optimize for:
ZGUESS	QUANT	1.00000E+007	E&stimated Z (ohms)
OCVCURVE	TABLE	19
	Pt	T	Vf	Vm	Ach	Over
	#	s	V vs. Ref.	V	V	bits
	0	0.258333	2.61642E-003	2.61642E-003	5.68499E-004	...........
	1	0.516667	2.60960E-003	2.25956E-003	5.69932E-004	...........
	2	0.775	2.56802E-003	1.93614E-003	5.64232E-004	...........
	3	1.03333	2.45361E-003	1.74466E-003	5.63832E-004	...........
	4	1.29167	2.26017E-003	1.53558E-003	5.68566E-004	...........
	5	1.55	2.02596E-003	1.45060E-003	5.67999E-004	...........
	6	1.80833	1.79946E-003	1.29557E-003	5.63766E-004	...........
	7	2.06667	1.60500E-003	1.06424E-003	5.67599E-004	...........
	8	2.325	1.43382E-003	8.51068E-004	5.66066E-004	...........
	9	2.58333	1.26213E-003	6.76333E-004	5.67766E-004	...........
	10	2.84167	1.08164E-003	6.91932E-004	5.65499E-004	...........
	11	3.1	9.11538E-004	6.16856E-004	5.60099E-004	...........
	12	3.35833	7.75559E-004	4.57847E-004	5.62199E-004	...........
	13	3.61667	6.69896E-004	2.72631E-004	5.63966E-004	...........
	14	3.875	5.66690E-004	1.65481E-004	5.65566E-004	...........
	15	4.13333	4.47045E-004	4.78448E-005	5.63399E-004	...........
	16	4.39167	3.15023E-004	-8.74174E-005	5.64666E-004	...........
	17	4.65	1.82767E-004	-1.65371E-004	5.65832E-004	...........
	18	4.90833	5.76737E-005	-2.81008E-004	5.65299E-004	...........
EOC	QUANT	5.767372E-005	Open Circuit (V)
PSTATMODEL	IQUANT	4	Pstat Model
PSTATSECTION	LABEL	REF600-11020	Pstat Section
PSTATSERIALNO	LABEL	11020	Pstat Serial Number
CTRLMODE	IQUANT	1	Control Mode
IESTAB	IQUANT	0	I/E Stability
CASPEED	IQUANT	1	Control Amp Speed
CONVENTION	IQUANT	1	Current Convention
ICHRANGE	IQUANT	2	Ich Range
ICHRANGEMODE	TOGGLE	F	Ich Auto Range
ICHOFFSETENABLE	TOGGLE	T	Ich Offset Enable
ICHOFFSET	QUANT	0	Ich Offset (V)
ICHFILTER	IQUANT	3	Ich Filter
VCHRANGE	IQUANT	2	Vch Range
VCHRANGEMODE	TOGGLE	F	Vch Auto Range
VCHOFFSETENABLE	TOGGLE	T	Vch Offset Enable
VCHOFFSET	QUANT	0	Vch Offset (V)
VCHFILTER	IQUANT	3	Vch Filter
ACHRANGE	IQUANT	2	Ach Range
ACHOFFSETENABLE	TOGGLE	F	Ach Offset Enable
ACHOFFSET	QUANT	0	Ach Offset (V)
ACHFILTER	IQUANT	3	Ach Filter
IERANGELOWERLIMIT	IQUANT	1	I/E Range Lower Limit
IERANGEMODE	TOGGLE	F	I/E AutoRange
IERANGE	IQUANT	1	I/E Range
POSFEEDENABLE	TOGGLE	F	Positive Feedback IR Comp
POSFEEDRESISTANCE	QUANT	0	Positive Feedback Resistance (ohm)
ACHSELECT	IQUANT	0	Ach Select
CABLEID	IQUANT	14	Cable ID
DCCALDATE	LABEL	8/19/2019	DC Calibration Date
ACCALDATE	LABEL	8/19/2019	AC Calibration Date
THERMOSELECT	IQUANT	1	Thermo Select
FRAMEWORKVERSION	QUANT	6.33	Framework Version
INSTRUMENTVERSION	LABEL	3.50	Instrument Version
ZCURVE	TABLE
	Pt	Time	Freq	Zreal	Zimag	Zsig	Zmod	Zphz	Idc	Vdc	IERange
	#	s	Hz	ohm	ohm	V	ohm	°	A	V	#
	0	2	1000078	2342.259	-1841.157	1	2979.268	-38.16949	2.802636E-006	0.0024117	8
	1	4	794390.6	2717.729	-1771.786	1	3244.268	-33.10178	8.938478E-008	0.0017894	8
	2	5	630984.4	3061.028	-1648.073	1	3476.498	-28.29824	4.448944E-008	0.0017316	8
	3	6	501234.4	3343.203	-1488.649	1	3659.656	-24.00228	-3.392506E-006	0.0024843	8
	4	8	398109.4	3565.103	-1287.404	1	3790.431	-19.85529	5.035522E-006	0.0008252	8
	5	9	316265.6	3743.059	-1146.657	1	3914.756	-17.03204	5.067012E-007	0.0014824	8
	6	10	251203.1	3880.858	-969.547	1	4000.135	-14.02697	3.474033E-006	0.0010208	8
	7	12	199546.9	3975.527	-844.4456	1	4064.222	-11.99202	-4.847236E-008	0.0015471	8
	8	13	158578.1	4036.183	-711.3644	1	4098.391	-9.99555	-1.000293E-006	0.001851	8
	9	14	125953.1	4128.743	-594.3707	1	4171.306	-8.191977	-6.017633E-007	0.0023118	7
	10	16	100078.1	4165.405	-522.6948	1	4198.072	-7.152361	2.146372E-009	0.0017133	7
	11	17	79453.13	4202.78	-487.3753	1	4230.945	-6.614759	1.187263E-007	0.0014456	7
	12	18	63140.62	4240.654	-460.8887	1	4265.626	-6.202754	-3.399604E-008	0.0016126	7
	13	20	50203.12	4278.061	-447.2007	1	4301.371	-5.967655	-4.667431E-008	0.0016399	7
	14	21	39890.62	4307.829	-446.1355	1	4330.869	-5.912694	1.379071E-009	0.0015412	7
	15	22	31640.63	4350.911	-460.2738	1	4375.189	-6.038741	1.879867E-008	0.001519	7
	16	24	25171.88	4390.001	-482.1666	1	4416.401	-6.267838	-3.926393E-008	0.0016577	7
	17	25	20015.62	4432.97	-517.8918	1	4463.12	-6.663503	-4.329112E-008	0.0017514	7
	18	26	15890.62	4474.914	-564.6358	1	4510.395	-7.191465	-4.461469E-008	0.0017483	7
	19	28	12609.37	4528.361	-623.7436	1	4571.117	-7.842661	-1.116637E-008	0.0016532	7
	20	29	10078.13	4582.773	-695.9287	1	4635.313	-8.634826	7.934283E-008	0.0015661	7
	21	30	8015.625	4640.773	-786.3555	1	4706.924	-9.61713	1.981752E-008	0.0015187	7
	22	32	6328.125	4709.119	-900.6081	1	4794.465	-10.82695	2.110367E-008	0.0015226	7
	23	33	5015.625	4781.852	-1038.334	1	4893.286	-12.25106	-4.025626E-008	0.0016291	7
	24	34	3984.375	4859.605	-1203.855	1	5006.499	-13.9136	-1.001621E-008	0.0016491	7
	25	36	3170.956	4947.91	-1402.765	1	5142.914	-15.82838	-1.208056E-008	0.0017226	7
	26	37	2527.573	5044.819	-1640.929	1	5304.983	-18.01816	-1.397613E-008	0.0016461	7
	27	38	1976.103	5161.75	-1956.693	1	5520.173	-20.76049	8.698137E-008	0.0014268	7
	28	40	1577.524	5283.223	-2313.722	1	5767.647	-23.65042	-9.264567E-009	0.0016304	7
	29	41	1265.625	5409.567	-2722.347	1	6055.955	-26.71368	-4.165178E-008	0.0016301	7
	30	42	998.264	5573.292	-3279.542	1	6466.605	-30.47421	-3.732601E-008	0.0016487	7
	31	44	796.875	5750.386	-3921.684	1	6960.355	-34.29345	8.0049E-008	0.001558	7
	32	45	627.7902	5968.72	-4746.529	1	7625.953	-38.49292	-2.348785E-008	0.0015907	7
	33	46	505.5147	6196.564	-5668.364	1	8398.081	-42.451	1.329131E-007	0.0014037	7
	34	48	397.9953	6483.942	-6904.136	1	9471.462	-46.79768	6.47711E-009	0.0016205	7
	35	49	315.5048	6817.063	-8383.588	1	10805.41	-50.88393	1.244132E-009	0.0015535	6
	36	50	252.4038	7190.421	-10125.39	1	12418.77	-54.62002	3.479853E-010	0.0015547	6
	37	52	198.6229	7665.138	-12429.58	1	14603.04	-58.33847	1.435663E-009	0.0015541	6
	38	53	158.3615	8208.24	-15116.59	1	17201.35	-61.49824	2.963639E-010	0.0015557	6
	39	55	125.558	8883.28	-18507.04	1	20528.6	-64.35925	1.299241E-009	0.001559	6
	40	56	100.4464	9672.45	-22520.66	1	24509.92	-66.75686	5.651291E-010	0.0015501	6
	41	57	79.00281	10855.22	-27833	1	29874.94	-68.69359	6.850605E-010	0.0015542	6
	42	59	63.3446	12350.89	-33557.41	1	35758.14	-69.79373	1.338688E-009	0.0015505	6
	43	60	49.86702	13817.23	-42031.09	1	44243.96	-71.80233	1.666697E-009	0.0015523	6
	44	61	39.72458	16256.89	-50937.7	1	53469.01	-72.29939	1.134598E-009	0.0015502	6
	45	63	31.6723	19304.6	-62205.94	1	65132.53	-72.75912	1.451157E-009	0.001549	6
	46	64	24.93351	23421.82	-76502.77	1	80007.85	-72.97769	5.759747E-010	0.0015478	6
	47	66	19.86229	28617.1	-92963.14	1	97268.1	-72.88992	1.71465E-009	0.0015566	6
	48	67	15.83615	35479.59	-112011.2	1	117496	-72.42439	1.092521E-009	0.0015542	5
	49	68	12.40079	45817.59	-137553.7	1	144983.7	-71.57766	6.05142E-011	0.0015611	5
	50	70	9.93114	57474.73	-164328.5	1	174089.7	-70.72246	8.237312E-010	0.0015555	5
	51	71	7.944915	72602.05	-194832	1	207919.7	-69.56264	-2.745356E-010	0.0015545	5
	52	73	6.317385	91599.38	-233047.5	1	250402.8	-68.54268	7.827126E-010	0.0015364	5
	53	75	5.008013	116983.5	-276795.4	1	300501	-67.08937	1.963871E-010	0.0015489	5
	54	77	3.945707	149048.9	-327017.9	1	359383.2	-65.49735	5.953971E-010	0.0015623	5
	55	80	3.158693	186430	-380854.3	1	424035.6	-63.91803	6.554111E-011	0.0015515	5
	56	83	2.504006	234110.5	-441246.1	1	499505.6	-62.05107	6.286099E-010	0.0015489	5
	57	86	1.998082	287636.3	-506026.9	1	582063.4	-60.38519	8.214455E-012	0.0015749	5
	58	89	1.584686	354205.8	-577773.5	1	677704.9	-58.48949	3.906249E-010	0.0016029	5
	59	93	1.266892	425999.8	-650897.6	1	777909.7	-56.79604	5.34907E-011	0.0015918	5
	60	97	0.999041	510106.4	-735133.7	1	894779.4	-55.24337	4.735116E-010	0.0015462	5
