EXPLAIN
TAG	EISPOT
TITLE	LABEL	Potentiostatic EIS	Test &Identifier
DATE	LABEL	9/26/2019	Date
TIME	LABEL	8:51:49	Time
NOTES	NOTES	2	&Notes...
	
	
PSTAT	PSTAT	REF600-11020	Potentiostat
VDC	POTEN	0.00000E+000	T	DC &Voltage (V)
FREQINIT	QUANT	1.00000E+006	Initial Fre&q. (Hz)
FREQFINAL	QUANT	1.00000E+000	Final Fre&q. (Hz)
PTSPERDEC	QUANT	1.00000E+001	Points/&decade
VAC	QUANT	2.50000E+001	AC &Voltage (mV rms)
AREA	QUANT	1.00000E-002	&Area (cm^2)
CONDIT	TWOPARAM	T	5.00000E+000	0.00000E+000	Conditionin&g	Time(s)	E(V)
DELAY	TWOPARAM	T	5.00000E+000	0.00000E+000	Init. De&lay	Time(s)	Stab.(mV/s)
SPEED	SELECTOR	1	&Optimize for:
ZGUESS	QUANT	1.00000E+004	E&stimated Z (ohms)
OCVCURVE	TABLE	19
	Pt	T	Vf	Vm	Ach	Over
	#	s	V vs. Ref.	V	V	bits
	0	0.258333	2.72990E-002	2.72990E-002	5.65899E-004	...........
	1	0.516667	2.73275E-002	2.87912E-002	5.63032E-004	...........
	2	0.775	2.75025E-002	3.01995E-002	5.58232E-004	...........
	3	1.03333	2.79960E-002	3.15053E-002	5.58166E-004	...........
	4	1.29167	2.88745E-002	3.27519E-002	5.62832E-004	...........
	5	1.55	3.00354E-002	3.40386E-002	5.58399E-004	...........
	6	1.80833	3.13177E-002	3.50991E-002	5.57499E-004	...........
	7	2.06667	3.26015E-002	3.61291E-002	5.65532E-004	...........
	8	2.325	3.38206E-002	3.70277E-002	5.66132E-004	...........
	9	2.58333	3.49474E-002	3.79604E-002	5.62532E-004	...........
	10	2.84167	3.59829E-002	3.87777E-002	5.58232E-004	...........
	11	3.1	3.69431E-002	3.96274E-002	5.60766E-004	...........
	12	3.35833	3.78457E-002	4.03681E-002	5.62132E-004	...........
	13	3.61667	3.87016E-002	4.10966E-002	5.63399E-004	...........
	14	3.875	3.95145E-002	4.18081E-002	5.65899E-004	...........
	15	4.13333	4.02866E-002	4.24487E-002	5.66632E-004	...........
	16	4.39167	4.10201E-002	4.30755E-002	5.67566E-004	...........
	17	4.65	4.17173E-002	4.36975E-002	5.60566E-004	...........
	18	4.90833	4.23814E-002	4.42878E-002	5.67932E-004	...........
EOC	QUANT	0.0423814	Open Circuit (V)
PSTATMODEL	IQUANT	4	Pstat Model
PSTATSECTION	LABEL	REF600-11020	Pstat Section
PSTATSERIALNO	LABEL	11020	Pstat Serial Number
CTRLMODE	IQUANT	1	Control Mode
IESTAB	IQUANT	0	I/E Stability
CASPEED	IQUANT	1	Control Amp Speed
CONVENTION	IQUANT	1	Current Convention
ICHRANGE	IQUANT	2	Ich Range
ICHRANGEMODE	TOGGLE	F	Ich Auto Range
ICHOFFSETENABLE	TOGGLE	T	Ich Offset Enable
ICHOFFSET	QUANT	0	Ich Offset (V)
ICHFILTER	IQUANT	3	Ich Filter
VCHRANGE	IQUANT	2	Vch Range
VCHRANGEMODE	TOGGLE	F	Vch Auto Range
VCHOFFSETENABLE	TOGGLE	T	Vch Offset Enable
VCHOFFSET	QUANT	0	Vch Offset (V)
VCHFILTER	IQUANT	3	Vch Filter
ACHRANGE	IQUANT	2	Ach Range
ACHOFFSETENABLE	TOGGLE	F	Ach Offset Enable
ACHOFFSET	QUANT	0	Ach Offset (V)
ACHFILTER	IQUANT	3	Ach Filter
IERANGELOWERLIMIT	IQUANT	1	I/E Range Lower Limit
IERANGEMODE	TOGGLE	F	I/E AutoRange
IERANGE	IQUANT	6	I/E Range
POSFEEDENABLE	TOGGLE	F	Positive Feedback IR Comp
POSFEEDRESISTANCE	QUANT	0	Positive Feedback Resistance (ohm)
ACHSELECT	IQUANT	0	Ach Select
CABLEID	IQUANT	14	Cable ID
DCCALDATE	LABEL	8/19/2019	DC Calibration Date
ACCALDATE	LABEL	8/19/2019	AC Calibration Date
THERMOSELECT	IQUANT	1	Thermo Select
FRAMEWORKVERSION	QUANT	6.33	Framework Version
INSTRUMENTVERSION	LABEL	3.50	Instrument Version
ZCURVE	TABLE
	Pt	Time	Freq	Zreal	Zimag	Zsig	Zmod	Zphz	Idc	Vdc	IERange
	#	s	Hz	ohm	ohm	V	ohm	°	A	V	#
	0	2	1000078	2453.139	-1594.979	1	2926.063	-33.03107	3.307564E-006	0.0443711	8
	1	3	794390.6	2749.674	-1514.473	1	3139.162	-28.84521	-1.662312E-006	0.0446668	8
	2	5	630984.4	3012.507	-1400.452	1	3322.117	-24.93274	2.907071E-006	0.0437373	8
	3	6	501234.4	3247.374	-1247.251	1	3478.659	-21.01077	-5.836674E-007	0.0442756	8
	4	8	398109.4	3429.323	-1113.826	1	3605.671	-17.99352	-2.838318E-006	0.0445267	8
	5	9	316265.6	3563.079	-982.322	1	3696.009	-15.41325	-2.722362E-006	0.0444994	8
	6	11	251203.1	3676.595	-845.5294	1	3772.568	-12.95147	1.538332E-006	0.0435998	8
	7	12	199546.9	3760.313	-744.1541	1	3833.238	-11.19402	2.026935E-006	0.0436306	8
	8	14	158578.1	3836.568	-676.9426	1	3895.832	-10.00655	-2.162651E-006	0.0444815	8
	9	15	125953.1	3913.46	-530.0094	1	3949.188	-7.712779	-1.014841E-006	0.0464235	7
	10	16	100078.1	3965.688	-490.5268	1	3995.911	-7.051255	8.034452E-008	0.043857	7
	11	18	79453.13	4006.849	-458.5622	1	4033.003	-6.528787	-1.572481E-008	0.0441662	7
	12	19	63140.62	4047.935	-442.5839	1	4072.058	-6.23969	8.45347E-009	0.0439511	7
	13	21	50203.12	4085.814	-433.9444	1	4108.793	-6.062519	-6.303198E-009	0.0440328	7
	14	22	39890.62	4125.278	-436.4778	1	4148.305	-6.039748	-1.664836E-008	0.0441537	7
	15	23	31640.63	4166.023	-449.4886	1	4190.202	-6.158045	4.475687E-008	0.0438639	7
	16	25	25171.88	4206.19	-471.468	1	4232.531	-6.395536	-8.120658E-009	0.0440608	7
	17	26	20015.62	4254.429	-504.9821	1	4284.294	-6.769088	4.559604E-008	0.0438683	7
	18	27	15890.62	4301.122	-549.0662	1	4336.026	-7.274832	-4.118298E-008	0.0440323	7
	19	29	12609.37	4356.125	-603.3416	1	4397.708	-7.885539	4.371611E-008	0.0438697	7
	20	30	10078.13	4409.675	-668.1783	1	4460.011	-8.616229	1.378149E-007	0.0438085	7
	21	31	8015.625	4469.762	-752.8448	1	4532.72	-9.56063	-4.830895E-008	0.044108	7
	22	33	6328.125	4536.92	-854.3431	1	4616.66	-10.66443	-4.603518E-008	0.0440589	7
	23	34	5015.625	4605.544	-980.116	1	4708.679	-12.01401	-4.178149E-008	0.044032	7
	24	36	3984.375	4679.997	-1130.414	1	4814.583	-13.57923	4.532725E-008	0.0438622	7
	25	37	3170.956	4758.92	-1314.116	1	4937.025	-15.43682	1.079755E-008	0.043944	7
	26	38	2527.573	4847.598	-1536.294	1	5085.214	-17.58438	4.632896E-008	0.0438642	7
	27	40	1976.103	4954.113	-1830.782	1	5281.571	-20.28169	8.487327E-008	0.0438403	7
	28	41	1577.524	5060.202	-2160.806	1	5502.248	-23.12344	-3.303496E-008	0.044022	7
	29	42	1265.625	5176.932	-2557.385	1	5774.152	-26.2892	-7.979993E-009	0.0440593	7
	30	44	998.264	5317.358	-3076.81	1	6143.375	-30.05518	4.608882E-008	0.0438567	7
	31	45	796.875	5466.032	-3685.416	1	6592.405	-33.98941	-5.493672E-008	0.0441738	7
	32	47	627.7902	5645.266	-4482.508	1	7208.46	-38.45061	-7.702369E-009	0.0440606	7
	33	48	505.5147	5835.365	-5379.737	1	7936.817	-42.67356	8.438086E-008	0.0439598	7
	34	49	397.9953	6082.422	-6596.878	1	8972.996	-47.32347	3.512298E-009	0.0440304	7
	35	51	315.5048	6384.274	-8064.167	1	10285.41	-51.63189	6.113867E-010	0.0439669	6
	36	52	252.4038	6739.698	-9799.3	1	11893.27	-55.48085	4.741618E-010	0.0439636	6
	37	53	198.6229	7226.533	-12097.53	1	14091.6	-59.14777	-3.981703E-010	0.0439665	6
	38	55	158.3615	7813.4	-14770.92	1	16710.16	-62.12243	1.03705E-010	0.0439673	6
	39	56	125.558	8599.694	-18123.21	1	20060.05	-64.61507	-3.250951E-010	0.0439625	6
	40	57	100.4464	9572.78	-22054.79	1	24042.71	-66.53698	-1.465042E-009	0.0439632	6
	41	59	79.00281	11019.8	-27128.82	1	29281.54	-67.89288	-1.420155E-009	0.043962	6
	42	60	63.3446	13084.22	-32876.31	1	35384.3	-68.29828	3.508185E-011	0.0439568	6
	43	62	49.86702	15035.09	-40667.26	1	43357.59	-69.71014	-8.547869E-011	0.0439584	6
	44	63	39.72458	18181.69	-48932.74	1	52201.4	-69.61671	-6.959106E-010	0.0439587	6
	45	64	31.6723	22165.7	-58978.66	1	63006.35	-69.40249	-2.894279E-011	0.0439574	6
	46	66	24.93351	27939.37	-71405.41	1	76676.86	-68.63069	-9.624719E-010	0.043951	6
	47	67	19.86229	35049.2	-85302.37	1	92222.23	-67.66313	-5.27608E-011	0.0439602	6
	48	68	15.83615	43810.79	-100443.3	1	109582.1	-66.4344	-9.709901E-010	0.0439646	5
	49	70	12.40079	55904	-119617.9	1	132036.8	-64.95074	-8.455853E-010	0.0439628	5
	50	71	9.93114	70278.48	-139949.2	1	156604.1	-63.33551	2.693191E-009	0.0439597	5
	51	73	7.944915	87668.26	-161556.7	1	183810.5	-61.51367	-1.404025E-009	0.0439647	5
	52	75	6.317385	107921.7	-184620.9	1	213850.4	-59.69122	-1.394623E-009	0.0439627	5
	53	77	5.008013	132193.9	-210584.8	1	248638.7	-57.8816	-1.266665E-009	0.0439601	5
	54	79	3.945707	160390.6	-238226.6	1	287188.2	-56.04883	-4.642081E-010	0.0439735	5
	55	82	3.158693	189276.1	-265795.3	1	326301.3	-54.54487	-1.119872E-009	0.0439658	5
	56	85	2.504006	220844	-297812.6	1	370761.9	-53.44109	-8.844656E-010	0.0439548	5
	57	88	1.998082	254362.3	-332279.5	1	418461.3	-52.56569	-7.354454E-010	0.0439973	5
	58	91	1.584686	290346.2	-372354.4	1	472174.5	-52.05441	-7.172627E-010	0.0440163	5
	59	94	1.266892	326415	-419028.3	1	531160.5	-52.0821	-9.055365E-010	0.043985	5
	60	99	0.999041	368894.1	-479340.4	1	604855.4	-52.41859	-4.655733E-010	0.0439728	5
