EXPLAIN
TAG	EISPOT
TITLE	LABEL	Potentiostatic EIS	Test &Identifier
DATE	LABEL	10/8/2019	Date
TIME	LABEL	9:39:20	Time
NOTES	NOTES	2	&Notes...
	
	
PSTAT	PSTAT	REF600-11020	Potentiostat
VDC	POTEN	0.00000E+000	T	DC &Voltage (V)
FREQINIT	QUANT	1.00000E+006	Initial Fre&q. (Hz)
FREQFINAL	QUANT	1.00000E+000	Final Fre&q. (Hz)
PTSPERDEC	QUANT	1.00000E+001	Points/&decade
VAC	QUANT	2.50000E+001	AC &Voltage (mV rms)
AREA	QUANT	1.00000E-002	&Area (cm^2)
CONDIT	TWOPARAM	T	5.00000E+000	0.00000E+000	Conditionin&g	Time(s)	E(V)
DELAY	TWOPARAM	T	5.00000E+000	0.00000E+000	Init. De&lay	Time(s)	Stab.(mV/s)
SPEED	SELECTOR	1	&Optimize for:
ZGUESS	QUANT	1.00000E+004	E&stimated Z (ohms)
OCVCURVE	TABLE	19
	Pt	T	Vf	Vm	Ach	Over
	#	s	V vs. Ref.	V	V	bits
	0	0.258333	5.52478E-003	5.52478E-003	5.54133E-004	...........
	1	0.516667	5.52289E-003	5.42580E-003	5.49199E-004	...........
	2	0.775	5.51206E-003	5.37293E-003	5.55233E-004	...........
	3	1.03333	5.48390E-003	5.31568E-003	5.55433E-004	...........
	4	1.29167	5.44189E-003	5.46345E-003	5.51399E-004	...........
	5	1.55	5.40647E-003	5.43016E-003	5.52999E-004	...........
	6	1.80833	5.39538E-003	5.40027E-003	5.53733E-004	...........
	7	2.06667	5.40197E-003	5.36898E-003	5.49533E-004	...........
	8	2.325	5.40578E-003	5.34838E-003	5.43166E-004	...........
	9	2.58333	5.39393E-003	5.20102E-003	5.44399E-004	...........
	10	2.84167	5.36266E-003	5.22769E-003	5.57199E-004	...........
	11	3.1	5.31893E-003	5.34925E-003	5.51466E-004	...........
	12	3.35833	5.28629E-003	5.37815E-003	5.49733E-004	...........
	13	3.61667	5.28514E-003	5.33212E-003	5.49133E-004	...........
	14	3.875	5.30841E-003	5.37306E-003	5.55299E-004	...........
	15	4.13333	5.33750E-003	5.53222E-003	5.53099E-004	...........
	16	4.39167	5.36457E-003	5.17543E-003	5.57799E-004	...........
	17	4.65	5.37804E-003	5.32235E-003	5.51366E-004	...........
	18	4.90833	5.36944E-003	5.58986E-003	5.55433E-004	...........
EOC	QUANT	0.0053694	Open Circuit (V)
PSTATMODEL	IQUANT	4	Pstat Model
PSTATSECTION	LABEL	REF600-11020	Pstat Section
PSTATSERIALNO	LABEL	11020	Pstat Serial Number
CTRLMODE	IQUANT	1	Control Mode
IESTAB	IQUANT	0	I/E Stability
CASPEED	IQUANT	1	Control Amp Speed
CONVENTION	IQUANT	1	Current Convention
ICHRANGE	IQUANT	2	Ich Range
ICHRANGEMODE	TOGGLE	F	Ich Auto Range
ICHOFFSETENABLE	TOGGLE	T	Ich Offset Enable
ICHOFFSET	QUANT	0	Ich Offset (V)
ICHFILTER	IQUANT	3	Ich Filter
VCHRANGE	IQUANT	2	Vch Range
VCHRANGEMODE	TOGGLE	F	Vch Auto Range
VCHOFFSETENABLE	TOGGLE	T	Vch Offset Enable
VCHOFFSET	QUANT	0	Vch Offset (V)
VCHFILTER	IQUANT	3	Vch Filter
ACHRANGE	IQUANT	2	Ach Range
ACHOFFSETENABLE	TOGGLE	F	Ach Offset Enable
ACHOFFSET	QUANT	0	Ach Offset (V)
ACHFILTER	IQUANT	3	Ach Filter
IERANGELOWERLIMIT	IQUANT	1	I/E Range Lower Limit
IERANGEMODE	TOGGLE	F	I/E AutoRange
IERANGE	IQUANT	6	I/E Range
POSFEEDENABLE	TOGGLE	F	Positive Feedback IR Comp
POSFEEDRESISTANCE	QUANT	0	Positive Feedback Resistance (ohm)
ACHSELECT	IQUANT	0	Ach Select
CABLEID	IQUANT	14	Cable ID
DCCALDATE	LABEL	8/19/2019	DC Calibration Date
ACCALDATE	LABEL	8/19/2019	AC Calibration Date
THERMOSELECT	IQUANT	1	Thermo Select
FRAMEWORKVERSION	QUANT	6.33	Framework Version
INSTRUMENTVERSION	LABEL	3.50	Instrument Version
ZCURVE	TABLE
	Pt	Time	Freq	Zreal	Zimag	Zsig	Zmod	Zphz	Idc	Vdc	IERange
	#	s	Hz	ohm	ohm	V	ohm	°	A	V	#
	0	2	1000078	2688.993	-1789.945	1	3230.261	-33.64997	4.018545E-006	0.0065981	8
	1	3	794390.6	3012.887	-1686.894	1	3452.984	-29.24415	-1.475811E-006	0.0073554	8
	2	4	630984.4	3315.396	-1538.606	1	3655.018	-24.89503	5.203159E-006	0.0061574	8
	3	6	501234.4	3569.344	-1380.764	1	3827.104	-21.14844	-8.529249E-007	0.007079	8
	4	7	398109.4	3784.787	-1199.198	1	3970.225	-17.58064	4.955458E-006	0.0060622	8
	5	9	316265.6	3917.346	-1036.303	1	4052.101	-14.81772	9.991859E-007	0.0067768	8
	6	10	251203.1	4010.737	-898.8481	1	4110.224	-12.63186	-4.77271E-006	0.007957	8
	7	12	199546.9	4103.1	-773.8029	1	4175.428	-10.67997	-1.006858E-006	0.0070963	8
	8	13	158578.1	4173.469	-693.8647	1	4230.755	-9.439433	-3.633041E-008	0.0069409	8
	9	14	125953.1	4235.311	-565.0861	1	4272.842	-7.599668	-4.779909E-007	0.0075072	7
	10	16	100078.1	4273.5	-516.0809	1	4304.549	-6.885868	-8.957397E-008	0.0069585	7
	11	17	79453.13	4312.299	-489.4967	1	4339.992	-6.476026	9.523092E-008	0.0067464	7
	12	19	63140.62	4352.517	-477.4391	1	4378.624	-6.259898	-6.409506E-009	0.0068569	7
	13	20	50203.12	4392.947	-475.4615	1	4418.602	-6.177244	9.647486E-008	0.0067507	7
	14	21	39890.62	4435.272	-486.1492	1	4461.836	-6.255207	-1.030689E-008	0.0067583	7
	15	23	31640.63	4479.949	-508.4349	1	4508.708	-6.474864	-1.9816E-008	0.0068573	7
	16	24	25171.88	4526.546	-542.6837	1	4558.961	-6.836511	4.95872E-008	0.0066484	7
	17	25	20015.62	4582.441	-582.7258	1	4619.344	-7.247117	9.180548E-008	0.0066132	7
	18	27	15890.62	4637.687	-644.1113	1	4682.202	-7.90702	-2.233196E-008	0.0068655	7
	19	28	12609.37	4696.333	-714.4237	1	4750.362	-8.649733	-2.125682E-008	0.0068597	7
	20	29	10078.13	4764.266	-796.5967	1	4830.403	-9.492187	8.247218E-009	0.0067259	7
	21	31	8015.625	4833.5	-903.3357	1	4917.188	-10.58592	-5.232667E-008	0.0068357	7
	22	32	6328.125	4920.039	-1024.71	1	5025.616	-11.76497	9.719058E-008	0.006734	7
	23	33	5015.625	5008.93	-1174.934	1	5144.886	-13.20109	-2.569879E-009	0.0068055	7
	24	35	3984.375	5111.913	-1350.961	1	5287.415	-14.80352	-3.96171E-008	0.006833	7
	25	36	3170.956	5208.026	-1568.482	1	5439.087	-16.76053	4.452874E-008	0.0067481	7
	26	37	2527.573	5317.272	-1825.559	1	5621.926	-18.94869	-6.010742E-008	0.0069874	7
	27	39	1976.103	5456.378	-2167.247	1	5871.033	-21.66274	-3.090344E-008	0.0068018	7
	28	40	1577.524	5598.961	-2541.353	1	6148.727	-24.41317	-1.431058E-008	0.0069432	7
	29	41	1265.625	5747.514	-3004.707	1	6485.537	-27.59984	-2.186317E-008	0.0068528	7
	30	43	998.264	5931.945	-3598.257	1	6937.97	-31.24057	-3.139814E-008	0.0067977	7
	31	44	796.875	6136.037	-4284.922	1	7484.084	-34.9274	9.730048E-009	0.0067244	7
	32	45	627.7902	6377.936	-5176.68	1	8214.382	-39.06466	9.271584E-008	0.0066088	7
	33	47	505.5147	6622.334	-6149.275	1	9037.084	-42.87874	-5.353359E-008	0.0068302	7
	34	48	397.9953	6957.783	-7495.844	1	10227.34	-47.13195	7.713374E-010	0.0067473	6
	35	49	315.5048	7324.032	-9091.912	1	11674.94	-51.14666	1.077408E-009	0.0067479	6
	36	51	252.4038	7736.322	-10971.81	1	13425.03	-54.81199	1.218046E-009	0.0067457	6
	37	52	198.6229	8265.323	-13461.76	1	15796.67	-58.4507	7.877242E-010	0.0067487	6
	38	53	158.3615	8876.228	-16366.57	1	18618.6	-61.5273	7.533376E-010	0.0067447	6
	39	55	125.558	9659.65	-20036.82	1	22243.72	-64.26153	8.106257E-010	0.0067466	6
	40	56	100.4464	10598.08	-24376.42	1	26580.62	-66.50217	1.152911E-009	0.0067378	6
	41	57	79.00281	11872.56	-30053.19	1	32313.34	-68.44342	1.075213E-009	0.0067431	6
	42	59	63.3446	13712.59	-36349.75	1	38850.22	-69.3315	4.0513E-010	0.0067436	6
	43	60	49.86702	15563.89	-45130.68	1	47739.01	-70.9726	8.638578E-010	0.0067394	6
	44	61	39.72458	18487.54	-54697.98	1	57737.84	-71.3251	1.109206E-009	0.006747	6
	45	63	31.6723	22203.88	-66635.71	1	70237.67	-71.57126	1.366324E-009	0.006745	6
	46	64	24.93351	27188.92	-81360.38	1	85783.15	-71.52146	5.999775E-010	0.0067411	6
	47	65	19.86229	33645.77	-98282.8	1	103882.3	-71.10206	8.083258E-010	0.0067374	6
	48	67	15.83615	42160.02	-118888.4	1	126142.5	-70.47456	-1.005644E-009	0.0067476	5
	49	68	12.40079	52287.77	-143263.2	1	152506.9	-69.94907	-9.415357E-011	0.0067467	5
	50	70	9.93114	66716.55	-170293.3	1	182895.9	-68.60603	7.006802E-010	0.0067441	5
	51	71	7.944915	83765.34	-201574.4	1	218286.3	-67.43441	1.676589E-010	0.006754	5
	52	73	6.317385	105893.9	-237418.6	1	259963.6	-65.96208	1.606482E-010	0.0067662	5
	53	75	5.008013	133725.6	-278391.3	1	308843.4	-64.34265	4.074421E-010	0.0067571	5
	54	77	3.945707	168638.9	-325860.8	1	366911.8	-62.63761	-1.353486E-010	0.0067411	5
	55	80	3.158693	207816.1	-373761.6	1	427650.9	-60.9254	3.926345E-010	0.0067612	5
	56	83	2.504006	256271.3	-428921.9	1	499648.8	-59.14262	-2.125126E-010	0.0067448	5
	57	86	1.998082	309899.6	-483800.2	1	574543.6	-57.35829	7.33027E-011	0.0067044	5
	58	89	1.584686	370121.2	-545803.1	1	659462.4	-55.85793	-5.558631E-011	0.0067726	5
	59	93	1.266892	436471	-612579.9	1	752170.9	-54.52965	-7.473951E-011	0.006711	5
	60	97	0.999041	512695.3	-688539.9	1	858454.3	-53.32818	2.178287E-010	0.0067863	5
