EXPLAIN
TAG	EISPOT
TITLE	LABEL	Potentiostatic IDE	Test &Identifier
DATE	LABEL	9/12/2019	Date
TIME	LABEL	10:02:21	Time
NOTES	NOTES	1	&Notes...
	
PSTAT	PSTAT	REF600-11020	Potentiostat
VDC	POTEN	0.00000E+000	T	DC &Voltage (V)
FREQINIT	QUANT	1.00000E+006	Initial Fre&q. (Hz)
FREQFINAL	QUANT	1.00000E+000	Final Fre&q. (Hz)
PTSPERDEC	QUANT	1.00000E+001	Points/&decade
VAC	QUANT	2.50000E+001	AC &Voltage (mV rms)
AREA	QUANT	1.00000E-002	&Area (cm^2)
CONDIT	TWOPARAM	T	5.00000E+000	0.00000E+000	Conditionin&g	Time(s)	E(V)
DELAY	TWOPARAM	T	5.00000E+000	0.00000E+000	Init. De&lay	Time(s)	Stab.(mV/s)
SPEED	SELECTOR	1	&Optimize for:
ZGUESS	QUANT	1.00000E+007	E&stimated Z (ohms)
OCVCURVE	TABLE	19
	Pt	T	Vf	Vm	Ach	Over
	#	s	V vs. Ref.	V	V	bits
	0	0.258333	7.69708E-003	7.69708E-003	6.40165E-004	...........
	1	0.516667	7.69642E-003	7.66224E-003	6.42331E-004	...........
	2	0.775	7.69248E-003	7.63696E-003	6.32698E-004	...........
	3	1.03333	7.68268E-003	7.65716E-003	6.42698E-004	...........
	4	1.29167	7.66989E-003	7.68128E-003	6.35531E-004	...........
	5	1.55	7.66223E-003	7.69755E-003	6.45631E-004	...........
	6	1.80833	7.66556E-003	7.73349E-003	6.44065E-004	...........
	7	2.06667	7.68017E-003	7.77752E-003	6.31065E-004	...........
	8	2.325	7.70426E-003	7.81630E-003	6.33965E-004	...........
	9	2.58333	7.73590E-003	7.84906E-003	6.36765E-004	...........
	10	2.84167	7.77181E-003	7.87060E-003	6.35198E-004	...........
	11	3.1	7.80796E-003	7.91479E-003	6.34531E-004	...........
	12	3.35833	7.84290E-003	7.97378E-003	6.32365E-004	...........
	13	3.61667	7.87937E-003	8.02098E-003	6.36731E-004	...........
	14	3.875	7.92026E-003	8.04547E-003	6.34698E-004	...........
	15	4.13333	7.96368E-003	8.06890E-003	6.35831E-004	...........
	16	4.39167	8.00432E-003	8.09833E-003	6.32431E-004	...........
	17	4.65	8.03924E-003	8.13330E-003	6.32031E-004	...........
	18	4.90833	8.07006E-003	8.16644E-003	6.36931E-004	...........
EOC	QUANT	0.0080701	Open Circuit (V)
PSTATMODEL	IQUANT	4	Pstat Model
PSTATSECTION	LABEL	REF600-11020	Pstat Section
PSTATSERIALNO	LABEL	11020	Pstat Serial Number
CTRLMODE	IQUANT	1	Control Mode
IESTAB	IQUANT	0	I/E Stability
CASPEED	IQUANT	1	Control Amp Speed
CONVENTION	IQUANT	1	Current Convention
ICHRANGE	IQUANT	2	Ich Range
ICHRANGEMODE	TOGGLE	F	Ich Auto Range
ICHOFFSETENABLE	TOGGLE	T	Ich Offset Enable
ICHOFFSET	QUANT	0	Ich Offset (V)
ICHFILTER	IQUANT	3	Ich Filter
VCHRANGE	IQUANT	2	Vch Range
VCHRANGEMODE	TOGGLE	F	Vch Auto Range
VCHOFFSETENABLE	TOGGLE	T	Vch Offset Enable
VCHOFFSET	QUANT	0	Vch Offset (V)
VCHFILTER	IQUANT	3	Vch Filter
ACHRANGE	IQUANT	2	Ach Range
ACHOFFSETENABLE	TOGGLE	F	Ach Offset Enable
ACHOFFSET	QUANT	0	Ach Offset (V)
ACHFILTER	IQUANT	3	Ach Filter
IERANGELOWERLIMIT	IQUANT	1	I/E Range Lower Limit
IERANGEMODE	TOGGLE	F	I/E AutoRange
IERANGE	IQUANT	3	I/E Range
POSFEEDENABLE	TOGGLE	F	Positive Feedback IR Comp
POSFEEDRESISTANCE	QUANT	0	Positive Feedback Resistance (ohm)
ACHSELECT	IQUANT	0	Ach Select
CABLEID	IQUANT	14	Cable ID
DCCALDATE	LABEL	8/19/2019	DC Calibration Date
ACCALDATE	LABEL	8/19/2019	AC Calibration Date
THERMOSELECT	IQUANT	1	Thermo Select
FRAMEWORKVERSION	QUANT	6.33	Framework Version
INSTRUMENTVERSION	LABEL	3.50	Instrument Version
ZCURVE	TABLE
	Pt	Time	Freq	Zreal	Zimag	Zsig	Zmod	Zphz	Idc	Vdc	IERange
	#	s	Hz	ohm	ohm	V	ohm	°	A	V	#
	0	2	1000078	2619.051	-1968.879	1	3276.57	-36.93411	-4.629068E-006	0.0107271	8
	1	4	794390.6	3035.779	-1884.889	1	3573.341	-31.83579	2.327205E-007	0.0103827	8
	2	5	630984.4	3378.96	-1758.265	1	3809.051	-27.49052	-1.318763E-006	0.0101715	8
	3	6	501234.4	3679.534	-1600.609	1	4012.595	-23.5092	2.721381E-006	0.0092544	8
	4	8	398109.4	3908.463	-1406.118	1	4153.703	-19.78682	-1.536697E-006	0.010114	8
	5	9	316265.6	4121.928	-1211.451	1	4296.267	-16.37827	2.65024E-006	0.0089267	8
	6	11	251203.1	4270.665	-1045.6	1	4396.801	-13.75727	-1.161941E-006	0.0099244	8
	7	12	199546.9	4333.675	-911.1691	1	4428.428	-11.87367	-1.013828E-006	0.0099153	8
	8	14	158578.1	4437.571	-809.5377	1	4510.808	-10.33867	-2.459432E-006	0.0099253	8
	9	15	125953.1	4521.262	-638.0034	1	4566.055	-8.032078	6.39308E-007	0.0080392	7
	10	17	100078.1	4567.21	-576.4583	1	4603.446	-7.193647	9.280249E-008	0.0094005	7
	11	18	79453.13	4609.811	-530.6728	1	4640.255	-6.566876	-2.006917E-008	0.0097423	7
	12	19	63140.62	4651.716	-503.3644	1	4678.871	-6.175973	-2.326803E-008	0.0095713	7
	13	21	50203.12	4688.903	-490.2318	1	4714.461	-5.968675	4.616332E-008	0.0094367	7
	14	22	39890.62	4725.023	-486.4414	1	4749.997	-5.877896	-4.052977E-008	0.0096292	7
	15	23	31640.63	4770.823	-500.1521	1	4796.968	-5.984776	-1.885491E-008	0.0097393	7
	16	25	25171.88	4812.277	-524.8818	1	4840.817	-6.224724	-3.657297E-008	0.0095929	7
	17	26	20015.62	4858.276	-563.1447	1	4890.806	-6.611905	-4.439591E-008	0.0097216	7
	18	27	15890.62	4907.538	-615.1423	1	4945.941	-7.144558	-1.961752E-008	0.0097329	7
	19	29	12609.37	4956.465	-681.3547	1	5003.078	-7.827271	-2.175219E-008	0.009562	7
	20	30	10078.13	5011.981	-764.8339	1	5070.002	-8.676463	-1.038032E-008	0.0096305	7
	21	31	8015.625	5076.438	-866.5919	1	5149.874	-9.6875	-4.27785E-008	0.0097194	7
	22	33	6328.125	5145.439	-998.435	1	5241.414	-10.98136	8.362623E-008	0.0095404	7
	23	34	5015.625	5223.928	-1155.201	1	5350.132	-12.46952	-7.5808E-008	0.0096937	7
	24	35	3984.375	5311.13	-1344.37	1	5478.634	-14.20453	-2.927758E-009	0.009518	7
	25	37	3170.956	5403.699	-1573.149	1	5628.034	-16.23157	3.916707E-008	0.009558	7
	26	38	2527.573	5511.32	-1846.522	1	5812.425	-18.52299	4.82245E-008	0.0094335	7
	27	39	1976.103	5643.816	-2209.102	1	6060.759	-21.37636	7.971632E-008	0.0094596	7
	28	41	1577.524	5776.961	-2607.398	1	6338.124	-24.29176	-5.161831E-008	0.0096203	7
	29	42	1265.625	5925.844	-3087.169	1	6681.784	-27.51803	-4.417291E-008	0.0096116	7
	30	43	998.264	6112.424	-3713.269	1	7151.93	-31.27848	7.484829E-008	0.0094316	7
	31	45	796.875	6307.037	-4442.02	1	7714.289	-35.15688	8.606327E-008	0.009541	7
	32	46	627.7902	6547.746	-5381.633	1	8475.55	-39.417	4.035279E-008	0.0095479	7
	33	47	505.5147	6810.896	-6422.183	1	9361.235	-43.31746	4.051472E-008	0.0095473	7
	34	49	397.9953	7133.558	-7831.769	1	10593.59	-47.67121	1.102462E-009	0.0095282	6
	35	50	315.5048	7507.309	-9521.23	1	12124.91	-51.74489	9.699099E-010	0.0095293	6
	36	51	252.4038	7932.11	-11507.45	1	13976.4	-55.42143	3.659879E-010	0.0095266	6
	37	53	198.6229	8479.334	-14128.96	1	16478.06	-59.0304	1.021544E-009	0.0095267	6
	38	54	158.3615	9101.297	-17179.27	1	19441.22	-62.08609	1.517497E-009	0.0095302	6
	39	55	125.558	9878.88	-21024.49	1	23229.76	-64.83234	1.051626E-009	0.0095297	6
	40	57	100.4464	10821.47	-25591.21	1	27785.15	-67.0785	1.237509E-009	0.0095208	6
	41	58	79.00281	12001.09	-31511.47	1	33719.42	-69.15075	1.073133E-009	0.0095242	6
	42	59	63.3446	13793.95	-38668.8	1	41055.44	-70.36765	3.954401E-010	0.0095189	6
	43	61	49.86702	15361.08	-47220.14	1	49655.86	-71.9799	9.376984E-010	0.0095168	6
	44	62	39.72458	18276.23	-57864.19	1	60681.83	-72.47144	9.484417E-010	0.0095268	6
	45	63	31.6723	21448.77	-70515.52	1	73705.41	-73.08176	1.02166E-009	0.0095222	6
	46	65	24.93351	26355.65	-86724.36	1	90640.69	-73.0959	7.603727E-010	0.0095228	6
	47	66	19.86229	32264.38	-105180.1	1	110017.5	-72.94641	4.524215E-010	0.0095265	5
	48	67	15.83615	41602.37	-126904.9	1	133550	-71.84966	-1.203268E-009	0.0095339	5
	49	69	12.40079	51065.34	-154359.3	1	162586.7	-71.69469	1.726878E-009	0.0095239	5
	50	70	9.93114	64224.65	-186790.3	1	197523.2	-71.02534	3.075019E-010	0.0095283	5
	51	72	7.944915	80613.59	-223335.2	1	237438.8	-70.15279	8.116506E-010	0.0095219	5
	52	73	6.317385	103428.6	-264057.1	1	283590.6	-68.61021	3.332549E-010	0.0095211	5
	53	75	5.008013	131389.6	-313667.3	1	340074.1	-67.27206	6.695558E-011	0.0095247	5
	54	78	3.945707	167201.3	-370589.2	1	406562	-65.7162	3.382147E-010	0.0095281	5
	55	80	3.158693	207684.4	-430538.9	1	478013.2	-64.24815	3.160764E-010	0.0095532	5
	56	84	2.504006	259084.6	-501834.5	1	564767.8	-62.69382	-8.329715E-011	0.0095304	5
	57	86	1.998082	318285.3	-577080.1	1	659034.8	-61.12132	1.121198E-010	0.0094922	5
	58	89	1.584686	387232.3	-663322.2	1	768078.9	-59.72459	-7.442131E-012	0.0095228	5
	59	93	1.266892	473361.7	-749982.2	1	886873.5	-57.74136	2.915078E-010	0.0094862	5
	60	97	0.999041	571622.3	-857417.9	1	1030494	-56.30945	1.168513E-010	0.0095758	4
