EXPLAIN
TAG	EISPOT
TITLE	LABEL	Potentiostatic EIS	Test &Identifier
DATE	LABEL	11/5/2019	Date
TIME	LABEL	9:58:37	Time
NOTES	NOTES	2	&Notes...
	
	
PSTAT	PSTAT	REF600-11020	Potentiostat
VDC	POTEN	0.00000E+000	T	DC &Voltage (V)
FREQINIT	QUANT	1.00000E+006	Initial Fre&q. (Hz)
FREQFINAL	QUANT	1.00000E+000	Final Fre&q. (Hz)
PTSPERDEC	QUANT	1.00000E+001	Points/&decade
VAC	QUANT	2.50000E+001	AC &Voltage (mV rms)
AREA	QUANT	1.00000E-002	&Area (cm^2)
CONDIT	TWOPARAM	T	5.00000E+000	0.00000E+000	Conditionin&g	Time(s)	E(V)
DELAY	TWOPARAM	T	5.00000E+000	0.00000E+000	Init. De&lay	Time(s)	Stab.(mV/s)
SPEED	SELECTOR	1	&Optimize for:
ZGUESS	QUANT	1.00000E+005	E&stimated Z (ohms)
OCVCURVE	TABLE	19
	Pt	T	Vf	Vm	Ach	Over
	#	s	V vs. Ref.	V	V	bits
	0	0.258333	4.84090E-003	4.84090E-003	5.66532E-004	...........
	1	0.516667	4.83528E-003	4.54672E-003	5.63799E-004	...........
	2	0.775	4.80296E-003	4.38214E-003	5.63832E-004	...........
	3	1.03333	4.72195E-003	4.39130E-003	5.65332E-004	...........
	4	1.29167	4.60338E-003	4.31494E-003	5.63399E-004	...........
	5	1.55	4.48650E-003	4.32396E-003	5.63766E-004	...........
	6	1.80833	4.39310E-003	3.93911E-003	5.59932E-004	...........
	7	2.06667	4.29789E-003	3.57638E-003	5.62466E-004	...........
	8	2.325	4.15276E-003	3.47758E-003	5.64399E-004	...........
	9	2.58333	3.95908E-003	3.97540E-003	5.60999E-004	...........
	10	2.84167	3.80368E-003	4.18027E-003	5.60666E-004	...........
	11	3.1	3.79248E-003	4.85684E-003	5.60799E-004	...........
	12	3.35833	3.95296E-003	4.44355E-003	5.60099E-004	...........
	13	3.61667	4.19919E-003	4.42752E-003	5.64899E-004	...........
	14	3.875	4.39607E-003	4.41164E-003	5.58432E-004	...........
	15	4.13333	4.47579E-003	4.35117E-003	5.66132E-004	...........
	16	4.39167	4.46570E-003	4.29429E-003	5.63966E-004	...........
	17	4.65	4.40359E-003	3.52505E-003	5.66532E-004	...........
	18	4.90833	4.27855E-003	3.67514E-003	5.65599E-004	...........
EOC	QUANT	0.0042785	Open Circuit (V)
PSTATMODEL	IQUANT	4	Pstat Model
PSTATSECTION	LABEL	REF600-11020	Pstat Section
PSTATSERIALNO	LABEL	11020	Pstat Serial Number
CTRLMODE	IQUANT	1	Control Mode
IESTAB	IQUANT	0	I/E Stability
CASPEED	IQUANT	1	Control Amp Speed
CONVENTION	IQUANT	1	Current Convention
ICHRANGE	IQUANT	2	Ich Range
ICHRANGEMODE	TOGGLE	F	Ich Auto Range
ICHOFFSETENABLE	TOGGLE	T	Ich Offset Enable
ICHOFFSET	QUANT	0	Ich Offset (V)
ICHFILTER	IQUANT	3	Ich Filter
VCHRANGE	IQUANT	2	Vch Range
VCHRANGEMODE	TOGGLE	F	Vch Auto Range
VCHOFFSETENABLE	TOGGLE	T	Vch Offset Enable
VCHOFFSET	QUANT	0	Vch Offset (V)
VCHFILTER	IQUANT	3	Vch Filter
ACHRANGE	IQUANT	2	Ach Range
ACHOFFSETENABLE	TOGGLE	F	Ach Offset Enable
ACHOFFSET	QUANT	0	Ach Offset (V)
ACHFILTER	IQUANT	3	Ach Filter
IERANGELOWERLIMIT	IQUANT	1	I/E Range Lower Limit
IERANGEMODE	TOGGLE	F	I/E AutoRange
IERANGE	IQUANT	4	I/E Range
POSFEEDENABLE	TOGGLE	F	Positive Feedback IR Comp
POSFEEDRESISTANCE	QUANT	0	Positive Feedback Resistance (ohm)
ACHSELECT	IQUANT	0	Ach Select
CABLEID	IQUANT	14	Cable ID
DCCALDATE	LABEL	8/19/2019	DC Calibration Date
ACCALDATE	LABEL	8/19/2019	AC Calibration Date
THERMOSELECT	IQUANT	1	Thermo Select
FRAMEWORKVERSION	QUANT	6.33	Framework Version
INSTRUMENTVERSION	LABEL	3.50	Instrument Version
ZCURVE	TABLE
	Pt	Time	Freq	Zreal	Zimag	Zsig	Zmod	Zphz	Idc	Vdc	IERange
	#	s	Hz	ohm	ohm	V	ohm	°	A	V	#
	0	2	1000078	2413.145	-1863.335	1	3048.817	-37.67389	9.644767E-006	0.0045788	8
	1	3	794390.6	2806.732	-1829.077	1	3350.115	-33.09127	5.042356E-006	0.0045416	8
	2	5	630984.4	3168.202	-1700.512	1	3595.726	-28.22439	-1.704159E-006	0.0065481	8
	3	6	501234.4	3468.713	-1555.843	1	3801.66	-24.15795	-1.644E-006	0.0056015	8
	4	7	398109.4	3694.17	-1378.854	1	3943.112	-20.46816	-1.285238E-007	0.0054887	8
	5	9	316265.6	3884.446	-1201.323	1	4065.968	-17.18501	7.47416E-007	0.0062235	8
	6	10	251203.1	4027.907	-1038.599	1	4159.654	-14.45881	-9.850155E-007	0.0062641	8
	7	11	199546.9	4124.646	-913.2405	1	4224.537	-12.48449	7.387487E-007	0.0061966	8
	8	13	158578.1	4190.431	-773.2646	1	4261.18	-10.45524	4.110885E-006	0.0057629	8
	9	14	125953.1	4305.354	-621.2985	1	4349.952	-8.21157	-7.514842E-008	0.0088208	7
	10	16	100078.1	4363.726	-566.1138	1	4400.294	-7.391798	4.953409E-008	0.0068794	7
	11	17	79453.13	4400.452	-538.6033	1	4433.292	-6.978138	1.243711E-006	0.0041025	7
	12	18	63140.62	4444.719	-516.5635	1	4474.636	-6.629153	1.667126E-007	0.0041443	7
	13	20	50203.12	4484.734	-507.1522	1	4513.319	-6.451834	-1.257119E-006	0.0075611	7
	14	21	39890.62	4531.603	-514.179	1	4560.68	-6.47339	1.134816E-006	0.0038185	7
	15	22	31640.63	4574.281	-529.2165	1	4604.793	-6.599432	-7.291001E-007	0.0075601	7
	16	24	25171.88	4622.778	-557.6754	1	4656.294	-6.878717	-1.373576E-006	0.0069273	7
	17	25	20015.62	4671.867	-602.4444	1	4710.55	-7.347829	-3.566994E-007	0.0073023	7
	18	26	15890.62	4732.786	-650.808	1	4777.323	-7.829671	-1.036033E-006	0.007647	7
	19	28	12609.37	4797.867	-713.6129	1	4850.646	-8.459893	5.275172E-008	0.0068642	7
	20	29	10078.13	4864.813	-788.9634	1	4928.374	-9.211886	-1.373415E-006	0.0069231	7
	21	31	8015.625	4935.841	-905.9064	1	5018.286	-10.40011	-1.374193E-006	0.0069221	7
	22	32	6328.125	5016.586	-1018.946	1	5119.022	-11.48147	5.398621E-008	0.0068562	7
	23	33	5015.625	5099.199	-1163.343	1	5230.219	-12.85163	-1.256414E-006	0.007558	7
	24	35	3984.375	5192.916	-1345.859	1	5364.486	-14.52977	-1.396104E-006	0.0073587	7
	25	36	3170.956	5292.217	-1555.464	1	5516.07	-16.37888	1.134874E-006	0.0038166	7
	26	37	2527.573	5394.04	-1814.966	1	5691.201	-18.59686	-7.973688E-007	0.0055004	7
	27	39	1976.103	5518.963	-2154.442	1	5924.574	-21.32422	-1.036056E-006	0.0076387	7
	28	40	1577.524	5652.771	-2555.935	1	6203.758	-24.33039	-3.145061E-007	0.0047146	7
	29	42	1265.625	5797.374	-3000.958	1	6528.039	-27.36793	-7.278297E-007	0.007558	7
	30	43	998.264	5973.852	-3603.642	1	6976.614	-31.09989	-1.372757E-006	0.0069193	7
	31	45	796.875	6154.579	-4308.924	1	7513.033	-34.99651	9.272943E-007	0.0055358	7
	32	46	627.7902	6389.907	-5222.606	1	8252.668	-39.25986	1.622106E-007	0.0041369	7
	33	48	505.5147	6614.459	-6235.172	1	9090.02	-43.30927	1.146974E-006	0.0049614	7
	34	49	397.9953	6924.12	-7605.183	1	10285.05	-47.68378	6.516857E-009	0.0057522	7
	35	50	315.5048	7271.888	-9254.308	1	11769.56	-51.8403	1.262426E-009	0.005697	6
	36	52	252.4038	7663.083	-11207.78	1	13577.08	-55.63846	1.597008E-009	0.0056948	6
	37	53	198.6229	8172.311	-13802.12	1	16040.11	-59.36999	1.747575E-010	0.0056953	6
	38	54	158.3615	8778.414	-16833.71	1	18985.11	-62.45894	9.564908E-010	0.0056877	6
	39	56	125.558	9553.5	-20658.59	1	22760.63	-65.18197	1.17526E-009	0.005687	6
	40	57	100.4464	10478.69	-25148.58	1	27244.34	-67.37991	-3.02635E-010	0.0056905	6
	41	59	79.00281	11773.89	-31181.37	1	33330.2	-69.31378	7.441849E-010	0.005695	6
	42	60	63.3446	12987.97	-37777.77	1	39948.05	-71.02707	6.298462E-010	0.0056889	6
	43	61	49.86702	15876	-46282.22	1	48929.45	-71.0667	1.171711E-009	0.0056857	6
	44	63	39.72458	18547.73	-56839.29	1	59788.98	-71.92751	1.266059E-009	0.0056911	6
	45	64	31.6723	22326.07	-69163.05	1	72677.24	-72.10974	8.687074E-010	0.0056878	6
	46	66	24.93351	27793.73	-84620.11	1	89067.7	-71.81708	3.169725E-010	0.0056841	6
	47	67	19.86229	34368.79	-101978.1	1	107613.9	-71.37508	6.903203E-010	0.0056986	5
	48	69	15.83615	44362.44	-123753.2	1	131464.3	-70.2785	2.091425E-009	0.005685	5
	49	70	12.40079	53633.69	-148298.2	1	157698.9	-70.11692	-2.491335E-010	0.0057006	5
	50	72	9.93114	68741.29	-177411.5	1	190263.5	-68.82024	2.664974E-010	0.0056879	5
	51	73	7.944915	86306.65	-209743	1	226806	-67.63345	-2.423496E-011	0.0057069	5
	52	75	6.317385	110701.4	-246443.2	1	270164.8	-65.81056	1.775678E-010	0.0056725	5
	53	77	5.008013	140423.1	-289186.4	1	321476.9	-64.09972	1.826137E-010	0.0056915	5
	54	79	3.945707	177179.8	-337807.1	1	381452.9	-62.32299	-2.180875E-010	0.0056935	5
	55	82	3.158693	219112.9	-385553.4	1	443465.8	-60.39011	3.905458E-010	0.0057029	5
	56	86	2.504006	269603.5	-440728.1	1	516650.1	-58.54492	-2.832498E-010	0.0056897	5
	57	88	1.998082	325314.3	-496759.6	1	593800.9	-56.7803	-6.982328E-011	0.0056719	5
	58	92	1.584686	389605.8	-556847.8	1	679611.8	-55.02095	3.46122E-011	0.0057325	5
	59	95	1.266892	457080.2	-622982.1	1	772676.5	-53.73261	-1.039816E-010	0.0056771	5
	60	99	0.999041	536184.6	-698285.6	1	880395.7	-52.48083	3.749864E-010	0.0057332	5
