EXPLAIN
TAG	EISPOT
TITLE	LABEL	Potentiostatic EIS	Test &Identifier
DATE	LABEL	11/13/2019	Date
TIME	LABEL	0:41:38	Time
NOTES	NOTES	3	&Notes...
	
	
	
PSTAT	PSTAT	REF600-11020	Potentiostat
VDC	POTEN	0.00000E+000	T	DC &Voltage (V)
FREQINIT	QUANT	1.00000E+006	Initial Fre&q. (Hz)
FREQFINAL	QUANT	1.00000E+000	Final Fre&q. (Hz)
PTSPERDEC	QUANT	1.00000E+001	Points/&decade
VAC	QUANT	2.50000E+001	AC &Voltage (mV rms)
AREA	QUANT	1.00000E-002	&Area (cm^2)
CONDIT	TWOPARAM	T	5.00000E+000	0.00000E+000	Conditionin&g	Time(s)	E(V)
DELAY	TWOPARAM	T	5.00000E+000	0.00000E+000	Init. De&lay	Time(s)	Stab.(mV/s)
SPEED	SELECTOR	1	&Optimize for:
ZGUESS	QUANT	1.00000E+005	E&stimated Z (ohms)
OCVCURVE	TABLE	19
	Pt	T	Vf	Vm	Ach	Over
	#	s	V vs. Ref.	V	V	bits
	0	0.258333	7.81097E-003	7.81097E-003	5.65946E-004	...........
	1	0.516667	7.81108E-003	7.81684E-003	5.65679E-004	...........
	2	0.775	7.81295E-003	7.88391E-003	5.72479E-004	...........
	3	1.03333	7.82385E-003	8.03880E-003	5.67213E-004	...........
	4	1.29167	7.85660E-003	8.08906E-003	5.62079E-004	...........
	5	1.55	7.91761E-003	8.19049E-003	5.65246E-004	...........
	6	1.80833	7.99920E-003	8.27961E-003	5.64346E-004	...........
	7	2.06667	8.08969E-003	8.39808E-003	5.61413E-004	...........
	8	2.325	8.18326E-003	8.44519E-003	5.67013E-004	...........
	9	2.58333	8.27618E-003	8.51951E-003	5.65479E-004	...........
	10	2.84167	8.36302E-003	8.57647E-003	5.67913E-004	...........
	11	3.1	8.44018E-003	8.62844E-003	5.64113E-004	...........
	12	3.35833	8.50770E-003	8.66791E-003	5.64279E-004	...........
	13	3.61667	8.56681E-003	8.71606E-003	5.65813E-004	...........
	14	3.875	8.61927E-003	8.77151E-003	5.65346E-004	...........
	15	4.13333	8.66828E-003	8.82579E-003	5.65746E-004	...........
	16	4.39167	8.71729E-003	8.87335E-003	5.68412E-004	...........
	17	4.65	8.76777E-003	8.92866E-003	5.66546E-004	...........
	18	4.90833	8.81940E-003	8.98287E-003	5.68979E-004	...........
EOC	QUANT	0.0088194	Open Circuit (V)
PSTATMODEL	IQUANT	4	Pstat Model
PSTATSECTION	LABEL	REF600-11020	Pstat Section
PSTATSERIALNO	LABEL	11020	Pstat Serial Number
CTRLMODE	IQUANT	1	Control Mode
IESTAB	IQUANT	0	I/E Stability
CASPEED	IQUANT	1	Control Amp Speed
CONVENTION	IQUANT	1	Current Convention
ICHRANGE	IQUANT	2	Ich Range
ICHRANGEMODE	TOGGLE	F	Ich Auto Range
ICHOFFSETENABLE	TOGGLE	T	Ich Offset Enable
ICHOFFSET	QUANT	0	Ich Offset (V)
ICHFILTER	IQUANT	3	Ich Filter
VCHRANGE	IQUANT	2	Vch Range
VCHRANGEMODE	TOGGLE	F	Vch Auto Range
VCHOFFSETENABLE	TOGGLE	T	Vch Offset Enable
VCHOFFSET	QUANT	0	Vch Offset (V)
VCHFILTER	IQUANT	3	Vch Filter
ACHRANGE	IQUANT	2	Ach Range
ACHOFFSETENABLE	TOGGLE	F	Ach Offset Enable
ACHOFFSET	QUANT	0	Ach Offset (V)
ACHFILTER	IQUANT	1	Ach Filter
IERANGELOWERLIMIT	IQUANT	1	I/E Range Lower Limit
IERANGEMODE	TOGGLE	F	I/E AutoRange
IERANGE	IQUANT	5	I/E Range
POSFEEDENABLE	TOGGLE	F	Positive Feedback IR Comp
POSFEEDRESISTANCE	QUANT	0	Positive Feedback Resistance (ohm)
ACHSELECT	IQUANT	0	Ach Select
CABLEID	IQUANT	14	Cable ID
DCCALDATE	LABEL	8/19/2019	DC Calibration Date
ACCALDATE	LABEL	8/19/2019	AC Calibration Date
THERMOSELECT	IQUANT	1	Thermo Select
FRAMEWORKVERSION	QUANT	6.33	Framework Version
INSTRUMENTVERSION	LABEL	3.50	Instrument Version
ZCURVE	TABLE
	Pt	Time	Freq	Zreal	Zimag	Zsig	Zmod	Zphz	Idc	Vdc	IERange
	#	s	Hz	ohm	ohm	V	ohm	°	A	V	#
	0	1	1000078	2164.271	-1936.119	1	2903.898	-41.81526	5.551427E-006	0.0093453	8
	1	2	794390.6	2550.82	-1991.002	1	3235.857	-37.97326	3.97283E-007	0.0110097	8
	2	4	630984.4	2946.928	-1992.989	1	3557.582	-34.07025	2.04369E-006	0.0108268	8
	3	5	501234.4	3323.157	-1931.736	1	3843.823	-30.16924	-7.241989E-007	0.010901	8
	4	6	398109.4	3674.817	-1836.679	1	4108.244	-26.55596	-1.286002E-006	0.0107488	8
	5	8	316265.6	4010.554	-1702.848	1	4357.09	-23.00567	6.957542E-006	0.0095732	8
	6	9	251203.1	4273.872	-1536.778	1	4541.769	-19.77733	-1.562359E-006	0.0106933	8
	7	10	199546.9	4484.165	-1372.395	1	4689.478	-17.01692	-3.542603E-007	0.0107493	8
	8	12	158578.1	4645.32	-1246.082	1	4809.545	-15.01579	7.604488E-007	0.0106441	8
	9	13	125953.1	4832.496	-1003.656	1	4935.62	-11.7329	-1.2006E-006	0.0090254	7
	10	15	100078.1	4939.921	-887.7005	1	5019.047	-10.18729	8.018804E-007	0.0084396	7
	11	16	79453.13	5030.178	-797.6505	1	5093.028	-9.010541	8.591538E-007	0.0100295	7
	12	17	63140.62	5100.962	-717.6102	1	5151.192	-8.007895	1.011181E-006	0.0085109	7
	13	19	50203.12	5145.656	-657.4034	1	5187.481	-7.280605	-7.494748E-007	0.0100969	7
	14	20	39890.62	5212.511	-620.4725	1	5249.31	-6.788276	6.309071E-007	0.0104665	7
	15	22	31640.63	5250.3	-595.4729	1	5283.961	-6.470661	-6.350389E-007	0.0118821	7
	16	23	25171.88	5307.941	-591.1608	1	5340.759	-6.355009	6.297178E-007	0.0104636	7
	17	24	20015.62	5334.514	-596.8555	1	5367.8	-6.384023	-7.490248E-007	0.010091	7
	18	26	15890.62	5379.001	-626.2449	1	5415.333	-6.640709	-7.517314E-007	0.0100844	7
	19	27	12609.37	5422.742	-670.6318	1	5464.053	-7.049987	-1.259046E-006	0.0117375	7
	20	28	10078.13	5478.172	-738.8908	1	5527.778	-7.681643	-2.976508E-007	0.0116447	7
	21	30	8015.625	5539.694	-826.8644	1	5601.064	-8.489392	1.12837E-006	0.0087298	7
	22	31	6328.125	5582.028	-942.7135	1	5661.073	-9.58587	-2.959614E-007	0.0116415	7
	23	33	5015.625	5652.817	-1095.844	1	5758.057	-10.97116	1.049755E-006	0.0095099	7
	24	34	3984.375	5694.42	-1280.124	1	5836.535	-12.66965	-1.122254E-006	0.0119105	7
	25	35	3170.956	5780.944	-1510.626	1	5975.057	-14.64457	4.020931E-007	0.010801	7
	26	37	2527.573	5846.939	-1787.026	1	6113.932	-16.99496	-1.080071E-006	0.0107865	7
	27	38	1976.103	5959.389	-2177.487	1	6344.743	-20.07168	-2.975866E-007	0.0116443	7
	28	40	1577.524	6061.313	-2607.975	1	6598.564	-23.28055	-1.081292E-006	0.010787	7
	29	41	1265.625	6196.457	-3114.094	1	6934.959	-26.68229	-7.557229E-007	0.0100878	7
	30	43	998.264	6363.043	-3783.456	1	7402.895	-30.73565	-1.250579E-006	0.0117299	7
	31	44	796.875	6559.333	-4565.466	1	7991.766	-34.83892	-6.311895E-007	0.0118856	7
	32	46	627.7902	6808.021	-5590.8	1	8809.438	-39.39311	1.136954E-006	0.0090844	7
	33	47	505.5147	7066.617	-6678.124	1	9722.88	-43.38097	-1.076941E-006	0.0107752	7
	34	48	397.9953	7399.256	-8193.183	1	11039.8	-47.91483	8.343663E-009	0.0102639	7
	35	50	315.5048	7797.399	-9990.64	1	12673.29	-52.02901	3.248295E-010	0.0102061	6
	36	51	252.4038	8258.823	-12105.98	1	14654.79	-55.69779	6.838157E-010	0.0101996	6
	37	53	198.6229	8868.324	-14900.1	1	17339.55	-59.2395	9.87942E-010	0.0102063	6
	38	54	158.3615	9600.42	-18149.77	1	20532.47	-62.12315	8.716577E-010	0.0102018	6
	39	55	125.558	10538.58	-22226.09	1	24597.98	-64.63187	7.133845E-010	0.0102016	6
	40	57	100.4464	11729.46	-27021.82	1	29457.75	-66.5356	8.767529E-010	0.0102008	6
	41	58	79.00281	13288.13	-33270.22	1	35825.71	-68.22823	9.515017E-010	0.0101958	6
	42	60	63.3446	15505.52	-40104.65	1	42997.72	-68.86218	5.001431E-010	0.0101929	6
	43	61	49.86702	18242.22	-49771.74	1	53009.48	-69.87122	-2.214333E-010	0.0101923	6
	44	62	39.72458	21737.29	-60073.84	1	63885.65	-70.1077	3.719995E-010	0.0102052	6
	45	64	31.6723	26510.21	-72717.2	1	77398.84	-69.96987	7.460895E-010	0.0101923	6
	46	65	24.93351	32948.15	-88446.16	1	94383.81	-69.56853	5.265703E-011	0.0101984	6
	47	67	19.86229	41180.84	-105944.9	1	113667	-68.75887	-1.331872E-010	0.0102114	5
	48	68	15.83615	50850.65	-126168.2	1	136030.2	-68.04867	1.558318E-009	0.0102035	5
	49	69	12.40079	67809.89	-151416.8	1	165907.3	-65.87545	-7.58424E-010	0.0102134	5
	50	71	9.93114	84092.3	-176889.8	1	195861	-64.57388	3.47386E-010	0.0102121	5
	51	72	7.944915	105508.7	-205168.6	1	230708.1	-62.78534	1.1301E-010	0.0102107	5
	52	74	6.317385	131845.3	-236140.2	1	270454	-60.82386	-1.344471E-010	0.0101961	5
	53	76	5.008013	163572.8	-269927.8	1	315621.7	-58.78468	-1.848369E-010	0.0102026	5
	54	79	3.945707	200391.4	-306536.2	1	366225.5	-56.82621	-9.723113E-011	0.0102045	5
	55	81	3.158693	239001.9	-342502	1	417647.6	-55.09221	1.316281E-010	0.0102047	5
	56	85	2.504006	282736	-382812.1	1	475904.2	-53.5513	-1.298475E-010	0.0102	5
	57	87	1.998082	327046.8	-424562.2	1	535922.3	-52.39238	2.632164E-010	0.0101603	5
	58	90	1.584686	375533.1	-474822.3	1	605377.1	-51.65982	-9.552664E-011	0.0101846	5
	59	94	1.266892	425014.2	-528116.4	1	677896.8	-51.1738	1.080222E-010	0.010154	5
	60	98	0.999041	479694.9	-596488.8	1	765445	-51.19384	-4.859335E-012	0.010235	5
