EXPLAIN
TAG	EISPOT
TITLE	LABEL	Potentiostatic EIS	Test &Identifier
DATE	LABEL	10/6/2019	Date
TIME	LABEL	10:30:05	Time
NOTES	NOTES	2	&Notes...
	
	
PSTAT	PSTAT	REF600-11020	Potentiostat
VDC	POTEN	0.00000E+000	T	DC &Voltage (V)
FREQINIT	QUANT	1.00000E+006	Initial Fre&q. (Hz)
FREQFINAL	QUANT	1.00000E+000	Final Fre&q. (Hz)
PTSPERDEC	QUANT	1.00000E+001	Points/&decade
VAC	QUANT	2.50000E+001	AC &Voltage (mV rms)
AREA	QUANT	1.00000E-002	&Area (cm^2)
CONDIT	TWOPARAM	T	5.00000E+000	0.00000E+000	Conditionin&g	Time(s)	E(V)
DELAY	TWOPARAM	T	5.00000E+000	0.00000E+000	Init. De&lay	Time(s)	Stab.(mV/s)
SPEED	SELECTOR	1	&Optimize for:
ZGUESS	QUANT	1.00000E+004	E&stimated Z (ohms)
OCVCURVE	TABLE	19
	Pt	T	Vf	Vm	Ach	Over
	#	s	V vs. Ref.	V	V	bits
	0	0.258333	8.04005E-003	8.04005E-003	5.52499E-004	...........
	1	0.516667	8.04080E-003	8.07905E-003	5.56699E-004	...........
	2	0.775	8.04769E-003	8.23699E-003	5.52133E-004	...........
	3	1.03333	8.07080E-003	8.17683E-003	5.56899E-004	...........
	4	1.29167	8.11172E-003	8.24161E-003	5.54099E-004	...........
	5	1.55	8.15739E-003	8.23648E-003	5.57432E-004	...........
	6	1.80833	8.19469E-003	8.24609E-003	5.55099E-004	...........
	7	2.06667	8.22168E-003	8.33271E-003	5.55466E-004	...........
	8	2.325	8.24646E-003	8.39585E-003	5.51566E-004	...........
	9	2.58333	8.28049E-003	8.45425E-003	5.56599E-004	...........
	10	2.84167	8.32872E-003	8.52635E-003	5.53599E-004	...........
	11	3.1	8.38763E-003	8.58592E-003	5.57833E-004	...........
	12	3.35833	8.45162E-003	8.65404E-003	5.53999E-004	...........
	13	3.61667	8.51692E-003	8.70708E-003	5.61232E-004	...........
	14	3.875	8.58120E-003	8.76244E-003	5.57899E-004	...........
	15	4.13333	8.64345E-003	8.84378E-003	5.52832E-004	...........
	16	4.39167	8.70424E-003	8.86917E-003	5.54366E-004	...........
	17	4.65	8.76384E-003	8.93778E-003	5.58599E-004	...........
	18	4.90833	8.82087E-003	8.97150E-003	5.54399E-004	...........
EOC	QUANT	0.0088209	Open Circuit (V)
PSTATMODEL	IQUANT	4	Pstat Model
PSTATSECTION	LABEL	REF600-11020	Pstat Section
PSTATSERIALNO	LABEL	11020	Pstat Serial Number
CTRLMODE	IQUANT	1	Control Mode
IESTAB	IQUANT	0	I/E Stability
CASPEED	IQUANT	1	Control Amp Speed
CONVENTION	IQUANT	1	Current Convention
ICHRANGE	IQUANT	2	Ich Range
ICHRANGEMODE	TOGGLE	F	Ich Auto Range
ICHOFFSETENABLE	TOGGLE	T	Ich Offset Enable
ICHOFFSET	QUANT	0	Ich Offset (V)
ICHFILTER	IQUANT	3	Ich Filter
VCHRANGE	IQUANT	2	Vch Range
VCHRANGEMODE	TOGGLE	F	Vch Auto Range
VCHOFFSETENABLE	TOGGLE	T	Vch Offset Enable
VCHOFFSET	QUANT	0	Vch Offset (V)
VCHFILTER	IQUANT	3	Vch Filter
ACHRANGE	IQUANT	2	Ach Range
ACHOFFSETENABLE	TOGGLE	F	Ach Offset Enable
ACHOFFSET	QUANT	0	Ach Offset (V)
ACHFILTER	IQUANT	3	Ach Filter
IERANGELOWERLIMIT	IQUANT	1	I/E Range Lower Limit
IERANGEMODE	TOGGLE	F	I/E AutoRange
IERANGE	IQUANT	6	I/E Range
POSFEEDENABLE	TOGGLE	F	Positive Feedback IR Comp
POSFEEDRESISTANCE	QUANT	0	Positive Feedback Resistance (ohm)
ACHSELECT	IQUANT	0	Ach Select
CABLEID	IQUANT	14	Cable ID
DCCALDATE	LABEL	8/19/2019	DC Calibration Date
ACCALDATE	LABEL	8/19/2019	AC Calibration Date
THERMOSELECT	IQUANT	1	Thermo Select
FRAMEWORKVERSION	QUANT	6.33	Framework Version
INSTRUMENTVERSION	LABEL	3.50	Instrument Version
ZCURVE	TABLE
	Pt	Time	Freq	Zreal	Zimag	Zsig	Zmod	Zphz	Idc	Vdc	IERange
	#	s	Hz	ohm	ohm	V	ohm	°	A	V	#
	0	1	1000078	2419.351	-1960.224	1	3113.798	-39.01534	3.43597E-006	0.0102216	8
	1	3	794390.6	2805.677	-1956.526	1	3420.5	-34.88982	-1.706315E-006	0.0106013	8
	2	4	630984.4	3191.704	-1873.479	1	3700.932	-30.41225	1.831604E-006	0.0103617	8
	3	5	501234.4	3534.175	-1728.548	1	3934.244	-26.06303	2.440004E-006	0.0098742	8
	4	7	398109.4	3830.063	-1550.056	1	4131.834	-22.03356	6.247465E-007	0.0103468	8
	5	8	316265.6	4048.595	-1373.166	1	4275.126	-18.73545	-6.117411E-007	0.0105169	8
	6	9	251203.1	4219.901	-1174.72	1	4380.357	-15.55594	-1.678004E-006	0.0106966	8
	7	11	199546.9	4370.834	-1012.07	1	4486.477	-13.03712	-2.040205E-006	0.0106989	8
	8	12	158578.1	4452.756	-881.1456	1	4539.103	-11.19351	7.039071E-007	0.0100855	8
	9	13	125953.1	4541.015	-719.021	1	4597.587	-8.997476	-5.65159E-008	0.0112633	7
	10	15	100078.1	4617.948	-630.8187	1	4660.834	-7.778546	-8.862068E-008	0.010397	7
	11	16	79453.13	4666.613	-571.5498	1	4701.484	-6.982603	4.570855E-008	0.0102203	7
	12	18	63140.62	4710.574	-528.3699	1	4740.114	-6.399933	8.751427E-008	0.0100907	7
	13	19	50203.12	4750.224	-500.7527	1	4776.544	-6.017704	5.803679E-008	0.010174	7
	14	20	39890.62	4789.647	-488.4914	1	4814.493	-5.823405	-8.44498E-008	0.0105146	7
	15	22	31640.63	4827.093	-486.0016	1	4851.498	-5.749282	-5.206102E-008	0.0103847	7
	16	23	25171.88	4865.965	-498.5073	1	4891.434	-5.849417	1.596545E-008	0.0103595	7
	17	24	20015.62	4915.786	-525.3944	1	4943.783	-6.100559	4.391991E-009	0.0102479	7
	18	26	15890.62	4950.266	-562.8917	1	4982.166	-6.487204	-8.287302E-008	0.0105173	7
	19	27	12609.37	4995.086	-617.2101	1	5033.074	-7.043961	1.20406E-009	0.0102559	7
	20	28	10078.13	5041.052	-686.2693	1	5087.551	-7.752368	-1.314634E-008	0.0102906	7
	21	30	8015.625	5088.035	-775.3085	1	5146.766	-8.664013	-3.234269E-008	0.0102605	7
	22	31	6328.125	5147.206	-890.0609	1	5223.594	-9.81064	1.617485E-008	0.0101898	7
	23	32	5015.625	5207.729	-1033.508	1	5309.292	-11.22487	-8.774399E-008	0.0103845	7
	24	34	3984.375	5276.687	-1202.95	1	5412.071	-12.8425	1.284339E-007	0.010074	7
	25	35	3170.956	5344.817	-1427.131	1	5532.067	-14.94989	-3.870086E-009	0.0102039	7
	26	37	2527.573	5426.077	-1691.321	1	5683.562	-17.31238	4.9856E-008	0.0101147	7
	27	38	1976.103	5530.366	-2046.772	1	5896.967	-20.30936	-3.064719E-008	0.010256	7
	28	39	1577.524	5644.688	-2444.574	1	6151.296	-23.41624	-5.816577E-008	0.0103387	7
	29	41	1265.625	5771.872	-2919.358	1	6468.165	-26.82985	-8.788577E-008	0.0103807	7
	30	42	998.264	5931.254	-3539.803	1	6907.241	-30.82897	1.128698E-007	0.0101638	7
	31	43	796.875	6107.643	-4255.598	1	7444.019	-34.86747	5.964122E-008	0.0101724	7
	32	45	627.7902	6326.649	-5188.939	1	8182.395	-39.35764	3.535449E-009	0.0102403	7
	33	46	505.5147	6560.562	-6214.628	1	9036.734	-43.44889	-1.054021E-008	0.0102898	7
	34	48	397.9953	6865.721	-7608.473	1	10248.27	-47.93759	8.045006E-010	0.0102297	6
	35	49	315.5048	7213.811	-9283.455	1	11756.77	-52.15062	5.842304E-010	0.0102307	6
	36	50	252.4038	7619.112	-11263.03	1	13598.04	-55.92279	1.319048E-009	0.010226	6
	37	52	198.6229	8158.968	-13883.94	1	16103.81	-59.55917	7.365494E-010	0.0102249	6
	38	53	158.3615	8802.071	-16932.15	1	19083.35	-62.53262	1.25385E-009	0.0102247	6
	39	54	125.558	9647.48	-20770.24	1	22901.46	-65.0858	8.543787E-010	0.0102285	6
	40	56	100.4464	10688.67	-25290.12	1	27456.11	-67.08902	9.272039E-010	0.0102253	6
	41	57	79.00281	12141.61	-31131.11	1	33415.04	-68.69346	1.086413E-009	0.0102229	6
	42	59	63.3446	14116.18	-37604.71	1	40166.91	-69.42471	3.029295E-010	0.010223	6
	43	60	49.86702	16439.33	-46652.54	1	49464.24	-70.58866	5.103007E-010	0.0102213	6
	44	61	39.72458	19391.6	-56385.87	1	59627.18	-71.02145	7.12474E-010	0.0102256	6
	45	63	31.6723	23430.57	-68295.8	1	72203.23	-71.06419	8.303422E-010	0.0102167	6
	46	64	24.93351	28838.4	-83438.55	1	88281.62	-70.9336	1.419507E-010	0.0102152	6
	47	65	19.86229	35636.77	-100464.7	1	106598	-70.46941	9.498233E-010	0.0102273	5
	48	67	15.83615	43846.86	-119662.1	1	127442.4	-69.87605	-1.01312E-010	0.0102229	5
	49	68	12.40079	56006.03	-146164.1	1	156526.7	-69.03455	4.62715E-010	0.0102278	5
	50	70	9.93114	71409.84	-172222.6	1	186440.3	-67.4793	-2.850451E-010	0.0102264	5
	51	71	7.944915	88885.17	-202115.3	1	220796.6	-66.26132	6.855418E-010	0.0102219	5
	52	73	6.317385	112428.7	-237254.2	1	262544.8	-64.64491	5.552437E-010	0.0102222	5
	53	75	5.008013	140970.2	-277030.9	1	310835.5	-63.03024	2.320362E-010	0.0102237	5
	54	77	3.945707	175666.6	-321177.2	1	366078.6	-61.32373	-1.15734E-010	0.0102136	5
	55	80	3.158693	213366.8	-366028.7	1	423677.3	-59.76107	2.89662E-010	0.0102311	5
	56	83	2.504006	258175	-417940.9	1	491252.4	-58.29509	-2.965672E-010	0.0102182	5
	57	86	1.998082	306235	-471899.9	1	562556.1	-57.01882	-2.017892E-011	0.0101882	5
	58	89	1.584686	360532.2	-532801.6	1	643320.3	-55.91487	1.0846E-011	0.0102658	5
	59	93	1.266892	416722	-602057.1	1	732209	-55.31043	-1.204387E-010	0.0102152	5
	60	97	0.999041	482329.1	-685167	1	837911.2	-54.85604	2.361033E-010	0.0102572	5
