EXPLAIN
TAG	EISPOT
TITLE	LABEL	Potentiostatic IDE	Test &Identifier
DATE	LABEL	9/18/2019	Date
TIME	LABEL	8:04:43	Time
NOTES	NOTES	1	&Notes...
	
PSTAT	PSTAT	REF600-11020	Potentiostat
VDC	POTEN	0.00000E+000	T	DC &Voltage (V)
FREQINIT	QUANT	1.00000E+006	Initial Fre&q. (Hz)
FREQFINAL	QUANT	1.00000E+000	Final Fre&q. (Hz)
PTSPERDEC	QUANT	1.00000E+001	Points/&decade
VAC	QUANT	2.50000E+001	AC &Voltage (mV rms)
AREA	QUANT	1.00000E-002	&Area (cm^2)
CONDIT	TWOPARAM	T	5.00000E+000	0.00000E+000	Conditionin&g	Time(s)	E(V)
DELAY	TWOPARAM	T	5.00000E+000	0.00000E+000	Init. De&lay	Time(s)	Stab.(mV/s)
SPEED	SELECTOR	1	&Optimize for:
ZGUESS	QUANT	1.00000E+007	E&stimated Z (ohms)
OCVCURVE	TABLE	19
	Pt	T	Vf	Vm	Ach	Over
	#	s	V vs. Ref.	V	V	bits
	0	0.258333	1.43304E-002	1.43304E-002	5.82299E-004	...........
	1	0.516667	1.43414E-002	1.49083E-002	5.85765E-004	...........
	2	0.775	1.44090E-002	1.54449E-002	5.86199E-004	...........
	3	1.03333	1.45993E-002	1.59529E-002	5.86932E-004	...........
	4	1.29167	1.49377E-002	1.64264E-002	5.87199E-004	...........
	5	1.55	1.53834E-002	1.68737E-002	5.88265E-004	...........
	6	1.80833	1.58719E-002	1.72972E-002	5.87432E-004	...........
	7	2.06667	1.63560E-002	1.76997E-002	5.88599E-004	...........
	8	2.325	1.68155E-002	1.80797E-002	5.82565E-004	...........
	9	2.58333	1.72469E-002	1.84386E-002	5.85532E-004	...........
	10	2.84167	1.76525E-002	1.87812E-002	5.91132E-004	...........
	11	3.1	1.80356E-002	1.91151E-002	5.87999E-004	...........
	12	3.35833	1.83992E-002	1.94333E-002	5.85999E-004	...........
	13	3.61667	1.87464E-002	1.97355E-002	5.87965E-004	...........
	14	3.875	1.90790E-002	2.00313E-002	5.83032E-004	...........
	15	4.13333	1.93982E-002	2.03121E-002	5.89432E-004	...........
	16	4.39167	1.97047E-002	2.05817E-002	5.81132E-004	...........
	17	4.65	1.99990E-002	2.08383E-002	5.83265E-004	...........
	18	4.90833	2.02813E-002	2.10868E-002	5.85099E-004	...........
EOC	QUANT	0.0202813	Open Circuit (V)
PSTATMODEL	IQUANT	4	Pstat Model
PSTATSECTION	LABEL	REF600-11020	Pstat Section
PSTATSERIALNO	LABEL	11020	Pstat Serial Number
CTRLMODE	IQUANT	1	Control Mode
IESTAB	IQUANT	0	I/E Stability
CASPEED	IQUANT	1	Control Amp Speed
CONVENTION	IQUANT	1	Current Convention
ICHRANGE	IQUANT	2	Ich Range
ICHRANGEMODE	TOGGLE	F	Ich Auto Range
ICHOFFSETENABLE	TOGGLE	T	Ich Offset Enable
ICHOFFSET	QUANT	0	Ich Offset (V)
ICHFILTER	IQUANT	3	Ich Filter
VCHRANGE	IQUANT	2	Vch Range
VCHRANGEMODE	TOGGLE	F	Vch Auto Range
VCHOFFSETENABLE	TOGGLE	T	Vch Offset Enable
VCHOFFSET	QUANT	0	Vch Offset (V)
VCHFILTER	IQUANT	3	Vch Filter
ACHRANGE	IQUANT	2	Ach Range
ACHOFFSETENABLE	TOGGLE	F	Ach Offset Enable
ACHOFFSET	QUANT	0	Ach Offset (V)
ACHFILTER	IQUANT	3	Ach Filter
IERANGELOWERLIMIT	IQUANT	1	I/E Range Lower Limit
IERANGEMODE	TOGGLE	F	I/E AutoRange
IERANGE	IQUANT	3	I/E Range
POSFEEDENABLE	TOGGLE	F	Positive Feedback IR Comp
POSFEEDRESISTANCE	QUANT	0	Positive Feedback Resistance (ohm)
ACHSELECT	IQUANT	0	Ach Select
CABLEID	IQUANT	14	Cable ID
DCCALDATE	LABEL	8/19/2019	DC Calibration Date
ACCALDATE	LABEL	8/19/2019	AC Calibration Date
THERMOSELECT	IQUANT	1	Thermo Select
FRAMEWORKVERSION	QUANT	6.33	Framework Version
INSTRUMENTVERSION	LABEL	3.50	Instrument Version
ZCURVE	TABLE
	Pt	Time	Freq	Zreal	Zimag	Zsig	Zmod	Zphz	Idc	Vdc	IERange
	#	s	Hz	ohm	ohm	V	ohm	°	A	V	#
	0	1	1000078	1951.505	-1093.815	1	2237.142	-29.27057	-7.220646E-007	0.0227859	8
	1	3	794390.6	2152.578	-1008.241	1	2377.003	-25.09781	-1.873116E-006	0.0226307	8
	2	4	630984.4	2312.171	-895.2805	1	2479.448	-21.16658	-7.061169E-008	0.0222582	8
	3	5	501234.4	2439.818	-788.3385	1	2564.018	-17.90635	-1.148432E-006	0.0221089	8
	4	7	398109.4	2533.147	-682.9255	1	2623.59	-15.08798	-1.020161E-006	0.0220507	8
	5	8	316265.6	2610.244	-584.5127	1	2674.889	-12.62203	-1.231294E-007	0.021888	8
	6	9	251203.1	2666.447	-501.4875	1	2713.195	-10.65139	-1.900666E-007	0.0218835	8
	7	11	199546.9	2709.036	-444.1359	1	2745.202	-9.310592	4.656705E-007	0.0217955	8
	8	12	158578.1	2743.844	-395.5248	1	2772.204	-8.202678	7.454832E-007	0.0217411	8
	9	13	125953.1	2784.145	-339.1169	1	2804.722	-6.944582	-1.659836E-007	0.0223877	7
	10	15	100078.1	2807.75	-310.5333	1	2824.871	-6.311184	-2.318281E-009	0.0217997	7
	11	16	79453.13	2833.143	-300.0712	1	2848.989	-6.04592	-1.915035E-008	0.0218313	7
	12	17	63140.62	2859.534	-296.8435	1	2874.9	-5.926553	1.943153E-008	0.021761	7
	13	19	50203.12	2887	-299.2303	1	2902.466	-5.917433	-7.333067E-009	0.0218496	7
	14	20	39890.62	2916.341	-306.3999	1	2932.392	-5.99767	-3.783404E-008	0.0218814	7
	15	21	31640.63	2947.278	-321.9387	1	2964.809	-6.233849	-1.056786E-008	0.0218403	7
	16	23	25171.88	2979.787	-342.3434	1	2999.388	-6.553895	5.056392E-008	0.0217332	7
	17	24	20015.62	3015.746	-368.722	1	3038.203	-6.970707	-3.490708E-008	0.0218744	7
	18	26	15890.62	3054.057	-401.9528	1	3080.394	-7.49776	-1.930499E-008	0.0218312	7
	19	27	12609.37	3097.931	-443.4421	1	3129.507	-8.146062	8.46598E-009	0.021778	7
	20	28	10078.13	3143.18	-491.0435	1	3181.305	-8.879266	-2.498011E-009	0.0217856	7
	21	30	8015.625	3193.436	-547.7409	1	3240.07	-9.73272	3.746994E-008	0.0217512	7
	22	31	6328.125	3250.477	-617.7952	1	3308.666	-10.76145	4.00912E-009	0.0218783	7
	23	32	5015.625	3311.177	-698.654	1	3384.082	-11.91457	-3.754029E-008	0.0218772	7
	24	33	3984.375	3376.131	-794.5582	1	3468.369	-13.24333	-1.947063E-008	0.0218643	7
	25	35	3170.956	3447.021	-906.8458	1	3564.313	-14.73944	-1.871356E-009	0.0218434	7
	26	36	2527.573	3522.49	-1041.295	1	3673.177	-16.46839	-2.263514E-008	0.0218532	7
	27	37	1976.103	3610.87	-1215.889	1	3810.088	-18.60993	-2.138338E-008	0.0218568	7
	28	39	1577.524	3697.695	-1407.773	1	3956.612	-20.84265	-1.361912E-009	0.0217798	7
	29	40	1265.625	3788.733	-1638.745	1	4127.952	-23.38998	4.00603E-009	0.0218747	7
	30	41	998.264	3890.582	-1938.803	1	4346.905	-26.48857	2.185262E-009	0.0218651	7
	31	43	796.875	3996.842	-2289.21	1	4606	-29.80213	4.604457E-008	0.021794	7
	32	44	627.7902	4115.453	-2749.736	1	4949.545	-33.74883	-3.00674E-008	0.021848	7
	33	45	505.5147	4234.323	-3268.58	1	5349.123	-37.66545	-5.80939E-009	0.0218419	7
	34	47	397.9953	4379.467	-3976.687	1	5915.554	-42.24039	4.524387E-009	0.0218433	7
	35	48	315.5048	4542.367	-4837.621	1	6635.938	-46.8029	4.675133E-009	0.0218407	7
	36	49	252.4038	4729.358	-5864.16	1	7533.604	-51.11433	3.93876E-009	0.0218398	7
	37	51	198.6229	4975.706	-7233.506	1	8779.593	-55.47712	4.637683E-009	0.0218391	7
	38	52	158.3615	5270.727	-8839.571	1	10291.67	-59.19386	-1.116148E-009	0.0217772	6
	39	53	125.558	5654.85	-10869.34	1	12252.34	-62.51398	-6.911382E-010	0.0217823	6
	40	55	100.4464	6131.239	-13261.28	1	14610.06	-65.18695	-5.188719E-011	0.0217799	6
	41	56	79.00281	6808.854	-16443.77	1	17797.7	-67.50707	-3.59561E-010	0.0217803	6
	42	57	63.3446	7534.511	-20034.35	1	21404.3	-69.38975	-9.240705E-010	0.0217781	6
	43	59	49.86702	8782.265	-24652.35	1	26169.95	-70.39184	-1.497759E-009	0.0217772	6
	44	60	39.72458	10206.98	-30166.46	1	31846.47	-71.30649	-4.509573E-010	0.0217776	6
	45	62	31.6723	12090.68	-36681.35	1	38622.61	-71.75706	-4.923958E-010	0.0217773	6
	46	63	24.93351	14723.69	-45059.61	1	47404.17	-71.90467	-1.293836E-009	0.0217773	6
	47	64	19.86229	17976.38	-54596.52	1	57479.82	-71.77542	-1.491909E-009	0.0217748	6
	48	66	15.83615	22252.25	-65961.41	1	69613.72	-71.35805	-7.343884E-010	0.0217796	6
	49	67	12.40079	28171.18	-80435.18	1	85225.78	-70.69798	-7.798851E-010	0.0217775	6
	50	68	9.93114	35239.87	-95821.7	1	102096.3	-69.80825	-1.273504E-009	0.0217816	6
	51	70	7.944915	44267.57	-113721.8	1	122033.8	-68.73092	-9.295467E-010	0.0217824	5
	52	72	6.317385	55875.98	-135053.3	1	146155.8	-67.52351	-7.740923E-010	0.0217765	5
	53	74	5.008013	70887.72	-159938.9	1	174944.3	-66.09624	-1.23882E-009	0.0217896	5
	54	76	3.945707	90106.6	-188532.5	1	208958.6	-64.45515	-1.888413E-009	0.0217777	5
	55	78	3.158693	112299.5	-218345.2	1	245531.7	-62.7823	-1.70144E-009	0.021769	5
	56	82	2.504006	139926.6	-252560.4	1	288732.1	-61.01213	-1.610986E-009	0.0217907	5
	57	84	1.998082	171128.8	-288364.8	1	335319.7	-59.31317	-1.141309E-009	0.0217791	5
	58	88	1.584686	210046.1	-329069.3	1	390392.1	-57.44977	-1.785367E-009	0.0217355	5
	59	91	1.266892	251451	-370086.4	1	447427.7	-55.8063	-1.253459E-009	0.0217703	5
	60	95	0.999041	302855.6	-418972.7	1	516971.6	-54.13861	-2.062104E-009	0.0217657	5
