EXPLAIN
TAG	EISPOT
TITLE	LABEL	Potentiostatic EIS	Test &Identifier
DATE	LABEL	9/26/2019	Date
TIME	LABEL	9:13:15	Time
NOTES	NOTES	2	&Notes...
	
	
PSTAT	PSTAT	REF600-11020	Potentiostat
VDC	POTEN	0.00000E+000	T	DC &Voltage (V)
FREQINIT	QUANT	1.00000E+006	Initial Fre&q. (Hz)
FREQFINAL	QUANT	1.00000E+000	Final Fre&q. (Hz)
PTSPERDEC	QUANT	1.00000E+001	Points/&decade
VAC	QUANT	2.50000E+001	AC &Voltage (mV rms)
AREA	QUANT	1.00000E-002	&Area (cm^2)
CONDIT	TWOPARAM	T	5.00000E+000	0.00000E+000	Conditionin&g	Time(s)	E(V)
DELAY	TWOPARAM	T	5.00000E+000	0.00000E+000	Init. De&lay	Time(s)	Stab.(mV/s)
SPEED	SELECTOR	1	&Optimize for:
ZGUESS	QUANT	1.00000E+004	E&stimated Z (ohms)
OCVCURVE	TABLE	19
	Pt	T	Vf	Vm	Ach	Over
	#	s	V vs. Ref.	V	V	bits
	0	0.258333	2.27538E-002	2.27538E-002	5.70399E-004	...........
	1	0.516667	2.27756E-002	2.38919E-002	5.71199E-004	...........
	2	0.775	2.29091E-002	2.49692E-002	5.73032E-004	...........
	3	1.03333	2.32869E-002	2.60190E-002	5.71232E-004	...........
	4	1.29167	2.39657E-002	2.71161E-002	5.72499E-004	...........
	5	1.55	2.48772E-002	2.80331E-002	5.73266E-004	...........
	6	1.80833	2.58983E-002	2.89260E-002	5.74466E-004	...........
	7	2.06667	2.69265E-002	2.98057E-002	5.75766E-004	...........
	8	2.325	2.79086E-002	3.06473E-002	5.73666E-004	...........
	9	2.58333	2.88351E-002	3.14425E-002	5.74032E-004	...........
	10	2.84167	2.97143E-002	3.22167E-002	5.70966E-004	...........
	11	3.1	3.05547E-002	3.29775E-002	5.74432E-004	...........
	12	3.35833	3.13608E-002	3.36023E-002	5.74799E-004	...........
	13	3.61667	3.21286E-002	3.41761E-002	5.66799E-004	...........
	14	3.875	3.28493E-002	3.49019E-002	5.72699E-004	...........
	15	4.13333	3.35285E-002	3.56047E-002	5.72099E-004	...........
	16	4.39167	3.41907E-002	3.62436E-002	5.69232E-004	...........
	17	4.65	3.48547E-002	3.68413E-002	5.72266E-004	...........
	18	4.90833	3.55155E-002	3.74026E-002	5.72966E-004	...........
EOC	QUANT	0.0355155	Open Circuit (V)
PSTATMODEL	IQUANT	4	Pstat Model
PSTATSECTION	LABEL	REF600-11020	Pstat Section
PSTATSERIALNO	LABEL	11020	Pstat Serial Number
CTRLMODE	IQUANT	1	Control Mode
IESTAB	IQUANT	0	I/E Stability
CASPEED	IQUANT	1	Control Amp Speed
CONVENTION	IQUANT	1	Current Convention
ICHRANGE	IQUANT	2	Ich Range
ICHRANGEMODE	TOGGLE	F	Ich Auto Range
ICHOFFSETENABLE	TOGGLE	T	Ich Offset Enable
ICHOFFSET	QUANT	0	Ich Offset (V)
ICHFILTER	IQUANT	3	Ich Filter
VCHRANGE	IQUANT	2	Vch Range
VCHRANGEMODE	TOGGLE	F	Vch Auto Range
VCHOFFSETENABLE	TOGGLE	T	Vch Offset Enable
VCHOFFSET	QUANT	0	Vch Offset (V)
VCHFILTER	IQUANT	3	Vch Filter
ACHRANGE	IQUANT	2	Ach Range
ACHOFFSETENABLE	TOGGLE	F	Ach Offset Enable
ACHOFFSET	QUANT	0	Ach Offset (V)
ACHFILTER	IQUANT	3	Ach Filter
IERANGELOWERLIMIT	IQUANT	1	I/E Range Lower Limit
IERANGEMODE	TOGGLE	F	I/E AutoRange
IERANGE	IQUANT	6	I/E Range
POSFEEDENABLE	TOGGLE	F	Positive Feedback IR Comp
POSFEEDRESISTANCE	QUANT	0	Positive Feedback Resistance (ohm)
ACHSELECT	IQUANT	0	Ach Select
CABLEID	IQUANT	14	Cable ID
DCCALDATE	LABEL	8/19/2019	DC Calibration Date
ACCALDATE	LABEL	8/19/2019	AC Calibration Date
THERMOSELECT	IQUANT	1	Thermo Select
FRAMEWORKVERSION	QUANT	6.33	Framework Version
INSTRUMENTVERSION	LABEL	3.50	Instrument Version
ZCURVE	TABLE
	Pt	Time	Freq	Zreal	Zimag	Zsig	Zmod	Zphz	Idc	Vdc	IERange
	#	s	Hz	ohm	ohm	V	ohm	°	A	V	#
	0	1	1000078	2114.64	-2139.137	1	3007.925	-45.32995	3.323405E-006	0.0373104	8
	1	3	794390.6	2527.401	-2239.568	1	3376.895	-41.54464	3.658635E-006	0.036481	8
	2	4	630984.4	2951.25	-2306.152	1	3745.426	-38.00461	4.989928E-006	0.0361845	8
	3	6	501234.4	3406.444	-2336.175	1	4130.566	-34.44273	-1.026087E-006	0.0373272	8
	4	7	398109.4	3828.371	-2305.101	1	4468.771	-31.05258	1.593483E-006	0.036599	8
	5	9	316265.6	4242.016	-2228.351	1	4791.686	-27.71316	4.969414E-006	0.0361559	8
	6	11	251203.1	4637.031	-2099.521	1	5090.191	-24.35972	-2.741288E-007	0.0369885	8
	7	12	199546.9	4994.259	-1938.291	1	5357.2	-21.21142	1.552852E-006	0.0366811	8
	8	14	158578.1	5301.494	-1722.183	1	5574.204	-17.99632	-1.20863E-007	0.0369997	8
	9	15	125953.1	5592.063	-1496.657	1	5788.881	-14.98345	7.837878E-007	0.0359361	7
	10	17	100078.1	5754.211	-1317.852	1	5903.192	-12.89964	-4.265036E-008	0.0370504	7
	11	18	79453.13	5883.687	-1228.162	1	6010.503	-11.79063	3.744044E-008	0.0370154	8
	12	19	63140.62	6033.927	-1049.422	1	6124.505	-9.86621	-4.546795E-008	0.0370717	7
	13	21	50203.12	6133.658	-946.2637	1	6206.221	-8.770104	-3.793927E-008	0.0370347	7
	14	23	39890.62	6218.226	-868.1874	1	6278.542	-7.948243	-8.560639E-008	0.0371588	7
	15	24	31640.63	6292.411	-812.7788	1	6344.686	-7.360036	-8.290619E-008	0.0371542	7
	16	25	25171.88	6354.691	-776.2394	1	6401.925	-6.964303	-3.927257E-008	0.0370336	7
	17	27	20015.62	6418.785	-768.8934	1	6464.673	-6.830799	-4.351268E-008	0.0370278	7
	18	28	15890.62	6481.288	-780.8549	1	6528.157	-6.869791	-2.253544E-008	0.0370816	7
	19	29	12609.37	6532.698	-815.9344	1	6583.456	-7.119379	-4.344157E-008	0.037037	7
	20	31	10078.13	6593.379	-868.8013	1	6650.374	-7.506547	-7.407134E-009	0.037156	7
	21	32	8015.625	6664.579	-951.608	1	6732.174	-8.126101	4.148141E-008	0.0368717	7
	22	33	6328.125	6730.077	-1072.071	1	6814.93	-9.050919	-4.967696E-008	0.0371197	7
	23	35	5015.625	6802.652	-1223.723	1	6911.843	-10.19782	-5.395723E-008	0.0371938	7
	24	36	3984.375	6883.69	-1413.554	1	7027.327	-11.60428	1.009337E-008	0.036939	7
	25	38	3170.956	6965.24	-1648.445	1	7157.648	-13.31505	-2.759285E-008	0.0369948	7
	26	39	2527.573	7068.899	-1935.765	1	7329.155	-15.31457	-1.064928E-008	0.0369605	7
	27	40	1976.103	7185.893	-2327.137	1	7553.319	-17.94444	-5.738707E-008	0.0370426	7
	28	42	1577.524	7319.317	-2764.834	1	7824.111	-20.6938	4.610235E-008	0.0369509	7
	29	43	1265.625	7473.441	-3296.752	1	8168.286	-23.80367	-5.291583E-008	0.03719	7
	30	44	998.264	7645.17	-3978.603	1	8618.463	-27.4928	-8.252454E-008	0.0371452	7
	31	46	796.875	7849.971	-4778.811	1	9190.162	-31.33172	9.036827E-009	0.0369365	7
	32	47	627.7902	8113.808	-5822.941	1	9987.02	-35.66542	-6.873028E-009	0.0369806	6
	33	49	505.5147	8404.185	-6994.959	1	10934.34	-39.77124	2.791843E-009	0.0368244	6
	34	50	397.9953	8762.209	-8531.741	1	12229.75	-44.23649	-4.402372E-010	0.0369691	6
	35	51	315.5048	9197.945	-10381.79	1	13870.25	-48.46004	-7.768497E-010	0.0369723	6
	36	53	252.4038	9704.93	-12551	1	15865.47	-52.2874	-1.391438E-010	0.0369697	6
	37	54	198.6229	10374.04	-15394.76	1	18563.92	-56.0252	2.274919E-010	0.0369666	6
	38	55	158.3615	11160.85	-18693.65	1	21771.94	-59.16113	4.899E-010	0.0369691	6
	39	57	125.558	12133.83	-22814.86	1	25840.82	-61.99422	4.037938E-011	0.0369712	6
	40	58	100.4464	13301.12	-27612.19	1	30648.87	-64.27934	-2.057543E-010	0.0369666	6
	41	59	79.00281	15072.32	-34078.04	1	37262.41	-66.14075	5.112628E-011	0.0369628	6
	42	61	63.3446	16290.03	-40995.17	1	44113.14	-68.32888	-4.987356E-010	0.0369589	6
	43	62	49.86702	20026.64	-50518	1	54342.75	-68.37534	-5.79683E-010	0.0369606	6
	44	64	39.72458	22922.72	-61505.05	1	65637.81	-69.55975	-3.816121E-010	0.0369665	6
	45	65	31.6723	27204.88	-74173.89	1	79005.52	-69.8584	-6.34934E-010	0.0369618	6
	46	66	24.93351	33719.14	-90911.8	1	96963.6	-69.65021	-1.190214E-010	0.0369619	6
	47	68	19.86229	41548.89	-109108.2	1	116751.5	-69.15294	6.455517E-011	0.0369696	5
	48	69	15.83615	53244.67	-129083.8	1	139633.9	-67.58475	-2.131586E-009	0.0369704	5
	49	70	12.40079	64761.84	-157794.6	1	170567.4	-67.68584	-8.210559E-010	0.036969	5
	50	72	9.93114	83357.69	-186178.8	1	203987.8	-65.88054	-2.302793E-010	0.0369714	5
	51	73	7.944915	104011.4	-216898.8	1	240548.2	-64.38048	-1.054147E-009	0.0369754	5
	52	75	6.317385	131611.4	-251433.8	1	283796.6	-62.37048	-8.692735E-010	0.0369836	5
	53	77	5.008013	164211.4	-289408	1	332749.7	-60.42923	-3.198618E-010	0.0369725	5
	54	79	3.945707	203537.8	-331374.1	1	388891.3	-58.44077	-5.357553E-010	0.0369634	5
	55	82	3.158693	244373.1	-372995.5	1	445919.1	-56.76864	-2.757627E-010	0.0369878	5
	56	85	2.504006	292026.9	-420082.8	1	511614.3	-55.19432	-7.912465E-010	0.0369722	5
	57	88	1.998082	341639.2	-468014.3	1	579443.4	-53.87145	-4.591198E-010	0.0369301	5
	58	91	1.584686	394592.7	-525276.1	1	656976.7	-53.08576	-5.936989E-010	0.0369584	5
	59	95	1.266892	450193.4	-586512.9	1	739372.4	-52.49101	-4.013065E-010	0.0369308	5
	60	99	0.999041	511552.8	-665518.6	1	839405.3	-52.45221	-5.951214E-010	0.0369919	5
