EXPLAIN
TAG	EISPOT
TITLE	LABEL	Potentiostatic EIS	Test &Identifier
DATE	LABEL	10/14/2019	Date
TIME	LABEL	11:08:09	Time
NOTES	NOTES	1	&Notes...
	
PSTAT	PSTAT	REF600-11020	Potentiostat
VDC	POTEN	0.00000E+000	T	DC &Voltage (V)
FREQINIT	QUANT	1.00000E+006	Initial Fre&q. (Hz)
FREQFINAL	QUANT	1.00000E+000	Final Fre&q. (Hz)
PTSPERDEC	QUANT	1.00000E+001	Points/&decade
VAC	QUANT	2.50000E+001	AC &Voltage (mV rms)
AREA	QUANT	1.00000E-002	&Area (cm^2)
CONDIT	TWOPARAM	T	5.00000E+000	0.00000E+000	Conditionin&g	Time(s)	E(V)
DELAY	TWOPARAM	T	5.00000E+000	0.00000E+000	Init. De&lay	Time(s)	Stab.(mV/s)
SPEED	SELECTOR	1	&Optimize for:
ZGUESS	QUANT	1.00000E+004	E&stimated Z (ohms)
OCVCURVE	TABLE	19
	Pt	T	Vf	Vm	Ach	Over
	#	s	V vs. Ref.	V	V	bits
	0	0.258333	7.41192E-003	7.41192E-003	5.69166E-004	...........
	1	0.516667	7.42838E-003	8.27363E-003	5.78299E-004	...........
	2	0.775	7.48815E-003	6.92783E-003	5.72732E-004	...........
	3	1.03333	7.53019E-003	6.17310E-003	5.69032E-004	...........
	4	1.29167	7.42541E-003	7.60381E-003	5.73632E-004	...........
	5	1.55	7.27565E-003	1.05350E-002	5.83665E-004	...........
	6	1.80833	7.43400E-003	8.32021E-003	5.72232E-004	...........
	7	2.06667	7.95661E-003	7.99212E-003	5.75232E-004	...........
	8	2.325	8.42358E-003	7.94739E-003	5.78865E-004	...........
	9	2.58333	8.50731E-003	7.49487E-003	5.81832E-004	...........
	10	2.84167	8.28570E-003	7.57649E-003	5.74966E-004	...........
	11	3.1	7.97734E-003	7.29268E-003	5.71699E-004	...........
	12	3.35833	7.71171E-003	7.31691E-003	5.76332E-004	...........
	13	3.61667	7.52159E-003	7.28531E-003	5.79132E-004	...........
	14	3.875	7.39794E-003	7.23735E-003	5.61632E-004	...........
	15	4.13333	7.32316E-003	7.21696E-003	5.67766E-004	...........
	16	4.39167	7.27781E-003	7.21095E-003	5.80065E-004	...........
	17	4.65	7.24765E-003	7.20350E-003	5.77699E-004	...........
	18	4.90833	7.22884E-003	7.29717E-003	5.70332E-004	...........
EOC	QUANT	0.0072288	Open Circuit (V)
PSTATMODEL	IQUANT	4	Pstat Model
PSTATSECTION	LABEL	REF600-11020	Pstat Section
PSTATSERIALNO	LABEL	11020	Pstat Serial Number
CTRLMODE	IQUANT	1	Control Mode
IESTAB	IQUANT	0	I/E Stability
CASPEED	IQUANT	1	Control Amp Speed
CONVENTION	IQUANT	1	Current Convention
ICHRANGE	IQUANT	2	Ich Range
ICHRANGEMODE	TOGGLE	F	Ich Auto Range
ICHOFFSETENABLE	TOGGLE	T	Ich Offset Enable
ICHOFFSET	QUANT	0	Ich Offset (V)
ICHFILTER	IQUANT	3	Ich Filter
VCHRANGE	IQUANT	2	Vch Range
VCHRANGEMODE	TOGGLE	F	Vch Auto Range
VCHOFFSETENABLE	TOGGLE	T	Vch Offset Enable
VCHOFFSET	QUANT	0	Vch Offset (V)
VCHFILTER	IQUANT	3	Vch Filter
ACHRANGE	IQUANT	2	Ach Range
ACHOFFSETENABLE	TOGGLE	F	Ach Offset Enable
ACHOFFSET	QUANT	0	Ach Offset (V)
ACHFILTER	IQUANT	3	Ach Filter
IERANGELOWERLIMIT	IQUANT	1	I/E Range Lower Limit
IERANGEMODE	TOGGLE	F	I/E AutoRange
IERANGE	IQUANT	6	I/E Range
POSFEEDENABLE	TOGGLE	F	Positive Feedback IR Comp
POSFEEDRESISTANCE	QUANT	0	Positive Feedback Resistance (ohm)
ACHSELECT	IQUANT	0	Ach Select
CABLEID	IQUANT	14	Cable ID
DCCALDATE	LABEL	8/19/2019	DC Calibration Date
ACCALDATE	LABEL	8/19/2019	AC Calibration Date
THERMOSELECT	IQUANT	1	Thermo Select
FRAMEWORKVERSION	QUANT	6.33	Framework Version
INSTRUMENTVERSION	LABEL	3.50	Instrument Version
ZCURVE	TABLE
	Pt	Time	Freq	Zreal	Zimag	Zsig	Zmod	Zphz	Idc	Vdc	IERange
	#	s	Hz	ohm	ohm	V	ohm	°	A	V	#
	0	2	1000078	2192.878	-1047.96	1	2430.419	-25.54278	1.297434E-007	0.00957	8
	1	3	794390.6	2361.203	-963.607	1	2550.258	-22.20038	3.429392E-007	0.0092447	8
	2	4	630984.4	2505.839	-870.6522	1	2652.784	-19.15975	-9.671149E-007	0.0093789	8
	3	6	501234.4	2622.893	-780.6111	1	2736.59	-16.57377	2.931858E-007	0.0089662	8
	4	7	398109.4	2713.699	-690.3242	1	2800.126	-14.27246	7.76193E-007	0.0087441	8
	5	8	316265.6	2787.357	-624.3748	1	2856.432	-12.62597	7.954812E-007	0.008648	8
	6	10	251203.1	2850.01	-567.5219	1	2905.967	-11.26198	-1.070434E-006	0.0090608	8
	7	11	199546.9	2900.826	-523.8992	1	2947.756	-10.23746	-2.074739E-006	0.0092608	8
	8	12	158578.1	2957.45	-493.3413	1	2998.315	-9.470484	3.112176E-006	0.0082779	8
	9	14	125953.1	3000.155	-446.3116	1	3033.17	-8.461431	1.916897E-007	0.008423	7
	10	15	100078.1	3054.284	-439.8492	1	3085.793	-8.194858	-3.243331E-008	0.0088183	7
	11	16	79453.13	3099.87	-450.0915	1	3132.375	-8.261436	3.765281E-008	0.0086879	7
	12	18	63140.62	3149.078	-466.6985	1	3183.473	-8.429967	3.340257E-009	0.0088965	7
	13	19	50203.12	3202.326	-489.7538	1	3239.56	-8.695263	5.899307E-010	0.0087737	7
	14	20	39890.62	3258.526	-517.9001	1	3299.426	-9.030878	3.665327E-009	0.0088941	7
	15	22	31640.63	3319.681	-555.0084	1	3365.757	-9.491342	-3.041274E-008	0.008877	7
	16	23	25171.88	3385.021	-597.6172	1	3437.37	-10.01226	7.27107E-008	0.0087523	7
	17	24	20015.62	3449.756	-640.7152	1	3508.751	-10.52153	7.437497E-008	0.0087467	7
	18	26	15890.62	3529.877	-704.9326	1	3599.578	-11.29366	9.403643E-009	0.0087337	7
	19	27	12609.37	3608.831	-773.93	1	3690.885	-12.104	-4.617273E-008	0.0088592	7
	20	28	10078.13	3689.915	-849.4528	1	3786.428	-12.96416	6.024807E-008	0.008703	7
	21	30	8015.625	3769.377	-943.5577	1	3885.679	-14.0536	3.469612E-008	0.0087543	7
	22	31	6328.125	3873.636	-1057.017	1	4015.263	-15.26298	9.916198E-009	0.0087303	7
	23	33	5015.625	3972.023	-1190.1	1	4146.481	-16.6793	-2.91407E-008	0.008794	7
	24	34	3984.375	4088.224	-1347.726	1	4304.642	-18.24535	1.265002E-009	0.0087646	7
	25	35	3170.956	4179.283	-1541.99	1	4454.676	-20.25206	-5.110307E-008	0.0088794	7
	26	37	2527.573	4286.157	-1772.865	1	4638.339	-22.47124	-4.662592E-008	0.0088481	7
	27	38	1976.103	4406.772	-2087.419	1	4876.163	-25.34618	1.042947E-007	0.0086409	7
	28	39	1577.524	4508.329	-2489.245	1	5149.891	-28.905	-2.84406E-008	0.0087959	7
	29	41	1265.625	4638.055	-2879.983	1	5459.474	-31.83806	6.809912E-008	0.0086469	7
	30	42	998.264	4778.944	-3461.335	1	5900.775	-35.91539	7.017023E-008	0.0086475	7
	31	43	796.875	4924.874	-4159.747	1	6446.54	-40.18578	-2.843749E-008	0.0088644	7
	32	45	627.7902	5109.823	-5065.519	1	7195.122	-44.75053	3.661098E-010	0.0087571	7
	33	46	505.5147	5303.855	-6097.602	1	8081.561	-48.98239	4.795933E-009	0.0088783	7
	34	47	397.9953	5566.585	-7495.722	1	9336.633	-53.40113	3.114679E-009	0.0088036	7
	35	49	315.5048	5881.243	-9181.653	1	10903.75	-57.3587	1.605618E-010	0.008744	6
	36	50	252.4038	6252.702	-11175.63	1	12805.9	-60.77324	1.09341E-009	0.0087369	6
	37	51	198.6229	6754.6	-13818.89	1	15381.36	-63.95086	5.230436E-010	0.0087415	6
	38	53	158.3615	7360.307	-16896.26	1	18429.81	-66.46122	9.116182E-010	0.0087386	6
	39	54	125.558	8152.557	-20766.27	1	22309.24	-68.5657	7.517678E-010	0.0087396	6
	40	55	100.4464	9141.351	-25313.58	1	26913.59	-70.14411	-8.117841E-011	0.0087364	6
	41	57	79.00281	10448.53	-31260.48	1	32960.42	-71.51827	7.525157E-010	0.008741	6
	42	58	63.3446	11849.72	-38167.47	1	39964.63	-72.75219	1.504081E-010	0.0087383	6
	43	60	49.86702	14421.47	-46621.12	1	48800.69	-72.81141	3.184767E-010	0.0087332	6
	44	61	39.72458	17342.04	-57091.7	1	59667.48	-73.10344	8.814418E-010	0.0087392	6
	45	62	31.6723	20896.21	-69100.41	1	72190.84	-73.17449	-2.070375E-011	0.0087344	6
	46	64	24.93351	26170.79	-84898.27	1	88840.46	-72.86753	5.244361E-010	0.0087337	6
	47	65	19.86229	32498.38	-102550.8	1	107577	-72.41658	8.613831E-010	0.0087453	5
	48	66	15.83615	41944.34	-123732.9	1	130649	-71.2738	-8.961074E-010	0.00874	5
	49	68	12.40079	52238.64	-151390.9	1	160150.2	-70.9626	9.130448E-010	0.0087413	5
	50	69	9.93114	66333.16	-178944.3	1	190843.2	-69.66068	2.306437E-011	0.0087475	5
	51	71	7.944915	84460.84	-211305.1	1	227559.9	-68.2129	2.61849E-010	0.0087341	5
	52	72	6.317385	106448.9	-249136.1	1	270924.6	-66.86434	5.014753E-010	0.0087278	5
	53	74	5.008013	134928.8	-293020	1	322593.4	-65.27505	1.053157E-010	0.0087446	5
	54	77	3.945707	169711.2	-342450	1	382196.2	-63.63792	1.196958E-011	0.0087377	5
	55	80	3.158693	207982.1	-393410.8	1	445004	-62.13621	4.050688E-011	0.0087274	5
	56	83	2.504006	253168.4	-452429.1	1	518446.1	-60.76968	2.026711E-010	0.0087449	5
	57	86	1.998082	302428.9	-516187.3	1	598257.9	-59.6344	3.063095E-010	0.0087468	5
	58	89	1.584686	360726	-588757.4	1	690477	-58.5046	7.130457E-011	0.0086894	5
	59	92	1.266892	420145.5	-670242.3	1	791041.7	-57.91821	1.909673E-010	0.00875	5
	60	97	0.999041	496190.4	-755740.8	1	904073.6	-56.71263	-3.339821E-012	0.0087078	5
