EXPLAIN
TAG	EISPOT
TITLE	LABEL	Potentiostatic EIS	Test &Identifier
DATE	LABEL	10/2/2019	Date
TIME	LABEL	9:56:33	Time
NOTES	NOTES	2	&Notes...
	
	
PSTAT	PSTAT	REF600-11020	Potentiostat
VDC	POTEN	0.00000E+000	T	DC &Voltage (V)
FREQINIT	QUANT	1.00000E+006	Initial Fre&q. (Hz)
FREQFINAL	QUANT	1.00000E+000	Final Fre&q. (Hz)
PTSPERDEC	QUANT	1.00000E+001	Points/&decade
VAC	QUANT	2.50000E+001	AC &Voltage (mV rms)
AREA	QUANT	1.00000E-002	&Area (cm^2)
CONDIT	TWOPARAM	T	5.00000E+000	0.00000E+000	Conditionin&g	Time(s)	E(V)
DELAY	TWOPARAM	T	5.00000E+000	0.00000E+000	Init. De&lay	Time(s)	Stab.(mV/s)
SPEED	SELECTOR	1	&Optimize for:
ZGUESS	QUANT	1.00000E+004	E&stimated Z (ohms)
OCVCURVE	TABLE	19
	Pt	T	Vf	Vm	Ach	Over
	#	s	V vs. Ref.	V	V	bits
	0	0.258333	2.27170E-003	2.27170E-003	5.72266E-004	...........
	1	0.516667	2.26425E-003	1.88189E-003	5.67566E-004	...........
	2	0.775	2.21754E-003	1.46109E-003	5.63966E-004	...........
	3	1.03333	2.08395E-003	1.15115E-003	5.66566E-004	...........
	4	1.29167	1.84560E-003	8.09504E-004	5.65399E-004	...........
	5	1.55	1.53310E-003	4.83632E-004	5.69232E-004	...........
	6	1.80833	1.19798E-003	4.96110E-004	5.66366E-004	...........
	7	2.06667	8.94542E-004	4.81701E-004	5.67899E-004	...........
	8	2.325	6.62483E-004	6.67732E-005	5.71566E-004	...........
	9	2.58333	4.83559E-004	-4.20247E-004	5.64866E-004	...........
	10	2.84167	2.84315E-004	-7.05273E-004	5.69499E-004	...........
	11	3.1	2.11852E-005	-6.20887E-004	5.69732E-004	...........
	12	3.35833	-2.56561E-004	-4.21367E-004	5.69166E-004	...........
	13	3.61667	-4.55550E-004	-5.35657E-004	5.73899E-004	...........
	14	3.875	-5.46239E-004	-9.42299E-004	5.72899E-004	...........
	15	4.13333	-6.04155E-004	-1.41429E-003	5.70199E-004	...........
	16	4.39167	-7.33859E-004	-1.57733E-003	5.74266E-004	...........
	17	4.65	-9.61402E-004	-1.53536E-003	5.77066E-004	...........
	18	4.90833	-1.21400E-003	-1.45347E-003	5.69232E-004	...........
EOC	QUANT	-0.001214	Open Circuit (V)
PSTATMODEL	IQUANT	4	Pstat Model
PSTATSECTION	LABEL	REF600-11020	Pstat Section
PSTATSERIALNO	LABEL	11020	Pstat Serial Number
CTRLMODE	IQUANT	1	Control Mode
IESTAB	IQUANT	0	I/E Stability
CASPEED	IQUANT	1	Control Amp Speed
CONVENTION	IQUANT	1	Current Convention
ICHRANGE	IQUANT	2	Ich Range
ICHRANGEMODE	TOGGLE	F	Ich Auto Range
ICHOFFSETENABLE	TOGGLE	T	Ich Offset Enable
ICHOFFSET	QUANT	0	Ich Offset (V)
ICHFILTER	IQUANT	3	Ich Filter
VCHRANGE	IQUANT	2	Vch Range
VCHRANGEMODE	TOGGLE	F	Vch Auto Range
VCHOFFSETENABLE	TOGGLE	T	Vch Offset Enable
VCHOFFSET	QUANT	0	Vch Offset (V)
VCHFILTER	IQUANT	3	Vch Filter
ACHRANGE	IQUANT	2	Ach Range
ACHOFFSETENABLE	TOGGLE	F	Ach Offset Enable
ACHOFFSET	QUANT	0	Ach Offset (V)
ACHFILTER	IQUANT	3	Ach Filter
IERANGELOWERLIMIT	IQUANT	1	I/E Range Lower Limit
IERANGEMODE	TOGGLE	F	I/E AutoRange
IERANGE	IQUANT	5	I/E Range
POSFEEDENABLE	TOGGLE	F	Positive Feedback IR Comp
POSFEEDRESISTANCE	QUANT	0	Positive Feedback Resistance (ohm)
ACHSELECT	IQUANT	0	Ach Select
CABLEID	IQUANT	14	Cable ID
DCCALDATE	LABEL	8/19/2019	DC Calibration Date
ACCALDATE	LABEL	8/19/2019	AC Calibration Date
THERMOSELECT	IQUANT	1	Thermo Select
FRAMEWORKVERSION	QUANT	6.33	Framework Version
INSTRUMENTVERSION	LABEL	3.50	Instrument Version
ZCURVE	TABLE
	Pt	Time	Freq	Zreal	Zimag	Zsig	Zmod	Zphz	Idc	Vdc	IERange
	#	s	Hz	ohm	ohm	V	ohm	°	A	V	#
	0	1	1000078	2495.312	-1896.845	1	3134.422	-37.24077	-2.738126E-007	0.0008484	8
	1	3	794390.6	2891.883	-1834.469	1	3424.655	-32.38905	-1.084217E-006	0.0005602	8
	2	4	630984.4	3229.325	-1708.096	1	3653.236	-27.87583	-1.157713E-006	0.0009837	8
	3	5	501234.4	3523.465	-1535.024	1	3843.319	-23.54071	9.15219E-007	0.0003763	8
	4	7	398109.4	3765.969	-1355.885	1	4002.617	-19.80071	-4.550483E-006	0.0011751	8
	5	8	316265.6	3917.053	-1181.662	1	4091.409	-16.78706	1.396116E-006	0.0002607	8
	6	9	251203.1	4098.372	-1002.67	1	4219.241	-13.74743	4.012645E-006	-0.0004168	8
	7	11	199546.9	4192.441	-875.6443	1	4282.91	-11.79735	4.657796E-006	-0.0007394	8
	8	12	158578.1	4271.339	-769.7446	1	4340.144	-10.21571	3.903721E-006	-0.0003925	8
	9	14	125953.1	4339.118	-608.8161	1	4381.621	-7.986958	-6.563224E-008	0.0011962	7
	10	15	100078.1	4382.073	-547.1613	1	4416.101	-7.117321	-8.36794E-008	0.0005189	7
	11	17	79453.13	4424.188	-503.1662	1	4452.709	-6.488412	7.673729E-009	0.0002378	7
	12	18	63140.62	4462.448	-472.1295	1	4487.354	-6.039458	-6.683489E-008	0.00039	7
	13	19	50203.12	4499.754	-454.3481	1	4522.634	-5.765715	1.297598E-008	0.0003507	7
	14	21	39890.62	4536.018	-450.1141	1	4558.295	-5.666973	1.235457E-007	7.614304E-005	7
	15	22	31640.63	4572.993	-456.944	1	4595.766	-5.706185	2.140368E-008	0.0001666	7
	16	23	25171.88	4611.485	-476.4791	1	4636.036	-5.89912	-8.662897E-009	0.0002527	7
	17	25	20015.62	4654.175	-504.3127	1	4681.418	-6.184273	1.246251E-009	0.0001936	7
	18	26	15890.62	4697.714	-546.6181	1	4729.409	-6.636994	-2.672005E-008	0.0002561	7
	19	27	12609.37	4745.979	-602.3617	1	4784.053	-7.23333	2.291482E-008	0.0001765	7
	20	29	10078.13	4798.505	-669.5732	1	4844.995	-7.94364	5.762114E-008	0.0001731	7
	21	30	8015.625	4854.532	-753.119	1	4912.603	-8.818415	-5.12812E-008	0.000369	7
	22	31	6328.125	4916.619	-858.373	1	4990.986	-9.90323	5.680224E-008	0.0001707	7
	23	33	5015.625	4984.905	-986.406	1	5081.563	-11.19301	-6.083565E-008	0.0003412	7
	24	34	3984.375	5056.281	-1143.117	1	5183.888	-12.7392	1.656241E-008	0.0003587	7
	25	35	3170.956	5136.593	-1331.431	1	5306.345	-14.53154	4.599922E-008	0.0002072	7
	26	37	2527.573	5223.214	-1560.257	1	5451.272	-16.63172	3.399668E-009	0.0001866	7
	27	38	1976.103	5328.848	-1868.269	1	5646.862	-19.32042	4.528036E-008	0.0002058	7
	28	39	1577.524	5439.554	-2213.072	1	5872.515	-22.13885	1.191803E-008	0.0002267	7
	29	41	1265.625	5560.097	-2626.242	1	6149.132	-25.28312	8.930983E-008	8.101814E-005	7
	30	42	998.264	5711.286	-3159.444	1	6526.935	-28.95107	-8.377975E-008	0.0003718	7
	31	44	796.875	5876.058	-3782.131	1	6988.03	-32.7674	-1.207824E-008	0.0003242	7
	32	45	627.7902	6080.892	-4589.62	1	7618.521	-37.04408	-6.002987E-009	0.0002579	7
	33	46	505.5147	6289.997	-5490.726	1	8349.379	-41.11868	-8.385631E-008	0.0003756	7
	34	48	397.9953	6569.817	-6695.841	1	9380.66	-45.54429	5.89718E-009	0.0002815	7
	35	49	315.5048	6886.103	-8142.898	1	10664.2	-49.78022	1.28946E-009	0.00022	6
	36	50	252.4038	7244.344	-9851.69	1	12228.5	-53.67146	6.339527E-010	0.0002104	6
	37	52	198.6229	7708.138	-12114.51	1	14358.86	-57.5325	1.090111E-009	0.0002159	6
	38	53	158.3615	8247.991	-14755.21	1	16904.01	-60.79531	8.308045E-010	0.000217	6
	39	54	125.558	8933.664	-18081.91	1	20168.44	-63.70757	1.001284E-009	0.0002108	6
	40	56	100.4464	9785.07	-21999.6	1	24077.58	-66.02128	4.624373E-010	0.0002114	6
	41	57	79.00281	10917.05	-27196.87	1	29306.17	-68.12905	1.188512E-009	0.0002132	6
	42	58	63.3446	12296.53	-33197.86	1	35402.01	-69.6753	7.095433E-010	0.0002124	6
	43	60	49.86702	14249.76	-40616.68	1	43043.82	-70.66734	9.416053E-010	0.0002103	6
	44	61	39.72458	16849.46	-49581.29	1	52366.1	-71.23044	1.25102E-009	0.0002159	6
	45	63	31.6723	20040.89	-60239.05	1	63485.28	-71.59827	4.791575E-010	0.0002159	6
	46	64	24.93351	24672.41	-73873.97	1	77885.12	-71.53172	1.668426E-009	0.0002121	6
	47	65	19.86229	30449.2	-89246.14	1	94297.55	-71.16127	1.270766E-009	0.0002192	6
	48	67	15.83615	37910.59	-106684.6	1	113220.2	-70.43722	5.616828E-010	0.0002196	5
	49	68	12.40079	47711.16	-130625.1	1	139065.8	-69.93515	1.177613E-009	0.0002168	5
	50	69	9.93114	60582.27	-154858.3	1	166286.9	-68.63402	8.344092E-010	0.000218	5
	51	71	7.944915	76042.69	-182763.8	1	197952.3	-67.40923	3.543886E-010	0.0002267	5
	52	73	6.317385	95684	-215189.6	1	235503.7	-66.02769	-5.47627E-011	0.0002251	5
	53	75	5.008013	120448.2	-252710	1	279946.7	-64.51631	-1.357152E-011	0.0002144	5
	54	77	3.945707	151201.8	-294978.7	1	331473.1	-62.86097	5.481935E-010	0.0002248	5
	55	80	3.158693	185694.1	-339101.8	1	386616.5	-61.29463	6.51984E-011	0.000217	5
	56	83	2.504006	227362.4	-389046.8	1	450611.8	-59.6976	5.578282E-010	0.000216	5
	57	86	1.998082	272700.1	-441289.9	1	518750.6	-58.28554	7.637736E-011	0.0002549	5
	58	89	1.584686	324476.2	-501843.7	1	597605.1	-57.11457	3.232104E-010	0.0002509	5
	59	93	1.266892	379823.7	-565084.4	1	680871.8	-56.09283	2.599389E-011	0.0002533	5
	60	97	0.999041	442286.4	-642624.3	1	780117.4	-55.46229	3.156548E-010	0.0002006	5
