EXPLAIN
TAG	EISPOT
TITLE	LABEL	Potentiostatic EIS	Test &Identifier
DATE	LABEL	8/14/2018	Date
TIME	LABEL	5:41:39	Time
NOTES	NOTES	1	&Notes...
	
PSTAT	PSTAT	REF600-11020	Potentiostat
VDC	POTEN	0.00000E+000	T	DC &Voltage (V)
FREQINIT	QUANT	1.00000E+006	Initial Fre&q. (Hz)
FREQFINAL	QUANT	1.00000E+000	Final Fre&q. (Hz)
PTSPERDEC	QUANT	1.00000E+001	Points/&decade
VAC	QUANT	2.50000E+001	AC &Voltage (mV rms)
AREA	QUANT	1.00000E-002	&Area (cm^2)
CONDIT	TWOPARAM	T	5.00000E+000	0.00000E+000	Conditionin&g	Time(s)	E(V)
DELAY	TWOPARAM	T	5.00000E+000	0.00000E+000	Init. De&lay	Time(s)	Stab.(mV/s)
SPEED	SELECTOR	0	&Optimize for:
ZGUESS	QUANT	1.00000E+005	E&stimated Z (ohms)
OCVCURVE	TABLE	19
	Pt	T	Vf	Vm	Ach	Over
	#	s	V vs. Ref.	V	V	bits
	0	0.258333	4.08963E-002	4.08963E-002	5.61799E-004	...........
	1	0.516667	4.09536E-002	4.38979E-002	5.59732E-004	...........
	2	0.775	4.13051E-002	4.67076E-002	5.58632E-004	...........
	3	1.03333	4.22961E-002	4.93569E-002	5.61066E-004	...........
	4	1.29167	4.40600E-002	5.18536E-002	5.66266E-004	...........
	5	1.55	4.63885E-002	5.42103E-002	5.58166E-004	...........
	6	1.80833	4.89456E-002	5.64492E-002	5.61799E-004	...........
	7	2.06667	5.14877E-002	5.85807E-002	5.55666E-004	...........
	8	2.325	5.39082E-002	6.06029E-002	5.49433E-004	...........
	9	2.58333	5.61875E-002	6.25322E-002	5.59232E-004	...........
	10	2.84167	5.83384E-002	6.43802E-002	5.57833E-004	...........
	11	3.1	6.03785E-002	6.61393E-002	5.61532E-004	...........
	12	3.35833	6.23211E-002	6.78245E-002	5.61566E-004	...........
	13	3.61667	6.41750E-002	6.94373E-002	5.61599E-004	...........
	14	3.875	6.59464E-002	7.09855E-002	5.57599E-004	...........
	15	4.13333	6.76409E-002	7.24688E-002	5.58566E-004	...........
	16	4.39167	6.92633E-002	7.38901E-002	5.50966E-004	...........
	17	4.65	7.08178E-002	7.52540E-002	5.59266E-004	...........
	18	4.90833	7.23081E-002	7.65724E-002	5.53699E-004	...........
EOC	QUANT	0.0723081	Open Circuit (V)
PSTATMODEL	IQUANT	4	Pstat Model
PSTATSECTION	LABEL	REF600-11020	Pstat Section
PSTATSERIALNO	LABEL	11020	Pstat Serial Number
CTRLMODE	IQUANT	1	Control Mode
IESTAB	IQUANT	0	I/E Stability
CASPEED	IQUANT	1	Control Amp Speed
CONVENTION	IQUANT	1	Current Convention
ICHRANGE	IQUANT	2	Ich Range
ICHRANGEMODE	TOGGLE	F	Ich Auto Range
ICHOFFSETENABLE	TOGGLE	T	Ich Offset Enable
ICHOFFSET	QUANT	0	Ich Offset (V)
ICHFILTER	IQUANT	3	Ich Filter
VCHRANGE	IQUANT	2	Vch Range
VCHRANGEMODE	TOGGLE	F	Vch Auto Range
VCHOFFSETENABLE	TOGGLE	T	Vch Offset Enable
VCHOFFSET	QUANT	0	Vch Offset (V)
VCHFILTER	IQUANT	3	Vch Filter
ACHRANGE	IQUANT	2	Ach Range
ACHOFFSETENABLE	TOGGLE	F	Ach Offset Enable
ACHOFFSET	QUANT	0	Ach Offset (V)
ACHFILTER	IQUANT	3	Ach Filter
IERANGELOWERLIMIT	IQUANT	1	I/E Range Lower Limit
IERANGEMODE	TOGGLE	F	I/E AutoRange
IERANGE	IQUANT	6	I/E Range
POSFEEDENABLE	TOGGLE	F	Positive Feedback IR Comp
POSFEEDRESISTANCE	QUANT	0	Positive Feedback Resistance (ohm)
ACHSELECT	IQUANT	0	Ach Select
CABLEID	IQUANT	14	Cable ID
DCCALDATE	LABEL	8/19/2019	DC Calibration Date
ACCALDATE	LABEL	8/19/2019	AC Calibration Date
THERMOSELECT	IQUANT	1	Thermo Select
FRAMEWORKVERSION	QUANT	6.33	Framework Version
INSTRUMENTVERSION	LABEL	3.50	Instrument Version
ZCURVE	TABLE
	Pt	Time	Freq	Zreal	Zimag	Zsig	Zmod	Zphz	Idc	Vdc	IERange
	#	s	Hz	ohm	ohm	V	ohm	°	A	V	#
	0	2	1000078	2244.551	-1954.407	1	2976.191	-41.0472	-3.500374E-007	0.0742664	8
	1	2	794390.6	2621.905	-2044.392	1	3324.744	-37.94481	-5.287974E-006	0.0750671	8
	2	2	630984.4	3025.411	-2078.748	1	3670.736	-34.4928	6.202709E-007	0.074198	8
	3	3	501234.4	3413.229	-2064.447	1	3988.994	-31.1671	-1.375031E-006	0.0740948	8
	4	3	398109.4	3792.403	-2000.441	1	4287.666	-27.81103	3.808123E-006	0.0731093	8
	5	3	316265.6	4166.057	-1906.905	1	4581.737	-24.59472	3.375026E-006	0.0731114	8
	6	3	251203.1	4449.612	-1761.138	1	4785.463	-21.59345	2.640329E-007	0.0738663	8
	7	4	199546.9	4774.714	-1603.283	1	5036.707	-18.56134	-4.898415E-007	0.0740125	8
	8	4	158578.1	4976.99	-1443.472	1	5182.088	-16.1737	3.612602E-007	0.0738707	8
	9	4	125953.1	5241.246	-1169.881	1	5370.222	-12.58255	-8.996903E-007	0.0749283	7
	10	5	100078.1	5365.264	-1020.706	1	5461.492	-10.77142	7.395772E-008	0.0735956	7
	11	5	79453.13	5488.916	-914.7806	1	5564.623	-9.461929	-3.640418E-008	0.0737588	7
	12	5	63140.62	5581.391	-811.044	1	5640.01	-8.267904	9.453708E-008	0.07368	7
	13	6	50203.12	5658.271	-727.5237	1	5704.851	-7.326723	1.155077E-008	0.0738505	7
	14	6	39890.62	5719.73	-664.147	1	5758.16	-6.623245	1.262435E-008	0.0738474	7
	15	6	31640.63	5774.03	-620.5941	1	5807.285	-6.134614	1.206828E-007	0.0735806	7
	16	7	25171.88	5818.812	-590.7772	1	5848.725	-5.797308	-7.58158E-008	0.0738723	7
	17	7	20015.62	5858.002	-575.9758	1	5886.25	-5.615438	-4.438811E-008	0.0737543	7
	18	7	15890.62	5902.909	-595.4003	1	5932.861	-5.759691	-4.451156E-008	0.0737565	7
	19	8	12609.37	5939.71	-634.6219	1	5973.517	-6.098569	7.452712E-010	0.0737539	8
	20	8	10078.13	5986.435	-673.2673	1	6024.175	-6.416834	7.519225E-008	0.0735848	7
	21	8	8015.625	6009.416	-758.527	1	6057.098	-7.194005	2.652285E-008	0.0737587	8
	22	9	6328.125	6074.941	-854.3991	1	6134.73	-8.005751	-7.631744E-008	0.0738346	7
	23	9	5015.625	6126.336	-990.701	1	6205.923	-9.18588	-7.706756E-008	0.0738674	7
	24	10	3984.375	6174.591	-1162.84	1	6283.134	-10.6654	-5.4266E-008	0.0737988	7
	25	11	3170.956	6241.178	-1382.065	1	6392.371	-12.48626	7.360001E-008	0.0735787	7
	26	11	2527.573	6315.693	-1651.731	1	6528.108	-14.6562	1.329893E-008	0.0738374	7
	27	11	1976.103	6402.602	-2012.066	1	6711.313	-17.44572	6.772636E-008	0.0736253	7
	28	12	1577.524	6548.612	-2449.196	1	6991.629	-20.50591	-3.028057E-008	0.0737271	7
	29	12	1265.625	6608.313	-2907.406	1	7219.613	-23.74766	-4.050884E-008	0.073822	7
	30	12	998.264	6746.946	-3541.456	1	7619.92	-27.69487	-3.292736E-009	0.0736815	7
	31	13	796.875	6898.382	-4285.913	1	8121.375	-31.85237	-1.070697E-008	0.0737165	7
	32	13	627.7902	7084.004	-5269.459	1	8828.948	-36.64383	-7.638013E-008	0.0738644	7
	33	13	505.5147	7289.054	-6348.616	1	9666.19	-41.05519	-6.834325E-008	0.0739531	7
	34	14	397.9953	7558.87	-7819.598	1	10875.78	-45.97131	-2.239452E-009	0.0737113	6
	35	14	315.5048	7871.445	-9599.58	1	12414.17	-50.649	-1.659342E-009	0.0737116	6
	36	14	252.4038	8237.553	-11704.78	1	14312.9	-54.863	-2.678725E-009	0.0737124	6
	37	15	198.6229	8728.431	-14505.62	1	16929.22	-58.96352	-1.409627E-009	0.0737107	6
	38	15	158.3615	9323.309	-17785.63	1	20081.16	-62.33627	-1.224595E-009	0.0737044	6
	39	15	125.558	10107.7	-21912.15	1	24131.06	-65.23693	-2.074814E-009	0.0737073	6
	40	15	100.4464	11133.56	-26755.03	1	28979.09	-67.40636	-1.640307E-009	0.0737031	6
	41	16	79.00281	12605.06	-33228.5	1	35539.01	-69.22602	-2.683074E-009	0.0737028	6
	42	16	63.3446	13807.84	-40918.2	1	43185.13	-71.35303	-1.843279E-009	0.0736965	6
	43	17	49.86702	16316.88	-50249.86	1	52832.64	-72.01061	-1.065291E-009	0.0736949	6
	44	17	39.72458	20086.72	-61266.2	1	64474.98	-71.84777	-1.453428E-009	0.0736972	6
	45	17	31.6723	24296.83	-74636.71	1	78491.88	-71.96814	-2.053419E-009	0.0736996	6
	46	18	24.93351	30650.45	-91152.97	1	96168.2	-71.41463	-1.526293E-009	0.0736989	6
	47	18	19.86229	38613.33	-109647.3	1	116247.7	-70.59981	-9.297025E-010	0.0737128	5
	48	18	15.83615	49498.36	-133587.5	1	142463	-69.66875	-3.697973E-009	0.073701	5
	49	18	12.40079	65130.57	-160480.2	1	173193.2	-67.91032	-1.180028E-009	0.0737054	5
	50	19	9.93114	81107.93	-186645.2	1	203506.5	-66.51231	-2.192584E-009	0.0737077	5
	51	19	7.944915	103083.5	-217135.6	1	240362.3	-64.60432	-1.555526E-009	0.0736948	5
	52	20	6.317385	129209	-252769.3	1	283879	-62.92508	-1.327175E-009	0.0736948	5
	53	21	5.008013	161783.8	-291263.4	1	333179.1	-60.94979	-1.617643E-009	0.0736969	5
	54	22	3.945707	199746.7	-334705.8	1	389777.8	-59.17196	-1.318977E-009	0.0737066	5
	55	23	3.158693	240245.8	-376859.2	1	446923.8	-57.4827	-1.617367E-009	0.0737097	5
	56	25	2.504006	286481.5	-426206.4	1	513540.2	-56.09234	-1.560744E-009	0.073696	5
	57	26	1.998082	336457.3	-478293.5	1	584780.4	-54.87539	-1.242924E-009	0.0737381	5
	58	28	1.584686	390963.2	-539934.3	1	666619.3	-54.09193	-1.191966E-009	0.0737261	5
	59	30	1.266892	450024.1	-606010.4	1	754831.3	-53.40237	-1.182106E-009	0.0736891	5
	60	32	0.999041	519808.6	-687615.1	1	861983.4	-52.91222	-1.109257E-009	0.0736655	5
