EXPLAIN
TAG	EISPOT
TITLE	LABEL	Potentiostatic EIS	Test &Identifier
DATE	LABEL	11/22/2019	Date
TIME	LABEL	1:42:07	Time
NOTES	NOTES	4	&Notes...
	
	
	
	
PSTAT	PSTAT	REF600-11020	Potentiostat
VDC	POTEN	0.00000E+000	T	DC &Voltage (V)
FREQINIT	QUANT	1.00000E+006	Initial Fre&q. (Hz)
FREQFINAL	QUANT	1.00000E+000	Final Fre&q. (Hz)
PTSPERDEC	QUANT	1.00000E+001	Points/&decade
VAC	QUANT	2.50000E+001	AC &Voltage (mV rms)
AREA	QUANT	1.00000E-002	&Area (cm^2)
CONDIT	TWOPARAM	T	5.00000E+000	0.00000E+000	Conditionin&g	Time(s)	E(V)
DELAY	TWOPARAM	T	5.00000E+000	0.00000E+000	Init. De&lay	Time(s)	Stab.(mV/s)
SPEED	SELECTOR	1	&Optimize for:
ZGUESS	QUANT	1.00000E+005	E&stimated Z (ohms)
OCVCURVE	TABLE	19
	Pt	T	Vf	Vm	Ach	Over
	#	s	V vs. Ref.	V	V	bits
	0	0.258333	5.85263E-003	5.85263E-003	5.62132E-004	...........
	1	0.516667	5.85444E-003	5.94755E-003	5.61899E-004	...........
	2	0.775	5.86595E-003	6.05692E-003	5.66999E-004	...........
	3	1.03333	5.90014E-003	6.18323E-003	5.64766E-004	...........
	4	1.29167	5.96556E-003	6.30951E-003	5.66666E-004	...........
	5	1.55	6.05933E-003	6.40302E-003	5.61399E-004	...........
	6	1.80833	6.16977E-003	6.51833E-003	5.57766E-004	...........
	7	2.06667	6.28489E-003	6.63656E-003	5.64132E-004	...........
	8	2.325	6.39906E-003	6.74438E-003	5.64899E-004	...........
	9	2.58333	6.51150E-003	6.82870E-003	5.62599E-004	...........
	10	2.84167	6.62156E-003	6.96216E-003	5.65466E-004	...........
	11	3.1	6.72966E-003	7.08117E-003	5.63699E-004	...........
	12	3.35833	6.83870E-003	7.17091E-003	5.63732E-004	...........
	13	3.61667	6.94927E-003	7.26762E-003	5.67499E-004	...........
	14	3.875	7.05793E-003	7.37136E-003	5.59799E-004	...........
	15	4.13333	7.16228E-003	7.47275E-003	5.60866E-004	...........
	16	4.39167	7.26354E-003	7.57089E-003	5.56266E-004	...........
	17	4.65	7.36298E-003	7.63117E-003	5.57199E-004	...........
	18	4.90833	7.45893E-003	7.72732E-003	5.60066E-004	...........
EOC	QUANT	0.0074589	Open Circuit (V)
PSTATMODEL	IQUANT	4	Pstat Model
PSTATSECTION	LABEL	REF600-11020	Pstat Section
PSTATSERIALNO	LABEL	11020	Pstat Serial Number
CTRLMODE	IQUANT	1	Control Mode
IESTAB	IQUANT	0	I/E Stability
CASPEED	IQUANT	1	Control Amp Speed
CONVENTION	IQUANT	1	Current Convention
ICHRANGE	IQUANT	2	Ich Range
ICHRANGEMODE	TOGGLE	F	Ich Auto Range
ICHOFFSETENABLE	TOGGLE	T	Ich Offset Enable
ICHOFFSET	QUANT	0	Ich Offset (V)
ICHFILTER	IQUANT	3	Ich Filter
VCHRANGE	IQUANT	2	Vch Range
VCHRANGEMODE	TOGGLE	F	Vch Auto Range
VCHOFFSETENABLE	TOGGLE	T	Vch Offset Enable
VCHOFFSET	QUANT	0	Vch Offset (V)
VCHFILTER	IQUANT	3	Vch Filter
ACHRANGE	IQUANT	2	Ach Range
ACHOFFSETENABLE	TOGGLE	F	Ach Offset Enable
ACHOFFSET	QUANT	0	Ach Offset (V)
ACHFILTER	IQUANT	3	Ach Filter
IERANGELOWERLIMIT	IQUANT	1	I/E Range Lower Limit
IERANGEMODE	TOGGLE	F	I/E AutoRange
IERANGE	IQUANT	5	I/E Range
POSFEEDENABLE	TOGGLE	F	Positive Feedback IR Comp
POSFEEDRESISTANCE	QUANT	0	Positive Feedback Resistance (ohm)
ACHSELECT	IQUANT	0	Ach Select
CABLEID	IQUANT	14	Cable ID
DCCALDATE	LABEL	8/19/2019	DC Calibration Date
ACCALDATE	LABEL	8/19/2019	AC Calibration Date
THERMOSELECT	IQUANT	1	Thermo Select
FRAMEWORKVERSION	QUANT	6.33	Framework Version
INSTRUMENTVERSION	LABEL	3.50	Instrument Version
ZCURVE	TABLE
	Pt	Time	Freq	Zreal	Zimag	Zsig	Zmod	Zphz	Idc	Vdc	IERange
	#	s	Hz	ohm	ohm	V	ohm	°	A	V	#
	0	1	1000078	2459.901	-1750.051	1	3018.906	-35.42923	-9.493666E-008	0.0092117	8
	1	3	794390.6	2769.994	-1742.157	1	3272.305	-32.16739	-1.143791E-006	0.0099196	8
	2	4	630984.4	3084.992	-1713.206	1	3528.775	-29.04497	-1.55955E-006	0.0089418	8
	3	5	501234.4	3401.148	-1652.973	1	3781.551	-25.91996	-6.394944E-006	0.0100827	8
	4	7	398109.4	3687.538	-1560.68	1	4004.205	-22.93958	-8.401489E-007	0.009484	8
	5	8	316265.6	3950.91	-1438.671	1	4204.696	-20.00842	-8.578605E-007	0.0094886	8
	6	10	251203.1	4174.713	-1305.866	1	4374.188	-17.36988	-1.492052E-006	0.0088134	8
	7	11	199546.9	4370.138	-1165.8	1	4522.963	-14.93668	5.802384E-006	0.0083714	8
	8	13	158578.1	4490.501	-1022.726	1	4605.494	-12.83044	-4.440392E-006	0.0093667	8
	9	14	125953.1	4678.531	-835.512	1	4752.55	-10.12538	-1.591441E-006	0.0131982	7
	10	15	100078.1	4749.041	-723.0118	1	4803.762	-8.656454	-1.086296E-006	0.0095242	7
	11	17	79453.13	4819.992	-626.0822	1	4860.483	-7.400872	-3.160157E-007	0.0104266	7
	12	18	63140.62	4875.089	-548.546	1	4905.854	-6.41993	-6.600563E-007	0.0106693	7
	13	19	50203.12	4924.988	-488.5934	1	4949.165	-5.665606	1.145824E-006	0.0074572	7
	14	21	39890.62	4950.836	-443.2849	1	4970.642	-5.11647	-9.46111E-007	0.0107435	7
	15	22	31640.63	4982.15	-409.5427	1	4998.954	-4.699263	1.348895E-007	0.0075306	7
	16	23	25171.88	5002.789	-393.3888	1	5018.232	-4.496139	-1.284071E-006	0.0104934	7
	17	25	20015.62	5024.019	-403.5219	1	5040.198	-4.592055	-3.131982E-007	0.0104039	7
	18	26	15890.62	5064.842	-403.1672	1	5080.863	-4.551213	6.306946E-007	0.0092166	7
	19	27	12609.37	5086.727	-425.3487	1	5104.48	-4.779914	1.035164E-006	0.0072103	7
	20	29	10078.13	5097.482	-465.9864	1	5118.737	-5.223176	-9.422183E-007	0.0107327	7
	21	30	8015.625	5119.463	-516.5419	1	5145.456	-5.761513	-9.432903E-007	0.0107275	7
	22	32	6328.125	5149.316	-591.4248	1	5183.169	-6.551998	-7.498061E-007	0.0087998	7
	23	33	5015.625	5180.579	-691.6911	1	5226.551	-7.604936	-1.147657E-006	0.0106655	7
	24	34	3984.375	5224.535	-812.4482	1	5287.328	-8.839061	-3.069301E-007	0.0080748	7
	25	36	3170.956	5249.316	-973.394	1	5338.803	-10.50518	-9.41004E-007	0.0107272	7
	26	37	2527.573	5296.835	-1168.236	1	5424.135	-12.43767	5.211484E-007	0.0072304	7
	27	38	1976.103	5345.672	-1428.42	1	5533.227	-14.96051	-6.554526E-007	0.0106442	7
	28	40	1577.524	5406.971	-1731.75	1	5677.525	-17.75928	5.215859E-007	0.0072282	7
	29	41	1265.625	5474.262	-2089.963	1	5859.649	-20.89585	-9.424683E-007	0.0107278	7
	30	42	998.264	5573.49	-2579.655	1	6141.531	-24.83676	1.142113E-006	0.0074536	7
	31	44	796.875	5680.451	-3141.337	1	6491.188	-28.94296	8.206435E-007	0.0071253	7
	32	45	627.7902	5825.026	-3869.131	1	6992.933	-33.59313	5.165986E-007	0.0072401	7
	33	46	505.5147	5995.651	-4687.088	1	7610.297	-38.01645	-3.068278E-007	0.0104014	7
	34	48	397.9953	6239.68	-5790.711	1	8512.693	-42.86274	7.751257E-009	0.0090058	7
	35	49	315.5048	6548.741	-7107.373	1	9664.41	-47.34249	3.803408E-009	0.0090133	7
	36	50	252.4038	6942.191	-8647.108	1	11089.03	-51.24133	5.876447E-010	0.0089447	6
	37	52	198.6229	7494.832	-10658.68	1	13029.96	-54.88637	3.978201E-010	0.0089549	6
	38	53	158.3615	8189.597	-12963.53	1	15333.71	-57.71771	3.30079E-010	0.0089522	6
	39	55	125.558	9128.24	-15810.43	1	18256.36	-59.99977	8.788791E-010	0.0089509	6
	40	56	100.4464	10317.36	-19077.92	1	21689.05	-61.59544	8.886138E-010	0.008954	6
	41	57	79.00281	12026.07	-23265.05	1	26189.48	-62.66484	8.892663E-010	0.0089455	6
	42	59	63.3446	14179.53	-27562.66	1	30996.12	-62.77658	9.102534E-011	0.0089441	6
	43	60	49.86702	16983.67	-33565.08	1	37617.28	-63.16094	8.970668E-010	0.0089477	6
	44	61	39.72458	20479.71	-39578.28	1	44562.97	-62.64077	4.763093E-010	0.0089401	6
	45	63	31.6723	24893.06	-46522.48	1	52763.67	-61.84983	-1.088641E-010	0.0089405	6
	46	64	24.93351	30751.27	-54566.7	1	62635.18	-60.59641	-5.899298E-011	0.0089432	6
	47	65	19.86229	37403.04	-63033.41	1	73295.28	-59.31577	-1.069413E-009	0.0089486	6
	48	67	15.83615	45363.18	-71900.42	1	85014.64	-57.75148	5.303601E-010	0.0089448	6
	49	68	12.40079	55190.41	-82276.02	1	99072.3	-56.14645	1.488918E-009	0.0089347	6
	50	70	9.93114	64935.39	-92601.87	1	113100.4	-54.96063	8.881537E-010	0.0089346	5
	51	71	7.944915	75720.92	-103607.9	1	128328.7	-53.83913	-4.826247E-010	0.0089541	5
	52	73	6.317385	87224.3	-116261.8	1	145344	-53.12128	-6.754434E-010	0.0089573	5
	53	75	5.008013	99750.9	-130895.1	1	164571.5	-52.69017	-2.221039E-010	0.0089363	5
	54	77	3.945707	112991.3	-148328.9	1	186463.1	-52.70122	3.53762E-010	0.0089448	5
	55	80	3.158693	126296.6	-167749.1	1	209977.7	-53.02428	-1.018875E-010	0.0089461	5
	56	83	2.504006	140818.6	-192147.4	1	238223.6	-53.7635	4.774067E-011	0.008926	5
	57	86	1.998082	155662	-220653.8	1	270034.7	-54.79863	-3.053341E-010	0.0089557	5
	58	89	1.584686	173016.9	-256771.7	1	309623.2	-56.02727	3.39137E-011	0.0089913	5
	59	93	1.266892	190600.4	-298449.1	1	354119.2	-57.43623	-2.385623E-010	0.0089494	5
	60	97	0.999041	211780.6	-353542.9	1	412120.9	-59.07739	1.413313E-010	0.0089416	5
