EXPLAIN
TAG	EISPOT
TITLE	LABEL	Potentiostatic EIS	Test &Identifier
DATE	LABEL	8/14/2018	Date
TIME	LABEL	4:49:55	Time
NOTES	NOTES	1	&Notes...
	
PSTAT	PSTAT	REF600-11020	Potentiostat
VDC	POTEN	0.00000E+000	T	DC &Voltage (V)
FREQINIT	QUANT	1.00000E+006	Initial Fre&q. (Hz)
FREQFINAL	QUANT	1.00000E+000	Final Fre&q. (Hz)
PTSPERDEC	QUANT	1.00000E+001	Points/&decade
VAC	QUANT	2.50000E+001	AC &Voltage (mV rms)
AREA	QUANT	1.00000E-002	&Area (cm^2)
CONDIT	TWOPARAM	T	5.00000E+000	0.00000E+000	Conditionin&g	Time(s)	E(V)
DELAY	TWOPARAM	T	5.00000E+000	0.00000E+000	Init. De&lay	Time(s)	Stab.(mV/s)
SPEED	SELECTOR	0	&Optimize for:
ZGUESS	QUANT	1.00000E+005	E&stimated Z (ohms)
OCVCURVE	TABLE	19
	Pt	T	Vf	Vm	Ach	Over
	#	s	V vs. Ref.	V	V	bits
	0	0.258333	3.15210E-003	3.15210E-003	5.51299E-004	...........
	1	0.516667	3.14989E-003	3.03685E-003	5.46199E-004	...........
	2	0.775	3.13645E-003	2.93129E-003	5.47466E-004	...........
	3	1.03333	3.09884E-003	2.84053E-003	5.49133E-004	...........
	4	1.29167	3.03299E-003	2.75948E-003	5.54499E-004	...........
	5	1.55	2.94844E-003	2.68556E-003	5.50799E-004	...........
	6	1.80833	2.85908E-003	2.61787E-003	5.51999E-004	...........
	7	2.06667	2.77422E-003	2.55870E-003	5.49899E-004	...........
	8	2.325	2.69725E-003	2.49868E-003	5.47633E-004	...........
	9	2.58333	2.62794E-003	2.44453E-003	5.50699E-004	...........
	10	2.84167	2.56465E-003	2.39084E-003	5.51499E-004	...........
	11	3.1	2.50586E-003	2.34877E-003	5.44733E-004	...........
	12	3.35833	2.45096E-003	2.30201E-003	5.48333E-004	...........
	13	3.61667	2.39982E-003	2.25625E-003	5.45899E-004	...........
	14	3.875	2.35185E-003	2.21842E-003	5.49366E-004	...........
	15	4.13333	2.30654E-003	2.18855E-003	5.52832E-004	...........
	16	4.39167	2.26480E-003	2.17852E-003	5.50933E-004	...........
	17	4.65	2.22893E-003	2.15944E-003	5.53266E-004	...........
	18	4.90833	2.19955E-003	2.09166E-003	5.46733E-004	...........
EOC	QUANT	0.0021995	Open Circuit (V)
PSTATMODEL	IQUANT	4	Pstat Model
PSTATSECTION	LABEL	REF600-11020	Pstat Section
PSTATSERIALNO	LABEL	11020	Pstat Serial Number
CTRLMODE	IQUANT	1	Control Mode
IESTAB	IQUANT	0	I/E Stability
CASPEED	IQUANT	1	Control Amp Speed
CONVENTION	IQUANT	1	Current Convention
ICHRANGE	IQUANT	2	Ich Range
ICHRANGEMODE	TOGGLE	F	Ich Auto Range
ICHOFFSETENABLE	TOGGLE	T	Ich Offset Enable
ICHOFFSET	QUANT	0	Ich Offset (V)
ICHFILTER	IQUANT	3	Ich Filter
VCHRANGE	IQUANT	2	Vch Range
VCHRANGEMODE	TOGGLE	F	Vch Auto Range
VCHOFFSETENABLE	TOGGLE	T	Vch Offset Enable
VCHOFFSET	QUANT	0	Vch Offset (V)
VCHFILTER	IQUANT	3	Vch Filter
ACHRANGE	IQUANT	2	Ach Range
ACHOFFSETENABLE	TOGGLE	F	Ach Offset Enable
ACHOFFSET	QUANT	0	Ach Offset (V)
ACHFILTER	IQUANT	3	Ach Filter
IERANGELOWERLIMIT	IQUANT	1	I/E Range Lower Limit
IERANGEMODE	TOGGLE	F	I/E AutoRange
IERANGE	IQUANT	4	I/E Range
POSFEEDENABLE	TOGGLE	F	Positive Feedback IR Comp
POSFEEDRESISTANCE	QUANT	0	Positive Feedback Resistance (ohm)
ACHSELECT	IQUANT	0	Ach Select
CABLEID	IQUANT	14	Cable ID
DCCALDATE	LABEL	8/19/2019	DC Calibration Date
ACCALDATE	LABEL	8/19/2019	AC Calibration Date
THERMOSELECT	IQUANT	1	Thermo Select
FRAMEWORKVERSION	QUANT	6.33	Framework Version
INSTRUMENTVERSION	LABEL	3.50	Instrument Version
ZCURVE	TABLE
	Pt	Time	Freq	Zreal	Zimag	Zsig	Zmod	Zphz	Idc	Vdc	IERange
	#	s	Hz	ohm	ohm	V	ohm	°	A	V	#
	0	1	1000078	1536.837	-394.3149	1	1586.617	-14.39028	-7.690351E-007	0.004218	8
	1	1	794390.6	1580.994	-339.5321	1	1617.041	-12.12066	5.244786E-006	0.0034236	8
	2	2	630984.4	1613.811	-294.1872	1	1640.406	-10.3312	-9.813748E-007	0.0039102	8
	3	2	501234.4	1641.186	-252.3417	1	1660.472	-8.7411	2.498076E-006	0.0034465	8
	4	2	398109.4	1660.55	-218.5546	1	1674.87	-7.497934	1.972214E-006	0.0034172	8
	5	3	316265.6	1677.747	-195.097	1	1689.052	-6.632855	-2.786918E-007	0.0039111	8
	6	3	251203.1	1694.084	-170.5152	1	1702.644	-5.747653	-1.052263E-007	0.0038415	8
	7	3	199546.9	1705.636	-159.1785	1	1713.048	-5.331685	3.356549E-006	0.0032053	8
	8	4	158578.1	1720.576	-147.0499	1	1726.848	-4.884943	1.527919E-007	0.0037134	8
	9	4	125953.1	1747.822	-114.3403	1	1751.558	-3.742884	-2.856099E-007	0.0038801	7
	10	4	100078.1	1752.538	-112.5908	1	1756.151	-3.675884	-9.731695E-010	0.0037428	7
	11	5	79453.13	1763.717	-120.1052	1	1767.802	-3.895701	3.007787E-008	0.0036797	7
	12	5	63140.62	1775.734	-129.8096	1	1780.472	-4.180997	-3.396991E-008	0.0038033	7
	13	5	50203.12	1789.146	-141.7251	1	1794.75	-4.529162	-4.273827E-008	0.0039118	7
	14	5	39890.62	1804.557	-154.9258	1	1811.195	-4.906957	-4.365894E-009	0.0037537	7
	15	6	31640.63	1820.237	-171.0741	1	1828.259	-5.369143	-1.82787E-008	0.0038335	7
	16	6	25171.88	1836.051	-190.026	1	1845.858	-5.908912	1.205209E-008	0.003773	7
	17	6	20015.62	1851.828	-215.2866	1	1864.3	-6.631226	-3.997071E-008	0.003862	7
	18	7	15890.62	1870.48	-242.2735	1	1886.105	-7.380137	-9.980741E-009	0.0038759	7
	19	7	12609.37	1889.879	-277.5148	1	1910.146	-8.353758	-3.766101E-008	0.0038077	7
	20	7	10078.13	1908.532	-320.5821	1	1935.269	-9.53514	-3.260252E-008	0.0037979	7
	21	8	8015.625	1929.791	-372.1138	1	1965.34	-10.91416	1.294122E-008	0.0037645	7
	22	8	6328.125	1952.302	-439.922	1	2001.253	-12.69865	-1.500634E-008	0.0038207	7
	23	8	5015.625	1977.51	-522.4551	1	2045.362	-14.79931	-3.743747E-008	0.0038102	7
	24	9	3984.375	2002.728	-622.3702	1	2097.204	-17.26322	-3.522311E-008	0.0037975	7
	25	9	3170.956	2032.791	-748.077	1	2166.07	-20.20386	-1.775348E-008	0.0038307	7
	26	9	2527.573	2065.449	-900.5757	1	2253.246	-23.55813	9.121765E-008	0.003645	7
	27	9	1976.103	2106.354	-1107.81	1	2379.91	-27.74156	4.781333E-008	0.0037661	7
	28	10	1577.524	2154.508	-1352.973	1	2544.099	-32.12771	1.478229E-008	0.0037638	7
	29	10	1265.625	2202.445	-1627.678	1	2738.631	-36.46561	1.402766E-008	0.0037623	7
	30	10	998.264	2272.47	-2005.428	1	3030.819	-41.42803	6.273347E-008	0.003655	7
	31	11	796.875	2354.728	-2447.507	1	3396.327	-46.10681	5.214537E-008	0.0036607	7
	32	11	627.7902	2462.805	-3026.641	1	3902.046	-50.86443	-5.222147E-008	0.0038519	7
	33	11	505.5147	2591.757	-3669.142	1	4492.194	-54.76392	1.524033E-008	0.003761	7
	34	12	397.9953	2773.306	-4539.94	1	5319.989	-58.58056	-2.195302E-009	0.0037995	7
	35	12	315.5048	3002.083	-5578.799	1	6335.259	-61.71426	-2.218192E-009	0.0037986	7
	36	12	252.4038	3285.451	-6792.713	1	7545.538	-64.18821	-4.045125E-009	0.0037998	7
	37	13	198.6229	3684.959	-8381.926	1	9156.179	-66.2682	-4.259434E-009	0.0038001	7
	38	13	158.3615	4178.808	-10206.05	1	11028.41	-67.73364	2.375926E-010	0.0037391	6
	39	13	125.558	4833.315	-12464.47	1	13368.77	-68.80534	-6.866006E-010	0.0037457	6
	40	14	100.4464	5643.126	-15073.7	1	16095.38	-69.47566	-1.743625E-009	0.0037376	6
	41	14	79.00281	6793.781	-18451.78	1	19662.75	-69.78674	-5.442265E-010	0.0037396	6
	42	14	63.3446	7942.607	-22145.2	1	23526.47	-70.2691	-1.191612E-009	0.0037368	6
	43	15	49.86702	9801.59	-26775.7	1	28513.32	-69.89419	2.200275E-010	0.0037323	6
	44	15	39.72458	12127.48	-32113.56	1	34327.2	-69.31127	-8.049079E-010	0.0037405	6
	45	15	31.6723	14789.67	-38228.59	1	40989.75	-68.84982	-1.051841E-009	0.0037393	6
	46	16	24.93351	18446.54	-45874.99	1	49444.81	-68.09473	-1.745458E-009	0.0037374	6
	47	16	19.86229	22584.59	-54343.17	1	58849.33	-67.43262	-1.183665E-009	0.003744	6
	48	16	15.83615	27018.68	-63834.78	1	69317.3	-67.05903	3.548124E-010	0.003736	6
	49	16	12.40079	34183.49	-76635.14	1	83913.38	-65.9605	-8.806778E-010	0.0037411	6
	50	17	9.93114	41653.82	-89297.45	1	98534.6	-64.99276	1.422825E-010	0.003738	6
	51	17	7.944915	50388.46	-104101.7	1	115655.3	-64.17157	8.407387E-010	0.0037313	5
	52	18	6.317385	60900.95	-121910.5	1	136275.8	-63.45537	8.832428E-010	0.0037241	5
	53	19	5.008013	74142.01	-142460.1	1	160598.6	-62.50571	1.712812E-010	0.0037335	5
	54	20	3.945707	89899.77	-166234.8	1	188986.7	-61.59549	2.545245E-010	0.0037427	5
	55	21	3.158693	107441.3	-191922.5	1	219949.7	-60.75921	-1.438677E-010	0.003745	5
	56	23	2.504006	128225.6	-222012.7	1	256381.5	-59.99101	-2.310171E-010	0.0037348	5
	57	24	1.998082	151455.5	-254455.4	1	296118.7	-59.23828	1.844062E-010	0.0037756	5
	58	26	1.584686	177804.5	-293677.1	1	343308.4	-58.80751	1.635264E-010	0.0037717	5
	59	28	1.266892	206161.9	-336348.6	1	394503.7	-58.49415	6.917518E-011	0.0037383	5
	60	30	0.999041	240627.3	-388911.1	1	457332.8	-58.25407	3.345368E-011	0.0037137	5
