EXPLAIN
TAG	EISPOT
TITLE	LABEL	Potentiostatic EIS	Test &Identifier
DATE	LABEL	10/18/2019	Date
TIME	LABEL	9:56:50	Time
NOTES	NOTES	1	&Notes...
	
PSTAT	PSTAT	REF600-11020	Potentiostat
VDC	POTEN	0.00000E+000	T	DC &Voltage (V)
FREQINIT	QUANT	1.00000E+006	Initial Fre&q. (Hz)
FREQFINAL	QUANT	1.00000E+000	Final Fre&q. (Hz)
PTSPERDEC	QUANT	1.00000E+001	Points/&decade
VAC	QUANT	2.50000E+001	AC &Voltage (mV rms)
AREA	QUANT	1.00000E-002	&Area (cm^2)
CONDIT	TWOPARAM	T	5.00000E+000	0.00000E+000	Conditionin&g	Time(s)	E(V)
DELAY	TWOPARAM	T	5.00000E+000	0.00000E+000	Init. De&lay	Time(s)	Stab.(mV/s)
SPEED	SELECTOR	0	&Optimize for:
ZGUESS	QUANT	1.00000E+005	E&stimated Z (ohms)
OCVCURVE	TABLE	19
	Pt	T	Vf	Vm	Ach	Over
	#	s	V vs. Ref.	V	V	bits
	0	0.258333	5.58916E-003	5.58916E-003	5.23566E-004	...........
	1	0.516667	5.58820E-003	5.53870E-003	5.28500E-004	...........
	2	0.775	5.58290E-003	5.52315E-003	5.25866E-004	...........
	3	1.03333	5.56944E-003	5.48179E-003	5.18366E-004	...........
	4	1.29167	5.54846E-003	5.51176E-003	5.26000E-004	...........
	5	1.55	5.52743E-003	5.54919E-003	5.29533E-004	...........
	6	1.80833	5.51620E-003	5.52682E-003	5.32633E-004	...........
	7	2.06667	5.51747E-003	5.54031E-003	5.32800E-004	...........
	8	2.325	5.52554E-003	5.57101E-003	5.30866E-004	...........
	9	2.58333	5.53567E-003	5.56939E-003	5.30633E-004	...........
	10	2.84167	5.54722E-003	5.58401E-003	5.26066E-004	...........
	11	3.1	5.55983E-003	5.61009E-003	5.27600E-004	...........
	12	3.35833	5.57319E-003	5.61738E-003	5.21800E-004	...........
	13	3.61667	5.58787E-003	5.64469E-003	5.21133E-004	...........
	14	3.875	5.60429E-003	5.66939E-003	5.24666E-004	...........
	15	4.13333	5.62266E-003	5.68025E-003	5.18566E-004	...........
	16	4.39167	5.64275E-003	5.71830E-003	5.19433E-004	...........
	17	4.65	5.66422E-003	5.73745E-003	5.16066E-004	...........
	18	4.90833	5.68704E-003	5.75394E-003	5.20500E-004	...........
EOC	QUANT	0.005687	Open Circuit (V)
PSTATMODEL	IQUANT	4	Pstat Model
PSTATSECTION	LABEL	REF600-11020	Pstat Section
PSTATSERIALNO	LABEL	11020	Pstat Serial Number
CTRLMODE	IQUANT	1	Control Mode
IESTAB	IQUANT	0	I/E Stability
CASPEED	IQUANT	1	Control Amp Speed
CONVENTION	IQUANT	1	Current Convention
ICHRANGE	IQUANT	2	Ich Range
ICHRANGEMODE	TOGGLE	F	Ich Auto Range
ICHOFFSETENABLE	TOGGLE	T	Ich Offset Enable
ICHOFFSET	QUANT	0	Ich Offset (V)
ICHFILTER	IQUANT	3	Ich Filter
VCHRANGE	IQUANT	2	Vch Range
VCHRANGEMODE	TOGGLE	F	Vch Auto Range
VCHOFFSETENABLE	TOGGLE	T	Vch Offset Enable
VCHOFFSET	QUANT	0	Vch Offset (V)
VCHFILTER	IQUANT	3	Vch Filter
ACHRANGE	IQUANT	2	Ach Range
ACHOFFSETENABLE	TOGGLE	F	Ach Offset Enable
ACHOFFSET	QUANT	0	Ach Offset (V)
ACHFILTER	IQUANT	3	Ach Filter
IERANGELOWERLIMIT	IQUANT	1	I/E Range Lower Limit
IERANGEMODE	TOGGLE	F	I/E AutoRange
IERANGE	IQUANT	5	I/E Range
POSFEEDENABLE	TOGGLE	F	Positive Feedback IR Comp
POSFEEDRESISTANCE	QUANT	0	Positive Feedback Resistance (ohm)
ACHSELECT	IQUANT	0	Ach Select
CABLEID	IQUANT	14	Cable ID
DCCALDATE	LABEL	8/19/2019	DC Calibration Date
ACCALDATE	LABEL	8/19/2019	AC Calibration Date
THERMOSELECT	IQUANT	1	Thermo Select
FRAMEWORKVERSION	QUANT	6.33	Framework Version
INSTRUMENTVERSION	LABEL	3.50	Instrument Version
ZCURVE	TABLE
	Pt	Time	Freq	Zreal	Zimag	Zsig	Zmod	Zphz	Idc	Vdc	IERange
	#	s	Hz	ohm	ohm	V	ohm	°	A	V	#
	0	2	1000078	2686.127	-1974.55	1	3333.785	-36.31931	-8.965279E-007	0.0084613	8
	1	2	794390.6	3032.421	-1965.296	1	3613.58	-32.94706	-1.067961E-006	0.0080616	8
	2	2	630984.4	3399.373	-1877.569	1	3883.427	-28.9131	4.74652E-006	0.006753	8
	3	3	501234.4	3721.128	-1745.622	1	4110.23	-25.13178	4.476248E-007	0.0071921	8
	4	3	398109.4	4024.693	-1623.927	1	4339.965	-21.97363	1.02563E-006	0.0071377	8
	5	3	316265.6	4266.762	-1456.115	1	4508.384	-18.8432	2.200909E-006	0.0069063	8
	6	4	251203.1	4472.692	-1302.987	1	4658.621	-16.24192	-2.117003E-007	0.0074764	8
	7	4	199546.9	4620.278	-1164.982	1	4764.887	-14.15188	-7.683354E-007	0.0076752	8
	8	4	158578.1	4765.264	-1053.859	1	4880.405	-12.47049	-2.948746E-006	0.007971	8
	9	5	125953.1	4908.939	-841.1089	1	4980.477	-9.72278	6.581549E-007	0.0060413	7
	10	5	100078.1	4972.085	-774.1031	1	5031.985	-8.849326	-1.269315E-008	0.0072996	7
	11	5	79453.13	5047.111	-717.2806	1	5097.825	-8.088542	6.532217E-008	0.0072256	7
	12	6	63140.62	5110.983	-680.5999	1	5156.1	-7.58512	-3.6948E-008	0.0073612	7
	13	6	50203.12	5172.911	-658.1754	1	5214.615	-7.251068	-5.870345E-009	0.0074626	7
	14	6	39890.62	5231.988	-652.4605	1	5272.514	-7.108433	-1.219308E-008	0.0073591	7
	15	6	31640.63	5290.381	-661.714	1	5331.604	-7.129457	-7.723162E-008	0.007455	7
	16	7	25171.88	5350.837	-685.6824	1	5394.591	-7.302363	8.775802E-008	0.0072712	7
	17	7	20015.62	5397.222	-720.3692	1	5445.084	-7.602357	-2.494794E-008	0.00731	7
	18	7	15890.62	5483.503	-784.5128	1	5539.338	-8.141932	4.113919E-008	0.0072804	7
	19	8	12609.37	5555.77	-862.4166	1	5622.307	-8.823545	3.978431E-008	0.0071984	7
	20	8	10078.13	5639.759	-948.708	1	5718.998	-9.54877	8.956297E-008	0.0072695	7
	21	8	8015.625	5730.471	-1089.21	1	5833.067	-10.76202	9.05678E-008	0.0072617	7
	22	9	6328.125	5826.575	-1201.836	1	5949.234	-11.65483	6.566129E-008	0.0072142	7
	23	9	5015.625	5936.682	-1370.263	1	6092.768	-12.99699	9.096475E-008	0.0072624	7
	24	9	3984.375	6086.093	-1558.096	1	6282.372	-14.35983	-5.244669E-009	0.0074501	7
	25	10	3170.956	6191.231	-1805.021	1	6448.988	-16.25376	1.322911E-007	0.0071167	7
	26	10	2527.573	6342.056	-2079.083	1	6674.149	-18.15043	-3.880485E-008	0.0073332	7
	27	10	1976.103	6510.545	-2442.219	1	6953.534	-20.56194	4.232512E-008	0.0072767	7
	28	11	1577.524	6710.09	-2965.524	1	7336.187	-23.84303	3.487895E-008	0.00719	7
	29	11	1265.625	6883.654	-3313.018	1	7639.422	-25.70094	-4.244364E-008	0.0073458	7
	30	11	998.264	7117.049	-3922.264	1	8126.288	-28.85952	6.540431E-008	0.0072152	7
	31	12	796.875	7358.35	-4639.116	1	8698.661	-32.22963	-5.330912E-009	0.0074525	7
	32	12	627.7902	7641.723	-5556.029	1	9448.036	-36.01959	-3.589596E-008	0.0073623	7
	33	12	505.5147	7932.449	-6564.388	1	10296.36	-39.60899	-6.691864E-009	0.0073282	6
	34	13	397.9953	8291.712	-7941.207	1	11481.08	-43.76305	1.067408E-009	0.0072791	6
	35	13	315.5048	8693.112	-9586.34	1	12940.95	-47.79755	4.775971E-011	0.0072779	6
	36	13	252.4038	9142.477	-11537.26	1	14720.5	-51.60562	-7.505468E-010	0.0072738	6
	37	14	198.6229	9713.24	-14122.14	1	17140.07	-55.47971	7.415599E-011	0.0072733	6
	38	14	158.3615	10375.16	-17136.06	1	20032.18	-58.80687	-7.517595E-010	0.0072733	6
	39	14	125.558	11212.89	-20951.52	1	23763.32	-61.84509	-2.52708E-010	0.0072753	6
	40	15	100.4464	12177.92	-25434.19	1	28199.29	-64.41485	1.569033E-009	0.0072751	6
	41	15	79.00281	13520.64	-31294.65	1	34090.51	-66.63358	9.714549E-012	0.0072727	6
	42	15	63.3446	16074.43	-38233.95	1	41475.56	-67.19699	2.979289E-010	0.0072698	6
	43	16	49.86702	18283.5	-47137.77	1	50559.43	-68.80004	1.632709E-009	0.0072652	6
	44	16	39.72458	20825.07	-56891.68	1	60583.39	-69.89496	6.364892E-010	0.0072684	6
	45	16	31.6723	24407.29	-68983.06	1	73173.62	-70.51542	9.818333E-010	0.0072683	6
	46	17	24.93351	30384.66	-84644.38	1	89932.74	-70.25346	2.9125E-010	0.0072706	6
	47	17	19.86229	37610.74	-102025	1	108736.7	-69.76398	-2.860832E-010	0.0072753	5
	48	17	15.83615	46608.05	-123097.9	1	131626	-69.26204	7.004355E-010	0.0072717	5
	49	18	12.40079	58093.05	-149822.1	1	160690.6	-68.80636	1.126961E-009	0.0072744	5
	50	18	9.93114	75287.41	-174395.3	1	189952.4	-66.64987	8.28993E-010	0.0072719	5
	51	18	7.944915	95944.3	-205417.5	1	226719.3	-64.96413	2.158527E-010	0.0072702	5
	52	19	6.317385	119882.9	-238917.9	1	267308.2	-63.35368	5.187192E-010	0.0072628	5
	53	20	5.008013	150672.5	-276755	1	315112	-61.43499	3.194649E-010	0.007279	5
	54	21	3.945707	187720	-318465.5	1	369674.3	-59.48271	9.988219E-011	0.0072715	5
	55	22	3.158693	229128.9	-359651	1	426437.4	-57.49933	-1.768954E-010	0.0072538	5
	56	24	2.504006	277142.6	-404773.1	1	490560.2	-55.6011	9.335368E-011	0.0072591	5
	57	25	1.998082	326659.4	-451775.6	1	557501.1	-54.13093	1.311624E-010	0.0072783	5
	58	27	1.584686	382873.5	-502500.2	1	631742.5	-52.69488	-7.338758E-011	0.0072277	5
	59	29	1.266892	440597.4	-559245	1	711955.8	-51.76743	-1.181474E-010	0.0072191	5
	60	31	0.999041	503272.8	-628254.4	1	804976.5	-51.303	-1.395561E-010	0.0072338	5
