EXPLAIN
TAG	EISPOT
TITLE	LABEL	Potentiostatic EIS	Test &Identifier
DATE	LABEL	10/2/2019	Date
TIME	LABEL	10:40:07	Time
NOTES	NOTES	2	&Notes...
	
	
PSTAT	PSTAT	REF600-11020	Potentiostat
VDC	POTEN	0.00000E+000	T	DC &Voltage (V)
FREQINIT	QUANT	1.00000E+006	Initial Fre&q. (Hz)
FREQFINAL	QUANT	1.00000E+000	Final Fre&q. (Hz)
PTSPERDEC	QUANT	1.00000E+001	Points/&decade
VAC	QUANT	2.50000E+001	AC &Voltage (mV rms)
AREA	QUANT	1.00000E-002	&Area (cm^2)
CONDIT	TWOPARAM	T	5.00000E+000	0.00000E+000	Conditionin&g	Time(s)	E(V)
DELAY	TWOPARAM	T	5.00000E+000	0.00000E+000	Init. De&lay	Time(s)	Stab.(mV/s)
SPEED	SELECTOR	1	&Optimize for:
ZGUESS	QUANT	1.00000E+004	E&stimated Z (ohms)
OCVCURVE	TABLE	19
	Pt	T	Vf	Vm	Ach	Over
	#	s	V vs. Ref.	V	V	bits
	0	0.258333	1.73377E-003	1.73377E-003	4.93133E-004	...........
	1	0.516667	1.73073E-003	1.57464E-003	4.92433E-004	...........
	2	0.775	1.73134E-003	2.43302E-003	4.90067E-004	...........
	3	1.03333	1.81798E-003	4.34678E-003	4.92333E-004	...........
	4	1.29167	2.19363E-003	6.48256E-003	4.89634E-004	...........
	5	1.55	3.00214E-003	5.00776E-003	4.90000E-004	...........
	6	1.80833	4.04320E-003	5.65112E-003	4.93033E-004	...........
	7	2.06667	4.87027E-003	4.04963E-003	4.94500E-004	...........
	8	2.325	5.12833E-003	7.79997E-004	4.84234E-004	...........
	9	2.58333	4.62978E-003	-2.78040E-004	4.81834E-004	...........
	10	2.84167	3.40998E-003	-1.04682E-003	4.89300E-004	...........
	11	3.1	1.87815E-003	5.18958E-004	4.93967E-004	...........
	12	3.35833	7.31486E-004	5.16590E-003	4.90867E-004	...........
	13	3.61667	6.40306E-004	6.46945E-003	4.88033E-004	...........
	14	3.875	1.72381E-003	3.87728E-003	4.92833E-004	...........
	15	4.13333	3.16100E-003	-3.69845E-004	4.94200E-004	...........
	16	4.39167	3.65823E-003	-4.78032E-003	4.90034E-004	...........
	17	4.65	2.48338E-003	-6.12514E-003	4.92433E-004	...........
	18	4.90833	-1.96313E-005	-7.47613E-003	4.90834E-004	...........
EOC	QUANT	-1.963129E-005	Open Circuit (V)
PSTATMODEL	IQUANT	4	Pstat Model
PSTATSECTION	LABEL	REF600-11020	Pstat Section
PSTATSERIALNO	LABEL	11020	Pstat Serial Number
CTRLMODE	IQUANT	1	Control Mode
IESTAB	IQUANT	0	I/E Stability
CASPEED	IQUANT	1	Control Amp Speed
CONVENTION	IQUANT	1	Current Convention
ICHRANGE	IQUANT	2	Ich Range
ICHRANGEMODE	TOGGLE	F	Ich Auto Range
ICHOFFSETENABLE	TOGGLE	T	Ich Offset Enable
ICHOFFSET	QUANT	0	Ich Offset (V)
ICHFILTER	IQUANT	3	Ich Filter
VCHRANGE	IQUANT	2	Vch Range
VCHRANGEMODE	TOGGLE	F	Vch Auto Range
VCHOFFSETENABLE	TOGGLE	T	Vch Offset Enable
VCHOFFSET	QUANT	0	Vch Offset (V)
VCHFILTER	IQUANT	3	Vch Filter
ACHRANGE	IQUANT	2	Ach Range
ACHOFFSETENABLE	TOGGLE	F	Ach Offset Enable
ACHOFFSET	QUANT	0	Ach Offset (V)
ACHFILTER	IQUANT	3	Ach Filter
IERANGELOWERLIMIT	IQUANT	1	I/E Range Lower Limit
IERANGEMODE	TOGGLE	F	I/E AutoRange
IERANGE	IQUANT	3	I/E Range
POSFEEDENABLE	TOGGLE	F	Positive Feedback IR Comp
POSFEEDRESISTANCE	QUANT	0	Positive Feedback Resistance (ohm)
ACHSELECT	IQUANT	0	Ach Select
CABLEID	IQUANT	14	Cable ID
DCCALDATE	LABEL	8/19/2019	DC Calibration Date
ACCALDATE	LABEL	8/19/2019	AC Calibration Date
THERMOSELECT	IQUANT	1	Thermo Select
FRAMEWORKVERSION	QUANT	6.33	Framework Version
INSTRUMENTVERSION	LABEL	3.50	Instrument Version
ZCURVE	TABLE
	Pt	Time	Freq	Zreal	Zimag	Zsig	Zmod	Zphz	Idc	Vdc	IERange
	#	s	Hz	ohm	ohm	V	ohm	°	A	V	#
	0	1	1000078	2484.052	-1775.858	1	3053.553	-35.56112	-1.573349E-006	0.0028773	8
	1	3	794390.6	2843.754	-1716.822	1	3321.809	-31.12009	-4.303655E-006	0.002837	8
	2	4	630984.4	3160.193	-1595.432	1	3540.088	-26.78705	8.339584E-007	0.00192	8
	3	6	501234.4	3425.715	-1450.872	1	3720.29	-22.95382	6.011942E-007	0.001651	8
	4	7	398109.4	3662.051	-1316.535	1	3891.514	-19.77389	-2.535395E-006	0.0022876	8
	5	8	316265.6	3833.838	-1134.76	1	3998.249	-16.48799	7.843335E-007	0.0013831	8
	6	10	251203.1	3986.843	-979.816	1	4105.479	-13.8075	-1.163154E-007	0.0016958	8
	7	11	199546.9	4086.738	-834.7776	1	4171.125	-11.54471	-9.559483E-007	0.0017474	8
	8	12	158578.1	4170.755	-713.349	1	4231.319	-9.70572	4.092749E-006	0.0006993	8
	9	14	125953.1	4243.833	-592.7584	1	4285.03	-7.951359	-1.762154E-007	0.0026556	7
	10	15	100078.1	4286.649	-521.3461	1	4318.236	-6.934308	-6.221939E-009	0.0015402	7
	11	16	79453.13	4326.792	-472.8996	1	4352.558	-6.237423	4.767915E-008	0.0014061	7
	12	18	63140.62	4362.569	-435.174	1	4384.22	-5.696511	2.646461E-009	0.0015388	7
	13	19	50203.12	4394.973	-410.6025	1	4414.111	-5.337393	4.340199E-008	0.0014998	7
	14	21	39890.62	4426.135	-399.2195	1	4444.103	-5.153902	5.007947E-008	0.0014013	7
	15	22	31640.63	4455.99	-398.5736	1	4473.78	-5.111316	9.89486E-008	0.0014632	7
	16	23	25171.88	4484.164	-408.4402	1	4502.727	-5.204428	-6.216394E-008	0.0016577	7
	17	25	20015.62	4515.433	-430.7737	1	4535.934	-5.449543	9.881737E-008	0.0014586	7
	18	26	15890.62	4548.121	-465.2379	1	4571.854	-5.840604	1.356979E-008	0.0016366	7
	19	27	12609.37	4584.536	-512.1625	1	4613.056	-6.374381	5.00779E-008	0.0013981	7
	20	29	10078.13	4621.05	-571.9633	1	4656.312	-7.055811	4.455059E-008	0.0015007	7
	21	30	8015.625	4659.086	-650.1383	1	4704.229	-7.943872	-4.098218E-009	0.00153	7
	22	31	6328.125	4707.259	-751.869	1	4766.927	-9.074937	-4.149708E-008	0.0015544	7
	23	33	5015.625	4756.557	-876.9136	1	4836.715	-10.4457	-1.03522E-008	0.0015666	7
	24	34	3984.375	4812.2	-1028.96	1	4920.979	-12.06942	-1.151017E-008	0.0015686	7
	25	35	3170.956	4872.212	-1216.333	1	5021.744	-14.0172	-4.675248E-008	0.0016497	7
	26	37	2527.573	4941.726	-1442.69	1	5148.01	-16.27466	1.599419E-009	0.0015307	7
	27	38	1976.103	5027.661	-1749.338	1	5323.303	-19.18497	-1.037722E-008	0.0015663	7
	28	39	1577.524	5120.946	-2088.807	1	5530.57	-22.19029	2.229601E-008	0.0014454	7
	29	41	1265.625	5225.224	-2499.871	1	5792.437	-25.56756	-7.698161E-008	0.001644	7
	30	42	998.264	5359.038	-3035.973	1	6159.255	-29.53219	-2.896135E-008	0.0015412	7
	31	43	796.875	5509.374	-3658.97	1	6613.718	-33.58954	-5.826437E-008	0.0016221	7
	32	45	627.7902	5696.357	-4472.544	1	7242.384	-38.13754	1.330763E-008	0.0016331	7
	33	46	505.5147	5899.479	-5368.067	1	7976.215	-42.29976	5.714275E-008	0.0014408	7
	34	47	397.9953	6170.925	-6575.087	1	9017.321	-46.81618	6.170656E-009	0.0015614	7
	35	49	315.5048	6491.066	-8017.323	1	10315.59	-51.00533	-9.130146E-010	0.0015086	6
	36	50	252.4038	6861.628	-9714.2	1	11893.18	-54.76452	1.386397E-009	0.0015044	6
	37	52	198.6229	7346.921	-11949.64	1	14027.52	-58.41582	1.092253E-009	0.0014979	6
	38	53	158.3615	7915.397	-14545.46	1	16559.7	-61.4457	1.199607E-009	0.0014947	6
	39	54	125.558	8643.715	-17806.59	1	19793.65	-64.10703	7.014221E-010	0.0014977	6
	40	56	100.4464	9521.86	-21630.08	1	23633.16	-66.24023	5.486144E-010	0.0014987	6
	41	57	79.00281	10780.32	-26712.79	1	28806.05	-68.02278	1.283055E-009	0.0014958	6
	42	58	63.3446	12371.85	-32253.98	1	34545.36	-69.0144	9.702031E-010	0.0014943	6
	43	60	49.86702	14389.3	-39979.47	1	42490.12	-70.20531	3.407474E-010	0.0014945	6
	44	61	39.72458	16964.62	-48465.83	1	51349.14	-70.7083	8.867174E-010	0.0015016	6
	45	62	31.6723	20568.65	-58827.13	1	62319.35	-70.72804	1.224565E-009	0.0014944	6
	46	64	24.93351	25452.08	-71801.93	1	76179.56	-70.4818	8.139114E-010	0.0014954	6
	47	65	19.86229	31736.97	-86387.1	1	92032.42	-69.82764	1.296707E-009	0.0015029	6
	48	67	15.83615	39567.4	-103362	1	110676.5	-69.05296	4.100372E-010	0.0014987	5
	49	68	12.40079	51661.34	-125124.1	1	135369.6	-67.56521	1.180323E-009	0.0015028	5
	50	69	9.93114	64812.93	-146328.8	1	160040.1	-66.11017	1.479589E-009	0.0015056	5
	51	71	7.944915	81316.76	-171034.5	1	189381.1	-64.57168	-4.535002E-010	0.0014991	5
	52	73	6.317385	100191.6	-197124	1	221124.9	-63.05727	5.894857E-009	0.001498	5
	53	75	5.008013	126936.5	-228544.1	1	261429.3	-60.9516	-3.576586E-011	0.0015151	5
	54	77	3.945707	157324.7	-262502.1	1	306036.7	-59.06459	-1.795324E-010	0.0014967	5
	55	80	3.158693	189301.2	-296622.8	1	351880.7	-57.45446	3.44567E-010	0.0015124	5
	56	83	2.504006	226546.5	-334705.3	1	404167	-55.90775	-2.1787E-010	0.0015108	5
	57	86	1.998082	264405.9	-374148.8	1	458146.1	-54.75167	3.69354E-010	0.0014707	5
	58	89	1.584686	307387.8	-421671.7	1	521818.3	-53.90892	-3.706778E-011	0.0014667	5
	59	93	1.266892	350276	-471112.6	1	587060.8	-53.3689	2.891944E-010	0.0014678	5
	60	97	0.999041	398650.7	-535274.3	1	667413.6	-53.32275	-1.137852E-010	0.0015145	5
