EXPLAIN
TAG	EISPOT
TITLE	LABEL	Potentiostatic EIS	Test &Identifier
DATE	LABEL	11/15/2019	Date
TIME	LABEL	10:06:15	Time
NOTES	NOTES	4	&Notes...
	
	
	
	
PSTAT	PSTAT	REF600-11020	Potentiostat
VDC	POTEN	0.00000E+000	T	DC &Voltage (V)
FREQINIT	QUANT	1.00000E+006	Initial Fre&q. (Hz)
FREQFINAL	QUANT	1.00000E+000	Final Fre&q. (Hz)
PTSPERDEC	QUANT	1.00000E+001	Points/&decade
VAC	QUANT	2.50000E+001	AC &Voltage (mV rms)
AREA	QUANT	1.00000E-002	&Area (cm^2)
CONDIT	TWOPARAM	T	5.00000E+000	0.00000E+000	Conditionin&g	Time(s)	E(V)
DELAY	TWOPARAM	T	5.00000E+000	0.00000E+000	Init. De&lay	Time(s)	Stab.(mV/s)
SPEED	SELECTOR	0	&Optimize for:
ZGUESS	QUANT	1.00000E+005	E&stimated Z (ohms)
OCVCURVE	TABLE	19
	Pt	T	Vf	Vm	Ach	Over
	#	s	V vs. Ref.	V	V	bits
	0	0.258333	1.60561E-003	1.60561E-003	5.70866E-004	...........
	1	0.516667	1.59672E-003	1.14060E-003	5.69832E-004	...........
	2	0.775	1.54248E-003	7.15702E-004	5.70966E-004	...........
	3	1.03333	1.39069E-003	3.42682E-004	5.68466E-004	...........
	4	1.29167	1.12418E-003	-4.65935E-006	5.68066E-004	...........
	5	1.55	7.79461E-004	-3.19740E-004	5.66166E-004	...........
	6	1.80833	4.10538E-004	-6.22000E-004	5.67099E-004	...........
	7	2.06667	5.37120E-005	-9.01916E-004	5.65299E-004	...........
	8	2.325	-2.77734E-004	-1.16346E-003	5.64332E-004	...........
	9	2.58333	-5.83422E-004	-1.40373E-003	5.68366E-004	...........
	10	2.84167	-8.66467E-004	-1.63646E-003	5.64366E-004	...........
	11	3.1	-1.12996E-003	-1.85334E-003	5.62699E-004	...........
	12	3.35833	-1.37665E-003	-2.05914E-003	5.69499E-004	...........
	13	3.61667	-1.60886E-003	-2.25703E-003	5.64799E-004	...........
	14	3.875	-1.82838E-003	-2.44604E-003	5.63866E-004	...........
	15	4.13333	-2.03674E-003	-2.62277E-003	5.66966E-004	...........
	16	4.39167	-2.23513E-003	-2.80106E-003	5.67232E-004	...........
	17	4.65	-2.42460E-003	-2.96487E-003	5.67266E-004	...........
	18	4.90833	-2.60616E-003	-3.12550E-003	5.61566E-004	...........
EOC	QUANT	-0.0026062	Open Circuit (V)
PSTATMODEL	IQUANT	4	Pstat Model
PSTATSECTION	LABEL	REF600-11020	Pstat Section
PSTATSERIALNO	LABEL	11020	Pstat Serial Number
CTRLMODE	IQUANT	1	Control Mode
IESTAB	IQUANT	0	I/E Stability
CASPEED	IQUANT	1	Control Amp Speed
CONVENTION	IQUANT	1	Current Convention
ICHRANGE	IQUANT	2	Ich Range
ICHRANGEMODE	TOGGLE	F	Ich Auto Range
ICHOFFSETENABLE	TOGGLE	T	Ich Offset Enable
ICHOFFSET	QUANT	0	Ich Offset (V)
ICHFILTER	IQUANT	3	Ich Filter
VCHRANGE	IQUANT	2	Vch Range
VCHRANGEMODE	TOGGLE	F	Vch Auto Range
VCHOFFSETENABLE	TOGGLE	T	Vch Offset Enable
VCHOFFSET	QUANT	0	Vch Offset (V)
VCHFILTER	IQUANT	3	Vch Filter
ACHRANGE	IQUANT	2	Ach Range
ACHOFFSETENABLE	TOGGLE	F	Ach Offset Enable
ACHOFFSET	QUANT	0	Ach Offset (V)
ACHFILTER	IQUANT	3	Ach Filter
IERANGELOWERLIMIT	IQUANT	1	I/E Range Lower Limit
IERANGEMODE	TOGGLE	F	I/E AutoRange
IERANGE	IQUANT	4	I/E Range
POSFEEDENABLE	TOGGLE	F	Positive Feedback IR Comp
POSFEEDRESISTANCE	QUANT	0	Positive Feedback Resistance (ohm)
ACHSELECT	IQUANT	0	Ach Select
CABLEID	IQUANT	14	Cable ID
DCCALDATE	LABEL	8/19/2019	DC Calibration Date
ACCALDATE	LABEL	8/19/2019	AC Calibration Date
THERMOSELECT	IQUANT	1	Thermo Select
FRAMEWORKVERSION	QUANT	6.33	Framework Version
INSTRUMENTVERSION	LABEL	3.50	Instrument Version
ZCURVE	TABLE
	Pt	Time	Freq	Zreal	Zimag	Zsig	Zmod	Zphz	Idc	Vdc	IERange
	#	s	Hz	ohm	ohm	V	ohm	°	A	V	#
	0	2	1000078	2219.21	-1435.144	1	2642.827	-32.8904	-3.908051E-006	-0.000508	8
	1	2	794390.6	2500.94	-1328.807	1	2832.036	-27.98273	4.658085E-006	-0.0012657	8
	2	2	630984.4	2751.569	-1223.094	1	3011.161	-23.96553	-1.501135E-006	-0.0001753	8
	3	3	501234.4	2937.725	-1088.222	1	3132.803	-20.32615	-5.173588E-007	-0.0011486	8
	4	3	398109.4	3088.169	-960.705	1	3234.152	-17.2805	-6.641474E-007	-0.001209	8
	5	3	316265.6	3199.631	-820.2736	1	3303.102	-14.37897	-3.666225E-006	-0.0003769	8
	6	4	251203.1	3288.337	-707.235	1	3363.531	-12.13792	-4.329559E-006	-0.0006255	8
	7	4	199546.9	3348.712	-614.9381	1	3404.705	-10.40554	-4.313466E-006	-0.0006311	8
	8	4	158578.1	3389.83	-539.4105	1	3432.479	-9.04145	6.001422E-006	-0.0020153	8
	9	5	125953.1	3464.639	-438.3617	1	3492.26	-7.211004	-1.648007E-006	0.0030389	7
	10	5	100078.1	3491.137	-400.8983	1	3514.08	-6.550762	1.006158E-006	-0.0016689	7
	11	5	79453.13	3522.234	-374.8127	1	3542.12	-6.074178	-7.056423E-007	-0.0012041	7
	12	6	63140.62	3549.398	-362.6265	1	3567.874	-5.83342	-1.238846E-006	0.000449	7
	13	6	50203.12	3580.689	-362.5148	1	3598.993	-5.78102	1.008501E-006	-0.0016773	7
	14	6	39890.62	3608.624	-368.3362	1	3627.374	-5.828059	-9.166257E-007	0.0006823	7
	15	6	31640.63	3643.477	-386.2226	1	3663.89	-6.050976	9.995854E-007	-0.0026901	7
	16	7	25171.88	3676.196	-411.6421	1	3699.171	-6.389081	1.100249E-006	-0.0024569	7
	17	7	20015.62	3709.767	-447.7214	1	3736.686	-6.881585	5.974447E-007	-0.0007661	7
	18	7	15890.62	3749.862	-495.0907	1	3782.404	-7.521206	5.976353E-007	-0.0007691	7
	19	8	12609.37	3790.032	-552.4617	1	3830.085	-8.293427	-3.112198E-007	0.0003682	7
	20	8	10078.13	3836.27	-622.0947	1	3886.382	-9.210981	1.000845E-006	-0.0026933	7
	21	8	8015.625	3886.052	-712.8687	1	3950.896	-10.39493	1.100138E-006	-0.002457	7
	22	9	6328.125	3942.485	-824.2983	1	4027.736	-11.80933	1.106534E-006	-0.0021194	7
	23	9	5015.625	4002.017	-958.919	1	4115.296	-13.47454	8.062763E-007	-0.0027956	7
	24	9	3984.375	4064.649	-1121.439	1	4216.515	-15.42422	3.753472E-007	-0.0004579	7
	25	10	3170.956	4133.827	-1321.199	1	4339.826	-17.72423	-1.219367E-006	4.511153E-005	7
	26	10	2527.573	4213.163	-1560.681	1	4492.935	-20.32613	-1.112393E-006	0.0006006	7
	27	10	1976.103	4312.604	-1884.825	1	4706.498	-23.60774	-3.112995E-007	0.0003587	7
	28	11	1577.524	4420.458	-2249.811	1	4960.051	-26.97401	1.100524E-006	-0.0024625	7
	29	11	1265.625	4531.202	-2681.496	1	5265.188	-30.6164	1.107305E-006	-0.0021266	7
	30	11	998.264	4675.591	-3243.316	1	5690.364	-34.74787	-1.034585E-006	-0.0005334	7
	31	12	796.875	4835.608	-3902.834	1	6214.115	-38.9071	-3.108088E-007	0.0003602	7
	32	12	627.7902	5028.225	-4753.091	1	6919.17	-43.38878	-1.112968E-006	0.0006009	7
	33	12	505.5147	5226.586	-5699.637	1	7733.244	-47.47907	-3.073846E-007	0.0003554	7
	34	13	397.9953	5488.676	-6992.454	1	8889.318	-51.87012	5.236684E-009	-0.0009903	7
	35	13	315.5048	5791.662	-8541.182	1	10319.65	-55.85933	9.958214E-010	-0.0010494	6
	36	13	252.4038	6139.002	-10374.69	1	12054.94	-59.38597	1.846023E-009	-0.0010491	6
	37	14	198.6229	6601.75	-12805.35	1	14406.95	-62.7268	4.984384E-010	-0.0010438	6
	38	14	158.3615	7138.122	-15650.26	1	17201.26	-65.48216	1.2889E-009	-0.0010531	6
	39	14	125.558	7851.728	-19227.34	1	20768.73	-67.78673	1.029584E-009	-0.001058	6
	40	15	100.4464	8760.113	-23461.85	1	25043.92	-69.52553	2.286987E-010	-0.0010547	6
	41	15	79.00281	9966.46	-29084.53	1	30744.76	-71.08483	1.219765E-009	-0.0010531	6
	42	15	63.3446	11391.51	-34911.58	1	36723.08	-71.9287	7.145459E-010	-0.001061	6
	43	16	49.86702	13607.68	-43280.96	1	45369.71	-72.54667	-1.671314E-010	-0.0010532	6
	44	16	39.72458	16070.7	-53024.43	1	55406.3	-73.13894	-1.633092E-011	-0.0010533	6
	45	16	31.6723	19414.27	-64694.51	1	67544.75	-73.29595	2.06354E-010	-0.001065	6
	46	17	24.93351	24329.78	-79074.95	1	82733.23	-72.89792	1.780978E-011	-0.0010574	6
	47	17	19.86229	30252.94	-95612	1	100284.1	-72.44193	3.650507E-012	-0.0010634	6
	48	17	15.83615	38521.38	-116378	1	122587.6	-71.68534	2.360458E-009	-0.0010635	5
	49	18	12.40079	48871.6	-140347.3	1	148612.9	-70.80091	2.466662E-010	-0.0010446	5
	50	18	9.93114	61542.43	-165837.8	1	176888.8	-69.64011	1.035153E-009	-0.0010545	5
	51	19	7.944915	77752.48	-196304.8	1	211142.2	-68.39245	3.597957E-010	-0.0010498	5
	52	19	6.317385	97688.7	-232515.8	1	252203.6	-67.21088	9.08237E-011	-0.0010469	5
	53	20	5.008013	123456	-273740.5	1	300291.9	-65.72479	2.338665E-010	-0.0010475	5
	54	21	3.945707	154802.4	-321356.5	1	356698.5	-64.27916	1.300009E-010	-0.0010712	5
	55	22	3.158693	190546.7	-371364.7	1	417396.4	-62.8377	3.915863E-010	-0.0010639	5
	56	24	2.504006	232994.9	-429088.8	1	488266.1	-61.49807	2.969157E-010	-0.0010558	5
	57	25	1.998082	281378.8	-491491.4	1	566337.3	-60.20886	8.637132E-011	-0.0011092	5
	58	27	1.584686	335741.4	-563152.8	1	655639.7	-59.19738	1.194833E-010	-0.0010851	5
	59	29	1.266892	396017	-639149.8	1	751892.2	-58.21766	1.752212E-010	-0.0010469	5
	60	31	0.999041	467868.8	-732673.8	1	869317.1	-57.43863	1.955747E-010	-0.0010234	5
