EXPLAIN
TAG	EISPOT
TITLE	LABEL	Potentiostatic EIS	Test &Identifier
DATE	LABEL	10/2/2019	Date
TIME	LABEL	10:42:17	Time
NOTES	NOTES	2	&Notes...
	
	
PSTAT	PSTAT	REF600-11020	Potentiostat
VDC	POTEN	0.00000E+000	T	DC &Voltage (V)
FREQINIT	QUANT	1.00000E+006	Initial Fre&q. (Hz)
FREQFINAL	QUANT	1.00000E+000	Final Fre&q. (Hz)
PTSPERDEC	QUANT	1.00000E+001	Points/&decade
VAC	QUANT	2.50000E+001	AC &Voltage (mV rms)
AREA	QUANT	1.00000E-002	&Area (cm^2)
CONDIT	TWOPARAM	T	5.00000E+000	0.00000E+000	Conditionin&g	Time(s)	E(V)
DELAY	TWOPARAM	T	5.00000E+000	0.00000E+000	Init. De&lay	Time(s)	Stab.(mV/s)
SPEED	SELECTOR	1	&Optimize for:
ZGUESS	QUANT	1.00000E+004	E&stimated Z (ohms)
OCVCURVE	TABLE	19
	Pt	T	Vf	Vm	Ach	Over
	#	s	V vs. Ref.	V	V	bits
	0	0.258333	6.31211E-003	6.31211E-003	6.34465E-004	...........
	1	0.516667	6.31531E-003	6.47943E-003	6.37065E-004	...........
	2	0.775	6.34012E-003	6.90966E-003	6.39698E-004	...........
	3	1.03333	6.41475E-003	6.65101E-003	6.34298E-004	...........
	4	1.29167	6.52783E-003	6.51524E-003	6.33431E-004	...........
	5	1.55	6.60925E-003	6.25126E-003	6.33365E-004	...........
	6	1.80833	6.59327E-003	6.01207E-003	6.38665E-004	...........
	7	2.06667	6.47051E-003	5.74744E-003	6.32298E-004	...........
	8	2.325	6.27681E-003	5.78360E-003	6.37198E-004	...........
	9	2.58333	6.07148E-003	5.83373E-003	6.34565E-004	...........
	10	2.84167	5.91252E-003	5.70548E-003	6.33498E-004	...........
	11	3.1	5.81969E-003	5.73372E-003	6.39198E-004	...........
	12	3.35833	5.76988E-003	5.58685E-003	6.37165E-004	...........
	13	3.61667	5.73108E-003	5.61019E-003	6.35631E-004	...........
	14	3.875	5.68651E-003	5.47593E-003	6.31998E-004	...........
	15	4.13333	5.63750E-003	5.67767E-003	6.34098E-004	...........
	16	4.39167	5.60519E-003	5.87488E-003	6.30298E-004	...........
	17	4.65	5.62290E-003	6.02639E-003	6.34298E-004	...........
	18	4.90833	5.69530E-003	5.54655E-003	6.36498E-004	...........
EOC	QUANT	0.0056953	Open Circuit (V)
PSTATMODEL	IQUANT	4	Pstat Model
PSTATSECTION	LABEL	REF600-11020	Pstat Section
PSTATSERIALNO	LABEL	11020	Pstat Serial Number
CTRLMODE	IQUANT	1	Control Mode
IESTAB	IQUANT	0	I/E Stability
CASPEED	IQUANT	1	Control Amp Speed
CONVENTION	IQUANT	1	Current Convention
ICHRANGE	IQUANT	2	Ich Range
ICHRANGEMODE	TOGGLE	F	Ich Auto Range
ICHOFFSETENABLE	TOGGLE	T	Ich Offset Enable
ICHOFFSET	QUANT	0	Ich Offset (V)
ICHFILTER	IQUANT	3	Ich Filter
VCHRANGE	IQUANT	2	Vch Range
VCHRANGEMODE	TOGGLE	F	Vch Auto Range
VCHOFFSETENABLE	TOGGLE	T	Vch Offset Enable
VCHOFFSET	QUANT	0	Vch Offset (V)
VCHFILTER	IQUANT	3	Vch Filter
ACHRANGE	IQUANT	2	Ach Range
ACHOFFSETENABLE	TOGGLE	F	Ach Offset Enable
ACHOFFSET	QUANT	0	Ach Offset (V)
ACHFILTER	IQUANT	3	Ach Filter
IERANGELOWERLIMIT	IQUANT	1	I/E Range Lower Limit
IERANGEMODE	TOGGLE	F	I/E AutoRange
IERANGE	IQUANT	6	I/E Range
POSFEEDENABLE	TOGGLE	F	Positive Feedback IR Comp
POSFEEDRESISTANCE	QUANT	0	Positive Feedback Resistance (ohm)
ACHSELECT	IQUANT	0	Ach Select
CABLEID	IQUANT	14	Cable ID
DCCALDATE	LABEL	8/19/2019	DC Calibration Date
ACCALDATE	LABEL	8/19/2019	AC Calibration Date
THERMOSELECT	IQUANT	1	Thermo Select
FRAMEWORKVERSION	QUANT	6.33	Framework Version
INSTRUMENTVERSION	LABEL	3.50	Instrument Version
ZCURVE	TABLE
	Pt	Time	Freq	Zreal	Zimag	Zsig	Zmod	Zphz	Idc	Vdc	IERange
	#	s	Hz	ohm	ohm	V	ohm	°	A	V	#
	0	1	1000078	2027.561	-937.903	1	2233.979	-24.82418	2.461175E-006	0.0075006	8
	1	2	794390.6	2181.379	-866.9307	1	2347.336	-21.67402	-5.094786E-006	0.0085942	8
	2	4	630984.4	2313.632	-776.0745	1	2440.324	-18.54329	2.653133E-007	0.0074787	8
	3	5	501234.4	2412.578	-693.5667	1	2510.292	-16.03886	6.830742E-007	0.0074201	8
	4	7	398109.4	2481.62	-620.584	1	2558.039	-14.04013	-1.147232E-006	0.0075716	8
	5	8	316265.6	2558.56	-543.8571	1	2615.724	-12.00039	-2.288058E-006	0.007975	8
	6	9	251203.1	2615.396	-491.3838	1	2661.156	-10.64076	4.351987E-006	0.0064056	8
	7	11	199546.9	2662.754	-459.244	1	2702.066	-9.78551	5.815834E-007	0.0072933	8
	8	12	158578.1	2702.295	-419.3938	1	2734.646	-8.821874	-2.247014E-006	0.0079322	8
	9	13	125953.1	2752.839	-377.058	1	2778.542	-7.799304	-1.144307E-006	0.0098041	7
	10	15	100078.1	2786.62	-363.8807	1	2810.278	-7.439667	4.668059E-008	0.0071622	7
	11	16	79453.13	2823.927	-369.8828	1	2848.048	-7.462219	2.054253E-008	0.0072067	7
	12	17	63140.62	2863.045	-383.4431	1	2888.607	-7.628143	-5.736177E-008	0.0074041	7
	13	19	50203.12	2905.728	-400.9152	1	2933.256	-7.855734	-3.586507E-008	0.007299	7
	14	20	39890.62	2951.437	-422.5552	1	2981.532	-8.147629	-1.560603E-008	0.0073534	7
	15	21	31640.63	3001.036	-451.0139	1	3034.737	-8.546796	2.056763E-008	0.0072054	7
	16	23	25171.88	3053.993	-484.6777	1	3092.214	-9.017801	-8.908239E-009	0.007317	7
	17	24	20015.62	3110.431	-525.1531	1	3154.452	-9.58322	-2.807803E-008	0.0072896	7
	18	25	15890.62	3173.414	-572.6086	1	3224.661	-10.22835	8.826129E-008	0.007217	7
	19	27	12609.37	3243.377	-629.6447	1	3303.929	-10.98631	3.561657E-008	0.0072529	7
	20	28	10078.13	3316.261	-690.2565	1	3387.336	-11.75784	-6.916019E-008	0.0073841	7
	21	29	8015.625	3398.766	-761.5268	1	3483.035	-12.6291	-3.768717E-008	0.0073759	7
	22	31	6328.125	3491.344	-843.9523	1	3591.899	-13.58926	-6.946653E-008	0.0073852	7
	23	32	5015.625	3589.536	-932.8218	1	3708.763	-14.56738	-6.803265E-009	0.0072827	7
	24	33	3984.375	3690.865	-1033.904	1	3832.941	-15.6489	8.795181E-008	0.0072108	7
	25	35	3170.956	3793.839	-1149.233	1	3964.082	-16.85265	9.847443E-009	0.0072597	7
	26	36	2527.573	3896.89	-1284.367	1	4103.09	-18.24159	8.956766E-008	0.0072046	7
	27	38	1976.103	4009.873	-1464.656	1	4268.992	-20.06535	-3.346315E-008	0.0072774	7
	28	39	1577.524	4109.765	-1670.023	1	4436.119	-22.1146	-5.8801E-008	0.0073547	7
	29	40	1265.625	4211.021	-1920.893	1	4628.447	-24.52051	5.600838E-008	0.0071784	7
	30	42	998.264	4320.601	-2259.729	1	4875.856	-27.61014	1.140026E-007	0.0071151	7
	31	43	796.875	4433.257	-2662.35	1	5171.255	-30.98652	-2.587152E-008	0.0072715	7
	32	44	627.7902	4559.513	-3202.455	1	5571.793	-35.08297	7.29012E-009	0.0073724	7
	33	46	505.5147	4687.17	-3811.859	1	6041.509	-39.11987	-3.570097E-008	0.0073583	7
	34	47	397.9953	4850.234	-4643.091	1	6714.393	-43.75002	4.28049E-009	0.0073049	7
	35	48	315.5048	5035.919	-5656.934	1	7573.73	-48.32386	4.701832E-009	0.0072993	7
	36	50	252.4038	5249.129	-6863.26	1	8640.469	-52.59067	4.376312E-009	0.0073022	7
	37	51	198.6229	5530.479	-8469.205	1	10115.02	-56.85505	5.136756E-009	0.0072979	7
	38	52	158.3615	5865.622	-10351.56	1	11897.92	-60.46233	1.379498E-009	0.0072391	6
	39	54	125.558	6294.458	-12731.75	1	14202.74	-63.69265	6.257284E-010	0.0072422	6
	40	55	100.4464	6821.186	-15535.64	1	16967.17	-66.29531	6.310016E-010	0.0072371	6
	41	56	79.00281	7556.727	-19283.55	1	20711.34	-68.60107	4.806439E-010	0.0072396	6
	42	58	63.3446	8513.339	-23501.19	1	24995.66	-70.08701	1.011164E-009	0.0072375	6
	43	59	49.86702	9613.8	-29077.47	1	30625.55	-71.7047	5.028791E-010	0.0072406	6
	44	61	39.72458	11201.19	-35501.91	1	37227.04	-72.48903	1.155694E-009	0.0072421	6
	45	62	31.6723	13169.19	-43344.52	1	45300.94	-73.09985	1.157817E-009	0.0072435	6
	46	63	24.93351	16023.47	-53369.39	1	55722.92	-73.28829	8.508114E-010	0.0072391	6
	47	65	19.86229	19591.04	-64904.93	1	67797.19	-73.20398	4.536517E-010	0.0072389	6
	48	66	15.83615	23853.95	-78595.47	1	82135.61	-73.11681	4.029753E-011	0.0072421	6
	49	67	12.40079	30687.54	-96361	1	101129.5	-72.33519	-7.305059E-011	0.0072456	6
	50	69	9.93114	38477.45	-115510.3	1	121750.3	-71.57665	-2.279443E-010	0.0072533	5
	51	70	7.944915	48471.29	-137973.2	1	146239.7	-70.64314	8.852524E-010	0.0072553	5
	52	72	6.317385	61415.96	-164463.5	1	175556.8	-69.52276	5.273575E-010	0.007257	5
	53	74	5.008013	77922.84	-195629.1	1	210577.1	-68.28165	5.376319E-010	0.0072543	5
	54	77	3.945707	99221	-232203.8	1	252514.2	-66.86292	-6.014602E-011	0.0072396	5
	55	79	3.158693	122770.1	-270873	1	297396.5	-65.61813	4.069065E-010	0.0072611	5
	56	82	2.504006	152601.5	-316563.3	1	351425.1	-64.26329	-1.804381E-010	0.0072398	5
	57	85	1.998082	186113.2	-365339.8	1	410013.8	-63.00457	2.166263E-010	0.0072003	5
	58	88	1.584686	224658.5	-422379.9	1	478410.1	-61.99205	6.210193E-011	0.00724	5
	59	92	1.266892	268744.4	-485030.5	1	554507.1	-61.01016	1.711765E-010	0.0071994	5
	60	96	0.999041	313264.9	-559304	1	641058.4	-60.74691	-1.392294E-010	0.0072805	5
