EXPLAIN
TAG	EISPOT
TITLE	LABEL	Potentiostatic EIS	Test &Identifier
DATE	LABEL	8/14/2018	Date
TIME	LABEL	5:55:30	Time
NOTES	NOTES	1	&Notes...
	
PSTAT	PSTAT	REF600-11020	Potentiostat
VDC	POTEN	0.00000E+000	T	DC &Voltage (V)
FREQINIT	QUANT	1.00000E+006	Initial Fre&q. (Hz)
FREQFINAL	QUANT	1.00000E+000	Final Fre&q. (Hz)
PTSPERDEC	QUANT	1.00000E+001	Points/&decade
VAC	QUANT	2.50000E+001	AC &Voltage (mV rms)
AREA	QUANT	1.00000E-002	&Area (cm^2)
CONDIT	TWOPARAM	T	5.00000E+000	0.00000E+000	Conditionin&g	Time(s)	E(V)
DELAY	TWOPARAM	T	5.00000E+000	0.00000E+000	Init. De&lay	Time(s)	Stab.(mV/s)
SPEED	SELECTOR	0	&Optimize for:
ZGUESS	QUANT	1.00000E+005	E&stimated Z (ohms)
OCVCURVE	TABLE	19
	Pt	T	Vf	Vm	Ach	Over
	#	s	V vs. Ref.	V	V	bits
	0	0.258333	4.04966E-002	4.04966E-002	5.19566E-004	...........
	1	0.516667	4.05420E-002	4.28707E-002	5.18933E-004	...........
	2	0.775	4.08181E-002	4.49996E-002	5.20600E-004	...........
	3	1.03333	4.15896E-002	4.69332E-002	5.21600E-004	...........
	4	1.29167	4.29440E-002	4.86907E-002	5.20766E-004	...........
	5	1.55	4.46975E-002	5.02953E-002	5.14166E-004	...........
	6	1.80833	4.65750E-002	5.17773E-002	5.14600E-004	...........
	7	2.06667	4.83857E-002	5.31394E-002	5.20333E-004	...........
	8	2.325	5.00536E-002	5.44079E-002	5.14766E-004	...........
	9	2.58333	5.15731E-002	5.55838E-002	5.18600E-004	...........
	10	2.84167	5.29635E-002	5.66763E-002	5.17900E-004	...........
	11	3.1	5.42453E-002	5.77036E-002	5.19500E-004	...........
	12	3.35833	5.54342E-002	5.86649E-002	5.18166E-004	...........
	13	3.61667	5.65418E-002	5.95657E-002	5.16600E-004	...........
	14	3.875	5.75768E-002	6.04060E-002	5.22466E-004	...........
	15	4.13333	5.85457E-002	6.12038E-002	5.24000E-004	...........
	16	4.39167	5.94538E-002	6.19571E-002	5.17166E-004	...........
	17	4.65	6.03069E-002	6.26738E-002	5.15066E-004	...........
	18	4.90833	6.11107E-002	6.33475E-002	5.20633E-004	...........
EOC	QUANT	0.0611107	Open Circuit (V)
PSTATMODEL	IQUANT	4	Pstat Model
PSTATSECTION	LABEL	REF600-11020	Pstat Section
PSTATSERIALNO	LABEL	11020	Pstat Serial Number
CTRLMODE	IQUANT	1	Control Mode
IESTAB	IQUANT	0	I/E Stability
CASPEED	IQUANT	1	Control Amp Speed
CONVENTION	IQUANT	1	Current Convention
ICHRANGE	IQUANT	2	Ich Range
ICHRANGEMODE	TOGGLE	F	Ich Auto Range
ICHOFFSETENABLE	TOGGLE	T	Ich Offset Enable
ICHOFFSET	QUANT	0	Ich Offset (V)
ICHFILTER	IQUANT	3	Ich Filter
VCHRANGE	IQUANT	2	Vch Range
VCHRANGEMODE	TOGGLE	F	Vch Auto Range
VCHOFFSETENABLE	TOGGLE	T	Vch Offset Enable
VCHOFFSET	QUANT	0	Vch Offset (V)
VCHFILTER	IQUANT	3	Vch Filter
ACHRANGE	IQUANT	2	Ach Range
ACHOFFSETENABLE	TOGGLE	F	Ach Offset Enable
ACHOFFSET	QUANT	0	Ach Offset (V)
ACHFILTER	IQUANT	3	Ach Filter
IERANGELOWERLIMIT	IQUANT	1	I/E Range Lower Limit
IERANGEMODE	TOGGLE	F	I/E AutoRange
IERANGE	IQUANT	6	I/E Range
POSFEEDENABLE	TOGGLE	F	Positive Feedback IR Comp
POSFEEDRESISTANCE	QUANT	0	Positive Feedback Resistance (ohm)
ACHSELECT	IQUANT	0	Ach Select
CABLEID	IQUANT	14	Cable ID
DCCALDATE	LABEL	8/19/2019	DC Calibration Date
ACCALDATE	LABEL	8/19/2019	AC Calibration Date
THERMOSELECT	IQUANT	1	Thermo Select
FRAMEWORKVERSION	QUANT	6.33	Framework Version
INSTRUMENTVERSION	LABEL	3.50	Instrument Version
ZCURVE	TABLE
	Pt	Time	Freq	Zreal	Zimag	Zsig	Zmod	Zphz	Idc	Vdc	IERange
	#	s	Hz	ohm	ohm	V	ohm	°	A	V	#
	0	1	1000078	1914.39	-2006.845	1	2773.503	-46.35068	2.82178E-006	0.0630108	8
	1	2	794390.6	2209.737	-2211.387	1	3126.207	-45.02139	-6.259085E-007	0.0628959	8
	2	2	630984.4	2544.237	-2426.33	1	3515.71	-43.64114	5.38544E-007	0.0627535	8
	3	2	501234.4	2925.253	-2632.344	1	3935.269	-41.98306	3.071204E-007	0.0626664	8
	4	3	398109.4	3362.106	-2830.053	1	4394.651	-40.089	7.116414E-007	0.0625832	8
	5	3	316265.6	3881.231	-2998.817	1	4904.779	-37.69132	-1.233444E-006	0.0628109	8
	6	3	251203.1	4418.18	-3161.747	1	5432.951	-35.58834	-3.02619E-006	0.0631751	8
	7	4	199546.9	5023.671	-3220.219	1	5967.167	-32.66024	3.386576E-007	0.062541	8
	8	4	158578.1	5581.77	-3197.865	1	6432.923	-29.80893	-2.245238E-006	0.0630038	8
	9	4	125953.1	6279.397	-3074.433	1	6991.636	-26.08667	-1.995891E-007	0.062634	7
	10	5	100078.1	6849.5	-2948.69	1	7457.239	-23.29174	2.153715E-008	0.06261	7
	11	5	79453.13	7358.53	-2783.205	1	7867.286	-20.71804	-4.624212E-008	0.062643	7
	12	5	63140.62	7806.673	-2565.157	1	8217.31	-18.18976	-1.635929E-008	0.0625578	7
	13	6	50203.12	8188.346	-2320.283	1	8510.741	-15.82083	-1.554434E-008	0.0625534	7
	14	6	39890.62	8504.989	-2080.017	1	8755.645	-13.74275	-1.488284E-008	0.0625494	7
	15	6	31640.63	8768.901	-1845.463	1	8960.991	-11.88477	-7.339737E-008	0.0626353	7
	16	7	25171.88	8975.451	-1640.361	1	9124.117	-10.35712	3.055602E-008	0.0623804	7
	17	7	20015.62	9148.873	-1550.571	1	9279.34	-9.61921	-5.316993E-008	0.0625685	7
	18	7	15890.62	9269.949	-1321.519	1	9363.673	-8.113384	-2.738509E-009	0.0624402	7
	19	8	12609.37	9437.807	-1062.064	1	9497.377	-6.420651	7.754965E-010	0.0623279	6
	20	8	10078.13	9505.88	-1013.651	1	9559.77	-6.086686	-7.583997E-009	0.0624545	6
	21	8	8015.625	9580.73	-1013.982	1	9634.24	-6.04144	1.292204E-008	0.0621535	6
	22	9	6328.125	9627.23	-1023.317	1	9681.46	-6.067417	3.68431E-009	0.0622857	6
	23	9	5015.625	9678.86	-1087.188	1	9739.73	-6.408943	-8.160629E-009	0.0626198	6
	24	9	3984.375	9755.79	-1179.68	1	9826.86	-6.894788	1.401312E-008	0.0621528	6
	25	10	3170.956	9794.03	-1336.663	1	9884.82	-7.771561	9.125787E-009	0.0623838	6
	26	10	2527.573	9860.61	-1533.888	1	9979.2	-8.8419	-7.718701E-009	0.0624638	6
	27	10	1976.103	9940.8	-1807.036	1	10103.71	-10.30271	1.382106E-008	0.0621547	6
	28	11	1577.524	10161.72	-2152.889	1	10387.28	-11.96195	8.603549E-010	0.0623195	6
	29	11	1265.625	10108.02	-2526.019	1	10418.87	-14.03099	-9.451955E-010	0.0625553	6
	30	11	998.264	10216.61	-3054.639	1	10663.49	-16.64601	1.551262E-008	0.0621607	6
	31	12	796.875	10338.74	-3678.731	1	10973.72	-19.58658	4.614725E-009	0.0622835	6
	32	12	627.7902	10496	-4497.812	1	11419.12	-23.1964	1.394851E-009	0.0623263	6
	33	12	505.5147	10668.07	-5416.827	1	11964.52	-26.91967	-1.33021E-008	0.06256	6
	34	12	397.9953	10891.16	-6666.075	1	12769.26	-31.46925	-1.401106E-009	0.0624675	6
	35	13	315.5048	11159.94	-8171.492	1	13831.76	-36.21221	-1.910598E-009	0.0624671	6
	36	13	252.4038	11484.44	-9948.23	1	15194.07	-40.90026	-1.27561E-009	0.0624597	6
	37	13	198.6229	11930.3	-12293.06	1	17130.42	-45.85796	-1.850698E-009	0.0624615	6
	38	14	158.3615	12472.11	-15036.53	1	19535.88	-50.32587	-1.442481E-009	0.0624561	6
	39	14	125.558	13172.06	-18464.58	1	22681.36	-54.49712	-1.403894E-009	0.0624587	6
	40	14	100.4464	14082.36	-22510.69	1	26552.66	-57.9705	-2.91769E-009	0.062457	6
	41	15	79.00281	15276.39	-27891.4	1	31800.91	-61.29006	-2.690889E-009	0.0624574	6
	42	15	63.3446	16728.4	-33326.5	1	37289.34	-63.34541	-1.26227E-009	0.0624575	6
	43	15	49.86702	18952.94	-41232.52	1	45379.89	-65.31365	-1.040288E-009	0.0624597	6
	44	16	39.72458	21408.73	-50614.83	1	54956.3	-67.07292	-1.316693E-009	0.0624637	6
	45	16	31.6723	24866.09	-61721.65	1	66542.35	-68.05675	-8.520387E-010	0.0624602	6
	46	16	24.93351	29731.87	-75192.12	1	80856.9	-68.42556	-1.828393E-009	0.0624603	6
	47	17	19.86229	35579.55	-90680.76	1	97411	-68.57692	-1.12415E-009	0.0624635	6
	48	17	15.83615	42015.12	-109711.5	1	117481.5	-69.04517	-7.488353E-010	0.0624608	5
	49	17	12.40079	55884.05	-132610.8	1	143905	-67.14876	-1.21315E-010	0.0624609	5
	50	18	9.93114	67331.23	-157028.3	1	170854.8	-66.79112	-2.519668E-009	0.0624663	5
	51	18	7.944915	84038.52	-184926.9	1	203126.6	-65.56096	-2.018247E-009	0.0624633	5
	52	19	6.317385	105477.4	-217694.8	1	241901.8	-64.1489	-1.812841E-009	0.0624666	5
	53	20	5.008013	132873.9	-253972.3	1	286631.1	-62.38222	-1.903192E-009	0.0624555	5
	54	21	3.945707	166542.5	-295085.3	1	338838.7	-60.56015	-1.580692E-009	0.0624689	5
	55	22	3.158693	203727	-335781	1	392751.2	-58.75373	-1.732363E-009	0.0624774	5
	56	24	2.504006	248612.4	-381501.8	1	455358.9	-56.90901	-1.864124E-009	0.0624639	5
	57	25	1.998082	297075.7	-427211.1	1	520349.3	-55.18587	-1.572848E-009	0.062496	5
	58	27	1.584686	352313.7	-480170.1	1	595557.1	-53.7315	-1.481543E-009	0.0625061	5
	59	29	1.266892	409317.5	-534810.5	1	673470.9	-52.57134	-1.499791E-009	0.0624714	5
	60	31	0.999041	476779.1	-599212.9	1	765750.9	-51.49159	-1.495173E-009	0.0624417	5
