EXPLAIN
TAG	EISPOT
TITLE	LABEL	Potentiostatic EIS	Test &Identifier
DATE	LABEL	9/22/2019	Date
TIME	LABEL	10:47:20	Time
NOTES	NOTES	1	&Notes...
	
PSTAT	PSTAT	REF600-11020	Potentiostat
VDC	POTEN	0.00000E+000	T	DC &Voltage (V)
FREQINIT	QUANT	1.00000E+006	Initial Fre&q. (Hz)
FREQFINAL	QUANT	1.00000E+000	Final Fre&q. (Hz)
PTSPERDEC	QUANT	1.00000E+001	Points/&decade
VAC	QUANT	2.50000E+001	AC &Voltage (mV rms)
AREA	QUANT	1.00000E-002	&Area (cm^2)
CONDIT	TWOPARAM	T	5.00000E+000	0.00000E+000	Conditionin&g	Time(s)	E(V)
DELAY	TWOPARAM	T	5.00000E+000	0.00000E+000	Init. De&lay	Time(s)	Stab.(mV/s)
SPEED	SELECTOR	1	&Optimize for:
ZGUESS	QUANT	1.00000E+004	E&stimated Z (ohms)
OCVCURVE	TABLE	19
	Pt	T	Vf	Vm	Ach	Over
	#	s	V vs. Ref.	V	V	bits
	0	0.258333	2.37932E-005	2.37932E-005	5.95332E-004	...........
	1	0.516667	1.48995E-005	-4.41760E-004	5.93065E-004	...........
	2	0.775	-3.95796E-005	-8.76031E-004	5.91032E-004	...........
	3	1.03333	-1.93125E-004	-1.28627E-003	5.96799E-004	...........
	4	1.29167	-4.66289E-004	-1.67242E-003	6.01332E-004	...........
	5	1.55	-8.26752E-004	-2.03787E-003	5.90899E-004	...........
	6	1.80833	-1.22267E-003	-2.38933E-003	5.96498E-004	...........
	7	2.06667	-1.61671E-003	-2.71961E-003	5.96999E-004	...........
	8	2.325	-1.99266E-003	-3.03546E-003	5.99832E-004	...........
	9	2.58333	-2.34753E-003	-3.34657E-003	5.97198E-004	...........
	10	2.84167	-2.68380E-003	-3.64293E-003	5.90599E-004	...........
	11	3.1	-3.00521E-003	-3.93439E-003	5.95599E-004	...........
	12	3.35833	-3.31477E-003	-4.21317E-003	5.92199E-004	...........
	13	3.61667	-3.61389E-003	-4.46852E-003	5.95999E-004	...........
	14	3.875	-3.90205E-003	-4.71777E-003	5.92732E-004	...........
	15	4.13333	-4.17785E-003	-4.96024E-003	5.91132E-004	...........
	16	4.39167	-4.44129E-003	-5.20563E-003	5.94199E-004	...........
	17	4.65	-4.69474E-003	-5.44392E-003	5.98632E-004	...........
	18	4.90833	-4.94147E-003	-5.67666E-003	5.96765E-004	...........
EOC	QUANT	-0.0049415	Open Circuit (V)
PSTATMODEL	IQUANT	4	Pstat Model
PSTATSECTION	LABEL	REF600-11020	Pstat Section
PSTATSERIALNO	LABEL	11020	Pstat Serial Number
CTRLMODE	IQUANT	1	Control Mode
IESTAB	IQUANT	0	I/E Stability
CASPEED	IQUANT	1	Control Amp Speed
CONVENTION	IQUANT	1	Current Convention
ICHRANGE	IQUANT	2	Ich Range
ICHRANGEMODE	TOGGLE	F	Ich Auto Range
ICHOFFSETENABLE	TOGGLE	T	Ich Offset Enable
ICHOFFSET	QUANT	0	Ich Offset (V)
ICHFILTER	IQUANT	3	Ich Filter
VCHRANGE	IQUANT	2	Vch Range
VCHRANGEMODE	TOGGLE	F	Vch Auto Range
VCHOFFSETENABLE	TOGGLE	T	Vch Offset Enable
VCHOFFSET	QUANT	0	Vch Offset (V)
VCHFILTER	IQUANT	3	Vch Filter
ACHRANGE	IQUANT	2	Ach Range
ACHOFFSETENABLE	TOGGLE	F	Ach Offset Enable
ACHOFFSET	QUANT	0	Ach Offset (V)
ACHFILTER	IQUANT	3	Ach Filter
IERANGELOWERLIMIT	IQUANT	1	I/E Range Lower Limit
IERANGEMODE	TOGGLE	F	I/E AutoRange
IERANGE	IQUANT	5	I/E Range
POSFEEDENABLE	TOGGLE	F	Positive Feedback IR Comp
POSFEEDRESISTANCE	QUANT	0	Positive Feedback Resistance (ohm)
ACHSELECT	IQUANT	0	Ach Select
CABLEID	IQUANT	14	Cable ID
DCCALDATE	LABEL	8/19/2019	DC Calibration Date
ACCALDATE	LABEL	8/19/2019	AC Calibration Date
THERMOSELECT	IQUANT	1	Thermo Select
FRAMEWORKVERSION	QUANT	6.33	Framework Version
INSTRUMENTVERSION	LABEL	3.50	Instrument Version
ZCURVE	TABLE
	Pt	Time	Freq	Zreal	Zimag	Zsig	Zmod	Zphz	Idc	Vdc	IERange
	#	s	Hz	ohm	ohm	V	ohm	°	A	V	#
	0	2	1000078	2711.641	-1818.389	1	3264.894	-33.84525	1.867566E-006	-0.0032084	8
	1	3	794390.6	3066.821	-1712.929	1	3512.765	-29.18493	-2.314789E-006	-0.002801	8
	2	4	630984.4	3363.613	-1541.632	1	3700.07	-24.62323	8.315428E-007	-0.0031101	8
	3	6	501234.4	3611.441	-1371.212	1	3862.995	-20.79105	3.486964E-006	-0.0039988	8
	4	7	398109.4	3796.998	-1205.653	1	3983.816	-17.6161	-3.168455E-008	-0.0032644	8
	5	9	316265.6	3942.683	-1046.102	1	4079.103	-14.85975	3.31781E-006	-0.0040151	8
	6	10	251203.1	4082.042	-901.4315	1	4180.388	-12.45269	-3.493898E-007	-0.0035746	8
	7	11	199546.9	4164.642	-786.7344	1	4238.301	-10.69757	-1.101724E-007	-0.003511	8
	8	13	158578.1	4218.101	-672.8913	1	4271.435	-9.063723	-3.014967E-006	-0.0028546	8
	9	14	125953.1	4295.945	-545.5807	1	4330.45	-7.237761	7.390116E-007	-0.0050406	7
	10	16	100078.1	4333.156	-480.2482	1	4359.688	-6.324339	-2.625904E-008	-0.0034788	7
	11	17	79453.13	4371.123	-442.9364	1	4393.508	-5.786169	-6.372819E-008	-0.0033767	7
	12	18	63140.62	4404.784	-419.7709	1	4424.741	-5.443782	3.648151E-009	-0.0033715	7
	13	20	50203.12	4437.122	-404.8781	1	4455.556	-5.213682	4.776978E-008	-0.0036294	7
	14	21	39890.62	4472.25	-402.041	1	4490.285	-5.136899	1.253851E-007	-0.003658	7
	15	22	31640.63	4504.178	-406.8952	1	4522.52	-5.161934	-3.65964E-008	-0.0034811	7
	16	24	25171.88	4540.289	-423.246	1	4559.974	-5.325725	-1.287913E-008	-0.0034582	7
	17	25	20015.62	4575.156	-451.3893	1	4597.37	-5.634621	-4.632681E-009	-0.0034345	7
	18	26	15890.62	4613.44	-488.4744	1	4639.228	-6.044	-2.517455E-008	-0.0035003	7
	19	28	12609.37	4653.525	-533.9291	1	4684.055	-6.545295	-3.137851E-008	-0.0034247	7
	20	29	10078.13	4696.2	-599.7216	1	4734.339	-7.277486	1.186489E-008	-0.0035747	7
	21	30	8015.625	4742.957	-679.8506	1	4791.434	-8.157157	4.232216E-008	-0.0035371	7
	22	32	6328.125	4792.394	-781.6854	1	4855.726	-9.26391	7.192777E-008	-0.0036047	7
	23	33	5015.625	4847.356	-907.2957	1	4931.536	-10.60157	-3.647763E-008	-0.0033884	7
	24	35	3984.375	4905.847	-1060.18	1	5019.095	-12.19441	-5.704136E-008	-0.0033011	7
	25	36	3170.956	4972.801	-1248.364	1	5127.101	-14.09223	-5.984021E-008	-0.003421	7
	26	37	2527.573	5044.684	-1477.685	1	5256.651	-16.32633	4.230966E-008	-0.0035357	7
	27	39	1976.103	5136.99	-1782.884	1	5437.586	-19.14024	-3.734963E-008	-0.0033934	7
	28	40	1577.524	5235.587	-2126.176	1	5650.84	-22.10211	8.563276E-008	-0.0036567	7
	29	41	1265.625	5348.367	-2534.656	1	5918.573	-25.35684	8.512333E-008	-0.0036596	7
	30	43	998.264	5486.126	-3071.397	1	6287.374	-29.2422	-5.289465E-008	-0.0034127	7
	31	44	796.875	5644.537	-3697.056	1	6747.52	-33.22398	1.254835E-007	-0.0036662	7
	32	45	627.7902	5843.42	-4509.441	1	7381.099	-37.65782	-5.938579E-008	-0.0033876	7
	33	47	505.5147	6065.408	-5405.609	1	8124.641	-41.70804	-4.022753E-008	-0.0034839	7
	34	48	397.9953	6349.537	-6606.991	1	9163.458	-46.13835	5.076753E-009	-0.0034629	7
	35	50	315.5048	6692.959	-8042.729	1	10463.33	-50.23361	1.502761E-009	-0.0035196	6
	36	51	252.4038	7090.596	-9724.71	1	12035.22	-53.90302	1.294776E-009	-0.0035263	6
	37	52	198.6229	7616.061	-11934.7	1	14157.73	-57.45625	1.180755E-009	-0.00352	6
	38	54	158.3615	8231.122	-14495.82	1	16669.74	-60.41091	9.020254E-010	-0.0035301	6
	39	55	125.558	9027.053	-17702.08	1	19870.86	-62.981	1.364869E-009	-0.0035306	6
	40	56	100.4464	10009.87	-21449.21	1	23669.94	-64.98257	2.042327E-009	-0.0035307	6
	41	58	79.00281	11351.98	-26335.03	1	28677.54	-66.68106	1.583613E-009	-0.0035322	6
	42	59	63.3446	13170.63	-31846.72	1	34462.72	-67.53181	8.214318E-010	-0.0035327	6
	43	60	49.86702	15078.8	-39208.25	1	42007.82	-68.96413	3.165251E-010	-0.0035303	6
	44	62	39.72458	18018.13	-47329.68	1	50643.38	-69.15846	1.06076E-009	-0.0035232	6
	45	63	31.6723	21608.3	-57017.2	1	60974.42	-69.24437	1.550499E-009	-0.0035327	6
	46	65	24.93351	26873.13	-69351.56	1	74376.1	-68.81908	1.232529E-009	-0.0035339	6
	47	66	19.86229	33335.1	-83060.7	1	89500.32	-68.13272	5.632928E-010	-0.0035373	6
	48	67	15.83615	41848.51	-98004	1	106564.9	-66.87712	4.988297E-010	-0.00353	5
	49	69	12.40079	52776.88	-118549	1	129766.2	-66.00183	4.679278E-010	-0.0035279	5
	50	70	9.93114	66057.51	-138394.6	1	153351.4	-64.48426	3.088817E-010	-0.0035268	5
	51	72	7.944915	82406.66	-160429.5	1	180356.6	-62.81212	1.128277E-009	-0.0035263	5
	52	73	6.317385	102182	-185128.4	1	211456.1	-61.1034	7.595718E-011	-0.0035177	5
	53	76	5.008013	125666	-212228.5	1	246643.2	-59.36913	2.818815E-010	-0.0035388	5
	54	78	3.945707	153292.6	-241506.8	1	286049.2	-57.59531	8.87075E-010	-0.0035212	5
	55	81	3.158693	181900.3	-271903.7	1	327138.1	-56.21795	1.834998E-010	-0.0035391	5
	56	84	2.504006	214350.3	-306176.8	1	373751.6	-55.00465	9.82927E-010	-0.0035283	5
	57	87	1.998082	248003.5	-343244.3	1	423464.8	-54.15085	6.865441E-010	-0.0035083	5
	58	90	1.584686	284721	-385699.3	1	479405.9	-53.56548	4.684783E-010	-0.0035707	5
	59	94	1.266892	322096.5	-435357.8	1	541555.8	-53.50436	5.55019E-010	-0.0035189	5
	60	98	0.999041	366854.6	-497985.1	1	618523.6	-53.62175	2.277364E-011	-0.0035485	5
