EXPLAIN
TAG	EISPOT
TITLE	LABEL	Potentiostatic IDE	Test &Identifier
DATE	LABEL	9/4/2019	Date
TIME	LABEL	12:53:08	Time
NOTES	NOTES	1	&Notes...
	
PSTAT	PSTAT	REF600-11020	Potentiostat
VDC	POTEN	0.00000E+000	T	DC &Voltage (V)
FREQINIT	QUANT	1.00000E+006	Initial Fre&q. (Hz)
FREQFINAL	QUANT	1.00000E+000	Final Fre&q. (Hz)
PTSPERDEC	QUANT	1.00000E+001	Points/&decade
VAC	QUANT	2.50000E+001	AC &Voltage (mV rms)
AREA	QUANT	1.00000E-002	&Area (cm^2)
CONDIT	TWOPARAM	T	5.00000E+000	0.00000E+000	Conditionin&g	Time(s)	E(V)
DELAY	TWOPARAM	T	5.00000E+000	0.00000E+000	Init. De&lay	Time(s)	Stab.(mV/s)
SPEED	SELECTOR	1	&Optimize for:
ZGUESS	QUANT	1.00000E+007	E&stimated Z (ohms)
OCVCURVE	TABLE	19
	Pt	T	Vf	Vm	Ach	Over
	#	s	V vs. Ref.	V	V	bits
	0	0.258333	6.10826E-002	6.10826E-002	5.80532E-004	...........
	1	0.516667	6.10935E-002	6.16527E-002	5.81065E-004	...........
	2	0.775	6.11786E-002	6.31506E-002	5.81232E-004	...........
	3	1.03333	6.14924E-002	6.52163E-002	5.80765E-004	...........
	4	1.29167	6.22559E-002	6.88814E-002	5.82432E-004	...........
	5	1.55	6.35883E-002	6.73005E-002	5.88565E-004	...........
	6	1.80833	6.52044E-002	6.65993E-002	5.84865E-004	...........
	7	2.06667	6.65978E-002	7.30756E-002	5.87165E-004	...........
	8	2.325	6.77913E-002	7.33266E-002	5.84065E-004	...........
	9	2.58333	6.92324E-002	7.29796E-002	5.83832E-004	...........
	10	2.84167	7.08582E-002	7.25466E-002	5.83765E-004	...........
	11	3.1	7.20978E-002	7.21161E-002	5.83499E-004	...........
	12	3.35833	7.26400E-002	7.21917E-002	5.81132E-004	...........
	13	3.61667	7.27083E-002	7.52493E-002	5.83032E-004	...........
	14	3.875	7.28326E-002	7.58738E-002	5.80732E-004	...........
	15	4.13333	7.34030E-002	7.59895E-002	5.83032E-004	...........
	16	4.39167	7.43161E-002	7.59076E-002	5.83732E-004	...........
	17	4.65	7.51687E-002	7.60572E-002	5.84399E-004	...........
	18	4.90833	7.57250E-002	7.68502E-002	5.83132E-004	...........
EOC	QUANT	0.075725	Open Circuit (V)
PSTATMODEL	IQUANT	4	Pstat Model
PSTATSECTION	LABEL	REF600-11020	Pstat Section
PSTATSERIALNO	LABEL	11020	Pstat Serial Number
CTRLMODE	IQUANT	1	Control Mode
IESTAB	IQUANT	0	I/E Stability
CASPEED	IQUANT	1	Control Amp Speed
CONVENTION	IQUANT	1	Current Convention
ICHRANGE	IQUANT	2	Ich Range
ICHRANGEMODE	TOGGLE	F	Ich Auto Range
ICHOFFSETENABLE	TOGGLE	T	Ich Offset Enable
ICHOFFSET	QUANT	0	Ich Offset (V)
ICHFILTER	IQUANT	3	Ich Filter
VCHRANGE	IQUANT	2	Vch Range
VCHRANGEMODE	TOGGLE	F	Vch Auto Range
VCHOFFSETENABLE	TOGGLE	T	Vch Offset Enable
VCHOFFSET	QUANT	0	Vch Offset (V)
VCHFILTER	IQUANT	3	Vch Filter
ACHRANGE	IQUANT	2	Ach Range
ACHOFFSETENABLE	TOGGLE	F	Ach Offset Enable
ACHOFFSET	QUANT	0	Ach Offset (V)
ACHFILTER	IQUANT	3	Ach Filter
IERANGELOWERLIMIT	IQUANT	1	I/E Range Lower Limit
IERANGEMODE	TOGGLE	F	I/E AutoRange
IERANGE	IQUANT	4	I/E Range
POSFEEDENABLE	TOGGLE	F	Positive Feedback IR Comp
POSFEEDRESISTANCE	QUANT	0	Positive Feedback Resistance (ohm)
ACHSELECT	IQUANT	0	Ach Select
CABLEID	IQUANT	14	Cable ID
DCCALDATE	LABEL	8/19/2019	DC Calibration Date
ACCALDATE	LABEL	8/19/2019	AC Calibration Date
THERMOSELECT	IQUANT	1	Thermo Select
FRAMEWORKVERSION	QUANT	6.33	Framework Version
INSTRUMENTVERSION	LABEL	3.50	Instrument Version
ZCURVE	TABLE
	Pt	Time	Freq	Zreal	Zimag	Zsig	Zmod	Zphz	Idc	Vdc	IERange
	#	s	Hz	ohm	ohm	V	ohm	°	A	V	#
	0	1	1000078	2339.844	-2025.909	1	3095.025	-40.88701	1.161385E-005	0.0769909	8
	1	3	794390.6	2741.873	-1976.607	1	3380.066	-35.7877	1.116E-005	0.0769862	8
	2	4	630984.4	3109.706	-1854.164	1	3620.524	-30.80553	1.003843E-005	0.0771183	8
	3	6	501234.4	3429	-1698.129	1	3826.446	-26.3458	1.054682E-005	0.0770052	8
	4	8	398109.4	3672.964	-1532.098	1	3979.697	-22.64241	1.135526E-005	0.076792	8
	5	9	316265.6	3887.605	-1360.855	1	4118.908	-19.29258	1.248782E-005	0.0764994	8
	6	11	251203.1	4041.122	-1224.92	1	4222.688	-16.86278	1.014553E-005	0.0770298	8
	7	12	199546.9	4185.29	-1136.419	1	4336.831	-15.19109	9.168769E-006	0.0770492	8
	8	14	158578.1	4329.491	-1005.705	1	4444.765	-13.07742	9.31635E-006	0.0770687	8
	9	15	125953.1	4373.42	-967.499	1	4479.159	-12.47422	3.327286E-007	0.0781521	7
	10	17	100078.1	4444.325	-918.4571	1	4538.236	-11.67628	9.411134E-007	0.0770949	7
	11	18	79453.13	4516.501	-917.2328	1	4608.698	-11.47978	9.883807E-007	0.0769814	7
	12	20	63140.62	4591.566	-938.4376	1	4686.485	-11.55119	9.359049E-007	0.0770111	7
	13	21	50203.12	4671.074	-983.456	1	4773.481	-11.8895	8.922817E-007	0.0771369	7
	14	22	39890.62	4744.814	-1057.714	1	4861.277	-12.5669	9.513585E-007	0.077055	7
	15	24	31640.63	4839.296	-1163.236	1	4977.139	-13.51594	9.018283E-007	0.0770958	7
	16	25	25171.88	4935.626	-1297.52	1	5103.329	-14.72913	9.091872E-007	0.0771562	7
	17	26	20015.62	5048.012	-1468.088	1	5257.158	-16.21575	9.114703E-007	0.0771557	7
	18	28	15890.62	5174.191	-1673.57	1	5438.115	-17.92357	9.399805E-007	0.077094	7
	19	29	12609.37	5322.371	-1922.493	1	5658.94	-19.86022	8.922552E-007	0.0771329	7
	20	30	10078.13	5487.386	-2210.434	1	5915.862	-21.9406	9.225108E-007	0.0770237	7
	21	32	8015.625	5675.958	-2573.692	1	6232.206	-24.39132	9.241522E-007	0.0770312	7
	22	33	6328.125	5908.282	-3005.043	1	6628.581	-26.95859	9.131479E-007	0.0770646	7
	23	34	5015.625	6167.272	-3516.264	1	7099.251	-29.68958	9.123907E-007	0.0770614	7
	24	36	3984.375	6473.057	-4116.601	1	7671.171	-32.4547	9.310028E-007	0.0770656	7
	25	37	3170.956	6820.494	-4827.274	1	8355.939	-35.28934	9.178204E-007	0.0771114	7
	26	38	2527.573	7235.076	-5636.117	1	9171.267	-37.91856	9.391525E-007	0.0770081	7
	27	40	1976.103	7753.263	-6711.783	1	10254.81	-40.88182	9.029593E-007	0.0770768	7
	28	41	1577.524	8303.331	-7861.832	1	11434.76	-43.43554	9.400053E-007	0.0770924	7
	29	42	1265.625	8957.572	-9176.817	1	12823.89	-45.69267	9.485603E-008	0.0769552	6
	30	44	998.264	9773.25	-10864.83	1	14613.73	-48.02763	9.955416E-008	0.0768284	6
	31	45	796.875	10690.86	-12755.02	1	16642.87	-50.03132	9.897652E-008	0.0768462	6
	32	46	627.7902	11835.19	-15109.86	1	19193.22	-51.92924	9.07784E-008	0.0770523	6
	33	48	505.5147	13052.84	-17631.19	1	21937.08	-53.48645	9.083972E-008	0.0770537	6
	34	49	397.9953	14647.48	-20895.8	1	25518.29	-54.97042	9.265163E-008	0.0766373	6
	35	50	315.5048	16478.31	-24646.8	1	29647.93	-56.23417	9.253263E-008	0.0766407	6
	36	52	252.4038	18546.59	-28881.35	1	34323.59	-57.29285	9.29957E-008	0.0766307	6
	37	53	198.6229	21164.69	-34229.59	1	40244.37	-58.27086	9.26396E-008	0.0766351	6
	38	54	158.3615	24077.73	-40204.48	1	46862.97	-59.08337	9.232879E-008	0.0766372	6
	39	56	125.558	27583.03	-47377.45	1	54821.96	-59.79214	9.256758E-008	0.0766314	6
	40	57	100.4464	31586.25	-55449.78	1	63815.11	-60.33256	9.266633E-008	0.0766322	6
	41	58	79.00281	36400.3	-65840.38	1	75232.56	-61.06369	9.267726E-008	0.0766338	6
	42	60	63.3446	42084.33	-75986.1	1	86861.84	-61.02045	9.232055E-008	0.0766376	6
	43	61	49.86702	48534.8	-91650.32	1	103708.3	-62.09587	9.273408E-008	0.0766327	6
	44	62	39.72458	55621.34	-106802	1	120417.6	-62.48997	9.231771E-008	0.0766357	6
	45	64	31.6723	64150.15	-125912.6	1	141312.5	-63.002	9.711338E-009	0.0766409	5
	46	65	24.93351	73931.54	-149391.7	1	166684.6	-63.66993	9.847977E-009	0.0766464	5
	47	66	19.86229	84946.77	-176345.5	1	195738.9	-64.27959	9.593538E-009	0.076638	5
	48	68	15.83615	99094.6	-209073.4	1	231368.6	-64.64044	8.714716E-009	0.0766425	5
	49	69	12.40079	115258.1	-251479.9	1	276634.4	-65.37709	9.97828E-009	0.0766384	5
	50	71	9.93114	130829.6	-297017.6	1	324554.8	-66.22758	9.535099E-009	0.0766444	5
	51	72	7.944915	151338.6	-354160.9	1	385140.7	-66.86221	9.519861E-009	0.0766447	5
	52	74	6.317385	176078.7	-420816.2	1	456168.8	-67.2945	9.425319E-009	0.0766418	5
	53	76	5.008013	207188.4	-504742.8	1	545611.9	-67.68267	9.506267E-009	0.076655	5
	54	78	3.945707	246553.5	-608683.8	1	656722.6	-67.9491	9.397448E-009	0.0766346	5
	55	81	3.158693	290815.3	-726049.4	1	782126.2	-68.17168	9.241476E-008	0.0766541	6
	56	85	2.504006	352464.3	-869738	1	938443	-67.93958	9.210846E-009	0.0769194	5
	57	88	1.998082	422441.6	-1034161	1	1117115	-67.7806	9.195495E-009	0.0769317	5
	58	91	1.584686	519887.1	-1235480	1	1340408	-67.17876	9.287835E-009	0.0769805	5
	59	95	1.266892	629372.3	-1465124	1	1594584	-66.75312	8.946237E-010	0.0769203	4
	60	99	0.999041	784084.6	-1744543	1	1912647	-65.79847	1.083249E-009	0.0769514	4
