EXPLAIN
TAG	EISPOT
TITLE	LABEL	Potentiostatic IDE	Test &Identifier
DATE	LABEL	9/14/2019	Date
TIME	LABEL	12:33:38	Time
NOTES	NOTES	1	&Notes...
	
PSTAT	PSTAT	REF600-11020	Potentiostat
VDC	POTEN	0.00000E+000	T	DC &Voltage (V)
FREQINIT	QUANT	1.00000E+006	Initial Fre&q. (Hz)
FREQFINAL	QUANT	1.00000E+000	Final Fre&q. (Hz)
PTSPERDEC	QUANT	1.00000E+001	Points/&decade
VAC	QUANT	2.50000E+001	AC &Voltage (mV rms)
AREA	QUANT	1.00000E-002	&Area (cm^2)
CONDIT	TWOPARAM	T	5.00000E+000	0.00000E+000	Conditionin&g	Time(s)	E(V)
DELAY	TWOPARAM	T	5.00000E+000	0.00000E+000	Init. De&lay	Time(s)	Stab.(mV/s)
SPEED	SELECTOR	1	&Optimize for:
ZGUESS	QUANT	1.00000E+007	E&stimated Z (ohms)
OCVCURVE	TABLE	19
	Pt	T	Vf	Vm	Ach	Over
	#	s	V vs. Ref.	V	V	bits
	0	0.258333	8.13862E-003	8.13862E-003	5.43266E-004	...........
	1	0.516667	8.13932E-003	8.17486E-003	5.37966E-004	...........
	2	0.775	8.14377E-003	8.21988E-003	5.43433E-004	...........
	3	1.03333	8.15736E-003	8.27921E-003	5.42433E-004	...........
	4	1.29167	8.18444E-003	8.34236E-003	5.41233E-004	...........
	5	1.55	8.22565E-003	8.40779E-003	5.41233E-004	...........
	6	1.80833	8.27827E-003	8.47257E-003	5.43166E-004	...........
	7	2.06667	8.33827E-003	8.53919E-003	5.44833E-004	...........
	8	2.325	8.40218E-003	8.60752E-003	5.43299E-004	...........
	9	2.58333	8.46785E-003	8.66978E-003	5.44666E-004	...........
	10	2.84167	8.53415E-003	8.74022E-003	5.47999E-004	...........
	11	3.1	8.60042E-003	8.79743E-003	5.44333E-004	...........
	12	3.35833	8.66614E-003	8.86459E-003	5.40466E-004	...........
	13	3.61667	8.73080E-003	8.91734E-003	5.40566E-004	...........
	14	3.875	8.79379E-003	8.97497E-003	5.39366E-004	...........
	15	4.13333	8.85469E-003	9.03588E-003	5.30700E-004	...........
	16	4.39167	8.91378E-003	9.08986E-003	5.38366E-004	...........
	17	4.65	8.97163E-003	9.13842E-003	5.41099E-004	...........
	18	4.90833	9.02807E-003	9.19065E-003	5.40299E-004	...........
EOC	QUANT	0.0090281	Open Circuit (V)
PSTATMODEL	IQUANT	4	Pstat Model
PSTATSECTION	LABEL	REF600-11020	Pstat Section
PSTATSERIALNO	LABEL	11020	Pstat Serial Number
CTRLMODE	IQUANT	1	Control Mode
IESTAB	IQUANT	0	I/E Stability
CASPEED	IQUANT	1	Control Amp Speed
CONVENTION	IQUANT	1	Current Convention
ICHRANGE	IQUANT	2	Ich Range
ICHRANGEMODE	TOGGLE	F	Ich Auto Range
ICHOFFSETENABLE	TOGGLE	T	Ich Offset Enable
ICHOFFSET	QUANT	0	Ich Offset (V)
ICHFILTER	IQUANT	3	Ich Filter
VCHRANGE	IQUANT	2	Vch Range
VCHRANGEMODE	TOGGLE	F	Vch Auto Range
VCHOFFSETENABLE	TOGGLE	T	Vch Offset Enable
VCHOFFSET	QUANT	0	Vch Offset (V)
VCHFILTER	IQUANT	3	Vch Filter
ACHRANGE	IQUANT	2	Ach Range
ACHOFFSETENABLE	TOGGLE	F	Ach Offset Enable
ACHOFFSET	QUANT	0	Ach Offset (V)
ACHFILTER	IQUANT	3	Ach Filter
IERANGELOWERLIMIT	IQUANT	1	I/E Range Lower Limit
IERANGEMODE	TOGGLE	F	I/E AutoRange
IERANGE	IQUANT	3	I/E Range
POSFEEDENABLE	TOGGLE	F	Positive Feedback IR Comp
POSFEEDRESISTANCE	QUANT	0	Positive Feedback Resistance (ohm)
ACHSELECT	IQUANT	0	Ach Select
CABLEID	IQUANT	14	Cable ID
DCCALDATE	LABEL	8/19/2019	DC Calibration Date
ACCALDATE	LABEL	8/19/2019	AC Calibration Date
THERMOSELECT	IQUANT	1	Thermo Select
FRAMEWORKVERSION	QUANT	6.33	Framework Version
INSTRUMENTVERSION	LABEL	3.50	Instrument Version
ZCURVE	TABLE
	Pt	Time	Freq	Zreal	Zimag	Zsig	Zmod	Zphz	Idc	Vdc	IERange
	#	s	Hz	ohm	ohm	V	ohm	°	A	V	#
	0	2	1000078	2415.018	-1985.394	1	3126.356	-39.42373	5.644156E-007	0.0117349	8
	1	3	794390.6	2824.279	-1951.018	1	3432.641	-34.63681	-5.781093E-006	0.012198	8
	2	5	630984.4	3201.603	-1855.376	1	3700.362	-30.09292	3.133119E-006	0.0102239	8
	3	6	501234.4	3525.316	-1688.301	1	3908.736	-25.59012	-1.589788E-006	0.0111241	8
	4	8	398109.4	3809.814	-1529.562	1	4105.392	-21.87444	-2.055981E-006	0.0109355	8
	5	9	316265.6	4021.286	-1307.21	1	4228.42	-18.00792	-4.503093E-007	0.0108116	8
	6	11	251203.1	4188.93	-1144.681	1	4342.514	-15.2837	5.365974E-006	0.0096175	8
	7	12	199546.9	4289.516	-980.285	1	4400.103	-12.87277	2.412057E-006	0.0101112	8
	8	14	158578.1	4429.139	-869.5947	1	4513.698	-11.10787	-4.798663E-007	0.0109555	8
	9	15	125953.1	4517.985	-699.1548	1	4571.762	-8.796702	-8.240332E-007	0.0131299	7
	10	17	100078.1	4551.68	-622.512	1	4594.052	-7.78776	-1.278222E-008	0.0106416	7
	11	18	79453.13	4601.828	-571.0065	1	4637.118	-7.073253	3.447266E-008	0.0105562	7
	12	19	63140.62	4646.332	-535.8928	1	4677.134	-6.579238	8.531555E-008	0.010412	7
	13	21	50203.12	4687.183	-513.2961	1	4715.205	-6.24959	3.430857E-008	0.0105494	7
	14	22	39890.62	4729.631	-510.0737	1	4757.057	-6.155353	-5.526301E-008	0.0106622	7
	15	23	31640.63	4772.145	-514.6712	1	4799.818	-6.155503	1.639832E-008	0.0106665	7
	16	25	25171.88	4814.838	-535.0071	1	4844.471	-6.340487	-4.358017E-008	0.0105865	7
	17	26	20015.62	4857.265	-568.306	1	4890.398	-6.673337	-1.747896E-009	0.0105728	7
	18	27	15890.62	4908.744	-615.1439	1	4947.138	-7.142839	8.094461E-008	0.0105368	7
	19	29	12609.37	4959.04	-677.5494	1	5005.112	-7.780101	-9.516155E-009	0.0107117	7
	20	30	10078.13	5014.666	-754.9203	1	5071.171	-8.561162	-9.903705E-009	0.0106297	7
	21	31	8015.625	5075.242	-853.8434	1	5146.564	-9.54984	1.322735E-007	0.0103837	7
	22	33	6328.125	5144.77	-980.129	1	5237.3	-10.78616	-1.002091E-008	0.0106194	7
	23	34	5015.625	5221.275	-1132.293	1	5342.64	-12.23578	1.021217E-009	0.0105037	7
	24	35	3984.375	5303.641	-1317.385	1	5464.807	-13.94953	-4.30098E-008	0.010713	7
	25	37	3170.956	5394.058	-1540.113	1	5609.618	-15.93512	4.847926E-008	0.0104294	7
	26	38	2527.573	5496.077	-1810.969	1	5786.75	-18.23717	-4.341765E-008	0.0107143	7
	27	39	1976.103	5618.375	-2166.783	1	6021.718	-21.08963	-3.773093E-008	0.0105956	7
	28	41	1577.524	5745.967	-2566.372	1	6293.044	-24.06739	-5.095072E-008	0.0106773	7
	29	42	1265.625	5887.715	-3005.045	1	6610.256	-27.03942	1.98747E-008	0.0104868	7
	30	43	998.264	6062.208	-3668.081	1	7085.562	-31.17702	1.348487E-007	0.0103697	7
	31	45	796.875	6246.582	-4395.45	1	7638.047	-35.1324	-6.800461E-008	0.0106746	7
	32	46	627.7902	6483.62	-5335.005	1	8396.404	-39.44904	-5.255327E-008	0.0106738	7
	33	47	505.5147	6726.915	-6378.123	1	9269.942	-43.47543	-4.440015E-008	0.0107117	7
	34	49	397.9953	7052.527	-7782.102	1	10502.34	-47.81557	1.820606E-009	0.0105334	6
	35	50	315.5048	7416.663	-9472.169	1	12030.33	-51.93923	5.818794E-010	0.0105361	6
	36	51	252.4038	7826.77	-11458.55	1	13876.48	-55.66494	2.06204E-010	0.0105268	6
	37	53	198.6229	8358.842	-14083.69	1	16377.44	-59.31034	9.840435E-010	0.0105339	6
	38	54	158.3615	8970.721	-17151.43	1	19355.76	-62.38906	1.459684E-009	0.0105313	6
	39	55	125.558	9739.17	-21010.66	1	23158.13	-65.13063	8.873718E-010	0.0105289	6
	40	57	100.4464	10625.08	-25573.5	1	27692.9	-67.43846	1.73983E-010	0.0105231	6
	41	58	79.00281	11928.29	-31710.47	1	33879.76	-69.38558	3.355359E-010	0.010525	6
	42	59	63.3446	13414.46	-38009.9	1	40307.57	-70.56103	1.054276E-009	0.010525	6
	43	61	49.86702	15651.48	-47869.88	1	50363.62	-71.89438	1.648442E-011	0.0105229	6
	44	62	39.72458	18321.94	-57982.66	1	60808.57	-72.46399	1.014662E-009	0.0105288	6
	45	63	31.6723	21846.24	-70907.76	1	74196.82	-72.87626	1.270619E-010	0.0105287	6
	46	65	24.93351	26747.12	-86934.76	1	90956.37	-72.8985	9.9634E-010	0.0105224	6
	47	66	19.86229	32912.97	-105506.3	1	110520.8	-72.67456	3.056583E-010	0.0105284	5
	48	68	15.83615	40804.8	-128388	1	134716.4	-72.36848	-3.127678E-010	0.0105279	5
	49	69	12.40079	51618.08	-155922.5	1	164244.5	-71.6829	6.694532E-011	0.010529	5
	50	70	9.93114	66771.09	-186157.9	1	197770.4	-70.26811	5.188637E-010	0.0105372	5
	51	72	7.944915	84223.14	-219852	1	235432.5	-69.03866	1.694087E-010	0.0105297	5
	52	74	6.317385	106451.7	-261597	1	282426.9	-67.85711	1.588788E-010	0.0105257	5
	53	76	5.008013	135208.5	-309079.4	1	337359.5	-66.37276	1.01482E-010	0.0105249	5
	54	78	3.945707	171607.4	-364468.7	1	402848	-64.78695	4.128486E-010	0.0105373	5
	55	81	3.158693	213402.1	-422952.9	1	473740	-63.22664	-7.142298E-011	0.010532	5
	56	84	2.504006	265562.6	-489205.9	1	556638.1	-61.50493	3.476975E-010	0.010526	5
	57	87	1.998082	324832.9	-560471.6	1	647799.9	-59.90468	-8.716303E-011	0.0105598	5
	58	90	1.584686	396683.5	-640885.4	1	753718.7	-58.24408	2.821959E-010	0.0105626	5
	59	94	1.266892	477668.5	-723340.3	1	866826.6	-56.56063	-9.33826E-011	0.0105611	5
	60	98	0.999041	572776	-817061.3	1	997828	-54.96879	3.103657E-010	0.0105165	5
