EXPLAIN
TAG	EISPOT
TITLE	LABEL	Potentiostatic EIS	Test &Identifier
DATE	LABEL	10/2/2019	Date
TIME	LABEL	9:13:00	Time
NOTES	NOTES	2	&Notes...
	
	
PSTAT	PSTAT	REF600-11020	Potentiostat
VDC	POTEN	0.00000E+000	T	DC &Voltage (V)
FREQINIT	QUANT	1.00000E+006	Initial Fre&q. (Hz)
FREQFINAL	QUANT	1.00000E+000	Final Fre&q. (Hz)
PTSPERDEC	QUANT	1.00000E+001	Points/&decade
VAC	QUANT	2.50000E+001	AC &Voltage (mV rms)
AREA	QUANT	1.00000E-002	&Area (cm^2)
CONDIT	TWOPARAM	T	5.00000E+000	0.00000E+000	Conditionin&g	Time(s)	E(V)
DELAY	TWOPARAM	T	5.00000E+000	0.00000E+000	Init. De&lay	Time(s)	Stab.(mV/s)
SPEED	SELECTOR	1	&Optimize for:
ZGUESS	QUANT	1.00000E+004	E&stimated Z (ohms)
OCVCURVE	TABLE	19
	Pt	T	Vf	Vm	Ach	Over
	#	s	V vs. Ref.	V	V	bits
	0	0.258333	4.45302E-003	4.45302E-003	5.66866E-004	...........
	1	0.516667	4.45258E-003	4.43019E-003	5.65166E-004	...........
	2	0.775	4.45029E-003	4.42902E-003	5.66466E-004	...........
	3	1.03333	4.44511E-003	4.42739E-003	5.65699E-004	...........
	4	1.29167	4.43826E-003	4.42251E-003	5.66832E-004	...........
	5	1.55	4.43210E-003	4.42827E-003	5.67366E-004	...........
	6	1.80833	4.42825E-003	4.43626E-003	5.68599E-004	...........
	7	2.06667	4.42739E-003	4.43314E-003	5.70832E-004	...........
	8	2.325	4.42890E-003	4.42962E-003	5.64866E-004	...........
	9	2.58333	4.43085E-003	4.43231E-003	5.69366E-004	...........
	10	2.84167	4.43141E-003	4.40911E-003	5.68899E-004	...........
	11	3.1	4.42966E-003	4.42894E-003	5.63466E-004	...........
	12	3.35833	4.42658E-003	4.43170E-003	5.59832E-004	...........
	13	3.61667	4.42499E-003	4.43860E-003	5.65299E-004	...........
	14	3.875	4.42678E-003	4.44213E-003	5.61832E-004	...........
	15	4.13333	4.43188E-003	4.48396E-003	5.63732E-004	...........
	16	4.39167	4.44138E-003	4.51593E-003	5.63232E-004	...........
	17	4.65	4.45761E-003	4.52841E-003	5.61532E-004	...........
	18	4.90833	4.47964E-003	4.53611E-003	5.62499E-004	...........
EOC	QUANT	0.0044796	Open Circuit (V)
PSTATMODEL	IQUANT	4	Pstat Model
PSTATSECTION	LABEL	REF600-11020	Pstat Section
PSTATSERIALNO	LABEL	11020	Pstat Serial Number
CTRLMODE	IQUANT	1	Control Mode
IESTAB	IQUANT	0	I/E Stability
CASPEED	IQUANT	1	Control Amp Speed
CONVENTION	IQUANT	1	Current Convention
ICHRANGE	IQUANT	2	Ich Range
ICHRANGEMODE	TOGGLE	F	Ich Auto Range
ICHOFFSETENABLE	TOGGLE	T	Ich Offset Enable
ICHOFFSET	QUANT	0	Ich Offset (V)
ICHFILTER	IQUANT	3	Ich Filter
VCHRANGE	IQUANT	2	Vch Range
VCHRANGEMODE	TOGGLE	F	Vch Auto Range
VCHOFFSETENABLE	TOGGLE	T	Vch Offset Enable
VCHOFFSET	QUANT	0	Vch Offset (V)
VCHFILTER	IQUANT	3	Vch Filter
ACHRANGE	IQUANT	2	Ach Range
ACHOFFSETENABLE	TOGGLE	F	Ach Offset Enable
ACHOFFSET	QUANT	0	Ach Offset (V)
ACHFILTER	IQUANT	3	Ach Filter
IERANGELOWERLIMIT	IQUANT	1	I/E Range Lower Limit
IERANGEMODE	TOGGLE	F	I/E AutoRange
IERANGE	IQUANT	5	I/E Range
POSFEEDENABLE	TOGGLE	F	Positive Feedback IR Comp
POSFEEDRESISTANCE	QUANT	0	Positive Feedback Resistance (ohm)
ACHSELECT	IQUANT	0	Ach Select
CABLEID	IQUANT	14	Cable ID
DCCALDATE	LABEL	8/19/2019	DC Calibration Date
ACCALDATE	LABEL	8/19/2019	AC Calibration Date
THERMOSELECT	IQUANT	1	Thermo Select
FRAMEWORKVERSION	QUANT	6.33	Framework Version
INSTRUMENTVERSION	LABEL	3.50	Instrument Version
ZCURVE	TABLE
	Pt	Time	Freq	Zreal	Zimag	Zsig	Zmod	Zphz	Idc	Vdc	IERange
	#	s	Hz	ohm	ohm	V	ohm	°	A	V	#
	0	1	1000078	2124.964	-857.7791	1	2291.563	-21.98233	2.872631E-006	0.0066733	8
	1	3	794390.6	2255.92	-766.4439	1	2382.564	-18.76508	2.094393E-006	0.0057873	8
	2	4	630984.4	2355.765	-654.5966	1	2445.021	-15.52902	-3.527197E-006	0.0067196	8
	3	5	501234.4	2437.936	-553.28	1	2499.93	-12.78647	9.085197E-007	0.0061027	8
	4	7	398109.4	2491.775	-497.6435	1	2540.982	-11.2942	-4.729483E-006	0.0071897	8
	5	8	316265.6	2531.859	-421.8525	1	2566.762	-9.459592	3.651566E-007	0.0059835	8
	6	9	251203.1	2567.255	-366.192	1	2593.24	-8.117882	-4.936793E-007	0.0062694	8
	7	11	199546.9	2593.849	-320.4846	1	2613.573	-7.043518	-1.737336E-007	0.0061904	8
	8	12	158578.1	2624.164	-277.8864	1	2638.837	-6.044821	-1.723416E-007	0.0061884	8
	9	14	125953.1	2652.985	-230.7222	1	2662.998	-4.970338	-2.771862E-007	0.0063422	7
	10	15	100078.1	2667.083	-209.875	1	2675.327	-4.499382	1.215266E-007	0.0058635	7
	11	16	79453.13	2684.983	-204.9218	1	2692.792	-4.364436	6.463959E-009	0.005978	7
	12	17	63140.62	2703.01	-205.2308	1	2710.791	-4.341951	-3.848743E-008	0.006045	7
	13	19	50203.12	2722.479	-208.6431	1	2730.462	-4.382421	-3.379454E-008	0.0060434	7
	14	20	39890.62	2743.282	-216.0441	1	2751.776	-4.502969	7.348889E-008	0.0058738	7
	15	21	31640.63	2764.085	-226.4205	1	2773.343	-4.682938	-1.135078E-008	0.0060616	7
	16	23	25171.88	2786.779	-241.4211	1	2797.217	-4.951221	-2.753581E-008	0.0060333	7
	17	24	20015.62	2813.356	-260.72	1	2825.411	-5.294606	-8.223784E-009	0.0060462	7
	18	25	15890.62	2834.342	-286.5774	1	2848.792	-5.773497	-3.723553E-008	0.0060354	7
	19	27	12609.37	2861.666	-317.7649	1	2879.255	-6.336275	6.778502E-008	0.0059026	7
	20	28	10078.13	2887.057	-355.6817	1	2908.884	-7.023376	-1.480437E-008	0.0059922	7
	21	30	8015.625	2917.458	-403.5187	1	2945.232	-7.874717	7.502821E-008	0.0058645	7
	22	31	6328.125	2949.31	-463.808	1	2985.557	-8.93713	1.244521E-007	0.0058329	7
	23	32	5015.625	2983.728	-537.0936	1	3031.683	-10.20439	-1.391675E-008	0.0059844	7
	24	34	3984.375	3020.755	-625.9324	1	3084.924	-11.70662	-1.238372E-008	0.0059833	7
	25	35	3170.956	3060.659	-734.2474	1	3147.5	-13.49023	-1.35917E-008	0.0059827	7
	26	36	2527.573	3105.168	-865.0532	1	3223.412	-15.56704	2.533863E-008	0.0059899	7
	27	38	1976.103	3159.101	-1041.995	1	3326.51	-18.25457	-6.833663E-008	0.0061256	7
	28	39	1577.524	3213.604	-1239.617	1	3444.402	-21.09363	-8.219089E-009	0.006038	7
	29	40	1265.625	3275.3	-1475.734	1	3592.406	-24.25463	2.566054E-008	0.0059883	7
	30	42	998.264	3347.849	-1789.134	1	3795.931	-28.12062	-4.708535E-008	0.0061489	7
	31	43	796.875	3430.664	-2155.935	1	4051.853	-32.14652	-3.713399E-008	0.0060327	7
	32	44	627.7902	3529.302	-2636.483	1	4405.34	-36.76072	2.565525E-009	0.0060188	7
	33	46	505.5147	3631.087	-3168.177	1	4818.936	-41.10518	-7.301784E-009	0.0060348	7
	34	47	397.9953	3779.032	-3900.267	1	5430.761	-45.90447	6.173916E-009	0.0060298	7
	35	48	315.5048	3950.463	-4778.264	1	6199.835	-50.41752	6.654877E-009	0.0060372	7
	36	50	252.4038	4154.864	-5813.658	1	7145.733	-54.44764	5.685695E-009	0.0060371	7
	37	51	198.6229	4434.401	-7183.368	1	8441.841	-58.31234	5.946451E-009	0.0060305	7
	38	52	158.3615	4774.444	-8774.834	1	9989.65	-61.4491	5.556378E-009	0.0060319	7
	39	54	125.558	5224.842	-10770.55	1	11970.95	-64.12177	7.128478E-010	0.0059757	6
	40	55	100.4464	5783.743	-13100.6	1	14320.52	-66.17916	1.331326E-009	0.0059722	6
	41	56	79.00281	6574.057	-16177.13	1	17461.89	-67.88417	1.337532E-009	0.0059721	6
	42	58	63.3446	7555.021	-19536.1	1	20946.06	-68.85746	2.451447E-010	0.0059719	6
	43	59	49.86702	8807.064	-24081.45	1	25641.38	-69.91153	2.852907E-010	0.0059685	6
	44	60	39.72458	10469.78	-29135.21	1	30959.28	-70.23402	5.837482E-010	0.0059707	6
	45	62	31.6723	12600.2	-35213.08	1	37399.54	-70.31141	1.085704E-009	0.0059682	6
	46	63	24.93351	15450.8	-42791.84	1	45495.81	-70.14693	4.516975E-010	0.0059647	6
	47	64	19.86229	18964.8	-51338.11	1	54729.02	-69.72528	3.688798E-010	0.0059692	6
	48	66	15.83615	23236.53	-61289.4	1	65546.38	-69.23688	5.044389E-010	0.0059665	6
	49	67	12.40079	29300.59	-74044.25	1	79630.88	-68.41044	4.087162E-011	0.005968	6
	50	69	9.93114	35848.8	-87188.73	1	94270.95	-67.64934	1.204781E-009	0.0059674	6
	51	70	7.944915	43856.29	-102658.8	1	111634.3	-66.86762	-2.573936E-010	0.0059784	5
	52	72	6.317385	54005.48	-121038.2	1	132540	-65.95427	-4.105199E-010	0.0059808	5
	53	74	5.008013	66010.92	-142366.7	1	156925.9	-65.12434	5.094893E-010	0.0059845	5
	54	76	3.945707	80974.64	-167772.6	1	186291.5	-64.23594	-3.417426E-010	0.0059778	5
	55	79	3.158693	97822.7	-194831.3	1	218010.3	-63.33927	3.997141E-010	0.0059803	5
	56	82	2.504006	118482.9	-227115	1	256162.9	-62.44955	-3.089987E-010	0.0059837	5
	57	85	1.998082	141524.9	-261999.5	1	297780.1	-61.62331	3.318605E-010	0.0059388	5
	58	88	1.584686	168874.7	-304153.8	1	347891.1	-60.95975	-3.125203E-011	0.0059376	5
	59	91	1.266892	198924.5	-348708.1	1	401457.7	-60.29691	3.510137E-010	0.0059391	5
	60	96	0.999041	234849	-404778.2	1	467973.7	-59.87805	-1.669918E-010	0.0059852	5
