EXPLAIN
TAG	EISPOT
TITLE	LABEL	Potentiostatic EIS	Test &Identifier
DATE	LABEL	10/12/2019	Date
TIME	LABEL	9:16:19	Time
NOTES	NOTES	1	&Notes...
	
PSTAT	PSTAT	REF600-11020	Potentiostat
VDC	POTEN	0.00000E+000	T	DC &Voltage (V)
FREQINIT	QUANT	1.00000E+006	Initial Fre&q. (Hz)
FREQFINAL	QUANT	1.00000E+000	Final Fre&q. (Hz)
PTSPERDEC	QUANT	1.00000E+001	Points/&decade
VAC	QUANT	2.50000E+001	AC &Voltage (mV rms)
AREA	QUANT	1.00000E-002	&Area (cm^2)
CONDIT	TWOPARAM	T	5.00000E+000	0.00000E+000	Conditionin&g	Time(s)	E(V)
DELAY	TWOPARAM	T	5.00000E+000	0.00000E+000	Init. De&lay	Time(s)	Stab.(mV/s)
SPEED	SELECTOR	1	&Optimize for:
ZGUESS	QUANT	1.00000E+004	E&stimated Z (ohms)
OCVCURVE	TABLE	19
	Pt	T	Vf	Vm	Ach	Over
	#	s	V vs. Ref.	V	V	bits
	0	0.258333	3.59062E-003	3.59062E-003	5.49199E-004	...........
	1	0.516667	3.58744E-003	3.42369E-003	5.49099E-004	...........
	2	0.775	3.56696E-003	3.21850E-003	5.53833E-004	...........
	3	1.03333	3.50664E-003	3.05313E-003	5.51832E-004	...........
	4	1.29167	3.39718E-003	2.97753E-003	5.44199E-004	...........
	5	1.55	3.25593E-003	2.82288E-003	5.48599E-004	...........
	6	1.80833	3.10706E-003	2.57701E-003	5.46499E-004	...........
	7	2.06667	2.95380E-003	2.34216E-003	5.48066E-004	...........
	8	2.325	2.78520E-003	2.28478E-003	5.50466E-004	...........
	9	2.58333	2.60890E-003	2.33472E-003	5.48066E-004	...........
	10	2.84167	2.45981E-003	2.34827E-003	5.53533E-004	...........
	11	3.1	2.36697E-003	2.26395E-003	5.52999E-004	...........
	12	3.35833	2.32214E-003	2.16804E-003	5.51866E-004	...........
	13	3.61667	2.29118E-003	2.13654E-003	5.50166E-004	...........
	14	3.875	2.24966E-003	2.07761E-003	5.53699E-004	...........
	15	4.13333	2.19654E-003	2.03114E-003	5.51133E-004	...........
	16	4.39167	2.14053E-003	1.99189E-003	5.51099E-004	...........
	17	4.65	2.08720E-003	1.93232E-003	5.54033E-004	...........
	18	4.90833	2.03665E-003	1.86277E-003	5.54366E-004	...........
EOC	QUANT	0.0020367	Open Circuit (V)
PSTATMODEL	IQUANT	4	Pstat Model
PSTATSECTION	LABEL	REF600-11020	Pstat Section
PSTATSERIALNO	LABEL	11020	Pstat Serial Number
CTRLMODE	IQUANT	1	Control Mode
IESTAB	IQUANT	0	I/E Stability
CASPEED	IQUANT	1	Control Amp Speed
CONVENTION	IQUANT	1	Current Convention
ICHRANGE	IQUANT	2	Ich Range
ICHRANGEMODE	TOGGLE	F	Ich Auto Range
ICHOFFSETENABLE	TOGGLE	T	Ich Offset Enable
ICHOFFSET	QUANT	0	Ich Offset (V)
ICHFILTER	IQUANT	3	Ich Filter
VCHRANGE	IQUANT	2	Vch Range
VCHRANGEMODE	TOGGLE	F	Vch Auto Range
VCHOFFSETENABLE	TOGGLE	T	Vch Offset Enable
VCHOFFSET	QUANT	0	Vch Offset (V)
VCHFILTER	IQUANT	3	Vch Filter
ACHRANGE	IQUANT	2	Ach Range
ACHOFFSETENABLE	TOGGLE	F	Ach Offset Enable
ACHOFFSET	QUANT	0	Ach Offset (V)
ACHFILTER	IQUANT	3	Ach Filter
IERANGELOWERLIMIT	IQUANT	1	I/E Range Lower Limit
IERANGEMODE	TOGGLE	F	I/E AutoRange
IERANGE	IQUANT	5	I/E Range
POSFEEDENABLE	TOGGLE	F	Positive Feedback IR Comp
POSFEEDRESISTANCE	QUANT	0	Positive Feedback Resistance (ohm)
ACHSELECT	IQUANT	0	Ach Select
CABLEID	IQUANT	14	Cable ID
DCCALDATE	LABEL	8/19/2019	DC Calibration Date
ACCALDATE	LABEL	8/19/2019	AC Calibration Date
THERMOSELECT	IQUANT	1	Thermo Select
FRAMEWORKVERSION	QUANT	6.33	Framework Version
INSTRUMENTVERSION	LABEL	3.50	Instrument Version
ZCURVE	TABLE
	Pt	Time	Freq	Zreal	Zimag	Zsig	Zmod	Zphz	Idc	Vdc	IERange
	#	s	Hz	ohm	ohm	V	ohm	°	A	V	#
	0	1	1000078	2160.989	-1587.72	1	2681.553	-36.30544	4.286492E-007	0.0043204	8
	1	3	794390.6	2460.077	-1572.724	1	2919.835	-32.59074	-9.815899E-007	0.0042962	8
	2	4	630984.4	2762.26	-1519.26	1	3152.496	-28.81106	-1.312029E-006	0.0039891	8
	3	6	501234.4	3041.25	-1430.215	1	3360.762	-25.18629	-7.993135E-007	0.003614	8
	4	7	398109.4	3265.725	-1316.271	1	3521.012	-21.95221	-5.62278E-007	0.0038134	8
	5	8	316265.6	3470.474	-1188.264	1	3668.264	-18.90082	4.876717E-007	0.0036564	8
	6	10	251203.1	3627.272	-1054.738	1	3777.509	-16.21338	4.840256E-006	0.0025165	8
	7	11	199546.9	3764.299	-929.9784	1	3877.474	-13.87717	-6.226227E-007	0.003593	8
	8	13	158578.1	3869.172	-827.2725	1	3956.624	-12.06876	-2.060987E-006	0.0041109	8
	9	14	125953.1	3978.95	-692.7178	1	4038.799	-9.87596	6.031933E-007	0.0020481	7
	10	16	100078.1	4044.403	-615.624	1	4090.989	-8.654915	-1.024126E-008	0.0036009	7
	11	17	79453.13	4105.68	-564.9581	1	4144.368	-7.834925	-7.032286E-008	0.0036654	7
	12	18	63140.62	4156.188	-524.8784	1	4189.2	-7.19769	-5.171802E-009	0.0034875	7
	13	20	50203.12	4204.295	-496.8982	1	4233.557	-6.740418	-7.328735E-008	0.0036271	7
	14	21	39890.62	4247.136	-480.5487	1	4274.235	-6.455365	7.569391E-008	0.0033766	7
	15	22	31640.63	4290.452	-474.6898	1	4316.631	-6.313451	4.344262E-008	0.0033971	7
	16	24	25171.88	4332.316	-480.1116	1	4358.838	-6.323772	-5.335805E-008	0.0035909	7
	17	25	20015.62	4378.569	-499.0955	1	4406.922	-6.502848	5.822277E-008	0.0034349	7
	18	26	15890.62	4416.58	-523.6196	1	4447.511	-6.761296	-6.901018E-008	0.0036555	7
	19	28	12609.37	4462.496	-563.1676	1	4497.891	-7.192712	-5.262202E-008	0.0035975	7
	20	29	10078.13	4507.454	-617.4806	1	4549.552	-7.800451	-1.250095E-008	0.0035304	7
	21	31	8015.625	4566.884	-684.767	1	4617.936	-8.527507	9.220778E-009	0.003508	7
	22	32	6328.125	4605.809	-782.2507	1	4671.766	-9.63914	7.83974E-008	0.0033689	7
	23	33	5015.625	4657.255	-899.936	1	4743.407	-10.93665	6.184827E-008	0.0034282	7
	24	35	3984.375	4702.731	-1045.794	1	4817.61	-12.53743	9.591139E-009	0.003509	7
	25	36	3170.956	4777.196	-1226.2	1	4932.055	-14.39578	-7.119331E-008	0.0036213	7
	26	37	2527.573	4846.649	-1448.72	1	5058.537	-16.64202	-3.43664E-008	0.0035325	7
	27	39	1976.103	4936.079	-1749.156	1	5236.833	-19.51236	9.741246E-008	0.0034436	7
	28	40	1577.524	5028.466	-2081.03	1	5442.073	-22.48221	9.812508E-008	0.0034415	7
	29	42	1265.625	5130.921	-2484.881	1	5700.964	-25.84069	-3.306155E-008	0.0035247	7
	30	43	998.264	5259.147	-3011.908	1	6060.546	-29.79972	-1.013932E-008	0.003521	7
	31	44	796.875	5399.385	-3622.563	1	6502.025	-33.85851	-5.302537E-008	0.0035911	7
	32	46	627.7902	5572.327	-4422.255	1	7113.872	-38.43587	9.690975E-009	0.0035059	7
	33	47	505.5147	5749.649	-5305.557	1	7823.516	-42.69964	-9.613373E-009	0.0035211	7
	34	48	397.9953	5979.779	-6518.066	1	8845.504	-47.46623	5.179728E-009	0.0035389	7
	35	50	315.5048	6248.586	-7974.508	1	10131.02	-51.91881	1.162385E-009	0.0034762	6
	36	51	252.4038	6556.719	-9703.38	1	11710.94	-55.95251	3.753342E-010	0.0034758	6
	37	53	198.6229	6969.12	-12002.53	1	13879.1	-59.85894	1.065105E-009	0.0034812	6
	38	54	158.3615	7465.809	-14689.67	1	16478.01	-63.05872	1.231751E-009	0.0034731	6
	39	55	125.558	8108.618	-18082.66	1	19817.47	-65.8476	1.135851E-009	0.0034827	6
	40	57	100.4464	8904.84	-22091.07	1	23818.3	-68.04579	1.666167E-012	0.0034815	6
	41	58	79.00281	10068.67	-27328	1	29123.83	-69.7743	1.476826E-009	0.0034755	6
	42	59	63.3446	11612.9	-33591.39	1	35542.11	-70.9292	1.277114E-009	0.0034744	6
	43	61	49.86702	13276.73	-41028.38	1	43123.07	-72.06848	9.607476E-010	0.0034726	6
	44	62	39.72458	15976.88	-50176.7	1	52658.92	-72.33788	7.667795E-010	0.0034774	6
	45	64	31.6723	19146.48	-61137.76	1	64065.7	-72.61104	5.659841E-012	0.0034746	6
	46	65	24.93351	23939.21	-74928.08	1	78659.41	-72.28153	3.171916E-010	0.0034756	6
	47	66	19.86229	29844.64	-90770.23	1	95550.7	-71.79948	6.358015E-010	0.0034766	6
	48	68	15.83615	37518.23	-107933.7	1	114268.6	-70.83233	1.390893E-009	0.0034827	5
	49	69	12.40079	47718.4	-131677.6	1	140057.2	-70.08008	9.552353E-010	0.0034842	5
	50	71	9.93114	61462.03	-157561.6	1	169124.9	-68.69011	7.336901E-010	0.0034794	5
	51	72	7.944915	77932.45	-186258.3	1	201904.9	-67.29504	1.588026E-010	0.0034769	5
	52	74	6.317385	99336.5	-218244.4	1	239788.2	-65.5268	8.108058E-010	0.0034737	5
	53	76	5.008013	126745.8	-254988	1	284751.4	-63.56961	4.992488E-010	0.0034855	5
	54	78	3.945707	160417.1	-296289.9	1	336929.3	-61.56803	-3.422581E-011	0.0034723	5
	55	81	3.158693	197219.3	-337213	1	390650.9	-59.67873	4.120246E-010	0.0034949	5
	56	84	2.504006	241787.4	-382903.8	1	452853.7	-57.72934	-4.047271E-011	0.0034675	5
	57	87	1.998082	289271.3	-429937.4	1	518193.1	-56.06646	-1.84917E-010	0.0034878	5
	58	90	1.584686	344032.4	-481623.6	1	591878.1	-54.4611	2.400534E-010	0.0035246	5
	59	94	1.266892	398324.3	-536232.8	1	667987.9	-53.3943	-1.170056E-010	0.0034938	5
	60	98	0.999041	460061.2	-602790.6	1	758296	-52.64845	3.971687E-010	0.003465	5
