EXPLAIN
TAG	EISPOT
TITLE	LABEL	Potentiostatic EIS	Test &Identifier
DATE	LABEL	11/27/2019	Date
TIME	LABEL	12:05:04	Time
NOTES	NOTES	3	&Notes...
	
	
	
PSTAT	PSTAT	REF600-11020	Potentiostat
VDC	POTEN	0.00000E+000	T	DC &Voltage (V)
FREQINIT	QUANT	1.00000E+006	Initial Fre&q. (Hz)
FREQFINAL	QUANT	1.00000E+000	Final Fre&q. (Hz)
PTSPERDEC	QUANT	1.00000E+001	Points/&decade
VAC	QUANT	2.50000E+001	AC &Voltage (mV rms)
AREA	QUANT	1.00000E-002	&Area (cm^2)
CONDIT	TWOPARAM	T	5.00000E+000	0.00000E+000	Conditionin&g	Time(s)	E(V)
DELAY	TWOPARAM	T	5.00000E+000	0.00000E+000	Init. De&lay	Time(s)	Stab.(mV/s)
SPEED	SELECTOR	0	&Optimize for:
ZGUESS	QUANT	1.00000E+005	E&stimated Z (ohms)
OCVCURVE	TABLE	19
	Pt	T	Vf	Vm	Ach	Over
	#	s	V vs. Ref.	V	V	bits
	0	0.258333	2.29041E-003	2.29041E-003	5.58999E-004	...........
	1	0.516667	2.28599E-003	2.05900E-003	5.58932E-004	...........
	2	0.775	2.25925E-003	1.86105E-003	5.59932E-004	...........
	3	1.03333	2.18470E-003	1.65704E-003	5.56333E-004	...........
	4	1.29167	2.05257E-003	1.44954E-003	5.56199E-004	...........
	5	1.55	1.87724E-003	1.29071E-003	5.57799E-004	...........
	6	1.80833	1.68373E-003	1.14100E-003	5.60066E-004	...........
	7	2.06667	1.49382E-003	1.00850E-003	5.59266E-004	...........
	8	2.325	1.31982E-003	8.82017E-004	5.59899E-004	...........
	9	2.58333	1.16403E-003	7.45237E-004	5.58032E-004	...........
	10	2.84167	1.02232E-003	6.25849E-004	5.62232E-004	...........
	11	3.1	8.90083E-004	5.53755E-004	5.57099E-004	...........
	12	3.35833	7.66885E-004	4.35610E-004	5.56233E-004	...........
	13	3.61667	6.53904E-004	3.43802E-004	5.58599E-004	...........
	14	3.875	5.49283E-004	2.53722E-004	5.57032E-004	...........
	15	4.13333	4.49432E-004	1.39881E-004	5.58099E-004	...........
	16	4.39167	3.50155E-004	-1.45965E-005	5.51999E-004	...........
	17	4.65	2.42732E-004	-2.62269E-004	5.52733E-004	...........
	18	4.90833	1.13166E-004	-4.65461E-004	5.54066E-004	...........
EOC	QUANT	0.0001132	Open Circuit (V)
PSTATMODEL	IQUANT	4	Pstat Model
PSTATSECTION	LABEL	REF600-11020	Pstat Section
PSTATSERIALNO	LABEL	11020	Pstat Serial Number
CTRLMODE	IQUANT	1	Control Mode
IESTAB	IQUANT	0	I/E Stability
CASPEED	IQUANT	1	Control Amp Speed
CONVENTION	IQUANT	1	Current Convention
ICHRANGE	IQUANT	2	Ich Range
ICHRANGEMODE	TOGGLE	F	Ich Auto Range
ICHOFFSETENABLE	TOGGLE	T	Ich Offset Enable
ICHOFFSET	QUANT	0	Ich Offset (V)
ICHFILTER	IQUANT	3	Ich Filter
VCHRANGE	IQUANT	2	Vch Range
VCHRANGEMODE	TOGGLE	F	Vch Auto Range
VCHOFFSETENABLE	TOGGLE	T	Vch Offset Enable
VCHOFFSET	QUANT	0	Vch Offset (V)
VCHFILTER	IQUANT	3	Vch Filter
ACHRANGE	IQUANT	2	Ach Range
ACHOFFSETENABLE	TOGGLE	F	Ach Offset Enable
ACHOFFSET	QUANT	0	Ach Offset (V)
ACHFILTER	IQUANT	3	Ach Filter
IERANGELOWERLIMIT	IQUANT	1	I/E Range Lower Limit
IERANGEMODE	TOGGLE	F	I/E AutoRange
IERANGE	IQUANT	3	I/E Range
POSFEEDENABLE	TOGGLE	F	Positive Feedback IR Comp
POSFEEDRESISTANCE	QUANT	0	Positive Feedback Resistance (ohm)
ACHSELECT	IQUANT	0	Ach Select
CABLEID	IQUANT	14	Cable ID
DCCALDATE	LABEL	8/19/2019	DC Calibration Date
ACCALDATE	LABEL	8/19/2019	AC Calibration Date
THERMOSELECT	IQUANT	1	Thermo Select
FRAMEWORKVERSION	QUANT	6.33	Framework Version
INSTRUMENTVERSION	LABEL	3.50	Instrument Version
ZCURVE	TABLE
	Pt	Time	Freq	Zreal	Zimag	Zsig	Zmod	Zphz	Idc	Vdc	IERange
	#	s	Hz	ohm	ohm	V	ohm	°	A	V	#
	0	1	1000078	1807.412	-887.765	1	2013.669	-26.15936	-1.513807E-006	0.002921	8
	1	1	794390.6	1959.228	-807.3694	1	2119.061	-22.39585	-1.966214E-006	0.0020953	8
	2	2	630984.4	2082.32	-722.6686	1	2204.156	-19.13932	-2.281756E-006	0.0023035	8
	3	2	501234.4	2178.88	-624.3754	1	2266.575	-15.99008	2.305285E-006	0.0011947	8
	4	2	398109.4	2251.459	-543.5516	1	2316.143	-13.57274	-9.247664E-007	0.0020183	8
	5	2	316265.6	2308.271	-474.45	1	2356.527	-11.615	-6.832241E-007	0.0019746	8
	6	3	251203.1	2354.884	-417.6104	1	2391.626	-10.05617	3.620159E-006	0.0015149	8
	7	3	199546.9	2388.62	-364.8779	1	2416.328	-8.685179	-1.502185E-006	0.0013868	8
	8	3	158578.1	2423.921	-334.346	1	2446.871	-7.853595	-1.366774E-006	0.0013894	8
	9	4	125953.1	2450.258	-277.8697	1	2465.963	-6.469944	-1.158501E-006	0.0046908	7
	10	4	100078.1	2476.574	-259.6518	1	2490.148	-5.985204	-9.765372E-007	0.0027166	7
	11	4	79453.13	2496.754	-256.6056	1	2509.906	-5.868011	8.590941E-007	0.0003607	7
	12	5	63140.62	2518.788	-260.9069	1	2532.265	-5.913851	-2.526308E-007	0.0008614	7
	13	5	50203.12	2545.242	-272.0049	1	2559.735	-6.099933	3.725467E-007	0.0002162	7
	14	5	39890.62	2568.527	-283.9515	1	2584.175	-6.308451	-7.122105E-007	0.0028728	7
	15	6	31640.63	2595.689	-303.8462	1	2613.412	-6.676546	-8.791598E-007	0.002844	7
	16	6	25171.88	2626.446	-329.4112	1	2647.023	-7.148759	-5.951679E-007	0.0014163	7
	17	6	20015.62	2663.071	-361.7943	1	2687.535	-7.736612	3.396736E-007	0.0019148	7
	18	6	15890.62	2697.942	-401.1549	1	2727.603	-8.457303	-8.694162E-007	0.0028387	7
	19	7	12609.37	2738.177	-451.0364	1	2775.076	-9.353846	8.793596E-007	0.0006035	7
	20	7	10078.13	2781.352	-505.2778	1	2826.875	-10.29642	-2.178414E-007	0.0025963	7
	21	7	8015.625	2831.977	-572.1806	1	2889.201	-11.42243	3.708201E-007	0.0002101	7
	22	8	6328.125	2887.248	-653.271	1	2960.231	-12.74912	-5.953632E-007	0.0014167	7
	23	8	5015.625	2948.263	-748.0759	1	3041.689	-14.23745	8.803817E-007	0.0006027	7
	24	8	3984.375	3011.956	-857.4135	1	3131.619	-15.89006	-9.839583E-007	0.0027035	7
	25	9	3170.956	3086.407	-987.377	1	3240.497	-17.74006	6.783885E-007	0.0013223	7
	26	9	2527.573	3169.125	-1145.638	1	3369.843	-19.87492	8.739527E-007	0.0006053	7
	27	9	1976.103	3264.132	-1347.656	1	3531.393	-22.43417	8.731385E-007	0.0006066	7
	28	10	1577.524	3361.338	-1569.536	1	3709.721	-25.02965	8.143946E-007	0.0009385	7
	29	10	1265.625	3465.06	-1828.571	1	3917.947	-27.82137	7.700995E-007	0.0001909	7
	30	10	998.264	3578.469	-2166.923	1	4183.419	-31.19678	8.204374E-007	0.000937	7
	31	11	796.875	3701.47	-2562.889	1	4502.142	-34.69863	7.721544E-007	0.0001848	7
	32	11	627.7902	3840.903	-3073.778	1	4919.415	-38.6694	-9.859442E-007	0.0024123	7
	33	11	505.5147	3972.029	-3654.852	1	5397.681	-42.61863	-2.16199E-007	0.0025969	7
	34	11	397.9953	4145.931	-4443.46	1	6077.259	-46.98389	7.61698E-010	0.0015571	7
	35	12	315.5048	4333.699	-5398.156	1	6922.502	-51.24212	2.937854E-009	0.0015509	7
	36	12	252.4038	4548.632	-6536.249	1	7963.203	-55.16561	3.119318E-009	0.0015499	7
	37	12	198.6229	4828.317	-8049.692	1	9386.702	-59.04409	5.097896E-009	0.0015504	7
	38	13	158.3615	5155.379	-9827.24	1	11097.41	-62.31845	1.052238E-010	0.0014819	6
	39	13	125.558	5583.412	-12067.5	1	13296.58	-65.17088	6.989881E-010	0.0014885	6
	40	13	100.4464	6116.16	-14712.04	1	15932.72	-67.42614	1.206083E-009	0.001483	6
	41	14	79.00281	6844.92	-18186.93	1	19432.38	-69.37543	1.319292E-009	0.0014838	6
	42	14	63.3446	7786.127	-22285.12	1	23606.15	-70.74126	6.898776E-010	0.0014902	6
	43	14	49.86702	8917.362	-27490.81	1	28900.93	-72.02818	-5.917926E-010	0.0014933	6
	44	15	39.72458	10406.78	-33407.17	1	34990.57	-72.69748	2.403438E-010	0.0014946	6
	45	15	31.6723	12336.99	-40741.76	1	42568.68	-73.1532	5.5439E-010	0.0014807	6
	46	15	24.93351	14953.63	-49978.82	1	52167.94	-73.34286	5.51398E-010	0.0014882	6
	47	16	19.86229	18213.44	-60707.47	1	63380.8	-73.29972	-4.249767E-010	0.0014832	6
	48	16	15.83615	22726.08	-73546.2	1	76977.39	-72.82864	1.985426E-009	0.0014875	6
	49	16	12.40079	28198.88	-89829.71	1	94151.76	-72.57215	-5.668885E-010	0.0014902	6
	50	17	9.93114	34911.05	-107765	1	113278.8	-72.04999	9.180249E-010	0.0014874	5
	51	17	7.944915	43605.82	-128924.1	1	136098.8	-71.31299	1.17539E-009	0.0014848	5
	52	18	6.317385	55012.46	-153776.2	1	163320.2	-70.31565	4.659494E-010	0.0014853	5
	53	19	5.008013	69414.93	-183852.3	1	196520	-69.31557	1.518451E-010	0.0014828	5
	54	20	3.945707	87748.19	-219291.7	1	236196.1	-68.1915	4.570259E-010	0.0014821	5
	55	21	3.158693	108814.8	-257500.7	1	279548.3	-67.09203	3.797689E-010	0.0014962	5
	56	23	2.504006	135508.1	-303413.3	1	332298.2	-65.93388	1.474121E-010	0.0014912	5
	57	24	1.998082	165687.7	-353489.1	1	390393.3	-64.88654	2.000726E-010	0.0014798	5
	58	25	1.584686	203970.1	-412290.4	1	459986.1	-63.67728	3.211975E-010	0.0015224	5
	59	27	1.266892	246465.7	-478092.3	1	537882.5	-62.72803	3.286335E-010	0.0015251	5
	60	30	0.999041	298128.9	-557276.4	1	632011	-61.85434	3.299812E-010	0.0015134	5
