EXPLAIN
TAG	EISPOT
TITLE	LABEL	Potentiostatic EIS	Test &Identifier
DATE	LABEL	9/26/2019	Date
TIME	LABEL	10:08:57	Time
NOTES	NOTES	2	&Notes...
	
	
PSTAT	PSTAT	REF600-11020	Potentiostat
VDC	POTEN	0.00000E+000	T	DC &Voltage (V)
FREQINIT	QUANT	1.00000E+006	Initial Fre&q. (Hz)
FREQFINAL	QUANT	1.00000E+000	Final Fre&q. (Hz)
PTSPERDEC	QUANT	1.00000E+001	Points/&decade
VAC	QUANT	2.50000E+001	AC &Voltage (mV rms)
AREA	QUANT	1.00000E-002	&Area (cm^2)
CONDIT	TWOPARAM	T	5.00000E+000	0.00000E+000	Conditionin&g	Time(s)	E(V)
DELAY	TWOPARAM	T	5.00000E+000	0.00000E+000	Init. De&lay	Time(s)	Stab.(mV/s)
SPEED	SELECTOR	1	&Optimize for:
ZGUESS	QUANT	1.00000E+004	E&stimated Z (ohms)
OCVCURVE	TABLE	19
	Pt	T	Vf	Vm	Ach	Over
	#	s	V vs. Ref.	V	V	bits
	0	0.258333	5.51188E-002	5.51188E-002	5.70766E-004	...........
	1	0.516667	5.51862E-002	5.86480E-002	5.70066E-004	...........
	2	0.775	5.55973E-002	6.18392E-002	5.69332E-004	...........
	3	1.03333	5.67472E-002	6.47383E-002	5.66332E-004	...........
	4	1.29167	5.87699E-002	6.74078E-002	5.62666E-004	...........
	5	1.55	6.14079E-002	7.04654E-002	5.60966E-004	...........
	6	1.80833	6.43219E-002	7.42893E-002	5.66432E-004	...........
	7	2.06667	6.73341E-002	7.56287E-002	5.69266E-004	...........
	8	2.325	7.03359E-002	7.90500E-002	5.72932E-004	...........
	9	2.58333	7.31902E-002	8.00339E-002	5.65466E-004	...........
	10	2.84167	7.57678E-002	8.12204E-002	5.65532E-004	...........
	11	3.1	7.79581E-002	8.25494E-002	5.67766E-004	...........
	12	3.35833	7.97311E-002	8.39724E-002	5.67332E-004	...........
	13	3.61667	8.12041E-002	8.52987E-002	5.70099E-004	...........
	14	3.875	8.25478E-002	8.66219E-002	5.71766E-004	...........
	15	4.13333	8.38686E-002	8.80703E-002	5.66399E-004	...........
	16	4.39167	8.52088E-002	8.96511E-002	5.62732E-004	...........
	17	4.65	8.65834E-002	9.07162E-002	5.66899E-004	...........
	18	4.90833	8.79709E-002	9.18135E-002	5.66899E-004	...........
EOC	QUANT	0.0879709	Open Circuit (V)
PSTATMODEL	IQUANT	4	Pstat Model
PSTATSECTION	LABEL	REF600-11020	Pstat Section
PSTATSERIALNO	LABEL	11020	Pstat Serial Number
CTRLMODE	IQUANT	1	Control Mode
IESTAB	IQUANT	0	I/E Stability
CASPEED	IQUANT	1	Control Amp Speed
CONVENTION	IQUANT	1	Current Convention
ICHRANGE	IQUANT	2	Ich Range
ICHRANGEMODE	TOGGLE	F	Ich Auto Range
ICHOFFSETENABLE	TOGGLE	T	Ich Offset Enable
ICHOFFSET	QUANT	0	Ich Offset (V)
ICHFILTER	IQUANT	3	Ich Filter
VCHRANGE	IQUANT	2	Vch Range
VCHRANGEMODE	TOGGLE	F	Vch Auto Range
VCHOFFSETENABLE	TOGGLE	T	Vch Offset Enable
VCHOFFSET	QUANT	0	Vch Offset (V)
VCHFILTER	IQUANT	3	Vch Filter
ACHRANGE	IQUANT	2	Ach Range
ACHOFFSETENABLE	TOGGLE	F	Ach Offset Enable
ACHOFFSET	QUANT	0	Ach Offset (V)
ACHFILTER	IQUANT	3	Ach Filter
IERANGELOWERLIMIT	IQUANT	1	I/E Range Lower Limit
IERANGEMODE	TOGGLE	F	I/E AutoRange
IERANGE	IQUANT	7	I/E Range
POSFEEDENABLE	TOGGLE	F	Positive Feedback IR Comp
POSFEEDRESISTANCE	QUANT	0	Positive Feedback Resistance (ohm)
ACHSELECT	IQUANT	0	Ach Select
CABLEID	IQUANT	14	Cable ID
DCCALDATE	LABEL	8/19/2019	DC Calibration Date
ACCALDATE	LABEL	8/19/2019	AC Calibration Date
THERMOSELECT	IQUANT	1	Thermo Select
FRAMEWORKVERSION	QUANT	6.33	Framework Version
INSTRUMENTVERSION	LABEL	3.50	Instrument Version
ZCURVE	TABLE
	Pt	Time	Freq	Zreal	Zimag	Zsig	Zmod	Zphz	Idc	Vdc	IERange
	#	s	Hz	ohm	ohm	V	ohm	°	A	V	#
	0	1	1000078	2022.421	-2215.665	1	2999.894	-47.61071	-2.049197E-006	0.0895763	8
	1	2	794390.6	2403.244	-2385.873	1	3386.439	-44.79218	2.661764E-006	0.0894705	8
	2	4	630984.4	2818.895	-2528.983	1	3787.073	-41.897	-7.326033E-007	0.0897671	8
	3	5	501234.4	3315.23	-2631.68	1	4232.787	-38.44308	2.062929E-006	0.0891872	8
	4	7	398109.4	3791.79	-2727.199	1	4670.684	-35.72512	-4.768973E-007	0.0896952	8
	5	8	316265.6	4296.53	-2740.659	1	5096.212	-32.53289	1.141853E-006	0.0893185	8
	6	10	251203.1	4801.087	-2701.435	1	5508.919	-29.36522	6.982999E-007	0.0894831	8
	7	11	199546.9	5280.35	-2599.292	1	5885.441	-26.20907	7.270357E-007	0.0895032	8
	8	13	158578.1	5738.455	-2462.132	1	6244.354	-23.22216	2.903665E-006	0.0889465	8
	9	14	125953.1	6276.081	-2335.221	1	6696.451	-20.40936	-6.149764E-007	0.091347	7
	10	16	100078.1	6611.897	-2120.083	1	6943.481	-17.77827	-2.703949E-008	0.0895716	7
	11	17	79453.13	6934.713	-1928.301	1	7197.818	-15.53938	-7.387464E-008	0.089633	7
	12	19	63140.62	7221.58	-1727.74	1	7425.382	-13.45492	7.771258E-008	0.0893472	7
	13	20	50203.12	7430.094	-1543.204	1	7588.661	-11.73331	4.17977E-008	0.0894577	7
	14	22	39890.62	7610.222	-1372.08	1	7732.922	-10.22031	-5.183269E-008	0.0896145	7
	15	24	31640.63	7760.575	-1229.58	1	7857.378	-9.003067	4.409084E-008	0.0894521	7
	16	25	25171.88	7875.504	-1114.477	1	7953.969	-8.054548	-4.515837E-008	0.0895245	7
	17	27	20015.62	7869.308	-1003.993	1	7933.096	-7.270712	-5.248781E-008	0.0896964	7
	18	28	15890.62	8002.046	-957.846	1	8059.169	-6.825833	7.965987E-008	0.0893385	7
	19	30	12609.37	7994.332	-923.194	1	8047.461	-6.587399	-4.964461E-008	0.0896419	7
	20	31	10078.13	8000.801	-920.1847	1	8053.543	-6.560851	-2.191543E-008	0.0895586	7
	21	33	8015.625	8043.864	-960.629	1	8101.022	-6.810228	-2.120972E-008	0.089556	7
	22	35	6328.125	8104.52	-1037.923	1	8170.712	-7.297987	6.006881E-009	0.089448	7
	23	36	5015.625	8141.792	-1152.358	1	8222.938	-8.055915	-6.506868E-008	0.0895769	7
	24	38	3984.375	8222.894	-1315.969	1	8327.529	-9.092354	8.148227E-008	0.0893331	7
	25	39	3170.956	8276.348	-1524.536	1	8415.589	-10.43711	8.182518E-008	0.0893296	7
	26	41	2527.573	8364.387	-1795.934	1	8555.019	-12.1181	-3.253835E-009	0.0896349	7
	27	42	1976.103	8498.659	-2165.261	1	8770.152	-14.29355	7.175507E-008	0.0893913	7
	28	44	1577.524	8581.733	-2592.085	1	8964.656	-16.80677	6.807818E-008	0.0893996	7
	29	46	1265.625	8707.13	-3091.85	1	9239.786	-19.54965	-1.933835E-009	0.0894894	6
	30	47	998.264	9017.081	-3748.217	1	9765.08	-22.57166	-6.011452E-009	0.089567	6
	31	49	796.875	9192.948	-4560.67	1	10262.07	-26.38625	-1.575223E-008	0.0895664	6
	32	50	627.7902	9337.333	-5443.688	1	10808.31	-30.24229	-4.817706E-010	0.089244	6
	33	51	505.5147	9589.46	-6572.634	1	11625.72	-34.4268	-7.040513E-009	0.089573	6
	34	53	397.9953	9922.81	-8092.891	1	12804.57	-39.20016	-4.672534E-009	0.0894679	6
	35	54	315.5048	10328.41	-9912.33	1	14315.39	-43.82236	-3.581268E-009	0.089467	6
	36	55	252.4038	10814.84	-12056.5	1	16196.3	-48.10747	-5.007549E-009	0.0894645	6
	37	57	198.6229	11509.14	-14874.64	1	18807.31	-52.26935	-4.234012E-009	0.0894681	6
	38	58	158.3615	12385.98	-18131.4	1	21958.15	-55.66212	-4.839795E-009	0.089469	6
	39	60	125.558	13597.16	-22196.83	1	26030.41	-58.50953	-4.237951E-009	0.0894687	6
	40	61	100.4464	15132.18	-26944.4	1	30902.81	-60.68111	-3.288288E-009	0.0894651	6
	41	62	79.00281	17267.82	-32912.88	1	37167.67	-62.31615	-3.174544E-009	0.0894681	6
	42	64	63.3446	20642.14	-39208.76	1	44310.55	-62.23465	-4.265152E-009	0.0894648	6
	43	65	49.86702	23981.45	-48538.13	1	54139.27	-63.7072	-3.919171E-009	0.0894652	6
	44	67	39.72458	28843.23	-57554.22	1	64377.17	-63.38231	-3.662302E-009	0.0894682	6
	45	68	31.6723	35126.8	-67924.94	1	76470.19	-62.65464	-3.882626E-009	0.0894646	6
	46	70	24.93351	43926.77	-80533.97	1	91734.84	-61.39	-3.887219E-009	0.0894665	6
	47	71	19.86229	54332.18	-93357.71	1	108016.9	-59.80152	-3.272131E-009	0.0894751	5
	48	72	15.83615	65392.72	-106878.8	1	125296.8	-58.54005	-3.451048E-009	0.089476	5
	49	74	12.40079	83825.12	-123535.3	1	149290.4	-55.84107	-5.936741E-009	0.0894757	5
	50	75	9.93114	98869.7	-137636.1	1	169466.5	-54.30875	-3.411282E-009	0.0894691	5
	51	77	7.944915	116123.3	-152535.7	1	191707.5	-52.7185	-5.376308E-009	0.0894782	5
	52	78	6.317385	139697.8	-172869.2	1	222259.4	-51.05788	-6.498764E-009	0.0894614	5
	53	80	5.008013	163786.4	-188293.8	1	249560.7	-48.9818	-4.492319E-009	0.0894775	5
	54	83	3.945707	192415.5	-213420.7	1	287353.7	-47.96286	-3.755132E-009	0.0894712	5
	55	86	3.158693	216552	-232327	1	317601.3	-47.01272	-3.83525E-009	0.0894689	5
	56	89	2.504006	236748.8	-254936.7	1	347911.9	-47.11846	-4.551993E-009	0.0894764	5
	57	92	1.998082	264580.1	-283295.7	1	387632.7	-46.95648	-3.779128E-009	0.0894252	5
	58	95	1.584686	295877.7	-317925.3	1	434304.2	-47.05716	-4.005088E-009	0.0894708	5
	59	98	1.266892	337736.8	-358626.8	1	492624.9	-46.71828	-3.332044E-009	0.0894288	5
	60	103	0.999041	384439.3	-431553.2	1	577954.8	-48.30448	-3.220654E-009	0.0895086	5
