EXPLAIN
TAG	EISPOT
TITLE	LABEL	Potentiostatic IDE	Test &Identifier
DATE	LABEL	9/16/2019	Date
TIME	LABEL	9:30:19	Time
NOTES	NOTES	1	&Notes...
	
PSTAT	PSTAT	REF600-11020	Potentiostat
VDC	POTEN	0.00000E+000	T	DC &Voltage (V)
FREQINIT	QUANT	1.00000E+006	Initial Fre&q. (Hz)
FREQFINAL	QUANT	1.00000E+000	Final Fre&q. (Hz)
PTSPERDEC	QUANT	1.00000E+001	Points/&decade
VAC	QUANT	2.50000E+001	AC &Voltage (mV rms)
AREA	QUANT	1.00000E-002	&Area (cm^2)
CONDIT	TWOPARAM	T	5.00000E+000	0.00000E+000	Conditionin&g	Time(s)	E(V)
DELAY	TWOPARAM	T	5.00000E+000	0.00000E+000	Init. De&lay	Time(s)	Stab.(mV/s)
SPEED	SELECTOR	1	&Optimize for:
ZGUESS	QUANT	1.00000E+007	E&stimated Z (ohms)
OCVCURVE	TABLE	19
	Pt	T	Vf	Vm	Ach	Over
	#	s	V vs. Ref.	V	V	bits
	0	0.258333	-5.23599E-004	-5.23599E-004	5.63532E-004	...........
	1	0.516667	-5.37036E-004	-1.22698E-003	5.65732E-004	...........
	2	0.775	-6.18866E-004	-1.85800E-003	5.65299E-004	...........
	3	1.03333	-8.47711E-004	-2.44376E-003	5.66766E-004	...........
	4	1.29167	-1.25061E-003	-2.97980E-003	5.66499E-004	...........
	5	1.55	-1.77507E-003	-3.48148E-003	5.63099E-004	...........
	6	1.80833	-2.34152E-003	-3.94972E-003	5.67766E-004	...........
	7	2.06667	-2.89457E-003	-4.39074E-003	5.64266E-004	...........
	8	2.325	-3.41201E-003	-4.80958E-003	5.65732E-004	...........
	9	2.58333	-3.89196E-003	-5.20112E-003	5.66699E-004	...........
	10	2.84167	-4.33943E-003	-5.57163E-003	5.68866E-004	...........
	11	3.1	-4.75945E-003	-5.93046E-003	5.73466E-004	...........
	12	3.35833	-5.15592E-003	-6.26878E-003	5.65032E-004	...........
	13	3.61667	-5.53199E-003	-6.59405E-003	5.66166E-004	...........
	14	3.875	-5.89012E-003	-6.90683E-003	5.66899E-004	...........
	15	4.13333	-6.23205E-003	-7.20386E-003	5.65432E-004	...........
	16	4.39167	-6.55909E-003	-7.49100E-003	5.67799E-004	...........
	17	4.65	-6.87209E-003	-7.75867E-003	5.69632E-004	...........
	18	4.90833	-7.17162E-003	-8.03115E-003	5.61266E-004	...........
EOC	QUANT	-0.0071716	Open Circuit (V)
PSTATMODEL	IQUANT	4	Pstat Model
PSTATSECTION	LABEL	REF600-11020	Pstat Section
PSTATSERIALNO	LABEL	11020	Pstat Serial Number
CTRLMODE	IQUANT	1	Control Mode
IESTAB	IQUANT	0	I/E Stability
CASPEED	IQUANT	1	Control Amp Speed
CONVENTION	IQUANT	1	Current Convention
ICHRANGE	IQUANT	2	Ich Range
ICHRANGEMODE	TOGGLE	F	Ich Auto Range
ICHOFFSETENABLE	TOGGLE	T	Ich Offset Enable
ICHOFFSET	QUANT	0	Ich Offset (V)
ICHFILTER	IQUANT	3	Ich Filter
VCHRANGE	IQUANT	2	Vch Range
VCHRANGEMODE	TOGGLE	F	Vch Auto Range
VCHOFFSETENABLE	TOGGLE	T	Vch Offset Enable
VCHOFFSET	QUANT	0	Vch Offset (V)
VCHFILTER	IQUANT	3	Vch Filter
ACHRANGE	IQUANT	2	Ach Range
ACHOFFSETENABLE	TOGGLE	F	Ach Offset Enable
ACHOFFSET	QUANT	0	Ach Offset (V)
ACHFILTER	IQUANT	3	Ach Filter
IERANGELOWERLIMIT	IQUANT	1	I/E Range Lower Limit
IERANGEMODE	TOGGLE	F	I/E AutoRange
IERANGE	IQUANT	3	I/E Range
POSFEEDENABLE	TOGGLE	F	Positive Feedback IR Comp
POSFEEDRESISTANCE	QUANT	0	Positive Feedback Resistance (ohm)
ACHSELECT	IQUANT	0	Ach Select
CABLEID	IQUANT	14	Cable ID
DCCALDATE	LABEL	8/19/2019	DC Calibration Date
ACCALDATE	LABEL	8/19/2019	AC Calibration Date
THERMOSELECT	IQUANT	1	Thermo Select
FRAMEWORKVERSION	QUANT	6.33	Framework Version
INSTRUMENTVERSION	LABEL	3.50	Instrument Version
ZCURVE	TABLE
	Pt	Time	Freq	Zreal	Zimag	Zsig	Zmod	Zphz	Idc	Vdc	IERange
	#	s	Hz	ohm	ohm	V	ohm	°	A	V	#
	0	2	1000078	2576.989	-2045.682	1	3290.241	-38.44347	1.526582E-006	-0.00573	8
	1	4	794390.6	2979.132	-2014.232	1	3596.159	-34.06318	-4.10462E-007	-0.0050088	8
	2	6	630984.4	3367.594	-1917.002	1	3874.995	-29.65068	2.439769E-006	-0.0059546	8
	3	7	501234.4	3725.994	-1780.141	1	4129.399	-25.53673	5.984121E-006	-0.0067336	8
	4	8	398109.4	4000.899	-1621.206	1	4316.886	-22.0583	1.615107E-006	-0.0062592	8
	5	10	316265.6	4235.865	-1412.192	1	4465.068	-18.43783	-1.149924E-006	-0.0053165	8
	6	12	251203.1	4421.949	-1240.315	1	4592.604	-15.6683	-2.757441E-006	-0.0052825	8
	7	13	199546.9	4544.737	-1084.148	1	4672.26	-13.41717	4.260372E-006	-0.0064516	8
	8	15	158578.1	4654.078	-962.451	1	4752.552	-11.68392	-7.484014E-008	-0.0057879	8
	9	16	125953.1	4782.749	-805.7892	1	4850.152	-9.56328	5.468959E-007	-0.0071038	7
	10	17	100078.1	4829.303	-736.6741	1	4885.167	-8.673183	-4.324887E-008	-0.0056831	7
	11	19	79453.13	4890.732	-696.8898	1	4940.133	-8.109593	-4.857461E-008	-0.0056701	7
	12	20	63140.62	4948.362	-672.3403	1	4993.829	-7.737469	1.526544E-007	-0.0059263	7
	13	21	50203.12	5004.193	-666.4594	1	5048.377	-7.586022	-5.501454E-008	-0.0055382	7
	14	23	39890.62	5050.639	-673.7095	1	5095.375	-7.597886	-5.987559E-009	-0.0057601	7
	15	24	31640.63	5122.055	-702.5159	1	5170.007	-7.809681	-8.148845E-008	-0.0055784	7
	16	25	25171.88	5185.565	-746.6683	1	5239.046	-8.193688	8.311365E-008	-0.0058477	7
	17	27	20015.62	5255.609	-807.4384	1	5317.272	-8.734267	5.08655E-008	-0.0058592	7
	18	28	15890.62	5334.887	-888.7684	1	5408.413	-9.458357	-4.004531E-008	-0.005661	7
	19	29	12609.37	5418.58	-982.278	1	5506.894	-10.27498	-2.040669E-008	-0.0057322	7
	20	31	10078.13	5508.321	-1098.123	1	5616.714	-11.27451	5.009198E-008	-0.0058616	7
	21	32	8015.625	5609.754	-1235.311	1	5744.156	-12.41877	-4.637742E-008	-0.0056737	7
	22	33	6328.125	5725.159	-1409.698	1	5896.159	-13.83269	-4.19737E-008	-0.005681	7
	23	35	5015.625	5849.097	-1616.157	1	6068.27	-15.44595	-4.778936E-008	-0.0056751	7
	24	36	3984.375	5984.733	-1863.653	1	6268.192	-17.29665	2.40234E-008	-0.0058061	7
	25	37	3170.956	6139.624	-2152.812	1	6506.119	-19.32282	-5.735207E-008	-0.0055952	7
	26	39	2527.573	6299.074	-2490.898	1	6773.692	-21.57577	9.978621E-008	-0.005909	7
	27	40	1976.103	6492.783	-2947.1	1	7130.332	-24.41349	2.594866E-008	-0.005803	7
	28	41	1577.524	6691.42	-3452.245	1	7529.482	-27.29017	-1.978836E-008	-0.0057302	7
	29	43	1265.625	6899.156	-4051.587	1	8000.857	-30.42394	-8.046192E-008	-0.0055889	7
	30	44	998.264	7152.457	-4822.405	1	8626.31	-33.98905	-1.016345E-008	-0.0056608	7
	31	45	796.875	7416.162	-5729.92	1	9371.843	-37.69061	-5.5399E-008	-0.0055966	7
	32	47	627.7902	7727.342	-6900.808	1	10360.16	-41.76605	-6.165473E-009	-0.0057473	6
	33	48	505.5147	8039.98	-8212.673	1	11493.01	-45.60877	7.491182E-009	-0.0057244	6
	34	49	397.9953	8425.45	-9990.65	1	13069.1	-49.85794	8.021213E-010	-0.0057513	6
	35	51	315.5048	8857.259	-12137.17	1	15025.38	-53.87942	8.067912E-010	-0.0057523	6
	36	52	252.4038	9335.609	-14678.01	1	17395.33	-57.54254	1.751519E-009	-0.0057601	6
	37	53	198.6229	9939.65	-18062.87	1	20617.08	-61.17685	7.996252E-010	-0.005761	6
	38	55	158.3615	10627.57	-22029.88	1	24459.37	-64.2466	1.623965E-009	-0.0057598	6
	39	56	125.558	11494.31	-27067.57	1	29407.01	-66.99137	1.171059E-009	-0.0057517	6
	40	57	100.4464	12567.43	-33085.85	1	35392.29	-69.20107	1.841383E-009	-0.0057595	6
	41	59	79.00281	14121.08	-40936.96	1	43304.04	-70.96828	1.69248E-009	-0.0057528	6
	42	60	63.3446	15078.38	-49720.25	1	51956.34	-73.12932	1.042087E-009	-0.0057544	6
	43	61	49.86702	18858.79	-61723.43	1	64540.19	-73.01015	1.552228E-009	-0.0057525	6
	44	63	39.72458	21295.05	-76016.14	1	78942.59	-74.35039	5.671012E-010	-0.0057468	6
	45	64	31.6723	25812.41	-92447.82	1	95983.8	-74.3997	1.55713E-009	-0.0057483	6
	46	66	24.93351	31552.49	-114551.8	1	118817.8	-74.60015	2.758112E-010	-0.0057504	5
	47	67	19.86229	39342.64	-139843.5	1	145272.4	-74.28694	6.669575E-010	-0.005747	5
	48	68	15.83615	50654.34	-169553.3	1	176958.1	-73.36639	1.364051E-009	-0.0057485	5
	49	70	12.40079	64070.28	-209242.5	1	218832	-72.97536	1.006356E-009	-0.0057543	5
	50	71	9.93114	79996.48	-249866.3	1	262359.7	-72.24716	7.445366E-010	-0.0057454	5
	51	73	7.944915	104160.1	-299543.8	1	317136.9	-70.82594	4.768473E-010	-0.0057503	5
	52	74	6.317385	132432.4	-356937.5	1	380713.4	-69.64394	6.648471E-010	-0.0057567	5
	53	76	5.008013	171017	-425024.8	1	458140.7	-68.08166	2.476688E-010	-0.0057496	5
	54	79	3.945707	222325.9	-503777.4	1	550654.6	-66.18729	3.882309E-010	-0.0057427	5
	55	81	3.158693	280939.2	-586605.6	1	650409.8	-64.40914	1.688932E-010	-0.0057623	5
	56	85	2.504006	356836.8	-679729.1	1	767700.6	-62.30191	5.694997E-010	-0.0057515	5
	57	87	1.998082	443660.9	-775938.4	1	893820.7	-60.24023	2.1422E-010	-0.005712	5
	58	90	1.584686	548684.5	-884574.3	1	1040926	-58.18946	3.254089E-010	-0.005712	4
	59	94	1.266892	661180.1	-991953	1	1192112	-56.31481	7.680852E-011	-0.005729	4
	60	98	0.999041	793049.9	-1113856	1	1367334	-54.54966	3.931673E-010	-0.005765	4
