EXPLAIN
TAG	EISPOT
TITLE	LABEL	Potentiostatic EIS	Test &Identifier
DATE	LABEL	11/27/2019	Date
TIME	LABEL	13:29:57	Time
NOTES	NOTES	3	&Notes...
	
	
	
PSTAT	PSTAT	REF600-11020	Potentiostat
VDC	POTEN	0.00000E+000	T	DC &Voltage (V)
FREQINIT	QUANT	1.00000E+006	Initial Fre&q. (Hz)
FREQFINAL	QUANT	1.00000E+000	Final Fre&q. (Hz)
PTSPERDEC	QUANT	1.00000E+001	Points/&decade
VAC	QUANT	2.50000E+001	AC &Voltage (mV rms)
AREA	QUANT	1.00000E-002	&Area (cm^2)
CONDIT	TWOPARAM	T	5.00000E+000	0.00000E+000	Conditionin&g	Time(s)	E(V)
DELAY	TWOPARAM	T	5.00000E+000	0.00000E+000	Init. De&lay	Time(s)	Stab.(mV/s)
SPEED	SELECTOR	0	&Optimize for:
ZGUESS	QUANT	1.00000E+005	E&stimated Z (ohms)
OCVCURVE	TABLE	19
	Pt	T	Vf	Vm	Ach	Over
	#	s	V vs. Ref.	V	V	bits
	0	0.258333	5.33965E-003	5.33965E-003	5.39199E-004	...........
	1	0.516667	5.33859E-003	5.28400E-003	5.35200E-004	...........
	2	0.775	5.33241E-003	5.24968E-003	5.37233E-004	...........
	3	1.03333	5.31646E-003	5.23517E-003	5.42866E-004	...........
	4	1.29167	5.29185E-003	5.22751E-003	5.41699E-004	...........
	5	1.55	5.26612E-003	5.23812E-003	5.40066E-004	...........
	6	1.80833	5.24701E-003	5.23926E-003	5.35666E-004	...........
	7	2.06667	5.23769E-003	5.25022E-003	5.35099E-004	...........
	8	2.325	5.23689E-003	5.26253E-003	5.33766E-004	...........
	9	2.58333	5.24203E-003	5.27965E-003	5.39233E-004	...........
	10	2.84167	5.25137E-003	5.29761E-003	5.36066E-004	...........
	11	3.1	5.26412E-003	5.31985E-003	5.37899E-004	...........
	12	3.35833	5.27807E-003	5.24772E-003	5.38799E-004	...........
	13	3.61667	5.28742E-003	5.28743E-003	5.36399E-004	...........
	14	3.875	5.28854E-003	5.29928E-003	5.28466E-004	...........
	15	4.13333	5.28686E-003	5.32685E-003	5.27300E-004	...........
	16	4.39167	5.29219E-003	5.41045E-003	5.35466E-004	...........
	17	4.65	5.31375E-003	5.56180E-003	5.36233E-004	...........
	18	4.90833	5.36235E-003	5.73087E-003	5.33566E-004	...........
EOC	QUANT	0.0053624	Open Circuit (V)
PSTATMODEL	IQUANT	4	Pstat Model
PSTATSECTION	LABEL	REF600-11020	Pstat Section
PSTATSERIALNO	LABEL	11020	Pstat Serial Number
CTRLMODE	IQUANT	1	Control Mode
IESTAB	IQUANT	0	I/E Stability
CASPEED	IQUANT	1	Control Amp Speed
CONVENTION	IQUANT	1	Current Convention
ICHRANGE	IQUANT	2	Ich Range
ICHRANGEMODE	TOGGLE	F	Ich Auto Range
ICHOFFSETENABLE	TOGGLE	T	Ich Offset Enable
ICHOFFSET	QUANT	0	Ich Offset (V)
ICHFILTER	IQUANT	3	Ich Filter
VCHRANGE	IQUANT	2	Vch Range
VCHRANGEMODE	TOGGLE	F	Vch Auto Range
VCHOFFSETENABLE	TOGGLE	T	Vch Offset Enable
VCHOFFSET	QUANT	0	Vch Offset (V)
VCHFILTER	IQUANT	3	Vch Filter
ACHRANGE	IQUANT	2	Ach Range
ACHOFFSETENABLE	TOGGLE	F	Ach Offset Enable
ACHOFFSET	QUANT	0	Ach Offset (V)
ACHFILTER	IQUANT	3	Ach Filter
IERANGELOWERLIMIT	IQUANT	1	I/E Range Lower Limit
IERANGEMODE	TOGGLE	F	I/E AutoRange
IERANGE	IQUANT	5	I/E Range
POSFEEDENABLE	TOGGLE	F	Positive Feedback IR Comp
POSFEEDRESISTANCE	QUANT	0	Positive Feedback Resistance (ohm)
ACHSELECT	IQUANT	0	Ach Select
CABLEID	IQUANT	14	Cable ID
DCCALDATE	LABEL	8/19/2019	DC Calibration Date
ACCALDATE	LABEL	8/19/2019	AC Calibration Date
THERMOSELECT	IQUANT	1	Thermo Select
FRAMEWORKVERSION	QUANT	6.33	Framework Version
INSTRUMENTVERSION	LABEL	3.50	Instrument Version
ZCURVE	TABLE
	Pt	Time	Freq	Zreal	Zimag	Zsig	Zmod	Zphz	Idc	Vdc	IERange
	#	s	Hz	ohm	ohm	V	ohm	°	A	V	#
	0	2	1000078	1740.219	-1127.186	1	2073.381	-32.93219	6.883097E-006	0.007388	8
	1	2	794390.6	1904.872	-1155.976	1	2228.187	-31.25157	-2.790329E-006	0.0068583	8
	2	2	630984.4	2073.558	-1173.014	1	2382.353	-29.49688	6.824709E-006	0.0062447	8
	3	3	501234.4	2222.505	-1208.818	1	2529.974	-28.54171	4.804937E-006	0.0061943	8
	4	3	398109.4	2385.359	-1254.918	1	2695.321	-27.74849	1.414472E-006	0.0071417	8
	5	3	316265.6	2562.57	-1308.047	1	2877.108	-27.04175	7.230802E-007	0.0071855	8
	6	4	251203.1	2742.454	-1371.878	1	3066.448	-26.57594	-3.184246E-007	0.007256	8
	7	4	199546.9	2929.988	-1448.972	1	3268.692	-26.31385	-5.20545E-006	0.0076058	8
	8	4	158578.1	3117.929	-1535.014	1	3475.306	-26.21187	3.733436E-006	0.0067638	8
	9	5	125953.1	3383.802	-1568.594	1	3729.692	-24.87053	-3.860257E-007	0.0094365	7
	10	5	100078.1	3609.26	-1651.318	1	3969.082	-24.58516	6.147033E-007	0.0052517	7
	11	5	79453.13	3850.773	-1750.119	1	4229.819	-24.44108	7.945747E-007	0.006454	7
	12	6	63140.62	4099.966	-1838.333	1	4493.238	-24.15039	-4.819634E-007	0.0081808	7
	13	6	50203.12	4365.681	-1934.093	1	4774.923	-23.8944	-4.824196E-007	0.0081796	7
	14	6	39890.62	4647.299	-2041.161	1	5075.798	-23.71178	9.348266E-007	0.0060281	7
	15	6	31640.63	4928.111	-2141.206	1	5373.178	-23.48438	-7.446632E-007	0.0082915	7
	16	7	25171.88	5226.553	-2258.479	1	5693.644	-23.36996	-4.810867E-007	0.0081773	7
	17	7	20015.62	5536.788	-2379.32	1	6026.375	-23.25462	-7.217929E-007	0.0067784	7
	18	7	15890.62	5863.313	-2520.333	1	6382.047	-23.26035	-9.849014E-007	0.0073753	7
	19	8	12609.37	6219.985	-2684.451	1	6774.547	-23.3443	-1.080422E-006	0.0081461	7
	20	8	10078.13	6615.681	-2871.681	1	7212.058	-23.46431	8.189858E-007	0.005264	7
	21	8	8015.625	6979.506	-3036.355	1	7611.371	-23.5109	-1.082489E-006	0.0081455	7
	22	9	6328.125	7435.876	-3246.446	1	8113.672	-23.58571	-1.728575E-007	0.0079276	7
	23	9	5015.625	7905.19	-3453.259	1	8626.53	-23.59736	-4.773885E-007	0.0081738	7
	24	9	3984.375	8398.427	-3647.207	1	9156.183	-23.47399	3.354359E-007	0.0053725	7
	25	10	3170.956	8910.899	-3863.63	1	9712.45	-23.44082	4.304752E-007	0.0071419	7
	26	10	2527.573	9389.404	-4055.083	1	10227.64	-23.35848	3.387868E-007	0.005367	7
	27	10	1976.103	9961.42	-4309.41	1	10853.61	-23.3938	6.365255E-008	0.0073623	6
	28	11	1577.524	10393.93	-4608.989	1	11369.99	-23.91397	-1.23931E-007	0.0091842	6
	29	11	1265.625	10921.69	-4962.615	1	11996.28	-24.43618	1.456652E-007	0.0050512	6
	30	11	998.264	11435.71	-5433.191	1	12660.76	-25.41275	-1.627115E-007	0.0081541	6
	31	12	796.875	11984.72	-6017.938	1	13410.78	-26.6628	6.434573E-008	0.0073644	6
	32	12	627.7902	12571.56	-6734.701	1	14261.85	-28.17836	-9.170906E-008	0.0064328	6
	33	12	505.5147	13183.16	-7543.081	1	15188.61	-29.77713	-8.014173E-008	0.0089571	6
	34	13	397.9953	13916.62	-8604.081	1	16361.62	-31.72682	1.025692E-010	0.0067474	6
	35	13	315.5048	14686.32	-9859.95	1	17689.16	-33.87622	1.252475E-009	0.0067416	6
	36	13	252.4038	15514.42	-11317.81	1	19203.91	-36.11085	2.358922E-010	0.0067414	6
	37	14	198.6229	16551.07	-13209.17	1	21175.94	-38.59286	2.237813E-011	0.0067441	6
	38	14	158.3615	17690.41	-15388.04	1	23446.58	-41.01844	-2.439008E-010	0.0067339	6
	39	14	125.558	19107.1	-18057.46	1	26289.79	-43.38222	3.394961E-011	0.0067434	6
	40	15	100.4464	20740.57	-21040.18	1	29544.21	-45.41086	4.938926E-010	0.0067394	6
	41	15	79.00281	23117.62	-24918.11	1	33990.25	-47.14658	-6.685536E-011	0.0067382	6
	42	15	63.3446	25137.28	-29123.17	1	38471.31	-49.20131	-5.912491E-010	0.0067268	6
	43	16	49.86702	28559.15	-33878.37	1	44309.92	-49.86943	-7.758013E-010	0.0067341	6
	44	16	39.72458	32747.31	-39016.5	1	50937.93	-49.99261	-1.235709E-010	0.0067377	6
	45	16	31.6723	36966.16	-44779.36	1	58066.24	-50.45972	1.570449E-011	0.0067273	6
	46	17	24.93351	42263.37	-51171.64	1	66368.14	-50.44623	-5.236207E-012	0.0067303	6
	47	17	19.86229	47526.54	-58181.8	1	75125.86	-50.7559	-3.3053E-010	0.0067338	6
	48	17	15.83615	53230.23	-67028.09	1	85593.35	-51.54522	1.606275E-009	0.0067359	6
	49	18	12.40079	59938.84	-76968.14	1	97553.9	-52.09037	6.25127E-011	0.0067238	6
	50	18	9.93114	65814.17	-87332.23	1	109354.6	-52.99807	-2.535806E-010	0.0067266	5
	51	19	7.944915	72573.44	-100929	1	124312.4	-54.28181	-7.94587E-010	0.0067397	5
	52	19	6.317385	80161.03	-117936.7	1	142600.3	-55.79623	-6.578754E-010	0.0067488	5
	53	20	5.008013	89160.72	-138970.8	1	165113.7	-57.31664	-4.421621E-010	0.0067323	5
	54	21	3.945707	100036.5	-164994.3	1	192951.9	-58.77143	-9.666976E-011	0.0067327	5
	55	22	3.158693	112018.1	-194708.7	1	224632	-60.08769	9.910768E-011	0.0067466	5
	56	24	2.504006	127402.3	-231633.6	1	264358.6	-61.18847	-1.310532E-010	0.0067424	5
	57	25	1.998082	145083.7	-274484.4	1	310469	-62.14051	-1.059372E-010	0.006708	5
	58	27	1.584686	167883.1	-325604.8	1	366337.6	-62.72419	5.596892E-011	0.0067586	5
	59	29	1.266892	194950.9	-385369.8	1	431874.7	-63.16607	6.427293E-011	0.0067764	5
	60	31	0.999041	228481	-459985.9	1	513605.5	-63.58582	9.674807E-011	0.0067737	5
