EXPLAIN
TAG	EISPOT
TITLE	LABEL	Potentiostatic EIS	Test &Identifier
DATE	LABEL	11/11/2019	Date
TIME	LABEL	12:20:01	Time
NOTES	NOTES	3	&Notes...
	
	
	
PSTAT	PSTAT	REF600-11020	Potentiostat
VDC	POTEN	0.00000E+000	T	DC &Voltage (V)
FREQINIT	QUANT	1.00000E+006	Initial Fre&q. (Hz)
FREQFINAL	QUANT	1.00000E+000	Final Fre&q. (Hz)
PTSPERDEC	QUANT	1.00000E+001	Points/&decade
VAC	QUANT	2.50000E+001	AC &Voltage (mV rms)
AREA	QUANT	1.00000E-002	&Area (cm^2)
CONDIT	TWOPARAM	T	5.00000E+000	0.00000E+000	Conditionin&g	Time(s)	E(V)
DELAY	TWOPARAM	T	5.00000E+000	0.00000E+000	Init. De&lay	Time(s)	Stab.(mV/s)
SPEED	SELECTOR	1	&Optimize for:
ZGUESS	QUANT	1.00000E+005	E&stimated Z (ohms)
OCVCURVE	TABLE	19
	Pt	T	Vf	Vm	Ach	Over
	#	s	V vs. Ref.	V	V	bits
	0	0.258333	7.00996E-003	7.00996E-003	5.53233E-004	...........
	1	0.516667	7.00984E-003	7.00389E-003	5.48966E-004	...........
	2	0.775	7.00525E-003	6.79508E-003	5.54599E-004	...........
	3	1.03333	6.96916E-003	6.05993E-003	5.54533E-004	...........
	4	1.29167	6.83968E-003	5.59743E-003	5.52666E-004	...........
	5	1.55	6.59840E-003	6.96052E-003	5.53766E-004	...........
	6	1.80833	6.38194E-003	7.06293E-003	5.56432E-004	...........
	7	2.06667	6.37424E-003	7.07503E-003	5.60599E-004	...........
	8	2.325	6.57485E-003	7.08932E-003	5.62866E-004	...........
	9	2.58333	6.82234E-003	7.08903E-003	5.58832E-004	...........
	10	2.84167	6.99523E-003	7.13965E-003	5.61032E-004	...........
	11	3.1	7.08154E-003	7.19002E-003	5.58366E-004	...........
	12	3.35833	7.12193E-003	7.24441E-003	5.60432E-004	...........
	13	3.61667	7.15191E-003	7.20317E-003	5.58499E-004	...........
	14	3.875	7.18181E-003	7.26317E-003	5.58499E-004	...........
	15	4.13333	7.20868E-003	7.29363E-003	5.57999E-004	...........
	16	4.39167	7.23358E-003	7.33917E-003	5.62799E-004	...........
	17	4.65	7.26282E-003	7.42834E-003	5.58366E-004	...........
	18	4.90833	7.30215E-003	7.48647E-003	5.60532E-004	...........
EOC	QUANT	0.0073022	Open Circuit (V)
PSTATMODEL	IQUANT	4	Pstat Model
PSTATSECTION	LABEL	REF600-11020	Pstat Section
PSTATSERIALNO	LABEL	11020	Pstat Serial Number
CTRLMODE	IQUANT	1	Control Mode
IESTAB	IQUANT	0	I/E Stability
CASPEED	IQUANT	1	Control Amp Speed
CONVENTION	IQUANT	1	Current Convention
ICHRANGE	IQUANT	2	Ich Range
ICHRANGEMODE	TOGGLE	F	Ich Auto Range
ICHOFFSETENABLE	TOGGLE	T	Ich Offset Enable
ICHOFFSET	QUANT	0	Ich Offset (V)
ICHFILTER	IQUANT	3	Ich Filter
VCHRANGE	IQUANT	2	Vch Range
VCHRANGEMODE	TOGGLE	F	Vch Auto Range
VCHOFFSETENABLE	TOGGLE	T	Vch Offset Enable
VCHOFFSET	QUANT	0	Vch Offset (V)
VCHFILTER	IQUANT	3	Vch Filter
ACHRANGE	IQUANT	2	Ach Range
ACHOFFSETENABLE	TOGGLE	F	Ach Offset Enable
ACHOFFSET	QUANT	0	Ach Offset (V)
ACHFILTER	IQUANT	3	Ach Filter
IERANGELOWERLIMIT	IQUANT	1	I/E Range Lower Limit
IERANGEMODE	TOGGLE	F	I/E AutoRange
IERANGE	IQUANT	5	I/E Range
POSFEEDENABLE	TOGGLE	F	Positive Feedback IR Comp
POSFEEDRESISTANCE	QUANT	0	Positive Feedback Resistance (ohm)
ACHSELECT	IQUANT	0	Ach Select
CABLEID	IQUANT	14	Cable ID
DCCALDATE	LABEL	8/19/2019	DC Calibration Date
ACCALDATE	LABEL	8/19/2019	AC Calibration Date
THERMOSELECT	IQUANT	1	Thermo Select
FRAMEWORKVERSION	QUANT	6.33	Framework Version
INSTRUMENTVERSION	LABEL	3.50	Instrument Version
ZCURVE	TABLE
	Pt	Time	Freq	Zreal	Zimag	Zsig	Zmod	Zphz	Idc	Vdc	IERange
	#	s	Hz	ohm	ohm	V	ohm	°	A	V	#
	0	2	1000078	2512.886	-1865.493	1	3129.642	-36.58912	5.189626E-007	0.0090426	8
	1	3	794390.6	2878.752	-1797.28	1	3393.733	-31.97761	-2.455807E-007	0.0087788	8
	2	4	630984.4	3234.347	-1682.813	1	3645.938	-27.48771	-4.168574E-006	0.0096751	8
	3	6	501234.4	3512.739	-1513.742	1	3825.016	-23.31262	2.83341E-006	0.0083897	8
	4	7	398109.4	3755.491	-1358.876	1	3993.777	-19.89201	-2.814189E-006	0.0087582	8
	5	9	316265.6	3928.044	-1175.759	1	4100.236	-16.66372	-6.722576E-007	0.0092608	8
	6	10	251203.1	4074.202	-1020.724	1	4200.119	-14.065	2.075621E-006	0.0083265	8
	7	12	199546.9	4185.789	-893.8004	1	4280.152	-12.05347	-2.442814E-006	0.0087124	8
	8	13	158578.1	4286.658	-748.153	1	4351.456	-9.90015	-2.342734E-006	0.0087117	8
	9	14	125953.1	4399.983	-596.3991	1	4440.219	-7.719156	4.07718E-006	0.0019341	7
	10	16	100078.1	4410.977	-520.6132	1	4441.594	-6.731293	-1.05559E-006	0.0092767	7
	11	17	79453.13	4452.743	-476.5876	1	4478.176	-6.109244	-3.005933E-007	0.0078775	7
	12	18	63140.62	4491.146	-444.2124	1	4513.061	-5.648665	1.028911E-006	0.0080483	7
	13	20	50203.12	4522.731	-420.2442	1	4542.213	-5.30858	6.361877E-008	0.0097432	7
	14	21	39890.62	4553.887	-407.6357	1	4572.095	-5.115129	-9.174321E-007	0.0104612	7
	15	23	31640.63	4588.912	-405.9249	1	4606.831	-5.055099	-3.036906E-007	0.0101398	7
	16	24	25171.88	4623.872	-415.5808	1	4642.51	-5.135787	8.036712E-007	0.0069384	7
	17	25	20015.62	4659.271	-436.6156	1	4679.684	-5.353496	1.111079E-006	0.0072643	7
	18	27	15890.62	4688.762	-470.4722	1	4712.307	-5.729902	1.007732E-006	0.0070307	7
	19	28	12609.37	4714.365	-514.6888	1	4742.377	-6.230567	-1.24809E-006	0.010218	7
	20	29	10078.13	4748.204	-572.7275	1	4782.62	-6.87778	-1.237232E-006	0.0098452	7
	21	31	8015.625	4784.6	-651.8922	1	4828.805	-7.758662	-6.377236E-007	0.0103853	7
	22	32	6328.125	4825.063	-762.8732	1	4884.998	-8.984458	1.033293E-006	0.0080378	7
	23	33	5015.625	4865.653	-893.6049	1	4947.03	-10.40673	3.892163E-007	0.0093026	7
	24	35	3984.375	4913.582	-1060.148	1	5026.649	-12.17542	1.31975E-007	0.0073385	7
	25	36	3170.956	4958.53	-1265.583	1	5117.491	-14.31812	-3.019841E-007	0.0101395	7
	26	38	2527.573	5017.443	-1517.346	1	5241.858	-16.82606	-6.376924E-007	0.0103792	7
	27	39	1976.103	5093.456	-1857.488	1	5421.582	-20.03597	-1.055856E-006	0.0092623	7
	28	40	1577.524	5190.959	-2251.287	1	5658.123	-23.44608	1.00673E-006	0.0070251	7
	29	42	1265.625	5266.717	-2705.018	1	5920.763	-27.18531	6.56019E-008	0.0097362	7
	30	43	998.264	5381.866	-3323.749	1	6325.487	-31.69877	6.169096E-007	0.0089757	7
	31	45	796.875	5519.65	-4042.406	1	6841.607	-36.2178	1.004403E-006	0.0070253	7
	32	46	627.7902	5694.182	-4974.441	1	7561.004	-41.14048	1.250973E-007	0.007334	7
	33	47	505.5147	5894.777	-6004.785	1	8414.62	-45.52967	-6.337414E-007	0.01038	7
	34	49	397.9953	6150.854	-7431.726	1	9646.95	-50.3872	2.954992E-009	0.0087752	7
	35	50	315.5048	6476.63	-9131.407	1	11195.06	-54.65308	3.498166E-010	0.0087183	6
	36	51	252.4038	6863.926	-11142.07	1	13086.6	-58.36539	-2.680925E-010	0.0087166	6
	37	53	198.6229	7400.115	-13798.45	1	15657.55	-61.79533	8.283526E-010	0.0087084	6
	38	54	158.3615	8055.763	-16885.66	1	18708.84	-64.49525	9.004582E-010	0.0087118	6
	39	56	125.558	8948.388	-20768.48	1	22614.23	-66.69054	4.067577E-010	0.0087079	6
	40	57	100.4464	10075.99	-25277.59	1	27211.8	-68.26711	1.068295E-009	0.0087072	6
	41	58	79.00281	11752.72	-31304.25	1	33437.74	-69.4221	7.592906E-010	0.0087063	6
	42	60	63.3446	13311.86	-38044.8	1	40306.48	-70.71508	4.507614E-010	0.0086995	6
	43	61	49.86702	16711.06	-46242.74	1	49169.61	-70.13131	-8.352546E-011	0.0087041	6
	44	63	39.72458	20320.36	-56262.86	1	59819.95	-70.14189	8.408111E-010	0.008713	6
	45	64	31.6723	25128.08	-68003.46	1	72497.52	-69.72013	1.674177E-009	0.0086997	6
	46	65	24.93351	31839.66	-81857.39	1	87831.64	-68.7457	5.08904E-010	0.0087073	6
	47	67	19.86229	40177.87	-97371.9	1	105335.4	-67.57784	3.583184E-010	0.0087151	5
	48	68	15.83615	49904.69	-113820.4	1	124280.2	-66.3249	7.009052E-010	0.0086997	5
	49	69	12.40079	64139.85	-135872.1	1	150250.3	-64.72986	2.630479E-010	0.0087069	5
	50	71	9.93114	78306.16	-157109.4	1	175542.7	-63.50751	2.267437E-010	0.0087019	5
	51	73	7.944915	95602.3	-180880.4	1	204591.1	-62.1418	-9.256015E-011	0.0087094	5
	52	74	6.317385	115724.8	-207921.2	1	237956.8	-60.90055	5.700151E-010	0.008702	5
	53	76	5.008013	138764.4	-239604.7	1	276886.2	-59.9232	4.122999E-010	0.0087238	5
	54	79	3.945707	166146.6	-276310.7	1	322416.3	-58.98135	-1.268999E-010	0.0087086	5
	55	81	3.158693	194722	-315436	1	370697.4	-58.31253	2.662147E-010	0.0087264	5
	56	85	2.504006	229086.2	-362659.6	1	428955.1	-57.72006	-1.612556E-010	0.008703	5
	57	88	1.998082	266389.7	-414574.6	1	492783.4	-57.27676	-2.101715E-010	0.0087125	5
	58	91	1.584686	311333.4	-475241.7	1	568140.1	-56.77097	9.567502E-011	0.0087603	5
	59	94	1.266892	357750.5	-542658.8	1	649972.3	-56.60493	-1.658787E-010	0.0087257	5
	60	99	0.999041	411816.2	-623458.8	1	747190.4	-56.55385	3.597456E-010	0.0087062	5
