EXPLAIN
TAG	EISPOT
TITLE	LABEL	Potentiostatic EIS	Test &Identifier
DATE	LABEL	11/5/2019	Date
TIME	LABEL	8:57:47	Time
NOTES	NOTES	2	&Notes...
	
	
PSTAT	PSTAT	REF600-11020	Potentiostat
VDC	POTEN	0.00000E+000	T	DC &Voltage (V)
FREQINIT	QUANT	1.00000E+006	Initial Fre&q. (Hz)
FREQFINAL	QUANT	1.00000E+000	Final Fre&q. (Hz)
PTSPERDEC	QUANT	1.00000E+001	Points/&decade
VAC	QUANT	2.50000E+001	AC &Voltage (mV rms)
AREA	QUANT	1.00000E-002	&Area (cm^2)
CONDIT	TWOPARAM	T	5.00000E+000	0.00000E+000	Conditionin&g	Time(s)	E(V)
DELAY	TWOPARAM	T	5.00000E+000	0.00000E+000	Init. De&lay	Time(s)	Stab.(mV/s)
SPEED	SELECTOR	1	&Optimize for:
ZGUESS	QUANT	1.00000E+005	E&stimated Z (ohms)
OCVCURVE	TABLE	19
	Pt	T	Vf	Vm	Ach	Over
	#	s	V vs. Ref.	V	V	bits
	0	0.258333	2.12784E-003	2.12784E-003	5.80665E-004	...........
	1	0.516667	2.12509E-003	1.98401E-003	5.80065E-004	...........
	2	0.775	2.10953E-003	1.91657E-003	5.83632E-004	...........
	3	1.03333	2.06918E-003	1.81409E-003	5.86565E-004	...........
	4	1.29167	2.00252E-003	1.72715E-003	5.79365E-004	...........
	5	1.55	1.91910E-003	1.65812E-003	5.77966E-004	...........
	6	1.80833	1.83619E-003	1.87780E-003	5.78865E-004	...........
	7	2.06667	1.78217E-003	1.92909E-003	5.78466E-004	...........
	8	2.325	1.77157E-003	1.44797E-003	5.81399E-004	...........
	9	2.58333	1.76166E-003	1.22354E-003	5.80865E-004	...........
	10	2.84167	1.68678E-003	1.32554E-003	5.76132E-004	...........
	11	3.1	1.55658E-003	1.69391E-003	5.79599E-004	...........
	12	3.35833	1.45971E-003	1.56118E-003	5.84465E-004	...........
	13	3.61667	1.45785E-003	1.87728E-003	5.79765E-004	...........
	14	3.875	1.51091E-003	5.36360E-004	5.78099E-004	...........
	15	4.13333	1.48919E-003	4.03435E-004	5.77232E-004	...........
	16	4.39167	1.29806E-003	9.21018E-004	5.81965E-004	...........
	17	4.65	1.03998E-003	1.87967E-003	5.81632E-004	...........
	18	4.90833	9.36803E-004	1.24424E-003	5.82632E-004	...........
EOC	QUANT	0.0009368	Open Circuit (V)
PSTATMODEL	IQUANT	4	Pstat Model
PSTATSECTION	LABEL	REF600-11020	Pstat Section
PSTATSERIALNO	LABEL	11020	Pstat Serial Number
CTRLMODE	IQUANT	1	Control Mode
IESTAB	IQUANT	0	I/E Stability
CASPEED	IQUANT	1	Control Amp Speed
CONVENTION	IQUANT	1	Current Convention
ICHRANGE	IQUANT	2	Ich Range
ICHRANGEMODE	TOGGLE	F	Ich Auto Range
ICHOFFSETENABLE	TOGGLE	T	Ich Offset Enable
ICHOFFSET	QUANT	0	Ich Offset (V)
ICHFILTER	IQUANT	3	Ich Filter
VCHRANGE	IQUANT	2	Vch Range
VCHRANGEMODE	TOGGLE	F	Vch Auto Range
VCHOFFSETENABLE	TOGGLE	T	Vch Offset Enable
VCHOFFSET	QUANT	0	Vch Offset (V)
VCHFILTER	IQUANT	3	Vch Filter
ACHRANGE	IQUANT	2	Ach Range
ACHOFFSETENABLE	TOGGLE	F	Ach Offset Enable
ACHOFFSET	QUANT	0	Ach Offset (V)
ACHFILTER	IQUANT	3	Ach Filter
IERANGELOWERLIMIT	IQUANT	1	I/E Range Lower Limit
IERANGEMODE	TOGGLE	F	I/E AutoRange
IERANGE	IQUANT	4	I/E Range
POSFEEDENABLE	TOGGLE	F	Positive Feedback IR Comp
POSFEEDRESISTANCE	QUANT	0	Positive Feedback Resistance (ohm)
ACHSELECT	IQUANT	0	Ach Select
CABLEID	IQUANT	14	Cable ID
DCCALDATE	LABEL	8/19/2019	DC Calibration Date
ACCALDATE	LABEL	8/19/2019	AC Calibration Date
THERMOSELECT	IQUANT	1	Thermo Select
FRAMEWORKVERSION	QUANT	6.33	Framework Version
INSTRUMENTVERSION	LABEL	3.50	Instrument Version
ZCURVE	TABLE
	Pt	Time	Freq	Zreal	Zimag	Zsig	Zmod	Zphz	Idc	Vdc	IERange
	#	s	Hz	ohm	ohm	V	ohm	°	A	V	#
	0	1	1000078	2043.826	-1009.192	1	2279.406	-26.27904	4.36576E-006	0.0037468	8
	1	3	794390.6	2216.672	-940.2279	1	2407.834	-22.98481	1.573371E-006	0.0022694	8
	2	4	630984.4	2368.577	-854.7032	1	2518.07	-19.84203	5.566677E-007	0.0032342	8
	3	5	501234.4	2498.683	-756.943	1	2610.82	-16.85349	-5.095497E-007	0.0032074	8
	4	7	398109.4	2593.14	-669.4947	1	2678.171	-14.47645	-7.103829E-007	0.0022934	8
	5	8	316265.6	2671.077	-587.7498	1	2734.977	-12.40973	-8.427062E-007	0.0030181	8
	6	9	251203.1	2735.883	-518.548	1	2784.591	-10.7323	-6.774604E-007	0.0022614	8
	7	11	199546.9	2784.143	-453.8741	1	2820.896	-9.258974	-2.798702E-006	0.0031058	8
	8	12	158578.1	2833.366	-398.9315	1	2861.313	-8.014433	2.371458E-006	0.0020251	8
	9	14	125953.1	2887.695	-318.5695	1	2905.214	-6.295393	1.590595E-006	-0.0027988	7
	10	15	100078.1	2911.56	-283.4146	1	2925.322	-5.559722	-6.977896E-007	0.0023584	7
	11	16	79453.13	2936.827	-267.3773	1	2948.973	-5.202034	4.642187E-007	0.0009154	7
	12	18	63140.62	2960.895	-256.5321	1	2971.987	-4.951745	-1.008338E-006	0.0030157	7
	13	19	50203.12	2985.416	-252.7428	1	2996.096	-4.839073	9.772542E-007	0.0018146	7
	14	20	39890.62	3008.872	-251.1993	1	3019.34	-4.77234	7.411471E-007	0.0008106	7
	15	22	31640.63	3032.677	-255.0204	1	3043.38	-4.806743	7.420613E-007	0.0008134	7
	16	23	25171.88	3056.888	-264.123	1	3068.277	-4.938239	7.443882E-007	0.0008077	7
	17	25	20015.62	3080.765	-279.4533	1	3093.414	-5.183062	8.038369E-007	0.0022795	7
	18	26	15890.62	3103.756	-300.6526	1	3118.284	-5.532828	7.599392E-008	0.0034195	7
	19	27	12609.37	3129.071	-327.8448	1	3146.198	-5.981277	7.713005E-008	0.0034204	7
	20	29	10078.13	3156.443	-365.6866	1	3177.556	-6.608484	1.1118E-007	0.0011901	7
	21	30	8015.625	3182.661	-409.863	1	3208.944	-7.338161	-1.177291E-006	0.0035561	7
	22	31	6328.125	3215.012	-471.3218	1	3249.377	-8.340169	7.793324E-008	0.003421	7
	23	33	5015.625	3249.629	-545.4108	1	3295.081	-9.5276	1.05747E-006	0.0014037	7
	24	34	3984.375	3285.839	-636.1478	1	3346.853	-10.95707	8.041822E-007	0.002276	7
	25	36	3170.956	3322.327	-746.2657	1	3405.11	-12.65973	5.955054E-007	0.0026747	7
	26	37	2527.573	3365.008	-879.3116	1	3477.998	-14.64452	3.871379E-007	0.0029829	7
	27	38	1976.103	3415.625	-1062.72	1	3577.131	-17.28274	-5.958632E-007	0.0040306	7
	28	40	1577.524	3467.701	-1270.082	1	3692.974	-20.11578	1.043176E-006	0.0010928	7
	29	41	1265.625	3525.838	-1512.316	1	3836.487	-23.21565	-8.620792E-007	0.0041092	7
	30	42	998.264	3598.203	-1845.442	1	4043.85	-27.15233	1.041534E-006	0.0010905	7
	31	44	796.875	3679.129	-2228.083	1	4301.203	-31.19913	7.460025E-007	0.0008023	7
	32	45	627.7902	3780.397	-2727.58	1	4661.662	-35.81068	-1.05458E-006	0.004059	7
	33	47	505.5147	3894.059	-3288.5	1	5096.854	-40.18082	-1.056898E-006	0.00406	7
	34	48	397.9953	4048.209	-4056.342	1	5730.786	-45.0575	1.418044E-009	0.0025246	7
	35	49	315.5048	4236.122	-4972.45	1	6532.227	-49.57171	6.597074E-009	0.0025155	7
	36	51	252.4038	4464.497	-6050.369	1	7519.222	-53.57681	2.122708E-009	0.002517	7
	37	52	198.6229	4778.253	-7470.234	1	8867.7	-57.39543	6.152926E-009	0.002512	7
	38	53	158.3615	5166.646	-9115.603	1	10478	-60.4558	1.211831E-009	0.0024555	6
	39	55	125.558	5678.25	-11166.47	1	12527.27	-63.04625	4.367836E-010	0.0024612	6
	40	56	100.4464	6319.843	-13557.68	1	14958.31	-65.00765	1.575776E-009	0.0024571	6
	41	58	79.00281	7190.92	-16689.66	1	18172.9	-66.69069	1.431558E-009	0.0024539	6
	42	59	63.3446	8318.973	-20005.4	1	21666.13	-67.42068	-3.380626E-010	0.0024602	6
	43	60	49.86702	9855.96	-24686.07	1	26580.86	-68.23554	-5.792846E-010	0.0024534	6
	44	62	39.72458	11663.27	-29703.14	1	31910.95	-68.56199	2.047919E-010	0.0024611	6
	45	63	31.6723	14043.21	-35709.1	1	38371.23	-68.53193	8.394708E-010	0.0024605	6
	46	65	24.93351	17197.44	-43157.73	1	46457.96	-68.27377	5.87027E-010	0.0024565	6
	47	66	19.86229	21066.45	-51534.03	1	55673.62	-67.76589	-1.651735E-010	0.0024657	6
	48	67	15.83615	25549.64	-61396.58	1	66500.56	-67.4058	-1.942748E-009	0.0024519	6
	49	69	12.40079	32213.02	-73424.41	1	80179.94	-66.31181	-1.093337E-009	0.0024651	6
	50	70	9.93114	39427.49	-85722.2	1	94354.77	-65.30017	1.462182E-009	0.0024515	6
	51	72	7.944915	48026.8	-99913.8	1	110857.3	-64.32722	2.002321E-010	0.0024596	5
	52	74	6.317385	58485.27	-116699.8	1	130534.9	-63.38179	1.094396E-009	0.0024565	5
	53	76	5.008013	71345.51	-136200.1	1	153755.1	-62.35316	3.137195E-010	0.0024769	5
	54	78	3.945707	86855.06	-158455.6	1	180698.6	-61.27131	1.786076E-010	0.0024568	5
	55	81	3.158693	103864.5	-181836.4	1	209409.4	-60.2651	3.013552E-010	0.0024855	5
	56	84	2.504006	124560.4	-207575.8	1	242080.6	-59.03322	-1.613846E-010	0.0024536	5
	57	87	1.998082	145628.4	-238798.1	1	279700.2	-58.62353	-2.028255E-010	0.0024384	5
	58	90	1.584686	170272.8	-272651.6	1	321452.5	-58.01493	1.134661E-010	0.0025078	5
	59	94	1.266892	194571	-311559.6	1	367324.5	-58.01495	-3.598955E-010	0.0024487	5
	60	98	0.999041	223689.7	-360353.4	1	424136.4	-58.17003	4.924073E-010	0.0024747	5
