EXPLAIN
TAG	EISPOT
TITLE	LABEL	Potentiostatic EIS	Test &Identifier
DATE	LABEL	11/5/2019	Date
TIME	LABEL	10:34:22	Time
NOTES	NOTES	2	&Notes...
	
	
PSTAT	PSTAT	REF600-11020	Potentiostat
VDC	POTEN	0.00000E+000	T	DC &Voltage (V)
FREQINIT	QUANT	1.00000E+006	Initial Fre&q. (Hz)
FREQFINAL	QUANT	1.00000E+000	Final Fre&q. (Hz)
PTSPERDEC	QUANT	1.00000E+001	Points/&decade
VAC	QUANT	2.50000E+001	AC &Voltage (mV rms)
AREA	QUANT	1.00000E-002	&Area (cm^2)
CONDIT	TWOPARAM	T	5.00000E+000	0.00000E+000	Conditionin&g	Time(s)	E(V)
DELAY	TWOPARAM	T	5.00000E+000	0.00000E+000	Init. De&lay	Time(s)	Stab.(mV/s)
SPEED	SELECTOR	1	&Optimize for:
ZGUESS	QUANT	1.00000E+005	E&stimated Z (ohms)
OCVCURVE	TABLE	19
	Pt	T	Vf	Vm	Ach	Over
	#	s	V vs. Ref.	V	V	bits
	0	0.258333	4.74330E-003	4.74330E-003	5.70732E-004	...........
	1	0.516667	4.74251E-003	4.70195E-003	5.71366E-004	...........
	2	0.775	4.73760E-003	4.65967E-003	5.72932E-004	...........
	3	1.03333	4.72391E-003	4.63957E-003	5.72432E-004	...........
	4	1.29167	4.70066E-003	4.61634E-003	5.71599E-004	...........
	5	1.55	4.67257E-003	4.59748E-003	5.73199E-004	...........
	6	1.80833	4.64530E-003	4.58655E-003	5.72499E-004	...........
	7	2.06667	4.62235E-003	4.59715E-003	5.75832E-004	...........
	8	2.325	4.60597E-003	4.59545E-003	5.70932E-004	...........
	9	2.58333	4.59736E-003	4.60806E-003	5.67166E-004	...........
	10	2.84167	4.59648E-003	4.64955E-003	5.71366E-004	...........
	11	3.1	4.60315E-003	4.63937E-003	5.72132E-004	...........
	12	3.35833	4.61572E-003	4.65477E-003	5.76299E-004	...........
	13	3.61667	4.63045E-003	4.68830E-003	5.77199E-004	...........
	14	3.875	4.64576E-003	4.71035E-003	5.72899E-004	...........
	15	4.13333	4.66320E-003	4.72126E-003	5.75232E-004	...........
	16	4.39167	4.68262E-003	4.72570E-003	5.75365E-004	...........
	17	4.65	4.70095E-003	4.73871E-003	5.72032E-004	...........
	18	4.90833	4.71575E-003	4.74548E-003	5.73366E-004	...........
EOC	QUANT	0.0047158	Open Circuit (V)
PSTATMODEL	IQUANT	4	Pstat Model
PSTATSECTION	LABEL	REF600-11020	Pstat Section
PSTATSERIALNO	LABEL	11020	Pstat Serial Number
CTRLMODE	IQUANT	1	Control Mode
IESTAB	IQUANT	0	I/E Stability
CASPEED	IQUANT	1	Control Amp Speed
CONVENTION	IQUANT	1	Current Convention
ICHRANGE	IQUANT	2	Ich Range
ICHRANGEMODE	TOGGLE	F	Ich Auto Range
ICHOFFSETENABLE	TOGGLE	T	Ich Offset Enable
ICHOFFSET	QUANT	0	Ich Offset (V)
ICHFILTER	IQUANT	3	Ich Filter
VCHRANGE	IQUANT	2	Vch Range
VCHRANGEMODE	TOGGLE	F	Vch Auto Range
VCHOFFSETENABLE	TOGGLE	T	Vch Offset Enable
VCHOFFSET	QUANT	0	Vch Offset (V)
VCHFILTER	IQUANT	3	Vch Filter
ACHRANGE	IQUANT	2	Ach Range
ACHOFFSETENABLE	TOGGLE	F	Ach Offset Enable
ACHOFFSET	QUANT	0	Ach Offset (V)
ACHFILTER	IQUANT	3	Ach Filter
IERANGELOWERLIMIT	IQUANT	1	I/E Range Lower Limit
IERANGEMODE	TOGGLE	F	I/E AutoRange
IERANGE	IQUANT	4	I/E Range
POSFEEDENABLE	TOGGLE	F	Positive Feedback IR Comp
POSFEEDRESISTANCE	QUANT	0	Positive Feedback Resistance (ohm)
ACHSELECT	IQUANT	0	Ach Select
CABLEID	IQUANT	14	Cable ID
DCCALDATE	LABEL	8/19/2019	DC Calibration Date
ACCALDATE	LABEL	8/19/2019	AC Calibration Date
THERMOSELECT	IQUANT	1	Thermo Select
FRAMEWORKVERSION	QUANT	6.33	Framework Version
INSTRUMENTVERSION	LABEL	3.50	Instrument Version
ZCURVE	TABLE
	Pt	Time	Freq	Zreal	Zimag	Zsig	Zmod	Zphz	Idc	Vdc	IERange
	#	s	Hz	ohm	ohm	V	ohm	°	A	V	#
	0	1	1000078	2387.977	-1703.262	1	2933.179	-35.49896	-2.33473E-006	0.0065552	8
	1	3	794390.6	2736.387	-1676.063	1	3208.894	-31.48787	9.534809E-006	0.0055692	8
	2	4	630984.4	3048.641	-1581.1	1	3434.252	-27.41237	5.496275E-006	0.0050836	8
	3	5	501234.4	3324.5	-1444.237	1	3624.655	-23.4812	-8.180102E-007	0.0060115	8
	4	7	398109.4	3557.145	-1309.761	1	3790.614	-20.21399	-6.921768E-007	0.0059998	8
	5	8	316265.6	3746.954	-1159.864	1	3922.365	-17.19983	-3.999821E-006	0.0069136	8
	6	9	251203.1	3892.044	-1017.198	1	4022.772	-14.64681	2.16577E-006	0.0066068	8
	7	11	199546.9	4016.048	-882.5918	1	4111.886	-12.39464	6.853003E-007	0.0067097	8
	8	12	158578.1	4108.096	-758.209	1	4177.479	-10.45709	-1.594549E-006	0.0067337	8
	9	14	125953.1	4206.148	-597.0662	1	4248.313	-8.079206	-4.793275E-009	0.0092642	7
	10	15	100078.1	4236.542	-526.0164	1	4269.073	-7.077721	1.60807E-007	0.0046785	7
	11	16	79453.13	4291.301	-479.2802	1	4317.983	-6.372753	-7.209053E-007	0.0080621	7
	12	18	63140.62	4331.095	-439.9577	1	4353.383	-5.800277	-1.162809E-006	0.0067883	7
	13	19	50203.12	4365.314	-417.3499	1	4385.22	-5.461217	4.169388E-007	0.0068748	7
	14	20	39890.62	4394.92	-401.8439	1	4413.253	-5.224241	-1.026658E-006	0.0081336	7
	15	22	31640.63	4427.915	-399.5091	1	4445.901	-5.155558	4.167201E-007	0.0068682	7
	16	23	25171.88	4459.439	-407.6544	1	4478.033	-5.223109	1.12304E-006	0.0043408	7
	17	24	20015.62	4493.724	-428.7006	1	4514.126	-5.449516	-7.198473E-007	0.0080512	7
	18	26	15890.62	4517.078	-458.1935	1	4540.257	-5.792034	-1.025344E-006	0.0081395	7
	19	27	12609.37	4549.805	-500.7113	1	4577.274	-6.280195	-1.387671E-006	0.0078587	7
	20	28	10078.13	4581.99	-561.0251	1	4616.208	-6.980628	9.017892E-007	0.0042321	7
	21	30	8015.625	4623.055	-643.4552	1	4667.619	-7.92375	1.625479E-007	0.0046607	7
	22	31	6328.125	4662.796	-740.2834	1	4721.195	-9.021205	-1.385932E-006	0.0078542	7
	23	33	5015.625	4713.358	-867.9642	1	4792.609	-10.43411	1.13504E-006	0.0054741	7
	24	34	3984.375	4764.959	-1006.881	1	4870.18	-11.93162	6.708797E-007	0.0064999	7
	25	35	3170.956	4811.053	-1213.389	1	4961.708	-14.15528	-3.136091E-007	0.005229	7
	26	37	2527.573	4875.915	-1447.422	1	5086.214	-16.5336	1.637012E-007	0.0046591	7
	27	38	1976.103	4958.796	-1760.859	1	5262.156	-19.54985	5.520359E-008	0.0073489	7
	28	39	1577.524	5062.335	-2132.993	1	5493.351	-22.84791	-1.363785E-006	0.0074204	7
	29	41	1265.625	5130.747	-2545.423	1	5727.455	-26.38654	-1.386955E-006	0.0078512	7
	30	42	998.264	5270.218	-3111.452	1	6120.158	-30.55692	9.216126E-007	0.0060271	7
	31	44	796.875	5403.264	-3763.323	1	6584.668	-34.85685	1.628011E-007	0.0046503	7
	32	45	627.7902	5589.434	-4603.063	1	7240.854	-39.47246	-1.246224E-006	0.008042	7
	33	47	505.5147	5787.604	-5556.781	1	8023.352	-43.83437	9.197214E-007	0.00603	7
	34	48	397.9953	6059.249	-6822.768	1	9124.946	-48.39196	3.689768E-009	0.0062564	7
	35	49	315.5048	6382.291	-8341.458	1	10503.03	-52.57935	5.07E-012	0.0061964	6
	36	51	252.4038	6757.079	-10128.6	1	12175.66	-56.29161	1.955813E-009	0.0061924	6
	37	52	198.6229	7253.348	-12488.08	1	14441.72	-59.85105	3.972508E-010	0.0062044	6
	38	53	158.3615	7838.193	-15230.69	1	17129.25	-62.76822	8.694315E-010	0.0061984	6
	39	55	125.558	8612.882	-18683.23	1	20572.91	-65.25051	8.377207E-010	0.006192	6
	40	56	100.4464	9535.58	-22732.78	1	24651.7	-67.24372	1.451842E-009	0.0061872	6
	41	58	79.00281	10904.34	-28033	1	30079.13	-68.74483	-3.257447E-010	0.0061861	6
	42	59	63.3446	12447.01	-33725.67	1	35949.26	-69.74258	2.557335E-010	0.0061923	6
	43	60	49.86702	15188.33	-42148.13	1	44801.23	-70.18307	1.855392E-009	0.0061824	6
	44	62	39.72458	17916.9	-50991.74	1	54047.87	-70.64012	1.15921E-009	0.0061841	6
	45	63	31.6723	21990.95	-61494.51	1	65308.32	-70.32253	4.57056E-010	0.0061849	6
	46	65	24.93351	27711.29	-74919.48	1	79880.18	-69.70153	-7.736049E-011	0.0061887	6
	47	66	19.86229	34827.3	-89814.14	1	96330.3	-68.80516	1.376445E-009	0.0061836	6
	48	67	15.83615	43739.12	-107820.6	1	116354.6	-67.9193	2.366438E-009	0.0061847	5
	49	69	12.40079	57196.75	-128727.9	1	140862.8	-66.04333	1.302462E-009	0.0061862	5
	50	70	9.93114	71447.95	-149182.7	1	165409.5	-64.40888	4.918317E-010	0.0061858	5
	51	72	7.944915	87880.45	-172110.3	1	193248.4	-62.9509	1.430966E-009	0.0061904	5
	52	73	6.317385	110816.9	-197945.4	1	226854	-60.75834	7.33956E-010	0.006202	5
	53	75	5.008013	136472.2	-226476.2	1	264416.6	-58.92728	5.380779E-010	0.0062065	5
	54	78	3.945707	167044.8	-258041.8	1	307391.5	-57.08278	2.850448E-010	0.0062049	5
	55	81	3.158693	198813.4	-289070.1	1	350839.4	-55.48102	9.499932E-011	0.0062067	5
	56	84	2.504006	235005.7	-324460	1	400626.9	-54.08427	4.613918E-010	0.0061885	5
	57	87	1.998082	272613.8	-361507.2	1	452775.6	-52.97992	-1.9714E-011	0.006234	5
	58	90	1.584686	312526.2	-404740.2	1	511358.3	-52.32594	2.799068E-010	0.0061994	5
	59	93	1.266892	355578	-452630.6	1	575595.5	-51.8475	9.859333E-011	0.0062345	5
	60	98	0.999041	400786.1	-511198.2	1	649579.1	-51.90309	4.872065E-011	0.0061502	5
