EXPLAIN
TAG	EISPOT
TITLE	LABEL	Potentiostatic EIS	Test &Identifier
DATE	LABEL	9/24/2019	Date
TIME	LABEL	9:30:05	Time
NOTES	NOTES	1	&Notes...
	
PSTAT	PSTAT	REF600-11020	Potentiostat
VDC	POTEN	0.00000E+000	T	DC &Voltage (V)
FREQINIT	QUANT	1.00000E+006	Initial Fre&q. (Hz)
FREQFINAL	QUANT	1.00000E+000	Final Fre&q. (Hz)
PTSPERDEC	QUANT	1.00000E+001	Points/&decade
VAC	QUANT	2.50000E+001	AC &Voltage (mV rms)
AREA	QUANT	1.00000E-002	&Area (cm^2)
CONDIT	TWOPARAM	T	5.00000E+000	0.00000E+000	Conditionin&g	Time(s)	E(V)
DELAY	TWOPARAM	T	5.00000E+000	0.00000E+000	Init. De&lay	Time(s)	Stab.(mV/s)
SPEED	SELECTOR	1	&Optimize for:
ZGUESS	QUANT	1.00000E+004	E&stimated Z (ohms)
OCVCURVE	TABLE	19
	Pt	T	Vf	Vm	Ach	Over
	#	s	V vs. Ref.	V	V	bits
	0	0.258333	-2.28840E-003	-2.28840E-003	5.68832E-004	...........
	1	0.516667	-2.30248E-003	-3.02540E-003	5.66632E-004	...........
	2	0.775	-2.38822E-003	-3.68692E-003	5.70899E-004	...........
	3	1.03333	-2.62910E-003	-4.35622E-003	5.70899E-004	...........
	4	1.29167	-3.05739E-003	-4.94682E-003	5.69166E-004	...........
	5	1.55	-3.62309E-003	-5.52259E-003	5.65832E-004	...........
	6	1.80833	-4.24417E-003	-6.04950E-003	5.70866E-004	...........
	7	2.06667	-4.85955E-003	-6.55101E-003	5.66332E-004	...........
	8	2.325	-5.44164E-003	-7.03317E-003	5.69532E-004	...........
	9	2.58333	-5.98569E-003	-7.49223E-003	5.69332E-004	...........
	10	2.84167	-6.49667E-003	-7.93098E-003	5.73599E-004	...........
	11	3.1	-6.98081E-003	-8.35384E-003	5.66499E-004	...........
	12	3.35833	-7.44250E-003	-8.75764E-003	5.65632E-004	...........
	13	3.61667	-7.88449E-003	-9.15282E-003	5.67099E-004	...........
	14	3.875	-8.30883E-003	-9.52859E-003	5.67566E-004	...........
	15	4.13333	-8.71722E-003	-9.89764E-003	5.69099E-004	...........
	16	4.39167	-9.11111E-003	-1.02525E-002	5.69599E-004	...........
	17	4.65	-9.49170E-003	-1.05950E-002	5.67766E-004	...........
	18	4.90833	-9.85969E-003	-1.09217E-002	5.66399E-004	...........
EOC	QUANT	-0.0098597	Open Circuit (V)
PSTATMODEL	IQUANT	4	Pstat Model
PSTATSECTION	LABEL	REF600-11020	Pstat Section
PSTATSERIALNO	LABEL	11020	Pstat Serial Number
CTRLMODE	IQUANT	1	Control Mode
IESTAB	IQUANT	0	I/E Stability
CASPEED	IQUANT	1	Control Amp Speed
CONVENTION	IQUANT	1	Current Convention
ICHRANGE	IQUANT	2	Ich Range
ICHRANGEMODE	TOGGLE	F	Ich Auto Range
ICHOFFSETENABLE	TOGGLE	T	Ich Offset Enable
ICHOFFSET	QUANT	0	Ich Offset (V)
ICHFILTER	IQUANT	3	Ich Filter
VCHRANGE	IQUANT	2	Vch Range
VCHRANGEMODE	TOGGLE	F	Vch Auto Range
VCHOFFSETENABLE	TOGGLE	T	Vch Offset Enable
VCHOFFSET	QUANT	0	Vch Offset (V)
VCHFILTER	IQUANT	3	Vch Filter
ACHRANGE	IQUANT	2	Ach Range
ACHOFFSETENABLE	TOGGLE	F	Ach Offset Enable
ACHOFFSET	QUANT	0	Ach Offset (V)
ACHFILTER	IQUANT	3	Ach Filter
IERANGELOWERLIMIT	IQUANT	1	I/E Range Lower Limit
IERANGEMODE	TOGGLE	F	I/E AutoRange
IERANGE	IQUANT	6	I/E Range
POSFEEDENABLE	TOGGLE	F	Positive Feedback IR Comp
POSFEEDRESISTANCE	QUANT	0	Positive Feedback Resistance (ohm)
ACHSELECT	IQUANT	0	Ach Select
CABLEID	IQUANT	14	Cable ID
DCCALDATE	LABEL	8/19/2019	DC Calibration Date
ACCALDATE	LABEL	8/19/2019	AC Calibration Date
THERMOSELECT	IQUANT	1	Thermo Select
FRAMEWORKVERSION	QUANT	6.33	Framework Version
INSTRUMENTVERSION	LABEL	3.50	Instrument Version
ZCURVE	TABLE
	Pt	Time	Freq	Zreal	Zimag	Zsig	Zmod	Zphz	Idc	Vdc	IERange
	#	s	Hz	ohm	ohm	V	ohm	°	A	V	#
	0	1	1000078	2066.296	-2037.081	1	2901.6	-44.59207	-2.327957E-006	-0.006998	8
	1	3	794390.6	2492.797	-2120.199	1	3272.503	-40.38216	1.857382E-006	-0.0076748	8
	2	4	630984.4	2914.054	-2103.437	1	3593.906	-35.82269	1.38495E-006	-0.0084909	8
	3	5	501234.4	3352.618	-2066.064	1	3938.105	-31.64361	-7.984878E-007	-0.0077938	8
	4	7	398109.4	3705.559	-1937.012	1	4181.29	-27.59748	-1.579612E-007	-0.0081631	8
	5	8	316265.6	4029.056	-1774.781	1	4402.629	-23.77327	5.664378E-007	-0.0080532	8
	6	10	251203.1	4329.793	-1590.567	1	4612.701	-20.17101	-4.455679E-007	-0.0079836	8
	7	11	199546.9	4556.866	-1404.583	1	4768.425	-17.13111	-3.898161E-007	-0.0079979	8
	8	13	158578.1	4739.168	-1228.069	1	4895.699	-14.52762	1.360088E-006	-0.0085345	8
	9	14	125953.1	4884.891	-1004.684	1	4987.139	-11.62206	1.239615E-006	-0.0104435	7
	10	16	100078.1	4968.571	-883.4807	1	5046.508	-10.0826	6.850075E-008	-0.0083223	7
	11	17	79453.13	5048.621	-783.8606	1	5109.11	-8.82541	-3.226769E-008	-0.008183	7
	12	18	63140.62	5112.27	-706.3898	1	5160.842	-7.867052	-4.565703E-008	-0.0081215	7
	13	20	50203.12	5166.563	-650.223	1	5207.318	-7.173084	-1.02131E-008	-0.0082555	7
	14	21	39890.62	5214.3	-613.4556	1	5250.262	-6.70993	-1.08007E-008	-0.008166	7
	15	22	31640.63	5259.589	-594.5081	1	5293.082	-6.448953	4.19565E-008	-0.0082734	7
	16	24	25171.88	5302.359	-593.7123	1	5335.495	-6.388875	-4.493191E-008	-0.0080669	7
	17	25	20015.62	5343.935	-610.0396	1	5378.642	-6.512437	-3.88811E-008	-0.008202	7
	18	26	15890.62	5392.271	-644.3194	1	5430.63	-6.813933	-3.44055E-008	-0.0081888	7
	19	28	12609.37	5441.169	-695.0911	1	5485.387	-7.279914	-4.463655E-008	-0.008063	7
	20	29	10078.13	5493.699	-763.2445	1	5546.464	-7.909524	-1.073351E-008	-0.0082594	7
	21	30	8015.625	5549.073	-854.4059	1	5614.465	-8.753247	-1.952378E-008	-0.0082394	7
	22	32	6328.125	5609.639	-976.24	1	5693.952	-9.87226	6.862261E-008	-0.0083301	7
	23	33	5015.625	5678.146	-1126.289	1	5788.771	-11.21929	4.221747E-008	-0.0082712	7
	24	35	3984.375	5754.655	-1310.906	1	5902.079	-12.83294	1.325579E-007	-0.0084189	7
	25	36	3170.956	5836.659	-1534.954	1	6035.12	-14.7343	-2.071395E-009	-0.0081814	7
	26	38	2527.573	5929.178	-1806.078	1	6198.15	-16.94118	-7.106095E-008	-0.0080999	7
	27	39	1976.103	6047.323	-2164.86	1	6423.14	-19.69668	-3.321441E-008	-0.0082019	7
	28	40	1577.524	6172.271	-2580.497	1	6689.985	-22.68878	3.887684E-008	-0.008352	7
	29	42	1265.625	6329.054	-3034.566	1	7018.939	-25.61613	4.396096E-008	-0.008268	7
	30	43	998.264	6480.74	-3697.452	1	7461.31	-29.70602	-2.642989E-009	-0.0081995	7
	31	44	796.875	6676.809	-4440.022	1	8018.328	-33.62357	6.753496E-008	-0.0083386	7
	32	46	627.7902	6918.817	-5384.962	1	8767.431	-37.89387	-9.233306E-009	-0.0082713	7
	33	47	505.5147	7179.504	-6444.717	1	9647.78	-41.91289	6.977694E-009	-0.0084417	6
	34	48	397.9953	7521.09	-7870.153	1	10886.05	-46.29921	1.753073E-009	-0.0082552	6
	35	50	315.5048	7918.406	-9568.8	1	12420.27	-50.39145	1.455904E-009	-0.0082606	6
	36	51	252.4038	8378.191	-11561.03	1	14277.66	-54.06944	7.201416E-010	-0.0082665	6
	37	53	198.6229	8974.557	-14175.93	1	16777.95	-57.66275	1.214339E-009	-0.0082615	6
	38	54	158.3615	9661.12	-17210.7	1	19736.91	-60.69261	7.075719E-010	-0.0082649	6
	39	55	125.558	10537.06	-21021.59	1	23514.61	-63.3777	1.218315E-009	-0.0082614	6
	40	57	100.4464	11596.05	-25516.88	1	28028.19	-65.56076	4.737976E-010	-0.0082642	6
	41	58	79.00281	12917.96	-31445.99	1	33995.94	-67.66723	1.672166E-009	-0.0082676	6
	42	59	63.3446	14314.18	-38339.42	1	40924.4	-69.52667	1.743114E-009	-0.0082656	6
	43	61	49.86702	17059.23	-46426.12	1	49461.12	-69.8242	2.020649E-009	-0.0082685	6
	44	62	39.72458	19946.98	-56903.08	1	60297.95	-70.68224	1.438153E-009	-0.0082623	6
	45	64	31.6723	24058.47	-69184.45	1	73248.2	-70.82519	1.493329E-009	-0.0082637	6
	46	65	24.93351	29336.69	-84665.05	1	89603.64	-70.88865	7.11648E-010	-0.0082677	6
	47	67	19.86229	36293.97	-102289.8	1	108537.8	-70.46454	5.479331E-010	-0.0082677	5
	48	68	15.83615	45676.89	-121462.1	1	129766.8	-69.39079	7.74424E-011	-0.0082623	5
	49	69	12.40079	58035.59	-149932.3	1	160772.6	-68.83965	1.584581E-009	-0.008257	5
	50	71	9.93114	74043.45	-175890.1	1	190839.6	-67.17065	3.376846E-010	-0.0082576	5
	51	72	7.944915	93620.27	-205626.8	1	225936.1	-65.52059	1.490551E-009	-0.0082549	5
	52	74	6.317385	118365.1	-241484.9	1	268933.5	-63.88796	3.686516E-010	-0.0082496	5
	53	76	5.008013	149502.1	-280242.3	1	317626.5	-61.92122	5.165091E-010	-0.008272	5
	54	79	3.945707	187085.4	-322615.4	1	372936.5	-59.89046	9.83354E-010	-0.0082585	5
	55	82	3.158693	228074.6	-364335.8	1	429835.6	-57.95338	3.268156E-010	-0.0082737	5
	56	85	2.504006	276021.1	-410615.4	1	494765.2	-56.09048	9.71481E-010	-0.0082688	5
	57	88	1.998082	326472.9	-458085.6	1	562518.4	-54.52292	6.050368E-010	-0.0082229	5
	58	91	1.584686	380427.9	-510936.5	1	637009.8	-53.32974	6.438777E-010	-0.0082848	5
	59	94	1.266892	438151.7	-569935.3	1	718890.2	-52.44783	6.02435E-010	-0.0082309	5
	60	99	0.999041	502252.1	-640410.8	1	813869.3	-51.89413	3.131513E-010	-0.0083037	5
