EXPLAIN
TAG	EISPOT
TITLE	LABEL	Potentiostatic IDE	Test &Identifier
DATE	LABEL	9/14/2019	Date
TIME	LABEL	9:02:41	Time
NOTES	NOTES	1	&Notes...
	
PSTAT	PSTAT	REF600-11020	Potentiostat
VDC	POTEN	0.00000E+000	T	DC &Voltage (V)
FREQINIT	QUANT	1.00000E+006	Initial Fre&q. (Hz)
FREQFINAL	QUANT	1.00000E+000	Final Fre&q. (Hz)
PTSPERDEC	QUANT	1.00000E+001	Points/&decade
VAC	QUANT	2.50000E+001	AC &Voltage (mV rms)
AREA	QUANT	1.00000E-002	&Area (cm^2)
CONDIT	TWOPARAM	T	5.00000E+000	0.00000E+000	Conditionin&g	Time(s)	E(V)
DELAY	TWOPARAM	T	5.00000E+000	0.00000E+000	Init. De&lay	Time(s)	Stab.(mV/s)
SPEED	SELECTOR	1	&Optimize for:
ZGUESS	QUANT	1.00000E+007	E&stimated Z (ohms)
OCVCURVE	TABLE	19
	Pt	T	Vf	Vm	Ach	Over
	#	s	V vs. Ref.	V	V	bits
	0	0.258333	8.08287E-003	8.08287E-003	5.29566E-004	...........
	1	0.516667	8.08337E-003	8.10908E-003	5.31900E-004	...........
	2	0.775	8.08668E-003	8.14639E-003	5.32033E-004	...........
	3	1.03333	8.09717E-003	8.19936E-003	5.32233E-004	...........
	4	1.29167	8.11897E-003	8.25340E-003	5.30966E-004	...........
	5	1.55	8.15345E-003	8.31723E-003	5.33066E-004	...........
	6	1.80833	8.19917E-003	8.38106E-003	5.36199E-004	...........
	7	2.06667	8.25342E-003	8.44874E-003	5.33833E-004	...........
	8	2.325	8.31351E-003	8.51344E-003	5.34099E-004	...........
	9	2.58333	8.37713E-003	8.58042E-003	5.40433E-004	...........
	10	2.84167	8.44250E-003	8.64423E-003	5.29899E-004	...........
	11	3.1	8.50844E-003	8.71279E-003	5.38399E-004	...........
	12	3.35833	8.57439E-003	8.77407E-003	5.40999E-004	...........
	13	3.61667	8.64005E-003	8.83777E-003	5.43199E-004	...........
	14	3.875	8.70500E-003	8.89744E-003	5.35133E-004	...........
	15	4.13333	8.76880E-003	8.95826E-003	5.37333E-004	...........
	16	4.39167	8.83122E-003	9.01380E-003	5.39633E-004	...........
	17	4.65	8.89218E-003	9.07394E-003	5.37433E-004	...........
	18	4.90833	8.95177E-003	9.12951E-003	5.37633E-004	...........
EOC	QUANT	0.0089518	Open Circuit (V)
PSTATMODEL	IQUANT	4	Pstat Model
PSTATSECTION	LABEL	REF600-11020	Pstat Section
PSTATSERIALNO	LABEL	11020	Pstat Serial Number
CTRLMODE	IQUANT	1	Control Mode
IESTAB	IQUANT	0	I/E Stability
CASPEED	IQUANT	1	Control Amp Speed
CONVENTION	IQUANT	1	Current Convention
ICHRANGE	IQUANT	2	Ich Range
ICHRANGEMODE	TOGGLE	F	Ich Auto Range
ICHOFFSETENABLE	TOGGLE	T	Ich Offset Enable
ICHOFFSET	QUANT	0	Ich Offset (V)
ICHFILTER	IQUANT	3	Ich Filter
VCHRANGE	IQUANT	2	Vch Range
VCHRANGEMODE	TOGGLE	F	Vch Auto Range
VCHOFFSETENABLE	TOGGLE	T	Vch Offset Enable
VCHOFFSET	QUANT	0	Vch Offset (V)
VCHFILTER	IQUANT	3	Vch Filter
ACHRANGE	IQUANT	2	Ach Range
ACHOFFSETENABLE	TOGGLE	F	Ach Offset Enable
ACHOFFSET	QUANT	0	Ach Offset (V)
ACHFILTER	IQUANT	3	Ach Filter
IERANGELOWERLIMIT	IQUANT	1	I/E Range Lower Limit
IERANGEMODE	TOGGLE	F	I/E AutoRange
IERANGE	IQUANT	3	I/E Range
POSFEEDENABLE	TOGGLE	F	Positive Feedback IR Comp
POSFEEDRESISTANCE	QUANT	0	Positive Feedback Resistance (ohm)
ACHSELECT	IQUANT	0	Ach Select
CABLEID	IQUANT	14	Cable ID
DCCALDATE	LABEL	8/19/2019	DC Calibration Date
ACCALDATE	LABEL	8/19/2019	AC Calibration Date
THERMOSELECT	IQUANT	1	Thermo Select
FRAMEWORKVERSION	QUANT	6.33	Framework Version
INSTRUMENTVERSION	LABEL	3.50	Instrument Version
ZCURVE	TABLE
	Pt	Time	Freq	Zreal	Zimag	Zsig	Zmod	Zphz	Idc	Vdc	IERange
	#	s	Hz	ohm	ohm	V	ohm	°	A	V	#
	0	2	1000078	2421.774	-1342.865	1	2769.165	-29.00822	6.07594E-006	0.0104732	8
	1	3	794390.6	2656.155	-1236.365	1	2929.805	-24.96064	-1.96172E-006	0.0111933	8
	2	5	630984.4	2850.832	-1108.298	1	3058.687	-21.24424	4.729602E-006	0.0101064	8
	3	6	501234.4	3009.653	-962.277	1	3159.745	-17.73065	3.353753E-006	0.0100428	8
	4	7	398109.4	3130.695	-841.6275	1	3241.849	-15.04712	4.051798E-007	0.0104358	8
	5	9	316265.6	3211.194	-741.6995	1	3295.738	-13.00571	-7.602862E-007	0.0105125	8
	6	10	251203.1	3289.375	-627.9783	1	3348.783	-10.80834	-7.020569E-007	0.0104963	8
	7	11	199546.9	3343.534	-565.7867	1	3391.067	-9.6045	-1.458111E-007	0.01073	8
	8	13	158578.1	3407.989	-504.4623	1	3445.123	-8.419979	-7.376012E-007	0.0105003	8
	9	14	125953.1	3454.954	-400.4185	1	3478.08	-6.61091	-9.037168E-007	0.012552	7
	10	15	100078.1	3484.288	-378.671	1	3504.805	-6.202538	5.194378E-008	0.0104272	7
	11	17	79453.13	3517.469	-371.0909	1	3536.99	-6.022393	2.559644E-008	0.0104773	7
	12	18	63140.62	3550.625	-371.3444	1	3569.99	-5.97061	-8.884808E-009	0.010559	7
	13	19	50203.12	3585.704	-379.37	1	3605.717	-6.039465	-8.467483E-008	0.0108197	7
	14	21	39890.62	3623.413	-390.0801	1	3644.35	-6.144536	-2.808431E-008	0.0105524	7
	15	22	31640.63	3663.287	-418.3344	1	3687.096	-6.514753	-6.439083E-008	0.0106506	7
	16	23	25171.88	3707.008	-449.1277	1	3734.116	-6.90808	-5.390575E-009	0.0105015	7
	17	25	20015.62	3753.499	-488.3334	1	3785.132	-7.412594	2.338213E-008	0.0104668	7
	18	26	15890.62	3809.445	-542.0217	1	3847.812	-8.097898	1.564977E-008	0.0106734	7
	19	27	12609.37	3864.301	-596.5904	1	3910.082	-8.776324	-6.368839E-009	0.0105534	7
	20	29	10078.13	3926.189	-662.2933	1	3981.657	-9.57486	1.117769E-007	0.0104705	7
	21	30	8015.625	3998.728	-742.7059	1	4067.117	-10.52196	-8.083678E-008	0.0106678	7
	22	31	6328.125	4080.528	-838.2681	1	4165.742	-11.60884	-8.316371E-008	0.0106649	7
	23	33	5015.625	4168.378	-946.1223	1	4274.404	-12.78811	-1.108198E-008	0.0106239	7
	24	34	3984.375	4268.204	-1074.109	1	4401.281	-14.12538	1.362021E-007	0.0103716	7
	25	35	3170.956	4373.852	-1216.816	1	4539.958	-15.54669	1.377164E-007	0.0103751	7
	26	37	2527.573	4492.613	-1384.247	1	4701.033	-17.12491	-7.882246E-008	0.0106717	7
	27	38	1976.103	4627.124	-1596.329	1	4894.746	-19.03412	-1.914558E-008	0.0106086	7
	28	39	1577.524	4764.116	-1823.378	1	5101.128	-20.94343	-7.296232E-008	0.010688	7
	29	41	1265.625	4891.589	-2095.471	1	5321.526	-23.18944	-4.125173E-008	0.010654	7
	30	42	998.264	5054.782	-2436.264	1	5611.257	-25.73277	-1.417287E-008	0.0106164	7
	31	43	796.875	5208.842	-2844.357	1	5934.846	-28.63733	-4.000156E-008	0.0106593	7
	32	45	627.7902	5379.055	-3366.7	1	6345.778	-32.04206	-8.385475E-008	0.0108093	7
	33	46	505.5147	5545.703	-3961.209	1	6815.13	-35.53763	9.255456E-009	0.0105347	7
	34	47	397.9953	5742.653	-4763.5	1	7461.166	-39.67552	7.064884E-009	0.0105759	7
	35	49	315.5048	5955.104	-5744.206	1	8274.006	-43.96726	7.242338E-009	0.0105771	7
	36	50	252.4038	6186.47	-6912.428	1	9276.534	-48.17216	8.108459E-009	0.0105704	7
	37	51	198.6229	6481.437	-8473.504	1	10668.14	-52.5874	4.606767E-010	0.0105141	6
	38	53	158.3615	6815.875	-10309.52	1	12358.9	-56.53034	-1.646616E-010	0.0105149	6
	39	54	125.558	7231.97	-12636.94	1	14560	-60.21801	4.839664E-011	0.0105141	6
	40	55	100.4464	7739.398	-15399.72	1	17235.13	-63.31739	1.06209E-009	0.0105172	6
	41	57	79.00281	8427.036	-19084.32	1	20862.07	-66.17525	-4.924023E-010	0.0105195	6
	42	58	63.3446	9294.356	-23052.88	1	24855.99	-68.04191	-2.89625E-010	0.0105121	6
	43	59	49.86702	10324.65	-28874.62	1	30664.99	-70.32455	-9.254339E-010	0.0105133	6
	44	61	39.72458	11695.61	-35121.53	1	37017.69	-71.58204	2.579251E-010	0.0105213	6
	45	62	31.6723	13559.36	-42958.22	1	45047.36	-72.48219	8.39023E-010	0.0105203	6
	46	63	24.93351	15882.3	-53044.57	1	55371.23	-73.33154	-1.661945E-010	0.0105164	6
	47	65	19.86229	18943.92	-64721.73	1	67437.2	-73.68536	-3.327776E-010	0.0105135	6
	48	66	15.83615	22628.55	-79083.93	1	82257.64	-74.03241	8.133645E-010	0.0105137	6
	49	67	12.40079	28581.4	-97207	1	101321.8	-73.61529	-4.194495E-010	0.0105171	6
	50	69	9.93114	34886.77	-116686.7	1	121790.3	-73.35449	-9.433614E-010	0.0105282	5
	51	70	7.944915	43130.68	-141054.5	1	147501.3	-72.99778	-2.943696E-010	0.0105233	5
	52	72	6.317385	53933.58	-169666.8	1	178032.8	-72.36562	1.785175E-011	0.0105208	5
	53	74	5.008013	67949.11	-204471	1	215465.7	-71.61749	-1.124581E-010	0.0105201	5
	54	77	3.945707	86097.84	-246726.9	1	261317.9	-70.76305	-3.391613E-010	0.0105101	5
	55	79	3.158693	107768.5	-292765.8	1	311970.9	-69.7911	-9.232132E-011	0.0105023	5
	56	83	2.504006	135042.9	-348710.3	1	373945.8	-68.83041	-1.600588E-010	0.0105265	5
	57	85	1.998082	167039.3	-411384.3	1	444003.6	-67.90079	1.030853E-010	0.0105176	5
	58	88	1.584686	209085.5	-486056.8	1	529120	-66.72424	-1.268427E-010	0.0104672	5
	59	92	1.266892	255405.4	-568468.3	1	623207.9	-65.80624	1.331402E-010	0.0105107	5
	60	96	0.999041	316340	-669140.1	1	740148.3	-64.69727	-2.3673E-010	0.0104819	5
