EXPLAIN
TAG	EISPOT
TITLE	LABEL	Potentiostatic EIS	Test &Identifier
DATE	LABEL	10/28/2019	Date
TIME	LABEL	10:40:39	Time
NOTES	NOTES	1	&Notes...
	
PSTAT	PSTAT	REF600-11020	Potentiostat
VDC	POTEN	0.00000E+000	T	DC &Voltage (V)
FREQINIT	QUANT	1.00000E+006	Initial Fre&q. (Hz)
FREQFINAL	QUANT	1.00000E+000	Final Fre&q. (Hz)
PTSPERDEC	QUANT	1.00000E+001	Points/&decade
VAC	QUANT	2.50000E+001	AC &Voltage (mV rms)
AREA	QUANT	1.00000E-002	&Area (cm^2)
CONDIT	TWOPARAM	T	5.00000E+000	0.00000E+000	Conditionin&g	Time(s)	E(V)
DELAY	TWOPARAM	T	5.00000E+000	0.00000E+000	Init. De&lay	Time(s)	Stab.(mV/s)
SPEED	SELECTOR	1	&Optimize for:
ZGUESS	QUANT	1.00000E+005	E&stimated Z (ohms)
OCVCURVE	TABLE	19
	Pt	T	Vf	Vm	Ach	Over
	#	s	V vs. Ref.	V	V	bits
	0	0.258333	7.04718E-003	7.04718E-003	5.64932E-004	...........
	1	0.516667	7.04659E-003	7.01613E-003	5.68232E-004	...........
	2	0.775	7.04333E-003	7.00693E-003	5.69899E-004	...........
	3	1.03333	7.03549E-003	7.00248E-003	5.66999E-004	...........
	4	1.29167	7.02506E-003	7.03745E-003	5.66332E-004	...........
	5	1.55	7.01789E-003	7.02887E-003	5.59899E-004	...........
	6	1.80833	7.01816E-003	7.05475E-003	5.59432E-004	...........
	7	2.06667	7.02553E-003	7.07859E-003	5.60599E-004	...........
	8	2.325	7.03840E-003	7.10448E-003	5.69532E-004	...........
	9	2.58333	7.05607E-003	7.12591E-003	5.73232E-004	...........
	10	2.84167	7.07765E-003	7.16268E-003	5.70832E-004	...........
	11	3.1	7.10209E-003	7.18495E-003	5.71566E-004	...........
	12	3.35833	7.12875E-003	7.22272E-003	5.71099E-004	...........
	13	3.61667	7.15732E-003	7.25669E-003	5.65532E-004	...........
	14	3.875	7.18814E-003	7.30873E-003	5.61332E-004	...........
	15	4.13333	7.22097E-003	7.27519E-003	5.62266E-004	...........
	16	4.39167	7.25123E-003	7.27833E-003	5.59199E-004	...........
	17	4.65	7.27171E-003	7.27819E-003	5.63999E-004	...........
	18	4.90833	7.28154E-003	7.34368E-003	5.63999E-004	...........
EOC	QUANT	0.0072815	Open Circuit (V)
PSTATMODEL	IQUANT	4	Pstat Model
PSTATSECTION	LABEL	REF600-11020	Pstat Section
PSTATSERIALNO	LABEL	11020	Pstat Serial Number
CTRLMODE	IQUANT	1	Control Mode
IESTAB	IQUANT	0	I/E Stability
CASPEED	IQUANT	1	Control Amp Speed
CONVENTION	IQUANT	1	Current Convention
ICHRANGE	IQUANT	2	Ich Range
ICHRANGEMODE	TOGGLE	F	Ich Auto Range
ICHOFFSETENABLE	TOGGLE	T	Ich Offset Enable
ICHOFFSET	QUANT	0	Ich Offset (V)
ICHFILTER	IQUANT	3	Ich Filter
VCHRANGE	IQUANT	2	Vch Range
VCHRANGEMODE	TOGGLE	F	Vch Auto Range
VCHOFFSETENABLE	TOGGLE	T	Vch Offset Enable
VCHOFFSET	QUANT	0	Vch Offset (V)
VCHFILTER	IQUANT	3	Vch Filter
ACHRANGE	IQUANT	2	Ach Range
ACHOFFSETENABLE	TOGGLE	F	Ach Offset Enable
ACHOFFSET	QUANT	0	Ach Offset (V)
ACHFILTER	IQUANT	3	Ach Filter
IERANGELOWERLIMIT	IQUANT	1	I/E Range Lower Limit
IERANGEMODE	TOGGLE	F	I/E AutoRange
IERANGE	IQUANT	5	I/E Range
POSFEEDENABLE	TOGGLE	F	Positive Feedback IR Comp
POSFEEDRESISTANCE	QUANT	0	Positive Feedback Resistance (ohm)
ACHSELECT	IQUANT	0	Ach Select
CABLEID	IQUANT	14	Cable ID
DCCALDATE	LABEL	8/19/2019	DC Calibration Date
ACCALDATE	LABEL	8/19/2019	AC Calibration Date
THERMOSELECT	IQUANT	1	Thermo Select
FRAMEWORKVERSION	QUANT	6.33	Framework Version
INSTRUMENTVERSION	LABEL	3.50	Instrument Version
ZCURVE	TABLE
	Pt	Time	Freq	Zreal	Zimag	Zsig	Zmod	Zphz	Idc	Vdc	IERange
	#	s	Hz	ohm	ohm	V	ohm	°	A	V	#
	0	2	1000078	2489.464	-1905.554	1	3135.055	-37.43215	7.935076E-008	0.0094198	8
	1	3	794390.6	2849.914	-1877.611	1	3412.834	-33.37812	-1.798277E-006	0.0095425	8
	2	5	630984.4	3224.103	-1796.908	1	3691.032	-29.13249	-4.271798E-006	0.0099972	8
	3	7	501234.4	3549.227	-1647.089	1	3912.788	-24.89459	1.698833E-008	0.0091477	8
	4	8	398109.4	3832.507	-1497.499	1	4114.683	-21.34238	-3.95399E-006	0.0096965	8
	5	10	316265.6	4038.429	-1314.107	1	4246.855	-18.02491	-3.423698E-006	0.009561	8
	6	11	251203.1	4223.179	-1139.464	1	4374.2	-15.09953	-9.37094E-007	0.0092019	8
	7	13	199546.9	4347.274	-967.2	1	4453.568	-12.54311	-1.360836E-006	0.0090999	8
	8	14	158578.1	4429.937	-867.4276	1	4514.064	-11.07893	1.338852E-006	0.0087399	8
	9	16	125953.1	4547.993	-661.5447	1	4595.855	-8.27612	-6.514262E-007	0.0102317	7
	10	17	100078.1	4604.42	-589.4442	1	4641.997	-7.295156	-4.842147E-008	0.0088116	7
	11	19	79453.13	4662.523	-523.2871	1	4691.796	-6.403656	-4.335514E-008	0.0088038	7
	12	20	63140.62	4705.444	-482.0903	1	4730.076	-5.849755	-1.025998E-008	0.0087969	7
	13	22	50203.12	4742.083	-450.8624	1	4763.468	-5.431178	-5.829152E-008	0.0088882	7
	14	23	39890.62	4775.697	-437.7169	1	4795.715	-5.236817	-1.755162E-008	0.0087248	7
	15	24	31640.63	4807.184	-430.8141	1	4826.45	-5.121099	1.016646E-007	0.0087037	7
	16	26	25171.88	4840.18	-439.8967	1	4860.128	-5.193024	-5.255171E-008	0.0087945	7
	17	27	20015.62	4875.25	-489.9488	1	4899.807	-5.738795	1.65202E-008	0.0086684	7
	18	28	15890.62	4903.146	-488.6642	1	4927.437	-5.691498	1.742347E-008	0.0086757	7
	19	30	12609.37	4938.332	-538.6544	1	4967.623	-6.224995	4.724942E-008	0.0087077	7
	20	31	10078.13	4972.824	-595.9355	1	5008.405	-6.833649	-4.981853E-008	0.0087948	7
	21	32	8015.625	5003.355	-684.8023	1	5050.002	-7.793569	1.480122E-008	0.0086715	7
	22	34	6328.125	5045.877	-798.4211	1	5108.655	-8.9915	-8.803624E-008	0.0088981	7
	23	35	5015.625	5090.467	-940.4346	1	5176.608	-10.46705	-5.967301E-008	0.0088792	7
	24	37	3984.375	5129.152	-1121.459	1	5250.321	-12.33329	4.817921E-008	0.0086031	7
	25	38	3170.956	5194.903	-1331.073	1	5362.721	-14.37153	-5.101087E-008	0.0087912	7
	26	39	2527.573	5262.815	-1594.971	1	5499.196	-16.86018	-2.870939E-008	0.0087471	7
	27	41	1976.103	5347.217	-1948.458	1	5691.153	-20.0211	9.585444E-008	0.0085593	7
	28	42	1577.524	5411.407	-2305.518	1	5882.069	-23.07633	1.625823E-007	0.0085231	7
	29	43	1265.625	5541.849	-2820.526	1	6218.316	-26.97384	4.976378E-008	0.0087072	7
	30	45	998.264	5676.213	-3451.55	1	6643.237	-31.30264	-5.840494E-008	0.00888	7
	31	46	796.875	5825	-4176.423	1	7167.506	-35.63986	-4.034398E-008	0.0087916	7
	32	47	627.7902	6007.509	-5127.454	1	7898.161	-40.481	4.481158E-008	0.0086025	7
	33	49	505.5147	6202.12	-6189.944	1	8762.517	-44.94371	-3.952285E-009	0.0088036	7
	34	50	397.9953	6463.5	-7619.237	1	9991.48	-49.69162	-4.300832E-011	0.0087187	6
	35	51	315.5048	6764.063	-9354.615	1	11543.89	-54.13035	-1.983834E-010	0.0087208	6
	36	53	252.4038	7113.117	-11409.95	1	13445.57	-58.06002	1.859537E-009	0.0087192	6
	37	54	198.6229	7584.567	-14140.65	1	16046.3	-61.7924	6.123155E-010	0.0087194	6
	38	55	158.3615	8156.826	-17345.74	1	19167.9	-64.81477	7.732029E-010	0.0087194	6
	39	57	125.558	8900.47	-21372.16	1	23151.4	-67.39063	1.030968E-009	0.008723	6
	40	58	100.4464	9819.05	-26190.45	1	27970.59	-69.44849	6.307379E-010	0.008716	6
	41	59	79.00281	11282.82	-32374.41	1	34284.18	-70.78602	1.136941E-009	0.008714	6
	42	61	63.3446	12461.31	-39041.71	1	40982.18	-72.29799	9.414478E-010	0.008714	6
	43	62	49.86702	15688.94	-48768.97	1	51230.42	-72.16705	-1.203302E-011	0.0087127	6
	44	64	39.72458	18390.39	-59930.35	1	62688.54	-72.9407	9.703214E-010	0.008718	6
	45	65	31.6723	22633.06	-72600.38	1	76046.51	-72.68521	9.277888E-010	0.0087196	6
	46	67	24.93351	28344.17	-89369.68	1	93756.77	-72.40324	3.063781E-010	0.0087168	6
	47	68	19.86229	36172.23	-107927.6	1	113827.9	-71.47128	4.901945E-010	0.0087185	5
	48	69	15.83615	45573.57	-130830.4	1	138540.8	-70.79469	-1.122522E-009	0.0087229	5
	49	71	12.40079	58305.55	-155428.5	1	166004.7	-69.43753	1.29746E-009	0.0087205	5
	50	72	9.93114	77277.27	-184496.6	1	200026.9	-67.2734	5.121643E-011	0.0087224	5
	51	74	7.944915	97417.4	-217675.2	1	238479.9	-65.88979	-5.600713E-011	0.0087221	5
	52	75	6.317385	123862.1	-250996.8	1	279895	-63.73454	-1.005609E-010	0.0087367	5
	53	77	5.008013	155916.8	-289689.8	1	328983.7	-61.70999	2.024435E-010	0.0087266	5
	54	80	3.945707	192977.5	-332584.4	1	384516.2	-59.87614	2.123714E-010	0.0087257	5
	55	82	3.158693	232721.7	-375531.1	1	441795.2	-58.21294	1.433131E-010	0.0087398	5
	56	86	2.504006	278136	-425596.2	1	508420.8	-56.83455	-5.488231E-011	0.0087165	5
	57	89	1.998082	326351.3	-479561.2	1	580072.6	-55.7639	-1.72361E-010	0.0087063	5
	58	92	1.584686	380361.9	-539748.7	1	660305.9	-54.82757	-1.130669E-011	0.0087629	5
	59	95	1.266892	436643	-609770.8	1	749985	-54.39441	-1.194863E-010	0.008696	5
	60	100	0.999041	502415.6	-693435.6	1	856314.4	-54.0755	1.770086E-010	0.0087569	5
