EXPLAIN
TAG	EISPOT
TITLE	LABEL	Potentiostatic EIS	Test &Identifier
DATE	LABEL	9/22/2019	Date
TIME	LABEL	8:50:31	Time
NOTES	NOTES	1	&Notes...
	
PSTAT	PSTAT	REF600-11020	Potentiostat
VDC	POTEN	0.00000E+000	T	DC &Voltage (V)
FREQINIT	QUANT	1.00000E+006	Initial Fre&q. (Hz)
FREQFINAL	QUANT	1.00000E+000	Final Fre&q. (Hz)
PTSPERDEC	QUANT	1.00000E+001	Points/&decade
VAC	QUANT	2.50000E+001	AC &Voltage (mV rms)
AREA	QUANT	1.00000E-002	&Area (cm^2)
CONDIT	TWOPARAM	T	5.00000E+000	0.00000E+000	Conditionin&g	Time(s)	E(V)
DELAY	TWOPARAM	T	5.00000E+000	0.00000E+000	Init. De&lay	Time(s)	Stab.(mV/s)
SPEED	SELECTOR	1	&Optimize for:
ZGUESS	QUANT	1.00000E+004	E&stimated Z (ohms)
OCVCURVE	TABLE	19
	Pt	T	Vf	Vm	Ach	Over
	#	s	V vs. Ref.	V	V	bits
	0	0.258333	2.32554E-003	2.32554E-003	5.61899E-004	...........
	1	0.516667	2.32114E-003	2.09529E-003	5.61032E-004	...........
	2	0.775	2.29436E-003	1.88940E-003	5.59832E-004	...........
	3	1.03333	2.21970E-003	1.70702E-003	5.61966E-004	...........
	4	1.29167	2.08909E-003	1.54213E-003	5.60566E-004	...........
	5	1.55	1.92101E-003	1.39343E-003	5.58299E-004	...........
	6	1.80833	1.74227E-003	1.24321E-003	5.57199E-004	...........
	7	2.06667	1.57047E-003	1.11956E-003	5.60299E-004	...........
	8	2.325	1.41209E-003	1.00498E-003	5.61699E-004	...........
	9	2.58333	1.26844E-003	9.09846E-004	5.59566E-004	...........
	10	2.84167	1.13933E-003	8.03034E-004	5.57032E-004	...........
	11	3.1	1.02300E-003	7.11383E-004	5.58366E-004	...........
	12	3.35833	9.16348E-004	6.26770E-004	5.63332E-004	...........
	13	3.61667	8.16987E-004	5.47872E-004	5.56199E-004	...........
	14	3.875	7.24190E-004	4.71966E-004	5.60099E-004	...........
	15	4.13333	6.37785E-004	4.05861E-004	5.61899E-004	...........
	16	4.39167	5.57639E-004	3.49373E-004	5.62699E-004	...........
	17	4.65	4.83990E-004	2.93353E-004	5.65832E-004	...........
	18	4.90833	4.16909E-004	2.36179E-004	5.60099E-004	...........
EOC	QUANT	0.0004169	Open Circuit (V)
PSTATMODEL	IQUANT	4	Pstat Model
PSTATSECTION	LABEL	REF600-11020	Pstat Section
PSTATSERIALNO	LABEL	11020	Pstat Serial Number
CTRLMODE	IQUANT	1	Control Mode
IESTAB	IQUANT	0	I/E Stability
CASPEED	IQUANT	1	Control Amp Speed
CONVENTION	IQUANT	1	Current Convention
ICHRANGE	IQUANT	2	Ich Range
ICHRANGEMODE	TOGGLE	F	Ich Auto Range
ICHOFFSETENABLE	TOGGLE	T	Ich Offset Enable
ICHOFFSET	QUANT	0	Ich Offset (V)
ICHFILTER	IQUANT	3	Ich Filter
VCHRANGE	IQUANT	2	Vch Range
VCHRANGEMODE	TOGGLE	F	Vch Auto Range
VCHOFFSETENABLE	TOGGLE	T	Vch Offset Enable
VCHOFFSET	QUANT	0	Vch Offset (V)
VCHFILTER	IQUANT	3	Vch Filter
ACHRANGE	IQUANT	2	Ach Range
ACHOFFSETENABLE	TOGGLE	F	Ach Offset Enable
ACHOFFSET	QUANT	0	Ach Offset (V)
ACHFILTER	IQUANT	3	Ach Filter
IERANGELOWERLIMIT	IQUANT	1	I/E Range Lower Limit
IERANGEMODE	TOGGLE	F	I/E AutoRange
IERANGE	IQUANT	4	I/E Range
POSFEEDENABLE	TOGGLE	F	Positive Feedback IR Comp
POSFEEDRESISTANCE	QUANT	0	Positive Feedback Resistance (ohm)
ACHSELECT	IQUANT	0	Ach Select
CABLEID	IQUANT	14	Cable ID
DCCALDATE	LABEL	8/19/2019	DC Calibration Date
ACCALDATE	LABEL	8/19/2019	AC Calibration Date
THERMOSELECT	IQUANT	1	Thermo Select
FRAMEWORKVERSION	QUANT	6.33	Framework Version
INSTRUMENTVERSION	LABEL	3.50	Instrument Version
ZCURVE	TABLE
	Pt	Time	Freq	Zreal	Zimag	Zsig	Zmod	Zphz	Idc	Vdc	IERange
	#	s	Hz	ohm	ohm	V	ohm	°	A	V	#
	0	1	1000078	2065.415	-935.6442	1	2267.458	-24.37079	3.808932E-006	0.0026751	8
	1	3	794390.6	2212.893	-837.8644	1	2366.202	-20.73809	-6.495702E-006	0.0037373	8
	2	4	630984.4	2332.843	-736.8954	1	2446.461	-17.53022	-2.495299E-006	0.003185	8
	3	5	501234.4	2425.399	-643.579	1	2509.333	-14.86095	-2.330829E-006	0.0026219	8
	4	7	398109.4	2490.697	-561.9713	1	2553.309	-12.71463	-3.017979E-006	0.002857	8
	5	8	316265.6	2554.131	-483.3773	1	2599.469	-10.71666	-2.941207E-006	0.0027955	8
	6	9	251203.1	2593.818	-435.084	1	2630.055	-9.52208	-3.880926E-006	0.0030637	8
	7	11	199546.9	2638.332	-377.6376	1	2665.221	-8.145703	1.210751E-006	0.0018933	8
	8	12	158578.1	2665.38	-338.7368	1	2686.818	-7.242758	6.612983E-007	0.0019864	8
	9	13	125953.1	2705.899	-285.0379	1	2720.87	-6.01333	4.709251E-007	0.0010827	7
	10	15	100078.1	2726.562	-273.4389	1	2740.239	-5.726879	3.916547E-008	0.0019455	7
	11	16	79453.13	2751.614	-274.536	1	2765.275	-5.697701	1.193075E-007	0.0018889	7
	12	17	63140.62	2779.282	-282.1237	1	2793.565	-5.796216	-2.995807E-008	0.0020782	7
	13	19	50203.12	2808.731	-295.2578	1	2824.207	-6.000974	-1.178052E-008	0.0021117	7
	14	20	39890.62	2840.43	-313.6425	1	2857.694	-6.301118	-8.716033E-009	0.0021827	7
	15	21	31640.63	2874.123	-337.8729	1	2893.914	-6.704741	-4.219248E-008	0.002097	7
	16	23	25171.88	2909.317	-368.6386	1	2932.579	-7.221447	3.34444E-008	0.0020344	7
	17	24	20015.62	2949.107	-406.7281	1	2977.022	-7.85245	-4.120329E-008	0.0021201	7
	18	25	15890.62	2990.394	-452.7452	1	3024.472	-8.609192	1.214392E-007	0.0018857	7
	19	27	12609.37	3035.086	-509.2682	1	3077.516	-9.52514	6.432363E-008	0.0019502	7
	20	28	10078.13	3081.802	-574.3017	1	3134.857	-10.55613	-7.72995E-009	0.0021772	7
	21	30	8015.625	3130.846	-655.2607	1	3198.681	-11.82092	-3.599473E-008	0.0021351	7
	22	31	6328.125	3185.634	-757.8294	1	3274.533	-13.38135	-4.170121E-009	0.0020183	7
	23	32	5015.625	3243.068	-882.1602	1	3360.907	-15.21708	-4.767136E-008	0.0022127	7
	24	34	3984.375	3304.62	-1032.894	1	3462.28	-17.35718	-1.066473E-008	0.0021022	7
	25	35	3170.956	3373.568	-1214.917	1	3585.664	-19.80538	6.336097E-008	0.001946	7
	26	36	2527.573	3448.047	-1435.615	1	3734.972	-22.60469	1.178361E-008	0.0019954	7
	27	38	1976.103	3537.77	-1731.312	1	3938.687	-26.07617	-4.322074E-008	0.0021073	7
	28	39	1577.524	3628.632	-2064.8	1	4174.969	-29.64117	-6.266401E-008	0.0021622	7
	29	41	1265.625	3730.161	-2465.237	1	4471.185	-33.46044	-4.185804E-008	0.0020921	7
	30	42	998.264	3853.115	-2995.983	1	4880.82	-37.86679	-2.388274E-009	0.002071	7
	31	43	796.875	3987.663	-3617.161	1	5383.801	-42.21079	6.462832E-008	0.0019466	7
	32	45	627.7902	4152.504	-4429.411	1	6071.489	-46.84808	3.356107E-008	0.0020232	7
	33	46	505.5147	4330.155	-5345.243	1	6879.089	-50.98923	-6.17811E-008	0.0021587	7
	34	47	397.9953	4576.503	-6586.879	1	8020.683	-55.20878	3.91185E-009	0.0020792	7
	35	49	315.5048	4872.158	-8082.885	1	9437.741	-58.91949	5.168141E-009	0.0020785	7
	36	50	252.4038	5236.957	-9847.2	1	11153.16	-61.99497	4.343203E-010	0.0020162	6
	37	51	198.6229	5735.788	-12175.33	1	13458.75	-64.77492	8.701655E-010	0.0020151	6
	38	53	158.3615	6351.268	-14873.68	1	16172.97	-66.87685	5.651532E-010	0.0020182	6
	39	54	125.558	7167.101	-18250.54	1	19607.39	-68.55975	7.929236E-010	0.002021	6
	40	56	100.4464	8198.033	-22194.56	1	23660.22	-69.72722	5.76992E-011	0.0020172	6
	41	57	79.00281	9627.05	-27282.19	1	28930.92	-70.56362	9.332098E-011	0.0020142	6
	42	58	63.3446	11166.84	-32847.97	1	34694.2	-71.22426	5.788996E-010	0.0020126	6
	43	60	49.86702	13917.72	-40415.48	1	42744.75	-70.99802	4.325565E-010	0.0020166	6
	44	61	39.72458	16742.67	-48851.68	1	51641.11	-71.08215	6.704776E-010	0.0020218	6
	45	63	31.6723	20407.23	-58929.41	1	62362.89	-70.89905	6.669043E-010	0.0020182	6
	46	64	24.93351	25680.04	-71327.39	1	75809.38	-70.19957	5.205619E-010	0.0020213	6
	47	65	19.86229	32065.94	-85325.57	1	91151.95	-69.40343	4.84455E-010	0.002029	6
	48	67	15.83615	40302.75	-101805.9	1	109493.2	-68.40247	9.793538E-010	0.002023	5
	49	68	12.40079	50462.21	-122356.6	1	132354	-67.58781	4.18837E-010	0.0020213	5
	50	69	9.93114	62712.36	-143080.4	1	156220.5	-66.33208	7.178556E-010	0.0020231	5
	51	71	7.944915	78214.2	-167433.2	1	184800.8	-64.96099	6.059764E-010	0.0020263	5
	52	73	6.317385	96668.2	-195752.2	1	218320.1	-63.71849	4.962404E-010	0.0020279	5
	53	75	5.008013	119525.4	-228175.3	1	257585.5	-62.35303	3.478041E-010	0.0020323	5
	54	77	3.945707	147928.5	-265665.4	1	304073.9	-60.88994	2.513381E-011	0.0020256	5
	55	80	3.158693	178582.9	-304068.6	1	352632.3	-59.57381	1.212605E-010	0.0020437	5
	56	83	2.504006	216755.2	-349683.1	1	411413.6	-58.20681	-5.015143E-010	0.0020262	5
	57	86	1.998082	258793.2	-396378.9	1	473381.6	-56.85975	-3.859811E-011	0.001984	5
	58	89	1.584686	307312.1	-451629.2	1	546268.8	-55.76658	-3.282631E-010	0.0020115	5
	59	93	1.266892	361157.2	-507749.2	1	623092.1	-54.57611	-1.352467E-010	0.0019813	5
	60	97	0.999041	423393.9	-575333.6	1	714332.6	-53.65027	-3.102176E-010	0.0020532	5
