EXPLAIN
TAG	EISPOT
TITLE	LABEL	Potentiostatic EIS	Test &Identifier
DATE	LABEL	10/2/2019	Date
TIME	LABEL	8:41:45	Time
NOTES	NOTES	2	&Notes...
	
	
PSTAT	PSTAT	REF600-11020	Potentiostat
VDC	POTEN	0.00000E+000	T	DC &Voltage (V)
FREQINIT	QUANT	1.00000E+006	Initial Fre&q. (Hz)
FREQFINAL	QUANT	1.00000E+000	Final Fre&q. (Hz)
PTSPERDEC	QUANT	1.00000E+001	Points/&decade
VAC	QUANT	2.50000E+001	AC &Voltage (mV rms)
AREA	QUANT	1.00000E-002	&Area (cm^2)
CONDIT	TWOPARAM	T	5.00000E+000	0.00000E+000	Conditionin&g	Time(s)	E(V)
DELAY	TWOPARAM	T	5.00000E+000	0.00000E+000	Init. De&lay	Time(s)	Stab.(mV/s)
SPEED	SELECTOR	1	&Optimize for:
ZGUESS	QUANT	1.00000E+004	E&stimated Z (ohms)
OCVCURVE	TABLE	19
	Pt	T	Vf	Vm	Ach	Over
	#	s	V vs. Ref.	V	V	bits
	0	0.258333	-7.51396E-005	-7.51396E-005	5.75932E-004	...........
	1	0.516667	-8.01187E-005	-3.35779E-004	5.75966E-004	...........
	2	0.775	-1.08974E-004	-4.92826E-004	5.78066E-004	...........
	3	1.03333	-1.84678E-004	-6.32514E-004	5.74699E-004	...........
	4	1.29167	-3.07110E-004	-7.12767E-004	5.77366E-004	...........
	5	1.55	-4.56987E-004	-1.19539E-003	5.72032E-004	...........
	6	1.80833	-6.40289E-004	-1.82550E-003	5.74232E-004	...........
	7	2.06667	-8.72612E-004	-7.44719E-004	5.75899E-004	...........
	8	2.325	-1.09090E-003	-1.22075E-003	5.73332E-004	...........
	9	2.58333	-1.20187E-003	-1.39944E-003	5.72232E-004	...........
	10	2.84167	-1.22815E-003	-1.49235E-003	5.76699E-004	...........
	11	3.1	-1.26305E-003	-1.44818E-003	5.78499E-004	...........
	12	3.35833	-1.33559E-003	-1.61482E-003	5.73232E-004	...........
	13	3.61667	-1.42005E-003	-1.63480E-003	5.76699E-004	...........
	14	3.875	-1.50405E-003	-1.95195E-003	5.74832E-004	...........
	15	4.13333	-1.59124E-003	-1.51725E-003	5.80365E-004	...........
	16	4.39167	-1.65488E-003	-1.16774E-003	5.77666E-004	...........
	17	4.65	-1.60703E-003	2.91036E-004	5.79699E-004	...........
	18	4.90833	-1.40117E-003	-2.73853E-003	5.81199E-004	...........
EOC	QUANT	-0.0014012	Open Circuit (V)
PSTATMODEL	IQUANT	4	Pstat Model
PSTATSECTION	LABEL	REF600-11020	Pstat Section
PSTATSERIALNO	LABEL	11020	Pstat Serial Number
CTRLMODE	IQUANT	1	Control Mode
IESTAB	IQUANT	0	I/E Stability
CASPEED	IQUANT	1	Control Amp Speed
CONVENTION	IQUANT	1	Current Convention
ICHRANGE	IQUANT	2	Ich Range
ICHRANGEMODE	TOGGLE	F	Ich Auto Range
ICHOFFSETENABLE	TOGGLE	T	Ich Offset Enable
ICHOFFSET	QUANT	0	Ich Offset (V)
ICHFILTER	IQUANT	3	Ich Filter
VCHRANGE	IQUANT	2	Vch Range
VCHRANGEMODE	TOGGLE	F	Vch Auto Range
VCHOFFSETENABLE	TOGGLE	T	Vch Offset Enable
VCHOFFSET	QUANT	0	Vch Offset (V)
VCHFILTER	IQUANT	3	Vch Filter
ACHRANGE	IQUANT	2	Ach Range
ACHOFFSETENABLE	TOGGLE	F	Ach Offset Enable
ACHOFFSET	QUANT	0	Ach Offset (V)
ACHFILTER	IQUANT	3	Ach Filter
IERANGELOWERLIMIT	IQUANT	1	I/E Range Lower Limit
IERANGEMODE	TOGGLE	F	I/E AutoRange
IERANGE	IQUANT	5	I/E Range
POSFEEDENABLE	TOGGLE	F	Positive Feedback IR Comp
POSFEEDRESISTANCE	QUANT	0	Positive Feedback Resistance (ohm)
ACHSELECT	IQUANT	0	Ach Select
CABLEID	IQUANT	14	Cable ID
DCCALDATE	LABEL	8/19/2019	DC Calibration Date
ACCALDATE	LABEL	8/19/2019	AC Calibration Date
THERMOSELECT	IQUANT	1	Thermo Select
FRAMEWORKVERSION	QUANT	6.33	Framework Version
INSTRUMENTVERSION	LABEL	3.50	Instrument Version
ZCURVE	TABLE
	Pt	Time	Freq	Zreal	Zimag	Zsig	Zmod	Zphz	Idc	Vdc	IERange
	#	s	Hz	ohm	ohm	V	ohm	°	A	V	#
	0	2	1000078	759.8441	-8799.816	1	8832.561	-85.06488	2.383681E-006	-7.334571E-005	8
	1	3	794390.6	892.7807	-10893.88	1	10930.4	-85.31494	9.501007E-007	0.0007467	8
	2	5	630984.4	1128.797	-13606.5	1	13653.24	-85.25759	-8.76158E-007	0.0003001	8
	3	7	501234.4	1093.489	-17011.58	1	17046.69	-86.32214	-2.245509E-006	0.0006627	8
	4	8	398109.4	1349.052	-21383.55	1	21426.06	-86.39009	-3.811515E-007	0.0001211	8
	5	10	316265.6	1802.014	-26255.33	1	26317.1	-86.07371	-1.043781E-006	0.000324	8
	6	12	251203.1	2293.363	-32944.05	1	33023.77	-86.01785	-1.095098E-006	0.0003115	8
	7	14	199546.9	3096.23	-41289.42	1	41405.35	-85.7115	1.617927E-006	-0.0004539	8
	8	15	158578.1	4927.866	-52618.41	1	52848.66	-84.64969	2.967972E-006	-0.0005593	8
	9	17	125953.1	7054.854	-66874.4	1	67245.49	-83.97791	7.587441E-007	-0.001699	7
	10	18	100078.1	6341.276	-80915.89	1	81163.99	-85.51896	5.702199E-008	-4.760316E-005	7
	11	20	79453.13	7686.109	-100853.3	1	101145.8	-85.64187	1.063925E-007	-0.0002085	7
	12	22	63140.62	10015.19	-125645.7	1	126044.3	-85.4426	6.108496E-010	5.470767E-005	7
	13	23	50203.12	13236.3	-156470	1	157028.8	-85.16467	-9.7249E-008	0.0001533	7
	14	25	39890.62	17707.19	-195230.6	1	196032	-84.81752	1.963721E-008	-9.330583E-005	7
	15	26	31640.63	22240.32	-242149.4	1	243168.6	-84.75237	1.592914E-007	-0.000237	7
	16	28	25171.88	30827.35	-302047.3	1	303616.3	-84.17249	-7.419748E-008	0.000218	7
	17	30	20015.62	39015.68	-376414.8	1	378431.3	-84.08238	1.068171E-007	-0.0002194	7
	18	31	15890.62	53174.28	-464282.6	1	467317.7	-83.46638	1.597636E-007	-0.0002399	7
	19	33	12609.37	91766.45	-584491.8	1	591651.7	-81.07728	-4.299845E-010	8.08371E-005	6
	20	34	10078.13	115899.8	-724845.3	1	734052.8	-80.91554	-9.25094E-009	6.470446E-005	6
	21	36	8015.625	155350.4	-896785.8	1	910142	-80.17217	1.556965E-008	-0.0001256	6
	22	38	6328.125	217203.7	-1100857	1	1122080	-78.83866	6.438235E-009	-2.732521E-005	6
	23	39	5015.625	302164.8	-1368111	1	1401082	-77.54543	8.852988E-009	-0.0002767	6
	24	41	3984.375	456480.5	-1670916	1	1732147	-74.72011	5.568054E-011	7.895804E-005	6
	25	43	3170.956	645201.8	-2002565	1	2103937	-72.1417	5.837315E-009	4.586888E-005	6
	26	45	2527.573	844779.5	-2377455	1	2523083	-70.43839	2.371582E-008	-0.0004922	6
	27	46	1976.103	1370043	-2871908	1	3181961	-64.49654	-8.696222E-009	6.495441E-005	6
	28	48	1577.524	1889740	-3234814	1	3746350	-59.70704	6.12954E-009	-3.438384E-005	6
	29	50	1265.625	2470971	-3681255	1	4433660	-56.12928	4.686584E-010	-0.0002954	5
	30	51	998.264	3312969	-4079826	1	5255544	-50.92212	5.968059E-010	-6.483982E-005	5
	31	53	796.875	3987010	-4285287	1	5853199	-47.06504	1.168582E-009	-0.0002681	5
	32	54	627.7902	4941021	-4313266	1	6558807	-41.11934	-7.042478E-010	4.552309E-005	5
	33	55	505.5147	6052265	-3962562	1	7234073	-33.21373	4.458062E-010	-0.0002262	5
	34	57	397.9953	6494702	-4127399	1	7695231	-32.43606	-6.846121E-013	-4.125399E-005	5
	35	58	315.5048	7102443	-3398950	1	7873852	-25.57394	3.841435E-010	-4.442419E-005	5
	36	60	252.4038	7752276	-3082564	1	8342661	-21.68442	6.318258E-010	-4.792597E-005	5
	37	61	198.6229	8729812	-2677723	1	9131255	-17.05252	3.455944E-010	-4.813109E-005	5
	38	63	158.3615	8906394	-1998715	1	9127909	-12.64839	1.306238E-010	-4.572324E-005	5
	39	65	125.558	9296937	-1725014	1	9455618	-10.51149	3.250412E-010	-5.530149E-005	4
	40	66	100.4464	9498518	-1664715	1	9.643294E+006	-9.94073	2.914856E-010	-5.323496E-005	4
	41	68	79.00281	8071868	-1503515	1	8210701	-10.55134	7.601413E-012	-4.959843E-005	4
	42	69	63.3446	4735592	1533837	1	4977800	17.9469	4.347173E-010	-5.46036E-005	5
	43	71	49.86702	8737625	-461522.7	1	8749805	-3.023562	1.691643E-010	-5.916527E-005	4
	44	73	39.72458	1.072799E+007	-731871.4	1	1.075293E+007	-3.902713	1.998237E-010	-5.078654E-005	4
	45	74	31.6723	1.154878E+007	-81950.21	1	1.154907E+007	-0.4065643	4.339108E-010	-5.143787E-005	4
	46	76	24.93351	9.879144E+006	-922894.6	1	9.922158E+006	-5.336995	2.236355E-010	-5.448375E-005	4
	47	78	19.86229	9.601818E+006	197080.8	1	9.60384E+006	1.175852	8.522946E-011	-4.362829E-005	4
	48	79	15.83615	8947601	3890669	1	9.756888E+006	23.50076	-6.207118E-010	-4.624558E-005	4
	49	81	12.40079	8393664	-681228	1	8421263	-4.639944	5.269143E-010	-5.703308E-005	4
	50	83	9.93114	1.029625E+007	98479.2	1	1.029672E+007	0.5479924	3.693074E-010	-4.8053E-005	5
	51	84	7.944915	9.603125E+006	-1192509	1	9.676884E+006	-7.078711	3.440099E-010	-4.318715E-005	4
	52	86	6.317385	1.013904E+007	-786924.6	1	1.016953E+007	-4.43802	2.077109E-010	-3.367043E-005	4
	53	89	5.008013	1.016914E+007	-933878.3	1	1.021193E+007	-5.247014	2.138529E-010	-4.52626E-005	4
	54	92	3.945707	9.934872E+006	-841140.2	1	9.970416E+006	-4.83943	9.045418E-010	-4.865129E-005	4
	55	95	3.158693	1.037309E+007	-1045111	1	1.04256E+007	-5.753261	1.7654E-010	-4.163167E-005	4
	56	99	2.504006	1.46414E+007	-1594133	1	1.472793E+007	-6.213799	1.247755E-010	-5.097706E-005	3
	57	103	1.998082	1.503404E+007	-1957218	1	1.51609E+007	-7.41738	5.300661E-012	-7.238601E-005	3
	58	107	1.584686	1.508225E+007	-1993045	1	1.521337E+007	-7.527739	1.588862E-010	-9.478314E-005	3
	59	111	1.266892	1.536255E+007	-2259895	1	1.552788E+007	-8.368432	1.622746E-010	-0.0001103	3
	60	115	0.999041	1.569788E+007	-2422677	1	1.588372E+007	-8.773327	1.425104E-010	-2.483009E-005	3
