EXPLAIN
TAG	EISPOT
TITLE	LABEL	Potentiostatic IDE	Test &Identifier
DATE	LABEL	9/10/2019	Date
TIME	LABEL	10:11:28	Time
NOTES	NOTES	1	&Notes...
	
PSTAT	PSTAT	REF600-11020	Potentiostat
VDC	POTEN	0.00000E+000	T	DC &Voltage (V)
FREQINIT	QUANT	1.00000E+006	Initial Fre&q. (Hz)
FREQFINAL	QUANT	1.00000E+000	Final Fre&q. (Hz)
PTSPERDEC	QUANT	1.00000E+001	Points/&decade
VAC	QUANT	2.50000E+001	AC &Voltage (mV rms)
AREA	QUANT	1.00000E-002	&Area (cm^2)
CONDIT	TWOPARAM	T	5.00000E+000	0.00000E+000	Conditionin&g	Time(s)	E(V)
DELAY	TWOPARAM	T	5.00000E+000	0.00000E+000	Init. De&lay	Time(s)	Stab.(mV/s)
SPEED	SELECTOR	1	&Optimize for:
ZGUESS	QUANT	1.00000E+007	E&stimated Z (ohms)
OCVCURVE	TABLE	19
	Pt	T	Vf	Vm	Ach	Over
	#	s	V vs. Ref.	V	V	bits
	0	0.258333	9.38471E-003	9.38471E-003	5.35899E-004	...........
	1	0.516667	9.38580E-003	9.44174E-003	5.41299E-004	...........
	2	0.775	9.39284E-003	9.51413E-003	5.41899E-004	...........
	3	1.03333	9.41420E-003	9.59819E-003	5.41733E-004	...........
	4	1.29167	9.45601E-003	9.68534E-003	5.39566E-004	...........
	5	1.55	9.51780E-003	9.77702E-003	5.41833E-004	...........
	6	1.80833	9.59435E-003	9.86854E-003	5.42366E-004	...........
	7	2.06667	9.67978E-003	9.96368E-003	5.35499E-004	...........
	8	2.325	9.76997E-003	1.00614E-002	5.35633E-004	...........
	9	2.58333	9.86277E-003	1.01523E-002	5.38899E-004	...........
	10	2.84167	9.95682E-003	1.02411E-002	5.35033E-004	...........
	11	3.1	1.00506E-002	1.03285E-002	5.38466E-004	...........
	12	3.35833	1.01428E-002	1.04188E-002	5.38866E-004	...........
	13	3.61667	1.02333E-002	1.05059E-002	5.40333E-004	...........
	14	3.875	1.03224E-002	1.05910E-002	5.38933E-004	...........
	15	4.13333	1.04105E-002	1.06695E-002	5.34366E-004	...........
	16	4.39167	1.04969E-002	1.07501E-002	5.36899E-004	...........
	17	4.65	1.05810E-002	1.08261E-002	5.43799E-004	...........
	18	4.90833	1.06627E-002	1.09054E-002	5.40966E-004	...........
EOC	QUANT	0.0106627	Open Circuit (V)
PSTATMODEL	IQUANT	4	Pstat Model
PSTATSECTION	LABEL	REF600-11020	Pstat Section
PSTATSERIALNO	LABEL	11020	Pstat Serial Number
CTRLMODE	IQUANT	1	Control Mode
IESTAB	IQUANT	0	I/E Stability
CASPEED	IQUANT	1	Control Amp Speed
CONVENTION	IQUANT	1	Current Convention
ICHRANGE	IQUANT	2	Ich Range
ICHRANGEMODE	TOGGLE	F	Ich Auto Range
ICHOFFSETENABLE	TOGGLE	T	Ich Offset Enable
ICHOFFSET	QUANT	0	Ich Offset (V)
ICHFILTER	IQUANT	3	Ich Filter
VCHRANGE	IQUANT	2	Vch Range
VCHRANGEMODE	TOGGLE	F	Vch Auto Range
VCHOFFSETENABLE	TOGGLE	T	Vch Offset Enable
VCHOFFSET	QUANT	0	Vch Offset (V)
VCHFILTER	IQUANT	3	Vch Filter
ACHRANGE	IQUANT	2	Ach Range
ACHOFFSETENABLE	TOGGLE	F	Ach Offset Enable
ACHOFFSET	QUANT	0	Ach Offset (V)
ACHFILTER	IQUANT	3	Ach Filter
IERANGELOWERLIMIT	IQUANT	1	I/E Range Lower Limit
IERANGEMODE	TOGGLE	F	I/E AutoRange
IERANGE	IQUANT	3	I/E Range
POSFEEDENABLE	TOGGLE	F	Positive Feedback IR Comp
POSFEEDRESISTANCE	QUANT	0	Positive Feedback Resistance (ohm)
ACHSELECT	IQUANT	0	Ach Select
CABLEID	IQUANT	14	Cable ID
DCCALDATE	LABEL	8/19/2019	DC Calibration Date
ACCALDATE	LABEL	8/19/2019	AC Calibration Date
THERMOSELECT	IQUANT	1	Thermo Select
FRAMEWORKVERSION	QUANT	6.33	Framework Version
INSTRUMENTVERSION	LABEL	3.50	Instrument Version
ZCURVE	TABLE
	Pt	Time	Freq	Zreal	Zimag	Zsig	Zmod	Zphz	Idc	Vdc	IERange
	#	s	Hz	ohm	ohm	V	ohm	°	A	V	#
	0	2	1000078	2653.266	-1814.246	1	3214.235	-34.36347	-1.296775E-007	0.0133524	8
	1	4	794390.6	3002.456	-1752.926	1	3476.707	-30.27769	9.496258E-007	0.0126253	8
	2	5	630984.4	3333.324	-1640.743	1	3715.25	-26.20753	-7.693852E-007	0.0127018	8
	3	6	501234.4	3608.651	-1488.594	1	3903.623	-22.4165	-5.470314E-007	0.0127555	8
	4	8	398109.4	3822.106	-1316.293	1	4042.416	-19.00317	2.536632E-007	0.0124663	8
	5	9	316265.6	4003.973	-1152.844	1	4166.636	-16.06243	1.212656E-006	0.0121092	8
	6	10	251203.1	4149.404	-1011.917	1	4271.01	-13.70524	-7.394521E-007	0.0125175	8
	7	12	199546.9	4264.036	-885.5026	1	4355.01	-11.73173	-1.900835E-006	0.0127994	8
	8	13	158578.1	4346.568	-759.8746	1	4412.489	-9.91634	6.859403E-007	0.0122995	8
	9	14	125953.1	4434.975	-635.1617	1	4480.227	-8.15028	1.042023E-006	0.0100574	7
	10	16	100078.1	4475.165	-565.4197	1	4510.742	-7.200944	-2.344145E-008	0.0123985	7
	11	17	79453.13	4522.746	-522.4717	1	4552.824	-6.58965	-3.758248E-008	0.0123998	7
	12	18	63140.62	4564.129	-489.5576	1	4590.309	-6.122253	3.476954E-008	0.0123021	7
	13	19	50203.12	4604.601	-468.6554	1	4628.389	-5.811541	-4.324831E-009	0.0123767	7
	14	21	39890.62	4647.771	-456.5373	1	4670.139	-5.610005	-1.748444E-008	0.0123292	7
	15	22	31640.63	4681.38	-462.2302	1	4704.145	-5.638995	-4.44256E-008	0.0124848	7
	16	23	25171.88	4719.203	-477.6717	1	4743.316	-5.779721	-1.880805E-008	0.0123286	7
	17	25	20015.62	4759.069	-502.2323	1	4785.496	-6.02422	6.340629E-008	0.012237	7
	18	26	15890.62	4801.374	-538.9625	1	4831.529	-6.404739	3.545715E-008	0.0123031	7
	19	28	12609.37	4845.936	-596.4388	1	4882.503	-7.016687	6.576288E-008	0.0122044	7
	20	29	10078.13	4891.025	-664.2558	1	4935.925	-7.734087	9.097253E-008	0.0122249	7
	21	30	8015.625	4943.143	-749.1676	1	4999.591	-8.61799	-2.566523E-008	0.0123487	7
	22	32	6328.125	5003.037	-860.3818	1	5076.479	-9.75782	-2.959546E-008	0.0123582	7
	23	33	5015.625	5065.291	-996.183	1	5162.32	-11.12628	9.090846E-008	0.0122222	7
	24	34	3984.375	5134.019	-1160.401	1	5263.523	-12.7361	6.481275E-008	0.012211	7
	25	35	3170.956	5212.485	-1361.442	1	5387.349	-14.63799	1.197115E-008	0.0123025	7
	26	37	2527.573	5297.926	-1602.325	1	5534.931	-16.82762	-2.808587E-008	0.0123593	7
	27	38	1976.103	5402.844	-1926.872	1	5736.162	-19.62828	-2.376184E-008	0.0123882	7
	28	40	1577.524	5514.828	-2286.331	1	5969.978	-22.51786	-4.268162E-008	0.0124103	7
	29	41	1265.625	5633.229	-2715.095	1	6253.399	-25.73307	-3.677834E-008	0.0124708	7
	30	42	998.264	5781.986	-3271.501	1	6643.349	-29.50159	9.847953E-009	0.0122887	7
	31	44	796.875	5947.926	-3931.271	1	7129.707	-33.46264	-1.188181E-008	0.0123609	7
	32	45	627.7902	6149.624	-4777.799	1	7787.505	-37.84454	1.178069E-008	0.0122712	7
	33	46	505.5147	6353.917	-5713.939	1	8545.254	-41.96436	7.172985E-009	0.012291	7
	34	48	397.9953	6618.224	-6993.197	1	9628.38	-46.57801	6.695378E-009	0.0123603	7
	35	49	315.5048	6920.707	-8523.497	1	10979.35	-50.92491	9.367558E-010	0.0123043	6
	36	50	252.4038	7258.54	-10331.23	1	12626.19	-54.90879	1.373121E-009	0.0122994	6
	37	52	198.6229	7690.76	-12729.55	1	14872.43	-58.86105	9.773976E-010	0.0123009	6
	38	53	158.3615	8182.299	-15530.9	1	17554.45	-62.21795	1.156068E-009	0.012295	6
	39	54	125.558	8796.665	-19076.6	1	21007.1	-65.24448	9.74021E-010	0.0123011	6
	40	56	100.4464	9518.28	-23282.95	1	25153.4	-67.76482	6.943811E-010	0.0122964	6
	41	57	79.00281	10545.52	-28885.68	1	30750.45	-69.94398	6.199481E-010	0.0122984	6
	42	58	63.3446	11579.01	-35070.32	1	36932.38	-71.72856	5.129571E-010	0.0122936	6
	43	60	49.86702	13468.6	-43635.63	1	45666.96	-72.84661	8.544846E-010	0.0122956	6
	44	61	39.72458	15377.33	-53553	1	55717.02	-73.97899	1.136745E-009	0.0122974	6
	45	63	31.6723	18196.58	-65525.36	1	68005.06	-74.47987	1.058024E-009	0.0122984	6
	46	64	24.93351	21974.36	-81120.71	1	84044.29	-74.84319	8.566355E-010	0.012297	6
	47	65	19.86229	26853.13	-99056.5	1	102631.8	-74.83229	1.062926E-009	0.0123015	6
	48	67	15.83615	33434.28	-120702.1	1	125247.2	-74.51736	6.426987E-010	0.0123071	5
	49	68	12.40079	42621.2	-148912.7	1	154892.1	-74.02803	4.730281E-010	0.0123044	5
	50	69	9.93114	53834.29	-179353.5	1	187258.7	-73.29248	2.443617E-010	0.0123089	5
	51	71	7.944915	68489.45	-214813.9	1	225468	-72.31608	1.803182E-011	0.0123036	5
	52	73	6.317385	88163.96	-258249.2	1	272883.8	-71.15056	4.454686E-010	0.0122937	5
	53	75	5.008013	113756.3	-309473.6	1	329718.7	-69.81758	2.473976E-011	0.012298	5
	54	77	3.945707	147146.1	-369352.2	1	397583.9	-68.27818	4.23164E-010	0.0123106	5
	55	80	3.158693	186874	-433511	1	472073.8	-66.68053	8.589349E-011	0.0123121	5
	56	83	2.504006	237442.7	-507822.1	1	560591	-64.94059	4.06284E-010	0.0123032	5
	57	86	1.998082	295478.9	-588221.7	1	658264.8	-63.32845	-5.975494E-011	0.0123272	5
	58	89	1.584686	368368.6	-679250.9	1	772707.7	-61.52832	2.593648E-010	0.0123515	5
	59	92	1.266892	449707.9	-774232.3	1	895361.8	-59.85011	-3.656341E-011	0.0123368	5
	60	97	0.999041	547769.7	-884984.2	1	1040792	-58.24416	2.711696E-010	0.0123049	4
