EXPLAIN
TAG	EISPOT
TITLE	LABEL	Potentiostatic IDE	Test &Identifier
DATE	LABEL	9/16/2019	Date
TIME	LABEL	10:28:51	Time
NOTES	NOTES	1	&Notes...
	
PSTAT	PSTAT	REF600-11020	Potentiostat
VDC	POTEN	0.00000E+000	T	DC &Voltage (V)
FREQINIT	QUANT	1.00000E+006	Initial Fre&q. (Hz)
FREQFINAL	QUANT	1.00000E+000	Final Fre&q. (Hz)
PTSPERDEC	QUANT	1.00000E+001	Points/&decade
VAC	QUANT	2.50000E+001	AC &Voltage (mV rms)
AREA	QUANT	1.00000E-002	&Area (cm^2)
CONDIT	TWOPARAM	T	5.00000E+000	0.00000E+000	Conditionin&g	Time(s)	E(V)
DELAY	TWOPARAM	T	5.00000E+000	0.00000E+000	Init. De&lay	Time(s)	Stab.(mV/s)
SPEED	SELECTOR	1	&Optimize for:
ZGUESS	QUANT	1.00000E+007	E&stimated Z (ohms)
OCVCURVE	TABLE	19
	Pt	T	Vf	Vm	Ach	Over
	#	s	V vs. Ref.	V	V	bits
	0	0.258333	-1.47690E-003	-1.47690E-003	5.57099E-004	...........
	1	0.516667	-1.48996E-003	-2.16050E-003	5.59699E-004	...........
	2	0.775	-1.56983E-003	-2.79148E-003	5.59932E-004	...........
	3	1.03333	-1.79437E-003	-3.38053E-003	5.62932E-004	...........
	4	1.29167	-2.19244E-003	-3.93517E-003	5.58599E-004	...........
	5	1.55	-2.71544E-003	-4.45809E-003	5.51033E-004	...........
	6	1.80833	-3.28717E-003	-4.95635E-003	5.56699E-004	...........
	7	2.06667	-3.85359E-003	-5.43255E-003	5.59432E-004	...........
	8	2.325	-4.39223E-003	-5.89088E-003	5.64666E-004	...........
	9	2.58333	-4.90041E-003	-6.33267E-003	5.59432E-004	...........
	10	2.84167	-5.38258E-003	-6.75653E-003	5.58066E-004	...........
	11	3.1	-5.84355E-003	-7.16785E-003	5.55433E-004	...........
	12	3.35833	-6.28647E-003	-7.56197E-003	5.58432E-004	...........
	13	3.61667	-6.71317E-003	-7.94564E-003	5.56832E-004	...........
	14	3.875	-7.12482E-003	-8.31762E-003	5.58932E-004	...........
	15	4.13333	-7.52254E-003	-8.67872E-003	5.55999E-004	...........
	16	4.39167	-7.90748E-003	-9.02765E-003	5.51832E-004	...........
	17	4.65	-8.28059E-003	-9.37102E-003	5.51699E-004	...........
	18	4.90833	-8.64270E-003	-9.70197E-003	5.51266E-004	...........
EOC	QUANT	-0.0086427	Open Circuit (V)
PSTATMODEL	IQUANT	4	Pstat Model
PSTATSECTION	LABEL	REF600-11020	Pstat Section
PSTATSERIALNO	LABEL	11020	Pstat Serial Number
CTRLMODE	IQUANT	1	Control Mode
IESTAB	IQUANT	0	I/E Stability
CASPEED	IQUANT	1	Control Amp Speed
CONVENTION	IQUANT	1	Current Convention
ICHRANGE	IQUANT	2	Ich Range
ICHRANGEMODE	TOGGLE	F	Ich Auto Range
ICHOFFSETENABLE	TOGGLE	T	Ich Offset Enable
ICHOFFSET	QUANT	0	Ich Offset (V)
ICHFILTER	IQUANT	3	Ich Filter
VCHRANGE	IQUANT	2	Vch Range
VCHRANGEMODE	TOGGLE	F	Vch Auto Range
VCHOFFSETENABLE	TOGGLE	T	Vch Offset Enable
VCHOFFSET	QUANT	0	Vch Offset (V)
VCHFILTER	IQUANT	3	Vch Filter
ACHRANGE	IQUANT	2	Ach Range
ACHOFFSETENABLE	TOGGLE	F	Ach Offset Enable
ACHOFFSET	QUANT	0	Ach Offset (V)
ACHFILTER	IQUANT	3	Ach Filter
IERANGELOWERLIMIT	IQUANT	1	I/E Range Lower Limit
IERANGEMODE	TOGGLE	F	I/E AutoRange
IERANGE	IQUANT	3	I/E Range
POSFEEDENABLE	TOGGLE	F	Positive Feedback IR Comp
POSFEEDRESISTANCE	QUANT	0	Positive Feedback Resistance (ohm)
ACHSELECT	IQUANT	0	Ach Select
CABLEID	IQUANT	14	Cable ID
DCCALDATE	LABEL	8/19/2019	DC Calibration Date
ACCALDATE	LABEL	8/19/2019	AC Calibration Date
THERMOSELECT	IQUANT	1	Thermo Select
FRAMEWORKVERSION	QUANT	6.33	Framework Version
INSTRUMENTVERSION	LABEL	3.50	Instrument Version
ZCURVE	TABLE
	Pt	Time	Freq	Zreal	Zimag	Zsig	Zmod	Zphz	Idc	Vdc	IERange
	#	s	Hz	ohm	ohm	V	ohm	°	A	V	#
	0	2	1000078	2623.657	-1689.668	1	3120.666	-32.78204	9.200904E-006	-0.0075978	8
	1	4	794390.6	2935.762	-1594.18	1	3340.675	-28.50289	-9.833841E-006	-0.0052722	8
	2	5	630984.4	3239.25	-1460.732	1	3553.376	-24.27287	4.623551E-006	-0.0074374	8
	3	7	501234.4	3463.443	-1287.921	1	3695.156	-20.39823	-3.062963E-006	-0.0065927	8
	4	8	398109.4	3633.269	-1115.472	1	3800.647	-17.06733	1.799752E-007	-0.0068081	8
	5	10	316265.6	3781.957	-980.091	1	3906.889	-14.52854	1.864143E-006	-0.0076924	8
	6	11	251203.1	3882.496	-837.7867	1	3971.859	-12.1769	1.962455E-006	-0.0075592	8
	7	12	199546.9	3966.041	-716.2274	1	4030.193	-10.23672	-8.030761E-007	-0.0069208	8
	8	14	158578.1	4040.112	-646.2811	1	4091.477	-9.088385	-9.12463E-007	-0.0069614	8
	9	15	125953.1	4108.986	-502.6733	1	4139.619	-6.97463	8.905779E-007	-0.0084131	7
	10	17	100078.1	4132.364	-451.4894	1	4156.955	-6.23523	-2.698727E-008	-0.0071986	7
	11	18	79453.13	4165.641	-424.2349	1	4187.188	-5.815036	5.257515E-008	-0.0073461	7
	12	19	63140.62	4197.94	-408.3392	1	4217.753	-5.555758	4.961067E-008	-0.0073585	7
	13	21	50203.12	4229.671	-402.8673	1	4248.814	-5.440889	-9.38331E-009	-0.0071598	7
	14	22	39890.62	4266.535	-410.1557	1	4286.204	-5.491153	-1.97066E-008	-0.0070388	7
	15	23	31640.63	4296.43	-421.8643	1	4317.092	-5.607867	8.763147E-008	-0.0073446	7
	16	25	25171.88	4332.211	-445.8575	1	4355.094	-5.876012	-4.839642E-008	-0.0070421	7
	17	26	20015.62	4372.508	-483.1992	1	4399.126	-6.306081	-7.215124E-008	-0.007089	7
	18	27	15890.62	4413.082	-533.364	1	4445.196	-6.891329	-5.710235E-008	-0.0070833	7
	19	29	12609.37	4461.672	-588.9755	1	4500.379	-7.520009	8.508425E-008	-0.0073435	7
	20	30	10078.13	4512.534	-659.608	1	4560.487	-8.316168	5.322991E-008	-0.0073561	7
	21	31	8015.625	4566.431	-751.3622	1	4627.833	-9.343747	7.984134E-008	-0.0072234	7
	22	33	6328.125	4628.63	-863.2163	1	4708.435	-10.56402	5.154684E-008	-0.007359	7
	23	34	5015.625	4696.143	-997.224	1	4800.855	-11.98865	-2.383061E-008	-0.007037	7
	24	35	3984.375	4768.718	-1160.111	1	4907.803	-13.67304	-1.514817E-008	-0.0071294	7
	25	37	3170.956	4850.26	-1358.033	1	5036.792	-15.64181	8.591559E-008	-0.0073341	7
	26	38	2527.573	4939.838	-1595.315	1	5191.053	-17.8978	-9.162965E-009	-0.0071685	7
	27	39	1976.103	5050.497	-1912.136	1	5400.351	-20.73685	-2.539331E-008	-0.0070403	7
	28	41	1577.524	5166.249	-2262.143	1	5639.806	-23.64715	-1.415742E-008	-0.0071338	7
	29	42	1265.625	5292.966	-2680.042	1	5932.8	-26.85494	-1.424022E-008	-0.0071392	7
	30	43	998.264	5452.524	-3227.357	1	6336.076	-30.62135	-4.104319E-008	-0.007168	7
	31	45	796.875	5626.117	-3861.346	1	6823.722	-34.46279	8.305489E-008	-0.0073442	7
	32	46	627.7902	5837.408	-4677.34	1	7480.163	-38.70415	1.528025E-007	-0.0074163	7
	33	47	505.5147	6060.008	-5584.682	1	8240.896	-42.66253	1.54353E-007	-0.0074099	7
	34	49	397.9953	6341.396	-6802.667	1	9299.978	-47.00989	5.370022E-009	-0.0071785	7
	35	50	315.5048	6664.246	-8262.752	1	10615.33	-51.11241	9.203335E-010	-0.0072439	6
	36	51	252.4038	7020.837	-9984.34	1	12205.7	-54.88569	7.650375E-010	-0.0072493	6
	37	53	198.6229	7476.425	-12264.57	1	14363.73	-58.63371	1.337213E-009	-0.007245	6
	38	54	158.3615	7999.2	-14928.46	1	16936.53	-61.81601	8.687585E-010	-0.0072458	6
	39	55	125.558	8652.859	-18295.9	1	20238.87	-64.68867	1.17804E-009	-0.0072475	6
	40	57	100.4464	9451.732	-22263.07	1	24186.35	-66.99648	2.264456E-009	-0.007248	6
	41	58	79.00281	10486.35	-27515.34	1	29445.84	-69.13769	2.018303E-009	-0.0072523	6
	42	59	63.3446	12141.36	-33531.8	1	35662.22	-70.09544	1.101469E-009	-0.0072509	6
	43	61	49.86702	13382.26	-41286.37	1	43401.02	-72.0408	1.800308E-009	-0.0072536	6
	44	62	39.72458	15901.6	-50651.75	1	53089.17	-72.57085	1.102561E-009	-0.0072474	6
	45	63	31.6723	18797	-61624.54	1	64427.57	-73.03701	1.200679E-009	-0.0072477	6
	46	65	24.93351	23062.98	-75814.14	1	79244.46	-73.08002	1.434897E-009	-0.0072459	6
	47	66	19.86229	28258.3	-92004.22	1	96246.1	-72.92612	1.616745E-009	-0.0072459	6
	48	68	15.83615	34705.27	-111195.5	1	116485.6	-72.66632	1.164635E-009	-0.0072481	5
	49	69	12.40079	44779.1	-136613.8	1	143765.4	-71.85196	7.061898E-010	-0.007247	5
	50	71	9.93114	56475.61	-162545.2	1	172076.8	-70.84045	1.128939E-009	-0.0072496	5
	51	72	7.944915	71040.27	-193684.5	1	206301.8	-69.8578	8.792677E-010	-0.0072406	5
	52	74	6.317385	89697.18	-230423.2	1	247266	-68.73046	7.833768E-010	-0.007235	5
	53	76	5.008013	113570.2	-273237.7	1	295900.3	-67.42996	1.004447E-009	-0.007237	5
	54	78	3.945707	144258.2	-324009.8	1	354672.8	-66.00004	3.303643E-010	-0.0072444	5
	55	81	3.158693	179438.7	-377013.9	1	417537.7	-64.54802	6.023331E-010	-0.0072428	5
	56	84	2.504006	222773.3	-438298.3	1	491663.8	-63.0572	4.480676E-010	-0.0072381	5
	57	87	1.998082	271538.7	-504407	1	572852.3	-61.70498	7.116189E-010	-0.0072408	5
	58	90	1.584686	332702.9	-578346.3	1	667214.8	-60.08965	3.931268E-010	-0.0072879	5
	59	94	1.266892	396393.9	-661235.3	1	770947.6	-59.05838	5.385929E-010	-0.0072172	5
	60	98	0.999041	476934.7	-757431.1	1	895080.2	-57.80245	2.223897E-010	-0.0072837	5
