EXPLAIN
TAG	EISPOT
TITLE	LABEL	Potentiostatic EIS	Test &Identifier
DATE	LABEL	10/8/2019	Date
TIME	LABEL	8:59:32	Time
NOTES	NOTES	2	&Notes...
	
	
PSTAT	PSTAT	REF600-11020	Potentiostat
VDC	POTEN	0.00000E+000	T	DC &Voltage (V)
FREQINIT	QUANT	1.00000E+006	Initial Fre&q. (Hz)
FREQFINAL	QUANT	1.00000E+000	Final Fre&q. (Hz)
PTSPERDEC	QUANT	1.00000E+001	Points/&decade
VAC	QUANT	2.50000E+001	AC &Voltage (mV rms)
AREA	QUANT	1.00000E-002	&Area (cm^2)
CONDIT	TWOPARAM	T	5.00000E+000	0.00000E+000	Conditionin&g	Time(s)	E(V)
DELAY	TWOPARAM	T	5.00000E+000	0.00000E+000	Init. De&lay	Time(s)	Stab.(mV/s)
SPEED	SELECTOR	1	&Optimize for:
ZGUESS	QUANT	1.00000E+004	E&stimated Z (ohms)
OCVCURVE	TABLE	19
	Pt	T	Vf	Vm	Ach	Over
	#	s	V vs. Ref.	V	V	bits
	0	0.258333	9.28819E-003	9.28819E-003	5.71699E-004	...........
	1	0.516667	9.29067E-003	9.41805E-003	5.72232E-004	...........
	2	0.775	9.30625E-003	9.55918E-003	5.73432E-004	...........
	3	1.03333	9.35141E-003	9.69218E-003	5.77066E-004	...........
	4	1.29167	9.43437E-003	9.82648E-003	5.71666E-004	...........
	5	1.55	9.54782E-003	9.96084E-003	5.72599E-004	...........
	6	1.80833	9.67811E-003	1.01188E-002	5.69699E-004	...........
	7	2.06667	9.81785E-003	1.03551E-002	5.70399E-004	...........
	8	2.325	9.96937E-003	1.04981E-002	5.74832E-004	...........
	9	2.58333	1.01345E-002	1.06300E-002	5.69432E-004	...........
	10	2.84167	1.03052E-002	1.08017E-002	5.72499E-004	...........
	11	3.1	1.04718E-002	1.09856E-002	5.72466E-004	...........
	12	3.35833	1.06351E-002	1.11781E-002	5.74865E-004	...........
	13	3.61667	1.07991E-002	1.11823E-002	5.71432E-004	...........
	14	3.875	1.09539E-002	1.12046E-002	5.72432E-004	...........
	15	4.13333	1.10784E-002	1.12747E-002	5.73932E-004	...........
	16	4.39167	1.11643E-002	1.13420E-002	5.77032E-004	...........
	17	4.65	1.12266E-002	1.14633E-002	5.76866E-004	...........
	18	4.90833	1.12836E-002	1.13310E-002	5.73899E-004	...........
EOC	QUANT	0.0112836	Open Circuit (V)
PSTATMODEL	IQUANT	4	Pstat Model
PSTATSECTION	LABEL	REF600-11020	Pstat Section
PSTATSERIALNO	LABEL	11020	Pstat Serial Number
CTRLMODE	IQUANT	1	Control Mode
IESTAB	IQUANT	0	I/E Stability
CASPEED	IQUANT	1	Control Amp Speed
CONVENTION	IQUANT	1	Current Convention
ICHRANGE	IQUANT	2	Ich Range
ICHRANGEMODE	TOGGLE	F	Ich Auto Range
ICHOFFSETENABLE	TOGGLE	T	Ich Offset Enable
ICHOFFSET	QUANT	0	Ich Offset (V)
ICHFILTER	IQUANT	3	Ich Filter
VCHRANGE	IQUANT	2	Vch Range
VCHRANGEMODE	TOGGLE	F	Vch Auto Range
VCHOFFSETENABLE	TOGGLE	T	Vch Offset Enable
VCHOFFSET	QUANT	0	Vch Offset (V)
VCHFILTER	IQUANT	3	Vch Filter
ACHRANGE	IQUANT	2	Ach Range
ACHOFFSETENABLE	TOGGLE	F	Ach Offset Enable
ACHOFFSET	QUANT	0	Ach Offset (V)
ACHFILTER	IQUANT	3	Ach Filter
IERANGELOWERLIMIT	IQUANT	1	I/E Range Lower Limit
IERANGEMODE	TOGGLE	F	I/E AutoRange
IERANGE	IQUANT	6	I/E Range
POSFEEDENABLE	TOGGLE	F	Positive Feedback IR Comp
POSFEEDRESISTANCE	QUANT	0	Positive Feedback Resistance (ohm)
ACHSELECT	IQUANT	0	Ach Select
CABLEID	IQUANT	14	Cable ID
DCCALDATE	LABEL	8/19/2019	DC Calibration Date
ACCALDATE	LABEL	8/19/2019	AC Calibration Date
THERMOSELECT	IQUANT	1	Thermo Select
FRAMEWORKVERSION	QUANT	6.33	Framework Version
INSTRUMENTVERSION	LABEL	3.50	Instrument Version
ZCURVE	TABLE
	Pt	Time	Freq	Zreal	Zimag	Zsig	Zmod	Zphz	Idc	Vdc	IERange
	#	s	Hz	ohm	ohm	V	ohm	°	A	V	#
	0	1	1000078	2518.06	-1410.575	1	2886.235	-29.25682	2.125951E-006	0.0125601	8
	1	3	794390.6	2785.913	-1321.895	1	3083.621	-25.384	-8.46096E-007	0.0133363	8
	2	4	630984.4	3006.809	-1188.2	1	3233.067	-21.56243	1.874781E-006	0.0125125	8
	3	6	501234.4	3170.903	-1046.634	1	3339.172	-18.26674	-2.680261E-006	0.0134311	8
	4	7	398109.4	3303.998	-912.9164	1	3427.801	-15.44583	2.038354E-007	0.0129692	8
	5	8	316265.6	3420.873	-781.3034	1	3508.961	-12.86529	-2.215417E-006	0.0133017	8
	6	10	251203.1	3488.814	-684.7292	1	3555.373	-11.10397	3.927218E-006	0.0121204	8
	7	11	199546.9	3542.337	-591.7743	1	3591.427	-9.484114	-2.287503E-006	0.013282	8
	8	12	158578.1	3612.95	-520.2413	1	3650.214	-8.193898	-2.125157E-006	0.0132761	8
	9	14	125953.1	3661.571	-454.191	1	3689.633	-7.071003	1.24552E-006	0.0101302	7
	10	15	100078.1	3688.695	-411.4266	1	3711.569	-6.364304	7.84052E-008	0.0126433	7
	11	17	79453.13	3722.139	-397.7143	1	3743.326	-6.098971	-3.901393E-008	0.0128757	7
	12	18	63140.62	3755.485	-394.5773	1	3776.157	-5.997885	8.375126E-008	0.012747	7
	13	19	50203.12	3791.658	-399.0528	1	3812.599	-6.007974	-3.978749E-008	0.0128714	7
	14	21	39890.62	3829.418	-412.1196	1	3851.531	-6.142495	-3.180988E-008	0.0128016	7
	15	22	31640.63	3868.666	-436.9464	1	3893.263	-6.443963	4.48038E-008	0.0126515	7
	16	23	25171.88	3912.081	-468.6713	1	3940.054	-6.831535	-2.93329E-008	0.0128016	7
	17	25	20015.62	3956.291	-508.2116	1	3988.799	-7.319933	-3.090346E-008	0.0128019	7
	18	26	15890.62	4012.881	-559.0023	1	4051.629	-7.930382	-4.869179E-008	0.0128244	7
	19	28	12609.37	4070.407	-620.8033	1	4117.477	-8.671711	-4.982942E-008	0.0128292	7
	20	29	10078.13	4130.445	-690.9109	1	4187.832	-9.496106	8.764398E-008	0.012737	7
	21	30	8015.625	4195.881	-774.2093	1	4266.711	-10.45443	-1.848457E-008	0.0127672	7
	22	32	6328.125	4269.601	-880.3392	1	4359.414	-11.65042	7.941941E-008	0.0126257	7
	23	33	5015.625	4347.138	-1004.527	1	4461.69	-13.0114	-8.044615E-008	0.0129238	7
	24	34	3984.375	4427.839	-1150.27	1	4574.81	-14.56248	-1.790793E-008	0.0127601	7
	25	36	3170.956	4515.859	-1332.402	1	4708.32	-16.43867	1.360099E-007	0.0125803	7
	26	37	2527.573	4609.641	-1544.761	1	4861.592	-18.52678	8.020076E-008	0.0126232	7
	27	38	1976.103	4717.395	-1837.085	1	5062.479	-21.27733	8.896289E-008	0.0127225	7
	28	40	1577.524	4833.094	-2166.911	1	5296.631	-24.14902	-3.766997E-008	0.0128095	7
	29	41	1265.625	4950.636	-2554.426	1	5570.807	-27.2928	-4.909342E-008	0.0128237	7
	30	43	998.264	5097.112	-3067.513	1	5948.965	-31.04011	-7.967831E-008	0.012927	7
	31	44	796.875	5256.06	-3665.697	1	6408.081	-34.8928	-7.992263E-008	0.0129276	7
	32	45	627.7902	5452.342	-4440.633	1	7031.875	-39.16092	7.985505E-008	0.0126275	7
	33	47	505.5147	5650.365	-5305.647	1	7750.904	-43.19785	-1.03652E-008	0.0127558	7
	34	48	397.9953	5923.579	-6472.387	1	8773.857	-47.53501	4.797728E-009	0.0128123	7
	35	49	315.5048	6229.771	-7868.825	1	10036.36	-51.63124	8.150128E-010	0.0127508	6
	36	51	252.4038	6574.206	-9515.47	1	11565.65	-55.35953	8.171815E-010	0.0127518	6
	37	52	198.6229	7017.181	-11693.16	1	13637.11	-59.0316	5.060571E-010	0.0127502	6
	38	53	158.3615	7522.815	-14233.59	1	16099.31	-62.14241	6.086859E-010	0.0127503	6
	39	55	125.558	8167.067	-17439.6	1	19257.22	-64.90603	5.687688E-010	0.0127483	6
	40	56	100.4464	8933.421	-21231.1	1	23034.01	-67.18008	1.187754E-009	0.0127482	6
	41	57	79.00281	9976.99	-26252.7	1	28084.6	-69.19138	7.873564E-011	0.0127464	6
	42	59	63.3446	11197.48	-31703	1	33622.37	-70.54681	7.176708E-010	0.0127457	6
	43	60	49.86702	13121.96	-39433.74	1	41559.66	-71.59463	6.286723E-010	0.0127402	6
	44	62	39.72458	15239.88	-48050.65	1	50409.52	-72.4029	8.183476E-010	0.0127479	6
	45	63	31.6723	18184.29	-58557.49	1	61315.97	-72.74847	7.111065E-010	0.0127417	6
	46	65	24.93351	22059.99	-71948.15	1	75254.1	-72.95396	2.914387E-010	0.0127449	6
	47	66	19.86229	27017.85	-87335.92	1	91419.52	-72.81026	4.279622E-010	0.0127407	6
	48	67	15.83615	33692.38	-105506.1	1	110755.2	-72.2896	7.293064E-010	0.012745	5
	49	69	12.40079	42291.61	-128454.3	1	135237.1	-71.77666	1.726018E-010	0.0127499	5
	50	70	9.93114	53448.4	-154320.7	1	163314.5	-70.89667	-1.051619E-012	0.0127542	5
	51	72	7.944915	67396.45	-183338.6	1	195333.9	-69.81625	8.362502E-010	0.0127503	5
	52	73	6.317385	85188.48	-218834.4	1	234830.9	-68.72989	-1.314169E-010	0.0127632	5
	53	75	5.008013	108330.4	-259834.7	1	281513	-67.36774	-5.189475E-011	0.0127409	5
	54	78	3.945707	138146.9	-307057.4	1	336702.8	-65.77675	3.436574E-010	0.0127555	5
	55	81	3.158693	172062.4	-357635.7	1	396873.7	-64.3073	-1.703408E-010	0.0127396	5
	56	84	2.504006	215058.5	-415468.5	1	467829.3	-62.6326	4.484666E-010	0.0127454	5
	57	87	1.998082	264392.1	-476417.2	1	544863.8	-60.97151	8.677844E-012	0.0127925	5
	58	90	1.584686	321378.3	-546189.1	1	633724.3	-59.52739	1.713065E-010	0.0127753	5
	59	93	1.266892	385770.5	-618450.2	1	728902.9	-58.04534	-9.556279E-011	0.0127883	5
	60	98	0.999041	459649.3	-703499.1	1	840350.2	-56.84037	7.710323E-011	0.012718	5
