EXPLAIN
TAG	EISPOT
TITLE	LABEL	Potentiostatic EIS	Test &Identifier
DATE	LABEL	9/20/2019	Date
TIME	LABEL	9:53:13	Time
NOTES	NOTES	1	&Notes...
	
PSTAT	PSTAT	REF600-11020	Potentiostat
VDC	POTEN	0.00000E+000	T	DC &Voltage (V)
FREQINIT	QUANT	1.00000E+006	Initial Fre&q. (Hz)
FREQFINAL	QUANT	1.00000E+000	Final Fre&q. (Hz)
PTSPERDEC	QUANT	1.00000E+001	Points/&decade
VAC	QUANT	2.50000E+001	AC &Voltage (mV rms)
AREA	QUANT	1.00000E-002	&Area (cm^2)
CONDIT	TWOPARAM	T	5.00000E+000	0.00000E+000	Conditionin&g	Time(s)	E(V)
DELAY	TWOPARAM	T	5.00000E+000	0.00000E+000	Init. De&lay	Time(s)	Stab.(mV/s)
SPEED	SELECTOR	1	&Optimize for:
ZGUESS	QUANT	1.00000E+004	E&stimated Z (ohms)
OCVCURVE	TABLE	19
	Pt	T	Vf	Vm	Ach	Over
	#	s	V vs. Ref.	V	V	bits
	0	0.258333	6.59376E-002	6.59376E-002	5.55766E-004	...........
	1	0.516667	6.60056E-002	6.94971E-002	5.53833E-004	...........
	2	0.775	6.64183E-002	7.26144E-002	5.61866E-004	...........
	3	1.03333	6.75651E-002	7.53867E-002	5.60599E-004	...........
	4	1.29167	6.95640E-002	7.78816E-002	5.53499E-004	...........
	5	1.55	7.21277E-002	8.01394E-002	5.52666E-004	...........
	6	1.80833	7.48420E-002	8.21898E-002	5.61532E-004	...........
	7	2.06667	7.74278E-002	8.40760E-002	5.68966E-004	...........
	8	2.325	7.97808E-002	8.58094E-002	5.62266E-004	...........
	9	2.58333	8.19011E-002	8.74157E-002	5.57399E-004	...........
	10	2.84167	8.38239E-002	8.89072E-002	5.66199E-004	...........
	11	3.1	8.55847E-002	9.02914E-002	5.66499E-004	...........
	12	3.35833	8.72094E-002	9.15864E-002	5.55899E-004	...........
	13	3.61667	8.87162E-002	9.28135E-002	5.55199E-004	...........
	14	3.875	9.01193E-002	9.39376E-002	5.63966E-004	...........
	15	4.13333	9.14294E-002	9.50059E-002	5.62232E-004	...........
	16	4.39167	9.26542E-002	9.59913E-002	5.54933E-004	...........
	17	4.65	9.37999E-002	9.69689E-002	5.53633E-004	...........
	18	4.90833	9.48753E-002	9.78706E-002	5.62399E-004	...........
EOC	QUANT	0.0948753	Open Circuit (V)
PSTATMODEL	IQUANT	4	Pstat Model
PSTATSECTION	LABEL	REF600-11020	Pstat Section
PSTATSERIALNO	LABEL	11020	Pstat Serial Number
CTRLMODE	IQUANT	1	Control Mode
IESTAB	IQUANT	0	I/E Stability
CASPEED	IQUANT	1	Control Amp Speed
CONVENTION	IQUANT	1	Current Convention
ICHRANGE	IQUANT	2	Ich Range
ICHRANGEMODE	TOGGLE	F	Ich Auto Range
ICHOFFSETENABLE	TOGGLE	T	Ich Offset Enable
ICHOFFSET	QUANT	0	Ich Offset (V)
ICHFILTER	IQUANT	3	Ich Filter
VCHRANGE	IQUANT	2	Vch Range
VCHRANGEMODE	TOGGLE	F	Vch Auto Range
VCHOFFSETENABLE	TOGGLE	T	Vch Offset Enable
VCHOFFSET	QUANT	0	Vch Offset (V)
VCHFILTER	IQUANT	3	Vch Filter
ACHRANGE	IQUANT	2	Ach Range
ACHOFFSETENABLE	TOGGLE	F	Ach Offset Enable
ACHOFFSET	QUANT	0	Ach Offset (V)
ACHFILTER	IQUANT	3	Ach Filter
IERANGELOWERLIMIT	IQUANT	1	I/E Range Lower Limit
IERANGEMODE	TOGGLE	F	I/E AutoRange
IERANGE	IQUANT	7	I/E Range
POSFEEDENABLE	TOGGLE	F	Positive Feedback IR Comp
POSFEEDRESISTANCE	QUANT	0	Positive Feedback Resistance (ohm)
ACHSELECT	IQUANT	0	Ach Select
CABLEID	IQUANT	14	Cable ID
DCCALDATE	LABEL	8/19/2019	DC Calibration Date
ACCALDATE	LABEL	8/19/2019	AC Calibration Date
THERMOSELECT	IQUANT	1	Thermo Select
FRAMEWORKVERSION	QUANT	6.33	Framework Version
INSTRUMENTVERSION	LABEL	3.50	Instrument Version
ZCURVE	TABLE
	Pt	Time	Freq	Zreal	Zimag	Zsig	Zmod	Zphz	Idc	Vdc	IERange
	#	s	Hz	ohm	ohm	V	ohm	°	A	V	#
	0	1	1000078	1586.146	-1709.562	1	2332.051	-47.14457	-1.427882E-006	0.0975493	8
	1	3	794390.6	1766.54	-1938.558	1	2622.722	-47.65819	1.354339E-007	0.0969528	8
	2	4	630984.4	1980.369	-2214.499	1	2970.836	-48.19456	-3.820934E-006	0.0976156	8
	3	5	501234.4	2239.853	-2549.846	1	3393.915	-48.70306	-7.302492E-007	0.096993	8
	4	7	398109.4	2551.933	-2956.345	1	3905.424	-49.19907	-1.111647E-006	0.0969018	8
	5	8	316265.6	2978.026	-3343.343	1	4477.341	-48.30748	-5.84775E-007	0.0968908	8
	6	9	251203.1	3487.453	-3800.076	1	5157.8	-47.45638	-3.120688E-006	0.0972681	8
	7	11	199546.9	4135.008	-4214.014	1	5903.914	-45.54217	4.559704E-006	0.0957256	8
	8	12	158578.1	4934.198	-4615.018	1	6756.086	-43.08561	2.921273E-008	0.0964896	8
	9	14	125953.1	5892.776	-4912.569	1	7671.906	-39.8166	6.171592E-007	0.0953109	7
	10	16	100078.1	6833.412	-5103.942	1	8529.111	-36.75641	7.120858E-008	0.096495	7
	11	17	79453.13	7805.951	-5177.394	1	9366.871	-33.55482	-5.844488E-008	0.0966904	7
	12	18	63140.62	8774.121	-5130.262	1	10163.9	-30.31499	1.883582E-008	0.0964035	7
	13	20	50203.12	9658.92	-4970.027	1	10862.59	-27.22824	-6.943856E-008	0.0965743	7
	14	21	39890.62	10497.08	-4703.382	1	11502.63	-24.13552	-1.882243E-008	0.096658	7
	15	22	31640.63	11215.15	-4496.083	1	12082.81	-21.84554	-1.862585E-008	0.0965603	7
	16	24	25171.88	11852.91	-4241.256	1	12588.87	-19.68843	-5.757193E-008	0.0965446	7
	17	25	20015.62	12433.5	-4007.291	1	13063.31	-17.86403	2.204282E-008	0.0964769	7
	18	26	15890.62	13030.13	-3838.101	1	13583.64	-16.41265	2.371133E-008	0.0964736	7
	19	28	12609.37	13504.11	-3498.549	1	13949.94	-14.52445	-1.58648E-008	0.0962965	6
	20	29	10078.13	13932.58	-3389.633	1	14338.98	-13.67374	-1.902871E-009	0.0961606	6
	21	30	8015.625	14328.77	-3321.208	1	14708.64	-13.04991	-2.622456E-008	0.0965149	6
	22	32	6328.125	14741.95	-3286.763	1	15103.91	-12.56871	-2.030288E-008	0.0965768	6
	23	33	5015.625	15146.42	-3285.923	1	15498.75	-12.24029	-1.767676E-008	0.0963712	6
	24	34	3984.375	15546.35	-3326.948	1	15898.35	-12.07921	-2.879223E-008	0.0965582	6
	25	36	3170.956	15944.81	-3393.681	1	16301.96	-12.0155	-2.270928E-008	0.0963831	6
	26	37	2527.573	16348.55	-3497.666	1	16718.52	-12.07601	-2.111188E-008	0.0964634	6
	27	39	1976.103	16790.89	-3661.951	1	17185.58	-12.30308	-1.26983E-008	0.0962919	6
	28	40	1577.524	17223.42	-3858.928	1	17650.43	-12.62863	-2.029849E-008	0.096576	6
	29	41	1265.625	17643.63	-4083.57	1	18110.03	-13.03149	-2.151958E-008	0.0963811	6
	30	43	998.264	18130.71	-4398.146	1	18656.54	-13.63542	-1.585947E-008	0.0962807	6
	31	44	796.875	18617.71	-4764.615	1	19217.71	-14.35495	-1.601184E-008	0.0965472	6
	32	45	627.7902	19170.93	-5224.196	1	19870	-15.24333	-1.695475E-008	0.0963608	6
	33	47	505.5147	19704.84	-5728.98	1	20520.77	-16.21125	-2.495658E-008	0.0965877	6
	34	48	397.9953	20357.12	-6395.334	1	21338.05	-17.44049	-1.760022E-008	0.0964859	6
	35	49	315.5048	21060.52	-7168.454	1	22247.07	-18.79724	-1.86082E-008	0.0964824	6
	36	51	252.4038	21816.47	-8037.94	1	23250.1	-20.22553	-1.825671E-008	0.0964885	6
	37	52	198.6229	22747.03	-9130.158	1	24510.96	-21.86944	-1.813951E-008	0.0964846	6
	38	53	158.3615	23752.74	-10332.17	1	25902.63	-23.5085	-1.835939E-008	0.0964798	6
	39	55	125.558	24937.26	-11754.45	1	27568.71	-25.23737	-1.841771E-008	0.0964804	6
	40	56	100.4464	26249.08	-13287.76	1	29420.72	-26.84936	-1.742066E-008	0.0964761	6
	41	57	79.00281	27892.88	-15164.68	1	31748.7	-28.53186	-1.775348E-008	0.0964755	6
	42	59	63.3446	29447.79	-17208.88	1	34107.44	-30.30142	-1.777813E-008	0.0964775	6
	43	60	49.86702	32002.91	-19448.61	1	37449.1	-31.28763	-1.840539E-008	0.0964716	6
	44	62	39.72458	34351.48	-22099.86	1	40846.4	-32.75501	-1.675616E-008	0.0964798	6
	45	63	31.6723	37099.62	-24853.27	1	44654.98	-33.81838	-1.850339E-008	0.0964772	6
	46	64	24.93351	40518.5	-27960.77	1	49229.6	-34.60855	-1.739589E-008	0.0964754	6
	47	66	19.86229	44138.3	-31219.77	1	54063.52	-35.27242	-1.876325E-008	0.0964859	6
	48	67	15.83615	48224.24	-34586.96	1	59345.05	-35.64851	-2.019781E-008	0.0964786	6
	49	68	12.40079	52636.16	-39099.99	1	65569.62	-36.60627	-1.907802E-008	0.096485	6
	50	70	9.93114	57541.66	-43157.87	1	71928.05	-36.87093	-1.936298E-008	0.0964864	6
	51	71	7.944915	62523.33	-47815.16	1	78711.22	-37.40721	-1.566361E-008	0.0964805	6
	52	73	6.317385	68509.29	-53081.59	1	86667.05	-37.76883	-1.606644E-008	0.0964825	6
	53	75	5.008013	74965.26	-59420.89	1	95658.9	-38.40195	-1.828116E-008	0.0964763	6
	54	77	3.945707	82298.64	-66623.52	1	105885.6	-38.99134	-1.646775E-008	0.0965062	5
	55	80	3.158693	90215.56	-74332.02	1	116893.5	-39.4864	-1.790742E-008	0.0965001	5
	56	83	2.504006	99403.6	-83440.04	1	129781.8	-40.01032	-1.695813E-008	0.096489	5
	57	86	1.998082	109310.4	-93462.14	1	143819.1	-40.53098	-1.850638E-008	0.0965211	5
	58	89	1.584686	121446	-105078.2	1	160594.4	-40.8672	-1.718739E-008	0.0965398	5
	59	93	1.266892	134285.6	-117529.3	1	178453.8	-41.19302	-1.858747E-008	0.0965164	5
	60	97	0.999041	150558.3	-132294	1	200423.3	-41.30545	-1.671006E-008	0.0965004	5
