EXPLAIN
TAG	EISPOT
TITLE	LABEL	Potentiostatic EIS	Test &Identifier
DATE	LABEL	8/14/2018	Date
TIME	LABEL	5:24:18	Time
NOTES	NOTES	1	&Notes...
	
PSTAT	PSTAT	REF600-11020	Potentiostat
VDC	POTEN	0.00000E+000	T	DC &Voltage (V)
FREQINIT	QUANT	1.00000E+006	Initial Fre&q. (Hz)
FREQFINAL	QUANT	1.00000E+000	Final Fre&q. (Hz)
PTSPERDEC	QUANT	1.00000E+001	Points/&decade
VAC	QUANT	2.50000E+001	AC &Voltage (mV rms)
AREA	QUANT	1.00000E-002	&Area (cm^2)
CONDIT	TWOPARAM	T	5.00000E+000	0.00000E+000	Conditionin&g	Time(s)	E(V)
DELAY	TWOPARAM	T	5.00000E+000	0.00000E+000	Init. De&lay	Time(s)	Stab.(mV/s)
SPEED	SELECTOR	0	&Optimize for:
ZGUESS	QUANT	1.00000E+005	E&stimated Z (ohms)
OCVCURVE	TABLE	19
	Pt	T	Vf	Vm	Ach	Over
	#	s	V vs. Ref.	V	V	bits
	0	0.258333	2.67086E-001	2.67086E-001	5.08200E-004	...........
	1	0.516667	2.67328E-001	2.79769E-001	5.10133E-004	...........
	2	0.775	2.68704E-001	2.85911E-001	5.14766E-004	...........
	3	1.03333	2.72300E-001	2.95911E-001	5.08867E-004	...........
	4	1.29167	2.78226E-001	2.98860E-001	5.09333E-004	...........
	5	1.55	2.85445E-001	3.08255E-001	5.09700E-004	...........
	6	1.80833	2.92854E-001	3.15020E-001	5.15166E-004	...........
	7	2.06667	3.00087E-001	3.21968E-001	5.12200E-004	...........
	8	2.325	3.07195E-001	3.26860E-001	5.10667E-004	...........
	9	2.58333	3.14055E-001	3.31541E-001	5.17566E-004	...........
	10	2.84167	3.20362E-001	3.35340E-001	5.11300E-004	...........
	11	3.1	3.25899E-001	3.38714E-001	5.10433E-004	...........
	12	3.35833	3.30645E-001	3.41829E-001	5.06767E-004	...........
	13	3.61667	3.34707E-001	3.44424E-001	5.06200E-004	...........
	14	3.875	3.38221E-001	3.46628E-001	5.12333E-004	...........
	15	4.13333	3.41285E-001	3.48735E-001	5.09333E-004	...........
	16	4.39167	3.43963E-001	3.50524E-001	5.05367E-004	...........
	17	4.65	3.46315E-001	3.52069E-001	5.03100E-004	...........
	18	4.90833	3.48387E-001	3.53433E-001	5.03733E-004	...........
EOC	QUANT	0.3483873	Open Circuit (V)
PSTATMODEL	IQUANT	4	Pstat Model
PSTATSECTION	LABEL	REF600-11020	Pstat Section
PSTATSERIALNO	LABEL	11020	Pstat Serial Number
CTRLMODE	IQUANT	1	Control Mode
IESTAB	IQUANT	0	I/E Stability
CASPEED	IQUANT	1	Control Amp Speed
CONVENTION	IQUANT	1	Current Convention
ICHRANGE	IQUANT	2	Ich Range
ICHRANGEMODE	TOGGLE	F	Ich Auto Range
ICHOFFSETENABLE	TOGGLE	T	Ich Offset Enable
ICHOFFSET	QUANT	0	Ich Offset (V)
ICHFILTER	IQUANT	3	Ich Filter
VCHRANGE	IQUANT	2	Vch Range
VCHRANGEMODE	TOGGLE	F	Vch Auto Range
VCHOFFSETENABLE	TOGGLE	T	Vch Offset Enable
VCHOFFSET	QUANT	0	Vch Offset (V)
VCHFILTER	IQUANT	3	Vch Filter
ACHRANGE	IQUANT	2	Ach Range
ACHOFFSETENABLE	TOGGLE	F	Ach Offset Enable
ACHOFFSET	QUANT	0	Ach Offset (V)
ACHFILTER	IQUANT	3	Ach Filter
IERANGELOWERLIMIT	IQUANT	1	I/E Range Lower Limit
IERANGEMODE	TOGGLE	F	I/E AutoRange
IERANGE	IQUANT	6	I/E Range
POSFEEDENABLE	TOGGLE	F	Positive Feedback IR Comp
POSFEEDRESISTANCE	QUANT	0	Positive Feedback Resistance (ohm)
ACHSELECT	IQUANT	0	Ach Select
CABLEID	IQUANT	14	Cable ID
DCCALDATE	LABEL	8/19/2019	DC Calibration Date
ACCALDATE	LABEL	8/19/2019	AC Calibration Date
THERMOSELECT	IQUANT	1	Thermo Select
FRAMEWORKVERSION	QUANT	6.33	Framework Version
INSTRUMENTVERSION	LABEL	3.50	Instrument Version
ZCURVE	TABLE
	Pt	Time	Freq	Zreal	Zimag	Zsig	Zmod	Zphz	Idc	Vdc	IERange
	#	s	Hz	ohm	ohm	V	ohm	°	A	V	#
	0	2	1000078	1464.586	-2424.247	1	2832.311	-58.86212	5.497057E-006	0.3494759	8
	1	2	794390.6	1675.356	-2849.971	1	3305.927	-59.55086	-1.384352E-006	0.3501427	8
	2	2	630984.4	1993.296	-3374.115	1	3918.913	-59.42705	2.121735E-006	0.3498336	8
	3	3	501234.4	2424.591	-3939.66	1	4625.966	-58.39055	1.025947E-006	0.3497583	8
	4	3	398109.4	3037.589	-4597.277	1	5510.164	-56.5458	-3.114167E-007	0.3498476	8
	5	3	316265.6	3716.336	-5246.302	1	6429.217	-54.68729	-3.912501E-006	0.3507602	8
	6	4	251203.1	4723.534	-5946.289	1	7594.084	-51.53754	3.437776E-006	0.3493708	8
	7	4	199546.9	5919.432	-6561.249	1	8836.835	-47.94383	-3.835915E-006	0.3507318	8
	8	5	158578.1	7089.152	-6695.833	1	9751.42	-43.36566	-3.809708E-008	0.3499348	8
	9	5	125953.1	8762.098	-6892.846	1	11148.35	-38.19093	1.121737E-006	0.3475344	7
	10	5	100078.1	10230.11	-6899.725	1	12339.42	-33.9978	7.771025E-008	0.3498009	7
	11	6	79453.13	11516.97	-6525.862	1	13237.36	-29.53719	3.360159E-008	0.3500352	7
	12	6	63140.62	12677.07	-5982.113	1	14017.62	-25.2619	-4.210388E-008	0.3499983	7
	13	6	50203.12	13661.46	-5394.276	1	14687.88	-21.54676	1.089487E-007	0.349872	7
	14	7	39890.62	14377.72	-4732.143	1	15136.45	-18.21794	-1.604096E-008	0.3500088	7
	15	7	31640.63	14967.1	-4111.08	1	15521.44	-15.35891	-3.043558E-008	0.3499541	7
	16	7	25171.88	15410.28	-3542.918	1	15812.3	-12.94766	5.72606E-008	0.3498774	7
	17	8	20015.62	15715.3	-3062.897	1	16011	-11.02863	8.253607E-008	0.3497847	7
	18	8	15890.62	15984.37	-2629.561	1	16199.22	-9.341955	1.118793E-007	0.3498643	7
	19	8	12609.37	16258.2	-1986.066	1	16379.06	-6.96462	-3.975208E-010	0.3500638	6
	20	9	10078.13	16275.58	-1782.507	1	16372.9	-6.250144	1.253316E-009	0.3500502	6
	21	9	8015.625	16431.27	-1556.931	1	16504.87	-5.412851	6.568369E-009	0.3499718	6
	22	9	6328.125	16482.68	-1437.975	1	16545.29	-4.98595	-4.881374E-009	0.3500066	6
	23	9	5015.625	16529.12	-1348.125	1	16584.01	-4.662758	1.381452E-009	0.3500545	6
	24	10	3984.375	16581.84	-1271.832	1	16630.54	-4.386016	-2.262292E-009	0.3500878	6
	25	10	3170.956	16580.57	-1309.226	1	16632.18	-4.514791	-2.518731E-009	0.3500946	6
	26	10	2527.573	16595.73	-1353.884	1	16650.87	-4.663877	-2.202752E-009	0.3500345	6
	27	11	1976.103	16639.34	-1465.94	1	16703.79	-5.034808	1.106362E-008	0.3499996	6
	28	11	1577.524	16911.25	-1705.3	1	16997.02	-5.758137	1.172746E-008	0.3497527	6
	29	11	1265.625	16647.52	-1831.374	1	16747.95	-6.277795	-2.031791E-009	0.3500928	6
	30	12	998.264	16684.91	-2132.252	1	16820.61	-7.282653	-3.438444E-009	0.350004	6
	31	12	796.875	16722.5	-2505.058	1	16909.09	-8.519651	1.105112E-008	0.3497535	6
	32	12	627.7902	16785.27	-3007.774	1	17052.62	-10.15909	-4.18096E-010	0.3499818	6
	33	13	505.5147	16880.94	-3574.588	1	17255.25	-11.95594	1.481645E-008	0.3497242	6
	34	13	397.9953	17023.1	-4345.256	1	17568.92	-14.31935	1.001754E-008	0.3499092	6
	35	13	315.5048	17200.21	-5266.793	1	17988.51	-17.02486	8.421657E-009	0.3499077	6
	36	14	252.4038	17434.95	-6339.85	1	18551.85	-19.98273	8.433415E-009	0.3499051	6
	37	14	198.6229	17775.94	-7742.634	1	19388.97	-23.53641	9.940052E-009	0.3499041	6
	38	14	158.3615	18201.58	-9344.367	1	20460.07	-27.17516	9.883736E-009	0.3499014	6
	39	15	125.558	18781.55	-11306.42	1	21922.17	-31.04778	9.629976E-009	0.3499018	6
	40	15	100.4464	19517.21	-13534.13	1	23750.67	-34.7392	8.168771E-009	0.349902	6
	41	15	79.00281	20498.5	-16429.67	1	26270.18	-38.71239	8.38553E-009	0.3499002	6
	42	16	63.3446	22028.39	-19586.99	1	29477.11	-41.64254	1.038234E-008	0.349899	6
	43	16	49.86702	23656.9	-23682.71	1	33474.16	-45.03124	1.109212E-008	0.3498932	6
	44	16	39.72458	25609.98	-28050.78	1	37983.12	-47.60435	1.011797E-008	0.3499016	6
	45	17	31.6723	28177.84	-33206.44	1	43550.64	-49.68321	1.02179E-008	0.3498982	6
	46	17	24.93351	31861.03	-39562.36	1	50796.7	-51.15422	1.126339E-008	0.3498973	6
	47	17	19.86229	36106.57	-46346.55	1	58751.06	-52.07941	1.302361E-008	0.3499053	6
	48	17	15.83615	41405.62	-54316.63	1	68298.77	-52.68169	9.077013E-009	0.3499063	6
	49	18	12.40079	48760.27	-63336.65	1	79931.82	-52.40881	1.02935E-008	0.3499058	6
	50	18	9.93114	55888.14	-72147.3	1	91261.81	-52.23723	1.155924E-008	0.3499086	6
	51	19	7.944915	64648.31	-81680.78	1	104168.9	-51.63926	1.344948E-008	0.3498994	5
	52	19	6.317385	74747.75	-92665.16	1	119054.9	-51.10884	1.394327E-008	0.3498874	5
	53	20	5.008013	86354.64	-104662.5	1	135688.5	-50.47474	1.334267E-008	0.3499065	5
	54	21	3.945707	99309.2	-118196.4	1	154378.4	-49.96286	1.314337E-008	0.349908	5
	55	22	3.158693	112493.4	-132395.4	1	173733.4	-49.6462	1.322742E-008	0.3498946	5
	56	24	2.504006	127694.7	-149003.6	1	196234.6	-49.40373	1.415628E-008	0.3498919	5
	57	25	1.998082	143745.8	-167840.3	1	220982.4	-49.42181	1.468177E-008	0.3499231	5
	58	27	1.584686	162189	-189441.6	1	249386	-49.43177	1.453661E-008	0.3498742	5
	59	29	1.266892	182831.9	-214397.4	1	281768.9	-49.54342	1.463709E-008	0.3498554	5
	60	31	0.999041	207193	-245096.9	1	320938.3	-49.79045	1.470512E-008	0.3498581	5
