EXPLAIN
TAG	EISPOT
TITLE	LABEL	Potentiostatic EIS	Test &Identifier
DATE	LABEL	9/20/2019	Date
TIME	LABEL	12:28:12	Time
NOTES	NOTES	1	&Notes...
	
PSTAT	PSTAT	REF600-11020	Potentiostat
VDC	POTEN	0.00000E+000	T	DC &Voltage (V)
FREQINIT	QUANT	1.00000E+006	Initial Fre&q. (Hz)
FREQFINAL	QUANT	1.00000E+000	Final Fre&q. (Hz)
PTSPERDEC	QUANT	1.00000E+001	Points/&decade
VAC	QUANT	2.50000E+001	AC &Voltage (mV rms)
AREA	QUANT	1.00000E-002	&Area (cm^2)
CONDIT	TWOPARAM	T	5.00000E+000	0.00000E+000	Conditionin&g	Time(s)	E(V)
DELAY	TWOPARAM	T	5.00000E+000	0.00000E+000	Init. De&lay	Time(s)	Stab.(mV/s)
SPEED	SELECTOR	1	&Optimize for:
ZGUESS	QUANT	1.00000E+004	E&stimated Z (ohms)
OCVCURVE	TABLE	19
	Pt	T	Vf	Vm	Ach	Over
	#	s	V vs. Ref.	V	V	bits
	0	0.258333	1.89214E-003	1.89214E-003	5.72032E-004	...........
	1	0.516667	1.88719E-003	1.63312E-003	5.72066E-004	...........
	2	0.775	1.85707E-003	1.40130E-003	5.70632E-004	...........
	3	1.03333	1.77284E-003	1.18483E-003	5.72666E-004	...........
	4	1.29167	1.62454E-003	9.88591E-004	5.69332E-004	...........
	5	1.55	1.43157E-003	8.07065E-004	5.72066E-004	...........
	6	1.80833	1.22352E-003	6.37983E-004	5.71032E-004	...........
	7	2.06667	1.02110E-003	4.74631E-004	5.76432E-004	...........
	8	2.325	8.32452E-004	3.29153E-004	5.72466E-004	...........
	9	2.58333	6.58068E-004	1.81704E-004	5.77899E-004	...........
	10	2.84167	4.95804E-004	4.46396E-005	5.78732E-004	...........
	11	3.1	3.43134E-004	-8.71154E-005	5.77332E-004	...........
	12	3.35833	1.98170E-004	-2.09945E-004	5.67966E-004	...........
	13	3.61667	6.00810E-005	-3.28841E-004	5.72332E-004	...........
	14	3.875	-7.13891E-005	-4.42915E-004	5.77032E-004	...........
	15	4.13333	-1.96606E-004	-5.51955E-004	5.74099E-004	...........
	16	4.39167	-3.16150E-004	-6.56661E-004	5.79666E-004	...........
	17	4.65	-4.30522E-004	-7.55116E-004	5.78566E-004	...........
	18	4.90833	-5.40006E-004	-8.52900E-004	5.78032E-004	...........
EOC	QUANT	-0.00054	Open Circuit (V)
PSTATMODEL	IQUANT	4	Pstat Model
PSTATSECTION	LABEL	REF600-11020	Pstat Section
PSTATSERIALNO	LABEL	11020	Pstat Serial Number
CTRLMODE	IQUANT	1	Control Mode
IESTAB	IQUANT	0	I/E Stability
CASPEED	IQUANT	1	Control Amp Speed
CONVENTION	IQUANT	1	Current Convention
ICHRANGE	IQUANT	2	Ich Range
ICHRANGEMODE	TOGGLE	F	Ich Auto Range
ICHOFFSETENABLE	TOGGLE	T	Ich Offset Enable
ICHOFFSET	QUANT	0	Ich Offset (V)
ICHFILTER	IQUANT	3	Ich Filter
VCHRANGE	IQUANT	2	Vch Range
VCHRANGEMODE	TOGGLE	F	Vch Auto Range
VCHOFFSETENABLE	TOGGLE	T	Vch Offset Enable
VCHOFFSET	QUANT	0	Vch Offset (V)
VCHFILTER	IQUANT	3	Vch Filter
ACHRANGE	IQUANT	2	Ach Range
ACHOFFSETENABLE	TOGGLE	F	Ach Offset Enable
ACHOFFSET	QUANT	0	Ach Offset (V)
ACHFILTER	IQUANT	3	Ach Filter
IERANGELOWERLIMIT	IQUANT	1	I/E Range Lower Limit
IERANGEMODE	TOGGLE	F	I/E AutoRange
IERANGE	IQUANT	5	I/E Range
POSFEEDENABLE	TOGGLE	F	Positive Feedback IR Comp
POSFEEDRESISTANCE	QUANT	0	Positive Feedback Resistance (ohm)
ACHSELECT	IQUANT	0	Ach Select
CABLEID	IQUANT	14	Cable ID
DCCALDATE	LABEL	8/19/2019	DC Calibration Date
ACCALDATE	LABEL	8/19/2019	AC Calibration Date
THERMOSELECT	IQUANT	1	Thermo Select
FRAMEWORKVERSION	QUANT	6.33	Framework Version
INSTRUMENTVERSION	LABEL	3.50	Instrument Version
ZCURVE	TABLE
	Pt	Time	Freq	Zreal	Zimag	Zsig	Zmod	Zphz	Idc	Vdc	IERange
	#	s	Hz	ohm	ohm	V	ohm	°	A	V	#
	0	2	1000078	2295.347	-1650.071	1	2826.898	-35.71146	3.768399E-006	0.0015896	8
	1	3	794390.6	2615.78	-1593.011	1	3062.677	-31.34143	-1.421647E-006	0.0012998	8
	2	4	630984.4	2926.875	-1485.716	1	3282.369	-26.91288	-3.624868E-006	0.0021038	8
	3	6	501234.4	3168.687	-1358.436	1	3447.597	-23.20512	1.694688E-006	0.0009336	8
	4	7	398109.4	3397.183	-1226.525	1	3611.816	-19.8517	1.001086E-006	0.0008901	8
	5	9	316265.6	3558.392	-1048.425	1	3709.629	-16.41679	-1.32302E-007	0.0010048	8
	6	10	251203.1	3679.602	-917.4182	1	3792.245	-13.99986	-2.251504E-006	0.0015235	8
	7	11	199546.9	3773.7	-800.1069	1	3857.587	-11.97069	-2.157167E-006	0.0015101	8
	8	13	158578.1	3863.484	-683.2291	1	3923.431	-10.02866	1.438343E-006	0.0006782	8
	9	14	125953.1	3932.535	-561.8513	1	3972.469	-8.130968	-4.366815E-007	0.001639	7
	10	16	100078.1	3973.096	-497.4652	1	4004.118	-7.136775	4.158767E-008	0.0009137	7
	11	17	79453.13	4012.953	-454.5602	1	4038.616	-6.462533	8.459511E-008	0.0009911	7
	12	19	63140.62	4050.018	-423.8719	1	4072.138	-5.974782	-1.127577E-008	0.0009963	7
	13	20	50203.12	4084.672	-402.8046	1	4104.485	-5.631939	-5.232199E-008	0.0012004	7
	14	21	39890.62	4123.587	-395.8632	1	4142.545	-5.483574	-1.40824E-008	0.001082	7
	15	23	31640.63	4150.911	-394.3912	1	4169.605	-5.42756	-4.439904E-008	0.0010597	7
	16	24	25171.88	4184.152	-403.1874	1	4203.533	-5.504062	3.977341E-008	0.0009803	7
	17	25	20015.62	4218.481	-422.8828	1	4239.624	-5.724508	-4.342545E-008	0.0011257	7
	18	27	15890.62	4255.213	-448.3478	1	4278.768	-6.014741	-4.425371E-008	0.0011231	7
	19	28	12609.37	4291.55	-492.6104	1	4319.73	-6.548101	-1.433246E-008	0.0010861	7
	20	29	10078.13	4328.02	-544.0031	1	4362.074	-7.164126	1.413862E-010	0.0010397	7
	21	31	8015.625	4369.741	-612.074	1	4412.4	-7.9736	-3.861543E-008	0.0010422	7
	22	32	6328.125	4414.03	-699.0748	1	4469.045	-8.999507	-3.807475E-008	0.0010642	7
	23	33	5015.625	4461.228	-809.0994	1	4534.004	-10.27957	8.72736E-008	0.0009716	7
	24	35	3984.375	4514.191	-944.0101	1	4611.841	-11.81151	8.524988E-008	0.0008423	7
	25	36	3170.956	4570.937	-1109.236	1	4703.602	-13.64037	-4.222528E-008	0.0010552	7
	26	38	2527.573	4635.157	-1313.43	1	4817.653	-15.82075	-9.897446E-009	0.0011583	7
	27	39	1976.103	4714.305	-1581.49	1	4972.503	-18.54486	-1.816421E-008	0.0009965	7
	28	40	1577.524	4798.222	-1888.807	1	5156.6	-21.48694	-5.305392E-010	0.0010359	7
	29	42	1265.625	4894.33	-2255.528	1	5389.051	-24.74238	-2.947669E-008	0.0010346	7
	30	43	998.264	5006.157	-2725.846	1	5700.162	-28.56823	1.544227E-008	0.0009411	7
	31	44	796.875	5129.781	-3283.271	1	6090.528	-32.62092	6.955089E-008	0.0009027	7
	32	46	627.7902	5280.006	-4007.647	1	6628.703	-37.19934	-4.440754E-008	0.0010531	7
	33	47	505.5147	5440.773	-4819.656	1	7268.5	-41.53582	-3.999063E-008	0.0011135	7
	34	48	397.9953	5649.268	-5918.732	1	8182.03	-46.3344	5.425425E-009	0.0010435	7
	35	50	315.5048	5892.934	-7246.58	1	9340.214	-50.88192	7.580341E-009	0.0010432	7
	36	51	252.4038	6181.659	-8817.888	1	10768.85	-54.96815	1.666702E-009	0.0009833	6
	37	53	198.6229	6565.169	-10902.16	1	12726.29	-58.94408	1.484275E-009	0.0009807	6
	38	54	158.3615	7024.054	-13339.2	1	15075.53	-62.22994	9.323907E-010	0.0009807	6
	39	55	125.558	7627.376	-16402.99	1	18089.63	-65.06161	1.455342E-009	0.0009841	6
	40	57	100.4464	8373.845	-19996.39	1	21678.95	-67.27763	1.152488E-009	0.000977	6
	41	58	79.00281	9384.117	-24779.99	1	26497.35	-69.25845	1.481523E-009	0.0009779	6
	42	59	63.3446	10495.08	-30119.8	1	31895.91	-70.78938	1.162414E-009	0.0009811	6
	43	61	49.86702	12582.72	-37109.08	1	39184.29	-71.26954	1.24008E-009	0.0009793	6
	44	62	39.72458	14719.66	-45361.91	1	47690.37	-72.02207	1.097679E-009	0.0009813	6
	45	64	31.6723	17542.41	-55086.19	1	57811.98	-72.33572	9.008616E-010	0.0009824	6
	46	65	24.93351	21673.37	-67569.3	1	70960.16	-72.21596	7.723662E-010	0.0009802	6
	47	66	19.86229	26744.48	-81635.2	1	85904.45	-71.86071	1.250608E-009	0.000979	6
	48	68	15.83615	32872.74	-97881.3	1	103253.9	-71.43573	4.022952E-010	0.0009812	6
	49	69	12.40079	42754.27	-120406.7	1	127772.1	-70.45096	1.855765E-009	0.0009889	5
	50	71	9.93114	53165.13	-142445	1	152043.1	-69.53278	6.244157E-010	0.0009916	5
	51	72	7.944915	66927.37	-168991.6	1	181762	-68.39447	2.846675E-010	0.000991	5
	52	74	6.317385	84596.94	-199917	1	217079.4	-67.06385	5.818185E-011	0.0009746	5
	53	76	5.008013	106946.8	-235901.5	1	259011.8	-65.61266	-3.609025E-011	0.0009798	5
	54	79	3.945707	135633.1	-277410.9	1	308793	-63.94483	1.782169E-010	0.0009815	5
	55	81	3.158693	168214	-320351	1	361829.6	-62.29636	3.090052E-010	0.0009822	5
	56	85	2.504006	208590.8	-369701.8	1	424487.4	-60.56771	1.250626E-011	0.0009903	5
	57	87	1.998082	254266.9	-420763.9	1	491623.7	-58.8555	4.673152E-010	0.0009415	5
	58	90	1.584686	308326.7	-478754.8	1	569448.5	-57.21774	1.134854E-012	0.0009801	5
	59	94	1.266892	368984.8	-537257.4	1	651763.2	-55.51898	2.282591E-010	0.0009432	5
	60	98	0.999041	439536	-603645.4	1	746712.6	-53.94029	2.020281E-010	0.0010313	5
