EXPLAIN
TAG	EISPOT
TITLE	LABEL	Potentiostatic EIS	Test &Identifier
DATE	LABEL	9/22/2019	Date
TIME	LABEL	9:38:01	Time
NOTES	NOTES	1	&Notes...
	
PSTAT	PSTAT	REF600-11020	Potentiostat
VDC	POTEN	0.00000E+000	T	DC &Voltage (V)
FREQINIT	QUANT	1.00000E+006	Initial Fre&q. (Hz)
FREQFINAL	QUANT	1.00000E+000	Final Fre&q. (Hz)
PTSPERDEC	QUANT	1.00000E+001	Points/&decade
VAC	QUANT	2.50000E+001	AC &Voltage (mV rms)
AREA	QUANT	1.00000E-002	&Area (cm^2)
CONDIT	TWOPARAM	T	5.00000E+000	0.00000E+000	Conditionin&g	Time(s)	E(V)
DELAY	TWOPARAM	T	5.00000E+000	0.00000E+000	Init. De&lay	Time(s)	Stab.(mV/s)
SPEED	SELECTOR	1	&Optimize for:
ZGUESS	QUANT	1.00000E+004	E&stimated Z (ohms)
OCVCURVE	TABLE	19
	Pt	T	Vf	Vm	Ach	Over
	#	s	V vs. Ref.	V	V	bits
	0	0.258333	5.32383E-003	5.32383E-003	5.69899E-004	...........
	1	0.516667	5.32256E-003	5.25722E-003	5.75332E-004	...........
	2	0.775	5.31480E-003	5.19737E-003	5.74999E-004	...........
	3	1.03333	5.29333E-003	5.15243E-003	5.69899E-004	...........
	4	1.29167	5.25641E-003	5.11291E-003	5.71532E-004	...........
	5	1.55	5.21048E-003	5.08211E-003	5.75066E-004	...........
	6	1.80833	5.16413E-003	5.05127E-003	5.72232E-004	...........
	7	2.06667	5.12255E-003	5.02505E-003	5.72966E-004	...........
	8	2.325	5.08680E-003	5.00112E-003	5.70232E-004	...........
	9	2.58333	5.05585E-003	4.97431E-003	5.71699E-004	...........
	10	2.84167	5.02801E-003	4.94531E-003	5.68032E-004	...........
	11	3.1	5.00168E-003	4.92901E-003	5.71099E-004	...........
	12	3.35833	4.97617E-003	4.90148E-003	5.70666E-004	...........
	13	3.61667	4.95161E-003	4.88103E-003	5.74432E-004	...........
	14	3.875	4.92799E-003	4.85829E-003	5.69832E-004	...........
	15	4.13333	4.90503E-003	4.83768E-003	5.71266E-004	...........
	16	4.39167	4.88258E-003	4.81396E-003	5.66366E-004	...........
	17	4.65	4.86033E-003	4.78679E-003	5.70332E-004	...........
	18	4.90833	4.83772E-003	4.76601E-003	5.71632E-004	...........
EOC	QUANT	0.0048377	Open Circuit (V)
PSTATMODEL	IQUANT	4	Pstat Model
PSTATSECTION	LABEL	REF600-11020	Pstat Section
PSTATSERIALNO	LABEL	11020	Pstat Serial Number
CTRLMODE	IQUANT	1	Control Mode
IESTAB	IQUANT	0	I/E Stability
CASPEED	IQUANT	1	Control Amp Speed
CONVENTION	IQUANT	1	Current Convention
ICHRANGE	IQUANT	2	Ich Range
ICHRANGEMODE	TOGGLE	F	Ich Auto Range
ICHOFFSETENABLE	TOGGLE	T	Ich Offset Enable
ICHOFFSET	QUANT	0	Ich Offset (V)
ICHFILTER	IQUANT	3	Ich Filter
VCHRANGE	IQUANT	2	Vch Range
VCHRANGEMODE	TOGGLE	F	Vch Auto Range
VCHOFFSETENABLE	TOGGLE	T	Vch Offset Enable
VCHOFFSET	QUANT	0	Vch Offset (V)
VCHFILTER	IQUANT	3	Vch Filter
ACHRANGE	IQUANT	2	Ach Range
ACHOFFSETENABLE	TOGGLE	F	Ach Offset Enable
ACHOFFSET	QUANT	0	Ach Offset (V)
ACHFILTER	IQUANT	3	Ach Filter
IERANGELOWERLIMIT	IQUANT	1	I/E Range Lower Limit
IERANGEMODE	TOGGLE	F	I/E AutoRange
IERANGE	IQUANT	5	I/E Range
POSFEEDENABLE	TOGGLE	F	Positive Feedback IR Comp
POSFEEDRESISTANCE	QUANT	0	Positive Feedback Resistance (ohm)
ACHSELECT	IQUANT	0	Ach Select
CABLEID	IQUANT	14	Cable ID
DCCALDATE	LABEL	8/19/2019	DC Calibration Date
ACCALDATE	LABEL	8/19/2019	AC Calibration Date
THERMOSELECT	IQUANT	1	Thermo Select
FRAMEWORKVERSION	QUANT	6.33	Framework Version
INSTRUMENTVERSION	LABEL	3.50	Instrument Version
ZCURVE	TABLE
	Pt	Time	Freq	Zreal	Zimag	Zsig	Zmod	Zphz	Idc	Vdc	IERange
	#	s	Hz	ohm	ohm	V	ohm	°	A	V	#
	0	1	1000078	2373.021	-1760.078	1	2954.506	-36.56446	5.334432E-006	0.0065643	8
	1	3	794390.6	2726.611	-1701.119	1	3213.754	-31.95983	-2.884114E-007	0.0061629	8
	2	4	630984.4	3051.906	-1590.709	1	3441.582	-27.52935	3.930559E-007	0.0063981	8
	3	6	501234.4	3353.006	-1472.005	1	3661.891	-23.70198	-5.850475E-007	0.0066666	8
	4	7	398109.4	3559.429	-1304.698	1	3791.012	-20.13026	-2.237377E-006	0.0066945	8
	5	9	316265.6	3745.582	-1157.654	1	3920.402	-17.1749	-4.517243E-006	0.0074538	8
	6	10	251203.1	3881.713	-1008.843	1	4010.668	-14.56866	-6.486496E-007	0.0066803	8
	7	11	199546.9	3976.798	-886.225	1	4074.349	-12.56302	-4.640453E-007	0.0065569	8
	8	13	158578.1	4072.008	-764.8857	1	4143.223	-10.63847	-2.986364E-006	0.0069963	8
	9	14	125953.1	4166.707	-639.2453	1	4215.457	-8.722163	4.334154E-007	0.0054909	7
	10	15	100078.1	4206.813	-565.4143	1	4244.64	-7.654932	-4.412555E-008	0.0063554	7
	11	17	79453.13	4252.823	-523.8951	1	4284.97	-7.022749	7.970542E-008	0.0061555	7
	12	18	63140.62	4294.517	-497.9037	1	4323.284	-6.613311	-5.070148E-008	0.0064185	7
	13	19	50203.12	4336.332	-483.8943	1	4363.247	-6.367334	-2.66294E-008	0.0063124	7
	14	21	39890.62	4377.946	-481.7235	1	4404.369	-6.279231	8.111964E-008	0.0061522	7
	15	22	31640.63	4420.893	-492.7639	1	4448.271	-6.36008	7.045568E-008	0.0061909	7
	16	24	25171.88	4466.302	-513.2293	1	4495.693	-6.55519	7.171521E-008	0.0061904	7
	17	25	20015.62	4515.66	-544.9017	1	4548.418	-6.880576	-2.552926E-008	0.006309	7
	18	26	15890.62	4566.662	-588.6054	1	4604.439	-7.344465	-4.604142E-008	0.0064639	7
	19	28	12609.37	4623.129	-644.0556	1	4667.776	-7.930923	3.490085E-008	0.0062741	7
	20	29	10078.13	4682.104	-711.2834	1	4735.823	-8.638062	-4.844177E-008	0.006412	7
	21	30	8015.625	4749.036	-795.2463	1	4815.159	-9.50622	3.526651E-008	0.0062691	7
	22	32	6328.125	4820.419	-899.8444	1	4903.688	-10.5739	1.333158E-007	0.0061165	7
	23	33	5015.625	4896.866	-1026.49	1	5003.296	-11.83903	-1.341044E-008	0.0063659	7
	24	34	3984.375	4979.499	-1175.051	1	5116.263	-13.27763	-8.609764E-009	0.0063634	7
	25	36	3170.956	5067.759	-1358.629	1	5246.718	-15.00767	-2.428693E-008	0.0063011	7
	26	37	2527.573	5162.454	-1580.148	1	5398.87	-17.01854	-4.00047E-008	0.0063326	7
	27	39	1976.103	5279.831	-1874.528	1	5602.72	-19.54667	-4.874339E-008	0.0064097	7
	28	40	1577.524	5395.409	-2205.737	1	5828.869	-22.23559	7.565328E-008	0.0062853	7
	29	41	1265.625	5522.983	-2597.668	1	6103.378	-25.18938	-6.601686E-009	0.0063558	7
	30	43	998.264	5681.925	-3105.992	1	6475.451	-28.66297	-8.649018E-009	0.0063548	7
	31	44	796.875	5854.027	-3701.166	1	6925.912	-32.30283	-2.370124E-008	0.0062991	7
	32	45	627.7902	6056.283	-4471.54	1	7528.163	-36.43959	7.084861E-008	0.0061811	7
	33	47	505.5147	6269.776	-5328.421	1	8228.133	-40.35983	-6.048509E-009	0.0062602	7
	34	48	397.9953	6530.474	-6483.854	1	9202.579	-44.79475	3.326172E-009	0.0063348	7
	35	50	315.5048	6830.926	-7871.941	1	10422.52	-49.04998	1.727623E-009	0.0062734	6
	36	51	252.4038	7165.469	-9515.53	1	11911.73	-53.0192	6.421558E-010	0.0062704	6
	37	52	198.6229	7593.571	-11698.52	1	13946.96	-57.01218	9.430234E-010	0.0062693	6
	38	54	158.3615	8091.775	-14251.58	1	16388.54	-60.41291	1.390254E-009	0.0062702	6
	39	55	125.558	8724.794	-17483.58	1	19539.64	-63.47952	1.031324E-009	0.006275	6
	40	56	100.4464	9501.34	-21312.62	1	23334.59	-65.9723	1.139088E-009	0.0062663	6
	41	58	79.00281	10566.41	-26298.14	1	28341.51	-68.11008	1.106726E-009	0.0062715	6
	42	59	63.3446	12075.12	-31931.48	1	34138.36	-69.28552	8.692534E-010	0.0062634	6
	43	61	49.86702	13621.11	-39719.31	1	41989.98	-71.0714	3.766879E-010	0.0062633	6
	44	62	39.72458	15980.97	-48302.7	1	50877.71	-71.69318	8.892529E-010	0.0062742	6
	45	63	31.6723	19102.61	-58644.28	1	61677.07	-71.95766	1.139734E-009	0.0062696	6
	46	65	24.93351	23302.46	-72134.77	1	75805.21	-72.09744	1.043939E-009	0.0062641	6
	47	66	19.86229	28614.39	-87313.92	1	91883.1	-71.85507	1.1043E-009	0.0062646	6
	48	67	15.83615	35422.23	-105071.5	1	110881.7	-71.36976	7.08681E-010	0.0062695	5
	49	69	12.40079	45199.63	-129089.4	1	136773.8	-70.7027	2.331235E-010	0.0062744	5
	50	70	9.93114	56764.86	-152840.4	1	163041.3	-69.62503	1.105109E-009	0.0062665	5
	51	72	7.944915	71055.77	-181462.9	1	194878.7	-68.61609	4.941907E-010	0.0062663	5
	52	74	6.317385	89803.78	-214518.1	1	232556.9	-67.28433	1.025518E-009	0.0062674	5
	53	76	5.008013	113441.7	-253345.9	1	277584.5	-65.87842	7.34802E-010	0.0062761	5
	54	78	3.945707	143530.5	-298372.5	1	331099.9	-64.31037	3.10449E-010	0.0062667	5
	55	81	3.158693	177215.9	-345260.7	1	388085.6	-62.82941	6.579737E-010	0.006293	5
	56	84	2.504006	219668.5	-400301.5	1	456613.1	-61.24388	1.762397E-010	0.0062613	5
	57	87	1.998082	267920.9	-458348.8	1	530909.8	-59.69222	2.514315E-010	0.0062602	5
	58	90	1.584686	326043.7	-522997.2	1	616303.9	-58.06002	3.700873E-010	0.0063199	5
	59	94	1.266892	391085.1	-592918.5	1	710281.6	-56.59142	2.217907E-010	0.0062646	5
	60	98	0.999041	470563.2	-670294.5	1	818977.6	-54.93021	7.721014E-010	0.006292	5
