EXPLAIN
TAG	EISPOT
TITLE	LABEL	Potentiostatic IDE	Test &Identifier
DATE	LABEL	9/18/2019	Date
TIME	LABEL	8:34:35	Time
NOTES	NOTES	1	&Notes...
	
PSTAT	PSTAT	REF600-11020	Potentiostat
VDC	POTEN	0.00000E+000	T	DC &Voltage (V)
FREQINIT	QUANT	1.00000E+006	Initial Fre&q. (Hz)
FREQFINAL	QUANT	1.00000E+000	Final Fre&q. (Hz)
PTSPERDEC	QUANT	1.00000E+001	Points/&decade
VAC	QUANT	2.50000E+001	AC &Voltage (mV rms)
AREA	QUANT	1.00000E-002	&Area (cm^2)
CONDIT	TWOPARAM	T	5.00000E+000	0.00000E+000	Conditionin&g	Time(s)	E(V)
DELAY	TWOPARAM	T	5.00000E+000	0.00000E+000	Init. De&lay	Time(s)	Stab.(mV/s)
SPEED	SELECTOR	1	&Optimize for:
ZGUESS	QUANT	1.00000E+007	E&stimated Z (ohms)
OCVCURVE	TABLE	19
	Pt	T	Vf	Vm	Ach	Over
	#	s	V vs. Ref.	V	V	bits
	0	0.258333	1.82521E-002	1.82521E-002	5.55333E-004	...........
	1	0.516667	1.82749E-002	1.94411E-002	5.54633E-004	...........
	2	0.775	1.84115E-002	2.04199E-002	5.55399E-004	...........
	3	1.03333	1.87828E-002	2.10520E-002	5.54966E-004	...........
	4	1.29167	1.93976E-002	2.13635E-002	5.56866E-004	...........
	5	1.55	2.01218E-002	2.22156E-002	5.61832E-004	...........
	6	1.80833	2.08231E-002	2.26681E-002	5.61899E-004	...........
	7	2.06667	2.14685E-002	2.33739E-002	5.58366E-004	...........
	8	2.325	2.20849E-002	2.40661E-002	5.57566E-004	...........
	9	2.58333	2.27039E-002	2.47255E-002	5.59099E-004	...........
	10	2.84167	2.33419E-002	2.53211E-002	5.55033E-004	...........
	11	3.1	2.39855E-002	2.55680E-002	5.54366E-004	...........
	12	3.35833	2.45951E-002	2.61974E-002	5.58999E-004	...........
	13	3.61667	2.51580E-002	2.73801E-002	5.56333E-004	...........
	14	3.875	2.57263E-002	2.75103E-002	5.59766E-004	...........
	15	4.13333	2.63371E-002	2.79652E-002	5.52766E-004	...........
	16	4.39167	2.69402E-002	2.83636E-002	5.49133E-004	...........
	17	4.65	2.74698E-002	2.86830E-002	5.58299E-004	...........
	18	4.90833	2.79191E-002	2.91357E-002	5.53933E-004	...........
EOC	QUANT	0.0279191	Open Circuit (V)
PSTATMODEL	IQUANT	4	Pstat Model
PSTATSECTION	LABEL	REF600-11020	Pstat Section
PSTATSERIALNO	LABEL	11020	Pstat Serial Number
CTRLMODE	IQUANT	1	Control Mode
IESTAB	IQUANT	0	I/E Stability
CASPEED	IQUANT	1	Control Amp Speed
CONVENTION	IQUANT	1	Current Convention
ICHRANGE	IQUANT	2	Ich Range
ICHRANGEMODE	TOGGLE	F	Ich Auto Range
ICHOFFSETENABLE	TOGGLE	T	Ich Offset Enable
ICHOFFSET	QUANT	0	Ich Offset (V)
ICHFILTER	IQUANT	3	Ich Filter
VCHRANGE	IQUANT	2	Vch Range
VCHRANGEMODE	TOGGLE	F	Vch Auto Range
VCHOFFSETENABLE	TOGGLE	T	Vch Offset Enable
VCHOFFSET	QUANT	0	Vch Offset (V)
VCHFILTER	IQUANT	3	Vch Filter
ACHRANGE	IQUANT	2	Ach Range
ACHOFFSETENABLE	TOGGLE	F	Ach Offset Enable
ACHOFFSET	QUANT	0	Ach Offset (V)
ACHFILTER	IQUANT	3	Ach Filter
IERANGELOWERLIMIT	IQUANT	1	I/E Range Lower Limit
IERANGEMODE	TOGGLE	F	I/E AutoRange
IERANGE	IQUANT	3	I/E Range
POSFEEDENABLE	TOGGLE	F	Positive Feedback IR Comp
POSFEEDRESISTANCE	QUANT	0	Positive Feedback Resistance (ohm)
ACHSELECT	IQUANT	0	Ach Select
CABLEID	IQUANT	14	Cable ID
DCCALDATE	LABEL	8/19/2019	DC Calibration Date
ACCALDATE	LABEL	8/19/2019	AC Calibration Date
THERMOSELECT	IQUANT	1	Thermo Select
FRAMEWORKVERSION	QUANT	6.33	Framework Version
INSTRUMENTVERSION	LABEL	3.50	Instrument Version
ZCURVE	TABLE
	Pt	Time	Freq	Zreal	Zimag	Zsig	Zmod	Zphz	Idc	Vdc	IERange
	#	s	Hz	ohm	ohm	V	ohm	°	A	V	#
	0	2	1000078	2313.393	-1406.834	1	2707.576	-31.30486	4.50547E-006	0.0299756	8
	1	4	794390.6	2575.39	-1299.026	1	2884.458	-26.76636	-1.026027E-006	0.0296917	8
	2	5	630984.4	2793.108	-1149.739	1	3020.489	-22.37374	-9.97911E-007	0.030022	8
	3	6	501234.4	2947.301	-1012.602	1	3116.399	-18.96115	-2.562495E-006	0.0302469	8
	4	8	398109.4	3080.488	-878.8434	1	3203.4	-15.92311	-2.404712E-006	0.0301686	8
	5	9	316265.6	3182.537	-739.0526	1	3267.222	-13.07358	-2.015054E-006	0.0300313	8
	6	10	251203.1	3250.73	-663.4223	1	3317.737	-11.53475	4.806651E-008	0.029611	8
	7	12	199546.9	3303.025	-566.8145	1	3351.306	-9.73738	-2.76686E-007	0.0296186	8
	8	13	158578.1	3345.289	-502.8602	1	3382.872	-8.548635	1.592821E-006	0.0292349	8
	9	14	125953.1	3402.525	-433.3198	1	3430.007	-7.257687	-5.637845E-007	0.0311022	7
	10	16	100078.1	3432.997	-397.042	1	3455.881	-6.597211	-1.206025E-008	0.0295438	7
	11	17	79453.13	3464.475	-381.5809	1	3485.426	-6.285283	-1.971916E-008	0.0295592	7
	12	18	63140.62	3496.99	-375.5925	1	3517.102	-6.130325	-8.536341E-009	0.0295435	7
	13	20	50203.12	3530.319	-377.0681	1	3550.399	-6.096562	-3.431798E-008	0.0295579	7
	14	21	39890.62	3564.542	-386.3455	1	3585.418	-6.185897	3.688552E-008	0.0295075	7
	15	22	31640.63	3601.966	-404.4929	1	3624.606	-6.407347	1.120387E-008	0.029553	7
	16	24	25171.88	3641.25	-431.004	1	3666.669	-6.750523	-1.698749E-008	0.0295139	7
	17	25	20015.62	3684.492	-465.9026	1	3713.832	-7.20678	9.258296E-009	0.0294633	7
	18	26	15890.62	3734.529	-509.6725	1	3769.147	-7.771471	-1.675931E-008	0.0295168	7
	19	28	12609.37	3783.171	-564.938	1	3825.12	-8.493175	-3.834509E-008	0.0296221	7
	20	29	10078.13	3836.167	-629.0657	1	3887.403	-9.312645	2.895315E-008	0.0295051	7
	21	30	8015.625	3896.698	-704.6034	1	3959.889	-10.24951	-3.063706E-009	0.0294715	7
	22	32	6328.125	3964.04	-800.7793	1	4044.114	-11.42067	-2.01754E-008	0.029516	7
	23	33	5015.625	4035.233	-913.696	1	4137.384	-12.75832	-5.215789E-008	0.0295908	7
	24	34	3984.375	4111.348	-1049.494	1	4243.185	-14.31994	3.2999E-008	0.0294449	7
	25	36	3170.956	4194.43	-1211.025	1	4365.756	-16.1046	-1.580763E-008	0.0295505	7
	26	37	2527.573	4284.132	-1403.687	1	4508.229	-18.14128	-1.936748E-008	0.0295202	7
	27	38	1976.103	4390.314	-1657.589	1	4692.809	-20.68433	5.766176E-008	0.0293771	7
	28	40	1577.524	4495.046	-1943.972	1	4897.394	-23.38703	-3.45977E-008	0.0296196	7
	29	41	1265.625	4606.207	-2278.616	1	5138.991	-26.32085	3.824504E-008	0.0295023	7
	30	42	998.264	4736.023	-2722.509	1	5462.78	-29.8925	-5.054586E-008	0.0295988	7
	31	44	796.875	4870.812	-3243.126	1	5851.724	-33.65681	6.886057E-009	0.0294819	7
	32	45	627.7902	5025.956	-3926.011	1	6377.602	-37.99508	1.217967E-008	0.0294544	7
	33	46	505.5147	5182.164	-4696.637	1	6993.799	-42.18627	1.503155E-008	0.0295492	7
	34	48	397.9953	5380.243	-5746.588	1	7872.121	-46.88575	5.054369E-009	0.02954	7
	35	49	315.5048	5610.934	-7021.572	1	8988.05	-51.37167	5.375988E-009	0.0295393	7
	36	50	252.4038	5881.96	-8536.329	1	10366.6	-55.43121	3.075303E-010	0.0294689	6
	37	52	198.6229	6244.072	-10553.13	1	12262.01	-59.38806	-1.960243E-010	0.0294727	6
	38	53	158.3615	6678.354	-12912.9	1	14537.65	-62.65268	1.604175E-010	0.0294682	6
	39	54	125.558	7254.286	-15889.12	1	17466.79	-65.46062	-1.455551E-010	0.0294717	6
	40	56	100.4464	7956.328	-19407.8	1	20975.37	-67.70857	-8.369042E-012	0.0294688	6
	41	57	79.00281	8947.131	-24037.74	1	25648.86	-69.58414	-2.778087E-010	0.0294718	6
	42	58	63.3446	10328.83	-29163.93	1	30938.96	-70.49767	-1.740112E-010	0.0294719	6
	43	60	49.86702	11929.29	-36244.55	1	38157.25	-71.7819	-4.613082E-010	0.0294694	6
	44	61	39.72458	14216.42	-44066.94	1	46303.37	-72.1198	4.148912E-011	0.0294736	6
	45	62	31.6723	17062.72	-53612.46	1	56262.18	-72.34579	-1.280622E-010	0.0294686	6
	46	64	24.93351	21265.22	-65728.84	1	69083.2	-72.07207	-3.396526E-010	0.029467	6
	47	65	19.86229	26367.41	-79513.2	1	83771.05	-71.65394	-9.976886E-010	0.0294655	6
	48	66	15.83615	33648.16	-95224.5	1	100994.6	-70.53883	-1.552289E-009	0.0294649	6
	49	68	12.40079	43239.87	-115708.9	1	123524.3	-69.50953	6.98067E-010	0.0294729	5
	50	69	9.93114	53798.46	-137436.7	1	147591	-68.62254	-2.231432E-010	0.0294795	5
	51	71	7.944915	67821.35	-162057.6	1	175677	-67.29061	-2.318512E-010	0.0294782	5
	52	72	6.317385	85511.71	-190654.3	1	208952.9	-65.84295	-4.638068E-010	0.029473	5
	53	74	5.008013	107646.8	-223641.8	1	248200.5	-64.29682	-5.529264E-010	0.0294799	5
	54	77	3.945707	135411.9	-261334.8	1	294333.6	-62.60886	-1.14377E-009	0.0294701	5
	55	79	3.158693	166747.9	-300103.8	1	343317.9	-60.94195	-7.643255E-010	0.0294745	5
	56	83	2.504006	205266.1	-344615.6	1	401116	-59.22037	-1.219357E-009	0.0294794	5
	57	86	1.998082	248185.8	-390570.3	1	462754.1	-57.5663	-7.046261E-010	0.0294265	5
	58	89	1.584686	298720.6	-443765.3	1	534940.8	-56.05353	-9.908983E-010	0.0294361	5
	59	92	1.266892	353526.4	-496208.3	1	609264.8	-54.53181	-6.050968E-010	0.0294337	5
	60	97	0.999041	417481.4	-559384.8	1	697998.6	-53.26519	-1.008511E-009	0.0294905	5
