EXPLAIN
TAG	EISPOT
TITLE	LABEL	Potentiostatic EIS	Test &Identifier
DATE	LABEL	11/11/2019	Date
TIME	LABEL	13:07:44	Time
NOTES	NOTES	3	&Notes...
	
	
	
PSTAT	PSTAT	REF600-11020	Potentiostat
VDC	POTEN	0.00000E+000	T	DC &Voltage (V)
FREQINIT	QUANT	1.00000E+006	Initial Fre&q. (Hz)
FREQFINAL	QUANT	1.00000E+000	Final Fre&q. (Hz)
PTSPERDEC	QUANT	1.00000E+001	Points/&decade
VAC	QUANT	2.50000E+001	AC &Voltage (mV rms)
AREA	QUANT	1.00000E-002	&Area (cm^2)
CONDIT	TWOPARAM	T	5.00000E+000	0.00000E+000	Conditionin&g	Time(s)	E(V)
DELAY	TWOPARAM	T	5.00000E+000	0.00000E+000	Init. De&lay	Time(s)	Stab.(mV/s)
SPEED	SELECTOR	1	&Optimize for:
ZGUESS	QUANT	1.00000E+005	E&stimated Z (ohms)
OCVCURVE	TABLE	19
	Pt	T	Vf	Vm	Ach	Over
	#	s	V vs. Ref.	V	V	bits
	0	0.258333	6.97944E-003	6.97944E-003	5.22900E-004	...........
	1	0.516667	6.98087E-003	7.05406E-003	5.23166E-004	...........
	2	0.775	6.99286E-003	7.29413E-003	5.27366E-004	...........
	3	1.03333	7.03782E-003	7.53988E-003	5.25633E-004	...........
	4	1.29167	7.13868E-003	7.68785E-003	5.20766E-004	...........
	5	1.55	7.29335E-003	7.81524E-003	5.19166E-004	...........
	6	1.80833	7.47100E-003	7.88560E-003	5.22033E-004	...........
	7	2.06667	7.62810E-003	7.54279E-003	5.14733E-004	...........
	8	2.325	7.72134E-003	7.66600E-003	5.14866E-004	...........
	9	2.58333	7.73716E-003	7.73234E-003	5.16133E-004	...........
	10	2.84167	7.71407E-003	7.76774E-003	5.12000E-004	...........
	11	3.1	7.70461E-003	7.88114E-003	5.16433E-004	...........
	12	3.35833	7.73262E-003	8.05338E-003	5.17966E-004	...........
	13	3.61667	7.79981E-003	8.15463E-003	5.15266E-004	...........
	14	3.875	7.89872E-003	8.22936E-003	5.15666E-004	...........
	15	4.13333	8.01098E-003	8.25104E-003	5.20666E-004	...........
	16	4.39167	8.11390E-003	8.30997E-003	5.20900E-004	...........
	17	4.65	8.19523E-003	8.37597E-003	5.22533E-004	...........
	18	4.90833	8.25834E-003	8.41664E-003	5.22333E-004	...........
EOC	QUANT	0.0082583	Open Circuit (V)
PSTATMODEL	IQUANT	4	Pstat Model
PSTATSECTION	LABEL	REF600-11020	Pstat Section
PSTATSERIALNO	LABEL	11020	Pstat Serial Number
CTRLMODE	IQUANT	1	Control Mode
IESTAB	IQUANT	0	I/E Stability
CASPEED	IQUANT	1	Control Amp Speed
CONVENTION	IQUANT	1	Current Convention
ICHRANGE	IQUANT	2	Ich Range
ICHRANGEMODE	TOGGLE	F	Ich Auto Range
ICHOFFSETENABLE	TOGGLE	T	Ich Offset Enable
ICHOFFSET	QUANT	0	Ich Offset (V)
ICHFILTER	IQUANT	3	Ich Filter
VCHRANGE	IQUANT	2	Vch Range
VCHRANGEMODE	TOGGLE	F	Vch Auto Range
VCHOFFSETENABLE	TOGGLE	T	Vch Offset Enable
VCHOFFSET	QUANT	0	Vch Offset (V)
VCHFILTER	IQUANT	3	Vch Filter
ACHRANGE	IQUANT	2	Ach Range
ACHOFFSETENABLE	TOGGLE	F	Ach Offset Enable
ACHOFFSET	QUANT	0	Ach Offset (V)
ACHFILTER	IQUANT	3	Ach Filter
IERANGELOWERLIMIT	IQUANT	1	I/E Range Lower Limit
IERANGEMODE	TOGGLE	F	I/E AutoRange
IERANGE	IQUANT	5	I/E Range
POSFEEDENABLE	TOGGLE	F	Positive Feedback IR Comp
POSFEEDRESISTANCE	QUANT	0	Positive Feedback Resistance (ohm)
ACHSELECT	IQUANT	0	Ach Select
CABLEID	IQUANT	14	Cable ID
DCCALDATE	LABEL	8/19/2019	DC Calibration Date
ACCALDATE	LABEL	8/19/2019	AC Calibration Date
THERMOSELECT	IQUANT	1	Thermo Select
FRAMEWORKVERSION	QUANT	6.33	Framework Version
INSTRUMENTVERSION	LABEL	3.50	Instrument Version
ZCURVE	TABLE
	Pt	Time	Freq	Zreal	Zimag	Zsig	Zmod	Zphz	Idc	Vdc	IERange
	#	s	Hz	ohm	ohm	V	ohm	°	A	V	#
	0	2	1000078	2381.697	-1527.016	1	2829.18	-32.66581	-3.69434E-006	0.0102175	8
	1	4	794390.6	2676.461	-1426.893	1	3033.063	-28.06327	1.036521E-006	0.009725	8
	2	5	630984.4	2941.086	-1307.266	1	3218.529	-23.96439	-6.588434E-006	0.0108666	8
	3	6	501234.4	3150.381	-1173.6	1	3361.88	-20.43168	6.87073E-006	0.0091191	8
	4	8	398109.4	3316.153	-1021.3	1	3469.859	-17.11765	5.035623E-006	0.0091097	8
	5	9	316265.6	3438.953	-887.5432	1	3551.638	-14.47141	-2.282987E-006	0.0099304	8
	6	10	251203.1	3541.233	-774.007	1	3624.833	-12.32924	5.466757E-006	0.0091122	8
	7	12	199546.9	3611.648	-652.7393	1	3670.159	-10.24458	-2.326575E-006	0.0096847	8
	8	13	158578.1	3678.669	-579.1612	1	3723.981	-8.947076	-6.940856E-007	0.0101656	8
	9	14	125953.1	3736.23	-436.3474	1	3761.624	-6.661292	-2.542632E-006	0.011841	7
	10	16	100078.1	3761.166	-396.2005	1	3781.977	-6.01335	9.245517E-007	0.0090899	7
	11	17	79453.13	3796.412	-362.762	1	3813.704	-5.458263	-1.118147E-006	0.0110651	7
	12	18	63140.62	3825.26	-347.967	1	3841.054	-5.197638	8.941554E-007	0.0082001	7
	13	20	50203.12	3850.228	-338.3306	1	3865.064	-5.021846	-8.205954E-007	0.0112723	7
	14	21	39890.62	3877.042	-337.9555	1	3891.744	-4.981789	-9.529604E-007	0.0102071	7
	15	22	31640.63	3906.301	-346.7946	1	3921.665	-5.073318	-6.621473E-007	0.009587	7
	16	24	25171.88	3936.051	-365.8055	1	3953.013	-5.309655	7.589683E-007	0.0095354	7
	17	25	20015.62	3967.351	-393.054	1	3986.773	-5.657954	5.563235E-007	0.0099249	7
	18	26	15890.62	3997.845	-429.009	1	4020.797	-6.124976	6.619573E-008	0.010611	7
	19	28	12609.37	4031.273	-477.9909	1	4059.512	-6.762029	-6.613831E-007	0.0095828	7
	20	29	10078.13	4066.941	-537.4388	1	4102.298	-7.527914	4.469773E-007	0.0082084	7
	21	31	8015.625	4104.657	-610.9873	1	4149.881	-8.466439	-9.532807E-007	0.0102021	7
	22	32	6328.125	4146.384	-710.2397	1	4206.773	-9.71994	-9.507694E-007	0.0101876	7
	23	33	5015.625	4192.856	-832.6202	1	4274.728	-11.23172	7.109086E-007	0.0081101	7
	24	35	3984.375	4241.59	-979.023	1	4353.111	-12.99711	9.262786E-007	0.0090821	7
	25	36	3170.956	4295.48	-1164.972	1	4450.652	-15.17411	4.459943E-007	0.008211	7
	26	37	2527.573	4356.594	-1387.058	1	4572.072	-17.6605	-9.508038E-007	0.0101908	7
	27	39	1976.103	4436.606	-1689.971	1	4747.576	-20.8526	5.576377E-007	0.0099154	7
	28	40	1577.524	4518.258	-2031.995	1	4954.156	-24.21487	-2.732724E-007	0.0089463	7
	29	41	1265.625	4619.834	-2427.234	1	5218.652	-27.71717	-8.170809E-007	0.0112556	7
	30	43	998.264	4743.741	-2957.093	1	5589.944	-31.93807	6.671664E-008	0.0105991	7
	31	44	796.875	4883.225	-3571.007	1	6049.626	-36.17728	7.613436E-007	0.0095201	7
	32	45	627.7902	5059.533	-4367.662	1	6683.962	-40.80253	6.635548E-008	0.0106056	7
	33	47	505.5147	5244.21	-5248.309	1	7419.333	-45.02238	-9.964564E-007	0.0112044	7
	34	48	397.9953	5483.312	-6452.004	1	8467.294	-49.64006	2.617231E-009	0.009761	7
	35	50	315.5048	5765.512	-7890.509	1	9772.47	-53.8448	4.575553E-009	0.0097561	7
	36	51	252.4038	6099.293	-9587.63	1	11363.28	-57.537	9.916159E-010	0.0096908	6
	37	52	198.6229	6535.212	-11839.43	1	13523.35	-61.10186	4.566392E-010	0.0097002	6
	38	54	158.3615	7055.537	-14462.54	1	16091.79	-63.99462	4.396895E-010	0.0096858	6
	39	55	125.558	7732.384	-17770.29	1	19379.71	-66.48471	1.188635E-009	0.0096931	6
	40	56	100.4464	8593.427	-21658.12	1	23300.67	-68.358	8.109228E-010	0.0096931	6
	41	58	79.00281	9705.36	-26774.52	1	28479.27	-70.07517	9.119152E-010	0.0096834	6
	42	59	63.3446	10981.37	-32716.66	1	34510.43	-71.44563	6.714137E-010	0.0096866	6
	43	60	49.86702	13362.54	-40035.56	1	42206.68	-71.5427	2.633944E-010	0.0096823	6
	44	62	39.72458	15808.94	-48977.79	1	51465.97	-72.11108	3.430915E-010	0.0096939	6
	45	63	31.6723	19129.06	-59291.37	1	62300.79	-72.11884	-1.385549E-010	0.0096935	6
	46	65	24.93351	23928.31	-72711.23	1	76547.29	-71.7843	-1.276782E-010	0.0096939	6
	47	66	19.86229	29860.69	-87799.77	1	92738.66	-71.21684	8.630213E-010	0.0096885	6
	48	67	15.83615	37223.7	-104792	1	111206.8	-70.44419	8.665776E-010	0.0097003	5
	49	69	12.40079	49557.54	-127071.7	1	136393.4	-68.69438	-8.117308E-010	0.0096921	5
	50	70	9.93114	61843.27	-150475.1	1	162687.9	-67.65799	-2.053041E-010	0.0096879	5
	51	72	7.944915	78416.57	-176867	1	193471.1	-66.0892	-3.08588E-011	0.0096841	5
	52	73	6.317385	98409.5	-206211.6	1	228490	-64.48832	-2.927792E-010	0.0097126	5
	53	75	5.008013	123816.6	-239571.2	1	269675.6	-62.66891	4.321807E-011	0.0097	5
	54	78	3.945707	153838.8	-276472.7	1	316391.5	-60.90695	3.489561E-010	0.0097015	5
	55	80	3.158693	186686.3	-314110.4	1	365399.9	-59.27557	6.390481E-011	0.0097078	5
	56	84	2.504006	224398.4	-357088.5	1	421742.7	-57.85429	-4.346231E-011	0.009685	5
	57	86	1.998082	263930.9	-403174.3	1	481880.8	-56.78995	-2.211026E-010	0.0096954	5
	58	90	1.584686	309414.6	-455991.5	1	551058.6	-55.84101	1.017509E-010	0.0097451	5
	59	93	1.266892	353602.9	-514674.7	1	624439.8	-55.50932	-1.994777E-010	0.0096962	5
	60	98	0.999041	406381.9	-588061.9	1	714816.8	-55.35348	2.622609E-010	0.0097096	5
