EXPLAIN
TAG	EISPOT
TITLE	LABEL	Potentiostatic EIS	Test &Identifier
DATE	LABEL	9/26/2019	Date
TIME	LABEL	10:23:01	Time
NOTES	NOTES	2	&Notes...
	
	
PSTAT	PSTAT	REF600-11020	Potentiostat
VDC	POTEN	0.00000E+000	T	DC &Voltage (V)
FREQINIT	QUANT	1.00000E+006	Initial Fre&q. (Hz)
FREQFINAL	QUANT	1.00000E+000	Final Fre&q. (Hz)
PTSPERDEC	QUANT	1.00000E+001	Points/&decade
VAC	QUANT	2.50000E+001	AC &Voltage (mV rms)
AREA	QUANT	1.00000E-002	&Area (cm^2)
CONDIT	TWOPARAM	T	5.00000E+000	0.00000E+000	Conditionin&g	Time(s)	E(V)
DELAY	TWOPARAM	T	5.00000E+000	0.00000E+000	Init. De&lay	Time(s)	Stab.(mV/s)
SPEED	SELECTOR	1	&Optimize for:
ZGUESS	QUANT	1.00000E+004	E&stimated Z (ohms)
OCVCURVE	TABLE	19
	Pt	T	Vf	Vm	Ach	Over
	#	s	V vs. Ref.	V	V	bits
	0	0.258333	3.88757E-002	3.88757E-002	5.65099E-004	...........
	1	0.516667	3.89233E-002	4.13685E-002	5.61132E-004	...........
	2	0.775	3.92145E-002	4.36673E-002	5.57366E-004	...........
	3	1.03333	4.00330E-002	4.58076E-002	5.61266E-004	...........
	4	1.29167	4.14825E-002	4.77854E-002	5.59366E-004	...........
	5	1.55	4.33822E-002	4.96520E-002	5.61932E-004	...........
	6	1.80833	4.54490E-002	5.13874E-002	5.63732E-004	...........
	7	2.06667	4.74815E-002	5.30413E-002	5.63132E-004	...........
	8	2.325	4.93950E-002	5.45911E-002	5.65166E-004	...........
	9	2.58333	5.11778E-002	5.60670E-002	5.64966E-004	...........
	10	2.84167	5.28450E-002	5.74682E-002	5.65232E-004	...........
	11	3.1	5.44144E-002	5.87980E-002	5.70732E-004	...........
	12	3.35833	5.58993E-002	6.00669E-002	5.70866E-004	...........
	13	3.61667	5.73088E-002	6.12861E-002	5.70432E-004	...........
	14	3.875	5.86499E-002	6.24385E-002	5.73132E-004	...........
	15	4.13333	5.99283E-002	6.35535E-002	5.68599E-004	...........
	16	4.39167	6.11487E-002	6.46120E-002	5.62532E-004	...........
	17	4.65	6.23149E-002	6.56380E-002	5.76432E-004	...........
	18	4.90833	6.34312E-002	6.66256E-002	5.66532E-004	...........
EOC	QUANT	0.0634312	Open Circuit (V)
PSTATMODEL	IQUANT	4	Pstat Model
PSTATSECTION	LABEL	REF600-11020	Pstat Section
PSTATSERIALNO	LABEL	11020	Pstat Serial Number
CTRLMODE	IQUANT	1	Control Mode
IESTAB	IQUANT	0	I/E Stability
CASPEED	IQUANT	1	Control Amp Speed
CONVENTION	IQUANT	1	Current Convention
ICHRANGE	IQUANT	2	Ich Range
ICHRANGEMODE	TOGGLE	F	Ich Auto Range
ICHOFFSETENABLE	TOGGLE	T	Ich Offset Enable
ICHOFFSET	QUANT	0	Ich Offset (V)
ICHFILTER	IQUANT	3	Ich Filter
VCHRANGE	IQUANT	2	Vch Range
VCHRANGEMODE	TOGGLE	F	Vch Auto Range
VCHOFFSETENABLE	TOGGLE	T	Vch Offset Enable
VCHOFFSET	QUANT	0	Vch Offset (V)
VCHFILTER	IQUANT	3	Vch Filter
ACHRANGE	IQUANT	2	Ach Range
ACHOFFSETENABLE	TOGGLE	F	Ach Offset Enable
ACHOFFSET	QUANT	0	Ach Offset (V)
ACHFILTER	IQUANT	3	Ach Filter
IERANGELOWERLIMIT	IQUANT	1	I/E Range Lower Limit
IERANGEMODE	TOGGLE	F	I/E AutoRange
IERANGE	IQUANT	7	I/E Range
POSFEEDENABLE	TOGGLE	F	Positive Feedback IR Comp
POSFEEDRESISTANCE	QUANT	0	Positive Feedback Resistance (ohm)
ACHSELECT	IQUANT	0	Ach Select
CABLEID	IQUANT	14	Cable ID
DCCALDATE	LABEL	8/19/2019	DC Calibration Date
ACCALDATE	LABEL	8/19/2019	AC Calibration Date
THERMOSELECT	IQUANT	1	Thermo Select
FRAMEWORKVERSION	QUANT	6.33	Framework Version
INSTRUMENTVERSION	LABEL	3.50	Instrument Version
ZCURVE	TABLE
	Pt	Time	Freq	Zreal	Zimag	Zsig	Zmod	Zphz	Idc	Vdc	IERange
	#	s	Hz	ohm	ohm	V	ohm	°	A	V	#
	0	2	1000078	1923.158	-2037.707	1	2801.926	-46.65654	-6.340861E-007	0.0658068	8
	1	3	794390.6	2289.41	-2167.188	1	3152.476	-43.42906	-3.892626E-006	0.0660416	8
	2	5	630984.4	2713.346	-2282.034	1	3545.409	-40.06519	-2.848834E-006	0.0658445	8
	3	6	501234.4	3153.49	-2326.074	1	3918.561	-36.41318	1.433479E-006	0.0649627	8
	4	8	398109.4	3604.754	-2370.133	1	4314.138	-33.325	-3.808358E-008	0.0651883	8
	5	10	316265.6	4037.443	-2308.36	1	4650.75	-29.75825	1.117977E-006	0.0648917	8
	6	11	251203.1	4459.491	-2192.145	1	4969.161	-26.17728	4.66297E-006	0.0642822	8
	7	13	199546.9	4832.225	-2034.648	1	5243.109	-22.83392	-3.249946E-006	0.0657763	8
	8	14	158578.1	5147.538	-1888.616	1	5483.066	-20.14793	9.980637E-007	0.0650832	8
	9	16	125953.1	5483.288	-1619.189	1	5717.361	-16.45163	5.979409E-007	0.063846	7
	10	17	100078.1	5696.025	-1442.118	1	5875.747	-14.20758	4.327229E-008	0.0650074	7
	11	19	79453.13	5878.51	-1280.739	1	6016.409	-12.29085	7.180119E-008	0.0649455	7
	12	20	63140.62	6003.868	-1174.88	1	6117.743	-11.07213	1.745176E-007	0.0650386	8
	13	21	50203.12	6141.048	-1007.229	1	6223.101	-9.314481	6.96587E-008	0.0649421	7
	14	23	39890.62	6235.254	-903.1978	1	6300.33	-8.242161	6.967822E-008	0.0649435	7
	15	24	31640.63	6311.794	-815.834	1	6364.301	-7.36496	-4.506164E-008	0.065075	7
	16	26	25171.88	6379.76	-754.7155	1	6424.246	-6.746644	8.268827E-008	0.0648808	7
	17	27	20015.62	6437.795	-715.2459	1	6477.405	-6.339623	8.218476E-008	0.0648767	7
	18	28	15890.62	6489.509	-698.6733	1	6527.011	-6.144907	-1.65107E-008	0.0650128	7
	19	30	12609.37	6537.151	-701.8	1	6574.714	-6.127556	-4.482692E-009	0.0651891	7
	20	31	10078.13	6584.809	-732.4063	1	6625.415	-6.346732	-3.777456E-008	0.0650762	7
	21	33	8015.625	6632.516	-776.8864	1	6677.86	-6.680783	6.902474E-009	0.0649864	7
	22	34	6328.125	6683.635	-855.8284	1	6738.206	-7.296921	8.307504E-008	0.0648793	7
	23	36	5015.625	6731.836	-963.96	1	6800.502	-8.14903	-4.071948E-008	0.0650875	7
	24	37	3984.375	6787.063	-1106.678	1	6876.697	-9.260977	-2.826023E-009	0.0650877	7
	25	39	3170.956	6841.086	-1287.622	1	6961.209	-10.65945	-7.429942E-009	0.0650726	7
	26	40	2527.573	6912.354	-1511.579	1	7075.699	-12.33514	3.908155E-008	0.0649138	7
	27	41	1976.103	7000.878	-1820.765	1	7233.774	-14.57833	-2.984663E-009	0.0651828	7
	28	43	1577.524	7090.295	-2169.77	1	7414.863	-17.01514	-5.408319E-008	0.065238	7
	29	44	1265.625	7195.799	-2587.016	1	7646.71	-19.7744	-4.10036E-008	0.0650652	7
	30	46	998.264	7311.644	-3154.911	1	7963.266	-23.33978	-5.510188E-008	0.0652272	7
	31	47	796.875	7452.976	-3810.662	1	8370.662	-27.08039	4.789009E-008	0.0649963	7
	32	48	627.7902	7621.751	-4650.856	1	8928.692	-31.39189	8.52768E-008	0.0648733	7
	33	50	505.5147	7811.161	-5595.608	1	9608.59	-35.61632	-1.003619E-008	0.0652031	6
	34	51	397.9953	8057.799	-6884.148	1	10598.1	-40.50879	-1.358444E-009	0.0650101	6
	35	52	315.5048	8350.604	-8433.973	1	11868.63	-45.28459	4.758875E-011	0.0650114	6
	36	54	252.4038	8695.044	-10263.64	1	13451.62	-49.72974	-1.402786E-009	0.0650038	6
	37	55	198.6229	9162.254	-12688.05	1	15650.35	-54.16632	-4.794289E-010	0.065007	6
	38	56	158.3615	9720.81	-15506.72	1	18301.71	-57.91734	-1.424392E-009	0.0650051	6
	39	58	125.558	10458.61	-19048.62	1	21730.91	-61.23109	-7.753405E-010	0.0650073	6
	40	59	100.4464	11340.76	-23229.75	1	25850.22	-63.97837	3.083898E-010	0.0650045	6
	41	61	79.00281	12586.36	-28756.79	1	31390.59	-66.36182	-1.848075E-009	0.0650019	6
	42	62	63.3446	13920.82	-34478.45	1	37182.7	-68.0134	-1.067869E-009	0.0650029	6
	43	63	49.86702	16609.91	-43100.36	1	46190.15	-68.92445	-1.670448E-009	0.0650004	6
	44	65	39.72458	19067.7	-52239.4	1	55610.54	-69.94761	-4.208741E-010	0.0650034	6
	45	66	31.6723	22602.67	-63353.28	1	67264.54	-70.36503	-4.840238E-010	0.0649967	6
	46	68	24.93351	27217.33	-77669.23	1	82300.01	-70.6882	-1.088769E-009	0.0649979	6
	47	69	19.86229	33016.93	-93781.24	1	99423.5	-70.60471	-1.390392E-009	0.0650039	6
	48	71	15.83615	39817.33	-113616	1	120391.1	-70.68672	6.020353E-010	0.0650121	5
	49	72	12.40079	50888.72	-137006.9	1	146152.5	-69.6234	-8.175403E-010	0.0650108	5
	50	73	9.93114	64830.93	-162657.9	1	175101.8	-68.26915	-1.067722E-010	0.0650049	5
	51	75	7.944915	80190.31	-193880.5	1	209809.7	-67.52967	-6.416434E-010	0.0650027	5
	52	77	6.317385	102436.5	-227828.6	1	249798.1	-65.79033	-6.556498E-010	0.0650037	5
	53	79	5.008013	129227.3	-267787	1	297337.4	-64.2392	-8.014108E-010	0.0650143	5
	54	81	3.945707	164124.6	-313005.8	1	353425.4	-62.32973	-1.293E-009	0.0650039	5
	55	84	3.158693	202641.3	-359183.5	1	412403	-60.56952	-9.718867E-010	0.0650274	5
	56	87	2.504006	250936.5	-410307.9	1	480959.1	-58.55083	-1.451905E-009	0.0650082	5
	57	90	1.998082	303079.1	-463385.2	1	553699.2	-56.81313	-1.283678E-009	0.0649984	5
	58	93	1.584686	365734.1	-519838.4	1	635604.8	-54.87157	-1.069223E-009	0.0650596	5
	59	97	1.266892	429682.5	-581151.3	1	722747.5	-53.5221	-1.307321E-009	0.0649903	5
	60	101	0.999041	506826	-650114.5	1	824330.9	-52.0602	-8.763801E-010	0.0650535	5
