EXPLAIN
TAG	EISPOT
TITLE	LABEL	Potentiostatic EIS	Test &Identifier
DATE	LABEL	9/26/2019	Date
TIME	LABEL	7:54:24	Time
NOTES	NOTES	2	&Notes...
	
	
PSTAT	PSTAT	REF600-11020	Potentiostat
VDC	POTEN	0.00000E+000	T	DC &Voltage (V)
FREQINIT	QUANT	1.00000E+006	Initial Fre&q. (Hz)
FREQFINAL	QUANT	1.00000E+000	Final Fre&q. (Hz)
PTSPERDEC	QUANT	1.00000E+001	Points/&decade
VAC	QUANT	2.50000E+001	AC &Voltage (mV rms)
AREA	QUANT	1.00000E-002	&Area (cm^2)
CONDIT	TWOPARAM	T	5.00000E+000	0.00000E+000	Conditionin&g	Time(s)	E(V)
DELAY	TWOPARAM	T	5.00000E+000	0.00000E+000	Init. De&lay	Time(s)	Stab.(mV/s)
SPEED	SELECTOR	1	&Optimize for:
ZGUESS	QUANT	1.00000E+004	E&stimated Z (ohms)
OCVCURVE	TABLE	19
	Pt	T	Vf	Vm	Ach	Over
	#	s	V vs. Ref.	V	V	bits
	0	0.258333	1.27602E-003	1.27602E-003	5.47899E-004	...........
	1	0.516667	1.27051E-003	9.87694E-004	5.49699E-004	...........
	2	0.775	1.24151E-003	9.67136E-004	5.52666E-004	...........
	3	1.03333	1.17281E-003	8.04323E-004	5.46933E-004	...........
	4	1.29167	1.06935E-003	6.64955E-004	5.54233E-004	...........
	5	1.55	9.46808E-004	5.25959E-004	5.49533E-004	...........
	6	1.80833	8.14916E-004	4.00566E-004	5.50866E-004	...........
	7	2.06667	6.78994E-004	2.64123E-004	5.54666E-004	...........
	8	2.325	5.43231E-004	1.42388E-004	5.45966E-004	...........
	9	2.58333	4.09807E-004	1.26544E-005	5.47166E-004	...........
	10	2.84167	2.79181E-004	-1.10230E-004	5.52799E-004	...........
	11	3.1	1.51010E-004	-2.32463E-004	5.52199E-004	...........
	12	3.35833	2.49198E-005	-3.51359E-004	5.56599E-004	...........
	13	3.61667	-9.91544E-005	-4.70566E-004	5.52266E-004	...........
	14	3.875	-2.21114E-004	-5.81554E-004	5.56033E-004	...........
	15	4.13333	-3.40459E-004	-6.80166E-004	5.52299E-004	...........
	16	4.39167	-4.56458E-004	-8.11732E-004	5.50566E-004	...........
	17	4.65	-5.70113E-004	-9.32437E-004	5.55033E-004	...........
	18	4.90833	-6.84226E-004	-1.03410E-003	5.49733E-004	...........
EOC	QUANT	-0.0006842	Open Circuit (V)
PSTATMODEL	IQUANT	4	Pstat Model
PSTATSECTION	LABEL	REF600-11020	Pstat Section
PSTATSERIALNO	LABEL	11020	Pstat Serial Number
CTRLMODE	IQUANT	1	Control Mode
IESTAB	IQUANT	0	I/E Stability
CASPEED	IQUANT	1	Control Amp Speed
CONVENTION	IQUANT	1	Current Convention
ICHRANGE	IQUANT	2	Ich Range
ICHRANGEMODE	TOGGLE	F	Ich Auto Range
ICHOFFSETENABLE	TOGGLE	T	Ich Offset Enable
ICHOFFSET	QUANT	0	Ich Offset (V)
ICHFILTER	IQUANT	3	Ich Filter
VCHRANGE	IQUANT	2	Vch Range
VCHRANGEMODE	TOGGLE	F	Vch Auto Range
VCHOFFSETENABLE	TOGGLE	T	Vch Offset Enable
VCHOFFSET	QUANT	0	Vch Offset (V)
VCHFILTER	IQUANT	3	Vch Filter
ACHRANGE	IQUANT	2	Ach Range
ACHOFFSETENABLE	TOGGLE	F	Ach Offset Enable
ACHOFFSET	QUANT	0	Ach Offset (V)
ACHFILTER	IQUANT	3	Ach Filter
IERANGELOWERLIMIT	IQUANT	1	I/E Range Lower Limit
IERANGEMODE	TOGGLE	F	I/E AutoRange
IERANGE	IQUANT	5	I/E Range
POSFEEDENABLE	TOGGLE	F	Positive Feedback IR Comp
POSFEEDRESISTANCE	QUANT	0	Positive Feedback Resistance (ohm)
ACHSELECT	IQUANT	0	Ach Select
CABLEID	IQUANT	14	Cable ID
DCCALDATE	LABEL	8/19/2019	DC Calibration Date
ACCALDATE	LABEL	8/19/2019	AC Calibration Date
THERMOSELECT	IQUANT	1	Thermo Select
FRAMEWORKVERSION	QUANT	6.33	Framework Version
INSTRUMENTVERSION	LABEL	3.50	Instrument Version
ZCURVE	TABLE
	Pt	Time	Freq	Zreal	Zimag	Zsig	Zmod	Zphz	Idc	Vdc	IERange
	#	s	Hz	ohm	ohm	V	ohm	°	A	V	#
	0	1	1000078	2187.285	-1702.385	1	2771.702	-37.89396	-9.532453E-006	0.0032068	8
	1	3	794390.6	2525.379	-1704.641	1	3046.857	-34.01951	2.185502E-006	0.0014442	8
	2	4	630984.4	2875.056	-1623.237	1	3301.643	-29.44878	-1.595745E-006	0.0012516	8
	3	6	501234.4	3160.006	-1519.115	1	3506.187	-25.67507	2.466354E-006	0.000487	8
	4	7	398109.4	3411.22	-1406.301	1	3689.729	-22.40427	7.650629E-007	0.0006841	8
	5	8	316265.6	3624.176	-1233.528	1	3828.347	-18.79657	2.682189E-006	0.0002937	8
	6	10	251203.1	3789.388	-1107.016	1	3947.777	-16.28498	-3.786611E-006	0.0016049	8
	7	12	199546.9	3921.914	-949.4064	1	4035.193	-13.60822	9.968204E-007	0.0006604	8
	8	13	158578.1	4036.958	-847.6541	1	4124.99	-11.85832	-3.027585E-006	0.0014585	8
	9	15	125953.1	4155.89	-693.2393	1	4213.313	-9.470249	7.649622E-007	-0.000219	7
	10	16	100078.1	4205.216	-622.9787	1	4251.111	-8.426752	-7.208249E-008	0.0009023	7
	11	18	79453.13	4265.601	-569.9591	1	4303.51	-7.610643	-1.228218E-008	0.0008406	7
	12	19	63140.62	4319.029	-528.0446	1	4351.188	-6.970391	1.392432E-007	0.0005779	7
	13	20	50203.12	4366.484	-499.0954	1	4394.915	-6.520691	1.38429E-007	0.0005831	7
	14	22	39890.62	4411.53	-481.338	1	4437.712	-6.226858	-3.751683E-008	0.000805	7
	15	23	31640.63	4457.487	-475.481	1	4482.775	-6.088728	-6.079762E-009	0.0008105	7
	16	24	25171.88	4502.772	-479.0002	1	4528.178	-6.072229	-6.942901E-008	0.0008913	7
	17	26	20015.62	4550.895	-493.3542	1	4577.559	-6.187169	8.030546E-008	0.0007475	7
	18	27	15890.62	4600.014	-516.67	1	4628.938	-6.408558	-6.984781E-008	0.0008938	7
	19	28	12609.37	4655.11	-556.5267	1	4688.259	-6.817456	-4.095106E-009	0.0008191	7
	20	30	10078.13	4707.153	-600.1969	1	4745.263	-7.266427	-3.916707E-008	0.0009209	7
	21	31	8015.625	4765.144	-659.6088	1	4810.58	-7.881011	-3.947336E-008	0.0008043	7
	22	32	6328.125	4828.928	-733.1382	1	4884.264	-8.632842	-1.071789E-008	0.000829	7
	23	34	5015.625	4896.803	-821.9589	1	4965.31	-9.52862	1.410106E-007	0.0005725	7
	24	35	3984.375	4967.999	-933.1168	1	5054.871	-10.63767	8.162283E-008	0.0007437	7
	25	37	3170.956	5034.187	-1064.536	1	5145.51	-11.93994	-1.158676E-008	0.0008171	7
	26	38	2527.573	5114.527	-1225.801	1	5259.37	-13.47788	-4.140172E-008	0.0008317	7
	27	39	1976.103	5204.878	-1446.035	1	5402.016	-15.52651	-5.119213E-008	0.0008836	7
	28	41	1577.524	5296.475	-1689.754	1	5559.489	-17.69444	8.112276E-008	0.0006047	7
	29	42	1265.625	5395.322	-1989.847	1	5750.565	-20.24446	4.157205E-008	0.0007278	7
	30	43	998.264	5507.365	-2379.951	1	5999.603	-23.37109	-5.046253E-008	0.0008819	7
	31	45	796.875	5629.016	-2837.55	1	6303.769	-26.75237	-5.86364E-009	0.0008061	7
	32	46	627.7902	5781.753	-3436.544	1	6725.958	-30.7263	-4.679547E-009	0.0008201	7
	33	48	505.5147	5945.101	-4113.899	1	7229.688	-34.68251	1.385303E-007	0.0005598	7
	34	49	397.9953	6157.663	-5019.048	1	7944.033	-39.18312	5.960215E-009	0.0007933	7
	35	50	315.5048	6412.955	-6117.228	1	8862.645	-43.648	5.411938E-009	0.0007908	7
	36	52	252.4038	6723.842	-7408.249	1	10004.61	-47.77262	2.391384E-009	0.0007319	6
	37	53	198.6229	7146.076	-9115.199	1	11582.46	-51.90449	2.171066E-009	0.0007348	6
	38	54	158.3615	7667.638	-11089.65	1	13482.32	-55.33913	2.081636E-009	0.0007262	6
	39	56	125.558	8369.298	-13553.21	1	15929.05	-58.30408	1.818414E-009	0.0007361	6
	40	57	100.4464	9257.463	-16428.12	1	18856.93	-60.59817	2.750687E-009	0.0007313	6
	41	58	79.00281	10550.61	-20146.12	1	22741.63	-62.35876	1.470606E-009	0.0007309	6
	42	60	63.3446	12014.88	-24388.79	1	27187.69	-63.77333	2.48634E-009	0.0007353	6
	43	61	49.86702	14186.15	-29244.21	1	32503.4	-64.12232	2.594157E-009	0.0007295	6
	44	63	39.72458	16959.16	-35179.11	1	39053.59	-64.26219	1.770419E-009	0.0007294	6
	45	64	31.6723	20566.13	-41946.89	1	46717.31	-63.88176	1.887148E-009	0.0007314	6
	46	65	24.93351	25206.15	-50021.43	1	56013.33	-63.25615	2.293808E-009	0.0007302	6
	47	67	19.86229	30875.59	-58763.66	1	66381.24	-62.28168	9.869232E-010	0.0007293	6
	48	68	15.83615	37423.28	-68341.15	1	77916.71	-61.2951	2.312381E-009	0.0007344	6
	49	70	12.40079	46897.92	-79854.93	1	92607.91	-59.57475	1.717228E-009	0.0007282	6
	50	71	9.93114	56856.06	-91116.41	1	107400.2	-58.0361	2.018445E-009	0.0007311	5
	51	73	7.944915	68399.94	-102981	1	123627	-56.40791	1.508669E-009	0.0007428	5
	52	74	6.317385	81784.41	-116630.5	1	142447.7	-54.96084	4.485766E-010	0.0007494	5
	53	76	5.008013	97327.5	-131229.2	1	163382.2	-53.43715	1.725782E-009	0.0007401	5
	54	79	3.945707	114883.3	-147465.3	1	186933.7	-52.07951	1.113805E-009	0.0007305	5
	55	81	3.158693	132602.2	-164176.4	1	211038.5	-51.07284	1.829633E-009	0.000754	5
	56	85	2.504006	153110.9	-183558	1	239032.4	-50.16755	4.202272E-011	0.0007371	5
	57	87	1.998082	174327.1	-203744.5	1	268145	-49.44918	1.180992E-009	0.0006975	5
	58	91	1.584686	197673.6	-228691.4	1	302282.4	-49.1609	6.879878E-010	0.0007219	5
	59	94	1.266892	222662.9	-255191.9	1	338676.4	-48.89428	1.392439E-009	0.0006949	5
	60	98	0.999041	250897	-288482.2	1	382323.5	-48.98606	9.163007E-010	0.0007623	5
