EXPLAIN
TAG	EISPOT
TITLE	LABEL	Potentiostatic IDE	Test &Identifier
DATE	LABEL	9/18/2019	Date
TIME	LABEL	9:54:38	Time
NOTES	NOTES	1	&Notes...
	
PSTAT	PSTAT	REF600-11020	Potentiostat
VDC	POTEN	0.00000E+000	T	DC &Voltage (V)
FREQINIT	QUANT	1.00000E+006	Initial Fre&q. (Hz)
FREQFINAL	QUANT	1.00000E+000	Final Fre&q. (Hz)
PTSPERDEC	QUANT	1.00000E+001	Points/&decade
VAC	QUANT	2.50000E+001	AC &Voltage (mV rms)
AREA	QUANT	1.00000E-002	&Area (cm^2)
CONDIT	TWOPARAM	T	5.00000E+000	0.00000E+000	Conditionin&g	Time(s)	E(V)
DELAY	TWOPARAM	T	5.00000E+000	0.00000E+000	Init. De&lay	Time(s)	Stab.(mV/s)
SPEED	SELECTOR	1	&Optimize for:
ZGUESS	QUANT	1.00000E+007	E&stimated Z (ohms)
OCVCURVE	TABLE	18
	Pt	T	Vf	Vm	Ach	Over
	#	s	V vs. Ref.	V	V	bits
	0	0.258333	7.13430E-004	7.13430E-004	5.51033E-004	...........
	1	0.516667	7.03794E-004	2.09002E-004	5.49933E-004	...........
	2	0.775	6.46140E-004	-1.89573E-004	5.43866E-004	...........
	3	1.03333	4.88911E-004	-5.29423E-004	5.52999E-004	...........
	4	1.29167	2.20041E-004	-9.02806E-004	5.48666E-004	...........
	5	1.55	-1.21050E-004	-1.19701E-003	5.39566E-004	...........
	6	1.80833	-4.84061E-004	-1.53659E-003	5.47733E-004	...........
	7	2.06667	-8.37724E-004	-1.78517E-003	5.46799E-004	...........
	8	2.325	-1.16868E-003	-2.01173E-003	5.47333E-004	...........
	9	2.58333	-1.47040E-003	-2.21673E-003	5.44899E-004	...........
	10	2.84167	-1.74183E-003	-2.53402E-003	5.47333E-004	...........
	11	3.1	-1.99388E-003	-2.78681E-003	5.51832E-004	...........
	12	3.35833	-2.24413E-003	-3.05700E-003	5.45199E-004	...........
	13	3.61667	-2.49806E-003	-3.10564E-003	5.45766E-004	...........
	14	3.875	-2.73580E-003	-3.08957E-003	5.46466E-004	...........
	15	4.13333	-2.92662E-003	-3.33050E-003	5.46766E-004	...........
	16	4.39167	-3.06718E-003	-3.50815E-003	5.43633E-004	...........
	17	4.65	-3.18990E-003	-3.63059E-003	5.45666E-004	...........
EOC	QUANT	-0.0033319	Open Circuit (V)
PSTATMODEL	IQUANT	4	Pstat Model
PSTATSECTION	LABEL	REF600-11020	Pstat Section
PSTATSERIALNO	LABEL	11020	Pstat Serial Number
CTRLMODE	IQUANT	1	Control Mode
IESTAB	IQUANT	0	I/E Stability
CASPEED	IQUANT	1	Control Amp Speed
CONVENTION	IQUANT	1	Current Convention
ICHRANGE	IQUANT	2	Ich Range
ICHRANGEMODE	TOGGLE	F	Ich Auto Range
ICHOFFSETENABLE	TOGGLE	T	Ich Offset Enable
ICHOFFSET	QUANT	0	Ich Offset (V)
ICHFILTER	IQUANT	3	Ich Filter
VCHRANGE	IQUANT	2	Vch Range
VCHRANGEMODE	TOGGLE	F	Vch Auto Range
VCHOFFSETENABLE	TOGGLE	T	Vch Offset Enable
VCHOFFSET	QUANT	0	Vch Offset (V)
VCHFILTER	IQUANT	3	Vch Filter
ACHRANGE	IQUANT	2	Ach Range
ACHOFFSETENABLE	TOGGLE	F	Ach Offset Enable
ACHOFFSET	QUANT	0	Ach Offset (V)
ACHFILTER	IQUANT	3	Ach Filter
IERANGELOWERLIMIT	IQUANT	1	I/E Range Lower Limit
IERANGEMODE	TOGGLE	F	I/E AutoRange
IERANGE	IQUANT	2	I/E Range
POSFEEDENABLE	TOGGLE	F	Positive Feedback IR Comp
POSFEEDRESISTANCE	QUANT	0	Positive Feedback Resistance (ohm)
ACHSELECT	IQUANT	0	Ach Select
CABLEID	IQUANT	14	Cable ID
DCCALDATE	LABEL	8/19/2019	DC Calibration Date
ACCALDATE	LABEL	8/19/2019	AC Calibration Date
THERMOSELECT	IQUANT	1	Thermo Select
FRAMEWORKVERSION	QUANT	6.33	Framework Version
INSTRUMENTVERSION	LABEL	3.50	Instrument Version
ZCURVE	TABLE
	Pt	Time	Freq	Zreal	Zimag	Zsig	Zmod	Zphz	Idc	Vdc	IERange
	#	s	Hz	ohm	ohm	V	ohm	°	A	V	#
	0	2	1000078	2264.518	-1623.491	1	2786.353	-35.63772	-1.699484E-007	-0.0010041	8
	1	3	794390.6	2593.114	-1550.974	1	3021.549	-30.88417	1.264423E-006	-0.0015908	8
	2	5	630984.4	2879.331	-1431.077	1	3215.358	-26.42817	-8.427511E-007	-0.0013492	8
	3	6	501234.4	3128.144	-1281.922	1	3380.622	-22.28395	1.126458E-006	-0.0017852	8
	4	7	398109.4	3299.616	-1129.126	1	3487.462	-18.89091	-1.46108E-006	-0.0013202	8
	5	8	316265.6	3451.495	-971.428	1	3585.595	-15.71932	5.850385E-007	-0.0017471	8
	6	10	251203.1	3555.768	-837.1675	1	3652.99	-13.2484	-3.671278E-007	-0.0016184	8
	7	11	199546.9	3643.773	-719.3858	1	3714.108	-11.16821	-4.560505E-007	-0.0015985	8
	8	13	158578.1	3702.59	-615.9282	1	3753.47	-9.444703	3.100703E-006	-0.0022369	8
	9	14	125953.1	3763.727	-520.4968	1	3799.547	-7.873659	3.929477E-007	-0.0025329	7
	10	15	100078.1	3797.9	-460.7249	1	3825.743	-6.91678	-2.857029E-008	-0.0016921	7
	11	17	79453.13	3832.071	-423.7444	1	3855.428	-6.310042	-4.571755E-009	-0.001763	7
	12	18	63140.62	3864.077	-398.5036	1	3884.572	-5.888117	-2.849617E-009	-0.0017622	7
	13	19	50203.12	3893.434	-383.928	1	3912.318	-5.631679	2.709509E-008	-0.0017665	7
	14	21	39890.62	3922.957	-381.0714	1	3941.422	-5.548238	-1.741408E-008	-0.0017195	7
	15	22	31640.63	3952.952	-387.1914	1	3971.869	-5.594274	4.74244E-008	-0.0017518	7
	16	23	25171.88	3983.49	-404.9759	1	4004.022	-5.804951	-1.561959E-009	-0.0017082	7
	17	24	20015.62	4016.896	-432.6491	1	4040.128	-6.147476	2.225539E-008	-0.0017949	7
	18	26	15890.62	4052.843	-471.469	1	4080.174	-6.635419	-2.229222E-009	-0.0017076	7
	19	27	12609.37	4090.044	-523.4899	1	4123.409	-7.293705	3.094403E-008	-0.001774	7
	20	29	10078.13	4130.854	-587.9417	1	4172.484	-8.100465	-1.450589E-008	-0.0017331	7
	21	30	8015.625	4176.331	-670.0228	1	4229.736	-9.114486	-2.92657E-008	-0.0017055	7
	22	31	6328.125	4227.793	-773.873	1	4298.037	-10.37283	-1.732305E-009	-0.0017676	7
	23	33	5015.625	4284.632	-900.4891	1	4378.236	-11.86895	-1.433089E-008	-0.001732	7
	24	34	3984.375	4347.155	-1052.915	1	4472.85	-13.61528	3.048149E-008	-0.0017717	7
	25	35	3170.956	4417.307	-1237.429	1	4587.355	-15.64925	7.664998E-010	-0.0017707	7
	26	37	2527.573	4495.147	-1460.059	1	4726.322	-17.9942	-1.182195E-009	-0.0017575	7
	27	38	1976.103	4591.256	-1755.366	1	4915.378	-20.92326	-2.008153E-010	-0.0017628	7
	28	39	1577.524	4691.212	-2088.369	1	5135.052	-23.99701	4.271908E-008	-0.0018239	7
	29	41	1265.625	4802.708	-2479.769	1	5405.114	-27.30854	4.314257E-008	-0.0018234	7
	30	42	998.264	4945.139	-3001.526	1	5784.77	-31.25628	-5.834935E-009	-0.0017102	7
	31	43	796.875	5098.041	-3598.3	1	6240.015	-35.21521	-3.397104E-008	-0.001689	7
	32	45	627.7902	5285.818	-4376.854	1	6862.705	-39.62601	-8.828537E-010	-0.0017164	7
	33	46	505.5147	5484.166	-5244.001	1	7587.86	-43.71757	5.598541E-008	-0.0018271	7
	34	47	397.9953	5751.031	-6409.152	1	8611.132	-48.09789	6.086621E-009	-0.0017149	7
	35	49	315.5048	6056.632	-7805.703	1	9879.87	-52.19125	6.20734E-009	-0.0017139	7
	36	50	252.4038	6410.124	-9447.099	1	11416.54	-55.842	1.645793E-009	-0.0017814	6
	37	51	198.6229	6868.307	-11613.03	1	13492.08	-59.39862	1.147144E-009	-0.0017749	6
	38	53	158.3615	7402.688	-14132.39	1	15953.81	-62.35399	7.544653E-010	-0.0017786	6
	39	54	125.558	8078.102	-17301.61	1	19094.54	-64.97218	1.335179E-009	-0.0017748	6
	40	55	100.4464	8892.28	-21036.14	1	22838.38	-67.08551	6.33219E-010	-0.0017761	6
	41	57	79.00281	10016.1	-25940.06	1	27806.64	-68.88719	7.783016E-010	-0.001782	6
	42	58	63.3446	11133.48	-31490.55	1	33400.74	-70.52897	9.142584E-010	-0.0017842	6
	43	59	49.86702	13332.54	-38852.06	1	41076.02	-71.05975	3.423097E-010	-0.0017847	6
	44	61	39.72458	15520.61	-47451.2	1	49925	-71.88781	1.621964E-009	-0.0017856	6
	45	62	31.6723	18754.35	-57683.75	1	60655.92	-71.98943	5.421099E-010	-0.0017805	6
	46	63	24.93351	23128.04	-70919.63	1	74595.58	-71.93802	5.057175E-010	-0.0017776	6
	47	65	19.86229	28908.19	-85864.45	1	90600.14	-71.39304	4.671086E-010	-0.0017825	6
	48	66	15.83615	36672.08	-103733.8	1	110025.2	-70.53043	-4.699566E-010	-0.0017741	5
	49	67	12.40079	47936.66	-125327	1	134181.9	-69.06851	1.836284E-009	-0.0017783	5
	50	69	9.93114	60724.15	-148686.4	1	160608.4	-67.78469	4.84162E-010	-0.001773	5
	51	70	7.944915	77591.57	-174471.3	1	190946.8	-66.02414	2.029456E-010	-0.0017807	5
	52	72	6.317385	99184.3	-204075.7	1	226901.8	-64.07944	3.694946E-010	-0.0017831	5
	53	74	5.008013	126013.6	-236406	1	267894	-61.94065	1.735488E-011	-0.0017801	5
	54	76	3.945707	158716.7	-271456.4	1	314451.2	-59.68578	6.551945E-010	-0.0017708	5
	55	79	3.158693	193844.2	-305371.7	1	361700.8	-57.59339	4.093128E-010	-0.0017591	5
	56	82	2.504006	234401.3	-343130.8	1	415551.1	-55.66203	1.353525E-010	-0.0017801	5
	57	85	1.998082	276741.7	-382085.9	1	471779.2	-54.0845	-2.639872E-010	-0.0017868	5
	58	88	1.584686	322928.2	-424783.1	1	533594.7	-52.75721	7.79712E-010	-0.001725	5
	59	92	1.266892	369888	-473162.7	1	600583.1	-51.98401	-6.01865E-011	-0.0017888	5
	60	96	0.999041	423099.4	-530411.8	1	678490.8	-51.4213	3.766302E-010	-0.0017335	5
