EXPLAIN
TAG	EISPOT
TITLE	LABEL	Potentiostatic EIS	Test &Identifier
DATE	LABEL	11/20/2019	Date
TIME	LABEL	10:44:09	Time
NOTES	NOTES	4	&Notes...
	
	
	
	
PSTAT	PSTAT	REF600-11020	Potentiostat
VDC	POTEN	0.00000E+000	T	DC &Voltage (V)
FREQINIT	QUANT	1.00000E+006	Initial Fre&q. (Hz)
FREQFINAL	QUANT	1.00000E+000	Final Fre&q. (Hz)
PTSPERDEC	QUANT	1.00000E+001	Points/&decade
VAC	QUANT	2.50000E+001	AC &Voltage (mV rms)
AREA	QUANT	1.00000E-002	&Area (cm^2)
CONDIT	TWOPARAM	T	5.00000E+000	0.00000E+000	Conditionin&g	Time(s)	E(V)
DELAY	TWOPARAM	T	5.00000E+000	0.00000E+000	Init. De&lay	Time(s)	Stab.(mV/s)
SPEED	SELECTOR	0	&Optimize for:
ZGUESS	QUANT	1.00000E+005	E&stimated Z (ohms)
OCVCURVE	TABLE	19
	Pt	T	Vf	Vm	Ach	Over
	#	s	V vs. Ref.	V	V	bits
	0	0.258333	3.15566E-003	3.15566E-003	5.40999E-004	...........
	1	0.516667	3.14943E-003	2.82977E-003	5.39166E-004	...........
	2	0.775	3.11164E-003	2.54379E-003	5.43933E-004	...........
	3	1.03333	3.00666E-003	2.29402E-003	5.45999E-004	...........
	4	1.29167	2.82395E-003	2.06697E-003	5.47266E-004	...........
	5	1.55	2.59023E-003	1.86668E-003	5.49366E-004	...........
	6	1.80833	2.34371E-003	1.68144E-003	5.46933E-004	...........
	7	2.06667	2.10990E-003	1.51205E-003	5.40033E-004	...........
	8	2.325	1.89798E-003	1.35728E-003	5.45033E-004	...........
	9	2.58333	1.70747E-003	1.21160E-003	5.43833E-004	...........
	10	2.84167	1.53478E-003	1.07561E-003	5.43466E-004	...........
	11	3.1	1.37636E-003	9.49557E-004	5.43266E-004	...........
	12	3.35833	1.22954E-003	8.28728E-004	5.43099E-004	...........
	13	3.61667	1.09259E-003	7.17119E-004	5.45299E-004	...........
	14	3.875	9.64244E-004	6.09627E-004	5.47299E-004	...........
	15	4.13333	8.43604E-004	5.10138E-004	5.38866E-004	...........
	16	4.39167	7.29880E-004	4.10008E-004	5.37666E-004	...........
	17	4.65	6.22254E-004	3.20953E-004	5.40766E-004	...........
	18	4.90833	5.19995E-004	2.30620E-004	5.41099E-004	...........
EOC	QUANT	0.00052	Open Circuit (V)
PSTATMODEL	IQUANT	4	Pstat Model
PSTATSECTION	LABEL	REF600-11020	Pstat Section
PSTATSERIALNO	LABEL	11020	Pstat Serial Number
CTRLMODE	IQUANT	1	Control Mode
IESTAB	IQUANT	0	I/E Stability
CASPEED	IQUANT	1	Control Amp Speed
CONVENTION	IQUANT	1	Current Convention
ICHRANGE	IQUANT	2	Ich Range
ICHRANGEMODE	TOGGLE	F	Ich Auto Range
ICHOFFSETENABLE	TOGGLE	T	Ich Offset Enable
ICHOFFSET	QUANT	0	Ich Offset (V)
ICHFILTER	IQUANT	3	Ich Filter
VCHRANGE	IQUANT	2	Vch Range
VCHRANGEMODE	TOGGLE	F	Vch Auto Range
VCHOFFSETENABLE	TOGGLE	T	Vch Offset Enable
VCHOFFSET	QUANT	0	Vch Offset (V)
VCHFILTER	IQUANT	3	Vch Filter
ACHRANGE	IQUANT	2	Ach Range
ACHOFFSETENABLE	TOGGLE	F	Ach Offset Enable
ACHOFFSET	QUANT	0	Ach Offset (V)
ACHFILTER	IQUANT	3	Ach Filter
IERANGELOWERLIMIT	IQUANT	1	I/E Range Lower Limit
IERANGEMODE	TOGGLE	F	I/E AutoRange
IERANGE	IQUANT	3	I/E Range
POSFEEDENABLE	TOGGLE	F	Positive Feedback IR Comp
POSFEEDRESISTANCE	QUANT	0	Positive Feedback Resistance (ohm)
ACHSELECT	IQUANT	0	Ach Select
CABLEID	IQUANT	14	Cable ID
DCCALDATE	LABEL	8/19/2019	DC Calibration Date
ACCALDATE	LABEL	8/19/2019	AC Calibration Date
THERMOSELECT	IQUANT	1	Thermo Select
FRAMEWORKVERSION	QUANT	6.33	Framework Version
INSTRUMENTVERSION	LABEL	3.50	Instrument Version
ZCURVE	TABLE
	Pt	Time	Freq	Zreal	Zimag	Zsig	Zmod	Zphz	Idc	Vdc	IERange
	#	s	Hz	ohm	ohm	V	ohm	°	A	V	#
	0	1	1000078	2412.419	-1804.725	1	3012.773	-36.80008	-1.372141E-006	0.0030329	8
	1	2	794390.6	2778.032	-1732.526	1	3274.005	-31.94981	-2.522151E-006	0.0030495	8
	2	2	630984.4	3103.502	-1607.385	1	3495.055	-27.38081	2.566753E-006	0.0025892	8
	3	2	501234.4	3384.029	-1442.822	1	3678.775	-23.09157	1.442977E-006	0.001756	8
	4	3	398109.4	3590.817	-1270.139	1	3808.834	-19.47964	-4.88912E-007	0.0025606	8
	5	3	316265.6	3765.215	-1125.555	1	3929.85	-16.64326	-1.770542E-007	0.0018338	8
	6	3	251203.1	3878.972	-965.252	1	3997.266	-13.97379	5.242925E-006	0.0014397	8
	7	3	199546.9	3990.143	-835.2692	1	4076.631	-11.82318	1.517037E-006	0.0017009	8
	8	4	158578.1	4064.275	-739.7793	1	4131.054	-10.31604	-1.444051E-006	0.0018917	8
	9	4	125953.1	4125.903	-601.9518	1	4169.583	-8.300648	-1.598817E-006	0.0051869	7
	10	4	100078.1	4173.097	-548.3569	1	4208.971	-7.48594	3.553664E-007	0.0025619	7
	11	5	79453.13	4217.111	-516.6485	1	4248.642	-6.984638	3.557008E-007	0.0025582	7
	12	5	63140.62	4259.092	-496.0303	1	4287.879	-6.642962	-1.145235E-006	0.0033993	7
	13	5	50203.12	4299.094	-494.0332	1	4327.387	-6.555427	7.777521E-007	0.0018373	7
	14	6	39890.62	4341.516	-501.0726	1	4370.336	-6.583617	9.215638E-007	0.000464	7
	15	6	31640.63	4386.282	-519.2228	1	4416.907	-6.750928	-5.893482E-007	0.0035351	7
	16	6	25171.88	4434.512	-552.0829	1	4468.746	-7.096632	1.017422E-006	0.000673	7
	17	7	20015.62	4475.918	-591.8763	1	4514.882	-7.532844	9.508413E-007	0.0013761	7
	18	7	15890.62	4544.051	-651.5864	1	4590.53	-8.160205	5.993549E-008	0.0029423	7
	19	7	12609.37	4605.733	-721.3972	1	4661.887	-8.901926	-1.146055E-006	0.0033879	7
	20	8	10078.13	4674.906	-804.1392	1	4743.563	-9.76004	-1.139878E-006	0.0030502	7
	21	8	8015.625	4748.393	-906.2678	1	4834.103	-10.8054	-2.803187E-007	0.0033085	7
	22	8	6328.125	4837.59	-1031.867	1	4946.416	-12.04085	1.01803E-006	0.0006724	7
	23	9	5015.625	4929.009	-1178.522	1	5067.943	-13.44693	5.826495E-008	0.0029437	7
	24	9	3984.375	5022.177	-1359.176	1	5202.847	-15.14347	7.354698E-007	0.0003718	7
	25	9	3170.956	5138.413	-1561.031	1	5370.298	-16.89859	-1.02989E-006	0.0035487	7
	26	10	2527.573	5253.744	-1809.221	1	5556.537	-19.00206	-6.797731E-007	0.001873	7
	27	10	1976.103	5394.249	-2139.219	1	5802.946	-21.63199	9.473158E-007	0.0013718	7
	28	10	1577.524	5575.541	-2492.049	1	6107.125	-24.08278	-8.431407E-007	0.0036036	7
	29	10	1265.625	5689.763	-2944.71	1	6406.615	-27.36362	-5.849938E-007	0.003527	7
	30	11	998.264	5881.525	-3513.342	1	6850.979	-30.85208	6.059773E-008	0.0029353	7
	31	11	796.875	6079.227	-4178.913	1	7377.013	-34.50497	5.665883E-007	0.0022416	7
	32	12	627.7902	6321.909	-5036.808	1	8083.066	-38.54512	4.636492E-007	0.0004606	7
	33	12	505.5147	6572.105	-5981.024	1	8886.238	-42.30414	9.190948E-007	0.0004504	7
	34	12	397.9953	6893.096	-7253.036	1	10006.06	-46.45754	1.806545E-011	0.0020508	7
	35	13	315.5048	7247.95	-8780.875	1	11385.8	-50.4629	3.77002E-010	0.001995	6
	36	13	252.4038	7641.447	-10587.96	1	13057.43	-54.18159	1.201823E-009	0.0019841	6
	37	13	198.6229	8143.03	-12983.49	1	15325.8	-57.90475	6.203273E-010	0.0019907	6
	38	14	158.3615	8721.35	-15784.19	1	18033.37	-61.07772	-2.726795E-010	0.0019899	6
	39	14	125.558	9451.887	-19320.93	1	21508.98	-63.9319	7.969205E-010	0.0019919	6
	40	14	100.4464	10367.38	-23502.67	1	25687.7	-66.197	3.659847E-010	0.0019863	6
	41	15	79.00281	11607.74	-29070.41	1	31302.21	-68.23331	7.048527E-010	0.0019805	6
	42	15	63.3446	12907.33	-35001.51	1	37305.56	-69.75779	7.861162E-010	0.0019879	6
	43	15	49.86702	15058.19	-43245.7	1	45792.36	-70.80183	5.907783E-010	0.0019882	6
	44	16	39.72458	17762.87	-52926.06	1	55827.3	-71.4474	9.914137E-010	0.0019813	6
	45	16	31.6723	21278.58	-64350.21	1	67777.05	-71.70258	8.997459E-010	0.0019817	6
	46	16	24.93351	25973.93	-78620.92	1	82800.33	-71.71804	2.040825E-010	0.0019881	6
	47	17	19.86229	31738.43	-94915.16	1	100081	-71.51072	9.429882E-010	0.0019945	6
	48	17	15.83615	39049.05	-113448.5	1	119980.8	-71.00651	3.920665E-010	0.0019921	5
	49	17	12.40079	50445.17	-139055.6	1	147922.9	-70.06076	-5.637289E-010	0.0019964	5
	50	18	9.93114	61348.66	-164517.8	1	175584	-69.54951	7.108242E-010	0.0019834	5
	51	18	7.944915	76051.48	-194848.3	1	209164.3	-68.67874	2.826517E-010	0.002	5
	52	19	6.317385	94343.45	-231420	1	249911.8	-67.82065	1.759159E-010	0.0019895	5
	53	19	5.008013	117410.3	-273980.4	1	298077.9	-66.80316	2.657561E-010	0.0020021	5
	54	21	3.945707	146140.7	-325094.9	1	356432.1	-65.79454	-2.472349E-012	0.0019893	5
	55	22	3.158693	179113.3	-379087.5	1	419271.9	-64.70995	2.646618E-010	0.0019727	5
	56	24	2.504006	220293.8	-444004.1	1	495650.1	-63.61156	3.048592E-010	0.0019871	5
	57	25	1.998082	269105	-514964.7	1	581038.8	-62.40979	9.975181E-011	0.0019437	5
	58	26	1.584686	327385.5	-598068.1	1	681811.3	-61.30348	9.202557E-011	0.0019457	5
	59	28	1.266892	394644.9	-685256.8	1	790772.8	-60.06201	1.134122E-010	0.00199	5
	60	31	0.999041	479173.9	-788620.9	1	922784.1	-58.71672	1.432908E-010	0.0020163	5
