EXPLAIN
TAG	EISPOT
TITLE	LABEL	Potentiostatic EIS	Test &Identifier
DATE	LABEL	11/3/2019	Date
TIME	LABEL	10:39:27	Time
NOTES	NOTES	1	&Notes...
	
PSTAT	PSTAT	REF600-11020	Potentiostat
VDC	POTEN	0.00000E+000	T	DC &Voltage (V)
FREQINIT	QUANT	1.00000E+006	Initial Fre&q. (Hz)
FREQFINAL	QUANT	1.00000E+000	Final Fre&q. (Hz)
PTSPERDEC	QUANT	1.00000E+001	Points/&decade
VAC	QUANT	2.50000E+001	AC &Voltage (mV rms)
AREA	QUANT	1.00000E-002	&Area (cm^2)
CONDIT	TWOPARAM	T	5.00000E+000	0.00000E+000	Conditionin&g	Time(s)	E(V)
DELAY	TWOPARAM	T	5.00000E+000	0.00000E+000	Init. De&lay	Time(s)	Stab.(mV/s)
SPEED	SELECTOR	1	&Optimize for:
ZGUESS	QUANT	1.00000E+005	E&stimated Z (ohms)
OCVCURVE	TABLE	19
	Pt	T	Vf	Vm	Ach	Over
	#	s	V vs. Ref.	V	V	bits
	0	0.258333	3.74007E-003	3.74007E-003	5.77532E-004	...........
	1	0.516667	3.73235E-003	3.33564E-003	5.75299E-004	...........
	2	0.775	3.68575E-003	2.99683E-003	5.76199E-004	...........
	3	1.03333	3.55721E-003	2.69444E-003	5.72566E-004	...........
	4	1.29167	3.33533E-003	2.44231E-003	5.76532E-004	...........
	5	1.55	3.05455E-003	2.20386E-003	5.77699E-004	...........
	6	1.80833	2.76246E-003	2.00561E-003	5.77466E-004	...........
	7	2.06667	2.49002E-003	1.81918E-003	5.78332E-004	...........
	8	2.325	2.24806E-003	1.66052E-003	5.76732E-004	...........
	9	2.58333	2.03582E-003	1.50764E-003	5.75899E-004	...........
	10	2.84167	1.84858E-003	1.37825E-003	5.79866E-004	...........
	11	3.1	1.68162E-003	1.25452E-003	5.76832E-004	...........
	12	3.35833	1.53153E-003	1.14746E-003	5.71232E-004	...........
	13	3.61667	1.39590E-003	1.04046E-003	5.72599E-004	...........
	14	3.875	1.27263E-003	9.48059E-004	5.76899E-004	...........
	15	4.13333	1.15980E-003	8.61931E-004	5.74199E-004	...........
	16	4.39167	1.05608E-003	7.78903E-004	5.71632E-004	...........
	17	4.65	9.60576E-004	7.08225E-004	5.70032E-004	...........
	18	4.90833	8.72631E-004	6.41076E-004	5.71499E-004	...........
EOC	QUANT	0.0008726	Open Circuit (V)
PSTATMODEL	IQUANT	4	Pstat Model
PSTATSECTION	LABEL	REF600-11020	Pstat Section
PSTATSERIALNO	LABEL	11020	Pstat Serial Number
CTRLMODE	IQUANT	1	Control Mode
IESTAB	IQUANT	0	I/E Stability
CASPEED	IQUANT	1	Control Amp Speed
CONVENTION	IQUANT	1	Current Convention
ICHRANGE	IQUANT	2	Ich Range
ICHRANGEMODE	TOGGLE	F	Ich Auto Range
ICHOFFSETENABLE	TOGGLE	T	Ich Offset Enable
ICHOFFSET	QUANT	0	Ich Offset (V)
ICHFILTER	IQUANT	3	Ich Filter
VCHRANGE	IQUANT	2	Vch Range
VCHRANGEMODE	TOGGLE	F	Vch Auto Range
VCHOFFSETENABLE	TOGGLE	T	Vch Offset Enable
VCHOFFSET	QUANT	0	Vch Offset (V)
VCHFILTER	IQUANT	3	Vch Filter
ACHRANGE	IQUANT	2	Ach Range
ACHOFFSETENABLE	TOGGLE	F	Ach Offset Enable
ACHOFFSET	QUANT	0	Ach Offset (V)
ACHFILTER	IQUANT	3	Ach Filter
IERANGELOWERLIMIT	IQUANT	1	I/E Range Lower Limit
IERANGEMODE	TOGGLE	F	I/E AutoRange
IERANGE	IQUANT	4	I/E Range
POSFEEDENABLE	TOGGLE	F	Positive Feedback IR Comp
POSFEEDRESISTANCE	QUANT	0	Positive Feedback Resistance (ohm)
ACHSELECT	IQUANT	0	Ach Select
CABLEID	IQUANT	14	Cable ID
DCCALDATE	LABEL	8/19/2019	DC Calibration Date
ACCALDATE	LABEL	8/19/2019	AC Calibration Date
THERMOSELECT	IQUANT	1	Thermo Select
FRAMEWORKVERSION	QUANT	6.33	Framework Version
INSTRUMENTVERSION	LABEL	3.50	Instrument Version
ZCURVE	TABLE
	Pt	Time	Freq	Zreal	Zimag	Zsig	Zmod	Zphz	Idc	Vdc	IERange
	#	s	Hz	ohm	ohm	V	ohm	°	A	V	#
	0	2	1000078	1912.905	-1258.28	1	2289.645	-33.33632	-4.46282E-006	0.0031041	8
	1	3	794390.6	2179.603	-1222.902	1	2499.232	-29.29532	6.921986E-007	0.0022485	8
	2	5	630984.4	2399.003	-1134.356	1	2653.673	-25.30688	6.538315E-007	0.0029288	8
	3	6	501234.4	2580.658	-1030.012	1	2778.619	-21.7583	-5.061517E-006	0.0027679	8
	4	7	398109.4	2717.821	-923.0254	1	2870.284	-18.75849	-5.958122E-006	0.0032671	8
	5	9	316265.6	2843.122	-818.7669	1	2958.668	-16.06543	-2.536708E-006	0.0028646	8
	6	10	251203.1	2936.277	-724.1425	1	3024.253	-13.85379	6.090771E-006	0.0015758	8
	7	11	199546.9	3010.748	-652.9134	1	3080.73	-12.23575	-4.58797E-006	0.0026357	8
	8	13	158578.1	3093.196	-600.5495	1	3150.955	-10.98738	3.859122E-006	0.0022483	8
	9	14	125953.1	3143.946	-514.5849	1	3185.78	-9.295458	1.923819E-006	0.0023106	7
	10	16	100078.1	3180.277	-490.942	1	3217.947	-8.775528	7.231531E-008	0.0031761	7
	11	17	79453.13	3222.162	-487.2014	1	3258.787	-8.59818	-1.17169E-006	0.0033034	7
	12	18	63140.62	3266.316	-497.9012	1	3304.047	-8.667166	-1.172109E-006	0.0032977	7
	13	20	50203.12	3311.197	-518.2649	1	3351.511	-8.895698	-1.174098E-006	0.0032991	7
	14	21	39890.62	3363.53	-550.8723	1	3408.342	-9.301212	-2.920156E-007	0.0014381	7
	15	22	31640.63	3418.811	-597.2789	1	3470.593	-9.90977	1.0613E-006	0.0011572	7
	16	24	25171.88	3478.335	-653.1495	1	3539.127	-10.63496	9.411384E-007	0.0006304	7
	17	25	20015.62	3545.51	-722.1407	1	3618.304	-11.51239	1.06008E-006	0.0011548	7
	18	26	15890.62	3615.621	-806.5129	1	3704.481	-12.57473	-1.186511E-006	0.0036649	7
	19	28	12609.37	3698.546	-906.7656	1	3808.079	-13.77539	-1.186884E-006	0.003664	7
	20	29	10078.13	3789.296	-1027.252	1	3926.068	-15.16793	-1.056717E-006	0.003809	7
	21	30	8015.625	3905.311	-1160.053	1	4073.963	-16.54379	1.046715E-006	0.0008445	7
	22	32	6328.125	4027.202	-1327.221	1	4240.268	-18.24036	-2.918874E-007	0.0014282	7
	23	33	5015.625	4166.528	-1514.319	1	4433.184	-19.9736	-8.603993E-007	0.0038694	7
	24	35	3984.375	4330.017	-1735.251	1	4664.777	-21.83841	1.047231E-006	0.00084	7
	25	36	3170.956	4503.842	-1980.866	1	4920.205	-23.7407	-5.954241E-007	0.0037837	7
	26	37	2527.573	4703.788	-2267.576	1	5221.832	-25.73753	-8.611416E-007	0.0038714	7
	27	39	1976.103	4951.437	-2627.143	1	5605.23	-27.94961	-1.17362E-006	0.0032999	7
	28	40	1577.524	5212.789	-3006.348	1	6017.582	-29.97315	-5.947491E-007	0.0037878	7
	29	41	1265.625	5491.485	-3442.935	1	6481.529	-32.08602	-7.054094E-007	0.0020899	7
	30	43	998.264	5834.603	-3971.166	1	7057.814	-34.24012	-8.584989E-007	0.0038667	7
	31	44	796.875	6186.838	-4558.342	1	7684.754	-36.38206	1.075095E-007	0.0009323	7
	32	46	627.7902	6583.711	-5285.656	1	8442.95	-38.75883	8.050588E-007	0.0020371	7
	33	47	505.5147	6957.894	-6069.155	1	9232.927	-41.09718	-2.986786E-007	0.0014247	7
	34	48	397.9953	7385.31	-7106.651	1	10249.26	-43.89842	1.111788E-009	0.0022733	7
	35	50	315.5048	7806.351	-8357.778	1	11436.41	-46.95385	5.301398E-010	0.0022137	6
	36	51	252.4038	8221.146	-9855.15	1	12833.99	-50.16521	1.989577E-010	0.0022139	6
	37	52	198.6229	8699.36	-11872.12	1	14718.23	-53.76771	8.504265E-010	0.0022084	6
	38	54	158.3615	9202.827	-14268.25	1	16978.67	-57.17854	1.149829E-009	0.0022167	6
	39	55	125.558	9800.23	-17332.12	1	19910.98	-60.51455	9.917306E-010	0.0022137	6
	40	56	100.4464	10473.68	-21004.11	1	23470.64	-63.4969	5.169103E-010	0.0022118	6
	41	58	79.00281	11444.22	-25853.1	1	28272.83	-66.12279	1.141891E-009	0.0022117	6
	42	59	63.3446	12806.99	-31583.34	1	34081.17	-67.92753	1.066464E-009	0.0022128	6
	43	61	49.86702	13925.2	-38976.94	1	41389.77	-70.33984	7.579875E-010	0.0022065	6
	44	62	39.72458	15980.82	-47546.02	1	50159.84	-71.42185	4.327529E-010	0.0022123	6
	45	63	31.6723	18597.62	-58210.29	1	61108.99	-72.28182	8.446392E-011	0.0022098	6
	46	65	24.93351	22057.52	-71560.38	1	74882.72	-72.8688	4.854313E-010	0.0022022	6
	47	66	19.86229	26499.25	-87174.06	1	91112.72	-73.09174	4.968785E-010	0.0022094	6
	48	68	15.83615	32762.33	-105805.9	1	110762.2	-72.7951	1.161433E-009	0.0022101	5
	49	69	12.40079	40359.5	-129633.8	1	135771.1	-72.70682	8.034345E-010	0.0022035	5
	50	70	9.93114	49163.86	-155881.2	1	163450.4	-72.49509	2.260774E-011	0.0022183	5
	51	72	7.944915	60858.32	-186613.5	1	196286.4	-71.93784	7.281066E-010	0.0022108	5
	52	74	6.317385	76807.89	-224459.9	1	237237.7	-71.10958	2.119055E-010	0.0022287	5
	53	76	5.008013	96432.6	-269409.2	1	286147.8	-70.30563	1.419312E-010	0.0022104	5
	54	78	3.945707	121016	-322932.9	1	344863.1	-69.45701	3.353902E-010	0.0022147	5
	55	81	3.158693	149971.2	-381791.4	1	410190.2	-68.55464	-3.73962E-011	0.0022004	5
	56	84	2.504006	186673.5	-452520.5	1	489511.8	-67.58291	3.3258E-010	0.0022109	5
	57	87	1.998082	229749.3	-531837.1	1	579340.6	-66.63605	9.90691E-011	0.0022593	5
	58	90	1.584686	281826.4	-624549.4	1	685192	-65.71284	1.238204E-010	0.0022122	5
	59	94	1.266892	344302.4	-730161	1	807266.6	-64.7541	5.322153E-011	0.0022563	5
	60	98	0.999041	422571.7	-856886.4	1	955417	-63.74989	-1.179064E-012	0.0021716	5
