EXPLAIN
TAG	EISPOT
TITLE	LABEL	Potentiostatic EIS	Test &Identifier
DATE	LABEL	8/16/2017	Date
TIME	LABEL	17:11:25	Time
NOTES	NOTES	1	&Notes...
	
PSTAT	PSTAT	REF600-11020	Potentiostat
VDC	POTEN	0.00000E+000	T	DC &Voltage (V)
FREQINIT	QUANT	1.00000E+006	Initial Fre&q. (Hz)
FREQFINAL	QUANT	1.00000E+000	Final Fre&q. (Hz)
PTSPERDEC	QUANT	1.00000E+001	Points/&decade
VAC	QUANT	2.50000E+001	AC &Voltage (mV rms)
AREA	QUANT	1.00000E-002	&Area (cm^2)
CONDIT	TWOPARAM	T	5.00000E+000	0.00000E+000	Conditionin&g	Time(s)	E(V)
DELAY	TWOPARAM	T	5.00000E+000	0.00000E+000	Init. De&lay	Time(s)	Stab.(mV/s)
SPEED	SELECTOR	0	&Optimize for:
ZGUESS	QUANT	1.00000E+005	E&stimated Z (ohms)
OCVCURVE	TABLE	19
	Pt	T	Vf	Vm	Ach	Over
	#	s	V vs. Ref.	V	V	bits
	0	0.258333	6.81577E-003	6.81577E-003	5.40433E-004	...........
	1	0.516667	6.81483E-003	6.76623E-003	5.51199E-004	...........
	2	0.775	6.80930E-003	6.73402E-003	5.40799E-004	...........
	3	1.03333	6.79472E-003	6.70992E-003	5.42499E-004	...........
	4	1.29167	6.77132E-003	6.70284E-003	5.46299E-004	...........
	5	1.55	6.74518E-003	6.69763E-003	5.41733E-004	...........
	6	1.80833	6.72333E-003	6.70615E-003	5.46999E-004	...........
	7	2.06667	6.70976E-003	6.71563E-003	5.39799E-004	...........
	8	2.325	6.70510E-003	6.72562E-003	5.39133E-004	...........
	9	2.58333	6.70784E-003	6.74317E-003	5.49633E-004	...........
	10	2.84167	6.71607E-003	6.76765E-003	5.46599E-004	...........
	11	3.1	6.72864E-003	6.78030E-003	5.43933E-004	...........
	12	3.35833	6.74458E-003	6.80288E-003	5.42166E-004	...........
	13	3.61667	6.76260E-003	6.82667E-003	5.36566E-004	...........
	14	3.875	6.78196E-003	6.84720E-003	5.43733E-004	...........
	15	4.13333	6.80263E-003	6.87622E-003	5.32700E-004	...........
	16	4.39167	6.82500E-003	6.91280E-003	5.36966E-004	...........
	17	4.65	6.84993E-003	6.94308E-003	5.40166E-004	...........
	18	4.90833	6.87797E-003	6.97389E-003	5.37833E-004	...........
EOC	QUANT	0.006878	Open Circuit (V)
PSTATMODEL	IQUANT	4	Pstat Model
PSTATSECTION	LABEL	REF600-11020	Pstat Section
PSTATSERIALNO	LABEL	11020	Pstat Serial Number
CTRLMODE	IQUANT	1	Control Mode
IESTAB	IQUANT	0	I/E Stability
CASPEED	IQUANT	1	Control Amp Speed
CONVENTION	IQUANT	1	Current Convention
ICHRANGE	IQUANT	2	Ich Range
ICHRANGEMODE	TOGGLE	F	Ich Auto Range
ICHOFFSETENABLE	TOGGLE	T	Ich Offset Enable
ICHOFFSET	QUANT	0	Ich Offset (V)
ICHFILTER	IQUANT	3	Ich Filter
VCHRANGE	IQUANT	2	Vch Range
VCHRANGEMODE	TOGGLE	F	Vch Auto Range
VCHOFFSETENABLE	TOGGLE	T	Vch Offset Enable
VCHOFFSET	QUANT	0	Vch Offset (V)
VCHFILTER	IQUANT	3	Vch Filter
ACHRANGE	IQUANT	2	Ach Range
ACHOFFSETENABLE	TOGGLE	F	Ach Offset Enable
ACHOFFSET	QUANT	0	Ach Offset (V)
ACHFILTER	IQUANT	3	Ach Filter
IERANGELOWERLIMIT	IQUANT	1	I/E Range Lower Limit
IERANGEMODE	TOGGLE	F	I/E AutoRange
IERANGE	IQUANT	5	I/E Range
POSFEEDENABLE	TOGGLE	F	Positive Feedback IR Comp
POSFEEDRESISTANCE	QUANT	0	Positive Feedback Resistance (ohm)
ACHSELECT	IQUANT	0	Ach Select
CABLEID	IQUANT	14	Cable ID
DCCALDATE	LABEL	8/19/2019	DC Calibration Date
ACCALDATE	LABEL	8/19/2019	AC Calibration Date
THERMOSELECT	IQUANT	1	Thermo Select
FRAMEWORKVERSION	QUANT	6.33	Framework Version
INSTRUMENTVERSION	LABEL	3.50	Instrument Version
ZCURVE	TABLE
	Pt	Time	Freq	Zreal	Zimag	Zsig	Zmod	Zphz	Idc	Vdc	IERange
	#	s	Hz	ohm	ohm	V	ohm	°	A	V	#
	0	1	1000078	2380.676	-1451.395	1	2788.219	-31.36885	2.861575E-007	0.0100984	8
	1	2	794390.6	2663.798	-1345.37	1	2984.265	-26.79639	-3.685659E-006	0.0088778	8
	2	2	630984.4	2902.193	-1226.763	1	3150.821	-22.91388	3.16109E-007	0.0094016	8
	3	2	501234.4	3092.426	-1074.847	1	3273.896	-19.16613	7.023273E-006	0.0073894	8
	4	2	398109.4	3230.926	-931.6312	1	3362.561	-16.08481	-3.522264E-006	0.0085345	8
	5	3	316265.6	3342.473	-806.0352	1	3438.287	-13.55798	-2.71574E-006	0.0091775	8
	6	3	251203.1	3421.39	-692.3535	1	3490.74	-11.43991	-6.219401E-006	0.0094987	8
	7	3	199546.9	3484.54	-591.4244	1	3534.375	-9.6329	9.376869E-007	0.0089867	8
	8	4	158578.1	3542.875	-500.8382	1	3578.1	-8.046297	-7.299103E-007	0.00828	8
	9	4	125953.1	3601.165	-398.0785	1	3623.1	-6.307956	3.041517E-006	0.0067105	7
	10	4	100078.1	3615.117	-359.1963	1	3632.918	-5.674257	4.107818E-007	0.0091189	7
	11	5	79453.13	3644.972	-335.988	1	3660.425	-5.266555	1.171203E-006	0.0073418	7
	12	5	63140.62	3667.015	-322.2426	1	3681.146	-5.022024	6.956963E-008	0.0095726	7
	13	5	50203.12	3692.519	-315.9249	1	3706.01	-4.890208	-3.192693E-007	0.0076159	7
	14	6	39890.62	3717.363	-320.2046	1	3731.128	-4.923167	-3.231495E-007	0.0076164	7
	15	6	31640.63	3744.242	-332.7227	1	3758.997	-5.078108	4.110865E-007	0.0091096	7
	16	6	25171.88	3766.981	-351.5781	1	3783.352	-5.332057	-6.719767E-007	0.0102548	7
	17	7	20015.62	3798.245	-371.9387	1	3816.413	-5.592791	-1.179107E-006	0.010273	7
	18	7	15890.62	3830.137	-422.9513	1	3853.419	-6.301482	1.174798E-006	0.0073321	7
	19	7	12609.37	3858.91	-475.823	1	3888.135	-7.029377	4.137759E-007	0.0091014	7
	20	8	10078.13	3894.513	-536.7703	1	3931.33	-7.847481	1.323688E-007	0.007063	7
	21	8	8015.625	3929.932	-623.0941	1	3979.021	-9.009302	1.175824E-006	0.0073291	7
	22	8	6328.125	3973.882	-723.0967	1	4039.134	-10.31284	1.05035E-006	0.0067345	7
	23	8	5015.625	4010.731	-849.9082	1	4099.793	-11.96447	-1.119677E-006	0.0090777	7
	24	9	3984.375	4050.208	-1001.359	1	4172.158	-13.88712	-1.307685E-006	0.0096883	7
	25	9	3170.956	4120.141	-1200.233	1	4291.4	-16.24131	1.051421E-006	0.0067288	7
	26	9	2527.573	4180.247	-1434.866	1	4419.65	-18.94473	6.486079E-007	0.0087558	7
	27	10	1976.103	4257.738	-1746.323	1	4601.954	-22.30112	6.991651E-008	0.0095577	7
	28	10	1577.524	4380.219	-2114.025	1	4863.684	-25.76335	-7.753361E-007	0.0083401	7
	29	10	1265.625	4447.29	-2524.965	1	5114.082	-29.5859	4.14415E-007	0.009099	7
	30	11	998.264	4578.291	-3081.277	1	5518.606	-33.9413	1.353996E-007	0.0070466	7
	31	11	796.875	4717.168	-3719.203	1	6007.009	-38.25365	4.137775E-007	0.0090918	7
	32	11	627.7902	4898.34	-4560.139	1	6692.429	-42.95218	1.344012E-007	0.0070486	7
	33	12	505.5147	5085.691	-5497.963	1	7489.449	-47.23075	1.161206E-006	0.0069692	7
	34	12	397.9953	5359.693	-6748.888	1	8618.225	-51.54482	5.259714E-010	0.0085532	7
	35	12	315.5048	5674.144	-8262.652	1	10023.34	-55.52176	4.91574E-009	0.0085492	7
	36	13	252.4038	6055.242	-10043.86	1	11727.96	-58.91506	1.169573E-009	0.0084911	6
	37	13	198.6229	6570.42	-12400.13	1	14033.31	-62.08236	4.066333E-010	0.0084834	6
	38	13	158.3615	7204.386	-15141.32	1	16767.9	-64.55444	1.121244E-009	0.0084922	6
	39	14	125.558	8050.74	-18573.23	1	20243.01	-66.56523	5.008738E-010	0.008489	6
	40	14	100.4464	9098.409	-22557.36	1	24323.15	-68.03354	2.735724E-010	0.0084863	6
	41	14	79.00281	10638.95	-27746.78	1	29716.51	-69.02168	7.783005E-010	0.0084839	6
	42	15	63.3446	12836.55	-33850.08	1	36202.28	-69.23238	4.008262E-011	0.0084831	6
	43	15	49.86702	15400.99	-41321.5	1	44098.27	-69.55901	-1.103187E-009	0.0084871	6
	44	15	39.72458	18710.02	-49388.97	1	52814.16	-69.25182	2.635883E-010	0.0084832	6
	45	16	31.6723	22856.81	-58984.85	1	63258.57	-68.8185	-2.115546E-010	0.0084891	6
	46	16	24.93351	28795.65	-71172.75	1	76777.27	-67.97233	-5.510125E-010	0.0084922	6
	47	16	19.86229	35753.68	-84196.68	1	91473.53	-66.99175	-6.208028E-010	0.0084869	6
	48	17	15.83615	44313.3	-98610.8	1	108109.9	-65.80199	-1.25804E-010	0.0084939	5
	49	17	12.40079	54570.87	-115952.5	1	128152.1	-64.79685	1.736386E-009	0.0084924	5
	50	17	9.93114	66419.13	-136364.8	1	151680.2	-64.03071	-3.345265E-010	0.0084889	5
	51	18	7.944915	79433.12	-157940.1	1	176789.9	-63.30071	-1.164699E-009	0.0084875	5
	52	19	6.317385	95509.7	-183214.1	1	206614.4	-62.46694	-5.195003E-010	0.0084981	5
	53	19	5.008013	114715.1	-212846.9	1	241792	-61.6773	-2.629841E-010	0.0084946	5
	54	20	3.945707	136068.3	-248273.6	1	283115.4	-61.27471	-2.705433E-010	0.0084871	5
	55	22	3.158693	160225	-286384.2	1	328158.4	-60.77404	9.829362E-011	0.008495	5
	56	23	2.504006	187950.6	-331733.7	1	381277.6	-60.46538	-6.120202E-011	0.0084943	5
	57	25	1.998082	219143.8	-384657.7	1	442702.6	-60.32935	-1.981413E-010	0.0084457	5
	58	26	1.584686	254870.8	-446377.8	1	514015.8	-60.27469	-4.338981E-011	0.0084829	5
	59	28	1.266892	295666.8	-516054.8	1	594753.3	-60.19002	7.411825E-012	0.0085094	5
	60	31	0.999041	344819.2	-604654.1	1	696065.3	-60.30496	1.602785E-011	0.0085232	5
