EXPLAIN
TAG	EISPOT
TITLE	LABEL	Potentiostatic EIS	Test &Identifier
DATE	LABEL	10/22/2019	Date
TIME	LABEL	8:14:57	Time
NOTES	NOTES	1	&Notes...
	
PSTAT	PSTAT	REF600-11020	Potentiostat
VDC	POTEN	0.00000E+000	T	DC &Voltage (V)
FREQINIT	QUANT	1.00000E+006	Initial Fre&q. (Hz)
FREQFINAL	QUANT	1.00000E+000	Final Fre&q. (Hz)
PTSPERDEC	QUANT	1.00000E+001	Points/&decade
VAC	QUANT	2.50000E+001	AC &Voltage (mV rms)
AREA	QUANT	1.00000E-002	&Area (cm^2)
CONDIT	TWOPARAM	T	5.00000E+000	0.00000E+000	Conditionin&g	Time(s)	E(V)
DELAY	TWOPARAM	T	5.00000E+000	0.00000E+000	Init. De&lay	Time(s)	Stab.(mV/s)
SPEED	SELECTOR	1	&Optimize for:
ZGUESS	QUANT	1.00000E+005	E&stimated Z (ohms)
OCVCURVE	TABLE	19
	Pt	T	Vf	Vm	Ach	Over
	#	s	V vs. Ref.	V	V	bits
	0	0.258333	7.06000E-003	7.06000E-003	5.55299E-004	...........
	1	0.516667	7.05973E-003	7.04629E-003	5.55966E-004	...........
	2	0.775	7.05844E-003	7.04955E-003	5.59166E-004	...........
	3	1.03333	7.05598E-003	7.06215E-003	5.45566E-004	...........
	4	1.29167	7.05460E-003	7.08624E-003	5.48966E-004	...........
	5	1.55	7.05803E-003	7.10790E-003	5.53866E-004	...........
	6	1.80833	7.06863E-003	7.13864E-003	5.48066E-004	...........
	7	2.06667	7.08628E-003	7.16564E-003	5.55566E-004	...........
	8	2.325	7.10943E-003	7.20199E-003	5.52799E-004	...........
	9	2.58333	7.13657E-003	7.23511E-003	5.56633E-004	...........
	10	2.84167	7.16676E-003	7.27185E-003	5.61732E-004	...........
	11	3.1	7.19928E-003	7.30518E-003	5.53699E-004	...........
	12	3.35833	7.23332E-003	7.34250E-003	5.52066E-004	...........
	13	3.61667	7.26820E-003	7.37670E-003	5.54099E-004	...........
	14	3.875	7.30342E-003	7.41053E-003	5.56566E-004	...........
	15	4.13333	7.33867E-003	7.44819E-003	5.57599E-004	...........
	16	4.39167	7.37386E-003	7.48195E-003	5.55999E-004	...........
	17	4.65	7.40898E-003	7.51306E-003	5.57199E-004	...........
	18	4.90833	7.44381E-003	7.54874E-003	5.57866E-004	...........
EOC	QUANT	0.0074438	Open Circuit (V)
PSTATMODEL	IQUANT	4	Pstat Model
PSTATSECTION	LABEL	REF600-11020	Pstat Section
PSTATSERIALNO	LABEL	11020	Pstat Serial Number
CTRLMODE	IQUANT	1	Control Mode
IESTAB	IQUANT	0	I/E Stability
CASPEED	IQUANT	1	Control Amp Speed
CONVENTION	IQUANT	1	Current Convention
ICHRANGE	IQUANT	2	Ich Range
ICHRANGEMODE	TOGGLE	F	Ich Auto Range
ICHOFFSETENABLE	TOGGLE	T	Ich Offset Enable
ICHOFFSET	QUANT	0	Ich Offset (V)
ICHFILTER	IQUANT	3	Ich Filter
VCHRANGE	IQUANT	2	Vch Range
VCHRANGEMODE	TOGGLE	F	Vch Auto Range
VCHOFFSETENABLE	TOGGLE	T	Vch Offset Enable
VCHOFFSET	QUANT	0	Vch Offset (V)
VCHFILTER	IQUANT	3	Vch Filter
ACHRANGE	IQUANT	2	Ach Range
ACHOFFSETENABLE	TOGGLE	F	Ach Offset Enable
ACHOFFSET	QUANT	0	Ach Offset (V)
ACHFILTER	IQUANT	3	Ach Filter
IERANGELOWERLIMIT	IQUANT	1	I/E Range Lower Limit
IERANGEMODE	TOGGLE	F	I/E AutoRange
IERANGE	IQUANT	5	I/E Range
POSFEEDENABLE	TOGGLE	F	Positive Feedback IR Comp
POSFEEDRESISTANCE	QUANT	0	Positive Feedback Resistance (ohm)
ACHSELECT	IQUANT	0	Ach Select
CABLEID	IQUANT	14	Cable ID
DCCALDATE	LABEL	8/19/2019	DC Calibration Date
ACCALDATE	LABEL	8/19/2019	AC Calibration Date
THERMOSELECT	IQUANT	1	Thermo Select
FRAMEWORKVERSION	QUANT	6.33	Framework Version
INSTRUMENTVERSION	LABEL	3.50	Instrument Version
ZCURVE	TABLE
	Pt	Time	Freq	Zreal	Zimag	Zsig	Zmod	Zphz	Idc	Vdc	IERange
	#	s	Hz	ohm	ohm	V	ohm	°	A	V	#
	0	2	1000078	2442.746	-1574.372	1	2906.141	-32.80214	-5.261686E-006	0.0111562	8
	1	3	794390.6	2740.58	-1467.229	1	3108.623	-28.16334	2.830508E-006	0.0090898	8
	2	5	630984.4	2999.343	-1339.896	1	3285.023	-24.07173	-7.810519E-007	0.0093889	8
	3	6	501234.4	3205.473	-1187.057	1	3418.21	-20.32069	-2.131781E-007	0.0091491	8
	4	8	398109.4	3377.478	-1041.004	1	3534.267	-17.13032	-1.342703E-006	0.0093963	8
	5	9	316265.6	3506.893	-906.5942	1	3622.183	-14.49464	3.829807E-006	0.0084363	8
	6	10	251203.1	3593.277	-758.3156	1	3672.422	-11.91669	9.647092E-007	0.0088387	8
	7	12	199546.9	3678.181	-655.7886	1	3736.185	-10.10913	-7.303177E-008	0.009174	8
	8	13	158578.1	3728.984	-570.1129	1	3772.313	-8.692466	-1.485904E-007	0.0091973	8
	9	14	125953.1	3802.279	-456.0663	1	3829.532	-6.839697	-4.51632E-007	0.0101644	7
	10	16	100078.1	3823.133	-409.6389	1	3845.016	-6.115763	4.0216E-009	0.0089816	7
	11	17	79453.13	3853.259	-382.7675	1	3872.223	-5.672925	6.36079E-008	0.008929	7
	12	18	63140.62	3883.378	-365.5809	1	3900.548	-5.377971	7.665808E-008	0.0088763	7
	13	20	50203.12	3912.969	-358.0922	1	3929.32	-5.228813	-3.820596E-008	0.0090709	7
	14	21	39890.62	3943.006	-360.1667	1	3959.421	-5.219095	1.304717E-007	0.0088352	7
	15	22	31640.63	3973.677	-371.2559	1	3990.982	-5.337583	-5.44832E-008	0.0091948	7
	16	24	25171.88	4005.858	-391.7134	1	4024.964	-5.584921	3.947959E-008	0.0089846	7
	17	25	20015.62	4047.187	-424.6943	1	4069.408	-5.990448	-1.333778E-009	0.0090361	7
	18	26	15890.62	4078.919	-460.6918	1	4104.853	-6.443939	-3.867742E-010	0.0090354	7
	19	28	12609.37	4117.938	-511.8795	1	4149.63	-7.085794	-7.518601E-008	0.0091507	7
	20	29	10078.13	4160.329	-572.0847	1	4199.479	-7.829609	3.880761E-008	0.0089816	7
	21	31	8015.625	4196.174	-653.2773	1	4246.722	-8.849003	-2.903601E-008	0.0090423	7
	22	32	6328.125	4255.641	-745.7106	1	4320.482	-9.93896	-3.105814E-008	0.0090416	7
	23	33	5015.625	4307.477	-865.3129	1	4393.532	-11.35875	8.732047E-008	0.0089612	7
	24	35	3984.375	4373.955	-1003.23	1	4487.533	-12.91818	-3.636982E-008	0.009042	7
	25	36	3170.956	4419.716	-1190.436	1	4577.229	-15.07468	-7.683941E-008	0.0091511	7
	26	37	2527.573	4480.759	-1409.296	1	4697.161	-17.4595	8.536552E-008	0.0089679	7
	27	39	1976.103	4553.7	-1706.203	1	4862.85	-20.54023	-3.189576E-008	0.0090358	7
	28	40	1577.524	4575.817	-2055.229	1	5016.181	-24.18724	-4.015399E-009	0.0090599	7
	29	41	1265.625	4712.501	-2456.904	1	5314.512	-27.53568	-1.393706E-008	0.0089906	7
	30	43	998.264	4817.505	-3004.38	1	5677.558	-31.94924	-1.373185E-008	0.0089932	7
	31	44	796.875	4934.085	-3649.593	1	6137.159	-36.48921	6.390948E-008	0.0089152	7
	32	45	627.7902	5086.488	-4494.626	1	6787.785	-41.46512	-1.358772E-008	0.0089938	7
	33	47	505.5147	5251.714	-5439.926	1	7561.303	-46.00851	3.947723E-008	0.0089814	7
	34	48	397.9953	5480.556	-6727.02	1	8676.939	-50.83002	4.543348E-009	0.0090468	7
	35	49	315.5048	5761.189	-8274.857	1	10082.88	-55.15327	5.199073E-009	0.0090465	7
	36	51	252.4038	6107.46	-10098.85	1	11802.03	-58.83581	1.928759E-010	0.0089836	6
	37	52	198.6229	6578.124	-12510.14	1	14134.19	-62.26356	1.007484E-009	0.0089832	6
	38	53	158.3615	7147.565	-15313.18	1	16899.15	-64.97876	5.94844E-010	0.0089825	6
	39	55	125.558	7915.353	-18825.92	1	20422.24	-67.19569	8.045503E-010	0.0089827	6
	40	56	100.4464	8845.702	-22920.32	1	24568.02	-68.89677	-8.227391E-011	0.0089763	6
	41	58	79.00281	10197.68	-28279.44	1	30061.93	-70.17049	1.151944E-010	0.0089752	6
	42	59	63.3446	11520.05	-34196.58	1	36084.86	-71.38251	2.626102E-010	0.0089764	6
	43	60	49.86702	14236.59	-42148.02	1	44487.48	-71.33627	-2.35499E-010	0.0089769	6
	44	62	39.72458	16777.26	-51322.71	1	53995.34	-71.89757	9.714897E-010	0.0089832	6
	45	63	31.6723	20460.58	-62146.72	1	65428.21	-71.77689	2.530137E-010	0.0089787	6
	46	64	24.93351	25194.88	-75753.9	1	79833.8	-71.60346	5.569404E-010	0.0089763	6
	47	66	19.86229	31194.91	-91139.16	1	96330	-71.10506	2.481359E-010	0.0089816	6
	48	67	15.83615	38188.19	-109178.1	1	115664.1	-70.72124	1.250029E-009	0.0089819	5
	49	69	12.40079	49382.35	-131589.7	1	140550.6	-69.43014	-8.157412E-011	0.00899	5
	50	70	9.93114	61555.12	-156960.8	1	168599.3	-68.58643	2.834772E-010	0.0089815	5
	51	72	7.944915	77154.36	-184494.6	1	199977.6	-67.30566	-6.642364E-011	0.0089814	5
	52	73	6.317385	95803.3	-217945.6	1	238072.6	-66.27095	7.398541E-010	0.0089803	5
	53	75	5.008013	119953	-256840.7	1	283471.1	-64.96588	3.45327E-010	0.0089956	5
	54	78	3.945707	150255.3	-301382.9	1	336761.5	-63.50132	-1.128961E-010	0.0089832	5
	55	80	3.158693	184385	-347580.4	1	393459	-62.05488	1.472828E-010	0.0089877	5
	56	84	2.504006	226249.8	-400966.2	1	460394.3	-60.56564	-3.355407E-011	0.0089922	5
	57	86	1.998082	271988.3	-456978.1	1	531795.7	-59.23936	3.507875E-010	0.0089578	5
	58	90	1.584686	327507.4	-522406.2	1	616578.8	-57.91554	-1.013195E-011	0.0089348	5
	59	93	1.266892	384564.1	-589441.5	1	703797.4	-56.87872	2.376781E-010	0.0089569	5
	60	97	0.999041	452532.1	-672626.2	1	810685.7	-56.06797	-1.70614E-010	0.0089858	5
