EXPLAIN
TAG	EISPOT
TITLE	LABEL	Potentiostatic EIS	Test &Identifier
DATE	LABEL	11/20/2019	Date
TIME	LABEL	10:39:12	Time
NOTES	NOTES	4	&Notes...
	
	
	
	
PSTAT	PSTAT	REF600-11020	Potentiostat
VDC	POTEN	0.00000E+000	T	DC &Voltage (V)
FREQINIT	QUANT	1.00000E+006	Initial Fre&q. (Hz)
FREQFINAL	QUANT	1.00000E+000	Final Fre&q. (Hz)
PTSPERDEC	QUANT	1.00000E+001	Points/&decade
VAC	QUANT	2.50000E+001	AC &Voltage (mV rms)
AREA	QUANT	1.00000E-002	&Area (cm^2)
CONDIT	TWOPARAM	T	5.00000E+000	0.00000E+000	Conditionin&g	Time(s)	E(V)
DELAY	TWOPARAM	T	5.00000E+000	0.00000E+000	Init. De&lay	Time(s)	Stab.(mV/s)
SPEED	SELECTOR	1	&Optimize for:
ZGUESS	QUANT	1.00000E+005	E&stimated Z (ohms)
OCVCURVE	TABLE	19
	Pt	T	Vf	Vm	Ach	Over
	#	s	V vs. Ref.	V	V	bits
	0	0.258333	-2.00699E-003	-2.00699E-003	5.53666E-004	...........
	1	0.516667	-2.01493E-003	-2.42252E-003	5.48699E-004	...........
	2	0.775	-2.06255E-003	-2.75769E-003	5.55099E-004	...........
	3	1.03333	-2.19387E-003	-3.09651E-003	5.53533E-004	...........
	4	1.29167	-2.42222E-003	-3.37888E-003	5.45399E-004	...........
	5	1.55	-2.71640E-003	-3.66417E-003	5.50899E-004	...........
	6	1.80833	-3.03160E-003	-3.92184E-003	5.54033E-004	...........
	7	2.06667	-3.33827E-003	-4.18259E-003	5.51466E-004	...........
	8	2.325	-3.62607E-003	-4.40635E-003	5.52432E-004	...........
	9	2.58333	-3.89490E-003	-4.64102E-003	5.57199E-004	...........
	10	2.84167	-4.14708E-003	-4.83950E-003	5.50799E-004	...........
	11	3.1	-4.38459E-003	-5.05092E-003	5.53299E-004	...........
	12	3.35833	-4.60898E-003	-5.23413E-003	5.56466E-004	...........
	13	3.61667	-4.82162E-003	-5.42145E-003	5.53166E-004	...........
	14	3.875	-5.02366E-003	-5.59298E-003	5.56899E-004	...........
	15	4.13333	-5.21616E-003	-5.76776E-003	5.55899E-004	...........
	16	4.39167	-5.40032E-003	-5.92653E-003	5.57566E-004	...........
	17	4.65	-5.57723E-003	-6.08874E-003	5.52199E-004	...........
	18	4.90833	-5.74762E-003	-6.23822E-003	5.56199E-004	...........
EOC	QUANT	-0.0057476	Open Circuit (V)
PSTATMODEL	IQUANT	4	Pstat Model
PSTATSECTION	LABEL	REF600-11020	Pstat Section
PSTATSERIALNO	LABEL	11020	Pstat Serial Number
CTRLMODE	IQUANT	1	Control Mode
IESTAB	IQUANT	0	I/E Stability
CASPEED	IQUANT	1	Control Amp Speed
CONVENTION	IQUANT	1	Current Convention
ICHRANGE	IQUANT	2	Ich Range
ICHRANGEMODE	TOGGLE	F	Ich Auto Range
ICHOFFSETENABLE	TOGGLE	T	Ich Offset Enable
ICHOFFSET	QUANT	0	Ich Offset (V)
ICHFILTER	IQUANT	3	Ich Filter
VCHRANGE	IQUANT	2	Vch Range
VCHRANGEMODE	TOGGLE	F	Vch Auto Range
VCHOFFSETENABLE	TOGGLE	T	Vch Offset Enable
VCHOFFSET	QUANT	0	Vch Offset (V)
VCHFILTER	IQUANT	3	Vch Filter
ACHRANGE	IQUANT	2	Ach Range
ACHOFFSETENABLE	TOGGLE	F	Ach Offset Enable
ACHOFFSET	QUANT	0	Ach Offset (V)
ACHFILTER	IQUANT	3	Ach Filter
IERANGELOWERLIMIT	IQUANT	1	I/E Range Lower Limit
IERANGEMODE	TOGGLE	F	I/E AutoRange
IERANGE	IQUANT	5	I/E Range
POSFEEDENABLE	TOGGLE	F	Positive Feedback IR Comp
POSFEEDRESISTANCE	QUANT	0	Positive Feedback Resistance (ohm)
ACHSELECT	IQUANT	0	Ach Select
CABLEID	IQUANT	14	Cable ID
DCCALDATE	LABEL	8/19/2019	DC Calibration Date
ACCALDATE	LABEL	8/19/2019	AC Calibration Date
THERMOSELECT	IQUANT	1	Thermo Select
FRAMEWORKVERSION	QUANT	6.33	Framework Version
INSTRUMENTVERSION	LABEL	3.50	Instrument Version
ZCURVE	TABLE
	Pt	Time	Freq	Zreal	Zimag	Zsig	Zmod	Zphz	Idc	Vdc	IERange
	#	s	Hz	ohm	ohm	V	ohm	°	A	V	#
	0	2	1000078	1352.258	-2946.694	1	3242.161	-65.34929	-1.173222E-007	-0.0034915	8
	1	3	794390.6	1545.444	-3509.443	1	3834.656	-66.23287	8.655613E-007	-0.003499	8
	2	5	630984.4	1786.914	-4194.79	1	4559.531	-66.92677	-2.481224E-006	-0.0039342	8
	3	6	501234.4	2049.618	-5025.753	1	5427.627	-67.81323	4.362433E-006	-0.0042119	8
	4	8	398109.4	2357.213	-6034.815	1	6478.846	-68.66427	-2.424292E-006	-0.0040718	8
	5	9	316265.6	2800.774	-7238.682	1	7761.627	-68.84766	-8.776526E-007	-0.0038132	8
	6	11	251203.1	3306.221	-8699.273	1	9306.366	-69.19035	-1.932745E-006	-0.0041018	8
	7	13	199546.9	3910.014	-10417.04	1	11126.68	-69.42648	6.359811E-006	-0.0049392	8
	8	15	158578.1	4589.236	-12433.5	1	13253.42	-69.74078	-5.306968E-006	-0.0034766	8
	9	17	125953.1	5975.379	-15025.3	1	16169.88	-68.31289	-3.465339E-006	-7.168537E-005	7
	10	19	100078.1	7319.943	-17850.44	1	19293	-67.7029	-3.420053E-007	-0.002674	7
	11	20	79453.13	8984.124	-21327.75	1	23142.77	-67.15718	-3.367847E-007	-0.0026869	7
	12	22	63140.62	11165.21	-25590.54	1	27920.21	-66.42825	-1.225355E-006	-0.003668	7
	13	23	50203.12	13811.65	-30488.95	1	33471.44	-65.62923	-3.957912E-007	-0.0052219	7
	14	25	39890.62	17308.95	-36015.7	1	39959.11	-64.33131	-3.965176E-007	-0.005223	7
	15	26	31640.63	21655.67	-42081.83	1	47327.04	-62.76926	-3.960324E-007	-0.0052297	7
	16	28	25171.88	26966.48	-49141.9	1	56054.6	-61.24434	1.000562E-007	-0.0058529	7
	17	29	20015.62	32896.68	-54598.81	1	63743.41	-58.93034	-1.409252E-006	-0.003031	7
	18	31	15890.62	42428.77	-61314.25	1	74562.98	-55.3172	-1.033642E-006	-0.0023348	7
	19	33	12609.37	52582.48	-70715.18	1	88122.38	-53.3662	1.916825E-007	-0.0051879	6
	20	34	10078.13	63645.11	-78036.18	1	100699.3	-50.79984	1.443734E-007	-0.0077248	6
	21	36	8015.625	76812.77	-87568.26	1	116483.5	-48.74354	2.226141E-007	-0.0067424	6
	22	37	6328.125	91935.45	-94476.36	1	131825.3	-45.78093	2.191688E-007	-0.0060969	6
	23	39	5015.625	109288.5	-100874.2	1	148726.5	-42.70727	1.888073E-007	-0.0076765	6
	24	41	3984.375	127035.6	-103471.2	1	163842.4	-39.163	5.47849E-009	-0.0021049	6
	25	42	3170.956	145385.2	-104410.7	1	178992.9	-35.68461	-6.812479E-008	-0.0013419	6
	26	44	2527.573	162367.9	-102349.6	1	191934.3	-32.22553	-2.413712E-007	-0.0008501	6
	27	45	1976.103	180574.7	-101792.8	1	207289.6	-29.41064	-2.292731E-007	-0.0026297	6
	28	47	1577.524	190067.6	-91049.2	1	210750.2	-25.59609	-2.030834E-007	-0.0005861	6
	29	49	1265.625	215140	-94586.35	1	235014.5	-23.7327	-7.740852E-009	-0.0056319	5
	30	50	998.264	228112.7	-91984.21	1	245960.3	-21.96128	-1.770771E-008	-0.0005406	5
	31	51	796.875	241453	-90550.52	1	257873.9	-20.55722	1.747273E-008	-0.0046026	5
	32	53	627.7902	251405.1	-88882.27	1	266654.4	-19.47064	-2.30627E-008	-0.0006486	5
	33	54	505.5147	263484.1	-89647	1	278317.2	-18.7902	5.659805E-009	-0.0072109	5
	34	55	397.9953	274999.5	-90699.62	1	289570.6	-18.25346	7.206339E-010	-0.004317	5
	35	57	315.5048	286925.9	-92325.55	1	301414.1	-17.83687	2.315099E-010	-0.0043252	5
	36	58	252.4038	296949.1	-95066.8	1	311795.6	-17.75222	4.362441E-010	-0.0043286	5
	37	59	198.6229	310041.8	-98521.4	1	325318.9	-17.6286	1.80844E-010	-0.004321	5
	38	61	158.3615	321376.4	-102563.1	1	337345.5	-17.69981	4.220636E-011	-0.0043307	5
	39	62	125.558	335147.4	-107979.4	1	352112.7	-17.85815	1.276782E-010	-0.0043262	5
	40	64	100.4464	347692.4	-115419.1	1	366348.9	-18.36397	3.006422E-010	-0.0043182	5
	41	65	79.00281	365748.8	-124283.9	1	386288.3	-18.7681	1.294364E-010	-0.0043317	5
	42	67	63.3446	395834.2	-149695.4	1	423194.3	-20.71546	-5.460947E-011	-0.0043223	5
	43	69	49.86702	393998.8	-148768	1	421149.6	-20.68578	1.710786E-010	-0.0043382	5
	44	70	39.72458	412162.5	-163129.2	1	443270.9	-21.59309	1.441442E-010	-0.0043294	5
	45	72	31.6723	425120.8	-183178.2	1	462905.9	-23.31049	6.393767E-011	-0.0043363	5
	46	73	24.93351	450150.3	-201402.6	1	493151.4	-24.1043	3.013415E-010	-0.0043235	5
	47	74	19.86229	476672.7	-222249.7	1	525939	-24.99739	5.345688E-010	-0.0043216	5
	48	76	15.83615	494399.4	-266698.3	1	561746.2	-28.34415	1.143068E-009	-0.0043282	5
	49	77	12.40079	531630.6	-270310.3	1	596404.8	-26.95129	-4.916411E-010	-0.0043244	5
	50	79	9.93114	581288.3	-304147.2	1	656050	-27.61989	5.864696E-010	-0.0043257	6
	51	80	7.944915	628819.3	-337328.9	1	713585.6	-28.21125	5.010966E-010	-0.0043329	6
	52	82	6.317385	667269.6	-367307.7	1	761684.8	-28.83119	1.165425E-009	-0.004342	6
	53	85	5.008013	720860.1	-398974.6	1	823905.3	-28.96322	4.687101E-010	-0.0043388	6
	54	88	3.945707	776786.8	-437672.6	1	891602.5	-29.39864	-3.958441E-011	-0.0043313	6
	55	91	3.158693	832336.1	-468952.6	1	955353	-29.39767	2.815134E-010	-0.0043246	5
	56	95	2.504006	893709.4	-508492.3	1	1028242	-29.63851	2.546185E-010	-0.0043463	4
	57	97	1.998082	953889	-552854	1	1102521	-30.09568	-8.256391E-011	-0.0043166	4
	58	100	1.584686	1017077	-600029	1	1180881	-30.53867	2.955979E-010	-0.0042824	4
	59	104	1.266892	1077436	-661171.2	1	1264126	-31.53547	-2.559446E-011	-0.0043209	4
	60	108	0.999041	1146458	-737584.6	1	1363231	-32.75558	4.797446E-010	-0.0043274	4
