EXPLAIN
TAG	EISPOT
TITLE	LABEL	Potentiostatic IDE	Test &Identifier
DATE	LABEL	9/10/2019	Date
TIME	LABEL	8:55:04	Time
NOTES	NOTES	1	&Notes...
	
PSTAT	PSTAT	REF600-11020	Potentiostat
VDC	POTEN	0.00000E+000	T	DC &Voltage (V)
FREQINIT	QUANT	1.00000E+006	Initial Fre&q. (Hz)
FREQFINAL	QUANT	1.00000E+000	Final Fre&q. (Hz)
PTSPERDEC	QUANT	1.00000E+001	Points/&decade
VAC	QUANT	2.50000E+001	AC &Voltage (mV rms)
AREA	QUANT	1.00000E-002	&Area (cm^2)
CONDIT	TWOPARAM	T	5.00000E+000	0.00000E+000	Conditionin&g	Time(s)	E(V)
DELAY	TWOPARAM	T	5.00000E+000	0.00000E+000	Init. De&lay	Time(s)	Stab.(mV/s)
SPEED	SELECTOR	1	&Optimize for:
ZGUESS	QUANT	1.00000E+007	E&stimated Z (ohms)
OCVCURVE	TABLE	19
	Pt	T	Vf	Vm	Ach	Over
	#	s	V vs. Ref.	V	V	bits
	0	0.258333	7.96054E-003	7.96054E-003	5.59766E-004	...........
	1	0.516667	7.95612E-003	7.72953E-003	5.60499E-004	...........
	2	0.775	7.92965E-003	7.54333E-003	5.66032E-004	...........
	3	1.03333	7.85739E-003	7.39349E-003	5.62732E-004	...........
	4	1.29167	7.73500E-003	7.27322E-003	5.65799E-004	...........
	5	1.55	7.58464E-003	7.16741E-003	5.65399E-004	...........
	6	1.80833	7.43448E-003	7.07695E-003	5.59066E-004	...........
	7	2.06667	7.30072E-003	6.98591E-003	5.61432E-004	...........
	8	2.325	7.18648E-003	6.92432E-003	5.61466E-004	...........
	9	2.58333	7.08885E-003	6.85004E-003	5.58399E-004	...........
	10	2.84167	7.00406E-003	6.78850E-003	5.66499E-004	...........
	11	3.1	6.92909E-003	6.75260E-003	5.60099E-004	...........
	12	3.35833	6.86297E-003	6.71658E-003	5.63299E-004	...........
	13	3.61667	6.80651E-003	6.67924E-003	5.62599E-004	...........
	14	3.875	6.75951E-003	6.64965E-003	5.63532E-004	...........
	15	4.13333	6.71962E-003	6.61418E-003	5.59199E-004	...........
	16	4.39167	6.68401E-003	6.58485E-003	5.58566E-004	...........
	17	4.65	6.65070E-003	6.55728E-003	5.64399E-004	...........
	18	4.90833	6.61897E-003	6.53038E-003	5.57866E-004	...........
EOC	QUANT	0.006619	Open Circuit (V)
PSTATMODEL	IQUANT	4	Pstat Model
PSTATSECTION	LABEL	REF600-11020	Pstat Section
PSTATSERIALNO	LABEL	11020	Pstat Serial Number
CTRLMODE	IQUANT	1	Control Mode
IESTAB	IQUANT	0	I/E Stability
CASPEED	IQUANT	1	Control Amp Speed
CONVENTION	IQUANT	1	Current Convention
ICHRANGE	IQUANT	2	Ich Range
ICHRANGEMODE	TOGGLE	F	Ich Auto Range
ICHOFFSETENABLE	TOGGLE	T	Ich Offset Enable
ICHOFFSET	QUANT	0	Ich Offset (V)
ICHFILTER	IQUANT	3	Ich Filter
VCHRANGE	IQUANT	2	Vch Range
VCHRANGEMODE	TOGGLE	F	Vch Auto Range
VCHOFFSETENABLE	TOGGLE	T	Vch Offset Enable
VCHOFFSET	QUANT	0	Vch Offset (V)
VCHFILTER	IQUANT	3	Vch Filter
ACHRANGE	IQUANT	2	Ach Range
ACHOFFSETENABLE	TOGGLE	F	Ach Offset Enable
ACHOFFSET	QUANT	0	Ach Offset (V)
ACHFILTER	IQUANT	3	Ach Filter
IERANGELOWERLIMIT	IQUANT	1	I/E Range Lower Limit
IERANGEMODE	TOGGLE	F	I/E AutoRange
IERANGE	IQUANT	3	I/E Range
POSFEEDENABLE	TOGGLE	F	Positive Feedback IR Comp
POSFEEDRESISTANCE	QUANT	0	Positive Feedback Resistance (ohm)
ACHSELECT	IQUANT	0	Ach Select
CABLEID	IQUANT	14	Cable ID
DCCALDATE	LABEL	8/19/2019	DC Calibration Date
ACCALDATE	LABEL	8/19/2019	AC Calibration Date
THERMOSELECT	IQUANT	1	Thermo Select
FRAMEWORKVERSION	QUANT	6.33	Framework Version
INSTRUMENTVERSION	LABEL	3.50	Instrument Version
ZCURVE	TABLE
	Pt	Time	Freq	Zreal	Zimag	Zsig	Zmod	Zphz	Idc	Vdc	IERange
	#	s	Hz	ohm	ohm	V	ohm	°	A	V	#
	0	2	1000078	2397.574	-1736.054	1	2960.109	-35.90783	-4.30993E-006	0.0094758	8
	1	3	794390.6	2742.268	-1698.988	1	3225.926	-31.78052	1.256379E-006	0.0083883	8
	2	5	630984.4	3060.947	-1599.481	1	3453.655	-27.58907	8.659431E-009	0.0081506	8
	3	6	501234.4	3329.917	-1472.143	1	3640.818	-23.85003	1.1535E-007	0.0083021	8
	4	7	398109.4	3560.396	-1337.692	1	3803.398	-20.59192	1.613938E-006	0.0078242	8
	5	9	316265.6	3756.207	-1204.717	1	3944.671	-17.78245	-1.323574E-006	0.0084779	8
	6	10	251203.1	3889.502	-1056.182	1	4030.353	-15.19215	1.42684E-006	0.0078453	8
	7	11	199546.9	3990.504	-943.2503	1	4100.469	-13.29912	-2.871154E-007	0.0083067	8
	8	13	158578.1	4098.483	-850.8605	1	4185.873	-11.72822	-1.526754E-006	0.0084542	8
	9	14	125953.1	4198.078	-751.2191	1	4264.761	-10.14533	1.044198E-006	0.0058692	7
	10	15	100078.1	4250.606	-700.9586	1	4308.016	-9.364248	-4.485691E-008	0.0081821	7
	11	17	79453.13	4311.598	-679.5961	1	4364.828	-8.957294	-1.148672E-008	0.0080625	7
	12	18	63140.62	4374.47	-668.4124	1	4425.242	-8.687513	7.168866E-008	0.0080292	7
	13	19	50203.12	4437.177	-681.4039	1	4489.193	-8.730536	6.432046E-008	0.0079604	7
	14	21	39890.62	4497.934	-706.5734	1	4553.093	-8.927548	-5.434413E-008	0.0082585	7
	15	22	31640.63	4566.906	-747.5726	1	4627.688	-9.296494	7.526102E-008	0.0080242	7
	16	23	25171.88	4642.448	-804.123	1	4711.575	-9.82676	3.786686E-008	0.0080467	7
	17	25	20015.62	4717.971	-875.8998	1	4798.588	-10.51732	3.49649E-008	0.0080468	7
	18	26	15890.62	4810.901	-965.078	1	4906.745	-11.34311	-3.108315E-008	0.0081605	7
	19	27	12609.37	4912.583	-1077.648	1	5029.394	-12.3727	8.967237E-008	0.0079611	7
	20	29	10078.13	5019.845	-1197.099	1	5160.61	-13.413	9.8396E-009	0.0081531	7
	21	30	8015.625	5146.455	-1357.511	1	5322.484	-14.77668	-5.951606E-009	0.0080464	7
	22	31	6328.125	5298.029	-1537.028	1	5516.481	-16.17814	-5.689917E-008	0.0081649	7
	23	33	5015.625	5464.389	-1754.568	1	5739.168	-17.80137	2.244821E-009	0.0080751	7
	24	34	3984.375	5648.595	-1989.074	1	5988.576	-19.399	-4.698531E-008	0.0081727	7
	25	35	3170.956	5857.289	-2270.143	1	6281.829	-21.18512	1.676757E-008	0.0080178	7
	26	37	2527.573	6092.884	-2590.98	1	6620.908	-23.03748	-2.899492E-008	0.008176	7
	27	38	1976.103	6391.93	-2988.065	1	7055.87	-25.0549	1.789848E-008	0.0080269	7
	28	39	1577.524	6689.42	-3419.289	1	7512.648	-27.07379	9.279746E-008	0.007956	7
	29	41	1265.625	7030.114	-3903.828	1	8041.292	-29.04345	-4.786187E-008	0.0081748	7
	30	42	998.264	7438.684	-4491.7	1	8689.613	-31.12483	-3.494288E-008	0.0081548	7
	31	43	796.875	7890.107	-5133.583	1	9413.153	-33.04945	-3.028478E-008	0.0080821	7
	32	44	627.7902	8406.039	-5908.072	1	10274.57	-35.10095	1.891461E-009	0.0080447	6
	33	46	505.5147	8931.836	-6734.891	1	11186.44	-37.01747	4.060118E-009	0.0079198	6
	34	47	397.9953	9532.28	-7789.044	1	12309.9	-39.25305	7.95683E-010	0.0080424	6
	35	48	315.5048	10157.25	-9008.913	1	13576.83	-41.57123	9.271264E-010	0.0080451	6
	36	50	252.4038	10779.26	-10416.62	1	14989.94	-44.01983	8.793458E-010	0.00804	6
	37	51	198.6229	11465.32	-12262.61	1	16787.65	-46.92449	4.480288E-010	0.0080491	6
	38	53	158.3615	12137.69	-14427.91	1	18854.39	-49.92729	9.482306E-010	0.0080377	6
	39	54	125.558	12864.63	-17196.47	1	21475.96	-53.19994	5.875149E-010	0.0080423	6
	40	55	100.4464	13626.5	-20515.27	1	24628.39	-56.40739	2.090588E-010	0.0080388	6
	41	57	79.00281	14521.58	-24990.5	1	28903.31	-59.83982	9.751995E-010	0.0080379	6
	42	58	63.3446	15397.3	-30050.41	1	33765.43	-62.8702	5.345205E-010	0.0080386	6
	43	59	49.86702	16983.36	-36964.07	1	40678.95	-65.3233	6.766297E-011	0.0080392	6
	44	61	39.72458	18506.13	-45177.5	1	48820.93	-67.72444	6.890313E-010	0.008045	6
	45	62	31.6723	20596.32	-55175.52	1	58894.36	-69.53004	4.11737E-010	0.0080485	6
	46	63	24.93351	23379.02	-68156.17	1	72054.44	-71.06694	7.129817E-010	0.0080437	6
	47	65	19.86229	26938.92	-83302.73	1	87550.27	-72.07953	7.183907E-010	0.0080476	6
	48	66	15.83615	31526.98	-101764.6	1	106536.3	-72.78686	2.692893E-010	0.0080466	5
	49	67	12.40079	38198.23	-125548.9	1	131231.2	-73.07763	-3.581652E-011	0.0080517	5
	50	69	9.93114	46349.49	-152064	1	158970.9	-73.04865	2.910428E-010	0.0080421	5
	51	70	7.944915	56267.75	-183755	1	192176.9	-72.97485	-5.114122E-011	0.0080465	5
	52	72	6.317385	70431.09	-222281.1	1	233172.5	-72.41888	1.574275E-010	0.0080585	5
	53	74	5.008013	88268.05	-268713.5	1	282839.6	-71.81548	3.623513E-010	0.0080548	5
	54	76	3.945707	111997.3	-324938.6	1	343698.3	-70.98235	9.468816E-011	0.0080417	5
	55	79	3.158693	139901.5	-386113.5	1	410677.5	-70.08289	8.877451E-011	0.0080337	5
	56	82	2.504006	175644.7	-460598.7	1	492952.5	-69.12615	3.363676E-010	0.0080515	5
	57	85	1.998082	218645.6	-543956.9	1	586255.1	-68.10214	2.269972E-010	0.0080871	5
	58	88	1.584686	270405.3	-641318.2	1	695994.3	-67.13778	1.94057E-010	0.0080489	5
	59	92	1.266892	333350.5	-751609.8	1	822216.4	-66.08198	1.052121E-010	0.008089	5
	60	96	0.999041	409478.8	-884501.8	1	974688	-65.15829	1.789059E-010	0.0080177	5
