EXPLAIN
TAG	EISPOT
TITLE	LABEL	Potentiostatic IDE	Test &Identifier
DATE	LABEL	9/12/2019	Date
TIME	LABEL	9:53:23	Time
NOTES	NOTES	1	&Notes...
	
PSTAT	PSTAT	REF600-11020	Potentiostat
VDC	POTEN	0.00000E+000	T	DC &Voltage (V)
FREQINIT	QUANT	1.00000E+006	Initial Fre&q. (Hz)
FREQFINAL	QUANT	1.00000E+000	Final Fre&q. (Hz)
PTSPERDEC	QUANT	1.00000E+001	Points/&decade
VAC	QUANT	2.50000E+001	AC &Voltage (mV rms)
AREA	QUANT	1.00000E-002	&Area (cm^2)
CONDIT	TWOPARAM	T	5.00000E+000	0.00000E+000	Conditionin&g	Time(s)	E(V)
DELAY	TWOPARAM	T	5.00000E+000	0.00000E+000	Init. De&lay	Time(s)	Stab.(mV/s)
SPEED	SELECTOR	1	&Optimize for:
ZGUESS	QUANT	1.00000E+007	E&stimated Z (ohms)
OCVCURVE	TABLE	19
	Pt	T	Vf	Vm	Ach	Over
	#	s	V vs. Ref.	V	V	bits
	0	0.258333	4.79528E-003	4.79528E-003	5.63766E-004	...........
	1	0.516667	4.79084E-003	4.56269E-003	5.66566E-004	...........
	2	0.775	4.76629E-003	4.48543E-003	5.67966E-004	...........
	3	1.03333	4.70587E-003	4.40771E-003	5.66832E-004	...........
	4	1.29167	4.61557E-003	4.35908E-003	5.65699E-004	...........
	5	1.55	4.51816E-003	4.25508E-003	5.61332E-004	...........
	6	1.80833	4.42786E-003	4.14837E-003	5.57799E-004	...........
	7	2.06667	4.33669E-003	3.77253E-003	5.62199E-004	...........
	8	2.325	4.22419E-003	3.89405E-003	5.59466E-004	...........
	9	2.58333	4.09112E-003	3.85868E-003	5.58999E-004	...........
	10	2.84167	3.97100E-003	3.79345E-003	5.64899E-004	...........
	11	3.1	3.88791E-003	3.69188E-003	5.61299E-004	...........
	12	3.35833	3.83014E-003	3.66928E-003	5.63166E-004	...........
	13	3.61667	3.77785E-003	3.65436E-003	5.63932E-004	...........
	14	3.875	3.72824E-003	3.64453E-003	5.58032E-004	...........
	15	4.13333	3.68810E-003	3.61277E-003	5.61799E-004	...........
	16	4.39167	3.65890E-003	3.57976E-003	5.62399E-004	...........
	17	4.65	3.63448E-003	3.52859E-003	5.63132E-004	...........
	18	4.90833	3.60742E-003	3.49243E-003	5.59366E-004	...........
EOC	QUANT	0.0036074	Open Circuit (V)
PSTATMODEL	IQUANT	4	Pstat Model
PSTATSECTION	LABEL	REF600-11020	Pstat Section
PSTATSERIALNO	LABEL	11020	Pstat Serial Number
CTRLMODE	IQUANT	1	Control Mode
IESTAB	IQUANT	0	I/E Stability
CASPEED	IQUANT	1	Control Amp Speed
CONVENTION	IQUANT	1	Current Convention
ICHRANGE	IQUANT	2	Ich Range
ICHRANGEMODE	TOGGLE	F	Ich Auto Range
ICHOFFSETENABLE	TOGGLE	T	Ich Offset Enable
ICHOFFSET	QUANT	0	Ich Offset (V)
ICHFILTER	IQUANT	3	Ich Filter
VCHRANGE	IQUANT	2	Vch Range
VCHRANGEMODE	TOGGLE	F	Vch Auto Range
VCHOFFSETENABLE	TOGGLE	T	Vch Offset Enable
VCHOFFSET	QUANT	0	Vch Offset (V)
VCHFILTER	IQUANT	3	Vch Filter
ACHRANGE	IQUANT	2	Ach Range
ACHOFFSETENABLE	TOGGLE	F	Ach Offset Enable
ACHOFFSET	QUANT	0	Ach Offset (V)
ACHFILTER	IQUANT	3	Ach Filter
IERANGELOWERLIMIT	IQUANT	1	I/E Range Lower Limit
IERANGEMODE	TOGGLE	F	I/E AutoRange
IERANGE	IQUANT	2	I/E Range
POSFEEDENABLE	TOGGLE	F	Positive Feedback IR Comp
POSFEEDRESISTANCE	QUANT	0	Positive Feedback Resistance (ohm)
ACHSELECT	IQUANT	0	Ach Select
CABLEID	IQUANT	14	Cable ID
DCCALDATE	LABEL	8/19/2019	DC Calibration Date
ACCALDATE	LABEL	8/19/2019	AC Calibration Date
THERMOSELECT	IQUANT	1	Thermo Select
FRAMEWORKVERSION	QUANT	6.33	Framework Version
INSTRUMENTVERSION	LABEL	3.50	Instrument Version
ZCURVE	TABLE
	Pt	Time	Freq	Zreal	Zimag	Zsig	Zmod	Zphz	Idc	Vdc	IERange
	#	s	Hz	ohm	ohm	V	ohm	°	A	V	#
	0	2	1000078	2519.127	-1879.41	1	3142.957	-36.725	2.455336E-006	0.0051625	8
	1	3	794390.6	2884.909	-1797.279	1	3398.958	-31.92262	2.915772E-006	0.0048397	8
	2	5	630984.4	3241.551	-1672.147	1	3647.427	-27.28684	-1.594455E-006	0.0052443	8
	3	6	501234.4	3521.47	-1479.572	1	3819.671	-22.79008	-1.539931E-006	0.0056008	8
	4	7	398109.4	3729.162	-1309.082	1	3952.258	-19.34307	-8.723846E-007	0.0055562	8
	5	9	316265.6	3906.896	-1153.34	1	4073.577	-16.44693	5.435063E-006	0.0039924	8
	6	10	251203.1	4043.029	-980.712	1	4160.274	-13.63481	5.109228E-006	0.0039948	8
	7	11	199546.9	4150.755	-837.8052	1	4234.464	-11.41149	2.763627E-006	0.0046589	8
	8	13	158578.1	4215.682	-748.725	1	4281.654	-10.07099	-8.401703E-007	0.0050678	8
	9	14	125953.1	4286.272	-596.7231	1	4327.61	-7.925621	1.441208E-007	0.0043829	7
	10	16	100078.1	4328.286	-540.6248	1	4361.918	-7.11966	8.02039E-008	0.0049603	7
	11	17	79453.13	4369.715	-506.8528	1	4399.012	-6.616297	8.089393E-009	0.0050985	7
	12	18	63140.62	4407.705	-486.5647	1	4434.479	-6.299351	4.213621E-008	0.0050633	7
	13	20	50203.12	4446.995	-478.903	1	4472.708	-6.146573	-3.636355E-008	0.0051096	7
	14	21	39890.62	4483.387	-483.5186	1	4509.385	-6.155371	-7.374211E-008	0.0052444	7
	15	22	31640.63	4523.673	-502.4866	1	4551.496	-6.338393	-7.37999E-008	0.0052419	7
	16	24	25171.88	4565.149	-532.9388	1	4596.151	-6.658611	-4.151117E-008	0.0052009	7
	17	25	20015.62	4609.125	-576.3267	1	4645.017	-7.127295	8.291365E-008	0.0049441	7
	18	26	15890.62	4659.141	-639.0064	1	4702.757	-7.809457	-7.275602E-008	0.0052386	7
	19	28	12609.37	4712.594	-713.9471	1	4766.368	-8.61467	-7.925689E-008	0.0052071	7
	20	29	10078.13	4768.558	-806.4406	1	4836.268	-9.59883	8.858238E-009	0.0050802	7
	21	30	8015.625	4835.28	-923.6721	1	4922.713	-10.81478	-3.651278E-009	0.0050406	7
	22	32	6328.125	4911.421	-1071.072	1	5026.853	-12.30233	-7.776607E-008	0.0053396	7
	23	33	5015.625	4995.846	-1247.003	1	5149.125	-14.01511	1.058933E-007	0.0050168	7
	24	34	3984.375	5091.977	-1456.83	1	5296.28	-15.96599	5.014979E-008	0.0049574	7
	25	36	3170.956	5200.479	-1707.976	1	5473.77	-18.18156	4.380206E-008	0.0050473	7
	26	37	2527.573	5324.665	-2008.897	1	5691.021	-20.67056	7.066977E-008	0.0049931	7
	27	38	1976.103	5478.665	-2405.162	1	5983.358	-23.70172	-7.753479E-008	0.0052043	7
	28	40	1577.524	5644.288	-2834.54	1	6316.059	-26.66563	8.427532E-009	0.005084	7
	29	41	1265.625	5831.373	-3323.276	1	6711.86	-29.67864	-7.703429E-008	0.0053472	7
	30	42	998.264	6052.016	-4000.141	1	7254.518	-33.46311	1.255934E-007	0.0049217	7
	31	44	796.875	6299.579	-4751.41	1	7890.538	-37.02515	-2.348792E-008	0.0050804	7
	32	45	627.7902	6601.688	-5723.644	1	8737.413	-40.92519	1.267516E-007	0.0049264	7
	33	46	505.5147	6913.745	-6793.341	1	9692.75	-44.49672	4.598953E-008	0.0050486	7
	34	48	397.9953	7310.895	-8215.347	1	10997.32	-48.33389	1.32872E-009	0.0050528	6
	35	49	315.5048	7755.085	-9918.83	1	12590.65	-51.97974	8.256663E-010	0.0050554	6
	36	50	252.4038	8259.949	-11917.24	1	14499.91	-55.27382	1.688238E-009	0.0050493	6
	37	52	198.6229	8898.102	-14547.56	1	17053.09	-58.54771	1.280945E-009	0.0050481	6
	38	53	158.3615	9627.23	-17595.3	1	20056.88	-61.31483	4.490502E-010	0.0050504	6
	39	54	125.558	10540.33	-21421.02	1	23873.81	-63.80026	9.108114E-010	0.0050485	6
	40	56	100.4464	11635.55	-25905.55	1	28398.66	-65.81263	1.80209E-009	0.0050465	6
	41	57	79.00281	12975.66	-31833.99	1	34376.89	-67.824	2.784992E-010	0.0050444	6
	42	58	63.3446	15043.43	-38642.43	1	41467.36	-68.72913	1.001767E-009	0.0050431	6
	43	60	49.86702	16565.47	-47154.43	1	49979.54	-70.6435	1.075217E-009	0.0050431	6
	44	61	39.72458	19594.19	-57278.79	1	60537.53	-71.11497	1.048258E-009	0.0050453	6
	45	62	31.6723	22744.46	-69437.23	1	73067.36	-71.86357	9.026505E-010	0.0050507	6
	46	64	24.93351	27435.43	-85237.53	1	89544.06	-72.15817	9.587411E-010	0.0050472	6
	47	65	19.86229	33012.16	-103527.1	1	108663	-72.31384	1.306908E-010	0.0050552	5
	48	66	15.83615	39073.17	-125386	1	131333	-72.69176	1.325967E-009	0.0050572	5
	49	68	12.40079	49852.5	-152682.2	1	160614.8	-71.91754	1.346446E-009	0.0050526	5
	50	69	9.93114	63456.81	-183930.5	1	194569.3	-70.96535	-5.372358E-011	0.0050558	5
	51	71	7.944915	79892.13	-219731.1	1	233804.4	-70.01922	1.824822E-010	0.0050484	5
	52	72	6.317385	101381.1	-263524.4	1	282353.1	-68.95764	4.266063E-010	0.005044	5
	53	74	5.008013	130133.4	-313780.5	1	339695.3	-67.47487	1.211119E-010	0.0050471	5
	54	77	3.945707	168002.2	-372507.6	1	408640	-65.72446	4.061295E-010	0.0050552	5
	55	79	3.158693	212057	-432323.5	1	481530.7	-63.8718	3.24818E-010	0.0050671	5
	56	83	2.504006	268314.1	-501299.8	1	568589.4	-61.84268	4.23532E-011	0.0050494	5
	57	86	1.998082	332917.6	-571423.7	1	661331.3	-59.77446	5.209179E-012	0.0050749	5
	58	89	1.584686	410294.5	-648513.8	1	767405.8	-57.67974	2.282299E-010	0.0051005	5
	59	92	1.266892	490005.4	-728991.5	1	878370	-56.09224	5.276559E-012	0.0050671	5
	60	97	0.999041	585886.3	-817540.8	1	1005801	-54.37292	3.588133E-010	0.005054	4
