EXPLAIN
TAG	EISPOT
TITLE	LABEL	Potentiostatic EIS	Test &Identifier
DATE	LABEL	9/26/2019	Date
TIME	LABEL	8:47:08	Time
NOTES	NOTES	2	&Notes...
	
	
PSTAT	PSTAT	REF600-11020	Potentiostat
VDC	POTEN	0.00000E+000	T	DC &Voltage (V)
FREQINIT	QUANT	1.00000E+006	Initial Fre&q. (Hz)
FREQFINAL	QUANT	1.00000E+000	Final Fre&q. (Hz)
PTSPERDEC	QUANT	1.00000E+001	Points/&decade
VAC	QUANT	2.50000E+001	AC &Voltage (mV rms)
AREA	QUANT	1.00000E-002	&Area (cm^2)
CONDIT	TWOPARAM	T	5.00000E+000	0.00000E+000	Conditionin&g	Time(s)	E(V)
DELAY	TWOPARAM	T	5.00000E+000	0.00000E+000	Init. De&lay	Time(s)	Stab.(mV/s)
SPEED	SELECTOR	1	&Optimize for:
ZGUESS	QUANT	1.00000E+004	E&stimated Z (ohms)
OCVCURVE	TABLE	19
	Pt	T	Vf	Vm	Ach	Over
	#	s	V vs. Ref.	V	V	bits
	0	0.258333	2.94990E-002	2.94990E-002	5.67599E-004	...........
	1	0.516667	2.95363E-002	3.14521E-002	5.67332E-004	...........
	2	0.775	2.97642E-002	3.32360E-002	5.65666E-004	...........
	3	1.03333	3.04031E-002	3.48813E-002	5.70699E-004	...........
	4	1.29167	3.15313E-002	3.64048E-002	5.65299E-004	...........
	5	1.55	3.30045E-002	3.78195E-002	5.70599E-004	...........
	6	1.80833	3.45998E-002	3.91322E-002	5.67099E-004	...........
	7	2.06667	3.61592E-002	4.03529E-002	5.67266E-004	...........
	8	2.325	3.76156E-002	4.15010E-002	5.69932E-004	...........
	9	2.58333	3.89594E-002	4.25750E-002	5.69932E-004	...........
	10	2.84167	4.02028E-002	4.35849E-002	5.73632E-004	...........
	11	3.1	4.13606E-002	4.45244E-002	5.66932E-004	...........
	12	3.35833	4.24438E-002	4.54204E-002	5.67332E-004	...........
	13	3.61667	4.34596E-002	4.62645E-002	5.66266E-004	...........
	14	3.875	4.44149E-002	4.70724E-002	5.68132E-004	...........
	15	4.13333	4.53159E-002	4.78162E-002	5.64899E-004	...........
	16	4.39167	4.61671E-002	4.85273E-002	5.70366E-004	...........
	17	4.65	4.69709E-002	4.92154E-002	5.75932E-004	...........
	18	4.90833	4.77310E-002	4.98791E-002	5.75199E-004	...........
EOC	QUANT	0.047731	Open Circuit (V)
PSTATMODEL	IQUANT	4	Pstat Model
PSTATSECTION	LABEL	REF600-11020	Pstat Section
PSTATSERIALNO	LABEL	11020	Pstat Serial Number
CTRLMODE	IQUANT	1	Control Mode
IESTAB	IQUANT	0	I/E Stability
CASPEED	IQUANT	1	Control Amp Speed
CONVENTION	IQUANT	1	Current Convention
ICHRANGE	IQUANT	2	Ich Range
ICHRANGEMODE	TOGGLE	F	Ich Auto Range
ICHOFFSETENABLE	TOGGLE	T	Ich Offset Enable
ICHOFFSET	QUANT	0	Ich Offset (V)
ICHFILTER	IQUANT	3	Ich Filter
VCHRANGE	IQUANT	2	Vch Range
VCHRANGEMODE	TOGGLE	F	Vch Auto Range
VCHOFFSETENABLE	TOGGLE	T	Vch Offset Enable
VCHOFFSET	QUANT	0	Vch Offset (V)
VCHFILTER	IQUANT	3	Vch Filter
ACHRANGE	IQUANT	2	Ach Range
ACHOFFSETENABLE	TOGGLE	F	Ach Offset Enable
ACHOFFSET	QUANT	0	Ach Offset (V)
ACHFILTER	IQUANT	3	Ach Filter
IERANGELOWERLIMIT	IQUANT	1	I/E Range Lower Limit
IERANGEMODE	TOGGLE	F	I/E AutoRange
IERANGE	IQUANT	6	I/E Range
POSFEEDENABLE	TOGGLE	F	Positive Feedback IR Comp
POSFEEDRESISTANCE	QUANT	0	Positive Feedback Resistance (ohm)
ACHSELECT	IQUANT	0	Ach Select
CABLEID	IQUANT	14	Cable ID
DCCALDATE	LABEL	8/19/2019	DC Calibration Date
ACCALDATE	LABEL	8/19/2019	AC Calibration Date
THERMOSELECT	IQUANT	1	Thermo Select
FRAMEWORKVERSION	QUANT	6.33	Framework Version
INSTRUMENTVERSION	LABEL	3.50	Instrument Version
ZCURVE	TABLE
	Pt	Time	Freq	Zreal	Zimag	Zsig	Zmod	Zphz	Idc	Vdc	IERange
	#	s	Hz	ohm	ohm	V	ohm	°	A	V	#
	0	2	1000078	2242.731	-1784.681	1	2866.17	-38.51146	3.799346E-006	0.0501613	8
	1	3	794390.6	2612.569	-1769.321	1	3155.315	-34.10719	-3.689353E-007	0.0497948	8
	2	5	630984.4	2956.376	-1698.075	1	3409.343	-29.87208	-2.432078E-007	0.0495062	8
	3	6	501234.4	3254.036	-1620.714	1	3635.308	-26.47619	2.50494E-006	0.0489201	8
	4	7	398109.4	3545.32	-1471.054	1	3838.397	-22.53495	3.013008E-006	0.0487247	8
	5	9	316265.6	3757.827	-1306.906	1	3978.601	-19.17678	-4.607526E-007	0.0493084	8
	6	10	251203.1	3948.386	-1149.133	1	4112.208	-16.22703	-4.357541E-006	0.0503498	8
	7	12	199546.9	4122.834	-1043.777	1	4252.908	-14.20704	3.765615E-006	0.0486601	8
	8	13	158578.1	4200.709	-901.9827	1	4296.456	-12.11863	-3.196209E-006	0.0499834	8
	9	15	125953.1	4345.389	-732.0913	1	4406.627	-9.56313	7.91241E-007	0.0482301	7
	10	16	100078.1	4399.331	-649.3897	1	4447.001	-8.396852	-8.143695E-008	0.0494225	7
	11	18	79453.13	4461.596	-586.7451	1	4500.012	-7.491982	8.547249E-009	0.0492181	7
	12	19	63140.62	4511.973	-540.4492	1	4544.226	-6.83041	-3.63917E-008	0.0493007	7
	13	20	50203.12	4555.647	-508.2271	1	4583.909	-6.365584	-3.799036E-008	0.0492928	7
	14	22	39890.62	4601.77	-485.8825	1	4627.35	-6.027301	-8.211281E-009	0.0492292	7
	15	23	31640.63	4645.651	-476.8066	1	4670.055	-5.860036	-8.814464E-009	0.0493046	7
	16	24	25171.88	4688.43	-482.5506	1	4713.197	-5.876402	-5.135624E-008	0.0494481	7
	17	26	20015.62	4735.546	-495.6055	1	4761.41	-5.974623	7.422027E-008	0.04915	7
	18	27	15890.62	4777.926	-523.0173	1	4806.467	-6.247029	7.42984E-008	0.0491559	7
	19	28	12609.37	4827.523	-559.9514	1	4859.89	-6.616254	8.15275E-008	0.0491069	7
	20	30	10078.13	4877.284	-608.6483	1	4915.114	-7.113308	-4.716348E-008	0.0493749	7
	21	31	8015.625	4928.771	-673.8856	1	4974.626	-7.785484	-3.604789E-008	0.0492923	7
	22	32	6328.125	4987.37	-756.8843	1	5044.475	-8.629374	-5.240577E-009	0.0493254	7
	23	34	5015.625	5050.036	-857.817	1	5122.374	-9.64045	8.260108E-008	0.0491057	7
	24	35	3984.375	5112.761	-983.933	1	5206.578	-10.89319	7.426557E-008	0.0491504	7
	25	36	3170.956	5180.535	-1136.845	1	5303.806	-12.37711	1.172738E-008	0.0492046	7
	26	38	2527.573	5254.443	-1327.342	1	5419.502	-14.17708	-5.14953E-008	0.0494439	7
	27	39	1976.103	5341.385	-1580.584	1	5570.335	-16.48416	4.374268E-008	0.04913	7
	28	40	1577.524	5428.079	-1871.716	1	5741.721	-19.02527	-2.368683E-008	0.0492526	7
	29	42	1265.625	5526.077	-2214.584	1	5953.311	-21.83852	4.117044E-008	0.0492238	7
	30	43	998.264	5643.822	-2667.302	1	6242.374	-25.29568	-5.006867E-009	0.0493228	7
	31	45	796.875	5769.669	-3203.883	1	6599.542	-29.0433	-3.867588E-009	0.0492968	7
	32	46	627.7902	5924.512	-3896.046	1	7090.77	-33.32951	-4.693932E-008	0.0493738	7
	33	47	505.5147	6085.927	-4671.352	1	7672.03	-37.50863	-4.755636E-008	0.0493733	7
	34	49	397.9953	6304.072	-5724.828	1	8515.573	-42.24309	4.421491E-009	0.0492964	7
	35	50	315.5048	6555.1	-6994.051	1	9585.72	-46.85556	4.794492E-009	0.0492964	7
	36	51	252.4038	6851.853	-8495.002	1	10913.89	-51.11123	-8.086226E-010	0.0492281	6
	37	53	198.6229	7245.225	-10483.48	1	12743.49	-55.3513	1.393737E-010	0.0492328	6
	38	54	158.3615	7715.992	-12797.68	1	14943.8	-58.91333	-6.749608E-010	0.0492333	6
	39	55	125.558	8328.07	-15716.52	1	17786.67	-62.0812	4.468799E-010	0.049232	6
	40	57	100.4464	9080.816	-19155.24	1	21198.69	-64.63603	-1.004707E-009	0.0492379	6
	41	58	79.00281	10100.5	-23611.97	1	25681.62	-66.84019	-5.111679E-010	0.0492368	6
	42	59	63.3446	11357.36	-29012.82	1	31156.59	-68.62165	-3.196513E-010	0.0492352	6
	43	61	49.86702	13026.74	-35183.02	1	37517.21	-69.68261	-1.456355E-009	0.049233	6
	44	62	39.72458	15476.79	-42979.68	1	45681.34	-70.19628	-3.339478E-010	0.0492392	6
	45	64	31.6723	18258.13	-52188.3	1	55289.94	-70.71756	-8.160974E-010	0.0492265	6
	46	65	24.93351	22463.77	-63866.75	1	67702.16	-70.62177	-4.927964E-010	0.0492321	6
	47	66	19.86229	27449.64	-77013.46	1	81759.13	-70.38258	-7.637506E-010	0.0492332	6
	48	68	15.83615	34277.59	-92799.94	1	98928.2	-69.72724	1.658202E-010	0.0492371	6
	49	69	12.40079	43092.68	-112087.5	1	120085.7	-68.97045	-2.293121E-010	0.0492425	5
	50	70	9.93114	54056.23	-132876.3	1	143451	-67.86271	-4.159093E-010	0.0492491	5
	51	72	7.944915	67834.98	-157111.3	1	171130.2	-66.64706	-2.546705E-010	0.0492423	5
	52	74	6.317385	84865.83	-183977.9	1	202608.2	-65.23694	-2.896039E-010	0.0492502	5
	53	76	5.008013	106118.5	-215271	1	240005.7	-63.75887	-7.194205E-011	0.0492435	5
	54	78	3.945707	132675.9	-251078.1	1	283977.3	-62.14691	-6.032784E-010	0.0492367	5
	55	81	3.158693	161677.9	-287858	1	330154.5	-60.67889	-1.983084E-010	0.0492581	5
	56	84	2.504006	197020.8	-330504.7	1	384773.3	-59.19994	-8.22765E-010	0.0492349	5
	57	87	1.998082	235414	-375751.9	1	443406.4	-57.93227	-1.06921E-009	0.049206	5
	58	90	1.584686	280094.4	-425545.6	1	509452.6	-56.64706	-5.386759E-010	0.0492521	5
	59	94	1.266892	329080.1	-480640.3	1	582502.3	-55.60172	-4.605587E-010	0.0491986	5
	60	98	0.999041	384858.2	-545817.1	1	667856.4	-54.81216	-3.63579E-010	0.0492821	5
