EXPLAIN
TAG	EISPOT
TITLE	LABEL	Potentiostatic EIS	Test &Identifier
DATE	LABEL	10/18/2019	Date
TIME	LABEL	9:27:01	Time
NOTES	NOTES	1	&Notes...
	
PSTAT	PSTAT	REF600-11020	Potentiostat
VDC	POTEN	0.00000E+000	T	DC &Voltage (V)
FREQINIT	QUANT	1.00000E+006	Initial Fre&q. (Hz)
FREQFINAL	QUANT	1.00000E+000	Final Fre&q. (Hz)
PTSPERDEC	QUANT	1.00000E+001	Points/&decade
VAC	QUANT	2.50000E+001	AC &Voltage (mV rms)
AREA	QUANT	1.00000E-002	&Area (cm^2)
CONDIT	TWOPARAM	T	5.00000E+000	0.00000E+000	Conditionin&g	Time(s)	E(V)
DELAY	TWOPARAM	T	5.00000E+000	0.00000E+000	Init. De&lay	Time(s)	Stab.(mV/s)
SPEED	SELECTOR	0	&Optimize for:
ZGUESS	QUANT	1.00000E+005	E&stimated Z (ohms)
OCVCURVE	TABLE	19
	Pt	T	Vf	Vm	Ach	Over
	#	s	V vs. Ref.	V	V	bits
	0	0.258333	3.31570E-003	3.31570E-003	5.22200E-004	...........
	1	0.516667	3.32338E-003	3.71754E-003	5.20733E-004	...........
	2	0.775	3.37151E-003	4.15048E-003	5.26366E-004	...........
	3	1.03333	3.50967E-003	4.49742E-003	5.30933E-004	...........
	4	1.29167	3.75551E-003	4.72407E-003	5.23166E-004	...........
	5	1.55	4.06932E-003	4.97122E-003	5.25000E-004	...........
	6	1.80833	4.39106E-003	5.23726E-003	5.21833E-004	...........
	7	2.06667	4.68640E-003	5.42455E-003	5.25266E-004	...........
	8	2.325	4.94968E-003	5.58485E-003	5.22766E-004	...........
	9	2.58333	5.18381E-003	5.80746E-003	5.21733E-004	...........
	10	2.84167	5.39600E-003	6.06756E-003	5.29266E-004	...........
	11	3.1	5.59752E-003	6.07163E-003	5.28133E-004	...........
	12	3.35833	5.78920E-003	6.28670E-003	5.26933E-004	...........
	13	3.61667	5.96455E-003	6.54669E-003	5.25300E-004	...........
	14	3.875	6.13279E-003	6.73115E-003	5.24633E-004	...........
	15	4.13333	6.31009E-003	6.79921E-003	5.33533E-004	...........
	16	4.39167	6.49065E-003	6.89732E-003	5.24900E-004	...........
	17	4.65	6.65316E-003	7.03981E-003	5.27400E-004	...........
	18	4.90833	6.78938E-003	7.13541E-003	5.25166E-004	...........
EOC	QUANT	0.0067894	Open Circuit (V)
PSTATMODEL	IQUANT	4	Pstat Model
PSTATSECTION	LABEL	REF600-11020	Pstat Section
PSTATSERIALNO	LABEL	11020	Pstat Serial Number
CTRLMODE	IQUANT	1	Control Mode
IESTAB	IQUANT	0	I/E Stability
CASPEED	IQUANT	1	Control Amp Speed
CONVENTION	IQUANT	1	Current Convention
ICHRANGE	IQUANT	2	Ich Range
ICHRANGEMODE	TOGGLE	F	Ich Auto Range
ICHOFFSETENABLE	TOGGLE	T	Ich Offset Enable
ICHOFFSET	QUANT	0	Ich Offset (V)
ICHFILTER	IQUANT	3	Ich Filter
VCHRANGE	IQUANT	2	Vch Range
VCHRANGEMODE	TOGGLE	F	Vch Auto Range
VCHOFFSETENABLE	TOGGLE	T	Vch Offset Enable
VCHOFFSET	QUANT	0	Vch Offset (V)
VCHFILTER	IQUANT	3	Vch Filter
ACHRANGE	IQUANT	2	Ach Range
ACHOFFSETENABLE	TOGGLE	F	Ach Offset Enable
ACHOFFSET	QUANT	0	Ach Offset (V)
ACHFILTER	IQUANT	3	Ach Filter
IERANGELOWERLIMIT	IQUANT	1	I/E Range Lower Limit
IERANGEMODE	TOGGLE	F	I/E AutoRange
IERANGE	IQUANT	5	I/E Range
POSFEEDENABLE	TOGGLE	F	Positive Feedback IR Comp
POSFEEDRESISTANCE	QUANT	0	Positive Feedback Resistance (ohm)
ACHSELECT	IQUANT	0	Ach Select
CABLEID	IQUANT	14	Cable ID
DCCALDATE	LABEL	8/19/2019	DC Calibration Date
ACCALDATE	LABEL	8/19/2019	AC Calibration Date
THERMOSELECT	IQUANT	1	Thermo Select
FRAMEWORKVERSION	QUANT	6.33	Framework Version
INSTRUMENTVERSION	LABEL	3.50	Instrument Version
ZCURVE	TABLE
	Pt	Time	Freq	Zreal	Zimag	Zsig	Zmod	Zphz	Idc	Vdc	IERange
	#	s	Hz	ohm	ohm	V	ohm	°	A	V	#
	0	1	1000078	2342.815	-1331.642	1	2694.82	-29.61364	-5.146098E-006	0.00995	8
	1	1	794390.6	2586.246	-1225.449	1	2861.887	-25.35315	3.63356E-006	0.0085583	8
	2	2	630984.4	2793.912	-1091.197	1	2999.442	-21.33375	-1.286183E-006	0.0085824	8
	3	2	501234.4	2963.016	-936.7304	1	3107.56	-17.54387	4.400059E-006	0.0077912	8
	4	2	398109.4	3095.339	-820.3124	1	3202.192	-14.84305	3.647111E-006	0.0077694	8
	5	3	316265.6	3179.057	-699.2997	1	3255.061	-12.40582	1.215408E-006	0.0082625	8
	6	3	251203.1	3242.86	-606.5803	1	3299.103	-10.5948	-4.129454E-006	0.0093411	8
	7	3	199546.9	3299.027	-501.3686	1	3336.907	-8.641385	1.375196E-006	0.0079612	8
	8	3	158578.1	3347.432	-421.6465	1	3373.883	-7.179235	3.748541E-006	0.0077702	8
	9	4	125953.1	3397.131	-320.3229	1	3412.2	-5.386618	5.774302E-007	0.0070697	7
	10	4	100078.1	3398.45	-274.7008	1	3409.534	-4.62124	3.768092E-008	0.0083077	7
	11	4	79453.13	3416.111	-249.6595	1	3425.221	-4.179915	6.706367E-009	0.0082733	7
	12	5	63140.62	3433.311	-232.3716	1	3441.166	-3.871958	1.264852E-007	0.008145	7
	13	5	50203.12	3450.459	-219.5804	1	3457.439	-3.64128	-2.008477E-008	0.0083929	7
	14	5	39890.62	3464.83	-213.9984	1	3471.432	-3.534272	-3.505869E-008	0.0083502	7
	15	6	31640.63	3480.211	-215.1106	1	3486.853	-3.536932	-2.166002E-008	0.0083925	7
	16	6	25171.88	3494.54	-221.9415	1	3501.581	-3.634028	3.683081E-008	0.0082993	7
	17	6	20015.62	3515.346	-222.1721	1	3522.36	-3.616319	7.635963E-008	0.0081732	7
	18	7	15890.62	3519.795	-257.1557	1	3529.177	-4.178597	-3.611974E-008	0.0083678	7
	19	7	12609.37	3533.399	-290.6974	1	3545.337	-4.703207	3.381477E-008	0.0082101	7
	20	7	10078.13	3549.5	-330.8626	1	3564.887	-5.325373	-4.501786E-008	0.0083611	7
	21	8	8015.625	3554.666	-387.1178	1	3575.683	-6.215254	3.37382E-008	0.0082022	7
	22	8	6328.125	3581.8	-458.7947	1	3611.064	-7.299301	7.4725E-008	0.0081697	7
	23	8	5015.625	3601.791	-550.114	1	3643.559	-8.683873	-4.084388E-008	0.0083712	7
	24	9	3984.375	3616.421	-668.9604	1	3677.772	-10.48003	1.221143E-007	0.0081389	7
	25	9	3170.956	3652.263	-803.8806	1	3739.686	-12.41314	-4.800106E-008	0.0083664	7
	26	9	2527.573	3684.271	-976.733	1	3811.543	-14.84805	-2.386029E-008	0.0083222	7
	27	9	1976.103	3727.751	-1210.931	1	3919.5	-17.99598	-2.434786E-008	0.0083136	7
	28	10	1577.524	3764.189	-1428.007	1	4025.956	-20.77507	6.765796E-009	0.0082635	7
	29	10	1265.625	3835.814	-1788.64	1	4232.34	-24.99964	-2.318834E-008	0.0083151	7
	30	10	998.264	3915.574	-2208.759	1	4495.591	-29.42716	-8.364776E-009	0.008285	7
	31	11	796.875	4013.664	-2698.896	1	4836.687	-33.91795	-5.568729E-009	0.0083675	7
	32	11	627.7902	4147.264	-3336.916	1	5323.045	-38.82038	1.246447E-007	0.0081458	7
	33	11	505.5147	4301.647	-4044.658	1	5904.526	-43.23637	-5.224854E-008	0.0084896	7
	34	12	397.9953	4526.461	-4995.269	1	6741.036	-47.81871	1.934154E-009	0.0083492	7
	35	12	315.5048	4813.814	-6125.676	1	7790.81	-51.83825	3.405402E-009	0.0083471	7
	36	12	252.4038	5173.547	-7442.907	1	9064.351	-55.19693	3.98681E-009	0.0083446	7
	37	13	198.6229	5685.391	-9150.098	1	10772.56	-58.14535	6.062342E-011	0.0082853	6
	38	13	158.3615	6315.399	-11099.1	1	12770.06	-60.36008	8.676212E-010	0.0082841	6
	39	13	125.558	7170.114	-13473.28	1	15262.36	-61.9793	7.094202E-010	0.0082816	6
	40	14	100.4464	8229.037	-16199.64	1	18169.9	-63.0705	-1.190883E-009	0.0082815	6
	41	14	79.00281	9657.73	-19620.29	1	21868.41	-63.79213	-1.107065E-009	0.0082809	6
	42	14	63.3446	11625.67	-23049.62	1	25815.52	-63.23472	4.226426E-010	0.008278	6
	43	15	49.86702	13961.95	-27671.99	1	30994.76	-63.22668	1.158434E-009	0.0082753	6
	44	15	39.72458	16488.34	-32749.24	1	36665.76	-63.27601	4.929165E-010	0.0082793	6
	45	15	31.6723	19706.48	-38419.28	1	43178.54	-62.84526	6.954806E-010	0.0082807	6
	46	16	24.93351	23807.29	-45070.81	1	50972.2	-62.1561	-1.561908E-010	0.0082779	6
	47	16	19.86229	28114.52	-52400.55	1	59466.32	-61.78506	5.867928E-011	0.0082765	6
	48	16	15.83615	33396.37	-60796.42	1	69365.14	-61.21935	2.106847E-009	0.0082798	6
	49	17	12.40079	39202.32	-71237.6	1	81311.86	-61.17584	-5.70069E-010	0.008282	6
	50	17	9.93114	44787	-82411.35	1	93795.02	-61.47784	8.118972E-010	0.0082826	6
	51	18	7.944915	51354.36	-95837	1	108729	-61.81532	7.335961E-010	0.0082799	5
	52	18	6.317385	59216.07	-112254.4	1	126915.7	-62.1876	6.415276E-010	0.0082694	5
	53	19	5.008013	68430.05	-132464.5	1	149095.7	-62.67951	3.590151E-011	0.0082778	5
	54	20	3.945707	79936.34	-157214.7	1	176369.8	-63.04879	-2.591617E-010	0.0082865	5
	55	21	3.158693	92174.64	-185203.2	1	206872.8	-63.54071	-4.241814E-010	0.0082693	5
	56	23	2.504006	107922.6	-219242.6	1	244365.7	-63.79119	-1.158334E-010	0.0082661	5
	57	24	1.998082	125768	-258387.1	1	287370	-64.04585	-7.844312E-011	0.008299	5
	58	26	1.584686	148551.9	-304925.8	1	339186.4	-64.02586	-2.717569E-010	0.0082494	5
	59	28	1.266892	174875	-358947.1	1	399279.7	-64.02518	-2.781244E-010	0.0082295	5
	60	30	0.999041	206949.7	-425940.1	1	473553.8	-64.08647	-2.811401E-010	0.0082351	5
