EXPLAIN
TAG	EISPOT
TITLE	LABEL	Potentiostatic EIS	Test &Identifier
DATE	LABEL	11/27/2019	Date
TIME	LABEL	13:59:59	Time
NOTES	NOTES	3	&Notes...
	
	
	
PSTAT	PSTAT	REF600-11020	Potentiostat
VDC	POTEN	0.00000E+000	T	DC &Voltage (V)
FREQINIT	QUANT	1.00000E+006	Initial Fre&q. (Hz)
FREQFINAL	QUANT	1.00000E+000	Final Fre&q. (Hz)
PTSPERDEC	QUANT	1.00000E+001	Points/&decade
VAC	QUANT	2.50000E+001	AC &Voltage (mV rms)
AREA	QUANT	1.00000E-002	&Area (cm^2)
CONDIT	TWOPARAM	T	5.00000E+000	0.00000E+000	Conditionin&g	Time(s)	E(V)
DELAY	TWOPARAM	T	5.00000E+000	0.00000E+000	Init. De&lay	Time(s)	Stab.(mV/s)
SPEED	SELECTOR	0	&Optimize for:
ZGUESS	QUANT	1.00000E+005	E&stimated Z (ohms)
OCVCURVE	TABLE	19
	Pt	T	Vf	Vm	Ach	Over
	#	s	V vs. Ref.	V	V	bits
	0	0.258333	5.89093E-002	5.89093E-002	5.47799E-004	...........
	1	0.516667	5.89891E-002	6.30868E-002	5.48299E-004	...........
	2	0.775	5.94781E-002	6.69897E-002	5.46933E-004	...........
	3	1.03333	6.08524E-002	7.04596E-002	5.45933E-004	...........
	4	1.29167	6.32806E-002	7.37447E-002	5.44866E-004	...........
	5	1.55	6.64460E-002	7.66936E-002	5.47566E-004	...........
	6	1.80833	6.98627E-002	7.95197E-002	5.47433E-004	...........
	7	2.06667	7.31884E-002	8.20474E-002	5.46233E-004	...........
	8	2.325	7.62817E-002	8.45086E-002	5.43966E-004	...........
	9	2.58333	7.91261E-002	8.67308E-002	5.49233E-004	...........
	10	2.84167	8.17514E-002	8.88894E-002	5.48366E-004	...........
	11	3.1	8.41921E-002	9.08500E-002	5.45766E-004	...........
	12	3.35833	8.64736E-002	9.27412E-002	5.48633E-004	...........
	13	3.61667	8.86122E-002	9.44813E-002	5.47566E-004	...........
	14	3.875	9.06188E-002	9.61353E-002	5.49733E-004	...........
	15	4.13333	9.25036E-002	9.77398E-002	5.55233E-004	...........
	16	4.39167	9.42786E-002	9.92259E-002	5.51433E-004	...........
	17	4.65	9.59568E-002	1.00656E-001	5.49566E-004	...........
	18	4.90833	9.75476E-002	1.01998E-001	5.49733E-004	...........
EOC	QUANT	0.0975476	Open Circuit (V)
PSTATMODEL	IQUANT	4	Pstat Model
PSTATSECTION	LABEL	REF600-11020	Pstat Section
PSTATSERIALNO	LABEL	11020	Pstat Serial Number
CTRLMODE	IQUANT	1	Control Mode
IESTAB	IQUANT	0	I/E Stability
CASPEED	IQUANT	1	Control Amp Speed
CONVENTION	IQUANT	1	Current Convention
ICHRANGE	IQUANT	2	Ich Range
ICHRANGEMODE	TOGGLE	F	Ich Auto Range
ICHOFFSETENABLE	TOGGLE	T	Ich Offset Enable
ICHOFFSET	QUANT	0	Ich Offset (V)
ICHFILTER	IQUANT	3	Ich Filter
VCHRANGE	IQUANT	2	Vch Range
VCHRANGEMODE	TOGGLE	F	Vch Auto Range
VCHOFFSETENABLE	TOGGLE	T	Vch Offset Enable
VCHOFFSET	QUANT	0	Vch Offset (V)
VCHFILTER	IQUANT	3	Vch Filter
ACHRANGE	IQUANT	2	Ach Range
ACHOFFSETENABLE	TOGGLE	F	Ach Offset Enable
ACHOFFSET	QUANT	0	Ach Offset (V)
ACHFILTER	IQUANT	3	Ach Filter
IERANGELOWERLIMIT	IQUANT	1	I/E Range Lower Limit
IERANGEMODE	TOGGLE	F	I/E AutoRange
IERANGE	IQUANT	6	I/E Range
POSFEEDENABLE	TOGGLE	F	Positive Feedback IR Comp
POSFEEDRESISTANCE	QUANT	0	Positive Feedback Resistance (ohm)
ACHSELECT	IQUANT	0	Ach Select
CABLEID	IQUANT	14	Cable ID
DCCALDATE	LABEL	8/19/2019	DC Calibration Date
ACCALDATE	LABEL	8/19/2019	AC Calibration Date
THERMOSELECT	IQUANT	1	Thermo Select
FRAMEWORKVERSION	QUANT	6.33	Framework Version
INSTRUMENTVERSION	LABEL	3.50	Instrument Version
ZCURVE	TABLE
	Pt	Time	Freq	Zreal	Zimag	Zsig	Zmod	Zphz	Idc	Vdc	IERange
	#	s	Hz	ohm	ohm	V	ohm	°	A	V	#
	0	2	1000078	1999.283	-2160.895	1	2943.909	-47.22467	4.642204E-006	0.1001693	8
	1	2	794390.6	2412.74	-2306.607	1	3337.927	-43.71169	-2.415483E-006	0.0989702	8
	2	2	630984.4	2876.415	-2391.156	1	3740.506	-39.73666	2.490209E-006	0.0995486	8
	3	3	501234.4	3354.885	-2398.233	1	4123.927	-35.559	-7.796235E-007	0.0996072	8
	4	3	398109.4	3798.161	-2349.683	1	4466.211	-31.74247	1.794974E-006	0.0993795	8
	5	3	316265.6	4257.263	-2230.466	1	4806.169	-27.65096	-4.967649E-007	0.0994959	8
	6	3	251203.1	4621.967	-2091.383	1	5073.112	-24.34616	-5.893439E-007	0.0987643	8
	7	4	199546.9	4954.359	-1910.156	1	5309.837	-21.08417	-1.250714E-006	0.0994188	8
	8	4	158578.1	5211.917	-1739.791	1	5494.629	-18.45953	-4.204422E-006	0.0993981	8
	9	4	125953.1	5450.782	-1510.554	1	5656.218	-15.48944	-6.209081E-007	0.1022415	7
	10	5	100078.1	5637.121	-1411.64	1	5811.184	-14.05882	6.695991E-008	0.0999927	7
	11	5	79453.13	5818.529	-1267.5	1	5954.984	-12.28924	1.022053E-007	0.0976387	7
	12	5	63140.62	5970.585	-1193.583	1	6088.721	-11.305	9.843833E-007	0.0972911	7
	13	6	50203.12	6057.138	-1124.741	1	6160.679	-10.51936	-7.487919E-007	0.0988586	7
	14	6	39890.62	6179.53	-1094.626	1	6275.73	-10.04503	-3.262531E-007	0.0981626	7
	15	7	31640.63	6309.867	-1084.753	1	6402.43	-9.75458	4.786004E-007	0.0973156	7
	16	7	25171.88	6397.936	-1093.369	1	6490.688	-9.69782	-3.281893E-007	0.0981582	7
	17	8	20015.62	6515.526	-1135.29	1	6613.695	-9.8842	9.409374E-008	0.0976208	7
	18	8	15890.62	6652.722	-1202.666	1	6760.556	-10.24714	8.419639E-007	0.0987674	7
	19	8	12609.37	6779.552	-1287.804	1	6900.78	-10.75543	1.093923E-006	0.0975176	7
	20	9	10078.13	6896.832	-1395.148	1	7036.528	-11.43594	4.745581E-007	0.0973139	7
	21	9	8015.625	7048.134	-1536.376	1	7213.643	-12.29716	8.485681E-007	0.0987641	7
	22	9	6328.125	7213.397	-1703.315	1	7411.773	-13.28601	4.741632E-007	0.0973102	7
	23	9	5015.625	7370.739	-1898.304	1	7611.265	-14.44243	-7.55799E-007	0.0988549	7
	24	10	3984.375	7566.01	-2132.096	1	7860.683	-15.7378	-1.067783E-006	0.0995275	7
	25	10	3170.956	7792.753	-2403.95	1	8155.12	-17.14423	-1.067446E-006	0.0995243	7
	26	10	2527.573	8058.167	-2716.725	1	8503.802	-18.63099	-6.222056E-007	0.1006027	7
	27	11	1976.103	8391.86	-3114.979	1	8951.336	-20.36445	9.666597E-008	0.0976126	7
	28	11	1577.524	8716.387	-3480.644	1	9385.643	-21.76791	1.772708E-007	0.0973837	6
	29	11	1265.625	9004.687	-3978.872	1	9844.58	-23.83904	-1.983339E-007	0.1020131	6
	30	12	998.264	9404.029	-4579.223	1	10459.69	-25.96342	2.187473E-008	0.1005432	6
	31	12	796.875	9796.62	-5249.799	1	11114.59	-28.18591	1.768446E-007	0.0973903	6
	32	12	627.7902	10200.99	-6094.106	1	11882.69	-30.85425	2.21388E-008	0.1005509	6
	33	13	505.5147	10588.19	-7014.302	1	12700.8	-33.52306	5.422179E-008	0.0963798	6
	34	13	397.9953	11055.74	-8282.508	1	13814.1	-36.83906	-3.172669E-009	0.0989593	6
	35	13	315.5048	11535.06	-9807.75	1	15140.99	-40.37304	-1.936526E-009	0.0989437	6
	36	13	252.4038	12034.84	-11627.71	1	16734.43	-44.01429	-3.086593E-009	0.0989546	6
	37	14	198.6229	12643.56	-14055.07	1	18905.14	-48.02631	-2.469333E-009	0.0989579	6
	38	14	158.3615	13309.82	-16923.38	1	21530.26	-51.81582	-1.570401E-009	0.0989519	6
	39	14	125.558	14125.92	-20565.34	1	24949.44	-55.51561	-2.221715E-009	0.0989572	6
	40	15	100.4464	15156.97	-24885.59	1	29138.05	-58.65582	-1.160785E-009	0.0989476	6
	41	15	79.00281	16559.52	-30668.67	1	34853.77	-61.63322	-2.633329E-009	0.0989553	6
	42	15	63.3446	17673.3	-36818.79	1	40840.77	-64.35863	-2.581189E-009	0.0989449	6
	43	16	49.86702	20097.18	-45359.75	1	49612.53	-66.10369	-3.13196E-009	0.0989484	6
	44	16	39.72458	23157.59	-55480.6	1	60119.64	-67.34436	-1.820661E-009	0.0989462	6
	45	16	31.6723	26939.66	-67507.05	1	72683.89	-68.24482	-1.106826E-009	0.0989537	6
	46	17	24.93351	32097.27	-82125.4	1	88174.91	-68.65283	-2.127277E-009	0.0989462	6
	47	17	19.86229	38241.46	-99295.8	1	106405.2	-68.93697	-3.109311E-009	0.0989585	5
	48	17	15.83615	46052.41	-117709.3	1	126397.4	-68.63264	-3.097793E-009	0.0989536	5
	49	18	12.40079	59297.6	-144364.7	1	156068.5	-67.66967	-3.453236E-009	0.0989533	5
	50	18	9.93114	70473.9	-171100.2	1	185045.5	-67.61388	-1.908688E-009	0.0989448	5
	51	19	7.944915	86300.41	-201815.3	1	219493	-66.84744	-2.318226E-009	0.0989633	5
	52	19	6.317385	106463.5	-238739.3	1	261401.9	-65.96597	-2.300862E-009	0.0989498	5
	53	20	5.008013	131821.4	-281274.6	1	310632	-64.88953	-2.19085E-009	0.0989579	5
	54	21	3.945707	162993.4	-331055.6	1	369005	-63.78692	-2.307672E-009	0.098951	5
	55	22	3.158693	197162	-383408.5	1	431132.2	-62.7862	-2.294387E-009	0.0989295	5
	56	24	2.504006	239555	-445498.9	1	505822	-61.73206	-2.084357E-009	0.0989424	5
	57	25	1.998082	285697.2	-513032.7	1	587218.4	-60.88747	-2.135043E-009	0.0989484	5
	58	27	1.584686	342853.9	-592546.1	1	684587.3	-59.94584	-2.181651E-009	0.0989068	5
	59	29	1.266892	404465.2	-682013.8	1	792928.1	-59.33013	-2.135993E-009	0.0989067	5
	60	31	0.999041	479728.5	-790352.6	1	924552.2	-58.74307	-2.076959E-009	0.098926	5
