EXPLAIN
TAG	EISPOT
TITLE	LABEL	Potentiostatic EIS	Test &Identifier
DATE	LABEL	10/24/2019	Date
TIME	LABEL	9:16:20	Time
NOTES	NOTES	1	&Notes...
	
PSTAT	PSTAT	REF600-11020	Potentiostat
VDC	POTEN	0.00000E+000	T	DC &Voltage (V)
FREQINIT	QUANT	1.00000E+006	Initial Fre&q. (Hz)
FREQFINAL	QUANT	1.00000E+000	Final Fre&q. (Hz)
PTSPERDEC	QUANT	1.00000E+001	Points/&decade
VAC	QUANT	2.50000E+001	AC &Voltage (mV rms)
AREA	QUANT	1.00000E-002	&Area (cm^2)
CONDIT	TWOPARAM	T	5.00000E+000	0.00000E+000	Conditionin&g	Time(s)	E(V)
DELAY	TWOPARAM	T	5.00000E+000	0.00000E+000	Init. De&lay	Time(s)	Stab.(mV/s)
SPEED	SELECTOR	1	&Optimize for:
ZGUESS	QUANT	1.00000E+005	E&stimated Z (ohms)
OCVCURVE	TABLE	19
	Pt	T	Vf	Vm	Ach	Over
	#	s	V vs. Ref.	V	V	bits
	0	0.258333	6.36139E-003	6.36139E-003	5.47533E-004	...........
	1	0.516667	6.35941E-003	6.25818E-003	5.47133E-004	...........
	2	0.775	6.34798E-003	6.19568E-003	5.54799E-004	...........
	3	1.03333	6.31802E-003	6.14296E-003	5.55399E-004	...........
	4	1.29167	6.26861E-003	6.05247E-003	5.58266E-004	...........
	5	1.55	6.21025E-003	6.19258E-003	5.51499E-004	...........
	6	1.80833	6.15308E-003	5.67340E-003	5.54033E-004	...........
	7	2.06667	6.07723E-003	5.35011E-003	5.57233E-004	...........
	8	2.325	5.93919E-003	5.32684E-003	5.56599E-004	...........
	9	2.58333	5.74190E-003	5.45524E-003	5.52866E-004	...........
	10	2.84167	5.56335E-003	5.77818E-003	5.47833E-004	...........
	11	3.1	5.49797E-003	6.30052E-003	5.43766E-004	...........
	12	3.35833	5.59554E-003	6.53633E-003	5.47699E-004	...........
	13	3.61667	5.83570E-003	6.71314E-003	5.50366E-004	...........
	14	3.875	6.13766E-003	6.73270E-003	5.48033E-004	...........
	15	4.13333	6.41580E-003	7.07288E-003	5.46899E-004	...........
	16	4.39167	6.62727E-003	6.57096E-003	5.50333E-004	...........
	17	4.65	6.75250E-003	6.62457E-003	5.46499E-004	...........
	18	4.90833	6.78018E-003	6.67311E-003	5.49533E-004	...........
EOC	QUANT	0.0067802	Open Circuit (V)
PSTATMODEL	IQUANT	4	Pstat Model
PSTATSECTION	LABEL	REF600-11020	Pstat Section
PSTATSERIALNO	LABEL	11020	Pstat Serial Number
CTRLMODE	IQUANT	1	Control Mode
IESTAB	IQUANT	0	I/E Stability
CASPEED	IQUANT	1	Control Amp Speed
CONVENTION	IQUANT	1	Current Convention
ICHRANGE	IQUANT	2	Ich Range
ICHRANGEMODE	TOGGLE	F	Ich Auto Range
ICHOFFSETENABLE	TOGGLE	T	Ich Offset Enable
ICHOFFSET	QUANT	0	Ich Offset (V)
ICHFILTER	IQUANT	3	Ich Filter
VCHRANGE	IQUANT	2	Vch Range
VCHRANGEMODE	TOGGLE	F	Vch Auto Range
VCHOFFSETENABLE	TOGGLE	T	Vch Offset Enable
VCHOFFSET	QUANT	0	Vch Offset (V)
VCHFILTER	IQUANT	3	Vch Filter
ACHRANGE	IQUANT	2	Ach Range
ACHOFFSETENABLE	TOGGLE	F	Ach Offset Enable
ACHOFFSET	QUANT	0	Ach Offset (V)
ACHFILTER	IQUANT	3	Ach Filter
IERANGELOWERLIMIT	IQUANT	1	I/E Range Lower Limit
IERANGEMODE	TOGGLE	F	I/E AutoRange
IERANGE	IQUANT	5	I/E Range
POSFEEDENABLE	TOGGLE	F	Positive Feedback IR Comp
POSFEEDRESISTANCE	QUANT	0	Positive Feedback Resistance (ohm)
ACHSELECT	IQUANT	0	Ach Select
CABLEID	IQUANT	14	Cable ID
DCCALDATE	LABEL	8/19/2019	DC Calibration Date
ACCALDATE	LABEL	8/19/2019	AC Calibration Date
THERMOSELECT	IQUANT	1	Thermo Select
FRAMEWORKVERSION	QUANT	6.33	Framework Version
INSTRUMENTVERSION	LABEL	3.50	Instrument Version
ZCURVE	TABLE
	Pt	Time	Freq	Zreal	Zimag	Zsig	Zmod	Zphz	Idc	Vdc	IERange
	#	s	Hz	ohm	ohm	V	ohm	°	A	V	#
	0	2	1000078	2415.809	-1537.872	1	2863.771	-32.48029	1.02292E-006	0.0091021	8
	1	4	794390.6	2732.966	-1431.25	1	3085.058	-27.64098	2.167612E-006	0.0081372	8
	2	5	630984.4	2982.25	-1309.308	1	3257.009	-23.70309	-1.051725E-007	0.0084255	8
	3	6	501234.4	3182.086	-1163.314	1	3388.063	-20.08152	-2.737034E-006	0.0090051	8
	4	8	398109.4	3329.304	-1008.737	1	3478.767	-16.85615	1.207135E-006	0.0080306	8
	5	9	316265.6	3459.962	-881.2367	1	3570.423	-14.28917	-7.308519E-008	0.0083087	8
	6	11	251203.1	3553.163	-756.2042	1	3632.742	-12.01475	1.0292E-006	0.008092	8
	7	12	199546.9	3633.804	-663.1879	1	3693.826	-10.34294	1.1941E-006	0.0080681	8
	8	13	158578.1	3688.32	-585.6087	1	3734.52	-9.021764	-2.505665E-006	0.0088466	8
	9	15	125953.1	3751.446	-490.455	1	3783.37	-7.448468	-3.832458E-007	0.0086309	7
	10	16	100078.1	3776.265	-448.9038	1	3802.853	-6.779227	-1.145546E-008	0.0083144	7
	11	17	79453.13	3811.173	-428.6474	1	3835.202	-6.417161	3.352098E-008	0.0081678	7
	12	19	63140.62	3846.963	-419.5671	1	3869.775	-6.224334	3.031741E-008	0.0082468	7
	13	20	50203.12	3881.754	-420.7875	1	3904.494	-6.186784	6.633795E-008	0.0082382	7
	14	21	39890.62	3921.851	-432.1242	1	3945.585	-6.287701	-3.239112E-008	0.0083107	7
	15	23	31640.63	3963.029	-451.6455	1	3988.681	-6.501647	-2.89438E-008	0.0082858	7
	16	24	25171.88	4006.453	-482.3399	1	4035.383	-6.864844	3.301309E-008	0.0082319	7
	17	26	20015.62	4057.052	-519.4468	1	4090.17	-7.2962	-2.273747E-010	0.0082298	7
	18	27	15890.62	4108.809	-571.0701	1	4148.305	-7.912665	-4.0201E-009	0.0083711	7
	19	28	12609.37	4167.666	-630.0294	1	4215.018	-8.596361	-1.922526E-008	0.0082715	7
	20	30	10078.13	4228.52	-699.0431	1	4285.912	-9.387024	-2.090052E-008	0.0082704	7
	21	31	8015.625	4296.895	-773.3185	1	4365.928	-10.20239	-3.444922E-008	0.0083477	7
	22	32	6328.125	4370.41	-887.0674	1	4459.526	-11.47353	-3.868492E-009	0.0083033	7
	23	34	5015.625	4449.249	-1010.501	1	4562.557	-12.79579	-3.655265E-008	0.0083409	7
	24	35	3984.375	4542.555	-1154.54	1	4686.979	-14.2604	6.51034E-008	0.0081399	7
	25	36	3170.956	4618.47	-1333.901	1	4807.24	-16.10971	-2.021918E-008	0.0082689	7
	26	38	2527.573	4710.686	-1549.806	1	4959.079	-18.2111	-5.118121E-008	0.0083529	7
	27	39	1976.103	4818.785	-1835.026	1	5156.356	-20.84718	-1.315104E-008	0.0083185	7
	28	40	1577.524	4954.999	-2179.929	1	5413.327	-23.74687	-2.062864E-008	0.0082684	7
	29	42	1265.625	5047.65	-2546.766	1	5653.741	-26.77299	-8.337296E-010	0.0082256	7
	30	43	998.264	5196.788	-3055.865	1	6028.675	-30.45679	-4.883414E-009	0.0083072	7
	31	44	796.875	5348.73	-3652.87	1	6477.065	-34.33079	3.086729E-008	0.0082362	7
	32	46	627.7902	5541.266	-4425.306	1	7091.471	-38.61119	-1.295046E-009	0.00823	7
	33	47	505.5147	5738.14	-5290.907	1	7805.123	-42.6779	-2.050422E-008	0.008265	7
	34	48	397.9953	5991.59	-6454.528	1	8806.82	-47.13016	3.667885E-009	0.0082979	7
	35	50	315.5048	6279.661	-7855.457	1	10056.96	-51.36112	1.350394E-009	0.0082345	6
	36	51	252.4038	6601.304	-9513.99	1	11579.86	-55.24507	2.313595E-010	0.0082328	6
	37	52	198.6229	7018.078	-11714.39	1	13655.78	-59.07422	1.019009E-009	0.0082373	6
	38	54	158.3615	7498.213	-14293.79	1	16141.11	-62.31947	1.093121E-009	0.0082312	6
	39	55	125.558	8116.999	-17543.41	1	19330.21	-65.17092	6.071419E-010	0.0082286	6
	40	56	100.4464	8881.154	-21374.17	1	23145.84	-67.43669	1.481322E-009	0.008226	6
	41	58	79.00281	9940.83	-26529.76	1	28331.05	-69.45878	9.18681E-010	0.0082289	6
	42	59	63.3446	11064.51	-31943.54	1	33805.52	-70.8951	1.08584E-009	0.0082296	6
	43	60	49.86702	13101.05	-39978.38	1	42070.28	-71.85586	-1.94478E-010	0.0082289	6
	44	62	39.72458	15169.35	-48638.96	1	50949.56	-72.67853	-3.40786E-010	0.0082311	6
	45	63	31.6723	17917.34	-59330.67	1	61977.09	-73.19614	6.16227E-010	0.0082327	6
	46	65	24.93351	22021.34	-72995.62	1	76245	-73.21247	3.291626E-010	0.00823	6
	47	66	19.86229	27026.65	-88517.98	1	92552	-73.02132	7.005364E-010	0.0082358	6
	48	67	15.83615	34214	-106651	1	112004.6	-72.21358	1.161745E-009	0.0082334	5
	49	69	12.40079	42721.17	-131402.1	1	138172.4	-71.98973	1.658571E-010	0.0082437	5
	50	70	9.93114	53867.14	-157132.1	1	166108.9	-71.07755	2.642451E-010	0.0082366	5
	51	72	7.944915	67607.81	-186989.9	1	198836.7	-70.1221	-2.221587E-010	0.0082296	5
	52	73	6.317385	85871.24	-222580.1	1	238570.3	-68.90343	-3.582201E-011	0.0082301	5
	53	75	5.008013	109231.6	-264845.1	1	286486.5	-67.58699	-4.84832E-011	0.0082286	5
	54	78	3.945707	139622.9	-313503.5	1	343189.4	-65.99358	3.934238E-010	0.0082395	5
	55	80	3.158693	174672.6	-364199.3	1	403920.3	-64.3773	1.366145E-010	0.0082482	5
	56	84	2.504006	218229.2	-423506	1	476425.5	-62.73831	4.400727E-011	0.0082259	5
	57	86	1.998082	267621.5	-486793.6	1	555508.1	-61.1996	-1.463113E-010	0.0082183	5
	58	90	1.584686	328249	-556039.6	1	645699.2	-59.44521	5.442163E-011	0.0082754	5
	59	93	1.266892	392327.4	-632113.1	1	743967.6	-58.17377	-1.167614E-010	0.0082132	5
	60	97	0.999041	470703.3	-718922.8	1	859308.8	-56.78586	2.806038E-010	0.0082668	5
