EXPLAIN
TAG	EISPOT
TITLE	LABEL	Potentiostatic EIS	Test &Identifier
DATE	LABEL	10/28/2019	Date
TIME	LABEL	10:53:15	Time
NOTES	NOTES	1	&Notes...
	
PSTAT	PSTAT	REF600-11020	Potentiostat
VDC	POTEN	0.00000E+000	T	DC &Voltage (V)
FREQINIT	QUANT	1.00000E+006	Initial Fre&q. (Hz)
FREQFINAL	QUANT	1.00000E+000	Final Fre&q. (Hz)
PTSPERDEC	QUANT	1.00000E+001	Points/&decade
VAC	QUANT	2.50000E+001	AC &Voltage (mV rms)
AREA	QUANT	1.00000E-002	&Area (cm^2)
CONDIT	TWOPARAM	T	5.00000E+000	0.00000E+000	Conditionin&g	Time(s)	E(V)
DELAY	TWOPARAM	T	5.00000E+000	0.00000E+000	Init. De&lay	Time(s)	Stab.(mV/s)
SPEED	SELECTOR	1	&Optimize for:
ZGUESS	QUANT	1.00000E+005	E&stimated Z (ohms)
OCVCURVE	TABLE	19
	Pt	T	Vf	Vm	Ach	Over
	#	s	V vs. Ref.	V	V	bits
	0	0.258333	6.12071E-003	6.12071E-003	5.72966E-004	...........
	1	0.516667	6.11950E-003	6.05740E-003	5.71466E-004	...........
	2	0.775	6.11204E-003	5.99554E-003	5.72599E-004	...........
	3	1.03333	6.09164E-003	5.97929E-003	5.74299E-004	...........
	4	1.29167	6.05898E-003	5.98881E-003	5.70366E-004	...........
	5	1.55	6.02607E-003	6.04463E-003	5.68766E-004	...........
	6	1.80833	6.00870E-003	6.09996E-003	5.68266E-004	...........
	7	2.06667	6.01606E-003	6.14529E-003	5.65566E-004	...........
	8	2.325	6.04640E-003	6.20187E-003	5.65899E-004	...........
	9	2.58333	6.09408E-003	6.40294E-003	5.66732E-004	...........
	10	2.84167	6.16040E-003	6.46794E-003	5.68532E-004	...........
	11	3.1	6.24758E-003	6.51069E-003	5.71066E-004	...........
	12	3.35833	6.34497E-003	6.60592E-003	5.71266E-004	...........
	13	3.61667	6.43356E-003	6.48712E-003	5.71266E-004	...........
	14	3.875	6.49788E-003	6.58993E-003	5.68432E-004	...........
	15	4.13333	6.53524E-003	6.63566E-003	5.71232E-004	...........
	16	4.39167	6.56007E-003	6.67313E-003	5.69166E-004	...........
	17	4.65	6.58946E-003	6.72810E-003	5.65666E-004	...........
	18	4.90833	6.62850E-003	6.78322E-003	5.67966E-004	...........
EOC	QUANT	0.0066285	Open Circuit (V)
PSTATMODEL	IQUANT	4	Pstat Model
PSTATSECTION	LABEL	REF600-11020	Pstat Section
PSTATSERIALNO	LABEL	11020	Pstat Serial Number
CTRLMODE	IQUANT	1	Control Mode
IESTAB	IQUANT	0	I/E Stability
CASPEED	IQUANT	1	Control Amp Speed
CONVENTION	IQUANT	1	Current Convention
ICHRANGE	IQUANT	2	Ich Range
ICHRANGEMODE	TOGGLE	F	Ich Auto Range
ICHOFFSETENABLE	TOGGLE	T	Ich Offset Enable
ICHOFFSET	QUANT	0	Ich Offset (V)
ICHFILTER	IQUANT	3	Ich Filter
VCHRANGE	IQUANT	2	Vch Range
VCHRANGEMODE	TOGGLE	F	Vch Auto Range
VCHOFFSETENABLE	TOGGLE	T	Vch Offset Enable
VCHOFFSET	QUANT	0	Vch Offset (V)
VCHFILTER	IQUANT	3	Vch Filter
ACHRANGE	IQUANT	2	Ach Range
ACHOFFSETENABLE	TOGGLE	F	Ach Offset Enable
ACHOFFSET	QUANT	0	Ach Offset (V)
ACHFILTER	IQUANT	3	Ach Filter
IERANGELOWERLIMIT	IQUANT	1	I/E Range Lower Limit
IERANGEMODE	TOGGLE	F	I/E AutoRange
IERANGE	IQUANT	5	I/E Range
POSFEEDENABLE	TOGGLE	F	Positive Feedback IR Comp
POSFEEDRESISTANCE	QUANT	0	Positive Feedback Resistance (ohm)
ACHSELECT	IQUANT	0	Ach Select
CABLEID	IQUANT	14	Cable ID
DCCALDATE	LABEL	8/19/2019	DC Calibration Date
ACCALDATE	LABEL	8/19/2019	AC Calibration Date
THERMOSELECT	IQUANT	1	Thermo Select
FRAMEWORKVERSION	QUANT	6.33	Framework Version
INSTRUMENTVERSION	LABEL	3.50	Instrument Version
ZCURVE	TABLE
	Pt	Time	Freq	Zreal	Zimag	Zsig	Zmod	Zphz	Idc	Vdc	IERange
	#	s	Hz	ohm	ohm	V	ohm	°	A	V	#
	0	2	1000078	2116.961	-1422.962	1	2550.753	-33.90788	8.478371E-006	0.0078362	8
	1	3	794390.6	2385.341	-1398.517	1	2765.086	-30.38295	-4.959377E-006	0.0090719	8
	2	5	630984.4	2637.783	-1337.602	1	2957.546	-26.88926	-2.927316E-006	0.0093097	8
	3	6	501234.4	2881.124	-1265.621	1	3146.851	-23.71494	-1.435319E-006	0.008739	8
	4	7	398109.4	3099.124	-1130.333	1	3298.821	-20.03826	2.347625E-006	0.0078279	8
	5	9	316265.6	3261.738	-1036.071	1	3422.335	-17.62213	-1.263797E-006	0.008565	8
	6	10	251203.1	3395.944	-916.2414	1	3517.376	-15.09914	2.074621E-007	0.00834	8
	7	12	199546.9	3521.469	-795.0063	1	3610.094	-12.72182	3.704578E-006	0.0074966	8
	8	13	158578.1	3589.528	-701.4125	1	3657.416	-11.05657	9.983819E-007	0.0080288	8
	9	15	125953.1	3701.473	-544.81	1	3741.353	-8.373094	-3.562872E-007	0.0098815	7
	10	16	100078.1	3749.713	-479.3131	1	3780.223	-7.284422	7.523445E-008	0.0081546	7
	11	17	79453.13	3799.033	-454.95	1	3826.177	-6.828887	-5.964799E-008	0.0083514	7
	12	19	63140.62	3837.959	-424.4456	1	3861.358	-6.310781	1.365882E-007	0.0080805	7
	13	20	50203.12	3876.247	-403.0029	1	3897.14	-5.935563	-6.807953E-009	0.0082812	7
	14	21	39890.62	3911.917	-392.1432	1	3931.522	-5.724391	1.040602E-007	0.0081865	7
	15	23	31640.63	3947.697	-390.2914	1	3966.943	-5.646234	1.369382E-007	0.0080749	7
	16	24	25171.88	3983.248	-398.8077	1	4003.163	-5.71747	-4.415681E-008	0.0082761	7
	17	25	20015.62	4022.649	-414.2714	1	4043.925	-5.879861	1.380915E-007	0.0080719	7
	18	27	15890.62	4068.708	-435.1464	1	4091.912	-6.104551	-4.291133E-008	0.0082753	7
	19	28	12609.37	4112.052	-465.0664	1	4138.267	-6.452641	-6.228194E-009	0.0082743	7
	20	29	10078.13	4154.472	-499.265	1	4184.364	-6.852676	8.842845E-008	0.0080787	7
	21	31	8015.625	4222.774	-536.8427	1	4256.762	-7.245166	4.936687E-008	0.0081144	7
	22	32	6328.125	4272.02	-598.0375	1	4313.676	-7.969015	-4.793629E-009	0.0083113	7
	23	34	5015.625	4327.779	-664.0397	1	4378.427	-8.723238	-4.165959E-008	0.0083695	7
	24	35	3984.375	4393.889	-743.2061	1	4456.3	-9.60045	-6.682955E-009	0.0082407	7
	25	36	3170.956	4438.119	-837.6078	1	4516.468	-10.68774	-2.221319E-008	0.0082391	7
	26	38	2527.573	4492.534	-957.011	1	4593.336	-12.02555	1.329376E-007	0.0080809	7
	27	39	1976.103	4546.53	-1123.393	1	4683.262	-13.8791	4.760882E-008	0.0082026	7
	28	40	1577.524	4588.069	-1343.582	1	4780.752	-16.32227	-8.821565E-010	0.0082155	7
	29	42	1265.625	4661.471	-1558.032	1	4914.955	-18.48149	-6.712869E-008	0.0083697	7
	30	43	998.264	4728.147	-1875.354	1	5086.485	-21.63507	-4.054449E-008	0.0083666	7
	31	44	796.875	4802.882	-2259.7	1	5307.911	-25.19643	-6.96306E-008	0.0083385	7
	32	46	627.7902	4892.591	-2766.883	1	5620.773	-29.48924	1.741129E-008	0.0083605	7
	33	47	505.5147	4991.471	-3337.175	1	6004.292	-33.76572	-2.957983E-008	0.0083208	7
	34	48	397.9953	5123.071	-4117.455	1	6572.617	-38.78913	4.519745E-009	0.008283	7
	35	50	315.5048	5285.135	-5061.12	1	7317.622	-43.75964	5.646011E-009	0.0082794	7
	36	51	252.4038	5482.792	-6178.197	1	8260.214	-48.4128	2.722583E-009	0.0082777	7
	37	52	198.6229	5754.637	-7656.552	1	9578.03	-53.07161	4.283327E-009	0.0082767	7
	38	54	158.3615	6090.617	-9375.092	1	11179.8	-56.98985	-3.100088E-010	0.0082131	6
	39	55	125.558	6531.905	-11532.76	1	13254.07	-60.47373	2.597013E-010	0.0082175	6
	40	57	100.4464	7064.015	-14046.08	1	15722.36	-63.30139	5.073331E-010	0.0082092	6
	41	58	79.00281	7828.636	-17390.91	1	19071.74	-65.76479	1.595114E-009	0.0082128	6
	42	59	63.3446	8887.726	-21135.26	1	22927.95	-67.19244	1.100247E-009	0.0082111	6
	43	61	49.86702	9781.85	-25946.89	1	27729.51	-69.3438	1.340095E-009	0.008212	6
	44	62	39.72458	11417.75	-31470.17	1	33477.41	-70.05863	-4.113933E-011	0.0082179	6
	45	63	31.6723	13096.67	-38199.73	1	40382.45	-71.07587	1.390657E-009	0.0082162	6
	46	65	24.93351	15647.5	-46826.66	1	49371.85	-71.52254	-5.461542E-011	0.0082197	6
	47	66	19.86229	18547.2	-56795.02	1	59746.74	-71.91483	-7.41501E-011	0.0082157	6
	48	67	15.83615	22886.11	-68460.69	1	72184.76	-71.51545	2.245538E-009	0.0082175	6
	49	69	12.40079	27663.11	-84183.89	1	88612.5	-71.8093	-8.18509E-010	0.0082219	6
	50	70	9.93114	33336.27	-100923.9	1	106287	-71.72104	-4.723389E-010	0.0082256	5
	51	72	7.944915	40280.29	-121116.6	1	127639.1	-71.60419	9.091883E-010	0.0082152	5
	52	73	6.317385	50637.43	-145534.8	1	154092.6	-70.81515	4.975532E-010	0.0082039	5
	53	75	5.008013	63375.26	-174656.7	1	185799.4	-70.05639	-8.633784E-011	0.0082168	5
	54	78	3.945707	79886.95	-209845.6	1	224537.5	-69.15847	1.189223E-011	0.0082191	5
	55	81	3.158693	98962.2	-247703.9	1	266741	-68.2224	-6.334754E-011	0.0082084	5
	56	84	2.504006	123060.6	-293463.7	1	318221.3	-67.24982	2.572051E-010	0.0082262	5
	57	87	1.998082	151103.9	-344183.7	1	375892	-66.29752	2.812617E-010	0.0082347	5
	58	90	1.584686	186985	-403652.4	1	444858	-65.14489	6.870931E-011	0.0081766	5
	59	93	1.266892	226127.1	-470758.9	1	522252.2	-64.34289	1.760125E-010	0.0082353	5
	60	98	0.999041	276573.3	-551711.4	1	617153.4	-63.37536	-1.819926E-010	0.0081847	5
