EXPLAIN
TAG	EISPOT
TITLE	LABEL	Potentiostatic IDE	Test &Identifier
DATE	LABEL	9/14/2019	Date
TIME	LABEL	13:06:45	Time
NOTES	NOTES	1	&Notes...
	
PSTAT	PSTAT	REF600-11020	Potentiostat
VDC	POTEN	0.00000E+000	T	DC &Voltage (V)
FREQINIT	QUANT	1.00000E+006	Initial Fre&q. (Hz)
FREQFINAL	QUANT	1.00000E+000	Final Fre&q. (Hz)
PTSPERDEC	QUANT	1.00000E+001	Points/&decade
VAC	QUANT	2.50000E+001	AC &Voltage (mV rms)
AREA	QUANT	1.00000E-002	&Area (cm^2)
CONDIT	TWOPARAM	T	5.00000E+000	0.00000E+000	Conditionin&g	Time(s)	E(V)
DELAY	TWOPARAM	T	5.00000E+000	0.00000E+000	Init. De&lay	Time(s)	Stab.(mV/s)
SPEED	SELECTOR	1	&Optimize for:
ZGUESS	QUANT	1.00000E+007	E&stimated Z (ohms)
OCVCURVE	TABLE	19
	Pt	T	Vf	Vm	Ach	Over
	#	s	V vs. Ref.	V	V	bits
	0	0.258333	1.17495E-002	1.17495E-002	5.48799E-004	...........
	1	0.516667	1.17498E-002	1.17615E-002	5.44399E-004	...........
	2	0.775	1.17532E-002	1.18785E-002	5.44199E-004	...........
	3	1.03333	1.17646E-002	1.17304E-002	5.42966E-004	...........
	4	1.29167	1.17787E-002	1.17135E-002	5.42699E-004	...........
	5	1.55	1.17807E-002	1.17741E-002	5.45766E-004	...........
	6	1.80833	1.17718E-002	1.18956E-002	5.46966E-004	...........
	7	2.06667	1.17721E-002	1.17840E-002	5.43366E-004	...........
	8	2.325	1.17844E-002	1.15975E-002	5.45066E-004	...........
	9	2.58333	1.17912E-002	1.21484E-002	5.45599E-004	...........
	10	2.84167	1.18060E-002	1.21428E-002	5.42666E-004	...........
	11	3.1	1.18662E-002	1.20694E-002	5.36999E-004	...........
	12	3.35833	1.19619E-002	1.20836E-002	5.38566E-004	...........
	13	3.61667	1.20277E-002	1.13422E-002	5.35466E-004	...........
	14	3.875	1.20009E-002	1.17413E-002	5.41233E-004	...........
	15	4.13333	1.18974E-002	1.23013E-002	5.41866E-004	...........
	16	4.39167	1.18580E-002	1.35919E-002	5.44433E-004	...........
	17	4.65	1.20415E-002	1.30697E-002	5.48766E-004	...........
	18	4.90833	1.25215E-002	1.80237E-002	5.42999E-004	...........
EOC	QUANT	0.0125215	Open Circuit (V)
PSTATMODEL	IQUANT	4	Pstat Model
PSTATSECTION	LABEL	REF600-11020	Pstat Section
PSTATSERIALNO	LABEL	11020	Pstat Serial Number
CTRLMODE	IQUANT	1	Control Mode
IESTAB	IQUANT	0	I/E Stability
CASPEED	IQUANT	1	Control Amp Speed
CONVENTION	IQUANT	1	Current Convention
ICHRANGE	IQUANT	2	Ich Range
ICHRANGEMODE	TOGGLE	F	Ich Auto Range
ICHOFFSETENABLE	TOGGLE	T	Ich Offset Enable
ICHOFFSET	QUANT	0	Ich Offset (V)
ICHFILTER	IQUANT	3	Ich Filter
VCHRANGE	IQUANT	2	Vch Range
VCHRANGEMODE	TOGGLE	F	Vch Auto Range
VCHOFFSETENABLE	TOGGLE	T	Vch Offset Enable
VCHOFFSET	QUANT	0	Vch Offset (V)
VCHFILTER	IQUANT	3	Vch Filter
ACHRANGE	IQUANT	2	Ach Range
ACHOFFSETENABLE	TOGGLE	F	Ach Offset Enable
ACHOFFSET	QUANT	0	Ach Offset (V)
ACHFILTER	IQUANT	3	Ach Filter
IERANGELOWERLIMIT	IQUANT	1	I/E Range Lower Limit
IERANGEMODE	TOGGLE	F	I/E AutoRange
IERANGE	IQUANT	3	I/E Range
POSFEEDENABLE	TOGGLE	F	Positive Feedback IR Comp
POSFEEDRESISTANCE	QUANT	0	Positive Feedback Resistance (ohm)
ACHSELECT	IQUANT	0	Ach Select
CABLEID	IQUANT	14	Cable ID
DCCALDATE	LABEL	8/19/2019	DC Calibration Date
ACCALDATE	LABEL	8/19/2019	AC Calibration Date
THERMOSELECT	IQUANT	1	Thermo Select
FRAMEWORKVERSION	QUANT	6.33	Framework Version
INSTRUMENTVERSION	LABEL	3.50	Instrument Version
ZCURVE	TABLE
	Pt	Time	Freq	Zreal	Zimag	Zsig	Zmod	Zphz	Idc	Vdc	IERange
	#	s	Hz	ohm	ohm	V	ohm	°	A	V	#
	0	3	1000078	732.3923	-7609.514	1	7644.678	-84.50239	4.61268E-007	0.0146292	8
	1	4	794390.6	840.1453	-9417.018	1	9454.42	-84.90182	-3.200561E-006	0.0153621	8
	2	7	630984.4	1053.977	-11789.25	1	11836.27	-84.89125	-3.292219E-007	0.0145209	8
	3	9	501234.4	1385.165	-14259.93	1	14327.04	-84.45187	1.534648E-006	0.0138442	8
	4	10	398109.4	1828.022	-18387.61	1	18478.25	-84.32254	1.242849E-006	0.0137985	8
	5	12	316265.6	1652.194	-23188.25	1	23247.04	-85.92448	5.771212E-008	0.0141879	8
	6	13	251203.1	1865.46	-28875.61	1	28935.81	-86.30364	-1.050397E-006	0.0142339	8
	7	15	199546.9	2735.596	-35742.86	1	35847.39	-85.62337	-2.356151E-006	0.0146229	8
	8	16	158578.1	3587.572	-41946.18	1	42099.32	-85.1115	1.250693E-006	0.0137807	8
	9	18	125953.1	3870.323	-55926.32	1	56060.09	-86.04121	-3.847539E-007	0.0144448	7
	10	20	100078.1	5008.786	-69443.02	1	69623.42	-85.87451	-6.875202E-008	0.0141897	7
	11	21	79453.13	5918.443	-87208.09	1	87408.69	-86.11753	3.705646E-008	0.014168	7
	12	23	63140.62	7047.349	-108534.7	1	108763.3	-86.2849	9.516727E-008	0.014042	7
	13	25	50203.12	9129.922	-135579.2	1	135886.2	-86.14751	-3.719445E-008	0.0140881	7
	14	27	39890.62	4392.478	-177534.7	1	177589	-88.5827	8.31179E-008	0.0139814	7
	15	28	31640.63	15393.83	-212506.2	1	213063	-85.85677	1.582029E-008	0.0139919	7
	16	30	25171.88	16796.7	-261731.8	1	262270.2	-86.32806	-4.700163E-008	0.0141681	7
	17	31	20015.62	25149.21	-331094.3	1	332048	-85.65627	1.686665E-008	0.0141244	7
	18	33	15890.62	29534.79	-384994.4	1	386125.7	-85.61316	6.832642E-008	0.014016	7
	19	34	12609.37	47781.74	-515664	1	517873	-84.70605	-1.507291E-010	0.0141821	6
	20	36	10078.13	74602.69	-638982.5	1	643322.8	-83.34074	-1.000236E-008	0.0142638	6
	21	38	8015.625	88316.1	-796218.6	1	801101.6	-83.67065	2.310534E-008	0.0137385	6
	22	39	6328.125	127280.1	-994863	1	1002972	-82.70934	3.813447E-009	0.0141649	6
	23	41	5015.625	164099.3	-1246968	1	1257719	-82.50304	1.918395E-008	0.0137123	6
	24	43	3984.375	241125.3	-1548558	1	1567218	-81.14957	-4.493398E-009	0.0142171	6
	25	44	3170.956	372203.2	-1920563	1	1956297	-79.0321	-1.221312E-008	0.0142424	6
	26	46	2527.573	432567.5	-2358166	1	2397511	-79.60557	1.980133E-008	0.0138674	6
	27	48	1976.103	619916.4	-2968362	1	3032403	-78.20382	-4.415872E-010	0.0141765	6
	28	49	1577.524	1322537	-3530066	1	3769678	-69.46157	4.231314E-009	0.0141684	6
	29	51	1265.625	1520341	-4250162	1	4513902	-70.31718	2.753985E-009	0.0136989	5
	30	53	998.264	2139347	-5102423	1	5532769	-67.25264	-7.955222E-012	0.0139817	5
	31	54	796.875	2900101	-5938474	1	6608786	-63.97106	-4.425791E-010	0.0139705	5
	32	56	627.7902	4457905	-6558322	1	7929975	-55.79478	2.717427E-010	0.013873	5
	33	58	505.5147	6119863	-7499030	1	9.679265E+006	-50.78255	2.234927E-009	0.0138228	5
	34	59	397.9953	7255538	-7682528	1	1.056712E+007	-46.6373	4.14383E-010	0.0140613	5
	35	61	315.5048	9.762597E+006	-6451082	1	1.170149E+007	-33.45655	-3.812771E-010	0.0140591	5
	36	62	252.4038	9.668537E+006	-8636269	1	1.296402E+007	-41.77232	-7.995458E-011	0.0140555	5
	37	64	198.6229	1.270531E+007	-7171239	1	1.458943E+007	-29.44163	7.988143E-011	0.0140533	5
	38	65	158.3615	1.474126E+007	-6649436	1	1.617157E+007	-24.27902	-3.428179E-010	0.0140609	5
	39	67	125.558	1.422017E+007	-3489845	1	1.464214E+007	-13.78874	-2.201511E-010	0.0140645	4
	40	68	100.4464	1.346401E+007	-4530550	1	1.420582E+007	-18.59775	-3.054624E-011	0.0140598	4
	41	70	79.00281	1.283736E+007	3616042	1	1.333693E+007	15.73152	3.177298E-010	0.0140579	4
	42	72	63.3446	1227373	4762589	1	4918200	75.54868	-2.326533E-010	0.0140588	4
	43	73	49.86702	2.493543E+007	6400234	1	2.574371E+007	14.39548	2.035783E-010	0.0140534	4
	44	75	39.72458	1.32761E+007	1873800	1	1.340768E+007	8.03371	-1.183208E-010	0.0140561	4
	45	77	31.6723	1.82517E+007	8678615	1	2.020997E+007	25.43091	-3.110849E-010	0.0140537	4
	46	78	24.93351	1.548451E+007	-788367.1	1	1.550456E+007	-2.9146	1.174632E-010	0.0140511	4
	47	80	19.86229	2.159414E+007	215234	1	2.159521E+007	0.5710621	-1.929604E-010	0.0140455	4
	48	81	15.83615	6381813	-279322.2	1	6387923	-2.50615	1.651216E-009	0.0140442	4
	49	83	12.40079	9.881104E+006	5333341	1	1.122857E+007	28.35802	9.250447E-010	0.0140482	5
	50	85	9.93114	1.448988E+007	-755626	1	1.450957E+007	-2.985186	-6.451156E-011	0.0140584	4
	51	86	7.944915	2.489683E+007	5077406	1	2.540929E+007	11.52671	-4.42725E-010	0.0140646	4
	52	88	6.317385	1.640339E+007	-882003.9	1	1.642709E+007	-3.077807	8.544289E-011	0.0140539	4
	53	91	5.008013	1.660409E+007	409723.9	1	1.660915E+007	1.413548	3.822577E-011	0.0140506	4
	54	94	3.945707	1.580271E+007	-886286.1	1	1.582755E+007	-3.210038	3.332879E-010	0.0140532	4
	55	97	3.158693	1.641547E+007	-894171.7	1	1.643981E+007	-3.117893	8.494024E-011	0.0140379	4
	56	101	2.504006	5.211869E+007	-2824293	1	5.219516E+007	-3.101804	6.771471E-011	0.0140468	3
	57	105	1.998082	5.239115E+007	-3209595	1	5.248937E+007	-3.505682	6.222323E-011	0.0140851	3
	58	109	1.584686	5.258794E+007	-3807905	1	5.272563E+007	-4.141572	6.701999E-011	0.0140608	3
	59	115	1.266892	5.298638E+007	-4498127	1	5.317697E+007	-4.852326	5.700607E-011	0.0140807	3
	60	119	0.999041	5.359784E+007	-5226019	1	5.385201E+007	-5.568981	6.879088E-011	0.0140251	3
