EXPLAIN
TAG	EISPOT
TITLE	LABEL	Potentiostatic EIS	Test &Identifier
DATE	LABEL	11/22/2019	Date
TIME	LABEL	1:32:23	Time
NOTES	NOTES	4	&Notes...
	
	
	
	
PSTAT	PSTAT	REF600-11020	Potentiostat
VDC	POTEN	0.00000E+000	T	DC &Voltage (V)
FREQINIT	QUANT	1.00000E+006	Initial Fre&q. (Hz)
FREQFINAL	QUANT	1.00000E+000	Final Fre&q. (Hz)
PTSPERDEC	QUANT	1.00000E+001	Points/&decade
VAC	QUANT	2.50000E+001	AC &Voltage (mV rms)
AREA	QUANT	1.00000E-002	&Area (cm^2)
CONDIT	TWOPARAM	T	5.00000E+000	0.00000E+000	Conditionin&g	Time(s)	E(V)
DELAY	TWOPARAM	T	5.00000E+000	0.00000E+000	Init. De&lay	Time(s)	Stab.(mV/s)
SPEED	SELECTOR	1	&Optimize for:
ZGUESS	QUANT	1.00000E+005	E&stimated Z (ohms)
OCVCURVE	TABLE	19
	Pt	T	Vf	Vm	Ach	Over
	#	s	V vs. Ref.	V	V	bits
	0	0.258333	7.22806E-003	7.22806E-003	5.43066E-004	...........
	1	0.516667	7.22686E-003	7.16508E-003	5.41266E-004	...........
	2	0.775	7.22002E-003	7.13449E-003	5.44599E-004	...........
	3	1.03333	7.20273E-003	7.11465E-003	5.40766E-004	...........
	4	1.29167	7.17634E-003	7.10568E-003	5.35466E-004	...........
	5	1.55	7.14833E-003	7.09654E-003	5.45499E-004	...........
	6	1.80833	7.12547E-003	7.09952E-003	5.46133E-004	...........
	7	2.06667	7.11058E-003	7.11204E-003	5.38866E-004	...........
	8	2.325	7.10414E-003	7.12969E-003	5.39633E-004	...........
	9	2.58333	7.10608E-003	7.15546E-003	5.46799E-004	...........
	10	2.84167	7.11586E-003	7.17574E-003	5.47133E-004	...........
	11	3.1	7.13185E-003	7.19244E-003	5.45633E-004	...........
	12	3.35833	7.15125E-003	7.20979E-003	5.42299E-004	...........
	13	3.61667	7.17121E-003	7.22520E-003	5.54933E-004	...........
	14	3.875	7.19032E-003	7.25349E-003	5.51366E-004	...........
	15	4.13333	7.20926E-003	7.28123E-003	5.45466E-004	...........
	16	4.39167	7.23004E-003	7.31805E-003	5.41266E-004	...........
	17	4.65	7.25467E-003	7.36095E-003	5.45599E-004	...........
	18	4.90833	7.28411E-003	7.39011E-003	5.55933E-004	...........
EOC	QUANT	0.0072841	Open Circuit (V)
PSTATMODEL	IQUANT	4	Pstat Model
PSTATSECTION	LABEL	REF600-11020	Pstat Section
PSTATSERIALNO	LABEL	11020	Pstat Serial Number
CTRLMODE	IQUANT	1	Control Mode
IESTAB	IQUANT	0	I/E Stability
CASPEED	IQUANT	1	Control Amp Speed
CONVENTION	IQUANT	1	Current Convention
ICHRANGE	IQUANT	2	Ich Range
ICHRANGEMODE	TOGGLE	F	Ich Auto Range
ICHOFFSETENABLE	TOGGLE	T	Ich Offset Enable
ICHOFFSET	QUANT	0	Ich Offset (V)
ICHFILTER	IQUANT	3	Ich Filter
VCHRANGE	IQUANT	2	Vch Range
VCHRANGEMODE	TOGGLE	F	Vch Auto Range
VCHOFFSETENABLE	TOGGLE	T	Vch Offset Enable
VCHOFFSET	QUANT	0	Vch Offset (V)
VCHFILTER	IQUANT	3	Vch Filter
ACHRANGE	IQUANT	2	Ach Range
ACHOFFSETENABLE	TOGGLE	F	Ach Offset Enable
ACHOFFSET	QUANT	0	Ach Offset (V)
ACHFILTER	IQUANT	3	Ach Filter
IERANGELOWERLIMIT	IQUANT	1	I/E Range Lower Limit
IERANGEMODE	TOGGLE	F	I/E AutoRange
IERANGE	IQUANT	5	I/E Range
POSFEEDENABLE	TOGGLE	F	Positive Feedback IR Comp
POSFEEDRESISTANCE	QUANT	0	Positive Feedback Resistance (ohm)
ACHSELECT	IQUANT	0	Ach Select
CABLEID	IQUANT	14	Cable ID
DCCALDATE	LABEL	8/19/2019	DC Calibration Date
ACCALDATE	LABEL	8/19/2019	AC Calibration Date
THERMOSELECT	IQUANT	1	Thermo Select
FRAMEWORKVERSION	QUANT	6.33	Framework Version
INSTRUMENTVERSION	LABEL	3.50	Instrument Version
ZCURVE	TABLE
	Pt	Time	Freq	Zreal	Zimag	Zsig	Zmod	Zphz	Idc	Vdc	IERange
	#	s	Hz	ohm	ohm	V	ohm	°	A	V	#
	0	1	1000078	2124.295	-1637.365	1	2682.087	-37.62432	3.140432E-006	0.0089987	8
	1	2	794390.6	2460.6	-1610.021	1	2940.531	-33.19754	6.504327E-006	0.0082409	8
	2	4	630984.4	2753.64	-1570.736	1	3170.133	-29.70137	-4.46948E-006	0.0088935	8
	3	5	501234.4	3033.992	-1489.527	1	3379.911	-26.14856	-2.346562E-006	0.009474	8
	4	6	398109.4	3284.799	-1382.54	1	3563.891	-22.82575	-1.9901E-006	0.0090004	8
	5	8	316265.6	3492.086	-1276.375	1	3718.037	-20.07762	4.065105E-006	0.0087706	8
	6	9	251203.1	3669.115	-1158.94	1	3847.798	-17.52943	1.941052E-006	0.0083324	8
	7	11	199546.9	3800.066	-1054.632	1	3943.697	-15.51093	6.471067E-007	0.0091559	8
	8	12	158578.1	3948.302	-961.387	1	4063.663	-13.68486	-5.808688E-006	0.0096258	8
	9	13	125953.1	4065.081	-833.922	1	4149.736	-11.59298	-6.20557E-007	0.0120215	7
	10	15	100078.1	4153.743	-776.3439	1	4225.67	-10.58657	9.896731E-007	0.0070403	7
	11	16	79453.13	4232.239	-744.2217	1	4297.175	-9.97326	1.100201E-006	0.0072601	7
	12	17	63140.62	4305.129	-721.9662	1	4365.246	-9.51987	-3.17866E-007	0.0078926	7
	13	19	50203.12	4378.775	-715.9951	1	4436.927	-9.286531	3.993599E-007	0.0092681	7
	14	20	39890.62	4453.738	-724.4048	1	4512.266	-9.238315	7.867627E-007	0.0069367	7
	15	22	31640.63	4528.513	-747.5622	1	4589.802	-9.373789	1.033956E-006	0.0079977	7
	16	23	25171.88	4603.848	-781.595	1	4669.723	-9.63523	1.111956E-007	0.007356	7
	17	24	20015.62	4684.969	-830.454	1	4758.002	-10.0518	4.009007E-007	0.0092647	7
	18	26	15890.62	4777.471	-895.9608	1	4860.758	-10.6218	8.499885E-007	0.0084985	7
	19	27	12609.37	4867.752	-975.537	1	4964.542	-11.33242	-9.0238E-007	0.0104383	7
	20	28	10078.13	4970.181	-1064.46	1	5082.891	-12.08838	-1.108885E-006	0.0103889	7
	21	30	8015.625	5090.536	-1184.958	1	5226.632	-13.10377	-9.038068E-007	0.0104341	7
	22	31	6328.125	5228.553	-1324.498	1	5393.706	-14.21515	7.921468E-008	0.0096986	7
	23	33	5015.625	5381.393	-1487.888	1	5583.296	-15.45546	1.035092E-006	0.0079999	7
	24	34	3984.375	5540.925	-1668.539	1	5786.698	-16.75862	4.030057E-007	0.0092566	7
	25	35	3170.956	5717.988	-1880.559	1	6019.293	-18.20525	-1.06248E-006	0.0092569	7
	26	37	2527.573	5918.281	-2116.575	1	6285.375	-19.67875	-1.105896E-006	0.0103683	7
	27	38	1976.103	6172.58	-2418.446	1	6629.451	-21.39548	1.119799E-006	0.0075647	7
	28	40	1577.524	6436.973	-2700.551	1	6980.515	-22.75987	-7.419347E-007	0.0085811	7
	29	41	1265.625	6662.87	-3081.046	1	7340.755	-24.81678	-3.232402E-007	0.0078816	7
	30	42	998.264	6948.868	-3511.793	1	7785.85	-26.81095	-8.997242E-007	0.0104331	7
	31	44	796.875	7241.511	-4011.324	1	8278.297	-28.98359	6.285759E-007	0.008929	7
	32	45	627.7902	7549.372	-4643.121	1	8862.934	-31.59293	-9.021492E-007	0.0104292	7
	33	46	505.5147	7836.286	-5372.121	1	9500.9	-34.43236	1.034884E-006	0.0079936	7
	34	48	397.9953	8171.745	-6332.678	1	10338.29	-37.77382	3.926575E-009	0.0087509	7
	35	49	315.5048	8521.588	-7514.403	1	11361.5	-41.4061	8.064371E-010	0.0087026	6
	36	51	252.4038	8893.904	-8931.384	1	12604.41	-45.12047	6.368931E-010	0.0086838	6
	37	52	198.6229	9354.109	-10832.76	1	14312.51	-49.18932	-6.354892E-011	0.0086992	6
	38	53	158.3615	9877.89	-13074.35	1	16386.32	-52.92835	4.097766E-010	0.0086915	6
	39	55	125.558	10546.09	-15902.34	1	19081.52	-56.44853	-3.773493E-011	0.0086984	6
	40	56	100.4464	11344.24	-19245.71	1	22340.3	-59.4831	4.62444E-010	0.0086985	6
	41	57	79.00281	12519.22	-23688.82	1	26793.49	-62.14416	7.283021E-010	0.0086858	6
	42	59	63.3446	13775.5	-28817.42	1	31940.7	-64.45096	7.977509E-011	0.0086839	6
	43	60	49.86702	15725.79	-34951.79	1	38326.59	-65.77568	-7.617338E-010	0.0086948	6
	44	62	39.72458	18152.32	-42562.26	1	46271.51	-66.90231	6.620751E-010	0.0086918	6
	45	63	31.6723	21281.74	-51554.22	1	55774.1	-67.56902	-3.644776E-010	0.0086924	6
	46	64	24.93351	25633.79	-62704.93	1	67742.15	-67.76525	-1.80569E-010	0.008695	6
	47	66	19.86229	31073.26	-75179.18	1	81347.75	-67.54358	-4.119653E-011	0.0086911	6
	48	67	15.83615	37538.2	-90388.8	1	97873.7	-67.44703	7.791807E-010	0.008689	6
	49	69	12.40079	47843.43	-107419.7	1	117592.5	-65.9924	-8.677984E-010	0.0087011	5
	50	70	9.93114	58023.01	-126617	1	139278.6	-65.3801	-8.276036E-012	0.0086957	5
	51	72	7.944915	71378.98	-147503.3	1	163866.4	-64.17699	1.266609E-010	0.0086994	5
	52	73	6.317385	86741.55	-171452.9	1	192146.3	-63.16421	-3.394771E-010	0.0086967	5
	53	75	5.008013	104885.5	-198766.3	1	224742.1	-62.18017	-1.701168E-010	0.0086824	5
	54	78	3.945707	125213.2	-230655.4	1	262450.5	-61.50432	2.047657E-010	0.0086915	5
	55	80	3.158693	145906.7	-264934.8	1	302455.3	-61.15725	-1.077518E-010	0.0086895	5
	56	84	2.504006	169160.1	-307268.5	1	350755	-61.16595	1.442154E-010	0.0087097	5
	57	87	1.998082	193360.9	-355873.7	1	405011.8	-61.48294	1.799605E-010	0.0087001	5
	58	90	1.584686	221964.9	-417434.9	1	472779.4	-61.99884	-1.42855E-011	0.0086512	5
	59	93	1.266892	252403.2	-487637.1	1	549087.8	-62.63371	1.278358E-010	0.0086719	5
	60	98	0.999041	289867.4	-579961.2	1	648365.7	-63.4439	-7.136026E-011	0.008711	5
