EXPLAIN
TAG	EISPOT
TITLE	LABEL	Potentiostatic EIS	Test &Identifier
DATE	LABEL	10/28/2019	Date
TIME	LABEL	10:44:54	Time
NOTES	NOTES	1	&Notes...
	
PSTAT	PSTAT	REF600-11020	Potentiostat
VDC	POTEN	0.00000E+000	T	DC &Voltage (V)
FREQINIT	QUANT	1.00000E+006	Initial Fre&q. (Hz)
FREQFINAL	QUANT	1.00000E+000	Final Fre&q. (Hz)
PTSPERDEC	QUANT	1.00000E+001	Points/&decade
VAC	QUANT	2.50000E+001	AC &Voltage (mV rms)
AREA	QUANT	1.00000E-002	&Area (cm^2)
CONDIT	TWOPARAM	T	5.00000E+000	0.00000E+000	Conditionin&g	Time(s)	E(V)
DELAY	TWOPARAM	T	5.00000E+000	0.00000E+000	Init. De&lay	Time(s)	Stab.(mV/s)
SPEED	SELECTOR	1	&Optimize for:
ZGUESS	QUANT	1.00000E+005	E&stimated Z (ohms)
OCVCURVE	TABLE	19
	Pt	T	Vf	Vm	Ach	Over
	#	s	V vs. Ref.	V	V	bits
	0	0.258333	7.22215E-003	7.22215E-003	5.82665E-004	...........
	1	0.516667	7.22170E-003	7.19818E-003	5.92499E-004	...........
	2	0.775	7.21930E-003	7.19741E-003	5.99399E-004	...........
	3	1.03333	7.21400E-003	7.20072E-003	5.81032E-004	...........
	4	1.29167	7.20779E-003	7.21573E-003	5.82965E-004	...........
	5	1.55	7.20449E-003	7.21858E-003	5.95232E-004	...........
	6	1.80833	7.20646E-003	7.24765E-003	6.01332E-004	...........
	7	2.06667	7.21376E-003	7.24844E-003	5.85432E-004	...........
	8	2.325	7.22589E-003	7.31502E-003	5.96865E-004	...........
	9	2.58333	7.24381E-003	7.33280E-003	5.91499E-004	...........
	10	2.84167	7.26870E-003	7.36412E-003	5.94432E-004	...........
	11	3.1	7.29867E-003	7.38865E-003	5.90099E-004	...........
	12	3.35833	7.32985E-003	7.42517E-003	5.90932E-004	...........
	13	3.61667	7.36066E-003	7.47043E-003	5.97698E-004	...........
	14	3.875	7.39259E-003	7.50589E-003	5.87932E-004	...........
	15	4.13333	7.42707E-003	7.53241E-003	5.77999E-004	...........
	16	4.39167	7.46306E-003	7.57016E-003	5.85432E-004	...........
	17	4.65	7.49828E-003	7.58831E-003	5.93832E-004	...........
	18	4.90833	7.53159E-003	7.64065E-003	5.77032E-004	...........
EOC	QUANT	0.0075316	Open Circuit (V)
PSTATMODEL	IQUANT	4	Pstat Model
PSTATSECTION	LABEL	REF600-11020	Pstat Section
PSTATSERIALNO	LABEL	11020	Pstat Serial Number
CTRLMODE	IQUANT	1	Control Mode
IESTAB	IQUANT	0	I/E Stability
CASPEED	IQUANT	1	Control Amp Speed
CONVENTION	IQUANT	1	Current Convention
ICHRANGE	IQUANT	2	Ich Range
ICHRANGEMODE	TOGGLE	F	Ich Auto Range
ICHOFFSETENABLE	TOGGLE	T	Ich Offset Enable
ICHOFFSET	QUANT	0	Ich Offset (V)
ICHFILTER	IQUANT	3	Ich Filter
VCHRANGE	IQUANT	2	Vch Range
VCHRANGEMODE	TOGGLE	F	Vch Auto Range
VCHOFFSETENABLE	TOGGLE	T	Vch Offset Enable
VCHOFFSET	QUANT	0	Vch Offset (V)
VCHFILTER	IQUANT	3	Vch Filter
ACHRANGE	IQUANT	2	Ach Range
ACHOFFSETENABLE	TOGGLE	F	Ach Offset Enable
ACHOFFSET	QUANT	0	Ach Offset (V)
ACHFILTER	IQUANT	3	Ach Filter
IERANGELOWERLIMIT	IQUANT	1	I/E Range Lower Limit
IERANGEMODE	TOGGLE	F	I/E AutoRange
IERANGE	IQUANT	5	I/E Range
POSFEEDENABLE	TOGGLE	F	Positive Feedback IR Comp
POSFEEDRESISTANCE	QUANT	0	Positive Feedback Resistance (ohm)
ACHSELECT	IQUANT	0	Ach Select
CABLEID	IQUANT	14	Cable ID
DCCALDATE	LABEL	8/19/2019	DC Calibration Date
ACCALDATE	LABEL	8/19/2019	AC Calibration Date
THERMOSELECT	IQUANT	1	Thermo Select
FRAMEWORKVERSION	QUANT	6.33	Framework Version
INSTRUMENTVERSION	LABEL	3.50	Instrument Version
ZCURVE	TABLE
	Pt	Time	Freq	Zreal	Zimag	Zsig	Zmod	Zphz	Idc	Vdc	IERange
	#	s	Hz	ohm	ohm	V	ohm	°	A	V	#
	0	2	1000078	2398.203	-1753.304	1	2970.766	-36.1702	-4.390281E-006	0.0103067	8
	1	4	794390.6	2766.516	-1734.295	1	3265.178	-32.0831	3.545205E-009	0.009927	8
	2	5	630984.4	3092.013	-1634.462	1	3497.429	-27.86127	-3.680877E-006	0.0097291	8
	3	7	501234.4	3372.132	-1528.804	1	3702.501	-24.38784	4.017034E-006	0.0084597	8
	4	8	398109.4	3629.802	-1365.778	1	3878.249	-20.61971	5.070347E-006	0.0081385	8
	5	10	316265.6	3826.608	-1224.481	1	4017.747	-17.74422	9.997708E-007	0.009021	8
	6	11	251203.1	4013.784	-1073.468	1	4154.852	-14.97306	-3.174394E-006	0.0094947	8
	7	13	199546.9	4124.432	-928.3182	1	4227.613	-12.68463	-6.147305E-007	0.0093015	8
	8	14	158578.1	4256.747	-845.994	1	4340	-11.24061	1.800809E-006	0.0087054	8
	9	16	125953.1	4334.389	-630.756	1	4380.043	-8.279769	-6.105952E-007	0.0099754	7
	10	17	100078.1	4364.301	-564.8778	1	4400.706	-7.374876	8.089773E-008	0.0088919	7
	11	19	79453.13	4412.104	-507.8157	1	4441.231	-6.565628	-1.600453E-008	0.0090797	7
	12	20	63140.62	4452.021	-472.7711	1	4477.053	-6.061663	7.994758E-008	0.00888	7
	13	21	50203.12	4488.764	-449.5173	1	4511.216	-5.718692	-2.171313E-008	0.00899	7
	14	23	39890.62	4522.785	-441.7379	1	4544.306	-5.578354	-9.742713E-009	0.0090413	7
	15	24	31640.63	4558.662	-440.6518	1	4579.91	-5.521202	-1.121639E-008	0.0091689	7
	16	25	25171.88	4593.131	-454.5349	1	4615.567	-5.651573	-5.815088E-008	0.0091281	7
	17	27	20015.62	4632.372	-479.7639	1	4657.15	-5.912909	-5.854315E-008	0.0091373	7
	18	28	15890.62	4668.203	-519.2927	1	4696.997	-6.347509	-4.270349E-008	0.0090608	7
	19	30	12609.37	4708.236	-574.5629	1	4743.164	-6.957608	-8.556641E-009	0.0090495	7
	20	31	10078.13	4751.207	-635.7592	1	4793.553	-7.621478	1.613853E-007	0.0087807	7
	21	32	8015.625	4799.442	-723.752	1	4853.706	-8.575542	8.384499E-008	0.0088767	7
	22	34	6328.125	4848.779	-841.3143	1	4921.226	-9.84342	-9.096631E-008	0.0091587	7
	23	35	5015.625	4902.937	-977.994	1	4999.526	-11.28079	-4.505849E-008	0.0090475	7
	24	36	3984.375	4966.7	-1154.251	1	5099.06	-13.08319	8.4131E-008	0.0088746	7
	25	38	3170.956	5032.296	-1357.425	1	5212.16	-15.09583	-5.437539E-008	0.009197	7
	26	39	2527.573	5107.545	-1610.68	1	5355.493	-17.50282	-4.878556E-008	0.0090465	7
	27	40	1976.103	5199.635	-1954.205	1	5554.739	-20.59798	8.652038E-008	0.0088729	7
	28	42	1577.524	5314.646	-2356.929	1	5813.826	-23.91624	4.775103E-008	0.0089608	7
	29	43	1265.625	5417.378	-2797.325	1	6096.967	-27.31009	9.728591E-008	0.0088118	7
	30	44	998.264	5549.544	-3394.072	1	6505.165	-31.44973	-5.167138E-008	0.0091839	7
	31	46	796.875	5709.261	-4101.198	1	7029.615	-35.69125	9.647718E-008	0.0089669	7
	32	47	627.7902	5905.004	-5011.277	1	7744.803	-40.31958	-7.970489E-008	0.0091416	7
	33	48	505.5147	6109.332	-6026.531	1	8581.551	-44.60909	4.842236E-008	0.008852	7
	34	50	397.9953	6372.914	-7398.329	1	9764.7	-49.25842	5.655991E-009	0.0090375	7
	35	51	315.5048	6685.471	-9046.219	1	11248.54	-53.53431	7.9502E-010	0.008973	6
	36	52	252.4038	7038.85	-11000.66	1	13059.86	-57.38657	-2.524712E-010	0.008971	6
	37	54	198.6229	7497.331	-13596.69	1	15526.75	-61.12729	4.962859E-010	0.0089677	6
	38	55	158.3615	8040.589	-16626.68	1	18468.82	-64.1918	1.052643E-010	0.0089641	6
	39	57	125.558	8736.698	-20472.23	1	22258.53	-66.88922	1.296452E-009	0.0089655	6
	40	58	100.4464	9647.23	-24996.89	1	26793.91	-68.89654	1.759457E-009	0.0089631	6
	41	59	79.00281	10713.61	-31003.87	1	32802.76	-70.93705	2.540188E-010	0.0089572	6
	42	61	63.3446	12158.41	-38373.97	1	40254.05	-72.41972	-2.898834E-011	0.0089576	6
	43	62	49.86702	14087.87	-46460.5	1	48549.42	-73.13151	1.55379E-009	0.0089614	6
	44	63	39.72458	17181.38	-57200.85	1	59725.52	-73.28135	9.630906E-010	0.0089709	6
	45	65	31.6723	20694.67	-69482.38	1	72498.76	-73.41434	1.133683E-009	0.0089684	6
	46	66	24.93351	25598.63	-85899.77	1	89632.92	-73.40563	3.905452E-010	0.0089705	6
	47	67	19.86229	32138.99	-104076.3	1	108925.6	-72.8392	4.85628E-010	0.0089695	5
	48	69	15.83615	38825.75	-127111.1	1	132908.5	-73.01485	-1.64934E-009	0.0089704	5
	49	70	12.40079	51571.77	-152135.2	1	160638.6	-71.27403	1.31905E-009	0.0089704	5
	50	72	9.93114	66251.31	-183362.1	1	194963.8	-70.1345	3.918933E-010	0.0089813	5
	51	73	7.944915	85668.2	-217005.7	1	233303.5	-68.45718	7.34461E-010	0.008973	5
	52	75	6.317385	110669	-256354	1	279222.1	-66.64996	4.265113E-010	0.008985	5
	53	77	5.008013	141955.6	-300698.8	1	332522.4	-64.72868	4.020948E-010	0.008984	5
	54	79	3.945707	181704.6	-350817.6	1	395081.7	-62.61827	-1.491361E-010	0.0089629	5
	55	82	3.158693	225921.3	-400677.2	1	459981.2	-60.58358	2.812498E-010	0.0089832	5
	56	85	2.504006	280132.8	-456187	1	535332.6	-58.44698	-2.646866E-010	0.0089703	5
	57	88	1.998082	337809.8	-510620.6	1	612248.9	-56.51269	2.091187E-010	0.0089264	5
	58	91	1.584686	402941.8	-573274.7	1	700718.2	-54.89748	-9.251971E-011	0.0089416	5
	59	95	1.266892	470591.2	-635518.3	1	790784.2	-53.48064	1.466597E-010	0.0089276	5
	60	99	0.999041	545602.9	-712025.2	1	897029.8	-52.53817	-1.033254E-010	0.0089958	5
