EXPLAIN
TAG	EISPOT
TITLE	LABEL	Potentiostatic IDE	Test &Identifier
DATE	LABEL	9/4/2019	Date
TIME	LABEL	13:06:14	Time
NOTES	NOTES	1	&Notes...
	
PSTAT	PSTAT	REF600-11020	Potentiostat
VDC	POTEN	0.00000E+000	T	DC &Voltage (V)
FREQINIT	QUANT	1.00000E+006	Initial Fre&q. (Hz)
FREQFINAL	QUANT	1.00000E+000	Final Fre&q. (Hz)
PTSPERDEC	QUANT	1.00000E+001	Points/&decade
VAC	QUANT	2.50000E+001	AC &Voltage (mV rms)
AREA	QUANT	1.00000E-002	&Area (cm^2)
CONDIT	TWOPARAM	T	5.00000E+000	0.00000E+000	Conditionin&g	Time(s)	E(V)
DELAY	TWOPARAM	T	5.00000E+000	0.00000E+000	Init. De&lay	Time(s)	Stab.(mV/s)
SPEED	SELECTOR	1	&Optimize for:
ZGUESS	QUANT	1.00000E+007	E&stimated Z (ohms)
OCVCURVE	TABLE	19
	Pt	T	Vf	Vm	Ach	Over
	#	s	V vs. Ref.	V	V	bits
	0	0.258333	4.55894E-002	4.55894E-002	5.73332E-004	...........
	1	0.516667	4.55766E-002	4.49203E-002	5.70299E-004	...........
	2	0.775	4.55006E-002	4.44145E-002	5.71432E-004	...........
	3	1.03333	4.52943E-002	4.39670E-002	5.66766E-004	...........
	4	1.29167	4.49462E-002	4.36340E-002	5.66566E-004	...........
	5	1.55	4.45189E-002	4.33487E-002	5.63499E-004	...........
	6	1.80833	4.40944E-002	4.31500E-002	5.66966E-004	...........
	7	2.06667	4.37239E-002	4.29181E-002	5.61766E-004	...........
	8	2.325	4.34192E-002	4.27334E-002	5.67499E-004	...........
	9	2.58333	4.31681E-002	4.26000E-002	5.69066E-004	...........
	10	2.84167	4.29568E-002	4.24989E-002	5.68599E-004	...........
	11	3.1	4.27784E-002	4.23491E-002	5.67266E-004	...........
	12	3.35833	4.26275E-002	4.22515E-002	5.64966E-004	...........
	13	3.61667	4.24943E-002	4.21026E-002	5.65999E-004	...........
	14	3.875	4.23691E-002	4.19949E-002	5.70899E-004	...........
	15	4.13333	4.22470E-002	4.19210E-002	5.68232E-004	...........
	16	4.39167	4.21310E-002	4.18819E-002	5.66399E-004	...........
	17	4.65	4.20288E-002	4.17887E-002	5.66099E-004	...........
	18	4.90833	4.19433E-002	4.17261E-002	5.69299E-004	...........
EOC	QUANT	0.0419433	Open Circuit (V)
PSTATMODEL	IQUANT	4	Pstat Model
PSTATSECTION	LABEL	REF600-11020	Pstat Section
PSTATSERIALNO	LABEL	11020	Pstat Serial Number
CTRLMODE	IQUANT	1	Control Mode
IESTAB	IQUANT	0	I/E Stability
CASPEED	IQUANT	1	Control Amp Speed
CONVENTION	IQUANT	1	Current Convention
ICHRANGE	IQUANT	2	Ich Range
ICHRANGEMODE	TOGGLE	F	Ich Auto Range
ICHOFFSETENABLE	TOGGLE	T	Ich Offset Enable
ICHOFFSET	QUANT	0	Ich Offset (V)
ICHFILTER	IQUANT	3	Ich Filter
VCHRANGE	IQUANT	2	Vch Range
VCHRANGEMODE	TOGGLE	F	Vch Auto Range
VCHOFFSETENABLE	TOGGLE	T	Vch Offset Enable
VCHOFFSET	QUANT	0	Vch Offset (V)
VCHFILTER	IQUANT	3	Vch Filter
ACHRANGE	IQUANT	2	Ach Range
ACHOFFSETENABLE	TOGGLE	F	Ach Offset Enable
ACHOFFSET	QUANT	0	Ach Offset (V)
ACHFILTER	IQUANT	3	Ach Filter
IERANGELOWERLIMIT	IQUANT	1	I/E Range Lower Limit
IERANGEMODE	TOGGLE	F	I/E AutoRange
IERANGE	IQUANT	3	I/E Range
POSFEEDENABLE	TOGGLE	F	Positive Feedback IR Comp
POSFEEDRESISTANCE	QUANT	0	Positive Feedback Resistance (ohm)
ACHSELECT	IQUANT	0	Ach Select
CABLEID	IQUANT	14	Cable ID
DCCALDATE	LABEL	8/19/2019	DC Calibration Date
ACCALDATE	LABEL	8/19/2019	AC Calibration Date
THERMOSELECT	IQUANT	1	Thermo Select
FRAMEWORKVERSION	QUANT	6.33	Framework Version
INSTRUMENTVERSION	LABEL	3.50	Instrument Version
ZCURVE	TABLE
	Pt	Time	Freq	Zreal	Zimag	Zsig	Zmod	Zphz	Idc	Vdc	IERange
	#	s	Hz	ohm	ohm	V	ohm	°	A	V	#
	0	2	1000078	2398.366	-1856.751	1	3033.098	-37.74608	1.188184E-005	0.0435645	8
	1	3	794390.6	2726.47	-1751.165	1	3240.404	-32.71194	1.081995E-005	0.0433365	8
	2	5	630984.4	3039.544	-1624.516	1	3446.43	-28.12273	1.278074E-005	0.0428627	8
	3	6	501234.4	3287.438	-1464.394	1	3598.847	-24.01065	1.364187E-005	0.0425564	8
	4	8	398109.4	3489.237	-1298.646	1	3723.071	-20.41458	1.268289E-005	0.0426582	8
	5	10	316265.6	3645.48	-1160.824	1	3825.838	-17.66295	1.362067E-005	0.0425347	8
	6	11	251203.1	3758.864	-1041.387	1	3900.454	-15.48531	1.25842E-005	0.0426748	8
	7	13	199546.9	3875.003	-948.5468	1	3989.409	-13.75474	1.195899E-005	0.0429456	8
	8	14	158578.1	3961.419	-884.2051	1	4058.898	-12.58241	9.763534E-006	0.0433465	8
	9	16	125953.1	4062.893	-824.8086	1	4145.77	-11.47567	1.302909E-006	0.0421883	7
	10	17	100078.1	4073.191	-814.1818	1	4153.767	-11.30376	9.555951E-007	0.043316	7
	11	19	79453.13	4132.175	-826.4467	1	4214.01	-11.31009	1.031918E-006	0.0431915	7
	12	20	63140.62	4200.793	-863.6045	1	4288.645	-11.61709	9.52404E-007	0.0433013	7
	13	21	50203.12	4271.525	-922.6567	1	4370.037	-12.18873	1.043063E-006	0.0431481	7
	14	23	39890.62	4344.645	-1010.909	1	4460.703	-13.09849	9.828269E-007	0.043226	7
	15	24	31640.63	4429.746	-1127.669	1	4571.027	-14.28227	9.592096E-007	0.0432558	7
	16	25	25171.88	4519.916	-1273.174	1	4695.808	-15.73152	9.682608E-007	0.0432448	7
	17	27	20015.62	4625.951	-1453.354	1	4848.882	-17.44137	9.711878E-007	0.0433151	7
	18	28	15890.62	4748.635	-1678.633	1	5036.6	-19.4684	1.018166E-006	0.0431406	7
	19	29	12609.37	4893.277	-1933.139	1	5261.292	-21.557	1.046365E-006	0.0431471	7
	20	31	10078.13	5053.907	-2248.417	1	5531.488	-23.98365	1.009438E-006	0.0431835	7
	21	32	8015.625	5240.831	-2626.578	1	5862.186	-26.61893	9.899888E-007	0.0432901	7
	22	33	6328.125	5463.479	-3095.03	1	6279.236	-29.53131	9.796609E-007	0.0432612	7
	23	35	5015.625	5726.973	-3630.704	1	6780.873	-32.37329	9.850406E-007	0.0432378	7
	24	36	3984.375	6028.707	-4262.556	1	7383.407	-35.26196	9.585632E-007	0.0433481	7
	25	37	3170.956	6389.06	-5014.977	1	8122.197	-38.1295	9.661973E-007	0.0432453	7
	26	39	2527.573	6796.376	-5891.102	1	8994.21	-40.91876	1.000636E-006	0.0432439	7
	27	40	1976.103	7328.434	-7035.228	1	10158.76	-43.83058	9.581312E-007	0.0432948	7
	28	41	1577.524	7908.195	-8278.907	1	11449.01	-46.31194	9.592587E-007	0.043291	7
	29	43	1265.625	8561.542	-9688.8	1	12929.54	-48.53447	9.728414E-008	0.0432187	6
	30	44	998.264	9413.193	-11498.43	1	14860.08	-50.69451	9.70535E-008	0.0432486	6
	31	45	796.875	10371.32	-13522.97	1	17042.15	-52.51392	1.050453E-007	0.0430374	6
	32	47	627.7902	11569.13	-16066.83	1	19798.68	-54.24372	9.233867E-008	0.0432792	6
	33	48	505.5147	12866.01	-18793.72	1	22775.83	-55.60482	9.98979E-008	0.0431576	6
	34	50	397.9953	14549.75	-22321.17	1	26644.51	-56.90222	9.699021E-008	0.0428355	6
	35	51	315.5048	16500.73	-26374.35	1	31110.78	-57.96844	9.724948E-008	0.0428358	6
	36	52	252.4038	18716.64	-30942.05	1	36162.46	-58.83054	9.716694E-008	0.0428347	6
	37	54	198.6229	21546.18	-36718.04	1	42572.9	-59.59555	9.692003E-008	0.0428358	6
	38	55	158.3615	24704.8	-43146.34	1	49718.55	-60.20534	9.670747E-008	0.0428342	6
	39	56	125.558	28553.74	-50898.33	1	58360.57	-60.70776	9.683184E-008	0.0428326	6
	40	58	100.4464	32956.02	-59618.4	1	68120.87	-61.06694	9.684967E-008	0.0428275	6
	41	59	79.00281	38417.23	-70411.91	1	80210.48	-61.38281	9.682839E-008	0.0428299	6
	42	60	63.3446	44606.42	-83258.77	1	94455.04	-61.81953	9.657862E-008	0.0428277	6
	43	62	49.86702	51108.07	-97391.9	1	109987.3	-62.31099	9.672829E-008	0.0428194	6
	44	63	39.72458	60085.48	-114518.3	1	129324.1	-62.3149	9.676685E-008	0.0428338	6
	45	64	31.6723	69207.5	-134215.5	1	151008.2	-62.72235	9.884938E-009	0.0428357	5
	46	66	24.93351	81184.32	-159078	1	178596.5	-62.96283	9.672658E-009	0.0428353	5
	47	67	19.86229	94528.84	-187173.4	1	209689.3	-63.2047	1.016262E-008	0.0428387	5
	48	68	15.83615	111395.1	-218884.8	1	245600.1	-63.02749	1.072901E-008	0.0428348	5
	49	70	12.40079	130367.6	-263246.4	1	293759.1	-63.65399	1.027803E-008	0.0428393	5
	50	71	9.93114	149915.5	-308006.1	1	342552.7	-64.04648	1.008044E-008	0.0428356	5
	51	73	7.944915	174039.4	-361657.8	1	401355.3	-64.30189	9.81529E-009	0.0428319	5
	52	74	6.317385	202775.4	-428938.1	1	474453.1	-64.69811	9.88855E-009	0.0428273	5
	53	76	5.008013	238336.4	-510057.7	1	562994.8	-64.95456	9.796634E-009	0.0428356	5
	54	79	3.945707	281978.3	-607569.3	1	669815.1	-65.10356	9.975305E-009	0.0428441	5
	55	82	3.158693	331372	-716775.9	1	789667.8	-65.18847	9.807589E-009	0.0428257	5
	56	85	2.504006	394667.2	-851188.9	1	938234.9	-65.12446	9.831908E-009	0.0431242	5
	57	88	1.998082	469170.8	-1003982	1	1108197	-64.95285	9.733852E-009	0.0431614	5
	58	91	1.584686	559784.6	-1188688	1	1313902	-64.78301	9.738386E-009	0.0431443	5
	59	95	1.266892	671851.8	-1398982	1	1551946	-64.34766	1.010276E-009	0.0431564	4
	60	99	0.999041	814354.7	-1652752	1	1842488	-63.76931	1.157119E-009	0.0431034	4
