EXPLAIN
TAG	EISPOT
TITLE	LABEL	Potentiostatic EIS	Test &Identifier
DATE	LABEL	9/20/2019	Date
TIME	LABEL	11:33:07	Time
NOTES	NOTES	1	&Notes...
	
PSTAT	PSTAT	REF600-11020	Potentiostat
VDC	POTEN	0.00000E+000	T	DC &Voltage (V)
FREQINIT	QUANT	1.00000E+006	Initial Fre&q. (Hz)
FREQFINAL	QUANT	1.00000E+000	Final Fre&q. (Hz)
PTSPERDEC	QUANT	1.00000E+001	Points/&decade
VAC	QUANT	2.50000E+001	AC &Voltage (mV rms)
AREA	QUANT	1.00000E-002	&Area (cm^2)
CONDIT	TWOPARAM	T	5.00000E+000	0.00000E+000	Conditionin&g	Time(s)	E(V)
DELAY	TWOPARAM	T	5.00000E+000	0.00000E+000	Init. De&lay	Time(s)	Stab.(mV/s)
SPEED	SELECTOR	1	&Optimize for:
ZGUESS	QUANT	1.00000E+004	E&stimated Z (ohms)
OCVCURVE	TABLE	19
	Pt	T	Vf	Vm	Ach	Over
	#	s	V vs. Ref.	V	V	bits
	0	0.258333	-1.15894E-004	-1.15894E-004	5.63866E-004	...........
	1	0.516667	-1.26143E-004	-6.52426E-004	5.65999E-004	...........
	2	0.775	-1.88759E-004	-1.14402E-003	5.67332E-004	...........
	3	1.03333	-3.64459E-004	-1.59728E-003	5.65699E-004	...........
	4	1.29167	-6.74966E-004	-2.02097E-003	5.63699E-004	...........
	5	1.55	-1.08101E-003	-2.41684E-003	5.69832E-004	...........
	6	1.80833	-1.52200E-003	-2.78694E-003	5.64099E-004	...........
	7	2.06667	-1.95518E-003	-3.14000E-003	5.67366E-004	...........
	8	2.325	-2.36292E-003	-3.47683E-003	5.64466E-004	...........
	9	2.58333	-2.74353E-003	-3.79777E-003	5.69066E-004	...........
	10	2.84167	-3.10115E-003	-4.10651E-003	5.69032E-004	...........
	11	3.1	-3.44012E-003	-4.39956E-003	5.69399E-004	...........
	12	3.35833	-3.76328E-003	-4.68054E-003	5.66032E-004	...........
	13	3.61667	-4.07208E-003	-4.94939E-003	5.67666E-004	...........
	14	3.875	-4.36748E-003	-5.21339E-003	5.67232E-004	...........
	15	4.13333	-4.65061E-003	-5.46255E-003	5.68299E-004	...........
	16	4.39167	-4.92278E-003	-5.70990E-003	5.67299E-004	...........
	17	4.65	-5.18518E-003	-5.94492E-003	5.71599E-004	...........
	18	4.90833	-5.43870E-003	-6.17376E-003	5.68832E-004	...........
EOC	QUANT	-0.0054387	Open Circuit (V)
PSTATMODEL	IQUANT	4	Pstat Model
PSTATSECTION	LABEL	REF600-11020	Pstat Section
PSTATSERIALNO	LABEL	11020	Pstat Serial Number
CTRLMODE	IQUANT	1	Control Mode
IESTAB	IQUANT	0	I/E Stability
CASPEED	IQUANT	1	Control Amp Speed
CONVENTION	IQUANT	1	Current Convention
ICHRANGE	IQUANT	2	Ich Range
ICHRANGEMODE	TOGGLE	F	Ich Auto Range
ICHOFFSETENABLE	TOGGLE	T	Ich Offset Enable
ICHOFFSET	QUANT	0	Ich Offset (V)
ICHFILTER	IQUANT	3	Ich Filter
VCHRANGE	IQUANT	2	Vch Range
VCHRANGEMODE	TOGGLE	F	Vch Auto Range
VCHOFFSETENABLE	TOGGLE	T	Vch Offset Enable
VCHOFFSET	QUANT	0	Vch Offset (V)
VCHFILTER	IQUANT	3	Vch Filter
ACHRANGE	IQUANT	2	Ach Range
ACHOFFSETENABLE	TOGGLE	F	Ach Offset Enable
ACHOFFSET	QUANT	0	Ach Offset (V)
ACHFILTER	IQUANT	3	Ach Filter
IERANGELOWERLIMIT	IQUANT	1	I/E Range Lower Limit
IERANGEMODE	TOGGLE	F	I/E AutoRange
IERANGE	IQUANT	6	I/E Range
POSFEEDENABLE	TOGGLE	F	Positive Feedback IR Comp
POSFEEDRESISTANCE	QUANT	0	Positive Feedback Resistance (ohm)
ACHSELECT	IQUANT	0	Ach Select
CABLEID	IQUANT	14	Cable ID
DCCALDATE	LABEL	8/19/2019	DC Calibration Date
ACCALDATE	LABEL	8/19/2019	AC Calibration Date
THERMOSELECT	IQUANT	1	Thermo Select
FRAMEWORKVERSION	QUANT	6.33	Framework Version
INSTRUMENTVERSION	LABEL	3.50	Instrument Version
ZCURVE	TABLE
	Pt	Time	Freq	Zreal	Zimag	Zsig	Zmod	Zphz	Idc	Vdc	IERange
	#	s	Hz	ohm	ohm	V	ohm	°	A	V	#
	0	1	1000078	2340.217	-2071.623	1	3125.417	-41.51612	-1.326619E-006	-0.0020654	8
	1	3	794390.6	2780.703	-2129.196	1	3502.255	-37.44144	2.377103E-006	-0.0041921	8
	2	4	630984.4	3193.254	-2079.121	1	3810.462	-33.06807	2.260351E-006	-0.0043049	8
	3	6	501234.4	3593.992	-1960.537	1	4093.958	-28.61265	-1.090752E-006	-0.0034656	8
	4	7	398109.4	3938.962	-1806.053	1	4333.272	-24.63192	1.620073E-006	-0.0043943	8
	5	9	316265.6	4227.187	-1605.479	1	4521.799	-20.7967	-3.114286E-007	-0.0039828	8
	6	10	251203.1	4463.989	-1452.231	1	4694.27	-18.02081	9.522399E-007	-0.0040927	8
	7	12	199546.9	4658.81	-1250.358	1	4823.681	-15.02333	4.824481E-006	-0.0048586	8
	8	13	158578.1	4803.204	-1111.705	1	4930.178	-13.03169	-3.402085E-006	-0.003221	8
	9	15	125953.1	4931.652	-886.9905	1	5010.783	-10.19602	-8.751908E-007	-0.0021415	7
	10	16	100078.1	5018.112	-777.0015	1	5077.911	-8.801747	1.432281E-007	-0.0041684	7
	11	17	79453.13	5083.442	-689.4878	1	5129.988	-7.724123	-7.386191E-009	-0.0039164	7
	12	19	63140.62	5138.005	-622.7618	1	5175.609	-6.910934	-4.086574E-008	-0.0039252	7
	13	20	50203.12	5185.968	-575.9058	1	5217.847	-6.336777	7.466093E-008	-0.0041006	7
	14	22	39890.62	5230.056	-538.2145	1	5257.676	-5.875511	-5.798839E-008	-0.0037964	7
	15	23	31640.63	5269.64	-521.4679	1	5295.378	-5.651421	4.452557E-008	-0.004024	7
	16	24	25171.88	5307.878	-519.1518	1	5333.207	-5.586205	4.752287E-008	-0.0041246	7
	17	26	20015.62	5343.917	-532.0906	1	5370.342	-5.686164	-5.017951E-008	-0.0039412	7
	18	27	15890.62	5391.712	-556.1205	1	5420.316	-5.888868	7.549855E-008	-0.0041089	7
	19	28	12609.37	5420.225	-603.3924	1	5453.707	-6.352149	9.235555E-008	-0.0041658	7
	20	30	10078.13	5460.608	-665.123	1	5500.966	-6.944637	-2.10193E-008	-0.0040076	7
	21	31	8015.625	5501.438	-750.5903	1	5552.406	-7.769196	-3.180909E-009	-0.0039702	7
	22	32	6328.125	5546.891	-865.2333	1	5613.967	-8.865852	-1.19915E-008	-0.0038377	7
	23	34	5015.625	5598.897	-1007.513	1	5688.825	-10.20111	-3.771217E-008	-0.0039662	7
	24	35	3984.375	5656.229	-1184.953	1	5779.018	-11.83208	1.454284E-007	-0.0042004	7
	25	36	3170.956	5725.2	-1404.549	1	5894.97	-13.784	-8.243391E-008	-0.0038498	7
	26	38	2527.573	5798.828	-1673.282	1	6035.419	-16.09577	-2.726008E-009	-0.0039634	7
	27	39	1976.103	5898.206	-2030.599	1	6237.961	-18.99725	-4.018067E-008	-0.003965	7
	28	41	1577.524	6004.637	-2430.105	1	6477.737	-22.03341	-5.565404E-008	-0.0038002	7
	29	42	1265.625	6117.218	-2909.069	1	6773.702	-25.43362	-3.376011E-008	-0.0039756	7
	30	43	998.264	6277.777	-3530.11	1	7202.233	-29.34985	-1.07191E-008	-0.0038412	7
	31	45	796.875	6450.163	-4246.1	1	7722.303	-33.35665	-7.759989E-009	-0.0039345	7
	32	46	627.7902	6655.955	-5180.428	1	8434.368	-37.89415	-3.330273E-008	-0.0039757	7
	33	47	505.5147	6862.533	-6219.699	1	9261.696	-42.18687	9.438768E-008	-0.0040403	7
	34	49	397.9953	7141.603	-7622.471	1	10445.31	-46.86547	8.524287E-010	-0.0040283	6
	35	50	315.5048	7449.536	-9316.352	1	11928.54	-51.35349	1.362131E-009	-0.0040202	6
	36	51	252.4038	7797.855	-11320.54	1	13746.31	-55.44001	1.115125E-009	-0.0040271	6
	37	53	198.6229	8250.194	-13991.23	1	16242.54	-59.47347	1.134832E-009	-0.0040225	6
	38	54	158.3615	8779.604	-17121.3	1	19241.12	-62.85178	8.339233E-010	-0.0040329	6
	39	56	125.558	9462.226	-21091.51	1	23116.78	-65.8377	1.180638E-009	-0.0040261	6
	40	57	100.4464	10287.35	-25787.04	1	27763.3	-68.25121	6.682414E-010	-0.0040273	6
	41	58	79.00281	11514.67	-31976.33	1	33986.38	-70.19606	8.79619E-010	-0.0040292	6
	42	60	63.3446	12956	-38788.84	1	40895.38	-71.52998	1.205544E-009	-0.0040257	6
	43	61	49.86702	15041.46	-48665.74	1	50937.21	-72.82483	1.261177E-009	-0.0040349	6
	44	63	39.72458	17588.17	-59416.79	1	61965.3	-73.51054	1.453388E-009	-0.0040296	6
	45	64	31.6723	20862.57	-72523.04	1	75464.15	-73.95116	1.589903E-009	-0.004031	6
	46	65	24.93351	25926.95	-89529.78	1	93208.3	-73.8495	1.115512E-009	-0.0040274	6
	47	67	19.86229	32320.94	-109051.1	1	113740	-73.49106	7.568481E-010	-0.0040255	5
	48	68	15.83615	41673.62	-132828.5	1	139212.5	-72.58128	1.966302E-009	-0.0040315	5
	49	69	12.40079	52310.5	-160910.4	1	169199.7	-71.99113	3.870873E-010	-0.0040291	5
	50	71	9.93114	67943.44	-193311.5	1	204904	-70.63489	5.559351E-010	-0.0040266	5
	51	72	7.944915	88385.41	-230252.8	1	246634	-69.00008	6.801041E-010	-0.0040247	5
	52	74	6.317385	113318.4	-272314.7	1	294951.4	-67.40633	7.015047E-010	-0.004011	5
	53	76	5.008013	146267.4	-320434.1	1	352238.8	-65.4649	6.864461E-010	-0.0040211	5
	54	79	3.945707	188514.1	-374951.3	1	419673.7	-63.30815	4.934418E-010	-0.0040171	5
	55	81	3.158693	236384.7	-429217.1	1	490005.1	-61.15691	3.378166E-010	-0.0040098	5
	56	85	2.504006	294412.2	-489059.5	1	570839.5	-58.9522	4.665269E-010	-0.0040325	5
	57	87	1.998082	357093.2	-550290.2	1	655999.1	-57.01974	7.602245E-011	-0.0040018	5
	58	91	1.584686	429846	-616671.2	1	751698.7	-55.12186	4.541448E-010	-0.0039849	5
	59	94	1.266892	504582.7	-684231.6	1	850162.7	-53.59329	1.194269E-010	-0.0039931	5
	60	98	0.999041	587469.6	-763519.8	1	963371	-52.42449	4.618233E-010	-0.0040443	5
