EXPLAIN
TAG	EISPOT
TITLE	LABEL	Potentiostatic EIS	Test &Identifier
DATE	LABEL	11/20/2019	Date
TIME	LABEL	9:53:54	Time
NOTES	NOTES	4	&Notes...
	
	
	
	
PSTAT	PSTAT	REF600-11020	Potentiostat
VDC	POTEN	0.00000E+000	T	DC &Voltage (V)
FREQINIT	QUANT	1.00000E+006	Initial Fre&q. (Hz)
FREQFINAL	QUANT	1.00000E+000	Final Fre&q. (Hz)
PTSPERDEC	QUANT	1.00000E+001	Points/&decade
VAC	QUANT	2.50000E+001	AC &Voltage (mV rms)
AREA	QUANT	1.00000E-002	&Area (cm^2)
CONDIT	TWOPARAM	T	5.00000E+000	0.00000E+000	Conditionin&g	Time(s)	E(V)
DELAY	TWOPARAM	T	5.00000E+000	0.00000E+000	Init. De&lay	Time(s)	Stab.(mV/s)
SPEED	SELECTOR	0	&Optimize for:
ZGUESS	QUANT	1.00000E+005	E&stimated Z (ohms)
OCVCURVE	TABLE	19
	Pt	T	Vf	Vm	Ach	Over
	#	s	V vs. Ref.	V	V	bits
	0	0.258333	1.35204E-002	1.35204E-002	5.93712E-004	...........
	1	0.516667	1.35283E-002	1.39355E-002	5.94512E-004	...........
	2	0.775	1.35768E-002	1.43182E-002	5.90912E-004	...........
	3	1.03333	1.37132E-002	1.46802E-002	5.89179E-004	...........
	4	1.29167	1.39553E-002	1.50218E-002	5.95345E-004	...........
	5	1.55	1.42742E-002	1.53375E-002	5.93879E-004	...........
	6	1.80833	1.46235E-002	1.56498E-002	5.95945E-004	...........
	7	2.06667	1.49701E-002	1.59318E-002	5.96845E-004	...........
	8	2.325	1.52999E-002	1.62201E-002	5.94812E-004	...........
	9	2.58333	1.56108E-002	1.64812E-002	5.87346E-004	...........
	10	2.84167	1.59055E-002	1.67473E-002	5.91845E-004	...........
	11	3.1	1.61868E-002	1.69857E-002	5.93679E-004	...........
	12	3.35833	1.64563E-002	1.72286E-002	5.97212E-004	...........
	13	3.61667	1.67146E-002	1.74408E-002	5.94246E-004	...........
	14	3.875	1.69618E-002	1.76745E-002	5.97579E-004	...........
	15	4.13333	1.71986E-002	1.78882E-002	5.99279E-004	...........
	16	4.39167	1.74256E-002	1.80016E-002	5.96279E-004	...........
	17	4.65	1.76388E-002	1.82158E-002	5.95446E-004	...........
	18	4.90833	1.78352E-002	1.84122E-002	5.95212E-004	...........
EOC	QUANT	0.0178352	Open Circuit (V)
PSTATMODEL	IQUANT	4	Pstat Model
PSTATSECTION	LABEL	REF600-11020	Pstat Section
PSTATSERIALNO	LABEL	11020	Pstat Serial Number
CTRLMODE	IQUANT	1	Control Mode
IESTAB	IQUANT	0	I/E Stability
CASPEED	IQUANT	1	Control Amp Speed
CONVENTION	IQUANT	1	Current Convention
ICHRANGE	IQUANT	2	Ich Range
ICHRANGEMODE	TOGGLE	F	Ich Auto Range
ICHOFFSETENABLE	TOGGLE	T	Ich Offset Enable
ICHOFFSET	QUANT	0	Ich Offset (V)
ICHFILTER	IQUANT	3	Ich Filter
VCHRANGE	IQUANT	2	Vch Range
VCHRANGEMODE	TOGGLE	F	Vch Auto Range
VCHOFFSETENABLE	TOGGLE	T	Vch Offset Enable
VCHOFFSET	QUANT	0	Vch Offset (V)
VCHFILTER	IQUANT	3	Vch Filter
ACHRANGE	IQUANT	2	Ach Range
ACHOFFSETENABLE	TOGGLE	F	Ach Offset Enable
ACHOFFSET	QUANT	0	Ach Offset (V)
ACHFILTER	IQUANT	1	Ach Filter
IERANGELOWERLIMIT	IQUANT	1	I/E Range Lower Limit
IERANGEMODE	TOGGLE	F	I/E AutoRange
IERANGE	IQUANT	5	I/E Range
POSFEEDENABLE	TOGGLE	F	Positive Feedback IR Comp
POSFEEDRESISTANCE	QUANT	0	Positive Feedback Resistance (ohm)
ACHSELECT	IQUANT	0	Ach Select
CABLEID	IQUANT	14	Cable ID
DCCALDATE	LABEL	8/19/2019	DC Calibration Date
ACCALDATE	LABEL	8/19/2019	AC Calibration Date
THERMOSELECT	IQUANT	1	Thermo Select
FRAMEWORKVERSION	QUANT	6.33	Framework Version
INSTRUMENTVERSION	LABEL	3.50	Instrument Version
ZCURVE	TABLE
	Pt	Time	Freq	Zreal	Zimag	Zsig	Zmod	Zphz	Idc	Vdc	IERange
	#	s	Hz	ohm	ohm	V	ohm	°	A	V	#
	0	1	1000078	727.1456	-6017.028	1	6060.806	-83.10934	8.470293E-006	0.0188982	8
	1	2	794390.6	812.0019	-7432.164	1	7476.39	-83.76488	7.182889E-006	0.018238	8
	2	2	630984.4	1029.327	-9219.052	1	9276.337	-83.62919	4.459792E-006	0.0194747	8
	3	3	501234.4	1262.454	-11641.65	1	11709.9	-83.81087	-2.598157E-007	0.019095	8
	4	3	398109.4	1684.299	-14458.98	1	14556.75	-83.35567	-1.447212E-006	0.0191148	8
	5	4	316265.6	2286.169	-17886.38	1	18031.9	-82.71617	-1.985911E-006	0.0194716	8
	6	4	251203.1	2938.446	-22585.84	1	22776.19	-82.58739	-1.96831E-006	0.0194723	8
	7	4	199546.9	4044.937	-27388.23	1	27685.32	-81.59879	-1.290978E-006	0.0196965	8
	8	5	158578.1	5653.623	-34894.79	1	35349.82	-80.79696	-2.444439E-006	0.0197938	8
	9	5	125953.1	8598.883	-42741.29	1	43597.69	-78.62482	3.358422E-006	0.0122817	7
	10	6	100078.1	10881.23	-51414.44	1	52553.27	-78.05038	6.372407E-007	0.0197685	7
	11	6	79453.13	14842.33	-62583.1	1	64319.04	-76.65812	1.278409E-006	0.0172338	7
	12	6	63140.62	20535.37	-76227.82	1	78945.44	-74.92276	9.470929E-007	0.0192141	7
	13	7	50203.12	28028.18	-91763.46	1	95948.5	-73.01526	2.525439E-007	0.0174694	7
	14	7	39890.62	39254.59	-110242.3	1	117022.6	-70.40043	3.426138E-007	0.0201467	7
	15	7	31640.63	52738.63	-137591.5	1	147352.6	-69.02824	2.604987E-007	0.0174679	7
	16	8	25171.88	65315.99	-154313.5	1	167567.4	-67.0586	9.473282E-007	0.0192092	7
	17	8	20015.62	89576.28	-175543.6	1	197077.3	-62.96571	1.203462E-006	0.0185887	7
	18	9	15890.62	114022	-206896.7	1	236235.6	-61.14057	9.458536E-007	0.0192111	7
	19	9	12609.37	153052.8	-237575.1	1	282607.6	-57.20919	2.646729E-007	0.0157013	6
	20	10	10078.13	189913.8	-261851.7	1	323471.2	-54.04767	2.651373E-007	0.0157038	6
	21	10	8015.625	228241.1	-286236	1	366094.4	-51.43157	-9.749185E-008	0.0230065	6
	22	10	6328.125	292464.5	-313021	1	428389.6	-46.94447	2.377145E-007	0.0151838	6
	23	11	5015.625	355325.5	-328477.4	1	483894.2	-42.75156	1.608291E-007	0.0197396	6
	24	11	3984.375	411557	-348345.5	1	539188.1	-40.24488	2.2369E-007	0.0184313	6
	25	11	3170.956	481126.8	-335809.5	1	586729.1	-34.91368	1.865127E-007	0.0150607	6
	26	12	2527.573	543800.5	-328626.5	1	635385.2	-31.14518	2.60614E-007	0.0173069	6
	27	12	1976.103	596581.4	-311300.6	1	672917.1	-27.55589	3.576831E-008	0.0159418	6
	28	12	1577.524	627754.2	-486535.2	1	794224.1	-37.77715	2.70308E-007	0.0164704	6
	29	13	1265.625	710969.1	-264696.2	1	758644.3	-20.42047	1.265467E-008	0.0203613	5
	30	13	998.264	753354.4	-238472.6	1	790197.4	-17.56506	-5.278602E-008	0.0169026	6
	31	14	796.875	779937.4	-215467.2	1	809153	-15.44346	2.694685E-008	0.0159604	5
	32	14	627.7902	801514.9	-193850.9	1	824623.8	-13.59622	-2.76665E-007	0.0211349	6
	33	15	505.5147	833225.7	-171179.1	1	850627.6	-11.6094	-3.14252E-008	0.0230509	5
	34	15	397.9953	850015.5	-156111.8	1	864232.2	-10.40683	-6.372798E-010	0.0192486	5
	35	15	315.5048	872925.3	-142407.8	1	884465.1	-9.265529	1.513385E-010	0.0192408	6
	36	16	252.4038	877173.1	-128735.8	1	886569.5	-8.349247	-2.658421E-011	0.0192393	5
	37	16	198.6229	890648.6	-119532.4	1	898633.9	-7.64389	-3.16224E-010	0.0192466	5
	38	17	158.3615	904880.8	-119447.2	1	912730.5	-7.519752	-3.979877E-010	0.0192374	5
	39	17	125.558	917312.9	-108661.1	1	923726.3	-6.75554	-3.031005E-010	0.0192355	5
	40	18	100.4464	939777	-84452.23	1	943564	-5.135042	-4.51271E-010	0.0192365	5
	41	18	79.00281	940025.1	-151247.3	1	952115	-9.140387	-1.771237E-010	0.0192285	5
	42	19	63.3446	1059063	26689.03	1	1059400	1.443583	-4.75437E-010	0.0192279	5
	43	19	49.86702	949668.1	-132899.5	1	958922	-7.966416	-1.282092E-010	0.0192255	5
	44	20	39.72458	957550	-114860.1	1	964415	-6.84006	-2.751874E-010	0.0192414	5
	45	21	31.6723	1010210	-145583	1	1020646	-8.200527	6.017679E-011	0.019236	5
	46	22	24.93351	990238	-156295.1	1	1002497	-8.969336	-1.000792E-010	0.0192296	5
	47	22	19.86229	1006846	-184882.6	1	1023680	-10.40505	-6.708441E-011	0.0192397	4
	48	22	15.83615	1017303	-168235.9	1	1031120	-9.390269	4.772236E-010	0.0192234	5
	49	23	12.40079	1038214	-195965.3	1	1056547	-10.68895	-8.260931E-010	0.0192307	4
	50	23	9.93114	1087630	-251577.4	1	1116347	-13.02392	5.434566E-011	0.0192327	4
	51	24	7.944915	1118503	-288044.2	1	1154997	-14.4414	-2.0649E-010	0.0192347	4
	52	24	6.317385	1151466	-323603.3	1	1196074	-15.69727	-2.155713E-010	0.0192426	4
	53	25	5.008013	1191871	-363676.8	1	1246121	-16.96857	-6.946291E-011	0.0192342	4
	54	26	3.945707	1245720	-409063.7	1	1311164	-18.17891	-3.298435E-010	0.0192173	4
	55	28	3.158693	1296450	-453903.8	1	1373613	-19.2958	-1.284663E-010	0.0192177	4
	56	29	2.504006	1357076	-505344.4	1	1448112	-20.4242	-5.367455E-011	0.0192315	4
	57	31	1.998082	1418403	-556797.1	1	1523775	-21.4326	-2.262598E-010	0.0191918	4
	58	32	1.584686	1489846	-620825.9	1	1614022	-22.62173	-2.823934E-010	0.0191963	4
	59	34	1.266892	1559610	-689150.9	1	1705084	-23.83939	-2.186512E-010	0.0192362	4
	60	37	0.999041	1642275	-769008.2	1	1813405	-25.09172	-1.500772E-010	0.0192593	4
