EXPLAIN
TAG	EISPOT
TITLE	LABEL	Potentiostatic EIS	Test &Identifier
DATE	LABEL	10/4/2019	Date
TIME	LABEL	9:42:47	Time
NOTES	NOTES	2	&Notes...
	
	
PSTAT	PSTAT	REF600-11020	Potentiostat
VDC	POTEN	0.00000E+000	T	DC &Voltage (V)
FREQINIT	QUANT	1.00000E+006	Initial Fre&q. (Hz)
FREQFINAL	QUANT	1.00000E+000	Final Fre&q. (Hz)
PTSPERDEC	QUANT	1.00000E+001	Points/&decade
VAC	QUANT	2.50000E+001	AC &Voltage (mV rms)
AREA	QUANT	1.00000E-002	&Area (cm^2)
CONDIT	TWOPARAM	T	5.00000E+000	0.00000E+000	Conditionin&g	Time(s)	E(V)
DELAY	TWOPARAM	T	5.00000E+000	0.00000E+000	Init. De&lay	Time(s)	Stab.(mV/s)
SPEED	SELECTOR	1	&Optimize for:
ZGUESS	QUANT	1.00000E+004	E&stimated Z (ohms)
OCVCURVE	TABLE	19
	Pt	T	Vf	Vm	Ach	Over
	#	s	V vs. Ref.	V	V	bits
	0	0.258333	5.04491E-003	5.04491E-003	5.58499E-004	...........
	1	0.516667	5.04134E-003	4.85833E-003	5.52099E-004	...........
	2	0.775	5.01973E-003	4.69586E-003	5.63432E-004	...........
	3	1.03333	4.95983E-003	4.55708E-003	5.71566E-004	...........
	4	1.29167	4.85610E-003	4.43638E-003	5.60866E-004	...........
	5	1.55	4.72470E-003	4.33263E-003	5.51199E-004	...........
	6	1.80833	4.58864E-003	4.25241E-003	5.65699E-004	...........
	7	2.06667	4.46357E-003	4.16286E-003	5.72599E-004	...........
	8	2.325	4.35441E-003	4.07702E-003	5.59366E-004	...........
	9	2.58333	4.25810E-003	3.98874E-003	5.58232E-004	...........
	10	2.84167	4.16923E-003	3.92527E-003	5.68832E-004	...........
	11	3.1	4.08514E-003	3.86221E-003	5.71732E-004	...........
	12	3.35833	4.00661E-003	3.80036E-003	5.58899E-004	...........
	13	3.61667	3.93440E-003	3.72889E-003	5.53133E-004	...........
	14	3.875	3.86708E-003	3.67576E-003	5.69166E-004	...........
	15	4.13333	3.80300E-003	3.63869E-003	5.68866E-004	...........
	16	4.39167	3.74304E-003	3.59089E-003	5.61199E-004	...........
	17	4.65	3.68880E-003	3.54249E-003	5.54833E-004	...........
	18	4.90833	3.63951E-003	3.49543E-003	5.73399E-004	...........
EOC	QUANT	0.0036395	Open Circuit (V)
PSTATMODEL	IQUANT	4	Pstat Model
PSTATSECTION	LABEL	REF600-11020	Pstat Section
PSTATSERIALNO	LABEL	11020	Pstat Serial Number
CTRLMODE	IQUANT	1	Control Mode
IESTAB	IQUANT	0	I/E Stability
CASPEED	IQUANT	1	Control Amp Speed
CONVENTION	IQUANT	1	Current Convention
ICHRANGE	IQUANT	2	Ich Range
ICHRANGEMODE	TOGGLE	F	Ich Auto Range
ICHOFFSETENABLE	TOGGLE	T	Ich Offset Enable
ICHOFFSET	QUANT	0	Ich Offset (V)
ICHFILTER	IQUANT	3	Ich Filter
VCHRANGE	IQUANT	2	Vch Range
VCHRANGEMODE	TOGGLE	F	Vch Auto Range
VCHOFFSETENABLE	TOGGLE	T	Vch Offset Enable
VCHOFFSET	QUANT	0	Vch Offset (V)
VCHFILTER	IQUANT	3	Vch Filter
ACHRANGE	IQUANT	2	Ach Range
ACHOFFSETENABLE	TOGGLE	F	Ach Offset Enable
ACHOFFSET	QUANT	0	Ach Offset (V)
ACHFILTER	IQUANT	3	Ach Filter
IERANGELOWERLIMIT	IQUANT	1	I/E Range Lower Limit
IERANGEMODE	TOGGLE	F	I/E AutoRange
IERANGE	IQUANT	5	I/E Range
POSFEEDENABLE	TOGGLE	F	Positive Feedback IR Comp
POSFEEDRESISTANCE	QUANT	0	Positive Feedback Resistance (ohm)
ACHSELECT	IQUANT	0	Ach Select
CABLEID	IQUANT	14	Cable ID
DCCALDATE	LABEL	8/19/2019	DC Calibration Date
ACCALDATE	LABEL	8/19/2019	AC Calibration Date
THERMOSELECT	IQUANT	1	Thermo Select
FRAMEWORKVERSION	QUANT	6.33	Framework Version
INSTRUMENTVERSION	LABEL	3.50	Instrument Version
ZCURVE	TABLE
	Pt	Time	Freq	Zreal	Zimag	Zsig	Zmod	Zphz	Idc	Vdc	IERange
	#	s	Hz	ohm	ohm	V	ohm	°	A	V	#
	0	2	1000078	2554.344	-1860.752	1	3160.233	-36.07206	2.442873E-008	0.0071208	8
	1	3	794390.6	2910.927	-1813.523	1	3429.63	-31.92312	4.481829E-007	0.005716	8
	2	5	630984.4	3260.346	-1697.594	1	3675.824	-27.50505	4.550933E-006	0.0047245	8
	3	6	501234.4	3564.257	-1537.032	1	3881.546	-23.32739	3.608653E-006	0.004658	8
	4	7	398109.4	3800.378	-1371.092	1	4040.144	-19.83832	-3.528231E-006	0.0060412	8
	5	9	316265.6	4007.339	-1185.872	1	4179.122	-16.48481	3.676554E-006	0.0045671	8
	6	10	251203.1	4136.763	-1023.517	1	4261.501	-13.89702	3.756815E-006	0.0046193	8
	7	11	199546.9	4231.434	-895.575	1	4325.169	-11.95019	-6.358919E-007	0.0052423	8
	8	13	158578.1	4334.173	-748.5562	1	4398.34	-9.7989	-8.631665E-007	0.005679	8
	9	14	125953.1	4397.815	-608.1107	1	4439.66	-7.872688	-1.877397E-007	0.0052547	7
	10	16	100078.1	4443.749	-543.1566	1	4476.82	-6.96866	-5.384094E-008	0.0053558	7
	11	17	79453.13	4481.824	-497.0245	1	4509.299	-6.328119	4.229092E-008	0.0051389	7
	12	18	63140.62	4520.766	-463.9926	1	4544.515	-5.86008	-4.892153E-008	0.0053959	7
	13	20	50203.12	4554.597	-445.1473	1	4576.299	-5.582121	-1.954876E-008	0.0052396	7
	14	21	39890.62	4586.656	-436.6257	1	4607.391	-5.437872	1.214658E-007	0.0050961	7
	15	22	31640.63	4622.363	-442.0378	1	4643.451	-5.462599	-7.145426E-008	0.0053693	7
	16	24	25171.88	4655.255	-459.3708	1	4677.865	-5.635583	1.001394E-007	0.0051852	7
	17	25	20015.62	4691.786	-488.6889	1	4717.168	-5.946394	5.07958E-009	0.0052241	7
	18	26	15890.62	4729.191	-532.4419	1	4759.07	-6.423666	-8.225355E-009	0.005284	7
	19	28	12609.37	4769.908	-589.1324	1	4806.152	-7.040956	-5.097649E-008	0.005339	7
	20	29	10078.13	4811.998	-664.6026	1	4857.677	-7.863581	-1.881118E-008	0.0053042	7
	21	30	8015.625	4860.003	-757.5146	1	4918.685	-8.859243	-3.958901E-008	0.0052851	7
	22	32	6328.125	4912.073	-878.5025	1	4990.013	-10.13989	-3.885296E-008	0.0052829	7
	23	33	5015.625	4971.485	-1027.112	1	5076.478	-11.6731	-6.094347E-008	0.0053749	7
	24	34	3984.375	5035.817	-1207.805	1	5178.634	-13.48722	-2.10896E-008	0.0052428	7
	25	36	3170.956	5107.642	-1428.57	1	5303.661	-15.62591	1.242193E-007	0.0050922	7
	26	37	2527.573	5188.18	-1698.137	1	5459.019	-18.12372	9.73484E-008	0.0051956	7
	27	38	1976.103	5291.974	-2057	1	5677.697	-21.2412	9.790162E-008	0.0051937	7
	28	40	1577.524	5398.937	-2461.844	1	5933.734	-24.51236	4.926373E-008	0.0052166	7
	29	41	1265.625	5521.815	-2941.534	1	6256.442	-28.04474	-1.176507E-008	0.0052857	7
	30	42	998.264	5680.473	-3577.171	1	6712.967	-32.19991	-5.844279E-008	0.0054644	7
	31	44	796.875	5858.101	-4309.487	1	7272.484	-36.3399	-4.023474E-008	0.0052801	7
	32	45	627.7902	6081.503	-5266.946	1	8045.21	-40.89452	6.137753E-008	0.0051722	7
	33	47	505.5147	6319.742	-6320.904	1	8938.287	-45.00527	4.749598E-008	0.0052089	7
	34	48	397.9953	6651.597	-7740.6	1	10205.91	-49.32711	1.24537E-009	0.005234	6
	35	49	315.5048	7029.286	-9437.465	1	11767.61	-53.32024	4.518543E-010	0.0052296	6
	36	51	252.4038	7467.898	-11430.79	1	13654.02	-56.84283	1.29444E-009	0.0052309	6
	37	52	198.6229	8044.918	-14057.67	1	16196.88	-60.21837	1.060612E-009	0.0052251	6
	38	53	158.3615	8717.285	-17115.28	1	19207.39	-63.009	1.028148E-009	0.0052199	6
	39	55	125.558	9590.04	-20954.28	1	23044.53	-65.40809	6.882148E-010	0.0052234	6
	40	56	100.4464	10647.17	-25457.15	1	27594	-67.30342	1.525532E-010	0.0052336	6
	41	57	79.00281	12108.34	-31413.19	1	33666.01	-68.92065	6.467765E-010	0.0052282	6
	42	59	63.3446	13898.33	-38375.33	1	40814.57	-70.09122	4.663894E-010	0.0052225	6
	43	60	49.86702	16459.67	-46771.27	1	49582.98	-70.61209	7.86898E-010	0.0052211	6
	44	62	39.72458	20000.97	-56957.61	1	60367.27	-70.651	2.866379E-010	0.0052228	6
	45	63	31.6723	24301.13	-68914.26	1	73073.38	-70.5759	2.09861E-010	0.0052217	6
	46	64	24.93351	30758.02	-84037.37	1	89489.3	-69.89717	6.472321E-010	0.0052242	6
	47	66	19.86229	38783.05	-100628.3	1	107843.3	-68.92288	1.144401E-009	0.0052376	5
	48	67	15.83615	49507.39	-119180.5	1	129054.1	-67.44208	5.292197E-012	0.0052278	5
	49	68	12.40079	62587.98	-143356.4	1	156423.5	-66.41439	5.282922E-010	0.0052278	5
	50	70	9.93114	79899.29	-167215.6	1	185323.9	-64.4605	7.635343E-010	0.0052262	5
	51	71	7.944915	99440.1	-192924.7	1	217044.4	-62.73184	-5.204821E-011	0.0052328	5
	52	73	6.317385	124018	-221363.5	1	253736.6	-60.74045	-2.05097E-010	0.0052412	5
	53	75	5.008013	152394.6	-252641.8	1	295045.8	-58.90144	1.050032E-010	0.0052268	5
	54	77	3.945707	184495	-286780.9	1	341001	-57.24557	4.698187E-010	0.0052325	5
	55	80	3.158693	217758.4	-321654.1	1	388432.8	-55.90218	8.857302E-011	0.005239	5
	56	83	2.504006	254305.8	-362190.1	1	442552.9	-54.92602	2.189266E-010	0.0052275	5
	57	86	1.998082	291419.1	-407159.9	1	500703.8	-54.40733	-7.180545E-011	0.0052532	5
	58	89	1.584686	333538.7	-461668.9	1	569549.2	-54.15328	2.408366E-010	0.0052847	5
	59	93	1.266892	375216.2	-522864.9	1	643564.3	-54.33618	-5.91556E-011	0.0052578	5
	60	97	0.999041	424230.2	-601897.5	1	736377.5	-54.823	2.953024E-010	0.0052358	5
