EXPLAIN
TAG	EISPOT
TITLE	LABEL	Potentiostatic EIS	Test &Identifier
DATE	LABEL	11/20/2019	Date
TIME	LABEL	12:08:15	Time
NOTES	NOTES	4	&Notes...
	
	
	
	
PSTAT	PSTAT	REF600-11020	Potentiostat
VDC	POTEN	0.00000E+000	T	DC &Voltage (V)
FREQINIT	QUANT	1.00000E+006	Initial Fre&q. (Hz)
FREQFINAL	QUANT	1.00000E+000	Final Fre&q. (Hz)
PTSPERDEC	QUANT	1.00000E+001	Points/&decade
VAC	QUANT	2.50000E+001	AC &Voltage (mV rms)
AREA	QUANT	1.00000E-002	&Area (cm^2)
CONDIT	TWOPARAM	T	5.00000E+000	0.00000E+000	Conditionin&g	Time(s)	E(V)
DELAY	TWOPARAM	T	5.00000E+000	0.00000E+000	Init. De&lay	Time(s)	Stab.(mV/s)
SPEED	SELECTOR	1	&Optimize for:
ZGUESS	QUANT	1.00000E+005	E&stimated Z (ohms)
OCVCURVE	TABLE	19
	Pt	T	Vf	Vm	Ach	Over
	#	s	V vs. Ref.	V	V	bits
	0	0.258333	3.92753E-003	3.92753E-003	5.25966E-004	...........
	1	0.516667	3.92473E-003	3.78128E-003	5.29600E-004	...........
	2	0.775	3.90810E-003	3.66991E-003	5.25700E-004	...........
	3	1.03333	3.86303E-003	3.57670E-003	5.29033E-004	...........
	4	1.29167	3.78551E-003	3.41517E-003	5.32700E-004	...........
	5	1.55	3.68319E-003	3.30483E-003	5.32366E-004	...........
	6	1.80833	3.56533E-003	3.16460E-003	5.32600E-004	...........
	7	2.06667	3.44134E-003	3.16094E-003	5.32600E-004	...........
	8	2.325	3.32458E-003	3.07715E-003	5.35866E-004	...........
	9	2.58333	3.22717E-003	3.02967E-003	5.33366E-004	...........
	10	2.84167	3.14876E-003	2.87432E-003	5.28666E-004	...........
	11	3.1	3.07724E-003	2.87940E-003	5.29233E-004	...........
	12	3.35833	3.00531E-003	2.85144E-003	5.27200E-004	...........
	13	3.61667	2.93949E-003	2.81522E-003	5.27866E-004	...........
	14	3.875	2.88877E-003	2.82958E-003	5.26600E-004	...........
	15	4.13333	2.85410E-003	2.78147E-003	5.33900E-004	...........
	16	4.39167	2.82899E-003	2.70278E-003	5.29233E-004	...........
	17	4.65	2.80251E-003	2.67604E-003	5.31233E-004	...........
	18	4.90833	2.76905E-003	2.73892E-003	5.29233E-004	...........
EOC	QUANT	0.002769	Open Circuit (V)
PSTATMODEL	IQUANT	4	Pstat Model
PSTATSECTION	LABEL	REF600-11020	Pstat Section
PSTATSERIALNO	LABEL	11020	Pstat Serial Number
CTRLMODE	IQUANT	1	Control Mode
IESTAB	IQUANT	0	I/E Stability
CASPEED	IQUANT	1	Control Amp Speed
CONVENTION	IQUANT	1	Current Convention
ICHRANGE	IQUANT	2	Ich Range
ICHRANGEMODE	TOGGLE	F	Ich Auto Range
ICHOFFSETENABLE	TOGGLE	T	Ich Offset Enable
ICHOFFSET	QUANT	0	Ich Offset (V)
ICHFILTER	IQUANT	3	Ich Filter
VCHRANGE	IQUANT	2	Vch Range
VCHRANGEMODE	TOGGLE	F	Vch Auto Range
VCHOFFSETENABLE	TOGGLE	T	Vch Offset Enable
VCHOFFSET	QUANT	0	Vch Offset (V)
VCHFILTER	IQUANT	3	Vch Filter
ACHRANGE	IQUANT	2	Ach Range
ACHOFFSETENABLE	TOGGLE	F	Ach Offset Enable
ACHOFFSET	QUANT	0	Ach Offset (V)
ACHFILTER	IQUANT	3	Ach Filter
IERANGELOWERLIMIT	IQUANT	1	I/E Range Lower Limit
IERANGEMODE	TOGGLE	F	I/E AutoRange
IERANGE	IQUANT	4	I/E Range
POSFEEDENABLE	TOGGLE	F	Positive Feedback IR Comp
POSFEEDRESISTANCE	QUANT	0	Positive Feedback Resistance (ohm)
ACHSELECT	IQUANT	0	Ach Select
CABLEID	IQUANT	14	Cable ID
DCCALDATE	LABEL	8/19/2019	DC Calibration Date
ACCALDATE	LABEL	8/19/2019	AC Calibration Date
THERMOSELECT	IQUANT	1	Thermo Select
FRAMEWORKVERSION	QUANT	6.33	Framework Version
INSTRUMENTVERSION	LABEL	3.50	Instrument Version
ZCURVE	TABLE
	Pt	Time	Freq	Zreal	Zimag	Zsig	Zmod	Zphz	Idc	Vdc	IERange
	#	s	Hz	ohm	ohm	V	ohm	°	A	V	#
	0	2	1000078	2195.431	-1956.797	1	2940.914	-41.71074	-7.79212E-006	0.0048617	8
	1	3	794390.6	2594.444	-1971.258	1	3258.374	-37.22757	1.97258E-006	0.0043133	8
	2	4	630984.4	2987.663	-1922.911	1	3552.987	-32.76602	-4.284774E-006	0.0051133	8
	3	6	501234.4	3359.63	-1821.988	1	3821.879	-28.47178	1.356006E-006	0.0048029	8
	4	7	398109.4	3669.528	-1676.225	1	4034.249	-24.55072	-1.584359E-006	0.0041516	8
	5	8	316265.6	3946.55	-1511.774	1	4226.194	-20.95995	-4.196606E-006	0.004698	8
	6	10	251203.1	4173.987	-1342.667	1	4384.623	-17.83169	5.394232E-006	0.0036894	8
	7	11	199546.9	4327.926	-1185.909	1	4487.463	-15.32367	-1.490531E-007	0.0040558	8
	8	12	158578.1	4473.044	-995.972	1	4582.585	-12.55275	5.351789E-006	0.0033157	8
	9	14	125953.1	4604.188	-863.7416	1	4684.506	-10.62514	-2.203394E-006	0.0050197	7
	10	15	100078.1	4680.952	-770.9238	1	4744.01	-9.352306	-1.160003E-006	0.0053357	7
	11	16	79453.13	4751.305	-699.6618	1	4802.544	-8.376987	9.651869E-007	0.0036085	7
	12	18	63140.62	4805.525	-645.3759	1	4848.668	-7.648982	-3.046001E-007	0.0034892	7
	13	19	50203.12	4862.834	-603.4863	1	4900.138	-7.074337	-1.162176E-006	0.0056604	7
	14	20	39890.62	4918.276	-583.0245	1	4952.712	-6.760433	4.650423E-007	0.0026878	7
	15	22	31640.63	4973.239	-571.5811	1	5005.978	-6.556315	7.975923E-007	0.004061	7
	16	23	25171.88	5026.937	-573.8447	1	5059.584	-6.51235	-8.510684E-007	0.0058799	7
	17	24	20015.62	5089.542	-595.2462	1	5124.233	-6.670709	1.082202E-007	0.0029769	7
	18	26	15890.62	5134.075	-610.0662	1	5170.194	-6.776504	-1.162998E-006	0.0053078	7
	19	27	12609.37	5196.42	-643.5374	1	5236.117	-7.059704	-1.042709E-006	0.0058247	7
	20	29	10078.13	5264.771	-697.8988	1	5310.827	-7.551112	-1.044295E-006	0.0058242	7
	21	30	8015.625	5328.776	-758.8196	1	5382.533	-8.104451	-1.042176E-006	0.0058221	7
	22	31	6328.125	5400.827	-834.739	1	5464.954	-8.78598	1.037978E-006	0.0028763	7
	23	33	5015.625	5468.553	-925.5519	1	5546.325	-9.60627	-1.041161E-006	0.0058216	7
	24	34	3984.375	5548.184	-1048.651	1	5646.416	-10.7031	-1.16501E-006	0.0056508	7
	25	35	3170.956	5616.982	-1193.814	1	5742.446	-11.99891	-1.042809E-006	0.005816	7
	26	37	2527.573	5691.396	-1385.552	1	5857.622	-13.68232	8.00713E-007	0.0040524	7
	27	38	1976.103	5778.822	-1626.423	1	6003.335	-15.71901	-1.002603E-006	0.00477	7
	28	39	1577.524	5835.23	-1890.183	1	6133.735	-17.94849	-1.161145E-006	0.0056483	7
	29	41	1265.625	5956.461	-2267.802	1	6373.567	-20.84332	9.384052E-007	0.0026544	7
	30	42	998.264	6073.274	-2754.224	1	6668.614	-24.39425	1.034349E-006	0.0028709	7
	31	44	796.875	6201.829	-3293.193	1	7021.952	-27.96846	-1.042879E-006	0.0058114	7
	32	45	627.7902	6355.315	-4019.751	1	7519.869	-32.31345	8.01848E-007	0.0040456	7
	33	47	505.5147	6541.998	-4831.808	1	8132.902	-36.44894	7.481658E-008	0.00518	7
	34	48	397.9953	6783.192	-5922.946	1	9005.164	-41.1268	4.022105E-009	0.0042953	7
	35	49	315.5048	7078.849	-7233.672	1	10121.07	-45.61977	1.702938E-009	0.004235	6
	36	51	252.4038	7434.878	-8772.645	1	11499.42	-49.71849	1.112712E-009	0.0042287	6
	37	52	198.6229	7915.155	-10793.11	1	13384.35	-53.74544	7.55291E-010	0.0042392	6
	38	53	158.3615	8497.773	-13124.99	1	15635.78	-57.07896	1.530678E-009	0.0042257	6
	39	55	125.558	9245.529	-16017.94	1	18494.71	-60.00653	2.515471E-010	0.0042434	6
	40	56	100.4464	10182.82	-19366.12	1	21880.04	-62.26434	1.062073E-009	0.004235	6
	41	58	79.00281	11403.53	-23693.99	1	26295.36	-64.29926	1.140598E-009	0.0042255	6
	42	59	63.3446	12624.18	-28830.45	1	31473.24	-66.35251	4.060668E-010	0.0042271	6
	43	60	49.86702	14776.29	-34772.29	1	37781.62	-66.97721	-1.128259E-010	0.0042269	6
	44	62	39.72458	17187.51	-42216.09	1	45580.8	-67.84721	2.625388E-011	0.0042311	6
	45	63	31.6723	20045.24	-50935.1	1	54737.52	-68.51814	1.321228E-009	0.0042233	6
	46	64	24.93351	24246.58	-61984.55	1	66558.1	-68.63599	-4.121619E-010	0.0042302	6
	47	66	19.86229	29238.79	-74691.08	1	80210.13	-68.6215	2.666147E-010	0.0042222	6
	48	67	15.83615	35617.25	-88851.63	1	95724.6	-68.15602	5.428474E-011	0.004227	6
	49	69	12.40079	45553.15	-108109.1	1	117314.4	-67.15125	-1.52785E-009	0.0042288	5
	50	70	9.93114	55105.05	-127273.6	1	138690.8	-66.58907	-3.447997E-010	0.0042422	5
	51	72	7.944915	67517.09	-149288.6	1	163846.4	-65.66471	1.112714E-009	0.0042318	5
	52	73	6.317385	84339.38	-175242.7	1	194481.7	-64.2998	6.415689E-010	0.0042392	5
	53	75	5.008013	104345	-204503.2	1	229585.4	-62.96766	3.363837E-010	0.004249	5
	54	78	3.945707	128582.4	-237805.2	1	270341.9	-61.59969	-1.620145E-010	0.0042286	5
	55	80	3.158693	154748.7	-272527.7	1	313398.3	-60.4109	2.937575E-010	0.0042468	5
	56	84	2.504006	185455.5	-312375.2	1	363279.5	-59.30261	-1.607298E-010	0.0042384	5
	57	86	1.998082	217645.7	-355281.8	1	416647.1	-58.50835	2.514486E-010	0.0041935	5
	58	90	1.584686	253584.2	-407481.4	1	479943.8	-58.10513	-1.091251E-011	0.004214	5
	59	93	1.266892	292337.8	-464349	1	548708.8	-57.80692	2.205379E-010	0.0041955	5
	60	97	0.999041	336266.5	-537200.6	1	633766.2	-57.95505	-4.249703E-011	0.0042585	5
