EXPLAIN
TAG	EISPOT
TITLE	LABEL	Potentiostatic EIS	Test &Identifier
DATE	LABEL	11/11/2019	Date
TIME	LABEL	13:48:57	Time
NOTES	NOTES	3	&Notes...
	
	
	
PSTAT	PSTAT	REF600-11020	Potentiostat
VDC	POTEN	0.00000E+000	T	DC &Voltage (V)
FREQINIT	QUANT	1.00000E+006	Initial Fre&q. (Hz)
FREQFINAL	QUANT	1.00000E+000	Final Fre&q. (Hz)
PTSPERDEC	QUANT	1.00000E+001	Points/&decade
VAC	QUANT	2.50000E+001	AC &Voltage (mV rms)
AREA	QUANT	1.00000E-002	&Area (cm^2)
CONDIT	TWOPARAM	T	5.00000E+000	0.00000E+000	Conditionin&g	Time(s)	E(V)
DELAY	TWOPARAM	T	5.00000E+000	0.00000E+000	Init. De&lay	Time(s)	Stab.(mV/s)
SPEED	SELECTOR	1	&Optimize for:
ZGUESS	QUANT	1.00000E+005	E&stimated Z (ohms)
OCVCURVE	TABLE	19
	Pt	T	Vf	Vm	Ach	Over
	#	s	V vs. Ref.	V	V	bits
	0	0.258333	7.27945E-003	7.27945E-003	5.73832E-004	...........
	1	0.516667	7.27961E-003	7.28795E-003	5.74366E-004	...........
	2	0.775	7.28302E-003	7.42235E-003	5.73499E-004	...........
	3	1.03333	7.29909E-003	7.46756E-003	5.66932E-004	...........
	4	1.29167	7.33716E-003	7.55080E-003	5.66466E-004	...........
	5	1.55	7.39098E-003	7.36003E-003	5.73499E-004	...........
	6	1.80833	7.43314E-003	7.31217E-003	5.69132E-004	...........
	7	2.06667	7.43232E-003	7.10240E-003	5.67332E-004	...........
	8	2.325	7.36407E-003	6.37317E-003	5.69266E-004	...........
	9	2.58333	7.21067E-003	6.80428E-003	5.74732E-004	...........
	10	2.84167	7.00460E-003	6.85221E-003	5.71932E-004	...........
	11	3.1	6.84340E-003	7.01133E-003	5.67966E-004	...........
	12	3.35833	6.79807E-003	7.07713E-003	5.68866E-004	...........
	13	3.61667	6.85194E-003	7.10813E-003	5.74532E-004	...........
	14	3.875	6.94610E-003	7.18033E-003	5.68632E-004	...........
	15	4.13333	7.03594E-003	7.18568E-003	5.63499E-004	...........
	16	4.39167	7.10555E-003	7.24558E-003	5.69599E-004	...........
	17	4.65	7.15727E-003	7.27666E-003	5.66666E-004	...........
	18	4.90833	7.19891E-003	7.30628E-003	5.64066E-004	...........
EOC	QUANT	0.0071989	Open Circuit (V)
PSTATMODEL	IQUANT	4	Pstat Model
PSTATSECTION	LABEL	REF600-11020	Pstat Section
PSTATSERIALNO	LABEL	11020	Pstat Serial Number
CTRLMODE	IQUANT	1	Control Mode
IESTAB	IQUANT	0	I/E Stability
CASPEED	IQUANT	1	Control Amp Speed
CONVENTION	IQUANT	1	Current Convention
ICHRANGE	IQUANT	2	Ich Range
ICHRANGEMODE	TOGGLE	F	Ich Auto Range
ICHOFFSETENABLE	TOGGLE	T	Ich Offset Enable
ICHOFFSET	QUANT	0	Ich Offset (V)
ICHFILTER	IQUANT	3	Ich Filter
VCHRANGE	IQUANT	2	Vch Range
VCHRANGEMODE	TOGGLE	F	Vch Auto Range
VCHOFFSETENABLE	TOGGLE	T	Vch Offset Enable
VCHOFFSET	QUANT	0	Vch Offset (V)
VCHFILTER	IQUANT	3	Vch Filter
ACHRANGE	IQUANT	2	Ach Range
ACHOFFSETENABLE	TOGGLE	F	Ach Offset Enable
ACHOFFSET	QUANT	0	Ach Offset (V)
ACHFILTER	IQUANT	3	Ach Filter
IERANGELOWERLIMIT	IQUANT	1	I/E Range Lower Limit
IERANGEMODE	TOGGLE	F	I/E AutoRange
IERANGE	IQUANT	5	I/E Range
POSFEEDENABLE	TOGGLE	F	Positive Feedback IR Comp
POSFEEDRESISTANCE	QUANT	0	Positive Feedback Resistance (ohm)
ACHSELECT	IQUANT	0	Ach Select
CABLEID	IQUANT	14	Cable ID
DCCALDATE	LABEL	8/19/2019	DC Calibration Date
ACCALDATE	LABEL	8/19/2019	AC Calibration Date
THERMOSELECT	IQUANT	1	Thermo Select
FRAMEWORKVERSION	QUANT	6.33	Framework Version
INSTRUMENTVERSION	LABEL	3.50	Instrument Version
ZCURVE	TABLE
	Pt	Time	Freq	Zreal	Zimag	Zsig	Zmod	Zphz	Idc	Vdc	IERange
	#	s	Hz	ohm	ohm	V	ohm	°	A	V	#
	0	1	1000078	2437.671	-1749.862	1	3000.709	-35.67236	-1.012943E-006	0.0093828	8
	1	3	794390.6	2793.051	-1701.82	1	3270.676	-31.35415	3.173033E-007	0.0088655	8
	2	4	630984.4	3118.38	-1598.874	1	3504.382	-27.14539	-1.120969E-007	0.0087325	8
	3	5	501234.4	3388.325	-1466.84	1	3692.204	-23.40827	6.879824E-007	0.0092637	8
	4	7	398109.4	3628.267	-1311.627	1	3858.068	-19.87505	-8.756028E-008	0.0086089	8
	5	8	316265.6	3817.804	-1154.446	1	3988.531	-16.82453	-1.513805E-007	0.0085891	8
	6	9	251203.1	3956.262	-1005.734	1	4082.096	-14.26322	-4.989335E-007	0.0085838	8
	7	11	199546.9	4069.082	-871.6094	1	4161.386	-12.09022	6.133162E-007	0.0091186	8
	8	12	158578.1	4142.732	-733.0751	1	4207.093	-10.03487	4.666885E-006	0.0082556	8
	9	13	125953.1	4238.843	-602.5416	1	4281.454	-8.090261	-2.370403E-006	0.0106839	7
	10	15	100078.1	4288.788	-534.6319	1	4321.982	-7.105725	8.258102E-007	0.0073716	7
	11	16	79453.13	4330.596	-492.5701	1	4358.519	-6.489041	-5.274149E-007	0.010103	7
	12	17	63140.62	4373.405	-463.2011	1	4397.866	-6.045837	8.264868E-007	0.0073572	7
	13	19	50203.12	4408.976	-444.6255	1	4431.338	-5.758555	6.614409E-007	0.0072722	7
	14	20	39890.62	4439.244	-437.3926	1	4460.74	-5.627111	-1.023364E-006	0.0099669	7
	15	21	31640.63	4474.747	-443.9787	1	4496.719	-5.666269	-8.683066E-007	0.0091754	7
	16	23	25171.88	4515.098	-462.5341	1	4538.728	-5.849071	8.286465E-007	0.0073493	7
	17	24	20015.62	4546.232	-491.9684	1	4572.773	-6.176203	-5.280696E-007	0.0100982	7
	18	26	15890.62	4591.307	-536.8169	1	4622.583	-6.668761	9.232735E-007	0.0078214	7
	19	27	12609.37	4631.44	-595.1488	1	4669.523	-7.322486	3.170252E-007	0.0092137	7
	20	28	10078.13	4676.685	-668.7335	1	4724.255	-8.137735	-2.446201E-007	0.0080258	7
	21	30	8015.625	4721.408	-762.0809	1	4782.517	-9.169011	-2.520492E-007	0.0098971	7
	22	31	6328.125	4781.273	-882.7451	1	4862.079	-10.46047	6.619597E-007	0.0072685	7
	23	32	5015.625	4841.626	-1030.039	1	4949.982	-12.01041	8.289325E-007	0.0073474	7
	24	34	3984.375	4899.686	-1207.114	1	5046.191	-13.84009	-1.017058E-006	0.0096487	7
	25	35	3170.956	4977.11	-1425.956	1	5177.352	-15.98715	-2.443763E-007	0.0080304	7
	26	36	2527.573	5057.804	-1691.102	1	5333.029	-18.48761	-7.557366E-007	0.0101551	7
	27	38	1976.103	5160.225	-2045.993	1	5551.037	-21.62798	-1.026044E-006	0.0099595	7
	28	39	1577.524	5265.786	-2465.17	1	5814.256	-25.08658	9.236173E-007	0.0078163	7
	29	40	1265.625	5392.288	-2926.704	1	6135.337	-28.49122	9.252503E-007	0.0078183	7
	30	42	998.264	5545.992	-3554.608	1	6587.357	-32.65714	8.303571E-007	0.0073446	7
	31	43	796.875	5715.533	-4279.792	1	7140.304	-36.82587	3.223198E-007	0.0092098	7
	32	45	627.7902	5929.997	-5225.649	1	7903.94	-41.38725	5.708458E-008	0.0095648	7
	33	46	505.5147	6166.147	-6262.735	1	8788.813	-45.44525	-9.217223E-007	0.0101062	7
	34	47	397.9953	6456.938	-7685.437	1	10037.83	-49.96462	2.95701E-009	0.0087789	7
	35	49	315.5048	6803.403	-9377.076	1	11585.16	-54.03778	1.258985E-009	0.0087137	6
	36	50	252.4038	7193.613	-11375.46	1	13459.17	-57.69157	5.609383E-010	0.008705	6
	37	51	198.6229	7698.418	-14022.98	1	15997.17	-61.23383	7.158466E-010	0.0087206	6
	38	53	158.3615	8284.484	-17112.81	1	19012.65	-64.16791	-2.204465E-010	0.008724	6
	39	54	125.558	9036.729	-21019.45	1	22879.68	-66.73606	6.437657E-010	0.0087166	6
	40	55	100.4464	9962.14	-25617.46	1	27486.33	-68.7499	1.757707E-010	0.0087188	6
	41	57	79.00281	11172.71	-31731.7	1	33641.2	-70.60287	8.645115E-010	0.0087114	6
	42	58	63.3446	12607.76	-38865.87	1	40859.66	-72.02737	2.966798E-010	0.0087194	6
	43	59	49.86702	14913.18	-47539.96	1	49824.2	-72.58348	1.14085E-009	0.0087115	6
	44	61	39.72458	17752.51	-58371.52	1	61011.36	-73.08392	1.086546E-009	0.0087159	6
	45	62	31.6723	21301.34	-71004.42	1	74130.8	-73.30074	1.104738E-010	0.008717	6
	46	64	24.93351	26528.91	-87427.38	1	91363.72	-73.12013	9.708677E-010	0.0087076	6
	47	65	19.86229	32938.7	-105945.8	1	110948	-72.72945	1.025451E-009	0.0087214	5
	48	66	15.83615	42123.89	-127932.9	1	134689.5	-71.77507	1.940493E-010	0.0087124	5
	49	68	12.40079	53825	-156635.7	1	165625.7	-71.03566	4.838107E-010	0.0087257	5
	50	69	9.93114	68905.31	-185750.9	1	198119.5	-69.64738	6.268103E-010	0.0087144	5
	51	71	7.944915	87507.09	-220673.7	1	237390.7	-68.36944	-6.289144E-011	0.0087295	5
	52	72	6.317385	112714.1	-260221.9	1	283584.1	-66.58035	-1.470536E-010	0.008727	5
	53	74	5.008013	144625.8	-304944.7	1	337502.4	-64.62646	3.094525E-010	0.0087094	5
	54	77	3.945707	184805.5	-355571.2	1	400729.3	-62.53717	1.432867E-010	0.0087206	5
	55	79	3.158693	229515.1	-405669.3	1	466095.2	-60.50016	2.348368E-010	0.0087274	5
	56	83	2.504006	282914.1	-462392.7	1	542076.9	-58.5397	-1.701317E-010	0.008709	5
	57	85	1.998082	341425.6	-520193.1	1	622231.7	-56.72135	-1.813625E-010	0.0086934	5
	58	89	1.584686	407673.4	-581259.4	1	709971.9	-54.95563	-2.185326E-011	0.0087573	5
	59	92	1.266892	475553.5	-649321	1	804840.9	-53.78148	-1.582121E-010	0.0086961	5
	60	97	0.999041	553406.1	-727458.6	1	914031.9	-52.73834	2.242655E-010	0.0087511	5
