EXPLAIN
TAG	EISPOT
TITLE	LABEL	Potentiostatic EIS	Test &Identifier
DATE	LABEL	10/20/2019	Date
TIME	LABEL	11:17:22	Time
NOTES	NOTES	1	&Notes...
	
PSTAT	PSTAT	REF600-11020	Potentiostat
VDC	POTEN	0.00000E+000	T	DC &Voltage (V)
FREQINIT	QUANT	1.00000E+006	Initial Fre&q. (Hz)
FREQFINAL	QUANT	1.00000E+000	Final Fre&q. (Hz)
PTSPERDEC	QUANT	1.00000E+001	Points/&decade
VAC	QUANT	2.50000E+001	AC &Voltage (mV rms)
AREA	QUANT	1.00000E-002	&Area (cm^2)
CONDIT	TWOPARAM	T	5.00000E+000	0.00000E+000	Conditionin&g	Time(s)	E(V)
DELAY	TWOPARAM	T	5.00000E+000	0.00000E+000	Init. De&lay	Time(s)	Stab.(mV/s)
SPEED	SELECTOR	1	&Optimize for:
ZGUESS	QUANT	1.00000E+005	E&stimated Z (ohms)
OCVCURVE	TABLE	19
	Pt	T	Vf	Vm	Ach	Over
	#	s	V vs. Ref.	V	V	bits
	0	0.258333	1.01946E-002	1.01946E-002	5.51999E-004	...........
	1	0.516667	1.01967E-002	1.03072E-002	5.62199E-004	...........
	2	0.775	1.02082E-002	1.03204E-002	5.57566E-004	...........
	3	1.03333	1.02469E-002	1.09782E-002	5.54099E-004	...........
	4	1.29167	1.03429E-002	1.07974E-002	5.56133E-004	...........
	5	1.55	1.05039E-002	1.10650E-002	5.49499E-004	...........
	6	1.80833	1.06928E-002	1.12082E-002	5.52932E-004	...........
	7	2.06667	1.08721E-002	1.13555E-002	5.57799E-004	...........
	8	2.325	1.10371E-002	1.15331E-002	5.55166E-004	...........
	9	2.58333	1.11945E-002	1.16094E-002	5.58932E-004	...........
	10	2.84167	1.13445E-002	1.17278E-002	5.55266E-004	...........
	11	3.1	1.14822E-002	1.18419E-002	5.58932E-004	...........
	12	3.35833	1.16063E-002	1.19516E-002	5.60499E-004	...........
	13	3.61667	1.17217E-002	1.20727E-002	5.56799E-004	...........
	14	3.875	1.18342E-002	1.21847E-002	5.61832E-004	...........
	15	4.13333	1.19472E-002	1.22967E-002	5.57699E-004	...........
	16	4.39167	1.20607E-002	1.23941E-002	5.59432E-004	...........
	17	4.65	1.21724E-002	1.24783E-002	5.58932E-004	...........
	18	4.90833	1.22795E-002	1.25955E-002	5.64566E-004	...........
EOC	QUANT	0.0122795	Open Circuit (V)
PSTATMODEL	IQUANT	4	Pstat Model
PSTATSECTION	LABEL	REF600-11020	Pstat Section
PSTATSERIALNO	LABEL	11020	Pstat Serial Number
CTRLMODE	IQUANT	1	Control Mode
IESTAB	IQUANT	0	I/E Stability
CASPEED	IQUANT	1	Control Amp Speed
CONVENTION	IQUANT	1	Current Convention
ICHRANGE	IQUANT	2	Ich Range
ICHRANGEMODE	TOGGLE	F	Ich Auto Range
ICHOFFSETENABLE	TOGGLE	T	Ich Offset Enable
ICHOFFSET	QUANT	0	Ich Offset (V)
ICHFILTER	IQUANT	3	Ich Filter
VCHRANGE	IQUANT	2	Vch Range
VCHRANGEMODE	TOGGLE	F	Vch Auto Range
VCHOFFSETENABLE	TOGGLE	T	Vch Offset Enable
VCHOFFSET	QUANT	0	Vch Offset (V)
VCHFILTER	IQUANT	3	Vch Filter
ACHRANGE	IQUANT	2	Ach Range
ACHOFFSETENABLE	TOGGLE	F	Ach Offset Enable
ACHOFFSET	QUANT	0	Ach Offset (V)
ACHFILTER	IQUANT	3	Ach Filter
IERANGELOWERLIMIT	IQUANT	1	I/E Range Lower Limit
IERANGEMODE	TOGGLE	F	I/E AutoRange
IERANGE	IQUANT	5	I/E Range
POSFEEDENABLE	TOGGLE	F	Positive Feedback IR Comp
POSFEEDRESISTANCE	QUANT	0	Positive Feedback Resistance (ohm)
ACHSELECT	IQUANT	0	Ach Select
CABLEID	IQUANT	14	Cable ID
DCCALDATE	LABEL	8/19/2019	DC Calibration Date
ACCALDATE	LABEL	8/19/2019	AC Calibration Date
THERMOSELECT	IQUANT	1	Thermo Select
FRAMEWORKVERSION	QUANT	6.33	Framework Version
INSTRUMENTVERSION	LABEL	3.50	Instrument Version
ZCURVE	TABLE
	Pt	Time	Freq	Zreal	Zimag	Zsig	Zmod	Zphz	Idc	Vdc	IERange
	#	s	Hz	ohm	ohm	V	ohm	°	A	V	#
	0	2	1000078	2654.057	-1692.315	1	3147.69	-32.52294	-5.812391E-006	0.0160901	8
	1	4	794390.6	2955.436	-1588.561	1	3355.313	-28.25824	-2.364667E-006	0.0150571	8
	2	5	630984.4	3230.663	-1465.669	1	3547.587	-24.40258	5.528567E-006	0.0131859	8
	3	7	501234.4	3485.123	-1347.656	1	3736.611	-21.14089	7.569088E-007	0.0136076	8
	4	8	398109.4	3658.819	-1168.141	1	3840.77	-17.70658	1.562927E-006	0.013714	8
	5	10	316265.6	3809.064	-1054.83	1	3952.421	-15.47881	4.133553E-006	0.0130482	8
	6	11	251203.1	3933.715	-918.4758	1	4039.519	-13.14243	7.133436E-007	0.0135924	8
	7	13	199546.9	4040.266	-820.2114	1	4122.681	-11.47562	-3.231598E-006	0.0145375	8
	8	14	158578.1	4109.827	-734.7126	1	4174.983	-10.13568	3.118526E-006	0.0132344	8
	9	16	125953.1	4199.834	-586.1185	1	4240.536	-7.944744	1.553904E-006	0.0108408	7
	10	17	100078.1	4249.698	-553.4142	1	4285.58	-7.419553	-4.719003E-008	0.0138495	7
	11	19	79453.13	4301.017	-534.2157	1	4334.066	-7.080266	1.001465E-008	0.013731	7
	12	20	63140.62	4349.248	-522.3481	1	4380.503	-6.848466	-3.81388E-008	0.0138292	7
	13	22	50203.12	4399.923	-524.5015	1	4431.075	-6.797977	-4.875119E-008	0.0138303	7
	14	23	39890.62	4451.896	-536.5284	1	4484.109	-6.871965	1.434641E-007	0.0135812	7
	15	24	31640.63	4505.113	-558.3342	1	4539.579	-7.06484	-4.218583E-009	0.0138405	7
	16	26	25171.88	4563.954	-591.017	1	4602.063	-7.378553	-1.848925E-008	0.0137666	7
	17	27	20015.62	4618.899	-627.0474	1	4661.268	-7.731035	4.251593E-008	0.013752	7
	18	28	15890.62	4696.341	-687.474	1	4746.392	-8.328094	-5.686793E-008	0.0139791	7
	19	30	12609.37	4774.181	-755.4802	1	4833.586	-8.992088	6.940866E-008	0.0136795	7
	20	31	10078.13	4855.408	-831.106	1	4926.025	-9.71325	-5.17335E-009	0.0138425	7
	21	32	8015.625	4973.922	-930.0385	1	5060.126	-10.59103	-3.677457E-008	0.0138224	7
	22	34	6328.125	5053.205	-1032.991	1	5157.708	-11.55339	4.468029E-008	0.0137501	7
	23	35	5015.625	5169.972	-1158.602	1	5298.205	-12.63141	-4.801827E-008	0.013898	7
	24	37	3984.375	5314.235	-1300.293	1	5471.001	-13.74907	4.256438E-008	0.0137493	7
	25	38	3170.956	5436.958	-1457.749	1	5628.991	-15.00905	-3.280925E-009	0.0138144	7
	26	39	2527.573	5583.055	-1641.334	1	5819.319	-16.38255	9.481055E-008	0.013736	7
	27	41	1976.103	5751.277	-1866.018	1	6046.421	-17.9758	1.462816E-007	0.0135747	7
	28	42	1577.524	5869.685	-1993.464	1	6198.96	-18.75853	-3.14546E-009	0.0138129	7
	29	43	1265.625	6079.68	-2403.41	1	6537.499	-21.56981	-5.201367E-009	0.0138404	7
	30	45	998.264	6261.521	-2778.233	1	6850.199	-23.92684	-1.874241E-008	0.0137727	7
	31	46	796.875	6433.845	-3223.598	1	7196.245	-26.61259	4.276704E-008	0.0137524	7
	32	48	627.7902	6622.564	-3807.177	1	7638.911	-29.89371	-1.911191E-008	0.0138566	7
	33	49	505.5147	6803.461	-4473.968	1	8142.694	-33.32899	-5.981365E-008	0.0139769	7
	34	50	397.9953	7029.211	-5384.683	1	8854.639	-37.45369	3.821195E-009	0.0138093	7
	35	52	315.5048	7277.688	-6501.167	1	9758.58	-41.77445	1.342574E-009	0.0137516	6
	36	53	252.4038	7559.761	-7832.919	1	10885.98	-46.01667	5.278751E-010	0.0137492	6
	37	54	198.6229	7931.619	-9617.91	1	12466.54	-50.48856	2.960245E-010	0.0137466	6
	38	56	158.3615	8383.18	-11702.32	1	14395.2	-54.38335	2.347623E-010	0.0137458	6
	39	57	125.558	8964.623	-14337.33	1	16909.27	-57.98372	1.013099E-009	0.0137494	6
	40	59	100.4464	9729.44	-17422.78	1	19955.33	-60.81961	1.095341E-009	0.013747	6
	41	60	79.00281	10778.12	-21515.15	1	24063.86	-63.3912	1.630515E-009	0.0137494	6
	42	61	63.3446	11829.53	-26329.69	1	28865.04	-65.80634	-7.284512E-010	0.0137505	6
	43	63	49.86702	13629.73	-31717.96	1	34522.43	-66.746	1.04943E-009	0.0137523	6
	44	64	39.72458	15866	-38746.02	1	41868.65	-67.73154	2.807757E-010	0.0137543	6
	45	66	31.6723	18666.87	-46774.97	1	50362.19	-68.24414	-7.511338E-010	0.0137526	6
	46	67	24.93351	22725.16	-57032.59	1	61393.4	-68.27473	-1.430661E-010	0.0137471	6
	47	68	19.86229	27616.99	-68345.12	1	73714	-67.99728	8.116438E-010	0.0137468	6
	48	70	15.83615	32900.3	-80976.06	1	87404.53	-67.88826	-1.371055E-009	0.0137494	6
	49	71	12.40079	41760.66	-98114.3	1	106631.9	-66.9438	-4.211299E-011	0.0137546	5
	50	73	9.93114	51868.58	-114781.6	1	125957	-65.68229	-6.494068E-010	0.0137583	5
	51	74	7.944915	62919.26	-133950.5	1	147991.8	-64.8396	8.363628E-010	0.0137574	5
	52	76	6.317385	77025.08	-156382	1	174322.1	-63.77771	-2.788825E-010	0.0137713	5
	53	78	5.008013	92815.7	-181835.5	1	204154.1	-62.95852	-2.198415E-010	0.0137496	5
	54	80	3.945707	111263	-211600.9	1	239069.8	-62.26392	6.21363E-011	0.0137549	5
	55	83	3.158693	129416.9	-243741.9	1	275968.9	-62.03354	1.022309E-010	0.0137436	5
	56	86	2.504006	150249.4	-283667.1	1	321001.3	-62.09126	9.17387E-011	0.0137624	5
	57	89	1.998082	172230.7	-329480.7	1	371780.8	-62.40241	1.532949E-010	0.0137208	5
	58	92	1.584686	197000.1	-387855.4	1	435018.2	-63.073	1.206393E-011	0.0137208	5
	59	96	1.266892	225401.4	-454818.7	1	507607.9	-63.63767	7.985893E-011	0.0137163	5
	60	100	0.999041	259542.7	-541607	1	600583.5	-64.39587	-1.907401E-011	0.0137932	5
