EXPLAIN
TAG	EISPOT
TITLE	LABEL	Potentiostatic IDE	Test &Identifier
DATE	LABEL	9/6/2019	Date
TIME	LABEL	7:35:36	Time
NOTES	NOTES	1	&Notes...
	
PSTAT	PSTAT	REF600-11020	Potentiostat
VDC	POTEN	0.00000E+000	T	DC &Voltage (V)
FREQINIT	QUANT	1.00000E+006	Initial Fre&q. (Hz)
FREQFINAL	QUANT	1.00000E+000	Final Fre&q. (Hz)
PTSPERDEC	QUANT	1.00000E+001	Points/&decade
VAC	QUANT	2.50000E+001	AC &Voltage (mV rms)
AREA	QUANT	1.00000E-002	&Area (cm^2)
CONDIT	TWOPARAM	T	5.00000E+000	0.00000E+000	Conditionin&g	Time(s)	E(V)
DELAY	TWOPARAM	T	5.00000E+000	0.00000E+000	Init. De&lay	Time(s)	Stab.(mV/s)
SPEED	SELECTOR	1	&Optimize for:
ZGUESS	QUANT	1.00000E+007	E&stimated Z (ohms)
OCVCURVE	TABLE	19
	Pt	T	Vf	Vm	Ach	Over
	#	s	V vs. Ref.	V	V	bits
	0	0.258333	7.17641E-003	7.17641E-003	5.62732E-004	...........
	1	0.516667	7.17418E-003	7.05945E-003	5.61332E-004	...........
	2	0.775	7.16094E-003	6.97400E-003	5.58899E-004	...........
	3	1.03333	7.12539E-003	6.90641E-003	5.58432E-004	...........
	4	1.29167	7.06644E-003	6.85872E-003	5.64399E-004	...........
	5	1.55	6.99620E-003	6.82123E-003	5.66999E-004	...........
	6	1.80833	6.92837E-003	6.74475E-003	5.61132E-004	...........
	7	2.06667	6.86734E-003	6.67780E-003	5.56199E-004	...........
	8	2.325	6.81206E-003	6.78118E-003	5.62299E-004	...........
	9	2.58333	6.76930E-003	6.78664E-003	5.58766E-004	...........
	10	2.84167	6.74856E-003	6.66967E-003	5.63166E-004	...........
	11	3.1	6.74300E-003	6.74196E-003	5.64432E-004	...........
	12	3.35833	6.73777E-003	6.72617E-003	5.64066E-004	...........
	13	3.61667	6.72922E-003	6.65055E-003	5.60932E-004	...........
	14	3.875	6.71872E-003	6.70770E-003	5.62399E-004	...........
	15	4.13333	6.70686E-003	6.70879E-003	5.62766E-004	...........
	16	4.39167	6.69886E-003	6.71446E-003	5.61232E-004	...........
	17	4.65	6.69876E-003	6.70906E-003	5.62966E-004	...........
	18	4.90833	6.70364E-003	6.72080E-003	5.61732E-004	...........
EOC	QUANT	0.0067036	Open Circuit (V)
PSTATMODEL	IQUANT	4	Pstat Model
PSTATSECTION	LABEL	REF600-11020	Pstat Section
PSTATSERIALNO	LABEL	11020	Pstat Serial Number
CTRLMODE	IQUANT	1	Control Mode
IESTAB	IQUANT	0	I/E Stability
CASPEED	IQUANT	1	Control Amp Speed
CONVENTION	IQUANT	1	Current Convention
ICHRANGE	IQUANT	2	Ich Range
ICHRANGEMODE	TOGGLE	F	Ich Auto Range
ICHOFFSETENABLE	TOGGLE	T	Ich Offset Enable
ICHOFFSET	QUANT	0	Ich Offset (V)
ICHFILTER	IQUANT	3	Ich Filter
VCHRANGE	IQUANT	2	Vch Range
VCHRANGEMODE	TOGGLE	F	Vch Auto Range
VCHOFFSETENABLE	TOGGLE	T	Vch Offset Enable
VCHOFFSET	QUANT	0	Vch Offset (V)
VCHFILTER	IQUANT	3	Vch Filter
ACHRANGE	IQUANT	2	Ach Range
ACHOFFSETENABLE	TOGGLE	F	Ach Offset Enable
ACHOFFSET	QUANT	0	Ach Offset (V)
ACHFILTER	IQUANT	3	Ach Filter
IERANGELOWERLIMIT	IQUANT	1	I/E Range Lower Limit
IERANGEMODE	TOGGLE	F	I/E AutoRange
IERANGE	IQUANT	3	I/E Range
POSFEEDENABLE	TOGGLE	F	Positive Feedback IR Comp
POSFEEDRESISTANCE	QUANT	0	Positive Feedback Resistance (ohm)
ACHSELECT	IQUANT	0	Ach Select
CABLEID	IQUANT	14	Cable ID
DCCALDATE	LABEL	8/19/2019	DC Calibration Date
ACCALDATE	LABEL	8/19/2019	AC Calibration Date
THERMOSELECT	IQUANT	1	Thermo Select
FRAMEWORKVERSION	QUANT	6.33	Framework Version
INSTRUMENTVERSION	LABEL	3.50	Instrument Version
ZCURVE	TABLE
	Pt	Time	Freq	Zreal	Zimag	Zsig	Zmod	Zphz	Idc	Vdc	IERange
	#	s	Hz	ohm	ohm	V	ohm	°	A	V	#
	0	2	1000078	2367.636	-1423.314	1	2762.521	-31.01235	-2.007576E-006	0.0093706	8
	1	4	794390.6	2632.777	-1301.509	1	2936.91	-26.30541	3.678183E-006	0.0082657	8
	2	5	630984.4	2861.586	-1145.845	1	3082.472	-21.8223	-1.235601E-006	0.0087175	8
	3	6	501234.4	3012.3	-1002.593	1	3174.767	-18.40915	4.457729E-007	0.0084558	8
	4	8	398109.4	3147.216	-861.2705	1	3262.937	-15.3049	3.331377E-006	0.0079082	8
	5	9	316265.6	3222.698	-741.2841	1	3306.854	-12.95384	-1.113142E-006	0.0086088	8
	6	10	251203.1	3298.509	-635.5776	1	3359.184	-10.90645	-2.005903E-006	0.0088827	8
	7	12	199546.9	3349.102	-559.5014	1	3395.515	-9.484257	-7.935133E-007	0.0086848	8
	8	13	158578.1	3394.228	-516.0316	1	3433.23	-8.644601	-4.025938E-007	0.0086323	8
	9	14	125953.1	3427.839	-437.1975	1	3455.607	-7.268443	1.027539E-007	0.0082446	7
	10	16	100078.1	3460.804	-413.7255	1	3485.446	-6.817132	-2.383927E-009	0.0084282	7
	11	17	79453.13	3491.759	-406.0576	1	3515.29	-6.633148	1.273067E-008	0.008357	7
	12	19	63140.62	3524.458	-409.2767	1	3548.142	-6.62379	-1.242121E-008	0.0084034	7
	13	20	50203.12	3556.766	-425.1331	1	3582.084	-6.816112	-1.716652E-009	0.0084224	7
	14	22	39890.62	3591.769	-451.5326	1	3620.039	-7.165246	-3.807942E-008	0.008456	7
	15	23	31640.63	3633.013	-491.4139	1	3666.098	-7.703271	-1.314944E-008	0.0083912	7
	16	24	25171.88	3675.334	-540.6693	1	3714.889	-8.368618	-1.396519E-008	0.0083951	7
	17	26	20015.62	3724.235	-603.537	1	3772.821	-9.205136	3.643856E-008	0.0083958	7
	18	28	15890.62	3780.15	-682.3081	1	3841.234	-10.23159	-3.206013E-011	0.0084123	7
	19	29	12609.37	3840.953	-777.509	1	3918.857	-11.44353	8.196351E-008	0.0082795	7
	20	30	10078.13	3908.584	-887.0628	1	4007.98	-12.78682	-1.389956E-008	0.0083915	7
	21	32	8015.625	3987.1	-1022.554	1	4116.137	-14.38437	3.399685E-009	0.0083538	7
	22	33	6328.125	4077.448	-1189.771	1	4247.485	-16.26687	3.559627E-008	0.0083926	7
	23	34	5015.625	4181.004	-1384.985	1	4404.427	-18.32779	-3.580098E-008	0.0084448	7
	24	36	3984.375	4296.967	-1616.398	1	4590.934	-20.61488	-3.05534E-008	0.0084517	7
	25	37	3170.956	4428.887	-1888.236	1	4814.61	-23.09076	-1.012563E-008	0.0084925	7
	26	38	2527.573	4580.657	-2209.662	1	5085.767	-25.75219	3.979426E-009	0.0083515	7
	27	40	1976.103	4769.718	-2629.91	1	5446.708	-28.87131	-9.322373E-009	0.0084892	7
	28	41	1577.524	4974.209	-3089.192	1	5855.414	-31.84201	-4.181073E-009	0.0084031	7
	29	42	1265.625	5204.94	-3619.068	1	6339.484	-34.81143	4.971535E-008	0.0082925	7
	30	44	998.264	5494.333	-4300.84	1	6977.458	-38.05304	5.050122E-008	0.0082993	7
	31	45	796.875	5814.547	-5077.613	1	7719.528	-41.12942	7.758775E-008	0.0082771	7
	32	46	627.7902	6209.851	-6054.31	1	8672.769	-44.27338	-3.38245E-008	0.0084412	7
	33	48	505.5147	6635.754	-7110.939	1	9726.19	-46.97977	-2.666975E-008	0.0083907	7
	34	49	397.9953	7173.23	-8497.593	1	11120.45	-49.83067	9.448083E-010	0.0083445	6
	35	50	315.5048	7783.019	-10123.08	1	12769.19	-52.44553	7.147254E-010	0.008342	6
	36	52	252.4038	8464.295	-11995.52	1	14681.17	-54.79238	7.988635E-010	0.008338	6
	37	53	198.6229	9321.202	-14416.26	1	17167.22	-57.11427	8.652766E-010	0.0083407	6
	38	54	158.3615	10275.62	-17180.59	1	20019.02	-59.11657	9.18759E-010	0.008339	6
	39	56	125.558	11433.6	-20594.91	1	23555.84	-60.96245	6.965452E-010	0.0083408	6
	40	57	100.4464	12761.76	-24545.75	1	27665.08	-62.5293	8.952816E-010	0.0083348	6
	41	58	79.00281	14477.94	-29685.24	1	33027.63	-64.00082	6.337529E-010	0.0083368	6
	42	60	63.3446	16318.61	-35470.47	1	39044.22	-65.29464	4.767018E-010	0.008336	6
	43	61	49.86702	18774.51	-42750.84	1	46691.71	-66.29079	6.825857E-010	0.008331	6
	44	63	39.72458	21707.46	-51321.14	1	55723.18	-67.07294	8.437413E-010	0.0083379	6
	45	64	31.6723	25114.88	-61522.91	1	66451.68	-67.79374	7.925886E-010	0.0083357	6
	46	65	24.93351	29616.04	-74435.77	1	80111.13	-68.30369	7.423398E-010	0.0083375	6
	47	67	19.86229	34812.12	-89209.88	1	95761.6	-68.68292	8.392277E-010	0.0083356	6
	48	68	15.83615	40973.37	-106873.3	1	114458.4	-69.02404	3.299257E-011	0.0083428	5
	49	69	12.40079	49649.4	-129700.8	1	138879	-69.05318	1.180684E-010	0.0083534	5
	50	71	9.93114	58947.86	-154545.5	1	165406	-69.12178	1.466371E-010	0.0083506	5
	51	72	7.944915	70616.66	-184387.5	1	197447.4	-69.04417	3.172161E-010	0.0083486	5
	52	74	6.317385	85853.28	-220312.2	1	236449.3	-68.70968	4.886054E-010	0.0083299	5
	53	76	5.008013	104767.5	-264316.2	1	284322.5	-68.37803	1.392175E-010	0.0083391	5
	54	78	3.945707	129497.1	-316940	1	342374.8	-67.77578	2.610883E-010	0.0083382	5
	55	81	3.158693	158480.3	-374129.3	1	406311.1	-67.04259	2.316419E-010	0.008357	5
	56	84	2.504006	195930.9	-443992.4	1	485302.1	-66.18845	-2.853273E-013	0.0083367	5
	57	87	1.998082	240523.5	-521267.6	1	574083.1	-65.23044	2.008294E-011	0.0083102	5
	58	90	1.584686	296369.1	-609790.7	1	677996.6	-64.07942	4.237957E-011	0.0083622	5
	59	93	1.266892	361989.1	-708504.4	1	795622.1	-62.9366	8.578354E-011	0.0082961	5
	60	97	0.999041	443665.3	-823835.6	1	935705	-61.69593	7.625969E-011	0.0083771	5
