EXPLAIN
TAG	EISPOT
TITLE	LABEL	Potentiostatic EIS	Test &Identifier
DATE	LABEL	10/22/2019	Date
TIME	LABEL	8:59:53	Time
NOTES	NOTES	1	&Notes...
	
PSTAT	PSTAT	REF600-11020	Potentiostat
VDC	POTEN	0.00000E+000	T	DC &Voltage (V)
FREQINIT	QUANT	1.00000E+006	Initial Fre&q. (Hz)
FREQFINAL	QUANT	1.00000E+000	Final Fre&q. (Hz)
PTSPERDEC	QUANT	1.00000E+001	Points/&decade
VAC	QUANT	2.50000E+001	AC &Voltage (mV rms)
AREA	QUANT	1.00000E-002	&Area (cm^2)
CONDIT	TWOPARAM	T	5.00000E+000	0.00000E+000	Conditionin&g	Time(s)	E(V)
DELAY	TWOPARAM	T	5.00000E+000	0.00000E+000	Init. De&lay	Time(s)	Stab.(mV/s)
SPEED	SELECTOR	1	&Optimize for:
ZGUESS	QUANT	1.00000E+005	E&stimated Z (ohms)
OCVCURVE	TABLE	19
	Pt	T	Vf	Vm	Ach	Over
	#	s	V vs. Ref.	V	V	bits
	0	0.258333	1.54160E-002	1.54160E-002	5.44066E-004	...........
	1	0.516667	1.54268E-002	1.59842E-002	5.45233E-004	...........
	2	0.775	1.54942E-002	1.65605E-002	5.45099E-004	...........
	3	1.03333	1.56867E-002	1.70863E-002	5.43699E-004	...........
	4	1.29167	1.60334E-002	1.75901E-002	5.44599E-004	...........
	5	1.55	1.64951E-002	1.80441E-002	5.37999E-004	...........
	6	1.80833	1.70042E-002	1.85032E-002	5.36399E-004	...........
	7	2.06667	1.75108E-002	1.89386E-002	5.44666E-004	...........
	8	2.325	1.79947E-002	1.93561E-002	5.44499E-004	...........
	9	2.58333	1.84539E-002	1.97516E-002	5.50333E-004	...........
	10	2.84167	1.88914E-002	2.01385E-002	5.48299E-004	...........
	11	3.1	1.93097E-002	2.04965E-002	5.48866E-004	...........
	12	3.35833	1.97100E-002	2.08478E-002	5.47166E-004	...........
	13	3.61667	2.00929E-002	2.11839E-002	5.47066E-004	...........
	14	3.875	2.04593E-002	2.15060E-002	5.57866E-004	...........
	15	4.13333	2.08105E-002	2.18101E-002	5.49499E-004	...........
	16	4.39167	2.11470E-002	2.21029E-002	5.46899E-004	...........
	17	4.65	2.14692E-002	2.23948E-002	5.53666E-004	...........
	18	4.90833	2.17784E-002	2.26764E-002	5.49999E-004	...........
EOC	QUANT	0.0217784	Open Circuit (V)
PSTATMODEL	IQUANT	4	Pstat Model
PSTATSECTION	LABEL	REF600-11020	Pstat Section
PSTATSERIALNO	LABEL	11020	Pstat Serial Number
CTRLMODE	IQUANT	1	Control Mode
IESTAB	IQUANT	0	I/E Stability
CASPEED	IQUANT	1	Control Amp Speed
CONVENTION	IQUANT	1	Current Convention
ICHRANGE	IQUANT	2	Ich Range
ICHRANGEMODE	TOGGLE	F	Ich Auto Range
ICHOFFSETENABLE	TOGGLE	T	Ich Offset Enable
ICHOFFSET	QUANT	0	Ich Offset (V)
ICHFILTER	IQUANT	3	Ich Filter
VCHRANGE	IQUANT	2	Vch Range
VCHRANGEMODE	TOGGLE	F	Vch Auto Range
VCHOFFSETENABLE	TOGGLE	T	Vch Offset Enable
VCHOFFSET	QUANT	0	Vch Offset (V)
VCHFILTER	IQUANT	3	Vch Filter
ACHRANGE	IQUANT	2	Ach Range
ACHOFFSETENABLE	TOGGLE	F	Ach Offset Enable
ACHOFFSET	QUANT	0	Ach Offset (V)
ACHFILTER	IQUANT	3	Ach Filter
IERANGELOWERLIMIT	IQUANT	1	I/E Range Lower Limit
IERANGEMODE	TOGGLE	F	I/E AutoRange
IERANGE	IQUANT	5	I/E Range
POSFEEDENABLE	TOGGLE	F	Positive Feedback IR Comp
POSFEEDRESISTANCE	QUANT	0	Positive Feedback Resistance (ohm)
ACHSELECT	IQUANT	0	Ach Select
CABLEID	IQUANT	14	Cable ID
DCCALDATE	LABEL	8/19/2019	DC Calibration Date
ACCALDATE	LABEL	8/19/2019	AC Calibration Date
THERMOSELECT	IQUANT	1	Thermo Select
FRAMEWORKVERSION	QUANT	6.33	Framework Version
INSTRUMENTVERSION	LABEL	3.50	Instrument Version
ZCURVE	TABLE
	Pt	Time	Freq	Zreal	Zimag	Zsig	Zmod	Zphz	Idc	Vdc	IERange
	#	s	Hz	ohm	ohm	V	ohm	°	A	V	#
	0	2	1000078	2580.463	-1987.35	1	3257.046	-37.60175	-1.984355E-006	0.0247806	8
	1	4	794390.6	2986.95	-1929.707	1	3556.071	-32.86431	-4.868355E-006	0.0250759	8
	2	5	630984.4	3372.311	-1832.588	1	3838.08	-28.52063	4.674373E-006	0.0228806	8
	3	6	501234.4	3688.143	-1680.959	1	4053.149	-24.50225	-2.029143E-006	0.0237823	8
	4	8	398109.4	3962.19	-1497.67	1	4235.795	-20.70612	1.752115E-006	0.0232632	8
	5	9	316265.6	4172.455	-1321.501	1	4376.728	-17.57405	-7.285519E-007	0.0234327	8
	6	11	251203.1	4329.88	-1160.58	1	4482.724	-15.00484	-2.867766E-006	0.0240158	8
	7	12	199546.9	4464.813	-988.891	1	4573.015	-12.48858	3.855154E-006	0.0226437	8
	8	14	158578.1	4553.119	-891.3778	1	4639.553	-11.07687	1.032149E-006	0.0231318	8
	9	15	125953.1	4666.503	-710.6714	1	4720.308	-8.659159	6.51477E-007	0.021902	7
	10	17	100078.1	4713.286	-640.8572	1	4756.654	-7.742924	-2.333678E-008	0.0233845	7
	11	18	79453.13	4766.631	-591.135	1	4803.146	-7.069457	-1.746253E-008	0.0232833	7
	12	19	63140.62	4814.715	-556.9705	1	4846.824	-6.598696	-1.323698E-008	0.0232797	7
	13	21	50203.12	4860.37	-538.6464	1	4890.126	-6.32395	1.348113E-007	0.0231108	7
	14	22	39890.62	4906.271	-534.2507	1	4935.272	-6.214532	1.348989E-007	0.0231093	7
	15	23	31640.63	4952.325	-541.1919	1	4981.808	-6.236557	-5.070927E-008	0.0233434	7
	16	25	25171.88	4999.615	-563.6166	1	5031.284	-6.431913	6.318438E-008	0.0232047	7
	17	26	20015.62	5037.889	-577.1801	1	5070.844	-6.535758	-7.889903E-008	0.0234381	7
	18	28	15890.62	5103.967	-646.6752	1	5144.771	-7.22093	-3.923894E-008	0.0233878	7
	19	29	12609.37	5162.192	-711.2813	1	5210.964	-7.845196	-3.600726E-008	0.0233245	7
	20	30	10078.13	5221.976	-790.0095	1	5281.396	-8.602788	-1.260355E-009	0.0233419	7
	21	32	8015.625	5277.145	-883.2866	1	5350.556	-9.50206	9.448082E-008	0.0232385	7
	22	33	6328.125	5359.442	-1014.088	1	5454.539	-10.71456	6.522372E-008	0.0232016	7
	23	34	5015.625	5434.595	-1170.197	1	5559.153	-12.1516	-1.304632E-008	0.0232692	7
	24	36	3984.375	5509.212	-1370.699	1	5677.167	-13.97159	-5.743362E-008	0.0234841	7
	25	37	3170.956	5608.287	-1588.27	1	5828.849	-15.81215	4.095009E-008	0.0231695	7
	26	38	2527.573	5709.108	-1871.188	1	6007.933	-18.14681	-3.865295E-008	0.023389	7
	27	40	1976.103	5828.062	-2245.118	1	6245.547	-21.06795	-1.449513E-008	0.0232721	7
	28	41	1577.524	5898.95	-2714.256	1	6493.442	-24.70836	8.155594E-008	0.0231329	7
	29	43	1265.625	6105.109	-3176.206	1	6881.907	-27.48587	-7.110365E-009	0.023436	7
	30	44	998.264	6286.405	-3837.359	1	7365.066	-31.4008	-1.672377E-009	0.0233341	7
	31	45	796.875	6498.187	-4603.942	1	7963.838	-35.31744	4.50297E-008	0.0232449	7
	32	47	627.7902	6752.818	-5600.644	1	8773.127	-39.67159	8.316314E-008	0.0231341	7
	33	48	505.5147	7034.495	-6697.862	1	9713.16	-43.59575	-7.582037E-008	0.0234276	7
	34	49	397.9953	7408.782	-8173.332	1	11031.47	-47.80901	8.230897E-010	0.0232596	6
	35	51	315.5048	7842.376	-9939.3	1	12660.67	-51.72562	8.850501E-010	0.0232572	6
	36	52	252.4038	8347.191	-12007.68	1	14623.95	-55.19473	8.053091E-010	0.0232572	6
	37	54	198.6229	9014.435	-14735.42	1	17274.04	-58.54367	4.488143E-010	0.0232582	6
	38	55	158.3615	9816.41	-17898.86	1	20413.99	-61.25796	1.087082E-009	0.0232538	6
	39	56	125.558	10860.45	-21870.91	1	24418.97	-63.59236	6.734523E-010	0.0232564	6
	40	58	100.4464	12171.18	-26483.75	1	29146.64	-65.31783	-3.890305E-010	0.0232558	6
	41	59	79.00281	14073.78	-32494.69	1	35411.53	-66.58207	1.620786E-010	0.0232557	6
	42	60	63.3446	16017.58	-39119.18	1	42271.42	-67.73306	1.099279E-009	0.0232547	6
	43	62	49.86702	19883.02	-47812.39	1	51781.84	-67.41978	-1.323604E-010	0.0232531	6
	44	63	39.72458	23836.74	-57724.12	1	62452.1	-67.56219	2.547984E-010	0.02326	6
	45	65	31.6723	29015.72	-69156.3	1	74996.7	-67.23868	1.204599E-011	0.0232571	6
	46	66	24.93351	36752.25	-83026.18	1	90796.88	-66.12302	-1.286775E-010	0.0232557	6
	47	67	19.86229	45797.32	-97992.2	1	108165.9	-64.95064	3.811293E-010	0.023263	5
	48	69	15.83615	58069.41	-115054.1	1	128877.8	-63.21927	1.335771E-009	0.0232604	5
	49	70	12.40079	72146.81	-135363.9	1	153390.2	-61.9431	9.319003E-010	0.0232661	5
	50	72	9.93114	88186.55	-153517.8	1	177044	-60.12527	6.602139E-011	0.0232613	5
	51	73	7.944915	106852	-173868.2	1	204077.2	-58.42688	6.822807E-010	0.0232596	5
	52	75	6.317385	128042.1	-197420.6	1	235307.7	-57.03356	-3.532723E-010	0.023254	5
	53	77	5.008013	151546.2	-223107.6	1	269709.6	-55.81364	-2.032725E-010	0.0232536	5
	54	79	3.945707	177064.4	-252664.6	1	308530.7	-54.97768	-3.407888E-010	0.0232478	5
	55	82	3.158693	202355.8	-284297.5	1	348959.8	-54.5577	1.402718E-010	0.023266	5
	56	85	2.504006	230703	-323491	1	397329	-54.5048	-4.139422E-010	0.0232543	5
	57	88	1.998082	259879.5	-368445.4	1	450876.2	-54.80313	-2.409749E-010	0.0232263	5
	58	91	1.584686	293496.2	-422832.5	1	514710.9	-55.23474	-1.440154E-010	0.0232956	5
	59	95	1.266892	329069.3	-488289.5	1	588823.6	-56.02308	-2.261539E-010	0.0232383	5
	60	99	0.999041	374233.1	-571234.4	1	682904.9	-56.76997	9.83742E-011	0.0232874	5
