EXPLAIN
TAG	EISPOT
TITLE	LABEL	Potentiostatic IDE	Test &Identifier
DATE	LABEL	9/4/2019	Date
TIME	LABEL	11:28:21	Time
NOTES	NOTES	1	&Notes...
	
PSTAT	PSTAT	REF600-11020	Potentiostat
VDC	POTEN	0.00000E+000	T	DC &Voltage (V)
FREQINIT	QUANT	1.00000E+006	Initial Fre&q. (Hz)
FREQFINAL	QUANT	1.00000E+000	Final Fre&q. (Hz)
PTSPERDEC	QUANT	1.00000E+001	Points/&decade
VAC	QUANT	2.50000E+001	AC &Voltage (mV rms)
AREA	QUANT	1.00000E-002	&Area (cm^2)
CONDIT	TWOPARAM	T	5.00000E+000	0.00000E+000	Conditionin&g	Time(s)	E(V)
DELAY	TWOPARAM	T	5.00000E+000	0.00000E+000	Init. De&lay	Time(s)	Stab.(mV/s)
SPEED	SELECTOR	1	&Optimize for:
ZGUESS	QUANT	1.00000E+007	E&stimated Z (ohms)
OCVCURVE	TABLE	19
	Pt	T	Vf	Vm	Ach	Over
	#	s	V vs. Ref.	V	V	bits
	0	0.258333	1.17747E-001	1.17747E-001	5.73899E-004	...........
	1	0.516667	1.17872E-001	1.24299E-001	5.67932E-004	...........
	2	0.775	1.18635E-001	1.30208E-001	5.77266E-004	...........
	3	1.03333	1.20769E-001	1.35591E-001	5.75265E-004	...........
	4	1.29167	1.24520E-001	1.40525E-001	5.76466E-004	...........
	5	1.55	1.29389E-001	1.45056E-001	5.74066E-004	...........
	6	1.80833	1.34622E-001	1.49249E-001	5.74132E-004	...........
	7	2.06667	1.39692E-001	1.53150E-001	5.70366E-004	...........
	8	2.325	1.44389E-001	1.56790E-001	5.73899E-004	...........
	9	2.58333	1.48694E-001	1.60141E-001	5.72932E-004	...........
	10	2.84167	1.52654E-001	1.63312E-001	5.71666E-004	...........
	11	3.1	1.56319E-001	1.66216E-001	5.77332E-004	...........
	12	3.35833	1.59727E-001	1.69054E-001	5.72232E-004	...........
	13	3.61667	1.62910E-001	1.71719E-001	5.79566E-004	...........
	14	3.875	1.65902E-001	1.74240E-001	5.76966E-004	...........
	15	4.13333	1.68729E-001	1.76639E-001	5.67766E-004	...........
	16	4.39167	1.71407E-001	1.78852E-001	5.70166E-004	...........
	17	4.65	1.73941E-001	1.80934E-001	5.74266E-004	...........
	18	4.90833	1.76331E-001	1.82946E-001	5.69299E-004	...........
EOC	QUANT	0.1763313	Open Circuit (V)
PSTATMODEL	IQUANT	4	Pstat Model
PSTATSECTION	LABEL	REF600-11020	Pstat Section
PSTATSERIALNO	LABEL	11020	Pstat Serial Number
CTRLMODE	IQUANT	1	Control Mode
IESTAB	IQUANT	0	I/E Stability
CASPEED	IQUANT	1	Control Amp Speed
CONVENTION	IQUANT	1	Current Convention
ICHRANGE	IQUANT	2	Ich Range
ICHRANGEMODE	TOGGLE	F	Ich Auto Range
ICHOFFSETENABLE	TOGGLE	T	Ich Offset Enable
ICHOFFSET	QUANT	0	Ich Offset (V)
ICHFILTER	IQUANT	3	Ich Filter
VCHRANGE	IQUANT	2	Vch Range
VCHRANGEMODE	TOGGLE	F	Vch Auto Range
VCHOFFSETENABLE	TOGGLE	T	Vch Offset Enable
VCHOFFSET	QUANT	0	Vch Offset (V)
VCHFILTER	IQUANT	3	Vch Filter
ACHRANGE	IQUANT	2	Ach Range
ACHOFFSETENABLE	TOGGLE	F	Ach Offset Enable
ACHOFFSET	QUANT	0	Ach Offset (V)
ACHFILTER	IQUANT	3	Ach Filter
IERANGELOWERLIMIT	IQUANT	1	I/E Range Lower Limit
IERANGEMODE	TOGGLE	F	I/E AutoRange
IERANGE	IQUANT	4	I/E Range
POSFEEDENABLE	TOGGLE	F	Positive Feedback IR Comp
POSFEEDRESISTANCE	QUANT	0	Positive Feedback Resistance (ohm)
ACHSELECT	IQUANT	0	Ach Select
CABLEID	IQUANT	14	Cable ID
DCCALDATE	LABEL	8/19/2019	DC Calibration Date
ACCALDATE	LABEL	8/19/2019	AC Calibration Date
THERMOSELECT	IQUANT	1	Thermo Select
FRAMEWORKVERSION	QUANT	6.33	Framework Version
INSTRUMENTVERSION	LABEL	3.50	Instrument Version
ZCURVE	TABLE
	Pt	Time	Freq	Zreal	Zimag	Zsig	Zmod	Zphz	Idc	Vdc	IERange
	#	s	Hz	ohm	ohm	V	ohm	°	A	V	#
	0	2	1000078	2436.906	-1553.449	1	2889.933	-32.5162	1.078536E-005	0.1777969	8
	1	3	794390.6	2726.151	-1423.763	1	3075.549	-27.57632	1.016607E-005	0.1771516	8
	2	5	630984.4	2959.637	-1270.094	1	3220.651	-23.22603	1.097691E-005	0.1770269	8
	3	7	501234.4	3139.031	-1120.38	1	3332.981	-19.64245	9.738656E-006	0.1769295	8
	4	8	398109.4	3274.78	-978.912	1	3417.96	-16.64269	1.008625E-005	0.1772659	8
	5	10	316265.6	3385.577	-849.9611	1	3490.64	-14.09304	1.086353E-005	0.1769938	8
	6	11	251203.1	3461.48	-752.9902	1	3542.434	-12.27259	8.087476E-006	0.1775775	8
	7	13	199546.9	3538.125	-655.8505	1	3598.398	-10.50153	8.157966E-006	0.1775986	8
	8	14	158578.1	3584.173	-591.6993	1	3632.685	-9.374221	9.936314E-006	0.1771224	8
	9	16	125953.1	3645.136	-538.8865	1	3684.754	-8.409532	7.415107E-007	0.1774891	7
	10	17	100078.1	3680.198	-495.7222	1	3713.435	-7.671559	8.629418E-007	0.1775954	7
	11	19	79453.13	3720.08	-482.0149	1	3751.177	-7.382745	8.318876E-007	0.1776106	7
	12	20	63140.62	3761.78	-480.8123	1	3792.383	-7.283774	8.216378E-007	0.1776026	7
	13	21	50203.12	3799.023	-491.0182	1	3830.624	-7.364568	8.345364E-007	0.1776207	7
	14	23	39890.62	3847.933	-510.0319	1	3881.587	-7.55037	8.341004E-007	0.1775583	7
	15	24	31640.63	3894.945	-539.9056	1	3932.187	-7.891879	8.863169E-007	0.1774703	7
	16	25	25171.88	3946.535	-585.4521	1	3989.724	-8.438052	8.351989E-007	0.1775712	7
	17	27	20015.62	4002.539	-644.0069	1	4054.018	-9.140527	8.477523E-007	0.1775816	7
	18	28	15890.62	4065.476	-716.508	1	4128.132	-9.99528	8.324845E-007	0.1775753	7
	19	29	12609.37	4134.522	-804.3353	1	4212.034	-11.00889	8.316469E-007	0.1775715	7
	20	31	10078.13	4213.107	-908.0208	1	4309.846	-12.16251	8.31014E-007	0.1776079	7
	21	32	8015.625	4296.572	-1033.611	1	4419.15	-13.52641	8.2887E-007	0.1776066	7
	22	33	6328.125	4397.102	-1184.424	1	4553.83	-15.07565	8.227395E-007	0.1775887	7
	23	35	5015.625	4507.118	-1365.554	1	4709.442	-16.85561	8.301373E-007	0.1775725	7
	24	36	3984.375	4627.611	-1586.616	1	4892.048	-18.92471	8.347723E-007	0.177572	7
	25	37	3170.956	4776.245	-1825.557	1	5113.235	-20.91766	9.046959E-007	0.1774914	7
	26	39	2527.573	4938.023	-2121.516	1	5374.467	-23.24974	8.247054E-007	0.1776009	7
	27	40	1976.103	5137.181	-2494.559	1	5710.819	-25.90071	8.426031E-007	0.1775426	7
	28	41	1577.524	5360.402	-2899.526	1	6094.355	-28.40965	8.310859E-007	0.1776	7
	29	43	1265.625	5592.879	-3372.466	1	6530.989	-31.08968	8.78397E-007	0.1775048	7
	30	44	998.264	5895.438	-3969.138	1	7107.056	-33.95064	8.514787E-007	0.177535	7
	31	45	796.875	6228.718	-4645.68	1	7770.41	-36.71736	8.513803E-007	0.1775751	7
	32	47	627.7902	6630.191	-5483.439	1	8603.926	-39.59214	8.309519E-007	0.1776633	7
	33	48	505.5147	7058.466	-6389.091	1	9520.63	-42.15036	9.022342E-007	0.1774812	7
	34	49	397.9953	7616.786	-7554.914	1	10728.1	-44.76634	8.697208E-007	0.1772096	7
	35	51	315.5048	8230.082	-8907.464	1	12127.54	-47.2635	8.692638E-007	0.1772107	7
	36	52	252.4038	8906.126	-10439.89	1	13722.63	-49.53297	8.374945E-008	0.177155	6
	37	53	198.6229	9734.68	-12412.45	1	15774.44	-51.89405	8.490058E-008	0.1771549	6
	38	55	158.3615	10633.47	-14637.62	1	18092.28	-54.00356	8.509242E-008	0.1771504	6
	39	56	125.558	11683.08	-17375.78	1	20938.29	-56.084	8.489337E-008	0.1771539	6
	40	57	100.4464	12826.79	-20524.15	1	24202.63	-57.99623	8.488635E-008	0.1771524	6
	41	59	79.00281	14288.48	-24647.62	1	28489.75	-59.89867	8.514685E-008	0.1771507	6
	42	60	63.3446	15652.55	-29273.74	1	33195.7	-61.86676	8.45849E-008	0.177152	6
	43	62	49.86702	17769.09	-35215.62	1	39444.65	-63.22541	8.491635E-008	0.1771487	6
	44	63	39.72458	19785.1	-42175.04	1	46585.24	-64.86785	8.48306E-008	0.1771528	6
	45	64	31.6723	22301.19	-50561.52	1	55261.29	-66.19914	8.488811E-008	0.1771428	6
	46	66	24.93351	25506.17	-61412.82	1	66498.87	-67.44576	8.498277E-008	0.177148	6
	47	67	19.86229	29188.82	-73960.81	1	79512.2	-68.4632	8.481577E-008	0.1771475	6
	48	68	15.83615	33523.83	-88883.83	1	94995.7	-69.3353	8.454023E-008	0.1771522	6
	49	70	12.40079	40212.38	-109210.8	1	116378.8	-69.78584	8.430708E-008	0.1771557	6
	50	71	9.93114	46820.84	-131039.3	1	139152.8	-70.33801	8.531232E-009	0.177163	5
	51	73	7.944915	55756.71	-157303	1	166892.4	-70.48292	8.46469E-009	0.1771596	5
	52	74	6.317385	67064.86	-189579.4	1	201092.2	-70.51846	8.345925E-009	0.1771656	5
	53	76	5.008013	82036.99	-229050	1	243298.1	-70.29441	8.478778E-009	0.1771572	5
	54	79	3.945707	101451.6	-276979.1	1	294974.3	-69.88329	8.489314E-009	0.1771562	5
	55	81	3.158693	124199.7	-330021.8	1	352618.7	-69.37678	8.642628E-009	0.1771772	5
	56	85	2.504006	154921.3	-395205.5	1	424485.5	-68.59473	8.185065E-009	0.1774434	5
	57	87	1.998082	191888.6	-467075.4	1	504956.1	-67.66567	8.507549E-009	0.1774109	5
	58	90	1.584686	239461.3	-555450.4	1	604869.3	-66.67854	8.306417E-009	0.1773913	5
	59	94	1.266892	296525.6	-649187.6	1	713703	-65.45078	8.441458E-009	0.1774262	5
	60	98	0.999041	369625	-767972.3	1	852293.4	-64.29849	8.153361E-009	0.1774247	5
