EXPLAIN
TAG	EISPOT
TITLE	LABEL	Potentiostatic EIS	Test &Identifier
DATE	LABEL	9/26/2019	Date
TIME	LABEL	10:32:05	Time
NOTES	NOTES	2	&Notes...
	
	
PSTAT	PSTAT	REF600-11020	Potentiostat
VDC	POTEN	0.00000E+000	T	DC &Voltage (V)
FREQINIT	QUANT	1.00000E+006	Initial Fre&q. (Hz)
FREQFINAL	QUANT	1.00000E+000	Final Fre&q. (Hz)
PTSPERDEC	QUANT	1.00000E+001	Points/&decade
VAC	QUANT	2.50000E+001	AC &Voltage (mV rms)
AREA	QUANT	1.00000E-002	&Area (cm^2)
CONDIT	TWOPARAM	T	5.00000E+000	0.00000E+000	Conditionin&g	Time(s)	E(V)
DELAY	TWOPARAM	T	5.00000E+000	0.00000E+000	Init. De&lay	Time(s)	Stab.(mV/s)
SPEED	SELECTOR	1	&Optimize for:
ZGUESS	QUANT	1.00000E+004	E&stimated Z (ohms)
OCVCURVE	TABLE	19
	Pt	T	Vf	Vm	Ach	Over
	#	s	V vs. Ref.	V	V	bits
	0	0.258333	3.96170E-002	3.96170E-002	5.70132E-004	...........
	1	0.516667	3.96620E-002	4.19703E-002	5.67732E-004	...........
	2	0.775	3.99362E-002	4.41043E-002	5.67899E-004	...........
	3	1.03333	4.07085E-002	4.62964E-002	5.70166E-004	...........
	4	1.29167	4.20838E-002	4.80497E-002	5.66766E-004	...........
	5	1.55	4.38929E-002	4.97720E-002	5.70332E-004	...........
	6	1.80833	4.58538E-002	5.13705E-002	5.71932E-004	...........
	7	2.06667	4.77605E-002	5.28469E-002	5.71166E-004	...........
	8	2.325	4.95348E-002	5.44291E-002	5.68766E-004	...........
	9	2.58333	5.11838E-002	5.57902E-002	5.72599E-004	...........
	10	2.84167	5.27411E-002	5.71859E-002	5.71932E-004	...........
	11	3.1	5.42279E-002	5.83833E-002	5.70032E-004	...........
	12	3.35833	5.56440E-002	5.95168E-002	5.68066E-004	...........
	13	3.61667	5.69788E-002	6.06357E-002	5.67966E-004	...........
	14	3.875	5.82329E-002	6.19323E-002	5.67466E-004	...........
	15	4.13333	5.94317E-002	6.29964E-002	5.67766E-004	...........
	16	4.39167	6.06036E-002	6.40046E-002	5.67699E-004	...........
	17	4.65	6.17494E-002	6.50104E-002	5.65566E-004	...........
	18	4.90833	6.28521E-002	6.59883E-002	5.64999E-004	...........
EOC	QUANT	0.0628521	Open Circuit (V)
PSTATMODEL	IQUANT	4	Pstat Model
PSTATSECTION	LABEL	REF600-11020	Pstat Section
PSTATSERIALNO	LABEL	11020	Pstat Serial Number
CTRLMODE	IQUANT	1	Control Mode
IESTAB	IQUANT	0	I/E Stability
CASPEED	IQUANT	1	Control Amp Speed
CONVENTION	IQUANT	1	Current Convention
ICHRANGE	IQUANT	2	Ich Range
ICHRANGEMODE	TOGGLE	F	Ich Auto Range
ICHOFFSETENABLE	TOGGLE	T	Ich Offset Enable
ICHOFFSET	QUANT	0	Ich Offset (V)
ICHFILTER	IQUANT	3	Ich Filter
VCHRANGE	IQUANT	2	Vch Range
VCHRANGEMODE	TOGGLE	F	Vch Auto Range
VCHOFFSETENABLE	TOGGLE	T	Vch Offset Enable
VCHOFFSET	QUANT	0	Vch Offset (V)
VCHFILTER	IQUANT	3	Vch Filter
ACHRANGE	IQUANT	2	Ach Range
ACHOFFSETENABLE	TOGGLE	F	Ach Offset Enable
ACHOFFSET	QUANT	0	Ach Offset (V)
ACHFILTER	IQUANT	3	Ach Filter
IERANGELOWERLIMIT	IQUANT	1	I/E Range Lower Limit
IERANGEMODE	TOGGLE	F	I/E AutoRange
IERANGE	IQUANT	7	I/E Range
POSFEEDENABLE	TOGGLE	F	Positive Feedback IR Comp
POSFEEDRESISTANCE	QUANT	0	Positive Feedback Resistance (ohm)
ACHSELECT	IQUANT	0	Ach Select
CABLEID	IQUANT	14	Cable ID
DCCALDATE	LABEL	8/19/2019	DC Calibration Date
ACCALDATE	LABEL	8/19/2019	AC Calibration Date
THERMOSELECT	IQUANT	1	Thermo Select
FRAMEWORKVERSION	QUANT	6.33	Framework Version
INSTRUMENTVERSION	LABEL	3.50	Instrument Version
ZCURVE	TABLE
	Pt	Time	Freq	Zreal	Zimag	Zsig	Zmod	Zphz	Idc	Vdc	IERange
	#	s	Hz	ohm	ohm	V	ohm	°	A	V	#
	0	1	1000078	2012.481	-1902.264	1	2769.24	-43.38729	-7.903655E-006	0.0659429	8
	1	3	794390.6	2371.49	-1983.625	1	3091.72	-39.91068	-1.139105E-006	0.0652308	8
	2	4	630984.4	2746.677	-1997.836	1	3396.407	-36.03082	2.027181E-007	0.0645914	8
	3	6	501234.4	3145.078	-1993.362	1	3723.575	-32.36668	-3.5686E-006	0.0651506	8
	4	7	398109.4	3470.032	-1949.02	1	3979.925	-29.3217	2.212774E-007	0.0643017	8
	5	9	316265.6	3820.086	-1863.889	1	4250.546	-26.00858	-6.085203E-007	0.0644631	8
	6	10	251203.1	4113.74	-1747.579	1	4469.552	-23.01652	-4.287629E-006	0.0653165	8
	7	12	199546.9	4386.756	-1642.972	1	4684.334	-20.53243	-2.061403E-007	0.0642882	8
	8	13	158578.1	4652.056	-1511.888	1	4891.567	-18.00383	3.566861E-006	0.06367	8
	9	15	125953.1	4901.584	-1328.223	1	5078.356	-15.16181	-6.830868E-007	0.0649434	7
	10	16	100078.1	5064.431	-1209.168	1	5206.779	-13.42837	3.82466E-008	0.064146	7
	11	18	79453.13	5226.144	-1105.142	1	5341.715	-11.94011	-5.365811E-008	0.0644476	7
	12	19	63140.62	5365.465	-1007.053	1	5459.154	-10.63026	-5.545524E-008	0.0644546	7
	13	20	50203.12	5482.34	-916.0734	1	5558.349	-9.486217	4.12392E-008	0.0641357	7
	14	22	39890.62	5582.705	-839.9553	1	5645.54	-8.556355	4.02422E-008	0.0642233	7
	15	23	31640.63	5672.485	-772.3525	1	5724.825	-7.753581	8.082272E-008	0.0641045	7
	16	25	25171.88	5743.349	-720.2054	1	5788.329	-7.147478	-5.487858E-008	0.064322	7
	17	26	20015.62	5809.665	-691.6778	1	5850.694	-6.789471	-5.407848E-008	0.0644467	7
	18	27	15890.62	5867.755	-674.6552	1	5906.413	-6.558879	-8.068525E-008	0.0644107	7
	19	29	12609.37	5914.991	-689.0812	1	5954.994	-6.644857	1.171373E-007	0.0642422	8
	20	30	10078.13	5974.785	-704.4111	1	6016.166	-6.723979	-4.430527E-008	0.0642918	7
	21	32	8015.625	6018.763	-744.8295	1	6064.675	-7.054559	7.243408E-008	0.0641438	7
	22	34	6328.125	6069.65	-812.7191	1	6123.819	-7.626476	-5.819099E-009	0.0643122	7
	23	35	5015.625	6118.38	-907.3259	1	6185.291	-8.435208	-5.572952E-008	0.0644438	7
	24	37	3984.375	6167.498	-1032.195	1	6253.276	-9.50099	7.941816E-009	0.0642015	7
	25	38	3170.956	6220.012	-1197.147	1	6334.17	-10.89433	4.213603E-008	0.0641326	7
	26	39	2527.573	6275.068	-1399.888	1	6429.32	-12.57603	-5.526882E-008	0.0643187	7
	27	41	1976.103	6346.21	-1683.033	1	6565.591	-14.85309	-8.726064E-009	0.0642994	7
	28	42	1577.524	6412.205	-2006.371	1	6718.771	-17.37484	-2.925465E-008	0.0642597	7
	29	44	1265.625	6498.347	-2410.305	1	6930.951	-20.35035	-4.903079E-008	0.0643691	7
	30	45	998.264	6591.474	-2931.718	1	7214.049	-23.97826	-6.231152E-009	0.0643118	7
	31	46	796.875	6708.029	-3551.152	1	7590.016	-27.89622	-8.203244E-008	0.0643965	7
	32	48	627.7902	6851.733	-4366.608	1	8124.87	-32.50935	-4.484961E-008	0.0643141	7
	33	49	505.5147	7005.315	-5279.12	1	8771.747	-37.00123	4.216119E-008	0.06421	7
	34	50	397.9953	7240.732	-6525.443	1	9747.29	-42.02559	3.76233E-009	0.0642813	7
	35	52	315.5048	7517.912	-8013.853	1	10988.21	-46.82888	-1.078345E-009	0.0642241	6
	36	53	252.4038	7850.271	-9774.68	1	12536.79	-51.23126	-9.179932E-010	0.0642213	6
	37	55	198.6229	8304.743	-12094.54	1	14671.29	-55.52447	-1.218783E-009	0.0642239	6
	38	56	158.3615	8857.402	-14800.71	1	17248.61	-59.10183	-1.385317E-009	0.0642188	6
	39	57	125.558	9582.14	-18179.5	1	20550.22	-62.20695	-1.420202E-009	0.0642228	6
	40	59	100.4464	10509.4	-22159.51	1	24525.32	-64.62682	-2.330334E-009	0.0642225	6
	41	60	79.00281	11784.5	-27290.88	1	29726.53	-66.6448	-3.179308E-010	0.0642237	6
	42	61	63.3446	13004.86	-32917.48	1	35393.32	-68.44228	-1.067868E-009	0.0642256	6
	43	63	49.86702	15788.94	-40913.5	1	43854.36	-68.89788	-2.215829E-009	0.0642252	6
	44	64	39.72458	18232.25	-49647.28	1	52889.2	-69.83497	-1.244611E-009	0.0642336	6
	45	66	31.6723	21558.03	-60069.1	1	63820.41	-70.25758	-7.174235E-010	0.0642267	6
	46	67	24.93351	26626.36	-73272.49	1	77960.38	-70.02945	-1.668341E-009	0.0642195	6
	47	68	19.86229	32554.33	-88229.55	1	94043.81	-69.7473	-7.196837E-010	0.0642348	6
	48	70	15.83615	40164.73	-106201.5	1	113542.8	-69.28371	-2.50351E-009	0.0642348	5
	49	71	12.40079	51209.57	-127189.9	1	137111.9	-68.06915	-1.145129E-009	0.0642284	5
	50	73	9.93114	63602.1	-150756.7	1	163624	-67.12581	-1.831835E-009	0.0642342	5
	51	74	7.944915	79660.27	-177380.8	1	194447.2	-65.81554	-1.343138E-009	0.064226	5
	52	76	6.317385	99857.9	-208329.3	1	231025.3	-64.39032	-1.154903E-009	0.0642448	5
	53	78	5.008013	125433.5	-243772.4	1	274150.6	-62.77184	-1.19967E-009	0.0642324	5
	54	81	3.945707	156860	-283832.7	1	324293.2	-61.07279	-1.197462E-009	0.0642375	5
	55	83	3.158693	193002.8	-324584.3	1	377630.9	-59.26363	-1.54603E-009	0.0642259	5
	56	87	2.504006	237544.2	-370300.2	1	439942.6	-57.3202	-9.672348E-010	0.0642261	5
	57	89	1.998082	287403.6	-416056.2	1	505671.4	-55.36403	-1.487397E-009	0.0642745	5
	58	92	1.584686	344574.3	-466278.3	1	579781.8	-53.53602	-1.109494E-009	0.0642322	5
	59	96	1.266892	408214.7	-515867.7	1	657844	-51.64484	-1.316966E-009	0.0642711	5
	60	100	0.999041	481275.6	-571000.6	1	746771.7	-49.87368	-1.285761E-009	0.0641872	5
