EXPLAIN
TAG	EISPOT
TITLE	LABEL	Potentiostatic IDE	Test &Identifier
DATE	LABEL	9/8/2019	Date
TIME	LABEL	11:14:54	Time
NOTES	NOTES	1	&Notes...
	
PSTAT	PSTAT	REF600-11020	Potentiostat
VDC	POTEN	0.00000E+000	T	DC &Voltage (V)
FREQINIT	QUANT	1.00000E+006	Initial Fre&q. (Hz)
FREQFINAL	QUANT	1.00000E+000	Final Fre&q. (Hz)
PTSPERDEC	QUANT	1.00000E+001	Points/&decade
VAC	QUANT	2.50000E+001	AC &Voltage (mV rms)
AREA	QUANT	1.00000E-002	&Area (cm^2)
CONDIT	TWOPARAM	T	5.00000E+000	0.00000E+000	Conditionin&g	Time(s)	E(V)
DELAY	TWOPARAM	T	5.00000E+000	0.00000E+000	Init. De&lay	Time(s)	Stab.(mV/s)
SPEED	SELECTOR	1	&Optimize for:
ZGUESS	QUANT	1.00000E+007	E&stimated Z (ohms)
OCVCURVE	TABLE	19
	Pt	T	Vf	Vm	Ach	Over
	#	s	V vs. Ref.	V	V	bits
	0	0.258333	4.54130E-003	4.54130E-003	5.69966E-004	...........
	1	0.516667	4.53698E-003	4.31520E-003	5.72032E-004	...........
	2	0.775	4.51084E-003	4.12072E-003	5.67766E-004	...........
	3	1.03333	4.43848E-003	3.95174E-003	5.68799E-004	...........
	4	1.29167	4.31316E-003	3.80238E-003	5.71766E-004	...........
	5	1.55	4.15390E-003	3.66546E-003	5.68232E-004	...........
	6	1.80833	3.98702E-003	3.54112E-003	5.74332E-004	...........
	7	2.06667	3.82937E-003	3.42317E-003	5.71632E-004	...........
	8	2.325	3.68638E-003	3.31930E-003	5.71732E-004	...........
	9	2.58333	3.55726E-003	3.21693E-003	5.71632E-004	...........
	10	2.84167	3.43956E-003	3.12474E-003	5.68532E-004	...........
	11	3.1	3.33102E-003	3.03482E-003	5.65932E-004	...........
	12	3.35833	3.22990E-003	2.95163E-003	5.67999E-004	...........
	13	3.61667	3.13505E-003	2.87221E-003	5.69532E-004	...........
	14	3.875	3.04574E-003	2.80000E-003	5.67599E-004	...........
	15	4.13333	2.96160E-003	2.72720E-003	5.67732E-004	...........
	16	4.39167	2.88222E-003	2.65922E-003	5.67999E-004	...........
	17	4.65	2.80692E-003	2.59025E-003	5.73332E-004	...........
	18	4.90833	2.73497E-003	2.53488E-003	5.72599E-004	...........
EOC	QUANT	0.002735	Open Circuit (V)
PSTATMODEL	IQUANT	4	Pstat Model
PSTATSECTION	LABEL	REF600-11020	Pstat Section
PSTATSERIALNO	LABEL	11020	Pstat Serial Number
CTRLMODE	IQUANT	1	Control Mode
IESTAB	IQUANT	0	I/E Stability
CASPEED	IQUANT	1	Control Amp Speed
CONVENTION	IQUANT	1	Current Convention
ICHRANGE	IQUANT	2	Ich Range
ICHRANGEMODE	TOGGLE	F	Ich Auto Range
ICHOFFSETENABLE	TOGGLE	T	Ich Offset Enable
ICHOFFSET	QUANT	0	Ich Offset (V)
ICHFILTER	IQUANT	3	Ich Filter
VCHRANGE	IQUANT	2	Vch Range
VCHRANGEMODE	TOGGLE	F	Vch Auto Range
VCHOFFSETENABLE	TOGGLE	T	Vch Offset Enable
VCHOFFSET	QUANT	0	Vch Offset (V)
VCHFILTER	IQUANT	3	Vch Filter
ACHRANGE	IQUANT	2	Ach Range
ACHOFFSETENABLE	TOGGLE	F	Ach Offset Enable
ACHOFFSET	QUANT	0	Ach Offset (V)
ACHFILTER	IQUANT	3	Ach Filter
IERANGELOWERLIMIT	IQUANT	1	I/E Range Lower Limit
IERANGEMODE	TOGGLE	F	I/E AutoRange
IERANGE	IQUANT	2	I/E Range
POSFEEDENABLE	TOGGLE	F	Positive Feedback IR Comp
POSFEEDRESISTANCE	QUANT	0	Positive Feedback Resistance (ohm)
ACHSELECT	IQUANT	0	Ach Select
CABLEID	IQUANT	14	Cable ID
DCCALDATE	LABEL	8/19/2019	DC Calibration Date
ACCALDATE	LABEL	8/19/2019	AC Calibration Date
THERMOSELECT	IQUANT	1	Thermo Select
FRAMEWORKVERSION	QUANT	6.33	Framework Version
INSTRUMENTVERSION	LABEL	3.50	Instrument Version
ZCURVE	TABLE
	Pt	Time	Freq	Zreal	Zimag	Zsig	Zmod	Zphz	Idc	Vdc	IERange
	#	s	Hz	ohm	ohm	V	ohm	°	A	V	#
	0	2	1000078	2629.271	-1746.525	1	3156.487	-33.59457	-3.180239E-006	0.0055268	8
	1	4	794390.6	2980.887	-1652.199	1	3408.145	-28.99804	1.141031E-007	0.0049926	8
	2	5	630984.4	3294.696	-1522.085	1	3629.292	-24.79602	6.243455E-007	0.0044381	8
	3	7	501234.4	3531.632	-1361.028	1	3784.815	-21.07578	5.67228E-006	0.0034775	8
	4	8	398109.4	3745.091	-1182.659	1	3927.39	-17.52556	-1.282911E-006	0.0046224	8
	5	10	316265.6	3897.438	-1056.292	1	4038.041	-15.16416	-6.788857E-007	0.0046683	8
	6	11	251203.1	4016.177	-887.067	1	4112.976	-12.45514	1.926413E-006	0.0040481	8
	7	12	199546.9	4107.785	-776.877	1	4180.603	-10.70947	-3.289329E-006	0.0051141	8
	8	14	158578.1	4143.796	-658.765	1	4195.833	-9.033073	5.209986E-007	0.0043354	8
	9	15	125953.1	4237.981	-544.9728	1	4272.877	-7.327597	1.225227E-006	0.0022544	7
	10	17	100078.1	4276.157	-478.263	1	4302.819	-6.381674	7.630803E-008	0.0042553	7
	11	18	79453.13	4310.921	-440.9782	1	4333.417	-5.840656	-1.079759E-008	0.0044196	7
	12	19	63140.62	4344.27	-416.3914	1	4364.18	-5.474985	-4.347235E-008	0.0045126	7
	13	20	50203.12	4373.604	-404.4061	1	4392.261	-5.282843	-9.368626E-010	0.0043204	7
	14	22	39890.62	4407.106	-403.3972	1	4425.53	-5.229902	7.806765E-008	0.0042442	7
	15	23	31640.63	4435.091	-415.1571	1	4454.48	-5.347722	1.230624E-009	0.0043147	7
	16	24	25171.88	4468.274	-436.4153	1	4489.536	-5.578373	-4.102046E-008	0.0044293	7
	17	26	20015.62	4502.264	-471.6227	1	4526.898	-5.980057	-4.280662E-008	0.0045084	7
	18	27	15890.62	4540.838	-522.051	1	4570.75	-6.558386	-1.0646E-008	0.0044076	7
	19	28	12609.37	4580.925	-579.9035	1	4617.484	-7.214749	-3.973746E-008	0.004432	7
	20	30	10078.13	4628.292	-659.4366	1	4675.034	-8.108895	-4.01125E-008	0.0044278	7
	21	31	8015.625	4676.234	-755.2744	1	4736.835	-9.174803	3.361628E-008	0.0043402	7
	22	32	6328.125	4738.167	-876.6614	1	4818.585	-10.48239	-3.98953E-008	0.0043967	7
	23	34	5015.625	4806.163	-1024.21	1	4914.083	-12.02998	-2.043795E-008	0.0043569	7
	24	35	3984.375	4882.566	-1199.594	1	5027.771	-13.80354	-4.007812E-008	0.0044308	7
	25	36	3170.956	4970.838	-1409.404	1	5166.783	-15.82986	-1.124607E-008	0.0043979	7
	26	38	2527.573	5072.73	-1659.999	1	5337.433	-18.12015	-9.686481E-009	0.0043957	7
	27	39	1976.103	5198.443	-1987.031	1	5565.259	-20.91865	-1.756099E-008	0.0045246	7
	28	40	1577.524	5333.127	-2347.782	1	5827.034	-23.76035	5.034514E-008	0.0042266	7
	29	42	1265.625	5485.688	-2773.804	1	6147.093	-26.82316	-2.95095E-008	0.0043751	7
	30	43	998.264	5668.802	-3321.316	1	6570.119	-30.36578	1.307339E-007	0.00416	7
	31	44	796.875	5871.727	-3947.803	1	7075.473	-33.91456	2.292903E-008	0.0042839	7
	32	46	627.7902	6118.555	-4759.134	1	7751.521	-37.87649	-1.917614E-008	0.0045129	7
	33	47	505.5147	6379.057	-5646.808	1	8519.319	-41.51559	3.637665E-008	0.0043442	7
	34	48	397.9953	6701.688	-6841.216	1	9576.79	-45.59028	6.62904E-009	0.0043827	7
	35	50	315.5048	7074.167	-8261.57	1	10876.46	-49.42742	1.200226E-009	0.00433	6
	36	51	252.4038	7491.285	-9929.99	1	12438.81	-52.96872	7.689399E-010	0.0043258	6
	37	53	198.6229	8023.168	-12121.56	1	14536.28	-56.49972	1.114138E-009	0.004329	6
	38	54	158.3615	8628.177	-14662.9	1	17013.11	-59.52592	1.666629E-009	0.0043253	6
	39	55	125.558	9374.846	-17850.6	1	20162.63	-62.29227	1.228395E-009	0.00432	6
	40	57	100.4464	10235.66	-21590.53	1	23893.93	-64.63525	7.095649E-010	0.0043297	6
	41	58	79.00281	11417.21	-26459.06	1	28817.27	-66.65958	1.501572E-009	0.0043221	6
	42	59	63.3446	12683.63	-32228.57	1	34634.59	-68.51777	5.52962E-010	0.0043202	6
	43	61	49.86702	14429.17	-39171.74	1	41744.77	-69.7784	1.129909E-009	0.0043237	6
	44	62	39.72458	16638.96	-47857.59	1	50667.58	-70.82864	1.080686E-009	0.0043257	6
	45	63	31.6723	19190.45	-58076.55	1	61165.01	-71.7147	1.12589E-009	0.0043241	6
	46	65	24.93351	22941.29	-71336.93	1	74935.04	-72.17269	1.136952E-009	0.0043204	6
	47	66	19.86229	27444.29	-86648.22	1	90890.61	-72.42532	1.341828E-009	0.0043242	6
	48	67	15.83615	33153.05	-105364.3	1	110457	-72.53373	1.464139E-009	0.0043277	5
	49	69	12.40079	41731.87	-129098.1	1	135675.6	-72.0862	3.434224E-011	0.0043316	5
	50	70	9.93114	51190.48	-155020.6	1	163254	-71.72588	1.852587E-010	0.0043249	5
	51	72	7.944915	63777.39	-185733.9	1	196378.8	-71.04853	9.500616E-010	0.0043213	5
	52	73	6.317385	81241.77	-222636.1	1	236995.9	-69.95255	7.288162E-010	0.0043218	5
	53	75	5.008013	103456.4	-266372.5	1	285757.8	-68.77433	5.740169E-010	0.0043339	5
	54	78	3.945707	132840.1	-318073.1	1	344698.4	-67.33262	1.526023E-010	0.0043206	5
	55	80	3.158693	166950.9	-372062.2	1	407802.5	-65.83338	9.277414E-011	0.0043063	5
	56	84	2.504006	210238.5	-435320.8	1	483429.8	-64.22174	4.739855E-010	0.0043282	5
	57	86	1.998082	261320.5	-503213.8	1	567020.8	-62.55701	3.503079E-010	0.0043583	5
	58	90	1.584686	320965.4	-578393.9	1	661481.9	-60.973	3.138419E-010	0.004319	5
	59	93	1.266892	390762.6	-659184.3	1	766302.4	-59.34065	9.909465E-011	0.0043654	5
	60	97	0.999041	471074.9	-751577.6	1	887006.4	-57.92128	1.824337E-010	0.0042892	5
