EXPLAIN
TAG	EISPOT
TITLE	LABEL	Potentiostatic EIS	Test &Identifier
DATE	LABEL	9/24/2019	Date
TIME	LABEL	9:59:54	Time
NOTES	NOTES	1	&Notes...
	
PSTAT	PSTAT	REF600-11020	Potentiostat
VDC	POTEN	0.00000E+000	T	DC &Voltage (V)
FREQINIT	QUANT	1.00000E+006	Initial Fre&q. (Hz)
FREQFINAL	QUANT	1.00000E+000	Final Fre&q. (Hz)
PTSPERDEC	QUANT	1.00000E+001	Points/&decade
VAC	QUANT	2.50000E+001	AC &Voltage (mV rms)
AREA	QUANT	1.00000E-002	&Area (cm^2)
CONDIT	TWOPARAM	T	5.00000E+000	0.00000E+000	Conditionin&g	Time(s)	E(V)
DELAY	TWOPARAM	T	5.00000E+000	0.00000E+000	Init. De&lay	Time(s)	Stab.(mV/s)
SPEED	SELECTOR	1	&Optimize for:
ZGUESS	QUANT	1.00000E+004	E&stimated Z (ohms)
OCVCURVE	TABLE	19
	Pt	T	Vf	Vm	Ach	Over
	#	s	V vs. Ref.	V	V	bits
	0	0.258333	1.46964E-003	1.46964E-003	4.90000E-004	...........
	1	0.516667	1.46123E-003	1.02969E-003	5.06033E-004	...........
	2	0.775	1.40918E-003	5.89646E-004	5.02900E-004	...........
	3	1.03333	1.26122E-003	2.06114E-004	4.90300E-004	...........
	4	1.29167	9.97053E-004	-1.53535E-004	4.93567E-004	...........
	5	1.55	6.49584E-004	-5.00240E-004	4.98267E-004	...........
	6	1.80833	2.71394E-004	-8.11176E-004	5.04200E-004	...........
	7	2.06667	-9.98386E-005	-1.09394E-003	4.97067E-004	...........
	8	2.325	-4.46761E-004	-1.35284E-003	4.97600E-004	...........
	9	2.58333	-7.65300E-004	-1.63690E-003	5.01067E-004	...........
	10	2.84167	-1.06003E-003	-1.90624E-003	4.91200E-004	...........
	11	3.1	-1.33990E-003	-2.16144E-003	4.95933E-004	...........
	12	3.35833	-1.61133E-003	-2.39295E-003	5.01367E-004	...........
	13	3.61667	-1.87443E-003	-2.60782E-003	5.03833E-004	...........
	14	3.875	-2.12590E-003	-2.83531E-003	4.97367E-004	...........
	15	4.13333	-2.36461E-003	-3.05653E-003	4.95300E-004	...........
	16	4.39167	-2.59305E-003	-3.24448E-003	5.01000E-004	...........
	17	4.65	-2.81343E-003	-3.45196E-003	5.01367E-004	...........
	18	4.90833	-3.02592E-003	-3.63585E-003	4.99067E-004	...........
EOC	QUANT	-0.0030259	Open Circuit (V)
PSTATMODEL	IQUANT	4	Pstat Model
PSTATSECTION	LABEL	REF600-11020	Pstat Section
PSTATSERIALNO	LABEL	11020	Pstat Serial Number
CTRLMODE	IQUANT	1	Control Mode
IESTAB	IQUANT	0	I/E Stability
CASPEED	IQUANT	1	Control Amp Speed
CONVENTION	IQUANT	1	Current Convention
ICHRANGE	IQUANT	2	Ich Range
ICHRANGEMODE	TOGGLE	F	Ich Auto Range
ICHOFFSETENABLE	TOGGLE	T	Ich Offset Enable
ICHOFFSET	QUANT	0	Ich Offset (V)
ICHFILTER	IQUANT	3	Ich Filter
VCHRANGE	IQUANT	2	Vch Range
VCHRANGEMODE	TOGGLE	F	Vch Auto Range
VCHOFFSETENABLE	TOGGLE	T	Vch Offset Enable
VCHOFFSET	QUANT	0	Vch Offset (V)
VCHFILTER	IQUANT	3	Vch Filter
ACHRANGE	IQUANT	2	Ach Range
ACHOFFSETENABLE	TOGGLE	F	Ach Offset Enable
ACHOFFSET	QUANT	0	Ach Offset (V)
ACHFILTER	IQUANT	3	Ach Filter
IERANGELOWERLIMIT	IQUANT	1	I/E Range Lower Limit
IERANGEMODE	TOGGLE	F	I/E AutoRange
IERANGE	IQUANT	5	I/E Range
POSFEEDENABLE	TOGGLE	F	Positive Feedback IR Comp
POSFEEDRESISTANCE	QUANT	0	Positive Feedback Resistance (ohm)
ACHSELECT	IQUANT	0	Ach Select
CABLEID	IQUANT	14	Cable ID
DCCALDATE	LABEL	8/19/2019	DC Calibration Date
ACCALDATE	LABEL	8/19/2019	AC Calibration Date
THERMOSELECT	IQUANT	1	Thermo Select
FRAMEWORKVERSION	QUANT	6.33	Framework Version
INSTRUMENTVERSION	LABEL	3.50	Instrument Version
ZCURVE	TABLE
	Pt	Time	Freq	Zreal	Zimag	Zsig	Zmod	Zphz	Idc	Vdc	IERange
	#	s	Hz	ohm	ohm	V	ohm	°	A	V	#
	0	2	1000078	2132.202	-2004.459	1	2926.455	-43.23123	-2.495267E-006	-0.0002024	8
	1	3	794390.6	2551.271	-2045.088	1	3269.766	-38.71552	-2.551774E-006	-0.0001787	8
	2	5	630984.4	2976.592	-2024.161	1	3599.629	-34.21673	8.886472E-007	-0.0012464	8
	3	6	501234.4	3380.406	-1913.331	1	3884.325	-29.51013	-1.252417E-007	-0.0015105	8
	4	7	398109.4	3734.075	-1751.399	1	4124.405	-25.12806	-7.780761E-007	-0.0010624	8
	5	9	316265.6	4023.782	-1586.168	1	4325.131	-21.51428	4.236505E-006	-0.0022112	8
	6	10	251203.1	4240.111	-1377.603	1	4458.288	-17.99887	-2.711127E-006	-0.001003	8
	7	12	199546.9	4416.421	-1212.721	1	4579.898	-15.3546	9.267077E-007	-0.001578	8
	8	13	158578.1	4521.524	-1039.97	1	4639.582	-12.953	-9.54228E-007	-0.0012377	8
	9	15	125953.1	4678.93	-863.3351	1	4757.913	-10.45438	-7.676539E-007	-0.0004039	7
	10	16	100078.1	4740.272	-760.866	1	4800.947	-9.118824	7.663152E-008	-0.0016511	7
	11	17	79453.13	4801.613	-685.0916	1	4850.241	-8.120125	-2.709512E-008	-0.0014986	7
	12	19	63140.62	4855.126	-627.6179	1	4895.524	-7.365728	-3.127223E-008	-0.0014329	7
	13	20	50203.12	4902.623	-589.6253	1	4937.952	-6.857872	-4.88137E-008	-0.0013242	7
	14	21	39890.62	4949.33	-567.0246	1	4981.705	-6.53565	7.743008E-008	-0.0016586	7
	15	23	31640.63	4995.074	-559.4377	1	5026.305	-6.390375	-4.849489E-008	-0.0013219	7
	16	24	25171.88	5039.612	-568.5907	1	5071.586	-6.437135	-4.02516E-008	-0.001481	7
	17	25	20015.62	5085.753	-591.2413	1	5120.005	-6.631122	-2.791709E-008	-0.0014483	7
	18	27	15890.62	5136.055	-629.2913	1	5174.463	-6.985306	-5.459104E-008	-0.0014097	7
	19	28	12609.37	5191.675	-678.269	1	5235.794	-7.44328	6.645515E-008	-0.0016085	7
	20	29	10078.13	5245.055	-746.8774	1	5297.965	-8.104235	-5.376592E-008	-0.0014141	7
	21	31	8015.625	5307.139	-833.5364	1	5372.198	-8.925927	7.862086E-008	-0.0016628	7
	22	32	6328.125	5375.462	-945.4154	1	5457.967	-9.97495	-1.451683E-008	-0.0014716	7
	23	34	5015.625	5448.163	-1081.081	1	5554.387	-11.22343	7.880681E-008	-0.0016683	7
	24	35	3984.375	5524.116	-1250.385	1	5663.861	-12.754	-5.474419E-008	-0.0014166	7
	25	36	3170.956	5610.15	-1452.792	1	5795.204	-14.51826	1.023811E-008	-0.0015799	7
	26	38	2527.573	5704.254	-1701.613	1	5952.647	-16.61016	-3.322719E-008	-0.0014967	7
	27	39	1976.103	5816.234	-2034.129	1	6161.677	-19.27641	-2.143158E-011	-0.001477	7
	28	40	1577.524	5935.091	-2406.28	1	6404.334	-22.06924	3.949584E-008	-0.0016367	7
	29	42	1265.625	6075.394	-2859.729	1	6714.794	-25.20668	-4.535433E-008	-0.0013351	7
	30	43	998.264	6231.939	-3429.296	1	7113.166	-28.823	-1.473335E-008	-0.0014727	7
	31	44	796.875	6418.56	-4098.749	1	7615.619	-32.56139	7.922374E-008	-0.0016681	7
	32	46	627.7902	6634.752	-4966.22	1	8287.537	-36.81545	8.113354E-008	-0.0016667	7
	33	47	505.5147	6868.088	-5927.296	1	9072.126	-40.79485	-3.41303E-008	-0.001497	7
	34	49	397.9953	7157.483	-7230.482	1	10173.96	-45.2907	9.533204E-010	-0.0015465	6
	35	50	315.5048	7484.251	-8791.798	1	11545.98	-49.59303	5.551487E-010	-0.0015442	6
	36	51	252.4038	7851.498	-10636.87	1	13220.78	-53.56749	1.92986E-009	-0.0015468	6
	37	53	198.6229	8322.457	-13084.83	1	15507.29	-57.54207	1.240905E-009	-0.0015494	6
	38	54	158.3615	8869.11	-15954.64	1	18254.09	-60.93052	1.080834E-009	-0.0015509	6
	39	55	125.558	9559.9	-19569.86	1	21780.06	-63.96443	1.431024E-009	-0.0015471	6
	40	57	100.4464	10386.8	-23869.16	1	26031.18	-66.48345	2.079819E-009	-0.001547	6
	41	58	79.00281	11523.41	-29478.27	1	31650.55	-68.64887	4.20183E-010	-0.001549	6
	42	59	63.3446	13311.3	-35707.2	1	38107.68	-69.55504	1.379005E-009	-0.0015471	6
	43	61	49.86702	14692.64	-44536.2	1	46897.2	-71.74211	2.942582E-010	-0.0015492	6
	44	62	39.72458	17399.55	-54183.29	1	56908.46	-72.19694	1.165656E-009	-0.0015453	6
	45	64	31.6723	20858.21	-66018.98	1	69235.61	-72.46645	1.08236E-009	-0.0015443	6
	46	65	24.93351	25314.08	-81153.09	1	85009.56	-72.67574	9.386755E-010	-0.0015488	6
	47	66	19.86229	30855.54	-98272.4	1	103002.6	-72.56878	1.202826E-009	-0.0015419	6
	48	68	15.83615	36967.12	-119480.8	1	125068.9	-72.80804	-1.084983E-009	-0.0015487	5
	49	69	12.40079	48861.2	-145518.5	1	153502.6	-71.43933	8.621052E-010	-0.001546	5
	50	71	9.93114	61497.93	-173318.3	1	183905.5	-70.46397	1.204618E-009	-0.0015449	5
	51	72	7.944915	76651.13	-206833.4	1	220579.8	-69.66562	4.585747E-010	-0.0015426	5
	52	74	6.317385	96958.7	-245656.9	1	264099	-68.46127	3.796851E-010	-0.0015468	5
	53	76	5.008013	123402.4	-291750.8	1	316775.5	-67.07301	3.164634E-010	-0.0015455	5
	54	78	3.945707	156571.5	-345441.2	1	379268	-65.61755	2.742779E-010	-0.0015513	5
	55	81	3.158693	195497.5	-401505.3	1	446571.2	-64.03802	5.136843E-010	-0.001541	5
	56	84	2.504006	244399.5	-466644.6	1	526771.6	-62.35724	1.328396E-010	-0.0015326	5
	57	87	1.998082	300668.1	-534313.8	1	613100.8	-60.63275	4.899329E-010	-0.0015836	5
	58	90	1.584686	366977.3	-611161.9	1	712875.3	-59.01694	2.43571E-010	-0.0015503	5
	59	94	1.266892	442234.4	-689557.2	1	819182.8	-57.32669	4.128053E-010	-0.0015861	5
	60	98	0.999041	529131.3	-780695.1	1	943114.3	-55.87178	2.727097E-010	-0.0015048	5
