EXPLAIN
TAG	EISPOT
TITLE	LABEL	Potentiostatic EIS	Test &Identifier
DATE	LABEL	11/9/2019	Date
TIME	LABEL	11:04:27	Time
NOTES	NOTES	2	&Notes...
	
	
PSTAT	PSTAT	REF600-11020	Potentiostat
VDC	POTEN	0.00000E+000	T	DC &Voltage (V)
FREQINIT	QUANT	1.00000E+006	Initial Fre&q. (Hz)
FREQFINAL	QUANT	1.00000E+000	Final Fre&q. (Hz)
PTSPERDEC	QUANT	1.00000E+001	Points/&decade
VAC	QUANT	2.50000E+001	AC &Voltage (mV rms)
AREA	QUANT	1.00000E-002	&Area (cm^2)
CONDIT	TWOPARAM	T	5.00000E+000	0.00000E+000	Conditionin&g	Time(s)	E(V)
DELAY	TWOPARAM	T	5.00000E+000	0.00000E+000	Init. De&lay	Time(s)	Stab.(mV/s)
SPEED	SELECTOR	0	&Optimize for:
ZGUESS	QUANT	1.00000E+005	E&stimated Z (ohms)
OCVCURVE	TABLE	19
	Pt	T	Vf	Vm	Ach	Over
	#	s	V vs. Ref.	V	V	bits
	0	0.258333	1.60436E-002	1.60436E-002	5.37166E-004	...........
	1	0.516667	1.60548E-002	1.66296E-002	5.35366E-004	...........
	2	0.775	1.61193E-002	1.69600E-002	5.41499E-004	...........
	3	1.03333	1.62973E-002	1.78021E-002	5.37799E-004	...........
	4	1.29167	1.66247E-002	1.82338E-002	5.36566E-004	...........
	5	1.55	1.70816E-002	1.85290E-002	5.36399E-004	...........
	6	1.80833	1.76036E-002	1.94830E-002	5.37066E-004	...........
	7	2.06667	1.81409E-002	1.96665E-002	5.34699E-004	...........
	8	2.325	1.86752E-002	2.00126E-002	5.40766E-004	...........
	9	2.58333	1.91845E-002	2.07855E-002	5.43033E-004	...........
	10	2.84167	1.96616E-002	2.09989E-002	5.38833E-004	...........
	11	3.1	2.01216E-002	2.13228E-002	5.41366E-004	...........
	12	3.35833	2.05679E-002	2.21625E-002	5.39333E-004	...........
	13	3.61667	2.10064E-002	2.22205E-002	5.43599E-004	...........
	14	3.875	2.14442E-002	2.25373E-002	5.39866E-004	...........
	15	4.13333	2.18611E-002	2.31137E-002	5.37633E-004	...........
	16	4.39167	2.22410E-002	2.31251E-002	5.34966E-004	...........
	17	4.65	2.25932E-002	2.37152E-002	5.34500E-004	...........
	18	4.90833	2.29298E-002	2.39280E-002	5.41066E-004	...........
EOC	QUANT	0.0229298	Open Circuit (V)
PSTATMODEL	IQUANT	4	Pstat Model
PSTATSECTION	LABEL	REF600-11020	Pstat Section
PSTATSERIALNO	LABEL	11020	Pstat Serial Number
CTRLMODE	IQUANT	1	Control Mode
IESTAB	IQUANT	0	I/E Stability
CASPEED	IQUANT	1	Control Amp Speed
CONVENTION	IQUANT	1	Current Convention
ICHRANGE	IQUANT	2	Ich Range
ICHRANGEMODE	TOGGLE	F	Ich Auto Range
ICHOFFSETENABLE	TOGGLE	T	Ich Offset Enable
ICHOFFSET	QUANT	0	Ich Offset (V)
ICHFILTER	IQUANT	3	Ich Filter
VCHRANGE	IQUANT	2	Vch Range
VCHRANGEMODE	TOGGLE	F	Vch Auto Range
VCHOFFSETENABLE	TOGGLE	T	Vch Offset Enable
VCHOFFSET	QUANT	0	Vch Offset (V)
VCHFILTER	IQUANT	3	Vch Filter
ACHRANGE	IQUANT	2	Ach Range
ACHOFFSETENABLE	TOGGLE	F	Ach Offset Enable
ACHOFFSET	QUANT	0	Ach Offset (V)
ACHFILTER	IQUANT	3	Ach Filter
IERANGELOWERLIMIT	IQUANT	1	I/E Range Lower Limit
IERANGEMODE	TOGGLE	F	I/E AutoRange
IERANGE	IQUANT	5	I/E Range
POSFEEDENABLE	TOGGLE	F	Positive Feedback IR Comp
POSFEEDRESISTANCE	QUANT	0	Positive Feedback Resistance (ohm)
ACHSELECT	IQUANT	0	Ach Select
CABLEID	IQUANT	14	Cable ID
DCCALDATE	LABEL	8/19/2019	DC Calibration Date
ACCALDATE	LABEL	8/19/2019	AC Calibration Date
THERMOSELECT	IQUANT	1	Thermo Select
FRAMEWORKVERSION	QUANT	6.33	Framework Version
INSTRUMENTVERSION	LABEL	3.50	Instrument Version
ZCURVE	TABLE
	Pt	Time	Freq	Zreal	Zimag	Zsig	Zmod	Zphz	Idc	Vdc	IERange
	#	s	Hz	ohm	ohm	V	ohm	°	A	V	#
	0	2	1000078	2239.309	-1790.002	1	2866.812	-38.63725	-8.771446E-006	0.0264146	8
	1	2	794390.6	2616.011	-1794.135	1	3172.134	-34.44344	2.511311E-006	0.0257527	8
	2	2	630984.4	2980.721	-1749.292	1	3456.114	-30.40734	5.286561E-006	0.024742	8
	3	3	501234.4	3292.272	-1638.962	1	3677.67	-26.46509	1.816138E-006	0.0251054	8
	4	3	398109.4	3580.041	-1504.731	1	3883.415	-22.79755	-1.027318E-006	0.0242588	8
	5	3	316265.6	3822.257	-1346.785	1	4052.589	-19.41008	-2.701408E-006	0.024818	8
	6	4	251203.1	4027.668	-1179.183	1	4196.735	-16.31849	-7.317548E-006	0.0256985	8
	7	4	199546.9	4169.629	-1068.66	1	4304.398	-14.37526	-2.944751E-006	0.0244886	8
	8	4	158578.1	4288.417	-905.9559	1	4383.066	-11.92871	-4.367261E-006	0.0252769	8
	9	4	125953.1	4403.934	-751.5974	1	4467.609	-9.68507	-3.596974E-006	0.0275775	7
	10	5	100078.1	4488.932	-649.4639	1	4535.671	-8.232495	1.404361E-006	0.0226447	7
	11	5	79453.13	4534.338	-589.8278	1	4572.54	-7.411433	8.478266E-008	0.0258141	7
	12	5	63140.62	4584.878	-533.2696	1	4615.787	-6.634293	1.434138E-006	0.0230701	7
	13	6	50203.12	4625.805	-483.3544	1	4650.989	-5.96524	-4.160731E-007	0.0234572	7
	14	6	39890.62	4662.346	-470.8448	1	4686.061	-5.766683	-3.744315E-007	0.0263087	7
	15	6	31640.63	4689.261	-455.5002	1	4711.332	-5.548127	-1.173778E-006	0.0267231	7
	16	7	25171.88	4736.278	-460.4589	1	4758.608	-5.55282	6.220308E-007	0.022379	7
	17	7	20015.62	4777.261	-475.3707	1	4800.854	-5.682622	1.090926E-006	0.0242526	7
	18	7	15890.62	4796.637	-507.8967	1	4823.452	-6.044298	5.017879E-007	0.0252426	7
	19	8	12609.37	4817.76	-562.6285	1	4850.501	-6.660955	-9.583861E-007	0.024341	7
	20	8	10078.13	4861.358	-613.0495	1	4899.861	-7.187437	-3.752926E-007	0.0263073	7
	21	8	8015.625	4893.66	-701.2654	1	4943.65	-8.155013	-1.426705E-006	0.0266452	7
	22	9	6328.125	4954.188	-816.6828	1	5021.051	-9.360847	1.276398E-006	0.0223397	7
	23	9	5015.625	4987.791	-964.24	1	5080.139	-10.94145	1.016972E-006	0.0222248	7
	24	9	3984.375	5031.627	-1146.513	1	5160.597	-12.83633	8.232292E-008	0.0257888	7
	25	10	3170.956	5093.121	-1367.025	1	5273.39	-15.02442	9.079284E-008	0.0257909	7
	26	10	2527.573	5168.225	-1644.579	1	5423.577	-17.65158	1.007969E-006	0.0222239	7
	27	10	1976.103	5250.69	-1987.956	1	5614.42	-20.73709	-9.535448E-007	0.0243321	7
	28	11	1577.524	5349.419	-2417.036	1	5870.123	-24.31495	-3.711529E-007	0.026296	7
	29	11	1265.625	5463.098	-2906.87	1	6188.322	-28.01708	7.954404E-007	0.0248096	7
	30	11	998.264	5588.565	-3542.002	1	6616.483	-32.3663	8.025773E-007	0.024801	7
	31	11	796.875	5753.736	-4280.508	1	7171.348	-36.6475	-3.73147E-007	0.0262899	7
	32	12	627.7902	5958.043	-5282.816	1	7962.815	-41.56243	9.16853E-008	0.0257915	7
	33	13	505.5147	6151.281	-6346.397	1	8838.27	-45.89444	-1.420025E-006	0.0266318	7
	34	13	397.9953	6428.137	-7821.383	1	10123.98	-50.58434	1.53894E-009	0.0245567	7
	35	13	315.5048	6747.106	-9591.89	1	11727.22	-54.87676	1.341621E-010	0.024493	6
	36	13	252.4038	7117.23	-11688.25	1	13684.67	-58.66185	-9.070216E-010	0.0245066	6
	37	14	198.6229	7622.801	-14481.15	1	16364.92	-62.23791	-8.204861E-010	0.0245064	6
	38	14	158.3615	8206.337	-17728.27	1	19535.49	-65.16079	-7.70738E-010	0.0244932	6
	39	14	125.558	9010.365	-21851.59	1	23636.39	-67.59151	9.264739E-011	0.0245	6
	40	15	100.4464	10050.38	-26639.94	1	28472.73	-69.33013	-1.907975E-009	0.0245011	6
	41	15	79.00281	11590.18	-33163.7	1	35130.66	-70.73629	-2.260886E-009	0.0245012	6
	42	15	63.3446	12197.05	-40254.32	1	42061.6	-73.1432	-3.840326E-010	0.0244973	6
	43	16	49.86702	15063.42	-49670.48	1	51904.36	-73.12917	-1.271177E-009	0.0244997	6
	44	16	39.72458	18883.69	-60913.96	1	63773.86	-72.77625	-7.558761E-010	0.0244929	6
	45	17	31.6723	23445.09	-74470.27	1	78073.64	-72.5247	-1.708553E-009	0.024495	6
	46	17	24.93351	29795.02	-90519.53	1	95297.1	-71.78075	-1.105205E-010	0.0244911	6
	47	17	19.86229	37593.34	-108735.8	1	115051	-70.92815	-1.12877E-009	0.0244976	5
	48	17	15.83615	48450.41	-128383.1	1	137221.2	-69.32403	-1.712037E-009	0.0245078	5
	49	18	12.40079	60524.9	-158270.7	1	169448.7	-69.07245	9.114057E-010	0.0245092	5
	50	18	9.93114	80529.27	-184366	1	201185.9	-66.40476	2.83152E-010	0.0245	5
	51	19	7.944915	101749	-214688.8	1	237579.7	-64.64198	-8.453339E-011	0.0244942	5
	52	19	6.317385	127841.6	-249046.9	1	279942.6	-62.82751	-2.592896E-010	0.0245038	5
	53	20	5.008013	159145.7	-287195.7	1	328342.3	-61.00755	-4.341789E-011	0.0245111	5
	54	21	3.945707	196106.6	-327529.4	1	381750.3	-59.08914	-4.95431E-010	0.0244872	5
	55	23	3.158693	236032.5	-369789.5	1	438697.6	-57.45036	-3.922213E-010	0.0244761	5
	56	24	2.504006	280804.9	-418296.1	1	503808.5	-56.12628	-2.580006E-010	0.024491	5
	57	25	1.998082	328244.4	-469276.5	1	572682.1	-55.0284	-4.955795E-010	0.0244619	5
	58	27	1.584686	381771.2	-531231.7	1	654183.7	-54.29698	-5.53888E-010	0.0244474	5
	59	29	1.266892	436069.4	-597871.4	1	740004.6	-53.89412	-4.847756E-010	0.0244806	5
	60	31	0.999041	500384.2	-679190.6	1	843613.8	-53.61959	-4.228721E-010	0.024509	5
