EXPLAIN
TAG	EISPOT
TITLE	LABEL	Potentiostatic EIS	Test &Identifier
DATE	LABEL	10/6/2019	Date
TIME	LABEL	10:03:15	Time
NOTES	NOTES	2	&Notes...
	
	
PSTAT	PSTAT	REF600-11020	Potentiostat
VDC	POTEN	0.00000E+000	T	DC &Voltage (V)
FREQINIT	QUANT	1.00000E+006	Initial Fre&q. (Hz)
FREQFINAL	QUANT	1.00000E+000	Final Fre&q. (Hz)
PTSPERDEC	QUANT	1.00000E+001	Points/&decade
VAC	QUANT	2.50000E+001	AC &Voltage (mV rms)
AREA	QUANT	1.00000E-002	&Area (cm^2)
CONDIT	TWOPARAM	T	5.00000E+000	0.00000E+000	Conditionin&g	Time(s)	E(V)
DELAY	TWOPARAM	T	5.00000E+000	0.00000E+000	Init. De&lay	Time(s)	Stab.(mV/s)
SPEED	SELECTOR	1	&Optimize for:
ZGUESS	QUANT	1.00000E+004	E&stimated Z (ohms)
OCVCURVE	TABLE	19
	Pt	T	Vf	Vm	Ach	Over
	#	s	V vs. Ref.	V	V	bits
	0	0.258333	7.32710E-003	7.32710E-003	5.35366E-004	...........
	1	0.516667	7.32665E-003	7.30344E-003	5.36733E-004	...........
	2	0.775	7.32390E-003	7.28231E-003	5.38133E-004	...........
	3	1.03333	7.31655E-003	7.28032E-003	5.41433E-004	...........
	4	1.29167	7.30538E-003	7.29387E-003	5.40333E-004	...........
	5	1.55	7.29622E-003	7.35134E-003	5.36099E-004	...........
	6	1.80833	7.29517E-003	7.26856E-003	5.39566E-004	...........
	7	2.06667	7.30069E-003	7.33959E-003	5.41433E-004	...........
	8	2.325	7.30709E-003	7.33525E-003	5.50766E-004	...........
	9	2.58333	7.31383E-003	7.34093E-003	5.39366E-004	...........
	10	2.84167	7.32282E-003	7.35999E-003	5.43766E-004	...........
	11	3.1	7.33354E-003	7.37273E-003	5.47499E-004	...........
	12	3.35833	7.34558E-003	7.40310E-003	5.43199E-004	...........
	13	3.61667	7.36078E-003	7.45814E-003	5.42833E-004	...........
	14	3.875	7.38182E-003	7.46058E-003	5.43066E-004	...........
	15	4.13333	7.40819E-003	7.47421E-003	5.47266E-004	...........
	16	4.39167	7.43515E-003	7.51190E-003	5.49099E-004	...........
	17	4.65	7.45910E-003	7.50998E-003	5.43099E-004	...........
	18	4.90833	7.47972E-003	7.52036E-003	5.42166E-004	...........
EOC	QUANT	0.0074797	Open Circuit (V)
PSTATMODEL	IQUANT	4	Pstat Model
PSTATSECTION	LABEL	REF600-11020	Pstat Section
PSTATSERIALNO	LABEL	11020	Pstat Serial Number
CTRLMODE	IQUANT	1	Control Mode
IESTAB	IQUANT	0	I/E Stability
CASPEED	IQUANT	1	Control Amp Speed
CONVENTION	IQUANT	1	Current Convention
ICHRANGE	IQUANT	2	Ich Range
ICHRANGEMODE	TOGGLE	F	Ich Auto Range
ICHOFFSETENABLE	TOGGLE	T	Ich Offset Enable
ICHOFFSET	QUANT	0	Ich Offset (V)
ICHFILTER	IQUANT	3	Ich Filter
VCHRANGE	IQUANT	2	Vch Range
VCHRANGEMODE	TOGGLE	F	Vch Auto Range
VCHOFFSETENABLE	TOGGLE	T	Vch Offset Enable
VCHOFFSET	QUANT	0	Vch Offset (V)
VCHFILTER	IQUANT	3	Vch Filter
ACHRANGE	IQUANT	2	Ach Range
ACHOFFSETENABLE	TOGGLE	F	Ach Offset Enable
ACHOFFSET	QUANT	0	Ach Offset (V)
ACHFILTER	IQUANT	3	Ach Filter
IERANGELOWERLIMIT	IQUANT	1	I/E Range Lower Limit
IERANGEMODE	TOGGLE	F	I/E AutoRange
IERANGE	IQUANT	6	I/E Range
POSFEEDENABLE	TOGGLE	F	Positive Feedback IR Comp
POSFEEDRESISTANCE	QUANT	0	Positive Feedback Resistance (ohm)
ACHSELECT	IQUANT	0	Ach Select
CABLEID	IQUANT	14	Cable ID
DCCALDATE	LABEL	8/19/2019	DC Calibration Date
ACCALDATE	LABEL	8/19/2019	AC Calibration Date
THERMOSELECT	IQUANT	1	Thermo Select
FRAMEWORKVERSION	QUANT	6.33	Framework Version
INSTRUMENTVERSION	LABEL	3.50	Instrument Version
ZCURVE	TABLE
	Pt	Time	Freq	Zreal	Zimag	Zsig	Zmod	Zphz	Idc	Vdc	IERange
	#	s	Hz	ohm	ohm	V	ohm	°	A	V	#
	0	1	1000078	2333.879	-2033.194	1	3095.298	-41.06124	1.588344E-006	0.0099683	8
	1	3	794390.6	2769.815	-2033.076	1	3435.881	-36.27909	4.736258E-006	0.0082754	8
	2	4	630984.4	3177.863	-1984.85	1	3746.792	-31.98834	-3.925374E-006	0.0099875	8
	3	5	501234.4	3538.968	-1858.489	1	3997.283	-27.70621	2.638754E-007	0.0089923	8
	4	7	398109.4	3881.679	-1680.448	1	4229.815	-23.40865	-2.594701E-006	0.0097662	8
	5	8	316265.6	4118.751	-1486.539	1	4378.802	-19.84551	1.298175E-007	0.0092241	8
	6	10	251203.1	4346.09	-1304.625	1	4537.68	-16.70889	-2.577026E-007	0.0089206	8
	7	11	199546.9	4482.513	-1142.492	1	4625.82	-14.29897	4.018117E-006	0.008235	8
	8	13	158578.1	4629.259	-971.244	1	4730.048	-11.84911	-1.902739E-007	0.0090208	8
	9	14	125953.1	4731.167	-776.3677	1	4794.443	-9.318981	-1.834357E-007	0.0090885	7
	10	15	100078.1	4805.481	-680.9856	1	4853.493	-8.06569	-6.985408E-008	0.009162	7
	11	17	79453.13	4858.593	-608.0686	1	4896.496	-7.133661	2.88306E-010	0.0089845	7
	12	18	63140.62	4905.336	-548.4726	1	4935.903	-6.379824	-6.889456E-008	0.0091208	7
	13	19	50203.12	4945.659	-506.4337	1	4971.521	-5.846689	-7.487749E-009	0.0090495	7
	14	21	39890.62	4982.354	-481.453	1	5005.561	-5.519448	-6.570507E-008	0.0092466	7
	15	22	31640.63	5018.064	-465.5883	1	5039.617	-5.300867	-3.945774E-008	0.0091337	7
	16	23	25171.88	5050.614	-466.4784	1	5072.11	-5.276909	4.792917E-008	0.0089689	7
	17	25	20015.62	5085.723	-477.0843	1	5108.051	-5.35915	3.999998E-008	0.0089074	7
	18	26	15890.62	5117.821	-506.4691	1	5142.82	-5.651695	1.260539E-007	0.0088497	7
	19	27	12609.37	5149.759	-550.9987	1	5179.152	-6.107131	1.273884E-007	0.0088499	7
	20	29	10078.13	5184.33	-610.2758	1	5220.125	-6.713703	-3.949524E-008	0.0091316	7
	21	30	8015.625	5222.195	-689.4167	1	5267.505	-7.520508	-3.738817E-009	0.009075	7
	22	31	6328.125	5262.171	-798.6514	1	5322.433	-8.630046	-4.489286E-008	0.0090788	7
	23	33	5015.625	5305.151	-935.6132	1	5387.021	-10.0018	-3.257488E-009	0.0090761	7
	24	34	3984.375	5351.333	-1106.604	1	5464.552	-11.68353	1.000222E-007	0.0089521	7
	25	35	3170.956	5412.769	-1318.165	1	5570.962	-13.68676	-2.926258E-008	0.0090906	7
	26	37	2527.573	5478.021	-1575.365	1	5700.043	-16.04413	4.180062E-010	0.0089873	7
	27	38	1976.103	5566.196	-1922.602	1	5888.883	-19.05526	-3.926866E-008	0.0091261	7
	28	40	1577.524	5659.137	-2312.268	1	6113.298	-22.22444	1.249819E-007	0.0088482	7
	29	41	1265.625	5767.763	-2771.444	1	6399.062	-25.66456	-3.9519E-008	0.0090373	7
	30	42	998.264	5900.867	-3378.557	1	6799.624	-29.79341	-3.316972E-008	0.0090311	7
	31	44	796.875	6054.509	-4091.228	1	7307.204	-34.04817	-6.417474E-009	0.0090462	7
	32	45	627.7902	6237.639	-5007.48	1	7998.937	-38.75696	-6.670379E-008	0.0092426	7
	33	46	505.5147	6409.936	-6040.506	1	8807.667	-43.30042	1.846779E-009	0.0089661	7
	34	48	397.9953	6690.177	-7418.057	1	9989.3	-47.95342	8.982671E-010	0.008994	6
	35	49	315.5048	6984.129	-9094.582	1	11466.89	-52.47776	4.7764E-010	0.0089942	6
	36	50	252.4038	7329.063	-11079.61	1	13284.31	-56.51572	1.395214E-009	0.0089879	6
	37	52	198.6229	7785.277	-13717.31	1	15772.61	-60.42287	9.254348E-010	0.0089983	6
	38	53	158.3615	8334.222	-16804.15	1	18757.37	-63.62034	9.428739E-010	0.0089913	6
	39	55	125.558	9055.822	-20708.89	1	22602.35	-66.38065	7.630523E-010	0.008993	6
	40	56	100.4464	9948.47	-25297.7	1	27183.55	-68.53246	2.56808E-010	0.0089908	6
	41	57	79.00281	11230.62	-31468.69	1	33412.65	-70.35941	1.037352E-010	0.0089877	6
	42	59	63.3446	13000.21	-38094.02	1	40251.21	-71.15694	1.086779E-009	0.0089883	6
	43	60	49.86702	14989.5	-47632.89	1	49935.73	-72.53184	1.332984E-010	0.0089865	6
	44	62	39.72458	17937.37	-57993.14	1	60703.82	-72.81307	3.852841E-010	0.0089851	6
	45	63	31.6723	21653.19	-70627.63	1	73872.34	-72.95538	1.285824E-009	0.0089851	6
	46	64	24.93351	27342.54	-86720.09	1	90928.48	-72.50011	8.667612E-010	0.0089844	6
	47	66	19.86229	34372.55	-105013.7	1	110495.9	-71.87595	2.392888E-010	0.0089856	5
	48	67	15.83615	43012.72	-126553.7	1	133663.5	-71.22826	-5.922689E-010	0.0089894	5
	49	68	12.40079	57212.71	-153071.4	1	163414.1	-69.50603	-5.126202E-011	0.0089892	5
	50	70	9.93114	72932.69	-181101.2	1	195235.3	-68.06448	-1.627891E-010	0.0089964	5
	51	71	7.944915	92878.23	-211763.7	1	231236.4	-66.31805	1.023201E-009	0.008991	5
	52	73	6.317385	118213.9	-248618.1	1	275291.6	-64.56967	3.505655E-010	0.0090035	5
	53	75	5.008013	149722.7	-288363.2	1	324915.7	-62.56094	2.820932E-010	0.008988	5
	54	78	3.945707	187142.3	-332312	1	381383.7	-60.61385	4.861261E-010	0.0089948	5
	55	80	3.158693	227693.3	-376894	1	440333.2	-58.86253	-9.240757E-011	0.0089805	5
	56	84	2.504006	274519.2	-426369.3	1	507101.1	-57.22442	5.733733E-010	0.0089936	5
	57	86	1.998082	324622.3	-478889.5	1	578545.4	-55.86805	2.932587E-010	0.0090191	5
	58	90	1.584686	379747.3	-536857.4	1	657589.4	-54.72624	1.695874E-010	0.0089504	5
	59	93	1.266892	435882.9	-604108.1	1	744943.3	-54.18837	2.531113E-010	0.0089965	5
	60	97	0.999041	502219.8	-685785	1	850015.2	-53.78362	-1.279258E-010	0.0089606	5
