EXPLAIN
TAG	EISPOT
TITLE	LABEL	Potentiostatic EIS	Test &Identifier
DATE	LABEL	11/5/2019	Date
TIME	LABEL	10:12:21	Time
NOTES	NOTES	2	&Notes...
	
	
PSTAT	PSTAT	REF600-11020	Potentiostat
VDC	POTEN	0.00000E+000	T	DC &Voltage (V)
FREQINIT	QUANT	1.00000E+006	Initial Fre&q. (Hz)
FREQFINAL	QUANT	1.00000E+000	Final Fre&q. (Hz)
PTSPERDEC	QUANT	1.00000E+001	Points/&decade
VAC	QUANT	2.50000E+001	AC &Voltage (mV rms)
AREA	QUANT	1.00000E-002	&Area (cm^2)
CONDIT	TWOPARAM	T	5.00000E+000	0.00000E+000	Conditionin&g	Time(s)	E(V)
DELAY	TWOPARAM	T	5.00000E+000	0.00000E+000	Init. De&lay	Time(s)	Stab.(mV/s)
SPEED	SELECTOR	1	&Optimize for:
ZGUESS	QUANT	1.00000E+005	E&stimated Z (ohms)
OCVCURVE	TABLE	19
	Pt	T	Vf	Vm	Ach	Over
	#	s	V vs. Ref.	V	V	bits
	0	0.258333	4.69786E-003	4.69786E-003	5.75741E-004	...........
	1	0.516667	4.69493E-003	4.54479E-003	5.75541E-004	...........
	2	0.775	4.67734E-003	4.41855E-003	5.74207E-004	...........
	3	1.03333	4.62864E-003	4.29149E-003	5.80041E-004	...........
	4	1.29167	4.54380E-003	4.19308E-003	5.68407E-004	...........
	5	1.55	4.43517E-003	4.11115E-003	5.73741E-004	...........
	6	1.80833	4.32153E-003	4.02596E-003	5.78741E-004	...........
	7	2.06667	4.21582E-003	3.95417E-003	5.76041E-004	...........
	8	2.325	4.12202E-003	3.89116E-003	5.77207E-004	...........
	9	2.58333	4.03925E-003	3.83312E-003	5.71974E-004	...........
	10	2.84167	3.96576E-003	3.77668E-003	5.71807E-004	...........
	11	3.1	3.89974E-003	3.72437E-003	5.75041E-004	...........
	12	3.35833	3.83931E-003	3.67109E-003	5.72274E-004	...........
	13	3.61667	3.78288E-003	3.62872E-003	5.73874E-004	...........
	14	3.875	3.72976E-003	3.58628E-003	5.69841E-004	...........
	15	4.13333	3.67992E-003	3.53742E-003	5.71141E-004	...........
	16	4.39167	3.63282E-003	3.49335E-003	5.72574E-004	...........
	17	4.65	3.58732E-003	3.45582E-003	5.71641E-004	...........
	18	4.90833	3.54292E-003	3.41482E-003	5.70674E-004	...........
EOC	QUANT	0.0035429	Open Circuit (V)
PSTATMODEL	IQUANT	4	Pstat Model
PSTATSECTION	LABEL	REF600-11020	Pstat Section
PSTATSERIALNO	LABEL	11020	Pstat Serial Number
CTRLMODE	IQUANT	1	Control Mode
IESTAB	IQUANT	0	I/E Stability
CASPEED	IQUANT	1	Control Amp Speed
CONVENTION	IQUANT	1	Current Convention
ICHRANGE	IQUANT	2	Ich Range
ICHRANGEMODE	TOGGLE	F	Ich Auto Range
ICHOFFSETENABLE	TOGGLE	T	Ich Offset Enable
ICHOFFSET	QUANT	0	Ich Offset (V)
ICHFILTER	IQUANT	3	Ich Filter
VCHRANGE	IQUANT	2	Vch Range
VCHRANGEMODE	TOGGLE	F	Vch Auto Range
VCHOFFSETENABLE	TOGGLE	T	Vch Offset Enable
VCHOFFSET	QUANT	0	Vch Offset (V)
VCHFILTER	IQUANT	3	Vch Filter
ACHRANGE	IQUANT	2	Ach Range
ACHOFFSETENABLE	TOGGLE	F	Ach Offset Enable
ACHOFFSET	QUANT	0	Ach Offset (V)
ACHFILTER	IQUANT	2	Ach Filter
IERANGELOWERLIMIT	IQUANT	1	I/E Range Lower Limit
IERANGEMODE	TOGGLE	F	I/E AutoRange
IERANGE	IQUANT	4	I/E Range
POSFEEDENABLE	TOGGLE	F	Positive Feedback IR Comp
POSFEEDRESISTANCE	QUANT	0	Positive Feedback Resistance (ohm)
ACHSELECT	IQUANT	0	Ach Select
CABLEID	IQUANT	14	Cable ID
DCCALDATE	LABEL	8/19/2019	DC Calibration Date
ACCALDATE	LABEL	8/19/2019	AC Calibration Date
THERMOSELECT	IQUANT	1	Thermo Select
FRAMEWORKVERSION	QUANT	6.33	Framework Version
INSTRUMENTVERSION	LABEL	3.50	Instrument Version
ZCURVE	TABLE
	Pt	Time	Freq	Zreal	Zimag	Zsig	Zmod	Zphz	Idc	Vdc	IERange
	#	s	Hz	ohm	ohm	V	ohm	°	A	V	#
	0	1	1000078	2314.613	-1906.824	1	2998.901	-39.48237	-1.009138E-006	0.0063899	8
	1	3	794390.6	2707.099	-1907.159	1	3311.441	-35.16481	-2.542592E-008	0.0049284	8
	2	4	630984.4	3075.928	-1836.828	1	3582.635	-30.84404	-3.227565E-006	0.0050706	8
	3	5	501234.4	3422.071	-1724.829	1	3832.18	-26.74952	7.862155E-006	0.0042308	8
	4	7	398109.4	3720.348	-1571.745	1	4038.734	-22.90273	-1.731792E-006	0.0055527	8
	5	8	316265.6	3960.691	-1400.807	1	4201.111	-19.47754	2.190261E-006	0.0053469	8
	6	9	251203.1	4152.34	-1246.361	1	4335.36	-16.70758	-2.144267E-006	0.0051428	8
	7	11	199546.9	4284.193	-1105.28	1	4424.473	-14.4663	6.679175E-006	0.0042355	8
	8	13	158578.1	4397.33	-939.4995	1	4496.573	-12.06005	6.30055E-007	0.0054355	8
	9	14	125953.1	4543.94	-782.7656	1	4610.87	-9.77417	5.99627E-007	0.0076475	7
	10	15	100078.1	4609.883	-698.4076	1	4662.488	-8.614924	-8.167652E-007	0.0047671	7
	11	17	79453.13	4672.29	-639.2561	1	4715.818	-7.790756	-1.270791E-006	0.0068347	7
	12	18	63140.62	4728.147	-591.8811	1	4765.05	-7.135309	-1.190585E-006	0.0055454	7
	13	20	50203.12	4782.904	-567.6324	1	4816.47	-6.768174	9.421166E-007	0.0047636	7
	14	21	39890.62	4836.675	-550.6071	1	4867.915	-6.494593	1.160939E-006	0.0041911	7
	15	22	31640.63	4884.471	-548.2724	1	4915.146	-6.404531	9.417182E-007	0.0047712	7
	16	24	25171.88	4931.831	-557.0159	1	4963.187	-6.443852	1.146487E-006	0.003037	7
	17	25	20015.62	4971.507	-566.2567	1	5003.652	-6.498009	-1.270876E-006	0.0068305	7
	18	26	15890.62	5021.507	-611.0125	1	5058.544	-6.937594	-1.045585E-006	0.0069058	7
	19	28	12609.37	5070.11	-660.5408	1	5112.957	-7.422764	-1.189043E-006	0.005535	7
	20	29	10078.13	5126.854	-725.4268	1	5177.921	-8.053633	1.271793E-006	0.0036935	7
	21	30	8015.625	5181.538	-830.9387	1	5247.742	-9.110682	-7.322506E-007	0.0068262	7
	22	32	6328.125	5228.125	-939.4921	1	5311.868	-10.1873	-3.28294E-007	0.0039583	7
	23	33	5015.625	5286.055	-1086.738	1	5396.607	-11.61734	-3.257749E-007	0.0039626	7
	24	35	3984.375	5344.878	-1289.919	1	5498.329	-13.56817	-3.559899E-007	0.006551	7
	25	36	3170.956	5414.824	-1500.038	1	5618.757	-15.48403	-1.415016E-006	0.0066306	7
	26	37	2527.573	5490.239	-1781.311	1	5771.984	-17.97569	-1.270454E-006	0.0068305	7
	27	39	1976.103	5586.278	-2164.132	1	5990.824	-21.17644	-1.045393E-006	0.0069039	7
	28	40	1577.524	5687.711	-2562.136	1	6238.157	-24.25007	-1.04189E-006	0.0069037	7
	29	41	1265.625	5801.792	-3117.086	1	6586.123	-28.24748	-1.268249E-006	0.0068202	7
	30	43	998.264	5956.709	-3813.929	1	7073.079	-32.6304	1.26288E-006	0.0033044	7
	31	44	796.875	6108.295	-4620.537	1	7659.023	-37.10519	1.270357E-006	0.0036909	7
	32	46	627.7902	6323.455	-5660.939	1	8487.185	-41.83582	-3.508491E-007	0.0065444	7
	33	47	505.5147	6550.156	-6852.482	1	9479.507	-46.29221	1.270983E-006	0.0036931	7
	34	48	397.9953	6878.207	-8436.824	1	10885.3	-50.81101	6.920194E-009	0.0049958	7
	35	50	315.5048	7278.828	-10353.66	1	12656.21	-54.89203	1.05976E-009	0.0049364	6
	36	51	252.4038	7764.223	-12613.81	1	14811.87	-58.38631	1.186027E-009	0.0049377	6
	37	53	198.6229	8449.076	-15597.18	1	17738.63	-61.55536	1.000441E-009	0.0049439	6
	38	54	158.3615	9304.664	-19062.22	1	21211.91	-63.98204	1.351621E-009	0.004936	6
	39	55	125.558	10468.61	-23373.03	1	25610.36	-65.87275	1.085301E-009	0.0049418	6
	40	57	100.4464	11936.66	-28403.66	1	30809.93	-67.20539	-3.338936E-010	0.00494	6
	41	58	79.00281	14229.05	-34866.53	1	37658.21	-67.7996	-6.007796E-010	0.0049426	6
	42	60	63.3446	17310.3	-42569.24	1	45954.18	-67.87144	5.092048E-010	0.0049323	6
	43	61	49.86702	20479.42	-51396.82	1	55326.66	-68.27485	-1.097016E-010	0.0049376	6
	44	62	39.72458	25816.41	-61509.65	1	66707.75	-67.23157	5.878499E-010	0.0049402	6
	45	64	31.6723	32550.18	-72822.37	1	79765.98	-65.91629	5.856346E-010	0.0049322	6
	46	65	24.93351	41505.21	-86725.15	1	96145.4	-64.425	8.512279E-010	0.0049357	6
	47	67	19.86229	52069.82	-101018.1	1	113648.3	-62.73115	6.948132E-010	0.0049463	5
	48	68	15.83615	65288.12	-115212.1	1	132425	-60.46075	8.081346E-010	0.0049416	5
	49	69	12.40079	80528.92	-132166.2	1	154767	-58.64603	9.109359E-010	0.0049402	5
	50	71	9.93114	97419.8	-150016	1	178872.7	-57.00045	7.63586E-010	0.0049538	5
	51	72	7.944915	114472.8	-168223.2	1	203477.4	-55.76544	3.035596E-010	0.0049326	5
	52	74	6.317385	134008.7	-188229.1	1	231059.6	-54.55124	1.031348E-010	0.0049499	5
	53	76	5.008013	154416.3	-211798.5	1	262112.6	-53.90526	1.686478E-010	0.0049362	5
	54	79	3.945707	176009	-240049.4	1	297662.3	-53.75039	4.828188E-010	0.0049542	5
	55	81	3.158693	197887.8	-271876.1	1	336268	-53.95062	-3.921602E-011	0.0049122	5
	56	85	2.504006	222528.1	-311945.4	1	383182.4	-54.49761	4.850498E-010	0.0049401	5
	57	87	1.998082	249350.3	-358704.9	1	436857.8	-55.19527	2.482828E-010	0.0049708	5
	58	90	1.584686	279973.1	-415536.3	1	501054.3	-56.02936	1.747895E-010	0.0049018	5
	59	94	1.266892	314612.8	-483840.3	1	577133.2	-56.96642	2.363494E-010	0.0049585	5
	60	98	0.999041	358675	-568919.1	1	672544.9	-57.77063	-6.559252E-011	0.0048945	5
