EXPLAIN
TAG	EISPOT
TITLE	LABEL	Potentiostatic EIS	Test &Identifier
DATE	LABEL	11/9/2019	Date
TIME	LABEL	11:10:59	Time
NOTES	NOTES	2	&Notes...
	
	
PSTAT	PSTAT	REF600-11020	Potentiostat
VDC	POTEN	0.00000E+000	T	DC &Voltage (V)
FREQINIT	QUANT	1.00000E+006	Initial Fre&q. (Hz)
FREQFINAL	QUANT	1.00000E+000	Final Fre&q. (Hz)
PTSPERDEC	QUANT	1.00000E+001	Points/&decade
VAC	QUANT	2.50000E+001	AC &Voltage (mV rms)
AREA	QUANT	1.00000E-002	&Area (cm^2)
CONDIT	TWOPARAM	T	5.00000E+000	0.00000E+000	Conditionin&g	Time(s)	E(V)
DELAY	TWOPARAM	T	5.00000E+000	0.00000E+000	Init. De&lay	Time(s)	Stab.(mV/s)
SPEED	SELECTOR	0	&Optimize for:
ZGUESS	QUANT	1.00000E+005	E&stimated Z (ohms)
OCVCURVE	TABLE	19
	Pt	T	Vf	Vm	Ach	Over
	#	s	V vs. Ref.	V	V	bits
	0	0.258333	1.13079E-002	1.13079E-002	5.51766E-004	...........
	1	0.516667	1.13157E-002	1.17182E-002	5.48433E-004	...........
	2	0.775	1.13635E-002	1.20854E-002	5.52333E-004	...........
	3	1.03333	1.14980E-002	1.24869E-002	5.54899E-004	...........
	4	1.29167	1.17394E-002	1.28321E-002	5.45433E-004	...........
	5	1.55	1.20633E-002	1.32196E-002	5.46033E-004	...........
	6	1.80833	1.24277E-002	1.35433E-002	5.46466E-004	...........
	7	2.06667	1.28007E-002	1.39158E-002	5.53599E-004	...........
	8	2.325	1.31672E-002	1.42231E-002	5.47499E-004	...........
	9	2.58333	1.35230E-002	1.45753E-002	5.45733E-004	...........
	10	2.84167	1.38684E-002	1.48733E-002	5.49833E-004	...........
	11	3.1	1.42045E-002	1.51960E-002	5.44999E-004	...........
	12	3.35833	1.45320E-002	1.55004E-002	5.44933E-004	...........
	13	3.61667	1.48516E-002	1.57887E-002	5.47333E-004	...........
	14	3.875	1.51639E-002	1.61000E-002	5.47566E-004	...........
	15	4.13333	1.54693E-002	1.63547E-002	5.48733E-004	...........
	16	4.39167	1.57680E-002	1.66732E-002	5.49433E-004	...........
	17	4.65	1.60601E-002	1.69060E-002	5.55766E-004	...........
	18	4.90833	1.63463E-002	1.72155E-002	5.51466E-004	...........
EOC	QUANT	0.0163463	Open Circuit (V)
PSTATMODEL	IQUANT	4	Pstat Model
PSTATSECTION	LABEL	REF600-11020	Pstat Section
PSTATSERIALNO	LABEL	11020	Pstat Serial Number
CTRLMODE	IQUANT	1	Control Mode
IESTAB	IQUANT	0	I/E Stability
CASPEED	IQUANT	1	Control Amp Speed
CONVENTION	IQUANT	1	Current Convention
ICHRANGE	IQUANT	2	Ich Range
ICHRANGEMODE	TOGGLE	F	Ich Auto Range
ICHOFFSETENABLE	TOGGLE	T	Ich Offset Enable
ICHOFFSET	QUANT	0	Ich Offset (V)
ICHFILTER	IQUANT	3	Ich Filter
VCHRANGE	IQUANT	2	Vch Range
VCHRANGEMODE	TOGGLE	F	Vch Auto Range
VCHOFFSETENABLE	TOGGLE	T	Vch Offset Enable
VCHOFFSET	QUANT	0	Vch Offset (V)
VCHFILTER	IQUANT	3	Vch Filter
ACHRANGE	IQUANT	2	Ach Range
ACHOFFSETENABLE	TOGGLE	F	Ach Offset Enable
ACHOFFSET	QUANT	0	Ach Offset (V)
ACHFILTER	IQUANT	3	Ach Filter
IERANGELOWERLIMIT	IQUANT	1	I/E Range Lower Limit
IERANGEMODE	TOGGLE	F	I/E AutoRange
IERANGE	IQUANT	5	I/E Range
POSFEEDENABLE	TOGGLE	F	Positive Feedback IR Comp
POSFEEDRESISTANCE	QUANT	0	Positive Feedback Resistance (ohm)
ACHSELECT	IQUANT	0	Ach Select
CABLEID	IQUANT	14	Cable ID
DCCALDATE	LABEL	8/19/2019	DC Calibration Date
ACCALDATE	LABEL	8/19/2019	AC Calibration Date
THERMOSELECT	IQUANT	1	Thermo Select
FRAMEWORKVERSION	QUANT	6.33	Framework Version
INSTRUMENTVERSION	LABEL	3.50	Instrument Version
ZCURVE	TABLE
	Pt	Time	Freq	Zreal	Zimag	Zsig	Zmod	Zphz	Idc	Vdc	IERange
	#	s	Hz	ohm	ohm	V	ohm	°	A	V	#
	0	2	1000078	2227.377	-1464.46	1	2665.68	-33.3242	-3.743564E-006	0.0191506	8
	1	2	794390.6	2497.316	-1480.948	1	2903.411	-30.66861	-2.740731E-006	0.0179617	8
	2	2	630984.4	2764	-1399.192	1	3097.972	-26.84945	-6.03645E-006	0.0184809	8
	3	3	501234.4	3027.187	-1315.306	1	3300.589	-23.48484	8.930699E-006	0.0168903	8
	4	3	398109.4	3230.025	-1185.331	1	3440.65	-20.15176	4.286883E-006	0.0177741	8
	5	3	316265.6	3419.569	-1079.265	1	3585.842	-17.51644	-6.007966E-007	0.0174907	8
	6	4	251203.1	3554.199	-974.794	1	3685.452	-15.33711	-1.725311E-006	0.0183257	8
	7	4	199546.9	3695.12	-857.8101	1	3793.383	-13.06953	-3.161092E-007	0.0174933	8
	8	4	158578.1	3755.179	-744.8839	1	3828.345	-11.21965	7.168637E-006	0.016456	8
	9	5	125953.1	3891.408	-627.5696	1	3941.687	-9.161245	4.912688E-006	0.0093382	7
	10	5	100078.1	3921.174	-545.7381	1	3958.969	-7.92337	6.047973E-007	0.0157117	7
	11	5	79453.13	3974.408	-523.6183	1	4008.752	-7.505351	7.532159E-007	0.0180403	7
	12	5	63140.62	4017.215	-480.8653	1	4045.893	-6.825893	-3.79801E-007	0.016726	7
	13	6	50203.12	4060.833	-466.704	1	4087.563	-6.556134	-1.120452E-006	0.0198791	7
	14	6	39890.62	4098.691	-453.4249	1	4123.696	-6.312776	-1.364515E-006	0.0198019	7
	15	6	31640.63	4151.43	-459.5851	1	4176.792	-6.317221	-1.307649E-006	0.0184238	7
	16	7	25171.88	4198.46	-470.4305	1	4224.733	-6.39323	-3.835124E-007	0.0167309	7
	17	7	20015.62	4245.475	-487.6521	1	4273.39	-6.552504	-3.881912E-007	0.0167209	7
	18	7	15890.62	4302.231	-522.2141	1	4333.809	-6.920827	1.2222E-006	0.015668	7
	19	8	12609.37	4353.045	-561.2675	1	4389.08	-7.346997	7.665224E-007	0.018029	7
	20	8	10078.13	4399.563	-608.7574	1	4441.479	-7.877863	9.593862E-007	0.0155697	7
	21	8	8015.625	4456.954	-665.1791	1	4506.318	-8.488468	1.416529E-007	0.0160665	7
	22	9	6328.125	4514.007	-754.8314	1	4576.684	-9.493155	1.042326E-006	0.0174953	7
	23	9	5015.625	4565.486	-843.427	1	4642.74	-10.4668	-1.107977E-006	0.019861	7
	24	9	3984.375	4616.795	-963.427	1	4716.247	-11.78725	-1.528739E-006	0.0195835	7
	25	10	3170.956	4682.433	-1110.884	1	4812.405	-13.3464	-1.310954E-006	0.0184163	7
	26	10	2527.573	4746.835	-1301.34	1	4921.984	-15.33091	-1.311847E-006	0.0184084	7
	27	10	1976.103	4821.003	-1563.568	1	5068.216	-17.96913	-1.530081E-006	0.0195846	7
	28	11	1577.524	4893.891	-1854.035	1	5233.318	-20.74903	-1.114456E-006	0.0198597	7
	29	11	1265.625	4989.266	-2213.615	1	5458.284	-23.92569	-1.535879E-006	0.0195856	7
	30	11	998.264	5071.473	-2691.948	1	5741.639	-27.95946	-7.767525E-007	0.0197615	7
	31	11	796.875	5228.652	-3229.385	1	6145.546	-31.70082	-7.78796E-007	0.0197625	7
	32	12	627.7902	5366.574	-3980.921	1	6681.904	-36.568	-7.759756E-007	0.0197736	7
	33	12	505.5147	5548.128	-4799.897	1	7336.262	-40.86433	-9.153287E-007	0.0175656	7
	34	13	397.9953	5784.946	-5918.856	1	8276.38	-45.65553	-1.104463E-009	0.0177966	7
	35	13	315.5048	6085.468	-7245.159	1	9461.778	-49.9719	-4.45596E-010	0.0177962	7
	36	13	252.4038	6458.513	-8799.757	1	10915.5	-53.72348	-1.497967E-009	0.0177336	6
	37	14	198.6229	6965.018	-10833.82	1	12879.56	-57.2632	-1.189892E-009	0.017729	6
	38	14	158.3615	7583.141	-13189.7	1	15214.21	-60.10416	-1.184851E-009	0.0177232	6
	39	14	125.558	8391.915	-16073.18	1	18132.05	-62.43064	-1.15037E-009	0.0177277	6
	40	14	100.4464	9399.887	-19465.71	1	21616.47	-64.22436	9.444242E-010	0.0177352	6
	41	15	79.00281	10742.37	-23865.52	1	26171.77	-65.76649	-1.737891E-009	0.0177342	6
	42	15	63.3446	12243.73	-28023.49	1	30581.45	-66.39902	-1.721343E-010	0.0177204	6
	43	16	49.86702	14518.98	-34391.96	1	37331.05	-67.11238	-6.593813E-010	0.0177249	6
	44	16	39.72458	16987.78	-41805.81	1	45125.5	-67.88564	3.098817E-010	0.0177308	6
	45	16	31.6723	20165.08	-50451.62	1	54332.28	-68.21384	3.936558E-010	0.0177343	6
	46	17	24.93351	24898.29	-60818.77	1	65717.94	-67.73654	-5.055308E-011	0.0177333	6
	47	17	19.86229	30157.17	-72693.59	1	78700.77	-67.46873	6.89597E-010	0.0177325	6
	48	17	15.83615	37633.29	-86399.13	1	94239.45	-66.46326	4.355058E-012	0.0177257	6
	49	17	12.40079	47658.17	-104050.8	1	114445.9	-65.39091	-1.125358E-009	0.0177329	5
	50	18	9.93114	57708.77	-121149.3	1	134191.8	-64.52946	-3.254811E-010	0.0177317	5
	51	18	7.944915	71373.56	-141133.7	1	158154.7	-63.17355	-9.197982E-010	0.0177329	5
	52	19	6.317385	86852.1	-162993.3	1	184689.2	-61.94876	-9.21072E-011	0.0177251	5
	53	20	5.008013	105883.3	-188488	1	216192	-60.67487	-5.296658E-011	0.0177436	5
	54	21	3.945707	127663.5	-216243	1	251115.5	-59.44366	-5.356924E-010	0.0177353	5
	55	22	3.158693	151284.2	-245905.1	1	288714.8	-58.39961	-6.464497E-010	0.0177149	5
	56	24	2.504006	177650.9	-281063.3	1	332500.3	-57.70436	-3.211902E-010	0.0177171	5
	57	25	1.998082	204576.6	-319503.2	1	379386.2	-57.36873	-5.6056E-010	0.0177038	5
	58	27	1.584686	235904.1	-367363.6	1	436585.3	-57.29327	-6.54235E-010	0.0176743	5
	59	29	1.266892	267550.6	-422336.6	1	499951.5	-57.64571	-6.047253E-010	0.0176921	5
	60	31	0.999041	305777.5	-491330.6	1	578710.4	-58.10411	-5.62175E-010	0.0177237	5
