EXPLAIN
TAG	EISPOT
TITLE	LABEL	Potentiostatic EIS	Test &Identifier
DATE	LABEL	6/20/2000	Date
TIME	LABEL	9:20:49	Time
NOTES	NOTES	2	&Notes...
	
	
PSTAT	PSTAT	REF600-11020	Potentiostat
VDC	POTEN	0.00000E+000	T	DC &Voltage (V)
FREQINIT	QUANT	1.00000E+006	Initial Fre&q. (Hz)
FREQFINAL	QUANT	1.00000E+000	Final Fre&q. (Hz)
PTSPERDEC	QUANT	1.00000E+001	Points/&decade
VAC	QUANT	2.50000E+001	AC &Voltage (mV rms)
AREA	QUANT	1.00000E-002	&Area (cm^2)
CONDIT	TWOPARAM	T	5.00000E+000	0.00000E+000	Conditionin&g	Time(s)	E(V)
DELAY	TWOPARAM	T	5.00000E+000	0.00000E+000	Init. De&lay	Time(s)	Stab.(mV/s)
SPEED	SELECTOR	0	&Optimize for:
ZGUESS	QUANT	1.00000E+005	E&stimated Z (ohms)
OCVCURVE	TABLE	19
	Pt	T	Vf	Vm	Ach	Over
	#	s	V vs. Ref.	V	V	bits
	0	0.258333	4.37424E-003	4.37424E-003	5.63232E-004	...........
	1	0.516667	4.37208E-003	4.26116E-003	5.66399E-004	...........
	2	0.775	4.35912E-003	4.17001E-003	5.66599E-004	...........
	3	1.03333	4.32367E-003	4.09281E-003	5.63966E-004	...........
	4	1.29167	4.26328E-003	4.02891E-003	5.60932E-004	...........
	5	1.55	4.18826E-003	3.97330E-003	5.66932E-004	...........
	6	1.80833	4.11227E-003	3.93291E-003	5.70266E-004	...........
	7	2.06667	4.04374E-003	3.87010E-003	5.62966E-004	...........
	8	2.325	3.98363E-003	3.80939E-003	5.65799E-004	...........
	9	2.58333	3.92749E-003	3.73443E-003	5.65799E-004	...........
	10	2.84167	3.87109E-003	3.73458E-003	5.63399E-004	...........
	11	3.1	3.82058E-003	3.92456E-003	5.60332E-004	...........
	12	3.35833	3.79533E-003	3.87851E-003	5.63132E-004	...........
	13	3.61667	3.80609E-003	3.86661E-003	5.62999E-004	...........
	14	3.875	3.83534E-003	3.83119E-003	5.65466E-004	...........
	15	4.13333	3.85517E-003	3.79413E-003	5.61166E-004	...........
	16	4.39167	3.85305E-003	3.77148E-003	5.62599E-004	...........
	17	4.65	3.83463E-003	3.82579E-003	5.65966E-004	...........
	18	4.90833	3.81339E-003	3.74230E-003	5.62732E-004	...........
EOC	QUANT	0.0038134	Open Circuit (V)
PSTATMODEL	IQUANT	4	Pstat Model
PSTATSECTION	LABEL	REF600-11020	Pstat Section
PSTATSERIALNO	LABEL	11020	Pstat Serial Number
CTRLMODE	IQUANT	1	Control Mode
IESTAB	IQUANT	0	I/E Stability
CASPEED	IQUANT	1	Control Amp Speed
CONVENTION	IQUANT	1	Current Convention
ICHRANGE	IQUANT	2	Ich Range
ICHRANGEMODE	TOGGLE	F	Ich Auto Range
ICHOFFSETENABLE	TOGGLE	T	Ich Offset Enable
ICHOFFSET	QUANT	0	Ich Offset (V)
ICHFILTER	IQUANT	3	Ich Filter
VCHRANGE	IQUANT	2	Vch Range
VCHRANGEMODE	TOGGLE	F	Vch Auto Range
VCHOFFSETENABLE	TOGGLE	T	Vch Offset Enable
VCHOFFSET	QUANT	0	Vch Offset (V)
VCHFILTER	IQUANT	3	Vch Filter
ACHRANGE	IQUANT	2	Ach Range
ACHOFFSETENABLE	TOGGLE	F	Ach Offset Enable
ACHOFFSET	QUANT	0	Ach Offset (V)
ACHFILTER	IQUANT	3	Ach Filter
IERANGELOWERLIMIT	IQUANT	1	I/E Range Lower Limit
IERANGEMODE	TOGGLE	F	I/E AutoRange
IERANGE	IQUANT	4	I/E Range
POSFEEDENABLE	TOGGLE	F	Positive Feedback IR Comp
POSFEEDRESISTANCE	QUANT	0	Positive Feedback Resistance (ohm)
ACHSELECT	IQUANT	0	Ach Select
CABLEID	IQUANT	14	Cable ID
DCCALDATE	LABEL	8/19/2019	DC Calibration Date
ACCALDATE	LABEL	8/19/2019	AC Calibration Date
THERMOSELECT	IQUANT	1	Thermo Select
FRAMEWORKVERSION	QUANT	6.33	Framework Version
INSTRUMENTVERSION	LABEL	3.50	Instrument Version
ZCURVE	TABLE
	Pt	Time	Freq	Zreal	Zimag	Zsig	Zmod	Zphz	Idc	Vdc	IERange
	#	s	Hz	ohm	ohm	V	ohm	°	A	V	#
	0	1	1000078	2211.4	-968.556	1	2414.206	-23.65262	-1.227534E-006	0.0049018	8
	1	1	794390.6	2388.929	-886.9965	1	2548.283	-20.36969	-7.949359E-006	0.0067622	8
	2	2	630984.4	2516.153	-787.5245	1	2636.517	-17.37947	1.312722E-006	0.0060109	8
	3	2	501234.4	2626.619	-693.5069	1	2716.63	-14.7903	-5.447439E-006	0.0057705	8
	4	2	398109.4	2704.094	-600.9418	1	2770.064	-12.52945	8.111865E-006	0.004506	8
	5	3	316265.6	2771.181	-530.3983	1	2821.483	-10.83525	6.005903E-006	0.0045223	8
	6	3	251203.1	2820.047	-466.3348	1	2858.344	-9.389698	6.028967E-006	0.0041541	8
	7	3	199546.9	2856.986	-404.8685	1	2885.53	-8.06578	-6.48432E-006	0.0062264	8
	8	4	158578.1	2895.076	-366.3191	1	2918.16	-7.211413	-1.877975E-006	0.0054265	8
	9	4	125953.1	2940.135	-294.4915	1	2954.847	-5.719815	1.802527E-006	-0.0003887	7
	10	4	100078.1	2957.406	-279.3675	1	2970.572	-5.396358	1.442282E-007	0.0038932	7
	11	5	79453.13	2980.055	-274.0268	1	2992.627	-5.253778	-3.093695E-007	0.0066399	7
	12	5	63140.62	3004.666	-277.9712	1	3017.496	-5.285571	-1.230741E-006	0.0067167	7
	13	5	50203.12	3031.193	-288.9232	1	3044.932	-5.444792	1.084734E-006	0.0041703	7
	14	6	39890.62	3057.969	-301.4507	1	3072.792	-5.629956	-1.231545E-006	0.0067194	7
	15	6	31640.63	3088.188	-325.161	1	3105.259	-6.010633	1.086155E-006	0.0041732	7
	16	6	25171.88	3119.359	-351.9366	1	3139.15	-6.437083	5.033334E-007	0.0036077	7
	17	7	20015.62	3150.573	-386.0654	1	3174.139	-6.986091	-9.08423E-007	0.0069397	7
	18	7	15890.62	3190.146	-430.0642	1	3219.003	-7.677768	5.036381E-007	0.003609	7
	19	7	12609.37	3230.609	-479.3411	1	3265.976	-8.439678	-3.10565E-007	0.0066347	7
	20	7	10078.13	3276.851	-544.8338	1	3321.836	-9.440068	-3.103368E-007	0.0066347	7
	21	8	8015.625	3320.376	-617.0986	1	3377.233	-10.52841	9.772122E-007	0.0036106	7
	22	8	6328.125	3370.966	-708.6739	1	3444.652	-11.87233	-1.233066E-006	0.0067113	7
	23	8	5015.625	3427.156	-819.3773	1	3523.745	-13.44608	5.038913E-007	0.0036053	7
	24	9	3984.375	3483.291	-953.806	1	3611.518	-15.31355	-7.002947E-007	0.0050594	7
	25	9	3170.956	3547.676	-1117.766	1	3719.598	-17.48808	1.085703E-006	0.0041708	7
	26	9	2527.573	3611.349	-1313.252	1	3842.717	-19.98358	-1.103268E-006	0.006868	7
	27	10	1976.103	3690.772	-1579.064	1	4014.379	-23.16323	5.352056E-008	0.0062363	7
	28	10	1577.524	3778.43	-1881.541	1	4220.987	-26.47189	8.070811E-007	0.0050826	7
	29	10	1265.625	3855.532	-2244.508	1	4461.271	-30.20593	8.084328E-007	0.0050796	7
	30	11	998.264	3963.78	-2727.859	1	4811.732	-34.53561	7.873842E-007	0.0035117	7
	31	11	796.875	4081.985	-3295.388	1	5246.159	-38.91396	9.94291E-007	0.0045928	7
	32	11	627.7902	4237.052	-4035.729	1	5851.471	-43.60594	-6.986568E-007	0.0050544	7
	33	12	505.5147	4395.759	-4869.644	1	6560.193	-47.92788	5.941583E-007	0.0054851	7
	34	12	397.9953	4627.792	-6000.115	1	7577.456	-52.35758	-2.163242E-010	0.0052913	7
	35	12	315.5048	4910.948	-7360.832	1	8848.687	-56.28986	2.446997E-009	0.0052915	7
	36	13	252.4038	5264.964	-8964.648	1	10396.38	-59.57416	7.058207E-010	0.0052332	6
	37	13	198.6229	5757.208	-11077.96	1	12484.65	-62.53913	7.01552E-010	0.0052297	6
	38	13	158.3615	6369.791	-13525.72	1	14950.57	-64.78242	7.743339E-010	0.0052263	6
	39	14	125.558	7207.987	-16572.97	1	18072.59	-66.49461	3.859295E-010	0.005221	6
	40	14	100.4464	8293.887	-20125.82	1	21767.8	-67.60335	-1.195485E-010	0.0052158	6
	41	14	79.00281	9801.29	-24738.72	1	26609.58	-68.38691	-9.182588E-010	0.0052245	6
	42	15	63.3446	11763.18	-29468.48	1	31729.54	-68.23918	-1.033725E-010	0.0052247	6
	43	15	49.86702	14511.97	-35977.22	1	38793.79	-68.03255	4.892027E-010	0.0052225	6
	44	15	39.72458	17740.93	-43277.59	1	46772.75	-67.70964	8.949156E-010	0.0052146	6
	45	16	31.6723	22018.85	-51627.25	1	56126.67	-66.90191	6.215859E-010	0.0052172	6
	46	16	24.93351	27942.67	-61335.38	1	67400.46	-65.50733	3.501239E-010	0.0052212	6
	47	16	19.86229	34744.4	-71716.7	1	79689.77	-64.15133	2.275818E-009	0.0052221	6
	48	17	15.83615	42525.45	-83565.77	1	93763.8	-63.02909	-3.417049E-010	0.0052168	6
	49	17	12.40079	53205.2	-97434.5	1	111014.7	-61.36276	-4.183008E-010	0.0052197	5
	50	17	9.93114	65141.37	-111007.7	1	128709.4	-59.59481	-6.751823E-010	0.0052313	5
	51	18	7.944915	77642.43	-125696.4	1	147742.7	-58.29644	7.51327E-010	0.0052167	5
	52	18	6.317385	92099.35	-142533.6	1	169700	-57.13111	5.192426E-010	0.005218	5
	53	19	5.008013	108136.3	-161452.3	1	194320.2	-56.18692	1.336929E-010	0.0052115	5
	54	20	3.945707	125027.8	-184032.9	1	222486.1	-55.80871	2.927047E-010	0.0052314	5
	55	22	3.158693	142092.1	-208385.5	1	252219.6	-55.71104	-1.600536E-010	0.0052215	5
	56	23	2.504006	160565.8	-238847.4	1	287801.1	-56.08892	-4.684837E-011	0.0052118	5
	57	25	1.998082	180049.8	-274784	1	328518.2	-56.76552	1.95439E-010	0.0052599	5
	58	26	1.584686	201402.1	-319479.4	1	377663.8	-57.77238	5.432274E-011	0.0052239	5
	59	28	1.266892	226417.1	-372230.1	1	435683.3	-58.68902	-1.605551E-011	0.0051845	5
	60	31	0.999041	257538.8	-441258	1	510915.7	-59.73017	-3.828755E-011	0.0051726	5
