EXPLAIN
TAG	EISPOT
TITLE	LABEL	Potentiostatic IDE	Test &Identifier
DATE	LABEL	9/16/2019	Date
TIME	LABEL	8:08:45	Time
NOTES	NOTES	1	&Notes...
	
PSTAT	PSTAT	REF600-11020	Potentiostat
VDC	POTEN	0.00000E+000	T	DC &Voltage (V)
FREQINIT	QUANT	1.00000E+006	Initial Fre&q. (Hz)
FREQFINAL	QUANT	1.00000E+000	Final Fre&q. (Hz)
PTSPERDEC	QUANT	1.00000E+001	Points/&decade
VAC	QUANT	2.50000E+001	AC &Voltage (mV rms)
AREA	QUANT	1.00000E-002	&Area (cm^2)
CONDIT	TWOPARAM	T	5.00000E+000	0.00000E+000	Conditionin&g	Time(s)	E(V)
DELAY	TWOPARAM	T	5.00000E+000	0.00000E+000	Init. De&lay	Time(s)	Stab.(mV/s)
SPEED	SELECTOR	1	&Optimize for:
ZGUESS	QUANT	1.00000E+007	E&stimated Z (ohms)
OCVCURVE	TABLE	19
	Pt	T	Vf	Vm	Ach	Over
	#	s	V vs. Ref.	V	V	bits
	0	0.258333	-9.81222E-003	-9.81222E-003	5.60299E-004	...........
	1	0.516667	-9.82415E-003	-1.04372E-002	5.61899E-004	...........
	2	0.775	-9.90570E-003	-1.14607E-002	5.63999E-004	...........
	3	1.03333	-1.01636E-002	-1.24343E-002	5.63166E-004	...........
	4	1.29167	-1.06720E-002	-1.30881E-002	5.63466E-004	...........
	5	1.55	-1.13885E-002	-1.37663E-002	5.68199E-004	...........
	6	1.80833	-1.21902E-002	-1.45423E-002	5.65099E-004	...........
	7	2.06667	-1.29803E-002	-1.51787E-002	5.64032E-004	...........
	8	2.325	-1.37286E-002	-1.58216E-002	5.60666E-004	...........
	9	2.58333	-1.44373E-002	-1.64451E-002	5.62399E-004	...........
	10	2.84167	-1.51118E-002	-1.70284E-002	5.57532E-004	...........
	11	3.1	-1.57569E-002	-1.76153E-002	5.64499E-004	...........
	12	3.35833	-1.63767E-002	-1.81643E-002	5.59266E-004	...........
	13	3.61667	-1.69743E-002	-1.87014E-002	5.56733E-004	...........
	14	3.875	-1.75511E-002	-1.92145E-002	5.61832E-004	...........
	15	4.13333	-1.81077E-002	-1.97118E-002	5.60832E-004	...........
	16	4.39167	-1.86446E-002	-2.02120E-002	5.57499E-004	...........
	17	4.65	-1.91640E-002	-2.06810E-002	5.57899E-004	...........
	18	4.90833	-1.96684E-002	-2.11456E-002	5.60432E-004	...........
EOC	QUANT	-0.0196684	Open Circuit (V)
PSTATMODEL	IQUANT	4	Pstat Model
PSTATSECTION	LABEL	REF600-11020	Pstat Section
PSTATSERIALNO	LABEL	11020	Pstat Serial Number
CTRLMODE	IQUANT	1	Control Mode
IESTAB	IQUANT	0	I/E Stability
CASPEED	IQUANT	1	Control Amp Speed
CONVENTION	IQUANT	1	Current Convention
ICHRANGE	IQUANT	2	Ich Range
ICHRANGEMODE	TOGGLE	F	Ich Auto Range
ICHOFFSETENABLE	TOGGLE	T	Ich Offset Enable
ICHOFFSET	QUANT	0	Ich Offset (V)
ICHFILTER	IQUANT	3	Ich Filter
VCHRANGE	IQUANT	2	Vch Range
VCHRANGEMODE	TOGGLE	F	Vch Auto Range
VCHOFFSETENABLE	TOGGLE	T	Vch Offset Enable
VCHOFFSET	QUANT	0	Vch Offset (V)
VCHFILTER	IQUANT	3	Vch Filter
ACHRANGE	IQUANT	2	Ach Range
ACHOFFSETENABLE	TOGGLE	F	Ach Offset Enable
ACHOFFSET	QUANT	0	Ach Offset (V)
ACHFILTER	IQUANT	3	Ach Filter
IERANGELOWERLIMIT	IQUANT	1	I/E Range Lower Limit
IERANGEMODE	TOGGLE	F	I/E AutoRange
IERANGE	IQUANT	3	I/E Range
POSFEEDENABLE	TOGGLE	F	Positive Feedback IR Comp
POSFEEDRESISTANCE	QUANT	0	Positive Feedback Resistance (ohm)
ACHSELECT	IQUANT	0	Ach Select
CABLEID	IQUANT	14	Cable ID
DCCALDATE	LABEL	8/19/2019	DC Calibration Date
ACCALDATE	LABEL	8/19/2019	AC Calibration Date
THERMOSELECT	IQUANT	1	Thermo Select
FRAMEWORKVERSION	QUANT	6.33	Framework Version
INSTRUMENTVERSION	LABEL	3.50	Instrument Version
ZCURVE	TABLE
	Pt	Time	Freq	Zreal	Zimag	Zsig	Zmod	Zphz	Idc	Vdc	IERange
	#	s	Hz	ohm	ohm	V	ohm	°	A	V	#
	0	2	1000078	2261.251	-1531.504	1	2731.073	-34.10908	6.89918E-006	-0.0191041	8
	1	3	794390.6	2547.949	-1470.564	1	2941.87	-29.99165	-1.687615E-006	-0.0181253	8
	2	4	630984.4	2826.386	-1381.911	1	3146.131	-26.05549	4.905155E-006	-0.0188512	8
	3	6	501234.4	3056.759	-1255.751	1	3304.646	-22.33342	-1.506689E-006	-0.0178606	8
	4	7	398109.4	3230.458	-1122.413	1	3419.894	-19.15962	-8.019862E-007	-0.0179609	8
	5	8	316265.6	3404.674	-1001.521	1	3548.922	-16.39181	2.112725E-006	-0.0185793	8
	6	10	251203.1	3535.706	-864.5835	1	3639.879	-13.74085	-7.89989E-007	-0.0179629	8
	7	11	199546.9	3614.097	-747.6416	1	3690.619	-11.68781	-2.185554E-006	-0.0179016	8
	8	13	158578.1	3693.354	-662.9059	1	3752.374	-10.17545	-9.971801E-007	-0.0178837	8
	9	14	125953.1	3767.491	-534.8293	1	3805.264	-8.079665	-8.250194E-007	-0.0165972	7
	10	15	100078.1	3811.424	-477.7871	1	3841.254	-7.145133	-3.991248E-008	-0.018158	7
	11	17	79453.13	3851.974	-439.2819	1	3876.941	-6.505945	1.320719E-007	-0.0184065	7
	12	18	63140.62	3888.917	-411.5421	1	3910.632	-6.040806	-1.101946E-008	-0.0181673	7
	13	19	50203.12	3925.547	-394.8627	1	3945.356	-5.743944	-3.57416E-008	-0.0181931	7
	14	21	39890.62	3962.999	-385.5176	1	3981.706	-5.556209	-4.019533E-008	-0.0181975	7
	15	22	31640.63	3995.067	-386.2634	1	4013.696	-5.522482	-1.825171E-008	-0.0180842	7
	16	23	25171.88	4031.442	-396.1501	1	4050.859	-5.612159	2.166156E-008	-0.0183122	7
	17	25	20015.62	4074.875	-415.1165	1	4095.965	-5.816781	8.004448E-008	-0.0183621	7
	18	26	15890.62	4115.913	-437.5774	1	4139.108	-6.068524	-4.7358E-009	-0.0181994	7
	19	27	12609.37	4154.141	-481.8916	1	4181.998	-6.61689	-1.792353E-008	-0.0180857	7
	20	29	10078.13	4196.469	-528.2653	1	4229.588	-7.17484	4.846206E-008	-0.0183717	7
	21	30	8015.625	4240.271	-590.0093	1	4281.123	-7.921515	-1.066945E-008	-0.0181784	7
	22	31	6328.125	4289.188	-669.4222	1	4341.113	-8.870705	-2.946263E-008	-0.0182254	7
	23	33	5015.625	4340.707	-766.9328	1	4407.938	-10.01983	5.022638E-008	-0.0183764	7
	24	34	3984.375	4395.558	-888.1891	1	4484.396	-11.42366	-3.474148E-008	-0.0182073	7
	25	35	3170.956	4456.809	-1033.058	1	4574.97	-13.05031	-1.682027E-008	-0.0180926	7
	26	37	2527.573	4521.052	-1210.027	1	4680.179	-14.98362	3.670733E-008	-0.0182557	7
	27	38	1976.103	4603.024	-1447.5	1	4825.255	-17.45665	8.837219E-008	-0.0184043	7
	28	39	1577.524	4687.883	-1715.233	1	4991.821	-20.09689	4.930278E-008	-0.0183766	7
	29	41	1265.625	4783.438	-2039.57	1	5200.108	-23.0925	-8.667601E-009	-0.018184	7
	30	42	998.264	4901.153	-2456.19	1	5482.168	-26.61753	-4.68266E-008	-0.018137	7
	31	43	796.875	5029.504	-2939.494	1	5825.508	-30.30415	1.346879E-007	-0.0184315	7
	32	45	627.7902	5185.663	-3566.689	1	6293.836	-34.52012	-3.900089E-008	-0.0182118	7
	33	46	505.5147	5348.615	-4269.072	1	6843.439	-38.5956	-5.911633E-009	-0.0182127	7
	34	47	397.9953	5562.313	-5214.458	1	7624.297	-43.15123	7.279505E-009	-0.0182186	7
	35	49	315.5048	5809.191	-6351.812	1	8607.684	-47.55482	7.994626E-009	-0.0182238	7
	36	50	252.4038	6096.403	-7696.007	1	9818.08	-51.61544	7.27885E-009	-0.0182188	7
	37	51	198.6229	6480.895	-9475.699	1	11480.02	-55.62986	3.097354E-009	-0.0182857	6
	38	53	158.3615	6939.555	-11548.62	1	13473.24	-58.99839	3.155441E-009	-0.0182878	6
	39	54	125.558	7546.779	-14154.44	1	16040.64	-61.93462	2.787284E-009	-0.0182844	6
	40	55	100.4464	8300.801	-17192.34	1	19091.35	-64.22783	2.959417E-009	-0.0182909	6
	41	57	79.00281	9370.356	-21179.82	1	23160.06	-66.13449	3.147377E-009	-0.0182885	6
	42	58	63.3446	10786.33	-25843.51	1	28004.14	-67.34576	2.238485E-009	-0.0182877	6
	43	59	49.86702	12371.44	-31493.81	1	33836.56	-68.55404	2.071435E-009	-0.0182933	6
	44	61	39.72458	14896.58	-38183.86	1	40986.77	-68.68787	2.736755E-009	-0.0182866	6
	45	62	31.6723	17875.49	-46146.53	1	49487.73	-68.82545	2.824321E-009	-0.0182902	6
	46	63	24.93351	22093.97	-55871.45	1	60081.29	-68.42403	3.281434E-009	-0.0182885	6
	47	65	19.86229	27383.47	-66903.17	1	72290.31	-67.74072	2.353363E-009	-0.0182855	6
	48	66	15.83615	33508.95	-79250.66	1	86043.69	-67.08027	2.464708E-009	-0.0182863	6
	49	68	12.40079	42966.93	-95060.7	1	104320.2	-65.67728	1.688397E-009	-0.018282	6
	50	69	9.93114	53582.61	-111125.7	1	123369.5	-64.25757	2.369705E-009	-0.0182848	5
	51	71	7.944915	66036.37	-129372.8	1	145252	-62.95866	2.580019E-009	-0.0182912	5
	52	72	6.317385	81861.66	-149521.4	1	170464	-61.29968	2.004081E-009	-0.0182862	5
	53	74	5.008013	100786.4	-172208.8	1	199533.9	-59.66139	1.738036E-009	-0.0182836	5
	54	77	3.945707	123313.8	-197046.4	1	232451.2	-57.96121	2.574372E-009	-0.0182772	5
	55	79	3.158693	148036.9	-222753.6	1	267458.6	-56.3929	1.63667E-009	-0.0182735	5
	56	83	2.504006	176817.6	-251360.8	1	307321.8	-54.87585	2.315616E-009	-0.0182864	5
	57	85	1.998082	207482.2	-281483.8	1	349688.4	-53.60601	1.590348E-009	-0.018245	5
	58	88	1.584686	242637.1	-316248	1	398604.5	-52.50325	2.002145E-009	-0.0182314	5
	59	92	1.266892	278926.6	-352689.9	1	449655.7	-51.66112	1.38803E-009	-0.0182612	5
	60	96	0.999041	321493.1	-396969.1	1	510825.1	-50.99705	2.236103E-009	-0.0182633	5
