EXPLAIN
TAG	EISPOT
TITLE	LABEL	Potentiostatic EIS	Test &Identifier
DATE	LABEL	11/22/2019	Date
TIME	LABEL	1:11:44	Time
NOTES	NOTES	4	&Notes...
	
	
	
	
PSTAT	PSTAT	REF600-11020	Potentiostat
VDC	POTEN	0.00000E+000	T	DC &Voltage (V)
FREQINIT	QUANT	1.00000E+006	Initial Fre&q. (Hz)
FREQFINAL	QUANT	1.00000E+000	Final Fre&q. (Hz)
PTSPERDEC	QUANT	1.00000E+001	Points/&decade
VAC	QUANT	2.50000E+001	AC &Voltage (mV rms)
AREA	QUANT	1.00000E-002	&Area (cm^2)
CONDIT	TWOPARAM	T	5.00000E+000	0.00000E+000	Conditionin&g	Time(s)	E(V)
DELAY	TWOPARAM	T	5.00000E+000	0.00000E+000	Init. De&lay	Time(s)	Stab.(mV/s)
SPEED	SELECTOR	1	&Optimize for:
ZGUESS	QUANT	1.00000E+005	E&stimated Z (ohms)
OCVCURVE	TABLE	19
	Pt	T	Vf	Vm	Ach	Over
	#	s	V vs. Ref.	V	V	bits
	0	0.258333	7.49222E-003	7.49222E-003	5.57333E-004	...........
	1	0.516667	7.49272E-003	7.51843E-003	5.56266E-004	...........
	2	0.775	7.49606E-003	7.55701E-003	5.59299E-004	...........
	3	1.03333	7.50654E-003	7.60277E-003	5.54133E-004	...........
	4	1.29167	7.52782E-003	7.65269E-003	5.55999E-004	...........
	5	1.55	7.56043E-003	7.70471E-003	5.55499E-004	...........
	6	1.80833	7.60226E-003	7.76409E-003	5.55433E-004	...........
	7	2.06667	7.65062E-003	7.81880E-003	5.54699E-004	...........
	8	2.325	7.70331E-003	7.87840E-003	5.43633E-004	...........
	9	2.58333	7.75872E-003	7.93684E-003	5.46299E-004	...........
	10	2.84167	7.81579E-003	7.99712E-003	5.50499E-004	...........
	11	3.1	7.87388E-003	8.05287E-003	5.51066E-004	...........
	12	3.35833	7.93238E-003	8.10979E-003	5.45766E-004	...........
	13	3.61667	7.99061E-003	8.16508E-003	5.51099E-004	...........
	14	3.875	8.04815E-003	8.22403E-003	5.50133E-004	...........
	15	4.13333	8.10508E-003	8.27726E-003	5.58699E-004	...........
	16	4.39167	8.16160E-003	8.33242E-003	5.59732E-004	...........
	17	4.65	8.21761E-003	8.38510E-003	5.50833E-004	...........
	18	4.90833	8.27284E-003	8.43846E-003	5.54299E-004	...........
EOC	QUANT	0.0082728	Open Circuit (V)
PSTATMODEL	IQUANT	4	Pstat Model
PSTATSECTION	LABEL	REF600-11020	Pstat Section
PSTATSERIALNO	LABEL	11020	Pstat Serial Number
CTRLMODE	IQUANT	1	Control Mode
IESTAB	IQUANT	0	I/E Stability
CASPEED	IQUANT	1	Control Amp Speed
CONVENTION	IQUANT	1	Current Convention
ICHRANGE	IQUANT	2	Ich Range
ICHRANGEMODE	TOGGLE	F	Ich Auto Range
ICHOFFSETENABLE	TOGGLE	T	Ich Offset Enable
ICHOFFSET	QUANT	0	Ich Offset (V)
ICHFILTER	IQUANT	3	Ich Filter
VCHRANGE	IQUANT	2	Vch Range
VCHRANGEMODE	TOGGLE	F	Vch Auto Range
VCHOFFSETENABLE	TOGGLE	T	Vch Offset Enable
VCHOFFSET	QUANT	0	Vch Offset (V)
VCHFILTER	IQUANT	3	Vch Filter
ACHRANGE	IQUANT	2	Ach Range
ACHOFFSETENABLE	TOGGLE	F	Ach Offset Enable
ACHOFFSET	QUANT	0	Ach Offset (V)
ACHFILTER	IQUANT	3	Ach Filter
IERANGELOWERLIMIT	IQUANT	1	I/E Range Lower Limit
IERANGEMODE	TOGGLE	F	I/E AutoRange
IERANGE	IQUANT	5	I/E Range
POSFEEDENABLE	TOGGLE	F	Positive Feedback IR Comp
POSFEEDRESISTANCE	QUANT	0	Positive Feedback Resistance (ohm)
ACHSELECT	IQUANT	0	Ach Select
CABLEID	IQUANT	14	Cable ID
DCCALDATE	LABEL	8/19/2019	DC Calibration Date
ACCALDATE	LABEL	8/19/2019	AC Calibration Date
THERMOSELECT	IQUANT	1	Thermo Select
FRAMEWORKVERSION	QUANT	6.33	Framework Version
INSTRUMENTVERSION	LABEL	3.50	Instrument Version
ZCURVE	TABLE
	Pt	Time	Freq	Zreal	Zimag	Zsig	Zmod	Zphz	Idc	Vdc	IERange
	#	s	Hz	ohm	ohm	V	ohm	°	A	V	#
	0	1	1000078	2096.291	-1916.753	1	2840.489	-42.43838	4.302613E-006	0.009861	8
	1	3	794390.6	2465.516	-1992.402	1	3169.927	-38.94194	-7.390483E-006	0.0104942	8
	2	4	630984.4	2850.507	-2029.449	1	3499.15	-35.44937	9.866819E-006	0.0090132	8
	3	5	501234.4	3238.157	-2024.327	1	3818.843	-32.01147	-4.225575E-006	0.0097534	8
	4	7	398109.4	3606.147	-1948.45	1	4098.872	-28.38295	-3.027091E-007	0.0094874	8
	5	8	316265.6	3956.982	-1847.922	1	4367.21	-25.03271	-1.542816E-006	0.0095256	8
	6	9	251203.1	4265.214	-1709.63	1	4595.094	-21.84245	-2.057087E-006	0.0099123	8
	7	11	199546.9	4535.395	-1560.778	1	4796.439	-18.99002	3.915256E-006	0.0097362	8
	8	12	158578.1	4770.353	-1399.668	1	4971.452	-16.3522	1.80802E-006	0.0100416	8
	9	13	125953.1	4990.698	-1175.228	1	5127.205	-13.25081	2.765796E-006	0.0037599	7
	10	15	100078.1	5114.676	-1041.585	1	5219.656	-11.51067	1.180613E-006	0.0085079	7
	11	16	79453.13	5204.587	-920.2965	1	5285.326	-10.02762	-7.845749E-007	0.0095679	7
	12	18	63140.62	5300.579	-839.7352	1	5366.684	-9.002172	-3.067176E-007	0.0111721	7
	13	19	50203.12	5391.66	-759.9454	1	5444.953	-8.022894	1.050761E-006	0.0079024	7
	14	20	39890.62	5450.88	-709.3332	1	5496.839	-7.414342	4.192016E-007	0.0102913	7
	15	22	31640.63	5504.25	-671.3091	1	5545.036	-6.953564	7.798639E-008	0.0107458	7
	16	23	25171.88	5567.366	-654.2394	1	5605.675	-6.702277	1.169088E-006	0.0081363	7
	17	24	20015.62	5610.398	-656.531	1	5648.682	-6.674419	7.718005E-008	0.0107418	7
	18	26	15890.62	5636.532	-676.2239	1	5676.951	-6.841171	-1.308467E-006	0.0112699	7
	19	27	12609.37	5691.629	-720.5321	1	5737.056	-7.214983	-3.371405E-007	0.0088202	7
	20	28	10078.13	5754.601	-782.5233	1	5807.562	-7.743709	5.159648E-007	0.007931	7
	21	30	8015.625	5809.228	-871.8946	1	5874.293	-8.535689	-1.171218E-006	0.0114461	7
	22	31	6328.125	5861.532	-984.687	1	5943.666	-9.53615	-3.071708E-007	0.0111563	7
	23	32	5015.625	5909.521	-1131.1	1	6016.795	-10.83553	-1.301103E-006	0.0108764	7
	24	34	3984.375	5969.577	-1313.888	1	6112.458	-12.41273	-1.3068E-006	0.0112661	7
	25	35	3170.956	6051.075	-1547.775	1	6245.888	-14.34778	-1.307045E-006	0.0112672	7
	26	37	2527.573	6134.077	-1835.788	1	6402.891	-16.66123	-1.300358E-006	0.0108716	7
	27	38	1976.103	6238.012	-2219.532	1	6621.111	-19.58594	-1.303776E-006	0.0108766	7
	28	39	1577.524	6394.502	-2691.52	1	6937.862	-22.82679	5.17901E-007	0.0079348	7
	29	41	1265.625	6508.908	-3190.172	1	7248.66	-26.11058	5.181839E-007	0.0079303	7
	30	42	998.264	6692.966	-3876.744	1	7734.659	-30.08056	1.1683E-006	0.0081373	7
	31	44	796.875	6889.145	-4669.791	1	8322.695	-34.13129	1.050361E-006	0.0078932	7
	32	45	627.7902	7140.797	-5693.879	1	9132.976	-38.56791	1.169884E-006	0.0081359	7
	33	46	505.5147	7402.069	-6804.968	1	10054.76	-42.59336	-3.029662E-007	0.0111607	7
	34	48	397.9953	7763.414	-8327.293	1	11384.83	-47.00704	9.96901E-010	0.0096745	6
	35	49	315.5048	8176.87	-10140.04	1	13026.19	-51.11751	1.456385E-009	0.0096817	6
	36	50	252.4038	8655.294	-12269.86	1	15015.45	-54.80045	1.093178E-010	0.0096716	6
	37	52	198.6229	9283.39	-15080.04	1	17708.45	-58.38323	1.264337E-009	0.0096773	6
	38	53	158.3615	10027.02	-18350.35	1	20911.15	-61.34688	-1.8585E-010	0.0096759	6
	39	55	125.558	10977.73	-22450.75	1	24990.94	-63.94278	1.000052E-009	0.0096832	6
	40	56	100.4464	12177.29	-27257.6	1	29854.03	-65.92738	1.743828E-009	0.0096704	6
	41	57	79.00281	13796.09	-33660.95	1	36378.45	-67.71351	7.215227E-010	0.009673	6
	42	59	63.3446	16144.03	-40766.17	1	43846.44	-68.39567	8.542498E-010	0.0096641	6
	43	60	49.86702	18282.05	-50159.73	1	53387.57	-69.97438	1.474483E-009	0.009662	6
	44	61	39.72458	22118.54	-60603.38	1	64513.56	-69.94933	1.356417E-010	0.0096774	6
	45	63	31.6723	26660.4	-73434.81	1	78124.57	-70.04665	8.530786E-010	0.0096611	6
	46	64	24.93351	33233.21	-89309.67	1	95292.5	-69.58916	-1.414613E-010	0.0096714	6
	47	66	19.86229	41494.23	-107228.3	1	114976.9	-68.84502	4.585939E-010	0.0096812	5
	48	67	15.83615	52534.96	-127855.6	1	138228	-67.66259	-5.432449E-010	0.0096743	5
	49	68	12.40079	66843.93	-152057.6	1	166101.3	-66.26991	-6.456854E-010	0.0096813	5
	50	70	9.93114	83843.45	-179442.2	1	198063.7	-64.95591	1.699455E-010	0.0096683	5
	51	71	7.944915	105943.6	-208519.7	1	233890	-63.06602	-1.38749E-010	0.0096769	5
	52	73	6.317385	132354.6	-240504.5	1	274518	-61.1751	1.837682E-010	0.0096569	5
	53	75	5.008013	164003.5	-275636.5	1	320737.7	-59.24739	-2.761681E-010	0.0096685	5
	54	78	3.945707	201921.1	-312809.4	1	372319.5	-57.15742	3.145118E-010	0.0096846	5
	55	80	3.158693	241055.6	-350842.7	1	425674.1	-55.50797	-1.910288E-010	0.0096618	5
	56	84	2.504006	285568.3	-392569.5	1	485448.3	-53.9666	5.123695E-010	0.0096704	5
	57	86	1.998082	331916.9	-435967.8	1	547938.6	-52.71676	1.235606E-010	0.0097145	5
	58	89	1.584686	379970.1	-486858.6	1	617582.8	-52.02965	2.151692E-010	0.0096784	5
	59	93	1.266892	431171.5	-542550.9	1	693015.4	-51.52543	1.748668E-011	0.0097139	5
	60	97	0.999041	485839.9	-612853.3	1	782067.5	-51.59435	7.961604E-011	0.009639	5
