EXPLAIN
TAG	EISPOT
TITLE	LABEL	Potentiostatic EIS	Test &Identifier
DATE	LABEL	10/2/2019	Date
TIME	LABEL	9:40:40	Time
NOTES	NOTES	2	&Notes...
	
	
PSTAT	PSTAT	REF600-11020	Potentiostat
VDC	POTEN	0.00000E+000	T	DC &Voltage (V)
FREQINIT	QUANT	1.00000E+006	Initial Fre&q. (Hz)
FREQFINAL	QUANT	1.00000E+000	Final Fre&q. (Hz)
PTSPERDEC	QUANT	1.00000E+001	Points/&decade
VAC	QUANT	2.50000E+001	AC &Voltage (mV rms)
AREA	QUANT	1.00000E-002	&Area (cm^2)
CONDIT	TWOPARAM	T	5.00000E+000	0.00000E+000	Conditionin&g	Time(s)	E(V)
DELAY	TWOPARAM	T	5.00000E+000	0.00000E+000	Init. De&lay	Time(s)	Stab.(mV/s)
SPEED	SELECTOR	1	&Optimize for:
ZGUESS	QUANT	1.00000E+004	E&stimated Z (ohms)
OCVCURVE	TABLE	19
	Pt	T	Vf	Vm	Ach	Over
	#	s	V vs. Ref.	V	V	bits
	0	0.258333	3.08603E-003	3.08603E-003	5.65066E-004	...........
	1	0.516667	3.07971E-003	2.75505E-003	5.65999E-004	...........
	2	0.775	3.04175E-003	2.48681E-003	5.62299E-004	...........
	3	1.03333	2.93722E-003	2.22717E-003	5.67399E-004	...........
	4	1.29167	2.75610E-003	2.00381E-003	5.57933E-004	...........
	5	1.55	2.52413E-003	1.79194E-003	5.58533E-004	...........
	6	1.80833	2.27783E-003	1.60394E-003	5.65266E-004	...........
	7	2.06667	2.04160E-003	1.41573E-003	5.67566E-004	...........
	8	2.325	1.82398E-003	1.24149E-003	5.63132E-004	...........
	9	2.58333	1.62390E-003	1.08120E-003	5.65632E-004	...........
	10	2.84167	1.43788E-003	9.25956E-004	5.67866E-004	...........
	11	3.1	1.26329E-003	7.69621E-004	5.62932E-004	...........
	12	3.35833	1.09787E-003	6.25241E-004	5.62132E-004	...........
	13	3.61667	9.40149E-004	5.15208E-004	5.65066E-004	...........
	14	3.875	7.90949E-004	3.85588E-004	5.63366E-004	...........
	15	4.13333	6.51409E-004	2.46249E-004	5.65866E-004	...........
	16	4.39167	5.18907E-004	1.10103E-004	5.62999E-004	...........
	17	4.65	3.88431E-004	-9.56961E-006	5.64399E-004	...........
	18	4.90833	2.58000E-004	-1.19054E-004	5.56399E-004	...........
EOC	QUANT	0.000258	Open Circuit (V)
PSTATMODEL	IQUANT	4	Pstat Model
PSTATSECTION	LABEL	REF600-11020	Pstat Section
PSTATSERIALNO	LABEL	11020	Pstat Serial Number
CTRLMODE	IQUANT	1	Control Mode
IESTAB	IQUANT	0	I/E Stability
CASPEED	IQUANT	1	Control Amp Speed
CONVENTION	IQUANT	1	Current Convention
ICHRANGE	IQUANT	2	Ich Range
ICHRANGEMODE	TOGGLE	F	Ich Auto Range
ICHOFFSETENABLE	TOGGLE	T	Ich Offset Enable
ICHOFFSET	QUANT	0	Ich Offset (V)
ICHFILTER	IQUANT	3	Ich Filter
VCHRANGE	IQUANT	2	Vch Range
VCHRANGEMODE	TOGGLE	F	Vch Auto Range
VCHOFFSETENABLE	TOGGLE	T	Vch Offset Enable
VCHOFFSET	QUANT	0	Vch Offset (V)
VCHFILTER	IQUANT	3	Vch Filter
ACHRANGE	IQUANT	2	Ach Range
ACHOFFSETENABLE	TOGGLE	F	Ach Offset Enable
ACHOFFSET	QUANT	0	Ach Offset (V)
ACHFILTER	IQUANT	3	Ach Filter
IERANGELOWERLIMIT	IQUANT	1	I/E Range Lower Limit
IERANGEMODE	TOGGLE	F	I/E AutoRange
IERANGE	IQUANT	4	I/E Range
POSFEEDENABLE	TOGGLE	F	Positive Feedback IR Comp
POSFEEDRESISTANCE	QUANT	0	Positive Feedback Resistance (ohm)
ACHSELECT	IQUANT	0	Ach Select
CABLEID	IQUANT	14	Cable ID
DCCALDATE	LABEL	8/19/2019	DC Calibration Date
ACCALDATE	LABEL	8/19/2019	AC Calibration Date
THERMOSELECT	IQUANT	1	Thermo Select
FRAMEWORKVERSION	QUANT	6.33	Framework Version
INSTRUMENTVERSION	LABEL	3.50	Instrument Version
ZCURVE	TABLE
	Pt	Time	Freq	Zreal	Zimag	Zsig	Zmod	Zphz	Idc	Vdc	IERange
	#	s	Hz	ohm	ohm	V	ohm	°	A	V	#
	0	1	1000078	2401.262	-1733.128	1	2961.384	-35.82013	1.253932E-006	0.001717	8
	1	3	794390.6	2744.095	-1662.294	1	3208.314	-31.20627	-4.240399E-006	0.002922	8
	2	4	630984.4	3059.721	-1517.577	1	3415.396	-26.38073	1.885842E-006	0.0020453	8
	3	6	501234.4	3339.359	-1365.469	1	3607.745	-22.23973	3.709526E-006	0.0012109	8
	4	7	398109.4	3522.102	-1201.913	1	3721.532	-18.84214	2.246971E-006	0.0013242	8
	5	8	316265.6	3677.761	-1021.685	1	3817.037	-15.52534	-2.774334E-006	0.0022325	8
	6	10	251203.1	3796.341	-875.0499	1	3895.885	-12.97987	1.315521E-006	0.0016137	8
	7	11	199546.9	3921.694	-733.9477	1	3989.782	-10.60032	-2.92664E-006	0.0024395	8
	8	13	158578.1	3957.913	-655.7759	1	4011.872	-9.407718	1.393676E-006	0.0015139	8
	9	14	125953.1	4017.322	-511.9503	1	4049.811	-7.262384	4.919036E-007	0.0007899	7
	10	15	100078.1	4052.229	-459.7206	1	4078.223	-6.472465	-8.389432E-009	0.0018557	7
	11	17	79453.13	4085.421	-420.1158	1	4106.965	-5.871255	-1.408863E-008	0.0018531	7
	12	18	63140.62	4115.716	-391.4749	1	4134.292	-5.433461	-3.533061E-008	0.0018254	7
	13	19	50203.12	4146.455	-374.0991	1	4163.296	-5.15535	-5.337462E-009	0.0017528	7
	14	21	39890.62	4174.637	-366.395	1	4190.685	-5.015821	-7.665342E-008	0.0019229	7
	15	22	31640.63	4203.213	-369.0179	1	4219.381	-5.017374	-4.329105E-008	0.0018329	7
	16	23	25171.88	4233.181	-381.3605	1	4250.325	-5.147789	6.860855E-008	0.0016833	7
	17	25	20015.62	4265.09	-402.481	1	4284.039	-5.39083	8.15994E-008	0.001635	7
	18	26	15890.62	4298.058	-435.0143	1	4320.016	-5.779331	-4.152832E-008	0.0018816	7
	19	27	12609.37	4332.924	-479.1087	1	4359.333	-6.30979	1.296247E-007	0.0016067	7
	20	29	10078.13	4370.077	-532.7177	1	4402.426	-6.950134	-3.74387E-008	0.0018809	7
	21	30	8015.625	4408.325	-602.3055	1	4449.281	-7.780098	-4.631102E-009	0.001752	7
	22	31	6328.125	4452.167	-693.1066	1	4505.795	-8.848692	1.289605E-007	0.0016043	7
	23	33	5015.625	4500.371	-805.1263	1	4571.823	-10.14304	3.498053E-008	0.0017595	7
	24	34	3984.375	4550.759	-942.3287	1	4647.3	-11.69893	-7.24013E-008	0.0019156	7
	25	35	3170.956	4607.222	-1110.122	1	4739.078	-13.54733	-7.358113E-008	0.0019195	7
	26	37	2527.573	4670.814	-1315.615	1	4852.562	-15.73079	-4.261442E-008	0.0018237	7
	27	38	1976.103	4748.484	-1590.381	1	5007.736	-18.51694	8.177753E-008	0.0016286	7
	28	40	1577.524	4831.621	-1902.276	1	5192.611	-21.49024	-1.577171E-008	0.0019288	7
	29	41	1265.625	4927.988	-2269.876	1	5425.625	-24.73123	8.224166E-008	0.0016281	7
	30	42	998.264	5045.354	-2758.429	1	5750.176	-28.6666	7.932946E-008	0.0017454	7
	31	44	796.875	5177.751	-3323.024	1	6152.365	-32.69191	-1.167426E-008	0.0018345	7
	32	45	627.7902	5338.667	-4052.497	1	6702.543	-37.20155	4.598951E-008	0.0016509	7
	33	46	505.5147	5513.569	-4872.453	1	7358.005	-41.46769	3.726911E-008	0.0017578	7
	34	48	397.9953	5734.539	-5969.691	1	8277.811	-46.15099	5.910204E-009	0.0018112	7
	35	49	315.5048	5992.809	-7294.436	1	9440.474	-50.59488	5.893392E-009	0.0018094	7
	36	50	252.4038	6292.981	-8859.331	1	10866.89	-54.61297	1.252583E-009	0.0017492	6
	37	52	198.6229	6686.293	-10936.28	1	12818.3	-58.55895	1.023668E-009	0.0017502	6
	38	53	158.3615	7150.405	-13361.76	1	15154.7	-61.847	8.533556E-010	0.0017454	6
	39	54	125.558	7754.981	-16416.89	1	18156.38	-64.71497	9.696912E-010	0.0017422	6
	40	56	100.4464	8490.69	-20026.7	1	21752.25	-67.02458	1.007383E-009	0.0017415	6
	41	57	79.00281	9509.11	-24782.17	1	26543.91	-69.0078	9.960456E-010	0.0017405	6
	42	58	63.3446	10784.52	-30277.59	1	32140.91	-70.39471	5.848395E-010	0.0017371	6
	43	60	49.86702	12466.4	-37144.24	1	39180.43	-71.44714	7.513466E-010	0.0017371	6
	44	61	39.72458	14796.47	-45345.77	1	47698.79	-71.92833	9.466833E-010	0.0017484	6
	45	63	31.6723	17664.07	-55157.62	1	57917.03	-72.24249	1.068295E-009	0.0017484	6
	46	64	24.93351	21815.28	-67674.6	1	71103.85	-72.13299	9.211346E-010	0.0017421	6
	47	65	19.86229	27025.05	-81986.88	1	86326.14	-71.75641	1.123833E-009	0.0017468	6
	48	67	15.83615	34123.49	-98708.5	1	104440.3	-70.92976	1.639915E-009	0.0017475	6
	49	68	12.40079	43247.37	-120524.9	1	128049.1	-70.26073	2.446895E-010	0.0017459	5
	50	70	9.93114	54525.46	-142625	1	152692.3	-69.07818	8.661418E-010	0.001748	5
	51	71	7.944915	68581.37	-168721.2	1	182127.1	-67.87937	2.739948E-010	0.0017582	5
	52	73	6.317385	87062.77	-198810.6	1	217038.2	-66.35051	3.387807E-012	0.0017668	5
	53	75	5.008013	110247.8	-232839.8	1	257621.8	-64.66282	5.246376E-010	0.001754	5
	54	77	3.945707	138604.1	-271904.5	1	305193.6	-62.98966	2.720895E-010	0.0017506	5
	55	80	3.158693	169828.5	-311561.1	1	354840.8	-61.40569	2.909744E-010	0.0017649	5
	56	83	2.504006	206446	-357260.1	1	412619.3	-59.97815	1.96932E-010	0.0017379	5
	57	86	1.998082	246462.5	-407946	1	476616.9	-58.86153	-1.356396E-009	0.0017386	5
	58	89	1.584686	293829.6	-460749.1	1	546466.4	-57.47346	1.902849E-010	0.001789	5
	59	93	1.266892	340813.4	-522569.2	1	623884.9	-56.88809	2.0301E-012	0.0017308	5
	60	97	0.999041	396534.4	-597034.1	1	716721.2	-56.40892	3.644856E-010	0.0017807	5
