EXPLAIN
TAG	EISPOT
TITLE	LABEL	Potentiostatic EIS	Test &Identifier
DATE	LABEL	9/26/2019	Date
TIME	LABEL	9:00:55	Time
NOTES	NOTES	2	&Notes...
	
	
PSTAT	PSTAT	REF600-11020	Potentiostat
VDC	POTEN	0.00000E+000	T	DC &Voltage (V)
FREQINIT	QUANT	1.00000E+006	Initial Fre&q. (Hz)
FREQFINAL	QUANT	1.00000E+000	Final Fre&q. (Hz)
PTSPERDEC	QUANT	1.00000E+001	Points/&decade
VAC	QUANT	2.50000E+001	AC &Voltage (mV rms)
AREA	QUANT	1.00000E-002	&Area (cm^2)
CONDIT	TWOPARAM	T	5.00000E+000	0.00000E+000	Conditionin&g	Time(s)	E(V)
DELAY	TWOPARAM	T	5.00000E+000	0.00000E+000	Init. De&lay	Time(s)	Stab.(mV/s)
SPEED	SELECTOR	1	&Optimize for:
ZGUESS	QUANT	1.00000E+004	E&stimated Z (ohms)
OCVCURVE	TABLE	19
	Pt	T	Vf	Vm	Ach	Over
	#	s	V vs. Ref.	V	V	bits
	0	0.258333	4.59842E-002	4.59842E-002	5.67132E-004	...........
	1	0.516667	4.60444E-002	4.91350E-002	5.65032E-004	...........
	2	0.775	4.64127E-002	5.20547E-002	5.67566E-004	...........
	3	1.03333	4.74479E-002	5.47229E-002	5.73466E-004	...........
	4	1.29167	4.92790E-002	5.72013E-002	5.71932E-004	...........
	5	1.55	5.16724E-002	5.94882E-002	5.74865E-004	...........
	6	1.80833	5.42643E-002	6.16077E-002	5.73366E-004	...........
	7	2.06667	5.67951E-002	6.35732E-002	5.75199E-004	...........
	8	2.325	5.91543E-002	6.54378E-002	5.75432E-004	...........
	9	2.58333	6.13281E-002	6.72073E-002	5.69799E-004	...........
	10	2.84167	6.33411E-002	6.88337E-002	5.71232E-004	...........
	11	3.1	6.52199E-002	7.03576E-002	5.66432E-004	...........
	12	3.35833	6.69797E-002	7.17964E-002	5.63199E-004	...........
	13	3.61667	6.86286E-002	7.31713E-002	5.67032E-004	...........
	14	3.875	7.01759E-002	7.44608E-002	5.70166E-004	...........
	15	4.13333	7.16321E-002	7.56516E-002	5.68666E-004	...........
	16	4.39167	7.30049E-002	7.68213E-002	5.72532E-004	...........
	17	4.65	7.42993E-002	7.78753E-002	5.68732E-004	...........
	18	4.90833	7.55195E-002	7.88898E-002	5.72732E-004	...........
EOC	QUANT	0.0755195	Open Circuit (V)
PSTATMODEL	IQUANT	4	Pstat Model
PSTATSECTION	LABEL	REF600-11020	Pstat Section
PSTATSERIALNO	LABEL	11020	Pstat Serial Number
CTRLMODE	IQUANT	1	Control Mode
IESTAB	IQUANT	0	I/E Stability
CASPEED	IQUANT	1	Control Amp Speed
CONVENTION	IQUANT	1	Current Convention
ICHRANGE	IQUANT	2	Ich Range
ICHRANGEMODE	TOGGLE	F	Ich Auto Range
ICHOFFSETENABLE	TOGGLE	T	Ich Offset Enable
ICHOFFSET	QUANT	0	Ich Offset (V)
ICHFILTER	IQUANT	3	Ich Filter
VCHRANGE	IQUANT	2	Vch Range
VCHRANGEMODE	TOGGLE	F	Vch Auto Range
VCHOFFSETENABLE	TOGGLE	T	Vch Offset Enable
VCHOFFSET	QUANT	0	Vch Offset (V)
VCHFILTER	IQUANT	3	Vch Filter
ACHRANGE	IQUANT	2	Ach Range
ACHOFFSETENABLE	TOGGLE	F	Ach Offset Enable
ACHOFFSET	QUANT	0	Ach Offset (V)
ACHFILTER	IQUANT	3	Ach Filter
IERANGELOWERLIMIT	IQUANT	1	I/E Range Lower Limit
IERANGEMODE	TOGGLE	F	I/E AutoRange
IERANGE	IQUANT	7	I/E Range
POSFEEDENABLE	TOGGLE	F	Positive Feedback IR Comp
POSFEEDRESISTANCE	QUANT	0	Positive Feedback Resistance (ohm)
ACHSELECT	IQUANT	0	Ach Select
CABLEID	IQUANT	14	Cable ID
DCCALDATE	LABEL	8/19/2019	DC Calibration Date
ACCALDATE	LABEL	8/19/2019	AC Calibration Date
THERMOSELECT	IQUANT	1	Thermo Select
FRAMEWORKVERSION	QUANT	6.33	Framework Version
INSTRUMENTVERSION	LABEL	3.50	Instrument Version
ZCURVE	TABLE
	Pt	Time	Freq	Zreal	Zimag	Zsig	Zmod	Zphz	Idc	Vdc	IERange
	#	s	Hz	ohm	ohm	V	ohm	°	A	V	#
	0	1	1000078	1993.992	-1867.458	1	2731.923	-43.12318	-6.379733E-006	0.0791579	8
	1	2	794390.6	2358.563	-1966.173	1	3070.612	-39.81565	3.907783E-006	0.0769854	8
	2	4	630984.4	2721.117	-1994.126	1	3373.576	-36.23522	3.94387E-007	0.0769516	8
	3	5	501234.4	3080.578	-1970.823	1	3657.062	-32.60938	1.307414E-006	0.0768202	8
	4	6	398109.4	3461.078	-1938.828	1	3967.129	-29.2567	3.786355E-006	0.0764032	8
	5	8	316265.6	3817.112	-1856.155	1	4244.485	-25.93236	-2.392849E-006	0.0775445	8
	6	9	251203.1	4109.283	-1726.749	1	4457.339	-22.79249	-3.649616E-007	0.0770922	8
	7	11	199546.9	4400.048	-1570.482	1	4671.92	-19.6427	3.063469E-006	0.076463	8
	8	12	158578.1	4600.363	-1443.353	1	4821.474	-17.41913	-2.958288E-006	0.0777068	8
	9	14	125953.1	4827.902	-1239.483	1	4984.472	-14.39875	1.307248E-006	0.0742456	7
	10	15	100078.1	4969.803	-1142.511	1	5099.438	-12.94681	9.569819E-008	0.0769938	7
	11	17	79453.13	5098.346	-1061.505	1	5207.68	-11.76128	3.642916E-008	0.0769276	7
	12	18	63140.62	5207.583	-997.814	1	5302.316	-10.84685	7.001706E-009	0.0769876	7
	13	19	50203.12	5305.866	-955.529	1	5391.22	-10.20892	-5.224853E-008	0.0772339	7
	14	21	39890.62	5396.384	-933.0067	1	5476.446	-9.80917	6.878827E-008	0.0769441	7
	15	22	31640.63	5486.712	-933.035	1	5565.479	-9.65103	-7.845993E-008	0.0771835	7
	16	24	25171.88	5584.251	-957.308	1	5665.713	-9.72766	-4.124791E-009	0.0771807	7
	17	25	20015.62	5672.447	-997.214	1	5759.435	-9.97069	-2.209911E-008	0.0771244	7
	18	26	15890.62	5775.613	-1060.988	1	5872.257	-10.40926	1.387228E-007	0.0768547	7
	19	28	12609.37	5882.49	-1136.374	1	5991.246	-10.93367	4.084069E-008	0.0769176	7
	20	29	10078.13	6001.006	-1249.098	1	6129.626	-11.75812	-2.181269E-008	0.0771244	7
	21	30	8015.625	6133.81	-1377.66	1	6286.618	-12.65862	9.599039E-008	0.0769877	7
	22	32	6328.125	6284.304	-1535.752	1	6469.235	-13.73273	-2.981565E-008	0.077046	7
	23	33	5015.625	6455.708	-1724.924	1	6682.18	-14.9596	-2.248451E-009	0.0770884	7
	24	34	3984.375	6638.094	-1939.373	1	6915.595	-16.28616	-4.422965E-008	0.077142	7
	25	36	3170.956	6845.941	-2191.682	1	7188.211	-17.75212	-3.997157E-008	0.0770698	7
	26	37	2527.573	7079.133	-2481.61	1	7501.5	-19.31826	6.973948E-008	0.0769323	7
	27	39	1976.103	7364.664	-2842.129	1	7894.046	-21.10231	-3.964794E-008	0.0770969	7
	28	40	1577.524	7658.943	-3224.977	1	8310.228	-22.83467	-7.314485E-008	0.0771725	7
	29	41	1265.625	7998.384	-3645.228	1	8789.871	-24.50092	4.639364E-008	0.0769879	7
	30	43	998.264	8348.131	-4175.46	1	9334.118	-26.57271	-3.458016E-008	0.0770675	7
	31	44	796.875	8747.556	-4743.111	1	9950.72	-28.46749	-6.541051E-009	0.0770595	6
	32	45	627.7902	9183.087	-5454.566	1	10680.89	-30.70945	-3.346547E-009	0.0771057	6
	33	47	505.5147	9607.39	-6229.166	1	11450.08	-32.95826	2.529465E-009	0.0768713	6
	34	48	397.9953	10071.95	-7237.448	1	12402.62	-35.70005	-8.896081E-010	0.0770163	6
	35	49	315.5048	10534.1	-8453.907	1	13506.88	-38.74801	5.570728E-010	0.0770158	6
	36	51	252.4038	10993.62	-9902.58	1	14795.97	-42.01115	-1.009965E-009	0.0770133	6
	37	52	198.6229	11514.17	-11848.36	1	16521.49	-45.81955	-3.842991E-010	0.0770105	6
	38	54	158.3615	12054.24	-14159.26	1	18595.41	-49.59115	-8.881669E-010	0.0770072	6
	39	55	125.558	12679.14	-17122.64	1	21306	-53.48043	-2.89336E-010	0.0770086	6
	40	56	100.4464	13369.62	-20668.76	1	24615.94	-57.10313	-6.794508E-010	0.0770115	6
	41	58	79.00281	14317.29	-25324.77	1	29091.73	-60.51846	-1.010989E-009	0.077004	6
	42	59	63.3446	15365.76	-31110.69	1	34698.44	-63.71494	3.369973E-010	0.0770051	6
	43	60	49.86702	16725.61	-37761.93	1	41300.23	-66.11037	-1.268443E-009	0.0769997	6
	44	62	39.72458	18823.86	-46266.37	1	49949.13	-67.86064	7.586967E-011	0.0770083	6
	45	63	31.6723	21236.7	-56647.78	1	60497.68	-69.44947	-7.560432E-010	0.0770029	6
	46	65	24.93351	24604.88	-69601.47	1	73822.52	-70.53094	-2.576635E-010	0.0770036	6
	47	66	19.86229	28624.37	-84777.24	1	89479.24	-71.34315	-6.271927E-012	0.0770136	6
	48	67	15.83615	33990.64	-104134.9	1	109542	-71.92282	-2.652303E-009	0.0770088	5
	49	69	12.40079	41794.37	-125231	1	132021.1	-71.54417	6.064988E-010	0.0770063	5
	50	70	9.93114	50196.01	-152398.6	1	160452.4	-71.7695	-5.015261E-010	0.0769994	5
	51	72	7.944915	61436.64	-183951.2	1	193939.4	-71.53154	-2.470255E-010	0.0770025	5
	52	73	6.317385	76230.86	-219880.6	1	232720.1	-70.87897	-4.489628E-010	0.0769934	5
	53	75	5.008013	94913.92	-264436.6	1	280954.4	-70.25547	-5.389065E-010	0.0770119	5
	54	78	3.945707	118599.1	-318005.9	1	339401.7	-69.54718	-5.551029E-010	0.076997	5
	55	81	3.158693	146766.5	-376427.2	1	404027.1	-68.69951	-5.053401E-010	0.0770151	5
	56	84	2.504006	182342.6	-446975.6	1	482738	-67.80711	-6.565802E-010	0.0770055	5
	57	87	1.998082	224184.3	-526247	1	572009.2	-66.92571	-7.396332E-010	0.0769686	5
	58	90	1.584686	275090.5	-618838.1	1	677226.3	-66.03354	-5.764729E-010	0.0770295	5
	59	93	1.266892	335491.9	-726281.7	1	800024.9	-65.20633	-5.387994E-010	0.0769744	5
	60	98	0.999041	412863.2	-855830.9	1	950212	-64.24678	-4.86678E-010	0.0770517	5
