EXPLAIN
TAG	EISPOT
TITLE	LABEL	Potentiostatic IDE	Test &Identifier
DATE	LABEL	9/10/2019	Date
TIME	LABEL	8:39:54	Time
NOTES	NOTES	1	&Notes...
	
PSTAT	PSTAT	REF600-11020	Potentiostat
VDC	POTEN	0.00000E+000	T	DC &Voltage (V)
FREQINIT	QUANT	1.00000E+006	Initial Fre&q. (Hz)
FREQFINAL	QUANT	1.00000E+000	Final Fre&q. (Hz)
PTSPERDEC	QUANT	1.00000E+001	Points/&decade
VAC	QUANT	2.50000E+001	AC &Voltage (mV rms)
AREA	QUANT	1.00000E-002	&Area (cm^2)
CONDIT	TWOPARAM	T	5.00000E+000	0.00000E+000	Conditionin&g	Time(s)	E(V)
DELAY	TWOPARAM	T	5.00000E+000	0.00000E+000	Init. De&lay	Time(s)	Stab.(mV/s)
SPEED	SELECTOR	1	&Optimize for:
ZGUESS	QUANT	1.00000E+007	E&stimated Z (ohms)
OCVCURVE	TABLE	19
	Pt	T	Vf	Vm	Ach	Over
	#	s	V vs. Ref.	V	V	bits
	0	0.258333	7.56752E-003	7.56752E-003	5.65532E-004	...........
	1	0.516667	7.56745E-003	7.56377E-003	5.63499E-004	...........
	2	0.775	7.56722E-003	7.57139E-003	5.71132E-004	...........
	3	1.03333	7.56759E-003	7.59443E-003	5.67232E-004	...........
	4	1.29167	7.57106E-003	7.62316E-003	5.65932E-004	...........
	5	1.55	7.58100E-003	7.66126E-003	5.68466E-004	...........
	6	1.80833	7.59956E-003	7.70334E-003	5.63066E-004	...........
	7	2.06667	7.62692E-003	7.74963E-003	5.64732E-004	...........
	8	2.325	7.66176E-003	7.79353E-003	5.67066E-004	...........
	9	2.58333	7.70202E-003	7.84159E-003	5.61466E-004	...........
	10	2.84167	7.74563E-003	7.88774E-003	5.60166E-004	...........
	11	3.1	7.79108E-003	7.93423E-003	5.64699E-004	...........
	12	3.35833	7.83736E-003	7.97980E-003	5.65866E-004	...........
	13	3.61667	7.88389E-003	8.02850E-003	5.62299E-004	...........
	14	3.875	7.93048E-003	8.07359E-003	5.65832E-004	...........
	15	4.13333	7.97704E-003	8.11642E-003	5.67999E-004	...........
	16	4.39167	8.02337E-003	8.16712E-003	5.66266E-004	...........
	17	4.65	8.06946E-003	8.21378E-003	5.67199E-004	...........
	18	4.90833	8.11585E-003	8.26318E-003	5.63432E-004	...........
EOC	QUANT	0.0081159	Open Circuit (V)
PSTATMODEL	IQUANT	4	Pstat Model
PSTATSECTION	LABEL	REF600-11020	Pstat Section
PSTATSERIALNO	LABEL	11020	Pstat Serial Number
CTRLMODE	IQUANT	1	Control Mode
IESTAB	IQUANT	0	I/E Stability
CASPEED	IQUANT	1	Control Amp Speed
CONVENTION	IQUANT	1	Current Convention
ICHRANGE	IQUANT	2	Ich Range
ICHRANGEMODE	TOGGLE	F	Ich Auto Range
ICHOFFSETENABLE	TOGGLE	T	Ich Offset Enable
ICHOFFSET	QUANT	0	Ich Offset (V)
ICHFILTER	IQUANT	3	Ich Filter
VCHRANGE	IQUANT	2	Vch Range
VCHRANGEMODE	TOGGLE	F	Vch Auto Range
VCHOFFSETENABLE	TOGGLE	T	Vch Offset Enable
VCHOFFSET	QUANT	0	Vch Offset (V)
VCHFILTER	IQUANT	3	Vch Filter
ACHRANGE	IQUANT	2	Ach Range
ACHOFFSETENABLE	TOGGLE	F	Ach Offset Enable
ACHOFFSET	QUANT	0	Ach Offset (V)
ACHFILTER	IQUANT	3	Ach Filter
IERANGELOWERLIMIT	IQUANT	1	I/E Range Lower Limit
IERANGEMODE	TOGGLE	F	I/E AutoRange
IERANGE	IQUANT	3	I/E Range
POSFEEDENABLE	TOGGLE	F	Positive Feedback IR Comp
POSFEEDRESISTANCE	QUANT	0	Positive Feedback Resistance (ohm)
ACHSELECT	IQUANT	0	Ach Select
CABLEID	IQUANT	14	Cable ID
DCCALDATE	LABEL	8/19/2019	DC Calibration Date
ACCALDATE	LABEL	8/19/2019	AC Calibration Date
THERMOSELECT	IQUANT	1	Thermo Select
FRAMEWORKVERSION	QUANT	6.33	Framework Version
INSTRUMENTVERSION	LABEL	3.50	Instrument Version
ZCURVE	TABLE
	Pt	Time	Freq	Zreal	Zimag	Zsig	Zmod	Zphz	Idc	Vdc	IERange
	#	s	Hz	ohm	ohm	V	ohm	°	A	V	#
	0	3	1000078	2710.922	-1599.884	1	3147.813	-30.5475	1.65202E-007	0.0101108	8
	1	4	794390.6	3007.12	-1476.5	1	3350.049	-26.15111	-5.214029E-007	0.0099918	8
	2	5	630984.4	3269.364	-1299.85	1	3518.288	-21.68203	-3.099887E-007	0.0098228	8
	3	7	501234.4	3454.019	-1144.021	1	3638.548	-18.32562	3.614872E-006	0.0090999	8
	4	8	398109.4	3610.995	-986.797	1	3743.401	-15.28436	-4.043311E-006	0.010361	8
	5	9	316265.6	3708.624	-858.1383	1	3806.612	-13.02838	2.626701E-007	0.0097534	8
	6	11	251203.1	3779.09	-728.3687	1	3848.642	-10.90922	3.846217E-006	0.0087818	8
	7	12	199546.9	3844.39	-628.5865	1	3895.44	-9.286116	-1.466395E-006	0.0099083	8
	8	13	158578.1	3906.149	-556.7375	1	3945.625	-8.111648	3.684793E-007	0.00949	8
	9	15	125953.1	3947.096	-465.2958	1	3974.427	-6.723175	7.330418E-007	0.0079317	7
	10	16	100078.1	3979.878	-430.9542	1	4003.143	-6.180095	4.99701E-008	0.0094908	7
	11	17	79453.13	4013.616	-413.2778	1	4034.837	-5.878967	7.752072E-008	0.0095056	7
	12	19	63140.62	4046.169	-404.8884	1	4066.377	-5.714399	-6.287811E-008	0.0097539	7
	13	20	50203.12	4080.003	-407.4189	1	4100.295	-5.702508	-4.234564E-008	0.0095901	7
	14	21	39890.62	4113.258	-419.6236	1	4134.607	-5.82501	3.531342E-008	0.0094543	7
	15	23	31640.63	4153.507	-441.135	1	4176.867	-6.062534	-1.524443E-009	0.0095632	7
	16	24	25171.88	4192.503	-474.1238	1	4219.227	-6.45208	4.038128E-008	0.0095239	7
	17	25	20015.62	4236.917	-517.6628	1	4268.424	-6.965823	-1.048813E-008	0.0096173	7
	18	27	15890.62	4285.354	-572.0419	1	4323.365	-7.603333	3.651983E-008	0.0094528	7
	19	28	12609.37	4337.604	-639.5253	1	4384.496	-8.387118	-3.168424E-009	0.0095581	7
	20	29	10078.13	4393.737	-718.9047	1	4452.163	-9.292414	-3.731369E-008	0.0096373	7
	21	31	8015.625	4452.806	-818.0751	1	4527.331	-10.41036	-4.844644E-008	0.0096379	7
	22	32	6328.125	4521.322	-941.4722	1	4618.303	-11.76258	4.375047E-008	0.0094949	7
	23	33	5015.625	4596.075	-1090.374	1	4723.645	-13.34613	-6.305626E-008	0.0097528	7
	24	35	3984.375	4678.428	-1267.051	1	4846.969	-15.1538	-2.199541E-009	0.0095557	7
	25	36	3170.956	4764.057	-1484.152	1	4989.885	-17.30344	7.576578E-008	0.0094183	7
	26	37	2527.573	4861.485	-1744.948	1	5165.16	-19.74475	-4.852209E-010	0.0095634	7
	27	39	1976.103	4980.212	-2089.987	1	5400.977	-22.76575	4.290818E-008	0.0094914	7
	28	40	1577.524	5104.393	-2480.65	1	5675.249	-25.91898	-4.658058E-008	0.0096731	7
	29	41	1265.625	5241.641	-2942.145	1	6010.908	-29.3056	-4.642119E-008	0.0096711	7
	30	43	998.264	5412.601	-3549.752	1	6472.789	-33.25811	-5.974211E-008	0.0097674	7
	31	44	796.875	5602.81	-4246.453	1	7030.209	-37.15903	-4.086966E-008	0.0095921	7
	32	45	627.7902	5833.59	-5161.006	1	7788.887	-41.49935	8.660773E-008	0.0094512	7
	33	46	505.5147	6076.976	-6154.875	1	8649.4	-45.36489	3.01522E-008	0.0094828	7
	34	48	397.9953	6407.612	-7516.122	1	9876.72	-49.55189	5.303338E-009	0.009594	7
	35	49	315.5048	6780.173	-9129.819	1	11372.09	-53.40093	1.008487E-009	0.0095281	6
	36	50	252.4038	7201.567	-11023.76	1	13167.61	-56.84435	1.272154E-009	0.0095247	6
	37	52	198.6229	7739.822	-13519.75	1	15578.46	-60.20961	8.869494E-010	0.0095325	6
	38	53	158.3615	8350.829	-16420.12	1	18421.63	-63.04334	6.850294E-010	0.0095261	6
	39	54	125.558	9110.304	-20073.83	1	22044.42	-65.58956	1.028537E-009	0.0095266	6
	40	56	100.4464	10007.02	-24366.1	1	26340.98	-67.67233	5.097505E-010	0.0095255	6
	41	57	79.00281	11176.78	-30074.39	1	32084.1	-69.61304	6.282855E-010	0.0095231	6
	42	59	63.3446	12755.38	-36397.68	1	38568	-70.68726	8.717508E-010	0.0095261	6
	43	60	49.86702	14547.98	-45207.13	1	47490.3	-72.16145	8.611247E-010	0.0095302	6
	44	61	39.72458	16960.08	-55016.3	1	57571.15	-72.86684	1.114283E-009	0.0095315	6
	45	63	31.6723	20173.94	-66971.21	1	69943.77	-73.23597	7.488333E-010	0.0095323	6
	46	64	24.93351	24541.65	-82455.24	1	86029.99	-73.4251	8.501037E-010	0.0095283	6
	47	65	19.86229	29971	-100308.6	1	104690.4	-73.36449	1.241855E-009	0.0095308	6
	48	67	15.83615	37006.94	-121530.7	1	127040.2	-73.06414	2.295193E-010	0.0095305	5
	49	68	12.40079	47769.41	-148650	1	156136.9	-72.18494	1.123548E-009	0.0095362	5
	50	69	9.93114	59558.07	-178258.2	1	187944.6	-71.52495	3.504601E-010	0.0095408	5
	51	71	7.944915	74944.88	-212669.8	1	225488.7	-70.58753	9.32504E-010	0.0095307	5
	52	73	6.317385	95690.6	-254124.1	1	271543.3	-69.3661	4.900074E-010	0.0095416	5
	53	75	5.008013	122052	-302885.5	1	326552.2	-68.05234	3.987067E-010	0.0095418	5
	54	77	3.945707	156420	-359858.7	1	392384.4	-66.50684	-4.150119E-011	0.0095316	5
	55	80	3.158693	196554.8	-419068	1	462873.4	-64.87209	9.849981E-011	0.0095223	5
	56	83	2.504006	246415.5	-488032.3	1	546713.9	-63.21004	3.619052E-010	0.0095408	5
	57	86	1.998082	305488.9	-562067.5	1	639721.3	-61.47551	2.937818E-010	0.0095696	5
	58	89	1.584686	374356.6	-643272.8	1	744273.3	-59.80247	2.651429E-010	0.009538	5
	59	92	1.266892	454511.9	-729983.4	1	859916.8	-58.09224	3.503553E-011	0.0095775	5
	60	97	0.999041	545814.8	-827744.8	1	991502	-56.59914	1.873824E-010	0.0095082	5
