EXPLAIN
TAG	EISPOT
TITLE	LABEL	Potentiostatic EIS	Test &Identifier
DATE	LABEL	11/7/2019	Date
TIME	LABEL	8:26:01	Time
NOTES	NOTES	2	&Notes...
	
	
PSTAT	PSTAT	REF600-11020	Potentiostat
VDC	POTEN	0.00000E+000	T	DC &Voltage (V)
FREQINIT	QUANT	1.00000E+006	Initial Fre&q. (Hz)
FREQFINAL	QUANT	1.00000E+000	Final Fre&q. (Hz)
PTSPERDEC	QUANT	1.00000E+001	Points/&decade
VAC	QUANT	2.50000E+001	AC &Voltage (mV rms)
AREA	QUANT	1.00000E-002	&Area (cm^2)
CONDIT	TWOPARAM	T	5.00000E+000	0.00000E+000	Conditionin&g	Time(s)	E(V)
DELAY	TWOPARAM	T	5.00000E+000	0.00000E+000	Init. De&lay	Time(s)	Stab.(mV/s)
SPEED	SELECTOR	1	&Optimize for:
ZGUESS	QUANT	1.00000E+005	E&stimated Z (ohms)
OCVCURVE	TABLE	19
	Pt	T	Vf	Vm	Ach	Over
	#	s	V vs. Ref.	V	V	bits
	0	0.258333	5.66748E-003	5.66748E-003	5.61199E-004	...........
	1	0.516667	5.66849E-003	5.72043E-003	5.67799E-004	...........
	2	0.775	5.67487E-003	5.77954E-003	5.63432E-004	...........
	3	1.03333	5.69362E-003	5.84262E-003	5.54633E-004	...........
	4	1.29167	5.72882E-003	5.90561E-003	5.59899E-004	...........
	5	1.55	5.77857E-003	5.97533E-003	5.59232E-004	...........
	6	1.80833	5.83790E-003	6.04498E-003	5.53633E-004	...........
	7	2.06667	5.90257E-003	6.11158E-003	5.56533E-004	...........
	8	2.325	5.96974E-003	6.17215E-003	5.57566E-004	...........
	9	2.58333	6.03764E-003	6.26276E-003	5.65666E-004	...........
	10	2.84167	6.10636E-003	6.32449E-003	5.64166E-004	...........
	11	3.1	6.17805E-003	6.46270E-003	5.59099E-004	...........
	12	3.35833	6.25726E-003	6.58452E-003	5.65766E-004	...........
	13	3.61667	6.34696E-003	6.57432E-003	5.70399E-004	...........
	14	3.875	6.43775E-003	6.54619E-003	5.57233E-004	...........
	15	4.13333	6.50871E-003	6.55741E-003	5.57632E-004	...........
	16	4.39167	6.54900E-003	6.64359E-003	5.67499E-004	...........
	17	4.65	6.57133E-003	6.69669E-003	5.67632E-004	...........
	18	4.90833	6.59830E-003	6.79236E-003	5.62932E-004	...........
EOC	QUANT	0.0065983	Open Circuit (V)
PSTATMODEL	IQUANT	4	Pstat Model
PSTATSECTION	LABEL	REF600-11020	Pstat Section
PSTATSERIALNO	LABEL	11020	Pstat Serial Number
CTRLMODE	IQUANT	1	Control Mode
IESTAB	IQUANT	0	I/E Stability
CASPEED	IQUANT	1	Control Amp Speed
CONVENTION	IQUANT	1	Current Convention
ICHRANGE	IQUANT	2	Ich Range
ICHRANGEMODE	TOGGLE	F	Ich Auto Range
ICHOFFSETENABLE	TOGGLE	T	Ich Offset Enable
ICHOFFSET	QUANT	0	Ich Offset (V)
ICHFILTER	IQUANT	3	Ich Filter
VCHRANGE	IQUANT	2	Vch Range
VCHRANGEMODE	TOGGLE	F	Vch Auto Range
VCHOFFSETENABLE	TOGGLE	T	Vch Offset Enable
VCHOFFSET	QUANT	0	Vch Offset (V)
VCHFILTER	IQUANT	3	Vch Filter
ACHRANGE	IQUANT	2	Ach Range
ACHOFFSETENABLE	TOGGLE	F	Ach Offset Enable
ACHOFFSET	QUANT	0	Ach Offset (V)
ACHFILTER	IQUANT	3	Ach Filter
IERANGELOWERLIMIT	IQUANT	1	I/E Range Lower Limit
IERANGEMODE	TOGGLE	F	I/E AutoRange
IERANGE	IQUANT	5	I/E Range
POSFEEDENABLE	TOGGLE	F	Positive Feedback IR Comp
POSFEEDRESISTANCE	QUANT	0	Positive Feedback Resistance (ohm)
ACHSELECT	IQUANT	0	Ach Select
CABLEID	IQUANT	14	Cable ID
DCCALDATE	LABEL	8/19/2019	DC Calibration Date
ACCALDATE	LABEL	8/19/2019	AC Calibration Date
THERMOSELECT	IQUANT	1	Thermo Select
FRAMEWORKVERSION	QUANT	6.33	Framework Version
INSTRUMENTVERSION	LABEL	3.50	Instrument Version
ZCURVE	TABLE
	Pt	Time	Freq	Zreal	Zimag	Zsig	Zmod	Zphz	Idc	Vdc	IERange
	#	s	Hz	ohm	ohm	V	ohm	°	A	V	#
	0	2	1000078	1725.437	-627.293	1	1835.927	-19.97904	1.093884E-005	0.0075504	8
	1	4	794390.6	1815.567	-546.5448	1	1896.047	-16.75351	4.547362E-006	0.0069058	8
	2	5	630984.4	1888.239	-470.834	1	1946.055	-14.00123	-1.436301E-006	0.0088847	8
	3	6	501234.4	1939.888	-409.194	1	1982.576	-11.91118	8.570865E-006	0.0072907	8
	4	8	398109.4	1985.396	-354.6955	1	2016.831	-10.12916	-4.932122E-006	0.0087661	8
	5	9	316265.6	2016.364	-307.3161	1	2039.649	-8.665818	-6.068482E-007	0.0085833	8
	6	10	251203.1	2040.097	-269.5105	1	2057.822	-7.52558	-6.501311E-006	0.0090214	8
	7	12	199546.9	2062.899	-244.6034	1	2077.35	-6.762139	4.438087E-006	0.0080426	8
	8	13	158578.1	2075.898	-217.7397	1	2087.286	-5.987826	7.350558E-006	0.0072854	8
	9	15	125953.1	2114.634	-168.4454	1	2121.332	-4.554394	-2.426531E-006	0.0116911	7
	10	16	100078.1	2129.162	-163.5348	1	2135.433	-4.392099	9.08332E-007	0.006461	7
	11	17	79453.13	2144.344	-167.085	1	2150.844	-4.455424	-6.852524E-007	0.0078825	7
	12	19	63140.62	2161.66	-174.2781	1	2168.674	-4.609352	1.059008E-007	0.0067563	7
	13	20	50203.12	2179.8	-184.6485	1	2187.606	-4.841905	8.881096E-008	0.0089177	7
	14	21	39890.62	2200.213	-196.692	1	2208.987	-5.108481	-8.394842E-007	0.0096231	7
	15	23	31640.63	2221.14	-212.544	1	2231.287	-5.466068	-1.035753E-006	0.0095723	7
	16	24	25171.88	2243.188	-231.708	1	2255.124	-5.897398	-1.035033E-006	0.0095739	7
	17	25	20015.62	2264.667	-256.884	1	2279.19	-6.471469	-2.885279E-007	0.0072207	7
	18	27	15890.62	2290.683	-286.1923	1	2308.492	-7.121492	7.95934E-007	0.0077907	7
	19	28	12609.37	2314.874	-323.0636	1	2337.308	-7.94488	6.017482E-007	0.0081692	7
	20	30	10078.13	2338.849	-367.1262	1	2367.488	-8.920853	6.02381E-007	0.0081645	7
	21	31	8015.625	2368.55	-424.9132	1	2406.363	-10.17056	7.227006E-007	0.0063629	7
	22	32	6328.125	2397.125	-497.6719	1	2448.241	-11.72867	9.134329E-007	0.0064414	7
	23	34	5015.625	2427.811	-585.548	1	2497.426	-13.55983	-9.985777E-007	0.0085235	7
	24	35	3984.375	2461.508	-693.9632	1	2557.461	-15.74453	-9.985652E-007	0.0085286	7
	25	36	3170.956	2499.107	-825.7687	1	2632.001	-18.28487	6.020109E-007	0.0081677	7
	26	38	2527.573	2539.178	-987.448	1	2724.423	-21.2503	-6.884634E-007	0.0078696	7
	27	39	1976.103	2587.198	-1206.639	1	2854.746	-25.0038	9.166538E-007	0.0064356	7
	28	41	1577.524	2646.396	-1449.153	1	3017.193	-28.70488	1.043643E-006	0.0069298	7
	29	42	1265.625	2697.028	-1759.003	1	3219.946	-33.11242	1.042137E-006	0.0069319	7
	30	43	998.264	2771.363	-2159.487	1	3513.379	-37.92624	4.002031E-007	0.0084694	7
	31	45	796.875	2857.312	-2633.003	1	3885.477	-42.66046	1.023618E-006	0.0066346	7
	32	46	627.7902	2974.77	-3245.728	1	4402.727	-47.49416	-1.173932E-006	0.0094302	7
	33	47	505.5147	3097.256	-3939.844	1	5011.522	-51.82781	1.107049E-007	0.0067319	7
	34	49	397.9953	3279.098	-4875.379	1	5875.526	-56.07589	5.18418E-009	0.0080468	7
	35	50	315.5048	3501.061	-5997.953	1	6944.989	-59.72749	6.870542E-009	0.0080489	7
	36	52	252.4038	3774.933	-7318.287	1	8234.527	-62.71432	8.011388E-009	0.0080419	7
	37	53	198.6229	4157.127	-9055.672	1	9964.28	-65.34188	8.376058E-009	0.008044	7
	38	54	158.3615	4632.95	-11062.57	1	11993.53	-67.27631	3.697763E-010	0.007989	6
	39	56	125.558	5261.074	-13569.81	1	14554	-68.80848	7.957168E-010	0.0079796	6
	40	57	100.4464	6033.591	-16480.76	1	17550.49	-69.89237	9.426554E-010	0.0079834	6
	41	58	79.00281	7191.78	-20242.47	1	21482.07	-70.4408	5.736186E-010	0.0079808	6
	42	60	63.3446	8711.111	-24485.7	1	25989.09	-70.41631	5.217159E-010	0.0079841	6
	43	61	49.86702	10270.16	-30042.28	1	31749.25	-71.12666	7.314219E-010	0.0079802	6
	44	63	39.72458	12630.55	-36079.36	1	38226.31	-70.70603	1.406309E-009	0.0079851	6
	45	64	31.6723	15454.64	-43332.91	1	46006.38	-70.37127	4.019149E-010	0.0079725	6
	46	65	24.93351	19412.89	-52296.19	1	55783.07	-69.63455	-4.180259E-011	0.007981	6
	47	67	19.86229	23979.82	-62381.23	1	66831.5	-68.97286	1.340482E-009	0.0079744	6
	48	68	15.83615	29140.33	-74139.61	1	79660.78	-68.54285	2.806704E-009	0.0079831	6
	49	70	12.40079	37358.04	-88522.52	1	96082.6	-67.11941	-1.246221E-010	0.0079906	6
	50	71	9.93114	45324	-103965.9	1	113416	-66.44518	3.92496E-010	0.0079911	5
	51	73	7.944915	55195.31	-121737.4	1	133665.7	-65.61063	-4.57217E-010	0.0079917	5
	52	74	6.317385	68416.33	-142783.3	1	158328.4	-64.39803	5.263592E-011	0.0079791	5
	53	76	5.008013	83938.35	-167226.3	1	187110.4	-63.34589	-1.18174E-010	0.0079756	5
	54	79	3.945707	102897.2	-195759.9	1	221155.6	-62.27226	-2.309525E-010	0.007977	5
	55	82	3.158693	124000.3	-225655	1	257480.5	-61.21064	2.906304E-010	0.0079938	5
	56	85	2.504006	149618.2	-261127.2	1	300953.5	-60.18855	-3.802056E-010	0.0079835	5
	57	88	1.998082	177925.3	-299015.3	1	347947.7	-59.24578	1.260608E-010	0.0079419	5
	58	91	1.584686	210471.8	-343082.3	1	402497	-58.472	-8.069792E-011	0.0079985	5
	59	94	1.266892	246803.7	-392558.8	1	463696.6	-57.84222	-4.375386E-011	0.0079458	5
	60	99	0.999041	290591.1	-451359.7	1	536813.6	-57.22605	2.743487E-010	0.0080233	5
