EXPLAIN
TAG	EISPOT
TITLE	LABEL	Potentiostatic EIS	Test &Identifier
DATE	LABEL	9/22/2019	Date
TIME	LABEL	10:33:26	Time
NOTES	NOTES	1	&Notes...
	
PSTAT	PSTAT	REF600-11020	Potentiostat
VDC	POTEN	0.00000E+000	T	DC &Voltage (V)
FREQINIT	QUANT	1.00000E+006	Initial Fre&q. (Hz)
FREQFINAL	QUANT	1.00000E+000	Final Fre&q. (Hz)
PTSPERDEC	QUANT	1.00000E+001	Points/&decade
VAC	QUANT	2.50000E+001	AC &Voltage (mV rms)
AREA	QUANT	1.00000E-002	&Area (cm^2)
CONDIT	TWOPARAM	T	5.00000E+000	0.00000E+000	Conditionin&g	Time(s)	E(V)
DELAY	TWOPARAM	T	5.00000E+000	0.00000E+000	Init. De&lay	Time(s)	Stab.(mV/s)
SPEED	SELECTOR	1	&Optimize for:
ZGUESS	QUANT	1.00000E+004	E&stimated Z (ohms)
OCVCURVE	TABLE	19
	Pt	T	Vf	Vm	Ach	Over
	#	s	V vs. Ref.	V	V	bits
	0	0.258333	-2.40483E-003	-2.40483E-003	5.75232E-004	...........
	1	0.516667	-2.42027E-003	-3.21313E-003	5.78499E-004	...........
	2	0.775	-2.51407E-003	-3.92606E-003	5.78466E-004	...........
	3	1.03333	-2.77421E-003	-4.51367E-003	5.70866E-004	...........
	4	1.29167	-3.22757E-003	-5.21089E-003	5.76999E-004	...........
	5	1.55	-3.81613E-003	-5.79029E-003	5.74632E-004	...........
	6	1.80833	-4.45947E-003	-6.36470E-003	5.79266E-004	...........
	7	2.06667	-5.10284E-003	-6.95668E-003	5.78199E-004	...........
	8	2.325	-5.72308E-003	-7.49888E-003	5.78165E-004	...........
	9	2.58333	-6.31614E-003	-7.94228E-003	5.79365E-004	...........
	10	2.84167	-6.87945E-003	-8.42457E-003	5.74066E-004	...........
	11	3.1	-7.40849E-003	-8.87583E-003	5.80099E-004	...........
	12	3.35833	-7.90646E-003	-9.38163E-003	5.83765E-004	...........
	13	3.61667	-8.38291E-003	-9.68612E-003	5.80732E-004	...........
	14	3.875	-8.84205E-003	-1.02110E-002	5.71932E-004	...........
	15	4.13333	-9.28607E-003	-1.06769E-002	5.75232E-004	...........
	16	4.39167	-9.72183E-003	-1.08909E-002	5.74599E-004	...........
	17	4.65	-1.01451E-002	-1.12657E-002	5.72866E-004	...........
	18	4.90833	-1.05401E-002	-1.16661E-002	5.79465E-004	...........
EOC	QUANT	-0.0105401	Open Circuit (V)
PSTATMODEL	IQUANT	4	Pstat Model
PSTATSECTION	LABEL	REF600-11020	Pstat Section
PSTATSERIALNO	LABEL	11020	Pstat Serial Number
CTRLMODE	IQUANT	1	Control Mode
IESTAB	IQUANT	0	I/E Stability
CASPEED	IQUANT	1	Control Amp Speed
CONVENTION	IQUANT	1	Current Convention
ICHRANGE	IQUANT	2	Ich Range
ICHRANGEMODE	TOGGLE	F	Ich Auto Range
ICHOFFSETENABLE	TOGGLE	T	Ich Offset Enable
ICHOFFSET	QUANT	0	Ich Offset (V)
ICHFILTER	IQUANT	3	Ich Filter
VCHRANGE	IQUANT	2	Vch Range
VCHRANGEMODE	TOGGLE	F	Vch Auto Range
VCHOFFSETENABLE	TOGGLE	T	Vch Offset Enable
VCHOFFSET	QUANT	0	Vch Offset (V)
VCHFILTER	IQUANT	3	Vch Filter
ACHRANGE	IQUANT	2	Ach Range
ACHOFFSETENABLE	TOGGLE	F	Ach Offset Enable
ACHOFFSET	QUANT	0	Ach Offset (V)
ACHFILTER	IQUANT	3	Ach Filter
IERANGELOWERLIMIT	IQUANT	1	I/E Range Lower Limit
IERANGEMODE	TOGGLE	F	I/E AutoRange
IERANGE	IQUANT	6	I/E Range
POSFEEDENABLE	TOGGLE	F	Positive Feedback IR Comp
POSFEEDRESISTANCE	QUANT	0	Positive Feedback Resistance (ohm)
ACHSELECT	IQUANT	0	Ach Select
CABLEID	IQUANT	14	Cable ID
DCCALDATE	LABEL	8/19/2019	DC Calibration Date
ACCALDATE	LABEL	8/19/2019	AC Calibration Date
THERMOSELECT	IQUANT	1	Thermo Select
FRAMEWORKVERSION	QUANT	6.33	Framework Version
INSTRUMENTVERSION	LABEL	3.50	Instrument Version
ZCURVE	TABLE
	Pt	Time	Freq	Zreal	Zimag	Zsig	Zmod	Zphz	Idc	Vdc	IERange
	#	s	Hz	ohm	ohm	V	ohm	°	A	V	#
	0	2	1000078	2478.627	-1970.104	1	3166.213	-38.47896	4.625E-006	-0.0086047	8
	1	3	794390.6	2880.66	-1925.068	1	3464.692	-33.75374	-2.724345E-006	-0.0081955	8
	2	4	630984.4	3253.079	-1823.144	1	3729.126	-29.26786	1.671068E-006	-0.0089776	8
	3	6	501234.4	3593.01	-1673.216	1	3963.505	-24.97076	2.310894E-006	-0.009492	8
	4	7	398109.4	3843.751	-1492.552	1	4123.364	-21.22149	7.868853E-007	-0.0091074	8
	5	8	316265.6	4072.545	-1309.96	1	4278.04	-17.83071	-5.776689E-007	-0.0088143	8
	6	10	251203.1	4212.675	-1144.134	1	4365.281	-15.19462	4.777704E-007	-0.0089779	8
	7	11	199546.9	4312.758	-996.616	1	4426.412	-13.01183	2.286095E-006	-0.0095126	8
	8	12	158578.1	4413.75	-886.8425	1	4501.963	-11.36101	-5.249973E-007	-0.0088365	8
	9	14	125953.1	4526.794	-724.7358	1	4584.442	-9.095816	7.023418E-007	-0.0106294	7
	10	15	100078.1	4581.127	-647.4512	1	4626.653	-8.04434	1.198812E-007	-0.0091406	7
	11	17	79453.13	4636.118	-599.8607	1	4674.765	-7.372459	-1.282913E-008	-0.0089522	7
	12	18	63140.62	4685.743	-570.0814	1	4720.294	-6.936684	-2.812025E-008	-0.0089301	7
	13	19	50203.12	4732.375	-552.465	1	4764.514	-6.658659	1.075536E-008	-0.0088879	7
	14	21	39890.62	4778.862	-548.8272	1	4810.274	-6.551417	-5.923231E-008	-0.0087822	7
	15	22	31640.63	4826.708	-559.6192	1	4859.042	-6.61347	1.229621E-008	-0.0090681	7
	16	24	25171.88	4874.539	-586.1226	1	4909.65	-6.856423	4.665713E-008	-0.0090413	7
	17	25	20015.62	4925.908	-623.2288	1	4965.177	-7.210784	-4.433026E-008	-0.0089668	7
	18	26	15890.62	4979.089	-675.4994	1	5024.702	-7.725992	-4.465064E-008	-0.0088714	7
	19	28	12609.37	5037.526	-747.6924	1	5092.712	-8.442463	-3.7795E-008	-0.0089799	7
	20	29	10078.13	5097.381	-832.3848	1	5164.897	-9.274345	-3.696208E-008	-0.0089797	7
	21	30	8015.625	5165.305	-940.7203	1	5250.269	-10.32175	-4.278007E-008	-0.0088805	7
	22	32	6328.125	5241.643	-1078.717	1	5351.49	-11.62897	-2.725764E-008	-0.0089433	7
	23	33	5015.625	5323.762	-1247.392	1	5467.946	-13.18689	1.23141E-007	-0.0091621	7
	24	34	3984.375	5413.07	-1450.902	1	5604.145	-15.00469	-5.430976E-008	-0.0089177	7
	25	36	3170.956	5510.752	-1699.659	1	5766.908	-17.14112	-3.694801E-008	-0.0089775	7
	26	37	2527.573	5618.841	-1997.666	1	5963.393	-19.57182	4.519599E-008	-0.0091384	7
	27	39	1976.103	5757.512	-2397.665	1	6236.806	-22.60885	-2.606E-008	-0.0089475	7
	28	40	1577.524	5897.711	-2845.282	1	6548.178	-25.75445	1.235466E-007	-0.0091648	7
	29	41	1265.625	6064.942	-3368.806	1	6937.75	-29.05023	9.240413E-008	-0.0090553	7
	30	43	998.264	6250.073	-4062.691	1	7454.453	-33.02479	1.469392E-008	-0.0088978	7
	31	44	796.875	6467.12	-4867.575	1	8094.252	-36.9675	1.113242E-008	-0.009044	7
	32	45	627.7902	6746.222	-5907.515	1	8967.176	-41.2079	4.491053E-008	-0.0091375	7
	33	47	505.5147	7028.991	-7060.175	1	9962.57	-45.12682	1.17025E-009	-0.0089983	6
	34	48	397.9953	7405.256	-8610.657	1	11356.99	-49.30412	1.549059E-009	-0.0090318	6
	35	50	315.5048	7837.22	-10462.67	1	13072.47	-53.16441	6.633157E-010	-0.0090282	6
	36	51	252.4038	8334.084	-12635.82	1	15136.74	-56.59275	1.415546E-009	-0.00903	6
	37	52	198.6229	8980.229	-15503.74	1	17916.77	-59.9193	1.433704E-009	-0.0090295	6
	38	54	158.3615	9734.42	-18830.44	1	21197.74	-62.66324	1.433104E-009	-0.0090348	6
	39	55	125.558	10682.68	-23016.46	1	25374.73	-65.10246	9.837279E-010	-0.0090285	6
	40	56	100.4464	11831.86	-27953.51	1	30354.43	-67.05856	1.541796E-009	-0.0090341	6
	41	58	79.00281	13392.32	-34323.23	1	36843.43	-68.68514	1.088759E-009	-0.0090373	6
	42	59	63.3446	15611.03	-41492.63	1	44332.18	-69.38188	1.401506E-009	-0.0090397	6
	43	61	49.86702	17776.36	-51515.22	1	54496.02	-70.96198	4.110672E-010	-0.0090397	6
	44	62	39.72458	21252.53	-62392.65	1	65912.91	-71.18984	1.263128E-009	-0.0090329	6
	45	63	31.6723	25589.46	-75438.55	1	79660.49	-71.26259	1.243608E-009	-0.0090324	6
	46	65	24.93351	31639.19	-92396.25	1	97663.2	-71.09729	1.200304E-009	-0.0090328	6
	47	66	19.86229	39266.91	-111473.7	1	118187.5	-70.59505	6.231297E-010	-0.0090326	5
	48	68	15.83615	50175.67	-133346.9	1	142474.6	-69.37972	2.403E-010	-0.0090257	5
	49	69	12.40079	62421.42	-162197.2	1	173794	-68.95084	1.033441E-009	-0.0090269	5
	50	70	9.93114	80508.95	-191391	1	207634.8	-67.18586	6.445454E-010	-0.0090297	5
	51	72	7.944915	102729.5	-223523.1	1	245999.9	-65.31684	1.270095E-009	-0.0090222	5
	52	74	6.317385	129991.7	-262198.8	1	292653.5	-63.62893	4.854759E-010	-0.0090207	5
	53	76	5.008013	164814.6	-302883	1	344821.6	-61.44706	8.307833E-010	-0.0090209	5
	54	78	3.945707	206663.1	-348121.2	1	404843.2	-59.3044	3.182166E-010	-0.009036	5
	55	81	3.158693	251368.2	-391784.9	1	465490.5	-57.31587	7.239568E-010	-0.009012	5
	56	84	2.504006	304135.5	-440920.4	1	535639.1	-55.40309	1.321568E-010	-0.0090343	5
	57	87	1.998082	358870.6	-489443	1	606912.3	-53.7503	2.900024E-010	-0.0090615	5
	58	90	1.584686	418701.9	-542171.7	1	685026.6	-52.32224	4.438798E-010	-0.00899	5
	59	94	1.266892	478266.3	-602606.6	1	769333.1	-51.56229	2.74111E-010	-0.0090503	5
	60	98	0.999041	545049.4	-674305.6	1	867044.9	-51.05097	6.685544E-010	-0.0090051	5
