EXPLAIN
TAG	EISPOT
TITLE	LABEL	Potentiostatic EIS	Test &Identifier
DATE	LABEL	10/6/2019	Date
TIME	LABEL	10:05:20	Time
NOTES	NOTES	2	&Notes...
	
	
PSTAT	PSTAT	REF600-11020	Potentiostat
VDC	POTEN	0.00000E+000	T	DC &Voltage (V)
FREQINIT	QUANT	1.00000E+006	Initial Fre&q. (Hz)
FREQFINAL	QUANT	1.00000E+000	Final Fre&q. (Hz)
PTSPERDEC	QUANT	1.00000E+001	Points/&decade
VAC	QUANT	2.50000E+001	AC &Voltage (mV rms)
AREA	QUANT	1.00000E-002	&Area (cm^2)
CONDIT	TWOPARAM	T	5.00000E+000	0.00000E+000	Conditionin&g	Time(s)	E(V)
DELAY	TWOPARAM	T	5.00000E+000	0.00000E+000	Init. De&lay	Time(s)	Stab.(mV/s)
SPEED	SELECTOR	1	&Optimize for:
ZGUESS	QUANT	1.00000E+004	E&stimated Z (ohms)
OCVCURVE	TABLE	19
	Pt	T	Vf	Vm	Ach	Over
	#	s	V vs. Ref.	V	V	bits
	0	0.258333	6.21856E-003	6.21856E-003	5.47266E-004	...........
	1	0.516667	6.21708E-003	6.14087E-003	5.51399E-004	...........
	2	0.775	6.20815E-003	6.07688E-003	5.47233E-004	...........
	3	1.03333	6.18378E-003	6.03013E-003	5.46466E-004	...........
	4	1.29167	6.14211E-003	5.95986E-003	5.49366E-004	...........
	5	1.55	6.08908E-003	5.92816E-003	5.47266E-004	...........
	6	1.80833	6.03293E-003	5.88904E-003	5.45833E-004	...........
	7	2.06667	5.98085E-003	5.88745E-003	5.54033E-004	...........
	8	2.325	5.93796E-003	5.85461E-003	5.48999E-004	...........
	9	2.58333	5.90557E-003	5.84404E-003	5.52999E-004	...........
	10	2.84167	5.88100E-003	5.81675E-003	5.54466E-004	...........
	11	3.1	5.86048E-003	5.81140E-003	5.52099E-004	...........
	12	3.35833	5.84411E-003	5.90720E-003	5.46166E-004	...........
	13	3.61667	5.83575E-003	5.74784E-003	5.47666E-004	...........
	14	3.875	5.83147E-003	5.76013E-003	5.50199E-004	...........
	15	4.13333	5.81960E-003	5.77650E-003	5.53599E-004	...........
	16	4.39167	5.79876E-003	5.74225E-003	5.53666E-004	...........
	17	4.65	5.77583E-003	5.61497E-003	5.53099E-004	...........
	18	4.90833	5.74908E-003	5.67592E-003	5.50499E-004	...........
EOC	QUANT	0.0057491	Open Circuit (V)
PSTATMODEL	IQUANT	4	Pstat Model
PSTATSECTION	LABEL	REF600-11020	Pstat Section
PSTATSERIALNO	LABEL	11020	Pstat Serial Number
CTRLMODE	IQUANT	1	Control Mode
IESTAB	IQUANT	0	I/E Stability
CASPEED	IQUANT	1	Control Amp Speed
CONVENTION	IQUANT	1	Current Convention
ICHRANGE	IQUANT	2	Ich Range
ICHRANGEMODE	TOGGLE	F	Ich Auto Range
ICHOFFSETENABLE	TOGGLE	T	Ich Offset Enable
ICHOFFSET	QUANT	0	Ich Offset (V)
ICHFILTER	IQUANT	3	Ich Filter
VCHRANGE	IQUANT	2	Vch Range
VCHRANGEMODE	TOGGLE	F	Vch Auto Range
VCHOFFSETENABLE	TOGGLE	T	Vch Offset Enable
VCHOFFSET	QUANT	0	Vch Offset (V)
VCHFILTER	IQUANT	3	Vch Filter
ACHRANGE	IQUANT	2	Ach Range
ACHOFFSETENABLE	TOGGLE	F	Ach Offset Enable
ACHOFFSET	QUANT	0	Ach Offset (V)
ACHFILTER	IQUANT	3	Ach Filter
IERANGELOWERLIMIT	IQUANT	1	I/E Range Lower Limit
IERANGEMODE	TOGGLE	F	I/E AutoRange
IERANGE	IQUANT	6	I/E Range
POSFEEDENABLE	TOGGLE	F	Positive Feedback IR Comp
POSFEEDRESISTANCE	QUANT	0	Positive Feedback Resistance (ohm)
ACHSELECT	IQUANT	0	Ach Select
CABLEID	IQUANT	14	Cable ID
DCCALDATE	LABEL	8/19/2019	DC Calibration Date
ACCALDATE	LABEL	8/19/2019	AC Calibration Date
THERMOSELECT	IQUANT	1	Thermo Select
FRAMEWORKVERSION	QUANT	6.33	Framework Version
INSTRUMENTVERSION	LABEL	3.50	Instrument Version
ZCURVE	TABLE
	Pt	Time	Freq	Zreal	Zimag	Zsig	Zmod	Zphz	Idc	Vdc	IERange
	#	s	Hz	ohm	ohm	V	ohm	°	A	V	#
	0	1	1000078	2357.607	-1858.88	1	3002.29	-38.25438	2.933025E-006	0.0083206	8
	1	3	794390.6	2740.195	-1848.958	1	3305.649	-34.00968	-1.231313E-006	0.0076581	8
	2	4	630984.4	3098.128	-1770.861	1	3568.521	-29.75188	5.049262E-006	0.0065554	8
	3	5	501234.4	3417.026	-1632.441	1	3786.942	-25.53554	7.472439E-008	0.0074138	8
	4	7	398109.4	3701.669	-1477.421	1	3985.615	-21.75808	-2.537938E-006	0.0080256	8
	5	8	316265.6	3938.098	-1289.699	1	4143.904	-18.13326	9.073159E-007	0.0073179	8
	6	9	251203.1	4090.438	-1128.089	1	4243.144	-15.41815	7.456395E-007	0.0071362	8
	7	11	199546.9	4213.063	-984.537	1	4326.571	-13.15322	-2.265041E-007	0.0071716	8
	8	12	158578.1	4316.608	-823.1532	1	4394.393	-10.79636	-3.066158E-006	0.0079614	8
	9	13	125953.1	4418.487	-678.4911	1	4470.277	-8.729998	1.265825E-006	0.0046118	7
	10	15	100078.1	4460.841	-598.9689	1	4500.874	-7.647514	-1.465072E-009	0.0072421	7
	11	16	79453.13	4509.085	-542.2183	1	4541.569	-6.856903	4.746662E-008	0.0072321	7
	12	17	63140.62	4549.705	-499.4046	1	4577.031	-6.264073	-3.782157E-008	0.0072904	7
	13	19	50203.12	4587.082	-471.2678	1	4611.227	-5.865876	1.213213E-008	0.0073806	7
	14	20	39890.62	4623.088	-457.9777	1	4645.717	-5.657443	1.268218E-008	0.0073834	7
	15	21	31640.63	4657.32	-455.5554	1	4679.547	-5.58661	-6.840855E-008	0.0074027	7
	16	23	25171.88	4692.313	-467.346	1	4715.528	-5.6878	-3.709493E-008	0.007292	7
	17	24	20015.62	4725.905	-495.9685	1	4751.859	-5.991077	8.053988E-008	0.0071156	7
	18	25	15890.62	4767.967	-527.8381	1	4797.096	-6.31721	-2.602129E-010	0.0072263	7
	19	27	12609.37	4810.071	-580.0926	1	4844.924	-6.876637	-3.079718E-008	0.0073465	7
	20	28	10078.13	4854.889	-646.0603	1	4897.687	-7.580053	-6.77991E-008	0.0073657	7
	21	29	8015.625	4893.043	-725.8157	1	4946.583	-8.437515	6.745839E-008	0.0071801	7
	22	31	6328.125	4954.104	-839.6766	1	5024.759	-9.61971	8.018824E-008	0.0071159	7
	23	32	5015.625	5011.383	-974.45	1	5105.244	-11.0037	-3.63073E-008	0.0072782	7
	24	34	3984.375	5072.443	-1139.355	1	5198.828	-12.65948	-6.256347E-009	0.0072927	7
	25	35	3170.956	5142.658	-1341.899	1	5314.849	-14.62438	6.61426E-008	0.007176	7
	26	36	2527.573	5222.363	-1589.818	1	5458.993	-16.93156	1.347448E-008	0.0073705	7
	27	38	1976.103	5312.73	-1918.476	1	5648.509	-19.85512	-2.97283E-008	0.0072827	7
	28	39	1577.524	5420.715	-2292.314	1	5885.479	-22.92255	-3.020021E-008	0.0072794	7
	29	40	1265.625	5529.071	-2735.563	1	6168.787	-26.32437	-6.807258E-008	0.0073592	7
	30	42	998.264	5669.882	-3318.421	1	6569.587	-30.33923	-2.451307E-009	0.007244	7
	31	43	796.875	5825.474	-3998.435	1	7065.666	-34.46456	-2.004746E-008	0.0072646	7
	32	44	627.7902	6017.962	-4878.877	1	7747.213	-39.03234	4.815351E-008	0.0072232	7
	33	46	505.5147	6219.124	-5856.551	1	8542.64	-43.2802	3.661919E-008	0.0071535	7
	34	47	397.9953	6482.706	-7194.128	1	9684.06	-47.97765	4.059938E-009	0.0073036	7
	35	48	315.5048	6788.502	-8791.677	1	11107.54	-52.32644	3.962213E-010	0.0072423	6
	36	50	252.4038	7133.367	-10682.71	1	12845.44	-56.26704	1.144775E-009	0.0072429	6
	37	51	198.6229	7584.741	-13192.45	1	15217.39	-60.10409	8.977012E-010	0.0072405	6
	38	53	158.3615	8114.363	-16125.71	1	18052.19	-63.28873	8.689753E-010	0.0072388	6
	39	54	125.558	8794.173	-19840.91	1	21702.52	-66.09544	1.078544E-009	0.0072418	6
	40	55	100.4464	9626.35	-24210.3	1	26053.89	-68.31656	3.530402E-010	0.0072401	6
	41	57	79.00281	10771.06	-30050.63	1	31922.66	-70.28078	2.167726E-010	0.007238	6
	42	58	63.3446	11986.04	-36705.3	1	38612.75	-71.91565	7.567392E-010	0.0072379	6
	43	59	49.86702	14293.8	-45109.38	1	47319.86	-72.41816	7.5088E-011	0.0072406	6
	44	61	39.72458	16860.63	-55361.78	1	57872.34	-73.0617	5.044394E-010	0.0072457	6
	45	62	31.6723	20100.64	-67488.38	1	70418.16	-73.41444	-4.613225E-011	0.0072435	6
	46	64	24.93351	24994.29	-83116.12	1	86792.88	-73.26316	1.339178E-010	0.0072421	6
	47	65	19.86229	31049.49	-100861.6	1	105532.6	-72.8894	2.861862E-010	0.0072446	6
	48	66	15.83615	39780.89	-122655.3	1	128945.1	-72.03053	-8.638419E-010	0.0072406	5
	49	68	12.40079	49717.2	-149406.1	1	157461.1	-71.59435	5.560532E-010	0.0072539	5
	50	69	9.93114	64473.4	-177581.7	1	188923.5	-70.04589	1.704521E-010	0.0072518	5
	51	71	7.944915	82619.29	-210893.2	1	226499.2	-68.60679	1.511257E-010	0.0072479	5
	52	72	6.317385	105465.4	-249332.2	1	270720.3	-67.07206	2.321115E-010	0.0072331	5
	53	74	5.008013	135546.8	-293338.7	1	323141.6	-65.19914	-6.616539E-011	0.0072416	5
	54	77	3.945707	173111.4	-342976.9	1	384188.4	-63.21847	1.067656E-010	0.0072473	5
	55	80	3.158693	215854.5	-393237.6	1	448585.6	-61.2369	1.672079E-010	0.0072446	5
	56	83	2.504006	267522.1	-448926.2	1	522592.4	-59.20863	7.601706E-011	0.0072477	5
	57	86	1.998082	323503.9	-506192.6	1	600737.6	-57.41766	4.528776E-010	0.0072275	5
	58	89	1.584686	390733.9	-569800.5	1	690902	-55.56009	1.489736E-011	0.0071966	5
	59	92	1.266892	456264	-633356.9	1	780588.1	-54.2314	3.155672E-010	0.0072267	5
	60	97	0.999041	534585.1	-711747.8	1	890149.6	-53.09023	-1.683049E-010	0.0072305	5
