EXPLAIN
TAG	EISPOT
TITLE	LABEL	Potentiostatic EIS	Test &Identifier
DATE	LABEL	10/28/2019	Date
TIME	LABEL	10:01:07	Time
NOTES	NOTES	1	&Notes...
	
PSTAT	PSTAT	REF600-11020	Potentiostat
VDC	POTEN	0.00000E+000	T	DC &Voltage (V)
FREQINIT	QUANT	1.00000E+006	Initial Fre&q. (Hz)
FREQFINAL	QUANT	1.00000E+000	Final Fre&q. (Hz)
PTSPERDEC	QUANT	1.00000E+001	Points/&decade
VAC	QUANT	2.50000E+001	AC &Voltage (mV rms)
AREA	QUANT	1.00000E-002	&Area (cm^2)
CONDIT	TWOPARAM	T	5.00000E+000	0.00000E+000	Conditionin&g	Time(s)	E(V)
DELAY	TWOPARAM	T	5.00000E+000	0.00000E+000	Init. De&lay	Time(s)	Stab.(mV/s)
SPEED	SELECTOR	1	&Optimize for:
ZGUESS	QUANT	1.00000E+005	E&stimated Z (ohms)
OCVCURVE	TABLE	19
	Pt	T	Vf	Vm	Ach	Over
	#	s	V vs. Ref.	V	V	bits
	0	0.258333	6.62737E-003	6.62737E-003	5.71332E-004	...........
	1	0.516667	6.62627E-003	6.56984E-003	5.73799E-004	...........
	2	0.775	6.61950E-003	6.51422E-003	5.74999E-004	...........
	3	1.03333	6.60080E-003	6.48783E-003	5.74632E-004	...........
	4	1.29167	6.56943E-003	6.46180E-003	5.75499E-004	...........
	5	1.55	6.52956E-003	6.29664E-003	5.75599E-004	...........
	6	1.80833	6.47853E-003	6.18495E-003	5.77366E-004	...........
	7	2.06667	6.40562E-003	6.02807E-003	5.74665E-004	...........
	8	2.325	6.31016E-003	6.15550E-003	5.75766E-004	...........
	9	2.58333	6.21936E-003	6.33800E-003	5.71199E-004	...........
	10	2.84167	6.17713E-003	6.39284E-003	5.72899E-004	...........
	11	3.1	6.20021E-003	6.26533E-003	5.74066E-004	...........
	12	3.35833	6.25414E-003	6.26054E-003	5.74765E-004	...........
	13	3.61667	6.29448E-003	6.46423E-003	5.73332E-004	...........
	14	3.875	6.32534E-003	6.81339E-003	5.76166E-004	...........
	15	4.13333	6.39763E-003	7.10367E-003	5.74066E-004	...........
	16	4.39167	6.54487E-003	6.97602E-003	5.77099E-004	...........
	17	4.65	6.70532E-003	5.58444E-003	5.74865E-004	...........
	18	4.90833	6.71197E-003	5.14164E-003	5.75666E-004	...........
EOC	QUANT	0.006712	Open Circuit (V)
PSTATMODEL	IQUANT	4	Pstat Model
PSTATSECTION	LABEL	REF600-11020	Pstat Section
PSTATSERIALNO	LABEL	11020	Pstat Serial Number
CTRLMODE	IQUANT	1	Control Mode
IESTAB	IQUANT	0	I/E Stability
CASPEED	IQUANT	1	Control Amp Speed
CONVENTION	IQUANT	1	Current Convention
ICHRANGE	IQUANT	2	Ich Range
ICHRANGEMODE	TOGGLE	F	Ich Auto Range
ICHOFFSETENABLE	TOGGLE	T	Ich Offset Enable
ICHOFFSET	QUANT	0	Ich Offset (V)
ICHFILTER	IQUANT	3	Ich Filter
VCHRANGE	IQUANT	2	Vch Range
VCHRANGEMODE	TOGGLE	F	Vch Auto Range
VCHOFFSETENABLE	TOGGLE	T	Vch Offset Enable
VCHOFFSET	QUANT	0	Vch Offset (V)
VCHFILTER	IQUANT	3	Vch Filter
ACHRANGE	IQUANT	2	Ach Range
ACHOFFSETENABLE	TOGGLE	F	Ach Offset Enable
ACHOFFSET	QUANT	0	Ach Offset (V)
ACHFILTER	IQUANT	3	Ach Filter
IERANGELOWERLIMIT	IQUANT	1	I/E Range Lower Limit
IERANGEMODE	TOGGLE	F	I/E AutoRange
IERANGE	IQUANT	5	I/E Range
POSFEEDENABLE	TOGGLE	F	Positive Feedback IR Comp
POSFEEDRESISTANCE	QUANT	0	Positive Feedback Resistance (ohm)
ACHSELECT	IQUANT	0	Ach Select
CABLEID	IQUANT	14	Cable ID
DCCALDATE	LABEL	8/19/2019	DC Calibration Date
ACCALDATE	LABEL	8/19/2019	AC Calibration Date
THERMOSELECT	IQUANT	1	Thermo Select
FRAMEWORKVERSION	QUANT	6.33	Framework Version
INSTRUMENTVERSION	LABEL	3.50	Instrument Version
ZCURVE	TABLE
	Pt	Time	Freq	Zreal	Zimag	Zsig	Zmod	Zphz	Idc	Vdc	IERange
	#	s	Hz	ohm	ohm	V	ohm	°	A	V	#
	0	2	1000078	2390.077	-1502.669	1	2823.204	-32.15804	-2.105645E-006	0.0097355	8
	1	3	794390.6	2664.474	-1419.931	1	3019.209	-28.05371	-2.166179E-006	0.0091559	8
	2	4	630984.4	2918.027	-1295.597	1	3192.719	-23.9411	-5.118096E-006	0.0095679	8
	3	6	501234.4	3126.032	-1171.013	1	3338.166	-20.53596	-4.419974E-006	0.0093898	8
	4	8	398109.4	3296.127	-1012.6	1	3448.16	-17.07743	-3.263698E-006	0.0090859	8
	5	9	316265.6	3429.387	-873.445	1	3538.87	-14.2891	4.452817E-006	0.0075777	8
	6	10	251203.1	3500.874	-757.9833	1	3581.99	-12.21669	-1.393057E-006	0.0086264	8
	7	12	199546.9	3593.832	-646.9083	1	3651.591	-10.20426	-4.851599E-007	0.008155	8
	8	13	158578.1	3653.282	-564.4789	1	3696.635	-8.783472	-1.508755E-006	0.0085754	8
	9	15	125953.1	3723.585	-440.2578	1	3749.521	-6.743058	1.40069E-006	0.0053461	7
	10	16	100078.1	3744.287	-394.7218	1	3765.036	-6.017879	-2.622467E-008	0.0082705	7
	11	17	79453.13	3769.232	-362.5098	1	3786.624	-5.493585	-8.171818E-008	0.0083767	7
	12	19	63140.62	3797.697	-347.1382	1	3813.53	-5.222753	8.717585E-009	0.0083802	7
	13	20	50203.12	3824.902	-339.2882	1	3839.921	-5.069159	-4.002031E-008	0.0082649	7
	14	21	39890.62	3852.025	-339.9137	1	3866.994	-5.042881	4.324571E-008	0.0082171	7
	15	23	31640.63	3879.454	-349.9978	1	3895.21	-5.155172	-5.861504E-008	0.0083335	7
	16	24	25171.88	3908.456	-367.8997	1	3925.733	-5.377358	-8.007264E-008	0.008364	7
	17	25	20015.62	3945.54	-402.005	1	3965.967	-5.817703	4.306758E-008	0.0082139	7
	18	27	15890.62	3971.037	-433.9132	1	3994.673	-6.235941	-7.403902E-008	0.0083941	7
	19	28	12609.37	4004.843	-484.8883	1	4034.09	-6.903511	8.18713E-008	0.0081007	7
	20	30	10078.13	4041.061	-543.0301	1	4077.383	-7.653451	-4.155174E-008	0.0083591	7
	21	31	8015.625	4080.167	-631.1627	1	4128.695	-8.793411	-2.4376E-008	0.0083073	7
	22	32	6328.125	4121.974	-723.95	1	4185.065	-9.96137	-7.956943E-008	0.0083598	7
	23	34	5015.625	4168.577	-848.0073	1	4253.957	-11.49869	-2.510733E-008	0.0083116	7
	24	35	3984.375	4222.676	-996.517	1	4338.668	-13.2784	3.655954E-009	0.0082421	7
	25	36	3170.956	4276.056	-1183.467	1	4436.806	-15.47028	8.252137E-008	0.0080908	7
	26	38	2527.573	4340.161	-1411.576	1	4563.939	-18.01639	5.132702E-009	0.0082473	7
	27	39	1976.103	4423.916	-1716.169	1	4745.131	-21.20276	1.02782E-007	0.0081752	7
	28	40	1577.524	4603.975	-2033.142	1	5032.917	-23.82653	-3.621354E-008	0.0082549	7
	29	42	1265.625	4608.615	-2468.445	1	5228.054	-28.17419	1.046338E-007	0.0081693	7
	30	43	998.264	4733.004	-2996.778	1	5601.964	-32.3406	-1.222815E-008	0.0082506	7
	31	44	796.875	4877.926	-3618.112	1	6073.293	-36.5655	-5.71164E-008	0.0083262	7
	32	46	627.7902	5048.709	-4432.969	1	6718.681	-41.28443	3.955467E-009	0.0082415	7
	33	47	505.5147	5233.242	-5320.502	1	7462.879	-45.47372	1.125354E-008	0.008182	7
	34	48	397.9953	5479.692	-6535.449	1	8528.723	-50.02162	3.261408E-009	0.0082822	7
	35	50	315.5048	5761.374	-7991.612	1	9851.87	-54.21112	3.295849E-009	0.0082853	7
	36	51	252.4038	6089.979	-9713.88	1	11465.05	-57.91494	1.215667E-009	0.0082219	6
	37	52	198.6229	6519.957	-11996.11	1	13653.45	-61.47567	6.252117E-010	0.008226	6
	38	54	158.3615	7032.326	-14659.69	1	16259.15	-64.37273	-1.378449E-010	0.008226	6
	39	55	125.558	7695.834	-18026.25	1	19600.29	-66.88121	3.984295E-010	0.008225	6
	40	57	100.4464	8498.844	-21958.48	1	23545.81	-68.84149	3.626756E-011	0.0082234	6
	41	58	79.00281	9758.74	-27240.89	1	28936.12	-70.29052	8.348179E-010	0.0082259	6
	42	59	63.3446	11340.73	-32753.95	1	34661.7	-70.90209	1.310557E-009	0.0082161	6
	43	61	49.86702	13193.92	-41134.9	1	43199.07	-72.21648	8.716733E-010	0.0082198	6
	44	62	39.72458	15485.33	-49740.59	1	52095.32	-72.70749	6.40787E-010	0.0082224	6
	45	63	31.6723	18907.92	-60521.74	1	63406.55	-72.6504	8.002927E-010	0.0082217	6
	46	65	24.93351	23347.89	-74218.19	1	77804.01	-72.53723	6.105722E-010	0.0082195	6
	47	66	19.86229	29193.9	-89583.95	1	94220.84	-71.95008	7.686701E-010	0.0082261	6
	48	68	15.83615	37352.69	-108846.7	1	115077.5	-71.05943	-1.412766E-009	0.0082235	5
	49	69	12.40079	46162.49	-131585	1	139447.5	-70.66817	3.864911E-010	0.008227	5
	50	71	9.93114	59256.88	-156504.4	1	167347	-69.26196	6.434778E-010	0.0082218	5
	51	72	7.944915	74652.84	-184295.7	1	198841.5	-67.94855	-4.321362E-010	0.0082336	5
	52	74	6.317385	95681.4	-217783	1	237874.6	-66.28206	-2.673154E-010	0.0082361	5
	53	76	5.008013	121751.2	-255658.4	1	283168.8	-64.53499	-1.348746E-010	0.0082212	5
	54	78	3.945707	154225.4	-297412.2	1	335021.7	-62.59065	4.099409E-010	0.0082329	5
	55	81	3.158693	190684.2	-340398	1	390168.2	-60.74332	-9.768599E-011	0.0082273	5
	56	84	2.504006	233711.8	-387789.9	1	452771.7	-58.92362	3.180593E-010	0.0082222	5
	57	87	1.998082	279784.7	-437298.3	1	519142.8	-57.38877	-1.208586E-010	0.0082628	5
	58	90	1.584686	331680.5	-494141.1	1	595136.4	-56.12945	1.895827E-010	0.0082572	5
	59	94	1.266892	385720.4	-553326.6	1	674500.3	-55.1199	-1.412344E-010	0.0082579	5
	60	98	0.999041	445434.3	-626720.6	1	768889.1	-54.59714	2.108032E-010	0.0082114	5
