EXPLAIN
TAG	EISPOT
TITLE	LABEL	Potentiostatic EIS	Test &Identifier
DATE	LABEL	11/15/2019	Date
TIME	LABEL	12:47:03	Time
NOTES	NOTES	4	&Notes...
	
	
	
	
PSTAT	PSTAT	REF600-11020	Potentiostat
VDC	POTEN	0.00000E+000	T	DC &Voltage (V)
FREQINIT	QUANT	1.00000E+006	Initial Fre&q. (Hz)
FREQFINAL	QUANT	1.00000E+000	Final Fre&q. (Hz)
PTSPERDEC	QUANT	1.00000E+001	Points/&decade
VAC	QUANT	2.50000E+001	AC &Voltage (mV rms)
AREA	QUANT	1.00000E-002	&Area (cm^2)
CONDIT	TWOPARAM	T	5.00000E+000	0.00000E+000	Conditionin&g	Time(s)	E(V)
DELAY	TWOPARAM	T	5.00000E+000	0.00000E+000	Init. De&lay	Time(s)	Stab.(mV/s)
SPEED	SELECTOR	1	&Optimize for:
ZGUESS	QUANT	1.00000E+005	E&stimated Z (ohms)
OCVCURVE	TABLE	19
	Pt	T	Vf	Vm	Ach	Over
	#	s	V vs. Ref.	V	V	bits
	0	0.258333	2.83542E-003	2.83542E-003	5.82999E-004	...........
	1	0.516667	2.82904E-003	2.50122E-003	5.85932E-004	...........
	2	0.775	2.79013E-003	2.19995E-003	5.82399E-004	...........
	3	1.03333	2.68127E-003	1.92231E-003	5.81065E-004	...........
	4	1.29167	2.48965E-003	1.67114E-003	5.78366E-004	...........
	5	1.55	2.24071E-003	1.44047E-003	5.81199E-004	...........
	6	1.80833	1.97309E-003	1.22462E-003	5.76099E-004	...........
	7	2.06667	1.71377E-003	1.02276E-003	5.77232E-004	...........
	8	2.325	1.47321E-003	8.30318E-004	5.75566E-004	...........
	9	2.58333	1.25168E-003	6.52163E-004	5.75299E-004	...........
	10	2.84167	1.04613E-003	4.82147E-004	5.79399E-004	...........
	11	3.1	8.53816E-004	3.22589E-004	5.73599E-004	...........
	12	3.35833	6.72863E-004	1.66680E-004	5.78932E-004	...........
	13	3.61667	5.01793E-004	2.08213E-005	5.75332E-004	...........
	14	3.875	3.39352E-004	-1.18198E-004	5.76799E-004	...........
	15	4.13333	1.84769E-004	-2.49240E-004	5.79166E-004	...........
	16	4.39167	3.76729E-005	-3.79223E-004	5.75799E-004	...........
	17	4.65	-1.02375E-004	-4.97058E-004	5.79399E-004	...........
	18	4.90833	-2.35990E-004	-6.18648E-004	5.84765E-004	...........
EOC	QUANT	-0.000236	Open Circuit (V)
PSTATMODEL	IQUANT	4	Pstat Model
PSTATSECTION	LABEL	REF600-11020	Pstat Section
PSTATSERIALNO	LABEL	11020	Pstat Serial Number
CTRLMODE	IQUANT	1	Control Mode
IESTAB	IQUANT	0	I/E Stability
CASPEED	IQUANT	1	Control Amp Speed
CONVENTION	IQUANT	1	Current Convention
ICHRANGE	IQUANT	2	Ich Range
ICHRANGEMODE	TOGGLE	F	Ich Auto Range
ICHOFFSETENABLE	TOGGLE	T	Ich Offset Enable
ICHOFFSET	QUANT	0	Ich Offset (V)
ICHFILTER	IQUANT	3	Ich Filter
VCHRANGE	IQUANT	2	Vch Range
VCHRANGEMODE	TOGGLE	F	Vch Auto Range
VCHOFFSETENABLE	TOGGLE	T	Vch Offset Enable
VCHOFFSET	QUANT	0	Vch Offset (V)
VCHFILTER	IQUANT	3	Vch Filter
ACHRANGE	IQUANT	2	Ach Range
ACHOFFSETENABLE	TOGGLE	F	Ach Offset Enable
ACHOFFSET	QUANT	0	Ach Offset (V)
ACHFILTER	IQUANT	3	Ach Filter
IERANGELOWERLIMIT	IQUANT	1	I/E Range Lower Limit
IERANGEMODE	TOGGLE	F	I/E AutoRange
IERANGE	IQUANT	3	I/E Range
POSFEEDENABLE	TOGGLE	F	Positive Feedback IR Comp
POSFEEDRESISTANCE	QUANT	0	Positive Feedback Resistance (ohm)
ACHSELECT	IQUANT	0	Ach Select
CABLEID	IQUANT	14	Cable ID
DCCALDATE	LABEL	8/19/2019	DC Calibration Date
ACCALDATE	LABEL	8/19/2019	AC Calibration Date
THERMOSELECT	IQUANT	1	Thermo Select
FRAMEWORKVERSION	QUANT	6.33	Framework Version
INSTRUMENTVERSION	LABEL	3.50	Instrument Version
ZCURVE	TABLE
	Pt	Time	Freq	Zreal	Zimag	Zsig	Zmod	Zphz	Idc	Vdc	IERange
	#	s	Hz	ohm	ohm	V	ohm	°	A	V	#
	0	2	1000078	1801.578	-1065.14	1	2092.894	-30.5927	5.481825E-006	0.000942	8
	1	3	794390.6	1985.834	-1058.443	1	2250.298	-28.05748	-6.796132E-006	0.0024256	8
	2	5	630984.4	2168.627	-1032.41	1	2401.836	-25.45754	-4.093564E-007	0.0012256	8
	3	6	501234.4	2342.417	-993.68	1	2544.469	-22.98721	8.119025E-006	0.0004703	8
	4	7	398109.4	2494.852	-947.2991	1	2668.644	-20.79185	-3.122589E-006	0.001526	8
	5	9	316265.6	2630.885	-894.0714	1	2778.654	-18.76965	2.31722E-006	0.0015764	8
	6	10	251203.1	2756.92	-843.2952	1	2883.011	-17.00798	7.232819E-006	0.0004451	8
	7	11	199546.9	2866.952	-793.9196	1	2974.848	-15.47853	-1.772217E-006	0.0010591	8
	8	13	158578.1	2941.361	-747.9684	1	3034.973	-14.26753	-2.193032E-006	0.0014569	8
	9	14	125953.1	3059.678	-683.0148	1	3134.986	-12.58387	-1.378305E-006	0.0051236	7
	10	15	100078.1	3144.714	-668.8581	1	3215.058	-12.00747	-1.064696E-006	0.0028756	7
	11	17	79453.13	3223.727	-668.5333	1	3292.317	-11.71587	-8.56069E-007	0.0029035	7
	12	18	63140.62	3309.7	-679.0774	1	3378.647	-11.59491	4.303547E-007	0.0016961	7
	13	19	50203.12	3382.379	-689.5248	1	3451.946	-11.52232	-8.556424E-007	0.002899	7
	14	21	39890.62	3480.187	-714.7776	1	3552.831	-11.60628	1.061013E-006	-0.0002438	7
	15	22	31640.63	3562.208	-742.3743	1	3638.742	-11.77211	4.349116E-007	-0.0003706	7
	16	23	25171.88	3659.491	-785.499	1	3742.844	-12.11455	8.553877E-007	0.0009342	7
	17	25	20015.62	3744.761	-828.1464	1	3835.24	-12.47014	-5.759856E-007	0.0027903	7
	18	26	15890.62	3860.85	-886.0728	1	3961.223	-12.92566	8.552954E-007	0.0009295	7
	19	27	12609.37	3965.271	-947.4221	1	4076.884	-13.43775	1.180215E-007	0.0021258	7
	20	29	10078.13	4084.651	-1018.668	1	4209.758	-14.0033	6.464998E-007	0.0013553	7
	21	30	8015.625	4199.158	-1097.388	1	4340.183	-14.64586	-8.551423E-007	0.0028898	7
	22	32	6328.125	4321.543	-1186.004	1	4481.333	-15.34642	-1.216059E-006	0.0023637	7
	23	33	5015.625	4456.101	-1294.28	1	4640.258	-16.196	-1.060572E-006	0.0018152	7
	24	34	3984.375	4591.039	-1420.621	1	4805.809	-17.19381	-1.061009E-006	0.0018122	7
	25	36	3170.956	4755.504	-1585.488	1	5012.843	-18.43842	1.022892E-006	0.0004548	7
	26	37	2527.573	4875.035	-1757.873	1	5182.286	-19.82863	-7.559178E-007	0.0011479	7
	27	38	1976.103	5051.925	-2008.946	1	5436.71	-21.68571	4.346975E-007	-0.0003731	7
	28	40	1577.524	5182.298	-2279.228	1	5661.369	-23.74039	-1.060608E-006	0.0018109	7
	29	41	1265.625	5372.6	-2624.023	1	5979.158	-26.03127	1.060831E-006	-0.0002458	7
	30	43	998.264	5545.014	-3060.393	1	6333.497	-28.8951	7.312048E-007	-0.0005025	7
	31	44	796.875	5705.246	-3551.409	1	6720.293	-31.90149	-1.062196E-006	0.0018136	7
	32	46	627.7902	5911.797	-4229.708	1	7269.097	-35.58255	-1.207698E-006	0.002707	7
	33	47	505.5147	6132.661	-5008.616	1	7918.065	-39.23892	-2.407008E-007	0.0025239	7
	34	49	397.9953	6393.577	-6059.876	1	8809.082	-43.46508	6.252968E-009	0.0012446	7
	35	50	315.5048	6701.679	-7325.747	1	9928.7	-47.54736	5.371653E-010	0.0011893	6
	36	52	252.4038	7059.896	-8829.438	1	11304.92	-51.35466	1.047858E-009	0.0011844	6
	37	53	198.6229	7536.228	-10814.1	1	13181.03	-55.12778	3.802341E-010	0.0011925	6
	38	54	158.3615	8112.403	-13111.51	1	15418.26	-58.25394	-6.550419E-011	0.0011908	6
	39	56	125.558	8861.334	-15984.56	1	18276.47	-60.99741	4.487887E-010	0.0011906	6
	40	57	100.4464	9794.66	-19340.64	1	21679.38	-63.14101	1.407432E-009	0.0011877	6
	41	58	79.00281	11089.4	-23680.35	1	26148.3	-64.90652	1.407816E-009	0.001186	6
	42	60	63.3446	12769.45	-28619.9	1	31339.39	-65.95483	4.923301E-010	0.0011778	6
	43	61	49.86702	14483.76	-34981.36	1	37861.26	-67.50837	2.712086E-010	0.0011739	6
	44	63	39.72458	17037.29	-41989.34	1	45314.17	-67.91501	1.163506E-009	0.00119	6
	45	64	31.6723	20063.1	-50377.14	1	54225.31	-68.28468	-2.461585E-010	0.0011834	6
	46	65	24.93351	24290.47	-61022.58	1	65679.39	-68.29462	2.513603E-010	0.0011868	6
	47	67	19.86229	29210.84	-73071.91	1	78694.2	-68.2107	1.400898E-009	0.0011796	6
	48	68	15.83615	35779.08	-87075.92	1	94140.1	-67.66248	1.60491E-009	0.0011827	6
	49	69	12.40079	42606.8	-104445.6	1	112801.7	-67.80783	8.601275E-011	0.0011832	5
	50	71	9.93114	52313.16	-123566.1	1	134183.7	-67.05407	-1.399289E-011	0.0011973	5
	51	72	7.944915	62818.85	-145084.5	1	158100.4	-66.5883	1.183613E-009	0.0011956	5
	52	74	6.317385	76502.66	-172086	1	188324.9	-66.03195	-1.383916E-011	0.0012085	5
	53	76	5.008013	92666.13	-203330.2	1	223450.7	-65.49925	-5.245947E-011	0.0011827	5
	54	79	3.945707	113122.3	-240119.6	1	265431.9	-64.77451	3.410354E-010	0.0011907	5
	55	81	3.158693	135458.5	-280573.1	1	311561	-64.22912	7.256274E-011	0.0011805	5
	56	85	2.504006	163027.1	-328885.6	1	367074.4	-63.6326	3.208942E-010	0.0012047	5
	57	87	1.998082	194212.6	-382918	1	429353.8	-63.10628	3.821961E-010	0.0012085	5
	58	91	1.584686	233004.1	-445798.3	1	503017.9	-62.40541	1.506188E-010	0.0011554	5
	59	94	1.266892	274915.5	-517626.4	1	586102.1	-62.02687	2.392871E-010	0.0012204	5
	60	98	0.999041	327650.8	-604429	1	687524.2	-61.53862	-3.195298E-011	0.0011511	5
