EXPLAIN
TAG	EISPOT
TITLE	LABEL	Potentiostatic EIS	Test &Identifier
DATE	LABEL	9/22/2019	Date
TIME	LABEL	9:35:44	Time
NOTES	NOTES	1	&Notes...
	
PSTAT	PSTAT	REF600-11020	Potentiostat
VDC	POTEN	0.00000E+000	T	DC &Voltage (V)
FREQINIT	QUANT	1.00000E+006	Initial Fre&q. (Hz)
FREQFINAL	QUANT	1.00000E+000	Final Fre&q. (Hz)
PTSPERDEC	QUANT	1.00000E+001	Points/&decade
VAC	QUANT	2.50000E+001	AC &Voltage (mV rms)
AREA	QUANT	1.00000E-002	&Area (cm^2)
CONDIT	TWOPARAM	T	5.00000E+000	0.00000E+000	Conditionin&g	Time(s)	E(V)
DELAY	TWOPARAM	T	5.00000E+000	0.00000E+000	Init. De&lay	Time(s)	Stab.(mV/s)
SPEED	SELECTOR	1	&Optimize for:
ZGUESS	QUANT	1.00000E+004	E&stimated Z (ohms)
OCVCURVE	TABLE	19
	Pt	T	Vf	Vm	Ach	Over
	#	s	V vs. Ref.	V	V	bits
	0	0.258333	-4.91432E-003	-4.91432E-003	5.70166E-004	...........
	1	0.516667	-4.92641E-003	-5.54714E-003	5.75032E-004	...........
	2	0.775	-5.00027E-003	-6.12725E-003	5.73399E-004	...........
	3	1.03333	-5.20754E-003	-6.66253E-003	5.72866E-004	...........
	4	1.29167	-5.57386E-003	-7.15967E-003	5.70366E-004	...........
	5	1.55	-6.05275E-003	-7.62643E-003	5.69466E-004	...........
	6	1.80833	-6.57264E-003	-8.06801E-003	5.71699E-004	...........
	7	2.06667	-7.08341E-003	-8.48009E-003	5.67332E-004	...........
	8	2.325	-7.56427E-003	-8.86613E-003	5.66632E-004	...........
	9	2.58333	-8.01198E-003	-9.23339E-003	5.73832E-004	...........
	10	2.84167	-8.42993E-003	-9.59484E-003	5.74899E-004	...........
	11	3.1	-8.82329E-003	-9.93058E-003	5.76999E-004	...........
	12	3.35833	-9.19669E-003	-1.02505E-002	5.72666E-004	...........
	13	3.61667	-9.55245E-003	-1.05491E-002	5.69032E-004	...........
	14	3.875	-9.89092E-003	-1.08440E-002	5.73166E-004	...........
	15	4.13333	-1.02127E-002	-1.11292E-002	5.72499E-004	...........
	16	4.39167	-1.05197E-002	-1.13991E-002	5.68999E-004	...........
	17	4.65	-1.08141E-002	-1.16471E-002	5.66666E-004	...........
	18	4.90833	-1.10958E-002	-1.18774E-002	5.67999E-004	...........
EOC	QUANT	-0.0110958	Open Circuit (V)
PSTATMODEL	IQUANT	4	Pstat Model
PSTATSECTION	LABEL	REF600-11020	Pstat Section
PSTATSERIALNO	LABEL	11020	Pstat Serial Number
CTRLMODE	IQUANT	1	Control Mode
IESTAB	IQUANT	0	I/E Stability
CASPEED	IQUANT	1	Control Amp Speed
CONVENTION	IQUANT	1	Current Convention
ICHRANGE	IQUANT	2	Ich Range
ICHRANGEMODE	TOGGLE	F	Ich Auto Range
ICHOFFSETENABLE	TOGGLE	T	Ich Offset Enable
ICHOFFSET	QUANT	0	Ich Offset (V)
ICHFILTER	IQUANT	3	Ich Filter
VCHRANGE	IQUANT	2	Vch Range
VCHRANGEMODE	TOGGLE	F	Vch Auto Range
VCHOFFSETENABLE	TOGGLE	T	Vch Offset Enable
VCHOFFSET	QUANT	0	Vch Offset (V)
VCHFILTER	IQUANT	3	Vch Filter
ACHRANGE	IQUANT	2	Ach Range
ACHOFFSETENABLE	TOGGLE	F	Ach Offset Enable
ACHOFFSET	QUANT	0	Ach Offset (V)
ACHFILTER	IQUANT	3	Ach Filter
IERANGELOWERLIMIT	IQUANT	1	I/E Range Lower Limit
IERANGEMODE	TOGGLE	F	I/E AutoRange
IERANGE	IQUANT	6	I/E Range
POSFEEDENABLE	TOGGLE	F	Positive Feedback IR Comp
POSFEEDRESISTANCE	QUANT	0	Positive Feedback Resistance (ohm)
ACHSELECT	IQUANT	0	Ach Select
CABLEID	IQUANT	14	Cable ID
DCCALDATE	LABEL	8/19/2019	DC Calibration Date
ACCALDATE	LABEL	8/19/2019	AC Calibration Date
THERMOSELECT	IQUANT	1	Thermo Select
FRAMEWORKVERSION	QUANT	6.33	Framework Version
INSTRUMENTVERSION	LABEL	3.50	Instrument Version
ZCURVE	TABLE
	Pt	Time	Freq	Zreal	Zimag	Zsig	Zmod	Zphz	Idc	Vdc	IERange
	#	s	Hz	ohm	ohm	V	ohm	°	A	V	#
	0	1	1000078	2520.599	-1478.823	1	2922.385	-30.39995	2.487516E-006	-0.0094515	8
	1	3	794390.6	2782.486	-1369.899	1	3101.427	-26.21237	-5.83785E-006	-0.0079633	8
	2	4	630984.4	3010.805	-1231.096	1	3252.775	-22.2393	1.788321E-006	-0.0093756	8
	3	6	501234.4	3196.313	-1094.544	1	3378.527	-18.90323	1.664364E-006	-0.0098311	8
	4	7	398109.4	3336.869	-934.3586	1	3465.216	-15.64281	-2.282585E-006	-0.0089559	8
	5	8	316265.6	3439.772	-813.7451	1	3534.715	-13.30974	-7.449555E-007	-0.0090685	8
	6	10	251203.1	3520.047	-713.2272	1	3591.577	-11.45413	1.816507E-006	-0.0099098	8
	7	11	199546.9	3598.217	-610.3508	1	3649.615	-9.62721	1.827385E-006	-0.009801	8
	8	13	158578.1	3644.502	-543.1653	1	3684.756	-8.47679	3.473282E-006	-0.0100568	8
	9	14	125953.1	3704.337	-450.2111	1	3731.595	-6.929527	-1.112835E-006	-0.0069155	7
	10	15	100078.1	3728.228	-410.5367	1	3750.763	-6.283853	-1.296192E-008	-0.0094155	7
	11	17	79453.13	3761.44	-393.2345	1	3781.94	-5.968226	7.070258E-008	-0.0096	7
	12	18	63140.62	3796.09	-383.532	1	3815.416	-5.769211	-2.347745E-008	-0.0094823	7
	13	19	50203.12	3829.571	-383.2502	1	3848.7	-5.714934	-1.782819E-008	-0.0093406	7
	14	21	39890.62	3864.467	-391.9042	1	3884.288	-5.790697	-3.700896E-008	-0.0094548	7
	15	22	31640.63	3901.907	-408.6614	1	3923.249	-5.979004	-4.411305E-008	-0.0094243	7
	16	23	25171.88	3940.804	-433.5208	1	3964.578	-6.277762	-1.050534E-008	-0.0094261	7
	17	25	20015.62	3984.012	-468.344	1	4011.446	-6.704684	4.706811E-008	-0.0096218	7
	18	26	15890.62	4030.364	-512.7905	1	4062.855	-7.250887	7.170426E-008	-0.0096066	7
	19	27	12609.37	4081.279	-566.5396	1	4120.414	-7.902966	2.03129E-008	-0.0095633	7
	20	29	10078.13	4134.945	-629.7333	1	4182.623	-8.659348	-5.865651E-009	-0.0094539	7
	21	30	8015.625	4193.479	-708.314	1	4252.878	-9.58725	-1.517629E-008	-0.0093396	7
	22	31	6328.125	4261.031	-804.5206	1	4336.316	-10.69209	-4.481157E-008	-0.0093326	7
	23	33	5015.625	4330.904	-918.5098	1	4427.232	-11.97402	4.583984E-008	-0.0096163	7
	24	34	3984.375	4407.548	-1054.472	1	4531.93	-13.45468	7.273255E-008	-0.0095025	7
	25	35	3170.956	4487.999	-1217.727	1	4650.268	-15.18056	4.51366E-008	-0.0096223	7
	26	37	2527.573	4576.802	-1414.718	1	4790.464	-17.17671	-6.826636E-008	-0.0093718	7
	27	38	1976.103	4682.765	-1674.771	1	4973.243	-19.67938	-4.330825E-008	-0.0094194	7
	28	40	1577.524	4789.375	-1968.159	1	5178.007	-22.33986	-6.679835E-009	-0.0094501	7
	29	41	1265.625	4902.473	-2308.191	1	5418.67	-25.21208	8.220884E-008	-0.0096496	7
	30	42	998.264	5034.769	-2761.654	1	5742.441	-28.74549	-3.964857E-008	-0.0094568	7
	31	44	796.875	5173.99	-3293.16	1	6133.113	-32.47609	8.069457E-008	-0.0096415	7
	32	45	627.7902	5337.358	-3990.463	1	6664.172	-36.78354	-4.390541E-008	-0.0093317	7
	33	46	505.5147	5504.703	-4770.572	1	7284.237	-40.91337	-6.809447E-008	-0.0093784	7
	34	48	397.9953	5732.5	-5833.257	1	8178.536	-45.49913	4.240376E-009	-0.0094561	7
	35	49	315.5048	5995.835	-7117.412	1	9306.32	-49.88861	5.001872E-009	-0.0094604	7
	36	50	252.4038	6309.986	-8636.071	1	10695.68	-53.84609	1.127558E-009	-0.0095168	6
	37	52	198.6229	6732.005	-10648.86	1	12598.33	-57.6997	1.781765E-009	-0.0095149	6
	38	53	158.3615	7246.848	-12992.26	1	14876.68	-60.84801	1.425754E-009	-0.0095182	6
	39	54	125.558	7915.133	-15941.15	1	17798.02	-63.59459	1.719262E-009	-0.0095176	6
	40	56	100.4464	8761.94	-19384.69	1	21272.94	-65.67689	7.624848E-010	-0.0095171	6
	41	57	79.00281	9912.46	-23936.94	1	25908.18	-67.5052	1.051268E-009	-0.0095185	6
	42	59	63.3446	11309.96	-29124.03	1	31242.99	-68.77694	1.632473E-009	-0.0095189	6
	43	60	49.86702	13368.83	-35390.94	1	37831.79	-69.30608	1.626066E-009	-0.009523	6
	44	61	39.72458	15953.3	-43052.52	1	45913.25	-69.66759	1.8173E-009	-0.009524	6
	45	63	31.6723	19197.93	-52139.11	1	55561.21	-69.786	1.922196E-009	-0.0095206	6
	46	64	24.93351	23772.74	-63244.18	1	67564.55	-69.39935	1.411507E-009	-0.0095218	6
	47	66	19.86229	29487.37	-75809.54	1	81342.43	-68.74564	1.659409E-009	-0.009517	6
	48	67	15.83615	36014.84	-90131.76	1	97060.8	-68.21934	1.713088E-009	-0.0095216	6
	49	68	12.40079	46589.85	-108432.3	1	118017.7	-66.74837	6.877562E-010	-0.0095132	5
	50	70	9.93114	57796.42	-127539.6	1	140024.2	-65.62164	1.385018E-009	-0.0095199	5
	51	71	7.944915	71758.33	-148454.5	1	164887.8	-64.2023	-1.468784E-011	-0.0095125	5
	52	73	6.317385	89358.51	-173068.3	1	194775.7	-62.69182	8.844518E-010	-0.0095274	5
	53	75	5.008013	110892.7	-200680.2	1	229280.9	-61.07565	6.45996E-010	-0.0095164	5
	54	78	3.945707	136866.9	-231525.7	1	268954.8	-59.41046	5.233742E-010	-0.0095229	5
	55	80	3.158693	165589.9	-262839.3	1	310651.8	-57.78889	7.871048E-010	-0.0095196	5
	56	84	2.504006	199806	-298629.7	1	359307.9	-56.21447	2.954305E-010	-0.0095174	5
	57	86	1.998082	236995.5	-334782.5	1	410178.3	-54.70498	8.459454E-010	-0.0095636	5
	58	89	1.584686	278655.8	-376051.2	1	468042.3	-53.46137	5.30284E-010	-0.0095127	5
	59	93	1.266892	324202.5	-419872.1	1	530471.3	-52.32663	6.068636E-010	-0.0095631	5
	60	97	0.999041	375681.2	-471087.3	1	602544.3	-51.42845	8.1361E-010	-0.0094817	5
