EXPLAIN
TAG	EISPOT
TITLE	LABEL	Potentiostatic EIS	Test &Identifier
DATE	LABEL	10/26/2019	Date
TIME	LABEL	10:49:56	Time
NOTES	NOTES	1	&Notes...
	
PSTAT	PSTAT	REF600-11020	Potentiostat
VDC	POTEN	0.00000E+000	T	DC &Voltage (V)
FREQINIT	QUANT	1.00000E+006	Initial Fre&q. (Hz)
FREQFINAL	QUANT	1.00000E+000	Final Fre&q. (Hz)
PTSPERDEC	QUANT	1.00000E+001	Points/&decade
VAC	QUANT	2.50000E+001	AC &Voltage (mV rms)
AREA	QUANT	1.00000E-002	&Area (cm^2)
CONDIT	TWOPARAM	T	5.00000E+000	0.00000E+000	Conditionin&g	Time(s)	E(V)
DELAY	TWOPARAM	T	5.00000E+000	0.00000E+000	Init. De&lay	Time(s)	Stab.(mV/s)
SPEED	SELECTOR	0	&Optimize for:
ZGUESS	QUANT	1.00000E+005	E&stimated Z (ohms)
OCVCURVE	TABLE	19
	Pt	T	Vf	Vm	Ach	Over
	#	s	V vs. Ref.	V	V	bits
	0	0.258333	7.98718E-003	7.98718E-003	5.69366E-004	...........
	1	0.516667	7.99127E-003	8.20123E-003	5.68532E-004	...........
	2	0.775	8.01585E-003	8.37644E-003	5.70332E-004	...........
	3	1.03333	8.08407E-003	8.56748E-003	5.64766E-004	...........
	4	1.29167	8.20461E-003	8.75002E-003	5.74765E-004	...........
	5	1.55	8.36453E-003	8.91598E-003	5.73799E-004	...........
	6	1.80833	8.54286E-003	9.08758E-003	5.77866E-004	...........
	7	2.06667	8.72408E-003	9.26894E-003	5.79365E-004	...........
	8	2.325	8.90192E-003	9.41864E-003	5.74765E-004	...........
	9	2.58333	9.07497E-003	9.56425E-003	5.69532E-004	...........
	10	2.84167	9.24159E-003	9.71295E-003	5.69266E-004	...........
	11	3.1	9.40102E-003	9.88682E-003	5.72332E-004	...........
	12	3.35833	9.55626E-003	1.00384E-002	5.74432E-004	...........
	13	3.61667	9.71129E-003	1.01807E-002	5.77866E-004	...........
	14	3.875	9.86695E-003	1.03503E-002	5.75732E-004	...........
	15	4.13333	1.00218E-002	1.04737E-002	5.70966E-004	...........
	16	4.39167	1.01740E-002	1.06034E-002	5.73166E-004	...........
	17	4.65	1.03209E-002	1.07493E-002	5.70632E-004	...........
	18	4.90833	1.04619E-002	1.08760E-002	5.72599E-004	...........
EOC	QUANT	0.0104619	Open Circuit (V)
PSTATMODEL	IQUANT	4	Pstat Model
PSTATSECTION	LABEL	REF600-11020	Pstat Section
PSTATSERIALNO	LABEL	11020	Pstat Serial Number
CTRLMODE	IQUANT	1	Control Mode
IESTAB	IQUANT	0	I/E Stability
CASPEED	IQUANT	1	Control Amp Speed
CONVENTION	IQUANT	1	Current Convention
ICHRANGE	IQUANT	2	Ich Range
ICHRANGEMODE	TOGGLE	F	Ich Auto Range
ICHOFFSETENABLE	TOGGLE	T	Ich Offset Enable
ICHOFFSET	QUANT	0	Ich Offset (V)
ICHFILTER	IQUANT	3	Ich Filter
VCHRANGE	IQUANT	2	Vch Range
VCHRANGEMODE	TOGGLE	F	Vch Auto Range
VCHOFFSETENABLE	TOGGLE	T	Vch Offset Enable
VCHOFFSET	QUANT	0	Vch Offset (V)
VCHFILTER	IQUANT	3	Vch Filter
ACHRANGE	IQUANT	2	Ach Range
ACHOFFSETENABLE	TOGGLE	F	Ach Offset Enable
ACHOFFSET	QUANT	0	Ach Offset (V)
ACHFILTER	IQUANT	3	Ach Filter
IERANGELOWERLIMIT	IQUANT	1	I/E Range Lower Limit
IERANGEMODE	TOGGLE	F	I/E AutoRange
IERANGE	IQUANT	5	I/E Range
POSFEEDENABLE	TOGGLE	F	Positive Feedback IR Comp
POSFEEDRESISTANCE	QUANT	0	Positive Feedback Resistance (ohm)
ACHSELECT	IQUANT	0	Ach Select
CABLEID	IQUANT	14	Cable ID
DCCALDATE	LABEL	8/19/2019	DC Calibration Date
ACCALDATE	LABEL	8/19/2019	AC Calibration Date
THERMOSELECT	IQUANT	1	Thermo Select
FRAMEWORKVERSION	QUANT	6.33	Framework Version
INSTRUMENTVERSION	LABEL	3.50	Instrument Version
ZCURVE	TABLE
	Pt	Time	Freq	Zreal	Zimag	Zsig	Zmod	Zphz	Idc	Vdc	IERange
	#	s	Hz	ohm	ohm	V	ohm	°	A	V	#
	0	1	1000078	2402.851	-1479.728	1	2821.93	-31.62567	1.745147E-006	0.0126512	8
	1	1	794390.6	2681.567	-1426.896	1	3037.571	-28.01802	-2.970878E-006	0.0129146	8
	2	2	630984.4	2927.69	-1311.341	1	3207.956	-24.12808	1.510709E-006	0.0120139	8
	3	2	501234.4	3142.234	-1192.65	1	3360.959	-20.78449	5.256603E-007	0.0119375	8
	4	2	398109.4	3314.268	-1065.733	1	3481.402	-17.82567	-1.059806E-006	0.0124684	8
	5	3	316265.6	3458.701	-936.2091	1	3583.169	-15.14601	-9.216812E-008	0.0121632	8
	6	3	251203.1	3576.586	-827.3969	1	3671.042	-13.0255	1.640201E-006	0.0117602	8
	7	3	199546.9	3661.477	-714.3478	1	3730.51	-11.03963	-2.831215E-007	0.0120462	8
	8	4	158578.1	3728.703	-614.3113	1	3778.968	-9.355554	6.774141E-007	0.0118592	8
	9	4	125953.1	3804.358	-500.2621	1	3837.109	-7.491248	4.060264E-007	0.0111618	7
	10	4	100078.1	3846.273	-446.2132	1	3872.07	-6.617406	4.753694E-008	0.0119539	7
	11	4	79453.13	3882.248	-407.8111	1	3903.609	-5.996648	3.723244E-008	0.0119102	7
	12	5	63140.62	3915.08	-378.8478	1	3933.367	-5.527092	6.464144E-009	0.012107	7
	13	5	50203.12	3944.278	-361.3469	1	3960.795	-5.234423	-6.625825E-008	0.0121104	7
	14	5	39890.62	3972.167	-353.9458	1	3987.906	-5.091976	3.176291E-008	0.0119829	7
	15	6	31640.63	3999.663	-354.746	1	4015.364	-5.068528	7.93616E-008	0.0119526	7
	16	6	25171.88	4026.892	-366.5389	1	4043.539	-5.200889	-6.560506E-008	0.0122068	7
	17	6	20015.62	4054.599	-391.0749	1	4073.416	-5.50926	-7.7253E-009	0.0120041	7
	18	7	15890.62	4083.251	-421.5566	1	4104.954	-5.894359	3.179415E-008	0.0119801	7
	19	7	12609.37	4114.198	-466.1148	1	4140.518	-6.463718	-1.280567E-008	0.0120424	7
	20	7	10078.13	4146.396	-524.4199	1	4179.428	-7.208272	3.281619E-008	0.0119809	7
	21	8	8015.625	4177.44	-601.4463	1	4220.515	-8.192852	1.071319E-008	0.01195	7
	22	8	6328.125	4219.335	-696.4375	1	4276.425	-9.372653	-5.568025E-008	0.0121135	7
	23	8	5015.625	4260.833	-816.6878	1	4338.396	-10.85047	1.076474E-008	0.0119508	7
	24	9	3984.375	4308.904	-963.212	1	4415.25	-12.60073	-7.165847E-009	0.0120039	7
	25	9	3170.956	4357.651	-1149.39	1	4506.687	-14.77601	8.131184E-008	0.0119428	7
	26	9	2527.573	4417.287	-1373.554	1	4625.913	-17.27307	8.088052E-008	0.0119367	7
	27	10	1976.103	4491.238	-1677.019	1	4794.123	-20.47552	-5.568024E-008	0.0121093	7
	28	10	1577.524	4534.327	-2025.855	1	4966.307	-24.07423	-3.823881E-008	0.0120888	7
	29	10	1265.625	4664.14	-2421.597	1	5255.314	-27.43811	-4.795734E-008	0.0120708	7
	30	11	998.264	4784.458	-2955.825	1	5623.872	-31.70766	3.166151E-008	0.011978	7
	31	11	796.875	4917.229	-3586.532	1	6086.243	-36.10629	-1.123358E-008	0.012034	7
	32	11	627.7902	5096.905	-4391.776	1	6728.011	-40.75002	-7.04413E-009	0.0119988	7
	33	12	505.5147	5282.534	-5296.497	1	7480.511	-45.07562	6.500237E-009	0.0120915	7
	34	12	397.9953	5540.287	-6509.486	1	8547.993	-49.59857	1.683233E-009	0.0120362	7
	35	12	315.5048	5844.1	-7962.595	1	9877.07	-53.72341	6.617307E-010	0.0120397	7
	36	12	252.4038	6205.094	-9670.48	1	11490.05	-57.3136	-5.544837E-010	0.0119755	6
	37	13	198.6229	6685.029	-11928.8	1	13674.28	-60.73326	-3.07345E-011	0.011976	6
	38	13	158.3615	7252.848	-14554.46	1	16261.5	-63.5118	8.267912E-010	0.0119745	6
	39	13	125.558	8005.607	-17855.84	1	19568.36	-65.85107	2.336485E-010	0.0119761	6
	40	14	100.4464	8958.509	-21755.68	1	23527.95	-67.61922	-1.117895E-009	0.0119711	6
	41	14	79.00281	10309.83	-26895.86	1	28804.16	-69.02697	6.470302E-010	0.0119688	6
	42	14	63.3446	11646.04	-32232.33	1	34271.76	-70.13442	-1.130594E-010	0.0119677	6
	43	15	49.86702	14160.34	-39689.72	1	42140.11	-70.36482	5.333509E-010	0.0119694	6
	44	15	39.72458	17237.54	-48566.03	1	51534.38	-70.45869	2.585099E-010	0.0119751	6
	45	16	31.6723	21281.84	-58730.41	1	62467.41	-70.08126	2.791331E-010	0.0119738	6
	46	16	24.93351	26914.88	-71091.64	1	76016	-69.26363	-9.276238E-010	0.0119722	6
	47	16	19.86229	33812.27	-84930.75	1	91413.91	-68.29173	-1.457628E-009	0.0119663	6
	48	16	15.83615	42751.11	-101364.8	1	110011.3	-67.13217	9.147048E-010	0.0119704	5
	49	17	12.40079	55831.33	-120864.5	1	133136.7	-65.20622	-4.157264E-010	0.0119706	5
	50	17	9.93114	68800.72	-139341.8	1	155401.6	-63.7219	-4.660931E-010	0.0119699	5
	51	18	7.944915	85563.31	-160376.9	1	181774.1	-61.91945	-1.457288E-009	0.011977	5
	52	18	6.317385	106045.8	-184063.3	1	212426.5	-60.05214	-1.098674E-009	0.0119879	5
	53	19	5.008013	130426	-209928.3	1	247145.4	-58.14781	-6.338702E-010	0.0119775	5
	54	20	3.945707	157587.8	-238204.9	1	285614.3	-56.51281	-3.989749E-010	0.0119683	5
	55	22	3.158693	186448.8	-266548.2	1	325286.2	-55.02745	1.10835E-012	0.0119835	5
	56	23	2.504006	219191.3	-298683.7	1	370481.8	-53.72663	-2.959414E-010	0.0119758	5
	57	24	1.998082	252583.1	-333839.7	1	418625.3	-52.88885	-4.068925E-010	0.0119416	5
	58	26	1.584686	288544.3	-373094.9	1	471654.2	-52.28233	-1.90823E-010	0.0119873	5
	59	28	1.266892	326716.6	-418735.9	1	531115.3	-52.03704	-1.637924E-010	0.012	5
	60	31	0.999041	366340.3	-476728.2	1	601227.9	-52.45964	-3.152345E-011	0.0120002	5
