EXPLAIN
TAG	EISPOT
TITLE	LABEL	Potentiostatic EIS	Test &Identifier
DATE	LABEL	11/11/2019	Date
TIME	LABEL	11:35:21	Time
NOTES	NOTES	3	&Notes...
	
	
	
PSTAT	PSTAT	REF600-11020	Potentiostat
VDC	POTEN	0.00000E+000	T	DC &Voltage (V)
FREQINIT	QUANT	1.00000E+006	Initial Fre&q. (Hz)
FREQFINAL	QUANT	1.00000E+000	Final Fre&q. (Hz)
PTSPERDEC	QUANT	1.00000E+001	Points/&decade
VAC	QUANT	2.50000E+001	AC &Voltage (mV rms)
AREA	QUANT	1.00000E-002	&Area (cm^2)
CONDIT	TWOPARAM	T	5.00000E+000	0.00000E+000	Conditionin&g	Time(s)	E(V)
DELAY	TWOPARAM	T	5.00000E+000	0.00000E+000	Init. De&lay	Time(s)	Stab.(mV/s)
SPEED	SELECTOR	1	&Optimize for:
ZGUESS	QUANT	1.00000E+005	E&stimated Z (ohms)
OCVCURVE	TABLE	19
	Pt	T	Vf	Vm	Ach	Over
	#	s	V vs. Ref.	V	V	bits
	0	0.258333	6.84680E-002	6.84680E-002	5.76466E-004	...........
	1	0.516667	6.83929E-002	6.45371E-002	5.75499E-004	...........
	2	0.775	6.79159E-002	5.99774E-002	5.79232E-004	...........
	3	1.03333	6.66255E-002	6.14712E-002	5.77666E-004	...........
	4	1.29167	6.46272E-002	5.88987E-002	5.71932E-004	...........
	5	1.55	6.25501E-002	5.86134E-002	5.74765E-004	...........
	6	1.80833	6.08353E-002	5.67342E-002	5.79199E-004	...........
	7	2.06667	5.94513E-002	5.53669E-002	5.78066E-004	...........
	8	2.325	5.81903E-002	5.45410E-002	5.69466E-004	...........
	9	2.58333	5.69418E-002	5.33898E-002	5.72632E-004	...........
	10	2.84167	5.57415E-002	5.31373E-002	5.76766E-004	...........
	11	3.1	5.46697E-002	5.19454E-002	5.73132E-004	...........
	12	3.35833	5.37531E-002	5.16641E-002	5.68699E-004	...........
	13	3.61667	5.29565E-002	5.06548E-002	5.76566E-004	...........
	14	3.875	5.22280E-002	5.02117E-002	5.76499E-004	...........
	15	4.13333	5.15365E-002	4.96531E-002	5.71732E-004	...........
	16	4.39167	5.08712E-002	4.86226E-002	5.71632E-004	...........
	17	4.65	5.02254E-002	4.87943E-002	5.73565E-004	...........
	18	4.90833	4.96024E-002	4.74865E-002	5.76232E-004	...........
EOC	QUANT	0.0496024	Open Circuit (V)
PSTATMODEL	IQUANT	4	Pstat Model
PSTATSECTION	LABEL	REF600-11020	Pstat Section
PSTATSERIALNO	LABEL	11020	Pstat Serial Number
CTRLMODE	IQUANT	1	Control Mode
IESTAB	IQUANT	0	I/E Stability
CASPEED	IQUANT	1	Control Amp Speed
CONVENTION	IQUANT	1	Current Convention
ICHRANGE	IQUANT	2	Ich Range
ICHRANGEMODE	TOGGLE	F	Ich Auto Range
ICHOFFSETENABLE	TOGGLE	T	Ich Offset Enable
ICHOFFSET	QUANT	0	Ich Offset (V)
ICHFILTER	IQUANT	3	Ich Filter
VCHRANGE	IQUANT	2	Vch Range
VCHRANGEMODE	TOGGLE	F	Vch Auto Range
VCHOFFSETENABLE	TOGGLE	T	Vch Offset Enable
VCHOFFSET	QUANT	0	Vch Offset (V)
VCHFILTER	IQUANT	3	Vch Filter
ACHRANGE	IQUANT	2	Ach Range
ACHOFFSETENABLE	TOGGLE	F	Ach Offset Enable
ACHOFFSET	QUANT	0	Ach Offset (V)
ACHFILTER	IQUANT	3	Ach Filter
IERANGELOWERLIMIT	IQUANT	1	I/E Range Lower Limit
IERANGEMODE	TOGGLE	F	I/E AutoRange
IERANGE	IQUANT	5	I/E Range
POSFEEDENABLE	TOGGLE	F	Positive Feedback IR Comp
POSFEEDRESISTANCE	QUANT	0	Positive Feedback Resistance (ohm)
ACHSELECT	IQUANT	0	Ach Select
CABLEID	IQUANT	14	Cable ID
DCCALDATE	LABEL	8/19/2019	DC Calibration Date
ACCALDATE	LABEL	8/19/2019	AC Calibration Date
THERMOSELECT	IQUANT	1	Thermo Select
FRAMEWORKVERSION	QUANT	6.33	Framework Version
INSTRUMENTVERSION	LABEL	3.50	Instrument Version
ZCURVE	TABLE
	Pt	Time	Freq	Zreal	Zimag	Zsig	Zmod	Zphz	Idc	Vdc	IERange
	#	s	Hz	ohm	ohm	V	ohm	°	A	V	#
	0	1	1000078	1056.312	-10006.77	1	10062.37	-83.97419	-5.575894E-009	0.0522293	8
	1	3	794390.6	1198.168	-12442.77	1	12500.32	-84.49969	-7.829148E-007	0.0511321	8
	2	5	630984.4	1511.603	-15428.41	1	15502.29	-84.40429	1.260978E-006	0.0507543	8
	3	7	501234.4	1596.434	-19356.96	1	19422.68	-85.28529	-6.790901E-007	0.0515972	8
	4	9	398109.4	1694.109	-24280.95	1	24339.97	-86.00888	-8.029522E-007	0.0515226	8
	5	11	316265.6	2653.01	-30297.54	1	30413.47	-84.99565	6.687971E-006	0.0503375	8
	6	14	251203.1	2896.86	-37605.37	1	37716.78	-85.59502	-4.067067E-007	0.0507625	8
	7	16	199546.9	4290.785	-47193.96	1	47388.61	-84.80506	-2.353403E-006	0.0515094	8
	8	17	158578.1	2607.431	-59606.55	1	59663.55	-87.49525	3.510524E-006	0.0510186	8
	9	19	125953.1	6171.944	-73123.45	1	73383.46	-85.17542	-1.168899E-006	0.0551949	7
	10	21	100078.1	7000.348	-91771.78	1	92038.39	-85.63792	1.361455E-006	0.0493326	7
	11	22	79453.13	9007.187	-114316.8	1	114671.1	-85.49489	-1.474822E-006	0.0526074	7
	12	24	63140.62	10967.54	-142476.5	1	142898	-85.59818	-2.456092E-007	0.0497717	7
	13	26	50203.12	13837.15	-176675	1	177216	-85.52175	-8.604081E-007	0.0529809	7
	14	27	39890.62	14302.41	-220697.6	1	221160.5	-86.29211	6.210378E-007	0.0514921	7
	15	29	31640.63	23670.31	-272913.3	1	273937.8	-85.04303	9.280475E-007	0.0509562	7
	16	31	25171.88	27948.35	-343682.3	1	344816.8	-85.35092	2.814761E-007	0.0491652	7
	17	33	20015.62	30646.59	-361492	1	362788.8	-85.15416	-2.496141E-007	0.0497642	7
	18	35	15890.62	43322.02	-533691.8	1	535447.2	-85.35923	-4.78342E-007	0.0527436	7
	19	36	12609.37	64079.54	-661457.5	1	664554.1	-84.46667	-1.078331E-007	0.0548665	6
	20	38	10078.13	78321.4	-821453.2	1	825178.5	-84.5536	-1.08084E-007	0.0548648	6
	21	40	8015.625	60318.37	-1008616	1	1010418	-86.57761	1.574945E-007	0.0515948	6
	22	41	6328.125	123996.9	-1282375	1	1288356	-84.47706	-3.080618E-007	0.055139	6
	23	43	5015.625	148174.1	-1587180	1	1594082	-84.66651	2.732221E-007	0.0474022	6
	24	45	3984.375	231845.3	-1971490	1	1985076	-83.29288	-1.07743E-007	0.0548609	6
	25	46	3170.956	197959.3	-2473783	1	2481691	-85.42477	2.73438E-007	0.0473971	6
	26	48	2527.573	313595.4	-3092256	1	3108117	-84.20925	1.976419E-007	0.0466675	6
	27	50	1976.103	222251.3	-3859635	1	3866029	-86.70435	1.281539E-007	0.0468969	6
	28	52	1577.524	-5154293	-3709612	1	6350430	-144.2569	7.610076E-008	0.0528875	6
	29	54	1265.625	868185	-5908523	1	5971968	-81.64091	-2.54031E-008	0.0519989	5
	30	56	998.264	901673.8	-7335707	1	7390914	-82.99259	1.702462E-008	0.0466858	5
	31	57	796.875	1648657	-9.651239E+006	1	9.791041E+006	-80.30611	-1.824202E-008	0.0504721	5
	32	59	627.7902	1486051	-1.127984E+007	1	1.137731E+007	-82.49484	-2.515587E-008	0.0519957	5
	33	60	505.5147	1475894	-1.408535E+007	1	1.416246E+007	-84.01825	-9.909748E-011	0.0479408	5
	34	62	397.9953	3440452	-1.653111E+007	1	1.688533E+007	-78.24344	6.770767E-010	0.0509661	5
	35	64	315.5048	1172479	-1.85664E+007	1	1.860338E+007	-86.38654	-6.726164E-010	0.0509695	5
	36	65	252.4038	6473589	-2.798183E+007	1	2.87209E+007	-76.97381	5.616942E-010	0.0509562	5
	37	66	198.6229	9070111	-3.338389E+007	1	3.459409E+007	-74.80015	-2.357438E-010	0.0509626	5
	38	68	158.3615	2633411	-4.120058E+007	1	4.128465E+007	-86.34281	-4.202049E-010	0.05097	5
	39	70	125.558	1250483	-3.707358E+007	1	3.709466E+007	-88.06816	3.553621E-010	0.0509731	4
	40	71	100.4464	-1691472	-6.066975E+007	1	6.069332E+007	-91.59699	4.450444E-012	0.0509617	4
	41	73	79.00281	3.80167E+007	4334541	1	3.826301E+007	6.50459	-4.614644E-010	0.0509604	5
	42	75	63.3446	-1380659	6138194	1	6291553	102.6765	4.663764E-010	0.0509518	4
	43	76	49.86702	-2.051875E+007	-3.958098E+007	1	4.458332E+007	-117.4022	-6.176709E-012	0.0509634	5
	44	78	39.72458	3.394248E+007	-1.771232E+007	1	3.828601E+007	-27.55706	-1.987733E-010	0.0509709	4
	45	80	31.6723	-4.706799E+007	3.246987E+007	1	5.718119E+007	145.4001	-2.9408E-010	0.050956	4
	46	82	24.93351	2.549937E+007	-1.007838E+008	1	1.039596E+008	-75.80153	-7.688822E-011	0.0509587	4
	47	83	19.86229	-1.055786E+008	-4.296062E+007	1	1.139845E+008	-157.8583	1.83253E-010	0.0509747	4
	48	85	15.83615	6247240	-1.124574E+007	1	1.286448E+007	-60.94694	1.243938E-009	0.050947	4
	49	87	12.40079	2.143834E+007	710891.6	1	2.145012E+007	1.899222	-7.777161E-010	0.0509685	4
	50	88	9.93114	2.198129E+008	9.973578E+007	1	2.413813E+008	24.40524	4.558096E-011	0.0509574	4
	51	90	7.944915	-3.347397E+007	4.999773E+007	1	6.016876E+007	123.8027	3.957759E-010	0.0509559	4
	52	93	6.317385	2.4E+008	-9.396435E+007	1	2.577388E+008	-21.38125	4.338832E-011	0.050962	5
	53	95	5.008013	3.808757E+008	1.157438E+008	1	3.980741E+008	16.90343	4.166505E-011	0.0509601	4
	54	99	3.945707	2.853868E+008	-1.431957E+008	1	3.192971E+008	-26.64568	-7.029525E-011	0.0509678	4
	55	102	3.158693	2.668247E+008	-6.283535E+007	1	2.741235E+008	-13.25132	2.863673E-011	0.0509364	4
	56	106	2.504006	7.084169E+008	-2.581084E+008	1	7.539724E+008	-20.01898	3.922364E-011	0.0509627	3
	57	110	1.998082	1.77515E+008	-3.983704E+008	1	4.361313E+008	-65.98211	4.784696E-011	0.050913	3
	58	116	1.584686	5.685392E+008	-3.586833E+007	1	5.696695E+008	-3.609925	4.76324E-011	0.0509316	3
	59	121	1.266892	1.899046E+009	2.119604E+008	1	1.910838E+009	6.368663	-1.001659E-013	0.0509171	2
	60	128	0.999041	1.073991E+009	-1.5237E+008	1	1.084746E+009	-8.07482	6.645926E-012	0.0509854	2
