EXPLAIN
TAG	EISPOT
TITLE	LABEL	Potentiostatic EIS	Test &Identifier
DATE	LABEL	11/12/2019	Date
TIME	LABEL	23:42:32	Time
NOTES	NOTES	3	&Notes...
	
	
	
PSTAT	PSTAT	REF600-11020	Potentiostat
VDC	POTEN	0.00000E+000	T	DC &Voltage (V)
FREQINIT	QUANT	1.00000E+006	Initial Fre&q. (Hz)
FREQFINAL	QUANT	1.00000E+000	Final Fre&q. (Hz)
PTSPERDEC	QUANT	1.00000E+001	Points/&decade
VAC	QUANT	2.50000E+001	AC &Voltage (mV rms)
AREA	QUANT	1.00000E-002	&Area (cm^2)
CONDIT	TWOPARAM	T	5.00000E+000	0.00000E+000	Conditionin&g	Time(s)	E(V)
DELAY	TWOPARAM	T	5.00000E+000	0.00000E+000	Init. De&lay	Time(s)	Stab.(mV/s)
SPEED	SELECTOR	1	&Optimize for:
ZGUESS	QUANT	1.00000E+005	E&stimated Z (ohms)
OCVCURVE	TABLE	19
	Pt	T	Vf	Vm	Ach	Over
	#	s	V vs. Ref.	V	V	bits
	0	0.258333	5.71780E-003	5.71780E-003	5.50566E-004	...........
	1	0.516667	5.70461E-003	5.02770E-003	5.52066E-004	...........
	2	0.775	5.63379E-003	4.90405E-003	5.53699E-004	...........
	3	1.03333	5.47510E-003	5.20261E-003	5.54999E-004	...........
	4	1.29167	5.28147E-003	4.98033E-003	5.52866E-004	...........
	5	1.55	5.14646E-003	5.49624E-003	5.50333E-004	...........
	6	1.80833	5.12447E-003	5.73945E-003	5.59699E-004	...........
	7	2.06667	5.22290E-003	5.78378E-003	5.54799E-004	...........
	8	2.325	5.39512E-003	5.45428E-003	5.56499E-004	...........
	9	2.58333	5.53321E-003	4.91163E-003	5.58166E-004	...........
	10	2.84167	5.52585E-003	4.58560E-003	5.58732E-004	...........
	11	3.1	5.34106E-003	4.44438E-003	5.56366E-004	...........
	12	3.35833	5.04957E-003	4.40669E-003	5.59466E-004	...........
	13	3.61667	4.76069E-003	4.23135E-003	5.58866E-004	...........
	14	3.875	4.53968E-003	4.24921E-003	5.61032E-004	...........
	15	4.13333	4.39753E-003	4.48887E-003	5.57699E-004	...........
	16	4.39167	4.33184E-003	4.38268E-003	5.62799E-004	...........
	17	4.65	4.33033E-003	4.35100E-003	5.59966E-004	...........
	18	4.90833	4.35795E-003	4.49574E-003	5.51299E-004	...........
EOC	QUANT	0.0043579	Open Circuit (V)
PSTATMODEL	IQUANT	4	Pstat Model
PSTATSECTION	LABEL	REF600-11020	Pstat Section
PSTATSERIALNO	LABEL	11020	Pstat Serial Number
CTRLMODE	IQUANT	1	Control Mode
IESTAB	IQUANT	0	I/E Stability
CASPEED	IQUANT	1	Control Amp Speed
CONVENTION	IQUANT	1	Current Convention
ICHRANGE	IQUANT	2	Ich Range
ICHRANGEMODE	TOGGLE	F	Ich Auto Range
ICHOFFSETENABLE	TOGGLE	T	Ich Offset Enable
ICHOFFSET	QUANT	0	Ich Offset (V)
ICHFILTER	IQUANT	3	Ich Filter
VCHRANGE	IQUANT	2	Vch Range
VCHRANGEMODE	TOGGLE	F	Vch Auto Range
VCHOFFSETENABLE	TOGGLE	T	Vch Offset Enable
VCHOFFSET	QUANT	0	Vch Offset (V)
VCHFILTER	IQUANT	3	Vch Filter
ACHRANGE	IQUANT	2	Ach Range
ACHOFFSETENABLE	TOGGLE	F	Ach Offset Enable
ACHOFFSET	QUANT	0	Ach Offset (V)
ACHFILTER	IQUANT	3	Ach Filter
IERANGELOWERLIMIT	IQUANT	1	I/E Range Lower Limit
IERANGEMODE	TOGGLE	F	I/E AutoRange
IERANGE	IQUANT	4	I/E Range
POSFEEDENABLE	TOGGLE	F	Positive Feedback IR Comp
POSFEEDRESISTANCE	QUANT	0	Positive Feedback Resistance (ohm)
ACHSELECT	IQUANT	0	Ach Select
CABLEID	IQUANT	14	Cable ID
DCCALDATE	LABEL	8/19/2019	DC Calibration Date
ACCALDATE	LABEL	8/19/2019	AC Calibration Date
THERMOSELECT	IQUANT	1	Thermo Select
FRAMEWORKVERSION	QUANT	6.33	Framework Version
INSTRUMENTVERSION	LABEL	3.50	Instrument Version
ZCURVE	TABLE
	Pt	Time	Freq	Zreal	Zimag	Zsig	Zmod	Zphz	Idc	Vdc	IERange
	#	s	Hz	ohm	ohm	V	ohm	°	A	V	#
	0	2	1000078	1852.019	-1002.527	1	2105.952	-28.4274	4.571607E-006	0.0067312	8
	1	3	794390.6	2021.446	-946.2371	1	2231.952	-25.08425	-1.930139E-006	0.0057523	8
	2	5	630984.4	2176.005	-887.6678	1	2350.096	-22.19225	-2.834904E-007	0.0056427	8
	3	6	501234.4	2301.559	-817.0587	1	2442.286	-19.54498	5.834557E-006	0.0047906	8
	4	7	398109.4	2412.058	-755.9972	1	2527.757	-17.40225	-2.894849E-006	0.0057455	8
	5	9	316265.6	2512.741	-697.2234	1	2607.678	-15.50802	-1.774787E-006	0.0059474	8
	6	10	251203.1	2586.612	-645.5664	1	2665.955	-14.01359	-2.478422E-007	0.0062046	8
	7	12	199546.9	2665.147	-610.4106	1	2734.156	-12.90021	-1.160022E-006	0.0061531	8
	8	13	158578.1	2724.328	-585.8325	1	2786.604	-12.13593	1.854306E-006	0.0053609	8
	9	14	125953.1	2805.482	-535.3481	1	2856.103	-10.80343	-1.205365E-006	0.0090017	7
	10	16	100078.1	2863.193	-528.4185	1	2911.546	-10.4566	-4.9181E-007	0.0070698	7
	11	17	79453.13	2922.79	-534.5136	1	2971.263	-10.36361	-1.015022E-006	0.0069862	7
	12	18	63140.62	2985.217	-549.8873	1	3035.44	-10.43709	-1.016369E-006	0.0066848	7
	13	20	50203.12	3052.521	-572.0694	1	3105.664	-10.61461	8.695012E-008	0.0065036	7
	14	21	39890.62	3120.301	-597.2023	1	3176.937	-10.83495	-8.989749E-007	0.0071058	7
	15	23	31640.63	3193.226	-630.1885	1	3254.816	-11.16396	-1.017936E-006	0.0069715	7
	16	24	25171.88	3272.201	-669.8455	1	3340.059	-11.56907	3.542678E-007	0.0061308	7
	17	25	20015.62	3352.667	-716.8974	1	3428.457	-12.06974	-2.142441E-007	0.0068455	7
	18	27	15890.62	3437.123	-769.983	1	3522.313	-12.62691	-2.750539E-007	0.0050748	7
	19	28	12609.37	3524.081	-833.9781	1	3621.418	-13.31417	-1.016522E-006	0.0069761	7
	20	29	10078.13	3617.128	-894.4536	1	3726.078	-13.88963	-1.017566E-006	0.0066762	7
	21	31	8015.625	3719.498	-997.532	1	3850.94	-15.01287	7.948513E-007	0.0043404	7
	22	32	6328.125	3812.682	-1100.522	1	3968.336	-16.10066	-1.015153E-006	0.0069734	7
	23	33	5015.625	3923.399	-1230.944	1	4111.968	-17.41895	8.514074E-007	0.0051129	7
	24	35	3984.375	4021.091	-1380.884	1	4251.59	-18.953	-4.897551E-007	0.0070533	7
	25	36	3170.956	4125.233	-1566.746	1	4412.737	-20.79657	-1.017766E-006	0.006678	7
	26	38	2527.573	4235.449	-1802.421	1	4603.015	-23.05248	6.221746E-007	0.004291	7
	27	39	1976.103	4349.919	-2119.737	1	4838.913	-25.9802	3.566009E-007	0.0061293	7
	28	40	1577.524	4462.332	-2478.07	1	5104.237	-29.04476	-1.014781E-006	0.0069751	7
	29	42	1265.625	4582.149	-2925.167	1	5436.238	-32.55347	3.559977E-007	0.0061255	7
	30	43	998.264	4726.044	-3527.36	1	5897.268	-36.73642	6.233428E-007	0.0042864	7
	31	44	796.875	4881.759	-4222.546	1	6454.569	-40.85863	-2.122657E-007	0.0068364	7
	32	46	627.7902	5069.755	-5140.985	1	7220.26	-45.39969	-1.019708E-006	0.0066723	7
	33	47	505.5147	5272.142	-6206.992	1	8143.846	-49.65584	9.137597E-007	0.0047741	7
	34	49	397.9953	5555.956	-7608.489	1	9421.133	-53.86192	3.50796E-009	0.005762	7
	35	50	315.5048	5893.944	-9312.786	1	11021.19	-57.6708	4.085655E-010	0.0057041	6
	36	52	252.4038	6293.956	-11322.58	1	12954.33	-60.93135	2.177063E-010	0.0056936	6
	37	53	198.6229	6836.817	-13979.74	1	15561.98	-63.93897	7.502169E-010	0.0056922	6
	38	54	158.3615	7488.353	-17065.87	1	18636.5	-66.30856	1.28432E-011	0.0057014	6
	39	56	125.558	8343.395	-20937.2	1	22538.38	-68.27291	6.751928E-010	0.0056899	6
	40	57	100.4464	9399.439	-25482.35	1	27160.63	-69.75296	1.544251E-009	0.0056967	6
	41	58	79.00281	10854.85	-31356.32	1	33182.03	-70.9053	6.486E-010	0.0057009	6
	42	60	63.3446	12776.98	-37785.05	1	39886.86	-71.31709	9.655148E-010	0.0056996	6
	43	61	49.86702	15238.11	-46939.48	1	49350.94	-72.01486	6.966489E-010	0.0057028	6
	44	63	39.72458	18170.88	-56863.46	1	59696.18	-72.27856	-1.847847E-011	0.0057066	6
	45	64	31.6723	21844.78	-68893.46	1	72273.81	-72.40719	-2.56605E-011	0.0056974	6
	46	65	24.93351	27380.09	-84019.16	1	88367.92	-71.95029	3.754491E-010	0.0056988	6
	47	67	19.86229	34218.31	-101291.6	1	106915.3	-71.33401	2.973777E-010	0.0056989	5
	48	68	15.83615	42719.45	-121065	1	128381.1	-70.56392	5.478512E-010	0.005702	5
	49	69	12.40079	54196.7	-147363	1	157013.2	-69.80765	3.567215E-010	0.0057123	5
	50	71	9.93114	68494.98	-173829.3	1	186837.3	-68.49377	4.042375E-010	0.005703	5
	51	73	7.944915	85355.65	-205084	1	222137.4	-67.40299	-9.648686E-011	0.0057062	5
	52	74	6.317385	108267.2	-240875.4	1	264088.5	-65.79733	-2.456237E-010	0.0057045	5
	53	76	5.008013	135788.4	-281741.5	1	312756.7	-64.26775	-3.806948E-011	0.0057013	5
	54	79	3.945707	169199.8	-328322.2	1	369356.3	-62.73583	2.081276E-010	0.0057035	5
	55	81	3.158693	205458.4	-377392.8	1	429695.8	-61.43546	-9.838642E-011	0.0056909	5
	56	85	2.504006	248965.8	-433933.1	1	500281.8	-60.15528	3.679921E-010	0.0057066	5
	57	87	1.998082	296707.3	-495242.3	1	577321.6	-59.07352	3.137489E-010	0.0057089	5
	58	91	1.584686	353743	-565350.3	1	666899.6	-57.96554	7.492686E-011	0.0056518	5
	59	94	1.266892	411917.3	-642190.4	1	762944.6	-57.32285	2.423101E-010	0.0056941	5
	60	99	0.999041	483401	-737826	1	882079.3	-56.76841	-1.196608E-010	0.0056835	5
