EXPLAIN
TAG	EISPOT
TITLE	LABEL	Potentiostatic EIS	Test &Identifier
DATE	LABEL	9/26/2019	Date
TIME	LABEL	9:15:28	Time
NOTES	NOTES	2	&Notes...
	
	
PSTAT	PSTAT	REF600-11020	Potentiostat
VDC	POTEN	0.00000E+000	T	DC &Voltage (V)
FREQINIT	QUANT	1.00000E+006	Initial Fre&q. (Hz)
FREQFINAL	QUANT	1.00000E+000	Final Fre&q. (Hz)
PTSPERDEC	QUANT	1.00000E+001	Points/&decade
VAC	QUANT	2.50000E+001	AC &Voltage (mV rms)
AREA	QUANT	1.00000E-002	&Area (cm^2)
CONDIT	TWOPARAM	T	5.00000E+000	0.00000E+000	Conditionin&g	Time(s)	E(V)
DELAY	TWOPARAM	T	5.00000E+000	0.00000E+000	Init. De&lay	Time(s)	Stab.(mV/s)
SPEED	SELECTOR	1	&Optimize for:
ZGUESS	QUANT	1.00000E+004	E&stimated Z (ohms)
OCVCURVE	TABLE	19
	Pt	T	Vf	Vm	Ach	Over
	#	s	V vs. Ref.	V	V	bits
	0	0.258333	2.03671E-002	2.03671E-002	5.65832E-004	...........
	1	0.516667	2.03847E-002	2.12884E-002	5.73999E-004	...........
	2	0.775	2.04933E-002	2.21887E-002	5.70532E-004	...........
	3	1.03333	2.08017E-002	2.30247E-002	5.71532E-004	...........
	4	1.29167	2.13551E-002	2.38653E-002	5.68966E-004	...........
	5	1.55	2.20932E-002	2.46161E-002	5.63832E-004	...........
	6	1.80833	2.29129E-002	2.53494E-002	5.66832E-004	...........
	7	2.06667	2.37353E-002	2.60621E-002	5.65999E-004	...........
	8	2.325	2.45247E-002	2.67771E-002	5.68332E-004	...........
	9	2.58333	2.52763E-002	2.73993E-002	5.66732E-004	...........
	10	2.84167	2.59937E-002	2.79835E-002	5.67466E-004	...........
	11	3.1	2.66761E-002	2.86074E-002	5.65399E-004	...........
	12	3.35833	2.73235E-002	2.91747E-002	5.73166E-004	...........
	13	3.61667	2.79414E-002	2.96782E-002	5.65399E-004	...........
	14	3.875	2.85324E-002	3.01850E-002	5.72132E-004	...........
	15	4.13333	2.90952E-002	3.07285E-002	5.66232E-004	...........
	16	4.39167	2.96342E-002	3.12383E-002	5.67632E-004	...........
	17	4.65	3.01590E-002	3.17133E-002	5.67866E-004	...........
	18	4.90833	3.06733E-002	3.21332E-002	5.62699E-004	...........
EOC	QUANT	0.0306733	Open Circuit (V)
PSTATMODEL	IQUANT	4	Pstat Model
PSTATSECTION	LABEL	REF600-11020	Pstat Section
PSTATSERIALNO	LABEL	11020	Pstat Serial Number
CTRLMODE	IQUANT	1	Control Mode
IESTAB	IQUANT	0	I/E Stability
CASPEED	IQUANT	1	Control Amp Speed
CONVENTION	IQUANT	1	Current Convention
ICHRANGE	IQUANT	2	Ich Range
ICHRANGEMODE	TOGGLE	F	Ich Auto Range
ICHOFFSETENABLE	TOGGLE	T	Ich Offset Enable
ICHOFFSET	QUANT	0	Ich Offset (V)
ICHFILTER	IQUANT	3	Ich Filter
VCHRANGE	IQUANT	2	Vch Range
VCHRANGEMODE	TOGGLE	F	Vch Auto Range
VCHOFFSETENABLE	TOGGLE	T	Vch Offset Enable
VCHOFFSET	QUANT	0	Vch Offset (V)
VCHFILTER	IQUANT	3	Vch Filter
ACHRANGE	IQUANT	2	Ach Range
ACHOFFSETENABLE	TOGGLE	F	Ach Offset Enable
ACHOFFSET	QUANT	0	Ach Offset (V)
ACHFILTER	IQUANT	3	Ach Filter
IERANGELOWERLIMIT	IQUANT	1	I/E Range Lower Limit
IERANGEMODE	TOGGLE	F	I/E AutoRange
IERANGE	IQUANT	6	I/E Range
POSFEEDENABLE	TOGGLE	F	Positive Feedback IR Comp
POSFEEDRESISTANCE	QUANT	0	Positive Feedback Resistance (ohm)
ACHSELECT	IQUANT	0	Ach Select
CABLEID	IQUANT	14	Cable ID
DCCALDATE	LABEL	8/19/2019	DC Calibration Date
ACCALDATE	LABEL	8/19/2019	AC Calibration Date
THERMOSELECT	IQUANT	1	Thermo Select
FRAMEWORKVERSION	QUANT	6.33	Framework Version
INSTRUMENTVERSION	LABEL	3.50	Instrument Version
ZCURVE	TABLE
	Pt	Time	Freq	Zreal	Zimag	Zsig	Zmod	Zphz	Idc	Vdc	IERange
	#	s	Hz	ohm	ohm	V	ohm	°	A	V	#
	0	1	1000078	2201.106	-2133.516	1	3065.413	-44.10664	-1.172353E-006	0.0330735	8
	1	3	794390.6	2657.171	-2178.337	1	3435.944	-39.34475	5.418032E-008	0.0325763	8
	2	4	630984.4	3101.38	-2169.994	1	3785.159	-34.97997	-1.418073E-007	0.0324123	8
	3	6	501234.4	3566.696	-2108.464	1	4143.301	-30.58959	-1.006624E-007	0.0324943	8
	4	7	398109.4	3910.002	-1936.212	1	4363.145	-26.34437	-1.02988E-006	0.0325794	8
	5	9	316265.6	4222.639	-1778.427	1	4581.865	-22.83911	1.401654E-006	0.032056	8
	6	10	251203.1	4488.948	-1549.685	1	4748.913	-19.04581	-3.068444E-007	0.0322692	8
	7	12	199546.9	4698.171	-1356.701	1	4890.138	-16.10724	1.418271E-006	0.03184	8
	8	13	158578.1	4887.963	-1167.586	1	5025.479	-13.43448	-3.009197E-007	0.0324752	8
	9	15	125953.1	5028.148	-966.763	1	5120.245	-10.88346	8.060789E-007	0.0305444	7
	10	16	100078.1	5118.765	-847.5975	1	5188.465	-9.402086	7.337326E-008	0.032157	7
	11	18	79453.13	5195.651	-751.0543	1	5249.654	-8.225381	-2.326178E-008	0.0323413	7
	12	19	63140.62	5260.457	-672.3925	1	5303.255	-7.28406	-1.056003E-008	0.0324016	7
	13	20	50203.12	5314.114	-615.2217	1	5349.608	-6.603806	-2.707166E-008	0.0322401	7
	14	22	39890.62	5363.481	-576.8413	1	5394.411	-6.138554	-1.044909E-008	0.0322051	7
	15	23	31640.63	5407.5	-555.686	1	5435.977	-5.867239	-4.254721E-008	0.032299	7
	16	24	25171.88	5454.736	-548.8835	1	5482.283	-5.746053	-4.026877E-008	0.0322775	7
	17	26	20015.62	5496.826	-551.485	1	5524.421	-5.729195	-4.207839E-008	0.0322702	7
	18	27	15890.62	5542.208	-573.4055	1	5571.792	-5.906895	9.181952E-008	0.0322033	7
	19	29	12609.37	5584.361	-612.7299	1	5617.876	-6.261586	4.383018E-008	0.0322031	7
	20	30	10078.13	5632.15	-667.3751	1	5671.552	-6.757687	-5.446133E-008	0.0324325	7
	21	31	8015.625	5673.278	-739.6296	1	5721.288	-7.427802	-2.166938E-008	0.0323212	7
	22	33	6328.125	5728.691	-840.8583	1	5790.073	-8.350258	1.406465E-007	0.0320524	7
	23	34	5015.625	5780.954	-967.62	1	5861.375	-9.50212	-3.929833E-008	0.032276	7
	24	35	3984.375	5843.909	-1126.895	1	5951.568	-10.91452	-4.33889E-009	0.0322996	7
	25	37	3170.956	5905.699	-1324.595	1	6052.424	-12.64171	-4.908874E-008	0.0323596	7
	26	38	2527.573	5974.64	-1566.478	1	6176.583	-14.69157	-5.091385E-008	0.0323595	7
	27	40	1976.103	6062.555	-1892.965	1	6351.211	-17.34039	-7.224146E-009	0.0322831	7
	28	41	1577.524	6159.428	-2268.591	1	6563.92	-20.21935	4.393126E-008	0.0321173	7
	29	42	1265.625	6257.771	-2696.798	1	6814.134	-23.31372	-2.567447E-008	0.0322406	7
	30	44	998.264	6394.37	-3288.78	1	7190.552	-27.21786	4.465146E-008	0.0322004	7
	31	45	796.875	6539.254	-3969.633	1	7649.825	-31.25971	7.431212E-008	0.0321349	7
	32	46	627.7902	6716.561	-4857.235	1	8288.844	-35.87344	-2.072983E-008	0.032318	7
	33	48	505.5147	6909.974	-5842.86	1	9049.13	-40.21683	-7.944232E-009	0.0322782	7
	34	49	397.9953	7171.043	-7186.276	1	10152.16	-45.06079	6.84177E-010	0.032219	6
	35	50	315.5048	7468.219	-8803.929	1	11544.85	-49.69264	-8.2894E-011	0.0322207	6
	36	52	252.4038	7820.657	-10717.98	1	13267.92	-53.88266	-6.148108E-010	0.0322184	6
	37	53	198.6229	8287.643	-13252.52	1	15630.56	-57.97964	5.064388E-010	0.0322179	6
	38	54	158.3615	8848.67	-16217.96	1	18474.88	-61.3827	6.185E-010	0.0322131	6
	39	56	125.558	9583.71	-19941.23	1	22124.65	-64.33116	7.615886E-011	0.0322065	6
	40	57	100.4464	10517.43	-24305.42	1	26483.39	-66.60093	1.237612E-010	0.0322052	6
	41	58	79.00281	11693.5	-30179.73	1	32365.94	-68.82054	8.251835E-010	0.0322045	6
	42	60	63.3446	13590.05	-37005.14	1	39421.7	-69.83437	-2.40267E-010	0.0322129	6
	43	61	49.86702	15130.43	-45128.17	1	47597.08	-71.4649	7.44315E-010	0.0322041	6
	44	63	39.72458	18289.73	-55137.07	1	58091.41	-71.6486	5.067861E-010	0.032216	6
	45	64	31.6723	21984.32	-66985.45	1	70500.78	-71.8304	6.536213E-010	0.0322105	6
	46	66	24.93351	26797.82	-82132.97	1	86394.14	-71.92986	-6.363788E-011	0.032213	6
	47	67	19.86229	32935.88	-99248.9	1	104571.1	-71.6415	6.468976E-010	0.0322161	6
	48	68	15.83615	41860.82	-120259.1	1	127336.5	-70.80758	1.204283E-009	0.0322137	5
	49	70	12.40079	52729.61	-143760.2	1	153125.5	-69.85754	1.483379E-009	0.0322127	5
	50	71	9.93114	65073.42	-172440.6	1	184310.3	-69.32513	6.338287E-010	0.0322163	5
	51	73	7.944915	82807.02	-205652.2	1	221697.6	-68.06754	-1.855422E-010	0.0322196	5
	52	74	6.317385	103303.9	-241828.6	1	262969.1	-66.86889	2.124298E-010	0.0322083	5
	53	76	5.008013	130585.4	-285733.4	1	314159.4	-65.43874	-1.274637E-011	0.0322224	5
	54	79	3.945707	164740.3	-335609.8	1	373862.7	-63.85503	-2.52134E-010	0.0322142	5
	55	81	3.158693	203810.8	-387345.4	1	437693.2	-62.24786	-3.292696E-010	0.0322004	5
	56	85	2.504006	252353.8	-447605.4	1	513841.4	-60.58629	8.668864E-011	0.0322166	5
	57	87	1.998082	307962.7	-511065.8	1	596681.8	-58.92729	-4.742897E-011	0.0322533	5
	58	90	1.584686	372418.5	-579230.8	1	688624.6	-57.26086	-6.73297E-011	0.0322007	5
	59	94	1.266892	445998.5	-652577.8	1	790425.4	-55.64969	-1.986803E-010	0.0322537	5
	60	98	0.999041	529303.9	-734188.9	1	905094.4	-54.21078	-2.116223E-010	0.0321809	5
