EXPLAIN
TAG	EISPOT
TITLE	LABEL	Potentiostatic EIS	Test &Identifier
DATE	LABEL	6/20/2000	Date
TIME	LABEL	9:30:55	Time
NOTES	NOTES	2	&Notes...
	
	
PSTAT	PSTAT	REF600-11020	Potentiostat
VDC	POTEN	0.00000E+000	T	DC &Voltage (V)
FREQINIT	QUANT	1.00000E+006	Initial Fre&q. (Hz)
FREQFINAL	QUANT	1.00000E+000	Final Fre&q. (Hz)
PTSPERDEC	QUANT	1.00000E+001	Points/&decade
VAC	QUANT	2.50000E+001	AC &Voltage (mV rms)
AREA	QUANT	1.00000E-002	&Area (cm^2)
CONDIT	TWOPARAM	T	5.00000E+000	0.00000E+000	Conditionin&g	Time(s)	E(V)
DELAY	TWOPARAM	T	5.00000E+000	0.00000E+000	Init. De&lay	Time(s)	Stab.(mV/s)
SPEED	SELECTOR	0	&Optimize for:
ZGUESS	QUANT	1.00000E+005	E&stimated Z (ohms)
OCVCURVE	TABLE	19
	Pt	T	Vf	Vm	Ach	Over
	#	s	V vs. Ref.	V	V	bits
	0	0.258333	6.32080E-003	6.32080E-003	5.78966E-004	...........
	1	0.516667	6.32432E-003	6.50509E-003	5.75932E-004	...........
	2	0.775	6.34754E-003	6.76386E-003	5.76799E-004	...........
	3	1.03333	6.41338E-003	6.73962E-003	5.79799E-004	...........
	4	1.29167	6.51671E-003	6.60813E-003	5.79199E-004	...........
	5	1.55	6.60896E-003	6.47938E-003	5.78432E-004	...........
	6	1.80833	6.64055E-003	6.46689E-003	5.80032E-004	...........
	7	2.06667	6.60648E-003	6.35676E-003	5.76799E-004	...........
	8	2.325	6.53719E-003	6.36166E-003	5.73899E-004	...........
	9	2.58333	6.46323E-003	6.28207E-003	5.68899E-004	...........
	10	2.84167	6.40008E-003	6.31855E-003	5.68899E-004	...........
	11	3.1	6.35257E-003	6.26952E-003	5.70032E-004	...........
	12	3.35833	6.32071E-003	6.30499E-003	5.70666E-004	...........
	13	3.61667	6.30169E-003	6.26004E-003	5.73499E-004	...........
	14	3.875	6.29084E-003	6.28392E-003	5.74032E-004	...........
	15	4.13333	6.28346E-003	6.24710E-003	5.74232E-004	...........
	16	4.39167	6.27690E-003	6.28115E-003	5.70632E-004	...........
	17	4.65	6.27107E-003	6.24575E-003	5.71499E-004	...........
	18	4.90833	6.26687E-003	6.28274E-003	5.72999E-004	...........
EOC	QUANT	0.0062669	Open Circuit (V)
PSTATMODEL	IQUANT	4	Pstat Model
PSTATSECTION	LABEL	REF600-11020	Pstat Section
PSTATSERIALNO	LABEL	11020	Pstat Serial Number
CTRLMODE	IQUANT	1	Control Mode
IESTAB	IQUANT	0	I/E Stability
CASPEED	IQUANT	1	Control Amp Speed
CONVENTION	IQUANT	1	Current Convention
ICHRANGE	IQUANT	2	Ich Range
ICHRANGEMODE	TOGGLE	F	Ich Auto Range
ICHOFFSETENABLE	TOGGLE	T	Ich Offset Enable
ICHOFFSET	QUANT	0	Ich Offset (V)
ICHFILTER	IQUANT	3	Ich Filter
VCHRANGE	IQUANT	2	Vch Range
VCHRANGEMODE	TOGGLE	F	Vch Auto Range
VCHOFFSETENABLE	TOGGLE	T	Vch Offset Enable
VCHOFFSET	QUANT	0	Vch Offset (V)
VCHFILTER	IQUANT	3	Vch Filter
ACHRANGE	IQUANT	2	Ach Range
ACHOFFSETENABLE	TOGGLE	F	Ach Offset Enable
ACHOFFSET	QUANT	0	Ach Offset (V)
ACHFILTER	IQUANT	3	Ach Filter
IERANGELOWERLIMIT	IQUANT	1	I/E Range Lower Limit
IERANGEMODE	TOGGLE	F	I/E AutoRange
IERANGE	IQUANT	5	I/E Range
POSFEEDENABLE	TOGGLE	F	Positive Feedback IR Comp
POSFEEDRESISTANCE	QUANT	0	Positive Feedback Resistance (ohm)
ACHSELECT	IQUANT	0	Ach Select
CABLEID	IQUANT	14	Cable ID
DCCALDATE	LABEL	8/19/2019	DC Calibration Date
ACCALDATE	LABEL	8/19/2019	AC Calibration Date
THERMOSELECT	IQUANT	1	Thermo Select
FRAMEWORKVERSION	QUANT	6.33	Framework Version
INSTRUMENTVERSION	LABEL	3.50	Instrument Version
ZCURVE	TABLE
	Pt	Time	Freq	Zreal	Zimag	Zsig	Zmod	Zphz	Idc	Vdc	IERange
	#	s	Hz	ohm	ohm	V	ohm	°	A	V	#
	0	1	1000078	2228.574	-1244.644	1	2552.583	-29.18306	2.076872E-007	0.0075268	8
	1	2	794390.6	2445.082	-1143.192	1	2699.132	-25.05832	-2.62112E-006	0.0077808	8
	2	2	630984.4	2613.378	-1018.506	1	2804.835	-21.29223	3.373504E-006	0.0084056	8
	3	2	501234.4	2779.619	-904.2474	1	2923.003	-18.0204	-2.35488E-006	0.0084824	8
	4	3	398109.4	2884.51	-778.6964	1	2987.769	-15.10733	-3.115952E-006	0.0077672	8
	5	3	316265.6	2977.112	-677.8275	1	3053.301	-12.82643	-7.3038E-006	0.0089518	8
	6	3	251203.1	3042.359	-581.4421	1	3097.422	-10.81965	-2.900337E-006	0.0077449	8
	7	4	199546.9	3100.917	-506.0807	1	3141.942	-9.269156	4.932767E-006	0.007775	8
	8	4	158578.1	3148.506	-429.6875	1	3177.691	-7.771343	-3.136067E-006	0.0077476	8
	9	4	125953.1	3191.333	-341.7642	1	3209.581	-6.112586	-3.312514E-006	0.0105655	7
	10	5	100078.1	3206.925	-317.0295	1	3222.557	-5.64579	7.226696E-007	0.0080526	7
	11	5	79453.13	3236.243	-297.964	1	3249.931	-5.260447	5.700379E-007	0.0058203	7
	12	5	63140.62	3256.599	-292.7072	1	3269.727	-5.136015	1.373226E-007	0.0061666	7
	13	5	50203.12	3278.655	-287.8045	1	3291.262	-5.016639	1.288217E-006	0.0060636	7
	14	6	39890.62	3309.542	-286.3438	1	3321.906	-4.944954	7.306738E-007	0.0080346	7
	15	6	31640.63	3331.373	-305.7903	1	3345.378	-5.244544	1.30197E-006	0.0064548	7
	16	6	25171.88	3355.898	-321.1921	1	3371.234	-5.46711	5.892232E-007	0.0058164	7
	17	7	20015.62	3383.092	-345.3084	1	3400.669	-5.827933	1.311379E-006	0.0064432	7
	18	7	15890.62	3405.813	-390.9712	1	3428.18	-6.548619	1.392932E-007	0.0061587	7
	19	7	12609.37	3429.033	-431.6155	1	3456.09	-7.174143	-1.448231E-006	0.009099	7
	20	8	10078.13	3446.983	-490.9982	1	3481.777	-8.10684	-3.468184E-007	0.0094129	7
	21	8	8015.625	3492.6	-567.5261	1	3538.41	-9.229543	-1.251693E-006	0.0084183	7
	22	8	6328.125	3524.253	-663.4028	1	3586.148	-10.66057	-1.462461E-006	0.0095354	7
	23	9	5015.625	3565.116	-794.7835	1	3652.634	-12.56763	9.557629E-008	0.0089302	7
	24	9	3984.375	3609.822	-946.139	1	3731.755	-14.68693	1.390712E-007	0.0061628	7
	25	9	3170.956	3657.464	-1128.769	1	3827.684	-17.15131	1.207629E-006	0.0069457	7
	26	10	2527.573	3708.838	-1357.322	1	3949.405	-20.10109	7.278828E-007	0.0080447	7
	27	10	1976.103	3785.583	-1670.097	1	4137.616	-23.80577	-1.451961E-006	0.0090955	7
	28	10	1577.524	3882.645	-2017.459	1	4375.508	-27.45681	-1.31397E-006	0.0097326	7
	29	11	1265.625	3958.941	-2414.056	1	4636.904	-31.37372	-1.070247E-006	0.0097976	7
	30	11	998.264	4084.967	-2948.649	1	5038.004	-35.82286	-3.453065E-007	0.0093956	7
	31	11	796.875	4230.173	-3565.492	1	5532.368	-40.12658	-3.599811E-007	0.0067686	7
	32	12	627.7902	4386.586	-4368.448	1	6190.757	-44.8813	-1.313254E-006	0.0097304	7
	33	12	505.5147	4577.391	-5269.645	1	6980.09	-49.02132	-1.461615E-006	0.0095311	7
	34	12	397.9953	4817.657	-6475.804	1	8071.298	-53.3527	1.16047E-009	0.0078235	7
	35	12	315.5048	5101.21	-7928.087	1	9427.455	-57.24134	2.323367E-009	0.0078199	7
	36	13	252.4038	5437.579	-9646.82	1	11073.77	-60.59154	1.08284E-009	0.0077647	6
	37	13	198.6229	5883.924	-11914.84	1	13288.49	-63.71839	1.096738E-009	0.0077593	6
	38	13	158.3615	6434.792	-14577.32	1	15934.39	-66.18215	1.047137E-009	0.0077622	6
	39	14	125.558	7147.424	-17902.38	1	19276.44	-68.23592	5.790063E-010	0.0077653	6
	40	14	100.4464	8057.276	-21763.1	1	23206.72	-69.68411	-1.262557E-009	0.0077486	6
	41	14	79.00281	9423.572	-26860.58	1	28465.67	-70.66746	6.55111E-010	0.0077453	6
	42	15	63.3446	10446.99	-33207.95	1	34812.46	-72.53678	5.77961E-010	0.0077527	6
	43	15	49.86702	12654.24	-40474.46	1	42406.5	-72.63828	-1.636141E-010	0.0077601	6
	44	16	39.72458	15816.45	-48874.45	1	51369.96	-72.0677	-3.778989E-010	0.007759	6
	45	16	31.6723	19557.88	-58892.07	1	62054.7	-71.62883	-9.473625E-010	0.007762	6
	46	16	24.93351	24003.94	-71717.83	1	75628.27	-71.49462	1.156798E-009	0.0077554	6
	47	16	19.86229	29689.94	-86441.52	1	91398.19	-71.04401	1.789269E-009	0.0077653	6
	48	17	15.83615	38447.58	-104085.5	1	110959.5	-69.72655	-1.817623E-009	0.0077647	5
	49	17	12.40079	47340.84	-122931.5	1	131731.9	-68.93833	-2.179931E-009	0.0077542	5
	50	18	9.93114	59500.05	-147760.5	1	159290.3	-68.06638	2.980947E-010	0.0077643	5
	51	18	7.944915	73234.25	-173487	1	188310.9	-67.11388	1.424992E-009	0.0077555	5
	52	19	6.317385	93110.23	-202936.9	1	223277.6	-65.35369	5.38441E-010	0.0077475	5
	53	19	5.008013	115701.2	-237941.6	1	264580.8	-64.06825	-9.454411E-011	0.0077585	5
	54	20	3.945707	144480	-278436.9	1	313690.2	-62.57535	4.354348E-010	0.0077525	5
	55	22	3.158693	176342.6	-318855	1	364369.6	-61.05523	-1.073901E-010	0.0077553	5
	56	23	2.504006	213962.9	-366426.9	1	424321.5	-59.71862	-1.141895E-010	0.0077481	5
	57	25	1.998082	256087.2	-416744	1	489138.2	-58.42947	1.576568E-010	0.0077887	5
	58	26	1.584686	303457.4	-475833.1	1	564361.2	-57.47275	1.395084E-010	0.0077885	5
	59	28	1.266892	354244.2	-538123.6	1	644256.1	-56.64328	6.232751E-011	0.0077516	5
	60	31	0.999041	414443.8	-613229.1	1	740144.3	-55.94767	4.911331E-011	0.0077383	5
