EXPLAIN
TAG	EISPOT
TITLE	LABEL	Potentiostatic EIS	Test &Identifier
DATE	LABEL	11/22/2019	Date
TIME	LABEL	9:40:48	Time
NOTES	NOTES	4	&Notes...
	
	
	
	
PSTAT	PSTAT	REF600-11020	Potentiostat
VDC	POTEN	0.00000E+000	T	DC &Voltage (V)
FREQINIT	QUANT	1.00000E+006	Initial Fre&q. (Hz)
FREQFINAL	QUANT	1.00000E+000	Final Fre&q. (Hz)
PTSPERDEC	QUANT	1.00000E+001	Points/&decade
VAC	QUANT	2.50000E+001	AC &Voltage (mV rms)
AREA	QUANT	1.00000E-002	&Area (cm^2)
CONDIT	TWOPARAM	T	5.00000E+000	0.00000E+000	Conditionin&g	Time(s)	E(V)
DELAY	TWOPARAM	T	5.00000E+000	0.00000E+000	Init. De&lay	Time(s)	Stab.(mV/s)
SPEED	SELECTOR	0	&Optimize for:
ZGUESS	QUANT	1.00000E+005	E&stimated Z (ohms)
OCVCURVE	TABLE	19
	Pt	T	Vf	Vm	Ach	Over
	#	s	V vs. Ref.	V	V	bits
	0	0.258333	1.84165E-003	1.84165E-003	5.30499E-004	...........
	1	0.516667	1.83681E-003	1.58832E-003	5.32000E-004	...........
	2	0.775	1.80757E-003	1.37320E-003	5.36833E-004	...........
	3	1.03333	1.72668E-003	1.17931E-003	5.32100E-004	...........
	4	1.29167	1.58629E-003	1.00421E-003	5.32966E-004	...........
	5	1.55	1.40680E-003	8.48699E-004	5.35233E-004	...........
	6	1.80833	1.21708E-003	6.99815E-004	5.37166E-004	...........
	7	2.06667	1.03616E-003	5.65271E-004	5.33500E-004	...........
	8	2.325	8.70536E-004	4.32664E-004	5.37499E-004	...........
	9	2.58333	7.19421E-004	3.15334E-004	5.41566E-004	...........
	10	2.84167	5.79993E-004	1.97290E-004	5.38533E-004	...........
	11	3.1	4.49816E-004	8.72972E-005	5.36533E-004	...........
	12	3.35833	3.26919E-004	-2.72360E-005	5.37033E-004	...........
	13	3.61667	2.09538E-004	-1.25452E-004	5.37499E-004	...........
	14	3.875	9.65229E-005	-2.32220E-004	5.35933E-004	...........
	15	4.13333	-1.24709E-005	-3.22930E-004	5.37366E-004	...........
	16	4.39167	-1.17414E-004	-4.19698E-004	5.32100E-004	...........
	17	4.65	-2.18278E-004	-5.06618E-004	5.37333E-004	...........
	18	4.90833	-3.15245E-004	-5.96635E-004	5.37633E-004	...........
EOC	QUANT	-0.0003152	Open Circuit (V)
PSTATMODEL	IQUANT	4	Pstat Model
PSTATSECTION	LABEL	REF600-11020	Pstat Section
PSTATSERIALNO	LABEL	11020	Pstat Serial Number
CTRLMODE	IQUANT	1	Control Mode
IESTAB	IQUANT	0	I/E Stability
CASPEED	IQUANT	1	Control Amp Speed
CONVENTION	IQUANT	1	Current Convention
ICHRANGE	IQUANT	2	Ich Range
ICHRANGEMODE	TOGGLE	F	Ich Auto Range
ICHOFFSETENABLE	TOGGLE	T	Ich Offset Enable
ICHOFFSET	QUANT	0	Ich Offset (V)
ICHFILTER	IQUANT	3	Ich Filter
VCHRANGE	IQUANT	2	Vch Range
VCHRANGEMODE	TOGGLE	F	Vch Auto Range
VCHOFFSETENABLE	TOGGLE	T	Vch Offset Enable
VCHOFFSET	QUANT	0	Vch Offset (V)
VCHFILTER	IQUANT	3	Vch Filter
ACHRANGE	IQUANT	2	Ach Range
ACHOFFSETENABLE	TOGGLE	F	Ach Offset Enable
ACHOFFSET	QUANT	0	Ach Offset (V)
ACHFILTER	IQUANT	3	Ach Filter
IERANGELOWERLIMIT	IQUANT	1	I/E Range Lower Limit
IERANGEMODE	TOGGLE	F	I/E AutoRange
IERANGE	IQUANT	3	I/E Range
POSFEEDENABLE	TOGGLE	F	Positive Feedback IR Comp
POSFEEDRESISTANCE	QUANT	0	Positive Feedback Resistance (ohm)
ACHSELECT	IQUANT	0	Ach Select
CABLEID	IQUANT	14	Cable ID
DCCALDATE	LABEL	8/19/2019	DC Calibration Date
ACCALDATE	LABEL	8/19/2019	AC Calibration Date
THERMOSELECT	IQUANT	1	Thermo Select
FRAMEWORKVERSION	QUANT	6.33	Framework Version
INSTRUMENTVERSION	LABEL	3.50	Instrument Version
ZCURVE	TABLE
	Pt	Time	Freq	Zreal	Zimag	Zsig	Zmod	Zphz	Idc	Vdc	IERange
	#	s	Hz	ohm	ohm	V	ohm	°	A	V	#
	0	1	1000078	1753.1	-588.152	1	1849.13	-18.54622	-8.493595E-006	0.0018743	8
	1	1	794390.6	1834.195	-518.6603	1	1906.116	-15.78946	1.373283E-006	0.0021733	8
	2	1	630984.4	1894.073	-450.6483	1	1946.946	-13.3833	-5.717665E-006	0.0019392	8
	3	2	501234.4	1943.12	-392.2671	1	1982.319	-11.41318	-9.96711E-007	0.0011684	8
	4	2	398109.4	1978.027	-348.4117	1	2008.477	-9.98967	-6.691242E-007	0.0010432	8
	5	2	316265.6	2013.404	-302.2122	1	2035.959	-8.536376	5.923347E-006	0.0001633	8
	6	3	251203.1	2036.731	-276.0663	1	2055.355	-7.719049	1.513137E-006	0.0008817	8
	7	3	199546.9	2061.52	-255.8748	1	2077.339	-7.075336	5.536961E-006	0.0005984	8
	8	3	158578.1	2082.744	-238.8971	1	2096.401	-6.543403	-1.689281E-006	0.0010936	8
	9	4	125953.1	2108.811	-198.9698	1	2118.176	-5.389997	-1.906047E-006	0.0019715	7
	10	4	100078.1	2129.668	-198.1477	1	2138.867	-5.315586	-2.713412E-007	0.0005859	7
	11	4	79453.13	2146.806	-208.6755	1	2156.924	-5.551867	-7.250953E-007	0.0026383	7
	12	5	63140.62	2167.309	-224.9014	1	2178.947	-5.924371	5.331356E-007	0.0013582	7
	13	5	50203.12	2190.459	-244.2927	1	2204.039	-6.363662	-7.268565E-007	0.0026394	7
	14	5	39890.62	2216.255	-268.5409	1	2232.465	-6.90878	8.835224E-007	2.11717E-005	7
	15	6	31640.63	2244.401	-296.795	1	2263.939	-7.532971	7.056792E-008	0.0001447	7
	16	6	25171.88	2274.797	-330.3244	1	2298.655	-8.262197	-4.929839E-007	0.0025582	7
	17	6	20015.62	2308.939	-369.3896	1	2338.301	-9.089294	9.068569E-007	0.0002683	7
	18	6	15890.62	2347.924	-418.8656	1	2384.993	-10.11506	3.609825E-007	0.0016175	7
	19	7	12609.37	2391.333	-476.5978	1	2438.364	-11.27148	-6.271334E-007	0.0011469	7
	20	7	10078.13	2437.839	-540.4127	1	2497.019	-12.49903	-8.887549E-007	0.0017145	7
	21	7	8015.625	2493.843	-616.9634	1	2569.026	-13.89566	9.088854E-007	0.0002712	7
	22	8	6328.125	2557.435	-707.8545	1	2653.589	-15.47118	6.957735E-008	0.000137	7
	23	8	5015.625	2627.129	-813.4163	1	2750.173	-17.20366	-6.263049E-007	0.0011502	7
	24	8	3984.375	2705.029	-934.6549	1	2861.95	-19.06131	7.884785E-007	-0.0001482	7
	25	9	3170.956	2792.342	-1073.805	1	2991.694	-21.03441	-6.263143E-007	0.0011448	7
	26	9	2527.573	2885.944	-1236.614	1	3139.727	-23.19491	8.496744E-007	0.0006001	7
	27	9	1976.103	2997.791	-1444.498	1	3327.661	-25.72728	-2.17046E-007	0.002337	7
	28	10	1577.524	3107.969	-1667.6	1	3527.089	-28.21607	-4.938759E-007	0.0025507	7
	29	10	1265.625	3220.575	-1939.971	1	3759.733	-31.06341	-6.253141E-007	0.0011372	7
	30	10	998.264	3356.476	-2291.95	1	4064.353	-34.32699	-8.882573E-007	0.0017107	7
	31	10	796.875	3488.109	-2702.578	1	4412.577	-37.76843	9.098216E-007	0.0002679	7
	32	11	627.7902	3644.201	-3236.878	1	4874.175	-41.61235	5.377339E-007	0.0013481	7
	33	11	505.5147	3802.16	-3840.786	1	5404.449	-45.28956	7.130581E-008	0.0001331	7
	34	11	397.9953	4008.43	-4654.351	1	6142.515	-49.26424	3.123146E-009	0.0012638	7
	35	12	315.5048	4243.03	-5639.326	1	7057.287	-53.04219	3.440429E-009	0.0012644	7
	36	12	252.4038	4519.03	-6802.564	1	8166.793	-56.40341	-5.78864E-011	0.0012607	7
	37	12	198.6229	4885.861	-8339.047	1	9664.95	-59.6339	3.216579E-009	0.001259	7
	38	13	158.3615	5326.384	-10118.76	1	11435.02	-62.23826	2.63956E-010	0.0012025	6
	39	13	125.558	5893.351	-12347.59	1	13681.91	-64.48544	7.60185E-012	0.0012034	6
	40	13	100.4464	6589.39	-14930.73	1	16320.13	-66.18665	1.120138E-009	0.0012001	6
	41	14	79.00281	7529.112	-18305.96	1	19793.83	-67.64298	1.345045E-010	0.0011902	6
	42	14	63.3446	8658.57	-21951.36	1	23597.31	-68.47356	4.285957E-010	0.0011903	6
	43	14	49.86702	10237.24	-26883.7	1	28766.9	-69.15331	1.079122E-009	0.0011926	6
	44	15	39.72458	12080.54	-32565.7	1	34734.2	-69.64722	4.539817E-011	0.0011973	6
	45	15	31.6723	14494.58	-39212.62	1	41805.78	-69.71363	1.184157E-009	0.0011899	6
	46	15	24.93351	17616.46	-47572.77	1	50729.76	-69.68014	1.154912E-009	0.0011921	6
	47	16	19.86229	21339.72	-57009.73	1	60872.76	-69.47826	1.091621E-009	0.0011836	6
	48	16	15.83615	25497.59	-68176.6	1	72788.57	-69.49454	-2.824034E-010	0.0011958	6
	49	16	12.40079	32402.91	-81780.77	1	87966.14	-68.3857	1.876651E-009	0.001196	6
	50	16	9.93114	39401.61	-96892.2	1	104597.2	-67.87067	1.034144E-009	0.0012044	5
	51	17	7.944915	47833	-114267.4	1	123875.1	-67.28553	9.646806E-010	0.001189	5
	52	17	6.317385	58186.56	-135129.4	1	147124.6	-66.70335	9.492706E-010	0.0011916	5
	53	18	5.008013	71024.11	-159814.3	1	174885.8	-66.03885	3.956466E-010	0.0011919	5
	54	19	3.945707	86823.63	-189107.3	1	208086.4	-65.33903	6.020847E-010	0.0012082	5
	55	20	3.158693	104674.4	-221148.6	1	244670.1	-64.67081	2.421289E-010	0.0012012	5
	56	22	2.504006	126353.9	-259830.9	1	288924.6	-64.06667	1.51241E-010	0.0011894	5
	57	23	1.998082	151636.7	-302941.1	1	338772.8	-63.40982	4.390761E-010	0.0012321	5
	58	25	1.584686	181327.4	-354959.1	1	398592	-62.94022	3.628017E-010	0.0012251	5
	59	27	1.266892	215884.5	-412232.9	1	465340.8	-62.35916	2.974953E-010	0.0011917	5
	60	29	0.999041	260193.6	-483022.7	1	548645.3	-61.68964	2.846737E-010	0.0011705	5
