EXPLAIN
TAG	EISPOT
TITLE	LABEL	Potentiostatic EIS	Test &Identifier
DATE	LABEL	10/6/2019	Date
TIME	LABEL	10:34:24	Time
NOTES	NOTES	2	&Notes...
	
	
PSTAT	PSTAT	REF600-11020	Potentiostat
VDC	POTEN	0.00000E+000	T	DC &Voltage (V)
FREQINIT	QUANT	1.00000E+006	Initial Fre&q. (Hz)
FREQFINAL	QUANT	1.00000E+000	Final Fre&q. (Hz)
PTSPERDEC	QUANT	1.00000E+001	Points/&decade
VAC	QUANT	2.50000E+001	AC &Voltage (mV rms)
AREA	QUANT	1.00000E-002	&Area (cm^2)
CONDIT	TWOPARAM	T	5.00000E+000	0.00000E+000	Conditionin&g	Time(s)	E(V)
DELAY	TWOPARAM	T	5.00000E+000	0.00000E+000	Init. De&lay	Time(s)	Stab.(mV/s)
SPEED	SELECTOR	1	&Optimize for:
ZGUESS	QUANT	1.00000E+004	E&stimated Z (ohms)
OCVCURVE	TABLE	19
	Pt	T	Vf	Vm	Ach	Over
	#	s	V vs. Ref.	V	V	bits
	0	0.258333	2.64918E-003	2.64918E-003	5.50199E-004	...........
	1	0.516667	2.64418E-003	2.38730E-003	5.53099E-004	...........
	2	0.775	2.61404E-003	2.16933E-003	5.47833E-004	...........
	3	1.03333	2.53077E-003	1.96421E-003	5.42633E-004	...........
	4	1.29167	2.38674E-003	1.81432E-003	5.52666E-004	...........
	5	1.55	2.20437E-003	1.64838E-003	5.50999E-004	...........
	6	1.80833	2.01476E-003	1.51953E-003	5.55599E-004	...........
	7	2.06667	1.83704E-003	1.37135E-003	5.49633E-004	...........
	8	2.325	1.67588E-003	1.24992E-003	5.48066E-004	...........
	9	2.58333	1.52868E-003	1.13119E-003	5.46199E-004	...........
	10	2.84167	1.39220E-003	1.01941E-003	5.50299E-004	...........
	11	3.1	1.26537E-003	9.48887E-004	5.55499E-004	...........
	12	3.35833	1.14910E-003	8.40828E-004	5.59032E-004	...........
	13	3.61667	1.04365E-003	7.58638E-004	5.52499E-004	...........
	14	3.875	9.46634E-004	6.76906E-004	5.50666E-004	...........
	15	4.13333	8.55263E-004	5.98432E-004	5.55766E-004	...........
	16	4.39167	7.68931E-004	5.50446E-004	5.52899E-004	...........
	17	4.65	6.88527E-004	4.55977E-004	5.51599E-004	...........
	18	4.90833	6.13343E-004	3.84089E-004	5.50366E-004	...........
EOC	QUANT	0.0006133	Open Circuit (V)
PSTATMODEL	IQUANT	4	Pstat Model
PSTATSECTION	LABEL	REF600-11020	Pstat Section
PSTATSERIALNO	LABEL	11020	Pstat Serial Number
CTRLMODE	IQUANT	1	Control Mode
IESTAB	IQUANT	0	I/E Stability
CASPEED	IQUANT	1	Control Amp Speed
CONVENTION	IQUANT	1	Current Convention
ICHRANGE	IQUANT	2	Ich Range
ICHRANGEMODE	TOGGLE	F	Ich Auto Range
ICHOFFSETENABLE	TOGGLE	T	Ich Offset Enable
ICHOFFSET	QUANT	0	Ich Offset (V)
ICHFILTER	IQUANT	3	Ich Filter
VCHRANGE	IQUANT	2	Vch Range
VCHRANGEMODE	TOGGLE	F	Vch Auto Range
VCHOFFSETENABLE	TOGGLE	T	Vch Offset Enable
VCHOFFSET	QUANT	0	Vch Offset (V)
VCHFILTER	IQUANT	3	Vch Filter
ACHRANGE	IQUANT	2	Ach Range
ACHOFFSETENABLE	TOGGLE	F	Ach Offset Enable
ACHOFFSET	QUANT	0	Ach Offset (V)
ACHFILTER	IQUANT	3	Ach Filter
IERANGELOWERLIMIT	IQUANT	1	I/E Range Lower Limit
IERANGEMODE	TOGGLE	F	I/E AutoRange
IERANGE	IQUANT	5	I/E Range
POSFEEDENABLE	TOGGLE	F	Positive Feedback IR Comp
POSFEEDRESISTANCE	QUANT	0	Positive Feedback Resistance (ohm)
ACHSELECT	IQUANT	0	Ach Select
CABLEID	IQUANT	14	Cable ID
DCCALDATE	LABEL	8/19/2019	DC Calibration Date
ACCALDATE	LABEL	8/19/2019	AC Calibration Date
THERMOSELECT	IQUANT	1	Thermo Select
FRAMEWORKVERSION	QUANT	6.33	Framework Version
INSTRUMENTVERSION	LABEL	3.50	Instrument Version
ZCURVE	TABLE
	Pt	Time	Freq	Zreal	Zimag	Zsig	Zmod	Zphz	Idc	Vdc	IERange
	#	s	Hz	ohm	ohm	V	ohm	°	A	V	#
	0	1	1000078	2411.157	-1705.586	1	2953.422	-35.27453	1.062826E-006	0.0025506	8
	1	2	794390.6	2728.823	-1634.136	1	3180.703	-30.91499	-4.428694E-006	0.0031368	8
	2	4	630984.4	3037.924	-1537.275	1	3404.731	-26.84069	-1.726838E-006	0.002945	8
	3	5	501234.4	3290.366	-1418.811	1	3583.23	-23.32579	2.946118E-006	0.0015982	8
	4	7	398109.4	3517.547	-1272.304	1	3740.574	-19.88517	2.296432E-006	0.0015881	8
	5	8	316265.6	3700.345	-1136.67	1	3870.991	-17.07589	2.118484E-006	0.0015652	8
	6	9	251203.1	3837.972	-991.944	1	3964.087	-14.49128	5.920026E-007	0.0018353	8
	7	11	199546.9	3962.868	-855.9163	1	4054.247	-12.18776	4.096237E-007	0.0021072	8
	8	12	158578.1	4048.993	-753.4426	1	4118.497	-10.54112	-3.51032E-007	0.0020448	8
	9	13	125953.1	4147.399	-603.3932	1	4191.063	-8.27772	-6.341597E-007	0.0038336	7
	10	15	100078.1	4185.283	-530.8888	1	4218.819	-7.229166	1.427302E-008	0.0019667	7
	11	16	79453.13	4227.658	-478.2086	1	4254.618	-6.453542	-8.678919E-008	0.0021616	7
	12	17	63140.62	4264.806	-439.7565	1	4287.418	-5.887128	-6.024181E-008	0.0021182	7
	13	19	50203.12	4298.051	-413.0173	1	4317.85	-5.488932	-7.11808E-008	0.0021693	7
	14	20	39890.62	4331.161	-399.368	1	4349.535	-5.268236	-7.085887E-008	0.0021675	7
	15	22	31640.63	4358.948	-396.2071	1	4376.917	-5.193635	-5.05858E-008	0.002152	7
	16	23	25171.88	4387.588	-404.7689	1	4406.219	-5.270798	4.402707E-008	0.0019884	7
	17	24	20015.62	4417.894	-428.2078	1	4438.597	-5.536145	-8.262451E-008	0.0022814	7
	18	26	15890.62	4451.315	-457.7451	1	4474.789	-5.871299	1.459964E-008	0.0021304	7
	19	27	12609.37	4484.132	-504.3212	1	4512.403	-6.416975	1.104705E-007	0.0019318	7
	20	28	10078.13	4516.83	-560.8036	1	4551.511	-7.077548	-4.859179E-008	0.0021408	7
	21	30	8015.625	4553.872	-628.1152	1	4596.985	-7.853251	6.021053E-008	0.0019368	7
	22	31	6328.125	4599.757	-739.826	1	4658.875	-9.137211	-1.133671E-008	0.0020599	7
	23	33	5015.625	4646.758	-863.3307	1	4726.278	-10.52509	1.578574E-008	0.0021283	7
	24	34	3984.375	4698.618	-1015.223	1	4807.045	-12.19238	-5.045766E-008	0.0021385	7
	25	35	3170.956	4755.152	-1203.149	1	4905.001	-14.19898	-1.076632E-008	0.0020178	7
	26	37	2527.573	4820.95	-1434.733	1	5029.912	-16.57321	-1.249937E-008	0.0020591	7
	27	38	1976.103	4901.041	-1738.541	1	5200.262	-19.53107	6.204673E-008	0.0019366	7
	28	39	1577.524	4991.979	-2084.373	1	5409.665	-22.6627	6.209428E-009	0.0020067	7
	29	41	1265.625	5091.089	-2496.701	1	5670.335	-26.12361	-8.673861E-009	0.0020113	7
	30	42	998.264	5217.488	-3040.652	1	6038.853	-30.23281	8.8546E-008	0.0018534	7
	31	43	796.875	5361.625	-3673.855	1	6499.556	-34.41945	-5.838175E-008	0.0021017	7
	32	45	627.7902	5544.083	-4493.543	1	7136.441	-39.02517	-3.159538E-008	0.0020167	7
	33	46	505.5147	5745.405	-5402.358	1	7886.39	-43.23741	-9.665729E-009	0.0020528	7
	34	48	397.9953	6009.92	-6635.685	1	8952.734	-47.83295	5.523364E-009	0.0020508	7
	35	49	315.5048	6325.991	-8104.099	1	10280.79	-52.0247	4.670034E-010	0.0019901	6
	36	50	252.4038	6693.008	-9832.05	1	11893.93	-55.75556	1.508873E-009	0.0019908	6
	37	52	198.6229	7178.703	-12110.62	1	14078.39	-59.3422	8.932077E-010	0.0019917	6
	38	53	158.3615	7749.766	-14762.09	1	16672.68	-62.30154	1.086872E-009	0.0019909	6
	39	54	125.558	8494.141	-18086.83	1	19982.09	-64.84379	1.115706E-009	0.0019881	6
	40	56	100.4464	9399.789	-21984.36	1	23909.58	-66.85004	5.414673E-010	0.0019913	6
	41	57	79.00281	10704.99	-27202.3	1	29232.89	-68.51875	9.595776E-010	0.0019821	6
	42	59	63.3446	12244.21	-32731.25	1	34946.46	-69.49001	4.120028E-010	0.0019843	6
	43	60	49.86702	14481.54	-40731.27	1	43229.06	-70.42774	9.220694E-010	0.001988	6
	44	61	39.72458	17268.72	-49352.43	1	52286.43	-70.71474	9.501986E-010	0.0019919	6
	45	63	31.6723	21024.11	-59645.31	1	63242.2	-70.58318	4.101736E-010	0.0019914	6
	46	64	24.93351	26313.32	-72811.21	1	77420.05	-70.13059	3.513842E-010	0.0019914	6
	47	66	19.86229	32992.87	-87437.18	1	93454.75	-69.32689	1.373982E-009	0.0019969	6
	48	67	15.83615	41168.35	-103647.3	1	111524	-68.3372	-2.63462E-011	0.0019936	5
	49	68	12.40079	53372.7	-125008.5	1	135925.6	-66.87981	7.058508E-010	0.0019953	5
	50	70	9.93114	67811.35	-146065	1	161038.4	-65.0967	-4.096213E-010	0.0019993	5
	51	71	7.944915	84958.86	-169985.3	1	190034.3	-63.44407	8.410952E-010	0.0019937	5
	52	73	6.317385	105860.2	-196053.8	1	222808.1	-61.63297	-3.33467E-010	0.0019968	5
	53	75	5.008013	131050.5	-224868.1	1	260268.8	-59.76686	-1.459559E-010	0.001986	5
	54	78	3.945707	160657.6	-256474	1	302638	-57.9366	4.427545E-010	0.0019943	5
	55	80	3.158693	191482.5	-288561.8	1	346314.1	-56.43273	-1.05491E-010	0.0019795	5
	56	84	2.504006	226549.4	-324834.9	1	396033.3	-55.10695	4.366804E-010	0.0020016	5
	57	86	1.998082	262962.1	-363648.5	1	448764.2	-54.12849	4.644117E-010	0.0019936	5
	58	90	1.584686	303995.1	-408253.2	1	509002.6	-53.32775	4.257383E-011	0.0019434	5
	59	93	1.266892	343445.3	-458181.1	1	572612.1	-53.14535	3.05068E-010	0.0019653	5
	60	97	0.999041	388611.5	-522249.5	1	650971.1	-53.34666	-9.157494E-011	0.0019928	5
