EXPLAIN
TAG	EISPOT
TITLE	LABEL	Potentiostatic EIS	Test &Identifier
DATE	LABEL	10/2/2019	Date
TIME	LABEL	10:53:31	Time
NOTES	NOTES	2	&Notes...
	
	
PSTAT	PSTAT	REF600-11020	Potentiostat
VDC	POTEN	0.00000E+000	T	DC &Voltage (V)
FREQINIT	QUANT	1.00000E+006	Initial Fre&q. (Hz)
FREQFINAL	QUANT	1.00000E+000	Final Fre&q. (Hz)
PTSPERDEC	QUANT	1.00000E+001	Points/&decade
VAC	QUANT	2.50000E+001	AC &Voltage (mV rms)
AREA	QUANT	1.00000E-002	&Area (cm^2)
CONDIT	TWOPARAM	T	5.00000E+000	0.00000E+000	Conditionin&g	Time(s)	E(V)
DELAY	TWOPARAM	T	5.00000E+000	0.00000E+000	Init. De&lay	Time(s)	Stab.(mV/s)
SPEED	SELECTOR	1	&Optimize for:
ZGUESS	QUANT	1.00000E+004	E&stimated Z (ohms)
OCVCURVE	TABLE	19
	Pt	T	Vf	Vm	Ach	Over
	#	s	V vs. Ref.	V	V	bits
	0	0.258333	4.57644E-003	4.57644E-003	5.54666E-004	...........
	1	0.516667	4.57542E-003	4.52335E-003	5.52966E-004	...........
	2	0.775	4.56904E-003	4.46490E-003	5.53499E-004	...........
	3	1.03333	4.55076E-003	4.42418E-003	5.62966E-004	...........
	4	1.29167	4.51841E-003	4.38898E-003	5.59966E-004	...........
	5	1.55	4.47726E-003	4.35882E-003	5.61466E-004	...........
	6	1.80833	4.43563E-003	4.35763E-003	5.59432E-004	...........
	7	2.06667	4.40002E-003	4.33039E-003	5.57966E-004	...........
	8	2.325	4.37236E-003	4.29896E-003	5.50199E-004	...........
	9	2.58333	4.34978E-003	4.28804E-003	5.58432E-004	...........
	10	2.84167	4.32869E-003	4.27260E-003	5.58799E-004	...........
	11	3.1	4.30859E-003	4.26015E-003	5.53433E-004	...........
	12	3.35833	4.28976E-003	4.20373E-003	5.54866E-004	...........
	13	3.61667	4.27019E-003	4.20887E-003	5.57599E-004	...........
	14	3.875	4.24833E-003	4.18873E-003	5.55933E-004	...........
	15	4.13333	4.22627E-003	4.16748E-003	5.54233E-004	...........
	16	4.39167	4.20661E-003	4.17034E-003	5.57266E-004	...........
	17	4.65	4.19028E-003	4.15937E-003	5.61099E-004	...........
	18	4.90833	4.17763E-003	4.15528E-003	5.55166E-004	...........
EOC	QUANT	0.0041776	Open Circuit (V)
PSTATMODEL	IQUANT	4	Pstat Model
PSTATSECTION	LABEL	REF600-11020	Pstat Section
PSTATSERIALNO	LABEL	11020	Pstat Serial Number
CTRLMODE	IQUANT	1	Control Mode
IESTAB	IQUANT	0	I/E Stability
CASPEED	IQUANT	1	Control Amp Speed
CONVENTION	IQUANT	1	Current Convention
ICHRANGE	IQUANT	2	Ich Range
ICHRANGEMODE	TOGGLE	F	Ich Auto Range
ICHOFFSETENABLE	TOGGLE	T	Ich Offset Enable
ICHOFFSET	QUANT	0	Ich Offset (V)
ICHFILTER	IQUANT	3	Ich Filter
VCHRANGE	IQUANT	2	Vch Range
VCHRANGEMODE	TOGGLE	F	Vch Auto Range
VCHOFFSETENABLE	TOGGLE	T	Vch Offset Enable
VCHOFFSET	QUANT	0	Vch Offset (V)
VCHFILTER	IQUANT	3	Vch Filter
ACHRANGE	IQUANT	2	Ach Range
ACHOFFSETENABLE	TOGGLE	F	Ach Offset Enable
ACHOFFSET	QUANT	0	Ach Offset (V)
ACHFILTER	IQUANT	3	Ach Filter
IERANGELOWERLIMIT	IQUANT	1	I/E Range Lower Limit
IERANGEMODE	TOGGLE	F	I/E AutoRange
IERANGE	IQUANT	5	I/E Range
POSFEEDENABLE	TOGGLE	F	Positive Feedback IR Comp
POSFEEDRESISTANCE	QUANT	0	Positive Feedback Resistance (ohm)
ACHSELECT	IQUANT	0	Ach Select
CABLEID	IQUANT	14	Cable ID
DCCALDATE	LABEL	8/19/2019	DC Calibration Date
ACCALDATE	LABEL	8/19/2019	AC Calibration Date
THERMOSELECT	IQUANT	1	Thermo Select
FRAMEWORKVERSION	QUANT	6.33	Framework Version
INSTRUMENTVERSION	LABEL	3.50	Instrument Version
ZCURVE	TABLE
	Pt	Time	Freq	Zreal	Zimag	Zsig	Zmod	Zphz	Idc	Vdc	IERange
	#	s	Hz	ohm	ohm	V	ohm	°	A	V	#
	0	1	1000078	2354.736	-1707.42	1	2908.619	-35.94587	-5.26832E-006	0.0075975	8
	1	3	794390.6	2725.431	-1607.344	1	3164.1	-30.53031	-3.365564E-006	0.0072145	8
	2	4	630984.4	3003.487	-1494.814	1	3354.907	-26.4592	5.624666E-006	0.0050113	8
	3	5	501234.4	3264.296	-1366.164	1	3538.649	-22.71014	-1.029583E-006	0.0061022	8
	4	7	398109.4	3467.664	-1189.843	1	3666.117	-18.93838	-9.723449E-007	0.006299	8
	5	8	316265.6	3626.335	-1035.711	1	3771.34	-15.93977	2.175998E-006	0.005435	8
	6	9	251203.1	3752.499	-892.4329	1	3857.16	-13.37777	-2.177265E-006	0.0062325	8
	7	11	199546.9	3832.635	-776.0629	1	3910.418	-11.44694	4.086045E-006	0.0049454	8
	8	12	158578.1	3899.833	-666.7713	1	3956.423	-9.70229	-5.726963E-007	0.0058511	8
	9	13	125953.1	3983.295	-531.0042	1	4018.532	-7.593204	-8.012935E-007	0.0076167	7
	10	15	100078.1	4012.483	-466.9159	1	4039.558	-6.63742	-7.43156E-008	0.0060311	7
	11	16	79453.13	4048.257	-424.2997	1	4070.432	-5.983351	-8.195669E-009	0.0057475	7
	12	17	63140.62	4080.516	-393.7564	1	4099.47	-5.511789	-4.456778E-008	0.0058055	7
	13	19	50203.12	4111.143	-372.1028	1	4127.948	-5.171795	-3.476262E-009	0.0057672	7
	14	20	39890.62	4139.543	-360.8598	1	4155.242	-4.982098	-1.09101E-008	0.0058425	7
	15	21	31640.63	4169.14	-360.1932	1	4184.671	-4.937812	7.414941E-010	0.005778	7
	16	23	25171.88	4198.81	-367.0201	1	4214.82	-4.995555	5.124838E-008	0.0057098	7
	17	24	20015.62	4229.421	-384.3837	1	4246.853	-5.192962	-4.447248E-008	0.0058069	7
	18	26	15890.62	4262.198	-409.1331	1	4281.79	-5.483085	-7.856153E-008	0.0059	7
	19	27	12609.37	4295.127	-447.142	1	4318.339	-5.943338	-7.785515E-008	0.0059002	7
	20	28	10078.13	4330.153	-492.1022	1	4358.026	-6.483589	4.523662E-008	0.0056479	7
	21	30	8015.625	4366.768	-551.5579	1	4401.463	-7.198797	-6.631378E-009	0.0058102	7
	22	31	6328.125	4405.465	-629.7347	1	4450.246	-8.134978	-7.231378E-008	0.0060137	7
	23	32	5015.625	4446.188	-726.5046	1	4505.153	-9.280087	-5.603653E-008	0.0058602	7
	24	34	3984.375	4489.461	-845.4597	1	4568.377	-10.66509	1.795793E-008	0.0056965	7
	25	35	3170.956	4535.865	-995.079	1	4643.732	-12.37354	1.733126E-008	0.0056976	7
	26	36	2527.573	4584.981	-1180.412	1	4734.493	-14.43738	-7.194967E-008	0.0060124	7
	27	38	1976.103	4642.798	-1428.813	1	4857.683	-17.10565	5.297359E-008	0.0057009	7
	28	39	1577.524	4706.343	-1714.669	1	5008.968	-20.01828	-3.133475E-008	0.0057808	7
	29	40	1265.625	4771.233	-2058.79	1	5196.468	-23.34022	-7.223659E-009	0.005727	7
	30	42	998.264	4865.054	-2518.058	1	5478.081	-27.36521	-5.685762E-010	0.0057611	7
	31	43	796.875	4964.039	-3056.925	1	5829.792	-31.62535	4.706499E-008	0.0057338	7
	32	44	627.7902	5095.771	-3764.172	1	6335.288	-36.45275	1.045516E-007	0.0056878	7
	33	46	505.5147	5240.807	-4549.141	1	6939.794	-40.95873	5.136463E-008	0.0057028	7
	34	47	397.9953	5438.461	-5621.643	1	7821.747	-45.94887	4.877265E-009	0.0058062	7
	35	48	315.5048	5679.828	-6906.189	1	8941.806	-50.56524	5.341918E-009	0.0058037	7
	36	50	252.4038	5975.057	-8419.924	1	10324.55	-54.63923	1.41333E-009	0.0057454	6
	37	51	198.6229	6375.445	-10417.76	1	12213.76	-58.53426	8.085856E-010	0.0057444	6
	38	53	158.3615	6863.662	-12740.36	1	14471.58	-61.68716	1.431782E-009	0.0057449	6
	39	54	125.558	7506.043	-15647.39	1	17354.58	-64.373	1.686786E-009	0.0057467	6
	40	55	100.4464	8313.231	-19040.41	1	20776.11	-66.41344	6.062134E-010	0.0057469	6
	41	57	79.00281	9421.766	-23536.54	1	25352.29	-68.18359	-3.020338E-009	0.0057472	6
	42	58	63.3446	10886.7	-28596.66	1	30598.84	-69.15825	-3.977844E-010	0.0057407	6
	43	59	49.86702	12625.78	-35042.75	1	37247.89	-70.18608	1.954233E-009	0.0057457	6
	44	61	39.72458	15107.69	-42481.39	1	45087.81	-70.42305	1.387168E-009	0.0057457	6
	45	62	31.6723	18263.51	-51371.68	1	54521.61	-70.42883	1.311852E-009	0.0057443	6
	46	64	24.93351	22470.63	-62558.31	1	66471.58	-70.24197	1.025522E-009	0.0057407	6
	47	65	19.86229	27712.88	-75093.35	1	80043.83	-69.74364	5.693893E-010	0.0057425	6
	48	66	15.83615	33890	-89538.41	1	95737.4	-69.26851	-4.796523E-010	0.0057455	6
	49	68	12.40079	43676.5	-107871.1	1	116377.9	-67.95721	1.674251E-009	0.0057493	5
	50	69	9.93114	53860.59	-127828.7	1	138712.5	-67.15189	9.871495E-010	0.0057438	5
	51	71	7.944915	66970.13	-150159.4	1	164416.7	-65.96344	1.00817E-010	0.0057521	5
	52	72	6.317385	83126.28	-176301.7	1	194916.1	-64.75612	-2.07977E-010	0.0057673	5
	53	74	5.008013	103876.9	-206185.2	1	230873.9	-63.26086	1.230674E-010	0.0057532	5
	54	77	3.945707	129211.3	-240336.2	1	272868.2	-61.73631	4.488916E-010	0.0057543	5
	55	80	3.158693	157724.5	-275085.4	1	317094.7	-60.17152	2.842776E-010	0.0057681	5
	56	83	2.504006	191947.6	-314914.2	1	368801.9	-58.63671	9.238456E-011	0.0057447	5
	57	86	1.998082	229184.8	-357787.3	1	424896.9	-57.35793	9.221846E-010	0.0057522	5
	58	89	1.584686	273865.3	-405459.3	1	489284.6	-55.96316	-6.698865E-010	0.0057987	5
	59	92	1.266892	313486.2	-450989.9	1	549240.8	-55.19657	-6.829365E-010	0.0057417	5
	60	97	0.999041	369402.7	-511755.2	1	631151.1	-54.17694	7.320154E-010	0.005779	5
