EXPLAIN
TAG	EISPOT
TITLE	LABEL	Potentiostatic EIS	Test &Identifier
DATE	LABEL	11/3/2019	Date
TIME	LABEL	11:12:22	Time
NOTES	NOTES	1	&Notes...
	
PSTAT	PSTAT	REF600-11020	Potentiostat
VDC	POTEN	0.00000E+000	T	DC &Voltage (V)
FREQINIT	QUANT	1.00000E+006	Initial Fre&q. (Hz)
FREQFINAL	QUANT	1.00000E+000	Final Fre&q. (Hz)
PTSPERDEC	QUANT	1.00000E+001	Points/&decade
VAC	QUANT	2.50000E+001	AC &Voltage (mV rms)
AREA	QUANT	1.00000E-002	&Area (cm^2)
CONDIT	TWOPARAM	T	5.00000E+000	0.00000E+000	Conditionin&g	Time(s)	E(V)
DELAY	TWOPARAM	T	5.00000E+000	0.00000E+000	Init. De&lay	Time(s)	Stab.(mV/s)
SPEED	SELECTOR	1	&Optimize for:
ZGUESS	QUANT	1.00000E+005	E&stimated Z (ohms)
OCVCURVE	TABLE	19
	Pt	T	Vf	Vm	Ach	Over
	#	s	V vs. Ref.	V	V	bits
	0	0.258333	6.52645E-003	6.52645E-003	5.76032E-004	...........
	1	0.516667	6.52590E-003	6.49746E-003	5.79699E-004	...........
	2	0.775	6.52107E-003	6.39526E-003	5.75332E-004	...........
	3	1.03333	6.50627E-003	6.48591E-003	5.79632E-004	...........
	4	1.29167	6.48543E-003	6.52497E-003	5.73799E-004	...........
	5	1.55	6.47348E-003	6.47667E-003	5.76532E-004	...........
	6	1.80833	6.45345E-003	5.29039E-003	5.74899E-004	...........
	7	2.06667	6.32601E-003	4.42660E-003	5.81132E-004	...........
	8	2.325	5.98311E-003	4.56146E-003	5.79365E-004	...........
	9	2.58333	5.48308E-003	5.04200E-003	5.76299E-004	...........
	10	2.84167	5.05414E-003	5.14137E-003	5.79199E-004	...........
	11	3.1	4.86813E-003	5.15325E-003	5.76199E-004	...........
	12	3.35833	4.89387E-003	4.98617E-003	5.76599E-004	...........
	13	3.61667	4.98305E-003	4.81097E-003	5.78132E-004	...........
	14	3.875	5.01780E-003	4.73241E-003	5.74865E-004	...........
	15	4.13333	4.96936E-003	4.64628E-003	5.74632E-004	...........
	16	4.39167	4.86998E-003	4.54105E-003	5.81599E-004	...........
	17	4.65	4.75874E-003	4.47138E-003	5.76699E-004	...........
	18	4.90833	4.65328E-003	4.31851E-003	5.79232E-004	...........
EOC	QUANT	0.0046533	Open Circuit (V)
PSTATMODEL	IQUANT	4	Pstat Model
PSTATSECTION	LABEL	REF600-11020	Pstat Section
PSTATSERIALNO	LABEL	11020	Pstat Serial Number
CTRLMODE	IQUANT	1	Control Mode
IESTAB	IQUANT	0	I/E Stability
CASPEED	IQUANT	1	Control Amp Speed
CONVENTION	IQUANT	1	Current Convention
ICHRANGE	IQUANT	2	Ich Range
ICHRANGEMODE	TOGGLE	F	Ich Auto Range
ICHOFFSETENABLE	TOGGLE	T	Ich Offset Enable
ICHOFFSET	QUANT	0	Ich Offset (V)
ICHFILTER	IQUANT	3	Ich Filter
VCHRANGE	IQUANT	2	Vch Range
VCHRANGEMODE	TOGGLE	F	Vch Auto Range
VCHOFFSETENABLE	TOGGLE	T	Vch Offset Enable
VCHOFFSET	QUANT	0	Vch Offset (V)
VCHFILTER	IQUANT	3	Vch Filter
ACHRANGE	IQUANT	2	Ach Range
ACHOFFSETENABLE	TOGGLE	F	Ach Offset Enable
ACHOFFSET	QUANT	0	Ach Offset (V)
ACHFILTER	IQUANT	3	Ach Filter
IERANGELOWERLIMIT	IQUANT	1	I/E Range Lower Limit
IERANGEMODE	TOGGLE	F	I/E AutoRange
IERANGE	IQUANT	4	I/E Range
POSFEEDENABLE	TOGGLE	F	Positive Feedback IR Comp
POSFEEDRESISTANCE	QUANT	0	Positive Feedback Resistance (ohm)
ACHSELECT	IQUANT	0	Ach Select
CABLEID	IQUANT	14	Cable ID
DCCALDATE	LABEL	8/19/2019	DC Calibration Date
ACCALDATE	LABEL	8/19/2019	AC Calibration Date
THERMOSELECT	IQUANT	1	Thermo Select
FRAMEWORKVERSION	QUANT	6.33	Framework Version
INSTRUMENTVERSION	LABEL	3.50	Instrument Version
ZCURVE	TABLE
	Pt	Time	Freq	Zreal	Zimag	Zsig	Zmod	Zphz	Idc	Vdc	IERange
	#	s	Hz	ohm	ohm	V	ohm	°	A	V	#
	0	1	1000078	2025.443	-1717.459	1	2655.576	-40.29602	1.542985E-005	0.0057862	8
	1	3	794390.6	2373.48	-1715.236	1	2928.386	-35.8544	-9.194596E-006	0.0073501	8
	2	4	630984.4	2719.78	-1667.548	1	3190.285	-31.51325	-3.307814E-006	0.0068897	8
	3	5	501234.4	3038.585	-1570.175	1	3420.3	-27.32745	-1.704149E-006	0.0065307	8
	4	7	398109.4	3320.561	-1445.365	1	3621.492	-23.52241	-1.501831E-006	0.0061043	8
	5	8	316265.6	3536.189	-1288.455	1	3763.609	-20.01985	-3.169464E-007	0.0067813	8
	6	9	251203.1	3713.426	-1125.108	1	3880.129	-16.85596	-4.055538E-007	0.0067677	8
	7	11	199546.9	3860.194	-991.867	1	3985.586	-14.41027	-6.078069E-006	0.0071967	8
	8	12	158578.1	3977.505	-847.9185	1	4066.88	-12.03409	6.942167E-006	0.0055509	8
	9	13	125953.1	4074.565	-685.2037	1	4131.777	-9.54589	-2.95395E-006	0.0086454	7
	10	15	100078.1	4134.785	-608.6636	1	4179.344	-8.374119	-1.082589E-006	0.0067994	7
	11	16	79453.13	4191.852	-545.1796	1	4227.156	-7.410123	8.566206E-007	0.0060459	7
	12	18	63140.62	4230.683	-499.3802	1	4260.054	-6.731915	3.967846E-007	0.0068219	7
	13	19	50203.12	4274.407	-463.7329	1	4299.489	-6.191835	1.14311E-006	0.0050833	7
	14	20	39890.62	4308.902	-445.281	1	4331.848	-5.899991	1.05091E-006	0.0055232	7
	15	22	31640.63	4329.164	-434.6077	1	4350.925	-5.732755	-1.083683E-006	0.0067784	7
	16	23	25171.88	4371.576	-440.4374	1	4393.707	-5.753151	1.132654E-006	0.0047317	7
	17	24	20015.62	4400.641	-457.6854	1	4424.377	-5.937658	8.138335E-007	0.0044062	7
	18	26	15890.62	4432.427	-490.3454	1	4459.467	-6.312781	1.023106E-006	0.0044953	7
	19	27	12609.37	4467.372	-540.7473	1	4499.98	-6.901717	1.146109E-006	0.0050738	7
	20	28	10078.13	4497.087	-608.4407	1	4538.061	-7.705137	1.023948E-006	0.0044967	7
	21	30	8015.625	4531.264	-690.723	1	4583.606	-8.667159	1.133265E-006	0.0047292	7
	22	31	6328.125	4556.711	-802.607	1	4626.856	-9.98946	-9.328842E-007	0.007993	7
	23	33	5015.625	4611.202	-949.0098	1	4707.845	-11.6294	8.603914E-007	0.0060399	7
	24	34	3984.375	4650.183	-1124.707	1	4784.263	-13.59661	6.817881E-008	0.0072575	7
	25	35	3170.956	4705.288	-1344.383	1	4893.578	-15.94557	-3.11337E-007	0.0053617	7
	26	37	2527.573	4772.746	-1615.762	1	5038.828	-18.70298	1.280026E-007	0.004824	7
	27	38	1976.103	4857.623	-1977.05	1	5244.543	-22.1463	1.264461E-007	0.004822	7
	28	39	1577.524	4946.391	-2381.106	1	5489.668	-25.70535	-1.082086E-006	0.0067728	7
	29	41	1265.625	5055.5	-2867.729	1	5812.224	-29.56405	3.983848E-007	0.0068089	7
	30	42	998.264	5191.992	-3503.924	1	6263.726	-34.01427	6.644924E-008	0.0072489	7
	31	43	796.875	5340.432	-4241.155	1	6819.649	-38.45518	-2.997753E-007	0.0076504	7
	32	45	627.7902	5530.201	-5200.301	1	7591.196	-43.23905	-6.444358E-007	0.0078984	7
	33	46	505.5147	5723.884	-6296.85	1	8509.592	-47.72893	8.103873E-007	0.0044011	7
	34	48	397.9953	5991.382	-7742.565	1	9789.99	-52.26644	2.026866E-009	0.0062703	7
	35	49	315.5048	6304.097	-9501.79	1	11402.88	-56.43716	1.609346E-009	0.0062118	6
	36	50	252.4038	6669.011	-11587.14	1	13369.27	-60.07729	1.496018E-009	0.0062018	6
	37	52	198.6229	7163.194	-14356.26	1	16044.12	-63.48266	9.652812E-010	0.0062031	6
	38	53	158.3615	7758.689	-17594.6	1	19229.33	-66.20396	7.220868E-010	0.0062091	6
	39	55	125.558	8549.618	-21670.37	1	23295.94	-68.46926	1.089481E-009	0.0062119	6
	40	56	100.4464	9547.33	-26522.92	1	28188.95	-70.20288	9.928366E-010	0.0062066	6
	41	57	79.00281	10878.71	-32828.88	1	34584.41	-71.66602	4.977981E-010	0.0062052	6
	42	59	63.3446	12504.2	-39604.74	1	41531.8	-72.47779	1.110845E-009	0.0062071	6
	43	60	49.86702	15529.36	-49507.18	1	51885.66	-72.58446	2.161207E-010	0.0062106	6
	44	62	39.72458	18464.24	-60413.48	1	63172.12	-73.00521	9.832094E-010	0.006207	6
	45	63	31.6723	22608.91	-73242.57	1	76652.7	-72.84531	1.380032E-009	0.0062029	6
	46	64	24.93351	28979.57	-89776.1	1	94337.5	-72.11002	8.866086E-010	0.0062004	6
	47	66	19.86229	36756.31	-108076.8	1	114156.1	-71.21712	1.404214E-009	0.0062123	5
	48	67	15.83615	46854.96	-130354.8	1	138519.9	-70.22944	-8.07122E-010	0.0062197	5
	49	69	12.40079	62135.79	-155661.1	1	167604.4	-68.23942	8.508552E-010	0.0062105	5
	50	70	9.93114	79057.8	-183410.6	1	199723.8	-66.6819	7.089103E-010	0.0062035	5
	51	72	7.944915	100540.1	-212717.6	1	235280.9	-64.70242	2.462342E-010	0.0062076	5
	52	73	6.317385	125253.5	-247212.7	1	277132.8	-63.13036	7.25155E-010	0.0062133	5
	53	75	5.008013	156108.8	-284788.2	1	324768.1	-61.27032	3.868227E-010	0.0062223	5
	54	78	3.945707	191916	-327107.8	1	379250.9	-59.59961	-5.001756E-011	0.0062059	5
	55	81	3.158693	230082.8	-368901.7	1	434771.8	-58.04835	3.922178E-010	0.0062335	5
	56	84	2.504006	273647.6	-418387.7	1	499931.3	-56.8132	-1.233193E-010	0.0062094	5
	57	87	1.998082	319236.4	-471676.2	1	569552.8	-55.90936	-7.503386E-011	0.0061998	5
	58	90	1.584686	371068.7	-532748.5	1	649240.3	-55.14211	1.597722E-010	0.006269	5
	59	94	1.266892	422900.4	-603011.5	1	736524	-54.95748	-4.892683E-011	0.0062234	5
	60	98	0.999041	483431	-690752.5	1	843116	-55.01331	2.934093E-010	0.006229	5
