EXPLAIN
TAG	EISPOT
TITLE	LABEL	Potentiostatic EIS	Test &Identifier
DATE	LABEL	11/22/2019	Date
TIME	LABEL	10:28:31	Time
NOTES	NOTES	4	&Notes...
	
	
	
	
PSTAT	PSTAT	REF600-11020	Potentiostat
VDC	POTEN	0.00000E+000	T	DC &Voltage (V)
FREQINIT	QUANT	1.00000E+006	Initial Fre&q. (Hz)
FREQFINAL	QUANT	1.00000E+000	Final Fre&q. (Hz)
PTSPERDEC	QUANT	1.00000E+001	Points/&decade
VAC	QUANT	2.50000E+001	AC &Voltage (mV rms)
AREA	QUANT	1.00000E-002	&Area (cm^2)
CONDIT	TWOPARAM	T	5.00000E+000	0.00000E+000	Conditionin&g	Time(s)	E(V)
DELAY	TWOPARAM	T	5.00000E+000	0.00000E+000	Init. De&lay	Time(s)	Stab.(mV/s)
SPEED	SELECTOR	0	&Optimize for:
ZGUESS	QUANT	1.00000E+005	E&stimated Z (ohms)
OCVCURVE	TABLE	19
	Pt	T	Vf	Vm	Ach	Over
	#	s	V vs. Ref.	V	V	bits
	0	0.258333	4.07313E-001	4.07313E-001	5.59432E-004	...........
	1	0.516667	4.07695E-001	4.27308E-001	5.57999E-004	...........
	2	0.775	4.09981E-001	4.43168E-001	5.55166E-004	...........
	3	1.03333	4.16214E-001	4.56344E-001	5.54766E-004	...........
	4	1.29167	4.26789E-001	4.67640E-001	5.60132E-004	...........
	5	1.55	4.39880E-001	4.77535E-001	5.58666E-004	...........
	6	1.80833	4.53166E-001	4.86436E-001	5.54366E-004	...........
	7	2.06667	4.65277E-001	4.94504E-001	5.56966E-004	...........
	8	2.325	4.75875E-001	5.01883E-001	5.54766E-004	...........
	9	2.58333	4.85156E-001	5.08698E-001	5.53032E-004	...........
	10	2.84167	4.93425E-001	5.14965E-001	5.56466E-004	...........
	11	3.1	5.00923E-001	5.20783E-001	5.53833E-004	...........
	12	3.35833	5.07801E-001	5.26170E-001	5.55666E-004	...........
	13	3.61667	5.14149E-001	5.31197E-001	5.50233E-004	...........
	14	3.875	5.20027E-001	5.35878E-001	5.55633E-004	...........
	15	4.13333	5.25482E-001	5.40232E-001	5.52099E-004	...........
	16	4.39167	5.30555E-001	5.44280E-001	5.55566E-004	...........
	17	4.65	5.35276E-001	5.48071E-001	5.57399E-004	...........
	18	4.90833	5.39673E-001	5.51614E-001	5.54599E-004	...........
EOC	QUANT	0.5396728	Open Circuit (V)
PSTATMODEL	IQUANT	4	Pstat Model
PSTATSECTION	LABEL	REF600-11020	Pstat Section
PSTATSERIALNO	LABEL	11020	Pstat Serial Number
CTRLMODE	IQUANT	1	Control Mode
IESTAB	IQUANT	0	I/E Stability
CASPEED	IQUANT	1	Control Amp Speed
CONVENTION	IQUANT	1	Current Convention
ICHRANGE	IQUANT	2	Ich Range
ICHRANGEMODE	TOGGLE	F	Ich Auto Range
ICHOFFSETENABLE	TOGGLE	T	Ich Offset Enable
ICHOFFSET	QUANT	0	Ich Offset (V)
ICHFILTER	IQUANT	3	Ich Filter
VCHRANGE	IQUANT	2	Vch Range
VCHRANGEMODE	TOGGLE	F	Vch Auto Range
VCHOFFSETENABLE	TOGGLE	T	Vch Offset Enable
VCHOFFSET	QUANT	0	Vch Offset (V)
VCHFILTER	IQUANT	3	Vch Filter
ACHRANGE	IQUANT	2	Ach Range
ACHOFFSETENABLE	TOGGLE	F	Ach Offset Enable
ACHOFFSET	QUANT	0	Ach Offset (V)
ACHFILTER	IQUANT	3	Ach Filter
IERANGELOWERLIMIT	IQUANT	1	I/E Range Lower Limit
IERANGEMODE	TOGGLE	F	I/E AutoRange
IERANGE	IQUANT	7	I/E Range
POSFEEDENABLE	TOGGLE	F	Positive Feedback IR Comp
POSFEEDRESISTANCE	QUANT	0	Positive Feedback Resistance (ohm)
ACHSELECT	IQUANT	0	Ach Select
CABLEID	IQUANT	14	Cable ID
DCCALDATE	LABEL	8/19/2019	DC Calibration Date
ACCALDATE	LABEL	8/19/2019	AC Calibration Date
THERMOSELECT	IQUANT	1	Thermo Select
FRAMEWORKVERSION	QUANT	6.33	Framework Version
INSTRUMENTVERSION	LABEL	3.50	Instrument Version
ZCURVE	TABLE
	Pt	Time	Freq	Zreal	Zimag	Zsig	Zmod	Zphz	Idc	Vdc	IERange
	#	s	Hz	ohm	ohm	V	ohm	°	A	V	#
	0	2	1000078	1891.989	-2137.6	1	2854.637	-48.48798	-1.032754E-005	0.5424767	8
	1	2	794390.6	2263.108	-2342.51	1	3257.147	-45.98769	8.945563E-006	0.5414917	8
	2	2	630984.4	2697.828	-2508.991	1	3684.198	-42.92296	-2.460581E-006	0.5410936	8
	3	3	501234.4	3150.799	-2594.587	1	4081.595	-39.47042	-3.805547E-006	0.5419659	8
	4	3	398109.4	3606.235	-2683.508	1	4495.125	-36.65405	-5.991667E-006	0.5421716	8
	5	3	316265.6	4109.775	-2673.556	1	4902.872	-33.04544	2.618995E-007	0.5409154	8
	6	4	251203.1	4559.261	-2650.348	1	5273.633	-30.1699	6.074695E-006	0.5400553	8
	7	4	199546.9	4937.446	-2557.784	1	5560.633	-27.38587	3.840488E-006	0.5411679	8
	8	4	158578.1	5368.86	-2492.106	1	5919.059	-24.89968	-2.540466E-006	0.541131	8
	9	4	125953.1	5719.838	-2262.064	1	6150.893	-21.57766	-1.346914E-006	0.5428091	7
	10	5	100078.1	6134.066	-2277.864	1	6543.351	-20.3723	1.188871E-006	0.5395169	7
	11	5	79453.13	6327.655	-2180.775	1	6692.906	-19.0161	-1.237591E-006	0.5430167	7
	12	6	63140.62	6624.24	-2117.08	1	6954.321	-17.72367	-1.221034E-006	0.5418168	7
	13	6	50203.12	6986.927	-2112.869	1	7299.408	-16.82549	1.058423E-006	0.5392683	7
	14	6	39890.62	7184.151	-2046.795	1	7470.033	-15.90247	-4.140291E-007	0.540301	7
	15	7	31640.63	7411.966	-2021.687	1	7682.738	-15.25686	-1.217232E-006	0.5418099	7
	16	7	25171.88	7697.941	-2018.315	1	7958.133	-14.69163	-4.210973E-007	0.5403011	7
	17	8	20015.62	7966.041	-2044.881	1	8224.314	-14.39696	9.026039E-008	0.542228	7
	18	8	15890.62	8250.976	-2049.27	1	8501.653	-13.94815	4.749094E-007	0.5393461	7
	19	8	12609.37	8511.052	-2083.483	1	8762.357	-13.75535	4.748946E-007	0.5393405	7
	20	8	10078.13	8598.82	-2037.332	1	8836.879	-13.32939	-1.382923E-006	0.542418	7
	21	9	8015.625	8962.248	-2154.677	1	9217.62	-13.51833	6.404855E-008	0.5397027	7
	22	9	6328.125	9235.304	-2146.224	1	9481.408	-13.08294	-2.247106E-008	0.5390403	6
	23	10	5015.625	9555.25	-2267.135	1	9820.53	-13.34752	8.142997E-008	0.541865	6
	24	10	3984.375	9790.58	-2384.667	1	10076.81	-13.68884	-4.697167E-008	0.5435172	6
	25	10	3170.956	10064.38	-2513.792	1	10373.56	-14.02391	9.748421E-008	0.5381228	6
	26	11	2527.573	10276.96	-2651.782	1	10613.57	-14.46853	-1.488592E-007	0.5409271	6
	27	11	1976.103	10689.67	-2877.008	1	11070.05	-15.06359	1.85764E-007	0.538773	6
	28	11	1577.524	10909.62	-3096.206	1	11340.47	-15.84422	4.450604E-008	0.5384592	6
	29	11	1265.625	11245.15	-3354.386	1	11734.79	-16.60965	1.859468E-007	0.5387781	6
	30	12	998.264	11528.37	-3700.021	1	12107.58	-17.794	1.987948E-008	0.542766	6
	31	12	796.875	11709.1	-4080.708	1	12399.81	-19.21382	-2.321379E-007	0.5431671	6
	32	12	627.7902	12157.93	-4671.143	1	13024.4	-21.01704	1.69552E-007	0.5400407	6
	33	13	505.5147	12450.62	-5285.542	1	13526.08	-23.00221	1.830585E-007	0.5394021	6
	34	13	397.9953	12763.47	-6129.741	1	14159.09	-25.65296	-8.749944E-009	0.54113	6
	35	13	315.5048	13165.12	-7166.042	1	14989.08	-28.56035	-8.121842E-009	0.5411368	6
	36	14	252.4038	13612.41	-8394.058	1	15992.43	-31.65995	-7.861419E-009	0.5411224	6
	37	14	198.6229	14212.71	-10014.78	1	17386.69	-35.16987	-7.683276E-009	0.5411242	6
	38	14	158.3615	14919.84	-11881.49	1	19072.79	-38.53223	-7.595488E-009	0.5411214	6
	39	15	125.558	15831.99	-14171.15	1	21247.9	-41.83158	-7.038804E-009	0.5411228	6
	40	15	100.4464	16955.22	-16766.61	1	23845.31	-44.67953	-7.672086E-009	0.5411302	6
	41	15	79.00281	18540.95	-20095.63	1	27342.3	-47.30426	-7.117752E-009	0.5411232	6
	42	16	63.3446	20110.53	-23864.92	1	31208.45	-49.87978	-6.228216E-009	0.5411299	6
	43	16	49.86702	22554.09	-28299.61	1	36187.77	-51.44602	-4.604414E-009	0.5411239	6
	44	16	39.72458	25597.77	-33151.64	1	41884.09	-52.32677	-3.180599E-009	0.5411333	6
	45	17	31.6723	29168.81	-38700.05	1	48461.46	-52.99411	-4.116293E-009	0.5411192	6
	46	17	24.93351	33792.09	-45481.21	1	56660.8	-53.38802	-5.029313E-009	0.5411244	6
	47	17	19.86229	39160.56	-52661.42	1	65626.02	-53.36444	-2.633852E-009	0.5411214	6
	48	18	15.83615	45883.59	-60406.26	1	75856.58	-52.7803	-3.655329E-009	0.5411213	6
	49	18	12.40079	54412.56	-69977.02	1	88642.59	-52.13216	-4.535154E-009	0.5411227	6
	50	18	9.93114	62710.77	-78659.9	1	100598.3	-51.43677	-5.474712E-009	0.5411369	5
	51	19	7.944915	72996.34	-88146.59	1	114447.8	-50.37102	-7.007236E-010	0.5411304	5
	52	19	6.317385	84590.98	-98904.1	1	130144.7	-49.4602	-2.425442E-012	0.5411233	5
	53	20	5.008013	97744.6	-110802.3	1	147753.7	-48.58279	7.810011E-010	0.5411317	5
	54	21	3.945707	112347	-124110.1	1	167407.2	-47.84796	1.100369E-009	0.5411373	5
	55	22	3.158693	127519.5	-137844.2	1	187782.5	-47.22813	1.729816E-009	0.5411209	5
	56	24	2.504006	145172	-153824.7	1	211511.1	-46.65764	3.466236E-009	0.5411177	5
	57	25	1.998082	163756.7	-171614.2	1	237208.1	-46.34215	4.471152E-009	0.5411452	5
	58	27	1.584686	185426.4	-191879.4	1	266834.5	-45.97983	5.038785E-009	0.5410937	5
	59	29	1.266892	209462	-215476.6	1	300507.1	-45.81092	5.777842E-009	0.5410821	5
	60	31	0.999041	237332	-244259.8	1	340572.1	-45.82414	6.308331E-009	0.541098	5
