EXPLAIN
TAG	EISPOT
TITLE	LABEL	Potentiostatic EIS	Test &Identifier
DATE	LABEL	11/11/2019	Date
TIME	LABEL	11:32:33	Time
NOTES	NOTES	3	&Notes...
	
	
	
PSTAT	PSTAT	REF600-11020	Potentiostat
VDC	POTEN	0.00000E+000	T	DC &Voltage (V)
FREQINIT	QUANT	1.00000E+006	Initial Fre&q. (Hz)
FREQFINAL	QUANT	1.00000E+000	Final Fre&q. (Hz)
PTSPERDEC	QUANT	1.00000E+001	Points/&decade
VAC	QUANT	2.50000E+001	AC &Voltage (mV rms)
AREA	QUANT	1.00000E-002	&Area (cm^2)
CONDIT	TWOPARAM	T	5.00000E+000	0.00000E+000	Conditionin&g	Time(s)	E(V)
DELAY	TWOPARAM	T	5.00000E+000	0.00000E+000	Init. De&lay	Time(s)	Stab.(mV/s)
SPEED	SELECTOR	1	&Optimize for:
ZGUESS	QUANT	1.00000E+005	E&stimated Z (ohms)
OCVCURVE	TABLE	19
	Pt	T	Vf	Vm	Ach	Over
	#	s	V vs. Ref.	V	V	bits
	0	0.258333	-5.30678E-003	-5.30678E-003	6.14898E-004	...........
	1	0.516667	-5.31578E-003	-5.77763E-003	6.21832E-004	...........
	2	0.775	-5.37509E-003	-6.43735E-003	6.19331E-004	...........
	3	1.03333	-5.55218E-003	-6.84817E-003	6.13998E-004	...........
	4	1.29167	-5.88045E-003	-7.43718E-003	6.15232E-004	...........
	5	1.55	-6.32061E-003	-7.57361E-003	6.23265E-004	...........
	6	1.80833	-6.79379E-003	-8.13713E-003	6.21132E-004	...........
	7	2.06667	-7.23794E-003	-8.22378E-003	6.21532E-004	...........
	8	2.325	-7.63159E-003	-8.72030E-003	6.18332E-004	...........
	9	2.58333	-7.97988E-003	-8.78956E-003	6.22565E-004	...........
	10	2.84167	-8.29498E-003	-9.26482E-003	6.18198E-004	...........
	11	3.1	-8.58817E-003	-9.32505E-003	6.12232E-004	...........
	12	3.35833	-8.86692E-003	-9.74785E-003	6.15632E-004	...........
	13	3.61667	-9.13429E-003	-9.82617E-003	6.23065E-004	...........
	14	3.875	-9.39192E-003	-1.02328E-002	6.14532E-004	...........
	15	4.13333	-9.64273E-003	-1.03283E-002	6.11832E-004	...........
	16	4.39167	-9.88933E-003	-1.06746E-002	6.22532E-004	...........
	17	4.65	-1.01298E-002	-1.07009E-002	6.18265E-004	...........
	18	4.90833	-1.03587E-002	-1.11047E-002	6.20131E-004	...........
EOC	QUANT	-0.0103587	Open Circuit (V)
PSTATMODEL	IQUANT	4	Pstat Model
PSTATSECTION	LABEL	REF600-11020	Pstat Section
PSTATSERIALNO	LABEL	11020	Pstat Serial Number
CTRLMODE	IQUANT	1	Control Mode
IESTAB	IQUANT	0	I/E Stability
CASPEED	IQUANT	1	Control Amp Speed
CONVENTION	IQUANT	1	Current Convention
ICHRANGE	IQUANT	2	Ich Range
ICHRANGEMODE	TOGGLE	F	Ich Auto Range
ICHOFFSETENABLE	TOGGLE	T	Ich Offset Enable
ICHOFFSET	QUANT	0	Ich Offset (V)
ICHFILTER	IQUANT	3	Ich Filter
VCHRANGE	IQUANT	2	Vch Range
VCHRANGEMODE	TOGGLE	F	Vch Auto Range
VCHOFFSETENABLE	TOGGLE	T	Vch Offset Enable
VCHOFFSET	QUANT	0	Vch Offset (V)
VCHFILTER	IQUANT	3	Vch Filter
ACHRANGE	IQUANT	2	Ach Range
ACHOFFSETENABLE	TOGGLE	F	Ach Offset Enable
ACHOFFSET	QUANT	0	Ach Offset (V)
ACHFILTER	IQUANT	3	Ach Filter
IERANGELOWERLIMIT	IQUANT	1	I/E Range Lower Limit
IERANGEMODE	TOGGLE	F	I/E AutoRange
IERANGE	IQUANT	5	I/E Range
POSFEEDENABLE	TOGGLE	F	Positive Feedback IR Comp
POSFEEDRESISTANCE	QUANT	0	Positive Feedback Resistance (ohm)
ACHSELECT	IQUANT	0	Ach Select
CABLEID	IQUANT	14	Cable ID
DCCALDATE	LABEL	8/19/2019	DC Calibration Date
ACCALDATE	LABEL	8/19/2019	AC Calibration Date
THERMOSELECT	IQUANT	1	Thermo Select
FRAMEWORKVERSION	QUANT	6.33	Framework Version
INSTRUMENTVERSION	LABEL	3.50	Instrument Version
ZCURVE	TABLE
	Pt	Time	Freq	Zreal	Zimag	Zsig	Zmod	Zphz	Idc	Vdc	IERange
	#	s	Hz	ohm	ohm	V	ohm	°	A	V	#
	0	2	1000078	1772.546	-2377.549	1	2965.579	-53.29418	-6.933172E-007	-0.0084183	8
	1	3	794390.6	1952.358	-2738.622	1	3363.295	-54.51501	-5.386323E-006	-0.0078866	8
	2	4	630984.4	2152.499	-3205.672	1	3861.293	-56.11999	8.883526E-006	-0.0093564	8
	3	6	501234.4	2363.593	-3787.466	1	4464.468	-58.03351	-1.507404E-006	-0.0089145	8
	4	7	398109.4	2629.35	-4480.74	1	5195.24	-59.5951	4.046618E-006	-0.0087216	8
	5	8	316265.6	2930.407	-5330.578	1	6082.956	-61.20085	1.678776E-006	-0.0091501	8
	6	10	251203.1	3321.545	-6387.779	1	7199.749	-62.52628	-2.249258E-007	-0.0089919	8
	7	12	199546.9	3853.332	-7635.635	1	8552.841	-63.22215	5.507659E-006	-0.0093918	8
	8	14	158578.1	4491.398	-9201.963	1	10239.57	-63.9834	-5.375713E-006	-0.0079438	8
	9	15	125953.1	5511.469	-10870.72	1	12188.06	-63.11493	-1.96816E-006	-0.0046972	7
	10	17	100078.1	6490.298	-12932.19	1	14469.47	-63.34923	5.133897E-007	-0.0081546	7
	11	19	79453.13	7803.39	-15455.84	1	17314.04	-63.21157	-9.397393E-007	-0.0088381	7
	12	20	63140.62	9464.907	-18266.97	1	20573.45	-62.60938	-1.244263E-006	-0.0080847	7
	13	22	50203.12	11583.78	-21459.33	1	24386.2	-61.63975	-2.789236E-007	-0.0072435	7
	14	23	39890.62	14280.79	-25222.29	1	28984.56	-60.48159	-9.050252E-007	-0.0088449	7
	15	25	31640.63	17839.17	-29069.21	1	34106.52	-58.46343	-9.815302E-007	-0.006854	7
	16	26	25171.88	21922.21	-33771.68	1	40263.01	-57.01119	3.791338E-008	-0.0102383	7
	17	28	20015.62	27638.81	-37581.17	1	46650.27	-53.66764	-8.922391E-007	-0.0088443	7
	18	29	15890.62	33370.06	-41928.64	1	53587.05	-51.48451	-1.389678E-006	-0.0074826	7
	19	31	12609.37	41508.71	-45858	1	61854.1	-47.84995	-1.337152E-007	-0.0055266	6
	20	33	10078.13	48985.81	-49694.3	1	69779.17	-45.41136	2.059658E-007	-0.0110297	6
	21	34	8015.625	57574.65	-52780.41	1	78106.41	-42.51242	-2.252512E-007	-0.0056113	6
	22	36	6328.125	66267.45	-54590.16	1	85857.2	-39.4812	-2.103213E-007	-0.0072955	6
	23	38	5015.625	75425.28	-56606.66	1	94304.23	-36.88822	-1.908023E-007	-0.0053442	6
	24	39	3984.375	84334.63	-58548.06	1	102665.5	-34.76974	2.062686E-007	-0.0110362	6
	25	41	3170.956	93692.71	-60178.45	1	111354.3	-32.71247	1.982758E-007	-0.0115681	6
	26	42	2527.573	102339	-61104.96	1	119193.5	-30.84074	8.156966E-008	-0.0117222	6
	27	44	1976.103	111709.1	-62342	1	127927.5	-29.16477	-6.699636E-008	-0.0060368	6
	28	46	1577.524	125228.4	-58164.78	1	138077.2	-24.91343	1.317446E-007	-0.0085953	6
	29	47	1265.625	130445.4	-62900.41	1	144818.8	-25.74323	-4.365882E-009	-0.0062101	5
	30	49	998.264	139252.3	-65387.22	1	153839.9	-25.15284	-6.843835E-009	-0.0101161	5
	31	50	796.875	147721.9	-68224.35	1	162715.4	-24.78954	-2.323701E-008	-0.0059888	5
	32	51	627.7902	157723.2	-71353.14	1	173112.3	-24.34175	-6.941217E-009	-0.0101166	5
	33	53	505.5147	166569.2	-74509.72	1	182474.7	-24.09992	-2.325266E-008	-0.0059634	5
	34	54	397.9953	177770.5	-78500.34	1	194331.2	-23.82542	5.765471E-010	-0.0088229	5
	35	55	315.5048	187951.6	-82850.05	1	205401.9	-23.78814	4.607207E-010	-0.008827	5
	36	57	252.4038	198599.4	-87150.3	1	216879.9	-23.69305	1.893398E-010	-0.0088287	5
	37	58	198.6229	210771.8	-92932.84	1	230350.3	-23.79349	4.469476E-010	-0.0088231	5
	38	59	158.3615	222126.3	-99607.7	1	243437.4	-24.15281	2.05247E-010	-0.0088225	5
	39	61	125.558	234178.4	-106383.9	1	257210.2	-24.43162	9.201685E-011	-0.0088184	5
	40	62	100.4464	247114.6	-114011.2	1	272147.3	-24.76717	5.628166E-010	-0.0088166	5
	41	64	79.00281	261083.4	-122069.9	1	288211.1	-25.0585	2.164442E-010	-0.0088245	5
	42	66	63.3446	279136.5	-120676.6	1	304105.3	-23.37984	5.874764E-010	-0.008824	5
	43	67	49.86702	290306.8	-149076	1	326346	-27.18104	3.089681E-011	-0.0088344	5
	44	69	39.72458	305020	-166361.8	1	347438.4	-28.60861	4.666752E-010	-0.0088195	5
	45	70	31.6723	326083.8	-185501.3	1	375155.1	-29.63452	-1.580936E-011	-0.0088231	5
	46	72	24.93351	345802.3	-213377.8	1	406336.4	-31.67673	3.806879E-010	-0.0088191	5
	47	73	19.86229	368049.5	-240717.3	1	439778.6	-33.1861	3.857739E-010	-0.0088302	5
	48	75	15.83615	414642.8	-282508.3	1	501736.6	-34.26775	-1.317102E-009	-0.0088306	5
	49	76	12.40079	426802.7	-319785.4	1	533313.4	-36.84268	4.428731E-010	-0.0088142	5
	50	77	9.93114	468613.8	-350002.9	1	584893.9	-36.75568	3.820895E-010	-0.008826	5
	51	79	7.944915	515079.8	-388385.2	1	645097	-37.01736	4.231795E-010	-0.0088272	5
	52	81	6.317385	558560.2	-446444.1	1	715053.8	-38.63453	7.687342E-010	-0.0088428	6
	53	83	5.008013	615674.4	-505785.1	1	796789.6	-39.40358	4.682756E-010	-0.0088369	6
	54	86	3.945707	683761.1	-571310.2	1	891024.4	-39.88013	3.364935E-011	-0.0088237	6
	55	89	3.158693	752333.5	-638061.7	1	986473	-40.30162	1.993767E-010	-0.0088116	5
	56	93	2.504006	838385.9	-717174.6	1	1103282	-40.54444	-8.660239E-011	-0.0088252	4
	57	96	1.998082	930637.7	-796579.6	1	1225000	-40.56188	-1.523594E-012	-0.0088547	4
	58	99	1.584686	1032618	-883459.8	1	1358970	-40.54876	7.929524E-011	-0.0087858	4
	59	102	1.266892	1144896	-978324	1	1505956	-40.51418	2.531288E-011	-0.0088503	4
	60	107	0.999041	1270961	-1084183	1	1670568	-40.46556	2.945991E-010	-0.0087885	4
