EXPLAIN
TAG	EISPOT
TITLE	LABEL	Potentiostatic EIS	Test &Identifier
DATE	LABEL	9/22/2019	Date
TIME	LABEL	9:02:00	Time
NOTES	NOTES	1	&Notes...
	
PSTAT	PSTAT	REF600-11020	Potentiostat
VDC	POTEN	0.00000E+000	T	DC &Voltage (V)
FREQINIT	QUANT	1.00000E+006	Initial Fre&q. (Hz)
FREQFINAL	QUANT	1.00000E+000	Final Fre&q. (Hz)
PTSPERDEC	QUANT	1.00000E+001	Points/&decade
VAC	QUANT	2.50000E+001	AC &Voltage (mV rms)
AREA	QUANT	1.00000E-002	&Area (cm^2)
CONDIT	TWOPARAM	T	5.00000E+000	0.00000E+000	Conditionin&g	Time(s)	E(V)
DELAY	TWOPARAM	T	5.00000E+000	0.00000E+000	Init. De&lay	Time(s)	Stab.(mV/s)
SPEED	SELECTOR	1	&Optimize for:
ZGUESS	QUANT	1.00000E+004	E&stimated Z (ohms)
OCVCURVE	TABLE	19
	Pt	T	Vf	Vm	Ach	Over
	#	s	V vs. Ref.	V	V	bits
	0	0.258333	3.48998E-002	3.48998E-002	4.96667E-004	...........
	1	0.516667	3.49479E-002	3.74182E-002	5.02067E-004	...........
	2	0.775	3.52422E-002	3.97477E-002	5.01867E-004	...........
	3	1.03333	3.60699E-002	4.19161E-002	4.89934E-004	...........
	4	1.29167	3.75373E-002	4.39592E-002	4.95000E-004	...........
	5	1.55	3.94651E-002	4.58873E-002	4.93033E-004	...........
	6	1.80833	4.15717E-002	4.77007E-002	4.94467E-004	...........
	7	2.06667	4.36556E-002	4.93934E-002	4.89800E-004	...........
	8	2.325	4.56282E-002	5.10199E-002	4.97300E-004	...........
	9	2.58333	4.74727E-002	5.25436E-002	4.96400E-004	...........
	10	2.84167	4.92020E-002	5.40427E-002	4.90534E-004	...........
	11	3.1	5.08354E-002	5.54515E-002	4.91800E-004	...........
	12	3.35833	5.23900E-002	5.68193E-002	4.96800E-004	...........
	13	3.61667	5.38772E-002	5.81285E-002	5.00400E-004	...........
	14	3.875	5.53035E-002	5.93861E-002	4.91933E-004	...........
	15	4.13333	5.66730E-002	6.06023E-002	4.87867E-004	...........
	16	4.39167	5.79895E-002	6.17835E-002	4.98433E-004	...........
	17	4.65	5.92572E-002	6.29269E-002	5.00300E-004	...........
	18	4.90833	6.04806E-002	6.40115E-002	4.97600E-004	...........
EOC	QUANT	0.0604806	Open Circuit (V)
PSTATMODEL	IQUANT	4	Pstat Model
PSTATSECTION	LABEL	REF600-11020	Pstat Section
PSTATSERIALNO	LABEL	11020	Pstat Serial Number
CTRLMODE	IQUANT	1	Control Mode
IESTAB	IQUANT	0	I/E Stability
CASPEED	IQUANT	1	Control Amp Speed
CONVENTION	IQUANT	1	Current Convention
ICHRANGE	IQUANT	2	Ich Range
ICHRANGEMODE	TOGGLE	F	Ich Auto Range
ICHOFFSETENABLE	TOGGLE	T	Ich Offset Enable
ICHOFFSET	QUANT	0	Ich Offset (V)
ICHFILTER	IQUANT	3	Ich Filter
VCHRANGE	IQUANT	2	Vch Range
VCHRANGEMODE	TOGGLE	F	Vch Auto Range
VCHOFFSETENABLE	TOGGLE	T	Vch Offset Enable
VCHOFFSET	QUANT	0	Vch Offset (V)
VCHFILTER	IQUANT	3	Vch Filter
ACHRANGE	IQUANT	2	Ach Range
ACHOFFSETENABLE	TOGGLE	F	Ach Offset Enable
ACHOFFSET	QUANT	0	Ach Offset (V)
ACHFILTER	IQUANT	3	Ach Filter
IERANGELOWERLIMIT	IQUANT	1	I/E Range Lower Limit
IERANGEMODE	TOGGLE	F	I/E AutoRange
IERANGE	IQUANT	7	I/E Range
POSFEEDENABLE	TOGGLE	F	Positive Feedback IR Comp
POSFEEDRESISTANCE	QUANT	0	Positive Feedback Resistance (ohm)
ACHSELECT	IQUANT	0	Ach Select
CABLEID	IQUANT	14	Cable ID
DCCALDATE	LABEL	8/19/2019	DC Calibration Date
ACCALDATE	LABEL	8/19/2019	AC Calibration Date
THERMOSELECT	IQUANT	1	Thermo Select
FRAMEWORKVERSION	QUANT	6.33	Framework Version
INSTRUMENTVERSION	LABEL	3.50	Instrument Version
ZCURVE	TABLE
	Pt	Time	Freq	Zreal	Zimag	Zsig	Zmod	Zphz	Idc	Vdc	IERange
	#	s	Hz	ohm	ohm	V	ohm	°	A	V	#
	0	1	1000078	2143.09	-1327.925	1	2521.155	-31.78364	3.07498E-006	0.0627054	8
	1	2	794390.6	2402.404	-1243.526	1	2705.162	-27.36686	-1.253181E-006	0.0623669	8
	2	4	630984.4	2609.088	-1132.81	1	2844.398	-23.46946	5.559918E-006	0.0613016	8
	3	5	501234.4	2792.36	-1016.584	1	2971.653	-20.0045	-3.386192E-007	0.0621367	8
	4	6	398109.4	2926.404	-883.7598	1	3056.938	-16.80406	-5.768915E-007	0.0622865	8
	5	8	316265.6	3040.484	-766.1344	1	3135.523	-14.14285	-3.954431E-006	0.0630465	8
	6	9	251203.1	3121.76	-665.3126	1	3191.869	-12.03094	5.137797E-007	0.0620339	8
	7	11	199546.9	3179.858	-586.2677	1	3233.451	-10.44627	1.190585E-006	0.0618602	8
	8	12	158578.1	3224.888	-520.2876	1	3266.589	-9.164846	5.599116E-009	0.0621383	8
	9	13	125953.1	3289.207	-418.3113	1	3315.7	-7.247795	4.903966E-007	0.0611242	7
	10	14	100078.1	3320.074	-381.6876	1	3341.942	-6.558137	-1.180708E-008	0.0619989	7
	11	16	79453.13	3350.65	-362.112	1	3370.16	-6.16814	-1.770631E-008	0.0620901	7
	12	17	63140.62	3382.312	-351.6987	1	3400.548	-5.936383	6.646607E-008	0.0618857	7
	13	19	50203.12	3413.026	-347.6823	1	3430.689	-5.816612	-4.711035E-008	0.0620556	7
	14	20	39890.62	3446.387	-352.1078	1	3464.327	-5.833511	1.211249E-010	0.0619819	7
	15	21	31640.63	3481.33	-362.7046	1	3500.174	-5.947938	-4.532414E-008	0.0620517	7
	16	23	25171.88	3517.887	-381.6431	1	3538.529	-6.1916	-1.712189E-008	0.0620882	7
	17	24	20015.62	3556.819	-407.5327	1	3580.09	-6.536324	-1.830328E-008	0.0620802	7
	18	25	15890.62	3599.967	-441.0287	1	3626.881	-6.984451	-3.541656E-008	0.0620262	7
	19	27	12609.37	3647.098	-483.1928	1	3678.967	-7.546989	-1.852675E-008	0.0621533	7
	20	28	10078.13	3697.65	-533.0866	1	3735.879	-8.203752	6.378446E-008	0.0619938	7
	21	29	8015.625	3752.729	-590.9041	1	3798.966	-8.948314	-1.243532E-008	0.0619776	7
	22	31	6328.125	3811.111	-665.7265	1	3868.819	-9.90848	-4.932159E-008	0.0621108	7
	23	32	5015.625	3873.448	-752.8432	1	3945.931	-10.99888	-4.62352E-008	0.0620413	7
	24	34	3984.375	3937.756	-857.2434	1	4029.986	-12.28158	1.137366E-007	0.0618486	7
	25	35	3170.956	4006.697	-978.959	1	4124.559	-13.73012	-4.55867E-008	0.0620438	7
	26	36	2527.573	4080.918	-1130.014	1	4234.48	-15.47752	-3.973589E-008	0.0620438	7
	27	38	1976.103	4167.129	-1329.721	1	4374.143	-17.69776	1.145273E-007	0.0618559	7
	28	39	1577.524	4250.615	-1556.407	1	4526.603	-20.11073	-5.032014E-008	0.0621138	7
	29	40	1265.625	4352.047	-1821.96	1	4718.035	-22.71634	-4.947317E-008	0.0621082	7
	30	42	998.264	4447.762	-2181.777	1	4954.063	-26.1295	-1.720105E-008	0.0621483	7
	31	43	796.875	4560.209	-2599.851	1	5249.26	-29.68818	6.17373E-008	0.0619071	7
	32	44	627.7902	4694.797	-3148.25	1	5652.663	-33.84512	2.714854E-009	0.0619673	7
	33	46	505.5147	4836.207	-3769.151	1	6131.508	-37.93147	-2.446196E-008	0.0620847	7
	34	47	397.9953	5027.303	-4608.635	1	6820.065	-42.51215	-4.571408E-009	0.0620481	7
	35	48	315.5048	5253.391	-5623.258	1	7695.398	-46.94763	-5.699571E-009	0.0620522	7
	36	50	252.4038	5524.801	-6821.152	1	8777.901	-50.99421	-5.608063E-009	0.0620479	7
	37	51	198.6229	5899.32	-8401.198	1	10265.58	-54.92347	-8.244539E-009	0.0619906	6
	38	53	158.3615	6356.661	-10234.75	1	12048.12	-58.15616	-8.829163E-009	0.0619846	6
	39	54	125.558	6972.981	-12521.69	1	14332.31	-60.88778	-8.346076E-009	0.0619889	6
	40	55	100.4464	7751.5	-15172.36	1	17037.79	-62.93769	-8.347817E-009	0.0619845	6
	41	57	79.00281	8869.573	-18628.07	1	20631.88	-64.539	-8.290004E-009	0.0619842	6
	42	58	63.3446	10221	-22338.33	1	24565.62	-65.41332	-8.677882E-009	0.0619839	6
	43	59	49.86702	12120.64	-27442	1	29999.56	-66.16982	-8.369735E-009	0.0619799	6
	44	61	39.72458	14421.79	-32901.58	1	35923.56	-66.33065	-7.812242E-009	0.0619857	6
	45	62	31.6723	17461.38	-39358.85	1	43058.32	-66.07574	-8.476224E-009	0.0619855	6
	46	64	24.93351	21473.74	-47251.05	1	51901.68	-65.56007	-8.084699E-009	0.0619854	6
	47	65	19.86229	26394.6	-55860.55	1	61782.5	-64.70885	-8.879567E-009	0.0619828	6
	48	66	15.83615	32409.25	-65251.34	1	72856.69	-63.58718	-8.542357E-009	0.0619893	6
	49	68	12.40079	40823.76	-77335.07	1	87448.8	-62.17125	-1.027414E-008	0.0619898	6
	50	69	9.93114	49629.03	-89602.75	1	102429	-61.01888	-8.303317E-009	0.0619814	6
	51	71	7.944915	60276.13	-102743.9	1	119119.8	-59.60139	-8.023967E-009	0.0619939	5
	52	72	6.317385	73088.8	-117664.7	1	138517	-58.15303	-9.568448E-009	0.0619973	5
	53	75	5.008013	88269.39	-134259.7	1	160677.2	-56.67698	-9.398156E-009	0.0619875	5
	54	77	3.945707	106093.4	-152459.8	1	185741.2	-55.16679	-8.163243E-009	0.0620018	5
	55	79	3.158693	125007.2	-171410.4	1	212151.7	-53.89725	-9.262325E-009	0.061981	5
	56	83	2.504006	146884.2	-192736.1	1	242326.6	-52.68897	-7.961879E-009	0.0619951	5
	57	86	1.998082	170349.4	-215347.9	1	274579.1	-51.65449	-8.349634E-009	0.06202	5
	58	89	1.584686	196986.3	-240642.8	1	310986.4	-50.6968	-8.755595E-009	0.0619459	5
	59	92	1.266892	224430.2	-269200.1	1	350481.9	-50.18227	-8.312908E-009	0.0619946	5
	60	97	0.999041	257715.4	-303683.5	1	398297.5	-49.68101	-9.266204E-009	0.061977	5
