EXPLAIN
TAG	EISPOT
TITLE	LABEL	Potentiostatic EIS	Test &Identifier
DATE	LABEL	10/10/2019	Date
TIME	LABEL	10:41:37	Time
NOTES	NOTES	1	&Notes...
	
PSTAT	PSTAT	REF600-11020	Potentiostat
VDC	POTEN	0.00000E+000	T	DC &Voltage (V)
FREQINIT	QUANT	1.00000E+006	Initial Fre&q. (Hz)
FREQFINAL	QUANT	1.00000E+000	Final Fre&q. (Hz)
PTSPERDEC	QUANT	1.00000E+001	Points/&decade
VAC	QUANT	2.50000E+001	AC &Voltage (mV rms)
AREA	QUANT	1.00000E-002	&Area (cm^2)
CONDIT	TWOPARAM	T	5.00000E+000	0.00000E+000	Conditionin&g	Time(s)	E(V)
DELAY	TWOPARAM	T	5.00000E+000	0.00000E+000	Init. De&lay	Time(s)	Stab.(mV/s)
SPEED	SELECTOR	1	&Optimize for:
ZGUESS	QUANT	1.00000E+004	E&stimated Z (ohms)
OCVCURVE	TABLE	19
	Pt	T	Vf	Vm	Ach	Over
	#	s	V vs. Ref.	V	V	bits
	0	0.258333	5.55722E-003	5.55722E-003	5.84165E-004	...........
	1	0.516667	5.55848E-003	5.62307E-003	5.82132E-004	...........
	2	0.775	5.56893E-003	5.82799E-003	5.80932E-004	...........
	3	1.03333	5.59894E-003	5.57525E-003	5.79232E-004	...........
	4	1.29167	5.63181E-003	5.28555E-003	5.84699E-004	...........
	5	1.55	5.61713E-003	5.18710E-003	5.82832E-004	...........
	6	1.80833	5.52622E-003	5.14051E-003	5.82365E-004	...........
	7	2.06667	5.38931E-003	5.06418E-003	5.73565E-004	...........
	8	2.325	5.25603E-003	4.96683E-003	5.81399E-004	...........
	9	2.58333	5.14771E-003	4.89170E-003	5.81832E-004	...........
	10	2.84167	5.06492E-003	5.16361E-003	5.76732E-004	...........
	11	3.1	5.01314E-003	4.82449E-003	5.76099E-004	...........
	12	3.35833	4.98759E-003	4.86162E-003	5.84999E-004	...........
	13	3.61667	4.96150E-003	4.83750E-003	5.82699E-004	...........
	14	3.875	4.92119E-003	4.82529E-003	5.79532E-004	...........
	15	4.13333	4.87930E-003	4.81755E-003	5.83232E-004	...........
	16	4.39167	4.85206E-003	5.00438E-003	5.84065E-004	...........
	17	4.65	4.84771E-003	4.75993E-003	5.79365E-004	...........
	18	4.90833	4.85456E-003	4.70038E-003	5.75199E-004	...........
EOC	QUANT	0.0048546	Open Circuit (V)
PSTATMODEL	IQUANT	4	Pstat Model
PSTATSECTION	LABEL	REF600-11020	Pstat Section
PSTATSERIALNO	LABEL	11020	Pstat Serial Number
CTRLMODE	IQUANT	1	Control Mode
IESTAB	IQUANT	0	I/E Stability
CASPEED	IQUANT	1	Control Amp Speed
CONVENTION	IQUANT	1	Current Convention
ICHRANGE	IQUANT	2	Ich Range
ICHRANGEMODE	TOGGLE	F	Ich Auto Range
ICHOFFSETENABLE	TOGGLE	T	Ich Offset Enable
ICHOFFSET	QUANT	0	Ich Offset (V)
ICHFILTER	IQUANT	3	Ich Filter
VCHRANGE	IQUANT	2	Vch Range
VCHRANGEMODE	TOGGLE	F	Vch Auto Range
VCHOFFSETENABLE	TOGGLE	T	Vch Offset Enable
VCHOFFSET	QUANT	0	Vch Offset (V)
VCHFILTER	IQUANT	3	Vch Filter
ACHRANGE	IQUANT	2	Ach Range
ACHOFFSETENABLE	TOGGLE	F	Ach Offset Enable
ACHOFFSET	QUANT	0	Ach Offset (V)
ACHFILTER	IQUANT	3	Ach Filter
IERANGELOWERLIMIT	IQUANT	1	I/E Range Lower Limit
IERANGEMODE	TOGGLE	F	I/E AutoRange
IERANGE	IQUANT	5	I/E Range
POSFEEDENABLE	TOGGLE	F	Positive Feedback IR Comp
POSFEEDRESISTANCE	QUANT	0	Positive Feedback Resistance (ohm)
ACHSELECT	IQUANT	0	Ach Select
CABLEID	IQUANT	14	Cable ID
DCCALDATE	LABEL	8/19/2019	DC Calibration Date
ACCALDATE	LABEL	8/19/2019	AC Calibration Date
THERMOSELECT	IQUANT	1	Thermo Select
FRAMEWORKVERSION	QUANT	6.33	Framework Version
INSTRUMENTVERSION	LABEL	3.50	Instrument Version
ZCURVE	TABLE
	Pt	Time	Freq	Zreal	Zimag	Zsig	Zmod	Zphz	Idc	Vdc	IERange
	#	s	Hz	ohm	ohm	V	ohm	°	A	V	#
	0	2	1000078	2648.239	-1953.256	1	3290.65	-36.4113	-1.682081E-006	0.0075746	8
	1	3	794390.6	3041.91	-1915.903	1	3594.983	-32.20419	4.057132E-006	0.0059452	8
	2	5	630984.4	3419.727	-1795.437	1	3862.399	-27.70053	4.07938E-006	0.0055666	8
	3	6	501234.4	3734.984	-1640.765	1	4079.487	-23.71571	-1.829224E-006	0.0066744	8
	4	7	398109.4	3963.893	-1457.162	1	4223.242	-20.18387	-4.922905E-006	0.0075324	8
	5	9	316265.6	4186.944	-1273.164	1	4376.236	-16.91344	-9.518058E-007	0.00674	8
	6	11	251203.1	4355.993	-1090.927	1	4490.522	-14.06012	-3.285515E-006	0.0070212	8
	7	12	199546.9	4472.362	-953.636	1	4572.903	-12.03684	1.241822E-006	0.0060219	8
	8	14	158578.1	4508.895	-796.5278	1	4578.71	-10.01834	2.559788E-006	0.0058003	8
	9	15	125953.1	4621.993	-647.9468	1	4667.189	-7.980162	-9.885368E-007	0.0086074	7
	10	17	100078.1	4668.611	-570.2761	1	4703.313	-6.964242	4.290663E-008	0.0062518	7
	11	18	79453.13	4712.851	-522.079	1	4741.68	-6.321324	-4.2555E-008	0.0063379	7
	12	19	63140.62	4752.933	-481.3312	1	4777.243	-5.78265	1.43965E-008	0.0062142	7
	13	21	50203.12	4790.451	-458.39	1	4812.332	-5.465892	-6.598322E-008	0.0064754	7
	14	22	39890.62	4829.401	-448.7858	1	4850.208	-5.309125	-5.922917E-008	0.0064652	7
	15	23	31640.63	4868.334	-448.8468	1	4888.981	-5.267619	-5.661008E-008	0.0064055	7
	16	25	25171.88	4909.044	-456.8766	1	4930.259	-5.317107	-1.179458E-008	0.0063346	7
	17	26	20015.62	4943.047	-484.8881	1	4966.772	-5.602504	-1.806106E-008	0.0064494	7
	18	28	15890.62	4995.976	-506.0162	1	5021.537	-5.783466	1.522027E-007	0.0060652	7
	19	29	12609.37	5044.625	-545.1217	1	5073.993	-6.167445	4.925123E-008	0.0061349	7
	20	30	10078.13	5099.111	-593.3019	1	5133.512	-6.636749	-1.975506E-008	0.0062631	7
	21	32	8015.625	5153.701	-657.2028	1	5195.435	-7.267167	1.471568E-007	0.0060663	7
	22	33	6328.125	5207.788	-732.1698	1	5259.004	-8.002836	1.431922E-007	0.0060754	7
	23	34	5015.625	5264.626	-828.0208	1	5329.344	-8.938263	-1.791105E-008	0.0064392	7
	24	36	3984.375	5335.58	-957.523	1	5420.818	-10.174	1.523097E-008	0.0062018	7
	25	37	3170.956	5383.259	-1094.502	1	5493.397	-11.4925	-8.099932E-008	0.0064177	7
	26	38	2527.573	5443.708	-1275.332	1	5591.103	-13.18525	-1.789232E-008	0.0064456	7
	27	40	1976.103	5523.832	-1526.984	1	5731.003	-15.4527	-4.601957E-008	0.0063025	7
	28	41	1577.524	5608.351	-1804.329	1	5891.452	-17.83412	-1.582638E-008	0.006344	7
	29	43	1265.625	5685.877	-2149.02	1	6078.444	-20.70446	1.70287E-008	0.0062068	7
	30	44	998.264	5789.791	-2606.25	1	6349.348	-24.2347	-8.273282E-009	0.006309	7
	31	45	796.875	5901.944	-3142.485	1	6686.416	-28.03303	1.568477E-008	0.0061994	7
	32	47	627.7902	6046	-3849.886	1	7167.687	-32.48759	8.755973E-008	0.0062379	7
	33	48	505.5147	6209.599	-4637.426	1	7750.151	-36.75295	-1.644507E-008	0.0063398	7
	34	49	397.9953	6433.886	-5702.562	1	8597.331	-41.55161	3.954042E-009	0.0063002	7
	35	51	315.5048	6706.9	-6983.703	1	9682.7	-46.15828	3.424773E-009	0.0062997	7
	36	52	252.4038	7040.34	-8489.792	1	11029.19	-50.33206	1.582312E-009	0.0062378	6
	37	54	198.6229	7498.457	-10473.51	1	12881.04	-54.39942	8.433766E-010	0.0062417	6
	38	55	158.3615	8062.304	-12764.29	1	15097.28	-57.72227	1.129287E-009	0.0062367	6
	39	56	125.558	8804.272	-15607.08	1	17919.16	-60.57177	4.49484E-010	0.0062397	6
	40	58	100.4464	9713.16	-18922.45	1	21269.8	-62.82793	9.024567E-010	0.0062398	6
	41	59	79.00281	11038.14	-23143.14	1	25640.7	-64.50114	8.236363E-010	0.0062358	6
	42	60	63.3446	12775.32	-27909.84	1	30694.75	-65.40475	3.266801E-010	0.0062371	6
	43	62	49.86702	14462.32	-34167.55	1	37102.3	-67.05821	-1.007145E-010	0.0062353	6
	44	63	39.72458	17041.43	-40989.81	1	44391.16	-67.42501	3.602824E-010	0.0062401	6
	45	65	31.6723	20102.35	-49093.34	1	53049.6	-67.73227	1.58803E-010	0.006242	6
	46	66	24.93351	24186.61	-59538.77	1	64263.96	-67.89139	3.039426E-011	0.0062351	6
	47	67	19.86229	29030.3	-71345.91	1	77025.95	-67.85883	7.259309E-010	0.0062447	6
	48	69	15.83615	34443.16	-85144.27	1	91847.04	-67.97533	-1.457667E-009	0.006236	6
	49	70	12.40079	43328.57	-102105.1	1	110918	-67.00593	1.000771E-010	0.0062465	5
	50	72	9.93114	53564.11	-120591.8	1	131952.6	-66.05031	-4.963678E-010	0.0062495	5
	51	73	7.944915	65889.48	-142098.5	1	156631.4	-65.12337	2.902668E-010	0.006247	5
	52	75	6.317385	80546.58	-166214.7	1	184702.7	-64.14547	2.140417E-010	0.0062588	5
	53	77	5.008013	98993.3	-194185.6	1	217962.7	-62.9881	1.928362E-010	0.0062424	5
	54	80	3.945707	120777.8	-226186.8	1	256413.3	-61.89895	9.312701E-010	0.0062482	5
	55	82	3.158693	144786.2	-259652.7	1	297292.1	-60.85531	3.721438E-010	0.0062327	5
	56	86	2.504006	171728.3	-298792.2	1	344626.5	-60.11223	6.904332E-010	0.0062392	5
	57	88	1.998082	201801.6	-342310.4	1	397366.7	-59.47946	1.477216E-010	0.0062853	5
	58	91	1.584686	234089.1	-393643.3	1	457987.7	-59.26119	1.861118E-010	0.0062343	5
	59	95	1.266892	270156.2	-453283.4	1	527683.8	-59.20512	1.171709E-010	0.0062808	5
	60	99	0.999041	313095.3	-525220.3	1	611461.4	-59.1999	-8.29393E-013	0.0061962	5
