EXPLAIN
TAG	EISPOT
TITLE	LABEL	Potentiostatic EIS	Test &Identifier
DATE	LABEL	10/24/2019	Date
TIME	LABEL	8:33:21	Time
NOTES	NOTES	1	&Notes...
	
PSTAT	PSTAT	REF600-11020	Potentiostat
VDC	POTEN	0.00000E+000	T	DC &Voltage (V)
FREQINIT	QUANT	1.00000E+006	Initial Fre&q. (Hz)
FREQFINAL	QUANT	1.00000E+000	Final Fre&q. (Hz)
PTSPERDEC	QUANT	1.00000E+001	Points/&decade
VAC	QUANT	2.50000E+001	AC &Voltage (mV rms)
AREA	QUANT	1.00000E-002	&Area (cm^2)
CONDIT	TWOPARAM	T	5.00000E+000	0.00000E+000	Conditionin&g	Time(s)	E(V)
DELAY	TWOPARAM	T	5.00000E+000	0.00000E+000	Init. De&lay	Time(s)	Stab.(mV/s)
SPEED	SELECTOR	1	&Optimize for:
ZGUESS	QUANT	1.00000E+005	E&stimated Z (ohms)
OCVCURVE	TABLE	19
	Pt	T	Vf	Vm	Ach	Over
	#	s	V vs. Ref.	V	V	bits
	0	0.258333	1.86731E-002	1.86731E-002	5.55799E-004	...........
	1	0.516667	1.87049E-002	2.03398E-002	5.60499E-004	...........
	2	0.775	1.88042E-002	1.68798E-002	5.60732E-004	...........
	3	1.03333	1.87818E-002	1.44419E-002	5.62299E-004	...........
	4	1.29167	1.82855E-002	1.68098E-002	5.54266E-004	...........
	5	1.55	1.75082E-002	2.27773E-002	5.54566E-004	...........
	6	1.80833	1.75655E-002	3.27755E-002	5.58599E-004	.........v.
	7	2.06667	1.91385E-002	6.69009E-003	5.55299E-004	...........
	8	2.325	2.09902E-002	3.21482E-002	5.58499E-004	.........v.
	9	2.58333	2.19963E-002	3.03408E-002	5.56233E-004	...........
	10	2.84167	2.28553E-002	1.01311E-002	5.55633E-004	...........
	11	3.1	2.28023E-002	-1.13087E-002	5.55133E-004	...........
	12	3.35833	1.92397E-002	1.64974E-002	5.57199E-004	...........
	13	3.61667	1.33050E-002	1.96821E-002	5.52632E-004	...........
	14	3.875	9.95164E-003	2.05893E-002	5.57866E-004	...........
	15	4.13333	1.13608E-002	2.11220E-002	5.61332E-004	...........
	16	4.39167	1.51874E-002	2.16516E-002	5.64132E-004	...........
	17	4.65	1.85975E-002	2.16888E-002	5.61432E-004	...........
	18	4.90833	2.06167E-002	2.20975E-002	5.59166E-004	...........
EOC	QUANT	0.0206167	Open Circuit (V)
PSTATMODEL	IQUANT	4	Pstat Model
PSTATSECTION	LABEL	REF600-11020	Pstat Section
PSTATSERIALNO	LABEL	11020	Pstat Serial Number
CTRLMODE	IQUANT	1	Control Mode
IESTAB	IQUANT	0	I/E Stability
CASPEED	IQUANT	1	Control Amp Speed
CONVENTION	IQUANT	1	Current Convention
ICHRANGE	IQUANT	2	Ich Range
ICHRANGEMODE	TOGGLE	F	Ich Auto Range
ICHOFFSETENABLE	TOGGLE	T	Ich Offset Enable
ICHOFFSET	QUANT	0	Ich Offset (V)
ICHFILTER	IQUANT	3	Ich Filter
VCHRANGE	IQUANT	2	Vch Range
VCHRANGEMODE	TOGGLE	F	Vch Auto Range
VCHOFFSETENABLE	TOGGLE	T	Vch Offset Enable
VCHOFFSET	QUANT	0	Vch Offset (V)
VCHFILTER	IQUANT	3	Vch Filter
ACHRANGE	IQUANT	2	Ach Range
ACHOFFSETENABLE	TOGGLE	F	Ach Offset Enable
ACHOFFSET	QUANT	0	Ach Offset (V)
ACHFILTER	IQUANT	3	Ach Filter
IERANGELOWERLIMIT	IQUANT	1	I/E Range Lower Limit
IERANGEMODE	TOGGLE	F	I/E AutoRange
IERANGE	IQUANT	5	I/E Range
POSFEEDENABLE	TOGGLE	F	Positive Feedback IR Comp
POSFEEDRESISTANCE	QUANT	0	Positive Feedback Resistance (ohm)
ACHSELECT	IQUANT	0	Ach Select
CABLEID	IQUANT	14	Cable ID
DCCALDATE	LABEL	8/19/2019	DC Calibration Date
ACCALDATE	LABEL	8/19/2019	AC Calibration Date
THERMOSELECT	IQUANT	1	Thermo Select
FRAMEWORKVERSION	QUANT	6.33	Framework Version
INSTRUMENTVERSION	LABEL	3.50	Instrument Version
ZCURVE	TABLE
	Pt	Time	Freq	Zreal	Zimag	Zsig	Zmod	Zphz	Idc	Vdc	IERange
	#	s	Hz	ohm	ohm	V	ohm	°	A	V	#
	0	1	1000078	849.5109	-9563.37	1	9601.03	-84.92376	1.776293E-006	0.0225484	8
	1	3	794390.6	895.6066	-11100.83	1	11136.9	-85.38741	-4.902901E-007	0.0224494	8
	2	5	630984.4	1040.764	-13843.25	1	13882.32	-85.70048	1.786491E-006	0.0217855	8
	3	6	501234.4	1384.731	-17206.49	1	17262.12	-85.39891	-3.625094E-007	0.0221122	8
	4	8	398109.4	1516.586	-21523.06	1	21576.43	-85.96941	1.304888E-007	0.0221669	8
	5	10	316265.6	1971.382	-26994.49	1	27066.38	-85.82316	-1.78617E-006	0.0223905	8
	6	12	251203.1	2503.732	-33927.73	1	34019.99	-85.77945	-1.95809E-006	0.0224849	8
	7	13	199546.9	2787.503	-44804.07	1	44890.7	-86.43991	1.163546E-006	0.021952	8
	8	15	158578.1	3746.954	-52246.62	1	52380.81	-85.89796	3.122391E-006	0.021493	8
	9	17	125953.1	7619.718	-66833.95	1	67266.91	-83.49581	1.047168E-006	0.0194577	7
	10	18	100078.1	6320.554	-81464.09	1	81708.91	-85.56348	-8.435644E-008	0.0221353	7
	11	20	79453.13	7808.96	-102061.5	1	102359.8	-85.62469	-6.059928E-008	0.0221558	7
	12	22	63140.62	10172.52	-127149	1	127555.3	-85.42581	-7.752963E-008	0.0221197	7
	13	24	50203.12	12500.09	-158576.3	1	159068.2	-85.49287	-7.585172E-008	0.0222606	7
	14	25	39890.62	15862.24	-197933.4	1	198568	-85.41815	9.01419E-008	0.021847	7
	15	27	31640.63	21495.97	-247166.4	1	248099.4	-85.02952	-6.141322E-008	0.0221567	7
	16	29	25171.88	27536.01	-309034	1	310258.3	-84.9082	8.916866E-008	0.0218402	7
	17	31	20015.62	40464.49	-334262.7	1	336703	-83.09759	-5.009117E-009	0.0219612	7
	18	32	15890.62	50068.43	-484376	1	486956.9	-84.09847	2.75772E-009	0.0220647	7
	19	34	12609.37	68022.53	-592604.4	1	596495.7	-83.45192	-1.147082E-008	0.0220732	6
	20	35	10078.13	86875.5	-740010.3	1	745092.4	-83.30425	-4.58891E-009	0.0221497	6
	21	37	8015.625	237478.5	-973389	1	1001940	-76.28934	-8.897106E-009	0.0220508	6
	22	39	6328.125	169949	-1135336	1	1147986	-81.48658	4.918956E-009	0.022082	6
	23	40	5015.625	244980.9	-1396679	1	1418001	-80.05138	-1.012779E-008	0.0221973	6
	24	42	3984.375	248231.1	-1399101	1	1420951	-79.93918	-1.0564E-008	0.022196	6
	25	44	3170.956	503135.3	-2139127	1	2197500	-76.76427	2.013328E-009	0.0220336	6
	26	45	2527.573	628564.9	-2565723	1	2641596	-76.23448	-1.148805E-008	0.0220638	6
	27	47	1976.103	988321	-2847827	1	3014448	-70.86098	-1.148901E-008	0.0220663	6
	28	49	1577.524	2290238	-791617.4	1	2423190	-19.06763	4.004066E-009	0.0219978	6
	29	50	1265.625	1476066	-4394392	1	4635671	-71.43292	6.888628E-009	0.0217924	6
	30	52	998.264	2515867	-5103896	1	5690285	-63.75989	-4.021193E-010	0.0218146	5
	31	54	796.875	1344691	-6522593	1	6659760	-78.35117	-8.148097E-009	0.0220396	6
	32	56	627.7902	4375433	-7196804	1	8422493	-58.7017	2.077938E-009	0.021791	5
	33	57	505.5147	5979483	-7450096	1	9.552913E+006	-51.2493	-1.539385E-009	0.0220783	5
	34	59	397.9953	8099315	-7439856	1	1.099774E+007	-42.56991	-4.972378E-010	0.0219827	5
	35	60	315.5048	9.564347E+006	-7890600	1	1.239913E+007	-39.52268	-6.657769E-010	0.0219768	5
	36	62	252.4038	1.211777E+007	-8676319	1	1.490365E+007	-35.60266	4.974517E-010	0.0219764	5
	37	63	198.6229	1.20379E+007	-6948163	1	1.389921E+007	-29.99314	-3.60136E-011	0.0219787	5
	38	65	158.3615	1.20131E+007	-5835443	1	1.335541E+007	-25.90846	9.566936E-011	0.0219736	5
	39	66	125.558	1.355765E+007	-6288904	1	1.494524E+007	-24.88488	2.206383E-010	0.0219754	4
	40	68	100.4464	1.684888E+007	-4543049	1	1.745061E+007	-15.09009	-1.304152E-010	0.0219745	4
	41	70	79.00281	3.099287E+007	-1.665349E+007	1	3.518376E+007	-28.2506	3.579838E-010	0.0219718	4
	42	71	63.3446	1230269	-4333493	1	4504744	-74.15087	2.683517E-010	0.0219718	4
	43	73	49.86702	1.284418E+007	-7489138	1	1.486809E+007	-30.24545	-1.343196E-010	0.0219741	4
	44	75	39.72458	2.072072E+007	-1.46228E+007	1	2.536088E+007	-35.21098	-4.293096E-012	0.0219819	4
	45	76	31.6723	2.929256E+007	9447337	1	3.077834E+007	17.87537	-2.985232E-010	0.0219811	4
	46	78	24.93351	1.805693E+007	-4064652	1	1.850875E+007	-12.68595	-4.918076E-011	0.0219791	4
	47	80	19.86229	1.791052E+007	3297579	1	1.821156E+007	10.43213	-2.318994E-010	0.0219795	4
	48	81	15.83615	1.244027E+007	-9248701	1	1.550158E+007	-36.6289	1.600101E-010	0.0219789	4
	49	83	12.40079	8655094	1.974085E+007	1	2.155486E+007	66.32565	9.259769E-010	0.0219759	4
	50	84	9.93114	1.792375E+007	-130902.4	1	1.792423E+007	-0.4184405	-1.243668E-010	0.021984	4
	51	86	7.944915	1.463967E+007	-2928941	1	1.492979E+007	-11.31372	5.527184E-010	0.0219804	4
	52	88	6.317385	1.998457E+007	-2069498	1	2.009144E+007	-5.912179	-7.998392E-011	0.0219912	4
	53	90	5.008013	1.971663E+007	-1245967	1	1.975596E+007	-3.615926	-3.147114E-011	0.0219926	4
	54	93	3.945707	1.945502E+007	-3383793	1	1.974709E+007	-9.8667	-7.607476E-011	0.0219842	4
	55	97	3.158693	2.094465E+007	-2176050	1	2.105739E+007	-5.931479	2.87706E-011	0.021966	4
	56	100	2.504006	6.26613E+007	-5925737	1	6.294087E+007	-5.402266	2.527725E-011	0.0219716	3
	57	104	1.998082	2.159017E+007	-2278171	1	2.171003E+007	-6.023498	1.710113E-011	0.0219763	4
	58	109	1.584686	6.471907E+007	-7269935	1	6.512611E+007	-6.409204	2.613682E-011	0.0219264	3
	59	115	1.266892	2.491084E+007	2066880	1	2.499644E+007	4.74303	7.909061E-011	0.0219428	4
	60	123	0.999041	6.749095E+007	-8190044	1	6.798606E+007	-6.919026	3.044473E-011	0.0220075	3
