EXPLAIN
TAG	EISPOT
TITLE	LABEL	Potentiostatic EIS	Test &Identifier
DATE	LABEL	8/16/2017	Date
TIME	LABEL	16:45:12	Time
NOTES	NOTES	1	&Notes...
	
PSTAT	PSTAT	REF600-11020	Potentiostat
VDC	POTEN	0.00000E+000	T	DC &Voltage (V)
FREQINIT	QUANT	1.00000E+006	Initial Fre&q. (Hz)
FREQFINAL	QUANT	1.00000E+000	Final Fre&q. (Hz)
PTSPERDEC	QUANT	1.00000E+001	Points/&decade
VAC	QUANT	2.50000E+001	AC &Voltage (mV rms)
AREA	QUANT	1.00000E-002	&Area (cm^2)
CONDIT	TWOPARAM	T	5.00000E+000	0.00000E+000	Conditionin&g	Time(s)	E(V)
DELAY	TWOPARAM	T	5.00000E+000	0.00000E+000	Init. De&lay	Time(s)	Stab.(mV/s)
SPEED	SELECTOR	0	&Optimize for:
ZGUESS	QUANT	1.00000E+005	E&stimated Z (ohms)
OCVCURVE	TABLE	19
	Pt	T	Vf	Vm	Ach	Over
	#	s	V vs. Ref.	V	V	bits
	0	0.258333	6.00046E-003	6.00046E-003	5.32000E-004	...........
	1	0.516667	6.00071E-003	6.01330E-003	5.30966E-004	...........
	2	0.775	6.00265E-003	6.04805E-003	5.33166E-004	...........
	3	1.03333	6.00970E-003	6.08861E-003	5.30233E-004	...........
	4	1.29167	6.02582E-003	6.13420E-003	5.26133E-004	...........
	5	1.55	6.05268E-003	6.18009E-003	5.29899E-004	...........
	6	1.80833	6.08891E-003	6.23324E-003	5.34800E-004	...........
	7	2.06667	6.13183E-003	6.28584E-003	5.27900E-004	...........
	8	2.325	6.17934E-003	6.34264E-003	5.26900E-004	...........
	9	2.58333	6.23021E-003	6.40210E-003	5.34433E-004	...........
	10	2.84167	6.28420E-003	6.47855E-003	5.40966E-004	...........
	11	3.1	6.34172E-003	6.52595E-003	5.37799E-004	...........
	12	3.35833	6.40203E-003	6.57845E-003	5.41966E-004	...........
	13	3.61667	6.46227E-003	6.63254E-003	5.32766E-004	...........
	14	3.875	6.51979E-003	6.67676E-003	5.37533E-004	...........
	15	4.13333	6.57362E-003	6.71306E-003	5.38666E-004	...........
	16	4.39167	6.62352E-003	6.76265E-003	5.31533E-004	...........
	17	4.65	6.66942E-003	6.78036E-003	5.37933E-004	...........
	18	4.90833	6.71119E-003	6.81757E-003	5.35733E-004	...........
EOC	QUANT	0.0067112	Open Circuit (V)
PSTATMODEL	IQUANT	4	Pstat Model
PSTATSECTION	LABEL	REF600-11020	Pstat Section
PSTATSERIALNO	LABEL	11020	Pstat Serial Number
CTRLMODE	IQUANT	1	Control Mode
IESTAB	IQUANT	0	I/E Stability
CASPEED	IQUANT	1	Control Amp Speed
CONVENTION	IQUANT	1	Current Convention
ICHRANGE	IQUANT	2	Ich Range
ICHRANGEMODE	TOGGLE	F	Ich Auto Range
ICHOFFSETENABLE	TOGGLE	T	Ich Offset Enable
ICHOFFSET	QUANT	0	Ich Offset (V)
ICHFILTER	IQUANT	3	Ich Filter
VCHRANGE	IQUANT	2	Vch Range
VCHRANGEMODE	TOGGLE	F	Vch Auto Range
VCHOFFSETENABLE	TOGGLE	T	Vch Offset Enable
VCHOFFSET	QUANT	0	Vch Offset (V)
VCHFILTER	IQUANT	3	Vch Filter
ACHRANGE	IQUANT	2	Ach Range
ACHOFFSETENABLE	TOGGLE	F	Ach Offset Enable
ACHOFFSET	QUANT	0	Ach Offset (V)
ACHFILTER	IQUANT	3	Ach Filter
IERANGELOWERLIMIT	IQUANT	1	I/E Range Lower Limit
IERANGEMODE	TOGGLE	F	I/E AutoRange
IERANGE	IQUANT	5	I/E Range
POSFEEDENABLE	TOGGLE	F	Positive Feedback IR Comp
POSFEEDRESISTANCE	QUANT	0	Positive Feedback Resistance (ohm)
ACHSELECT	IQUANT	0	Ach Select
CABLEID	IQUANT	14	Cable ID
DCCALDATE	LABEL	8/19/2019	DC Calibration Date
ACCALDATE	LABEL	8/19/2019	AC Calibration Date
THERMOSELECT	IQUANT	1	Thermo Select
FRAMEWORKVERSION	QUANT	6.33	Framework Version
INSTRUMENTVERSION	LABEL	3.50	Instrument Version
ZCURVE	TABLE
	Pt	Time	Freq	Zreal	Zimag	Zsig	Zmod	Zphz	Idc	Vdc	IERange
	#	s	Hz	ohm	ohm	V	ohm	°	A	V	#
	0	1	1000078	2057.764	-943.6554	1	2263.82	-24.63538	1.974952E-006	0.0081412	8
	1	1	794390.6	2225.406	-867.7969	1	2388.62	-21.30329	-2.599322E-006	0.0092008	8
	2	2	630984.4	2352.82	-779.3329	1	2478.532	-18.3266	7.902011E-006	0.0071583	8
	3	2	501234.4	2455.572	-684.1409	1	2549.094	-15.56824	-5.338137E-006	0.0090668	8
	4	2	398109.4	2546.293	-612.9489	1	2619.029	-13.53485	4.774096E-006	0.0083178	8
	5	3	316265.6	2609.116	-542.0691	1	2664.832	-11.73678	-4.199504E-006	0.0089443	8
	6	3	251203.1	2663.513	-481.7212	1	2706.724	-10.25166	-2.584921E-007	0.0088138	8
	7	3	199546.9	2710.171	-435.1351	1	2744.88	-9.121353	6.109381E-006	0.0072215	8
	8	4	158578.1	2761.262	-398.6135	1	2789.885	-8.214423	-2.665365E-006	0.0082428	8
	9	4	125953.1	2806.546	-323.4789	1	2825.126	-6.574828	-1.533523E-006	0.0113615	7
	10	4	100078.1	2835.752	-309.5615	1	2852.599	-6.229957	8.069154E-007	0.0080747	7
	11	5	79453.13	2868.037	-308.9409	1	2884.628	-6.148116	6.005732E-007	0.0084699	7
	12	5	63140.62	2900.724	-312.2649	1	2917.483	-6.144269	3.901821E-007	0.0087838	7
	13	5	50203.12	2935.525	-317.0998	1	2952.603	-6.165268	1.101095E-007	0.0069726	7
	14	6	39890.62	2971.365	-328.5533	1	2989.474	-6.309745	1.065052E-006	0.0071875	7
	15	6	31640.63	3005.018	-339.8828	1	3024.178	-6.45302	-1.070969E-006	0.0098708	7
	16	6	25171.88	3043.004	-361.2559	1	3064.373	-6.770288	8.092251E-007	0.0080709	7
	17	7	20015.62	3080.829	-385.2647	1	3104.825	-7.127965	-2.800077E-007	0.0096066	7
	18	7	15890.62	3119.707	-418.7513	1	3147.686	-7.644989	1.048026E-006	0.0068732	7
	19	7	12609.37	3157.449	-458.1152	1	3190.51	-8.255455	-2.813314E-007	0.0096057	7
	20	8	10078.13	3202.655	-511.0162	1	3243.167	-9.065705	9.44742E-007	0.00666	7
	21	8	8015.625	3239.439	-568.7513	1	3288.988	-9.95798	-1.070828E-006	0.0098725	7
	22	8	6328.125	3286.148	-647.5725	1	3349.346	-11.14794	-8.747106E-007	0.0099244	7
	23	8	5015.625	3335.739	-745.1708	1	3417.957	-12.59255	9.875088E-007	0.0075885	7
	24	9	3984.375	3385.462	-863.9012	1	3493.949	-14.31522	1.049902E-006	0.0068689	7
	25	9	3170.956	3436.573	-1008.658	1	3581.54	-16.35733	-7.093631E-007	0.0081341	7
	26	9	2527.573	3490.151	-1186.481	1	3686.311	-18.77552	-6.023141E-007	0.00984	7
	27	10	1976.103	3558.388	-1432.528	1	3835.917	-21.92862	1.068084E-006	0.0071777	7
	28	10	1577.524	3620.054	-1711.303	1	4004.167	-25.30144	4.695085E-007	0.0066726	7
	29	10	1265.625	3693.677	-2048.866	1	4223.873	-29.01694	4.691366E-007	0.0066742	7
	30	11	998.264	3788.708	-2494.371	1	4536.099	-33.3597	-1.022791E-006	0.0087869	7
	31	11	796.875	3893.176	-3025.033	1	4930.279	-37.84753	7.778794E-008	0.0091995	7
	32	11	627.7902	4030.406	-3716.167	1	5482.159	-42.67708	7.836578E-008	0.0092059	7
	33	12	505.5147	4180.211	-4500.939	1	6142.688	-47.11585	1.06865E-006	0.0071776	7
	34	12	397.9953	4397.274	-5541.906	1	7074.514	-51.56945	3.626039E-009	0.008304	7
	35	12	315.5048	4662.286	-6799.86	1	8244.695	-55.56374	2.12156E-010	0.0083108	7
	36	13	252.4038	4987.362	-8277.425	1	9663.83	-58.92995	4.824421E-009	0.0083019	7
	37	13	198.6229	5443.695	-10222.78	1	11581.84	-61.96442	1.024396E-010	0.0082413	6
	38	13	158.3615	6006.034	-12466.87	1	13838.18	-64.27711	9.573934E-010	0.0082418	6
	39	14	125.558	6752.102	-15266.56	1	16693.07	-66.14113	1.84521E-010	0.0082392	6
	40	14	100.4464	7716.839	-18519.07	1	20062.54	-67.37865	1.109633E-009	0.0082376	6
	41	14	79.00281	9060.539	-22795.86	1	24530.48	-68.32394	6.056423E-010	0.0082447	6
	42	15	63.3446	10467.14	-27247.04	1	29188.39	-68.98537	-8.822213E-010	0.0082477	6
	43	15	49.86702	12852.4	-33265.52	1	35662.01	-68.87557	-7.629096E-010	0.0082352	6
	44	15	39.72458	15906.01	-40227.34	1	43257.83	-68.42602	1.432618E-010	0.0082451	6
	45	16	31.6723	19726.27	-48165.07	1	52048.06	-67.72817	6.113181E-010	0.0082325	6
	46	16	24.93351	24938.05	-57556.62	1	62726.95	-66.57395	6.251584E-010	0.0082388	6
	47	16	19.86229	31078.97	-67713.41	1	74505.09	-65.34592	2.204322E-009	0.0082481	6
	48	17	15.83615	38162.4	-79441.8	1	88132.68	-64.34122	-3.341255E-010	0.0082427	6
	49	17	12.40079	48130.84	-93138.47	1	104839.6	-62.67159	-4.71038E-010	0.008245	5
	50	17	9.93114	59184.4	-105776.1	1	121208	-60.77187	-1.642657E-009	0.0082483	5
	51	18	7.944915	71036.23	-120332.8	1	139736	-59.44532	-4.999233E-010	0.0082432	5
	52	18	6.317385	84287.6	-137224.1	1	161043	-58.44037	-2.038747E-010	0.0082461	5
	53	19	5.008013	98830.6	-156276	1	184904.5	-57.69031	-2.976727E-010	0.0082305	5
	54	20	3.945707	114623.1	-179405.5	1	212896.1	-57.42528	2.258557E-010	0.0082406	5
	55	22	3.158693	130492	-204355.3	1	242465	-57.43956	-2.635849E-010	0.0082569	5
	56	23	2.504006	148212.7	-236132.9	1	278793.4	-57.88488	-2.849604E-010	0.0082474	5
	57	25	1.998082	167395	-272647.9	1	319934.3	-58.45172	6.145248E-012	0.0082845	5
	58	26	1.584686	188778.2	-318962.8	1	370640.6	-59.38083	-8.970125E-014	0.0082801	5
	59	28	1.266892	212856.2	-371247	1	427939.3	-60.17199	-2.454876E-010	0.0082417	5
	60	31	0.999041	243565.2	-439901.3	1	502829.1	-61.02752	-1.332366E-010	0.0082137	5
