EXPLAIN
TAG	EISPOT
TITLE	LABEL	Potentiostatic EIS	Test &Identifier
DATE	LABEL	9/20/2019	Date
TIME	LABEL	10:16:47	Time
NOTES	NOTES	1	&Notes...
	
PSTAT	PSTAT	REF600-11020	Potentiostat
VDC	POTEN	0.00000E+000	T	DC &Voltage (V)
FREQINIT	QUANT	1.00000E+006	Initial Fre&q. (Hz)
FREQFINAL	QUANT	1.00000E+000	Final Fre&q. (Hz)
PTSPERDEC	QUANT	1.00000E+001	Points/&decade
VAC	QUANT	2.50000E+001	AC &Voltage (mV rms)
AREA	QUANT	1.00000E-002	&Area (cm^2)
CONDIT	TWOPARAM	T	5.00000E+000	0.00000E+000	Conditionin&g	Time(s)	E(V)
DELAY	TWOPARAM	T	5.00000E+000	0.00000E+000	Init. De&lay	Time(s)	Stab.(mV/s)
SPEED	SELECTOR	1	&Optimize for:
ZGUESS	QUANT	1.00000E+004	E&stimated Z (ohms)
OCVCURVE	TABLE	19
	Pt	T	Vf	Vm	Ach	Over
	#	s	V vs. Ref.	V	V	bits
	0	0.258333	-2.42617E-003	-2.42617E-003	5.80266E-004	...........
	1	0.516667	-2.43392E-003	-2.83217E-003	5.83332E-004	...........
	2	0.775	-2.48145E-003	-3.21172E-003	5.78366E-004	...........
	3	1.03333	-2.61509E-003	-3.55157E-003	5.81965E-004	...........
	4	1.29167	-2.84985E-003	-3.79056E-003	5.80032E-004	...........
	5	1.55	-3.14943E-003	-4.03823E-003	5.81099E-004	...........
	6	1.80833	-3.45907E-003	-4.22718E-003	5.80232E-004	...........
	7	2.06667	-3.74376E-003	-4.48571E-003	5.80065E-004	...........
	8	2.325	-3.99771E-003	-4.69189E-003	5.79232E-004	...........
	9	2.58333	-4.23104E-003	-4.88247E-003	5.80699E-004	...........
	10	2.84167	-4.45190E-003	-5.05763E-003	5.78466E-004	...........
	11	3.1	-4.66089E-003	-5.23534E-003	5.74665E-004	...........
	12	3.35833	-4.85670E-003	-5.39129E-003	5.77932E-004	...........
	13	3.61667	-5.03986E-003	-5.54213E-003	5.78865E-004	...........
	14	3.875	-5.21123E-003	-5.66717E-003	5.80032E-004	...........
	15	4.13333	-5.37026E-003	-5.77614E-003	5.74432E-004	...........
	16	4.39167	-5.51552E-003	-5.89504E-003	5.77332E-004	...........
	17	4.65	-5.64789E-003	-6.03642E-003	5.70499E-004	...........
	18	4.90833	-5.77266E-003	-6.15515E-003	5.71466E-004	...........
EOC	QUANT	-0.0057727	Open Circuit (V)
PSTATMODEL	IQUANT	4	Pstat Model
PSTATSECTION	LABEL	REF600-11020	Pstat Section
PSTATSERIALNO	LABEL	11020	Pstat Serial Number
CTRLMODE	IQUANT	1	Control Mode
IESTAB	IQUANT	0	I/E Stability
CASPEED	IQUANT	1	Control Amp Speed
CONVENTION	IQUANT	1	Current Convention
ICHRANGE	IQUANT	2	Ich Range
ICHRANGEMODE	TOGGLE	F	Ich Auto Range
ICHOFFSETENABLE	TOGGLE	T	Ich Offset Enable
ICHOFFSET	QUANT	0	Ich Offset (V)
ICHFILTER	IQUANT	3	Ich Filter
VCHRANGE	IQUANT	2	Vch Range
VCHRANGEMODE	TOGGLE	F	Vch Auto Range
VCHOFFSETENABLE	TOGGLE	T	Vch Offset Enable
VCHOFFSET	QUANT	0	Vch Offset (V)
VCHFILTER	IQUANT	3	Vch Filter
ACHRANGE	IQUANT	2	Ach Range
ACHOFFSETENABLE	TOGGLE	F	Ach Offset Enable
ACHOFFSET	QUANT	0	Ach Offset (V)
ACHFILTER	IQUANT	3	Ach Filter
IERANGELOWERLIMIT	IQUANT	1	I/E Range Lower Limit
IERANGEMODE	TOGGLE	F	I/E AutoRange
IERANGE	IQUANT	6	I/E Range
POSFEEDENABLE	TOGGLE	F	Positive Feedback IR Comp
POSFEEDRESISTANCE	QUANT	0	Positive Feedback Resistance (ohm)
ACHSELECT	IQUANT	0	Ach Select
CABLEID	IQUANT	14	Cable ID
DCCALDATE	LABEL	8/19/2019	DC Calibration Date
ACCALDATE	LABEL	8/19/2019	AC Calibration Date
THERMOSELECT	IQUANT	1	Thermo Select
FRAMEWORKVERSION	QUANT	6.33	Framework Version
INSTRUMENTVERSION	LABEL	3.50	Instrument Version
ZCURVE	TABLE
	Pt	Time	Freq	Zreal	Zimag	Zsig	Zmod	Zphz	Idc	Vdc	IERange
	#	s	Hz	ohm	ohm	V	ohm	°	A	V	#
	0	1	1000078	2156.036	-1824.873	1	2824.65	-40.24464	1.007296E-005	-0.0049477	8
	1	2	794390.6	2508.386	-1893.413	1	3142.771	-37.04672	-1.410708E-006	-0.0044437	8
	2	4	630984.4	2856.658	-1904.444	1	3433.279	-33.69013	-3.670006E-006	-0.003165	8
	3	5	501234.4	3201.94	-1860.761	1	3703.357	-30.1624	3.391389E-007	-0.004175	8
	4	6	398109.4	3579.462	-1767.144	1	3991.91	-26.27509	6.842585E-007	-0.0040421	8
	5	8	316265.6	3873.365	-1660.755	1	4214.387	-23.20786	-2.50484E-007	-0.004037	8
	6	9	251203.1	4167.894	-1557.028	1	4449.233	-20.48452	2.246795E-006	-0.0046391	8
	7	11	199546.9	4368.446	-1399.78	1	4587.233	-17.76701	1.36522E-006	-0.0044666	8
	8	12	158578.1	4563.326	-1255.33	1	4732.843	-15.3811	6.5131E-007	-0.0040811	8
	9	14	125953.1	4763.736	-1042.456	1	4876.463	-12.34355	-2.525787E-007	-0.0035327	7
	10	15	100078.1	4876.243	-916.1885	1	4961.567	-10.64114	8.097743E-008	-0.0042443	7
	11	17	79453.13	4974.6	-814.4523	1	5040.831	-9.298096	-4.787608E-008	-0.0041069	7
	12	18	63140.62	5052.476	-725.2615	1	5104.264	-8.168765	-1.291506E-008	-0.0040675	7
	13	19	50203.12	5115.66	-657.0454	1	5157.683	-7.318889	-1.162894E-008	-0.0041597	7
	14	21	39890.62	5177.09	-606.7399	1	5212.523	-6.684405	-3.399916E-008	-0.0042028	7
	15	22	31640.63	5221.645	-566.709	1	5252.308	-6.19411	-5.42496E-009	-0.0041689	7
	16	23	25171.88	5265.592	-546.8327	1	5293.911	-5.928924	-7.632212E-008	-0.0040951	7
	17	25	20015.62	5309.119	-538.8578	1	5336.395	-5.795483	-9.213005E-009	-0.0042656	7
	18	26	15890.62	5351.994	-547.0128	1	5379.875	-5.835782	-1.208838E-008	-0.0041693	7
	19	27	12609.37	5398.942	-569.6978	1	5428.917	-6.023575	1.385165E-007	-0.0044208	7
	20	29	10078.13	5443.829	-608.6912	1	5477.753	-6.379917	-1.179616E-008	-0.0041762	7
	21	30	8015.625	5490.543	-657.9496	1	5529.825	-6.833354	1.384353E-007	-0.0044182	7
	22	31	6328.125	5537.867	-733.2538	1	5586.2	-7.542503	1.532004E-008	-0.0042953	7
	23	33	5015.625	5591.503	-827.2926	1	5652.373	-8.416158	1.391322E-007	-0.0044213	7
	24	34	3984.375	5644.396	-947.4249	1	5723.357	-9.52841	-3.354755E-008	-0.0042038	7
	25	35	3170.956	5705.161	-1098.903	1	5810.03	-10.90254	7.3653E-008	-0.0043513	7
	26	37	2527.573	5773.176	-1285.935	1	5914.659	-12.55724	-9.949028E-009	-0.0040809	7
	27	38	1976.103	5852.301	-1534.804	1	6050.21	-14.69526	-3.947354E-008	-0.0042117	7
	28	40	1577.524	5934.651	-1816.465	1	6206.418	-17.01819	-4.501664E-008	-0.0042012	7
	29	41	1265.625	6019.867	-2156.603	1	6394.508	-19.70994	-4.836444E-008	-0.0040678	7
	30	42	998.264	6149.23	-2597.34	1	6675.269	-22.89844	8.411934E-008	-0.0044028	7
	31	44	796.875	6275.765	-3112.883	1	7005.374	-26.38217	-3.84284E-008	-0.0042095	7
	32	45	627.7902	6426.451	-3789.824	1	7460.699	-30.52882	-1.153936E-008	-0.0041781	7
	33	46	505.5147	6588.39	-4534.824	1	7998.219	-34.53984	7.1721E-008	-0.0043496	7
	34	48	397.9953	6792.46	-5551.404	1	8772.435	-39.25875	5.665041E-009	-0.0042022	7
	35	49	315.5048	7027.721	-6772.836	1	9760.13	-43.94191	2.011098E-009	-0.0042684	6
	36	50	252.4038	7294.097	-8222.061	1	10991.18	-48.42257	8.923755E-010	-0.004275	6
	37	52	198.6229	7645.429	-10146.76	1	12704.7	-53.00253	1.6001E-009	-0.0042759	6
	38	53	158.3615	8057.552	-12402.78	1	14790.3	-56.98994	1.926268E-009	-0.0042729	6
	39	54	125.558	8588.293	-15243.97	1	17496.78	-60.60354	1.840456E-009	-0.004269	6
	40	56	100.4464	9236.928	-18586.08	1	20754.84	-63.5735	1.691849E-009	-0.0042719	6
	41	57	79.00281	10184	-23058.87	1	25207.64	-66.17125	2.034728E-009	-0.0042722	6
	42	58	63.3446	11179.72	-27880.71	1	30038.65	-68.14999	9.780131E-010	-0.004272	6
	43	60	49.86702	12951.7	-34755.35	1	37090.18	-69.56191	1.284226E-009	-0.0042736	6
	44	61	39.72458	14758.74	-42491.48	1	44981.62	-70.84615	1.169565E-009	-0.0042673	6
	45	63	31.6723	17371.35	-51920.1	1	54749.07	-71.50087	5.445673E-010	-0.004274	6
	46	64	24.93351	21116.32	-63773.13	1	67178.21	-71.67945	7.120444E-010	-0.00427	6
	47	65	19.86229	25759.02	-77511.55	1	81679.67	-71.61707	5.373524E-010	-0.0042795	6
	48	67	15.83615	32404.23	-93497.68	1	98953.8	-70.88481	1.791377E-009	-0.0042754	6
	49	68	12.40079	41283.18	-114284	1	121511.9	-70.1386	2.95238E-010	-0.0042624	5
	50	69	9.93114	52116.96	-136582.7	1	146188.3	-69.11423	1.070369E-009	-0.0042598	5
	51	71	7.944915	66351.23	-161626.5	1	174715.8	-67.68078	1.861194E-009	-0.004269	5
	52	73	6.317385	85234.9	-190927	1	209088.8	-65.94275	1.794324E-009	-0.004276	5
	53	75	5.008013	109351.6	-223861.9	1	249142.3	-63.96552	1.315516E-009	-0.0042605	5
	54	77	3.945707	139961	-260784.8	1	295969.3	-61.77792	8.700667E-010	-0.0042756	5
	55	80	3.158693	174622	-297230.3	1	344729.8	-59.56587	1.136085E-009	-0.0042728	5
	56	83	2.504006	216347.7	-336923.8	1	400404.7	-57.29441	7.905768E-010	-0.0042577	5
	57	86	1.998082	261598.8	-376444.2	1	458414.8	-55.20377	1.314111E-009	-0.0042939	5
	58	89	1.584686	315018.7	-420067.7	1	525065.4	-53.1329	8.613582E-010	-0.0043222	5
	59	93	1.266892	369004.3	-463055.3	1	592101.6	-51.449	1.258905E-009	-0.0042863	5
	60	97	0.999041	433238.9	-514298.6	1	672457.4	-49.88962	3.605207E-010	-0.004277	5
