EXPLAIN
TAG	EISPOT
TITLE	LABEL	Potentiostatic EIS	Test &Identifier
DATE	LABEL	11/27/2019	Date
TIME	LABEL	12:23:24	Time
NOTES	NOTES	3	&Notes...
	
	
	
PSTAT	PSTAT	REF600-11020	Potentiostat
VDC	POTEN	0.00000E+000	T	DC &Voltage (V)
FREQINIT	QUANT	1.00000E+006	Initial Fre&q. (Hz)
FREQFINAL	QUANT	1.00000E+000	Final Fre&q. (Hz)
PTSPERDEC	QUANT	1.00000E+001	Points/&decade
VAC	QUANT	2.50000E+001	AC &Voltage (mV rms)
AREA	QUANT	1.00000E-002	&Area (cm^2)
CONDIT	TWOPARAM	T	5.00000E+000	0.00000E+000	Conditionin&g	Time(s)	E(V)
DELAY	TWOPARAM	T	5.00000E+000	0.00000E+000	Init. De&lay	Time(s)	Stab.(mV/s)
SPEED	SELECTOR	0	&Optimize for:
ZGUESS	QUANT	1.00000E+005	E&stimated Z (ohms)
OCVCURVE	TABLE	19
	Pt	T	Vf	Vm	Ach	Over
	#	s	V vs. Ref.	V	V	bits
	0	0.258333	3.46782E-003	3.46782E-003	6.18065E-004	...........
	1	0.516667	3.46304E-003	3.21795E-003	6.02198E-004	...........
	2	0.775	3.43421E-003	3.00611E-003	5.96265E-004	...........
	3	1.03333	3.35439E-003	2.81123E-003	6.09898E-004	...........
	4	1.29167	3.21555E-003	2.63446E-003	6.11398E-004	...........
	5	1.55	3.03738E-003	2.47972E-003	6.00132E-004	...........
	6	1.80833	2.84829E-003	2.33306E-003	6.01399E-004	...........
	7	2.06667	2.66768E-003	2.20107E-003	6.05865E-004	...........
	8	2.325	2.50260E-003	2.06407E-003	6.18765E-004	...........
	9	2.58333	2.35208E-003	1.94254E-003	5.95865E-004	...........
	10	2.84167	2.21326E-003	1.86661E-003	5.96299E-004	...........
	11	3.1	2.08575E-003	1.74555E-003	6.04232E-004	...........
	12	3.35833	1.96942E-003	1.63696E-003	6.07332E-004	...........
	13	3.61667	1.86040E-003	1.53091E-003	5.91532E-004	...........
	14	3.875	1.75401E-003	1.44799E-003	5.95432E-004	...........
	15	4.13333	1.64990E-003	1.36604E-003	6.06332E-004	...........
	16	4.39167	1.55093E-003	1.28085E-003	6.05698E-004	...........
	17	4.65	1.45837E-003	1.18477E-003	5.96799E-004	...........
	18	4.90833	1.37041E-003	1.12218E-003	6.06298E-004	...........
EOC	QUANT	0.0013704	Open Circuit (V)
PSTATMODEL	IQUANT	4	Pstat Model
PSTATSECTION	LABEL	REF600-11020	Pstat Section
PSTATSERIALNO	LABEL	11020	Pstat Serial Number
CTRLMODE	IQUANT	1	Control Mode
IESTAB	IQUANT	0	I/E Stability
CASPEED	IQUANT	1	Control Amp Speed
CONVENTION	IQUANT	1	Current Convention
ICHRANGE	IQUANT	2	Ich Range
ICHRANGEMODE	TOGGLE	F	Ich Auto Range
ICHOFFSETENABLE	TOGGLE	T	Ich Offset Enable
ICHOFFSET	QUANT	0	Ich Offset (V)
ICHFILTER	IQUANT	3	Ich Filter
VCHRANGE	IQUANT	2	Vch Range
VCHRANGEMODE	TOGGLE	F	Vch Auto Range
VCHOFFSETENABLE	TOGGLE	T	Vch Offset Enable
VCHOFFSET	QUANT	0	Vch Offset (V)
VCHFILTER	IQUANT	3	Vch Filter
ACHRANGE	IQUANT	2	Ach Range
ACHOFFSETENABLE	TOGGLE	F	Ach Offset Enable
ACHOFFSET	QUANT	0	Ach Offset (V)
ACHFILTER	IQUANT	3	Ach Filter
IERANGELOWERLIMIT	IQUANT	1	I/E Range Lower Limit
IERANGEMODE	TOGGLE	F	I/E AutoRange
IERANGE	IQUANT	4	I/E Range
POSFEEDENABLE	TOGGLE	F	Positive Feedback IR Comp
POSFEEDRESISTANCE	QUANT	0	Positive Feedback Resistance (ohm)
ACHSELECT	IQUANT	0	Ach Select
CABLEID	IQUANT	14	Cable ID
DCCALDATE	LABEL	8/19/2019	DC Calibration Date
ACCALDATE	LABEL	8/19/2019	AC Calibration Date
THERMOSELECT	IQUANT	1	Thermo Select
FRAMEWORKVERSION	QUANT	6.33	Framework Version
INSTRUMENTVERSION	LABEL	3.50	Instrument Version
ZCURVE	TABLE
	Pt	Time	Freq	Zreal	Zimag	Zsig	Zmod	Zphz	Idc	Vdc	IERange
	#	s	Hz	ohm	ohm	V	ohm	°	A	V	#
	0	1	1000078	2092.994	-1620.073	1	2646.746	-37.74152	-3.690686E-007	0.0039942	8
	1	1	794390.6	2407.802	-1580.668	1	2880.282	-33.284	4.705893E-006	0.0031343	8
	2	1	630984.4	2712.449	-1482.089	1	3090.949	-28.6523	-1.740172E-006	0.0027094	8
	3	2	501234.4	2978.547	-1349.53	1	3270.011	-24.37449	-1.878136E-006	0.003085	8
	4	2	398109.4	3193.808	-1203.085	1	3412.89	-20.64104	-5.215591E-006	0.0036577	8
	5	2	316265.6	3361.497	-1061.341	1	3525.069	-17.52271	-2.064093E-006	0.0033136	8
	6	3	251203.1	3492.109	-918.4489	1	3610.868	-14.73548	6.265328E-006	0.0021396	8
	7	3	199546.9	3601.6	-802.4993	1	3689.922	-12.5613	-5.185881E-006	0.0035718	8
	8	3	158578.1	3678.553	-694.1739	1	3743.479	-10.68652	1.754765E-006	0.0024257	8
	9	4	125953.1	3750.661	-561.8842	1	3792.515	-8.520084	-2.805187E-006	0.0063562	7
	10	4	100078.1	3787.818	-492.0296	1	3819.641	-7.40116	-2.554436E-007	0.0040018	7
	11	4	79453.13	3832.059	-452.1539	1	3858.642	-6.729353	8.745481E-007	0.0012713	7
	12	5	63140.62	3863.456	-413.948	1	3885.569	-6.115596	5.848842E-008	0.0036434	7
	13	5	50203.12	3890.9	-391.2111	1	3910.518	-5.741516	-5.525479E-007	0.0042078	7
	14	5	39890.62	3924.22	-380.5173	1	3942.626	-5.538447	9.077355E-007	0.0021365	7
	15	6	31640.63	3953.57	-376.1378	1	3971.423	-5.434692	7.529737E-007	0.0025744	7
	16	6	25171.88	3982.553	-384.7866	1	4001.098	-5.518678	6.964113E-007	0.0011932	7
	17	6	20015.62	4015.82	-401.5276	1	4035.843	-5.709826	-9.358909E-007	0.0032426	7
	18	7	15890.62	4038.757	-440.5095	1	4062.709	-6.224678	4.271996E-007	0.0012956	7
	19	7	12609.37	4063.758	-478.9427	1	4091.884	-6.721705	7.512594E-007	0.0025721	7
	20	7	10078.13	4101.404	-540.2377	1	4136.831	-7.503812	4.345553E-007	0.0012819	7
	21	7	8015.625	4120.878	-618.9708	1	4167.105	-8.542174	-6.563699E-007	0.0026424	7
	22	8	6328.125	4149.697	-724.8202	1	4212.523	-9.9078	-9.401242E-007	0.0032532	7
	23	8	5015.625	4198.963	-854.2892	1	4284.985	-11.50001	9.152161E-007	0.0021347	7
	24	8	3984.375	4241.922	-1013.45	1	4361.306	-13.43682	-5.525089E-007	0.0042076	7
	25	9	3170.956	4286.611	-1210.707	1	4454.306	-15.77176	4.347335E-007	0.0012824	7
	26	9	2527.573	4340.126	-1456.338	1	4577.949	-18.54928	1.037274E-007	0.001539	7
	27	9	1976.103	4409.58	-1792.804	1	4760.099	-22.1252	-1.090068E-006	0.0037488	7
	28	10	1577.524	4482.411	-2174.72	1	4982.109	-25.88116	9.748086E-007	0.0014613	7
	29	10	1265.625	4568.15	-2608.521	1	5260.455	-29.72738	-1.098868E-006	0.0040815	7
	30	10	998.264	4684.927	-3220.116	1	5684.865	-34.50211	7.442517E-007	0.0025722	7
	31	11	796.875	4809.999	-3918.736	1	6204.239	-39.16992	5.537215E-007	0.0029516	7
	32	11	627.7902	4994.7	-4807.104	1	6932.191	-43.90356	7.485116E-007	0.0025767	7
	33	11	505.5147	5160.917	-5843.219	1	7796.042	-48.54803	9.144079E-007	0.0021257	7
	34	12	397.9953	5431.651	-7210.574	1	9027.47	-53.00966	-5.050907E-011	0.0028016	7
	35	12	315.5048	5753.833	-8865.868	1	10569.31	-57.01695	9.727373E-011	0.0027399	6
	36	12	252.4038	6143.558	-10816.3	1	12439.28	-60.40383	-6.497921E-010	0.0027372	6
	37	13	198.6229	6683.76	-13393.18	1	14968.3	-63.47888	3.191068E-010	0.0027374	6
	38	13	158.3615	7366.419	-16390.53	1	17969.8	-65.79935	1.074809E-009	0.0027353	6
	39	13	125.558	8276.394	-20137.34	1	21771.8	-67.65747	9.707166E-010	0.0027275	6
	40	14	100.4464	9413.491	-24486.57	1	26233.68	-68.9715	2.164141E-010	0.0027321	6
	41	14	79.00281	11104.83	-30138.81	1	32119.54	-69.77338	6.996512E-010	0.0027277	6
	42	14	63.3446	13397.6	-37032.68	1	39381.66	-70.111	4.345072E-010	0.002722	6
	43	15	49.86702	16222.63	-45136.71	1	47963.5	-70.231	1.359236E-009	0.0027329	6
	44	15	39.72458	20077.37	-53942.06	1	57557.33	-69.58461	7.431413E-010	0.0027295	6
	45	15	31.6723	24926.8	-64455.28	1	69107.38	-68.85701	5.773846E-010	0.0027275	6
	46	16	24.93351	31711.23	-77624.98	1	83852.48	-67.77908	1.273782E-009	0.0027262	6
	47	16	19.86229	39890.22	-91717.46	1	100016.6	-66.49458	1.249433E-009	0.0027409	6
	48	16	15.83615	50371.79	-107519.3	1	118733.8	-64.89734	-3.358902E-010	0.0027262	5
	49	17	12.40079	62553.23	-125315.2	1	140060	-63.47313	-1.359252E-009	0.002733	5
	50	17	9.93114	76427.48	-145925.2	1	164728	-62.35696	5.246845E-010	0.0027303	5
	51	17	7.944915	91759.53	-166925.8	1	190483.7	-61.2023	1.425492E-009	0.0027264	5
	52	18	6.317385	110878.3	-191151.5	1	220981.7	-59.88393	8.739222E-010	0.0027124	5
	53	19	5.008013	132166.1	-219585.8	1	256292.4	-58.95675	3.513798E-010	0.002731	5
	54	20	3.945707	157084.2	-252700.4	1	297544.8	-58.134	2.400573E-010	0.0027346	5
	55	21	3.158693	183034.7	-288908.5	1	342008.5	-57.64417	-1.804963E-011	0.0027185	5
	56	23	2.504006	213974.1	-331199	1	394306.6	-57.13515	2.158142E-010	0.002718	5
	57	24	1.998082	247431.6	-379082.4	1	452687.3	-56.86703	3.484316E-010	0.0027516	5
	58	26	1.584686	286188.3	-433712.3	1	519625	-56.58089	1.703305E-010	0.0027068	5
	59	28	1.266892	329653.8	-496717.9	1	596154.6	-56.4292	9.486472E-011	0.0026835	5
	60	30	0.999041	379707.5	-574796.6	1	688889.6	-56.55147	6.107236E-011	0.002684	5
