EXPLAIN
TAG	EISPOT
TITLE	LABEL	Potentiostatic EIS	Test &Identifier
DATE	LABEL	10/18/2019	Date
TIME	LABEL	9:32:18	Time
NOTES	NOTES	1	&Notes...
	
PSTAT	PSTAT	REF600-11020	Potentiostat
VDC	POTEN	0.00000E+000	T	DC &Voltage (V)
FREQINIT	QUANT	1.00000E+006	Initial Fre&q. (Hz)
FREQFINAL	QUANT	1.00000E+000	Final Fre&q. (Hz)
PTSPERDEC	QUANT	1.00000E+001	Points/&decade
VAC	QUANT	2.50000E+001	AC &Voltage (mV rms)
AREA	QUANT	1.00000E-002	&Area (cm^2)
CONDIT	TWOPARAM	T	5.00000E+000	0.00000E+000	Conditionin&g	Time(s)	E(V)
DELAY	TWOPARAM	T	5.00000E+000	0.00000E+000	Init. De&lay	Time(s)	Stab.(mV/s)
SPEED	SELECTOR	0	&Optimize for:
ZGUESS	QUANT	1.00000E+005	E&stimated Z (ohms)
OCVCURVE	TABLE	19
	Pt	T	Vf	Vm	Ach	Over
	#	s	V vs. Ref.	V	V	bits
	0	0.258333	3.06664E-003	3.06664E-003	5.35933E-004	...........
	1	0.516667	3.06458E-003	2.95872E-003	5.38333E-004	...........
	2	0.775	3.05210E-003	2.86582E-003	5.31233E-004	...........
	3	1.03333	3.01722E-003	2.76770E-003	5.29366E-004	...........
	4	1.29167	2.95535E-003	2.68061E-003	5.24766E-004	...........
	5	1.55	2.87375E-003	2.60759E-003	5.32500E-004	...........
	6	1.80833	2.78481E-003	2.53901E-003	5.27700E-004	...........
	7	2.06667	2.69855E-003	2.47722E-003	5.31466E-004	...........
	8	2.325	2.61978E-003	2.42025E-003	5.31233E-004	...........
	9	2.58333	2.54913E-003	2.36543E-003	5.29700E-004	...........
	10	2.84167	2.48554E-003	2.32850E-003	5.30366E-004	...........
	11	3.1	2.42824E-003	2.27912E-003	5.30700E-004	...........
	12	3.35833	2.37637E-003	2.22591E-003	5.32133E-004	...........
	13	3.61667	2.32795E-003	2.19006E-003	5.33133E-004	...........
	14	3.875	2.28126E-003	2.14929E-003	5.38999E-004	...........
	15	4.13333	2.23605E-003	2.09758E-003	5.38399E-004	...........
	16	4.39167	2.19210E-003	2.05925E-003	5.38299E-004	...........
	17	4.65	2.14881E-003	2.03029E-003	5.39899E-004	...........
	18	4.90833	2.10686E-003	1.99271E-003	5.41466E-004	...........
EOC	QUANT	0.0021069	Open Circuit (V)
PSTATMODEL	IQUANT	4	Pstat Model
PSTATSECTION	LABEL	REF600-11020	Pstat Section
PSTATSERIALNO	LABEL	11020	Pstat Serial Number
CTRLMODE	IQUANT	1	Control Mode
IESTAB	IQUANT	0	I/E Stability
CASPEED	IQUANT	1	Control Amp Speed
CONVENTION	IQUANT	1	Current Convention
ICHRANGE	IQUANT	2	Ich Range
ICHRANGEMODE	TOGGLE	F	Ich Auto Range
ICHOFFSETENABLE	TOGGLE	T	Ich Offset Enable
ICHOFFSET	QUANT	0	Ich Offset (V)
ICHFILTER	IQUANT	3	Ich Filter
VCHRANGE	IQUANT	2	Vch Range
VCHRANGEMODE	TOGGLE	F	Vch Auto Range
VCHOFFSETENABLE	TOGGLE	T	Vch Offset Enable
VCHOFFSET	QUANT	0	Vch Offset (V)
VCHFILTER	IQUANT	3	Vch Filter
ACHRANGE	IQUANT	2	Ach Range
ACHOFFSETENABLE	TOGGLE	F	Ach Offset Enable
ACHOFFSET	QUANT	0	Ach Offset (V)
ACHFILTER	IQUANT	3	Ach Filter
IERANGELOWERLIMIT	IQUANT	1	I/E Range Lower Limit
IERANGEMODE	TOGGLE	F	I/E AutoRange
IERANGE	IQUANT	4	I/E Range
POSFEEDENABLE	TOGGLE	F	Positive Feedback IR Comp
POSFEEDRESISTANCE	QUANT	0	Positive Feedback Resistance (ohm)
ACHSELECT	IQUANT	0	Ach Select
CABLEID	IQUANT	14	Cable ID
DCCALDATE	LABEL	8/19/2019	DC Calibration Date
ACCALDATE	LABEL	8/19/2019	AC Calibration Date
THERMOSELECT	IQUANT	1	Thermo Select
FRAMEWORKVERSION	QUANT	6.33	Framework Version
INSTRUMENTVERSION	LABEL	3.50	Instrument Version
ZCURVE	TABLE
	Pt	Time	Freq	Zreal	Zimag	Zsig	Zmod	Zphz	Idc	Vdc	IERange
	#	s	Hz	ohm	ohm	V	ohm	°	A	V	#
	0	1	1000078	2006.746	-661.4764	1	2112.955	-18.24359	4.625845E-006	0.0033284	8
	1	1	794390.6	2084.242	-569.3961	1	2160.619	-15.27985	-1.887546E-007	0.0036345	8
	2	2	630984.4	2158.274	-492.6176	1	2213.779	-12.85729	-3.231645E-006	0.0044993	8
	3	2	501234.4	2213.097	-422.6031	1	2253.085	-10.81079	-2.892983E-006	0.0042291	8
	4	2	398109.4	2249.275	-359.1251	1	2277.764	-9.071428	9.118531E-009	0.0038088	8
	5	3	316265.6	2278.485	-318.2101	1	2300.598	-7.950428	-7.126321E-007	0.0039476	8
	6	3	251203.1	2299.573	-274.9255	1	2315.949	-6.817636	-6.714415E-007	0.0039197	8
	7	3	199546.9	2326.662	-240.6287	1	2339.073	-5.904666	8.40742E-007	0.0033923	8
	8	4	158578.1	2344.39	-218.3902	1	2354.541	-5.321992	3.907719E-006	0.0029803	8
	9	4	125953.1	2374.431	-169.8155	1	2380.496	-4.090737	6.922266E-007	0.0020858	7
	10	4	100078.1	2382.272	-154.6873	1	2387.289	-3.715152	4.266702E-009	0.0035907	7
	11	5	79453.13	2396.008	-156.3573	1	2401.104	-3.733682	-1.120728E-008	0.0035509	7
	12	5	63140.62	2410.328	-160.7558	1	2415.682	-3.815667	-5.356303E-008	0.00373	7
	13	5	50203.12	2426.23	-168.2495	1	2432.057	-3.966886	-3.718112E-008	0.0035993	7
	14	6	39890.62	2442.957	-177.941	1	2449.429	-4.165974	-4.164421E-008	0.0036038	7
	15	6	31640.63	2461.301	-190.1143	1	2468.633	-4.416836	-3.866877E-008	0.003589	7
	16	6	25171.88	2479.405	-205.9097	1	2487.941	-4.747406	-3.884224E-008	0.0036165	7
	17	6	20015.62	2495.56	-228.6331	1	2506.011	-5.234595	-1.422481E-008	0.0035451	7
	18	7	15890.62	2520.071	-250.8974	1	2532.53	-5.685613	7.013203E-008	0.0035363	7
	19	7	12609.37	2541.77	-282.0441	1	2557.37	-6.331847	6.196532E-008	0.0034671	7
	20	7	10078.13	2565.207	-318.5955	1	2584.916	-7.079811	-3.889689E-008	0.0036155	7
	21	8	8015.625	2585.049	-367.994	1	2611.111	-8.101891	-3.529009E-008	0.0035999	7
	22	8	6328.125	2618.033	-423.0567	1	2651.994	-9.179267	7.264808E-008	0.0035313	7
	23	8	5015.625	2647.627	-493.1139	1	2693.156	-10.55031	7.23731E-008	0.0034164	7
	24	9	3984.375	2679.87	-585.0958	1	2742.998	-12.31612	7.292321E-008	0.0035302	7
	25	9	3170.956	2715.983	-681.9317	1	2800.284	-14.09452	-4.986382E-008	0.0037117	7
	26	9	2527.573	2754.635	-808.0331	1	2870.703	-16.3483	-5.207662E-008	0.0037083	7
	27	10	1976.103	2802.461	-975.484	1	2967.382	-19.19205	-4.16174E-008	0.0035873	7
	28	10	1577.524	2850.275	-1156.857	1	3076.099	-22.09104	-2.283045E-008	0.003702	7
	29	10	1265.625	2906.564	-1395.336	1	3224.14	-25.64397	-3.466491E-008	0.0035785	7
	30	11	998.264	2975.313	-1698.925	1	3426.199	-29.72668	-6.734851E-008	0.0036856	7
	31	11	796.875	3050.601	-2052.272	1	3676.682	-33.93044	2.673409E-008	0.0035373	7
	32	11	627.7902	3147.882	-2517.083	1	4030.492	-38.64624	7.109222E-008	0.0035245	7
	33	12	505.5147	3254.958	-3034.504	1	4450.053	-42.99253	1.236942E-007	0.0033741	7
	34	12	397.9953	3405.095	-3736.988	1	5055.665	-47.66062	4.630304E-009	0.0035865	7
	35	12	315.5048	3588.158	-4577.246	1	5816.018	-51.90668	1.622938E-009	0.0035825	7
	36	13	252.4038	3811.862	-5563.872	1	6744.402	-55.58459	1.617114E-009	0.003579	7
	37	13	198.6229	4119.262	-6859.305	1	8001.149	-59.01366	2.834908E-009	0.0035828	7
	38	13	158.3615	4497.65	-8354.219	1	9487.983	-61.70337	2.402378E-009	0.0035751	7
	39	14	125.558	5005.29	-10215.59	1	11375.9	-63.89672	1.254396E-010	0.0035167	6
	40	14	100.4464	5637.62	-12359.09	1	13584.18	-65.47982	-8.207405E-010	0.0035261	6
	41	14	79.00281	6470.58	-15160.19	1	16483.32	-66.88654	5.45768E-010	0.0035576	6
	42	15	63.3446	7696.458	-18159.66	1	19723.3	-67.03172	6.055068E-010	0.0035286	6
	43	15	49.86702	9100.302	-22163.29	1	23958.86	-67.67683	7.474635E-010	0.0035331	6
	44	15	39.72458	10728.13	-26648.26	1	28726.68	-68.07114	5.925342E-010	0.0035264	6
	45	16	31.6723	12860.67	-31898.53	1	34393.5	-68.04196	5.436738E-010	0.0035274	6
	46	16	24.93351	15832.86	-38419.48	1	41554.02	-67.6032	2.382946E-011	0.0035299	6
	47	16	19.86229	19178.11	-45684.34	1	49546.54	-67.22752	-1.346187E-009	0.0035205	6
	48	16	15.83615	23793.54	-54125.28	1	59124.27	-66.26965	3.79861E-009	0.0035211	6
	49	17	12.40079	29236.29	-64428.87	1	70751.97	-65.59258	-1.537429E-009	0.0035393	6
	50	17	9.93114	34882.14	-75435.79	1	83110.3	-65.18378	1.130729E-009	0.003517	6
	51	18	7.944915	41821.59	-88231.54	1	97641.4	-64.63913	1.558351E-009	0.0035111	6
	52	18	6.317385	50501.39	-103254.7	1	114943.1	-63.93695	1.049713E-009	0.0035072	5
	53	19	5.008013	61166.18	-121113.8	1	135682.9	-63.20483	5.774762E-010	0.0035155	5
	54	20	3.945707	73661.55	-142009.4	1	159977.1	-62.58382	3.945879E-010	0.0035208	5
	55	22	3.158693	87801.77	-164383.9	1	186363.1	-61.89215	-1.834625E-010	0.0035064	5
	56	23	2.504006	104736.7	-190723.1	1	217589.2	-61.22636	2.162324E-010	0.0035013	5
	57	25	1.998082	122999.6	-220203.6	1	252227.2	-60.81349	3.146366E-010	0.0035334	5
	58	26	1.584686	144463.7	-254171.7	1	292357.7	-60.38737	3.975817E-011	0.0034874	5
	59	28	1.266892	167966.6	-293294.1	1	337985.5	-60.20066	-2.07985E-011	0.0034669	5
	60	31	0.999041	194767.2	-342120.1	1	393675.5	-60.34736	-3.357031E-011	0.0034859	5
