EXPLAIN
TAG	EISPOT
TITLE	LABEL	Potentiostatic EIS	Test &Identifier
DATE	LABEL	10/2/2019	Date
TIME	LABEL	8:34:54	Time
NOTES	NOTES	2	&Notes...
	
	
PSTAT	PSTAT	REF600-11020	Potentiostat
VDC	POTEN	0.00000E+000	T	DC &Voltage (V)
FREQINIT	QUANT	1.00000E+006	Initial Fre&q. (Hz)
FREQFINAL	QUANT	1.00000E+000	Final Fre&q. (Hz)
PTSPERDEC	QUANT	1.00000E+001	Points/&decade
VAC	QUANT	2.50000E+001	AC &Voltage (mV rms)
AREA	QUANT	1.00000E-002	&Area (cm^2)
CONDIT	TWOPARAM	T	5.00000E+000	0.00000E+000	Conditionin&g	Time(s)	E(V)
DELAY	TWOPARAM	T	5.00000E+000	0.00000E+000	Init. De&lay	Time(s)	Stab.(mV/s)
SPEED	SELECTOR	1	&Optimize for:
ZGUESS	QUANT	1.00000E+004	E&stimated Z (ohms)
OCVCURVE	TABLE	19
	Pt	T	Vf	Vm	Ach	Over
	#	s	V vs. Ref.	V	V	bits
	0	0.258333	5.10288E-003	5.10288E-003	6.42198E-004	...........
	1	0.516667	5.10070E-003	4.98863E-003	6.42931E-004	...........
	2	0.775	5.08731E-003	4.88085E-003	6.41064E-004	...........
	3	1.03333	5.04978E-003	4.79470E-003	6.41031E-004	...........
	4	1.29167	4.98434E-003	4.72188E-003	6.42198E-004	...........
	5	1.55	4.90137E-003	4.65553E-003	6.43698E-004	...........
	6	1.80833	4.81548E-003	4.58754E-003	6.45131E-004	...........
	7	2.06667	4.73537E-003	4.52947E-003	6.42998E-004	...........
	8	2.325	4.66311E-003	4.48289E-003	6.41798E-004	...........
	9	2.58333	4.59840E-003	4.44084E-003	6.42598E-004	...........
	10	2.84167	4.54105E-003	4.39833E-003	6.44865E-004	...........
	11	3.1	4.49050E-003	4.36486E-003	6.43265E-004	...........
	12	3.35833	4.44560E-003	4.32824E-003	6.39498E-004	...........
	13	3.61667	4.40501E-003	4.29482E-003	6.40831E-004	...........
	14	3.875	4.36746E-003	4.26006E-003	6.45098E-004	...........
	15	4.13333	4.33195E-003	4.23430E-003	6.45098E-004	...........
	16	4.39167	4.29808E-003	4.20130E-003	6.45631E-004	...........
	17	4.65	4.26513E-003	4.13590E-003	6.47531E-004	...........
	18	4.90833	4.23026E-003	4.09356E-003	6.47798E-004	...........
EOC	QUANT	0.0042303	Open Circuit (V)
PSTATMODEL	IQUANT	4	Pstat Model
PSTATSECTION	LABEL	REF600-11020	Pstat Section
PSTATSERIALNO	LABEL	11020	Pstat Serial Number
CTRLMODE	IQUANT	1	Control Mode
IESTAB	IQUANT	0	I/E Stability
CASPEED	IQUANT	1	Control Amp Speed
CONVENTION	IQUANT	1	Current Convention
ICHRANGE	IQUANT	2	Ich Range
ICHRANGEMODE	TOGGLE	F	Ich Auto Range
ICHOFFSETENABLE	TOGGLE	T	Ich Offset Enable
ICHOFFSET	QUANT	0	Ich Offset (V)
ICHFILTER	IQUANT	3	Ich Filter
VCHRANGE	IQUANT	2	Vch Range
VCHRANGEMODE	TOGGLE	F	Vch Auto Range
VCHOFFSETENABLE	TOGGLE	T	Vch Offset Enable
VCHOFFSET	QUANT	0	Vch Offset (V)
VCHFILTER	IQUANT	3	Vch Filter
ACHRANGE	IQUANT	2	Ach Range
ACHOFFSETENABLE	TOGGLE	F	Ach Offset Enable
ACHOFFSET	QUANT	0	Ach Offset (V)
ACHFILTER	IQUANT	3	Ach Filter
IERANGELOWERLIMIT	IQUANT	1	I/E Range Lower Limit
IERANGEMODE	TOGGLE	F	I/E AutoRange
IERANGE	IQUANT	5	I/E Range
POSFEEDENABLE	TOGGLE	F	Positive Feedback IR Comp
POSFEEDRESISTANCE	QUANT	0	Positive Feedback Resistance (ohm)
ACHSELECT	IQUANT	0	Ach Select
CABLEID	IQUANT	14	Cable ID
DCCALDATE	LABEL	8/19/2019	DC Calibration Date
ACCALDATE	LABEL	8/19/2019	AC Calibration Date
THERMOSELECT	IQUANT	1	Thermo Select
FRAMEWORKVERSION	QUANT	6.33	Framework Version
INSTRUMENTVERSION	LABEL	3.50	Instrument Version
ZCURVE	TABLE
	Pt	Time	Freq	Zreal	Zimag	Zsig	Zmod	Zphz	Idc	Vdc	IERange
	#	s	Hz	ohm	ohm	V	ohm	°	A	V	#
	0	2	1000078	2269.736	-1023.325	1	2489.758	-24.26854	1.32745E-007	0.0066103	8
	1	3	794390.6	2437.097	-928.5729	1	2608.005	-20.85764	-2.083786E-008	0.0060191	8
	2	5	630984.4	2568.191	-807.2067	1	2692.06	-17.44843	4.233333E-006	0.0052184	8
	3	6	501234.4	2667.029	-710.7512	1	2760.11	-14.92226	-2.401603E-008	0.0058013	8
	4	7	398109.4	2739.019	-605.428	1	2805.133	-12.46415	-1.092039E-006	0.0061065	8
	5	9	316265.6	2787.114	-531.218	1	2837.286	-10.79103	-2.684193E-006	0.0062323	8
	6	10	251203.1	2825.455	-465.6548	1	2863.57	-9.358619	-2.619901E-006	0.0062262	8
	7	11	199546.9	2875.84	-396.9797	1	2903.11	-7.859415	-5.161641E-008	0.0059496	8
	8	13	158578.1	2908.171	-355.5452	1	2929.824	-6.970239	-1.224444E-007	0.0059511	8
	9	14	125953.1	2943.595	-302.0402	1	2959.051	-5.858576	5.712294E-007	0.0051635	7
	10	16	100078.1	2966.47	-283.8889	1	2980.023	-5.466514	4.388798E-008	0.0056683	7
	11	17	79453.13	2989.906	-283.9848	1	3003.363	-5.425744	1.791662E-009	0.0058064	7
	12	18	63140.62	3015.29	-291.4714	1	3029.345	-5.521311	-3.291932E-008	0.0058101	7
	13	20	50203.12	3043.704	-304.737	1	3058.921	-5.717426	6.754124E-008	0.0056778	7
	14	21	39890.62	3074.131	-323.103	1	3091.064	-5.999979	-2.829994E-008	0.0057978	7
	15	22	31640.63	3106.546	-349.2052	1	3126.112	-6.413664	-1.018343E-008	0.0058293	7
	16	24	25171.88	3141.939	-381.4826	1	3165.013	-6.922757	7.451784E-009	0.0057361	7
	17	25	20015.62	3180.16	-421.1267	1	3207.922	-7.543396	-2.709354E-008	0.0057986	7
	18	26	15890.62	3222.102	-470.6133	1	3256.289	-8.309741	-7.14949E-008	0.0059139	7
	19	28	12609.37	3266.415	-529.2358	1	3309.012	-9.20328	-3.435861E-008	0.005803	7
	20	29	10078.13	3311.843	-598.1119	1	3365.418	-10.23715	7.244345E-008	0.0057577	7
	21	30	8015.625	3363.847	-682.6522	1	3432.416	-11.4717	7.883495E-008	0.0056382	7
	22	32	6328.125	3419.382	-789.6115	1	3509.367	-13.00294	7.402021E-008	0.0057584	7
	23	33	5015.625	3477.711	-918.2668	1	3596.899	-14.79101	7.400613E-008	0.0057484	7
	24	34	3984.375	3541.294	-1074.293	1	3700.658	-16.87578	6.855701E-008	0.0056646	7
	25	36	3170.956	3610.498	-1264.529	1	3825.536	-19.30213	-7.989378E-009	0.0058266	7
	26	37	2527.573	3685.982	-1494.878	1	3977.578	-22.07538	6.897578E-008	0.0056692	7
	27	38	1976.103	3779.298	-1802.259	1	4187.032	-25.49538	6.900705E-008	0.0056618	7
	28	40	1577.524	3874.341	-2150.295	1	4431.06	-29.03068	-2.630908E-008	0.0057992	7
	29	41	1265.625	3979.511	-2562.893	1	4733.385	-32.78243	-3.227795E-009	0.0057381	7
	30	42	998.264	4104.806	-3113.21	1	5151.845	-37.17779	1.277319E-007	0.0055942	7
	31	44	796.875	4240.194	-3758.366	1	5666.089	-41.55271	3.405908E-009	0.005786	7
	32	45	627.7902	4406.265	-4593.911	1	6365.468	-46.19439	-1.098172E-009	0.005739	7
	33	46	505.5147	4579.662	-5542.783	1	7189.976	-50.43517	1.287944E-007	0.0055937	7
	34	48	397.9953	4824.137	-6826.134	1	8358.732	-54.75055	5.044811E-009	0.0058053	7
	35	49	315.5048	5111.598	-8378.013	1	9814.25	-58.61177	5.462232E-009	0.0058052	7
	36	50	252.4038	5460.686	-10213.76	1	11581.88	-61.86926	9.840001E-010	0.005743	6
	37	52	198.6229	5933.363	-12645.03	1	13967.87	-64.86285	9.12344E-010	0.0057461	6
	38	53	158.3615	6512.293	-15476.74	1	16791.06	-67.17965	1.279751E-009	0.0057454	6
	39	54	125.558	7282.047	-19027.45	1	20373.31	-69.05751	8.896381E-010	0.0057537	6
	40	56	100.4464	8234.545	-23183.11	1	24602.12	-70.44517	1.029474E-009	0.0057495	6
	41	57	79.00281	9635.51	-28693.2	1	30267.85	-71.43734	1.070263E-009	0.0057423	6
	42	59	63.3446	11075.71	-34886.7	1	36602.64	-72.38657	-5.712476E-010	0.0057441	6
	43	60	49.86702	13662.77	-42659.11	1	44793.64	-72.24089	4.474007E-010	0.0057417	6
	44	61	39.72458	16591.24	-52029.74	1	54611.02	-72.31356	7.62283E-010	0.0057461	6
	45	63	31.6723	20485.93	-62803.99	1	66060.69	-71.93428	5.796166E-010	0.0057498	6
	46	64	24.93351	25748.51	-76684.14	1	80891.55	-71.43931	8.150365E-010	0.005743	6
	47	65	19.86229	32514.05	-92043.52	1	97617.5	-70.54441	9.295119E-010	0.0057512	6
	48	67	15.83615	41061.84	-109922.8	1	117341.8	-69.51674	1.087404E-009	0.0057465	5
	49	68	12.40079	52885.27	-132449.8	1	142617.7	-68.2339	3.152623E-010	0.0057514	5
	50	70	9.93114	66255.85	-155841.7	1	169341.3	-66.96731	9.124198E-010	0.0057448	5
	51	71	7.944915	83438.44	-182284.9	1	200473.9	-65.40471	1.312346E-009	0.0057555	5
	52	73	6.317385	104112	-212670.3	1	236786.8	-63.91611	6.77391E-010	0.0057629	5
	53	75	5.008013	129279.3	-246444.5	1	278294.9	-62.31951	6.857162E-010	0.0057538	5
	54	77	3.945707	160382.8	-285782.1	1	327710.3	-60.69857	3.906248E-010	0.0057488	5
	55	80	3.158693	194313.4	-326053.9	1	379564	-59.20696	-3.235123E-010	0.0057592	5
	56	83	2.504006	233105.7	-371615.8	1	438675.9	-57.90093	2.262588E-010	0.0057324	5
	57	86	1.998082	275406.5	-421403.4	1	503417.9	-56.83354	-1.192663E-010	0.0057448	5
	58	89	1.584686	325487.3	-477237.8	1	577665.9	-55.7051	1.615753E-010	0.005794	5
	59	93	1.266892	377056.1	-540539.3	1	659055.4	-55.10209	-9.131092E-011	0.0057241	5
	60	97	0.999041	439540.6	-614392.3	1	755429.6	-54.4198	3.048082E-010	0.0057834	5
