EXPLAIN
TAG	EISPOT
TITLE	LABEL	Potentiostatic EIS	Test &Identifier
DATE	LABEL	11/15/2019	Date
TIME	LABEL	12:26:32	Time
NOTES	NOTES	4	&Notes...
	
	
	
	
PSTAT	PSTAT	REF600-11020	Potentiostat
VDC	POTEN	0.00000E+000	T	DC &Voltage (V)
FREQINIT	QUANT	1.00000E+006	Initial Fre&q. (Hz)
FREQFINAL	QUANT	1.00000E+000	Final Fre&q. (Hz)
PTSPERDEC	QUANT	1.00000E+001	Points/&decade
VAC	QUANT	2.50000E+001	AC &Voltage (mV rms)
AREA	QUANT	1.00000E-002	&Area (cm^2)
CONDIT	TWOPARAM	T	5.00000E+000	0.00000E+000	Conditionin&g	Time(s)	E(V)
DELAY	TWOPARAM	T	5.00000E+000	0.00000E+000	Init. De&lay	Time(s)	Stab.(mV/s)
SPEED	SELECTOR	0	&Optimize for:
ZGUESS	QUANT	1.00000E+005	E&stimated Z (ohms)
OCVCURVE	TABLE	19
	Pt	T	Vf	Vm	Ach	Over
	#	s	V vs. Ref.	V	V	bits
	0	0.258333	6.00986E-003	6.00986E-003	5.56766E-004	...........
	1	0.516667	6.01020E-003	6.02791E-003	5.57466E-004	...........
	2	0.775	6.01264E-003	6.06178E-003	5.63732E-004	...........
	3	1.03333	6.02073E-003	6.10105E-003	5.54233E-004	...........
	4	1.29167	6.03798E-003	6.14682E-003	5.54666E-004	...........
	5	1.55	6.06557E-003	6.19631E-003	5.60499E-004	...........
	6	1.80833	6.10225E-003	6.24829E-003	5.61766E-004	...........
	7	2.06667	6.14571E-003	6.29955E-003	5.60732E-004	...........
	8	2.325	6.19374E-003	6.35869E-003	5.59099E-004	...........
	9	2.58333	6.24492E-003	6.41585E-003	5.55066E-004	...........
	10	2.84167	6.29871E-003	6.47796E-003	5.54499E-004	...........
	11	3.1	6.35486E-003	6.53527E-003	5.56499E-004	...........
	12	3.35833	6.41290E-003	6.59897E-003	5.60032E-004	...........
	13	3.61667	6.47219E-003	6.65538E-003	5.61932E-004	...........
	14	3.875	6.53218E-003	6.72198E-003	5.57532E-004	...........
	15	4.13333	6.59279E-003	6.78670E-003	5.61399E-004	...........
	16	4.39167	6.65455E-003	6.85702E-003	5.65832E-004	...........
	17	4.65	6.71811E-003	6.92093E-003	5.61932E-004	...........
	18	4.90833	6.78325E-003	6.97992E-003	5.56999E-004	...........
EOC	QUANT	0.0067833	Open Circuit (V)
PSTATMODEL	IQUANT	4	Pstat Model
PSTATSECTION	LABEL	REF600-11020	Pstat Section
PSTATSERIALNO	LABEL	11020	Pstat Serial Number
CTRLMODE	IQUANT	1	Control Mode
IESTAB	IQUANT	0	I/E Stability
CASPEED	IQUANT	1	Control Amp Speed
CONVENTION	IQUANT	1	Current Convention
ICHRANGE	IQUANT	2	Ich Range
ICHRANGEMODE	TOGGLE	F	Ich Auto Range
ICHOFFSETENABLE	TOGGLE	T	Ich Offset Enable
ICHOFFSET	QUANT	0	Ich Offset (V)
ICHFILTER	IQUANT	3	Ich Filter
VCHRANGE	IQUANT	2	Vch Range
VCHRANGEMODE	TOGGLE	F	Vch Auto Range
VCHOFFSETENABLE	TOGGLE	T	Vch Offset Enable
VCHOFFSET	QUANT	0	Vch Offset (V)
VCHFILTER	IQUANT	3	Vch Filter
ACHRANGE	IQUANT	2	Ach Range
ACHOFFSETENABLE	TOGGLE	F	Ach Offset Enable
ACHOFFSET	QUANT	0	Ach Offset (V)
ACHFILTER	IQUANT	3	Ach Filter
IERANGELOWERLIMIT	IQUANT	1	I/E Range Lower Limit
IERANGEMODE	TOGGLE	F	I/E AutoRange
IERANGE	IQUANT	5	I/E Range
POSFEEDENABLE	TOGGLE	F	Positive Feedback IR Comp
POSFEEDRESISTANCE	QUANT	0	Positive Feedback Resistance (ohm)
ACHSELECT	IQUANT	0	Ach Select
CABLEID	IQUANT	14	Cable ID
DCCALDATE	LABEL	8/19/2019	DC Calibration Date
ACCALDATE	LABEL	8/19/2019	AC Calibration Date
THERMOSELECT	IQUANT	1	Thermo Select
FRAMEWORKVERSION	QUANT	6.33	Framework Version
INSTRUMENTVERSION	LABEL	3.50	Instrument Version
ZCURVE	TABLE
	Pt	Time	Freq	Zreal	Zimag	Zsig	Zmod	Zphz	Idc	Vdc	IERange
	#	s	Hz	ohm	ohm	V	ohm	°	A	V	#
	0	2	1000078	2318.467	-1638.011	1	2838.727	-35.24145	8.217808E-007	0.0095634	8
	1	2	794390.6	2637.821	-1604.038	1	3087.238	-31.30345	-8.0248E-007	0.0092498	8
	2	2	630984.4	2925.443	-1522.489	1	3297.907	-27.49383	1.460973E-007	0.0081186	8
	3	3	501234.4	3196.329	-1402.707	1	3490.574	-23.69423	6.522855E-006	0.0076314	8
	4	3	398109.4	3419.666	-1280.528	1	3651.556	-20.52891	-2.028215E-006	0.0087813	8
	5	3	316265.6	3596.772	-1154.468	1	3777.508	-17.79524	-2.897004E-007	0.0088141	8
	6	4	251203.1	3757.414	-1027.357	1	3895.333	-15.29213	-2.692661E-006	0.0082643	8
	7	4	199546.9	3887.662	-896.3905	1	3989.666	-12.98395	-8.68963E-007	0.0087809	8
	8	4	158578.1	3977.605	-789.7825	1	4055.256	-11.23043	-2.639001E-006	0.0082666	8
	9	5	125953.1	4085.314	-643.6897	1	4135.714	-8.954017	-1.054787E-006	0.0094371	7
	10	5	100078.1	4147.9	-583.1496	1	4188.692	-8.002712	4.003647E-007	0.0088612	7
	11	5	79453.13	4202.269	-516.1098	1	4233.843	-7.001828	5.185855E-007	0.0065259	7
	12	5	63140.62	4241.92	-472.6454	1	4268.17	-6.357815	-1.298254E-006	0.0098167	7
	13	6	50203.12	4288.209	-442.7174	1	4311.002	-5.894369	1.038749E-006	0.0065001	7
	14	6	39890.62	4321.824	-423.9374	1	4342.567	-5.602348	1.066526E-006	0.0075411	7
	15	6	31640.63	4355.247	-416.7708	1	4375.143	-5.466215	1.066937E-006	0.0075449	7
	16	7	25171.88	4385.658	-419.8645	1	4405.71	-5.468591	8.269072E-007	0.0064133	7
	17	7	20015.62	4413.233	-434.1777	1	4434.539	-5.618728	8.268103E-007	0.0064116	7
	18	7	15890.62	4443.523	-464.1353	1	4467.698	-5.96304	-7.670131E-007	0.0081025	7
	19	8	12609.37	4479.686	-510.5768	1	4508.688	-6.502286	5.190465E-007	0.0065123	7
	20	8	10078.13	4509.75	-565.0298	1	4545.009	-7.141416	-9.543589E-007	0.0100544	7
	21	8	8015.625	4552.198	-641.4955	1	4597.176	-8.021299	6.370704E-007	0.0085186	7
	22	9	6328.125	4594.938	-741.271	1	4654.347	-9.164193	8.727978E-007	0.0080593	7
	23	9	5015.625	4631.208	-864.9141	1	4711.28	-10.57857	1.295278E-007	0.0068261	7
	24	9	3984.375	4678.307	-1019.867	1	4788.182	-12.29802	-3.157094E-007	0.0097101	7
	25	10	3170.956	4729.317	-1211.789	1	4882.097	-14.37166	-1.104886E-006	0.00881	7
	26	10	2527.573	4793.115	-1447.031	1	5006.781	-16.79895	-9.533932E-007	0.0100493	7
	27	10	1976.103	4877.08	-1765.396	1	5186.765	-19.89915	1.039716E-006	0.0064928	7
	28	11	1577.524	4947.789	-2133.994	1	5388.371	-23.33066	-1.28725E-006	0.0094129	7
	29	11	1265.625	5054.098	-2552.617	1	5662.134	-26.79647	-3.147952E-007	0.0097131	7
	30	11	998.264	5181.679	-3121.968	1	6049.502	-31.06901	4.015921E-007	0.0088389	7
	31	11	796.875	5325.33	-3782.282	1	6531.83	-35.38403	6.353155E-007	0.0085074	7
	32	12	627.7902	5508.82	-4629.518	1	7195.8	-40.04312	-6.635808E-007	0.0099623	7
	33	12	505.5147	5712.284	-5572.045	1	7979.842	-44.28798	-1.109575E-006	0.0088042	7
	34	13	397.9953	5989.429	-6857.779	1	9105.075	-48.86677	1.39866E-009	0.0082999	7
	35	13	315.5048	6319.901	-8384.023	1	10499.19	-52.99091	-4.118559E-010	0.0082436	6
	36	13	252.4038	6703.854	-10176.52	1	12186.19	-56.62483	-1.057785E-010	0.0082326	6
	37	14	198.6229	7214.902	-12544.58	1	14471.4	-60.09503	-2.067394E-010	0.0082319	6
	38	14	158.3615	7831.782	-15292.44	1	17181.26	-62.88146	-7.267575E-010	0.0082321	6
	39	14	125.558	8621.959	-18746.31	1	20634.01	-65.30096	-2.318635E-010	0.0082415	6
	40	15	100.4464	9610.95	-22764.53	1	24710.21	-67.11102	-1.845219E-010	0.0082366	6
	41	15	79.00281	11061.66	-28087.71	1	30187.41	-68.5042	7.251698E-010	0.0082268	6
	42	15	63.3446	12721.9	-34437.12	1	36711.87	-69.72455	1.016144E-009	0.008227	6
	43	16	49.86702	15077.21	-42161.59	1	44776.36	-70.32268	-1.008134E-011	0.0082338	6
	44	16	39.72458	18326.17	-50792.97	1	53997.91	-70.16048	5.126434E-010	0.0082341	6
	45	16	31.6723	22551.8	-61465.97	1	65472.51	-69.85197	-3.042032E-010	0.0082278	6
	46	17	24.93351	28243.14	-74495.55	1	79669.71	-69.23701	6.354514E-010	0.0082313	6
	47	17	19.86229	35364.39	-89076.34	1	95839.6	-68.34632	5.155134E-010	0.00824	6
	48	17	15.83615	44752.63	-106898.6	1	115888.4	-67.28359	-1.510543E-009	0.008239	5
	49	18	12.40079	57967.55	-125494.9	1	138236	-65.20723	-1.931745E-009	0.0082464	5
	50	18	9.93114	71717.82	-146699.2	1	163291.5	-63.94707	6.850223E-010	0.0082391	5
	51	19	7.944915	89172.8	-168803	1	190909	-62.15405	1.302502E-009	0.0082247	5
	52	19	6.317385	110956.1	-194094.6	1	223571	-60.24512	6.993611E-010	0.0082298	5
	53	20	5.008013	136298.4	-221597.4	1	260158.9	-58.40548	2.769452E-010	0.0082438	5
	54	21	3.945707	166202.6	-251410	1	301380.7	-56.53204	-1.668359E-010	0.0082441	5
	55	22	3.158693	196214.6	-282016.3	1	343559.9	-55.1715	-3.863534E-010	0.0082278	5
	56	24	2.504006	230941.8	-315845.7	1	391270.5	-53.82627	2.945264E-011	0.0082232	5
	57	25	1.998082	266014.8	-353024.4	1	442029.5	-53.00085	4.324327E-011	0.0082474	5
	58	27	1.584686	304712.3	-394681.8	1	498621.4	-52.33022	-1.458074E-010	0.0082006	5
	59	29	1.266892	344967.1	-443407.9	1	561794.3	-52.11743	-2.341932E-010	0.0081802	5
	60	31	0.999041	388956.1	-504915.3	1	637358.8	-52.39153	-2.638248E-010	0.0081925	5
