EXPLAIN
TAG	EISPOT
TITLE	LABEL	Potentiostatic EIS	Test &Identifier
DATE	LABEL	10/14/2019	Date
TIME	LABEL	11:02:29	Time
NOTES	NOTES	1	&Notes...
	
PSTAT	PSTAT	REF600-11020	Potentiostat
VDC	POTEN	0.00000E+000	T	DC &Voltage (V)
FREQINIT	QUANT	1.00000E+006	Initial Fre&q. (Hz)
FREQFINAL	QUANT	1.00000E+000	Final Fre&q. (Hz)
PTSPERDEC	QUANT	1.00000E+001	Points/&decade
VAC	QUANT	2.50000E+001	AC &Voltage (mV rms)
AREA	QUANT	1.00000E-002	&Area (cm^2)
CONDIT	TWOPARAM	T	5.00000E+000	0.00000E+000	Conditionin&g	Time(s)	E(V)
DELAY	TWOPARAM	T	5.00000E+000	0.00000E+000	Init. De&lay	Time(s)	Stab.(mV/s)
SPEED	SELECTOR	1	&Optimize for:
ZGUESS	QUANT	1.00000E+004	E&stimated Z (ohms)
OCVCURVE	TABLE	19
	Pt	T	Vf	Vm	Ach	Over
	#	s	V vs. Ref.	V	V	bits
	0	0.258333	6.98748E-003	6.98748E-003	5.49499E-004	...........
	1	0.516667	6.98653E-003	6.93760E-003	5.48133E-004	...........
	2	0.775	6.98086E-003	6.90023E-003	5.42433E-004	...........
	3	1.03333	6.96580E-003	6.88151E-003	5.51333E-004	...........
	4	1.29167	6.94157E-003	6.86690E-003	5.49366E-004	...........
	5	1.55	6.91445E-003	6.86642E-003	5.50733E-004	...........
	6	1.80833	6.89146E-003	6.86181E-003	5.47966E-004	...........
	7	2.06667	6.87609E-003	6.87119E-003	5.43399E-004	...........
	8	2.325	6.86865E-003	6.88489E-003	5.47099E-004	...........
	9	2.58333	6.86830E-003	6.89543E-003	5.53366E-004	...........
	10	2.84167	6.87356E-003	6.89686E-003	5.48633E-004	...........
	11	3.1	6.88212E-003	6.92302E-003	5.51566E-004	...........
	12	3.35833	6.89289E-003	6.95773E-003	5.53266E-004	...........
	13	3.61667	6.90733E-003	6.97255E-003	5.50633E-004	...........
	14	3.875	6.92639E-003	6.99100E-003	5.51199E-004	...........
	15	4.13333	6.94793E-003	7.00428E-003	5.42766E-004	...........
	16	4.39167	6.96868E-003	7.01866E-003	5.47266E-004	...........
	17	4.65	6.98701E-003	7.03323E-003	5.56466E-004	...........
	18	4.90833	7.00309E-003	7.04716E-003	5.50999E-004	...........
EOC	QUANT	0.0070031	Open Circuit (V)
PSTATMODEL	IQUANT	4	Pstat Model
PSTATSECTION	LABEL	REF600-11020	Pstat Section
PSTATSERIALNO	LABEL	11020	Pstat Serial Number
CTRLMODE	IQUANT	1	Control Mode
IESTAB	IQUANT	0	I/E Stability
CASPEED	IQUANT	1	Control Amp Speed
CONVENTION	IQUANT	1	Current Convention
ICHRANGE	IQUANT	2	Ich Range
ICHRANGEMODE	TOGGLE	F	Ich Auto Range
ICHOFFSETENABLE	TOGGLE	T	Ich Offset Enable
ICHOFFSET	QUANT	0	Ich Offset (V)
ICHFILTER	IQUANT	3	Ich Filter
VCHRANGE	IQUANT	2	Vch Range
VCHRANGEMODE	TOGGLE	F	Vch Auto Range
VCHOFFSETENABLE	TOGGLE	T	Vch Offset Enable
VCHOFFSET	QUANT	0	Vch Offset (V)
VCHFILTER	IQUANT	3	Vch Filter
ACHRANGE	IQUANT	2	Ach Range
ACHOFFSETENABLE	TOGGLE	F	Ach Offset Enable
ACHOFFSET	QUANT	0	Ach Offset (V)
ACHFILTER	IQUANT	3	Ach Filter
IERANGELOWERLIMIT	IQUANT	1	I/E Range Lower Limit
IERANGEMODE	TOGGLE	F	I/E AutoRange
IERANGE	IQUANT	6	I/E Range
POSFEEDENABLE	TOGGLE	F	Positive Feedback IR Comp
POSFEEDRESISTANCE	QUANT	0	Positive Feedback Resistance (ohm)
ACHSELECT	IQUANT	0	Ach Select
CABLEID	IQUANT	14	Cable ID
DCCALDATE	LABEL	8/19/2019	DC Calibration Date
ACCALDATE	LABEL	8/19/2019	AC Calibration Date
THERMOSELECT	IQUANT	1	Thermo Select
FRAMEWORKVERSION	QUANT	6.33	Framework Version
INSTRUMENTVERSION	LABEL	3.50	Instrument Version
ZCURVE	TABLE
	Pt	Time	Freq	Zreal	Zimag	Zsig	Zmod	Zphz	Idc	Vdc	IERange
	#	s	Hz	ohm	ohm	V	ohm	°	A	V	#
	0	1	1000078	2523.099	-1971.228	1	3201.838	-37.99953	5.74439E-006	0.0082071	8
	1	3	794390.6	2917.673	-1931.888	1	3499.286	-33.50986	-5.352385E-007	0.0084887	8
	2	4	630984.4	3314.882	-1837.301	1	3790.002	-28.99778	7.76379E-008	0.0088145	8
	3	6	501234.4	3630.078	-1687.678	1	4003.214	-24.93443	-4.316259E-009	0.0086909	8
	4	7	398109.4	3921.113	-1507.75	1	4201.005	-21.0328	2.256606E-007	0.0085214	8
	5	8	316265.6	4133.062	-1324.352	1	4340.059	-17.76696	-2.568861E-006	0.0090915	8
	6	10	251203.1	4301.366	-1142.29	1	4450.458	-14.87244	1.306488E-006	0.008284	8
	7	11	199546.9	4432.97	-999.136	1	4544.172	-12.70152	1.012959E-006	0.0083965	8
	8	13	158578.1	4515.31	-860.3844	1	4596.552	-10.78828	-8.947358E-007	0.0088714	8
	9	14	125953.1	4616.214	-715.5204	1	4671.338	-8.81082	5.541101E-007	0.0078937	7
	10	15	100078.1	4663.745	-603.1128	1	4702.58	-7.368563	-3.870763E-008	0.0086023	7
	11	17	79453.13	4710.194	-540.7308	1	4741.13	-6.548893	-3.118423E-009	0.0084962	7
	12	18	63140.62	4750.196	-495.0308	1	4775.921	-5.949472	7.390858E-009	0.0084912	7
	13	19	50203.12	4789.1	-463.1201	1	4811.44	-5.523496	1.128286E-007	0.0083783	7
	14	21	39890.62	4821.652	-444.2202	1	4842.072	-5.263817	6.155135E-008	0.0084391	7
	15	22	31640.63	4855.783	-438.076	1	4875.504	-5.155118	-4.508664E-008	0.008571	7
	16	23	25171.88	4887.166	-443.2862	1	4907.229	-5.182782	7.130738E-008	0.0083856	7
	17	25	20015.62	4921.052	-469.8967	1	4943.436	-5.454466	-6.057937E-008	0.0086296	7
	18	26	15890.62	4954.216	-494.0147	1	4978.786	-5.694483	1.130505E-007	0.0083698	7
	19	27	12609.37	4987.051	-540.9222	1	5016.301	-6.190406	3.701363E-008	0.0084974	7
	20	29	10078.13	5021.8	-603.5671	1	5057.941	-6.853471	-4.364111E-008	0.008582	7
	21	30	8015.625	5047.43	-690.0656	1	5094.383	-7.784998	-3.834665E-008	0.008578	7
	22	31	6328.125	5097.025	-797.7678	1	5159.08	-8.895555	3.820532E-010	0.0084821	7
	23	33	5015.625	5141.309	-937.7169	1	5226.124	-10.33649	-3.315375E-008	0.0085538	7
	24	34	3984.375	5180.461	-1106.116	1	5297.232	-12.05263	1.108956E-007	0.0083754	7
	25	35	3170.956	5248.771	-1325.286	1	5413.5	-14.17069	-3.257554E-008	0.0085481	7
	26	37	2527.573	5314.49	-1587.103	1	5546.414	-16.62757	3.59244E-008	0.0084899	7
	27	38	1976.103	5403.046	-1938.286	1	5740.197	-19.73492	7.090573E-008	0.0083861	7
	28	39	1577.524	5484.95	-2310.511	1	5951.733	-22.84304	2.027598E-009	0.0084774	7
	29	41	1265.625	5604.031	-2800.703	1	6264.911	-26.55432	-3.513168E-008	0.0085502	7
	30	42	998.264	5741.621	-3414.939	1	6680.42	-30.74288	-3.823153E-008	0.0085839	7
	31	44	796.875	5890.323	-4133.883	1	7196.172	-35.06153	-5.517193E-008	0.0086214	7
	32	45	627.7902	6078.457	-5066.367	1	7913.009	-39.81106	-1.63801E-008	0.0085757	7
	33	46	505.5147	6275.601	-6104.018	1	8754.554	-44.20592	-4.219891E-008	0.0085671	7
	34	48	397.9953	6538.7	-7509.295	1	9957.11	-48.95236	3.079255E-009	0.008546	7
	35	49	315.5048	6841.294	-9205.064	1	11468.94	-53.37991	3.265204E-010	0.0084907	6
	36	50	252.4038	7190.294	-11213.43	1	13320.71	-57.33114	1.222924E-009	0.0084853	6
	37	52	198.6229	7656.994	-13882.75	1	15854.35	-61.12119	6.187593E-010	0.0084889	6
	38	53	158.3615	8213.816	-17011.59	1	18890.77	-64.22706	3.77842E-010	0.0084877	6
	39	54	125.558	8950.597	-20955.26	1	22786.76	-66.87128	7.397881E-010	0.0084861	6
	40	56	100.4464	9853.98	-25635.49	1	27464.14	-68.97384	7.665198E-011	0.0084825	6
	41	57	79.00281	11203.28	-31757	1	33675.21	-70.56811	1.241381E-009	0.0084842	6
	42	58	63.3446	12602.82	-38457.43	1	40469.8	-71.8556	5.057664E-010	0.0084849	6
	43	60	49.86702	15329.14	-47945.06	1	50335.98	-72.26972	5.056126E-010	0.0084789	6
	44	61	39.72458	18039.94	-58681.67	1	61392	-72.91151	7.466563E-010	0.0084877	6
	45	63	31.6723	22187.61	-71224.25	1	74600.16	-72.69727	4.020507E-010	0.0084831	6
	46	64	24.93351	27737.61	-87565.83	1	91853.95	-72.42373	5.390943E-010	0.0084774	6
	47	65	19.86229	34872.86	-105962.4	1	111553.4	-71.78332	-9.779391E-011	0.0084832	5
	48	67	15.83615	44676.81	-128511.3	1	136055.7	-70.83005	2.060838E-009	0.0084879	5
	49	68	12.40079	57114.86	-154233.6	1	164469.2	-69.67971	2.370039E-010	0.0084856	5
	50	69	9.93114	74427.37	-182415.4	1	197014.7	-67.80403	6.32436E-010	0.0084887	5
	51	71	7.944915	94864.54	-213498.6	1	233625.7	-66.04283	2.07743E-010	0.0084935	5
	52	73	6.317385	120320.7	-248916.4	1	276471.4	-64.2019	-1.050992E-010	0.0085032	5
	53	75	5.008013	151997.2	-287866.8	1	325531.1	-62.1654	2.546235E-010	0.0084909	5
	54	77	3.945707	189593	-331339.3	1	381747.6	-60.22173	1.742995E-010	0.0084835	5
	55	80	3.158693	229157.9	-374365.2	1	438933.5	-58.5282	2.259205E-010	0.0085004	5
	56	83	2.504006	275334.4	-424401.2	1	505890.7	-57.02612	-1.14161E-010	0.008476	5
	57	86	1.998082	324172.6	-477344.7	1	577014.6	-55.81894	-1.461735E-010	0.0084682	5
	58	89	1.584686	378769.9	-536148.7	1	656446.6	-54.76015	1.991962E-011	0.0085316	5
	59	93	1.266892	434779.3	-604211.2	1	744381.8	-54.2619	-1.003861E-010	0.0084599	5
	60	97	0.999041	499539.3	-683608.3	1	846675.8	-53.84294	3.375395E-010	0.0085221	5
