EXPLAIN
TAG	EISPOT
TITLE	LABEL	Potentiostatic IDE	Test &Identifier
DATE	LABEL	9/12/2019	Date
TIME	LABEL	11:04:43	Time
NOTES	NOTES	1	&Notes...
	
PSTAT	PSTAT	REF600-11020	Potentiostat
VDC	POTEN	0.00000E+000	T	DC &Voltage (V)
FREQINIT	QUANT	1.00000E+006	Initial Fre&q. (Hz)
FREQFINAL	QUANT	1.00000E+000	Final Fre&q. (Hz)
PTSPERDEC	QUANT	1.00000E+001	Points/&decade
VAC	QUANT	2.50000E+001	AC &Voltage (mV rms)
AREA	QUANT	1.00000E-002	&Area (cm^2)
CONDIT	TWOPARAM	T	5.00000E+000	0.00000E+000	Conditionin&g	Time(s)	E(V)
DELAY	TWOPARAM	T	5.00000E+000	0.00000E+000	Init. De&lay	Time(s)	Stab.(mV/s)
SPEED	SELECTOR	1	&Optimize for:
ZGUESS	QUANT	1.00000E+007	E&stimated Z (ohms)
OCVCURVE	TABLE	18
	Pt	T	Vf	Vm	Ach	Over
	#	s	V vs. Ref.	V	V	bits
	0	0.258333	3.27996E-004	3.27996E-004	4.84600E-004	...........
	1	0.516667	3.20511E-004	-6.38191E-005	4.80100E-004	...........
	2	0.775	2.74883E-004	-4.17679E-004	4.79300E-004	...........
	3	1.03333	1.47082E-004	-7.48718E-004	4.79134E-004	...........
	4	1.29167	-7.84909E-005	-1.05537E-003	4.77667E-004	...........
	5	1.55	-3.73221E-004	-1.33911E-003	4.76267E-004	...........
	6	1.80833	-6.92978E-004	-1.60899E-003	4.82400E-004	...........
	7	2.06667	-1.00660E-003	-1.86107E-003	4.87000E-004	...........
	8	2.325	-1.30123E-003	-2.09919E-003	4.80834E-004	...........
	9	2.58333	-1.57528E-003	-2.32389E-003	4.77500E-004	...........
	10	2.84167	-1.83121E-003	-2.54399E-003	4.86267E-004	...........
	11	3.1	-2.07208E-003	-2.74445E-003	4.86467E-004	...........
	12	3.35833	-2.30021E-003	-2.94096E-003	4.85134E-004	...........
	13	3.61667	-2.51685E-003	-3.12671E-003	4.79700E-004	...........
	14	3.875	-2.72284E-003	-3.30505E-003	4.84834E-004	...........
	15	4.13333	-2.91908E-003	-3.47454E-003	4.87100E-004	...........
	16	4.39167	-3.10632E-003	-3.63765E-003	4.76834E-004	...........
	17	4.65	-3.28523E-003	-3.79602E-003	4.76067E-004	...........
EOC	QUANT	-0.0034566	Open Circuit (V)
PSTATMODEL	IQUANT	4	Pstat Model
PSTATSECTION	LABEL	REF600-11020	Pstat Section
PSTATSERIALNO	LABEL	11020	Pstat Serial Number
CTRLMODE	IQUANT	1	Control Mode
IESTAB	IQUANT	0	I/E Stability
CASPEED	IQUANT	1	Control Amp Speed
CONVENTION	IQUANT	1	Current Convention
ICHRANGE	IQUANT	2	Ich Range
ICHRANGEMODE	TOGGLE	F	Ich Auto Range
ICHOFFSETENABLE	TOGGLE	T	Ich Offset Enable
ICHOFFSET	QUANT	0	Ich Offset (V)
ICHFILTER	IQUANT	3	Ich Filter
VCHRANGE	IQUANT	2	Vch Range
VCHRANGEMODE	TOGGLE	F	Vch Auto Range
VCHOFFSETENABLE	TOGGLE	T	Vch Offset Enable
VCHOFFSET	QUANT	0	Vch Offset (V)
VCHFILTER	IQUANT	3	Vch Filter
ACHRANGE	IQUANT	2	Ach Range
ACHOFFSETENABLE	TOGGLE	F	Ach Offset Enable
ACHOFFSET	QUANT	0	Ach Offset (V)
ACHFILTER	IQUANT	3	Ach Filter
IERANGELOWERLIMIT	IQUANT	1	I/E Range Lower Limit
IERANGEMODE	TOGGLE	F	I/E AutoRange
IERANGE	IQUANT	2	I/E Range
POSFEEDENABLE	TOGGLE	F	Positive Feedback IR Comp
POSFEEDRESISTANCE	QUANT	0	Positive Feedback Resistance (ohm)
ACHSELECT	IQUANT	0	Ach Select
CABLEID	IQUANT	14	Cable ID
DCCALDATE	LABEL	8/19/2019	DC Calibration Date
ACCALDATE	LABEL	8/19/2019	AC Calibration Date
THERMOSELECT	IQUANT	1	Thermo Select
FRAMEWORKVERSION	QUANT	6.33	Framework Version
INSTRUMENTVERSION	LABEL	3.50	Instrument Version
ZCURVE	TABLE
	Pt	Time	Freq	Zreal	Zimag	Zsig	Zmod	Zphz	Idc	Vdc	IERange
	#	s	Hz	ohm	ohm	V	ohm	°	A	V	#
	0	1	1000078	2591.687	-1828.558	1	3171.823	-35.20478	-2.959754E-006	-0.0013271	8
	1	3	794390.6	2955.124	-1705.642	1	3412.033	-29.99273	2.825553E-006	-0.0019814	8
	2	5	630984.4	3263.693	-1574.255	1	3623.53	-25.75052	-1.889609E-007	-0.0015073	8
	3	6	501234.4	3514.871	-1401.122	1	3783.842	-21.73355	2.566769E-006	-0.0022448	8
	4	8	398109.4	3723.66	-1210.097	1	3915.352	-18.00287	-2.822703E-006	-0.0015235	8
	5	9	316265.6	3900.573	-1065.63	1	4043.519	-15.28024	1.56649E-006	-0.002254	8
	6	11	251203.1	3994.213	-909.1851	1	4096.383	-12.82349	-5.21936E-006	-0.0007142	8
	7	12	199546.9	4066.622	-777.7402	1	4140.325	-10.82706	-3.384722E-006	-0.0011513	8
	8	14	158578.1	4148.356	-671.8967	1	4202.417	-9.200129	-1.614956E-006	-0.0015976	8
	9	15	125953.1	4225.462	-546.6034	1	4260.67	-7.370817	3.109865E-007	-0.0025217	7
	10	16	100078.1	4248.315	-491.2645	1	4276.625	-6.596243	-7.669564E-008	-0.00181	7
	11	18	79453.13	4284.51	-458.9103	1	4309.017	-6.113595	-5.06905E-008	-0.0018842	7
	12	19	63140.62	4318.883	-438.666	1	4341.103	-5.799605	-5.761801E-008	-0.0018128	7
	13	20	50203.12	4353.432	-430.2574	1	4374.642	-5.644314	-1.245247E-008	-0.0018935	7
	14	22	39890.62	4388.208	-432.8975	1	4409.509	-5.63401	-1.206337E-008	-0.0018855	7
	15	23	31640.63	4424.024	-448.7674	1	4446.728	-5.792198	-2.174124E-008	-0.0017759	7
	16	24	25171.88	4459.26	-475.4059	1	4484.53	-6.085371	-3.184039E-009	-0.0019967	7
	17	26	20015.62	4498.748	-514.6771	1	4528.093	-6.526522	-1.084288E-008	-0.0018808	7
	18	27	15890.62	4530.678	-569.5589	1	4566.337	-7.165159	2.111928E-008	-0.0020206	7
	19	28	12609.37	4590.243	-634.602	1	4633.902	-7.871257	2.199908E-008	-0.0020211	7
	20	30	10078.13	4640.095	-713.493	1	4694.63	-8.741725	-1.103198E-008	-0.0018796	7
	21	31	8015.625	4700.139	-816.6619	1	4770.56	-9.85689	8.136031E-008	-0.002077	7
	22	32	6328.125	4766.662	-945.6663	1	4859.563	-11.2213	-4.180804E-008	-0.0017896	7
	23	34	5015.625	4842.187	-1099.569	1	4965.463	-12.79383	8.275582E-008	-0.0020748	7
	24	35	3984.375	4926.042	-1282.201	1	5090.179	-14.5898	-4.265817E-008	-0.001883	7
	25	36	3170.956	5019.554	-1502.204	1	5239.517	-16.66089	-4.847928E-008	-0.0018935	7
	26	38	2527.573	5126.84	-1765.883	1	5422.438	-19.0057	-4.368173E-008	-0.0019003	7
	27	39	1976.103	5257.916	-2110.686	1	5665.745	-21.87201	8.415913E-008	-0.0020773	7
	28	41	1577.524	5397.216	-2493.861	1	5945.526	-24.79997	2.374618E-008	-0.0020252	7
	29	42	1265.625	5547.518	-2945.325	1	6280.915	-27.96502	-5.699421E-009	-0.0019011	7
	30	43	998.264	5739.521	-3530.739	1	6738.562	-31.59828	-1.012569E-009	-0.0019967	7
	31	44	796.875	5947.182	-4206.358	1	7284.396	-35.27124	-4.190215E-008	-0.0017953	7
	32	46	627.7902	6195.435	-5075.563	1	8009.042	-39.32579	5.02151E-008	-0.0020928	7
	33	47	505.5147	6459.754	-6048.51	1	8849.457	-43.11692	5.221943E-008	-0.002092	7
	34	48	397.9953	6806.2	-7340.31	1	10010.22	-47.16221	6.824448E-010	-0.0019843	6
	35	50	315.5048	7200.947	-8887.397	1	11438.51	-50.98414	1.702485E-009	-0.0019943	6
	36	51	252.4038	7649.375	-10700.36	1	13153.35	-54.44014	6.769555E-010	-0.0019933	6
	37	52	198.6229	8228.554	-13080.53	1	15453.46	-57.82729	1.162781E-009	-0.0019886	6
	38	54	158.3615	8900.735	-15832.27	1	18162.71	-60.65577	1.409004E-009	-0.0019949	6
	39	55	125.558	9732.94	-19278.3	1	21595.9	-63.21237	8.832091E-010	-0.0019888	6
	40	56	100.4464	10730.14	-23323.74	1	25673.58	-65.2951	1.886495E-009	-0.0019913	6
	41	58	79.00281	12046.69	-28664.36	1	31092.9	-67.20457	2.912623E-010	-0.002001	6
	42	59	63.3446	13449.48	-34227.29	1	36774.93	-68.54784	8.311224E-010	-0.0019975	6
	43	61	49.86702	15721.69	-42664.54	1	45469.05	-69.77139	1.567466E-009	-0.0019974	6
	44	62	39.72458	18104.02	-51495.41	1	54585.09	-70.63007	1.27192E-009	-0.0019945	6
	45	63	31.6723	21250.97	-62720.67	1	66223	-71.28263	1.487991E-009	-0.0019925	6
	46	65	24.93351	25663.09	-76656.67	1	80838.35	-71.4905	1.225744E-009	-0.0019966	6
	47	66	19.86229	30979.71	-92859.48	1	97890.9	-71.55031	1.804973E-009	-0.0019892	6
	48	67	15.83615	38987.94	-111751	1	118356.9	-70.76703	1.892786E-009	-0.0019964	5
	49	69	12.40079	47723.52	-137743.9	1	145776.9	-70.89056	1.101126E-009	-0.0019818	5
	50	70	9.93114	60288.04	-163605.2	1	174359.8	-69.77131	7.103813E-010	-0.0019935	5
	51	72	7.944915	76710.88	-195112.2	1	209650.5	-68.53709	4.43033E-010	-0.0019875	5
	52	73	6.317385	96602	-231190	1	250560.9	-67.32256	2.719405E-011	-0.0019801	5
	53	75	5.008013	123569.4	-273257.9	1	299898.8	-65.66714	4.58335E-010	-0.0019854	5
	54	78	3.945707	158355.1	-321575.8	1	358451.2	-63.78276	6.817867E-010	-0.0019832	5
	55	80	3.158693	199033.2	-370740.4	1	420788.2	-61.77073	4.939737E-010	-0.00198	5
	56	84	2.504006	249025	-425443.6	1	492966.3	-59.65827	2.280915E-010	-0.0019987	5
	57	86	1.998082	305193.2	-481412.7	1	570000.9	-57.62721	-8.571169E-011	-0.0019767	5
	58	89	1.584686	372741.2	-539626.9	1	655845.4	-55.36566	2.232424E-010	-0.0019419	5
	59	93	1.266892	441449.2	-600792.3	1	745539.3	-53.69236	-8.08606E-011	-0.0019992	5
	60	97	0.999041	522940.4	-665602.1	1	846459	-51.84452	4.866251E-010	-0.001948	5
