EXPLAIN
TAG	EISPOT
TITLE	LABEL	Potentiostatic IDE	Test &Identifier
DATE	LABEL	9/10/2019	Date
TIME	LABEL	8:44:07	Time
NOTES	NOTES	1	&Notes...
	
PSTAT	PSTAT	REF600-11020	Potentiostat
VDC	POTEN	0.00000E+000	T	DC &Voltage (V)
FREQINIT	QUANT	1.00000E+006	Initial Fre&q. (Hz)
FREQFINAL	QUANT	1.00000E+000	Final Fre&q. (Hz)
PTSPERDEC	QUANT	1.00000E+001	Points/&decade
VAC	QUANT	2.50000E+001	AC &Voltage (mV rms)
AREA	QUANT	1.00000E-002	&Area (cm^2)
CONDIT	TWOPARAM	T	5.00000E+000	0.00000E+000	Conditionin&g	Time(s)	E(V)
DELAY	TWOPARAM	T	5.00000E+000	0.00000E+000	Init. De&lay	Time(s)	Stab.(mV/s)
SPEED	SELECTOR	1	&Optimize for:
ZGUESS	QUANT	1.00000E+007	E&stimated Z (ohms)
OCVCURVE	TABLE	19
	Pt	T	Vf	Vm	Ach	Over
	#	s	V vs. Ref.	V	V	bits
	0	0.258333	-3.23616E-003	-3.23616E-003	5.58066E-004	...........
	1	0.516667	-3.24475E-003	-3.68581E-003	5.68632E-004	...........
	2	0.775	-3.29724E-003	-4.09871E-003	5.62732E-004	...........
	3	1.03333	-3.44445E-003	-4.47194E-003	5.63166E-004	...........
	4	1.29167	-3.70403E-003	-4.81699E-003	5.58832E-004	...........
	5	1.55	-4.04186E-003	-5.13494E-003	5.56166E-004	...........
	6	1.80833	-4.40610E-003	-5.43912E-003	5.62632E-004	...........
	7	2.06667	-4.76101E-003	-5.71813E-003	5.58799E-004	...........
	8	2.325	-5.09261E-003	-5.98608E-003	5.62832E-004	...........
	9	2.58333	-5.39981E-003	-6.23548E-003	5.59599E-004	...........
	10	2.84167	-5.68582E-003	-6.47304E-003	5.57999E-004	...........
	11	3.1	-5.95402E-003	-6.70073E-003	5.61599E-004	...........
	12	3.35833	-6.20697E-003	-6.91228E-003	5.64766E-004	...........
	13	3.61667	-6.44649E-003	-7.12207E-003	5.65899E-004	...........
	14	3.875	-6.67411E-003	-7.32118E-003	5.65066E-004	...........
	15	4.13333	-6.89135E-003	-7.50967E-003	5.66899E-004	...........
	16	4.39167	-7.09929E-003	-7.68896E-003	5.66799E-004	...........
	17	4.65	-7.29834E-003	-7.86783E-003	5.62732E-004	...........
	18	4.90833	-7.48896E-003	-8.03542E-003	5.65499E-004	...........
EOC	QUANT	-0.007489	Open Circuit (V)
PSTATMODEL	IQUANT	4	Pstat Model
PSTATSECTION	LABEL	REF600-11020	Pstat Section
PSTATSERIALNO	LABEL	11020	Pstat Serial Number
CTRLMODE	IQUANT	1	Control Mode
IESTAB	IQUANT	0	I/E Stability
CASPEED	IQUANT	1	Control Amp Speed
CONVENTION	IQUANT	1	Current Convention
ICHRANGE	IQUANT	2	Ich Range
ICHRANGEMODE	TOGGLE	F	Ich Auto Range
ICHOFFSETENABLE	TOGGLE	T	Ich Offset Enable
ICHOFFSET	QUANT	0	Ich Offset (V)
ICHFILTER	IQUANT	3	Ich Filter
VCHRANGE	IQUANT	2	Vch Range
VCHRANGEMODE	TOGGLE	F	Vch Auto Range
VCHOFFSETENABLE	TOGGLE	T	Vch Offset Enable
VCHOFFSET	QUANT	0	Vch Offset (V)
VCHFILTER	IQUANT	3	Vch Filter
ACHRANGE	IQUANT	2	Ach Range
ACHOFFSETENABLE	TOGGLE	F	Ach Offset Enable
ACHOFFSET	QUANT	0	Ach Offset (V)
ACHFILTER	IQUANT	3	Ach Filter
IERANGELOWERLIMIT	IQUANT	1	I/E Range Lower Limit
IERANGEMODE	TOGGLE	F	I/E AutoRange
IERANGE	IQUANT	3	I/E Range
POSFEEDENABLE	TOGGLE	F	Positive Feedback IR Comp
POSFEEDRESISTANCE	QUANT	0	Positive Feedback Resistance (ohm)
ACHSELECT	IQUANT	0	Ach Select
CABLEID	IQUANT	14	Cable ID
DCCALDATE	LABEL	8/19/2019	DC Calibration Date
ACCALDATE	LABEL	8/19/2019	AC Calibration Date
THERMOSELECT	IQUANT	1	Thermo Select
FRAMEWORKVERSION	QUANT	6.33	Framework Version
INSTRUMENTVERSION	LABEL	3.50	Instrument Version
ZCURVE	TABLE
	Pt	Time	Freq	Zreal	Zimag	Zsig	Zmod	Zphz	Idc	Vdc	IERange
	#	s	Hz	ohm	ohm	V	ohm	°	A	V	#
	0	1	1000078	1609.672	-2628.432	1	3082.158	-58.51637	4.890688E-008	-0.0050449	8
	1	3	794390.6	1767.525	-3093.404	1	3562.765	-60.257	2.41378E-006	-0.0060143	8
	2	4	630984.4	1939.726	-3644.817	1	4128.829	-61.97865	2.363252E-006	-0.0061948	8
	3	6	501234.4	2160.043	-4357.292	1	4863.309	-63.63097	-3.131682E-006	-0.005187	8
	4	7	398109.4	2384.447	-5203.677	1	5723.971	-65.38164	2.935603E-007	-0.0059284	8
	5	8	316265.6	2688.637	-6283.056	1	6834.146	-66.83301	-1.10858E-008	-0.0059636	8
	6	10	251203.1	3027.083	-7561.154	1	8144.586	-68.18147	-1.19773E-006	-0.0056637	8
	7	11	199546.9	3494.187	-9179.668	1	9822.2	-69.16096	3.414746E-007	-0.0060217	8
	8	13	158578.1	4041.731	-11052.23	1	11768.06	-69.91285	1.279806E-006	-0.0062067	8
	9	15	125953.1	4904.882	-13439.45	1	14306.53	-69.94987	-6.297508E-007	-0.0046276	7
	10	16	100078.1	5822.86	-16310.52	1	17318.74	-70.35342	-4.274498E-009	-0.005929	7
	11	18	79453.13	7142.094	-19746.77	1	20998.67	-70.11575	-4.274927E-008	-0.0059306	7
	12	19	63140.62	8926.67	-23968.61	1	25576.94	-69.57307	4.598588E-008	-0.0060079	7
	13	20	50203.12	11190.59	-28847.8	1	30942.29	-68.79781	-2.048789E-008	-0.0059018	7
	14	22	39890.62	14479.5	-34547.83	1	37459.43	-67.26073	-2.066735E-008	-0.0059047	7
	15	23	31640.63	18904.27	-41205.2	1	45334.75	-65.35512	4.690342E-008	-0.0060091	7
	16	25	25171.88	24736.74	-48722.59	1	54642.45	-63.08283	9.166693E-008	-0.0060322	7
	17	27	20015.62	32684.98	-55974.12	1	64818.29	-59.71805	-5.788017E-008	-0.0058532	7
	18	28	15890.62	41408.7	-63515.05	1	75821.12	-56.89762	1.010531E-007	-0.0060981	7
	19	30	12609.37	54645.8	-70437.51	1	89149.34	-52.1955	1.417811E-008	-0.0062582	6
	20	31	10078.13	67941.63	-75634.75	1	101669.5	-48.0671	2.517023E-009	-0.0059661	6
	21	33	8015.625	83257.18	-78964.18	1	114748	-43.48409	4.6307E-009	-0.0060181	6
	22	34	6328.125	98505.1	-80309.05	1	127093.7	-39.1896	3.119742E-009	-0.0061715	6
	23	36	5015.625	114041.3	-78810.37	1	138623.5	-34.64714	-9.496339E-009	-0.0059093	6
	24	37	3984.375	126928.8	-77825.2	1	148888.1	-31.51416	-2.741534E-009	-0.005878	6
	25	39	3170.956	139774.1	-73708.87	1	158018.3	-27.8046	-9.168852E-009	-0.0059074	6
	26	41	2527.573	150769.6	-70559.02	1	166463.4	-25.07923	-7.105521E-009	-0.005907	6
	27	42	1976.103	161461	-66471.55	1	174608.5	-22.37637	-2.74287E-009	-0.0058861	6
	28	44	1577.524	169421.2	-63765.72	1	181023.8	-20.62503	3.018355E-009	-0.0059158	6
	29	45	1265.625	178149.1	-59508.36	1	187825.3	-18.47121	1.656782E-010	-0.0059637	5
	30	47	998.264	185893.8	-58096.92	1	194760.7	-17.35546	-5.193983E-010	-0.0058943	5
	31	48	796.875	192641	-57265.89	1	200972.5	-16.5555	6.873702E-011	-0.0061594	5
	32	49	627.7902	199975.3	-57458.34	1	208066.2	-16.0308	-4.556627E-010	-0.0058406	5
	33	51	505.5147	207519.1	-57818.46	1	215423.2	-15.56877	3.269499E-010	-0.0061499	5
	34	52	397.9953	213919.5	-59766.34	1	222111.6	-15.60967	4.503626E-010	-0.005993	5
	35	53	315.5048	221347.6	-61737.05	1	229796	-15.58456	-1.771154E-010	-0.0059937	5
	36	55	252.4038	228151.3	-64383.89	1	237061.8	-15.75897	1.513505E-010	-0.0059958	5
	37	56	198.6229	236135.7	-67837.13	1	245686.7	-16.02832	2.625651E-010	-0.005997	5
	38	57	158.3615	243292.2	-71932.5	1	253703.4	-16.471	-1.261764E-011	-0.0059991	5
	39	59	125.558	252378.8	-77195.32	1	263920.7	-17.00735	2.948017E-010	-0.0059941	5
	40	60	100.4464	259518.7	-84015.03	1	272779.1	-17.93853	1.847115E-010	-0.0059938	5
	41	62	79.00281	269800.1	-95187.7	1	286099.3	-19.43327	2.188789E-010	-0.0059927	5
	42	63	63.3446	279214.2	-92873.3	1	294255	-18.39836	3.171538E-010	-0.0059939	5
	43	65	49.86702	287278.3	-116590.4	1	310035.7	-22.08952	2.343809E-010	-0.0059956	5
	44	66	39.72458	295685.7	-134093.5	1	324670.7	-24.3943	3.714566E-010	-0.0059907	5
	45	68	31.6723	307246	-151500.9	1	342567.7	-26.24759	-1.074536E-010	-0.0059994	5
	46	69	24.93351	323509.2	-178820	1	369641.4	-28.93166	1.408657E-010	-0.0059978	5
	47	71	19.86229	341174.2	-207502.5	1	399320.8	-31.30801	-1.081507E-010	-0.0059958	5
	48	72	15.83615	366636.9	-240802	1	438643.6	-33.29634	-4.172244E-010	-0.0059957	5
	49	73	12.40079	394457.2	-284118.6	1	486127.4	-35.76435	3.05993E-010	-0.0059998	5
	50	75	9.93114	426202.3	-326772	1	537055.3	-37.47761	4.112964E-010	-0.0059897	5
	51	76	7.944915	470841.4	-371608.6	1	599820.4	-38.28204	3.00467E-010	-0.0059975	5
	52	78	6.317385	517113.4	-424984.4	1	669341.4	-39.41473	8.258061E-010	-0.0060116	6
	53	80	5.008013	575503.1	-479371.3	1	748999.8	-39.79296	3.612627E-010	-0.0060029	6
	54	83	3.945707	644709.3	-538548.4	1	840050.3	-39.8732	1.871873E-010	-0.0059931	5
	55	86	3.158693	715263.6	-596413.6	1	931295.4	-39.82261	6.996535E-011	-0.0060029	5
	56	89	2.504006	795918	-660117.3	1	1034041	-39.67159	2.819884E-010	-0.0060098	4
	57	92	1.998082	877134.3	-729949.6	1	1141136	-39.76717	-9.332553E-011	-0.0059973	4
	58	95	1.584686	966414	-804618.3	1	1257524	-39.78015	1.463329E-010	-0.0059468	4
	59	99	1.266892	1061408	-893104.5	1	1387164	-40.07838	-4.749288E-011	-0.0060203	4
	60	103	0.999041	1170007	-994736	1	1535713	-40.37107	2.747575E-010	-0.0059583	4
