EXPLAIN
TAG	EISPOT
TITLE	LABEL	Potentiostatic EIS	Test &Identifier
DATE	LABEL	10/4/2019	Date
TIME	LABEL	10:55:49	Time
NOTES	NOTES	2	&Notes...
	
	
PSTAT	PSTAT	REF600-11020	Potentiostat
VDC	POTEN	0.00000E+000	T	DC &Voltage (V)
FREQINIT	QUANT	1.00000E+006	Initial Fre&q. (Hz)
FREQFINAL	QUANT	1.00000E+000	Final Fre&q. (Hz)
PTSPERDEC	QUANT	1.00000E+001	Points/&decade
VAC	QUANT	2.50000E+001	AC &Voltage (mV rms)
AREA	QUANT	1.00000E-002	&Area (cm^2)
CONDIT	TWOPARAM	T	5.00000E+000	0.00000E+000	Conditionin&g	Time(s)	E(V)
DELAY	TWOPARAM	T	5.00000E+000	0.00000E+000	Init. De&lay	Time(s)	Stab.(mV/s)
SPEED	SELECTOR	1	&Optimize for:
ZGUESS	QUANT	1.00000E+004	E&stimated Z (ohms)
OCVCURVE	TABLE	19
	Pt	T	Vf	Vm	Ach	Over
	#	s	V vs. Ref.	V	V	bits
	0	0.258333	6.94834E-003	6.94834E-003	5.54833E-004	...........
	1	0.516667	6.94811E-003	6.93620E-003	5.52666E-004	...........
	2	0.775	6.94702E-003	6.94228E-003	5.53299E-004	...........
	3	1.03333	6.94519E-003	6.95487E-003	5.47199E-004	...........
	4	1.29167	6.94411E-003	6.93965E-003	5.54866E-004	...........
	5	1.55	6.94327E-003	6.88318E-003	5.53066E-004	...........
	6	1.80833	6.93941E-003	6.97319E-003	5.48066E-004	...........
	7	2.06667	6.93590E-003	7.03674E-003	5.55366E-004	...........
	8	2.325	6.94696E-003	7.15592E-003	5.42999E-004	...........
	9	2.58333	6.98520E-003	7.22030E-003	5.50533E-004	...........
	10	2.84167	7.04852E-003	7.23759E-003	5.43666E-004	...........
	11	3.1	7.12120E-003	7.29527E-003	5.51166E-004	...........
	12	3.35833	7.18691E-003	7.31028E-003	5.52899E-004	...........
	13	3.61667	7.23925E-003	7.35134E-003	5.46899E-004	...........
	14	3.875	7.28054E-003	7.38906E-003	5.43699E-004	...........
	15	4.13333	7.31614E-003	7.42428E-003	5.50299E-004	...........
	16	4.39167	7.35047E-003	7.45484E-003	5.47599E-004	...........
	17	4.65	7.38520E-003	7.49922E-003	5.43233E-004	...........
	18	4.90833	7.42109E-003	7.56203E-003	5.46266E-004	...........
EOC	QUANT	0.0074211	Open Circuit (V)
PSTATMODEL	IQUANT	4	Pstat Model
PSTATSECTION	LABEL	REF600-11020	Pstat Section
PSTATSERIALNO	LABEL	11020	Pstat Serial Number
CTRLMODE	IQUANT	1	Control Mode
IESTAB	IQUANT	0	I/E Stability
CASPEED	IQUANT	1	Control Amp Speed
CONVENTION	IQUANT	1	Current Convention
ICHRANGE	IQUANT	2	Ich Range
ICHRANGEMODE	TOGGLE	F	Ich Auto Range
ICHOFFSETENABLE	TOGGLE	T	Ich Offset Enable
ICHOFFSET	QUANT	0	Ich Offset (V)
ICHFILTER	IQUANT	3	Ich Filter
VCHRANGE	IQUANT	2	Vch Range
VCHRANGEMODE	TOGGLE	F	Vch Auto Range
VCHOFFSETENABLE	TOGGLE	T	Vch Offset Enable
VCHOFFSET	QUANT	0	Vch Offset (V)
VCHFILTER	IQUANT	3	Vch Filter
ACHRANGE	IQUANT	2	Ach Range
ACHOFFSETENABLE	TOGGLE	F	Ach Offset Enable
ACHOFFSET	QUANT	0	Ach Offset (V)
ACHFILTER	IQUANT	3	Ach Filter
IERANGELOWERLIMIT	IQUANT	1	I/E Range Lower Limit
IERANGEMODE	TOGGLE	F	I/E AutoRange
IERANGE	IQUANT	6	I/E Range
POSFEEDENABLE	TOGGLE	F	Positive Feedback IR Comp
POSFEEDRESISTANCE	QUANT	0	Positive Feedback Resistance (ohm)
ACHSELECT	IQUANT	0	Ach Select
CABLEID	IQUANT	14	Cable ID
DCCALDATE	LABEL	8/19/2019	DC Calibration Date
ACCALDATE	LABEL	8/19/2019	AC Calibration Date
THERMOSELECT	IQUANT	1	Thermo Select
FRAMEWORKVERSION	QUANT	6.33	Framework Version
INSTRUMENTVERSION	LABEL	3.50	Instrument Version
ZCURVE	TABLE
	Pt	Time	Freq	Zreal	Zimag	Zsig	Zmod	Zphz	Idc	Vdc	IERange
	#	s	Hz	ohm	ohm	V	ohm	°	A	V	#
	0	2	1000078	2320.856	-1065.256	1	2553.653	-24.65479	-2.13683E-006	0.0101253	8
	1	3	794390.6	2496.776	-965.205	1	2676.847	-21.13553	-2.396762E-006	0.0100259	8
	2	4	630984.4	2637.363	-855.8233	1	2772.745	-17.97823	3.997061E-006	0.0084998	8
	3	6	501234.4	2745.085	-741.9925	1	2843.597	-15.12552	2.42477E-008	0.00916	8
	4	7	398109.4	2832.902	-654.325	1	2907.486	-13.00572	5.812844E-007	0.0090903	8
	5	9	316265.6	2905.427	-581.5031	1	2963.048	-11.31785	2.966246E-006	0.0084376	8
	6	10	251203.1	2948.065	-509.1774	1	2991.714	-9.79921	4.388501E-007	0.0090651	8
	7	11	199546.9	3002.215	-455.2201	1	3036.531	-8.621972	1.14739E-006	0.0088162	8
	8	13	158578.1	3036.563	-420.832	1	3065.585	-7.890263	2.984234E-006	0.0085215	8
	9	14	125953.1	3083.25	-356.219	1	3103.76	-6.59037	-1.078034E-006	0.0113258	7
	10	15	100078.1	3112.884	-342.6553	1	3131.686	-6.281629	9.154135E-008	0.0089058	7
	11	17	79453.13	3144.916	-341.1676	1	3163.367	-6.191364	-1.00928E-008	0.0090848	7
	12	18	63140.62	3179.624	-345.5932	1	3198.35	-6.203125	6.411423E-008	0.0089045	7
	13	19	50203.12	3216.127	-355.0435	1	3235.665	-6.299645	5.787468E-009	0.0091091	7
	14	21	39890.62	3255.053	-369.6218	1	3275.972	-6.478371	-5.588182E-008	0.0091979	7
	15	22	31640.63	3296.83	-390.1144	1	3319.831	-6.748437	3.626354E-008	0.0089265	7
	16	24	25171.88	3340.989	-414.9259	1	3366.656	-7.079459	-1.30254E-009	0.0090354	7
	17	25	20015.62	3388.635	-446.1108	1	3417.874	-7.49981	-2.975171E-008	0.0090414	7
	18	26	15890.62	3439.425	-482.5357	1	3473.109	-7.986212	-4.614923E-008	0.0091154	7
	19	28	12609.37	3493.893	-525.2251	1	3533.15	-8.549067	-4.31848E-008	0.0090896	7
	20	29	10078.13	3548.833	-574.5139	1	3595.035	-9.195727	-4.575548E-008	0.0091198	7
	21	30	8015.625	3606.006	-634.0289	1	3661.321	-9.97215	-1.566636E-009	0.009011	7
	22	32	6328.125	3666.802	-707.9282	1	3734.514	-10.92732	-1.160707E-008	0.0090515	7
	23	33	5015.625	3727.266	-796.1555	1	3811.349	-12.05736	7.152146E-008	0.0089745	7
	24	35	3984.375	3788.319	-904.261	1	3894.746	-13.42513	6.555816E-008	0.0088967	7
	25	36	3170.956	3850.607	-1038.557	1	3988.205	-15.09423	-2.029218E-009	0.0090262	7
	26	37	2527.573	3912.66	-1203.219	1	4093.488	-17.09368	4.796982E-008	0.0089483	7
	27	39	1976.103	3984.385	-1429.948	1	4233.211	-19.74245	4.962159E-008	0.0089503	7
	28	40	1577.524	4056.584	-1692.422	1	4395.471	-22.64608	4.895747E-008	0.0089473	7
	29	41	1265.625	4132.152	-2006.647	1	4593.616	-25.90204	-3.94597E-010	0.0090069	7
	30	43	998.264	4225.901	-2432.009	1	4875.747	-29.92046	9.548096E-008	0.0088963	7
	31	44	796.875	4330.888	-2931.708	1	5229.867	-34.09525	-2.847028E-008	0.0090314	7
	32	45	627.7902	4464.249	-3591.559	1	5729.644	-38.81723	-1.045014E-008	0.0090527	7
	33	47	505.5147	4610.767	-4328.817	1	6324.384	-43.19352	-1.111887E-009	0.009029	7
	34	48	397.9953	4807.951	-5323.99	1	7173.651	-47.91566	4.276484E-009	0.0090524	7
	35	49	315.5048	5050.899	-6524.551	1	8251.143	-52.2552	3.844998E-009	0.0090512	7
	36	51	252.4038	5344.656	-7937.819	1	9569.45	-56.04701	4.236057E-009	0.0090492	7
	37	52	198.6229	5750.291	-9799.32	1	11361.88	-59.59536	9.468778E-010	0.0089901	6
	38	54	158.3615	6241.03	-11955.93	1	13486.83	-62.43531	1.06722E-009	0.0089866	6
	39	55	125.558	6888.707	-14646.06	1	16185.22	-64.81027	7.967526E-010	0.0089863	6
	40	56	100.4464	7684.695	-17776.93	1	19366.82	-66.62191	4.202564E-010	0.0089883	6
	41	58	79.00281	8802.415	-21886.01	1	23589.82	-68.09032	8.257356E-010	0.008984	6
	42	59	63.3446	10140.3	-26342.21	1	28226.55	-68.94604	1.797884E-010	0.0089804	6
	43	60	49.86702	11979.37	-32376.19	1	34521.34	-69.69525	5.536617E-010	0.008983	6
	44	62	39.72458	14145.68	-39099.52	1	41579.72	-70.11056	6.726252E-010	0.0089827	6
	45	63	31.6723	16982.48	-47097.31	1	50065.57	-70.17157	7.211502E-010	0.0089819	6
	46	64	24.93351	20637.28	-57157.69	1	60769.23	-70.14745	4.510719E-010	0.0089848	6
	47	66	19.86229	25069.43	-68587.06	1	73025.08	-69.922	4.238602E-010	0.0089812	6
	48	67	15.83615	30752.8	-81696.25	1	87292.68	-69.37223	2.899377E-010	0.0089844	6
	49	68	12.40079	38169.75	-98717.2	1	105839.6	-68.86063	1.300123E-009	0.0089906	5
	50	70	9.93114	46272.41	-117050.3	1	125864.6	-68.43008	7.583031E-010	0.0089869	5
	51	71	7.944915	56327.08	-138517.5	1	149532	-67.87125	2.992619E-010	0.0090007	5
	52	73	6.317385	68858.31	-164096	1	177957.8	-67.23601	-1.104352E-010	0.0090122	5
	53	75	5.008013	84560.17	-194016.4	1	211643.1	-66.45049	1.314773E-010	0.0089943	5
	54	77	3.945707	103816.3	-229885.8	1	252240.6	-65.6961	-9.824379E-012	0.0089888	5
	55	80	3.158693	125500.7	-268518.3	1	296399.2	-64.94945	1.254506E-010	0.008982	5
	56	83	2.504006	151868.5	-314907.9	1	349615.6	-64.25369	1.669996E-010	0.0089985	5
	57	86	1.998082	181691.5	-366404.4	1	408979.3	-63.62425	3.463208E-010	0.0089881	5
	58	89	1.584686	219294.4	-427950.3	1	480865.3	-62.86806	5.88495E-011	0.0089451	5
	59	93	1.266892	258753.9	-495554.6	1	559042	-62.42868	2.412439E-010	0.0089938	5
	60	97	0.999041	309174.1	-580093	1	657340.5	-61.94357	-1.454355E-010	0.008968	5
