EXPLAIN
TAG	EISPOT
TITLE	LABEL	Potentiostatic EIS	Test &Identifier
DATE	LABEL	10/22/2019	Date
TIME	LABEL	8:23:52	Time
NOTES	NOTES	1	&Notes...
	
PSTAT	PSTAT	REF600-11020	Potentiostat
VDC	POTEN	0.00000E+000	T	DC &Voltage (V)
FREQINIT	QUANT	1.00000E+006	Initial Fre&q. (Hz)
FREQFINAL	QUANT	1.00000E+000	Final Fre&q. (Hz)
PTSPERDEC	QUANT	1.00000E+001	Points/&decade
VAC	QUANT	2.50000E+001	AC &Voltage (mV rms)
AREA	QUANT	1.00000E-002	&Area (cm^2)
CONDIT	TWOPARAM	T	5.00000E+000	0.00000E+000	Conditionin&g	Time(s)	E(V)
DELAY	TWOPARAM	T	5.00000E+000	0.00000E+000	Init. De&lay	Time(s)	Stab.(mV/s)
SPEED	SELECTOR	1	&Optimize for:
ZGUESS	QUANT	1.00000E+005	E&stimated Z (ohms)
OCVCURVE	TABLE	19
	Pt	T	Vf	Vm	Ach	Over
	#	s	V vs. Ref.	V	V	bits
	0	0.258333	1.41533E-002	1.41533E-002	5.84899E-004	...........
	1	0.516667	1.41638E-002	1.47032E-002	5.85265E-004	...........
	2	0.775	1.42284E-002	1.52298E-002	5.83265E-004	...........
	3	1.03333	1.44117E-002	1.57448E-002	5.85665E-004	...........
	4	1.29167	1.47412E-002	1.62418E-002	5.88999E-004	...........
	5	1.55	1.51823E-002	1.67145E-002	5.84899E-004	...........
	6	1.80833	1.56755E-002	1.71781E-002	5.84999E-004	...........
	7	2.06667	1.61756E-002	1.76199E-002	5.89099E-004	...........
	8	2.325	1.66613E-002	1.80451E-002	5.87865E-004	...........
	9	2.58333	1.71269E-002	1.84568E-002	5.86665E-004	...........
	10	2.84167	1.75730E-002	1.88556E-002	5.89299E-004	...........
	11	3.1	1.80018E-002	1.92426E-002	5.91399E-004	...........
	12	3.35833	1.84156E-002	1.96177E-002	5.86032E-004	...........
	13	3.61667	1.88158E-002	1.99729E-002	5.85432E-004	...........
	14	3.875	1.92028E-002	2.03224E-002	5.88399E-004	...........
	15	4.13333	1.95767E-002	2.06580E-002	5.90065E-004	...........
	16	4.39167	1.99377E-002	2.09837E-002	5.87732E-004	...........
	17	4.65	2.02866E-002	2.12966E-002	5.90999E-004	...........
	18	4.90833	2.06238E-002	2.16036E-002	5.88432E-004	...........
EOC	QUANT	0.0206238	Open Circuit (V)
PSTATMODEL	IQUANT	4	Pstat Model
PSTATSECTION	LABEL	REF600-11020	Pstat Section
PSTATSERIALNO	LABEL	11020	Pstat Serial Number
CTRLMODE	IQUANT	1	Control Mode
IESTAB	IQUANT	0	I/E Stability
CASPEED	IQUANT	1	Control Amp Speed
CONVENTION	IQUANT	1	Current Convention
ICHRANGE	IQUANT	2	Ich Range
ICHRANGEMODE	TOGGLE	F	Ich Auto Range
ICHOFFSETENABLE	TOGGLE	T	Ich Offset Enable
ICHOFFSET	QUANT	0	Ich Offset (V)
ICHFILTER	IQUANT	3	Ich Filter
VCHRANGE	IQUANT	2	Vch Range
VCHRANGEMODE	TOGGLE	F	Vch Auto Range
VCHOFFSETENABLE	TOGGLE	T	Vch Offset Enable
VCHOFFSET	QUANT	0	Vch Offset (V)
VCHFILTER	IQUANT	3	Vch Filter
ACHRANGE	IQUANT	2	Ach Range
ACHOFFSETENABLE	TOGGLE	F	Ach Offset Enable
ACHOFFSET	QUANT	0	Ach Offset (V)
ACHFILTER	IQUANT	3	Ach Filter
IERANGELOWERLIMIT	IQUANT	1	I/E Range Lower Limit
IERANGEMODE	TOGGLE	F	I/E AutoRange
IERANGE	IQUANT	5	I/E Range
POSFEEDENABLE	TOGGLE	F	Positive Feedback IR Comp
POSFEEDRESISTANCE	QUANT	0	Positive Feedback Resistance (ohm)
ACHSELECT	IQUANT	0	Ach Select
CABLEID	IQUANT	14	Cable ID
DCCALDATE	LABEL	8/19/2019	DC Calibration Date
ACCALDATE	LABEL	8/19/2019	AC Calibration Date
THERMOSELECT	IQUANT	1	Thermo Select
FRAMEWORKVERSION	QUANT	6.33	Framework Version
INSTRUMENTVERSION	LABEL	3.50	Instrument Version
ZCURVE	TABLE
	Pt	Time	Freq	Zreal	Zimag	Zsig	Zmod	Zphz	Idc	Vdc	IERange
	#	s	Hz	ohm	ohm	V	ohm	°	A	V	#
	0	2	1000078	2663.857	-1567.229	1	3090.686	-30.46961	4.158246E-006	0.0215697	8
	1	3	794390.6	2953.406	-1423.732	1	3278.661	-25.73706	-1.864665E-006	0.0223031	8
	2	5	630984.4	3203.808	-1276.342	1	3448.686	-21.72149	3.041703E-007	0.0223315	8
	3	6	501234.4	3382.737	-1108.427	1	3559.708	-18.14251	4.270589E-006	0.0213861	8
	4	8	398109.4	3515.194	-964.474	1	3645.106	-15.34284	5.490669E-007	0.0218193	8
	5	9	316265.6	3626.302	-823.409	1	3718.611	-12.79299	-7.968388E-007	0.0223723	8
	6	11	251203.1	3713.474	-699.4584	1	3778.774	-10.66708	9.080491E-007	0.0218065	8
	7	12	199546.9	3747.124	-618.2249	1	3797.781	-9.368634	1.099758E-006	0.0218338	8
	8	13	158578.1	3819.223	-527.0037	1	3855.412	-7.856468	8.308375E-007	0.0218263	8
	9	15	125953.1	3875.772	-420.5989	1	3898.527	-6.193503	-6.489858E-007	0.0238773	7
	10	16	100078.1	3898.668	-383.5728	1	3917.491	-5.618997	-1.882834E-008	0.0221865	7
	11	18	79453.13	3926.114	-363.9808	1	3942.949	-5.296618	-7.028304E-009	0.022081	7
	12	19	63140.62	3956.009	-354.3117	1	3971.844	-5.117921	8.580047E-009	0.0219733	7
	13	20	50203.12	3984.995	-352.5762	1	4000.562	-5.056132	8.489516E-008	0.0219809	7
	14	22	39890.62	4015.21	-359.8574	1	4031.304	-5.121368	-2.012E-009	0.0220417	7
	15	23	31640.63	4045.942	-376.1989	1	4063.394	-5.31219	-4.175961E-008	0.0221212	7
	16	24	25171.88	4078.655	-400.601	1	4098.281	-5.609535	6.398607E-008	0.0219304	7
	17	26	20015.62	4114.229	-439.5035	1	4137.638	-6.09751	-1.580765E-008	0.0221717	7
	18	27	15890.62	4153.936	-480.7502	1	4181.663	-6.60168	-1.288382E-008	0.0220016	7
	19	29	12609.37	4194.434	-537.5828	1	4228.743	-7.30354	-4.11861E-008	0.0221152	7
	20	30	10078.13	4236.468	-604.6073	1	4279.394	-8.122118	4.210496E-008	0.0218966	7
	21	31	8015.625	4285.24	-687.8727	1	4340.098	-9.119404	-3.605257E-008	0.022046	7
	22	33	6328.125	4335.559	-799.9246	1	4408.735	-10.4537	8.044922E-008	0.0218633	7
	23	34	5015.625	4389.341	-933.3547	1	4487.479	-12.00464	6.486589E-008	0.0219272	7
	24	35	3984.375	4453.689	-1085.6	1	4584.089	-13.69887	4.048599E-008	0.0218989	7
	25	37	3170.956	4513.554	-1293.967	1	4695.373	-15.99679	1.337987E-007	0.0218286	7
	26	38	2527.573	4585.755	-1536.39	1	4836.284	-18.52267	-3.451174E-008	0.0220643	7
	27	40	1976.103	4676.022	-1861.61	1	5032.969	-21.70841	-3.565098E-008	0.022063	7
	28	41	1577.524	4746.975	-2228.502	1	5244.043	-25.14806	-3.815755E-008	0.0220491	7
	29	42	1265.625	4877.405	-2668.361	1	5559.607	-28.68246	4.190336E-008	0.0218972	7
	30	44	998.264	5013.608	-3246.273	1	5972.818	-32.92275	-3.012817E-008	0.0220471	7
	31	45	796.875	5161.391	-3917.174	1	6479.522	-37.19623	8.009666E-008	0.0218628	7
	32	46	627.7902	5349.852	-4791.542	1	7181.907	-41.8489	-7.610648E-008	0.0221558	7
	33	48	505.5147	5549.727	-5771.113	1	8006.573	-46.12031	-3.469601E-008	0.022062	7
	34	49	397.9953	5809.41	-7096.129	1	9170.84	-50.69374	4.313111E-009	0.022054	7
	35	50	315.5048	6124.477	-8688.195	1	10629.86	-54.81925	1.280847E-009	0.0219954	6
	36	52	252.4038	6493.618	-10571.22	1	12406.36	-58.43871	1.12504E-009	0.0219931	6
	37	53	198.6229	6995.986	-13064.66	1	14819.89	-61.83142	4.521375E-010	0.0219965	6
	38	55	158.3615	7600.409	-15971.53	1	17687.73	-64.55151	1.061186E-009	0.0219929	6
	39	56	125.558	8412.565	-19620.66	1	21348.1	-66.79225	5.480952E-010	0.0219906	6
	40	57	100.4464	9416.797	-23878.68	1	25668.41	-68.47771	-2.952572E-010	0.0219928	6
	41	59	79.00281	10820.95	-29473.6	1	31397.23	-69.83978	2.144282E-010	0.0219891	6
	42	60	63.3446	12470.54	-35527.36	1	37652.45	-70.6583	-1.568171E-010	0.0219842	6
	43	62	49.86702	15320.91	-44152.62	1	46735.25	-70.86329	1.606452E-010	0.0219805	6
	44	63	39.72458	18312.13	-53490.58	1	56538.27	-71.10172	6.191022E-010	0.0219868	6
	45	64	31.6723	22371.46	-64690.8	1	68449.85	-70.92352	-9.535668E-011	0.0219827	6
	46	66	24.93351	28150.26	-78470.7	1	83367.18	-70.26527	6.235427E-010	0.0219843	6
	47	67	19.86229	35435.62	-93961.03	1	100420.9	-69.33698	2.416119E-010	0.0219845	6
	48	69	15.83615	44492.02	-110740	1	119343.6	-68.11121	-3.854232E-010	0.0219912	5
	49	70	12.40079	56315.66	-133165.7	1	144584.1	-67.07654	-3.956746E-010	0.0219938	5
	50	71	9.93114	71095.34	-157187.3	1	172517.8	-65.6629	-1.887928E-010	0.0219951	5
	51	73	7.944915	87861.61	-182237.3	1	202311.9	-64.26001	9.422906E-010	0.0219893	5
	52	75	6.317385	109959	-211738.9	1	238588.3	-62.55651	2.635587E-010	0.0220012	5
	53	77	5.008013	135585.1	-244336.2	1	279434.2	-60.97357	2.157742E-010	0.0219921	5
	54	79	3.945707	165722	-281460.3	1	326624.7	-59.5107	7.75655E-011	0.0219871	5
	55	82	3.158693	197601.5	-319061.1	1	375295	-58.22916	-7.857734E-011	0.0220006	5
	56	85	2.504006	234360.9	-363032.4	1	432108.3	-57.15514	3.00884E-011	0.0219796	5
	57	88	1.998082	273188.5	-410860.3	1	493394.6	-56.37934	-2.986686E-010	0.0220163	5
	58	91	1.584686	316586	-467933.2	1	564967.4	-55.9192	4.721937E-011	0.0220158	5
	59	95	1.266892	363163	-530087.9	1	642557.8	-55.58497	-2.087532E-010	0.0220279	5
	60	99	0.999041	415436.8	-607983.1	1	736363.4	-55.65508	-2.262488E-011	0.0219621	5
