EXPLAIN
TAG	EISPOT
TITLE	LABEL	Potentiostatic EIS	Test &Identifier
DATE	LABEL	10/31/2019	Date
TIME	LABEL	23:41:11	Time
NOTES	NOTES	1	&Notes...
	
PSTAT	PSTAT	REF600-11020	Potentiostat
VDC	POTEN	0.00000E+000	T	DC &Voltage (V)
FREQINIT	QUANT	1.00000E+006	Initial Fre&q. (Hz)
FREQFINAL	QUANT	1.00000E+000	Final Fre&q. (Hz)
PTSPERDEC	QUANT	1.00000E+001	Points/&decade
VAC	QUANT	2.50000E+001	AC &Voltage (mV rms)
AREA	QUANT	1.00000E-002	&Area (cm^2)
CONDIT	TWOPARAM	T	5.00000E+000	0.00000E+000	Conditionin&g	Time(s)	E(V)
DELAY	TWOPARAM	T	5.00000E+000	0.00000E+000	Init. De&lay	Time(s)	Stab.(mV/s)
SPEED	SELECTOR	0	&Optimize for:
ZGUESS	QUANT	1.00000E+005	E&stimated Z (ohms)
OCVCURVE	TABLE	19
	Pt	T	Vf	Vm	Ach	Over
	#	s	V vs. Ref.	V	V	bits
	0	0.258333	6.67180E-003	6.67180E-003	5.12200E-004	...........
	1	0.516667	6.67408E-003	6.79120E-003	5.12800E-004	...........
	2	0.775	6.68844E-003	6.92289E-003	5.10100E-004	...........
	3	1.03333	6.73031E-003	7.05300E-003	5.12866E-004	...........
	4	1.29167	6.80809E-003	7.19253E-003	5.13666E-004	...........
	5	1.55	6.91666E-003	7.33696E-003	5.13500E-004	...........
	6	1.80833	7.04426E-003	7.46109E-003	5.17200E-004	...........
	7	2.06667	7.18013E-003	7.59616E-003	5.15066E-004	...........
	8	2.325	7.31719E-003	7.73427E-003	5.14633E-004	...........
	9	2.58333	7.45279E-003	7.86063E-003	5.10167E-004	...........
	10	2.84167	7.58676E-003	7.98485E-003	5.12833E-004	...........
	11	3.1	7.71895E-003	8.12164E-003	5.07367E-004	...........
	12	3.35833	7.84921E-003	8.23456E-003	5.17766E-004	...........
	13	3.61667	7.97745E-003	8.35513E-003	5.16300E-004	...........
	14	3.875	8.10341E-003	8.49572E-003	5.13700E-004	...........
	15	4.13333	8.22812E-003	8.61635E-003	5.14200E-004	...........
	16	4.39167	8.35346E-003	8.73965E-003	5.13100E-004	...........
	17	4.65	8.47953E-003	8.85978E-003	5.12233E-004	...........
	18	4.90833	8.60466E-003	8.97189E-003	5.11500E-004	...........
EOC	QUANT	0.0086047	Open Circuit (V)
PSTATMODEL	IQUANT	4	Pstat Model
PSTATSECTION	LABEL	REF600-11020	Pstat Section
PSTATSERIALNO	LABEL	11020	Pstat Serial Number
CTRLMODE	IQUANT	1	Control Mode
IESTAB	IQUANT	0	I/E Stability
CASPEED	IQUANT	1	Control Amp Speed
CONVENTION	IQUANT	1	Current Convention
ICHRANGE	IQUANT	2	Ich Range
ICHRANGEMODE	TOGGLE	F	Ich Auto Range
ICHOFFSETENABLE	TOGGLE	T	Ich Offset Enable
ICHOFFSET	QUANT	0	Ich Offset (V)
ICHFILTER	IQUANT	3	Ich Filter
VCHRANGE	IQUANT	2	Vch Range
VCHRANGEMODE	TOGGLE	F	Vch Auto Range
VCHOFFSETENABLE	TOGGLE	T	Vch Offset Enable
VCHOFFSET	QUANT	0	Vch Offset (V)
VCHFILTER	IQUANT	3	Vch Filter
ACHRANGE	IQUANT	2	Ach Range
ACHOFFSETENABLE	TOGGLE	F	Ach Offset Enable
ACHOFFSET	QUANT	0	Ach Offset (V)
ACHFILTER	IQUANT	3	Ach Filter
IERANGELOWERLIMIT	IQUANT	1	I/E Range Lower Limit
IERANGEMODE	TOGGLE	F	I/E AutoRange
IERANGE	IQUANT	5	I/E Range
POSFEEDENABLE	TOGGLE	F	Positive Feedback IR Comp
POSFEEDRESISTANCE	QUANT	0	Positive Feedback Resistance (ohm)
ACHSELECT	IQUANT	0	Ach Select
CABLEID	IQUANT	14	Cable ID
DCCALDATE	LABEL	8/19/2019	DC Calibration Date
ACCALDATE	LABEL	8/19/2019	AC Calibration Date
THERMOSELECT	IQUANT	1	Thermo Select
FRAMEWORKVERSION	QUANT	6.33	Framework Version
INSTRUMENTVERSION	LABEL	3.50	Instrument Version
ZCURVE	TABLE
	Pt	Time	Freq	Zreal	Zimag	Zsig	Zmod	Zphz	Idc	Vdc	IERange
	#	s	Hz	ohm	ohm	V	ohm	°	A	V	#
	0	1	1000078	1770.283	-689.7358	1	1899.905	-21.28683	-5.278279E-006	0.0111852	8
	1	2	794390.6	1861.07	-609.0192	1	1958.185	-18.12024	9.381562E-006	0.0088732	8
	2	2	630984.4	1939.547	-531.5841	1	2011.075	-15.32704	-5.024336E-006	0.0107542	8
	3	2	501234.4	2003.933	-464.4157	1	2057.044	-13.04807	2.746286E-006	0.0104046	8
	4	3	398109.4	2051.038	-400.0884	1	2089.696	-11.03787	5.77547E-006	0.0089439	8
	5	3	316265.6	2083.59	-351.6726	1	2113.059	-9.58021	-2.859562E-006	0.0105582	8
	6	3	251203.1	2116.374	-310.7451	1	2139.065	-8.353	-4.324058E-008	0.0097739	8
	7	4	199546.9	2143.609	-278.0789	1	2161.571	-7.391396	-7.411646E-007	0.0104652	8
	8	4	158578.1	2156.794	-253.7617	1	2171.671	-6.710393	1.976942E-006	0.0096059	8
	9	4	125953.1	2204.298	-210.2113	1	2214.299	-5.447497	2.210096E-006	0.0052867	7
	10	4	100078.1	2214.917	-199.9137	1	2223.92	-5.157422	-1.024686E-006	0.0109674	7
	11	5	79453.13	2233.073	-205.5733	1	2242.515	-5.259738	3.500965E-007	0.0104111	7
	12	5	63140.62	2253.815	-214.2383	1	2263.975	-5.429983	3.83173E-007	0.0086651	7
	13	5	50203.12	2274.759	-227.587	1	2286.116	-5.713362	8.446547E-007	0.0093942	7
	14	6	39890.62	2299.076	-243.4641	1	2311.931	-6.044891	8.874574E-007	0.0088048	7
	15	6	31640.63	2324.068	-263.571	1	2338.966	-6.470232	6.999146E-007	0.009805	7
	16	6	25171.88	2352.22	-288.9639	1	2369.903	-7.003541	6.2462E-007	0.0085714	7
	17	7	20015.62	2382.103	-319.1633	1	2403.39	-7.63126	8.467644E-007	0.0094031	7
	18	7	15890.62	2415.168	-355.0763	1	2441.13	-8.36367	3.510703E-007	0.0104106	7
	19	7	12609.37	2452.433	-397.433	1	2484.428	-9.205134	9.094699E-007	0.0090661	7
	20	8	10078.13	2490.122	-446.1311	1	2529.771	-10.15737	7.936947E-007	0.008633	7
	21	8	8015.625	2530.35	-504.5207	1	2580.157	-11.2762	-2.282977E-007	0.0111281	7
	22	8	6328.125	2576.666	-576.353	1	2640.339	-12.60847	6.274987E-007	0.0085687	7
	23	9	5015.625	2622.443	-662.2712	1	2704.776	-14.17312	6.25114E-007	0.0085692	7
	24	9	3984.375	2669.222	-765.382	1	2776.789	-15.9999	-6.204104E-007	0.0099075	7
	25	9	3170.956	2720.5	-891.2888	1	2862.781	-18.1398	8.464099E-007	0.0093974	7
	26	10	2527.573	2772.94	-1044.414	1	2963.106	-20.63863	-1.029314E-006	0.0112586	7
	27	10	1976.103	2835.481	-1253.334	1	3100.129	-23.84631	-5.042023E-007	0.0113362	7
	28	10	1577.524	2884.707	-1509.834	1	3255.938	-27.62723	8.008669E-008	0.010786	7
	29	11	1265.625	2963.065	-1776.328	1	3454.721	-30.94228	-6.193477E-007	0.0099064	7
	30	11	998.264	3044.207	-2155.438	1	3730.028	-35.30025	-9.114601E-007	0.0113793	7
	31	11	796.875	3131.443	-2612.306	1	4078	-39.83547	7.021683E-007	0.0098005	7
	32	11	627.7902	3246.283	-3201.134	1	4559.125	-44.59878	-6.177499E-007	0.009905	7
	33	12	505.5147	3369.556	-3874.123	1	5134.466	-48.98457	8.914738E-007	0.0087999	7
	34	12	397.9953	3546.602	-4773.904	1	5947.146	-53.39082	9.2841E-010	0.0100383	7
	35	12	315.5048	3759.765	-5861.543	1	6963.729	-57.3227	7.354573E-011	0.010038	7
	36	13	252.4038	4022.86	-7145.634	1	8200.212	-60.62129	-1.119845E-010	0.0100414	7
	37	13	198.6229	4389.384	-8836.803	1	9866.9	-63.58566	2.356689E-009	0.0100344	7
	38	13	158.3615	4843.254	-10795.09	1	11831.78	-65.83645	-3.320992E-010	0.0099787	6
	39	14	125.558	5450.308	-13245.73	1	14323.24	-67.63399	4.73282E-010	0.0099763	6
	40	14	100.4464	6196.846	-16087.85	1	17240.06	-68.93391	-7.611378E-010	0.0099773	6
	41	14	79.00281	7257.016	-19775.66	1	21065.16	-69.84853	1.001232E-011	0.0099797	6
	42	15	63.3446	8756.766	-24002.96	1	25550.41	-69.95701	-9.125197E-010	0.0099732	6
	43	15	49.86702	10514.97	-29311.77	1	31140.72	-70.26564	-2.690944E-010	0.0099652	6
	44	15	39.72458	12651.92	-35236.34	1	37438.89	-70.24887	2.850752E-010	0.0099743	6
	45	16	31.6723	15433.4	-42342	1	45067	-69.97351	1.204075E-010	0.0099744	6
	46	16	24.93351	19407.71	-51172.65	1	54729.33	-69.23029	4.088789E-010	0.0099739	6
	47	16	19.86229	24063.12	-60866.78	1	65450.73	-68.42909	1.832341E-009	0.0099812	6
	48	17	15.83615	29135.92	-71774.09	1	77462.39	-67.90584	2.758734E-010	0.0099776	6
	49	17	12.40079	37852.97	-86053.33	1	94010.76	-66.25636	-1.115162E-009	0.0099792	6
	50	17	9.93114	46085.12	-100672.8	1	110719.7	-65.40305	4.417584E-010	0.0099718	5
	51	18	7.944915	56083.39	-117297.5	1	130015.6	-64.44616	-5.082185E-010	0.0099877	5
	52	19	6.317385	68298.1	-136388.8	1	152533.8	-63.40012	-3.831452E-010	0.0099884	5
	53	19	5.008013	82829.34	-158566.5	1	178896.7	-62.41908	-1.033161E-010	0.0099878	5
	54	20	3.945707	99989.4	-185172.3	1	210444	-61.63182	-6.487971E-010	0.0099654	5
	55	22	3.158693	118379.7	-212788.4	1	243500.8	-60.91169	-1.864944E-010	0.0099692	5
	56	23	2.504006	139943	-246468	1	283426.4	-60.41235	-5.148793E-011	0.0099687	5
	57	25	1.998082	164063.6	-283830.5	1	327836.3	-59.97063	-4.165984E-010	0.0099281	5
	58	26	1.584686	191020.5	-329564.1	1	380921.7	-59.90275	-3.472952E-010	0.0099265	5
	59	28	1.266892	221351.7	-379875.7	1	439661.3	-59.77085	-3.14217E-010	0.0099665	5
	60	31	0.999041	258758.9	-442683.3	1	512761.8	-59.6927	-2.547632E-010	0.0099966	5
