EXPLAIN
TAG	EISPOT
TITLE	LABEL	Potentiostatic EIS	Test &Identifier
DATE	LABEL	11/11/2019	Date
TIME	LABEL	14:44:36	Time
NOTES	NOTES	3	&Notes...
	
	
	
PSTAT	PSTAT	REF600-11020	Potentiostat
VDC	POTEN	0.00000E+000	T	DC &Voltage (V)
FREQINIT	QUANT	1.00000E+006	Initial Fre&q. (Hz)
FREQFINAL	QUANT	1.00000E+000	Final Fre&q. (Hz)
PTSPERDEC	QUANT	1.00000E+001	Points/&decade
VAC	QUANT	2.50000E+001	AC &Voltage (mV rms)
AREA	QUANT	1.00000E-002	&Area (cm^2)
CONDIT	TWOPARAM	T	5.00000E+000	0.00000E+000	Conditionin&g	Time(s)	E(V)
DELAY	TWOPARAM	T	5.00000E+000	0.00000E+000	Init. De&lay	Time(s)	Stab.(mV/s)
SPEED	SELECTOR	1	&Optimize for:
ZGUESS	QUANT	1.00000E+005	E&stimated Z (ohms)
OCVCURVE	TABLE	19
	Pt	T	Vf	Vm	Ach	Over
	#	s	V vs. Ref.	V	V	bits
	0	0.258333	5.52034E-003	5.52034E-003	5.03000E-004	...........
	1	0.516667	5.51885E-003	5.44225E-003	5.08667E-004	...........
	2	0.775	5.50976E-003	5.37203E-003	5.04900E-004	...........
	3	1.03333	5.48548E-003	5.36661E-003	5.05933E-004	...........
	4	1.29167	5.44771E-003	5.36416E-003	5.03067E-004	...........
	5	1.55	5.40906E-003	5.35135E-003	4.99100E-004	...........
	6	1.80833	5.38181E-003	5.41846E-003	5.04233E-004	...........
	7	2.06667	5.37195E-003	5.42761E-003	5.02600E-004	...........
	8	2.325	5.37696E-003	5.30285E-003	5.04467E-004	...........
	9	2.58333	5.38362E-003	5.39818E-003	4.99900E-004	...........
	10	2.84167	5.38118E-003	5.35050E-003	5.02567E-004	...........
	11	3.1	5.37494E-003	5.45415E-003	5.04567E-004	...........
	12	3.35833	5.37879E-003	5.52047E-003	5.02867E-004	...........
	13	3.61667	5.40301E-003	5.57326E-003	5.00067E-004	...........
	14	3.875	5.44641E-003	5.54388E-003	5.01100E-004	...........
	15	4.13333	5.49487E-003	5.58867E-003	5.01767E-004	...........
	16	4.39167	5.53433E-003	5.61357E-003	4.99433E-004	...........
	17	4.65	5.56264E-003	5.61088E-003	4.96167E-004	...........
	18	4.90833	5.58441E-003	5.64475E-003	5.00867E-004	...........
EOC	QUANT	0.0055844	Open Circuit (V)
PSTATMODEL	IQUANT	4	Pstat Model
PSTATSECTION	LABEL	REF600-11020	Pstat Section
PSTATSERIALNO	LABEL	11020	Pstat Serial Number
CTRLMODE	IQUANT	1	Control Mode
IESTAB	IQUANT	0	I/E Stability
CASPEED	IQUANT	1	Control Amp Speed
CONVENTION	IQUANT	1	Current Convention
ICHRANGE	IQUANT	2	Ich Range
ICHRANGEMODE	TOGGLE	F	Ich Auto Range
ICHOFFSETENABLE	TOGGLE	T	Ich Offset Enable
ICHOFFSET	QUANT	0	Ich Offset (V)
ICHFILTER	IQUANT	3	Ich Filter
VCHRANGE	IQUANT	2	Vch Range
VCHRANGEMODE	TOGGLE	F	Vch Auto Range
VCHOFFSETENABLE	TOGGLE	T	Vch Offset Enable
VCHOFFSET	QUANT	0	Vch Offset (V)
VCHFILTER	IQUANT	3	Vch Filter
ACHRANGE	IQUANT	2	Ach Range
ACHOFFSETENABLE	TOGGLE	F	Ach Offset Enable
ACHOFFSET	QUANT	0	Ach Offset (V)
ACHFILTER	IQUANT	3	Ach Filter
IERANGELOWERLIMIT	IQUANT	1	I/E Range Lower Limit
IERANGEMODE	TOGGLE	F	I/E AutoRange
IERANGE	IQUANT	5	I/E Range
POSFEEDENABLE	TOGGLE	F	Positive Feedback IR Comp
POSFEEDRESISTANCE	QUANT	0	Positive Feedback Resistance (ohm)
ACHSELECT	IQUANT	0	Ach Select
CABLEID	IQUANT	14	Cable ID
DCCALDATE	LABEL	8/19/2019	DC Calibration Date
ACCALDATE	LABEL	8/19/2019	AC Calibration Date
THERMOSELECT	IQUANT	1	Thermo Select
FRAMEWORKVERSION	QUANT	6.33	Framework Version
INSTRUMENTVERSION	LABEL	3.50	Instrument Version
ZCURVE	TABLE
	Pt	Time	Freq	Zreal	Zimag	Zsig	Zmod	Zphz	Idc	Vdc	IERange
	#	s	Hz	ohm	ohm	V	ohm	°	A	V	#
	0	2	1000078	2353.947	-1694.093	1	2900.175	-35.74189	-5.239657E-007	0.0073285	8
	1	3	794390.6	2691.736	-1647.345	1	3155.818	-31.46668	6.458712E-006	0.0066288	8
	2	5	630984.4	2997.769	-1558.015	1	3378.465	-27.46203	-5.963105E-006	0.0076113	8
	3	6	501234.4	3262.836	-1431.578	1	3563.077	-23.68959	-1.126108E-006	0.0073184	8
	4	7	398109.4	3502.314	-1294.814	1	3733.999	-20.28947	5.162198E-008	0.0068466	8
	5	9	316265.6	3694.549	-1160.977	1	3872.668	-17.44484	-1.151944E-006	0.0074206	8
	6	10	251203.1	3839.226	-1022.007	1	3972.927	-14.90653	-4.797767E-006	0.0077726	8
	7	11	199546.9	3957.823	-891.5907	1	4057.006	-12.69527	-5.532652E-007	0.0074101	8
	8	13	158578.1	4064.076	-782.7935	1	4138.778	-10.90239	4.816096E-006	0.0061606	8
	9	14	125953.1	4153.307	-625.9274	1	4200.207	-8.570311	-1.979763E-006	0.0097911	7
	10	15	100078.1	4199.443	-567.9653	1	4237.677	-7.702388	-7.506875E-007	0.0084287	7
	11	17	79453.13	4256.272	-517.8028	1	4287.654	-6.936313	-2.552778E-007	0.0063057	7
	12	18	63140.62	4300.029	-483.1779	1	4327.09	-6.411216	-1.02206E-006	0.0082236	7
	13	19	50203.12	4340.747	-462.7138	1	4365.339	-6.084624	-1.0234E-006	0.0082222	7
	14	21	39890.62	4387.203	-453.4402	1	4410.574	-5.900865	6.522944E-007	0.0055408	7
	15	22	31640.63	4423.196	-453.1862	1	4446.351	-5.849926	-1.019744E-006	0.0079243	7
	16	23	25171.88	4466.127	-462.7433	1	4490.036	-5.91541	-9.174196E-007	0.0083704	7
	17	25	20015.62	4513.706	-483.1552	1	4539.491	-6.10978	5.727421E-008	0.007821	7
	18	26	15890.62	4560.327	-512.1264	1	4588.993	-6.407492	-2.559919E-007	0.0063055	7
	19	27	12609.37	4615.062	-550.8016	1	4647.814	-6.805984	6.964113E-007	0.006825	7
	20	29	10078.13	4665.65	-596.3564	1	4703.608	-7.283966	5.099109E-007	0.007192	7
	21	30	8015.625	4718.428	-660.6334	1	4764.451	-7.970248	9.910491E-008	0.0058686	7
	22	31	6328.125	4778.396	-734.522	1	4834.521	-8.738948	3.235652E-007	0.0074635	7
	23	33	5015.625	4832.3	-829.2512	1	4902.936	-9.73745	-7.50464E-007	0.008415	7
	24	34	3984.375	4892.971	-947.0361	1	4983.778	-10.95417	-2.543151E-007	0.0063035	7
	25	36	3170.956	4953.967	-1095.251	1	5073.595	-12.46673	5.719451E-008	0.0078186	7
	26	37	2527.573	5013.013	-1276.245	1	5172.92	-14.2833	-7.493873E-007	0.0084176	7
	27	38	1976.103	5087.884	-1524.842	1	5311.47	-16.68351	-1.021415E-006	0.0082186	7
	28	40	1577.524	5163.23	-1803.632	1	5469.189	-19.25545	-1.018036E-006	0.0079206	7
	29	41	1265.625	5247.501	-2161.855	1	5675.375	-22.39058	5.103656E-007	0.0071878	7
	30	42	998.264	5349.672	-2626.107	1	5959.482	-26.14601	9.223298E-007	0.006065	7
	31	44	796.875	5466.841	-3171.374	1	6320.124	-30.11849	8.193732E-007	0.0056009	7
	32	45	627.7902	5612.118	-3884.254	1	6825.196	-34.68785	4.069877E-007	0.0056131	7
	33	46	505.5147	5780.681	-4682.572	1	7439.271	-39.00879	9.088984E-007	0.0057883	7
	34	48	397.9953	6015.741	-5752.64	1	8323.581	-43.71927	1.256276E-009	0.0070378	7
	35	49	315.5048	6300.681	-7042.531	1	9449.647	-48.18223	3.523695E-009	0.007037	7
	36	50	252.4038	6652.487	-8551.6	1	10834.46	-52.11983	3.690723E-010	0.0069763	6
	37	52	198.6229	7128.646	-10534.21	1	12719.56	-55.91325	6.564354E-010	0.0069716	6
	38	53	158.3615	7708.261	-12815.37	1	14954.97	-58.9737	8.00233E-010	0.0069758	6
	39	55	125.558	8466.788	-15649.25	1	17792.85	-61.58506	6.526352E-010	0.0069744	6
	40	56	100.4464	9393.077	-18935.42	1	21137.17	-63.61589	1.219907E-009	0.0069668	6
	41	57	79.00281	10661.68	-23212.65	1	25544.06	-65.33045	5.35837E-010	0.0069693	6
	42	59	63.3446	12283.39	-27936.79	1	30517.96	-66.26562	-3.992368E-011	0.0069738	6
	43	60	49.86702	14037.45	-34067.15	1	36845.91	-67.60578	1.391563E-010	0.0069726	6
	44	62	39.72458	16534.04	-41007.27	1	44215.05	-68.04082	-9.876099E-011	0.0069822	6
	45	63	31.6723	19523.64	-49405.52	1	53123.23	-68.43749	-1.919109E-010	0.0069749	6
	46	64	24.93351	23732.39	-59919.47	1	64448.2	-68.39289	-3.393413E-010	0.0069745	6
	47	66	19.86229	28728.59	-71801.4	1	77335.45	-68.19307	-3.599098E-010	0.0069788	6
	48	67	15.83615	34848.68	-85964.62	1	92759.62	-67.93315	1.481575E-009	0.0069733	6
	49	68	12.40079	43834.71	-102886.1	1	111834.8	-66.92352	1.741898E-011	0.006979	5
	50	70	9.93114	54483.27	-121523.5	1	133178	-65.85162	2.138024E-010	0.0069783	5
	51	71	7.944915	67131.16	-142053.3	1	157116.9	-64.70564	-2.148825E-010	0.0069703	5
	52	73	6.317385	82658.77	-165975.1	1	185419	-63.52581	5.568123E-010	0.006975	5
	53	75	5.008013	101892.7	-193068.1	1	218305.8	-62.1769	8.309819E-011	0.0069799	5
	54	78	3.945707	124593.6	-223615	1	255982.9	-60.87436	-1.397441E-010	0.0069823	5
	55	80	3.158693	148757.2	-255188.8	1	295381.1	-59.76081	2.822135E-012	0.0069756	5
	56	83	2.504006	176156.7	-292293.1	1	341271.8	-58.92383	1.127701E-010	0.0069893	5
	57	86	1.998082	204996.3	-333165.4	1	391181.1	-58.39606	3.053657E-010	0.0069684	5
	58	89	1.584686	238564.9	-382336.5	1	450660	-58.03724	-3.908142E-011	0.0069312	5
	59	93	1.266892	271866.8	-437811.2	1	515354.5	-58.16103	2.779157E-010	0.0069657	5
	60	97	0.999041	312143.9	-509347.9	1	597385.3	-58.49877	-2.629214E-010	0.0069725	5
