EXPLAIN
TAG	EISPOT
TITLE	LABEL	Potentiostatic IDE	Test &Identifier
DATE	LABEL	9/12/2019	Date
TIME	LABEL	8:28:25	Time
NOTES	NOTES	1	&Notes...
	
PSTAT	PSTAT	REF600-11020	Potentiostat
VDC	POTEN	0.00000E+000	T	DC &Voltage (V)
FREQINIT	QUANT	1.00000E+006	Initial Fre&q. (Hz)
FREQFINAL	QUANT	1.00000E+000	Final Fre&q. (Hz)
PTSPERDEC	QUANT	1.00000E+001	Points/&decade
VAC	QUANT	2.50000E+001	AC &Voltage (mV rms)
AREA	QUANT	1.00000E-002	&Area (cm^2)
CONDIT	TWOPARAM	T	5.00000E+000	0.00000E+000	Conditionin&g	Time(s)	E(V)
DELAY	TWOPARAM	T	5.00000E+000	0.00000E+000	Init. De&lay	Time(s)	Stab.(mV/s)
SPEED	SELECTOR	1	&Optimize for:
ZGUESS	QUANT	1.00000E+007	E&stimated Z (ohms)
OCVCURVE	TABLE	19
	Pt	T	Vf	Vm	Ach	Over
	#	s	V vs. Ref.	V	V	bits
	0	0.258333	2.10574E-003	2.10574E-003	5.59132E-004	...........
	1	0.516667	2.10163E-003	1.89041E-003	5.59732E-004	...........
	2	0.775	2.07646E-003	1.69139E-003	5.59799E-004	...........
	3	1.03333	2.00572E-003	1.50651E-003	5.63999E-004	...........
	4	1.29167	1.88044E-003	1.33721E-003	5.63466E-004	...........
	5	1.55	1.71640E-003	1.17710E-003	5.64899E-004	...........
	6	1.80833	1.53823E-003	1.02812E-003	5.63932E-004	...........
	7	2.06667	1.36334E-003	8.83192E-004	5.63599E-004	...........
	8	2.325	1.19864E-003	7.46963E-004	5.68066E-004	...........
	9	2.58333	1.04461E-003	6.17535E-004	5.67332E-004	...........
	10	2.84167	8.99670E-004	4.93662E-004	5.61132E-004	...........
	11	3.1	7.62330E-004	3.72423E-004	5.64532E-004	...........
	12	3.35833	6.31497E-004	2.61017E-004	5.59699E-004	...........
	13	3.61667	5.06393E-004	1.47185E-004	5.64399E-004	...........
	14	3.875	3.86332E-004	3.68450E-005	5.63232E-004	...........
	15	4.13333	2.70521E-004	-6.29441E-005	5.59699E-004	...........
	16	4.39167	1.58580E-004	-1.61851E-004	5.55233E-004	...........
	17	4.65	5.08360E-005	-2.55838E-004	5.58632E-004	...........
	18	4.90833	-5.24029E-005	-3.47956E-004	5.56533E-004	...........
EOC	QUANT	-5.240293E-005	Open Circuit (V)
PSTATMODEL	IQUANT	4	Pstat Model
PSTATSECTION	LABEL	REF600-11020	Pstat Section
PSTATSERIALNO	LABEL	11020	Pstat Serial Number
CTRLMODE	IQUANT	1	Control Mode
IESTAB	IQUANT	0	I/E Stability
CASPEED	IQUANT	1	Control Amp Speed
CONVENTION	IQUANT	1	Current Convention
ICHRANGE	IQUANT	2	Ich Range
ICHRANGEMODE	TOGGLE	F	Ich Auto Range
ICHOFFSETENABLE	TOGGLE	T	Ich Offset Enable
ICHOFFSET	QUANT	0	Ich Offset (V)
ICHFILTER	IQUANT	3	Ich Filter
VCHRANGE	IQUANT	2	Vch Range
VCHRANGEMODE	TOGGLE	F	Vch Auto Range
VCHOFFSETENABLE	TOGGLE	T	Vch Offset Enable
VCHOFFSET	QUANT	0	Vch Offset (V)
VCHFILTER	IQUANT	3	Vch Filter
ACHRANGE	IQUANT	2	Ach Range
ACHOFFSETENABLE	TOGGLE	F	Ach Offset Enable
ACHOFFSET	QUANT	0	Ach Offset (V)
ACHFILTER	IQUANT	3	Ach Filter
IERANGELOWERLIMIT	IQUANT	1	I/E Range Lower Limit
IERANGEMODE	TOGGLE	F	I/E AutoRange
IERANGE	IQUANT	1	I/E Range
POSFEEDENABLE	TOGGLE	F	Positive Feedback IR Comp
POSFEEDRESISTANCE	QUANT	0	Positive Feedback Resistance (ohm)
ACHSELECT	IQUANT	0	Ach Select
CABLEID	IQUANT	14	Cable ID
DCCALDATE	LABEL	8/19/2019	DC Calibration Date
ACCALDATE	LABEL	8/19/2019	AC Calibration Date
THERMOSELECT	IQUANT	1	Thermo Select
FRAMEWORKVERSION	QUANT	6.33	Framework Version
INSTRUMENTVERSION	LABEL	3.50	Instrument Version
ZCURVE	TABLE
	Pt	Time	Freq	Zreal	Zimag	Zsig	Zmod	Zphz	Idc	Vdc	IERange
	#	s	Hz	ohm	ohm	V	ohm	°	A	V	#
	0	1	1000078	1698.958	-488.9302	1	1767.911	-16.05489	8.111775E-006	0.0010592	8
	1	2	794390.6	1753.136	-425.6662	1	1804.073	-13.64748	-1.968534E-007	0.0015087	8
	2	4	630984.4	1800.738	-363.6355	1	1837.087	-11.4166	5.469671E-007	0.0017063	8
	3	5	501234.4	1834.22	-311.9075	1	1860.55	-9.65078	1.952093E-006	0.0013737	8
	4	6	398109.4	1862.262	-268.4953	1	1881.518	-8.204197	7.02252E-007	0.001544	8
	5	8	316265.6	1879.779	-235.8584	1	1894.518	-7.151607	-8.12071E-007	0.0019882	8
	6	9	251203.1	1895.816	-207.3413	1	1907.121	-6.241508	1.914181E-007	0.001842	8
	7	11	199546.9	1909.27	-187.6353	1	1918.468	-5.612772	8.041966E-007	0.0015097	8
	8	12	158578.1	1927.372	-175.8127	1	1935.374	-5.212033	4.865519E-006	0.0008019	8
	9	13	125953.1	1958.075	-144.1237	1	1963.371	-4.209654	-7.472685E-007	0.0029513	7
	10	14	100078.1	1969.459	-139.1421	1	1974.368	-4.041226	-2.209795E-008	0.0017739	7
	11	16	79453.13	1984.305	-145.0251	1	1989.597	-4.180094	-1.548305E-009	0.0016512	7
	12	17	63140.62	2000.125	-154.2702	1	2006.066	-4.410507	-3.562797E-008	0.0017455	7
	13	18	50203.12	2017.864	-164.6268	1	2024.568	-4.664128	2.135489E-008	0.0016161	7
	14	20	39890.62	2035.315	-178.2825	1	2043.108	-5.006023	1.194917E-007	0.0014501	7
	15	21	31640.63	2056.882	-192.2479	1	2065.846	-5.339677	-3.112521E-009	0.0016515	7
	16	22	25171.88	2077.087	-210.713	1	2087.748	-5.792633	5.969297E-008	0.0016176	7
	17	24	20015.62	2098.202	-233.2089	1	2111.122	-6.342223	-4.133493E-008	0.0016558	7
	18	25	15890.62	2119.843	-260.3406	1	2135.769	-7.001509	-3.560601E-008	0.0017424	7
	19	26	12609.37	2143.617	-296.3969	1	2164.011	-7.872343	-1.645021E-008	0.0016211	7
	20	28	10078.13	2166.712	-337.927	1	2192.906	-8.864608	-4.407582E-008	0.0016901	7
	21	29	8015.625	2192.386	-390.6064	1	2226.911	-10.1021	-5.751829E-008	0.0017276	7
	22	30	6328.125	2220.52	-457.4746	1	2267.155	-11.64127	1.189339E-007	0.0014465	7
	23	32	5015.625	2251.468	-539.1298	1	2315.117	-13.46632	1.186588E-009	0.0016429	7
	24	33	3984.375	2284.996	-637.7957	1	2372.338	-15.59566	1.827801E-008	0.0015591	7
	25	34	3170.956	2322.122	-757.9626	1	2442.694	-18.07718	7.460918E-008	0.0015048	7
	26	36	2527.573	2363.207	-904.529	1	2530.399	-20.94459	5.370081E-009	0.0016473	7
	27	37	1976.103	2412.686	-1100.969	1	2652.015	-24.52839	-3.924533E-008	0.0016566	7
	28	39	1577.524	2464.316	-1324.174	1	2797.551	-28.25089	-1.753445E-008	0.0016736	7
	29	40	1265.625	2520.519	-1591.336	1	2980.833	-32.26637	-4.103921E-008	0.001647	7
	30	41	998.264	2591.698	-1947.243	1	3241.705	-36.91895	1.227242E-007	0.0014413	7
	31	43	796.875	2671.72	-2365.579	1	3568.48	-41.52214	4.558825E-008	0.0014834	7
	32	44	627.7902	2774.114	-2914.2	1	4023.465	-46.41073	4.734597E-008	0.0014899	7
	33	45	505.5147	2887.486	-3533.031	1	4562.881	-50.74146	-1.943938E-008	0.0016276	7
	34	47	397.9953	3049.125	-4365.849	1	5325.204	-55.0694	7.130629E-009	0.0016299	7
	35	48	315.5048	3247.775	-5369.34	1	6275.178	-58.83134	6.943967E-009	0.001635	7
	36	49	252.4038	3493.187	-6550.385	1	7423.604	-61.92991	6.014243E-009	0.0016272	7
	37	51	198.6229	3835.284	-8106.507	1	8967.991	-64.68062	6.26407E-009	0.0016283	7
	38	52	158.3615	4263.627	-9906.38	1	10784.94	-66.71335	1.790483E-009	0.0015647	6
	39	53	125.558	4830.79	-12152.25	1	13077.22	-68.32108	1.832103E-009	0.0015707	6
	40	55	100.4464	5550.847	-14754.18	1	15763.81	-69.38259	1.036637E-009	0.0015659	6
	41	56	79.00281	6573.786	-18143.51	1	19297.71	-70.08346	1.726899E-009	0.0015692	6
	42	57	63.3446	7641.147	-21853.6	1	23150.96	-70.72774	6.392529E-010	0.0015655	6
	43	59	49.86702	9549.31	-26708.38	1	28364.18	-70.326	4.78653E-010	0.0015665	6
	44	60	39.72458	11536.96	-32248.17	1	34249.75	-70.31506	1.14554E-009	0.0015681	6
	45	61	31.6723	14239.74	-38629.73	1	41170.7	-69.76505	1.462542E-009	0.0015676	6
	46	63	24.93351	17782.17	-46669.86	1	49942.78	-69.14214	1.054273E-009	0.0015665	6
	47	64	19.86229	22007.93	-55562.51	1	59762.38	-68.39182	1.006847E-009	0.0015663	6
	48	65	15.83615	27316.57	-65580.45	1	71042.18	-67.38655	2.853283E-010	0.001564	6
	49	67	12.40079	34144.41	-78467.95	1	85574.88	-66.4843	1.829273E-009	0.0015766	6
	50	68	9.93114	41850.38	-92132.76	1	101192.4	-65.57056	5.529147E-010	0.0015788	6
	51	70	7.944915	51097.01	-107124.7	1	118687	-64.4995	4.964036E-010	0.0015788	5
	52	71	6.317385	62209.45	-125173.7	1	139780.1	-63.57332	7.864636E-011	0.0015752	5
	53	73	5.008013	75664.02	-146217.8	1	164635	-62.63957	1.640277E-010	0.001572	5
	54	76	3.945707	91958.8	-170755.5	1	193943	-61.69573	6.541459E-010	0.0015791	5
	55	78	3.158693	109769.3	-196759.4	1	225307.7	-60.84348	5.427824E-010	0.0015906	5
	56	82	2.504006	131653.3	-228567.5	1	263772.1	-60.05836	-2.281918E-010	0.0015785	5
	57	84	1.998082	156035.8	-262189.3	1	305107.2	-59.242	2.560626E-010	0.0015322	5
	58	88	1.584686	184186.1	-301892.1	1	353643	-58.61239	4.031178E-011	0.0015929	5
	59	91	1.266892	216040.7	-345517.3	1	407499.5	-57.98361	1.913976E-010	0.0015317	5
	60	95	0.999041	252888.3	-397460.2	1	471091.4	-57.533	2.5157E-010	0.0016177	5
