EXPLAIN
TAG	EISPOT
TITLE	LABEL	Potentiostatic EIS	Test &Identifier
DATE	LABEL	6/20/2000	Date
TIME	LABEL	9:12:20	Time
NOTES	NOTES	2	&Notes...
	
	
PSTAT	PSTAT	REF600-11020	Potentiostat
VDC	POTEN	0.00000E+000	T	DC &Voltage (V)
FREQINIT	QUANT	1.00000E+006	Initial Fre&q. (Hz)
FREQFINAL	QUANT	1.00000E+000	Final Fre&q. (Hz)
PTSPERDEC	QUANT	1.00000E+001	Points/&decade
VAC	QUANT	2.50000E+001	AC &Voltage (mV rms)
AREA	QUANT	1.00000E-002	&Area (cm^2)
CONDIT	TWOPARAM	T	5.00000E+000	0.00000E+000	Conditionin&g	Time(s)	E(V)
DELAY	TWOPARAM	T	5.00000E+000	0.00000E+000	Init. De&lay	Time(s)	Stab.(mV/s)
SPEED	SELECTOR	0	&Optimize for:
ZGUESS	QUANT	1.00000E+005	E&stimated Z (ohms)
OCVCURVE	TABLE	19
	Pt	T	Vf	Vm	Ach	Over
	#	s	V vs. Ref.	V	V	bits
	0	0.258333	6.78386E-003	6.78386E-003	5.56699E-004	...........
	1	0.516667	6.78333E-003	6.75615E-003	5.59999E-004	...........
	2	0.775	6.78098E-003	6.77722E-003	5.56233E-004	...........
	3	1.03333	6.77901E-003	6.88415E-003	5.62432E-004	...........
	4	1.29167	6.78536E-003	6.82119E-003	5.54633E-004	...........
	5	1.55	6.79876E-003	6.63341E-003	5.58533E-004	...........
	6	1.80833	6.79828E-003	6.68516E-003	5.55599E-004	...........
	7	2.06667	6.77967E-003	7.20232E-003	5.50733E-004	...........
	8	2.325	6.78723E-003	7.06159E-003	5.56966E-004	...........
	9	2.58333	6.85670E-003	7.04943E-003	5.52366E-004	...........
	10	2.84167	6.94991E-003	6.79518E-003	5.47333E-004	...........
	11	3.1	6.99615E-003	6.81939E-003	5.42033E-004	...........
	12	3.35833	6.97690E-003	7.09483E-003	5.48233E-004	...........
	13	3.61667	6.94305E-003	7.10347E-003	5.49866E-004	...........
	14	3.875	6.95022E-003	7.08078E-003	5.56499E-004	...........
	15	4.13333	6.99770E-003	7.10542E-003	5.49633E-004	...........
	16	4.39167	7.04982E-003	7.13587E-003	5.49233E-004	...........
	17	4.65	7.08556E-003	7.08427E-003	5.51099E-004	...........
	18	4.90833	7.10248E-003	7.03676E-003	5.51866E-004	...........
EOC	QUANT	0.0071025	Open Circuit (V)
PSTATMODEL	IQUANT	4	Pstat Model
PSTATSECTION	LABEL	REF600-11020	Pstat Section
PSTATSERIALNO	LABEL	11020	Pstat Serial Number
CTRLMODE	IQUANT	1	Control Mode
IESTAB	IQUANT	0	I/E Stability
CASPEED	IQUANT	1	Control Amp Speed
CONVENTION	IQUANT	1	Current Convention
ICHRANGE	IQUANT	2	Ich Range
ICHRANGEMODE	TOGGLE	F	Ich Auto Range
ICHOFFSETENABLE	TOGGLE	T	Ich Offset Enable
ICHOFFSET	QUANT	0	Ich Offset (V)
ICHFILTER	IQUANT	3	Ich Filter
VCHRANGE	IQUANT	2	Vch Range
VCHRANGEMODE	TOGGLE	F	Vch Auto Range
VCHOFFSETENABLE	TOGGLE	T	Vch Offset Enable
VCHOFFSET	QUANT	0	Vch Offset (V)
VCHFILTER	IQUANT	3	Vch Filter
ACHRANGE	IQUANT	2	Ach Range
ACHOFFSETENABLE	TOGGLE	F	Ach Offset Enable
ACHOFFSET	QUANT	0	Ach Offset (V)
ACHFILTER	IQUANT	3	Ach Filter
IERANGELOWERLIMIT	IQUANT	1	I/E Range Lower Limit
IERANGEMODE	TOGGLE	F	I/E AutoRange
IERANGE	IQUANT	5	I/E Range
POSFEEDENABLE	TOGGLE	F	Positive Feedback IR Comp
POSFEEDRESISTANCE	QUANT	0	Positive Feedback Resistance (ohm)
ACHSELECT	IQUANT	0	Ach Select
CABLEID	IQUANT	14	Cable ID
DCCALDATE	LABEL	8/19/2019	DC Calibration Date
ACCALDATE	LABEL	8/19/2019	AC Calibration Date
THERMOSELECT	IQUANT	1	Thermo Select
FRAMEWORKVERSION	QUANT	6.33	Framework Version
INSTRUMENTVERSION	LABEL	3.50	Instrument Version
ZCURVE	TABLE
	Pt	Time	Freq	Zreal	Zimag	Zsig	Zmod	Zphz	Idc	Vdc	IERange
	#	s	Hz	ohm	ohm	V	ohm	°	A	V	#
	0	2	1000078	2034.058	-1060.089	1	2293.726	-27.52714	4.43302E-006	0.0095842	8
	1	2	794390.6	2221.337	-979.253	1	2427.607	-23.78978	-1.688364E-006	0.008417	8
	2	2	630984.4	2376.972	-871.2223	1	2531.605	-20.1292	9.105945E-006	0.007769	8
	3	3	501234.4	2500.945	-762.882	1	2614.711	-16.96367	6.835993E-006	0.0077548	8
	4	3	398109.4	2598.736	-656.5193	1	2680.382	-14.17799	-5.750434E-006	0.0089954	8
	5	3	316265.6	2668.158	-567.7637	1	2727.897	-12.01293	4.580863E-006	0.0085272	8
	6	4	251203.1	2723.768	-494.1682	1	2768.233	-10.28321	-4.058731E-006	0.0091727	8
	7	4	199546.9	2753.405	-432.6732	1	2787.193	-8.930494	2.540085E-006	0.0080127	8
	8	4	158578.1	2803.624	-389.9126	1	2830.607	-7.917597	4.052625E-006	0.0085321	8
	9	5	125953.1	2847.579	-304.8504	1	2863.85	-6.110583	5.356728E-007	0.0107381	7
	10	5	100078.1	2863.771	-279.3674	1	2877.365	-5.571703	4.856591E-007	0.0068853	7
	11	5	79453.13	2885.611	-271.948	1	2898.397	-5.383812	-2.95152E-007	0.0099029	7
	12	5	63140.62	2909.126	-269.8609	1	2921.616	-5.299794	-7.244167E-007	0.008367	7
	13	6	50203.12	2931.31	-274.0973	1	2944.097	-5.342008	-1.225602E-006	0.0096241	7
	14	6	39890.62	2956.084	-285.9929	1	2969.887	-5.526008	6.127577E-007	0.0087302	7
	15	6	31640.63	2982.26	-303.132	1	2997.626	-5.803899	1.081175E-006	0.0070823	7
	16	7	25171.88	3006.633	-326.7936	1	3024.341	-6.203178	-1.225222E-006	0.0096236	7
	17	7	20015.62	3035.586	-357.4718	1	3056.562	-6.716241	3.937545E-007	0.0090531	7
	18	7	15890.62	3066.672	-399.0753	1	3092.529	-7.414407	-3.009684E-007	0.0076733	7
	19	8	12609.37	3100.448	-452.1481	1	3133.244	-8.297133	1.097832E-006	0.0074073	7
	20	8	10078.13	3132.733	-507.93	1	3173.643	-9.209585	-2.925485E-007	0.0098957	7
	21	8	8015.625	3168.539	-586.08	1	3222.286	-10.47948	7.234654E-008	0.0094881	7
	22	9	6328.125	3210.619	-683.1405	1	3282.492	-12.01199	8.291841E-007	0.0083124	7
	23	9	5015.625	3251.886	-800.1045	1	3348.87	-13.82267	-1.225074E-006	0.0096195	7
	24	9	3984.375	3298.689	-943.8897	1	3431.075	-15.96799	3.941232E-007	0.0090473	7
	25	10	3170.956	3345.342	-1124.862	1	3529.395	-18.58507	4.868765E-007	0.0068692	7
	26	10	2527.573	3395.957	-1341.86	1	3651.453	-21.56069	-1.047991E-006	0.0090412	7
	27	10	1976.103	3462.222	-1643.643	1	3832.563	-25.3954	4.869265E-007	0.0068648	7
	28	11	1577.524	3530.009	-1987.256	1	4050.945	-29.3778	1.08239E-006	0.0070739	7
	29	11	1265.625	3604.006	-2386.527	1	4322.542	-33.51202	-9.018925E-007	0.0102153	7
	30	11	998.264	3705.502	-2930.65	1	4724.347	-38.34018	-1.225216E-006	0.009614	7
	31	12	796.875	3815.898	-3580.943	1	5232.995	-43.18066	4.888268E-007	0.0068644	7
	32	12	627.7902	3966.943	-4417.843	1	5937.506	-48.07817	-2.962686E-007	0.0076567	7
	33	12	505.5147	4136.387	-5350.157	1	6762.683	-52.29118	7.186367E-008	0.0094834	7
	34	13	397.9953	4371.197	-6624.355	1	7936.589	-56.58048	3.62866E-009	0.008555	7
	35	13	315.5048	4665.343	-8150.788	1	9391.526	-60.21407	-3.018183E-010	0.0085545	7
	36	13	252.4038	5027.753	-9944.49	1	11143.21	-63.17967	2.829227E-010	0.0084951	6
	37	14	198.6229	5526.5	-12309.76	1	13493.42	-65.82217	6.072393E-010	0.0084943	6
	38	14	158.3615	6135.682	-15046.4	1	16249.33	-67.81515	2.467755E-011	0.0084936	6
	39	14	125.558	6952.565	-18464.7	1	19730.26	-69.367	-2.487001E-010	0.0084885	6
	40	15	100.4464	7999.641	-22448.02	1	23830.81	-70.38582	5.430289E-010	0.0084834	6
	41	15	79.00281	9357.278	-27691.77	1	29230	-71.32947	-4.494597E-010	0.0084889	6
	42	15	63.3446	11259.26	-33159.67	1	35019.06	-71.24524	3.051147E-010	0.0084816	6
	43	16	49.86702	13696.96	-40748.97	1	42989.36	-71.42095	7.997881E-010	0.0084817	6
	44	16	39.72458	16459.23	-49498.99	1	52163.75	-71.60719	1.387673E-010	0.008498	6
	45	16	31.6723	20239.55	-59796.36	1	63128.79	-71.30035	6.389987E-010	0.0084913	6
	46	17	24.93351	25517.74	-72353.54	1	76721.51	-70.5732	2.170229E-010	0.0084828	6
	47	17	19.86229	31819.28	-86502.7	1	92169.33	-69.80438	8.671985E-010	0.0084906	6
	48	17	15.83615	38744.14	-103468.7	1	110484.7	-69.47144	8.329429E-010	0.0084859	5
	49	18	12.40079	50937.5	-123859	1	133924.1	-67.64488	1.007217E-009	0.0084925	5
	50	18	9.93114	62821.99	-145123.8	1	158137.7	-66.59292	-7.343854E-010	0.0084947	5
	51	18	7.944915	78093.52	-169580.3	1	186697.8	-65.27343	-4.985181E-010	0.0084847	5
	52	19	6.317385	96989.5	-198515.5	1	220942	-63.96106	-2.144447E-010	0.0084861	5
	53	20	5.008013	120038.4	-231201.8	1	260506.3	-62.56197	-3.82984E-010	0.0084757	5
	54	21	3.945707	148186.3	-268097.8	1	306325.9	-61.06915	1.854145E-010	0.0084876	5
	55	22	3.158693	179042.2	-306187	1	354692.3	-59.68314	-1.057906E-010	0.0084982	5
	56	24	2.504006	215473.5	-350644.8	1	411558.8	-58.42901	-3.191538E-010	0.0084837	5
	57	25	1.998082	254674.2	-396727.5	1	471435.7	-57.30208	-1.388844E-011	0.008508	5
	58	27	1.584686	299386.2	-451973.6	1	542136.7	-56.47961	6.075215E-011	0.0085254	5
	59	29	1.266892	345175.3	-511059.3	1	616707.1	-55.96446	-1.139164E-011	0.0084895	5
	60	31	0.999041	399041.7	-583145.2	1	706606.4	-55.61647	-5.219741E-011	0.0084579	5
