EXPLAIN
TAG	EISPOT
TITLE	LABEL	Potentiostatic EIS	Test &Identifier
DATE	LABEL	10/6/2019	Date
TIME	LABEL	8:32:56	Time
NOTES	NOTES	2	&Notes...
	
	
PSTAT	PSTAT	REF600-11020	Potentiostat
VDC	POTEN	0.00000E+000	T	DC &Voltage (V)
FREQINIT	QUANT	1.00000E+006	Initial Fre&q. (Hz)
FREQFINAL	QUANT	1.00000E+000	Final Fre&q. (Hz)
PTSPERDEC	QUANT	1.00000E+001	Points/&decade
VAC	QUANT	2.50000E+001	AC &Voltage (mV rms)
AREA	QUANT	1.00000E-002	&Area (cm^2)
CONDIT	TWOPARAM	T	5.00000E+000	0.00000E+000	Conditionin&g	Time(s)	E(V)
DELAY	TWOPARAM	T	5.00000E+000	0.00000E+000	Init. De&lay	Time(s)	Stab.(mV/s)
SPEED	SELECTOR	1	&Optimize for:
ZGUESS	QUANT	1.00000E+004	E&stimated Z (ohms)
OCVCURVE	TABLE	19
	Pt	T	Vf	Vm	Ach	Over
	#	s	V vs. Ref.	V	V	bits
	0	0.258333	-1.59252E-002	-1.59252E-002	5.94646E-004	...........
	1	0.516667	-1.59466E-002	-1.70447E-002	6.00645E-004	...........
	2	0.775	-1.60782E-002	-1.81219E-002	6.02945E-004	...........
	3	1.03333	-1.64439E-002	-1.87538E-002	5.98745E-004	...........
	4	1.29167	-1.70715E-002	-1.96105E-002	5.92179E-004	...........
	5	1.55	-1.78622E-002	-2.04916E-002	6.07912E-004	...........
	6	1.80833	-1.87049E-002	-2.12025E-002	6.03812E-004	...........
	7	2.06667	-1.95363E-002	-2.15689E-002	5.97979E-004	...........
	8	2.325	-2.03060E-002	-2.20635E-002	6.02512E-004	...........
	9	2.58333	-2.09740E-002	-2.26086E-002	6.02345E-004	...........
	10	2.84167	-2.15469E-002	-2.31570E-002	6.01312E-004	...........
	11	3.1	-2.20734E-002	-2.38087E-002	6.01679E-004	...........
	12	3.35833	-2.26025E-002	-2.43525E-002	6.11145E-004	...........
	13	3.61667	-2.31499E-002	-2.46128E-002	6.08279E-004	...........
	14	3.875	-2.36924E-002	-2.52584E-002	6.04979E-004	...........
	15	4.13333	-2.42077E-002	-2.58130E-002	6.02145E-004	...........
	16	4.39167	-2.47061E-002	-2.61493E-002	6.01745E-004	...........
	17	4.65	-2.51950E-002	-2.63329E-002	6.08779E-004	...........
	18	4.90833	-2.56463E-002	-2.67100E-002	5.98512E-004	...........
EOC	QUANT	-0.0256463	Open Circuit (V)
PSTATMODEL	IQUANT	4	Pstat Model
PSTATSECTION	LABEL	REF600-11020	Pstat Section
PSTATSERIALNO	LABEL	11020	Pstat Serial Number
CTRLMODE	IQUANT	1	Control Mode
IESTAB	IQUANT	0	I/E Stability
CASPEED	IQUANT	1	Control Amp Speed
CONVENTION	IQUANT	1	Current Convention
ICHRANGE	IQUANT	2	Ich Range
ICHRANGEMODE	TOGGLE	F	Ich Auto Range
ICHOFFSETENABLE	TOGGLE	T	Ich Offset Enable
ICHOFFSET	QUANT	0	Ich Offset (V)
ICHFILTER	IQUANT	3	Ich Filter
VCHRANGE	IQUANT	2	Vch Range
VCHRANGEMODE	TOGGLE	F	Vch Auto Range
VCHOFFSETENABLE	TOGGLE	T	Vch Offset Enable
VCHOFFSET	QUANT	0	Vch Offset (V)
VCHFILTER	IQUANT	3	Vch Filter
ACHRANGE	IQUANT	2	Ach Range
ACHOFFSETENABLE	TOGGLE	F	Ach Offset Enable
ACHOFFSET	QUANT	0	Ach Offset (V)
ACHFILTER	IQUANT	1	Ach Filter
IERANGELOWERLIMIT	IQUANT	1	I/E Range Lower Limit
IERANGEMODE	TOGGLE	F	I/E AutoRange
IERANGE	IQUANT	6	I/E Range
POSFEEDENABLE	TOGGLE	F	Positive Feedback IR Comp
POSFEEDRESISTANCE	QUANT	0	Positive Feedback Resistance (ohm)
ACHSELECT	IQUANT	0	Ach Select
CABLEID	IQUANT	14	Cable ID
DCCALDATE	LABEL	8/19/2019	DC Calibration Date
ACCALDATE	LABEL	8/19/2019	AC Calibration Date
THERMOSELECT	IQUANT	1	Thermo Select
FRAMEWORKVERSION	QUANT	6.33	Framework Version
INSTRUMENTVERSION	LABEL	3.50	Instrument Version
ZCURVE	TABLE
	Pt	Time	Freq	Zreal	Zimag	Zsig	Zmod	Zphz	Idc	Vdc	IERange
	#	s	Hz	ohm	ohm	V	ohm	°	A	V	#
	0	1	1000078	1101.474	-1422.189	1	1798.851	-52.24249	7.543034E-006	-0.0245663	8
	1	3	794390.6	1191.008	-1686.673	1	2064.792	-54.773	-6.633516E-006	-0.0230885	8
	2	4	630984.4	1296.076	-2020.226	1	2400.235	-57.3178	6.02839E-006	-0.0247872	8
	3	6	501234.4	1448.427	-2433.453	1	2831.896	-59.23826	-5.714826E-006	-0.0232189	8
	4	7	398109.4	1630.792	-2940.974	1	3362.857	-60.99131	1.157528E-006	-0.0243963	8
	5	8	316265.6	1880.448	-3518.925	1	3989.852	-61.88078	-4.568304E-006	-0.0233582	8
	6	10	251203.1	2218.282	-4258.988	1	4802.058	-62.48737	-1.962773E-006	-0.0237473	8
	7	11	199546.9	2656.936	-5095.197	1	5746.333	-62.45981	3.554377E-006	-0.0248179	8
	8	13	158578.1	3263.375	-6056.876	1	6880.07	-61.68473	4.230964E-007	-0.0241831	8
	9	14	125953.1	4174.887	-7070.158	1	8210.774	-59.4384	-1.183491E-006	-0.0223139	7
	10	16	100078.1	5193.054	-8238.664	1	9738.76	-57.77565	-3.702471E-008	-0.0241115	7
	11	17	79453.13	6490.764	-9443.419	1	11458.98	-55.49801	2.455159E-009	-0.0242115	7
	12	19	63140.62	8078.002	-10630.65	1	13351.58	-52.76957	2.690355E-009	-0.0242184	7
	13	20	50203.12	9937.79	-11710.31	1	15358.74	-49.68087	-7.261117E-008	-0.0240993	7
	14	21	39890.62	12026.68	-12649.67	1	17454.38	-46.44622	3.644863E-009	-0.0242291	7
	15	23	31640.63	14343.52	-13337.38	1	19586.27	-42.91835	-5.489671E-008	-0.0242161	7
	16	24	25171.88	16701.04	-13887.55	1	21720.7	-39.74481	4.14469E-008	-0.0241857	7
	17	25	20015.62	19110.77	-14165.84	1	23788.5	-36.54767	-5.483606E-008	-0.0242163	7
	18	27	15890.62	21355.41	-14235.93	1	25665.45	-33.68819	7.435437E-010	-0.0243116	7
	19	28	12609.37	23821.11	-14162.69	1	27713.3	-30.73333	1.647294E-008	-0.0246062	6
	20	29	10078.13	25816.73	-14237.87	1	29482.55	-28.87663	6.802024E-009	-0.0243205	6
	21	31	8015.625	27831.74	-14359.15	1	31317.58	-27.29045	-3.597582E-009	-0.024293	6
	22	32	6328.125	29812.21	-14527.56	1	33163.5	-25.98008	-1.117339E-008	-0.0242319	6
	23	33	5015.625	31772.89	-14805.66	1	35053.16	-24.98478	-1.069629E-008	-0.0242291	6
	24	35	3984.375	33742.13	-15182.18	1	37000.41	-24.22524	2.420681E-009	-0.0241997	6
	25	36	3170.956	35719.07	-15704.74	1	39019.11	-23.73383	5.7622E-009	-0.0244773	6
	26	37	2527.573	37721.07	-16346.22	1	41110.56	-23.42923	-3.268793E-009	-0.0241513	6
	27	39	1976.103	40011.39	-17085.71	1	43506.7	-23.12351	3.604893E-009	-0.0242731	6
	28	40	1577.524	42288.8	-18110.43	1	46003.59	-23.18332	3.4394E-009	-0.0242703	6
	29	42	1265.625	44539.99	-19088.14	1	48457.9	-23.19813	-5.777711E-009	-0.0242657	6
	30	43	998.264	47184.93	-20302.06	1	51367.22	-23.28055	3.735407E-009	-0.0242816	6
	31	44	796.875	49764.86	-21591.74	1	54247.07	-23.45482	-2.245548E-009	-0.0243237	6
	32	46	627.7902	52673.22	-23073.24	1	57505.15	-23.65558	-3.585322E-009	-0.0241504	6
	33	47	505.5147	55460.05	-24709.47	1	60715.52	-24.01472	1.340456E-008	-0.0244126	6
	34	48	397.9953	58459.24	-26573.84	1	64215.67	-24.44514	4.417802E-010	-0.0242943	6
	35	50	315.5048	61582.35	-28774.15	1	67973.07	-25.04418	6.624234E-010	-0.024295	6
	36	51	252.4038	64754.18	-31419.03	1	71974.02	-25.88288	1.419281E-009	-0.0242984	6
	37	52	198.6229	68353.71	-34779.54	1	76693.2	-26.96777	7.791602E-010	-0.024297	6
	38	54	158.3615	72110.62	-38559.58	1	81772.75	-28.13467	7.595736E-010	-0.0242988	6
	39	55	125.558	76431.79	-43324.47	1	87856.86	-29.54623	4.216386E-010	-0.0242977	6
	40	57	100.4464	81232.34	-48299.13	1	94506.61	-30.73487	-5.728993E-010	-0.0242963	5
	41	58	79.00281	86814.55	-55517	1	103048.1	-32.59849	-5.39476E-010	-0.0242996	5
	42	59	63.3446	90368.64	-62369.67	1	109801.9	-34.61225	-2.476124E-010	-0.0242993	5
	43	61	49.86702	101247.1	-69278.17	1	122680.2	-34.38183	-3.536645E-010	-0.0242965	5
	44	62	39.72458	108392.1	-79959.69	1	134693.7	-36.4158	-3.117495E-011	-0.0242954	5
	45	63	31.6723	117521.5	-90406.5	1	148272.2	-37.57022	-4.792654E-010	-0.0242928	5
	46	65	24.93351	128540.9	-102578.3	1	164453.9	-38.59058	-6.465393E-010	-0.0243007	5
	47	66	19.86229	139520.9	-116177.6	1	181558	-39.78379	-1.323979E-009	-0.0242969	5
	48	68	15.83615	153735.7	-131573.1	1	202351.6	-40.55822	-1.402262E-009	-0.024298	5
	49	69	12.40079	168551.5	-152706.1	1	227439.6	-42.1763	-7.562105E-010	-0.0242944	5
	50	71	9.93114	185610.3	-171777	1	252900.2	-42.78337	-1.026975E-009	-0.0242942	5
	51	72	7.944915	206145.6	-195080.3	1	283817.4	-43.42024	-9.337223E-011	-0.0242946	5
	52	74	6.317385	229266.5	-222410	1	319420.3	-44.13031	-3.185049E-010	-0.0242845	5
	53	76	5.008013	257341.1	-253282.9	1	361077.1	-44.54464	-2.990505E-010	-0.0242967	5
	54	78	3.945707	290923.5	-288839.6	1	409957.1	-44.79406	-4.787591E-010	-0.0242962	5
	55	81	3.158693	327274.1	-324343.3	1	460767.8	-44.74231	-9.569955E-010	-0.0242948	5
	56	84	2.504006	370530	-365298.8	1	520322.7	-44.59267	-6.018354E-010	-0.0243081	5
	57	87	1.998082	417347.9	-408197.1	1	583784.3	-44.36492	-1.033831E-009	-0.0242635	5
	58	90	1.584686	471011.5	-458074.7	1	657026.9	-44.20226	-5.290718E-010	-0.0242991	5
	59	94	1.266892	530540.6	-510408.8	1	736200	-43.89205	-7.224585E-010	-0.0242606	5
	60	98	0.999041	598474.1	-571786	1	827714	-43.69358	-1.000479E-009	-0.0243438	5
