EXPLAIN
TAG	EISPOT
TITLE	LABEL	Potentiostatic EIS	Test &Identifier
DATE	LABEL	8/14/2018	Date
TIME	LABEL	5:25:55	Time
NOTES	NOTES	1	&Notes...
	
PSTAT	PSTAT	REF600-11020	Potentiostat
VDC	POTEN	0.00000E+000	T	DC &Voltage (V)
FREQINIT	QUANT	1.00000E+006	Initial Fre&q. (Hz)
FREQFINAL	QUANT	1.00000E+000	Final Fre&q. (Hz)
PTSPERDEC	QUANT	1.00000E+001	Points/&decade
VAC	QUANT	2.50000E+001	AC &Voltage (mV rms)
AREA	QUANT	1.00000E-002	&Area (cm^2)
CONDIT	TWOPARAM	T	5.00000E+000	0.00000E+000	Conditionin&g	Time(s)	E(V)
DELAY	TWOPARAM	T	5.00000E+000	0.00000E+000	Init. De&lay	Time(s)	Stab.(mV/s)
SPEED	SELECTOR	0	&Optimize for:
ZGUESS	QUANT	1.00000E+005	E&stimated Z (ohms)
OCVCURVE	TABLE	19
	Pt	T	Vf	Vm	Ach	Over
	#	s	V vs. Ref.	V	V	bits
	0	0.258333	4.14423E-002	4.14423E-002	5.22733E-004	...........
	1	0.516667	4.14702E-002	4.29031E-002	5.24266E-004	...........
	2	0.775	4.16390E-002	4.41573E-002	5.20833E-004	...........
	3	1.03333	4.21063E-002	4.52453E-002	5.24700E-004	...........
	4	1.29167	4.29133E-002	4.61187E-002	5.23133E-004	...........
	5	1.55	4.39293E-002	4.68747E-002	5.26800E-004	...........
	6	1.80833	4.49701E-002	4.75300E-002	5.23066E-004	...........
	7	2.06667	4.59151E-002	4.80841E-002	5.25966E-004	...........
	8	2.325	4.67241E-002	4.85022E-002	5.29733E-004	...........
	9	2.58333	4.73966E-002	4.86654E-002	5.25000E-004	...........
	10	2.84167	4.79389E-002	4.91388E-002	5.25500E-004	...........
	11	3.1	4.83787E-002	4.97920E-002	5.26800E-004	...........
	12	3.35833	4.87764E-002	4.98767E-002	5.24666E-004	...........
	13	3.61667	4.91695E-002	5.00995E-002	5.23466E-004	...........
	14	3.875	4.95333E-002	5.02594E-002	5.23900E-004	...........
	15	4.13333	4.98303E-002	5.04002E-002	5.22700E-004	...........
	16	4.39167	5.00575E-002	5.05010E-002	5.28100E-004	...........
	17	4.65	5.02322E-002	5.05937E-002	5.19933E-004	...........
	18	4.90833	5.03703E-002	5.06514E-002	5.26033E-004	...........
EOC	QUANT	0.0503703	Open Circuit (V)
PSTATMODEL	IQUANT	4	Pstat Model
PSTATSECTION	LABEL	REF600-11020	Pstat Section
PSTATSERIALNO	LABEL	11020	Pstat Serial Number
CTRLMODE	IQUANT	1	Control Mode
IESTAB	IQUANT	0	I/E Stability
CASPEED	IQUANT	1	Control Amp Speed
CONVENTION	IQUANT	1	Current Convention
ICHRANGE	IQUANT	2	Ich Range
ICHRANGEMODE	TOGGLE	F	Ich Auto Range
ICHOFFSETENABLE	TOGGLE	T	Ich Offset Enable
ICHOFFSET	QUANT	0	Ich Offset (V)
ICHFILTER	IQUANT	3	Ich Filter
VCHRANGE	IQUANT	2	Vch Range
VCHRANGEMODE	TOGGLE	F	Vch Auto Range
VCHOFFSETENABLE	TOGGLE	T	Vch Offset Enable
VCHOFFSET	QUANT	0	Vch Offset (V)
VCHFILTER	IQUANT	3	Vch Filter
ACHRANGE	IQUANT	2	Ach Range
ACHOFFSETENABLE	TOGGLE	F	Ach Offset Enable
ACHOFFSET	QUANT	0	Ach Offset (V)
ACHFILTER	IQUANT	3	Ach Filter
IERANGELOWERLIMIT	IQUANT	1	I/E Range Lower Limit
IERANGEMODE	TOGGLE	F	I/E AutoRange
IERANGE	IQUANT	5	I/E Range
POSFEEDENABLE	TOGGLE	F	Positive Feedback IR Comp
POSFEEDRESISTANCE	QUANT	0	Positive Feedback Resistance (ohm)
ACHSELECT	IQUANT	0	Ach Select
CABLEID	IQUANT	14	Cable ID
DCCALDATE	LABEL	8/19/2019	DC Calibration Date
ACCALDATE	LABEL	8/19/2019	AC Calibration Date
THERMOSELECT	IQUANT	1	Thermo Select
FRAMEWORKVERSION	QUANT	6.33	Framework Version
INSTRUMENTVERSION	LABEL	3.50	Instrument Version
ZCURVE	TABLE
	Pt	Time	Freq	Zreal	Zimag	Zsig	Zmod	Zphz	Idc	Vdc	IERange
	#	s	Hz	ohm	ohm	V	ohm	°	A	V	#
	0	1	1000078	2161.075	-1746.544	1	2778.608	-38.94455	-2.42177E-006	0.0523762	8
	1	2	794390.6	2504.4	-1773.009	1	3068.482	-35.29688	2.783426E-007	0.0523582	8
	2	2	630984.4	2848.777	-1752.653	1	3344.746	-31.60108	-3.261217E-008	0.0519123	8
	3	2	501234.4	3162.533	-1696.905	1	3589.025	-28.21645	-2.314133E-006	0.0524137	8
	4	3	398109.4	3463.585	-1583.143	1	3808.25	-24.56429	-8.436516E-007	0.0520732	8
	5	3	316265.6	3725.522	-1450.716	1	3998.011	-21.27592	-2.040263E-006	0.052303	8
	6	3	251203.1	3965.108	-1329.262	1	4181.988	-18.5332	5.69018E-007	0.0518943	8
	7	4	199546.9	4130.668	-1173.078	1	4294.012	-15.85414	-1.119862E-006	0.0520523	8
	8	4	158578.1	4316.118	-1036.207	1	4438.761	-13.49998	1.505201E-006	0.051579	8
	9	4	125953.1	4427.48	-832.2501	1	4505.021	-10.64588	4.45128E-007	0.0509379	7
	10	4	100078.1	4550.189	-759.5054	1	4613.141	-9.476295	-6.235773E-008	0.0520201	7
	11	5	79453.13	4596.506	-672.8236	1	4645.488	-8.327654	-2.338622E-009	0.0517646	7
	12	5	63140.62	4657.31	-608.0692	1	4696.838	-7.438593	1.352761E-008	0.0518988	7
	13	5	50203.12	4703.079	-559.15	1	4736.201	-6.780082	-7.134572E-009	0.0518297	7
	14	6	39890.62	4746.754	-522.3791	1	4775.411	-6.280115	1.163672E-008	0.0519026	7
	15	6	31640.63	4785.589	-500.9146	1	4811.734	-5.975473	-3.341317E-008	0.0519012	7
	16	6	25171.88	4822.225	-489.9476	1	4847.05	-5.801457	6.440954E-008	0.0517058	7
	17	7	20015.62	4859.175	-496.3549	1	4884.46	-5.832419	6.555503E-008	0.0517093	7
	18	7	15890.62	4893.663	-516.1342	1	4920.806	-6.020721	-3.347254E-008	0.051881	7
	19	7	12609.37	4929.07	-553.6501	1	4960.066	-6.408798	-2.826247E-008	0.0518071	7
	20	8	10078.13	4959.41	-596.033	1	4995.098	-6.853066	-2.446664E-008	0.0517972	7
	21	8	8015.625	4995.506	-664.7352	1	5039.54	-7.579629	-6.231866E-008	0.0520092	7
	22	8	6328.125	5039.533	-750.8896	1	5095.167	-8.474714	1.140429E-007	0.0516447	7
	23	9	5015.625	5081.713	-865.1666	1	5154.835	-9.66202	6.627854E-008	0.0516972	7
	24	9	3984.375	5126.752	-1006.877	1	5224.69	-11.11128	1.340573E-008	0.051895	7
	25	9	3170.956	5177.724	-1185.252	1	5311.652	-12.89363	-1.261904E-009	0.0517491	7
	26	10	2527.573	5234.23	-1404.88	1	5419.489	-15.02422	-4.66634E-008	0.0518515	7
	27	10	1976.103	5304.75	-1700.688	1	5570.701	-17.7757	8.987708E-008	0.051737	7
	28	10	1577.524	5307.404	-2025.51	1	5680.777	-20.88878	1.156572E-007	0.0516421	7
	29	11	1265.625	5482.314	-2436.778	1	5999.471	-23.96418	-3.292091E-008	0.0518884	7
	30	11	998.264	5595.359	-2969.337	1	6334.43	-27.95393	-3.134256E-008	0.0518924	7
	31	11	796.875	5727.469	-3581.238	1	6754.937	-32.01668	-2.139436E-008	0.0517945	7
	32	11	627.7902	5896.54	-4380.105	1	7345.373	-36.60594	-3.582427E-008	0.0518074	7
	33	12	505.5147	6071.456	-5272.382	1	8041.181	-40.97067	-4.110428E-009	0.0518409	7
	34	12	397.9953	6310.24	-6470.357	1	9037.956	-45.71777	1.335282E-009	0.0518232	7
	35	12	315.5048	6591.261	-7912.238	1	10297.97	-50.20414	3.522957E-010	0.0517649	6
	36	13	252.4038	6911.725	-9616.86	1	11842.97	-54.29486	1.023267E-009	0.051763	6
	37	13	198.6229	7343.989	-11873.7	1	13961.33	-58.26283	9.381373E-010	0.0517693	6
	38	13	158.3615	7854.145	-14512.72	1	16501.72	-61.57818	5.336722E-010	0.0517622	6
	39	14	125.558	8529.537	-17827.99	1	19763.35	-64.43191	1.097826E-009	0.051762	6
	40	14	100.4464	9325.497	-21755.27	1	23669.74	-66.79739	1.527757E-009	0.0517595	6
	41	14	79.00281	10450.97	-26873.98	1	28834.59	-68.74955	1.984711E-009	0.0517579	6
	42	15	63.3446	12276.21	-32675.18	1	34905.2	-69.40858	4.288811E-010	0.0517575	6
	43	15	49.86702	14180.5	-40436.14	1	42850.53	-70.6748	2.820676E-011	0.0517558	6
	44	15	39.72458	16479.58	-49158.27	1	51847	-71.46704	1.168781E-009	0.0517583	6
	45	16	31.6723	19643.06	-59621.58	1	62774.06	-71.7649	1.379717E-009	0.051758	6
	46	16	24.93351	24376.84	-73356.27	1	77300.53	-71.61796	9.82714E-010	0.0517547	6
	47	16	19.86229	30284.46	-88744.63	1	93769.7	-71.15759	1.072069E-009	0.0517583	6
	48	17	15.83615	38621.61	-106958.1	1	113717.5	-70.14581	7.705472E-011	0.0517615	5
	49	17	12.40079	48810.47	-129615.4	1	138501.3	-69.36467	1.457526E-010	0.0517565	5
	50	17	9.93114	62917.57	-153073	1	165499.1	-67.65587	-5.168481E-011	0.0517623	5
	51	18	7.944915	79638.8	-179847.8	1	196691.6	-66.11566	1.54663E-010	0.0517553	5
	52	19	6.317385	102066.4	-211108.8	1	234487.7	-64.19727	2.65886E-010	0.0517678	5
	53	19	5.008013	129832.9	-245643.4	1	277844	-62.14165	1.243483E-010	0.051751	5
	54	20	3.945707	163545.7	-282400.3	1	326339	-59.92369	4.937041E-010	0.0517506	5
	55	22	3.158693	201427	-319266	1	377496.5	-57.75191	4.196421E-010	0.0517702	5
	56	23	2.504006	246170.6	-359831.1	1	435979.8	-55.62287	-3.421465E-012	0.0517558	5
	57	25	1.998082	293249.8	-400409.8	1	496309.8	-53.78191	-6.995793E-012	0.0517589	5
	58	26	1.584686	348337.3	-445683.3	1	565661.1	-51.98951	-3.56545E-011	0.051797	5
	59	28	1.266892	404695.4	-494628.3	1	639089.6	-50.71062	-2.585314E-010	0.0517835	5
	60	31	0.999041	469653.8	-550822	1	723864.3	-49.54771	-5.025967E-010	0.0517598	5
