EXPLAIN
TAG	EISPOT
TITLE	LABEL	Potentiostatic EIS	Test &Identifier
DATE	LABEL	11/27/2019	Date
TIME	LABEL	11:55:13	Time
NOTES	NOTES	3	&Notes...
	
	
	
PSTAT	PSTAT	REF600-11020	Potentiostat
VDC	POTEN	0.00000E+000	T	DC &Voltage (V)
FREQINIT	QUANT	1.00000E+006	Initial Fre&q. (Hz)
FREQFINAL	QUANT	1.00000E+000	Final Fre&q. (Hz)
PTSPERDEC	QUANT	1.00000E+001	Points/&decade
VAC	QUANT	2.50000E+001	AC &Voltage (mV rms)
AREA	QUANT	1.00000E-002	&Area (cm^2)
CONDIT	TWOPARAM	T	5.00000E+000	0.00000E+000	Conditionin&g	Time(s)	E(V)
DELAY	TWOPARAM	T	5.00000E+000	0.00000E+000	Init. De&lay	Time(s)	Stab.(mV/s)
SPEED	SELECTOR	0	&Optimize for:
ZGUESS	QUANT	1.00000E+005	E&stimated Z (ohms)
OCVCURVE	TABLE	19
	Pt	T	Vf	Vm	Ach	Over
	#	s	V vs. Ref.	V	V	bits
	0	0.258333	4.90535E-003	4.90535E-003	5.17900E-004	...........
	1	0.516667	4.90452E-003	4.86155E-003	5.15800E-004	...........
	2	0.775	4.89961E-003	4.83228E-003	5.14200E-004	...........
	3	1.03333	4.88673E-003	4.81526E-003	5.19800E-004	...........
	4	1.29167	4.86635E-003	4.81191E-003	5.19466E-004	...........
	5	1.55	4.84433E-003	4.81151E-003	5.20600E-004	...........
	6	1.80833	4.82709E-003	4.81913E-003	5.23200E-004	...........
	7	2.06667	4.81768E-003	4.82674E-003	5.20333E-004	...........
	8	2.325	4.81587E-003	4.83876E-003	5.16866E-004	...........
	9	2.58333	4.81994E-003	4.85446E-003	5.14866E-004	...........
	10	2.84167	4.82838E-003	4.87390E-003	5.15866E-004	...........
	11	3.1	4.84033E-003	4.89069E-003	5.18333E-004	...........
	12	3.35833	4.85526E-003	4.91666E-003	5.20433E-004	...........
	13	3.61667	4.87266E-003	4.93157E-003	5.22066E-004	...........
	14	3.875	4.89197E-003	4.96448E-003	5.20133E-004	...........
	15	4.13333	4.91278E-003	4.97680E-003	5.23433E-004	...........
	16	4.39167	4.93458E-003	5.00274E-003	5.20500E-004	...........
	17	4.65	4.95641E-003	5.01320E-003	5.21500E-004	...........
	18	4.90833	4.97742E-003	5.04534E-003	5.22066E-004	...........
EOC	QUANT	0.0049774	Open Circuit (V)
PSTATMODEL	IQUANT	4	Pstat Model
PSTATSECTION	LABEL	REF600-11020	Pstat Section
PSTATSERIALNO	LABEL	11020	Pstat Serial Number
CTRLMODE	IQUANT	1	Control Mode
IESTAB	IQUANT	0	I/E Stability
CASPEED	IQUANT	1	Control Amp Speed
CONVENTION	IQUANT	1	Current Convention
ICHRANGE	IQUANT	2	Ich Range
ICHRANGEMODE	TOGGLE	F	Ich Auto Range
ICHOFFSETENABLE	TOGGLE	T	Ich Offset Enable
ICHOFFSET	QUANT	0	Ich Offset (V)
ICHFILTER	IQUANT	3	Ich Filter
VCHRANGE	IQUANT	2	Vch Range
VCHRANGEMODE	TOGGLE	F	Vch Auto Range
VCHOFFSETENABLE	TOGGLE	T	Vch Offset Enable
VCHOFFSET	QUANT	0	Vch Offset (V)
VCHFILTER	IQUANT	3	Vch Filter
ACHRANGE	IQUANT	2	Ach Range
ACHOFFSETENABLE	TOGGLE	F	Ach Offset Enable
ACHOFFSET	QUANT	0	Ach Offset (V)
ACHFILTER	IQUANT	3	Ach Filter
IERANGELOWERLIMIT	IQUANT	1	I/E Range Lower Limit
IERANGEMODE	TOGGLE	F	I/E AutoRange
IERANGE	IQUANT	4	I/E Range
POSFEEDENABLE	TOGGLE	F	Positive Feedback IR Comp
POSFEEDRESISTANCE	QUANT	0	Positive Feedback Resistance (ohm)
ACHSELECT	IQUANT	0	Ach Select
CABLEID	IQUANT	14	Cable ID
DCCALDATE	LABEL	8/19/2019	DC Calibration Date
ACCALDATE	LABEL	8/19/2019	AC Calibration Date
THERMOSELECT	IQUANT	1	Thermo Select
FRAMEWORKVERSION	QUANT	6.33	Framework Version
INSTRUMENTVERSION	LABEL	3.50	Instrument Version
ZCURVE	TABLE
	Pt	Time	Freq	Zreal	Zimag	Zsig	Zmod	Zphz	Idc	Vdc	IERange
	#	s	Hz	ohm	ohm	V	ohm	°	A	V	#
	0	2	1000078	1997.68	-1097.51	1	2279.31	-28.78405	-4.145701E-006	0.0078473	8
	1	2	794390.6	2207.183	-1031.083	1	2436.143	-25.03959	8.274295E-006	0.006142	8
	2	2	630984.4	2376.25	-927.0517	1	2550.685	-21.31236	-9.82199E-007	0.0072024	8
	3	3	501234.4	2513.447	-823.5659	1	2644.934	-18.1421	4.143548E-006	0.0066339	8
	4	3	398109.4	2611.639	-722.5248	1	2709.741	-15.46441	4.261508E-007	0.0069857	8
	5	3	316265.6	2700.449	-628.8737	1	2772.708	-13.10925	-3.336118E-006	0.0071249	8
	6	4	251203.1	2767.667	-555.6093	1	2822.886	-11.35125	5.526724E-006	0.0055479	8
	7	4	199546.9	2809.619	-491.5365	1	2852.292	-9.92334	-7.871917E-007	0.0069605	8
	8	4	158578.1	2857.385	-428.3718	1	2889.317	-8.526137	-3.137261E-006	0.0070832	8
	9	5	125953.1	2907.073	-361.8375	1	2929.505	-7.095003	1.750841E-006	0.0065829	7
	10	5	100078.1	2928.774	-335.0094	1	2947.872	-6.525448	5.20478E-007	0.0066972	7
	11	5	79453.13	2958.522	-321.933	1	2975.986	-6.210234	9.295875E-008	0.0053954	7
	12	5	63140.62	2986.619	-319.6097	1	3003.671	-6.108199	-2.657511E-007	0.0058287	7
	13	6	50203.12	3017.171	-324.1305	1	3034.531	-6.131691	7.462815E-008	0.0073256	7
	14	6	39890.62	3042.641	-334.5709	1	3060.98	-6.275073	5.266694E-007	0.0066759	7
	15	6	31640.63	3073.609	-352.5227	1	3093.759	-6.542859	-6.260783E-007	0.0064172	7
	16	7	25171.88	3106.17	-380.3271	1	3129.368	-6.98069	-6.198618E-007	0.0064094	7
	17	7	20015.62	3141.864	-411.7278	1	3168.727	-7.465824	-5.147693E-007	0.0078836	7
	18	7	15890.62	3178.978	-456.9457	1	3211.65	-8.179659	-5.104844E-007	0.0078747	7
	19	8	12609.37	3224.712	-509.8464	1	3264.768	-8.984438	4.024322E-007	0.005135	7
	20	8	10078.13	3272.759	-575.617	1	3322.993	-9.97523	8.22455E-007	0.0051098	7
	21	8	8015.625	3312.454	-651.7187	1	3375.958	-11.13066	-1.033493E-006	0.0077652	7
	22	9	6328.125	3369.444	-752.3873	1	3452.425	-12.58749	9.140941E-007	0.0052889	7
	23	9	5015.625	3423.199	-872.2795	1	3532.586	-14.29555	8.917856E-008	0.005379	7
	24	9	3984.375	3484.719	-1011.396	1	3628.524	-16.1847	-8.896235E-007	0.0069785	7
	25	10	3170.956	3546.644	-1194.155	1	3742.284	-18.60838	-8.856496E-007	0.006977	7
	26	10	2527.573	3620.673	-1409.222	1	3885.252	-21.26676	-1.0364E-006	0.0074578	7
	27	10	1976.103	3704.037	-1699.203	1	4075.191	-24.64298	9.298041E-007	0.0055542	7
	28	11	1577.524	3796.706	-2015.571	1	4298.546	-27.96266	-9.153255E-007	0.0078965	7
	29	11	1265.625	3893.902	-2405.225	1	4576.853	-31.70321	9.033582E-007	0.0052896	7
	30	11	998.264	4008.197	-2920.892	1	4959.562	-36.08193	9.07965E-007	0.0052899	7
	31	11	796.875	4146.969	-3512.675	1	5434.725	-40.26614	-1.031834E-006	0.0074532	7
	32	12	627.7902	4295.22	-4306.137	1	6082.083	-45.07272	3.986594E-007	0.0051215	7
	33	12	505.5147	4473.725	-5185.197	1	6848.393	-49.21278	9.086692E-007	0.0052801	7
	34	12	397.9953	4716.234	-6385.812	1	7938.605	-53.55232	3.388854E-009	0.0065501	7
	35	13	315.5048	5003.393	-7828.607	1	9290.911	-57.41668	2.904709E-009	0.0065442	7
	36	13	252.4038	5357.223	-9532.39	1	10934.64	-60.66392	1.03793E-010	0.0064862	6
	37	13	198.6229	5844.691	-11784.68	1	13154.43	-63.62058	6.04089E-010	0.0064872	6
	38	14	158.3615	6434.909	-14405.66	1	15777.55	-65.93002	1.012986E-009	0.0064744	6
	39	14	125.558	7245.687	-17672.08	1	19099.8	-67.706	1.069353E-009	0.0064812	6
	40	14	100.4464	8286.911	-21468.22	1	23012.12	-68.89301	6.845656E-010	0.0064841	6
	41	15	79.00281	9791.25	-26535.06	1	28283.88	-69.7463	1.195022E-009	0.0064762	6
	42	15	63.3446	11255.22	-31807.24	1	33739.89	-70.51331	9.348869E-010	0.0064779	6
	43	15	49.86702	14009.08	-38979.26	1	41420.25	-70.23164	2.266704E-010	0.0064732	6
	44	16	39.72458	17390.83	-47359.16	1	50451.27	-69.83618	5.269012E-010	0.0064804	6
	45	16	31.6723	21819.36	-56925.56	1	60963.96	-69.02835	7.566464E-010	0.0064798	6
	46	17	24.93351	27789.79	-68394.19	1	73824.37	-67.88721	5.233128E-010	0.0064711	6
	47	17	19.86229	34985.06	-81088.7	1	88313.82	-66.66261	2.042426E-009	0.0064863	6
	48	17	15.83615	43934.49	-94306.97	1	104038.7	-65.02075	-1.837546E-011	0.0064812	5
	49	17	12.40079	56773.46	-112194.8	1	125741.4	-63.15942	-7.912861E-010	0.0064857	5
	50	18	9.93114	70311.31	-128290.1	1	146294.3	-61.27439	1.103723E-010	0.0064936	5
	51	18	7.944915	86327.39	-145768.5	1	169413.3	-59.36502	1.028836E-009	0.0064727	5
	52	19	6.317385	104424.6	-165426.4	1	195628.2	-57.73804	8.611646E-010	0.006466	5
	53	20	5.008013	125359	-186951.1	1	225090.2	-56.15638	3.941627E-010	0.0064825	5
	54	21	3.945707	147739.3	-210736.5	1	257365.1	-54.96718	1.440696E-010	0.0064793	5
	55	22	3.158693	170429.2	-235816.2	1	290956	-54.14359	-2.124153E-010	0.0064685	5
	56	24	2.504006	195242.1	-265686.1	1	329709.8	-53.68931	9.717641E-011	0.0064692	5
	57	25	1.998082	219929.3	-300570.6	1	372440.1	-53.80685	1.316942E-010	0.0064918	5
	58	27	1.584686	247859	-342533.4	1	422804	-54.11031	-6.137683E-011	0.0064413	5
	59	29	1.266892	278077.6	-393379.8	1	481741.5	-54.74377	-8.751266E-011	0.0064269	5
	60	31	0.999041	313512.4	-458843.7	1	555722.6	-55.65652	-1.064209E-010	0.0064409	5
