EXPLAIN
TAG	EISPOT
TITLE	LABEL	Potentiostatic EIS	Test &Identifier
DATE	LABEL	11/22/2019	Date
TIME	LABEL	2:00:15	Time
NOTES	NOTES	4	&Notes...
	
	
	
	
PSTAT	PSTAT	REF600-11020	Potentiostat
VDC	POTEN	0.00000E+000	T	DC &Voltage (V)
FREQINIT	QUANT	1.00000E+006	Initial Fre&q. (Hz)
FREQFINAL	QUANT	1.00000E+000	Final Fre&q. (Hz)
PTSPERDEC	QUANT	1.00000E+001	Points/&decade
VAC	QUANT	2.50000E+001	AC &Voltage (mV rms)
AREA	QUANT	1.00000E-002	&Area (cm^2)
CONDIT	TWOPARAM	T	5.00000E+000	0.00000E+000	Conditionin&g	Time(s)	E(V)
DELAY	TWOPARAM	T	5.00000E+000	0.00000E+000	Init. De&lay	Time(s)	Stab.(mV/s)
SPEED	SELECTOR	1	&Optimize for:
ZGUESS	QUANT	1.00000E+005	E&stimated Z (ohms)
OCVCURVE	TABLE	19
	Pt	T	Vf	Vm	Ach	Over
	#	s	V vs. Ref.	V	V	bits
	0	0.258333	6.88961E-003	6.88961E-003	6.25898E-004	...........
	1	0.516667	6.89051E-003	6.93649E-003	6.28165E-004	...........
	2	0.775	6.89610E-003	6.98595E-003	6.36931E-004	...........
	3	1.03333	6.91230E-003	7.03615E-003	6.37098E-004	...........
	4	1.29167	6.94208E-003	7.08163E-003	6.28131E-004	...........
	5	1.55	6.98249E-003	7.11335E-003	6.34898E-004	...........
	6	1.80833	7.02725E-003	7.15908E-003	6.35131E-004	...........
	7	2.06667	7.07117E-003	7.18251E-003	6.30831E-004	...........
	8	2.325	7.11097E-003	7.17480E-003	6.31665E-004	...........
	9	2.58333	7.14304E-003	7.17746E-003	6.40098E-004	...........
	10	2.84167	7.16295E-003	7.11977E-003	6.40131E-004	...........
	11	3.1	7.16682E-003	7.08005E-003	6.30665E-004	...........
	12	3.35833	7.15749E-003	7.28097E-003	6.30998E-004	...........
	13	3.61667	7.15630E-003	7.44875E-003	6.38965E-004	...........
	14	3.875	7.19677E-003	7.64850E-003	6.44631E-004	...........
	15	4.13333	7.29056E-003	7.51288E-003	6.38098E-004	...........
	16	4.39167	7.38115E-003	6.25699E-003	6.34498E-004	...........
	17	4.65	7.32099E-003	5.15475E-003	6.40331E-004	...........
	18	4.90833	6.98860E-003	6.07478E-003	6.37898E-004	...........
EOC	QUANT	0.0069886	Open Circuit (V)
PSTATMODEL	IQUANT	4	Pstat Model
PSTATSECTION	LABEL	REF600-11020	Pstat Section
PSTATSERIALNO	LABEL	11020	Pstat Serial Number
CTRLMODE	IQUANT	1	Control Mode
IESTAB	IQUANT	0	I/E Stability
CASPEED	IQUANT	1	Control Amp Speed
CONVENTION	IQUANT	1	Current Convention
ICHRANGE	IQUANT	2	Ich Range
ICHRANGEMODE	TOGGLE	F	Ich Auto Range
ICHOFFSETENABLE	TOGGLE	T	Ich Offset Enable
ICHOFFSET	QUANT	0	Ich Offset (V)
ICHFILTER	IQUANT	3	Ich Filter
VCHRANGE	IQUANT	2	Vch Range
VCHRANGEMODE	TOGGLE	F	Vch Auto Range
VCHOFFSETENABLE	TOGGLE	T	Vch Offset Enable
VCHOFFSET	QUANT	0	Vch Offset (V)
VCHFILTER	IQUANT	3	Vch Filter
ACHRANGE	IQUANT	2	Ach Range
ACHOFFSETENABLE	TOGGLE	F	Ach Offset Enable
ACHOFFSET	QUANT	0	Ach Offset (V)
ACHFILTER	IQUANT	3	Ach Filter
IERANGELOWERLIMIT	IQUANT	1	I/E Range Lower Limit
IERANGEMODE	TOGGLE	F	I/E AutoRange
IERANGE	IQUANT	5	I/E Range
POSFEEDENABLE	TOGGLE	F	Positive Feedback IR Comp
POSFEEDRESISTANCE	QUANT	0	Positive Feedback Resistance (ohm)
ACHSELECT	IQUANT	0	Ach Select
CABLEID	IQUANT	14	Cable ID
DCCALDATE	LABEL	8/19/2019	DC Calibration Date
ACCALDATE	LABEL	8/19/2019	AC Calibration Date
THERMOSELECT	IQUANT	1	Thermo Select
FRAMEWORKVERSION	QUANT	6.33	Framework Version
INSTRUMENTVERSION	LABEL	3.50	Instrument Version
ZCURVE	TABLE
	Pt	Time	Freq	Zreal	Zimag	Zsig	Zmod	Zphz	Idc	Vdc	IERange
	#	s	Hz	ohm	ohm	V	ohm	°	A	V	#
	0	1	1000078	1310.968	-2619.161	1	2928.932	-63.41067	-1.529001E-006	0.0100122	8
	1	3	794390.6	1526.463	-3133.428	1	3485.464	-64.02678	-7.489665E-007	0.0095451	8
	2	4	630984.4	1794.141	-3748.586	1	4155.82	-64.42339	-3.161312E-006	0.0094167	8
	3	5	501234.4	2161.346	-4477.849	1	4972.177	-64.23456	8.348304E-006	0.0078039	8
	4	7	398109.4	2664.897	-5350.486	1	5977.406	-63.52364	-3.721479E-006	0.0091746	8
	5	8	316265.6	3229.318	-6289.972	1	7070.52	-62.8237	-1.710933E-006	0.0083292	8
	6	10	251203.1	4036.368	-7391.333	1	8421.644	-61.36128	-9.528189E-007	0.0090117	8
	7	12	199546.9	5001.51	-8522.367	1	9881.59	-59.59266	6.374504E-007	0.0089439	8
	8	14	158578.1	5975.478	-9788.25	1	11468.05	-58.597	2.153281E-006	0.0080787	8
	9	16	125953.1	7706.9	-11027.23	1	13453.48	-55.05042	2.868305E-006	0.0080893	7
	10	17	100078.1	9157.037	-12312.68	1	15344.5	-53.36154	1.401609E-006	0.0065707	7
	11	19	79453.13	10781.54	-13544.07	1	17311.37	-51.47901	-7.728523E-007	0.0105275	7
	12	20	63140.62	12498.56	-15157.04	1	19645.61	-50.49086	9.779895E-007	0.0061929	7
	13	22	50203.12	14276.9	-16603.44	1	21897.58	-49.30855	-1.549611E-006	0.0103354	7
	14	23	39890.62	16174.1	-18500.4	1	24573.69	-48.83821	-7.722378E-007	0.0105258	7
	15	25	31640.63	18243.77	-20768.47	1	27643.53	-48.70277	-7.728105E-007	0.010521	7
	16	26	25171.88	20566.26	-23834.72	1	31481.19	-49.21009	1.256108E-006	0.0062732	7
	17	28	20015.62	23408.63	-26662.16	1	35480.07	-48.71777	-9.685318E-007	0.0083451	7
	18	29	15890.62	26718.77	-30687.54	1	40689.29	-48.95483	1.098576E-006	0.0081715	7
	19	31	12609.37	31374.31	-34753.81	1	46820.66	-47.92558	2.068218E-007	0.0048581	6
	20	32	10078.13	36250.32	-39354.21	1	53505.51	-47.35092	1.609546E-007	0.0047743	6
	21	34	8015.625	42295.11	-44162.27	1	61148.85	-46.23718	1.487625E-007	0.0087683	6
	22	35	6328.125	49989.51	-48873.08	1	69910.87	-44.353	-2.44134E-007	0.0102052	6
	23	37	5015.625	59239.09	-53833.55	1	80045.73	-42.26301	2.028899E-007	0.0076086	6
	24	39	3984.375	70119.45	-57319.12	1	90566.1	-39.26427	9.832131E-008	0.0050379	6
	25	40	3170.956	80970.16	-59275.18	1	100348	-36.20644	7.842644E-008	0.0098906	6
	26	42	2527.573	92596.49	-59459.62	1	110043.4	-32.70602	1.495786E-007	0.0087561	6
	27	44	1976.103	104440.7	-57792.96	1	119364.5	-28.95823	7.870194E-008	0.0098923	6
	28	46	1577.524	116000.5	-53010.97	1	127539.3	-24.55989	2.067246E-007	0.0048507	6
	29	47	1265.625	123680.9	-51027.19	1	133793.7	-22.41964	2.328538E-007	0.00527	6
	30	49	998.264	130830.1	-46865.9	1	138971	-19.70851	1.488203E-007	0.0087584	6
	31	50	796.875	137250.5	-40996.75	1	143242.6	-16.6309	2.536757E-008	0.0055545	5
	32	52	627.7902	141416.8	-37771.84	1	146374.2	-14.95438	-1.990153E-008	0.0125484	5
	33	53	505.5147	144583.1	-35530.88	1	148884.9	-13.80668	-1.965075E-008	0.0125481	5
	34	54	397.9953	148124.2	-34466.16	1	152081.2	-13.09874	5.488386E-010	0.0084427	5
	35	56	315.5048	150952.2	-34503.45	1	154845.3	-12.87503	6.257277E-010	0.0084374	5
	36	57	252.4038	153096.9	-35194.94	1	157090.3	-12.9466	8.224885E-010	0.008439	5
	37	59	198.6229	155969.9	-37049.09	1	160309.8	-13.36239	4.43822E-010	0.0084379	5
	38	60	158.3615	158446.7	-40064.27	1	163433.4	-14.19018	-2.12291E-010	0.0084444	5
	39	62	125.558	162237.3	-44173.65	1	168143.5	-15.23116	7.038101E-010	0.0084443	5
	40	63	100.4464	166239.1	-49459.86	1	173440.8	-16.56892	3.848641E-010	0.0084359	5
	41	65	79.00281	172297.6	-56833.46	1	181429.1	-18.25547	4.466092E-010	0.0084365	5
	42	66	63.3446	171544.9	-66910.66	1	184132.2	-21.30815	6.270085E-010	0.0084343	5
	43	68	49.86702	182645.4	-74121.14	1	197112.4	-22.08829	4.527679E-010	0.0084426	5
	44	70	39.72458	191349.5	-84823.54	1	209307.5	-23.90729	3.042467E-010	0.0084507	5
	45	71	31.6723	201601.8	-97494.4	1	223938.5	-25.80836	8.507628E-010	0.0084446	5
	46	73	24.93351	211592.3	-111629.8	1	239233.2	-27.8148	4.509395E-010	0.0084421	5
	47	74	19.86229	224254.3	-128462	1	258442.4	-29.80583	1.242484E-009	0.0084517	5
	48	75	15.83615	240101.1	-145375.3	1	280682.2	-31.19387	7.003159E-010	0.0084486	5
	49	77	12.40079	259614.2	-169625.2	1	310116.5	-33.15955	1.829924E-010	0.0084351	5
	50	78	9.93114	274917.9	-188357.3	1	333254.1	-34.4166	-2.103423E-010	0.0084441	5
	51	80	7.944915	296904.8	-214584.5	1	366331.8	-35.85709	5.256514E-010	0.008458	5
	52	81	6.317385	320571.8	-243407.4	1	402508.9	-37.20909	4.149383E-010	0.008443	5
	53	83	5.008013	349016.2	-277110.1	1	445648.2	-38.44869	2.535431E-010	0.0084623	5
	54	86	3.945707	383064.4	-316708.3	1	497033.7	-39.58311	-1.422267E-010	0.0084324	5
	55	89	3.158693	416837.5	-356910.6	1	548761	-40.57127	1.731843E-010	0.0084362	5
	56	92	2.504006	460277.2	-406882	1	614335.4	-41.47647	-3.201114E-010	0.0084523	5
	57	95	1.998082	497741.7	-457046.7	1	675750.3	-42.55941	2.853822E-010	0.0084169	5
	58	98	1.584686	550807.3	-521874	1	758776.1	-43.45494	-1.888724E-010	0.0084107	5
	59	102	1.266892	601453	-591407.8	1	843509.8	-44.51752	2.798487E-010	0.0084063	5
	60	106	0.999041	669301.5	-680300.9	1	954345	-45.46696	-1.281859E-010	0.0084718	5
