EXPLAIN
TAG	EISPOT
TITLE	LABEL	Potentiostatic EIS	Test &Identifier
DATE	LABEL	10/14/2019	Date
TIME	LABEL	11:31:41	Time
NOTES	NOTES	1	&Notes...
	
PSTAT	PSTAT	REF600-11020	Potentiostat
VDC	POTEN	0.00000E+000	T	DC &Voltage (V)
FREQINIT	QUANT	1.00000E+006	Initial Fre&q. (Hz)
FREQFINAL	QUANT	1.00000E+000	Final Fre&q. (Hz)
PTSPERDEC	QUANT	1.00000E+001	Points/&decade
VAC	QUANT	2.50000E+001	AC &Voltage (mV rms)
AREA	QUANT	1.00000E-002	&Area (cm^2)
CONDIT	TWOPARAM	T	5.00000E+000	0.00000E+000	Conditionin&g	Time(s)	E(V)
DELAY	TWOPARAM	T	5.00000E+000	0.00000E+000	Init. De&lay	Time(s)	Stab.(mV/s)
SPEED	SELECTOR	1	&Optimize for:
ZGUESS	QUANT	1.00000E+004	E&stimated Z (ohms)
OCVCURVE	TABLE	19
	Pt	T	Vf	Vm	Ach	Over
	#	s	V vs. Ref.	V	V	bits
	0	0.258333	5.81696E-003	5.81696E-003	5.11900E-004	...........
	1	0.516667	5.81744E-003	5.84176E-003	5.09067E-004	...........
	2	0.775	5.82046E-003	5.87113E-003	5.10567E-004	...........
	3	1.03333	5.82973E-003	5.91772E-003	5.06500E-004	...........
	4	1.29167	5.84893E-003	5.98125E-003	5.05533E-004	...........
	5	1.55	5.88208E-003	6.13170E-003	5.04167E-004	...........
	6	1.80833	5.93439E-003	6.17617E-003	5.13333E-004	...........
	7	2.06667	6.00509E-003	6.19674E-003	5.14500E-004	...........
	8	2.325	6.08113E-003	6.25297E-003	5.06900E-004	...........
	9	2.58333	6.14752E-003	6.27606E-003	5.06100E-004	...........
	10	2.84167	6.20033E-003	6.34533E-003	5.11033E-004	...........
	11	3.1	6.24474E-003	6.35821E-003	5.12600E-004	...........
	12	3.35833	6.28704E-003	6.46279E-003	5.12300E-004	...........
	13	3.61667	6.33276E-003	6.52481E-003	5.10800E-004	...........
	14	3.875	6.38610E-003	6.56242E-003	5.15266E-004	...........
	15	4.13333	6.44563E-003	6.61771E-003	5.11500E-004	...........
	16	4.39167	6.50518E-003	6.66838E-003	5.11867E-004	...........
	17	4.65	6.56138E-003	6.73986E-003	5.16533E-004	...........
	18	4.90833	6.61628E-003	6.80269E-003	5.15600E-004	...........
EOC	QUANT	0.0066163	Open Circuit (V)
PSTATMODEL	IQUANT	4	Pstat Model
PSTATSECTION	LABEL	REF600-11020	Pstat Section
PSTATSERIALNO	LABEL	11020	Pstat Serial Number
CTRLMODE	IQUANT	1	Control Mode
IESTAB	IQUANT	0	I/E Stability
CASPEED	IQUANT	1	Control Amp Speed
CONVENTION	IQUANT	1	Current Convention
ICHRANGE	IQUANT	2	Ich Range
ICHRANGEMODE	TOGGLE	F	Ich Auto Range
ICHOFFSETENABLE	TOGGLE	T	Ich Offset Enable
ICHOFFSET	QUANT	0	Ich Offset (V)
ICHFILTER	IQUANT	3	Ich Filter
VCHRANGE	IQUANT	2	Vch Range
VCHRANGEMODE	TOGGLE	F	Vch Auto Range
VCHOFFSETENABLE	TOGGLE	T	Vch Offset Enable
VCHOFFSET	QUANT	0	Vch Offset (V)
VCHFILTER	IQUANT	3	Vch Filter
ACHRANGE	IQUANT	2	Ach Range
ACHOFFSETENABLE	TOGGLE	F	Ach Offset Enable
ACHOFFSET	QUANT	0	Ach Offset (V)
ACHFILTER	IQUANT	3	Ach Filter
IERANGELOWERLIMIT	IQUANT	1	I/E Range Lower Limit
IERANGEMODE	TOGGLE	F	I/E AutoRange
IERANGE	IQUANT	6	I/E Range
POSFEEDENABLE	TOGGLE	F	Positive Feedback IR Comp
POSFEEDRESISTANCE	QUANT	0	Positive Feedback Resistance (ohm)
ACHSELECT	IQUANT	0	Ach Select
CABLEID	IQUANT	14	Cable ID
DCCALDATE	LABEL	8/19/2019	DC Calibration Date
ACCALDATE	LABEL	8/19/2019	AC Calibration Date
THERMOSELECT	IQUANT	1	Thermo Select
FRAMEWORKVERSION	QUANT	6.33	Framework Version
INSTRUMENTVERSION	LABEL	3.50	Instrument Version
ZCURVE	TABLE
	Pt	Time	Freq	Zreal	Zimag	Zsig	Zmod	Zphz	Idc	Vdc	IERange
	#	s	Hz	ohm	ohm	V	ohm	°	A	V	#
	0	2	1000078	2481.758	-1626.038	1	2967.005	-33.23267	2.268989E-006	0.0085069	8
	1	3	794390.6	2796.585	-1554.538	1	3199.605	-29.06838	-1.395092E-006	0.0083302	8
	2	5	630984.4	3071.922	-1466.092	1	3403.841	-25.51307	-1.103691E-006	0.0084982	8
	3	6	501234.4	3297.557	-1352.382	1	3564.101	-22.29934	-7.470935E-007	0.0083957	8
	4	8	398109.4	3510.424	-1223.526	1	3717.539	-19.21552	5.110967E-006	0.0070348	8
	5	9	316265.6	3678.093	-1095.997	1	3837.913	-16.59299	-4.309736E-006	0.0088231	8
	6	10	251203.1	3829.353	-963.997	1	3948.827	-14.12997	5.000109E-006	0.007048	8
	7	12	199546.9	3947.584	-856.1708	1	4039.363	-12.23706	3.325804E-007	0.008092	8
	8	13	158578.1	4046.439	-736.1694	1	4112.859	-10.31106	-4.166247E-007	0.0080706	8
	9	15	125953.1	4131.871	-642.1838	1	4181.478	-8.834346	1.969658E-008	0.0083419	7
	10	16	100078.1	4191.634	-562.7894	1	4229.247	-7.647081	1.138356E-008	0.0079944	7
	11	17	79453.13	4243.861	-514.8831	1	4274.981	-6.917556	1.381514E-008	0.0079874	7
	12	19	63140.62	4291.621	-479.3359	1	4318.307	-6.373016	-1.371359E-008	0.0080578	7
	13	20	50203.12	4333.583	-454.7779	1	4357.38	-5.990846	4.407239E-008	0.0079183	7
	14	21	39890.62	4372.71	-439.4525	1	4394.737	-5.738892	1.146329E-008	0.0081343	7
	15	23	31640.63	4411.568	-434.2182	1	4432.886	-5.621355	-7.744105E-008	0.0082704	7
	16	24	25171.88	4448.93	-440.3358	1	4470.668	-5.652479	4.389424E-008	0.0079227	7
	17	25	20015.62	4480.381	-464.0511	1	4504.349	-5.913269	-7.059167E-008	0.0081488	7
	18	27	15890.62	4521.94	-483.1839	1	4547.682	-6.099097	-1.42715E-008	0.0080459	7
	19	28	12609.37	4559.457	-524.0797	1	4589.478	-6.556998	-9.492695E-009	0.0081018	7
	20	30	10078.13	4595.223	-578.9401	1	4631.549	-7.180712	-7.265287E-008	0.0081466	7
	21	31	8015.625	4633.497	-653.2705	1	4679.322	-8.025161	9.343537E-008	0.0079709	7
	22	32	6328.125	4673.781	-749.2115	1	4733.45	-9.107089	-1.85502E-008	0.0080238	7
	23	34	5015.625	4717.158	-873.6311	1	4797.375	-10.49246	-1.464184E-008	0.0080487	7
	24	35	3984.375	4750.394	-1031.668	1	4861.13	-12.25296	-1.798138E-008	0.0080292	7
	25	36	3170.956	4815.375	-1218.535	1	4967.158	-14.20065	-6.950089E-008	0.0081436	7
	26	38	2527.573	4875.607	-1454.789	1	5088.021	-16.61411	-7.100421E-008	0.0081408	7
	27	39	1976.103	4951.253	-1772.671	1	5259.018	-19.69862	-2.135995E-008	0.0080337	7
	28	40	1577.524	5032.498	-2139.37	1	5468.358	-23.03087	-3.413824E-008	0.0080488	7
	29	42	1265.625	5128.935	-2566.888	1	5735.406	-26.58668	-6.773657E-008	0.0081422	7
	30	43	998.264	5251.545	-3136.279	1	6116.778	-30.8461	4.316654E-008	0.0080049	7
	31	45	796.875	5385.694	-3804.398	1	6593.872	-35.23698	4.081507E-008	0.0080021	7
	32	46	627.7902	5564.165	-4679.407	1	7270.267	-40.0635	8.281923E-009	0.0080192	7
	33	47	505.5147	5767.569	-5644.671	1	8070.141	-44.38301	4.032188E-008	0.0079194	7
	34	49	397.9953	6043.682	-6965.497	1	9221.943	-49.05313	5.167041E-009	0.0080611	7
	35	50	315.5048	6389.685	-8541.387	1	10666.93	-53.20038	3.618367E-010	0.0079967	6
	36	51	252.4038	6811.657	-10393.51	1	12426.74	-56.76014	1.459457E-009	0.0079937	6
	37	53	198.6229	7400.061	-12829.37	1	14810.59	-60.02338	1.048501E-009	0.0079909	6
	38	54	158.3615	8132.414	-15642.95	1	17630.6	-62.53111	1.245598E-009	0.0079897	6
	39	56	125.558	9108.636	-19145.68	1	21201.98	-64.55704	3.119581E-010	0.0079919	6
	40	57	100.4464	10376.56	-23210.08	1	25424.02	-65.91196	1.391342E-009	0.007996	6
	41	58	79.00281	12128.39	-28512.04	1	30984.42	-66.95618	1.339476E-010	0.0079953	6
	42	60	63.3446	14197.39	-34478.09	1	37286.79	-67.61911	-7.899568E-011	0.0079889	6
	43	61	49.86702	17443.81	-41485.27	1	45003.49	-67.19412	4.040344E-010	0.007987	6
	44	62	39.72458	21399.63	-49860.48	1	54258.74	-66.77146	6.915727E-010	0.0079954	6
	45	64	31.6723	26529.15	-59477.37	1	65125.68	-65.96133	8.984076E-010	0.0079926	6
	46	65	24.93351	33252.54	-70696.77	1	78126.59	-64.80984	9.125476E-010	0.0079926	6
	47	67	19.86229	41423.09	-82805.12	1	92588.12	-63.42358	-3.227965E-010	0.0079921	6
	48	68	15.83615	51403.95	-96081.2	1	108967.8	-61.85299	9.739635E-010	0.0079976	5
	49	69	12.40079	64221.19	-111357	1	128548.6	-60.02732	-9.381215E-011	0.008004	5
	50	71	9.93114	77412.78	-127302.7	1	148992.3	-58.69621	-8.301194E-010	0.0080028	5
	51	72	7.944915	93190.87	-143307.7	1	170943.3	-56.96465	2.161753E-009	0.0080012	5
	52	74	6.317385	109949.9	-161935.5	1	195734.7	-55.82454	-5.376319E-010	0.0080073	5
	53	76	5.008013	129187	-182634.3	1	223706.4	-54.72619	-1.296895E-010	0.0079858	5
	54	79	3.945707	150280.6	-206500.8	1	255395.5	-53.9548	4.647329E-010	0.0079969	5
	55	81	3.158693	171630.6	-232473	1	288965	-53.56223	-2.546821E-010	0.0079744	5
	56	85	2.504006	195546.7	-263671.8	1	328270.2	-53.43829	5.455904E-010	0.0079862	5
	57	87	1.998082	220590.8	-299546.7	1	372006.1	-53.6315	4.20816E-010	0.0080194	5
	58	90	1.584686	248503.4	-343083.9	1	423627.8	-54.08334	2.33662E-010	0.0079614	5
	59	94	1.266892	278435.3	-393449.6	1	482005	-54.71382	2.787424E-010	0.008024	5
	60	98	0.999041	316842.4	-456055.1	1	555315.6	-55.21052	-2.220386E-010	0.0079595	5
