EXPLAIN
TAG	EISPOT
TITLE	LABEL	Potentiostatic EIS	Test &Identifier
DATE	LABEL	10/20/2019	Date
TIME	LABEL	10:40:12	Time
NOTES	NOTES	1	&Notes...
	
PSTAT	PSTAT	REF600-11020	Potentiostat
VDC	POTEN	0.00000E+000	T	DC &Voltage (V)
FREQINIT	QUANT	1.00000E+006	Initial Fre&q. (Hz)
FREQFINAL	QUANT	1.00000E+000	Final Fre&q. (Hz)
PTSPERDEC	QUANT	1.00000E+001	Points/&decade
VAC	QUANT	2.50000E+001	AC &Voltage (mV rms)
AREA	QUANT	1.00000E-002	&Area (cm^2)
CONDIT	TWOPARAM	T	5.00000E+000	0.00000E+000	Conditionin&g	Time(s)	E(V)
DELAY	TWOPARAM	T	5.00000E+000	0.00000E+000	Init. De&lay	Time(s)	Stab.(mV/s)
SPEED	SELECTOR	1	&Optimize for:
ZGUESS	QUANT	1.00000E+005	E&stimated Z (ohms)
OCVCURVE	TABLE	19
	Pt	T	Vf	Vm	Ach	Over
	#	s	V vs. Ref.	V	V	bits
	0	0.258333	2.40321E-002	2.40321E-002	5.51866E-004	...........
	1	0.516667	2.39764E-002	2.11188E-002	5.54199E-004	...........
	2	0.775	2.36110E-002	1.71181E-002	5.52766E-004	...........
	3	1.03333	2.25353E-002	1.52019E-002	5.56033E-004	...........
	4	1.29167	2.06361E-002	1.42766E-002	5.52799E-004	...........
	5	1.55	1.83324E-002	1.28808E-002	5.61999E-004	...........
	6	1.80833	1.61803E-002	1.14338E-002	5.62299E-004	...........
	7	2.06667	1.43757E-002	8.67158E-003	5.62766E-004	...........
	8	2.325	1.28150E-002	1.14469E-002	5.58232E-004	...........
	9	2.58333	1.14841E-002	7.45868E-003	5.52166E-004	...........
	10	2.84167	1.04926E-002	1.13116E-002	5.57233E-004	...........
	11	3.1	9.82670E-003	5.40235E-003	5.56999E-004	...........
	12	3.35833	9.15876E-003	2.34559E-003	5.55299E-004	...........
	13	3.61667	7.95490E-003	2.17430E-003	5.59199E-004	...........
	14	3.875	6.17393E-003	5.09898E-003	5.56966E-004	...........
	15	4.13333	4.56513E-003	3.77106E-003	5.56633E-004	...........
	16	4.39167	3.73008E-003	1.46724E-003	5.53966E-004	...........
	17	4.65	3.32089E-003	-2.05629E-003	5.56633E-004	...........
	18	4.90833	2.65830E-003	3.43289E-003	5.51433E-004	...........
EOC	QUANT	0.0026583	Open Circuit (V)
PSTATMODEL	IQUANT	4	Pstat Model
PSTATSECTION	LABEL	REF600-11020	Pstat Section
PSTATSERIALNO	LABEL	11020	Pstat Serial Number
CTRLMODE	IQUANT	1	Control Mode
IESTAB	IQUANT	0	I/E Stability
CASPEED	IQUANT	1	Control Amp Speed
CONVENTION	IQUANT	1	Current Convention
ICHRANGE	IQUANT	2	Ich Range
ICHRANGEMODE	TOGGLE	F	Ich Auto Range
ICHOFFSETENABLE	TOGGLE	T	Ich Offset Enable
ICHOFFSET	QUANT	0	Ich Offset (V)
ICHFILTER	IQUANT	3	Ich Filter
VCHRANGE	IQUANT	2	Vch Range
VCHRANGEMODE	TOGGLE	F	Vch Auto Range
VCHOFFSETENABLE	TOGGLE	T	Vch Offset Enable
VCHOFFSET	QUANT	0	Vch Offset (V)
VCHFILTER	IQUANT	3	Vch Filter
ACHRANGE	IQUANT	2	Ach Range
ACHOFFSETENABLE	TOGGLE	F	Ach Offset Enable
ACHOFFSET	QUANT	0	Ach Offset (V)
ACHFILTER	IQUANT	3	Ach Filter
IERANGELOWERLIMIT	IQUANT	1	I/E Range Lower Limit
IERANGEMODE	TOGGLE	F	I/E AutoRange
IERANGE	IQUANT	4	I/E Range
POSFEEDENABLE	TOGGLE	F	Positive Feedback IR Comp
POSFEEDRESISTANCE	QUANT	0	Positive Feedback Resistance (ohm)
ACHSELECT	IQUANT	0	Ach Select
CABLEID	IQUANT	14	Cable ID
DCCALDATE	LABEL	8/19/2019	DC Calibration Date
ACCALDATE	LABEL	8/19/2019	AC Calibration Date
THERMOSELECT	IQUANT	1	Thermo Select
FRAMEWORKVERSION	QUANT	6.33	Framework Version
INSTRUMENTVERSION	LABEL	3.50	Instrument Version
ZCURVE	TABLE
	Pt	Time	Freq	Zreal	Zimag	Zsig	Zmod	Zphz	Idc	Vdc	IERange
	#	s	Hz	ohm	ohm	V	ohm	°	A	V	#
	0	2	1000078	1279.136	-10756.12	1	10831.91	-83.21814	1.923298E-006	0.0045878	8
	1	4	794390.6	1394.35	-13637.03	1	13708.13	-84.16195	-1.488744E-007	0.0044336	8
	2	6	630984.4	1979.095	-16726.47	1	16843.15	-83.25208	1.10813E-006	0.0042247	8
	3	7	501234.4	1968.993	-20817.24	1	20910.15	-84.59677	-1.670093E-006	0.004854	8
	4	9	398109.4	1316.711	-25040.45	1	25075.05	-86.98997	-2.394452E-006	0.0048828	8
	5	11	316265.6	2434.816	-31881.75	1	31974.58	-85.63278	-1.535057E-006	0.00472	8
	6	12	251203.1	3012.493	-40556.36	1	40668.09	-85.75191	-3.455719E-006	0.0050905	8
	7	14	199546.9	3890.957	-50069.86	1	50220.82	-85.55644	-1.519339E-006	0.0046802	8
	8	16	158578.1	4158.877	-65126.99	1	65259.64	-86.34617	-3.252764E-006	0.004812	8
	9	17	125953.1	4968.768	-77688.7	1	77847.44	-86.34049	-7.55231E-007	0.0056227	7
	10	19	100078.1	7307.576	-98669.3	1	98939.5	-85.76434	-6.494456E-008	0.0044364	7
	11	21	79453.13	8826.402	-122781.8	1	123098.7	-85.88826	1.777756E-007	0.0040484	7
	12	22	63140.62	10212.08	-153843.6	1	154182.1	-86.2023	6.464936E-008	0.0042399	7
	13	24	50203.12	13495.5	-193262.8	1	193733.4	-86.00553	2.307291E-008	0.0041893	7
	14	26	39890.62	18024.06	-241449.3	1	242121.1	-85.73082	1.148724E-007	0.004071	7
	15	28	31640.63	17226.57	-300988.4	1	301480.9	-86.72434	6.753417E-008	0.0042299	7
	16	30	25171.88	20688.07	-372945.2	1	373518.5	-86.82494	-1.505922E-008	0.0043278	7
	17	32	20015.62	-51088.53	-492858.8	1	495499.6	-95.918	6.503184E-008	0.0042339	7
	18	33	15890.62	27709.54	-593155.4	1	593802.3	-87.32535	7.792089E-008	0.0041846	7
	19	35	12609.37	58036.27	-732058.4	1	734355.3	-85.46717	-1.131153E-008	0.0043491	6
	20	37	10078.13	76851.91	-899999.2	1	903274.4	-85.11929	8.959064E-009	0.0040153	6
	21	38	8015.625	112379.2	-998414	1	1004719	-83.57795	-1.273969E-008	0.0043351	6
	22	40	6328.125	84674.51	-1411960	1	1414496	-86.56811	-1.596421E-008	0.0043722	6
	23	42	5015.625	109006.7	-1734766	1	1738187	-86.40446	8.062527E-010	0.004181	6
	24	44	3984.375	390899	-2096852	1	2132977	-79.44003	8.725214E-009	0.004006	6
	25	45	3170.956	231886	-2710022	1	2719924	-85.10934	-1.186563E-008	0.0043381	6
	26	47	2527.573	183222.5	-3421374	1	3426276	-86.93461	5.675427E-010	0.0041836	6
	27	49	1976.103	80399.01	-3608190	1	3609085	-88.72353	-9.50295E-009	0.0043715	6
	28	50	1577.524	-3668912	1800890	1	4087067	153.8558	-1.643632E-008	0.0043707	6
	29	52	1265.625	1327410	-6917647	1	7043852	-79.1377	1.214725E-009	0.0042507	5
	30	54	998.264	1995670	-8148680	1	8389498	-76.23872	-1.105823E-008	0.0044661	6
	31	56	796.875	-16523.26	-9162316	1	9162331	-90.10332	2.918845E-008	0.0038662	6
	32	57	627.7902	-8496097	-1.835832E+007	1	2.022898E+007	-114.8344	-1.782227E-009	0.0044186	6
	33	59	505.5147	4041366	-1.695546E+007	1	1.743044E+007	-76.59359	-8.845486E-010	0.0045378	5
	34	60	397.9953	-988029	-1.684282E+007	1	1.687177E+007	-93.35722	-7.262759E-010	0.0042544	5
	35	62	315.5048	9.548039E+006	-1.847304E+007	1	2.079467E+007	-62.66721	-3.743392E-010	0.0042564	5
	36	64	252.4038	-1.159569E+007	-4.042658E+007	1	4.205672E+007	-106.0047	6.202761E-010	0.0042513	5
	37	65	198.6229	1.010403E+007	-4.708E+007	1	4.815202E+007	-77.88725	4.284524E-010	0.0042474	5
	38	67	158.3615	1.36451E+007	-2.94009E+007	1	3.241299E+007	-65.10376	6.185126E-010	0.0042475	5
	39	69	125.558	583686.4	-4.228777E+007	1	4.22918E+007	-89.20921	5.002109E-010	0.0042531	5
	40	70	100.4464	-1.566986E+007	-1.216614E+008	1	1.226664E+008	-97.3392	2.509208E-010	0.004249	5
	41	72	79.00281	1.191613E+007	1.583627E+007	1	1.981872E+007	53.04006	-3.12415E-010	0.0042441	5
	42	74	63.3446	-1502973	2783154	1	3163048	118.3702	-6.756942E-010	0.0042399	5
	43	76	49.86702	-4985839	-2.113597E+007	1	2.171607E+007	-103.2731	1.531493E-010	0.0042427	5
	44	78	39.72458	-2.431928E+007	-1.085137E+007	1	2.663042E+007	-155.9534	-2.482914E-010	0.0042493	5
	45	80	31.6723	1.601673E+007	1.18932E+007	1	1.994953E+007	36.59568	5.899402E-010	0.0042448	5
	46	81	24.93351	6.921079E+007	-2.674912E+007	1	7.420006E+007	-21.1309	-1.321895E-010	0.0042485	5
	47	83	19.86229	-8.221858E+007	4.810101E+007	1	9.525546E+007	149.6707	5.235971E-010	0.0042484	6
	48	85	15.83615	8025864	-6471707	1	1.031007E+007	-38.8812	1.508903E-009	0.004245	5
	49	87	12.40079	1459043	1.39263E+007	1	1.400252E+007	84.019	1.273712E-009	0.0042491	5
	50	89	9.93114	-1502350	8.246477E+007	1	8.247845E+007	91.0437	2.854069E-010	0.0042475	5
	51	91	7.944915	-1.970197E+007	2.910286E+007	1	3.514462E+007	124.0971	9.805743E-010	0.0042416	6
	52	94	6.317385	3.705329E+008	-1.898203E+008	1	4.163248E+008	-27.12561	4.582755E-011	0.0042293	5
	53	97	5.008013	1.875096E+008	-2.080676E+008	1	2.800928E+008	-47.97497	1.04416E-011	0.0042508	5
	54	100	3.945707	-1.415673E+008	-6.917818E+007	1	1.575656E+008	-153.9571	-9.047961E-011	0.0042434	5
	55	104	3.158693	4.412864E+008	-2.873793E+008	1	5.266124E+008	-33.07341	3.212925E-011	0.0042587	5
	56	109	2.504006	4.74279E+009	-1.530854E+009	1	4.983731E+009	-17.88878	5.745094E-011	0.0042365	3
	57	113	1.998082	3.243593E+009	-3.073567E+008	1	3.258122E+009	-5.413077	5.034131E-011	0.0042267	3
	58	118	1.584686	2.847247E+009	-1.247108E+009	1	3.108391E+009	-23.65364	5.004278E-011	0.0042812	3
	59	124	1.266892	2.800261E+010	-1.411839E+010	1	3.13604E+010	-26.75639	-2.918059E-012	0.004287	2
	60	132	0.999041	3.157763E+010	-1.309124E+010	1	3.418373E+010	-22.51758	-2.839246E-012	0.0042071	2
