EXPLAIN
TAG	EISPOT
TITLE	LABEL	Potentiostatic EIS	Test &Identifier
DATE	LABEL	9/24/2019	Date
TIME	LABEL	9:25:45	Time
NOTES	NOTES	1	&Notes...
	
PSTAT	PSTAT	REF600-11020	Potentiostat
VDC	POTEN	0.00000E+000	T	DC &Voltage (V)
FREQINIT	QUANT	1.00000E+006	Initial Fre&q. (Hz)
FREQFINAL	QUANT	1.00000E+000	Final Fre&q. (Hz)
PTSPERDEC	QUANT	1.00000E+001	Points/&decade
VAC	QUANT	2.50000E+001	AC &Voltage (mV rms)
AREA	QUANT	1.00000E-002	&Area (cm^2)
CONDIT	TWOPARAM	T	5.00000E+000	0.00000E+000	Conditionin&g	Time(s)	E(V)
DELAY	TWOPARAM	T	5.00000E+000	0.00000E+000	Init. De&lay	Time(s)	Stab.(mV/s)
SPEED	SELECTOR	1	&Optimize for:
ZGUESS	QUANT	1.00000E+004	E&stimated Z (ohms)
OCVCURVE	TABLE	19
	Pt	T	Vf	Vm	Ach	Over
	#	s	V vs. Ref.	V	V	bits
	0	0.258333	4.03708E-004	4.03708E-004	5.62466E-004	...........
	1	0.516667	3.95099E-004	-4.69467E-005	5.56633E-004	...........
	2	0.775	3.42515E-004	-4.59375E-004	5.62799E-004	...........
	3	1.03333	1.95004E-004	-8.39085E-004	5.58966E-004	...........
	4	1.29167	-6.55682E-005	-1.19339E-003	5.57799E-004	...........
	5	1.55	-4.06100E-004	-1.52515E-003	5.60766E-004	...........
	6	1.80833	-7.75704E-004	-1.83627E-003	5.60266E-004	...........
	7	2.06667	-1.13859E-003	-2.12788E-003	5.64832E-004	...........
	8	2.325	-1.47984E-003	-2.40582E-003	5.61132E-004	...........
	9	2.58333	-1.79750E-003	-2.66968E-003	5.58666E-004	...........
	10	2.84167	-2.09461E-003	-2.92193E-003	5.57099E-004	...........
	11	3.1	-2.37474E-003	-3.16086E-003	5.59132E-004	...........
	12	3.35833	-2.64050E-003	-3.39139E-003	5.64266E-004	...........
	13	3.61667	-2.89357E-003	-3.61063E-003	5.63366E-004	...........
	14	3.875	-3.13512E-003	-3.82243E-003	5.60466E-004	...........
	15	4.13333	-3.36609E-003	-4.02380E-003	5.60366E-004	...........
	16	4.39167	-3.58722E-003	-4.21758E-003	5.58166E-004	...........
	17	4.65	-3.79907E-003	-4.40353E-003	5.63799E-004	...........
	18	4.90833	-4.00214E-003	-4.58408E-003	5.60766E-004	...........
EOC	QUANT	-0.0040021	Open Circuit (V)
PSTATMODEL	IQUANT	4	Pstat Model
PSTATSECTION	LABEL	REF600-11020	Pstat Section
PSTATSERIALNO	LABEL	11020	Pstat Serial Number
CTRLMODE	IQUANT	1	Control Mode
IESTAB	IQUANT	0	I/E Stability
CASPEED	IQUANT	1	Control Amp Speed
CONVENTION	IQUANT	1	Current Convention
ICHRANGE	IQUANT	2	Ich Range
ICHRANGEMODE	TOGGLE	F	Ich Auto Range
ICHOFFSETENABLE	TOGGLE	T	Ich Offset Enable
ICHOFFSET	QUANT	0	Ich Offset (V)
ICHFILTER	IQUANT	3	Ich Filter
VCHRANGE	IQUANT	2	Vch Range
VCHRANGEMODE	TOGGLE	F	Vch Auto Range
VCHOFFSETENABLE	TOGGLE	T	Vch Offset Enable
VCHOFFSET	QUANT	0	Vch Offset (V)
VCHFILTER	IQUANT	3	Vch Filter
ACHRANGE	IQUANT	2	Ach Range
ACHOFFSETENABLE	TOGGLE	F	Ach Offset Enable
ACHOFFSET	QUANT	0	Ach Offset (V)
ACHFILTER	IQUANT	3	Ach Filter
IERANGELOWERLIMIT	IQUANT	1	I/E Range Lower Limit
IERANGEMODE	TOGGLE	F	I/E AutoRange
IERANGE	IQUANT	5	I/E Range
POSFEEDENABLE	TOGGLE	F	Positive Feedback IR Comp
POSFEEDRESISTANCE	QUANT	0	Positive Feedback Resistance (ohm)
ACHSELECT	IQUANT	0	Ach Select
CABLEID	IQUANT	14	Cable ID
DCCALDATE	LABEL	8/19/2019	DC Calibration Date
ACCALDATE	LABEL	8/19/2019	AC Calibration Date
THERMOSELECT	IQUANT	1	Thermo Select
FRAMEWORKVERSION	QUANT	6.33	Framework Version
INSTRUMENTVERSION	LABEL	3.50	Instrument Version
ZCURVE	TABLE
	Pt	Time	Freq	Zreal	Zimag	Zsig	Zmod	Zphz	Idc	Vdc	IERange
	#	s	Hz	ohm	ohm	V	ohm	°	A	V	#
	0	2	1000078	2199.477	-1765.342	1	2820.307	-38.75119	5.883021E-006	-0.0031391	8
	1	3	794390.6	2557.94	-1721.36	1	3083.202	-33.93848	4.152263E-006	-0.0032771	8
	2	5	630984.4	2888.178	-1643.92	1	3323.258	-29.64807	-3.219177E-006	-0.0018388	8
	3	6	501234.4	3191.058	-1494.529	1	3523.701	-25.096	2.946055E-007	-0.0022346	8
	4	8	398109.4	3448.384	-1341.267	1	3700.047	-21.2538	-1.227136E-006	-0.0021678	8
	5	9	316265.6	3646.982	-1186.174	1	3835.034	-18.01702	3.572818E-006	-0.0030768	8
	6	10	251203.1	3798.991	-1034.501	1	3937.325	-15.23283	1.221832E-006	-0.0028145	8
	7	12	199546.9	3895.169	-875.7264	1	3992.397	-12.67077	2.050721E-006	-0.0028718	8
	8	13	158578.1	3979.834	-754.9483	1	4050.806	-10.74101	3.328447E-007	-0.0025964	8
	9	15	125953.1	4060.444	-628.0822	1	4108.733	-8.793004	-9.338747E-007	-0.0002762	7
	10	16	100078.1	4114.974	-542.2588	1	4150.549	-7.50701	-1.29838E-008	-0.0023517	7
	11	17	79453.13	4157.376	-489.4449	1	4186.088	-6.714484	-4.253938E-008	-0.0023502	7
	12	19	63140.62	4195.798	-449.6651	1	4219.824	-6.117061	-4.593829E-008	-0.0024033	7
	13	20	50203.12	4230.234	-424.3904	1	4251.469	-5.728924	-7.870619E-009	-0.0024529	7
	14	21	39890.62	4260.873	-406.6602	1	4280.235	-5.451829	1.88768E-008	-0.0025727	7
	15	23	31640.63	4294.485	-401.7408	1	4313.235	-5.344357	-6.250083E-009	-0.0024588	7
	16	24	25171.88	4325.03	-407.5582	1	4344.19	-5.383225	1.745628E-008	-0.0025744	7
	17	25	20015.62	4357.081	-423.5149	1	4377.615	-5.551797	-3.353507E-008	-0.0024747	7
	18	27	15890.62	4391.309	-448.5172	1	4414.155	-5.831823	-1.793136E-008	-0.0025116	7
	19	28	12609.37	4423.667	-492.0107	1	4450.944	-6.346489	-6.645454E-009	-0.0024567	7
	20	29	10078.13	4454.908	-545.5874	1	4488.192	-6.982179	6.93665E-008	-0.0026157	7
	21	31	8015.625	4492.536	-616.6453	1	4534.659	-7.815578	1.868456E-008	-0.0025757	7
	22	32	6328.125	4532.6	-709.3666	1	4587.773	-8.894824	3.907014E-008	-0.0025471	7
	23	34	5015.625	4575.901	-827.6978	1	4650.156	-10.25291	-8.415293E-010	-0.0024795	7
	24	35	3984.375	4623.411	-972.262	1	4724.534	-11.87575	-3.230833E-008	-0.0024792	7
	25	36	3170.956	4676.674	-1152.137	1	4816.503	-13.83969	-3.585254E-008	-0.0024547	7
	26	38	2527.573	4738.572	-1372.293	1	4933.28	-16.15104	-3.709647E-008	-0.0024739	7
	27	39	1976.103	4816.498	-1667.589	1	5097.009	-19.0971	1.289105E-007	-0.0026929	7
	28	40	1577.524	4903.859	-2001.705	1	5296.665	-22.20478	-3.619947E-008	-0.0024758	7
	29	42	1265.625	5000.102	-2397.861	1	5545.336	-25.62063	-5.092136E-009	-0.0025471	7
	30	43	998.264	5132.725	-2917.151	1	5903.782	-29.61145	-1.731217E-008	-0.0025191	7
	31	44	796.875	5277.839	-3515.616	1	6341.541	-33.66794	-3.635826E-008	-0.0024824	7
	32	46	627.7902	5461.463	-4293.696	1	6947.187	-38.17374	-6.824293E-008	-0.0023857	7
	33	47	505.5147	5657.52	-5146.15	1	7647.901	-42.29005	-3.432861E-008	-0.0024681	7
	34	49	397.9953	5911.435	-6301.584	1	8640.313	-46.82971	6.045651E-009	-0.0024756	7
	35	50	315.5048	6203.011	-7681.831	1	9873.59	-51.07943	6.95119E-009	-0.0024754	7
	36	51	252.4038	6538.908	-9305.631	1	11373.31	-54.90494	4.599013E-010	-0.0025353	6
	37	53	198.6229	6974.75	-11455.47	1	13411.75	-58.66454	1.160816E-009	-0.0025368	6
	38	54	158.3615	7483.094	-13962.72	1	15841.54	-61.81165	5.897078E-010	-0.0025464	6
	39	55	125.558	8137.108	-17124.35	1	18959.32	-64.58398	9.728132E-010	-0.0025396	6
	40	57	100.4464	8935.442	-20870	1	22702.4	-66.82192	1.648531E-009	-0.0025411	6
	41	58	79.00281	10005.54	-25802.71	1	27674.73	-68.80515	1.039533E-009	-0.0025451	6
	42	60	63.3446	11065.28	-31267.71	1	33167.91	-70.51173	1.02927E-009	-0.0025398	6
	43	61	49.86702	13446.41	-38392.14	1	40678.77	-70.69778	4.188827E-010	-0.0025486	6
	44	62	39.72458	15631.08	-46999.02	1	49530.17	-71.60374	1.437371E-009	-0.0025405	6
	45	64	31.6723	18758.41	-56969.38	1	59978.23	-71.77474	1.066285E-009	-0.0025443	6
	46	65	24.93351	22939.77	-69837.64	1	73508.7	-71.81605	9.517727E-010	-0.0025458	6
	47	66	19.86229	28151.75	-84427.37	1	88997.2	-71.55937	9.41622E-010	-0.0025372	6
	48	68	15.83615	34508.62	-100655.8	1	106406.9	-71.07634	-8.748141E-010	-0.0025398	5
	49	69	12.40079	44113	-124018.2	1	131630	-70.41964	7.286148E-011	-0.0025402	5
	50	71	9.93114	55367.62	-146666.5	1	156769.4	-69.31813	5.311176E-010	-0.0025378	5
	51	72	7.944915	69225.27	-173635.7	1	186926.5	-68.26377	9.237068E-010	-0.0025387	5
	52	74	6.317385	86775.17	-205548.5	1	223114.5	-67.11227	5.675544E-010	-0.0025305	5
	53	76	5.008013	109171.5	-242447.8	1	265893.6	-65.7585	7.375668E-010	-0.0025379	5
	54	78	3.945707	137453.2	-285834.9	1	317167.1	-64.31788	3.133356E-010	-0.0025446	5
	55	81	3.158693	169149	-330645.3	1	371399.7	-62.90697	5.421414E-010	-0.0025167	5
	56	84	2.504006	209194.3	-383804.3	1	437113.3	-61.40721	-3.017721E-011	-0.0025419	5
	57	87	1.998082	254907.8	-438777.3	1	507448	-59.84554	2.850397E-010	-0.002578	5
	58	90	1.584686	308109.2	-500993.1	1	588154.3	-58.40861	1.345646E-010	-0.0025371	5
	59	94	1.266892	368278	-566347.4	1	675557.6	-56.96531	2.867182E-010	-0.0025827	5
	60	98	0.999041	437918.8	-641923.4	1	777070.4	-55.69827	2.358057E-010	-0.0025014	5
