EXPLAIN
TAG	EISPOT
TITLE	LABEL	Potentiostatic EIS	Test &Identifier
DATE	LABEL	10/2/2019	Date
TIME	LABEL	9:00:33	Time
NOTES	NOTES	2	&Notes...
	
	
PSTAT	PSTAT	REF600-11020	Potentiostat
VDC	POTEN	0.00000E+000	T	DC &Voltage (V)
FREQINIT	QUANT	1.00000E+006	Initial Fre&q. (Hz)
FREQFINAL	QUANT	1.00000E+000	Final Fre&q. (Hz)
PTSPERDEC	QUANT	1.00000E+001	Points/&decade
VAC	QUANT	2.50000E+001	AC &Voltage (mV rms)
AREA	QUANT	1.00000E-002	&Area (cm^2)
CONDIT	TWOPARAM	T	5.00000E+000	0.00000E+000	Conditionin&g	Time(s)	E(V)
DELAY	TWOPARAM	T	5.00000E+000	0.00000E+000	Init. De&lay	Time(s)	Stab.(mV/s)
SPEED	SELECTOR	1	&Optimize for:
ZGUESS	QUANT	1.00000E+004	E&stimated Z (ohms)
OCVCURVE	TABLE	19
	Pt	T	Vf	Vm	Ach	Over
	#	s	V vs. Ref.	V	V	bits
	0	0.258333	3.17243E-003	3.17243E-003	5.49533E-004	...........
	1	0.516667	3.16606E-003	2.83897E-003	5.49833E-004	...........
	2	0.775	3.12776E-003	2.56557E-003	5.53699E-004	...........
	3	1.03333	3.01202E-003	1.77475E-003	5.51333E-004	...........
	4	1.29167	2.77175E-003	1.30886E-003	5.57732E-004	...........
	5	1.55	2.38814E-003	6.51970E-004	5.58499E-004	...........
	6	1.80833	1.88794E-003	8.54166E-005	5.51499E-004	...........
	7	2.06667	1.33425E-003	1.62673E-004	5.53399E-004	...........
	8	2.325	8.11931E-004	-2.58382E-004	5.56432E-004	...........
	9	2.58333	3.99988E-004	1.87609E-004	5.54033E-004	...........
	10	2.84167	1.52538E-004	6.45448E-004	5.46466E-004	...........
	11	3.1	1.01686E-004	6.48763E-004	5.52566E-004	...........
	12	3.35833	2.15179E-004	3.97905E-004	5.56533E-004	...........
	13	3.61667	3.69924E-004	2.02568E-004	5.53466E-004	...........
	14	3.875	4.58825E-004	1.08150E-003	5.59432E-004	...........
	15	4.13333	5.12636E-004	1.18596E-003	5.62766E-004	...........
	16	4.39167	6.29996E-004	1.04495E-003	5.61466E-004	...........
	17	4.65	8.08605E-004	8.78492E-004	5.61132E-004	...........
	18	4.90833	9.42463E-004	5.69884E-004	5.65099E-004	...........
EOC	QUANT	0.0009425	Open Circuit (V)
PSTATMODEL	IQUANT	4	Pstat Model
PSTATSECTION	LABEL	REF600-11020	Pstat Section
PSTATSERIALNO	LABEL	11020	Pstat Serial Number
CTRLMODE	IQUANT	1	Control Mode
IESTAB	IQUANT	0	I/E Stability
CASPEED	IQUANT	1	Control Amp Speed
CONVENTION	IQUANT	1	Current Convention
ICHRANGE	IQUANT	2	Ich Range
ICHRANGEMODE	TOGGLE	F	Ich Auto Range
ICHOFFSETENABLE	TOGGLE	T	Ich Offset Enable
ICHOFFSET	QUANT	0	Ich Offset (V)
ICHFILTER	IQUANT	3	Ich Filter
VCHRANGE	IQUANT	2	Vch Range
VCHRANGEMODE	TOGGLE	F	Vch Auto Range
VCHOFFSETENABLE	TOGGLE	T	Vch Offset Enable
VCHOFFSET	QUANT	0	Vch Offset (V)
VCHFILTER	IQUANT	3	Vch Filter
ACHRANGE	IQUANT	2	Ach Range
ACHOFFSETENABLE	TOGGLE	F	Ach Offset Enable
ACHOFFSET	QUANT	0	Ach Offset (V)
ACHFILTER	IQUANT	3	Ach Filter
IERANGELOWERLIMIT	IQUANT	1	I/E Range Lower Limit
IERANGEMODE	TOGGLE	F	I/E AutoRange
IERANGE	IQUANT	5	I/E Range
POSFEEDENABLE	TOGGLE	F	Positive Feedback IR Comp
POSFEEDRESISTANCE	QUANT	0	Positive Feedback Resistance (ohm)
ACHSELECT	IQUANT	0	Ach Select
CABLEID	IQUANT	14	Cable ID
DCCALDATE	LABEL	8/19/2019	DC Calibration Date
ACCALDATE	LABEL	8/19/2019	AC Calibration Date
THERMOSELECT	IQUANT	1	Thermo Select
FRAMEWORKVERSION	QUANT	6.33	Framework Version
INSTRUMENTVERSION	LABEL	3.50	Instrument Version
ZCURVE	TABLE
	Pt	Time	Freq	Zreal	Zimag	Zsig	Zmod	Zphz	Idc	Vdc	IERange
	#	s	Hz	ohm	ohm	V	ohm	°	A	V	#
	0	2	1000078	2319.4	-1476.924	1	2749.713	-32.48775	-2.504722E-006	0.0037482	8
	1	3	794390.6	2603.468	-1407.546	1	2959.6	-28.39754	4.531524E-006	0.0023121	8
	2	4	630984.4	2857.106	-1280.921	1	3131.104	-24.14803	-2.243613E-006	0.0032749	8
	3	6	501234.4	3054.681	-1140.969	1	3260.811	-20.48141	-2.100463E-007	0.0029493	8
	4	7	398109.4	3210.841	-996.084	1	3361.798	-17.23521	4.676971E-007	0.0025765	8
	5	8	316265.6	3347.142	-878.6777	1	3460.554	-14.70915	-3.096924E-006	0.0032539	8
	6	10	251203.1	3434.665	-733.2113	1	3512.054	-12.05028	2.912473E-006	0.0020502	8
	7	11	199546.9	3508.854	-639.4297	1	3566.641	-10.32786	-3.042839E-006	0.0032157	8
	8	12	158578.1	3572.219	-556.2269	1	3615.264	-8.850402	-4.167156E-007	0.0027945	8
	9	14	125953.1	3635.777	-441.4755	1	3662.482	-6.923266	1.27553E-006	-0.0002173	7
	10	15	100078.1	3658.894	-396.724	1	3680.339	-6.188252	-5.363155E-008	0.0027132	7
	11	16	79453.13	3691.039	-368.0197	1	3709.34	-5.693931	3.180511E-008	0.0025288	7
	12	18	63140.62	3720.094	-347.7821	1	3736.315	-5.340913	-7.179908E-009	0.0026001	7
	13	19	50203.12	3748.877	-335.6324	1	3763.871	-5.115982	-1.66977E-009	0.0025625	7
	14	21	39890.62	3776.426	-331.9704	1	3790.989	-5.023728	-4.275504E-008	0.0026397	7
	15	22	31640.63	3806.011	-336.966	1	3820.899	-5.059502	3.169725E-008	0.0025181	7
	16	23	25171.88	3834.971	-349.2828	1	3850.844	-5.204047	-4.08626E-008	0.0025908	7
	17	25	20015.62	3866.5	-371.0158	1	3884.26	-5.48112	-2.955324E-008	0.00256	7
	18	26	15890.62	3898.84	-399.1688	1	3919.22	-5.845657	-4.481625E-008	0.0025729	7
	19	27	12609.37	3933.939	-438.2886	1	3958.279	-6.35723	-1.085299E-009	0.002555	7
	20	29	10078.13	3969.026	-485.1816	1	3998.571	-6.969373	4.44865E-008	0.0024058	7
	21	30	8015.625	4007.467	-547.5237	1	4044.697	-7.779916	-2.039506E-010	0.0025575	7
	22	31	6328.125	4049.513	-626.3634	1	4097.668	-8.792616	-3.964838E-008	0.0025849	7
	23	33	5015.625	4094.389	-724.1301	1	4157.93	-10.02957	3.352879E-008	0.0025101	7
	24	34	3984.375	4141.731	-844.2263	1	4226.896	-11.52101	-1.329636E-008	0.0025825	7
	25	35	3170.956	4195.077	-991.165	1	4310.578	-13.29342	-4.227062E-008	0.0026318	7
	26	37	2527.573	4253.698	-1170.049	1	4411.685	-15.37978	7.666276E-008	0.0025076	7
	27	38	1976.103	4328.369	-1410.514	1	4552.398	-18.04957	-1.53529E-008	0.0025228	7
	28	40	1577.524	4404.778	-1679.457	1	4714.09	-20.87089	-3.985779E-008	0.0025889	7
	29	41	1265.625	4490.103	-1998.419	1	4914.744	-23.99251	6.850542E-008	0.0024213	7
	30	42	998.264	4595.876	-2420.271	1	5194.207	-27.7721	-7.334413E-008	0.0026671	7
	31	44	796.875	4709.771	-2909.422	1	5535.944	-31.70536	-4.017503E-008	0.0025876	7
	32	45	627.7902	4846.019	-3547.906	1	6005.958	-36.2089	1.305135E-007	0.002355	7
	33	46	505.5147	4987.839	-4256.354	1	6557.064	-40.47566	1.296083E-007	0.0023494	7
	34	48	397.9953	5175.916	-5227.35	1	7356.31	-45.28327	5.208403E-009	0.0025663	7
	35	49	315.5048	5390.517	-6394.748	1	8363.64	-49.87045	4.693556E-009	0.0025735	7
	36	50	252.4038	5640.309	-7777.067	1	9607.07	-54.04855	5.10884E-009	0.002562	7
	37	52	198.6229	5974.149	-9613.58	1	11318.63	-58.14203	1.178744E-009	0.0025036	6
	38	53	158.3615	6369.417	-11762.54	1	13376.35	-61.56445	1.034633E-009	0.0024989	6
	39	55	125.558	6882.012	-14471.88	1	16024.9	-64.56687	1.21851E-009	0.0024995	6
	40	56	100.4464	7527.998	-17668.26	1	19205.16	-66.92237	1.077706E-009	0.0025012	6
	41	57	79.00281	8391.724	-21902.96	1	23455.5	-69.03657	1.300793E-009	0.002498	6
	42	59	63.3446	9392.308	-26735.95	1	28337.72	-70.64368	9.070728E-010	0.0025021	6
	43	60	49.86702	11016.2	-32855.07	1	34652.74	-71.46386	1.165068E-009	0.002497	6
	44	62	39.72458	12966.59	-40231	1	42268.97	-72.13568	9.587948E-010	0.0025017	6
	45	63	31.6723	15576.44	-49102.18	1	51513.59	-72.39967	4.773726E-010	0.0024966	6
	46	64	24.93351	19167.84	-60241.73	1	63217.66	-72.34986	8.533113E-010	0.0024935	6
	47	66	19.86229	23804.54	-72969.28	1	76753.97	-71.93228	2.211789E-010	0.0024894	6
	48	67	15.83615	29882.24	-87536.77	1	92496.68	-71.15174	7.589813E-010	0.002498	6
	49	68	12.40079	38551.56	-107002.2	1	113735.2	-70.18655	1.989626E-010	0.0025052	5
	50	70	9.93114	48434.46	-127066.6	1	135984.6	-69.13447	4.255028E-010	0.0025065	5
	51	71	7.944915	61313.16	-150107.9	1	162147.1	-67.78193	3.467326E-010	0.0025028	5
	52	73	6.317385	77832.53	-176648.8	1	193035.5	-66.22141	1.25864E-010	0.0025074	5
	53	75	5.008013	98225.9	-206969.5	1	229095.4	-64.6114	-5.128183E-010	0.0024896	5
	54	78	3.945707	123230.1	-239501	1	269344.3	-62.77289	6.813553E-010	0.0025046	5
	55	80	3.158693	150744.3	-276595.4	1	315006.1	-61.40965	-5.111395E-011	0.002486	5
	56	84	2.504006	182466.3	-316866.4	1	365647.7	-60.06468	6.296705E-010	0.0025049	5
	57	86	1.998082	217451.2	-360367.9	1	420891.9	-58.89262	5.28558E-010	0.0025101	5
	58	90	1.584686	257711.5	-409926.6	1	484205.6	-57.84336	2.338774E-010	0.002448	5
	59	93	1.266892	297885.5	-465826.3	1	552928.5	-57.40199	4.004011E-010	0.0025032	5
	60	98	0.999041	346298.9	-535400.8	1	637633.8	-57.10508	-5.885794E-011	0.0024765	5
