EXPLAIN
TAG	EISPOT
TITLE	LABEL	Potentiostatic IDE	Test &Identifier
DATE	LABEL	9/6/2019	Date
TIME	LABEL	7:15:31	Time
NOTES	NOTES	1	&Notes...
	
PSTAT	PSTAT	REF600-11020	Potentiostat
VDC	POTEN	0.00000E+000	T	DC &Voltage (V)
FREQINIT	QUANT	1.00000E+006	Initial Fre&q. (Hz)
FREQFINAL	QUANT	1.00000E+000	Final Fre&q. (Hz)
PTSPERDEC	QUANT	1.00000E+001	Points/&decade
VAC	QUANT	2.50000E+001	AC &Voltage (mV rms)
AREA	QUANT	1.00000E-002	&Area (cm^2)
CONDIT	TWOPARAM	T	5.00000E+000	0.00000E+000	Conditionin&g	Time(s)	E(V)
DELAY	TWOPARAM	T	5.00000E+000	0.00000E+000	Init. De&lay	Time(s)	Stab.(mV/s)
SPEED	SELECTOR	1	&Optimize for:
ZGUESS	QUANT	1.00000E+007	E&stimated Z (ohms)
OCVCURVE	TABLE	18
	Pt	T	Vf	Vm	Ach	Over
	#	s	V vs. Ref.	V	V	bits
	0	0.258333	8.78359E-003	8.78359E-003	4.94600E-004	...........
	1	0.516667	8.78130E-003	8.66386E-003	4.93433E-004	...........
	2	0.775	8.76723E-003	8.54878E-003	4.89434E-004	...........
	3	1.03333	8.72892E-003	8.52239E-003	4.84600E-004	...........
	4	1.29167	8.66597E-003	8.43377E-003	4.92833E-004	...........
	5	1.55	8.59221E-003	8.41251E-003	4.93100E-004	...........
	6	1.80833	8.52303E-003	8.41871E-003	4.91067E-004	...........
	7	2.06667	8.46773E-003	8.34346E-003	4.91567E-004	...........
	8	2.325	8.42816E-003	8.40715E-003	4.90200E-004	...........
	9	2.58333	8.40171E-003	8.35162E-003	4.96633E-004	...........
	10	2.84167	8.38565E-003	8.37640E-003	4.92467E-004	...........
	11	3.1	8.37689E-003	8.37418E-003	4.93233E-004	...........
	12	3.35833	8.37302E-003	8.38725E-003	4.98867E-004	...........
	13	3.61667	8.37324E-003	8.37665E-003	4.95767E-004	...........
	14	3.875	8.37621E-003	8.39736E-003	4.89534E-004	...........
	15	4.13333	8.38068E-003	8.40907E-003	4.95233E-004	...........
	16	4.39167	8.38717E-003	8.42407E-003	5.00267E-004	...........
	17	4.65	8.39661E-003	8.43541E-003	4.87800E-004	...........
EOC	QUANT	0.0084086	Open Circuit (V)
PSTATMODEL	IQUANT	4	Pstat Model
PSTATSECTION	LABEL	REF600-11020	Pstat Section
PSTATSERIALNO	LABEL	11020	Pstat Serial Number
CTRLMODE	IQUANT	1	Control Mode
IESTAB	IQUANT	0	I/E Stability
CASPEED	IQUANT	1	Control Amp Speed
CONVENTION	IQUANT	1	Current Convention
ICHRANGE	IQUANT	2	Ich Range
ICHRANGEMODE	TOGGLE	F	Ich Auto Range
ICHOFFSETENABLE	TOGGLE	T	Ich Offset Enable
ICHOFFSET	QUANT	0	Ich Offset (V)
ICHFILTER	IQUANT	3	Ich Filter
VCHRANGE	IQUANT	2	Vch Range
VCHRANGEMODE	TOGGLE	F	Vch Auto Range
VCHOFFSETENABLE	TOGGLE	T	Vch Offset Enable
VCHOFFSET	QUANT	0	Vch Offset (V)
VCHFILTER	IQUANT	3	Vch Filter
ACHRANGE	IQUANT	2	Ach Range
ACHOFFSETENABLE	TOGGLE	F	Ach Offset Enable
ACHOFFSET	QUANT	0	Ach Offset (V)
ACHFILTER	IQUANT	3	Ach Filter
IERANGELOWERLIMIT	IQUANT	1	I/E Range Lower Limit
IERANGEMODE	TOGGLE	F	I/E AutoRange
IERANGE	IQUANT	3	I/E Range
POSFEEDENABLE	TOGGLE	F	Positive Feedback IR Comp
POSFEEDRESISTANCE	QUANT	0	Positive Feedback Resistance (ohm)
ACHSELECT	IQUANT	0	Ach Select
CABLEID	IQUANT	14	Cable ID
DCCALDATE	LABEL	8/19/2019	DC Calibration Date
ACCALDATE	LABEL	8/19/2019	AC Calibration Date
THERMOSELECT	IQUANT	1	Thermo Select
FRAMEWORKVERSION	QUANT	6.33	Framework Version
INSTRUMENTVERSION	LABEL	3.50	Instrument Version
ZCURVE	TABLE
	Pt	Time	Freq	Zreal	Zimag	Zsig	Zmod	Zphz	Idc	Vdc	IERange
	#	s	Hz	ohm	ohm	V	ohm	°	A	V	#
	0	2	1000078	2486.527	-1672.767	1	2996.826	-33.92999	1.344492E-006	0.0110273	8
	1	4	794390.6	2819.371	-1570.704	1	3227.377	-29.12267	-7.412578E-007	0.0106591	8
	2	5	630984.4	3085.32	-1418.876	1	3395.94	-24.69674	2.62828E-006	0.0099271	8
	3	6	501234.4	3312.911	-1254.062	1	3542.322	-20.73355	-2.127175E-006	0.0106445	8
	4	8	398109.4	3497.926	-1094.651	1	3665.208	-17.37714	3.553802E-007	0.0101523	8
	5	9	316265.6	3606.276	-944.8577	1	3728	-14.6817	9.484029E-007	0.0099898	8
	6	10	251203.1	3715.21	-819.3546	1	3804.488	-12.43696	-1.811675E-007	0.0101623	8
	7	12	199546.9	3762.688	-720.1355	1	3830.981	-10.83474	-1.339378E-006	0.0103436	8
	8	13	158578.1	3823.552	-626.2589	1	3874.5	-9.301871	2.7824E-006	0.0096956	8
	9	14	125953.1	3887.61	-549.4912	1	3926.251	-8.045135	-5.25855E-007	0.0114836	7
	10	16	100078.1	3924.196	-506.2	1	3956.71	-7.350255	6.411002E-009	0.010082	7
	11	17	79453.13	3962.069	-487.361	1	3991.931	-7.012538	4.602737E-008	0.0100194	7
	12	18	63140.62	4002.757	-481.3855	1	4031.599	-6.857656	-1.916592E-008	0.0101232	7
	13	20	50203.12	4039.822	-488.3768	1	4069.235	-6.893075	-2.502293E-008	0.0101434	7
	14	21	39890.62	4078.314	-509.3935	1	4110.003	-7.119543	7.490315E-008	0.0100109	7
	15	22	31640.63	4121.013	-542.7818	1	4156.604	-7.503282	4.593361E-008	0.0100385	7
	16	24	25171.88	4165.939	-588.4681	1	4207.296	-8.040236	4.812769E-008	0.0100148	7
	17	25	20015.62	4215.203	-653.5463	1	4265.567	-8.813252	-3.591502E-008	0.0101682	7
	18	26	15890.62	4268.417	-731.4528	1	4330.636	-9.72398	4.80417E-008	0.0100104	7
	19	28	12609.37	4328.857	-832.8936	1	4408.255	-10.8909	3.99509E-009	0.0100688	7
	20	29	10078.13	4394.275	-953.321	1	4496.496	-12.24042	4.708064E-008	0.0100314	7
	21	30	8015.625	4467.792	-1101.531	1	4601.58	-13.85001	-1.142424E-008	0.0101092	7
	22	32	6328.125	4555.48	-1285.399	1	4733.355	-15.75723	2.963293E-008	0.0100282	7
	23	33	5015.625	4651.979	-1512.91	1	4891.81	-18.01549	-5.764094E-009	0.0101416	7
	24	34	3984.375	4769.887	-1780.584	1	5091.395	-20.47045	-1.951126E-008	0.0101155	7
	25	36	3170.956	4901.13	-2098.381	1	5331.442	-23.17781	-2.2171E-008	0.0101554	7
	26	37	2527.573	5052.107	-2477.906	1	5627.061	-26.12656	-5.576568E-009	0.0101351	7
	27	38	1976.103	5240	-2979.208	1	6027.71	-29.62044	-9.495835E-009	0.0101286	7
	28	40	1577.524	5452.265	-3527.625	1	6493.946	-32.90294	-3.434048E-008	0.0101656	7
	29	41	1265.625	5696.696	-4166.082	1	7057.52	-36.17858	-2.43832E-008	0.0101869	7
	30	42	998.264	6012.27	-4985.119	1	7810.173	-39.66409	2.30579E-008	0.0100176	7
	31	44	796.875	6360.366	-5915.302	1	8685.911	-42.92361	-4.178884E-009	0.0101861	7
	32	45	627.7902	6792.929	-7088.268	1	9817.71	-46.21885	2.858456E-009	0.0100626	7
	33	46	505.5147	7235.76	-8384.643	1	11075.13	-49.20654	-4.293597E-009	0.0100879	6
	34	48	397.9953	7823.957	-10086.64	1	12765.37	-52.20015	7.983016E-010	0.0100658	6
	35	49	315.5048	8487.658	-12088.27	1	14770.46	-54.92577	8.871243E-010	0.0100641	6
	36	50	252.4038	9231.23	-14405.65	1	17109.6	-57.348	4.911953E-010	0.0100619	6
	37	52	198.6229	10174.6	-17420.81	1	20174.42	-59.71299	7.377062E-010	0.0100579	6
	38	53	158.3615	11235.45	-20880.78	1	23711.65	-61.71636	7.118004E-010	0.0100584	6
	39	54	125.558	12541.11	-25166.46	1	28118.15	-63.51172	8.647719E-010	0.0100583	6
	40	56	100.4464	14024.02	-30162.61	1	33263.43	-65.06406	9.283196E-010	0.0100591	6
	41	57	79.00281	15954.97	-36653.84	1	39975.8	-66.4771	2.654783E-010	0.0100599	6
	42	58	63.3446	18317.57	-43809.88	1	47485.14	-67.30946	4.785772E-010	0.0100526	6
	43	60	49.86702	20951.76	-53465.33	1	57424.02	-68.60101	6.876664E-010	0.0100583	6
	44	61	39.72458	24487.82	-64269.39	1	68776.51	-69.14223	5.56593E-010	0.0100638	6
	45	62	31.6723	28693.76	-77348.11	1	82498.86	-69.6467	8.419282E-010	0.0100562	6
	46	64	24.93351	33987.54	-93993.99	1	99950.1	-70.12038	4.440209E-010	0.0100519	6
	47	65	19.86229	40417.15	-113010.3	1	120020.3	-70.32085	3.053845E-010	0.0100598	5
	48	66	15.83615	48386.4	-135648.1	1	144019.7	-70.36842	3.844566E-012	0.0100592	5
	49	68	12.40079	58962.7	-165126.6	1	175338	-70.34959	3.423727E-010	0.0100601	5
	50	69	9.93114	70945.61	-197229.3	1	209601.2	-70.21577	4.37728E-010	0.010064	5
	51	71	7.944915	86300.81	-235366.5	1	250689.5	-69.86375	5.426616E-010	0.0100597	5
	52	72	6.317385	105212.7	-281641.3	1	300651.8	-69.51582	3.892383E-010	0.0100495	5
	53	74	5.008013	129765.9	-337445.5	1	361536.5	-68.96557	5.919394E-011	0.0100568	5
	54	77	3.945707	160920.3	-404519.6	1	435352.1	-68.30704	2.207727E-010	0.0100683	5
	55	80	3.158693	197319.7	-478460.5	1	517551.5	-67.58849	1.42764E-011	0.0100479	5
	56	83	2.504006	244487.3	-567829.8	1	618227.1	-66.70501	2.843902E-010	0.0100677	5
	57	86	1.998082	300747.8	-667293.3	1	731935.6	-65.739	2.485981E-010	0.0100805	5
	58	89	1.584686	373344.8	-782531	1	867030	-64.49424	1.288641E-010	0.0100299	5
	59	92	1.266892	458113.8	-912298.3	1	1020861	-63.33632	1.47681E-010	0.0100968	5
	60	97	0.999041	565923.8	-1064293	1	1205400	-61.99878	-4.95902E-011	0.010016	4
