EXPLAIN
TAG	EISPOT
TITLE	LABEL	Potentiostatic EIS	Test &Identifier
DATE	LABEL	11/13/2019	Date
TIME	LABEL	0:30:54	Time
NOTES	NOTES	3	&Notes...
	
	
	
PSTAT	PSTAT	REF600-11020	Potentiostat
VDC	POTEN	0.00000E+000	T	DC &Voltage (V)
FREQINIT	QUANT	1.00000E+006	Initial Fre&q. (Hz)
FREQFINAL	QUANT	1.00000E+000	Final Fre&q. (Hz)
PTSPERDEC	QUANT	1.00000E+001	Points/&decade
VAC	QUANT	2.50000E+001	AC &Voltage (mV rms)
AREA	QUANT	1.00000E-002	&Area (cm^2)
CONDIT	TWOPARAM	T	5.00000E+000	0.00000E+000	Conditionin&g	Time(s)	E(V)
DELAY	TWOPARAM	T	5.00000E+000	0.00000E+000	Init. De&lay	Time(s)	Stab.(mV/s)
SPEED	SELECTOR	1	&Optimize for:
ZGUESS	QUANT	1.00000E+005	E&stimated Z (ohms)
OCVCURVE	TABLE	19
	Pt	T	Vf	Vm	Ach	Over
	#	s	V vs. Ref.	V	V	bits
	0	0.258333	9.72758E-003	9.72758E-003	5.94065E-004	...........
	1	0.516667	9.72682E-003	9.68789E-003	5.75165E-004	...........
	2	0.775	9.72228E-003	9.65662E-003	5.71432E-004	...........
	3	1.03333	9.71049E-003	9.65935E-003	5.85532E-004	...........
	4	1.29167	9.69327E-003	9.68223E-003	5.88932E-004	...........
	5	1.55	9.67908E-003	9.70813E-003	5.79566E-004	...........
	6	1.80833	9.67641E-003	9.74939E-003	5.74499E-004	...........
	7	2.06667	9.68814E-003	9.77570E-003	5.94799E-004	...........
	8	2.325	9.71175E-003	9.82129E-003	5.94099E-004	...........
	9	2.58333	9.74312E-003	9.86760E-003	5.78032E-004	...........
	10	2.84167	9.77975E-003	9.91726E-003	5.76966E-004	...........
	11	3.1	9.82096E-003	9.97025E-003	5.93065E-004	...........
	12	3.35833	9.86641E-003	1.00250E-002	5.90532E-004	...........
	13	3.61667	9.91544E-003	1.00781E-002	5.75099E-004	...........
	14	3.875	9.96713E-003	1.01354E-002	5.73965E-004	...........
	15	4.13333	1.00206E-002	1.01908E-002	5.86665E-004	...........
	16	4.39167	1.00753E-002	1.02508E-002	5.88965E-004	...........
	17	4.65	1.01311E-002	1.03050E-002	5.82265E-004	...........
	18	4.90833	1.01877E-002	1.03656E-002	5.74132E-004	...........
EOC	QUANT	0.0101877	Open Circuit (V)
PSTATMODEL	IQUANT	4	Pstat Model
PSTATSECTION	LABEL	REF600-11020	Pstat Section
PSTATSERIALNO	LABEL	11020	Pstat Serial Number
CTRLMODE	IQUANT	1	Control Mode
IESTAB	IQUANT	0	I/E Stability
CASPEED	IQUANT	1	Control Amp Speed
CONVENTION	IQUANT	1	Current Convention
ICHRANGE	IQUANT	2	Ich Range
ICHRANGEMODE	TOGGLE	F	Ich Auto Range
ICHOFFSETENABLE	TOGGLE	T	Ich Offset Enable
ICHOFFSET	QUANT	0	Ich Offset (V)
ICHFILTER	IQUANT	3	Ich Filter
VCHRANGE	IQUANT	2	Vch Range
VCHRANGEMODE	TOGGLE	F	Vch Auto Range
VCHOFFSETENABLE	TOGGLE	T	Vch Offset Enable
VCHOFFSET	QUANT	0	Vch Offset (V)
VCHFILTER	IQUANT	3	Vch Filter
ACHRANGE	IQUANT	2	Ach Range
ACHOFFSETENABLE	TOGGLE	F	Ach Offset Enable
ACHOFFSET	QUANT	0	Ach Offset (V)
ACHFILTER	IQUANT	3	Ach Filter
IERANGELOWERLIMIT	IQUANT	1	I/E Range Lower Limit
IERANGEMODE	TOGGLE	F	I/E AutoRange
IERANGE	IQUANT	5	I/E Range
POSFEEDENABLE	TOGGLE	F	Positive Feedback IR Comp
POSFEEDRESISTANCE	QUANT	0	Positive Feedback Resistance (ohm)
ACHSELECT	IQUANT	0	Ach Select
CABLEID	IQUANT	14	Cable ID
DCCALDATE	LABEL	8/19/2019	DC Calibration Date
ACCALDATE	LABEL	8/19/2019	AC Calibration Date
THERMOSELECT	IQUANT	1	Thermo Select
FRAMEWORKVERSION	QUANT	6.33	Framework Version
INSTRUMENTVERSION	LABEL	3.50	Instrument Version
ZCURVE	TABLE
	Pt	Time	Freq	Zreal	Zimag	Zsig	Zmod	Zphz	Idc	Vdc	IERange
	#	s	Hz	ohm	ohm	V	ohm	°	A	V	#
	0	1	1000078	2218.182	-1855.135	1	2891.688	-39.9068	3.184781E-006	0.0119647	8
	1	3	794390.6	2609.452	-1852.192	1	3199.978	-35.36717	-1.949697E-006	0.0118485	8
	2	4	630984.4	2965.908	-1793.15	1	3465.833	-31.15662	1.678127E-007	0.0117097	8
	3	6	501234.4	3287.649	-1686.941	1	3695.187	-27.16302	4.182217E-006	0.0118767	8
	4	7	398109.4	3563.044	-1561.244	1	3890.085	-23.66192	-4.04327E-006	0.012432	8
	5	8	316265.6	3789.455	-1407.536	1	4042.416	-20.37676	6.092266E-006	0.01073	8
	6	10	251203.1	3982.187	-1280.101	1	4182.878	-17.82035	-6.142947E-007	0.0122532	8
	7	11	199546.9	4147.62	-1153.905	1	4305.142	-15.54704	-1.473102E-006	0.011589	8
	8	13	158578.1	4294.633	-1004.462	1	4410.535	-13.16415	1.746565E-006	0.0113896	8
	9	14	125953.1	4410.78	-917.1083	1	4505.116	-11.74582	1.534573E-006	0.0064811	7
	10	15	100078.1	4489.139	-866.8638	1	4572.07	-10.92943	-3.151703E-007	0.01092	7
	11	17	79453.13	4574.91	-832.8922	1	4650.109	-10.31806	-2.874275E-007	0.0131157	7
	12	18	63140.62	4658.969	-817.9713	1	4730.229	-9.95788	6.158456E-007	0.0119624	7
	13	19	50203.12	4736.478	-817.7389	1	4806.549	-9.79539	-6.183992E-007	0.013353	7
	14	21	39890.62	4823.418	-836.1072	1	4895.349	-9.83412	1.109659E-007	0.0103871	7
	15	22	31640.63	4909.544	-868.9643	1	4985.852	-10.03711	4.83462E-007	0.0100847	7
	16	24	25171.88	5000.025	-919.2344	1	5083.822	-10.41727	7.794069E-007	0.0099741	7
	17	25	20015.62	5093.415	-983.682	1	5187.534	-10.93085	8.442424E-007	0.0115137	7
	18	26	15890.62	5198.334	-1073.473	1	5308.015	-11.66776	6.178225E-007	0.0119495	7
	19	28	12609.37	5311.474	-1180.049	1	5440.98	-12.52595	7.662528E-008	0.0127081	7
	20	29	10078.13	5444.829	-1300.095	1	5597.894	-13.42941	-2.869915E-007	0.0131117	7
	21	30	8015.625	5579.769	-1454.722	1	5766.285	-14.61251	1.107564E-006	0.0106029	7
	22	32	6328.125	5735.012	-1635.979	1	5963.79	-15.92142	-3.148624E-007	0.0109031	7
	23	33	5015.625	5918.333	-1848.114	1	6200.177	-17.34199	1.091801E-006	0.0102698	7
	24	35	3984.375	6139.469	-2084.14	1	6483.573	-18.7506	1.02778E-006	0.0110146	7
	25	36	3170.956	6342.262	-2368.25	1	6770	-20.47603	1.02753E-006	0.0110116	7
	26	37	2527.573	6588.806	-2680.118	1	7113.044	-22.13494	8.485041E-007	0.0115004	7
	27	39	1976.103	6897.364	-3076.776	1	7552.495	-24.04069	9.845677E-007	0.0100366	7
	28	41	1577.524	7200.168	-3495.637	1	8003.868	-25.89629	-1.221338E-006	0.0128286	7
	29	42	1265.625	7525.248	-3948.71	1	8498.333	-27.68726	-6.174724E-007	0.0133339	7
	30	44	998.264	7919.228	-4530.563	1	9123.605	-29.77373	-8.913303E-007	0.0134191	7
	31	45	796.875	8305.331	-5187.203	1	9792.12	-31.98738	1.054022E-007	0.0103635	7
	32	47	627.7902	8746.751	-5999.476	1	10606.57	-34.44658	7.219709E-008	0.0125922	6
	33	48	505.5147	9162.319	-6886.579	1	11461.81	-36.92924	-1.05634E-007	0.0144757	6
	34	49	397.9953	9644.51	-8091.183	1	12589.03	-39.99471	-3.332736E-010	0.0116979	6
	35	51	315.5048	10136.4	-9536.33	1	13917.19	-43.25287	-3.581951E-010	0.011706	6
	36	52	252.4038	10643.86	-11253.41	1	15489.7	-46.59452	-4.114458E-010	0.0117009	6
	37	54	198.6229	11244.48	-13551.65	1	17609.25	-50.31581	4.531091E-010	0.0116996	6
	38	55	158.3615	11889.99	-16263.01	1	20145.9	-53.82924	-3.075131E-010	0.011704	6
	39	56	125.558	12679.85	-19713.3	1	23439.13	-57.25036	3.185444E-010	0.0116934	6
	40	58	100.4464	13615.17	-23819.69	1	27436.3	-60.24802	4.619701E-010	0.0117059	6
	41	59	79.00281	14901.83	-29280.72	1	32854.61	-63.02711	3.889279E-010	0.0117043	6
	42	60	63.3446	16509.38	-35625.55	1	39264.99	-65.13634	9.07129E-011	0.0116872	6
	43	62	49.86702	18249.62	-43595.06	1	47260.75	-67.285	-1.229768E-009	0.011692	6
	44	63	39.72458	21101.89	-53025.58	1	57070.15	-68.29958	6.629789E-011	0.0116993	6
	45	65	31.6723	24533.06	-64209.18	1	68736.38	-69.08913	-1.495424E-009	0.0116986	6
	46	66	24.93351	29180.94	-78640.77	1	83880.27	-69.64181	4.775871E-010	0.0116956	6
	47	68	19.86229	34910.47	-95065.3	1	101272.7	-69.83545	8.417032E-012	0.0117017	6
	48	69	15.83615	41665.25	-114506.8	1	121851.5	-70.00521	-1.00951E-009	0.0117002	5
	49	70	12.40079	52019.98	-138728.6	1	148161	-69.44512	-3.58121E-010	0.0117092	5
	50	72	9.93114	63854.24	-165067.8	1	176988	-68.85172	-4.843648E-011	0.011708	5
	51	73	7.944915	78113.12	-195493	1	210521.2	-68.21984	-6.272877E-010	0.011717	5
	52	75	6.317385	96910.9	-231885.3	1	251321.5	-67.31869	-5.377376E-011	0.0117103	5
	53	77	5.008013	119748.3	-274128.5	1	299142.3	-66.40273	-2.138689E-010	0.0117247	5
	54	80	3.945707	147706.3	-324987.4	1	356979	-65.55827	2.937917E-011	0.0117118	5
	55	82	3.158693	179023.5	-378447.5	1	418654.9	-64.68364	1.59278E-011	0.0117119	5
	56	86	2.504006	216926.2	-443218.4	1	493456.7	-63.9213	1.46025E-010	0.0117074	5
	57	88	1.998082	259647	-515011.7	1	576761.4	-63.24471	-4.653618E-011	0.0117475	5
	58	92	1.584686	309262.1	-599661.7	1	674712.6	-62.71859	2.18972E-011	0.0116903	5
	59	95	1.266892	366218.6	-697307	1	787625	-62.292	1.080388E-011	0.0117376	5
	60	100	0.999041	436646.9	-816930.8	1	926302.6	-61.87564	-1.138325E-010	0.0116674	5
