EXPLAIN
TAG	EISPOT
TITLE	LABEL	Potentiostatic EIS	Test &Identifier
DATE	LABEL	10/6/2019	Date
TIME	LABEL	8:59:26	Time
NOTES	NOTES	2	&Notes...
	
	
PSTAT	PSTAT	REF600-11020	Potentiostat
VDC	POTEN	0.00000E+000	T	DC &Voltage (V)
FREQINIT	QUANT	1.00000E+006	Initial Fre&q. (Hz)
FREQFINAL	QUANT	1.00000E+000	Final Fre&q. (Hz)
PTSPERDEC	QUANT	1.00000E+001	Points/&decade
VAC	QUANT	2.50000E+001	AC &Voltage (mV rms)
AREA	QUANT	1.00000E-002	&Area (cm^2)
CONDIT	TWOPARAM	T	5.00000E+000	0.00000E+000	Conditionin&g	Time(s)	E(V)
DELAY	TWOPARAM	T	5.00000E+000	0.00000E+000	Init. De&lay	Time(s)	Stab.(mV/s)
SPEED	SELECTOR	1	&Optimize for:
ZGUESS	QUANT	1.00000E+004	E&stimated Z (ohms)
OCVCURVE	TABLE	19
	Pt	T	Vf	Vm	Ach	Over
	#	s	V vs. Ref.	V	V	bits
	0	0.258333	4.42095E-003	4.42095E-003	5.57466E-004	...........
	1	0.516667	4.41761E-003	4.24626E-003	5.58199E-004	...........
	2	0.775	4.39798E-003	4.12574E-003	5.61932E-004	...........
	3	1.03333	4.34776E-003	4.13887E-003	5.69232E-004	...........
	4	1.29167	4.28573E-003	4.75510E-003	5.68532E-004	...........
	5	1.55	4.27413E-003	4.59330E-003	5.65599E-004	...........
	6	1.80833	4.34386E-003	4.30701E-003	5.67666E-004	...........
	7	2.06667	4.42715E-003	4.07296E-003	5.61666E-004	...........
	8	2.325	4.42600E-003	3.92094E-003	5.67932E-004	...........
	9	2.58333	4.31629E-003	3.75803E-003	5.66399E-004	...........
	10	2.84167	4.14389E-003	3.63517E-003	5.66166E-004	...........
	11	3.1	3.96204E-003	3.54258E-003	5.61766E-004	...........
	12	3.35833	3.80326E-003	3.61317E-003	5.72666E-004	...........
	13	3.61667	3.69096E-003	3.82813E-003	5.69632E-004	...........
	14	3.875	3.64980E-003	3.95087E-003	5.69266E-004	...........
	15	4.13333	3.68419E-003	3.77298E-003	5.69199E-004	...........
	16	4.39167	3.75410E-003	3.78200E-003	5.67132E-004	...........
	17	4.65	3.79578E-003	3.35447E-003	5.75732E-004	...........
	18	4.90833	3.75803E-003	3.04601E-003	5.63232E-004	...........
EOC	QUANT	0.003758	Open Circuit (V)
PSTATMODEL	IQUANT	4	Pstat Model
PSTATSECTION	LABEL	REF600-11020	Pstat Section
PSTATSERIALNO	LABEL	11020	Pstat Serial Number
CTRLMODE	IQUANT	1	Control Mode
IESTAB	IQUANT	0	I/E Stability
CASPEED	IQUANT	1	Control Amp Speed
CONVENTION	IQUANT	1	Current Convention
ICHRANGE	IQUANT	2	Ich Range
ICHRANGEMODE	TOGGLE	F	Ich Auto Range
ICHOFFSETENABLE	TOGGLE	T	Ich Offset Enable
ICHOFFSET	QUANT	0	Ich Offset (V)
ICHFILTER	IQUANT	3	Ich Filter
VCHRANGE	IQUANT	2	Vch Range
VCHRANGEMODE	TOGGLE	F	Vch Auto Range
VCHOFFSETENABLE	TOGGLE	T	Vch Offset Enable
VCHOFFSET	QUANT	0	Vch Offset (V)
VCHFILTER	IQUANT	3	Vch Filter
ACHRANGE	IQUANT	2	Ach Range
ACHOFFSETENABLE	TOGGLE	F	Ach Offset Enable
ACHOFFSET	QUANT	0	Ach Offset (V)
ACHFILTER	IQUANT	3	Ach Filter
IERANGELOWERLIMIT	IQUANT	1	I/E Range Lower Limit
IERANGEMODE	TOGGLE	F	I/E AutoRange
IERANGE	IQUANT	5	I/E Range
POSFEEDENABLE	TOGGLE	F	Positive Feedback IR Comp
POSFEEDRESISTANCE	QUANT	0	Positive Feedback Resistance (ohm)
ACHSELECT	IQUANT	0	Ach Select
CABLEID	IQUANT	14	Cable ID
DCCALDATE	LABEL	8/19/2019	DC Calibration Date
ACCALDATE	LABEL	8/19/2019	AC Calibration Date
THERMOSELECT	IQUANT	1	Thermo Select
FRAMEWORKVERSION	QUANT	6.33	Framework Version
INSTRUMENTVERSION	LABEL	3.50	Instrument Version
ZCURVE	TABLE
	Pt	Time	Freq	Zreal	Zimag	Zsig	Zmod	Zphz	Idc	Vdc	IERange
	#	s	Hz	ohm	ohm	V	ohm	°	A	V	#
	0	2	1000078	2181.415	-1311.192	1	2545.151	-31.00899	8.972122E-006	0.0051374	8
	1	3	794390.6	2420.22	-1231.095	1	2715.338	-26.96111	-2.246329E-006	0.0054129	8
	2	5	630984.4	2632.424	-1109.932	1	2856.852	-22.86217	-1.721251E-006	0.0060339	8
	3	6	501234.4	2808.744	-989.905	1	2978.079	-19.41434	4.784443E-006	0.0046616	8
	4	7	398109.4	2942.966	-868.5515	1	3068.458	-16.4428	-3.772698E-006	0.006043	8
	5	9	316265.6	3045.494	-741.4371	1	3134.448	-13.6827	-9.996978E-007	0.0057613	8
	6	10	251203.1	3125.699	-636.1453	1	3189.777	-11.50378	4.179225E-006	0.0046145	8
	7	11	199546.9	3188.673	-546.3016	1	3235.132	-9.72185	-3.24844E-006	0.0059605	8
	8	13	158578.1	3215.257	-486.5849	1	3251.868	-8.605627	-4.366592E-006	0.0061177	8
	9	14	125953.1	3289.234	-379.4425	1	3311.048	-6.580492	-1.15146E-006	0.0078553	7
	10	15	100078.1	3313.749	-342.585	1	3331.411	-5.902434	1.050198E-007	0.0051859	7
	11	17	79453.13	3340.705	-320.9806	1	3356.09	-5.488228	7.433048E-009	0.0052472	7
	12	18	63140.62	3366.778	-307.5644	1	3380.797	-5.21964	4.960284E-008	0.0051212	7
	13	20	50203.12	3393.295	-299.9373	1	3406.525	-5.051314	1.270884E-007	0.0050801	7
	14	21	39890.62	3418.466	-299.604	1	3431.57	-5.008766	6.205611E-008	0.0051638	7
	15	22	31640.63	3445.512	-306.5285	1	3459.12	-5.08391	1.206808E-008	0.0053633	7
	16	24	25171.88	3472.152	-320.6392	1	3486.925	-5.276071	9.070731E-009	0.0052449	7
	17	25	20015.62	3501.431	-341.2119	1	3518.018	-5.565857	1.275838E-007	0.0050772	7
	18	26	15890.62	3530.415	-371.674	1	3549.926	-6.009829	-3.993433E-008	0.0052643	7
	19	28	12609.37	3562.681	-410.1711	1	3586.215	-6.567541	-4.05376E-008	0.0052657	7
	20	29	10078.13	3595.354	-458.4327	1	3624.463	-7.266402	6.084812E-008	0.0051571	7
	21	30	8015.625	3629.93	-518.1676	1	3666.728	-8.12401	-8.189321E-008	0.0053704	7
	22	32	6328.125	3669.599	-599.2799	1	3718.211	-9.275062	-4.427872E-008	0.0053688	7
	23	33	5015.625	3710.581	-695.7763	1	3775.25	-10.62029	4.186116E-008	0.0052105	7
	24	34	3984.375	3755.475	-815.0933	1	3842.911	-12.24563	-8.02336E-008	0.0054932	7
	25	36	3170.956	3805.095	-962.778	1	3925.008	-14.19916	-7.048697E-008	0.0053867	7
	26	37	2527.573	3860.907	-1141.078	1	4025.999	-16.46486	-4.608834E-008	0.0053597	7
	27	38	1976.103	3931.356	-1380.06	1	4166.549	-19.34307	-8.102275E-008	0.0055011	7
	28	40	1577.524	4002.318	-1648.122	1	4328.378	-22.38147	-1.172896E-008	0.0053185	7
	29	41	1265.625	4083.499	-1968.073	1	4533.02	-25.73209	-8.066021E-008	0.0054954	7
	30	42	998.264	4183.08	-2387.94	1	4816.681	-29.72018	1.0775E-007	0.0051648	7
	31	44	796.875	4291.326	-2875.878	1	5165.864	-33.82844	-3.244985E-009	0.0052035	7
	32	45	627.7902	4419.907	-3517.542	1	5648.777	-38.5142	1.502554E-008	0.0053524	7
	33	47	505.5147	4559.657	-4237.058	1	6224.398	-42.89975	-6.958683E-008	0.0053817	7
	34	48	397.9953	4739.93	-5207.634	1	7041.76	-47.69189	5.793539E-009	0.0052835	7
	35	49	315.5048	4952.033	-6383.372	1	8078.989	-52.19674	4.428826E-009	0.0052777	7
	36	51	252.4038	5203.231	-7775.897	1	9356.185	-56.21159	6.215436E-009	0.0052781	7
	37	52	198.6229	5542.788	-9623.03	1	11105.18	-60.0584	9.419945E-010	0.0052159	6
	38	53	158.3615	5946.382	-11783.75	1	13199.1	-63.22332	8.647306E-010	0.0052123	6
	39	55	125.558	6484.42	-14503.24	1	15886.84	-65.91051	1.18083E-009	0.0052159	6
	40	56	100.4464	7143.087	-17692.28	1	19079.84	-68.01408	1.152494E-009	0.0052069	6
	41	58	79.00281	8117.675	-21923.99	1	23378.58	-69.6822	9.856416E-010	0.0052103	6
	42	59	63.3446	9360.474	-26811.68	1	28398.67	-70.75492	1.075923E-010	0.0052109	6
	43	60	49.86702	10738.4	-32998.59	1	34701.87	-71.97408	8.672722E-012	0.0052108	6
	44	62	39.72458	12919.94	-40227.33	1	42251.19	-72.19437	9.076154E-010	0.0052172	6
	45	63	31.6723	15762.03	-48787.79	1	51270.75	-72.09574	6.088597E-010	0.0052208	6
	46	65	24.93351	19616.56	-59890.59	1	63021.36	-71.86431	1.063652E-009	0.0052181	6
	47	66	19.86229	24509.97	-72303.41	1	76344.76	-71.27397	1.298387E-009	0.0052126	6
	48	67	15.83615	30861.35	-86519.38	1	91858.73	-70.36874	8.703241E-010	0.005211	6
	49	69	12.40079	39742.72	-104719.1	1	112007	-69.21737	7.786435E-010	0.0052274	5
	50	70	9.93114	50557.46	-124079.9	1	133984.6	-67.83112	5.548044E-010	0.005222	5
	51	72	7.944915	63620.51	-145733.9	1	159015.6	-66.41621	-1.346293E-010	0.0052242	5
	52	73	6.317385	79925.72	-170229.2	1	188058.8	-64.84908	2.657521E-010	0.0052145	5
	53	75	5.008013	100013.5	-198040	1	221861.5	-63.20546	-5.377414E-011	0.0052191	5
	54	78	3.945707	123921.7	-229364.5	1	260700.3	-61.6184	3.681039E-010	0.0052291	5
	55	81	3.158693	149300.5	-262200.4	1	301727.8	-60.34221	-8.434119E-011	0.005212	5
	56	84	2.504006	178898.4	-299777.2	1	349100.3	-59.17246	5.834771E-010	0.0052273	5
	57	87	1.998082	211091.5	-340836.8	1	400910.6	-58.2287	3.302939E-010	0.0052609	5
	58	90	1.584686	245879.2	-388106.4	1	459437.9	-57.64429	2.476874E-010	0.0052107	5
	59	93	1.266892	284097	-442933.2	1	526213.8	-57.32392	1.757187E-010	0.0052651	5
	60	98	0.999041	327359.2	-509932	1	605965.9	-57.3009	5.873127E-011	0.005183	5
