EXPLAIN
TAG	EISPOT
TITLE	LABEL	Potentiostatic EIS	Test &Identifier
DATE	LABEL	11/20/2019	Date
TIME	LABEL	10:51:51	Time
NOTES	NOTES	4	&Notes...
	
	
	
	
PSTAT	PSTAT	REF600-11020	Potentiostat
VDC	POTEN	0.00000E+000	T	DC &Voltage (V)
FREQINIT	QUANT	1.00000E+006	Initial Fre&q. (Hz)
FREQFINAL	QUANT	1.00000E+000	Final Fre&q. (Hz)
PTSPERDEC	QUANT	1.00000E+001	Points/&decade
VAC	QUANT	2.50000E+001	AC &Voltage (mV rms)
AREA	QUANT	1.00000E-002	&Area (cm^2)
CONDIT	TWOPARAM	T	5.00000E+000	0.00000E+000	Conditionin&g	Time(s)	E(V)
DELAY	TWOPARAM	T	5.00000E+000	0.00000E+000	Init. De&lay	Time(s)	Stab.(mV/s)
SPEED	SELECTOR	0	&Optimize for:
ZGUESS	QUANT	1.00000E+005	E&stimated Z (ohms)
OCVCURVE	TABLE	19
	Pt	T	Vf	Vm	Ach	Over
	#	s	V vs. Ref.	V	V	bits
	0	0.258333	2.10171E-003	2.10171E-003	5.74665E-004	...........
	1	0.516667	2.09379E-003	1.68738E-003	5.72432E-004	...........
	2	0.775	2.04731E-003	1.40601E-003	5.73699E-004	...........
	3	1.03333	1.92030E-003	9.99507E-004	5.70899E-004	...........
	4	1.29167	1.69703E-003	6.96005E-004	5.73132E-004	...........
	5	1.55	1.40459E-003	5.95769E-004	5.79999E-004	...........
	6	1.80833	1.09643E-003	3.36983E-004	5.87865E-004	...........
	7	2.06667	8.15618E-004	5.31438E-005	5.84332E-004	...........
	8	2.325	5.66502E-004	-1.48722E-004	5.75399E-004	...........
	9	2.58333	3.31398E-004	-3.41116E-004	5.72766E-004	...........
	10	2.84167	1.02879E-004	-5.22186E-004	5.78899E-004	...........
	11	3.1	-1.14521E-004	-7.21009E-004	5.80999E-004	...........
	12	3.35833	-3.18111E-004	-8.76111E-004	5.70032E-004	...........
	13	3.61667	-5.08441E-004	-9.86757E-004	5.80132E-004	...........
	14	3.875	-6.83488E-004	-1.12878E-003	5.76499E-004	...........
	15	4.13333	-8.41243E-004	-1.27991E-003	5.75532E-004	...........
	16	4.39167	-9.85879E-004	-1.40494E-003	5.76966E-004	...........
	17	4.65	-1.12459E-003	-1.54264E-003	5.83332E-004	...........
	18	4.90833	-1.26136E-003	-1.67994E-003	5.80165E-004	...........
EOC	QUANT	-0.0012614	Open Circuit (V)
PSTATMODEL	IQUANT	4	Pstat Model
PSTATSECTION	LABEL	REF600-11020	Pstat Section
PSTATSERIALNO	LABEL	11020	Pstat Serial Number
CTRLMODE	IQUANT	1	Control Mode
IESTAB	IQUANT	0	I/E Stability
CASPEED	IQUANT	1	Control Amp Speed
CONVENTION	IQUANT	1	Current Convention
ICHRANGE	IQUANT	2	Ich Range
ICHRANGEMODE	TOGGLE	F	Ich Auto Range
ICHOFFSETENABLE	TOGGLE	T	Ich Offset Enable
ICHOFFSET	QUANT	0	Ich Offset (V)
ICHFILTER	IQUANT	3	Ich Filter
VCHRANGE	IQUANT	2	Vch Range
VCHRANGEMODE	TOGGLE	F	Vch Auto Range
VCHOFFSETENABLE	TOGGLE	T	Vch Offset Enable
VCHOFFSET	QUANT	0	Vch Offset (V)
VCHFILTER	IQUANT	3	Vch Filter
ACHRANGE	IQUANT	2	Ach Range
ACHOFFSETENABLE	TOGGLE	F	Ach Offset Enable
ACHOFFSET	QUANT	0	Ach Offset (V)
ACHFILTER	IQUANT	3	Ach Filter
IERANGELOWERLIMIT	IQUANT	1	I/E Range Lower Limit
IERANGEMODE	TOGGLE	F	I/E AutoRange
IERANGE	IQUANT	4	I/E Range
POSFEEDENABLE	TOGGLE	F	Positive Feedback IR Comp
POSFEEDRESISTANCE	QUANT	0	Positive Feedback Resistance (ohm)
ACHSELECT	IQUANT	0	Ach Select
CABLEID	IQUANT	14	Cable ID
DCCALDATE	LABEL	8/19/2019	DC Calibration Date
ACCALDATE	LABEL	8/19/2019	AC Calibration Date
THERMOSELECT	IQUANT	1	Thermo Select
FRAMEWORKVERSION	QUANT	6.33	Framework Version
INSTRUMENTVERSION	LABEL	3.50	Instrument Version
ZCURVE	TABLE
	Pt	Time	Freq	Zreal	Zimag	Zsig	Zmod	Zphz	Idc	Vdc	IERange
	#	s	Hz	ohm	ohm	V	ohm	°	A	V	#
	0	1	1000078	2243.206	-1918.101	1	2951.455	-40.53279	-6.248218E-006	0.0007581	8
	1	2	794390.6	2651.719	-1889.388	1	3255.98	-35.47042	6.26824E-007	0.0010724	8
	2	2	630984.4	3035.931	-1790.896	1	3524.795	-30.53636	-1.545669E-006	0.0008835	8
	3	2	501234.4	3364.659	-1648.749	1	3746.906	-26.10576	-2.284817E-006	0.0008667	8
	4	2	398109.4	3633.783	-1473.174	1	3921.048	-22.06815	1.92827E-006	-7.992569E-005	8
	5	3	316265.6	3848.111	-1294.66	1	4060.062	-18.59502	-6.956169E-007	2.312487E-005	8
	6	3	251203.1	4011.071	-1116.614	1	4163.594	-15.5563	-1.214139E-006	0.000655	8
	7	3	199546.9	4154.374	-964.898	1	4264.957	-13.07573	-4.08894E-006	0.0006289	8
	8	4	158578.1	4232.523	-844.5289	1	4315.957	-11.28421	6.927768E-007	0.0006296	8
	9	4	125953.1	4337.187	-677.056	1	4389.714	-8.872543	-1.584885E-006	-0.0001218	7
	10	4	100078.1	4381.707	-595.314	1	4421.963	-7.737031	-6.789792E-007	0.0001074	7
	11	5	79453.13	4429.158	-538.707	1	4461.799	-6.934675	-5.857916E-007	0.0017479	7
	12	5	63140.62	4471.292	-496.1977	1	4498.74	-6.332438	5.633447E-007	0.00046	7
	13	5	50203.12	4510.172	-464.2578	1	4534.004	-5.877083	-1.144624E-006	0.0015971	7
	14	6	39890.62	4548.465	-449.7684	1	4570.648	-5.647251	-2.879135E-007	-0.0005402	7
	15	6	31640.63	4583.521	-443.2392	1	4604.902	-5.523486	3.545834E-007	0.000757	7
	16	6	25171.88	4620.877	-450.0773	1	4642.745	-5.563108	4.601979E-007	-0.0013181	7
	17	7	20015.62	4654.56	-473.4278	1	4678.575	-5.807734	5.645715E-007	0.0004522	7
	18	7	15890.62	4693.747	-495.5334	1	4719.832	-6.026569	4.598416E-007	-0.0013138	7
	19	7	12609.37	4729.838	-539.1595	1	4760.468	-6.50314	7.778021E-007	4.596399E-005	7
	20	8	10078.13	4769.603	-592.0491	1	4806.208	-7.075912	-2.79914E-007	0.0015155	7
	21	8	8015.625	4803.48	-672.1706	1	4850.282	-7.965906	-1.028724E-006	0.0017551	7
	22	8	6328.125	4852.404	-768.2853	1	4912.85	-8.997005	6.052779E-008	0.0011471	7
	23	8	5015.625	4899.238	-893.6791	1	4980.08	-10.33777	7.773661E-007	4.012818E-005	7
	24	9	3984.375	4939.636	-1042.753	1	5048.498	-11.92008	-6.802763E-007	9.162731E-005	7
	25	9	3170.956	5003.825	-1242.157	1	5155.697	-13.94138	-2.869587E-007	-0.0005601	7
	26	9	2527.573	5070.913	-1480.142	1	5282.516	-16.27193	4.610214E-007	-0.001327	7
	27	10	1976.103	5155.739	-1796.96	1	5459.918	-19.21528	9.482987E-007	-0.0004194	7
	28	10	1577.524	5247.987	-2165.086	1	5677.056	-22.41887	-1.030176E-006	0.0017512	7
	29	10	1265.625	5352.106	-2589.367	1	5945.575	-25.81785	-2.791248E-007	0.0015123	7
	30	11	998.264	5492.316	-3155.294	1	6334.147	-29.87704	7.373532E-007	-0.0014249	7
	31	11	796.875	5646.905	-3803.548	1	6808.415	-33.96276	-5.865542E-007	0.0017297	7
	32	12	627.7902	5842.862	-4653.745	1	7469.698	-38.53675	4.610534E-007	-0.0013315	7
	33	12	505.5147	6053.845	-5574.65	1	8229.566	-42.64025	-6.87021E-007	7.833854E-005	7
	34	12	397.9953	6327.097	-6832.771	1	9312.299	-47.20054	2.742753E-009	0.0002595	7
	35	13	315.5048	6643.997	-8331.796	1	10656.52	-51.4302	1.06223E-009	0.0002075	6
	36	13	252.4038	7004.066	-10102.24	1	12292.77	-55.26574	5.366774E-010	0.0002054	6
	37	13	198.6229	7475.019	-12442.94	1	14515.6	-59.00492	9.516233E-010	0.0002011	6
	38	14	158.3615	8025.708	-15173.1	1	17164.94	-62.12371	6.691802E-010	0.0001939	6
	39	14	125.558	8739.808	-18620.29	1	20569.38	-64.85605	4.206558E-010	0.0001979	6
	40	14	100.4464	9604	-22654.09	1	24605.78	-67.0259	-1.662229E-010	0.0001983	6
	41	15	79.00281	10825.32	-27974.71	1	29996.21	-68.84515	1.161162E-009	0.0001887	6
	42	15	63.3446	12462.19	-34233.64	1	36431.42	-69.9968	-1.196273E-010	0.0001952	6
	43	15	49.86702	14451.49	-42121.34	1	44531.48	-71.06332	-2.804976E-011	0.0001907	6
	44	16	39.72458	17033.49	-50999.76	1	53769.09	-71.53111	6.759459E-010	0.0001965	6
	45	16	31.6723	20402.27	-61777.16	1	65058.98	-71.72389	2.273379E-010	0.0001907	6
	46	16	24.93351	25010.95	-75749.95	1	79772.19	-71.72792	4.574594E-010	0.0001837	6
	47	17	19.86229	30793.63	-91533.38	1	96574.4	-71.40604	1.530175E-009	0.0001897	6
	48	17	15.83615	38975.95	-109449.3	1	116182	-70.3987	-1.84661E-009	0.0002028	5
	49	17	12.40079	48313.58	-133322	1	141806	-70.08036	-2.085325E-010	0.0002011	5
	50	18	9.93114	60565.88	-158636.2	1	169804.8	-69.1036	5.776342E-010	0.0001986	5
	51	18	7.944915	75216.58	-187658.8	1	202171.6	-68.15832	4.982376E-010	0.0001962	5
	52	19	6.317385	94387.49	-221651.4	1	240911.4	-66.93387	3.444933E-010	0.0001968	5
	53	19	5.008013	118420.8	-261183.1	1	286775.3	-65.6104	4.590966E-010	0.0002019	5
	54	21	3.945707	148813.6	-307950.2	1	342021.7	-64.20834	5.808343E-011	0.0001871	5
	55	22	3.158693	182927.9	-355734.8	1	400012.3	-62.78661	2.649493E-010	0.00017	5
	56	24	2.504006	225121.8	-412082.5	1	469565.6	-61.3521	4.135693E-010	0.0001836	5
	57	25	1.998082	272861.8	-471309.2	1	544597	-59.93155	1.778081E-010	0.0001563	5
	58	26	1.584686	329926.2	-540832.3	1	633522.5	-58.61538	1.036289E-010	0.0001444	5
	59	28	1.266892	390846.2	-613403.1	1	727340.4	-57.49566	1.199329E-010	0.0001717	5
	60	31	0.999041	464492.8	-697912.3	1	838352.6	-56.3544	1.394109E-010	0.0001966	5
