EXPLAIN
TAG	EISPOT
TITLE	LABEL	Potentiostatic EIS	Test &Identifier
DATE	LABEL	9/22/2019	Date
TIME	LABEL	10:58:29	Time
NOTES	NOTES	1	&Notes...
	
PSTAT	PSTAT	REF600-11020	Potentiostat
VDC	POTEN	0.00000E+000	T	DC &Voltage (V)
FREQINIT	QUANT	1.00000E+006	Initial Fre&q. (Hz)
FREQFINAL	QUANT	1.00000E+000	Final Fre&q. (Hz)
PTSPERDEC	QUANT	1.00000E+001	Points/&decade
VAC	QUANT	2.50000E+001	AC &Voltage (mV rms)
AREA	QUANT	1.00000E-002	&Area (cm^2)
CONDIT	TWOPARAM	T	5.00000E+000	0.00000E+000	Conditionin&g	Time(s)	E(V)
DELAY	TWOPARAM	T	5.00000E+000	0.00000E+000	Init. De&lay	Time(s)	Stab.(mV/s)
SPEED	SELECTOR	1	&Optimize for:
ZGUESS	QUANT	1.00000E+004	E&stimated Z (ohms)
OCVCURVE	TABLE	19
	Pt	T	Vf	Vm	Ach	Over
	#	s	V vs. Ref.	V	V	bits
	0	0.258333	-9.09884E-005	-9.09884E-005	5.63832E-004	...........
	1	0.516667	-1.00082E-004	-5.67004E-004	5.60666E-004	...........
	2	0.775	-1.56894E-004	-1.06909E-003	5.55833E-004	...........
	3	1.03333	-3.18894E-004	-1.44897E-003	5.61432E-004	...........
	4	1.29167	-6.05744E-004	-1.77452E-003	5.59932E-004	...........
	5	1.55	-9.73422E-004	-2.07385E-003	5.53099E-004	...........
	6	1.80833	-1.35643E-003	-2.37330E-003	5.56733E-004	...........
	7	2.06667	-1.71564E-003	-2.69330E-003	5.56832E-004	...........
	8	2.325	-2.04809E-003	-3.09188E-003	5.54633E-004	...........
	9	2.58333	-2.37294E-003	-3.48802E-003	5.54699E-004	...........
	10	2.84167	-2.71096E-003	-3.82739E-003	5.59366E-004	...........
	11	3.1	-3.06302E-003	-3.94776E-003	5.55099E-004	...........
	12	3.35833	-3.40209E-003	-4.14968E-003	5.51633E-004	...........
	13	3.61667	-3.69663E-003	-4.39847E-003	5.66099E-004	...........
	14	3.875	-3.94387E-003	-4.64714E-003	5.55599E-004	...........
	15	4.13333	-4.16847E-003	-4.88809E-003	5.58533E-004	...........
	16	4.39167	-4.39012E-003	-4.93204E-003	5.49933E-004	...........
	17	4.65	-4.60958E-003	-5.44574E-003	5.54833E-004	...........
	18	4.90833	-4.83337E-003	-5.71286E-003	5.54466E-004	...........
EOC	QUANT	-0.0048334	Open Circuit (V)
PSTATMODEL	IQUANT	4	Pstat Model
PSTATSECTION	LABEL	REF600-11020	Pstat Section
PSTATSERIALNO	LABEL	11020	Pstat Serial Number
CTRLMODE	IQUANT	1	Control Mode
IESTAB	IQUANT	0	I/E Stability
CASPEED	IQUANT	1	Control Amp Speed
CONVENTION	IQUANT	1	Current Convention
ICHRANGE	IQUANT	2	Ich Range
ICHRANGEMODE	TOGGLE	F	Ich Auto Range
ICHOFFSETENABLE	TOGGLE	T	Ich Offset Enable
ICHOFFSET	QUANT	0	Ich Offset (V)
ICHFILTER	IQUANT	3	Ich Filter
VCHRANGE	IQUANT	2	Vch Range
VCHRANGEMODE	TOGGLE	F	Vch Auto Range
VCHOFFSETENABLE	TOGGLE	T	Vch Offset Enable
VCHOFFSET	QUANT	0	Vch Offset (V)
VCHFILTER	IQUANT	3	Vch Filter
ACHRANGE	IQUANT	2	Ach Range
ACHOFFSETENABLE	TOGGLE	F	Ach Offset Enable
ACHOFFSET	QUANT	0	Ach Offset (V)
ACHFILTER	IQUANT	3	Ach Filter
IERANGELOWERLIMIT	IQUANT	1	I/E Range Lower Limit
IERANGEMODE	TOGGLE	F	I/E AutoRange
IERANGE	IQUANT	5	I/E Range
POSFEEDENABLE	TOGGLE	F	Positive Feedback IR Comp
POSFEEDRESISTANCE	QUANT	0	Positive Feedback Resistance (ohm)
ACHSELECT	IQUANT	0	Ach Select
CABLEID	IQUANT	14	Cable ID
DCCALDATE	LABEL	8/19/2019	DC Calibration Date
ACCALDATE	LABEL	8/19/2019	AC Calibration Date
THERMOSELECT	IQUANT	1	Thermo Select
FRAMEWORKVERSION	QUANT	6.33	Framework Version
INSTRUMENTVERSION	LABEL	3.50	Instrument Version
ZCURVE	TABLE
	Pt	Time	Freq	Zreal	Zimag	Zsig	Zmod	Zphz	Idc	Vdc	IERange
	#	s	Hz	ohm	ohm	V	ohm	°	A	V	#
	0	1	1000078	2258.703	-1839.157	1	2912.772	-39.15432	4.372195E-006	-0.0033684	8
	1	2	794390.6	2637.484	-1825.237	1	3207.462	-34.68468	-7.806184E-007	-0.0028216	8
	2	4	630984.4	2992.606	-1735.227	1	3459.292	-30.1068	-3.36896E-006	-0.0020836	8
	3	5	501234.4	3319.687	-1619.306	1	3693.572	-26.0026	4.214191E-006	-0.0037323	8
	4	7	398109.4	3580.13	-1450.06	1	3862.642	-22.04943	3.86088E-006	-0.0039186	8
	5	8	316265.6	3807.492	-1297.383	1	4022.462	-18.81627	6.939649E-008	-0.0031661	8
	6	9	251203.1	3980.659	-1113.472	1	4133.457	-15.6274	6.743676E-007	-0.003361	8
	7	11	199546.9	4110.42	-961.112	1	4221.29	-13.16064	-3.01162E-006	-0.0025291	8
	8	12	158578.1	4219.347	-836.7385	1	4301.513	-11.21679	-3.040883E-006	-0.0025522	8
	9	13	125953.1	4323.719	-671.4158	1	4375.54	-8.82677	-1.145812E-006	-0.0005645	7
	10	15	100078.1	4369.499	-587.301	1	4408.791	-7.655203	-6.433927E-008	-0.0031327	7
	11	16	79453.13	4416.023	-523.1108	1	4446.898	-6.755631	8.953798E-008	-0.0032754	7
	12	17	63140.62	4457.749	-476.3929	1	4483.132	-6.099962	8.05102E-008	-0.0033866	7
	13	19	50203.12	4491.564	-439.8335	1	4513.048	-5.592821	8.105556E-008	-0.003389	7
	14	20	39890.62	4524.636	-418.0015	1	4543.903	-5.2782	8.02617E-008	-0.0033841	7
	15	22	31640.63	4555.769	-407.1232	1	4573.923	-5.106634	1.202375E-007	-0.0033947	7
	16	23	25171.88	4585.823	-407.6262	1	4603.904	-5.079576	7.289258E-009	-0.0032789	7
	17	24	20015.62	4616.636	-421.1541	1	4635.806	-5.212399	-3.608228E-008	-0.0032152	7
	18	26	15890.62	4647.73	-444.2855	1	4668.917	-5.460423	-5.715077E-008	-0.0030274	7
	19	27	12609.37	4679.471	-482.9696	1	4704.329	-5.89265	1.208469E-007	-0.0033936	7
	20	28	10078.13	4712.516	-532.9191	1	4742.553	-6.451935	1.339165E-008	-0.0031354	7
	21	30	8015.625	4748.256	-600.5248	1	4786.08	-7.208083	-2.44307E-008	-0.0032348	7
	22	31	6328.125	4788.854	-689.2908	1	4838.207	-8.190697	-1.355577E-008	-0.0032032	7
	23	32	5015.625	4832.247	-800.4901	1	4898.101	-9.405964	-6.051217E-008	-0.0031282	7
	24	34	3984.375	4882.295	-936.8784	1	4971.373	-10.86261	4.571638E-008	-0.003284	7
	25	35	3170.956	4936.373	-1105.218	1	5058.585	-12.61999	-2.512452E-008	-0.0032428	7
	26	36	2527.573	4997.99	-1312.118	1	5167.354	-14.70986	-6.315158E-008	-0.0031517	7
	27	38	1976.103	5075.289	-1584.032	1	5316.739	-17.3335	-5.159221E-008	-0.0031565	7
	28	39	1577.524	5157.826	-1896.046	1	5495.285	-20.18372	4.626644E-008	-0.0032778	7
	29	40	1265.625	5244.235	-2256.059	1	5708.923	-23.27727	9.26922E-009	-0.0033029	7
	30	42	998.264	5364.101	-2752.109	1	6028.904	-27.16057	1.417127E-008	-0.0031272	7
	31	43	796.875	5486.423	-3314.766	1	6410.032	-31.13937	9.722552E-009	-0.0032745	7
	32	45	627.7902	5643.794	-4051.11	1	6947.223	-35.67075	9.590093E-009	-0.0033035	7
	33	46	505.5147	5811.152	-4878.973	1	7587.744	-40.01641	1.530926E-008	-0.0031369	7
	34	47	397.9953	6027.988	-5991.977	1	8499.437	-44.82834	5.491049E-009	-0.0032013	7
	35	49	315.5048	6287.043	-7336.422	1	9661.78	-49.40464	4.466472E-009	-0.0032024	7
	36	50	252.4038	6595.275	-8923.392	1	11096.15	-53.53191	6.794609E-010	-0.003266	6
	37	51	198.6229	7009.238	-11025.23	1	13064.65	-57.55402	1.284848E-009	-0.0032652	6
	38	53	158.3615	7508.784	-13474.04	1	15425.03	-60.87004	1.654805E-009	-0.0032709	6
	39	54	125.558	8164.062	-16547.46	1	18451.84	-63.73954	1.023512E-009	-0.0032657	6
	40	56	100.4464	8990.722	-20146.74	1	22061.83	-65.95061	1.602098E-009	-0.0032639	6
	41	57	79.00281	10088.96	-24882.92	1	26850.45	-67.92953	7.626834E-010	-0.0032645	6
	42	58	63.3446	11631.38	-30063.74	1	32235.34	-68.84901	1.028961E-009	-0.0032734	6
	43	60	49.86702	13375.04	-37322.27	1	39646.48	-70.28403	1.281881E-009	-0.0032671	6
	44	61	39.72458	15880.73	-45212	1	47919.96	-70.64616	9.814531E-010	-0.0032643	6
	45	63	31.6723	18984.75	-54646.45	1	57850.28	-70.84224	1.787804E-009	-0.0032642	6
	46	64	24.93351	23360.8	-66850.09	1	70814.27	-70.73801	1.01927E-009	-0.0032724	6
	47	65	19.86229	28791.11	-80466.2	1	85461.9	-70.3126	1.537128E-009	-0.0032667	6
	48	67	15.83615	35935.21	-96053.5	1	102555.5	-69.48835	1.681093E-009	-0.0032731	6
	49	68	12.40079	44710.09	-117321	1	125551.7	-69.13857	4.837617E-010	-0.0032735	5
	50	70	9.93114	56384.89	-138192	1	149252.5	-67.80363	1.298684E-009	-0.0032723	5
	51	71	7.944915	70500.95	-163240.2	1	177813.8	-66.64121	5.232856E-010	-0.0032607	5
	52	73	6.317385	88180.56	-192194.2	1	211457.8	-65.35388	3.859404E-010	-0.0032487	5
	53	75	5.008013	110860.7	-224899.5	1	250738.6	-63.75972	8.448766E-010	-0.0032591	5
	54	77	3.945707	139131.4	-263032.6	1	297563	-62.12334	2.56615E-010	-0.0032689	5
	55	80	3.158693	170668.8	-301650.7	1	346584.7	-60.49956	6.875037E-010	-0.0032489	5
	56	83	2.504006	210109.1	-345586.2	1	404444.8	-58.70128	-6.132445E-011	-0.0032592	5
	57	86	1.998082	252904	-389103.5	1	464071	-56.9775	5.342898E-010	-0.0033054	5
	58	89	1.584686	302257.5	-440032	1	533842.4	-55.51487	1.266294E-010	-0.0032884	5
	59	93	1.266892	354547.6	-490044.3	1	604853.3	-54.11422	4.009301E-010	-0.0033076	5
	60	97	0.999041	413414.8	-550047.5	1	688087.3	-53.07154	1.685612E-010	-0.0032351	5
