EXPLAIN
TAG	EISPOT
TITLE	LABEL	Potentiostatic EIS	Test &Identifier
DATE	LABEL	10/2/2019	Date
TIME	LABEL	9:42:53	Time
NOTES	NOTES	2	&Notes...
	
	
PSTAT	PSTAT	REF600-11020	Potentiostat
VDC	POTEN	0.00000E+000	T	DC &Voltage (V)
FREQINIT	QUANT	1.00000E+006	Initial Fre&q. (Hz)
FREQFINAL	QUANT	1.00000E+000	Final Fre&q. (Hz)
PTSPERDEC	QUANT	1.00000E+001	Points/&decade
VAC	QUANT	2.50000E+001	AC &Voltage (mV rms)
AREA	QUANT	1.00000E-002	&Area (cm^2)
CONDIT	TWOPARAM	T	5.00000E+000	0.00000E+000	Conditionin&g	Time(s)	E(V)
DELAY	TWOPARAM	T	5.00000E+000	0.00000E+000	Init. De&lay	Time(s)	Stab.(mV/s)
SPEED	SELECTOR	1	&Optimize for:
ZGUESS	QUANT	1.00000E+004	E&stimated Z (ohms)
OCVCURVE	TABLE	19
	Pt	T	Vf	Vm	Ach	Over
	#	s	V vs. Ref.	V	V	bits
	0	0.258333	-8.93553E-004	-8.93553E-004	6.39731E-004	...........
	1	0.516667	-9.05806E-004	-1.53499E-003	6.36131E-004	...........
	2	0.775	-9.82254E-004	-2.20595E-003	6.35298E-004	...........
	3	1.03333	-1.20495E-003	-2.97707E-003	6.39964E-004	...........
	4	1.29167	-1.61356E-003	-3.29021E-003	6.38865E-004	...........
	5	1.55	-2.15016E-003	-3.58963E-003	6.36465E-004	...........
	6	1.80833	-2.70068E-003	-4.07830E-003	6.31831E-004	...........
	7	2.06667	-3.19159E-003	-4.45412E-003	6.34865E-004	...........
	8	2.325	-3.62406E-003	-4.82331E-003	6.34165E-004	...........
	9	2.58333	-4.02605E-003	-5.18426E-003	6.31265E-004	...........
	10	2.84167	-4.41283E-003	-5.55683E-003	6.34798E-004	...........
	11	3.1	-4.78853E-003	-5.87357E-003	6.35731E-004	...........
	12	3.35833	-5.15330E-003	-6.19785E-003	6.36798E-004	...........
	13	3.61667	-5.50470E-003	-6.49777E-003	6.36065E-004	...........
	14	3.875	-5.84003E-003	-6.76740E-003	6.33165E-004	...........
	15	4.13333	-6.15790E-003	-7.04904E-003	6.38798E-004	...........
	16	4.39167	-6.45861E-003	-7.30898E-003	6.33065E-004	...........
	17	4.65	-6.74436E-003	-7.55327E-003	6.34531E-004	...........
	18	4.90833	-7.01709E-003	-7.78095E-003	6.34831E-004	...........
EOC	QUANT	-0.0070171	Open Circuit (V)
PSTATMODEL	IQUANT	4	Pstat Model
PSTATSECTION	LABEL	REF600-11020	Pstat Section
PSTATSERIALNO	LABEL	11020	Pstat Serial Number
CTRLMODE	IQUANT	1	Control Mode
IESTAB	IQUANT	0	I/E Stability
CASPEED	IQUANT	1	Control Amp Speed
CONVENTION	IQUANT	1	Current Convention
ICHRANGE	IQUANT	2	Ich Range
ICHRANGEMODE	TOGGLE	F	Ich Auto Range
ICHOFFSETENABLE	TOGGLE	T	Ich Offset Enable
ICHOFFSET	QUANT	0	Ich Offset (V)
ICHFILTER	IQUANT	3	Ich Filter
VCHRANGE	IQUANT	2	Vch Range
VCHRANGEMODE	TOGGLE	F	Vch Auto Range
VCHOFFSETENABLE	TOGGLE	T	Vch Offset Enable
VCHOFFSET	QUANT	0	Vch Offset (V)
VCHFILTER	IQUANT	3	Vch Filter
ACHRANGE	IQUANT	2	Ach Range
ACHOFFSETENABLE	TOGGLE	F	Ach Offset Enable
ACHOFFSET	QUANT	0	Ach Offset (V)
ACHFILTER	IQUANT	3	Ach Filter
IERANGELOWERLIMIT	IQUANT	1	I/E Range Lower Limit
IERANGEMODE	TOGGLE	F	I/E AutoRange
IERANGE	IQUANT	6	I/E Range
POSFEEDENABLE	TOGGLE	F	Positive Feedback IR Comp
POSFEEDRESISTANCE	QUANT	0	Positive Feedback Resistance (ohm)
ACHSELECT	IQUANT	0	Ach Select
CABLEID	IQUANT	14	Cable ID
DCCALDATE	LABEL	8/19/2019	DC Calibration Date
ACCALDATE	LABEL	8/19/2019	AC Calibration Date
THERMOSELECT	IQUANT	1	Thermo Select
FRAMEWORKVERSION	QUANT	6.33	Framework Version
INSTRUMENTVERSION	LABEL	3.50	Instrument Version
ZCURVE	TABLE
	Pt	Time	Freq	Zreal	Zimag	Zsig	Zmod	Zphz	Idc	Vdc	IERange
	#	s	Hz	ohm	ohm	V	ohm	°	A	V	#
	0	1	1000078	2414.623	-2030.972	1	3155.195	-40.06764	-8.087747E-006	-0.0031622	8
	1	3	794390.6	2828.356	-2012.682	1	3471.381	-35.43597	2.397532E-006	-0.0050763	8
	2	4	630984.4	3222.602	-1929.047	1	3755.847	-30.90471	8.751537E-007	-0.0055109	8
	3	5	501234.4	3601.615	-1783.418	1	4018.981	-26.34331	-3.294645E-006	-0.004691	8
	4	7	398109.4	3898.433	-1609.906	1	4217.769	-22.43878	-1.028611E-007	-0.0054167	8
	5	8	316265.6	4128.267	-1417.977	1	4365.002	-18.95656	-4.586546E-007	-0.0052443	8
	6	9	251203.1	4340.363	-1230.444	1	4511.401	-15.82744	1.248337E-006	-0.0056934	8
	7	11	199546.9	4478.577	-1047.557	1	4599.46	-13.16503	-2.755717E-006	-0.0048717	8
	8	12	158578.1	4553.852	-906.5681	1	4643.214	-11.25908	2.899801E-006	-0.0060276	8
	9	14	125953.1	4658.77	-734.113	1	4716.254	-8.954841	-1.484318E-006	-0.0025161	7
	10	15	100078.1	4716.593	-647.6465	1	4760.851	-7.818524	-1.947687E-008	-0.0055262	7
	11	16	79453.13	4766.684	-584.8444	1	4802.429	-6.994899	4.484595E-008	-0.005647	7
	12	18	63140.62	4809.925	-537.5077	1	4839.865	-6.376332	4.671338E-008	-0.0056522	7
	13	19	50203.12	4849.996	-506.4373	1	4876.365	-5.961231	7.052913E-008	-0.0056355	7
	14	20	39890.62	4884.642	-490.4391	1	4909.202	-5.733528	7.083542E-008	-0.0056273	7
	15	22	31640.63	4921.644	-487.1878	1	4945.698	-5.653225	7.091668E-008	-0.0056286	7
	16	23	25171.88	4959.333	-499.5633	1	4984.431	-5.752113	8.326993E-008	-0.00568	7
	17	24	20015.62	4997.298	-526.1247	1	5024.917	-6.010064	-1.503564E-008	-0.0054603	7
	18	26	15890.62	5037.841	-564.5253	1	5069.372	-6.39372	8.341681E-008	-0.0056829	7
	19	27	12609.37	5081.341	-619.5897	1	5118.976	-6.952002	-4.512568E-008	-0.005479	7
	20	28	10078.13	5125.172	-689.8027	1	5171.385	-7.665439	3.833409E-008	-0.0055487	7
	21	30	8015.625	5175.535	-785.5563	1	5234.813	-8.630629	1.356583E-007	-0.0057053	7
	22	31	6328.125	5228.873	-904.5281	1	5306.532	-9.81431	4.709781E-008	-0.0056543	7
	23	32	5015.625	5291.323	-1053.646	1	5395.208	-11.26183	-4.603206E-008	-0.0054855	7
	24	34	3984.375	5358.519	-1235.008	1	5498.997	-12.97864	-2.079197E-009	-0.0055043	7
	25	35	3170.956	5432.553	-1456.79	1	5624.488	-15.01124	1.21368E-008	-0.0055841	7
	26	36	2527.573	5517.356	-1727.523	1	5781.484	-17.38571	8.377E-008	-0.0056896	7
	27	38	1976.103	5621.591	-2089.858	1	5997.482	-20.3929	-1.389332E-008	-0.0053777	7
	28	39	1577.524	5732.179	-2494.11	1	6251.277	-23.51418	8.470167E-008	-0.0056871	7
	29	41	1265.625	5856.862	-2984.254	1	6573.325	-27.00027	4.643331E-008	-0.0056591	7
	30	42	998.264	6021.611	-3615.385	1	7023.589	-30.98068	-7.45481E-008	-0.005394	7
	31	43	796.875	6199.696	-4356.911	1	7577.526	-35.09809	-1.312931E-008	-0.0053724	7
	32	45	627.7902	6427.391	-5316.746	1	8341.411	-39.5976	-5.173804E-008	-0.0053514	7
	33	46	505.5147	6677.898	-6376.34	1	9233.203	-43.67668	-1.346733E-008	-0.0053788	7
	34	47	397.9953	7007.962	-7799.072	1	10485.09	-48.05829	8.130134E-010	-0.0055504	6
	35	49	315.5048	7389.053	-9503.06	1	12037.7	-52.13333	7.748726E-010	-0.0055569	6
	36	50	252.4038	7830.902	-11504.02	1	13916.38	-55.75649	1.270611E-009	-0.0055613	6
	37	51	198.6229	8407.442	-14139.46	1	16450.21	-59.26393	1.220789E-009	-0.0055579	6
	38	53	158.3615	9079.956	-17206.69	1	19455.48	-62.17942	1.319701E-009	-0.0055626	6
	39	54	125.558	9942.65	-21058.69	1	23287.87	-64.72614	9.91029E-010	-0.0055598	6
	40	55	100.4464	10991.4	-25613.21	1	27871.99	-66.77438	1.036631E-010	-0.0055625	6
	41	57	79.00281	12415.26	-31598.55	1	33950.07	-68.54984	8.327321E-010	-0.005565	6
	42	58	63.3446	14269.49	-38540.14	1	41096.96	-69.68292	1.447137E-009	-0.0055669	6
	43	60	49.86702	16597.96	-47121.7	1	49959.45	-70.5959	8.017423E-010	-0.005558	6
	44	61	39.72458	20029.54	-57341.54	1	60739.07	-70.74557	1.398107E-009	-0.0055617	6
	45	62	31.6723	24167.19	-69488.94	1	73571.5	-70.8231	1.369764E-009	-0.0055649	6
	46	64	24.93351	30393.68	-84932.68	1	90207.18	-70.30994	1.199805E-009	-0.0055585	6
	47	65	19.86229	38228.87	-102114.2	1	109035.6	-69.47543	4.337097E-010	-0.0055572	5
	48	66	15.83615	47841.14	-121346.8	1	130437	-68.48309	5.606649E-010	-0.0055562	5
	49	68	12.40079	62842.11	-146345	1	159267	-66.7608	-2.968954E-010	-0.0055582	5
	50	69	9.93114	78971.59	-171276.6	1	188605.9	-65.24669	2.058312E-010	-0.0055529	5
	51	71	7.944915	99105.4	-198593.6	1	221948.8	-63.47915	8.484387E-010	-0.0055511	5
	52	72	6.317385	123919	-229248.8	1	260597.3	-61.60685	3.073493E-010	-0.005545	5
	53	74	5.008013	153358.1	-262304.9	1	303846.3	-59.68706	5.56881E-010	-0.0055513	5
	54	77	3.945707	187817.1	-298938.5	1	353043.2	-57.85968	2.833344E-010	-0.0055631	5
	55	80	3.158693	223101.5	-335758.1	1	403122.5	-56.39711	8.224197E-010	-0.0055401	5
	56	83	2.504006	262133	-378413.1	1	460337	-55.28902	-1.271685E-011	-0.0055602	5
	57	86	1.998082	303001.1	-424716.3	1	521721.8	-54.49518	1.227944E-010	-0.0055799	5
	58	89	1.584686	347482.9	-478060.2	1	591004.1	-53.98809	2.085059E-010	-0.0055222	5
	59	92	1.266892	393805	-541226	1	669333.9	-53.95974	1.489055E-010	-0.0055913	5
	60	97	0.999041	447239.2	-619294.4	1	763903.4	-54.16411	3.872021E-010	-0.0055191	5
