EXPLAIN
TAG	EISPOT
TITLE	LABEL	Potentiostatic EIS	Test &Identifier
DATE	LABEL	10/14/2019	Date
TIME	LABEL	11:40:56	Time
NOTES	NOTES	1	&Notes...
	
PSTAT	PSTAT	REF600-11020	Potentiostat
VDC	POTEN	0.00000E+000	T	DC &Voltage (V)
FREQINIT	QUANT	1.00000E+006	Initial Fre&q. (Hz)
FREQFINAL	QUANT	1.00000E+000	Final Fre&q. (Hz)
PTSPERDEC	QUANT	1.00000E+001	Points/&decade
VAC	QUANT	2.50000E+001	AC &Voltage (mV rms)
AREA	QUANT	1.00000E-002	&Area (cm^2)
CONDIT	TWOPARAM	T	5.00000E+000	0.00000E+000	Conditionin&g	Time(s)	E(V)
DELAY	TWOPARAM	T	5.00000E+000	0.00000E+000	Init. De&lay	Time(s)	Stab.(mV/s)
SPEED	SELECTOR	1	&Optimize for:
ZGUESS	QUANT	1.00000E+004	E&stimated Z (ohms)
OCVCURVE	TABLE	19
	Pt	T	Vf	Vm	Ach	Over
	#	s	V vs. Ref.	V	V	bits
	0	0.258333	4.27940E-003	4.27940E-003	5.64832E-004	...........
	1	0.516667	4.27668E-003	4.13705E-003	5.59399E-004	...........
	2	0.775	4.26023E-003	4.01523E-003	5.62632E-004	...........
	3	1.03333	4.21478E-003	3.91137E-003	5.56733E-004	...........
	4	1.29167	4.13651E-003	3.82952E-003	5.61366E-004	...........
	5	1.55	4.03822E-003	3.74575E-003	5.60732E-004	...........
	6	1.80833	3.93757E-003	3.70095E-003	5.60466E-004	...........
	7	2.06667	3.84735E-003	3.68697E-003	5.59666E-004	...........
	8	2.325	3.77536E-003	3.67085E-003	5.58232E-004	...........
	9	2.58333	3.72412E-003	3.62881E-003	5.63766E-004	...........
	10	2.84167	3.68603E-003	3.45827E-003	5.61899E-004	...........
	11	3.1	3.64206E-003	3.35811E-003	5.61666E-004	...........
	12	3.35833	3.57406E-003	3.24219E-003	5.61066E-004	...........
	13	3.61667	3.48001E-003	3.14232E-003	5.64532E-004	...........
	14	3.875	3.37333E-003	3.13332E-003	5.61366E-004	...........
	15	4.13333	3.27731E-003	3.32878E-003	5.64632E-004	...........
	16	4.39167	3.24351E-003	4.48649E-003	5.63899E-004	...........
	17	4.65	3.35473E-003	4.34689E-003	5.59599E-004	...........
	18	4.90833	3.62585E-003	4.04797E-003	5.59266E-004	...........
EOC	QUANT	0.0036259	Open Circuit (V)
PSTATMODEL	IQUANT	4	Pstat Model
PSTATSECTION	LABEL	REF600-11020	Pstat Section
PSTATSERIALNO	LABEL	11020	Pstat Serial Number
CTRLMODE	IQUANT	1	Control Mode
IESTAB	IQUANT	0	I/E Stability
CASPEED	IQUANT	1	Control Amp Speed
CONVENTION	IQUANT	1	Current Convention
ICHRANGE	IQUANT	2	Ich Range
ICHRANGEMODE	TOGGLE	F	Ich Auto Range
ICHOFFSETENABLE	TOGGLE	T	Ich Offset Enable
ICHOFFSET	QUANT	0	Ich Offset (V)
ICHFILTER	IQUANT	3	Ich Filter
VCHRANGE	IQUANT	2	Vch Range
VCHRANGEMODE	TOGGLE	F	Vch Auto Range
VCHOFFSETENABLE	TOGGLE	T	Vch Offset Enable
VCHOFFSET	QUANT	0	Vch Offset (V)
VCHFILTER	IQUANT	3	Vch Filter
ACHRANGE	IQUANT	2	Ach Range
ACHOFFSETENABLE	TOGGLE	F	Ach Offset Enable
ACHOFFSET	QUANT	0	Ach Offset (V)
ACHFILTER	IQUANT	3	Ach Filter
IERANGELOWERLIMIT	IQUANT	1	I/E Range Lower Limit
IERANGEMODE	TOGGLE	F	I/E AutoRange
IERANGE	IQUANT	5	I/E Range
POSFEEDENABLE	TOGGLE	F	Positive Feedback IR Comp
POSFEEDRESISTANCE	QUANT	0	Positive Feedback Resistance (ohm)
ACHSELECT	IQUANT	0	Ach Select
CABLEID	IQUANT	14	Cable ID
DCCALDATE	LABEL	8/19/2019	DC Calibration Date
ACCALDATE	LABEL	8/19/2019	AC Calibration Date
THERMOSELECT	IQUANT	1	Thermo Select
FRAMEWORKVERSION	QUANT	6.33	Framework Version
INSTRUMENTVERSION	LABEL	3.50	Instrument Version
ZCURVE	TABLE
	Pt	Time	Freq	Zreal	Zimag	Zsig	Zmod	Zphz	Idc	Vdc	IERange
	#	s	Hz	ohm	ohm	V	ohm	°	A	V	#
	0	1	1000078	2550.617	-1668.126	1	3047.67	-33.18503	5.05678E-007	0.0059226	8
	1	3	794390.6	2881.515	-1585.127	1	3288.732	-28.81528	4.89861E-007	0.0057369	8
	2	4	630984.4	3162.948	-1479.674	1	3491.944	-25.07088	-1.170073E-006	0.005921	8
	3	5	501234.4	3402.974	-1339.585	1	3657.146	-21.48714	-3.061444E-006	0.0059398	8
	4	7	398109.4	3599.465	-1194.409	1	3792.461	-18.35737	-1.011668E-006	0.0056298	8
	5	8	316265.6	3775.514	-1056.88	1	3920.65	-15.63853	-2.270441E-006	0.0058026	8
	6	9	251203.1	3894.362	-922.0043	1	4002.018	-13.31973	-3.178162E-006	0.0058592	8
	7	11	199546.9	4005.189	-813.8882	1	4087.047	-11.48658	3.53054E-007	0.0053244	8
	8	12	158578.1	4082.132	-707.1429	1	4142.928	-9.82775	6.873129E-008	0.0053806	8
	9	14	125953.1	4167.57	-581.843	1	4207.99	-7.947808	-1.205234E-006	0.0077471	7
	10	15	100078.1	4207.433	-507.9595	1	4237.984	-6.883951	7.86662E-008	0.0051277	7
	11	16	79453.13	4248.858	-462.0703	1	4273.91	-6.206618	-2.662785E-008	0.0052853	7
	12	18	63140.62	4286.143	-427.6379	1	4307.423	-5.69767	3.660886E-008	0.0052393	7
	13	19	50203.12	4319.346	-404.3013	1	4338.226	-5.347444	-3.609008E-008	0.005288	7
	14	21	39890.62	4350.413	-392.2932	1	4368.064	-5.152641	1.224831E-007	0.0050995	7
	15	22	31640.63	4380.263	-391.2246	1	4397.699	-5.103849	-2.798895E-008	0.0053451	7
	16	23	25171.88	4409.674	-401.2264	1	4427.89	-5.198901	-3.816954E-009	0.005382	7
	17	25	20015.62	4441.87	-427.0141	1	4462.348	-5.491189	-1.058504E-008	0.0052916	7
	18	26	15890.62	4471.795	-455.5533	1	4494.939	-5.816802	-3.465325E-009	0.0053061	7
	19	27	12609.37	4505.677	-504.5085	1	4533.834	-6.388896	-5.092121E-009	0.0053096	7
	20	29	10078.13	4539.823	-563.0864	1	4574.61	-7.07044	-2.945169E-008	0.0053407	7
	21	30	8015.625	4581.654	-640.7846	1	4626.247	-7.961676	-3.57994E-008	0.0052823	7
	22	31	6328.125	4621.604	-741.9693	1	4680.784	-9.120647	5.142112E-009	0.005203	7
	23	33	5015.625	4667.478	-868.5127	1	4747.595	-10.5409	-3.017522E-008	0.0052662	7
	24	34	3984.375	4728.465	-1027.196	1	4838.751	-12.25632	-1.179929E-008	0.0052925	7
	25	36	3170.956	4774.547	-1212.614	1	4926.128	-14.25037	-2.568866E-008	0.0053364	7
	26	37	2527.573	4839.477	-1444.83	1	5050.551	-16.62304	-5.017637E-008	0.0053119	7
	27	38	1976.103	4920.288	-1755.996	1	5224.247	-19.64092	8.806644E-009	0.0052071	7
	28	40	1577.524	5012.436	-2105.705	1	5436.773	-22.78709	-6.23546E-008	0.0053618	7
	29	41	1265.625	5107.844	-2529.346	1	5699.795	-26.34409	5.363998E-009	0.0051923	7
	30	42	998.264	5237.203	-3082.086	1	6076.804	-30.47675	-4.622063E-008	0.0053245	7
	31	44	796.875	5384.985	-3725.588	1	6548.135	-34.67732	-2.993475E-008	0.005259	7
	32	45	627.7902	5570.771	-4559.952	1	7199.073	-39.30203	4.187175E-008	0.0052226	7
	33	46	505.5147	5773.503	-5485.189	1	7963.708	-43.53308	-5.410975E-008	0.0053201	7
	34	48	397.9953	6046.144	-6737.683	1	9052.747	-48.09639	3.933376E-009	0.0052807	7
	35	49	315.5048	6371.574	-8229.587	1	10407.84	-52.25197	9.464352E-010	0.0052168	6
	36	51	252.4038	6752.33	-9982.71	1	12051.91	-55.92548	7.271324E-010	0.0052111	6
	37	52	198.6229	7256.949	-12291.35	1	14273.77	-59.44193	9.719346E-010	0.005212	6
	38	53	158.3615	7852.23	-14973.29	1	16907.31	-62.32678	2.383252E-010	0.0052116	6
	39	55	125.558	8622.556	-18340.2	1	20266.02	-64.81967	7.42569E-010	0.005221	6
	40	56	100.4464	9558.62	-22279.69	1	24243.59	-66.7793	1.210078E-009	0.0052182	6
	41	57	79.00281	10927.78	-27488.3	1	29580.79	-68.32005	1.048387E-009	0.0052107	6
	42	59	63.3446	12456.53	-33507.18	1	35747.67	-69.60703	9.198832E-010	0.0052158	6
	43	60	49.86702	14718.79	-40838.86	1	43410.31	-70.18026	9.900493E-010	0.0052107	6
	44	62	39.72458	17712.21	-49722.79	1	52783.32	-70.39314	6.611018E-010	0.0052116	6
	45	63	31.6723	21663.44	-60260.14	1	64035.84	-70.22655	3.423076E-010	0.0052112	6
	46	64	24.93351	26996.22	-73229.98	1	78047.59	-69.7636	3.581352E-010	0.0052126	6
	47	66	19.86229	33786.82	-87823.97	1	94098.88	-68.95773	-3.228972E-011	0.0052109	6
	48	67	15.83615	42443.87	-104303.6	1	112608.8	-67.85731	9.154852E-010	0.0052123	5
	49	69	12.40079	55232.66	-124882.7	1	136551.6	-66.14133	-5.845098E-010	0.0052214	5
	50	70	9.93114	68737.04	-146303.1	1	161645.8	-64.83463	2.168609E-010	0.0052162	5
	51	72	7.944915	85683.8	-169618.4	1	190031.9	-63.1991	4.005942E-010	0.0052156	5
	52	73	6.317385	106540.2	-195635.4	1	222764.5	-61.42793	-3.336012E-010	0.0052218	5
	53	75	5.008013	131363	-224384.5	1	260009	-59.65372	-1.022527E-010	0.0052073	5
	54	78	3.945707	160428.1	-255904.5	1	302033.6	-57.91615	4.598525E-010	0.0052158	5
	55	80	3.158693	190617.8	-288460.3	1	345752	-56.54282	-1.509629E-010	0.0051966	5
	56	84	2.504006	224754	-325366.8	1	395446.5	-55.36441	5.389991E-010	0.0052102	5
	57	87	1.998082	261092.7	-365170.9	1	448908.9	-54.4357	4.256987E-010	0.0052288	5
	58	90	1.584686	300854.5	-410255.7	1	508746.6	-53.74614	1.001657E-010	0.0051654	5
	59	93	1.266892	340229.8	-462905.4	1	574489.1	-53.68457	3.434691E-010	0.0052167	5
	60	98	0.999041	386294.5	-528871.1	1	654926	-53.85511	-1.953849E-010	0.0051962	5
