EXPLAIN
TAG	EISPOT
TITLE	LABEL	Potentiostatic IDE	Test &Identifier
DATE	LABEL	9/12/2019	Date
TIME	LABEL	11:08:09	Time
NOTES	NOTES	1	&Notes...
	
PSTAT	PSTAT	REF600-11020	Potentiostat
VDC	POTEN	0.00000E+000	T	DC &Voltage (V)
FREQINIT	QUANT	1.00000E+006	Initial Fre&q. (Hz)
FREQFINAL	QUANT	1.00000E+000	Final Fre&q. (Hz)
PTSPERDEC	QUANT	1.00000E+001	Points/&decade
VAC	QUANT	2.50000E+001	AC &Voltage (mV rms)
AREA	QUANT	1.00000E-002	&Area (cm^2)
CONDIT	TWOPARAM	T	5.00000E+000	0.00000E+000	Conditionin&g	Time(s)	E(V)
DELAY	TWOPARAM	T	5.00000E+000	0.00000E+000	Init. De&lay	Time(s)	Stab.(mV/s)
SPEED	SELECTOR	1	&Optimize for:
ZGUESS	QUANT	1.00000E+007	E&stimated Z (ohms)
OCVCURVE	TABLE	19
	Pt	T	Vf	Vm	Ach	Over
	#	s	V vs. Ref.	V	V	bits
	0	0.258333	-4.24914E-005	-4.24914E-005	5.65966E-004	...........
	1	0.516667	-5.18097E-005	-5.30267E-004	5.67366E-004	...........
	2	0.775	-1.08901E-004	-9.85887E-004	5.63632E-004	...........
	3	1.03333	-2.69510E-004	-1.39859E-003	5.62332E-004	...........
	4	1.29167	-5.53797E-004	-1.78459E-003	5.61232E-004	...........
	5	1.55	-9.25820E-004	-2.15690E-003	5.64599E-004	...........
	6	1.80833	-1.33027E-003	-2.49340E-003	5.63866E-004	...........
	7	2.06667	-1.72841E-003	-2.82326E-003	5.65199E-004	...........
	8	2.325	-2.10420E-003	-3.13591E-003	5.66766E-004	...........
	9	2.58333	-2.45584E-003	-3.43062E-003	5.67399E-004	...........
	10	2.84167	-2.78675E-003	-3.71601E-003	5.63399E-004	...........
	11	3.1	-3.10053E-003	-3.99412E-003	5.68332E-004	...........
	12	3.35833	-3.40005E-003	-4.25714E-003	5.65699E-004	...........
	13	3.61667	-3.68741E-003	-4.51335E-003	5.59866E-004	...........
	14	3.875	-3.96373E-003	-4.75281E-003	5.59432E-004	...........
	15	4.13333	-4.22930E-003	-4.99123E-003	5.60166E-004	...........
	16	4.39167	-4.48438E-003	-5.21833E-003	5.67832E-004	...........
	17	4.65	-4.72987E-003	-5.44291E-003	5.63232E-004	...........
	18	4.90833	-4.96699E-003	-5.65597E-003	5.61999E-004	...........
EOC	QUANT	-0.004967	Open Circuit (V)
PSTATMODEL	IQUANT	4	Pstat Model
PSTATSECTION	LABEL	REF600-11020	Pstat Section
PSTATSERIALNO	LABEL	11020	Pstat Serial Number
CTRLMODE	IQUANT	1	Control Mode
IESTAB	IQUANT	0	I/E Stability
CASPEED	IQUANT	1	Control Amp Speed
CONVENTION	IQUANT	1	Current Convention
ICHRANGE	IQUANT	2	Ich Range
ICHRANGEMODE	TOGGLE	F	Ich Auto Range
ICHOFFSETENABLE	TOGGLE	T	Ich Offset Enable
ICHOFFSET	QUANT	0	Ich Offset (V)
ICHFILTER	IQUANT	3	Ich Filter
VCHRANGE	IQUANT	2	Vch Range
VCHRANGEMODE	TOGGLE	F	Vch Auto Range
VCHOFFSETENABLE	TOGGLE	T	Vch Offset Enable
VCHOFFSET	QUANT	0	Vch Offset (V)
VCHFILTER	IQUANT	3	Vch Filter
ACHRANGE	IQUANT	2	Ach Range
ACHOFFSETENABLE	TOGGLE	F	Ach Offset Enable
ACHOFFSET	QUANT	0	Ach Offset (V)
ACHFILTER	IQUANT	3	Ach Filter
IERANGELOWERLIMIT	IQUANT	1	I/E Range Lower Limit
IERANGEMODE	TOGGLE	F	I/E AutoRange
IERANGE	IQUANT	2	I/E Range
POSFEEDENABLE	TOGGLE	F	Positive Feedback IR Comp
POSFEEDRESISTANCE	QUANT	0	Positive Feedback Resistance (ohm)
ACHSELECT	IQUANT	0	Ach Select
CABLEID	IQUANT	14	Cable ID
DCCALDATE	LABEL	8/19/2019	DC Calibration Date
ACCALDATE	LABEL	8/19/2019	AC Calibration Date
THERMOSELECT	IQUANT	1	Thermo Select
FRAMEWORKVERSION	QUANT	6.33	Framework Version
INSTRUMENTVERSION	LABEL	3.50	Instrument Version
ZCURVE	TABLE
	Pt	Time	Freq	Zreal	Zimag	Zsig	Zmod	Zphz	Idc	Vdc	IERange
	#	s	Hz	ohm	ohm	V	ohm	°	A	V	#
	0	2	1000078	2561.999	-1692.1	1	3070.349	-33.4432	-8.315462E-006	-0.0010256	8
	1	4	794390.6	2873.654	-1590.181	1	3284.29	-28.95863	7.981674E-007	-0.002739	8
	2	5	630984.4	3184.371	-1475.136	1	3509.451	-24.85558	-1.401868E-006	-0.0029002	8
	3	7	501234.4	3428.317	-1323.143	1	3674.788	-21.10386	-5.557552E-006	-0.0020087	8
	4	8	398109.4	3623.739	-1139.337	1	3798.628	-17.45363	3.130469E-006	-0.0040819	8
	5	10	316265.6	3757.238	-995.364	1	3886.848	-14.8379	-5.498156E-006	-0.0021808	8
	6	11	251203.1	3846.221	-845.5499	1	3938.067	-12.39863	-2.139656E-006	-0.0031194	8
	7	13	199546.9	3937.26	-721.5195	1	4002.825	-10.38447	-1.538408E-006	-0.0031202	8
	8	14	158578.1	3991.979	-649.0714	1	4044.403	-9.235126	2.49827E-006	-0.0040574	8
	9	15	125953.1	4065.158	-505.5956	1	4096.479	-7.089638	6.194451E-007	-0.0050224	7
	10	17	100078.1	4096.612	-448.7659	1	4121.119	-6.251574	-4.613052E-008	-0.0033825	7
	11	18	79453.13	4127.214	-417.5883	1	4148.286	-5.777481	-2.326488E-008	-0.0032719	7
	12	19	63140.62	4159.231	-397.9893	1	4178.229	-5.465888	-1.189304E-008	-0.0033928	7
	13	21	50203.12	4189.888	-388.6497	1	4207.875	-5.299532	-4.223623E-008	-0.0032955	7
	14	22	39890.62	4222.153	-393.0001	1	4240.404	-5.317797	-2.313051E-008	-0.0034506	7
	15	23	31640.63	4252.045	-400.7533	1	4270.889	-5.384196	1.445814E-007	-0.0036491	7
	16	24	25171.88	4284.746	-422.3358	1	4305.51	-5.629307	7.086877E-010	-0.003507	7
	17	26	20015.62	4318.323	-455.7162	1	4342.303	-6.024173	-4.258473E-008	-0.003378	7
	18	27	15890.62	4353.736	-500.238	1	4382.38	-6.55446	2.898818E-010	-0.0035065	7
	19	28	12609.37	4397.505	-558.7323	1	4432.858	-7.241011	-4.379739E-008	-0.003384	7
	20	30	10078.13	4441.24	-630.9071	1	4485.829	-8.085142	-2.301018E-008	-0.0034517	7
	21	31	8015.625	4492.272	-719.6498	1	4549.55	-9.101297	-3.337097E-008	-0.0034346	7
	22	32	6328.125	4550.449	-834.393	1	4626.316	-10.39061	7.573298E-008	-0.0034602	7
	23	34	5015.625	4611.454	-972.403	1	4712.863	-11.90734	8.452948E-008	-0.0035924	7
	24	35	3984.375	4683.896	-1136.535	1	4819.812	-13.63907	5.277827E-008	-0.0036043	7
	25	36	3170.956	4764.919	-1335.861	1	4948.634	-15.66101	-2.27117E-008	-0.0032955	7
	26	38	2527.573	4856.819	-1570.078	1	5104.296	-17.91462	2.368994E-008	-0.0035347	7
	27	39	1976.103	4971.061	-1882.865	1	5315.696	-20.74494	3.271529E-009	-0.0035117	7
	28	40	1577.524	5092.333	-2229.535	1	5559.018	-23.64486	-3.361787E-008	-0.003438	7
	29	42	1265.625	5222.436	-2636.103	1	5850.032	-26.78304	1.463144E-007	-0.0036547	7
	30	43	998.264	5389.115	-3168.821	1	6251.718	-30.45569	-7.088024E-008	-0.0033392	7
	31	44	796.875	5564.242	-3780.014	1	6726.76	-34.18985	-7.258133E-008	-0.0033378	7
	32	46	627.7902	5787.005	-4573.414	1	7376.012	-38.31897	-3.300493E-008	-0.0034439	7
	33	47	505.5147	6016.568	-5454.173	1	8120.782	-42.19311	-1.119201E-008	-0.0034144	7
	34	48	397.9953	6310.229	-6625.838	1	9149.902	-46.39761	5.469355E-009	-0.0034426	7
	35	50	315.5048	6652.441	-8032.444	1	10429.53	-50.36857	6.321829E-010	-0.0034948	6
	36	51	252.4038	7039.319	-9687.08	1	11974.62	-53.99519	1.554776E-009	-0.0035034	6
	37	52	198.6229	7537.926	-11863.67	1	14055.85	-57.56897	1.588607E-009	-0.0035004	6
	38	54	158.3615	8107.962	-14389.26	1	16516.35	-60.59991	7.870565E-010	-0.0035027	6
	39	55	125.558	8827.836	-17558.63	1	19652.89	-63.30842	1.500486E-009	-0.0034974	6
	40	56	100.4464	9664.17	-21292.43	1	23382.98	-65.58772	1.110288E-009	-0.0034925	6
	41	58	79.00281	10848.38	-26121.96	1	28285.05	-67.44702	1.579706E-009	-0.0034973	6
	42	59	63.3446	12411.51	-31788.04	1	34125.14	-68.67205	1.495271E-009	-0.0034999	6
	43	61	49.86702	13761.42	-38882.44	1	41245.86	-70.50991	4.501349E-010	-0.0035031	6
	44	62	39.72458	16179.08	-47368.18	1	50055.04	-71.14188	1.56473E-009	-0.0034949	6
	45	63	31.6723	19045.99	-57810.58	1	60867.17	-71.76527	1.906572E-009	-0.0035008	6
	46	65	24.93351	22944.5	-70793.55	1	74418.92	-72.04226	7.559971E-010	-0.0034951	6
	47	66	19.86229	27914.22	-85992.48	1	90409.68	-72.01593	1.561389E-009	-0.0034917	6
	48	67	15.83615	34803.7	-104085.4	1	109750	-71.51128	9.467423E-011	-0.003493	5
	49	69	12.40079	44080.73	-126951.5	1	134386.7	-70.85172	1.31051E-009	-0.0034942	5
	50	70	9.93114	55526.29	-152309.6	1	162115.3	-69.97007	9.37434E-010	-0.0034931	5
	51	72	7.944915	70405.59	-180831.9	1	194054.4	-68.72691	9.77573E-010	-0.0034911	5
	52	73	6.317385	89806.5	-214421.9	1	232469.2	-67.27456	9.313299E-010	-0.0034925	5
	53	75	5.008013	114968.7	-252948	1	277849.8	-65.55748	6.190736E-010	-0.0034894	5
	54	78	3.945707	147521.3	-296924.6	1	331552	-63.58039	3.051761E-010	-0.003496	5
	55	80	3.158693	183812.6	-340969.8	1	387359.7	-61.67144	1.407234E-010	-0.003511	5
	56	84	2.504006	228299.4	-390336	1	452197.7	-59.67752	7.629457E-010	-0.0034937	5
	57	86	1.998082	278260.5	-440691.7	1	521189.1	-57.73096	4.005378E-010	-0.0034516	5
	58	90	1.584686	332684.3	-496055.3	1	597285.3	-56.15184	4.851595E-010	-0.0034866	5
	59	93	1.266892	392232.3	-553327.6	1	678246	-54.66867	1.511139E-010	-0.0034575	5
	60	97	0.999041	456294.3	-621010.6	1	770622.3	-53.69301	4.199396E-010	-0.0035174	5
