EXPLAIN
TAG	EISPOT
TITLE	LABEL	Potentiostatic EIS	Test &Identifier
DATE	LABEL	11/22/2019	Date
TIME	LABEL	10:16:19	Time
NOTES	NOTES	4	&Notes...
	
	
	
	
PSTAT	PSTAT	REF600-11020	Potentiostat
VDC	POTEN	0.00000E+000	T	DC &Voltage (V)
FREQINIT	QUANT	1.00000E+006	Initial Fre&q. (Hz)
FREQFINAL	QUANT	1.00000E+000	Final Fre&q. (Hz)
PTSPERDEC	QUANT	1.00000E+001	Points/&decade
VAC	QUANT	2.50000E+001	AC &Voltage (mV rms)
AREA	QUANT	1.00000E-002	&Area (cm^2)
CONDIT	TWOPARAM	T	5.00000E+000	0.00000E+000	Conditionin&g	Time(s)	E(V)
DELAY	TWOPARAM	T	5.00000E+000	0.00000E+000	Init. De&lay	Time(s)	Stab.(mV/s)
SPEED	SELECTOR	0	&Optimize for:
ZGUESS	QUANT	1.00000E+005	E&stimated Z (ohms)
OCVCURVE	TABLE	19
	Pt	T	Vf	Vm	Ach	Over
	#	s	V vs. Ref.	V	V	bits
	0	0.258333	3.01139E-003	3.01139E-003	5.64399E-004	...........
	1	0.516667	3.00716E-003	2.78987E-003	5.66132E-004	...........
	2	0.775	2.98166E-003	2.60532E-003	5.65166E-004	...........
	3	1.03333	2.91137E-003	2.44050E-003	5.66332E-004	...........
	4	1.29167	2.78994E-003	2.29140E-003	5.66866E-004	...........
	5	1.55	2.63517E-003	2.14275E-003	5.66666E-004	...........
	6	1.80833	2.47111E-003	2.01757E-003	5.65032E-004	...........
	7	2.06667	2.31330E-003	1.90429E-003	5.62032E-004	...........
	8	2.325	2.16821E-003	1.79341E-003	5.66966E-004	...........
	9	2.58333	2.03666E-003	1.68255E-003	5.65232E-004	...........
	10	2.84167	1.91634E-003	1.59618E-003	5.65666E-004	...........
	11	3.1	1.80493E-003	1.50739E-003	5.63866E-004	...........
	12	3.35833	1.70166E-003	1.42198E-003	5.69299E-004	...........
	13	3.61667	1.60588E-003	1.33958E-003	5.66999E-004	...........
	14	3.875	1.51616E-003	1.26858E-003	5.69866E-004	...........
	15	4.13333	1.43135E-003	1.19222E-003	5.62799E-004	...........
	16	4.39167	1.35079E-003	1.11681E-003	5.63766E-004	...........
	17	4.65	1.27360E-003	1.05288E-003	5.67199E-004	...........
	18	4.90833	1.19920E-003	9.88721E-004	5.64066E-004	...........
EOC	QUANT	0.0011992	Open Circuit (V)
PSTATMODEL	IQUANT	4	Pstat Model
PSTATSECTION	LABEL	REF600-11020	Pstat Section
PSTATSERIALNO	LABEL	11020	Pstat Serial Number
CTRLMODE	IQUANT	1	Control Mode
IESTAB	IQUANT	0	I/E Stability
CASPEED	IQUANT	1	Control Amp Speed
CONVENTION	IQUANT	1	Current Convention
ICHRANGE	IQUANT	2	Ich Range
ICHRANGEMODE	TOGGLE	F	Ich Auto Range
ICHOFFSETENABLE	TOGGLE	T	Ich Offset Enable
ICHOFFSET	QUANT	0	Ich Offset (V)
ICHFILTER	IQUANT	3	Ich Filter
VCHRANGE	IQUANT	2	Vch Range
VCHRANGEMODE	TOGGLE	F	Vch Auto Range
VCHOFFSETENABLE	TOGGLE	T	Vch Offset Enable
VCHOFFSET	QUANT	0	Vch Offset (V)
VCHFILTER	IQUANT	3	Vch Filter
ACHRANGE	IQUANT	2	Ach Range
ACHOFFSETENABLE	TOGGLE	F	Ach Offset Enable
ACHOFFSET	QUANT	0	Ach Offset (V)
ACHFILTER	IQUANT	3	Ach Filter
IERANGELOWERLIMIT	IQUANT	1	I/E Range Lower Limit
IERANGEMODE	TOGGLE	F	I/E AutoRange
IERANGE	IQUANT	4	I/E Range
POSFEEDENABLE	TOGGLE	F	Positive Feedback IR Comp
POSFEEDRESISTANCE	QUANT	0	Positive Feedback Resistance (ohm)
ACHSELECT	IQUANT	0	Ach Select
CABLEID	IQUANT	14	Cable ID
DCCALDATE	LABEL	8/19/2019	DC Calibration Date
ACCALDATE	LABEL	8/19/2019	AC Calibration Date
THERMOSELECT	IQUANT	1	Thermo Select
FRAMEWORKVERSION	QUANT	6.33	Framework Version
INSTRUMENTVERSION	LABEL	3.50	Instrument Version
ZCURVE	TABLE
	Pt	Time	Freq	Zreal	Zimag	Zsig	Zmod	Zphz	Idc	Vdc	IERange
	#	s	Hz	ohm	ohm	V	ohm	°	A	V	#
	0	1	1000078	2238.944	-1529.571	1	2711.542	-34.33957	7.741929E-006	0.0033838	8
	1	2	794390.6	2523.319	-1464.077	1	2917.304	-30.12312	-1.051828E-005	0.0042913	8
	2	2	630984.4	2788.976	-1358.093	1	3102.065	-25.96379	4.941781E-006	0.0024111	8
	3	2	501234.4	3034.579	-1240.471	1	3278.329	-22.23369	-2.952905E-006	0.0030593	8
	4	3	398109.4	3215.853	-1081.916	1	3392.971	-18.59459	-1.865992E-006	0.0029943	8
	5	3	316265.6	3372.12	-951.508	1	3503.792	-15.75743	-1.363433E-006	0.0032516	8
	6	3	251203.1	3477.862	-831.5812	1	3575.899	-13.44734	-2.419229E-006	0.0027086	8
	7	4	199546.9	3572.526	-704.618	1	3641.35	-11.15738	-3.550598E-006	0.0033641	8
	8	4	158578.1	3626.681	-606.4614	1	3677.038	-9.493287	-7.632159E-007	0.0032193	8
	9	4	125953.1	3715.56	-458.4125	1	3743.731	-7.033406	-1.716723E-006	0.0024319	7
	10	5	100078.1	3735.756	-402.9849	1	3757.429	-6.156825	-2.913139E-007	0.0041243	7
	11	5	79453.13	3772.062	-353.1751	1	3788.559	-5.348964	6.908363E-008	0.0037275	7
	12	5	63140.62	3797.078	-320.8475	1	3810.609	-4.829936	-3.090195E-007	0.0019238	7
	13	6	50203.12	3817.839	-295.5079	1	3829.258	-4.425977	-1.22649E-006	0.0042235	7
	14	6	39890.62	3842.584	-281.1552	1	3852.856	-4.184775	1.083949E-006	0.001304	7
	15	6	31640.63	3862.19	-275.5922	1	3872.01	-4.081506	1.097455E-006	0.0016339	7
	16	7	25171.88	3874.749	-275.074	1	3884.5	-4.060698	-1.218979E-006	0.0038511	7
	17	7	20015.62	3893.259	-285.7845	1	3903.734	-4.198264	-7.302737E-007	0.0026101	7
	18	7	15890.62	3911.487	-306.248	1	3923.458	-4.476812	7.774583E-007	0.0009927	7
	19	7	12609.37	3932.023	-336.6653	1	3946.409	-4.893809	1.097502E-006	0.0016341	7
	20	8	10078.13	3949.381	-377.3422	1	3967.367	-5.457738	9.77623E-007	0.001074	7
	21	8	8015.625	3962.55	-432.6359	1	3986.098	-6.23094	-7.296846E-007	0.0025988	7
	22	8	6328.125	3985.959	-509.937	1	4018.446	-7.290438	7.774458E-007	0.0009847	7
	23	9	5015.625	4007.916	-604.3265	1	4053.221	-8.57465	7.781209E-007	0.0009843	7
	24	9	3984.375	4030.37	-721.5521	1	4094.449	-10.15006	-8.936867E-007	0.0044329	7
	25	9	3170.956	4061.113	-871.5827	1	4153.588	-12.11289	3.891726E-007	0.003284	7
	26	10	2527.573	4095.899	-1053.876	1	4229.308	-14.42923	1.151243E-007	0.0013872	7
	27	10	1976.103	4139.112	-1303.521	1	4339.518	-17.48066	7.782866E-007	0.0009795	7
	28	10	1577.524	4189.707	-1584.646	1	4479.369	-20.7178	-2.925438E-007	0.0041029	7
	29	11	1265.625	4250.381	-1927.409	1	4666.974	-24.39274	8.264494E-007	0.0025372	7
	30	11	998.264	4331.195	-2376.795	1	4940.486	-28.7563	7.784317E-007	0.0009824	7
	31	11	796.875	4428.788	-2899.391	1	5293.452	-33.21154	-3.082584E-007	0.0019081	7
	32	12	627.7902	4555.267	-3596.218	1	5803.727	-38.28981	8.234152E-007	0.0025518	7
	33	12	505.5147	4707.383	-4348.174	1	6408.282	-42.72842	-1.0967E-006	0.0043679	7
	34	12	397.9953	4923.301	-5391.88	1	7301.457	-47.60094	2.808241E-009	0.0027798	7
	35	13	315.5048	5196.186	-6626.503	1	8420.86	-51.89816	3.754681E-009	0.0027711	7
	36	13	252.4038	5537.654	-8069.375	1	9786.75	-55.53992	4.47515E-009	0.0027739	7
	37	13	198.6229	6017.841	-9956.98	1	11634.25	-58.8519	5.120674E-010	0.0027227	6
	38	13	158.3615	6607.366	-12123.46	1	13807.08	-61.40932	5.504195E-010	0.0027113	6
	39	14	125.558	7400.239	-14809.28	1	16555.31	-63.44857	1.071301E-011	0.0027226	6
	40	14	100.4464	8370.35	-17905.84	1	19765.67	-64.94556	1.038416E-009	0.0027085	6
	41	14	79.00281	9737.2	-21898.16	1	23965.44	-66.02728	-3.478601E-010	0.0027145	6
	42	15	63.3446	11608.55	-26167.36	1	28626.72	-66.07663	2.207284E-010	0.0027128	6
	43	15	49.86702	13879.99	-31813.63	1	34709.67	-66.4288	5.989831E-010	0.0027117	6
	44	16	39.72458	16590.73	-38101.16	1	41556.6	-66.46981	-2.407722E-010	0.0027159	6
	45	16	31.6723	20101.78	-45292.43	1	49552.85	-66.0673	-2.938906E-011	0.0027118	6
	46	16	24.93351	24863.5	-54119.59	1	59557.73	-65.32511	1.520583E-009	0.0027026	6
	47	17	19.86229	30367.45	-63673.55	1	70544.33	-64.5024	2.536552E-009	0.0027202	6
	48	17	15.83615	37775.46	-74600.91	1	83619.86	-63.14384	-2.426423E-009	0.0027139	6
	49	17	12.40079	45555.14	-87789.4	1	98905.3	-62.57457	5.995868E-010	0.002705	6
	50	17	9.93114	55341.38	-100359.6	1	114606.8	-61.12629	9.016753E-010	0.0027221	5
	51	18	7.944915	65781.76	-115230.4	1	132684.9	-60.27918	7.361706E-010	0.0027205	5
	52	19	6.317385	77403.17	-132200.7	1	153193.6	-59.65114	7.281352E-010	0.0027032	5
	53	19	5.008013	90683.82	-152219.8	1	177184.7	-59.21594	6.347846E-010	0.0027267	5
	54	20	3.945707	105798.4	-176228.6	1	205547.7	-59.02161	7.768255E-011	0.0027113	5
	55	22	3.158693	121050.9	-202569.1	1	235982.1	-59.13838	9.852728E-011	0.0027025	5
	56	23	2.504006	139191.9	-235492.3	1	273552.6	-59.41404	4.071183E-010	0.002707	5
	57	25	1.998082	158560.9	-273090.2	1	315784.4	-59.8598	1.722997E-010	0.0026964	5
	58	26	1.584686	182711.3	-320013.7	1	368500	-60.27587	5.444382E-011	0.0026552	5
	59	28	1.266892	208649.5	-374350.2	1	428570.5	-60.86626	1.016688E-010	0.0026686	5
	60	31	0.999041	241085.4	-441892.1	1	503379.4	-61.38421	1.200539E-010	0.0026901	5
