EXPLAIN
TAG	EISPOT
TITLE	LABEL	Potentiostatic IDE	Test &Identifier
DATE	LABEL	9/6/2019	Date
TIME	LABEL	8:05:46	Time
NOTES	NOTES	1	&Notes...
	
PSTAT	PSTAT	REF600-11020	Potentiostat
VDC	POTEN	0.00000E+000	T	DC &Voltage (V)
FREQINIT	QUANT	1.00000E+006	Initial Fre&q. (Hz)
FREQFINAL	QUANT	1.00000E+000	Final Fre&q. (Hz)
PTSPERDEC	QUANT	1.00000E+001	Points/&decade
VAC	QUANT	2.50000E+001	AC &Voltage (mV rms)
AREA	QUANT	1.00000E-002	&Area (cm^2)
CONDIT	TWOPARAM	T	5.00000E+000	0.00000E+000	Conditionin&g	Time(s)	E(V)
DELAY	TWOPARAM	T	5.00000E+000	0.00000E+000	Init. De&lay	Time(s)	Stab.(mV/s)
SPEED	SELECTOR	1	&Optimize for:
ZGUESS	QUANT	1.00000E+007	E&stimated Z (ohms)
OCVCURVE	TABLE	19
	Pt	T	Vf	Vm	Ach	Over
	#	s	V vs. Ref.	V	V	bits
	0	0.258333	7.10822E-003	7.10822E-003	5.70332E-004	...........
	1	0.516667	7.10411E-003	6.89328E-003	5.72899E-004	...........
	2	0.775	7.07952E-003	6.72221E-003	5.72799E-004	...........
	3	1.03333	7.01210E-003	6.56147E-003	5.72799E-004	...........
	4	1.29167	6.89624E-003	6.43124E-003	5.71832E-004	...........
	5	1.55	6.75013E-003	6.31774E-003	5.70832E-004	...........
	6	1.80833	6.59887E-003	6.20353E-003	5.71632E-004	...........
	7	2.06667	6.45838E-003	6.11086E-003	5.71632E-004	...........
	8	2.325	6.33317E-003	6.01563E-003	5.72232E-004	...........
	9	2.58333	6.22145E-003	5.92116E-003	5.71399E-004	...........
	10	2.84167	6.11847E-003	5.78459E-003	5.68866E-004	...........
	11	3.1	6.01867E-003	5.75468E-003	5.69766E-004	...........
	12	3.35833	5.92178E-003	5.69509E-003	5.72999E-004	...........
	13	3.61667	5.83467E-003	5.65478E-003	5.73132E-004	...........
	14	3.875	5.76257E-003	5.58645E-003	5.70132E-004	...........
	15	4.13333	5.70233E-003	5.52260E-003	5.68332E-004	...........
	16	4.39167	5.64638E-003	5.47033E-003	5.72532E-004	...........
	17	4.65	5.58984E-003	5.41771E-003	5.73666E-004	...........
	18	4.90833	5.53279E-003	5.37082E-003	5.72899E-004	...........
EOC	QUANT	0.0055328	Open Circuit (V)
PSTATMODEL	IQUANT	4	Pstat Model
PSTATSECTION	LABEL	REF600-11020	Pstat Section
PSTATSERIALNO	LABEL	11020	Pstat Serial Number
CTRLMODE	IQUANT	1	Control Mode
IESTAB	IQUANT	0	I/E Stability
CASPEED	IQUANT	1	Control Amp Speed
CONVENTION	IQUANT	1	Current Convention
ICHRANGE	IQUANT	2	Ich Range
ICHRANGEMODE	TOGGLE	F	Ich Auto Range
ICHOFFSETENABLE	TOGGLE	T	Ich Offset Enable
ICHOFFSET	QUANT	0	Ich Offset (V)
ICHFILTER	IQUANT	3	Ich Filter
VCHRANGE	IQUANT	2	Vch Range
VCHRANGEMODE	TOGGLE	F	Vch Auto Range
VCHOFFSETENABLE	TOGGLE	T	Vch Offset Enable
VCHOFFSET	QUANT	0	Vch Offset (V)
VCHFILTER	IQUANT	3	Vch Filter
ACHRANGE	IQUANT	2	Ach Range
ACHOFFSETENABLE	TOGGLE	F	Ach Offset Enable
ACHOFFSET	QUANT	0	Ach Offset (V)
ACHFILTER	IQUANT	3	Ach Filter
IERANGELOWERLIMIT	IQUANT	1	I/E Range Lower Limit
IERANGEMODE	TOGGLE	F	I/E AutoRange
IERANGE	IQUANT	3	I/E Range
POSFEEDENABLE	TOGGLE	F	Positive Feedback IR Comp
POSFEEDRESISTANCE	QUANT	0	Positive Feedback Resistance (ohm)
ACHSELECT	IQUANT	0	Ach Select
CABLEID	IQUANT	14	Cable ID
DCCALDATE	LABEL	8/19/2019	DC Calibration Date
ACCALDATE	LABEL	8/19/2019	AC Calibration Date
THERMOSELECT	IQUANT	1	Thermo Select
FRAMEWORKVERSION	QUANT	6.33	Framework Version
INSTRUMENTVERSION	LABEL	3.50	Instrument Version
ZCURVE	TABLE
	Pt	Time	Freq	Zreal	Zimag	Zsig	Zmod	Zphz	Idc	Vdc	IERange
	#	s	Hz	ohm	ohm	V	ohm	°	A	V	#
	0	2	1000078	2516.251	-2031.49	1	3233.956	-38.9156	1.818601E-006	0.0075422	8
	1	4	794390.6	2935.953	-1979.148	1	3540.741	-33.9842	-4.737879E-007	0.0074396	8
	2	5	630984.4	3319.306	-1845.286	1	3797.746	-29.07079	1.590484E-006	0.0071008	8
	3	6	501234.4	3649	-1687.243	1	4020.198	-24.81512	-1.001749E-006	0.0074544	8
	4	8	398109.4	3920.446	-1512.453	1	4202.072	-21.09591	1.392132E-006	0.0069822	8
	5	9	316265.6	4108.729	-1313.099	1	4313.454	-17.72323	2.432345E-006	0.0067171	8
	6	11	251203.1	4294.953	-1149.601	1	4446.145	-14.98472	3.140176E-006	0.0066347	8
	7	12	199546.9	4388.335	-991.616	1	4498.976	-12.73307	-7.626739E-007	0.0073302	8
	8	13	158578.1	4485.829	-870.1668	1	4569.447	-10.97797	3.176797E-007	0.0070863	8
	9	15	125953.1	4564.637	-749.4952	1	4625.76	-9.324534	-8.741284E-007	0.0088501	7
	10	16	100078.1	4619.577	-688.9841	1	4670.674	-8.482817	-2.648096E-008	0.0071557	7
	11	18	79453.13	4676.557	-646.17	1	4720.987	-7.866872	-2.442913E-008	0.0071554	7
	12	19	63140.62	4729.024	-621.9935	1	4769.753	-7.492922	5.126713E-008	0.0070225	7
	13	20	50203.12	4777.618	-615.6465	1	4817.121	-7.342702	-8.489452E-009	0.0071568	7
	14	22	39890.62	4828.909	-624.631	1	4869.14	-7.370422	9.66518E-010	0.0070911	7
	15	23	31640.63	4881.507	-649.014	1	4924.463	-7.573266	-1.285568E-008	0.0072152	7
	16	24	25171.88	4936.761	-687.1163	1	4984.35	-7.923729	-1.677495E-008	0.0071261	7
	17	26	20015.62	4993.2	-745.4274	1	5048.535	-8.490894	-3.899361E-008	0.0071876	7
	18	27	15890.62	5055.48	-821.7118	1	5121.825	-9.232054	-2.399E-008	0.0071466	7
	19	28	12609.37	5122.935	-921.4819	1	5205.15	-10.19697	-3.774748E-009	0.0071486	7
	20	30	10078.13	5192.372	-1043.15	1	5296.12	-11.35954	-1.234309E-008	0.0072127	7
	21	31	8015.625	5274.099	-1193.335	1	5407.418	-12.74926	-3.072373E-008	0.007186	7
	22	32	6328.125	5365.776	-1390.383	1	5542.988	-14.52701	8.143842E-008	0.0070078	7
	23	34	5015.625	5466.604	-1625.059	1	5703.032	-16.55565	5.272826E-008	0.007016	7
	24	35	3984.375	5584.987	-1912.052	1	5903.222	-18.89893	-1.208682E-008	0.0072103	7
	25	36	3170.956	5718.502	-2251.867	1	6145.907	-21.49383	8.420444E-008	0.0070214	7
	26	38	2527.573	5874.649	-2660.25	1	6448.91	-24.36271	-1.904764E-008	0.0072136	7
	27	39	1976.103	6078.222	-3200.791	1	6869.487	-27.77129	-1.945518E-008	0.0072109	7
	28	40	1577.524	6294.45	-3790.412	1	7347.607	-31.05564	-2.69023E-008	0.0071417	7
	29	42	1265.625	6540.612	-4489.211	1	7933.008	-34.46413	-1.148379E-008	0.0072155	7
	30	43	998.264	6864.565	-5381.154	1	8722.332	-38.09301	-2.960882E-008	0.0071399	7
	31	44	796.875	7218.242	-6410.878	1	9654.14	-41.60987	-7.289763E-009	0.0071454	7
	32	46	627.7902	7669.602	-7707.465	1	10873.26	-45.14108	1.111311E-008	0.0068808	6
	33	47	505.5147	8141.275	-9129.568	1	12232.31	-48.27508	-2.14271E-009	0.0071545	6
	34	49	397.9953	8749.513	-11013.05	1	14065.6	-51.53399	8.89648E-010	0.0070815	6
	35	50	315.5048	9444.863	-13235.12	1	16259.58	-54.48754	7.352163E-010	0.0070806	6
	36	52	252.4038	10228.23	-15812.96	1	18832.59	-57.10419	7.377107E-010	0.0070766	6
	37	53	198.6229	11229.35	-19174.42	1	22220.64	-59.64497	9.137018E-010	0.0070743	6
	38	54	158.3615	12362.13	-23034.21	1	26141.87	-61.77817	6.450404E-010	0.0070803	6
	39	56	125.558	13759.39	-27834.24	1	31049.41	-63.69528	8.536586E-010	0.0070785	6
	40	57	100.4464	15380.77	-33434.34	1	36802.48	-65.2962	8.559902E-010	0.0070746	6
	41	58	79.00281	17497.11	-40739.7	1	44338.16	-66.75718	6.017172E-010	0.0070777	6
	42	60	63.3446	20007.97	-48679.38	1	52630.8	-67.65659	5.323333E-010	0.0070743	6
	43	61	49.86702	22993.24	-59505.03	1	63792.93	-68.87305	7.384545E-010	0.0070738	6
	44	62	39.72458	26906.55	-71691.45	1	76574.32	-69.42837	7.649988E-010	0.0070737	6
	45	64	31.6723	31434.45	-86278.37	1	91826.37	-69.98141	7.20127E-010	0.007071	6
	46	65	24.93351	37603.8	-104932.2	1	111466.7	-70.28421	2.691256E-010	0.007077	5
	47	66	19.86229	44875.52	-126328.9	1	134062.7	-70.44355	4.717909E-010	0.007077	5
	48	68	15.83615	54246.6	-151948.6	1	161341.5	-70.35312	-3.221149E-011	0.0070749	5
	49	69	12.40079	66373.42	-185301.3	1	196829.9	-70.29288	3.167201E-010	0.0070764	5
	50	71	9.93114	80183.26	-220596.7	1	234717.4	-70.02464	6.373324E-010	0.0070791	5
	51	72	7.944915	98047.7	-263152.6	1	280824.9	-69.56518	6.603228E-010	0.0070727	5
	52	74	6.317385	120680.9	-315133.3	1	337450.5	-69.04556	2.058455E-010	0.0070919	5
	53	76	5.008013	150053.3	-376841.1	1	405617	-68.28819	9.841776E-011	0.0070726	5
	54	78	3.945707	189086	-450072.9	1	488179.4	-67.2116	3.927741E-010	0.0070887	5
	55	81	3.158693	234554.1	-530619.2	1	580148.6	-66.15273	5.296108E-011	0.0070654	5
	56	84	2.504006	294407	-624705.2	1	690602.7	-64.76675	4.088104E-010	0.0070717	5
	57	87	1.998082	365157.1	-726799.9	1	813374.3	-63.32424	1.526583E-010	0.0071223	5
	58	90	1.584686	451378.3	-843312.7	1	956514	-61.84234	2.361118E-010	0.0071136	5
	59	93	1.266892	554417.8	-966295	1	1114049	-60.15468	1.759169E-011	0.0071204	4
	60	98	0.999041	679723.4	-1103607	1	1296138	-58.37065	1.972472E-010	0.0070561	4
