EXPLAIN
TAG	EISPOT
TITLE	LABEL	Potentiostatic IDE	Test &Identifier
DATE	LABEL	9/14/2019	Date
TIME	LABEL	9:14:47	Time
NOTES	NOTES	1	&Notes...
	
PSTAT	PSTAT	REF600-11020	Potentiostat
VDC	POTEN	0.00000E+000	T	DC &Voltage (V)
FREQINIT	QUANT	1.00000E+006	Initial Fre&q. (Hz)
FREQFINAL	QUANT	1.00000E+000	Final Fre&q. (Hz)
PTSPERDEC	QUANT	1.00000E+001	Points/&decade
VAC	QUANT	2.50000E+001	AC &Voltage (mV rms)
AREA	QUANT	1.00000E-002	&Area (cm^2)
CONDIT	TWOPARAM	T	5.00000E+000	0.00000E+000	Conditionin&g	Time(s)	E(V)
DELAY	TWOPARAM	T	5.00000E+000	0.00000E+000	Init. De&lay	Time(s)	Stab.(mV/s)
SPEED	SELECTOR	1	&Optimize for:
ZGUESS	QUANT	1.00000E+007	E&stimated Z (ohms)
OCVCURVE	TABLE	19
	Pt	T	Vf	Vm	Ach	Over
	#	s	V vs. Ref.	V	V	bits
	0	0.258333	9.05492E-003	9.05492E-003	5.62232E-004	...........
	1	0.516667	9.05742E-003	9.18566E-003	5.61366E-004	...........
	2	0.775	9.07307E-003	9.32617E-003	5.62566E-004	...........
	3	1.03333	9.11851E-003	9.46629E-003	5.61632E-004	...........
	4	1.29167	9.20245E-003	9.60963E-003	5.60899E-004	...........
	5	1.55	9.31852E-003	9.75045E-003	5.57799E-004	...........
	6	1.80833	9.45296E-003	9.88593E-003	5.55333E-004	...........
	7	2.06667	9.59400E-003	1.00201E-002	5.56266E-004	...........
	8	2.325	9.73483E-003	1.01491E-002	5.57066E-004	...........
	9	2.58333	9.87258E-003	1.02755E-002	5.66066E-004	...........
	10	2.84167	1.00065E-002	1.03973E-002	5.65366E-004	...........
	11	3.1	1.01365E-002	1.05153E-002	5.63266E-004	...........
	12	3.35833	1.02626E-002	1.06300E-002	5.63532E-004	...........
	13	3.61667	1.03850E-002	1.07434E-002	5.66766E-004	...........
	14	3.875	1.05038E-002	1.08507E-002	5.63699E-004	...........
	15	4.13333	1.06193E-002	1.09587E-002	5.60066E-004	...........
	16	4.39167	1.07315E-002	1.10562E-002	5.61599E-004	...........
	17	4.65	1.08405E-002	1.11564E-002	5.65366E-004	...........
	18	4.90833	1.09457E-002	1.12493E-002	5.62932E-004	...........
EOC	QUANT	0.0109457	Open Circuit (V)
PSTATMODEL	IQUANT	4	Pstat Model
PSTATSECTION	LABEL	REF600-11020	Pstat Section
PSTATSERIALNO	LABEL	11020	Pstat Serial Number
CTRLMODE	IQUANT	1	Control Mode
IESTAB	IQUANT	0	I/E Stability
CASPEED	IQUANT	1	Control Amp Speed
CONVENTION	IQUANT	1	Current Convention
ICHRANGE	IQUANT	2	Ich Range
ICHRANGEMODE	TOGGLE	F	Ich Auto Range
ICHOFFSETENABLE	TOGGLE	T	Ich Offset Enable
ICHOFFSET	QUANT	0	Ich Offset (V)
ICHFILTER	IQUANT	3	Ich Filter
VCHRANGE	IQUANT	2	Vch Range
VCHRANGEMODE	TOGGLE	F	Vch Auto Range
VCHOFFSETENABLE	TOGGLE	T	Vch Offset Enable
VCHOFFSET	QUANT	0	Vch Offset (V)
VCHFILTER	IQUANT	3	Vch Filter
ACHRANGE	IQUANT	2	Ach Range
ACHOFFSETENABLE	TOGGLE	F	Ach Offset Enable
ACHOFFSET	QUANT	0	Ach Offset (V)
ACHFILTER	IQUANT	3	Ach Filter
IERANGELOWERLIMIT	IQUANT	1	I/E Range Lower Limit
IERANGEMODE	TOGGLE	F	I/E AutoRange
IERANGE	IQUANT	3	I/E Range
POSFEEDENABLE	TOGGLE	F	Positive Feedback IR Comp
POSFEEDRESISTANCE	QUANT	0	Positive Feedback Resistance (ohm)
ACHSELECT	IQUANT	0	Ach Select
CABLEID	IQUANT	14	Cable ID
DCCALDATE	LABEL	8/19/2019	DC Calibration Date
ACCALDATE	LABEL	8/19/2019	AC Calibration Date
THERMOSELECT	IQUANT	1	Thermo Select
FRAMEWORKVERSION	QUANT	6.33	Framework Version
INSTRUMENTVERSION	LABEL	3.50	Instrument Version
ZCURVE	TABLE
	Pt	Time	Freq	Zreal	Zimag	Zsig	Zmod	Zphz	Idc	Vdc	IERange
	#	s	Hz	ohm	ohm	V	ohm	°	A	V	#
	0	2	1000078	2384.51	-1696.777	1	2926.592	-35.43502	5.477968E-007	0.0137196	8
	1	4	794390.6	2721.376	-1633.168	1	3173.819	-30.96906	-1.212111E-006	0.0129114	8
	2	5	630984.4	3037.09	-1516.868	1	3394.82	-26.53974	6.403048E-006	0.0116912	8
	3	7	501234.4	3246.872	-1352.354	1	3517.249	-22.61221	-8.422417E-007	0.0125812	8
	4	8	398109.4	3476.38	-1193.929	1	3675.688	-18.95454	-1.912878E-006	0.0131307	8
	5	9	316265.6	3651.15	-1043.534	1	3797.349	-15.95045	-1.983653E-006	0.0132191	8
	6	11	251203.1	3773.336	-913.1337	1	3882.251	-13.60384	1.802217E-007	0.0124672	8
	7	12	199546.9	3860.61	-795.2766	1	3941.671	-11.63997	-8.802408E-007	0.0130073	8
	8	13	158578.1	3918.311	-691.8339	1	3978.919	-10.01319	-4.726461E-006	0.0135417	8
	9	15	125953.1	4001.273	-542.783	1	4037.92	-7.725164	-7.019185E-007	0.0146827	7
	10	16	100078.1	4038.517	-497.7834	1	4069.079	-7.026776	9.216644E-008	0.0124077	7
	11	18	79453.13	4076.214	-468.8285	1	4103.086	-6.561083	-4.091416E-008	0.0125816	7
	12	19	63140.62	4113.791	-452.1817	1	4138.567	-6.272686	3.224671E-009	0.0125658	7
	13	20	50203.12	4151.544	-445.9632	1	4175.429	-6.13126	7.676906E-008	0.0124527	7
	14	22	39890.62	4191.6	-451.0226	1	4215.795	-6.141484	-8.661726E-008	0.0128326	7
	15	23	31640.63	4233.489	-468.0464	1	4259.283	-6.30889	1.346535E-007	0.0123888	7
	16	24	25171.88	4279.7	-494.0181	1	4308.118	-6.584674	-6.182884E-009	0.0125237	7
	17	26	20015.62	4330.114	-529.6818	1	4362.39	-6.974067	-2.618716E-008	0.012562	7
	18	27	15890.62	4384.314	-573.9443	1	4421.722	-7.458098	5.914048E-009	0.0125583	7
	19	28	12609.37	4445.703	-633.0653	1	4490.551	-8.104397	-8.436385E-008	0.0126774	7
	20	30	10078.13	4510.044	-696.3138	1	4563.48	-8.776701	-6.465492E-008	0.0126604	7
	21	31	8015.625	4581.886	-777.4786	1	4647.381	-9.63052	-2.732015E-008	0.0125585	7
	22	32	6328.125	4664.579	-875.4684	1	4746.023	-10.62986	7.711596E-008	0.0124508	7
	23	34	5015.625	4755.156	-986.547	1	4856.417	-11.72081	-6.340787E-008	0.0126521	7
	24	35	3984.375	4848.317	-1115.214	1	4974.925	-12.9539	5.235164E-008	0.0124174	7
	25	36	3170.956	4952.18	-1267.169	1	5111.732	-14.35294	-2.811088E-008	0.0125471	7
	26	38	2527.573	5061.268	-1446.22	1	5263.837	-15.94689	-2.784053E-008	0.012555	7
	27	39	1976.103	5187.44	-1679.513	1	5452.55	-17.94015	1.379711E-007	0.0123916	7
	28	41	1577.524	5313.922	-1935.383	1	5655.394	-20.01212	5.218913E-008	0.01242	7
	29	42	1265.625	5443.602	-2231.592	1	5883.265	-22.29107	5.447069E-008	0.0124208	7
	30	43	998.264	5591.968	-2639.499	1	6183.612	-25.26806	9.593415E-008	0.0123923	7
	31	45	796.875	5738.411	-3110.485	1	6527.211	-28.45975	1.608888E-008	0.0126783	7
	32	46	627.7902	5911.89	-3720.893	1	6985.376	-32.18596	1.742848E-008	0.0126799	7
	33	47	505.5147	6083.308	-4399.302	1	7507.363	-35.87355	-2.151782E-008	0.0126264	7
	34	49	397.9953	6296.755	-5332.275	1	8251.199	-40.2589	5.87896E-009	0.0125956	7
	35	50	315.5048	6527.801	-6456.797	1	9181.635	-44.68669	5.684762E-009	0.0125888	7
	36	51	252.4038	6785.688	-7793.501	1	10333.64	-48.95439	8.501657E-010	0.0125265	6
	37	53	198.6229	7107.055	-9577.84	1	11926.66	-53.42344	1.51675E-010	0.012526	6
	38	54	158.3615	7470.727	-11677	1	13862.32	-57.38964	2.448051E-010	0.0125282	6
	39	55	125.558	7928.066	-14334.82	1	16381.12	-61.05461	2.664804E-010	0.0125304	6
	40	57	100.4464	8497.685	-17491.93	1	19446.8	-64.08924	9.453273E-010	0.01252	6
	41	58	79.00281	9248.187	-21653.25	1	23545.53	-66.87248	6.647718E-010	0.0125172	6
	42	59	63.3446	10301.65	-26634.14	1	28556.99	-68.85435	-1.893187E-010	0.0125197	6
	43	61	49.86702	11275.96	-32675.06	1	34565.97	-70.96077	5.09125E-010	0.0125185	6
	44	62	39.72458	13089.38	-40194.57	1	42272.16	-71.96213	-1.335347E-010	0.0125233	6
	45	63	31.6723	15031.25	-49135.7	1	51383.41	-72.99045	1.949701E-010	0.0125227	6
	46	65	24.93351	18143.25	-60678.79	1	63333.18	-73.35308	1.016535E-010	0.0125209	6
	47	66	19.86229	21958.01	-73983.82	1	77173.57	-73.46939	6.506608E-011	0.0125287	6
	48	67	15.83615	27321.7	-90333.76	1	94375.12	-73.17191	1.192825E-009	0.0125219	6
	49	69	12.40079	34351.81	-110143	1	115375.5	-72.67814	-1.639753E-009	0.0125344	5
	50	70	9.93114	42189.29	-132998.2	1	139529.4	-72.40009	-1.851451E-010	0.0125283	5
	51	72	7.944915	52484.01	-159411.9	1	167829.4	-71.77663	2.311809E-010	0.0125208	5
	52	73	6.317385	67194.49	-191163.9	1	202629.5	-70.63332	-7.500771E-012	0.0125149	5
	53	75	5.008013	85481.28	-228776.6	1	244224.9	-69.51204	-2.515213E-011	0.0125376	5
	54	78	3.945707	109256	-273022.6	1	294071.8	-68.19009	-4.30576E-010	0.0125238	5
	55	81	3.158693	136796	-321331.3	1	349237.7	-66.93975	-7.993184E-012	0.0125448	5
	56	84	2.504006	172553.1	-377909.5	1	415439.7	-65.4586	-4.250301E-010	0.0125364	5
	57	87	1.998082	213933.7	-439420.3	1	488730.8	-64.04066	6.995678E-011	0.0125044	5
	58	90	1.584686	266237.7	-511209.8	1	576383.6	-62.48954	-1.694485E-010	0.0124807	5
	59	93	1.266892	323955	-587303.1	1	670724.8	-61.11897	1.603917E-010	0.0125226	5
	60	98	0.999041	397460.2	-676616.8	1	784719.6	-59.56905	-3.608366E-010	0.0125075	5
