EXPLAIN
TAG	EISPOT
TITLE	LABEL	Potentiostatic EIS	Test &Identifier
DATE	LABEL	10/14/2019	Date
TIME	LABEL	12:00:45	Time
NOTES	NOTES	1	&Notes...
	
PSTAT	PSTAT	REF600-11020	Potentiostat
VDC	POTEN	0.00000E+000	T	DC &Voltage (V)
FREQINIT	QUANT	1.00000E+006	Initial Fre&q. (Hz)
FREQFINAL	QUANT	1.00000E+000	Final Fre&q. (Hz)
PTSPERDEC	QUANT	1.00000E+001	Points/&decade
VAC	QUANT	2.50000E+001	AC &Voltage (mV rms)
AREA	QUANT	1.00000E-002	&Area (cm^2)
CONDIT	TWOPARAM	T	5.00000E+000	0.00000E+000	Conditionin&g	Time(s)	E(V)
DELAY	TWOPARAM	T	5.00000E+000	0.00000E+000	Init. De&lay	Time(s)	Stab.(mV/s)
SPEED	SELECTOR	1	&Optimize for:
ZGUESS	QUANT	1.00000E+004	E&stimated Z (ohms)
OCVCURVE	TABLE	19
	Pt	T	Vf	Vm	Ach	Over
	#	s	V vs. Ref.	V	V	bits
	0	0.258333	5.85397E-003	5.85397E-003	5.71032E-004	...........
	1	0.516667	5.84665E-003	5.47085E-003	5.69066E-004	...........
	2	0.775	5.80330E-003	5.19103E-003	5.79399E-004	...........
	3	1.03333	5.68834E-003	5.04711E-003	5.74966E-004	...........
	4	1.29167	5.49760E-003	4.61159E-003	5.73766E-004	...........
	5	1.55	5.24931E-003	4.08989E-003	5.77566E-004	...........
	6	1.80833	4.94703E-003	3.81403E-003	5.73965E-004	...........
	7	2.06667	4.60548E-003	4.06920E-003	5.74899E-004	...........
	8	2.325	4.29112E-003	3.83626E-003	5.72699E-004	...........
	9	2.58333	4.06981E-003	3.73655E-003	5.74699E-004	...........
	10	2.84167	3.93634E-003	3.68490E-003	5.71132E-004	...........
	11	3.1	3.84373E-003	3.60505E-003	5.71832E-004	...........
	12	3.35833	3.76317E-003	3.55663E-003	5.72399E-004	...........
	13	3.61667	3.68932E-003	3.51438E-003	5.75132E-004	...........
	14	3.875	3.62366E-003	3.46783E-003	5.74399E-004	...........
	15	4.13333	3.56696E-003	3.42589E-003	5.72866E-004	...........
	16	4.39167	3.51742E-003	3.38387E-003	5.75432E-004	...........
	17	4.65	3.47231E-003	3.34768E-003	5.79266E-004	...........
	18	4.90833	3.42988E-003	3.30964E-003	5.79532E-004	...........
EOC	QUANT	0.0034299	Open Circuit (V)
PSTATMODEL	IQUANT	4	Pstat Model
PSTATSECTION	LABEL	REF600-11020	Pstat Section
PSTATSERIALNO	LABEL	11020	Pstat Serial Number
CTRLMODE	IQUANT	1	Control Mode
IESTAB	IQUANT	0	I/E Stability
CASPEED	IQUANT	1	Control Amp Speed
CONVENTION	IQUANT	1	Current Convention
ICHRANGE	IQUANT	2	Ich Range
ICHRANGEMODE	TOGGLE	F	Ich Auto Range
ICHOFFSETENABLE	TOGGLE	T	Ich Offset Enable
ICHOFFSET	QUANT	0	Ich Offset (V)
ICHFILTER	IQUANT	3	Ich Filter
VCHRANGE	IQUANT	2	Vch Range
VCHRANGEMODE	TOGGLE	F	Vch Auto Range
VCHOFFSETENABLE	TOGGLE	T	Vch Offset Enable
VCHOFFSET	QUANT	0	Vch Offset (V)
VCHFILTER	IQUANT	3	Vch Filter
ACHRANGE	IQUANT	2	Ach Range
ACHOFFSETENABLE	TOGGLE	F	Ach Offset Enable
ACHOFFSET	QUANT	0	Ach Offset (V)
ACHFILTER	IQUANT	3	Ach Filter
IERANGELOWERLIMIT	IQUANT	1	I/E Range Lower Limit
IERANGEMODE	TOGGLE	F	I/E AutoRange
IERANGE	IQUANT	5	I/E Range
POSFEEDENABLE	TOGGLE	F	Positive Feedback IR Comp
POSFEEDRESISTANCE	QUANT	0	Positive Feedback Resistance (ohm)
ACHSELECT	IQUANT	0	Ach Select
CABLEID	IQUANT	14	Cable ID
DCCALDATE	LABEL	8/19/2019	DC Calibration Date
ACCALDATE	LABEL	8/19/2019	AC Calibration Date
THERMOSELECT	IQUANT	1	Thermo Select
FRAMEWORKVERSION	QUANT	6.33	Framework Version
INSTRUMENTVERSION	LABEL	3.50	Instrument Version
ZCURVE	TABLE
	Pt	Time	Freq	Zreal	Zimag	Zsig	Zmod	Zphz	Idc	Vdc	IERange
	#	s	Hz	ohm	ohm	V	ohm	°	A	V	#
	0	1	1000078	2582.884	-1900.945	1	3207.005	-36.35223	5.518126E-006	0.0045673	8
	1	3	794390.6	2964.835	-1838.311	1	3488.5	-31.8005	3.440377E-006	0.0044443	8
	2	5	630984.4	3318.389	-1726.777	1	3740.784	-27.49094	8.214697E-008	0.0051187	8
	3	6	501234.4	3618.677	-1598.149	1	3955.87	-23.82813	4.117112E-006	0.0043839	8
	4	7	398109.4	3836.644	-1394.617	1	4082.253	-19.97617	4.034368E-006	0.0043434	8
	5	9	316265.6	4043.398	-1271.124	1	4238.493	-17.4516	-2.720066E-006	0.0054098	8
	6	10	251203.1	4216.397	-1111.974	1	4360.561	-14.774	6.254964E-007	0.0049675	8
	7	12	199546.9	4330.584	-1006.651	1	4446.044	-13.08609	-1.156818E-006	0.0054274	8
	8	13	158578.1	4406.772	-887.478	1	4495.248	-11.38647	3.581062E-007	0.0051229	8
	9	15	125953.1	4543.813	-754.6808	1	4606.06	-9.430158	-1.349412E-008	0.0051473	7
	10	16	100078.1	4581.224	-708.0416	1	4635.616	-8.785717	-7.101204E-008	0.0051436	7
	11	17	79453.13	4645.187	-678.2641	1	4694.443	-8.307302	-5.57653E-009	0.0050752	7
	12	19	63140.62	4708.876	-664.1177	1	4755.478	-8.027779	9.286421E-009	0.0049677	7
	13	20	50203.12	4769.248	-664.1511	1	4815.27	-7.927854	-3.793877E-008	0.0050444	7
	14	21	39890.62	4833.963	-678.6572	1	4881.371	-7.991724	4.700873E-008	0.0048766	7
	15	23	31640.63	4900.783	-709.2687	1	4951.841	-8.234988	-4.554293E-008	0.0051137	7
	16	24	25171.88	4971.509	-753.8604	1	5028.341	-8.622423	-4.146426E-008	0.005105	7
	17	25	20015.62	5053.506	-806.8904	1	5117.519	-9.071808	-6.703266E-009	0.0050391	7
	18	27	15890.62	5132.883	-885.904	1	5208.773	-9.79242	-2.071392E-009	0.0050348	7
	19	28	12609.37	5224.876	-978.317	1	5315.678	-10.60538	7.283413E-008	0.0049085	7
	20	29	10078.13	5329.235	-1083.925	1	5438.349	-11.49669	-1.608111E-008	0.0049882	7
	21	31	8015.625	5446.263	-1218.479	1	5580.902	-12.61098	1.376164E-007	0.004821	7
	22	32	6328.125	5578.167	-1370.555	1	5744.072	-13.80412	-1.845799E-008	0.0050744	7
	23	34	5015.625	5727.084	-1546.634	1	5932.248	-15.11257	-4.141425E-008	0.005069	7
	24	35	3984.375	5889.797	-1757.115	1	6146.313	-16.61153	1.354026E-007	0.0048252	7
	25	36	3170.956	6080.854	-1983.609	1	6396.208	-18.06662	-3.097176E-008	0.0050227	7
	26	38	2527.573	6285.121	-2246.59	1	6674.572	-19.66922	1.357249E-007	0.0048155	7
	27	39	1976.103	6529.522	-2574.32	1	7018.674	-21.51726	-3.854873E-008	0.005053	7
	28	40	1577.524	6814.455	-2877.539	1	7397.096	-22.89287	-5.117013E-008	0.0050624	7
	29	42	1265.625	7033.736	-3325.187	1	7780.123	-25.30236	7.612575E-009	0.005109	7
	30	43	998.264	7329.547	-3831.461	1	8270.571	-27.59795	-5.872564E-008	0.0050794	7
	31	44	796.875	7620.82	-4400.987	1	8800.317	-30.00623	8.404873E-009	0.0049644	7
	32	46	627.7902	7949.829	-5136.03	1	9464.596	-32.8647	-1.097232E-008	0.0050973	6
	33	47	505.5147	8251.211	-5955.784	1	10176.14	-35.82203	-1.757231E-010	0.0049985	6
	34	48	397.9953	8609.788	-7070.668	1	11141.04	-39.39407	4.518707E-010	0.0049671	6
	35	50	315.5048	8979.773	-8424.246	1	12312.77	-43.17177	4.671852E-010	0.0049694	6
	36	51	252.4038	9372.74	-10042.06	1	13736.49	-46.97447	2.886466E-010	0.0049685	6
	37	52	198.6229	9854.61	-12207.71	1	15688.9	-51.08799	7.777627E-010	0.004962	6
	38	54	158.3615	10398	-14762.27	1	18056.67	-54.84054	5.187141E-010	0.0049604	6
	39	55	125.558	11073.91	-18000.4	1	21134	-58.40004	5.557398E-010	0.0049667	6
	40	56	100.4464	11904.19	-21849.51	1	24881.94	-61.41729	8.651573E-010	0.0049634	6
	41	58	79.00281	13006.8	-26918.22	1	29895.95	-64.21031	2.261505E-010	0.0049578	6
	42	59	63.3446	14242.61	-32763.91	1	35725.7	-66.50521	1.644732E-010	0.0049595	6
	43	61	49.86702	16350.98	-40122.95	1	43326.73	-67.82803	-6.399334E-011	0.0049572	6
	44	62	39.72458	18744.28	-49009.82	1	52472	-69.07016	1.627951E-010	0.0049608	6
	45	63	31.6723	21851.77	-59469.47	1	63357.07	-69.82439	4.351792E-010	0.0049559	6
	46	65	24.93351	26072.67	-72829.61	1	77355.91	-70.30286	3.055961E-010	0.0049576	6
	47	66	19.86229	31383.89	-87979.82	1	93409.84	-70.36782	1.824242E-010	0.0049564	6
	48	67	15.83615	37506.75	-105604.6	1	112067.3	-70.44688	-1.737341E-010	0.0049666	5
	49	69	12.40079	46522.06	-128357.8	1	136528.5	-70.07743	4.620141E-010	0.0049686	5
	50	70	9.93114	57290.96	-153103.3	1	163471.3	-69.48425	-1.123451E-011	0.0049703	5
	51	72	7.944915	70150.84	-181468.2	1	194555.5	-68.86481	4.504236E-010	0.004964	5
	52	73	6.317385	85715.59	-215349.7	1	231781.5	-68.29597	4.026272E-010	0.0049596	5
	53	75	5.008013	104847.5	-255832.7	1	276484	-67.71479	2.072811E-010	0.0049682	5
	54	78	3.945707	128218.5	-304471.3	1	330367.6	-67.16314	-6.957364E-012	0.0049637	5
	55	81	3.158693	154305.4	-357484.2	1	389365	-66.65292	1.387186E-010	0.0049606	5
	56	84	2.504006	185845.2	-422367.9	1	461446.7	-66.25012	5.845485E-011	0.0049748	5
	57	87	1.998082	222018.1	-495525.6	1	542989.5	-65.86544	2.00454E-010	0.0049319	5
	58	90	1.584686	265579	-586540.1	1	643864.5	-65.6395	6.851351E-011	0.0049256	5
	59	93	1.266892	316450.5	-686197.5	1	755650.7	-65.24249	1.747305E-010	0.00493	5
	60	98	0.999041	379247.9	-813515	1	897572.1	-65.00581	-3.817423E-011	0.0049719	5
