EXPLAIN
TAG	EISPOT
TITLE	LABEL	Potentiostatic EIS	Test &Identifier
DATE	LABEL	11/13/2019	Date
TIME	LABEL	0:23:55	Time
NOTES	NOTES	3	&Notes...
	
	
	
PSTAT	PSTAT	REF600-11020	Potentiostat
VDC	POTEN	0.00000E+000	T	DC &Voltage (V)
FREQINIT	QUANT	1.00000E+006	Initial Fre&q. (Hz)
FREQFINAL	QUANT	1.00000E+000	Final Fre&q. (Hz)
PTSPERDEC	QUANT	1.00000E+001	Points/&decade
VAC	QUANT	2.50000E+001	AC &Voltage (mV rms)
AREA	QUANT	1.00000E-002	&Area (cm^2)
CONDIT	TWOPARAM	T	5.00000E+000	0.00000E+000	Conditionin&g	Time(s)	E(V)
DELAY	TWOPARAM	T	5.00000E+000	0.00000E+000	Init. De&lay	Time(s)	Stab.(mV/s)
SPEED	SELECTOR	1	&Optimize for:
ZGUESS	QUANT	1.00000E+005	E&stimated Z (ohms)
OCVCURVE	TABLE	19
	Pt	T	Vf	Vm	Ach	Over
	#	s	V vs. Ref.	V	V	bits
	0	0.258333	6.17085E-003	6.17085E-003	5.73499E-004	...........
	1	0.516667	6.17097E-003	6.17690E-003	5.81765E-004	...........
	2	0.775	6.17209E-003	6.20419E-003	5.81165E-004	...........
	3	1.03333	6.17674E-003	6.23609E-003	5.77099E-004	...........
	4	1.29167	6.18839E-003	6.27754E-003	5.77966E-004	...........
	5	1.55	6.20940E-003	6.32629E-003	5.78499E-004	...........
	6	1.80833	6.24002E-003	6.37552E-003	5.85565E-004	...........
	7	2.06667	6.27895E-003	6.43110E-003	5.79699E-004	...........
	8	2.325	6.32439E-003	6.49086E-003	5.79999E-004	...........
	9	2.58333	6.37496E-003	6.55511E-003	5.86765E-004	...........
	10	2.84167	6.42960E-003	6.59970E-003	5.86165E-004	...........
	11	3.1	6.48598E-003	6.63462E-003	5.78765E-004	...........
	12	3.35833	6.54035E-003	6.68945E-003	5.78232E-004	...........
	13	3.61667	6.59088E-003	6.74863E-003	5.84599E-004	...........
	14	3.875	6.64010E-003	6.81996E-003	5.81432E-004	...........
	15	4.13333	6.69196E-003	6.85713E-003	5.84265E-004	...........
	16	4.39167	6.74741E-003	6.93045E-003	5.83065E-004	...........
	17	4.65	6.80409E-003	6.95169E-003	5.82699E-004	...........
	18	4.90833	6.85759E-003	6.94064E-003	5.90765E-004	...........
EOC	QUANT	0.0068576	Open Circuit (V)
PSTATMODEL	IQUANT	4	Pstat Model
PSTATSECTION	LABEL	REF600-11020	Pstat Section
PSTATSERIALNO	LABEL	11020	Pstat Serial Number
CTRLMODE	IQUANT	1	Control Mode
IESTAB	IQUANT	0	I/E Stability
CASPEED	IQUANT	1	Control Amp Speed
CONVENTION	IQUANT	1	Current Convention
ICHRANGE	IQUANT	2	Ich Range
ICHRANGEMODE	TOGGLE	F	Ich Auto Range
ICHOFFSETENABLE	TOGGLE	T	Ich Offset Enable
ICHOFFSET	QUANT	0	Ich Offset (V)
ICHFILTER	IQUANT	3	Ich Filter
VCHRANGE	IQUANT	2	Vch Range
VCHRANGEMODE	TOGGLE	F	Vch Auto Range
VCHOFFSETENABLE	TOGGLE	T	Vch Offset Enable
VCHOFFSET	QUANT	0	Vch Offset (V)
VCHFILTER	IQUANT	3	Vch Filter
ACHRANGE	IQUANT	2	Ach Range
ACHOFFSETENABLE	TOGGLE	F	Ach Offset Enable
ACHOFFSET	QUANT	0	Ach Offset (V)
ACHFILTER	IQUANT	3	Ach Filter
IERANGELOWERLIMIT	IQUANT	1	I/E Range Lower Limit
IERANGEMODE	TOGGLE	F	I/E AutoRange
IERANGE	IQUANT	5	I/E Range
POSFEEDENABLE	TOGGLE	F	Positive Feedback IR Comp
POSFEEDRESISTANCE	QUANT	0	Positive Feedback Resistance (ohm)
ACHSELECT	IQUANT	0	Ach Select
CABLEID	IQUANT	14	Cable ID
DCCALDATE	LABEL	8/19/2019	DC Calibration Date
ACCALDATE	LABEL	8/19/2019	AC Calibration Date
THERMOSELECT	IQUANT	1	Thermo Select
FRAMEWORKVERSION	QUANT	6.33	Framework Version
INSTRUMENTVERSION	LABEL	3.50	Instrument Version
ZCURVE	TABLE
	Pt	Time	Freq	Zreal	Zimag	Zsig	Zmod	Zphz	Idc	Vdc	IERange
	#	s	Hz	ohm	ohm	V	ohm	°	A	V	#
	0	2	1000078	2098.611	-1572.65	1	2622.479	-36.84703	-3.205523E-006	0.009699	8
	1	3	794390.6	2403.078	-1546.963	1	2857.95	-32.7711	-4.650842E-006	0.0091009	8
	2	4	630984.4	2693.98	-1473.849	1	3070.792	-28.68261	7.700212E-006	0.0076817	8
	3	6	501234.4	2954.82	-1391.143	1	3265.921	-25.21127	-1.542821E-006	0.0088942	8
	4	7	398109.4	3182.091	-1285.392	1	3431.9	-21.99603	8.139524E-008	0.0080281	8
	5	8	316265.6	3390.155	-1159.581	1	3582.985	-18.88293	1.906196E-006	0.0078664	8
	6	10	251203.1	3547.165	-1044.322	1	3697.7	-16.40497	1.792893E-006	0.0078689	8
	7	11	199546.9	3676.571	-918.0182	1	3789.45	-14.01975	5.492678E-006	0.0076376	8
	8	13	158578.1	3794.055	-831.8024	1	3884.167	-12.36579	-4.398519E-006	0.0086565	8
	9	14	125953.1	3889.338	-698.382	1	3951.543	-10.17973	1.246697E-006	0.0096522	7
	10	15	100078.1	3954.264	-629.4286	1	4004.046	-9.044304	4.587414E-007	0.0066668	7
	11	17	79453.13	4009.856	-580.1184	1	4051.603	-8.232043	-1.186358E-006	0.0096821	7
	12	18	63140.62	4072.756	-549.0261	1	4109.595	-7.677449	6.003482E-007	0.0084511	7
	13	20	50203.12	4119.116	-521.8844	1	4152.045	-7.220797	-8.618339E-007	0.0098883	7
	14	21	39890.62	4171.236	-509.4241	1	4202.228	-6.962929	-3.110744E-007	0.0074568	7
	15	22	31640.63	4218.482	-507.1064	1	4248.853	-6.85467	-8.624543E-007	0.0098897	7
	16	24	25171.88	4277.482	-517.64	1	4308.69	-6.900103	7.469963E-007	0.0065427	7
	17	25	20015.62	4322.609	-533.0225	1	4355.349	-7.029677	-3.111526E-007	0.0074509	7
	18	26	15890.62	4383.154	-561.0272	1	4418.913	-7.293984	7.464009E-007	0.0065429	7
	19	28	12609.37	4439.374	-598.3718	1	4479.519	-7.676486	6.02972E-007	0.0084403	7
	20	29	10078.13	4498.782	-642.9584	1	4544.495	-8.133538	6.020375E-007	0.0084437	7
	21	31	8015.625	4560.587	-707.3089	1	4615.11	-8.81586	9.44917E-007	0.0066164	7
	22	32	6328.125	4619.231	-777.3875	1	4684.189	-9.553	8.151812E-008	0.0091731	7
	23	33	5015.625	4681.736	-871.9158	1	4762.236	-10.54977	1.011224E-007	0.0069403	7
	24	35	3984.375	4741.176	-986.024	1	4842.623	-11.74835	-7.148794E-007	0.0081205	7
	25	36	3170.956	4803.305	-1135.47	1	4935.69	-13.30019	-1.183734E-006	0.009323	7
	26	38	2527.573	4875.135	-1323.251	1	5051.528	-15.18583	4.608901E-007	0.0066448	7
	27	39	1976.103	4955.8	-1575.357	1	5200.164	-17.6345	7.471854E-007	0.0065335	7
	28	40	1577.524	5029.876	-1871.053	1	5366.609	-20.4046	-3.093648E-007	0.0074452	7
	29	42	1265.625	5111.223	-2214.068	1	5570.161	-23.42119	-1.183142E-006	0.0093187	7
	30	43	998.264	5226.609	-2694.424	1	5880.252	-27.27203	1.070216E-006	0.007137	7
	31	45	796.875	5340.917	-3237.096	1	6245.333	-31.21979	-1.185361E-006	0.009311	7
	32	46	627.7902	5499.486	-3971.065	1	6783.34	-35.83227	1.026573E-007	0.0069311	7
	33	47	505.5147	5673.118	-4791.26	1	7425.661	-40.18293	7.448071E-007	0.006536	7
	34	49	397.9953	5914.992	-5880.041	1	8340.385	-44.83022	1.211137E-009	0.0082802	7
	35	50	315.5048	6211.563	-7192.685	1	9503.59	-49.18629	2.639511E-009	0.0082809	7
	36	52	252.4038	6574.11	-8730.446	1	10928.84	-53.0199	3.913393E-010	0.0082094	6
	37	53	198.6229	7070.204	-10746.29	1	12863.53	-56.65825	1.430799E-010	0.0082159	6
	38	54	158.3615	7670.095	-13066.68	1	15151.51	-59.58721	2.055188E-010	0.0082057	6
	39	56	125.558	8459.049	-15943.08	1	18048.2	-62.05056	7.017653E-010	0.0082144	6
	40	57	100.4464	9428.095	-19261.9	1	21445.51	-63.9197	1.326621E-009	0.0082127	6
	41	59	79.00281	10737.15	-23552.23	1	25884.24	-65.49238	9.046987E-011	0.0082169	6
	42	60	63.3446	12305.64	-28512.92	1	31055.04	-66.65588	-2.605771E-010	0.0082132	6
	43	61	49.86702	14185.9	-34562.34	1	37360.34	-67.68461	-1.432989E-010	0.0082017	6
	44	63	39.72458	16813.85	-41683.7	1	44947.04	-68.03246	7.167696E-010	0.0082168	6
	45	64	31.6723	19961.23	-50194.89	1	54018.31	-68.31355	7.401262E-010	0.0082074	6
	46	66	24.93351	24252.77	-60718.79	1	65383.24	-68.22687	1.034898E-009	0.008206	6
	47	67	19.86229	29503.37	-72777.04	1	78529.91	-67.93266	8.659485E-010	0.0082046	6
	48	68	15.83615	36256.92	-86244.64	1	93555.88	-67.1983	3.674865E-010	0.008212	6
	49	70	12.40079	45911.37	-103760.7	1	113464.2	-66.13187	9.97325E-010	0.0082163	5
	50	71	9.93114	56122.36	-122477.9	1	134724	-65.38158	-1.259759E-010	0.0082173	5
	51	73	7.944915	69401.34	-142729.1	1	158707.8	-64.06889	5.613494E-010	0.0082212	5
	52	75	6.317385	85589.45	-166174.8	1	186921.4	-62.74897	-4.472605E-010	0.0081985	5
	53	77	5.008013	105032.4	-192430.2	1	219228.6	-61.37337	9.43765E-010	0.0082225	5
	54	79	3.945707	128107.3	-221932.1	1	256252.5	-60.0049	1.340102E-011	0.0082135	5
	55	82	3.158693	152072.2	-252562.4	1	294811.4	-58.94712	7.654101E-011	0.0082354	5
	56	85	2.504006	180152.5	-288530.4	1	340154	-58.02018	-7.755134E-012	0.008204	5
	57	88	1.998082	209397.9	-328017.4	1	389156.7	-57.44688	-2.265023E-010	0.0082461	5
	58	91	1.584686	241709.8	-375803.2	1	446824	-57.25161	1.241029E-010	0.008221	5
	59	95	1.266892	277346.1	-429993.6	1	511678.9	-57.17797	-2.551247E-011	0.0082533	5
	60	99	0.999041	319028	-498489.3	1	591836.5	-57.38118	-1.214691E-010	0.0081758	5
