EXPLAIN
TAG	EISPOT
TITLE	LABEL	Potentiostatic IDE	Test &Identifier
DATE	LABEL	9/14/2019	Date
TIME	LABEL	12:41:41	Time
NOTES	NOTES	1	&Notes...
	
PSTAT	PSTAT	REF600-11020	Potentiostat
VDC	POTEN	0.00000E+000	T	DC &Voltage (V)
FREQINIT	QUANT	1.00000E+006	Initial Fre&q. (Hz)
FREQFINAL	QUANT	1.00000E+000	Final Fre&q. (Hz)
PTSPERDEC	QUANT	1.00000E+001	Points/&decade
VAC	QUANT	2.50000E+001	AC &Voltage (mV rms)
AREA	QUANT	1.00000E-002	&Area (cm^2)
CONDIT	TWOPARAM	T	5.00000E+000	0.00000E+000	Conditionin&g	Time(s)	E(V)
DELAY	TWOPARAM	T	5.00000E+000	0.00000E+000	Init. De&lay	Time(s)	Stab.(mV/s)
SPEED	SELECTOR	1	&Optimize for:
ZGUESS	QUANT	1.00000E+007	E&stimated Z (ohms)
OCVCURVE	TABLE	19
	Pt	T	Vf	Vm	Ach	Over
	#	s	V vs. Ref.	V	V	bits
	0	0.258333	1.85417E-003	1.85417E-003	5.82065E-004	...........
	1	0.516667	1.84680E-003	1.46816E-003	5.80732E-004	...........
	2	0.775	1.80189E-003	1.12182E-003	5.80065E-004	...........
	3	1.03333	1.67676E-003	8.24857E-004	5.81432E-004	...........
	4	1.29167	1.45859E-003	5.57298E-004	5.82332E-004	...........
	5	1.55	1.17963E-003	3.25430E-004	5.78599E-004	...........
	6	1.80833	8.85925E-004	7.83667E-005	5.83465E-004	...........
	7	2.06667	6.06153E-004	-1.47554E-004	5.78165E-004	...........
	8	2.325	3.47463E-004	-3.51910E-004	5.80332E-004	...........
	9	2.58333	1.07119E-004	-5.56819E-004	5.80232E-004	...........
	10	2.84167	-1.18080E-004	-7.36078E-004	5.77732E-004	...........
	11	3.1	-3.30636E-004	-9.57743E-004	5.77699E-004	...........
	12	3.35833	-5.34601E-004	-1.15050E-003	5.80999E-004	...........
	13	3.61667	-7.34799E-004	-1.33248E-003	5.81865E-004	...........
	14	3.875	-9.32722E-004	-1.50921E-003	5.83499E-004	...........
	15	4.13333	-1.12463E-003	-1.60831E-003	5.81499E-004	...........
	16	4.39167	-1.30066E-003	-1.61282E-003	5.82099E-004	...........
	17	4.65	-1.45099E-003	-1.95047E-003	5.79666E-004	...........
	18	4.90833	-1.58501E-003	-2.09930E-003	5.80665E-004	...........
EOC	QUANT	-0.001585	Open Circuit (V)
PSTATMODEL	IQUANT	4	Pstat Model
PSTATSECTION	LABEL	REF600-11020	Pstat Section
PSTATSERIALNO	LABEL	11020	Pstat Serial Number
CTRLMODE	IQUANT	1	Control Mode
IESTAB	IQUANT	0	I/E Stability
CASPEED	IQUANT	1	Control Amp Speed
CONVENTION	IQUANT	1	Current Convention
ICHRANGE	IQUANT	2	Ich Range
ICHRANGEMODE	TOGGLE	F	Ich Auto Range
ICHOFFSETENABLE	TOGGLE	T	Ich Offset Enable
ICHOFFSET	QUANT	0	Ich Offset (V)
ICHFILTER	IQUANT	3	Ich Filter
VCHRANGE	IQUANT	2	Vch Range
VCHRANGEMODE	TOGGLE	F	Vch Auto Range
VCHOFFSETENABLE	TOGGLE	T	Vch Offset Enable
VCHOFFSET	QUANT	0	Vch Offset (V)
VCHFILTER	IQUANT	3	Vch Filter
ACHRANGE	IQUANT	2	Ach Range
ACHOFFSETENABLE	TOGGLE	F	Ach Offset Enable
ACHOFFSET	QUANT	0	Ach Offset (V)
ACHFILTER	IQUANT	3	Ach Filter
IERANGELOWERLIMIT	IQUANT	1	I/E Range Lower Limit
IERANGEMODE	TOGGLE	F	I/E AutoRange
IERANGE	IQUANT	2	I/E Range
POSFEEDENABLE	TOGGLE	F	Positive Feedback IR Comp
POSFEEDRESISTANCE	QUANT	0	Positive Feedback Resistance (ohm)
ACHSELECT	IQUANT	0	Ach Select
CABLEID	IQUANT	14	Cable ID
DCCALDATE	LABEL	8/19/2019	DC Calibration Date
ACCALDATE	LABEL	8/19/2019	AC Calibration Date
THERMOSELECT	IQUANT	1	Thermo Select
FRAMEWORKVERSION	QUANT	6.33	Framework Version
INSTRUMENTVERSION	LABEL	3.50	Instrument Version
ZCURVE	TABLE
	Pt	Time	Freq	Zreal	Zimag	Zsig	Zmod	Zphz	Idc	Vdc	IERange
	#	s	Hz	ohm	ohm	V	ohm	°	A	V	#
	0	1	1000078	2261.896	-2058.734	1	3058.522	-42.30785	-4.3558E-006	0.0019222	8
	1	3	794390.6	2704.016	-2059.281	1	3398.873	-37.29158	3.848606E-007	0.0009645	8
	2	4	630984.4	3127.612	-1973.029	1	3697.945	-32.24545	2.190719E-007	0.0001449	8
	3	6	501234.4	3490.176	-1842.457	1	3946.642	-27.82949	-9.919345E-007	0.0005962	8
	4	7	398109.4	3802.5	-1657.34	1	4147.986	-23.55023	-1.780001E-008	4.33286E-005	8
	5	8	316265.6	4070.506	-1462.25	1	4325.182	-19.75984	-8.391267E-008	1.110856E-005	8
	6	10	251203.1	4255.167	-1288.427	1	4445.952	-16.84585	3.249671E-006	-0.0004773	8
	7	11	199546.9	4382.164	-1111.911	1	4521.029	-14.23751	4.854425E-006	-0.0010205	8
	8	12	158578.1	4508.608	-974.109	1	4612.639	-12.19167	-2.072767E-006	0.0004826	8
	9	14	125953.1	4635.885	-818.4875	1	4707.584	-10.01266	1.404595E-006	-0.0029043	7
	10	15	100078.1	4686.208	-724.4792	1	4741.879	-8.788248	-6.12029E-008	0.0001472	7
	11	16	79453.13	4746.344	-668.5227	1	4793.193	-8.017372	5.289424E-010	4.243447E-005	7
	12	18	63140.62	4800.084	-628.5389	1	4841.061	-7.460056	-5.923853E-008	0.0001346	7
	13	19	50203.12	4851.39	-607.5209	1	4889.281	-7.137774	-5.980426E-008	0.0001292	7
	14	20	39890.62	4899.007	-605.6717	1	4936.305	-7.047802	2.530808E-009	3.623915E-005	7
	15	22	31640.63	4954.913	-607.9663	1	4992.072	-6.99521	-8.61916E-009	0.000104	7
	16	23	25171.88	5008.572	-629.5916	1	5047.987	-7.164662	-4.301132E-008	6.007472E-005	7
	17	24	20015.62	5065.078	-666.9048	1	5108.794	-7.50083	-5.922917E-008	0.0001254	7
	18	26	15890.62	5129.795	-718.0944	1	5179.813	-7.968767	-4.310666E-008	5.852022E-005	7
	19	27	12609.37	5190.225	-788.9542	1	5249.846	-8.643234	-7.755979E-008	0.0002874	7
	20	28	10078.13	5257.841	-876.2225	1	5330.353	-9.461428	-4.546745E-009	3.362985E-005	7
	21	30	8015.625	5331.362	-983.878	1	5421.387	-10.45603	-2.661067E-008	3.784862E-005	7
	22	31	6328.125	5414	-1120.744	1	5528.785	-11.69552	4.63102E-008	-9.170413E-005	7
	23	32	5015.625	5503.876	-1288.487	1	5652.686	-13.17597	1.071638E-007	-5.105623E-005	7
	24	34	3984.375	5598.927	-1491.233	1	5794.114	-14.91408	8.685946E-008	-0.0001215	7
	25	35	3170.956	5705.831	-1734.596	1	5963.667	-16.90949	-3.723187E-009	3.305165E-005	7
	26	36	2527.573	5822.229	-2028.737	1	6165.559	-19.21073	-6.741259E-009	-1.886934E-005	7
	27	38	1976.103	5965.573	-2423.374	1	6439.006	-22.10829	-3.11685E-008	3.166115E-005	7
	28	39	1577.524	6115.721	-2866.657	1	6754.241	-25.11417	1.092967E-007	-5.429852E-005	7
	29	40	1265.625	6269.112	-3388.591	1	7126.312	-28.39219	8.585745E-008	-0.0001307	7
	30	42	998.264	6468.316	-4067.949	1	7641.16	-32.16595	-5.99402E-008	0.0001171	7
	31	43	796.875	6681.593	-4870.352	1	8268.253	-36.08908	2.025243E-009	2.763001E-005	7
	32	44	627.7902	6941.293	-5901.02	1	9110.631	-40.36895	-4.255243E-008	5.246909E-005	7
	33	46	505.5147	7225.461	-7046.338	1	10092.48	-44.28093	1.295259E-009	1.775712E-006	6
	34	47	397.9953	7576.698	-8596.815	1	11459.13	-48.60905	1.568507E-009	3.7499E-006	6
	35	48	315.5048	7977.941	-10457.74	1	13153.4	-52.66092	5.545653E-010	4.950364E-006	6
	36	49	252.4038	8434.683	-12651.61	1	15205.49	-56.30906	2.128513E-010	4.553918E-006	6
	37	51	198.6229	9025.699	-15559.92	1	17988.17	-59.88366	1.156318E-009	9.338966E-006	6
	38	52	158.3615	9719.74	-18948.62	1	21296.1	-62.84434	1.629108E-009	4.895615E-006	6
	39	53	125.558	10615.63	-23223.55	1	25534.78	-65.43456	9.377148E-010	5.381822E-006	6
	40	55	100.4464	11725.97	-28294.01	1	30627.59	-67.48928	1.65319E-009	1.625656E-006	6
	41	56	79.00281	13277.76	-34836.56	1	37281.16	-69.13593	1.198405E-009	-1.823128E-007	6
	42	57	63.3446	14577.35	-42699.87	1	45119.59	-71.15056	3.169933E-010	-5.010353E-006	6
	43	59	49.86702	17807.89	-51956.15	1	54923.24	-71.08092	6.700842E-010	-4.168819E-007	6
	44	60	39.72458	20744.12	-63765.21	1	67054.6	-71.97924	9.005817E-010	2.327302E-006	6
	45	62	31.6723	24834.52	-77247.17	1	81141.1	-72.1777	1.040702E-009	1.031968E-005	6
	46	63	24.93351	30933.61	-94733.5	1	99656	-71.91643	8.843257E-010	2.114311E-006	6
	47	65	19.86229	38046.32	-114508.2	1	120663.4	-71.62049	1.331242E-009	1.481723E-005	5
	48	66	15.83615	46099.36	-136355.4	1	143937.3	-71.32051	-5.35041E-010	1.102815E-005	5
	49	67	12.40079	59525.7	-168579	1	178779.7	-70.55174	1.313503E-009	9.517842E-006	5
	50	69	9.93114	76655.05	-198589.9	1	212870.7	-68.89357	5.876558E-010	3.925346E-006	5
	51	70	7.944915	95561.7	-234190.4	1	252937.1	-67.80202	-5.380881E-011	1.417393E-005	5
	52	72	6.317385	121394.3	-276874.1	1	302317.4	-66.32516	5.931013E-011	1.714123E-005	5
	53	74	5.008013	153378.2	-325638.8	1	359952.1	-64.77924	1.759324E-010	1.413273E-006	5
	54	76	3.945707	193360.1	-381051.6	1	427303.8	-63.09502	6.355951E-010	1.640167E-005	5
	55	79	3.158693	239538.5	-439257.7	1	500325.9	-61.39523	1.780541E-010	8.96264E-006	5
	56	82	2.504006	296382.7	-504875.5	1	585441.7	-59.58532	6.16651E-010	-5.051314E-006	5
	57	85	1.998082	360207.7	-573205.3	1	676988.9	-57.85435	9.040243E-011	3.958527E-005	5
	58	88	1.584686	436659.2	-649222.4	1	782407.2	-56.0757	3.4813E-010	5.374324E-005	5
	59	92	1.266892	518094.3	-726945.3	1	892676.4	-54.52251	-1.631519E-011	1.61899E-005	5
	60	96	0.999041	615771.6	-815582.8	1	1021934	-52.9469	4.582145E-010	1.401256E-005	4
