EXPLAIN
TAG	EISPOT
TITLE	LABEL	Potentiostatic EIS	Test &Identifier
DATE	LABEL	10/24/2019	Date
TIME	LABEL	9:40:00	Time
NOTES	NOTES	1	&Notes...
	
PSTAT	PSTAT	REF600-11020	Potentiostat
VDC	POTEN	0.00000E+000	T	DC &Voltage (V)
FREQINIT	QUANT	1.00000E+006	Initial Fre&q. (Hz)
FREQFINAL	QUANT	1.00000E+000	Final Fre&q. (Hz)
PTSPERDEC	QUANT	1.00000E+001	Points/&decade
VAC	QUANT	2.50000E+001	AC &Voltage (mV rms)
AREA	QUANT	1.00000E-002	&Area (cm^2)
CONDIT	TWOPARAM	T	5.00000E+000	0.00000E+000	Conditionin&g	Time(s)	E(V)
DELAY	TWOPARAM	T	5.00000E+000	0.00000E+000	Init. De&lay	Time(s)	Stab.(mV/s)
SPEED	SELECTOR	1	&Optimize for:
ZGUESS	QUANT	1.00000E+005	E&stimated Z (ohms)
OCVCURVE	TABLE	19
	Pt	T	Vf	Vm	Ach	Over
	#	s	V vs. Ref.	V	V	bits
	0	0.258333	1.04076E-003	1.04076E-003	5.33333E-004	...........
	1	0.516667	1.03845E-003	9.19471E-004	5.33866E-004	...........
	2	0.775	1.01168E-003	1.48155E-004	5.37633E-004	...........
	3	1.03333	9.01426E-004	-2.18254E-004	5.38733E-004	...........
	4	1.29167	6.54892E-004	-5.55951E-004	5.32333E-004	...........
	5	1.55	2.93539E-004	-8.51629E-004	5.35200E-004	...........
	6	1.80833	-1.04325E-004	-1.11669E-003	5.38899E-004	...........
	7	2.06667	-4.75723E-004	-1.37019E-003	5.46266E-004	...........
	8	2.325	-8.00799E-004	-1.61724E-003	5.39799E-004	...........
	9	2.58333	-1.08672E-003	-1.85368E-003	5.47733E-004	...........
	10	2.84167	-1.34731E-003	-2.07065E-003	5.45766E-004	...........
	11	3.1	-1.59187E-003	-2.26794E-003	5.44033E-004	...........
	12	3.35833	-1.82368E-003	-2.48704E-003	5.47866E-004	...........
	13	3.61667	-2.04454E-003	-2.69002E-003	5.43766E-004	...........
	14	3.875	-2.25739E-003	-2.87253E-003	5.51099E-004	...........
	15	4.13333	-2.46356E-003	-3.04090E-003	5.46499E-004	...........
	16	4.39167	-2.66046E-003	-3.17686E-003	5.43133E-004	...........
	17	4.65	-2.84423E-003	-3.34959E-003	5.42666E-004	...........
	18	4.90833	-3.01442E-003	-3.49147E-003	5.48266E-004	...........
EOC	QUANT	-0.0030144	Open Circuit (V)
PSTATMODEL	IQUANT	4	Pstat Model
PSTATSECTION	LABEL	REF600-11020	Pstat Section
PSTATSERIALNO	LABEL	11020	Pstat Serial Number
CTRLMODE	IQUANT	1	Control Mode
IESTAB	IQUANT	0	I/E Stability
CASPEED	IQUANT	1	Control Amp Speed
CONVENTION	IQUANT	1	Current Convention
ICHRANGE	IQUANT	2	Ich Range
ICHRANGEMODE	TOGGLE	F	Ich Auto Range
ICHOFFSETENABLE	TOGGLE	T	Ich Offset Enable
ICHOFFSET	QUANT	0	Ich Offset (V)
ICHFILTER	IQUANT	3	Ich Filter
VCHRANGE	IQUANT	2	Vch Range
VCHRANGEMODE	TOGGLE	F	Vch Auto Range
VCHOFFSETENABLE	TOGGLE	T	Vch Offset Enable
VCHOFFSET	QUANT	0	Vch Offset (V)
VCHFILTER	IQUANT	3	Vch Filter
ACHRANGE	IQUANT	2	Ach Range
ACHOFFSETENABLE	TOGGLE	F	Ach Offset Enable
ACHOFFSET	QUANT	0	Ach Offset (V)
ACHFILTER	IQUANT	3	Ach Filter
IERANGELOWERLIMIT	IQUANT	1	I/E Range Lower Limit
IERANGEMODE	TOGGLE	F	I/E AutoRange
IERANGE	IQUANT	4	I/E Range
POSFEEDENABLE	TOGGLE	F	Positive Feedback IR Comp
POSFEEDRESISTANCE	QUANT	0	Positive Feedback Resistance (ohm)
ACHSELECT	IQUANT	0	Ach Select
CABLEID	IQUANT	14	Cable ID
DCCALDATE	LABEL	8/19/2019	DC Calibration Date
ACCALDATE	LABEL	8/19/2019	AC Calibration Date
THERMOSELECT	IQUANT	1	Thermo Select
FRAMEWORKVERSION	QUANT	6.33	Framework Version
INSTRUMENTVERSION	LABEL	3.50	Instrument Version
ZCURVE	TABLE
	Pt	Time	Freq	Zreal	Zimag	Zsig	Zmod	Zphz	Idc	Vdc	IERange
	#	s	Hz	ohm	ohm	V	ohm	°	A	V	#
	0	2	1000078	2381.048	-2061.473	1	3149.454	-40.88548	-2.392144E-006	-0.0008126	8
	1	4	794390.6	2791.841	-2089.846	1	3487.382	-36.81688	3.584159E-008	-0.000922	8
	2	5	630984.4	3209.725	-2049.299	1	3808.144	-32.55684	5.72923E-007	-0.0012235	8
	3	6	501234.4	3587.963	-1952.288	1	4084.716	-28.55157	-9.180192E-007	-0.0011979	8
	4	8	398109.4	3938.574	-1806.834	1	4333.245	-24.64345	1.11945E-006	-0.0015843	8
	5	9	316265.6	4235.174	-1648.227	1	4544.596	-21.26478	-4.592699E-007	-0.0012122	8
	6	10	251203.1	4495.18	-1476.627	1	4731.498	-18.1849	-4.815736E-007	-0.0013085	8
	7	12	199546.9	4666.407	-1308.835	1	4846.484	-15.66776	2.934921E-006	-0.0020217	8
	8	13	158578.1	4829.352	-1160.966	1	4966.938	-13.51729	-2.454512E-006	-0.0009572	8
	9	14	125953.1	4978.928	-966.484	1	5071.865	-10.98534	-2.162215E-007	-0.0012327	7
	10	16	100078.1	5062.82	-855.7362	1	5134.63	-9.59367	-2.058174E-008	-0.0015056	7
	11	17	79453.13	5141.241	-775.0455	1	5199.333	-8.572824	6.488618E-008	-0.0016436	7
	12	19	63140.62	5206.658	-711.322	1	5255.023	-7.77946	-4.774635E-008	-0.0013437	7
	13	20	50203.12	5267.143	-669.4609	1	5309.517	-7.24353	-5.235323E-008	-0.0014179	7
	14	21	39890.62	5321.954	-644.028	1	5360.78	-6.900009	-3.379367E-009	-0.0015435	7
	15	23	31640.63	5375.302	-634.4835	1	5412.619	-6.731861	7.805986E-008	-0.0015692	7
	16	24	25171.88	5426.607	-643.1975	1	5464.592	-6.75954	1.190863E-008	-0.001435	7
	17	25	20015.62	5490.167	-659.8466	1	5529.678	-6.853333	6.612385E-008	-0.0016454	7
	18	27	15890.62	5537.882	-707.9055	1	5582.944	-7.284593	-2.543395E-008	-0.0014877	7
	19	28	12609.37	5600.224	-763.8667	1	5652.08	-7.767173	1.002246E-008	-0.0014295	7
	20	29	10078.13	5656.259	-844.0563	1	5718.89	-8.487343	9.894304E-009	-0.001429	7
	21	31	8015.625	5731.886	-941.7296	1	5808.732	-9.330149	-4.676811E-008	-0.0014578	7
	22	32	6328.125	5793.853	-1072.174	1	5892.223	-10.4842	-1.781102E-008	-0.0015182	7
	23	34	5015.625	5869.997	-1232.418	1	5997.976	-11.85715	-2.101791E-008	-0.0014474	7
	24	35	3984.375	5959.104	-1410.343	1	6123.723	-13.31521	2.637654E-008	-0.0016088	7
	25	36	3170.956	6042.51	-1673.186	1	6269.887	-15.47754	-4.125605E-009	-0.0014951	7
	26	38	2527.573	6141.321	-1969.137	1	6449.289	-17.77779	6.688268E-008	-0.001654	7
	27	39	1976.103	6266.912	-2365.942	1	6698.647	-20.68299	2.695193E-008	-0.0016103	7
	28	40	1577.524	6331.506	-2760.829	1	6907.253	-23.55943	-2.163752E-008	-0.00145	7
	29	42	1265.625	6543.753	-3355.715	1	7354.014	-27.1493	-2.663366E-008	-0.0014517	7
	30	43	998.264	6734.7	-4057.274	1	7862.42	-31.06657	6.679164E-008	-0.0016555	7
	31	45	796.875	6947.976	-4884.908	1	8493.332	-35.10987	-2.05958E-008	-0.0014545	7
	32	46	627.7902	7216.384	-5941.584	1	9347.653	-39.46621	-1.948244E-008	-0.0015298	7
	33	47	505.5147	7508.5	-7109.074	1	10340.04	-43.43478	7.503235E-009	-0.0016051	6
	34	49	397.9953	7894.16	-8690.934	1	11740.96	-47.75046	1.50148E-009	-0.0015566	6
	35	50	315.5048	8345.184	-10576.58	1	13472.42	-51.7257	1.282592E-010	-0.0015557	6
	36	51	252.4038	8876.233	-12793.58	1	15571.23	-55.24695	1.413386E-009	-0.0015593	6
	37	53	198.6229	9585.64	-15712.05	1	18405.24	-58.61337	9.119561E-010	-0.0015561	6
	38	54	158.3615	10434.88	-19112.71	1	21775.73	-61.36698	1.120339E-009	-0.0015531	6
	39	56	125.558	11563.22	-23352.04	1	26058.12	-63.65678	1.138084E-009	-0.0015603	6
	40	57	100.4464	12952.46	-28318.16	1	31139.76	-65.42108	1.766663E-010	-0.0015578	6
	41	58	79.00281	15051.9	-34868.95	1	37978.99	-66.65156	1.28592E-009	-0.001559	6
	42	60	63.3446	17525.69	-42493.52	1	45965.74	-67.58718	8.442479E-010	-0.0015632	6
	43	61	49.86702	20820.72	-50934.24	1	55025.45	-67.76641	1.208046E-009	-0.0015685	6
	44	63	39.72458	25644.09	-61514.74	1	66645.95	-67.36987	8.228403E-010	-0.001561	6
	45	64	31.6723	31529.4	-73720.89	1	80180.25	-66.84428	9.22542E-010	-0.0015647	6
	46	65	24.93351	39711.91	-88162.66	1	96693.8	-65.75134	1.027876E-009	-0.0015671	6
	47	67	19.86229	49764.84	-103976.5	1	115272	-64.42345	-1.120925E-010	-0.0015543	5
	48	68	15.83615	61208.61	-122312.1	1	136772.6	-63.41525	-1.365774E-009	-0.0015589	5
	49	70	12.40079	79034.69	-142271.3	1	162750.2	-60.94692	1.893655E-009	-0.0015581	5
	50	71	9.93114	95226.1	-161446	1	187437.5	-59.46651	5.545166E-010	-0.0015614	5
	51	73	7.944915	115658.9	-183375.1	1	216802.7	-57.75943	5.357657E-010	-0.0015586	5
	52	74	6.317385	136730.8	-206403.6	1	247583.9	-56.47777	-1.223264E-010	-0.0015507	5
	53	76	5.008013	161109.9	-232818.4	1	283126.8	-55.31684	-2.992681E-011	-0.0015642	5
	54	79	3.945707	187788	-262885.9	1	323068.6	-54.46054	3.83355E-010	-0.0015549	5
	55	82	3.158693	213858.7	-295818.2	1	365026	-54.13533	1.51032E-011	-0.0015704	5
	56	85	2.504006	243979.8	-335920.7	1	415173.3	-54.00903	1.164947E-010	-0.0015535	5
	57	88	1.998082	273823.1	-382782.9	1	470639.8	-54.42203	3.906842E-010	-0.0015172	5
	58	91	1.584686	308067.4	-442268.3	1	538986.8	-55.14038	7.324587E-011	-0.0015639	5
	59	94	1.266892	346346	-508351.2	1	615123.2	-55.73291	1.677765E-010	-0.0015126	5
	60	99	0.999041	392963.1	-594358.3	1	712517.9	-56.52911	1.707208E-010	-0.0015974	5
