EXPLAIN
TAG	EISPOT
TITLE	LABEL	Potentiostatic EIS	Test &Identifier
DATE	LABEL	10/12/2019	Date
TIME	LABEL	10:36:58	Time
NOTES	NOTES	1	&Notes...
	
PSTAT	PSTAT	REF600-11020	Potentiostat
VDC	POTEN	0.00000E+000	T	DC &Voltage (V)
FREQINIT	QUANT	1.00000E+006	Initial Fre&q. (Hz)
FREQFINAL	QUANT	1.00000E+000	Final Fre&q. (Hz)
PTSPERDEC	QUANT	1.00000E+001	Points/&decade
VAC	QUANT	2.50000E+001	AC &Voltage (mV rms)
AREA	QUANT	1.00000E-002	&Area (cm^2)
CONDIT	TWOPARAM	T	5.00000E+000	0.00000E+000	Conditionin&g	Time(s)	E(V)
DELAY	TWOPARAM	T	5.00000E+000	0.00000E+000	Init. De&lay	Time(s)	Stab.(mV/s)
SPEED	SELECTOR	1	&Optimize for:
ZGUESS	QUANT	1.00000E+004	E&stimated Z (ohms)
OCVCURVE	TABLE	19
	Pt	T	Vf	Vm	Ach	Over
	#	s	V vs. Ref.	V	V	bits
	0	0.258333	6.90722E-003	6.90722E-003	5.48733E-004	...........
	1	0.516667	6.90439E-003	6.75910E-003	5.44533E-004	...........
	2	0.775	6.88745E-003	6.64150E-003	5.50933E-004	...........
	3	1.03333	6.84170E-003	6.56630E-003	5.47866E-004	...........
	4	1.29167	6.76538E-003	6.47322E-003	5.45199E-004	...........
	5	1.55	6.67184E-003	6.37183E-003	5.51366E-004	...........
	6	1.80833	6.57546E-003	6.34258E-003	5.51599E-004	...........
	7	2.06667	6.48593E-003	6.30133E-003	5.45366E-004	...........
	8	2.325	6.41022E-003	6.24931E-003	5.49466E-004	...........
	9	2.58333	6.34976E-003	6.20938E-003	5.49033E-004	...........
	10	2.84167	6.30001E-003	6.17476E-003	5.51533E-004	...........
	11	3.1	6.25609E-003	6.14088E-003	5.48766E-004	...........
	12	3.35833	6.21603E-003	6.11206E-003	5.44133E-004	...........
	13	3.61667	6.17937E-003	6.08109E-003	5.44866E-004	...........
	14	3.875	6.14582E-003	6.05965E-003	5.45866E-004	...........
	15	4.13333	6.11510E-003	6.03378E-003	5.55099E-004	...........
	16	4.39167	6.08695E-003	6.00931E-003	5.44066E-004	...........
	17	4.65	6.06065E-003	5.97817E-003	5.47966E-004	...........
	18	4.90833	6.03533E-003	5.97423E-003	5.47933E-004	...........
EOC	QUANT	0.0060353	Open Circuit (V)
PSTATMODEL	IQUANT	4	Pstat Model
PSTATSECTION	LABEL	REF600-11020	Pstat Section
PSTATSERIALNO	LABEL	11020	Pstat Serial Number
CTRLMODE	IQUANT	1	Control Mode
IESTAB	IQUANT	0	I/E Stability
CASPEED	IQUANT	1	Control Amp Speed
CONVENTION	IQUANT	1	Current Convention
ICHRANGE	IQUANT	2	Ich Range
ICHRANGEMODE	TOGGLE	F	Ich Auto Range
ICHOFFSETENABLE	TOGGLE	T	Ich Offset Enable
ICHOFFSET	QUANT	0	Ich Offset (V)
ICHFILTER	IQUANT	3	Ich Filter
VCHRANGE	IQUANT	2	Vch Range
VCHRANGEMODE	TOGGLE	F	Vch Auto Range
VCHOFFSETENABLE	TOGGLE	T	Vch Offset Enable
VCHOFFSET	QUANT	0	Vch Offset (V)
VCHFILTER	IQUANT	3	Vch Filter
ACHRANGE	IQUANT	2	Ach Range
ACHOFFSETENABLE	TOGGLE	F	Ach Offset Enable
ACHOFFSET	QUANT	0	Ach Offset (V)
ACHFILTER	IQUANT	3	Ach Filter
IERANGELOWERLIMIT	IQUANT	1	I/E Range Lower Limit
IERANGEMODE	TOGGLE	F	I/E AutoRange
IERANGE	IQUANT	6	I/E Range
POSFEEDENABLE	TOGGLE	F	Positive Feedback IR Comp
POSFEEDRESISTANCE	QUANT	0	Positive Feedback Resistance (ohm)
ACHSELECT	IQUANT	0	Ach Select
CABLEID	IQUANT	14	Cable ID
DCCALDATE	LABEL	8/19/2019	DC Calibration Date
ACCALDATE	LABEL	8/19/2019	AC Calibration Date
THERMOSELECT	IQUANT	1	Thermo Select
FRAMEWORKVERSION	QUANT	6.33	Framework Version
INSTRUMENTVERSION	LABEL	3.50	Instrument Version
ZCURVE	TABLE
	Pt	Time	Freq	Zreal	Zimag	Zsig	Zmod	Zphz	Idc	Vdc	IERange
	#	s	Hz	ohm	ohm	V	ohm	°	A	V	#
	0	1	1000078	2199.256	-1089.826	1	2454.475	-26.36038	2.671606E-006	0.007813	8
	1	3	794390.6	2382.915	-1018.454	1	2591.434	-23.14178	1.498482E-006	0.0074474	8
	2	4	630984.4	2536.577	-916.1547	1	2696.954	-19.85858	-1.107583E-006	0.0080105	8
	3	6	501234.4	2654.945	-812.2846	1	2776.426	-17.01157	7.722368E-007	0.0077052	8
	4	7	398109.4	2758.609	-728.0849	1	2853.074	-14.78503	-1.385307E-006	0.0079118	8
	5	8	316265.6	2835.001	-651.3985	1	2908.875	-12.94025	2.921959E-006	0.0070771	8
	6	10	251203.1	2894.343	-595.5997	1	2954.989	-11.62804	3.695552E-007	0.0074503	8
	7	11	199546.9	2952.844	-547.1242	1	3003.104	-10.49713	-1.640951E-006	0.0080351	8
	8	12	158578.1	3001.359	-517.5516	1	3045.655	-9.78381	3.469272E-006	0.0070567	8
	9	14	125953.1	3070.728	-462.6346	1	3105.383	-8.567722	-9.130089E-007	0.0095063	7
	10	15	100078.1	3108.339	-455.1831	1	3141.491	-8.33114	-2.865003E-008	0.0075524	7
	11	16	79453.13	3155.267	-462.3964	1	3188.968	-8.337207	-5.80259E-008	0.0076596	7
	12	18	63140.62	3205.326	-478.9668	1	3240.914	-8.498735	6.982975E-009	0.0076341	7
	13	19	50203.12	3259.065	-501.375	1	3297.405	-8.745826	8.546708E-008	0.0074781	7
	14	20	39890.62	3316.752	-529.4839	1	3358.749	-9.070124	-6.269217E-008	0.0076346	7
	15	22	31640.63	3379.04	-566.1414	1	3426.139	-9.51128	-3.286774E-008	0.0076219	7
	16	23	25171.88	3444.901	-608.8144	1	3498.285	-10.02235	1.065418E-007	0.007382	7
	17	24	20015.62	3517.202	-655.6044	1	3577.782	-10.55873	3.749185E-008	0.0075066	7
	18	26	15890.62	3591.379	-717.7285	1	3662.395	-11.30154	5.546298E-008	0.0074524	7
	19	27	12609.37	3672.11	-787.4424	1	3755.591	-12.10314	-4.757668E-009	0.0075013	7
	20	28	10078.13	3756.364	-863.9191	1	3854.429	-12.95212	-8.956708E-009	0.0075407	7
	21	30	8015.625	3844.083	-953.836	1	3960.654	-13.9354	-2.803434E-008	0.0075416	7
	22	31	6328.125	3943.641	-1072.446	1	4086.863	-15.21329	1.214618E-008	0.0075129	7
	23	32	5015.625	4045.186	-1206.844	1	4221.375	-16.61199	1.079702E-007	0.0073788	7
	24	34	3984.375	4147.102	-1360.159	1	4364.457	-18.15836	6.899141E-008	0.0074038	7
	25	35	3170.956	4258.868	-1558.729	1	4535.151	-20.10243	-5.483638E-008	0.0076436	7
	26	37	2527.573	4368.592	-1790.577	1	4721.309	-22.2875	-2.625906E-008	0.0075342	7
	27	38	1976.103	4489.705	-2102.549	1	4957.636	-25.0939	-1.716876E-008	0.0075248	7
	28	39	1577.524	4610.343	-2455.458	1	5223.46	-28.03967	8.545305E-008	0.0074717	7
	29	41	1265.625	4728.409	-2894.479	1	5543.993	-31.47274	-1.01303E-008	0.0075847	7
	30	42	998.264	4870.636	-3478.203	1	5985.064	-35.53127	1.090349E-007	0.0073804	7
	31	43	796.875	5018.187	-4168.934	1	6523.972	-39.71862	5.031152E-008	0.0074526	7
	32	45	627.7902	5203.962	-5081.371	1	7273.345	-44.31712	-5.548788E-008	0.0076363	7
	33	46	505.5147	5402.195	-6109.902	1	8155.649	-48.51783	-3.313753E-008	0.0076122	7
	34	47	397.9953	5666.638	-7501.02	1	9400.855	-52.93082	5.692633E-009	0.0075517	7
	35	49	315.5048	5982.927	-9185.645	1	10962.28	-56.92242	6.579682E-010	0.0074945	6
	36	50	252.4038	6355.947	-11177.5	1	12858.25	-60.3758	1.366416E-010	0.0074953	6
	37	51	198.6229	6860.345	-13814.99	1	15424.6	-63.59161	1.112763E-009	0.0074923	6
	38	53	158.3615	7470.08	-16890.06	1	18468.25	-66.14131	1.017662E-009	0.0074905	6
	39	54	125.558	8255.68	-20749.32	1	22331.38	-68.30352	8.496948E-010	0.0074922	6
	40	55	100.4464	9221.949	-25294.07	1	26922.75	-69.96868	3.111073E-011	0.0074893	6
	41	57	79.00281	10655.72	-31242.76	1	33009.91	-71.16743	1.179917E-009	0.0074884	6
	42	58	63.3446	12179.81	-37620.17	1	39542.7	-72.06026	3.776254E-010	0.0074906	6
	43	60	49.86702	14765.36	-46881.87	1	49152.06	-72.51827	3.384028E-010	0.0074903	6
	44	61	39.72458	17416.63	-57002.95	1	59604.32	-73.01004	9.455124E-010	0.0074951	6
	45	62	31.6723	21134.82	-69028.98	1	72191.97	-72.97682	9.183894E-010	0.0074973	6
	46	64	24.93351	26171.02	-84714.33	1	88664.76	-72.83237	2.571198E-010	0.0075025	6
	47	65	19.86229	32578.71	-102375.8	1	107434.5	-72.34754	8.801331E-010	0.0075111	5
	48	66	15.83615	40293.86	-123217.9	1	129638.9	-71.89158	4.508159E-010	0.0074979	5
	49	68	12.40079	51699.3	-150279.8	1	158924	-71.01574	5.068059E-010	0.0074982	5
	50	69	9.93114	65858.92	-178517.3	1	190278.3	-69.74989	1.589935E-010	0.007497	5
	51	71	7.944915	83619.73	-211145.7	1	227100.8	-68.39502	4.8167E-010	0.0074987	5
	52	72	6.317385	106173.1	-248964	1	270658.1	-66.90372	2.908591E-010	0.0075129	5
	53	74	5.008013	134024.3	-292327.6	1	321586.6	-65.36982	3.828876E-010	0.007505	5
	54	77	3.945707	168636.3	-342304.3	1	381589.3	-63.77282	-4.207564E-012	0.007497	5
	55	80	3.158693	206459.3	-393758.8	1	444602.6	-62.33065	2.689395E-010	0.0075193	5
	56	83	2.504006	252313	-453957.5	1	519364.3	-60.93436	-1.736305E-010	0.0074931	5
	57	86	1.998082	302649.4	-517001.2	1	599071.7	-59.65554	1.01515E-010	0.0074568	5
	58	89	1.584686	358189.1	-590330.4	1	690499.4	-58.75228	3.702178E-011	0.0075098	5
	59	92	1.266892	420656.2	-672765.1	1	793451.1	-57.98372	3.574631E-011	0.0074566	5
	60	97	0.999041	491736	-769927.7	1	913560.6	-57.43452	1.279045E-010	0.0075368	5
