EXPLAIN
TAG	EISPOT
TITLE	LABEL	Potentiostatic EIS	Test &Identifier
DATE	LABEL	11/22/2019	Date
TIME	LABEL	10:47:56	Time
NOTES	NOTES	4	&Notes...
	
	
	
	
PSTAT	PSTAT	REF600-11020	Potentiostat
VDC	POTEN	0.00000E+000	T	DC &Voltage (V)
FREQINIT	QUANT	1.00000E+006	Initial Fre&q. (Hz)
FREQFINAL	QUANT	1.00000E+000	Final Fre&q. (Hz)
PTSPERDEC	QUANT	1.00000E+001	Points/&decade
VAC	QUANT	2.50000E+001	AC &Voltage (mV rms)
AREA	QUANT	1.00000E-002	&Area (cm^2)
CONDIT	TWOPARAM	T	5.00000E+000	0.00000E+000	Conditionin&g	Time(s)	E(V)
DELAY	TWOPARAM	T	5.00000E+000	0.00000E+000	Init. De&lay	Time(s)	Stab.(mV/s)
SPEED	SELECTOR	0	&Optimize for:
ZGUESS	QUANT	1.00000E+005	E&stimated Z (ohms)
OCVCURVE	TABLE	19
	Pt	T	Vf	Vm	Ach	Over
	#	s	V vs. Ref.	V	V	bits
	0	0.258333	3.43024E-002	3.43024E-002	5.64632E-004	...........
	1	0.516667	3.43378E-002	3.61589E-002	5.56733E-004	...........
	2	0.775	3.45615E-002	3.82265E-002	5.60732E-004	...........
	3	1.03333	3.52065E-002	3.98291E-002	5.50399E-004	...........
	4	1.29167	3.63682E-002	4.14565E-002	5.54466E-004	...........
	5	1.55	3.79034E-002	4.30785E-002	5.64999E-004	...........
	6	1.80833	3.95808E-002	4.43303E-002	5.52866E-004	...........
	7	2.06667	4.12356E-002	4.58658E-002	5.59766E-004	...........
	8	2.325	4.27988E-002	4.70931E-002	5.63432E-004	...........
	9	2.58333	4.42629E-002	4.82069E-002	5.60032E-004	...........
	10	2.84167	4.56363E-002	4.95326E-002	5.56266E-004	...........
	11	3.1	4.69291E-002	5.05283E-002	5.59299E-004	...........
	12	3.35833	4.81597E-002	5.18094E-002	5.58232E-004	...........
	13	3.61667	4.93426E-002	5.25686E-002	5.56366E-004	...........
	14	3.875	5.04740E-002	5.35890E-002	5.58832E-004	...........
	15	4.13333	5.15402E-002	5.45568E-002	5.58066E-004	...........
	16	4.39167	5.25429E-002	5.53117E-002	5.54533E-004	...........
	17	4.65	5.34983E-002	5.64010E-002	5.57366E-004	...........
	18	4.90833	5.44222E-002	5.70483E-002	5.57366E-004	...........
EOC	QUANT	0.0544222	Open Circuit (V)
PSTATMODEL	IQUANT	4	Pstat Model
PSTATSECTION	LABEL	REF600-11020	Pstat Section
PSTATSERIALNO	LABEL	11020	Pstat Serial Number
CTRLMODE	IQUANT	1	Control Mode
IESTAB	IQUANT	0	I/E Stability
CASPEED	IQUANT	1	Control Amp Speed
CONVENTION	IQUANT	1	Current Convention
ICHRANGE	IQUANT	2	Ich Range
ICHRANGEMODE	TOGGLE	F	Ich Auto Range
ICHOFFSETENABLE	TOGGLE	T	Ich Offset Enable
ICHOFFSET	QUANT	0	Ich Offset (V)
ICHFILTER	IQUANT	3	Ich Filter
VCHRANGE	IQUANT	2	Vch Range
VCHRANGEMODE	TOGGLE	F	Vch Auto Range
VCHOFFSETENABLE	TOGGLE	T	Vch Offset Enable
VCHOFFSET	QUANT	0	Vch Offset (V)
VCHFILTER	IQUANT	3	Vch Filter
ACHRANGE	IQUANT	2	Ach Range
ACHOFFSETENABLE	TOGGLE	F	Ach Offset Enable
ACHOFFSET	QUANT	0	Ach Offset (V)
ACHFILTER	IQUANT	3	Ach Filter
IERANGELOWERLIMIT	IQUANT	1	I/E Range Lower Limit
IERANGEMODE	TOGGLE	F	I/E AutoRange
IERANGE	IQUANT	6	I/E Range
POSFEEDENABLE	TOGGLE	F	Positive Feedback IR Comp
POSFEEDRESISTANCE	QUANT	0	Positive Feedback Resistance (ohm)
ACHSELECT	IQUANT	0	Ach Select
CABLEID	IQUANT	14	Cable ID
DCCALDATE	LABEL	8/19/2019	DC Calibration Date
ACCALDATE	LABEL	8/19/2019	AC Calibration Date
THERMOSELECT	IQUANT	1	Thermo Select
FRAMEWORKVERSION	QUANT	6.33	Framework Version
INSTRUMENTVERSION	LABEL	3.50	Instrument Version
ZCURVE	TABLE
	Pt	Time	Freq	Zreal	Zimag	Zsig	Zmod	Zphz	Idc	Vdc	IERange
	#	s	Hz	ohm	ohm	V	ohm	°	A	V	#
	0	1	1000078	2272.857	-2000.543	1	3027.879	-41.35387	1.814383E-006	0.0573354	8
	1	2	794390.6	2652.912	-2091.802	1	3378.399	-38.25552	-1.217193E-006	0.0570295	8
	2	2	630984.4	3067.458	-2118.906	1	3728.145	-34.63552	-2.28807E-006	0.0564397	8
	3	2	501234.4	3452.584	-2106.219	1	4044.316	-31.38491	-6.518268E-007	0.0566294	8
	4	3	398109.4	3856.42	-2054.778	1	4369.678	-28.04958	-1.625927E-006	0.0558592	8
	5	3	316265.6	4199.491	-1926.383	1	4620.246	-24.64178	-1.533341E-006	0.0558386	8
	6	3	251203.1	4518.721	-1788.94	1	4859.954	-21.59838	1.88698E-006	0.0563501	8
	7	4	199546.9	4806.25	-1634.202	1	5076.481	-18.77885	-3.696664E-006	0.0566173	8
	8	4	158578.1	5057.485	-1460.111	1	5264.037	-16.10358	-7.920346E-007	0.0564759	8
	9	4	125953.1	5336.241	-1265.99	1	5484.36	-13.34632	3.155413E-006	0.0539726	7
	10	5	100078.1	5441.741	-1109.988	1	5553.793	-11.52884	9.031911E-007	0.0557786	7
	11	5	79453.13	5569.719	-984.754	1	5656.104	-10.02656	1.064297E-006	0.0541653	7
	12	5	63140.62	5677.843	-892.2792	1	5747.527	-8.93105	1.197833E-006	0.0547692	7
	13	6	50203.12	5728.994	-806.7667	1	5785.52	-8.01578	-1.195204E-006	0.0577711	7
	14	6	39890.62	5818.051	-752.0157	1	5866.451	-7.364966	7.016812E-008	0.0570589	7
	15	6	31640.63	5871.335	-703.36	1	5913.315	-6.831227	-3.451275E-007	0.0550856	7
	16	6	25171.88	5922.528	-686.4079	1	5962.172	-6.610959	-1.142311E-006	0.056566	7
	17	7	20015.62	6019.19	-690.0272	1	6058.612	-6.539719	1.181848E-006	0.0543984	7
	18	7	15890.62	6034.727	-703.5776	1	6075.603	-6.649986	-1.334242E-006	0.0575763	7
	19	8	12609.37	6116.749	-749.7468	1	6162.526	-6.988045	4.139525E-007	0.0565866	7
	20	8	10078.13	6165.322	-809.1579	1	6218.194	-7.476959	-3.18516E-007	0.0574733	7
	21	9	8015.625	6209.8	-887.5425	1	6272.906	-8.133974	-3.515972E-007	0.0550911	7
	22	9	6328.125	6280.056	-1006.619	1	6360.219	-9.106379	-3.527833E-007	0.0550869	7
	23	9	5015.625	6358.618	-1154.682	1	6462.608	-10.29237	1.154665E-007	0.054522	7
	24	10	3984.375	6446.355	-1342.619	1	6584.688	-11.76512	5.188637E-007	0.0541921	7
	25	10	3170.956	6535.588	-1578.633	1	6723.54	-13.57936	6.628945E-007	0.0562277	7
	26	11	2527.573	6617.65	-1857.994	1	6873.531	-15.6828	7.641099E-008	0.0570546	7
	27	11	1976.103	6746.708	-2244.917	1	7110.395	-18.40448	1.064005E-006	0.0541594	7
	28	11	1577.524	6863.047	-2650.896	1	7357.218	-21.11937	9.055023E-007	0.0557628	7
	29	12	1265.625	7003.923	-3184.197	1	7693.767	-24.44799	6.63735E-007	0.0562259	7
	30	12	998.264	7145.648	-3843.221	1	8113.608	-28.27318	-1.328725E-006	0.0575695	7
	31	13	796.875	7372.045	-4648.897	1	8715.463	-32.23601	4.141384E-007	0.0565849	7
	32	13	627.7902	7611.372	-5659.241	1	9484.725	-36.63171	4.192168E-007	0.0565919	7
	33	13	505.5147	7896.024	-6791.66	1	10415.08	-40.70004	9.062576E-007	0.0557654	7
	34	14	397.9953	8213.951	-8293.692	1	11672.8	-45.27677	-2.700732E-009	0.0560294	7
	35	14	315.5048	8620.206	-10097.69	1	13276.72	-49.51325	-1.41632E-009	0.0559687	6
	36	14	252.4038	9077.931	-12219.27	1	15222.33	-53.39062	-6.929231E-010	0.0559502	6
	37	15	198.6229	9667.78	-15016.74	1	17859.69	-57.22655	-8.646408E-010	0.0559598	6
	38	15	158.3615	10347.04	-18277.42	1	21002.99	-60.48534	-1.695861E-009	0.0559613	6
	39	15	125.558	11191.57	-22367.11	1	25010.77	-63.41852	-7.15791E-010	0.0559572	6
	40	16	100.4464	12228.35	-27214.42	1	29835.5	-65.80402	-1.830064E-009	0.0559529	6
	41	16	79.00281	13597.83	-33683.23	1	36324.38	-68.0162	-1.923345E-009	0.0559613	6
	42	16	63.3446	14817.69	-40638.21	1	43255.39	-69.9669	-1.786709E-009	0.0559566	6
	43	17	49.86702	17220.96	-50201.18	1	53072.78	-71.06603	-1.634503E-009	0.0559466	6
	44	17	39.72458	20382.68	-61471.52	1	64762.66	-71.65556	-1.328997E-009	0.0559481	6
	45	17	31.6723	23978.96	-74931.3	1	78674.58	-72.25468	-1.154219E-009	0.0559571	6
	46	18	24.93351	29618.98	-92087.69	1	96733.8	-72.17019	-1.110521E-009	0.0559455	6
	47	18	19.86229	36562.71	-111515.1	1	117356.1	-71.84712	-1.015877E-009	0.0559604	5
	48	18	15.83615	44796.53	-136150.9	1	143331	-71.7877	-2.406166E-009	0.0559621	5
	49	19	12.40079	57372.58	-163899.8	1	173651.2	-70.70757	-2.286658E-009	0.0559598	5
	50	19	9.93114	73700.38	-197078.4	1	210408.3	-69.49598	-1.499649E-009	0.0559593	5
	51	20	7.944915	93534.88	-232058.2	1	250199.5	-68.04729	-1.419318E-009	0.0559462	5
	52	20	6.317385	119460.9	-274470.6	1	299341	-66.47935	-1.375872E-009	0.055968	5
	53	21	5.008013	152261.7	-324483	1	358431	-64.86197	-1.515547E-009	0.0559491	5
	54	22	3.945707	195746	-377712.7	1	425421.4	-62.60498	-1.096558E-009	0.0559631	5
	55	23	3.158693	244546.8	-432735.4	1	497054.4	-60.5284	-1.234278E-009	0.055981	5
	56	25	2.504006	303521.1	-493535.8	1	579398.6	-58.40878	-1.282968E-009	0.055951	5
	57	26	1.998082	367820.2	-554183.1	1	665139.6	-56.42714	-1.031123E-009	0.0559849	5
	58	28	1.584686	442434.9	-621406.6	1	762820.3	-54.54954	-9.08935E-010	0.055998	5
	59	30	1.266892	518517	-690527.1	1	863532.1	-53.0971	-8.626564E-010	0.0559661	5
	60	32	0.999041	608250.1	-769378.3	1	980771	-51.67104	-8.260715E-010	0.0559308	5
