EXPLAIN
TAG	EISPOT
TITLE	LABEL	Potentiostatic EIS	Test &Identifier
DATE	LABEL	10/12/2019	Date
TIME	LABEL	9:44:44	Time
NOTES	NOTES	1	&Notes...
	
PSTAT	PSTAT	REF600-11020	Potentiostat
VDC	POTEN	0.00000E+000	T	DC &Voltage (V)
FREQINIT	QUANT	1.00000E+006	Initial Fre&q. (Hz)
FREQFINAL	QUANT	1.00000E+000	Final Fre&q. (Hz)
PTSPERDEC	QUANT	1.00000E+001	Points/&decade
VAC	QUANT	2.50000E+001	AC &Voltage (mV rms)
AREA	QUANT	1.00000E-002	&Area (cm^2)
CONDIT	TWOPARAM	T	5.00000E+000	0.00000E+000	Conditionin&g	Time(s)	E(V)
DELAY	TWOPARAM	T	5.00000E+000	0.00000E+000	Init. De&lay	Time(s)	Stab.(mV/s)
SPEED	SELECTOR	1	&Optimize for:
ZGUESS	QUANT	1.00000E+004	E&stimated Z (ohms)
OCVCURVE	TABLE	19
	Pt	T	Vf	Vm	Ach	Over
	#	s	V vs. Ref.	V	V	bits
	0	0.258333	1.10032E-003	1.10032E-003	5.23466E-004	...........
	1	0.516667	1.09506E-003	8.24660E-004	5.30933E-004	...........
	2	0.775	1.06322E-003	5.89747E-004	5.29233E-004	...........
	3	1.03333	9.74973E-004	3.71064E-004	5.30700E-004	...........
	4	1.29167	8.21236E-004	1.79314E-004	5.39433E-004	...........
	5	1.55	6.23723E-004	2.04888E-006	5.36633E-004	...........
	6	1.80833	4.13834E-004	-1.62801E-004	5.34466E-004	...........
	7	2.06667	2.12751E-004	-3.09024E-004	5.31900E-004	...........
	8	2.325	2.86639E-005	-4.41435E-004	5.32400E-004	...........
	9	2.58333	-1.37575E-004	-5.66136E-004	5.36199E-004	...........
	10	2.84167	-2.88037E-004	-6.94438E-004	5.36433E-004	...........
	11	3.1	-4.26061E-004	-7.99361E-004	5.41833E-004	...........
	12	3.35833	-5.54544E-004	-9.04316E-004	5.40199E-004	...........
	13	3.61667	-6.74587E-004	-9.96895E-004	5.36599E-004	...........
	14	3.875	-7.86426E-004	-1.09702E-003	5.34466E-004	...........
	15	4.13333	-8.90898E-004	-1.17644E-003	5.26666E-004	...........
	16	4.39167	-9.89038E-004	-1.25802E-003	5.34600E-004	...........
	17	4.65	-1.08123E-003	-1.33555E-003	5.35200E-004	...........
	18	4.90833	-1.16779E-003	-1.41100E-003	5.32200E-004	...........
EOC	QUANT	-0.0011678	Open Circuit (V)
PSTATMODEL	IQUANT	4	Pstat Model
PSTATSECTION	LABEL	REF600-11020	Pstat Section
PSTATSERIALNO	LABEL	11020	Pstat Serial Number
CTRLMODE	IQUANT	1	Control Mode
IESTAB	IQUANT	0	I/E Stability
CASPEED	IQUANT	1	Control Amp Speed
CONVENTION	IQUANT	1	Current Convention
ICHRANGE	IQUANT	2	Ich Range
ICHRANGEMODE	TOGGLE	F	Ich Auto Range
ICHOFFSETENABLE	TOGGLE	T	Ich Offset Enable
ICHOFFSET	QUANT	0	Ich Offset (V)
ICHFILTER	IQUANT	3	Ich Filter
VCHRANGE	IQUANT	2	Vch Range
VCHRANGEMODE	TOGGLE	F	Vch Auto Range
VCHOFFSETENABLE	TOGGLE	T	Vch Offset Enable
VCHOFFSET	QUANT	0	Vch Offset (V)
VCHFILTER	IQUANT	3	Vch Filter
ACHRANGE	IQUANT	2	Ach Range
ACHOFFSETENABLE	TOGGLE	F	Ach Offset Enable
ACHOFFSET	QUANT	0	Ach Offset (V)
ACHFILTER	IQUANT	3	Ach Filter
IERANGELOWERLIMIT	IQUANT	1	I/E Range Lower Limit
IERANGEMODE	TOGGLE	F	I/E AutoRange
IERANGE	IQUANT	5	I/E Range
POSFEEDENABLE	TOGGLE	F	Positive Feedback IR Comp
POSFEEDRESISTANCE	QUANT	0	Positive Feedback Resistance (ohm)
ACHSELECT	IQUANT	0	Ach Select
CABLEID	IQUANT	14	Cable ID
DCCALDATE	LABEL	8/19/2019	DC Calibration Date
ACCALDATE	LABEL	8/19/2019	AC Calibration Date
THERMOSELECT	IQUANT	1	Thermo Select
FRAMEWORKVERSION	QUANT	6.33	Framework Version
INSTRUMENTVERSION	LABEL	3.50	Instrument Version
ZCURVE	TABLE
	Pt	Time	Freq	Zreal	Zimag	Zsig	Zmod	Zphz	Idc	Vdc	IERange
	#	s	Hz	ohm	ohm	V	ohm	°	A	V	#
	0	2	1000078	1500.229	-2744.623	1	3127.881	-61.3387	-7.204266E-007	0.001261	8
	1	3	794390.6	1655.392	-3205.102	1	3607.354	-62.68426	1.136693E-006	0.0003716	8
	2	5	630984.4	1847.736	-3803.547	1	4228.604	-64.08984	-5.035165E-006	0.0013708	8
	3	6	501234.4	2063.151	-4542.037	1	4988.656	-65.5708	1.324369E-006	0.0003904	8
	4	8	398109.4	2316.297	-5422.734	1	5896.718	-66.87046	4.404009E-006	-0.0004308	8
	5	9	316265.6	2640.211	-6611.867	1	7119.516	-68.23248	4.447944E-006	-0.0004372	8
	6	11	251203.1	3090.48	-7979.02	1	8556.625	-68.82733	-6.677094E-007	0.0005323	8
	7	13	199546.9	3647.266	-9629.19	1	10296.78	-69.25471	-2.452365E-007	0.0003077	8
	8	14	158578.1	4355.096	-11633.68	1	12422.14	-69.4765	-6.714153E-007	0.0006001	8
	9	16	125953.1	5378.741	-14111.53	1	15101.86	-69.13519	1.400862E-007	0.000351	7
	10	18	100078.1	6625.073	-16925.79	1	18176.19	-68.62369	-1.474734E-008	0.0002241	7
	11	19	79453.13	8183.693	-20302.21	1	21889.55	-68.04594	-2.519406E-008	0.0003274	7
	12	20	63140.62	10252.64	-24275.54	1	26351.82	-67.10349	-2.437066E-008	0.0003228	7
	13	22	50203.12	12973.18	-28870.59	1	31651.45	-65.80293	4.307915E-008	0.0001223	7
	14	23	39890.62	16387.29	-34026.74	1	37767.21	-64.28452	-6.865632E-008	0.0005001	7
	15	25	31640.63	20983.86	-39769.29	1	44965.75	-62.18209	-4.678911E-008	0.000271	7
	16	27	25171.88	26473.41	-46148.38	1	53202.58	-60.1589	-2.240657E-008	0.0003153	7
	17	28	20015.62	33820.91	-52533.79	1	62479.22	-57.22683	7.046319E-008	0.0001545	7
	18	30	15890.62	42537.45	-59677.76	1	73286.22	-54.51928	-2.265692E-008	0.0002327	7
	19	31	12609.37	53756.71	-65529.41	1	84757.82	-50.63644	-6.241247E-009	0.0002661	6
	20	33	10078.13	65315.62	-71131.82	1	96570.5	-47.44081	4.14001E-009	0.0003261	6
	21	35	8015.625	78768.71	-75867.21	1	109363.4	-43.92506	-8.690145E-009	0.0003447	6
	22	36	6328.125	93233.88	-77923.71	1	121509.9	-39.88845	3.122E-009	0.0002626	6
	23	38	5015.625	107587.8	-78556	1	133214.8	-36.13531	-9.021819E-009	0.0004186	6
	24	39	3984.375	121032.9	-77412.02	1	143671.8	-32.60277	2.148145E-008	-0.000102	6
	25	41	3170.956	134265.6	-76187.95	1	154375.7	-29.57241	-4.37622E-009	0.0001086	6
	26	43	2527.573	145993.5	-73538.05	1	163468.5	-26.73474	-9.28157E-009	0.0004137	6
	27	44	1976.103	157211.4	-70131.51	1	172144.8	-24.0415	-4.896895E-009	0.0002028	6
	28	46	1577.524	167737.5	-70743.84	1	182045.5	-22.86775	-4.121131E-009	0.000114	6
	29	47	1265.625	176731.5	-64362.73	1	188086.7	-20.0108	-1.004694E-009	0.0001471	5
	30	49	998.264	185169.5	-64016.68	1	195923.2	-19.07126	1.30765E-010	0.0002692	5
	31	50	796.875	192531.2	-64014.69	1	202894.4	-18.39145	-1.709939E-009	0.0003009	5
	32	51	627.7902	200902	-64920.55	1	211131	-17.908	-9.667062E-010	0.0003484	5
	33	53	505.5147	208358	-66418.33	1	218688	-17.68074	-1.190247E-009	0.0003063	5
	34	54	397.9953	217314.4	-68554.09	1	227871	-17.50842	4.454149E-010	0.0002158	5
	35	55	315.5048	225959.5	-71537.23	1	237013.2	-17.56743	7.167775E-010	0.0002122	5
	36	57	252.4038	234268.9	-75178.77	1	246036.1	-17.79185	7.768227E-010	0.0002107	5
	37	58	198.6229	243956.9	-79724.95	1	256653.5	-18.09736	-1.630361E-010	0.000209	5
	38	60	158.3615	253092.3	-84657.08	1	266875.5	-18.49462	5.336304E-010	0.0002095	5
	39	61	125.558	263569.5	-91539.52	1	279013.2	-19.15247	3.940418E-010	0.0002097	5
	40	63	100.4464	273302.1	-98824.7	1	290620.7	-19.87975	3.288618E-011	0.0002033	5
	41	64	79.00281	288290.1	-110234.8	1	308646.8	-20.92558	-6.794172E-011	0.0002049	5
	42	66	63.3446	277976.8	-118564.3	1	302206.2	-23.0995	-1.227692E-010	0.0002042	5
	43	67	49.86702	308497.8	-132642.5	1	335804.9	-23.26589	1.563513E-010	0.0001984	5
	44	69	39.72458	326207.8	-150575.9	1	359283.5	-24.77781	2.687376E-011	0.0002046	5
	45	70	31.6723	339695	-163871	1	377155.7	-25.75295	2.463655E-010	0.0002043	5
	46	72	24.93351	364644.2	-188162.2	1	410329.6	-27.29445	-1.689888E-010	0.0002009	5
	47	73	19.86229	385079.3	-211789.6	1	439478	-28.81033	4.332762E-010	0.0001937	5
	48	75	15.83615	427673.4	-235627	1	488287.4	-28.85261	1.419993E-009	0.0001994	5
	49	76	12.40079	456259.9	-277010.2	1	533767.5	-31.2633	7.214507E-010	0.0002088	5
	50	78	9.93114	481631.1	-297370.3	1	566036.8	-31.69215	5.850933E-011	0.0002057	5
	51	79	7.944915	516941.8	-329043.7	1	612779.3	-32.47756	-3.379948E-010	0.0001993	5
	52	81	6.317385	564801.1	-360868.9	1	670243.8	-32.57577	8.636736E-010	0.0001879	6
	53	83	5.008013	612610.6	-395573.5	1	729225.8	-32.85104	8.899903E-010	0.0001992	6
	54	86	3.945707	659989.4	-438077.3	1	792147.5	-33.57478	4.804533E-010	0.0001953	6
	55	90	3.158693	712894.4	-481290.3	1	860150.4	-34.02413	4.474881E-010	0.000183	6
	56	93	2.504006	768129.1	-534017.3	1	935519.6	-34.80773	3.343706E-010	0.0002079	5
	57	96	1.998082	828226.8	-592180.1	1	1018154	-35.56468	1.30336E-010	0.0002135	4
	58	99	1.584686	890633.3	-659838.8	1	1108429	-36.53344	8.863327E-011	0.0001525	4
	59	103	1.266892	956081	-741875.8	1	1210153	-37.80985	2.356022E-010	0.0001931	4
	60	107	0.999041	1033652	-844390.3	1	1334702	-39.2454	-1.637579E-010	0.000195	4
