EXPLAIN
TAG	EISPOT
TITLE	LABEL	Potentiostatic EIS	Test &Identifier
DATE	LABEL	10/26/2019	Date
TIME	LABEL	10:39:58	Time
NOTES	NOTES	1	&Notes...
	
PSTAT	PSTAT	REF600-11020	Potentiostat
VDC	POTEN	0.00000E+000	T	DC &Voltage (V)
FREQINIT	QUANT	1.00000E+006	Initial Fre&q. (Hz)
FREQFINAL	QUANT	1.00000E+000	Final Fre&q. (Hz)
PTSPERDEC	QUANT	1.00000E+001	Points/&decade
VAC	QUANT	2.50000E+001	AC &Voltage (mV rms)
AREA	QUANT	1.00000E-002	&Area (cm^2)
CONDIT	TWOPARAM	T	5.00000E+000	0.00000E+000	Conditionin&g	Time(s)	E(V)
DELAY	TWOPARAM	T	5.00000E+000	0.00000E+000	Init. De&lay	Time(s)	Stab.(mV/s)
SPEED	SELECTOR	0	&Optimize for:
ZGUESS	QUANT	1.00000E+005	E&stimated Z (ohms)
OCVCURVE	TABLE	19
	Pt	T	Vf	Vm	Ach	Over
	#	s	V vs. Ref.	V	V	bits
	0	0.258333	-1.13231E-001	-1.13231E-001	5.77799E-004	...........
	1	0.516667	-1.09345E-001	9.01962E-002	5.74466E-004	...........
	2	0.775	-8.77058E-002	1.66594E-001	5.75099E-004	...........
	3	1.03333	-3.77833E-002	3.56893E-002	5.75265E-004	...........
	4	1.29167	2.81744E-002	3.27661E-001	5.77232E-004	.........v.
	5	1.55	8.84773E-002	-1.29905E-002	5.76566E-004	...........
	6	1.80833	1.25651E-001	4.43975E-002	5.75399E-004	...........
	7	2.06667	1.27067E-001	8.33842E-002	5.75999E-004	...........
	8	2.325	1.03505E-001	1.19863E-001	5.74599E-004	...........
	9	2.58333	8.17792E-002	-4.26191E-002	5.74332E-004	...........
	10	2.84167	6.78533E-002	2.59456E-002	5.71466E-004	...........
	11	3.1	5.09516E-002	3.69230E-003	5.80232E-004	...........
	12	3.35833	3.03023E-002	-3.27585E-002	5.74932E-004	.........v.
	13	3.61667	1.16893E-002	-2.45835E-002	5.74232E-004	...........
	14	3.875	-1.74978E-003	7.46872E-002	5.75399E-004	...........
	15	4.13333	-4.80024E-003	1.13780E-002	5.70032E-004	...........
	16	4.39167	4.19635E-003	2.33226E-002	5.69332E-004	...........
	17	4.65	1.62304E-002	1.74452E-002	5.69599E-004	...........
	18	4.90833	2.14751E-002	-3.27585E-002	5.73599E-004	.........v.
EOC	QUANT	0.0214751	Open Circuit (V)
PSTATMODEL	IQUANT	4	Pstat Model
PSTATSECTION	LABEL	REF600-11020	Pstat Section
PSTATSERIALNO	LABEL	11020	Pstat Serial Number
CTRLMODE	IQUANT	1	Control Mode
IESTAB	IQUANT	0	I/E Stability
CASPEED	IQUANT	1	Control Amp Speed
CONVENTION	IQUANT	1	Current Convention
ICHRANGE	IQUANT	2	Ich Range
ICHRANGEMODE	TOGGLE	F	Ich Auto Range
ICHOFFSETENABLE	TOGGLE	T	Ich Offset Enable
ICHOFFSET	QUANT	0	Ich Offset (V)
ICHFILTER	IQUANT	3	Ich Filter
VCHRANGE	IQUANT	2	Vch Range
VCHRANGEMODE	TOGGLE	F	Vch Auto Range
VCHOFFSETENABLE	TOGGLE	T	Vch Offset Enable
VCHOFFSET	QUANT	0	Vch Offset (V)
VCHFILTER	IQUANT	3	Vch Filter
ACHRANGE	IQUANT	2	Ach Range
ACHOFFSETENABLE	TOGGLE	F	Ach Offset Enable
ACHOFFSET	QUANT	0	Ach Offset (V)
ACHFILTER	IQUANT	3	Ach Filter
IERANGELOWERLIMIT	IQUANT	1	I/E Range Lower Limit
IERANGEMODE	TOGGLE	F	I/E AutoRange
IERANGE	IQUANT	5	I/E Range
POSFEEDENABLE	TOGGLE	F	Positive Feedback IR Comp
POSFEEDRESISTANCE	QUANT	0	Positive Feedback Resistance (ohm)
ACHSELECT	IQUANT	0	Ach Select
CABLEID	IQUANT	14	Cable ID
DCCALDATE	LABEL	8/19/2019	DC Calibration Date
ACCALDATE	LABEL	8/19/2019	AC Calibration Date
THERMOSELECT	IQUANT	1	Thermo Select
FRAMEWORKVERSION	QUANT	6.33	Framework Version
INSTRUMENTVERSION	LABEL	3.50	Instrument Version
ZCURVE	TABLE
	Pt	Time	Freq	Zreal	Zimag	Zsig	Zmod	Zphz	Idc	Vdc	IERange
	#	s	Hz	ohm	ohm	V	ohm	°	A	V	#
	0	1	1000078	938.5841	-8975.608	1	9024.549	-84.03025	-2.055446E-007	0.0237132	8
	1	1	794390.6	1034.933	-11197.25	1	11244.97	-84.7193	1.035505E-006	0.0231258	8
	2	2	630984.4	1145.976	-13856.69	1	13904	-85.27229	6.523783E-007	0.0230078	8
	3	2	501234.4	1715.419	-17612.91	1	17696.25	-84.43719	1.197317E-006	0.0230588	8
	4	2	398109.4	1769.763	-21200.53	1	21274.27	-85.22816	1.454883E-006	0.0228545	8
	5	3	316265.6	1447.76	-26933.62	1	26972.51	-86.92315	-3.689995E-007	0.0231022	8
	6	3	251203.1	2525.312	-33736.44	1	33830.82	-85.71915	2.490193E-007	0.0231217	8
	7	3	199546.9	3588.168	-40604.54	1	40762.77	-84.94997	3.414379E-006	0.0223697	8
	8	4	158578.1	3063.228	-52576.98	1	52666.14	-86.66562	1.579195E-007	0.0231341	8
	9	4	125953.1	8388.778	-65977.23	1	66508.4	-82.75392	-4.70917E-007	0.024596	7
	10	4	100078.1	5622.87	-81746.23	1	81939.39	-86.06514	1.024561E-007	0.0229833	7
	11	5	79453.13	6596.31	-102753.2	1	102964.7	-86.3269	-1.746832E-008	0.0230811	7
	12	5	63140.62	7870.217	-127547	1	127789.6	-86.46907	-6.583382E-008	0.0232013	7
	13	6	50203.12	10110.08	-160178.2	1	160497	-86.38841	-4.69696E-008	0.0231168	7
	14	6	39890.62	13813.77	-198662.1	1	199141.8	-86.0224	4.182404E-008	0.0229188	7
	15	6	31640.63	15787.57	-250548.1	1	251045	-86.39444	-6.495187E-008	0.0231911	7
	16	7	25171.88	12819.47	-315304	1	315564.5	-87.67178	1.043553E-007	0.0229586	7
	17	7	20015.62	83782.02	-411565.1	1	420006.3	-78.49356	3.565305E-009	0.0230126	7
	18	8	15890.62	33638.71	-476634.8	1	477820.4	-85.96302	-8.038199E-008	0.0233005	7
	19	8	12609.37	31922.52	-600779.1	1	601626.6	-86.95844	3.013651E-009	0.0230719	6
	20	8	10078.13	59112.03	-748382.7	1	750713.6	-85.48379	-1.126285E-008	0.0232425	6
	21	9	8015.625	-111519.8	-1067392	1	1073202	-95.9646	-1.093267E-008	0.0231638	6
	22	9	6328.125	74821.3	-1161318	1	1163726	-86.31365	-6.733198E-009	0.0230793	6
	23	10	5015.625	139794.7	-1411892	1	1418796	-84.34544	-1.075976E-008	0.0232384	6
	24	10	3984.375	285663.6	-1985613	1	2006057	-81.81322	4.871622E-009	0.0227864	6
	25	11	3170.956	106524.3	-2283489	1	2285973	-87.3291	2.270995E-008	0.0226809	6
	26	11	2527.573	82542.45	-2774846	1	2776074	-88.29614	1.689262E-008	0.0228799	6
	27	11	1976.103	1176087	-3856738	1	4032073	-73.04125	2.243073E-008	0.0226758	6
	28	12	1577.524	519707	-1405869	1	1498854	-69.71218	2.450423E-009	0.023067	6
	29	12	1265.625	263831.8	-5305750	1	5312305	-87.15327	2.00234E-009	0.0226574	5
	30	13	998.264	421187.1	-7182696	1	7195035	-86.64407	-1.380958E-009	0.023122	5
	31	13	796.875	299095.8	-8193946	1	8199403	-87.90952	1.681513E-008	0.0228735	6
	32	14	627.7902	389314.5	-1.075288E+007	1	1.075993E+007	-87.92648	-6.774246E-010	0.0232349	5
	33	14	505.5147	1379400	-1.343098E+007	1	1.350163E+007	-84.13612	-6.75869E-010	0.0230333	5
	34	15	397.9953	952510	-1.619553E+007	1	1.622352E+007	-86.63413	6.736324E-010	0.0230167	5
	35	15	315.5048	6682817	-1.969057E+007	1	2.079371E+007	-71.25321	2.396038E-010	0.0230103	5
	36	16	252.4038	2903747	-3.020035E+007	1	3.033962E+007	-84.50793	9.719754E-010	0.0230103	5
	37	16	198.6229	5928002	-3.601738E+007	1	3.650196E+007	-80.65364	3.132223E-010	0.023009	5
	38	16	158.3615	2.367832E+007	-2.366229E+007	1	3.347487E+007	-44.98061	4.890246E-010	0.023008	5
	39	17	125.558	-1.496485E+007	-4.39942E+007	1	4.646974E+007	-108.786	-1.47018E-010	0.0230108	4
	40	17	100.4464	-3532474	-1.340417E+007	1	1.386182E+007	-104.7638	5.430619E-010	0.0230053	4
	41	18	79.00281	1.061108E+007	9214906	1	1.40538E+007	40.97181	8.755794E-010	0.0230036	4
	42	18	63.3446	3090285	-2344651	1	3879079	-37.1882	-4.001033E-010	0.0230079	4
	43	19	49.86702	-1.537599E+007	-2.230403E+007	1	2.709042E+007	-124.5817	-8.941916E-011	0.0230027	4
	44	20	39.72458	3.092443E+007	-7035653	1	3.171467E+007	-12.81726	3.099478E-010	0.023009	4
	45	20	31.6723	-1.185207E+007	-2.066154E+007	1	2.381955E+007	-119.8399	-2.229275E-010	0.0230047	4
	46	20	24.93351	9.983809E+007	-2.756598E+007	1	1.035738E+008	-15.43519	-6.044978E-011	0.0230031	4
	47	21	19.86229	-7.053232E+007	5208748	1	7.072439E+007	175.7764	2.933122E-010	0.0230085	4
	48	21	15.83615	7608969	5605700	1	9450941	36.37992	1.779671E-009	0.0230043	5
	49	22	12.40079	2.622321E+007	-9.650566E+006	1	2.794263E+007	-20.20443	6.158586E-010	0.0230022	4
	50	23	9.93114	5.300689E+007	1.963491E+008	1	2.033782E+008	74.89243	8.243681E-011	0.0230112	4
	51	24	7.944915	5.368552E+007	1.609837E+007	1	5.604724E+007	16.69211	-1.995957E-010	0.0229995	4
	52	25	6.317385	2.723705E+008	-2.832026E+008	1	3.929242E+008	-46.11697	6.913856E-011	0.0229963	4
	53	26	5.008013	-1.648559E+008	5.727641E+008	1	5.960169E+008	106.0571	1.116705E-010	0.0230081	4
	54	28	3.945707	-8.165069E+007	-2.03914E+008	1	2.196537E+008	-111.822	1.195452E-010	0.0230061	5
	55	30	3.158693	1.086164E+009	-7.117676E+008	1	1.298601E+009	-33.23699	6.345514E-011	0.0230123	4
	56	32	2.504006	2.529436E+009	-9.318945E+008	1	2.69564E+009	-20.2248	1.197011E-011	0.0229904	3
	57	35	1.998082	3.337413E+009	-3.152915E+009	1	4.591208E+009	-43.37172	1.297523E-011	0.0230276	3
	58	38	1.584686	2.966988E+009	-1.325988E+009	1	3.24981E+009	-24.08053	1.321892E-011	0.022958	3
	59	42	1.266892	3.652916E+010	-7.599713E+009	1	3.731133E+010	-11.75246	-8.649112E-012	0.0229582	2
	60	46	0.999041	2.285896E+010	-7.202239E+009	1	2.396673E+010	-17.48823	-8.191552E-012	0.0229895	2
