EXPLAIN
TAG	EISPOT
TITLE	LABEL	Potentiostatic EIS	Test &Identifier
DATE	LABEL	11/20/2019	Date
TIME	LABEL	10:07:35	Time
NOTES	NOTES	4	&Notes...
	
	
	
	
PSTAT	PSTAT	REF600-11020	Potentiostat
VDC	POTEN	0.00000E+000	T	DC &Voltage (V)
FREQINIT	QUANT	1.00000E+006	Initial Fre&q. (Hz)
FREQFINAL	QUANT	1.00000E+000	Final Fre&q. (Hz)
PTSPERDEC	QUANT	1.00000E+001	Points/&decade
VAC	QUANT	2.50000E+001	AC &Voltage (mV rms)
AREA	QUANT	1.00000E-002	&Area (cm^2)
CONDIT	TWOPARAM	T	5.00000E+000	0.00000E+000	Conditionin&g	Time(s)	E(V)
DELAY	TWOPARAM	T	5.00000E+000	0.00000E+000	Init. De&lay	Time(s)	Stab.(mV/s)
SPEED	SELECTOR	0	&Optimize for:
ZGUESS	QUANT	1.00000E+005	E&stimated Z (ohms)
OCVCURVE	TABLE	19
	Pt	T	Vf	Vm	Ach	Over
	#	s	V vs. Ref.	V	V	bits
	0	0.258333	6.50409E-004	6.50409E-004	5.29499E-004	...........
	1	0.516667	6.43900E-004	3.09730E-004	5.37399E-004	...........
	2	0.775	6.03082E-004	-5.78765E-005	5.32800E-004	...........
	3	1.03333	4.85433E-004	-3.76243E-004	5.31800E-004	...........
	4	1.29167	2.72387E-004	-6.78075E-004	5.39899E-004	...........
	5	1.55	-1.15308E-005	-9.65583E-004	5.34000E-004	...........
	6	1.80833	-3.23536E-004	-1.21548E-003	5.37466E-004	...........
	7	2.06667	-6.30825E-004	-1.44413E-003	5.28166E-004	...........
	8	2.325	-9.16776E-004	-1.64724E-003	5.32200E-004	...........
	9	2.58333	-1.17605E-003	-1.84025E-003	5.39299E-004	...........
	10	2.84167	-1.40987E-003	-2.02859E-003	5.28733E-004	...........
	11	3.1	-1.62291E-003	-2.20057E-003	5.33866E-004	...........
	12	3.35833	-1.82028E-003	-2.36222E-003	5.31866E-004	...........
	13	3.61667	-2.00538E-003	-2.52130E-003	5.31400E-004	...........
	14	3.875	-2.17982E-003	-2.65945E-003	5.33233E-004	...........
	15	4.13333	-2.34421E-003	-2.79506E-003	5.33200E-004	...........
	16	4.39167	-2.49859E-003	-2.92178E-003	5.26000E-004	...........
	17	4.65	-2.64332E-003	-3.04565E-003	5.29100E-004	...........
	18	4.90833	-2.77952E-003	-3.16091E-003	5.30866E-004	...........
EOC	QUANT	-0.0027795	Open Circuit (V)
PSTATMODEL	IQUANT	4	Pstat Model
PSTATSECTION	LABEL	REF600-11020	Pstat Section
PSTATSERIALNO	LABEL	11020	Pstat Serial Number
CTRLMODE	IQUANT	1	Control Mode
IESTAB	IQUANT	0	I/E Stability
CASPEED	IQUANT	1	Control Amp Speed
CONVENTION	IQUANT	1	Current Convention
ICHRANGE	IQUANT	2	Ich Range
ICHRANGEMODE	TOGGLE	F	Ich Auto Range
ICHOFFSETENABLE	TOGGLE	T	Ich Offset Enable
ICHOFFSET	QUANT	0	Ich Offset (V)
ICHFILTER	IQUANT	3	Ich Filter
VCHRANGE	IQUANT	2	Vch Range
VCHRANGEMODE	TOGGLE	F	Vch Auto Range
VCHOFFSETENABLE	TOGGLE	T	Vch Offset Enable
VCHOFFSET	QUANT	0	Vch Offset (V)
VCHFILTER	IQUANT	3	Vch Filter
ACHRANGE	IQUANT	2	Ach Range
ACHOFFSETENABLE	TOGGLE	F	Ach Offset Enable
ACHOFFSET	QUANT	0	Ach Offset (V)
ACHFILTER	IQUANT	3	Ach Filter
IERANGELOWERLIMIT	IQUANT	1	I/E Range Lower Limit
IERANGEMODE	TOGGLE	F	I/E AutoRange
IERANGE	IQUANT	4	I/E Range
POSFEEDENABLE	TOGGLE	F	Positive Feedback IR Comp
POSFEEDRESISTANCE	QUANT	0	Positive Feedback Resistance (ohm)
ACHSELECT	IQUANT	0	Ach Select
CABLEID	IQUANT	14	Cable ID
DCCALDATE	LABEL	8/19/2019	DC Calibration Date
ACCALDATE	LABEL	8/19/2019	AC Calibration Date
THERMOSELECT	IQUANT	1	Thermo Select
FRAMEWORKVERSION	QUANT	6.33	Framework Version
INSTRUMENTVERSION	LABEL	3.50	Instrument Version
ZCURVE	TABLE
	Pt	Time	Freq	Zreal	Zimag	Zsig	Zmod	Zphz	Idc	Vdc	IERange
	#	s	Hz	ohm	ohm	V	ohm	°	A	V	#
	0	1	1000078	2333.299	-1452.233	1	2748.321	-31.89792	-6.829917E-006	0.0006013	8
	1	1	794390.6	2611.854	-1365.739	1	2947.375	-27.60508	-2.961871E-006	-0.0004118	8
	2	2	630984.4	2847.618	-1237.854	1	3105.03	-23.49449	4.018584E-007	-0.0012869	8
	3	2	501234.4	3037.082	-1099.161	1	3229.864	-19.89586	-1.416722E-007	-0.0013906	8
	4	2	398109.4	3180.706	-962.353	1	3323.104	-16.83369	-1.264782E-006	-0.0007769	8
	5	3	316265.6	3287.345	-834.9086	1	3391.712	-14.25048	-5.269056E-006	-0.0003997	8
	6	3	251203.1	3370.719	-727.9608	1	3448.43	-12.18677	5.324742E-006	-0.0018284	8
	7	-611999	199546.9	3454.718	-636.4193	1	3512.849	-10.43786	-2.325741E-006	-0.0007568	8
	8	-611999	158578.1	3493.137	-575.5706	1	3540.238	-9.356658	-1.350318E-006	-0.0013806	8
	9	-611999	125953.1	3566.227	-479.8924	1	3598.371	-7.664018	-1.490111E-006	-0.00156	7
	10	-611999	100078.1	3599.682	-438.7916	1	3626.327	-6.949915	-5.501461E-007	0.0001846	7
	11	-611998	79453.13	3635.682	-422.4534	1	3660.144	-6.627844	-6.407724E-007	-0.0013731	7
	12	-611998	63140.62	3671.764	-416.924	1	3695.359	-6.478114	-2.598221E-007	-4.240278E-005	7
	13	-611998	50203.12	3709.493	-420.5441	1	3733.255	-6.467989	5.339938E-007	-0.0010522	7
	14	-611997	39890.62	3750.094	-433.6839	1	3775.088	-6.596732	5.304606E-007	-0.0010528	7
	15	-611997	31640.63	3789.208	-455.0518	1	3816.434	-6.847944	-9.154099E-007	-0.0007835	7
	16	-611997	25171.88	3835.188	-487.8319	1	3866.089	-7.249036	9.452015E-007	-0.0025047	7
	17	-611996	20015.62	3882.381	-531.0228	1	3918.529	-7.788451	4.267136E-007	-0.0026902	7
	18	-611996	15890.62	3935.47	-582.2405	1	3978.307	-8.415684	4.273418E-007	-0.0026927	7
	19	-611996	12609.37	3997.112	-649.038	1	4049.463	-9.223005	8.872061E-007	-0.0018642	7
	20	-611995	10078.13	4060.8	-723.8967	1	4124.817	-10.10763	9.603114E-007	-0.0022298	7
	21	-611995	8015.625	4132.578	-817.0225	1	4212.567	-11.18332	-1.072502E-006	2.661182E-005	7
	22	-611995	6328.125	4216.503	-925.3377	1	4316.845	-12.3777	6.308906E-008	-0.0004082	7
	23	-611994	5015.625	4313.421	-1055.65	1	4440.721	-13.75204	8.571707E-007	-0.0027147	7
	24	-611994	3984.375	4420.233	-1201.779	1	4580.692	-15.21	5.333828E-007	-0.0010644	7
	25	-611994	3170.956	4533.562	-1373.995	1	4737.198	-16.86058	-7.863486E-007	0.0002229	7
	26	-611993	2527.573	4665.457	-1574.631	1	4924.018	-18.64998	3.415317E-007	-0.0007829	7
	27	-611993	1976.103	4819.71	-1826.155	1	5154.071	-20.75135	-6.359547E-007	-0.0013902	7
	28	-611993	1577.524	4979.645	-2085.053	1	5398.547	-22.7198	8.872123E-007	-0.0018724	7
	29	-611992	1265.625	5147.84	-2415.527	1	5686.39	-25.13744	-1.073266E-006	1.795567E-005	7
	30	-611992	998.264	5345.913	-2817.807	1	6043.08	-27.79352	-2.647626E-007	-0.0019899	7
	31	-611992	796.875	5546.622	-3278.687	1	6443.198	-30.58793	-2.711498E-007	-0.0019938	7
	32	-611992	627.7902	5778.806	-3865.695	1	6952.568	-33.78029	5.33433E-007	-0.0010564	7
	33	-611991	505.5147	6002.816	-4514.056	1	7510.692	-36.94279	-6.411871E-007	-0.001388	7
	34	-611991	397.9953	6265.396	-5399.366	1	8270.933	-40.75396	7.298255E-010	-0.0012231	7
	35	-611990	315.5048	6549.2	-6463.867	1	9201.825	-44.62429	4.00033E-009	-0.0012267	7
	36	-611990	252.4038	6857.789	-7726.183	1	10330.69	-48.40762	1.453181E-009	-0.0012884	6
	37	-611990	198.6229	7239.66	-9407.988	1	11871.1	-52.42091	6.679476E-010	-0.0012792	6
	38	-611989	158.3615	7671.638	-11381.58	1	13725.69	-56.01847	8.326032E-010	-0.0012934	6
	39	-611989	125.558	8207.154	-13873.7	1	16119.46	-59.39304	8.830423E-010	-0.0012967	6
	40	-611989	100.4464	8832.52	-16806.85	1	18986.4	-62.27668	-6.70806E-011	-0.0012853	6
	41	-611988	79.00281	9732.61	-20706.4	1	22879.66	-64.8251	3.952065E-010	-0.0012887	6
	42	-611988	63.3446	10578.12	-25108.64	1	27245.92	-67.15459	1.883757E-011	-0.0012887	6
	43	-611988	49.86702	12004.27	-30872.84	1	33124.54	-68.75245	3.040235E-010	-0.0012988	6
	44	-611987	39.72458	13792.9	-37640.8	1	40088.32	-69.8754	1.095921E-009	-0.0012919	6
	45	-611987	31.6723	16040.99	-45792.27	1	48520.57	-70.69469	1.542464E-009	-0.0012936	6
	46	-611987	24.93351	18951.2	-56149.11	1	59261.04	-71.34966	8.539379E-010	-0.0012951	6
	47	-611986	19.86229	22576.69	-68122.29	1	71765.96	-71.66408	1.4679E-009	-0.0012887	6
	48	-611986	15.83615	27984.22	-82402.03	1	87024.2	-71.2422	-2.072315E-009	-0.0012915	6
	49	-611986	12.40079	34391.83	-100829.2	1	106533.2	-71.16601	-7.782195E-010	-0.0012899	6
	50	-611986	9.93114	41703.5	-120644.4	1	127649	-70.93112	-6.455131E-010	-0.0012874	5
	51	-611985	7.944915	51301.2	-144192.5	1	153046.7	-70.41532	-4.334378E-010	-0.0012793	5
	52	-611985	6.317385	63866.02	-172364.2	1	183815.9	-69.66885	-1.999015E-010	-0.0012794	5
	53	-611984	5.008013	79772.2	-205702.3	1	220628.7	-68.8035	1.748063E-010	-0.0012891	5
	54	-611983	3.945707	100174.8	-245244.6	1	264914.9	-67.78152	2.077796E-010	-0.0013026	5
	55	-611981	3.158693	122996.2	-288429.5	1	313559.6	-66.90495	3.303052E-010	-0.0012862	5
	56	-611980	2.504006	151633.7	-339741.1	1	372044	-65.94778	2.660847E-010	-0.0012857	5
	57	-611978	1.998082	184729.5	-397350.2	1	438191.9	-65.06611	1.067952E-010	-0.0013278	5
	58	-611977	1.584686	224209.4	-464197.9	1	515509	-64.21928	1.957003E-010	-0.0012939	5
	59	-611975	1.266892	270855.8	-539192.6	1	603399.9	-63.32798	2.354778E-010	-0.0012639	5
	60	-611972	0.999041	328308.1	-631953.4	1	712145.6	-62.54753	2.420581E-010	-0.0012547	5
