EXPLAIN
TAG	EISPOT
TITLE	LABEL	Potentiostatic EIS	Test &Identifier
DATE	LABEL	10/8/2019	Date
TIME	LABEL	8:52:58	Time
NOTES	NOTES	2	&Notes...
	
	
PSTAT	PSTAT	REF600-11020	Potentiostat
VDC	POTEN	0.00000E+000	T	DC &Voltage (V)
FREQINIT	QUANT	1.00000E+006	Initial Fre&q. (Hz)
FREQFINAL	QUANT	1.00000E+000	Final Fre&q. (Hz)
PTSPERDEC	QUANT	1.00000E+001	Points/&decade
VAC	QUANT	2.50000E+001	AC &Voltage (mV rms)
AREA	QUANT	1.00000E-002	&Area (cm^2)
CONDIT	TWOPARAM	T	5.00000E+000	0.00000E+000	Conditionin&g	Time(s)	E(V)
DELAY	TWOPARAM	T	5.00000E+000	0.00000E+000	Init. De&lay	Time(s)	Stab.(mV/s)
SPEED	SELECTOR	1	&Optimize for:
ZGUESS	QUANT	1.00000E+004	E&stimated Z (ohms)
OCVCURVE	TABLE	19
	Pt	T	Vf	Vm	Ach	Over
	#	s	V vs. Ref.	V	V	bits
	0	0.258333	4.45376E-003	4.45376E-003	5.65199E-004	...........
	1	0.516667	4.45214E-003	4.36907E-003	5.64099E-004	...........
	2	0.775	4.44264E-003	4.31184E-003	5.54233E-004	...........
	3	1.03333	4.41736E-003	4.26291E-003	5.54233E-004	...........
	4	1.29167	4.37552E-003	4.21872E-003	5.67132E-004	...........
	5	1.55	4.32444E-003	4.16252E-003	5.62866E-004	...........
	6	1.80833	4.27256E-003	4.17019E-003	5.59099E-004	...........
	7	2.06667	4.22696E-003	4.16656E-003	5.60899E-004	...........
	8	2.325	4.19377E-003	4.16387E-003	5.64966E-004	...........
	9	2.58333	4.17395E-003	4.11951E-003	5.70966E-004	...........
	10	2.84167	4.16113E-003	4.11422E-003	5.59666E-004	...........
	11	3.1	4.14817E-003	4.11504E-003	5.56666E-004	...........
	12	3.35833	4.13417E-003	4.10713E-003	5.58332E-004	...........
	13	3.61667	4.12786E-003	4.39614E-003	5.68266E-004	...........
	14	3.875	4.14251E-003	4.07651E-003	5.66999E-004	...........
	15	4.13333	4.17075E-003	4.11456E-003	5.65132E-004	...........
	16	4.39167	4.18219E-003	4.11176E-003	5.64766E-004	...........
	17	4.65	4.16576E-003	4.13323E-003	5.60132E-004	...........
	18	4.90833	4.14192E-003	4.15483E-003	5.59532E-004	...........
EOC	QUANT	0.0041419	Open Circuit (V)
PSTATMODEL	IQUANT	4	Pstat Model
PSTATSECTION	LABEL	REF600-11020	Pstat Section
PSTATSERIALNO	LABEL	11020	Pstat Serial Number
CTRLMODE	IQUANT	1	Control Mode
IESTAB	IQUANT	0	I/E Stability
CASPEED	IQUANT	1	Control Amp Speed
CONVENTION	IQUANT	1	Current Convention
ICHRANGE	IQUANT	2	Ich Range
ICHRANGEMODE	TOGGLE	F	Ich Auto Range
ICHOFFSETENABLE	TOGGLE	T	Ich Offset Enable
ICHOFFSET	QUANT	0	Ich Offset (V)
ICHFILTER	IQUANT	3	Ich Filter
VCHRANGE	IQUANT	2	Vch Range
VCHRANGEMODE	TOGGLE	F	Vch Auto Range
VCHOFFSETENABLE	TOGGLE	T	Vch Offset Enable
VCHOFFSET	QUANT	0	Vch Offset (V)
VCHFILTER	IQUANT	3	Vch Filter
ACHRANGE	IQUANT	2	Ach Range
ACHOFFSETENABLE	TOGGLE	F	Ach Offset Enable
ACHOFFSET	QUANT	0	Ach Offset (V)
ACHFILTER	IQUANT	3	Ach Filter
IERANGELOWERLIMIT	IQUANT	1	I/E Range Lower Limit
IERANGEMODE	TOGGLE	F	I/E AutoRange
IERANGE	IQUANT	5	I/E Range
POSFEEDENABLE	TOGGLE	F	Positive Feedback IR Comp
POSFEEDRESISTANCE	QUANT	0	Positive Feedback Resistance (ohm)
ACHSELECT	IQUANT	0	Ach Select
CABLEID	IQUANT	14	Cable ID
DCCALDATE	LABEL	8/19/2019	DC Calibration Date
ACCALDATE	LABEL	8/19/2019	AC Calibration Date
THERMOSELECT	IQUANT	1	Thermo Select
FRAMEWORKVERSION	QUANT	6.33	Framework Version
INSTRUMENTVERSION	LABEL	3.50	Instrument Version
ZCURVE	TABLE
	Pt	Time	Freq	Zreal	Zimag	Zsig	Zmod	Zphz	Idc	Vdc	IERange
	#	s	Hz	ohm	ohm	V	ohm	°	A	V	#
	0	2	1000078	1558.338	-2963.335	1	3348.1	-62.26132	2.021117E-006	0.0070468	8
	1	3	794390.6	1728.602	-3494.053	1	3898.265	-63.67715	4.58798E-006	0.0054121	8
	2	5	630984.4	1945.729	-4166.005	1	4597.984	-64.96511	2.265455E-006	0.0054021	8
	3	7	501234.4	2180.133	-4969.391	1	5426.585	-66.31236	-1.32909E-006	0.0063563	8
	4	8	398109.4	2531.334	-5993.014	1	6505.68	-67.10174	-2.78512E-006	0.0065031	8
	5	10	316265.6	2870.12	-7260.339	1	7807.055	-68.43037	3.011612E-006	0.0052642	8
	6	11	251203.1	3392.328	-8737.332	1	9372.772	-68.78096	-2.857018E-006	0.0065312	8
	7	13	199546.9	3966.977	-10536.94	1	11258.95	-69.36951	1.346103E-006	0.005406	8
	8	15	158578.1	5085.57	-13175.79	1	14123.19	-68.89449	2.12085E-006	0.0056056	8
	9	17	125953.1	6001.854	-15359.78	1	16490.76	-68.65686	-5.358931E-007	0.007504	7
	10	18	100078.1	7600.147	-18352.83	1	19864.26	-67.50491	-9.625436E-008	0.0059808	7
	11	20	79453.13	9516.55	-21993.55	1	23964.16	-66.60199	1.516961E-007	0.005583	7
	12	21	63140.62	11990.11	-26053.04	1	28679.68	-65.28721	8.895576E-009	0.0059371	7
	13	22	50203.12	15197.11	-30623.12	1	34186.65	-63.60651	1.534355E-007	0.0055783	7
	14	24	39890.62	19251.58	-35610.19	1	40480.97	-61.60346	-4.678459E-008	0.0058997	7
	15	25	31640.63	24406.12	-40978.18	1	47695.6	-59.22247	-3.113056E-008	0.0057758	7
	16	27	25171.88	30516.02	-46719.71	1	55802.86	-56.84855	-5.596982E-008	0.0059977	7
	17	29	20015.62	37795.31	-52300.08	1	64527.39	-54.14577	-3.742049E-008	0.0058064	7
	18	30	15890.62	47084.41	-58155.19	1	74826.26	-51.0052	-2.914436E-008	0.0058113	7
	19	32	12609.37	58092.76	-62914.55	1	85633	-47.28186	-1.329825E-008	0.0058557	6
	20	33	10078.13	69166.2	-66919.06	1	96239.9	-44.05398	-8.45803E-009	0.0058663	6
	21	35	8015.625	81543.16	-69907.23	1	107407.2	-40.6066	7.007001E-009	0.0055621	6
	22	37	6328.125	94456.06	-71655.43	1	118559.9	-37.18436	-8.607141E-009	0.0058256	6
	23	38	5015.625	107058.1	-72039.01	1	129039	-33.93646	-4.918007E-009	0.005663	6
	24	39	3984.375	119191.9	-71990.17	1	139245.5	-31.13136	3.128838E-009	0.0055414	6
	25	41	3170.956	130804.2	-69809.18	1	148266.9	-28.08849	-4.98139E-009	0.0056596	6
	26	43	2527.573	141180.5	-68258.8	1	156815.8	-25.80312	-1.072746E-008	0.0058281	6
	27	44	1976.103	152249.4	-66306.37	1	166061.5	-23.53368	5.338205E-009	0.0057831	6
	28	46	1577.524	161101.8	-65460.47	1	173893.2	-22.11338	-8.898295E-009	0.0058631	6
	29	47	1265.625	169970.1	-60916.3	1	180556.4	-19.71739	6.254291E-010	0.0057625	5
	30	49	998.264	177973	-60637.77	1	188019.5	-18.81466	-2.906742E-010	0.0057766	5
	31	50	796.875	185612.7	-60818.55	1	195322.7	-18.1421	-1.054211E-009	0.0056898	5
	32	52	627.7902	193403.8	-61776.36	1	203030.4	-17.71434	1.066671E-010	0.0055576	5
	33	53	505.5147	200535.3	-63488.36	1	210345.4	-17.5675	-1.472617E-009	0.005876	5
	34	54	397.9953	208759	-65755.36	1	218870	-17.4835	-1.947477E-010	0.0057555	5
	35	56	315.5048	217223.6	-68396.65	1	227737.2	-17.47752	-4.393909E-010	0.0057565	5
	36	57	252.4038	225338	-72110.52	1	236594.8	-17.74522	-9.826907E-011	0.0057527	5
	37	58	198.6229	234434.3	-76280.83	1	246532.3	-18.02398	1.087122E-010	0.0057419	5
	38	60	158.3615	243097.4	-81222.92	1	256307.4	-18.47534	-1.473323E-010	0.0057465	5
	39	61	125.558	252811.5	-87347.89	1	267475.8	-19.06034	-3.276252E-011	0.0057462	5
	40	63	100.4464	262890.3	-94819.18	1	279467.3	-19.83335	-8.368106E-011	0.0057473	5
	41	64	79.00281	272920.5	-103174.9	1	291771.6	-20.7086	-1.084379E-010	0.0057473	5
	42	66	63.3446	287402.8	-101047.9	1	304649.1	-19.37115	-4.206E-013	0.0057473	5
	43	67	49.86702	300241.9	-128493.1	1	326581.8	-23.16924	3.6971E-011	0.0057441	5
	44	69	39.72458	314665.9	-143953.8	1	346030.9	-24.58322	-1.131508E-010	0.0057486	5
	45	70	31.6723	331563.7	-162757.9	1	369357.1	-26.14549	-6.939339E-011	0.0057453	5
	46	72	24.93351	350159.2	-184169.4	1	395638.5	-27.74253	-7.84544E-011	0.0057457	5
	47	73	19.86229	372477.4	-205677.2	1	425490.9	-28.90691	2.550266E-010	0.0057493	5
	48	75	15.83615	400287.3	-220753.3	1	457123.6	-28.87617	-5.966451E-010	0.0057503	5
	49	76	12.40079	431412.3	-259522.6	1	503456.6	-31.02965	-1.25247E-010	0.0057508	5
	50	78	9.93114	466259.3	-288293	1	548188.4	-31.72893	3.871159E-010	0.0057504	5
	51	79	7.944915	509440.6	-316762.9	1	599890.4	-31.87276	-1.266741E-010	0.0057493	5
	52	81	6.317385	546023.9	-350536.6	1	648859	-32.69967	9.32438E-010	0.0057392	6
	53	83	5.008013	591931.1	-386344.8	1	706855.5	-33.1319	8.053501E-010	0.0057576	6
	54	86	3.945707	642498.2	-425200.1	1	770453.8	-33.49627	4.393449E-010	0.0057524	6
	55	90	3.158693	692352	-467000.6	1	835129.3	-34.00018	4.355741E-010	0.0057528	6
	56	93	2.504006	747056.7	-518729.1	1	909490.8	-34.77471	-2.342053E-010	0.0057534	5
	57	96	1.998082	802896.9	-572953.1	1	986366	-35.51193	-4.919216E-011	0.0057082	4
	58	99	1.584686	859415.9	-643538.1	1	1073656	-36.82619	-1.124375E-010	0.0057797	4
	59	103	1.266892	925629.8	-720503.3	1	1172994	-37.89692	-1.18685E-010	0.0057259	4
	60	107	0.999041	1002134	-822021.1	1	1296145	-39.36101	1.956147E-010	0.00578	4
