EXPLAIN
TAG	EISPOT
TITLE	LABEL	Potentiostatic EIS	Test &Identifier
DATE	LABEL	8/14/2018	Date
TIME	LABEL	5:45:56	Time
NOTES	NOTES	1	&Notes...
	
PSTAT	PSTAT	REF600-11020	Potentiostat
VDC	POTEN	0.00000E+000	T	DC &Voltage (V)
FREQINIT	QUANT	1.00000E+006	Initial Fre&q. (Hz)
FREQFINAL	QUANT	1.00000E+000	Final Fre&q. (Hz)
PTSPERDEC	QUANT	1.00000E+001	Points/&decade
VAC	QUANT	2.50000E+001	AC &Voltage (mV rms)
AREA	QUANT	1.00000E-002	&Area (cm^2)
CONDIT	TWOPARAM	T	5.00000E+000	0.00000E+000	Conditionin&g	Time(s)	E(V)
DELAY	TWOPARAM	T	5.00000E+000	0.00000E+000	Init. De&lay	Time(s)	Stab.(mV/s)
SPEED	SELECTOR	0	&Optimize for:
ZGUESS	QUANT	1.00000E+005	E&stimated Z (ohms)
OCVCURVE	TABLE	19
	Pt	T	Vf	Vm	Ach	Over
	#	s	V vs. Ref.	V	V	bits
	0	0.258333	3.78442E-002	3.78442E-002	5.62032E-004	...........
	1	0.516667	3.78990E-002	4.07092E-002	5.58732E-004	...........
	2	0.775	3.82330E-002	4.33198E-002	5.57233E-004	...........
	3	1.03333	3.91711E-002	4.58088E-002	5.57699E-004	...........
	4	1.29167	4.08345E-002	4.81579E-002	5.50166E-004	...........
	5	1.55	4.30236E-002	5.03317E-002	5.50499E-004	...........
	6	1.80833	4.54222E-002	5.24593E-002	5.49733E-004	...........
	7	2.06667	4.78034E-002	5.44643E-002	5.53032E-004	...........
	8	2.325	5.00712E-002	5.63412E-002	5.56133E-004	...........
	9	2.58333	5.22097E-002	5.82158E-002	5.55899E-004	...........
	10	2.84167	5.42338E-002	5.99990E-002	5.54433E-004	...........
	11	3.1	5.61647E-002	6.16773E-002	5.54833E-004	...........
	12	3.35833	5.80177E-002	6.33579E-002	5.56766E-004	...........
	13	3.61667	5.98006E-002	6.49388E-002	5.58999E-004	...........
	14	3.875	6.15182E-002	6.64514E-002	5.59232E-004	...........
	15	4.13333	6.31737E-002	6.79655E-002	5.51966E-004	...........
	16	4.39167	6.47700E-002	6.93842E-002	5.48633E-004	...........
	17	4.65	6.63112E-002	7.07695E-002	5.49166E-004	...........
	18	4.90833	6.78012E-002	7.21541E-002	5.55366E-004	...........
EOC	QUANT	0.0678012	Open Circuit (V)
PSTATMODEL	IQUANT	4	Pstat Model
PSTATSECTION	LABEL	REF600-11020	Pstat Section
PSTATSERIALNO	LABEL	11020	Pstat Serial Number
CTRLMODE	IQUANT	1	Control Mode
IESTAB	IQUANT	0	I/E Stability
CASPEED	IQUANT	1	Control Amp Speed
CONVENTION	IQUANT	1	Current Convention
ICHRANGE	IQUANT	2	Ich Range
ICHRANGEMODE	TOGGLE	F	Ich Auto Range
ICHOFFSETENABLE	TOGGLE	T	Ich Offset Enable
ICHOFFSET	QUANT	0	Ich Offset (V)
ICHFILTER	IQUANT	3	Ich Filter
VCHRANGE	IQUANT	2	Vch Range
VCHRANGEMODE	TOGGLE	F	Vch Auto Range
VCHOFFSETENABLE	TOGGLE	T	Vch Offset Enable
VCHOFFSET	QUANT	0	Vch Offset (V)
VCHFILTER	IQUANT	3	Vch Filter
ACHRANGE	IQUANT	2	Ach Range
ACHOFFSETENABLE	TOGGLE	F	Ach Offset Enable
ACHOFFSET	QUANT	0	Ach Offset (V)
ACHFILTER	IQUANT	3	Ach Filter
IERANGELOWERLIMIT	IQUANT	1	I/E Range Lower Limit
IERANGEMODE	TOGGLE	F	I/E AutoRange
IERANGE	IQUANT	6	I/E Range
POSFEEDENABLE	TOGGLE	F	Positive Feedback IR Comp
POSFEEDRESISTANCE	QUANT	0	Positive Feedback Resistance (ohm)
ACHSELECT	IQUANT	0	Ach Select
CABLEID	IQUANT	14	Cable ID
DCCALDATE	LABEL	8/19/2019	DC Calibration Date
ACCALDATE	LABEL	8/19/2019	AC Calibration Date
THERMOSELECT	IQUANT	1	Thermo Select
FRAMEWORKVERSION	QUANT	6.33	Framework Version
INSTRUMENTVERSION	LABEL	3.50	Instrument Version
ZCURVE	TABLE
	Pt	Time	Freq	Zreal	Zimag	Zsig	Zmod	Zphz	Idc	Vdc	IERange
	#	s	Hz	ohm	ohm	V	ohm	°	A	V	#
	0	1	1000078	2007.568	-1487.223	1	2498.432	-36.53135	1.09873E-006	0.069557	8
	1	1	794390.6	2264.18	-1564.644	1	2752.203	-34.64611	2.414976E-006	0.068843	8
	2	2	630984.4	2543.174	-1593.795	1	3001.319	-32.07516	-1.916797E-006	0.0693358	8
	3	2	501234.4	2850.032	-1603.929	1	3270.363	-29.36976	1.372445E-006	0.0692732	8
	4	2	398109.4	3156.577	-1600.994	1	3539.373	-26.89381	4.040657E-006	0.0685926	8
	5	3	316265.6	3407.592	-1504.36	1	3724.886	-23.82017	9.418383E-007	0.0692065	8
	6	3	251203.1	3685.527	-1420.796	1	3949.907	-21.08199	-9.060566E-007	0.0695042	8
	7	3	199546.9	3926.1	-1313.71	1	4140.06	-18.50073	-1.277268E-006	0.0697585	8
	8	3	158578.1	4114.104	-1209.382	1	4288.176	-16.38123	2.737777E-006	0.0687192	8
	9	4	125953.1	4333.856	-991.942	1	4445.926	-12.89191	-1.138088E-007	0.0696531	7
	10	4	100078.1	4442.081	-877.5349	1	4527.93	-11.17492	-7.57455E-008	0.0693503	7
	11	4	79453.13	4559.689	-795.7789	1	4628.61	-9.89983	-6.395479E-008	0.0692903	7
	12	5	63140.62	4647.336	-716.7158	1	4702.277	-8.76713	-6.445018E-008	0.06939	7
	13	5	50203.12	4723.392	-652.0021	1	4768.18	-7.859262	1.169605E-007	0.0690739	7
	14	5	39890.62	4787.444	-600.6564	1	4824.978	-7.151245	-6.37798E-008	0.0692909	7
	15	6	31640.63	4849.542	-562.7198	1	4882.081	-6.618754	1.425113E-008	0.0691526	7
	16	6	25171.88	4905.02	-540.0656	1	4934.662	-6.283224	8.373719E-008	0.0690679	7
	17	6	20015.62	4958.487	-526.4286	1	4986.354	-6.060231	8.242451E-008	0.0690641	7
	18	7	15890.62	5011.445	-530.1464	1	5039.409	-6.038697	-1.017428E-007	0.069388	7
	19	7	12609.37	5072.812	-539.1346	1	5101.38	-6.066579	-6.396889E-008	0.069384	7
	20	7	10078.13	5127.081	-573.8591	1	5159.096	-6.386369	-1.023038E-007	0.0693876	7
	21	8	8015.625	5184.937	-590.4838	1	5218.452	-6.497108	3.979056E-008	0.0690949	7
	22	8	6328.125	5241.871	-633.2358	1	5279.98	-6.888148	-6.500652E-008	0.0693831	7
	23	8	5015.625	5300.638	-688.4207	1	5345.155	-7.399873	-7.517666E-008	0.0693386	7
	24	9	3984.375	5357.16	-761.7443	1	5411.046	-8.092741	-1.039447E-007	0.0693861	7
	25	9	3170.956	5412.979	-855.389	1	5480.148	-8.97994	-6.320784E-008	0.0692763	7
	26	9	2527.573	5466.08	-975.38	1	5552.422	-10.1175	-4.568827E-008	0.0692433	7
	27	9	1976.103	5523.35	-1142.268	1	5640.228	-11.68445	5.632719E-008	0.0691409	7
	28	10	1577.524	5589.175	-1324.922	1	5744.066	-13.33588	-6.370789E-008	0.0693758	7
	29	10	1265.625	5642.36	-1580.453	1	5859.527	-15.64782	-9.784537E-008	0.0693751	7
	30	10	998.264	5716.071	-1913.233	1	6027.764	-18.50597	-6.441755E-008	0.0692734	7
	31	11	796.875	5791.798	-2307.243	1	6234.444	-21.72055	-6.357038E-008	0.0692696	7
	32	11	627.7902	5891.113	-2826.987	1	6534.3	-25.6351	-6.487875E-008	0.0693776	7
	33	11	505.5147	5994.452	-3409.261	1	6896.123	-29.62845	-1.31223E-008	0.0692469	7
	34	12	397.9953	6136.725	-4206.837	1	7440.22	-34.43135	-5.037629E-009	0.0692578	7
	35	12	315.5048	6310.44	-5169.018	1	8157.23	-39.32165	-2.782004E-009	0.0692619	7
	36	12	252.4038	6521.902	-6307.126	1	9072.764	-44.04088	-3.046184E-009	0.0692571	7
	37	13	198.6229	6814.842	-7808.255	1	10363.92	-48.88639	-3.43885E-009	0.0691995	6
	38	13	158.3615	7171.812	-9552.5	1	11945.09	-53.10157	-3.266627E-009	0.0691964	6
	39	13	125.558	7644.768	-11741.38	1	14010.8	-56.93201	-3.084816E-009	0.0692004	6
	40	14	100.4464	8218.13	-14282.32	1	16477.93	-60.08363	-4.507814E-009	0.0691968	6
	41	14	79.00281	9060.382	-17629.28	1	19821.25	-62.79958	-3.775625E-009	0.0691969	6
	42	14	63.3446	9783.7	-21379.31	1	23511.61	-65.41	-3.729434E-009	0.0691964	6
	43	15	49.86702	11115.06	-26213.46	1	28472.61	-67.02203	-3.329641E-009	0.0691995	6
	44	15	39.72458	12749.59	-31870.86	1	34326.43	-68.19667	-3.643548E-009	0.0692011	6
	45	15	31.6723	14686.53	-38671.03	1	41365.96	-69.20416	-3.922518E-009	0.0691987	6
	46	16	24.93351	17199.96	-47233.3	1	50267.52	-69.99096	-3.525057E-009	0.0691977	6
	47	16	19.86229	20310.69	-57218.68	1	60716.57	-70.45686	-4.212176E-009	0.0692027	6
	48	16	15.83615	23662.7	-69584.1	1	73497.42	-71.21893	-5.099887E-009	0.0691976	6
	49	17	12.40079	29021.32	-84998.6	1	89816.48	-71.14841	-3.721954E-009	0.0691985	6
	50	17	9.93114	35708.8	-101395.4	1	107499.5	-70.59907	-3.742148E-009	0.0692031	5
	51	18	7.944915	43727.67	-121546.3	1	129172.8	-70.21322	-3.591662E-009	0.0692042	5
	52	18	6.317385	53752.59	-145536.4	1	155145.7	-69.72874	-3.580083E-009	0.069221	5
	53	19	5.008013	66923.23	-174293.1	1	186699.8	-68.99474	-3.502497E-009	0.0692002	5
	54	20	3.945707	84324.69	-208448.1	1	224858.3	-67.97491	-2.884213E-009	0.0691986	5
	55	21	3.158693	103950.4	-245496.3	1	266597.3	-67.05076	-2.769347E-009	0.0692211	5
	56	23	2.504006	129292.1	-289819	1	317350.7	-65.95771	-2.910045E-009	0.0692112	5
	57	24	1.998082	158161.4	-338204	1	373359.1	-64.93682	-2.643678E-009	0.0692103	5
	58	26	1.584686	194906.2	-395919.8	1	441294.5	-63.78957	-2.409166E-009	0.0692547	5
	59	28	1.266892	235485.8	-459603	1	516418.9	-62.87086	-2.285613E-009	0.0692351	5
	60	30	0.999041	286436.3	-535596.8	1	607379.3	-61.8622	-2.147E-009	0.0692129	5
