EXPLAIN
TAG	EISPOT
TITLE	LABEL	Potentiostatic EIS	Test &Identifier
DATE	LABEL	11/15/2019	Date
TIME	LABEL	12:16:43	Time
NOTES	NOTES	4	&Notes...
	
	
	
	
PSTAT	PSTAT	REF600-11020	Potentiostat
VDC	POTEN	0.00000E+000	T	DC &Voltage (V)
FREQINIT	QUANT	1.00000E+006	Initial Fre&q. (Hz)
FREQFINAL	QUANT	1.00000E+000	Final Fre&q. (Hz)
PTSPERDEC	QUANT	1.00000E+001	Points/&decade
VAC	QUANT	2.50000E+001	AC &Voltage (mV rms)
AREA	QUANT	1.00000E-002	&Area (cm^2)
CONDIT	TWOPARAM	T	5.00000E+000	0.00000E+000	Conditionin&g	Time(s)	E(V)
DELAY	TWOPARAM	T	5.00000E+000	0.00000E+000	Init. De&lay	Time(s)	Stab.(mV/s)
SPEED	SELECTOR	0	&Optimize for:
ZGUESS	QUANT	1.00000E+005	E&stimated Z (ohms)
OCVCURVE	TABLE	19
	Pt	T	Vf	Vm	Ach	Over
	#	s	V vs. Ref.	V	V	bits
	0	0.258333	9.14670E-003	9.14670E-003	5.80765E-004	...........
	1	0.516667	9.14660E-003	9.14168E-003	5.80032E-004	...........
	2	0.775	9.14624E-003	9.14876E-003	5.76832E-004	...........
	3	1.03333	9.14621E-003	9.16863E-003	5.79765E-004	...........
	4	1.29167	9.14896E-003	9.20057E-003	5.78099E-004	...........
	5	1.55	9.15801E-003	9.23489E-003	5.81065E-004	...........
	6	1.80833	9.17574E-003	9.27637E-003	5.80132E-004	...........
	7	2.06667	9.20213E-003	9.31527E-003	5.84999E-004	...........
	8	2.325	9.23547E-003	9.36557E-003	5.81532E-004	...........
	9	2.58333	9.27387E-003	9.40777E-003	5.83099E-004	...........
	10	2.84167	9.31588E-003	9.45829E-003	5.84899E-004	...........
	11	3.1	9.36049E-003	9.50988E-003	5.80799E-004	...........
	12	3.35833	9.40720E-003	9.56094E-003	5.84632E-004	...........
	13	3.61667	9.45583E-003	9.61306E-003	5.78832E-004	...........
	14	3.875	9.50596E-003	9.66130E-003	5.82832E-004	...........
	15	4.13333	9.55668E-003	9.70753E-003	5.81065E-004	...........
	16	4.39167	9.60697E-003	9.75707E-003	5.77532E-004	...........
	17	4.65	9.65630E-003	9.80449E-003	5.78532E-004	...........
	18	4.90833	9.70490E-003	9.85738E-003	5.82999E-004	...........
EOC	QUANT	0.0097049	Open Circuit (V)
PSTATMODEL	IQUANT	4	Pstat Model
PSTATSECTION	LABEL	REF600-11020	Pstat Section
PSTATSERIALNO	LABEL	11020	Pstat Serial Number
CTRLMODE	IQUANT	1	Control Mode
IESTAB	IQUANT	0	I/E Stability
CASPEED	IQUANT	1	Control Amp Speed
CONVENTION	IQUANT	1	Current Convention
ICHRANGE	IQUANT	2	Ich Range
ICHRANGEMODE	TOGGLE	F	Ich Auto Range
ICHOFFSETENABLE	TOGGLE	T	Ich Offset Enable
ICHOFFSET	QUANT	0	Ich Offset (V)
ICHFILTER	IQUANT	3	Ich Filter
VCHRANGE	IQUANT	2	Vch Range
VCHRANGEMODE	TOGGLE	F	Vch Auto Range
VCHOFFSETENABLE	TOGGLE	T	Vch Offset Enable
VCHOFFSET	QUANT	0	Vch Offset (V)
VCHFILTER	IQUANT	3	Vch Filter
ACHRANGE	IQUANT	2	Ach Range
ACHOFFSETENABLE	TOGGLE	F	Ach Offset Enable
ACHOFFSET	QUANT	0	Ach Offset (V)
ACHFILTER	IQUANT	3	Ach Filter
IERANGELOWERLIMIT	IQUANT	1	I/E Range Lower Limit
IERANGEMODE	TOGGLE	F	I/E AutoRange
IERANGE	IQUANT	5	I/E Range
POSFEEDENABLE	TOGGLE	F	Positive Feedback IR Comp
POSFEEDRESISTANCE	QUANT	0	Positive Feedback Resistance (ohm)
ACHSELECT	IQUANT	0	Ach Select
CABLEID	IQUANT	14	Cable ID
DCCALDATE	LABEL	8/19/2019	DC Calibration Date
ACCALDATE	LABEL	8/19/2019	AC Calibration Date
THERMOSELECT	IQUANT	1	Thermo Select
FRAMEWORKVERSION	QUANT	6.33	Framework Version
INSTRUMENTVERSION	LABEL	3.50	Instrument Version
ZCURVE	TABLE
	Pt	Time	Freq	Zreal	Zimag	Zsig	Zmod	Zphz	Idc	Vdc	IERange
	#	s	Hz	ohm	ohm	V	ohm	°	A	V	#
	0	1	1000078	2388.23	-1950.661	1	3083.621	-39.2413	7.071268E-007	0.0122685	8
	1	1	794390.6	2768.55	-1956.368	1	3390.021	-35.24656	-2.451706E-007	0.0112746	8
	2	2	630984.4	3151.979	-1896.644	1	3678.618	-31.03664	7.486861E-006	0.0101864	8
	3	2	501234.4	3481.383	-1793.665	1	3916.281	-27.25826	-8.193529E-006	0.0124779	8
	4	2	398109.4	3779.105	-1664.772	1	4129.54	-23.77446	-6.059136E-006	0.012376	8
	5	3	316265.6	4032.651	-1535.594	1	4315.127	-20.84634	3.439713E-007	0.0110052	8
	6	3	251203.1	4246.517	-1384.737	1	4466.587	-18.06051	-2.127444E-006	0.0114665	8
	7	3	199546.9	4408.5	-1278.136	1	4590.044	-16.16821	5.224013E-008	0.0109997	8
	8	4	158578.1	4550.932	-1153.182	1	4694.764	-14.21916	6.143727E-006	0.0102102	8
	9	4	125953.1	4702.63	-1036.015	1	4815.398	-12.42411	-1.311406E-006	0.0099176	7
	10	4	100078.1	4797	-985.23	1	4897.131	-11.60627	4.073469E-007	0.0119019	7
	11	5	79453.13	4892.826	-950.256	1	4984.249	-10.99083	-7.843842E-007	0.0110829	7
	12	5	63140.62	4989.696	-950.459	1	5079.413	-10.78475	8.738792E-007	0.0093271	7
	13	5	50203.12	5077.559	-960.637	1	5167.632	-10.71331	-1.215156E-006	0.0130599	7
	14	5	39890.62	5176.519	-998.145	1	5271.873	-10.91392	-7.867768E-007	0.0110748	7
	15	6	31640.63	5271.736	-1052.447	1	5375.765	-11.29007	-1.216907E-006	0.013053	7
	16	6	25171.88	5389.735	-1129.228	1	5506.76	-11.83313	1.108861E-006	0.0105267	7
	17	6	20015.62	5504.756	-1229.52	1	5640.395	-12.5907	5.551514E-007	0.0094276	7
	18	7	15890.62	5627.924	-1347.182	1	5786.918	-13.46185	-1.334678E-006	0.0124461	7
	19	7	12609.37	5783.456	-1494.948	1	5973.544	-14.49299	9.031551E-007	0.0110665	7
	20	7	10078.13	5939.517	-1665.798	1	6168.69	-15.6667	9.062838E-007	0.0110648	7
	21	8	8015.625	6115.491	-1864.322	1	6393.35	-16.95397	-1.215588E-006	0.0130485	7
	22	8	6328.125	6318.096	-2109.682	1	6661.013	-18.46473	-3.176129E-007	0.0103141	7
	23	9	5015.625	6557.233	-2390.176	1	6979.273	-20.02729	9.022659E-007	0.0110629	7
	24	9	3984.375	6825.171	-2728.748	1	7350.444	-21.79185	9.06286E-007	0.0110581	7
	25	9	3170.956	7104.123	-3084.11	1	7744.695	-23.46709	1.212977E-006	0.0100464	7
	26	10	2527.573	7422.112	-3505.465	1	8208.29	-25.28138	8.716447E-007	0.0093102	7
	27	10	1976.103	7821.016	-4032.113	1	8799.217	-27.2733	4.107822E-007	0.0118797	7
	28	10	1577.524	8189.295	-4581.858	1	9383.921	-29.22673	-1.335899E-006	0.0124368	7
	29	11	1265.625	8687.367	-5223.266	1	10136.71	-31.01632	-6.959652E-007	0.0130325	7
	30	11	998.264	9243.735	-5990.416	1	11015.07	-32.94531	-9.941017E-007	0.0131104	7
	31	11	796.875	9837.79	-6847.164	1	11986.06	-34.83817	9.084438E-007	0.0110588	7
	32	11	627.7902	10529.67	-7873.751	1	13148	-36.78797	1.344746E-007	0.0112752	6
	33	12	505.5147	11190.47	-8958.692	1	14334.74	-38.67953	-2.191902E-007	0.0144944	6
	34	12	397.9953	11979.77	-10372.76	1	15846.42	-40.88785	-4.641708E-010	0.0112424	6
	35	12	315.5048	12765.93	-12017.94	1	17532.82	-43.27129	-3.582189E-011	0.0112379	6
	36	13	252.4038	13550.61	-13939.71	1	19440.54	-45.81091	-1.403293E-010	0.0112275	6
	37	13	198.6229	14422.84	-16503	1	21917.29	-48.84809	1.304001E-010	0.0112408	6
	38	13	158.3615	15304.52	-19506.55	1	24793.82	-51.88285	-6.093572E-010	0.0112317	6
	39	14	125.558	16303.31	-23386.42	1	28508.29	-55.1186	1.525294E-010	0.0112376	6
	40	14	100.4464	17491.9	-28003.5	1	33017.61	-58.00975	1.081255E-010	0.011223	6
	41	14	79.00281	19019.87	-34317.15	1	39235.47	-61.00311	1.095007E-009	0.0112288	6
	42	15	63.3446	20164.66	-41200.87	1	45870.75	-63.92181	6.821071E-011	0.0112246	6
	43	15	49.86702	22873.91	-50562.24	1	55495.55	-65.65842	7.110861E-012	0.0112307	6
	44	15	39.72458	26263.72	-61923.85	1	67263.26	-67.01678	8.231554E-011	0.0112311	6
	45	16	31.6723	30588.56	-75503.3	1	81464.16	-67.94572	-4.538623E-010	0.0112201	6
	46	16	24.93351	36659.15	-92111.23	1	99138.1	-68.29805	1.544832E-010	0.0112153	6
	47	16	19.86229	44457.15	-111346.1	1	119893.3	-68.23466	-1.025252E-009	0.0112224	5
	48	17	15.83615	53336.05	-133524.4	1	143782.8	-68.22586	-9.252527E-010	0.0112334	5
	49	17	12.40079	70905.18	-160505.1	1	175469.2	-66.16595	-1.483971E-009	0.0112321	5
	50	17	9.93114	88795.09	-190377.3	1	210066.9	-64.99488	4.33412E-010	0.0112356	5
	51	18	7.944915	111033.1	-222261	1	248451.8	-63.45503	8.273816E-011	0.0112336	5
	52	19	6.317385	138645.7	-256456	1	291534.4	-61.60338	1.464397E-010	0.0112183	5
	53	19	5.008013	171935.4	-294059.1	1	340635.5	-59.68531	2.800488E-010	0.0112366	5
	54	20	3.945707	210806.5	-334032.9	1	394990.3	-57.74417	-4.128756E-011	0.0112229	5
	55	22	3.158693	250008.1	-374142	1	449984.8	-56.24848	-9.446423E-011	0.0112019	5
	56	23	2.504006	293358.5	-419941.4	1	512259.7	-55.063	1.268013E-010	0.0112178	5
	57	25	1.998082	334914.7	-469855.3	1	577002.4	-54.51859	-2.486576E-011	0.0112091	5
	58	26	1.584686	381114.2	-531797.7	1	654260.5	-54.37263	-1.102344E-010	0.0111737	5
	59	28	1.266892	425682	-605314.7	1	740007.4	-54.88355	-8.411977E-011	0.0111855	5
	60	31	0.999041	476841.2	-699585.7	1	846639	-55.72146	-6.760565E-011	0.0112078	5
