EXPLAIN
TAG	EISPOT
TITLE	LABEL	Potentiostatic EIS	Test &Identifier
DATE	LABEL	9/20/2019	Date
TIME	LABEL	11:58:07	Time
NOTES	NOTES	1	&Notes...
	
PSTAT	PSTAT	REF600-11020	Potentiostat
VDC	POTEN	0.00000E+000	T	DC &Voltage (V)
FREQINIT	QUANT	1.00000E+006	Initial Fre&q. (Hz)
FREQFINAL	QUANT	1.00000E+000	Final Fre&q. (Hz)
PTSPERDEC	QUANT	1.00000E+001	Points/&decade
VAC	QUANT	2.50000E+001	AC &Voltage (mV rms)
AREA	QUANT	1.00000E-002	&Area (cm^2)
CONDIT	TWOPARAM	T	5.00000E+000	0.00000E+000	Conditionin&g	Time(s)	E(V)
DELAY	TWOPARAM	T	5.00000E+000	0.00000E+000	Init. De&lay	Time(s)	Stab.(mV/s)
SPEED	SELECTOR	1	&Optimize for:
ZGUESS	QUANT	1.00000E+004	E&stimated Z (ohms)
OCVCURVE	TABLE	19
	Pt	T	Vf	Vm	Ach	Over
	#	s	V vs. Ref.	V	V	bits
	0	0.258333	3.09295E-002	3.09295E-002	5.73899E-004	...........
	1	0.516667	3.09591E-002	3.24795E-002	5.74632E-004	...........
	2	0.775	3.11411E-002	3.39551E-002	5.75499E-004	...........
	3	1.03333	3.16550E-002	3.53093E-002	5.76866E-004	...........
	4	1.29167	3.25695E-002	3.65753E-002	5.78732E-004	...........
	5	1.55	3.37735E-002	3.77980E-002	5.78599E-004	...........
	6	1.80833	3.50898E-002	3.88901E-002	5.76632E-004	...........
	7	2.06667	3.63902E-002	3.99558E-002	5.73632E-004	...........
	8	2.325	3.76170E-002	4.09293E-002	5.78566E-004	...........
	9	2.58333	3.87580E-002	4.18492E-002	5.74865E-004	...........
	10	2.84167	3.98200E-002	4.27502E-002	5.73332E-004	...........
	11	3.1	4.08142E-002	4.35559E-002	5.76766E-004	...........
	12	3.35833	4.17504E-002	4.43719E-002	5.75599E-004	...........
	13	3.61667	4.26350E-002	4.50808E-002	5.76199E-004	...........
	14	3.875	4.34716E-002	4.58207E-002	5.71632E-004	...........
	15	4.13333	4.42631E-002	4.64605E-002	5.71332E-004	...........
	16	4.39167	4.50123E-002	4.71050E-002	5.72899E-004	...........
	17	4.65	4.57216E-002	4.77080E-002	5.73199E-004	...........
	18	4.90833	4.63938E-002	4.82907E-002	5.72266E-004	...........
EOC	QUANT	0.0463938	Open Circuit (V)
PSTATMODEL	IQUANT	4	Pstat Model
PSTATSECTION	LABEL	REF600-11020	Pstat Section
PSTATSERIALNO	LABEL	11020	Pstat Serial Number
CTRLMODE	IQUANT	1	Control Mode
IESTAB	IQUANT	0	I/E Stability
CASPEED	IQUANT	1	Control Amp Speed
CONVENTION	IQUANT	1	Current Convention
ICHRANGE	IQUANT	2	Ich Range
ICHRANGEMODE	TOGGLE	F	Ich Auto Range
ICHOFFSETENABLE	TOGGLE	T	Ich Offset Enable
ICHOFFSET	QUANT	0	Ich Offset (V)
ICHFILTER	IQUANT	3	Ich Filter
VCHRANGE	IQUANT	2	Vch Range
VCHRANGEMODE	TOGGLE	F	Vch Auto Range
VCHOFFSETENABLE	TOGGLE	T	Vch Offset Enable
VCHOFFSET	QUANT	0	Vch Offset (V)
VCHFILTER	IQUANT	3	Vch Filter
ACHRANGE	IQUANT	2	Ach Range
ACHOFFSETENABLE	TOGGLE	F	Ach Offset Enable
ACHOFFSET	QUANT	0	Ach Offset (V)
ACHFILTER	IQUANT	3	Ach Filter
IERANGELOWERLIMIT	IQUANT	1	I/E Range Lower Limit
IERANGEMODE	TOGGLE	F	I/E AutoRange
IERANGE	IQUANT	6	I/E Range
POSFEEDENABLE	TOGGLE	F	Positive Feedback IR Comp
POSFEEDRESISTANCE	QUANT	0	Positive Feedback Resistance (ohm)
ACHSELECT	IQUANT	0	Ach Select
CABLEID	IQUANT	14	Cable ID
DCCALDATE	LABEL	8/19/2019	DC Calibration Date
ACCALDATE	LABEL	8/19/2019	AC Calibration Date
THERMOSELECT	IQUANT	1	Thermo Select
FRAMEWORKVERSION	QUANT	6.33	Framework Version
INSTRUMENTVERSION	LABEL	3.50	Instrument Version
ZCURVE	TABLE
	Pt	Time	Freq	Zreal	Zimag	Zsig	Zmod	Zphz	Idc	Vdc	IERange
	#	s	Hz	ohm	ohm	V	ohm	°	A	V	#
	0	1	1000078	2484.524	-1915.358	1	3137.11	-37.62919	-2.309125E-006	0.0499083	8
	1	3	794390.6	2864.653	-1868.472	1	3420.149	-33.11443	4.96735E-006	0.0476402	8
	2	4	630984.4	3216.956	-1772.589	1	3672.993	-28.85539	2.604521E-006	0.047564	8
	3	6	501234.4	3533.196	-1642.952	1	3896.507	-24.93864	2.164849E-006	0.047669	8
	4	7	398109.4	3793.619	-1474.804	1	4070.208	-21.24405	-2.305947E-007	0.0482534	8
	5	8	316265.6	4006.836	-1343.86	1	4226.191	-18.54103	3.256735E-006	0.0474551	8
	6	10	251203.1	4170.844	-1168.548	1	4331.449	-15.65131	4.704698E-006	0.0471781	8
	7	11	199546.9	4313.889	-1038.946	1	4437.234	-13.5411	-5.856819E-007	0.0483105	8
	8	13	158578.1	4404.511	-904.4327	1	4496.411	-11.60395	-2.630007E-006	0.048476	8
	9	14	125953.1	4502.319	-798.8917	1	4572.647	-10.06184	-1.441188E-006	0.0510458	7
	10	16	100078.1	4580.457	-737.8862	1	4639.511	-9.151408	-4.150173E-008	0.0481091	7
	11	17	79453.13	4645.742	-707.6082	1	4699.322	-8.660346	-1.564354E-008	0.0482025	7
	12	18	63140.62	4709.174	-694.5887	1	4760.123	-8.390455	7.182148E-008	0.0479259	7
	13	20	50203.12	4770.485	-698.4276	1	4821.341	-8.329269	-4.067977E-008	0.0480942	7
	14	21	39890.62	4837.229	-715.4625	1	4889.854	-8.413476	-1.567481E-008	0.0481073	7
	15	22	31640.63	4906.455	-753.955	1	4964.046	-8.736075	-1.525289E-008	0.0481023	7
	16	24	25171.88	4980.528	-805.7716	1	5045.288	-9.189935	-5.525208E-008	0.0482229	7
	17	25	20015.62	5061.453	-871.9493	1	5136.01	-9.77455	-4.58836E-008	0.0480751	7
	18	27	15890.62	5149.342	-956.524	1	5237.429	-10.52313	-5.547554E-008	0.0482217	7
	19	28	12609.37	5250.903	-1059.806	1	5356.788	-11.41089	-3.795439E-008	0.0480635	7
	20	29	10078.13	5355.733	-1179.379	1	5484.051	-12.41883	-3.879826E-008	0.04809	7
	21	31	8015.625	5479.343	-1325.892	1	5637.48	-13.60296	7.3317E-008	0.0479221	7
	22	32	6328.125	5619.059	-1504.36	1	5816.951	-14.98799	-3.692925E-008	0.0480605	7
	23	33	5015.625	5776.711	-1711.972	1	6025.051	-16.50759	-4.558045E-008	0.0481406	7
	24	35	3984.375	5947.037	-1951.558	1	6259.06	-18.16758	1.407573E-007	0.0478336	7
	25	36	3170.956	6140.577	-2227.962	1	6532.266	-19.9421	4.594623E-008	0.0479001	7
	26	37	2527.573	6361.431	-2552.293	1	6854.342	-21.86133	-5.392191E-008	0.0482172	7
	27	39	1976.103	6634.371	-2966.418	1	7267.359	-24.09079	1.412205E-007	0.047835	7
	28	40	1577.524	6919.119	-3398.406	1	7708.656	-26.1585	-3.929429E-008	0.0480886	7
	29	42	1265.625	7231.249	-3895.742	1	8213.876	-28.31299	1.404057E-007	0.0478367	7
	30	43	998.264	7602.397	-4502.715	1	8835.772	-30.63723	1.394821E-007	0.0478288	7
	31	44	796.875	7985.271	-5182.08	1	9519.37	-32.98175	-1.149245E-009	0.048057	7
	32	46	627.7902	8428.831	-6022.474	1	10359.31	-35.54614	-6.11426E-009	0.0480418	6
	33	47	505.5147	8844.76	-6933.545	1	11238.5	-38.09345	6.451518E-009	0.0480141	6
	34	48	397.9953	9328.284	-8152.95	1	12389.01	-41.15356	6.251735E-010	0.0480048	6
	35	50	315.5048	9811.01	-9609.97	1	13733.45	-44.40692	4.798751E-010	0.0480074	6
	36	51	252.4038	10292.76	-11344.06	1	15317.59	-47.78173	2.142067E-011	0.0480045	6
	37	52	198.6229	10845.18	-13666.44	1	17446.76	-51.56577	3.76925E-010	0.0480071	6
	38	54	158.3615	11419.4	-16416.55	1	19997.64	-55.17741	1.994718E-010	0.0479985	6
	39	55	125.558	12104.19	-19937.81	1	23324.4	-58.73818	4.696131E-010	0.0480001	6
	40	57	100.4464	12883.11	-24163.23	1	27383.13	-61.93479	9.875398E-011	0.0479992	6
	41	58	79.00281	13864.28	-29748.02	1	32820.16	-65.01178	7.569446E-010	0.0479979	6
	42	59	63.3446	15194.72	-35901.32	1	38984.41	-67.06019	2.472978E-010	0.0479943	6
	43	61	49.86702	16825.58	-44931.62	1	47978.64	-69.47054	2.489377E-010	0.0479963	6
	44	62	39.72458	18895.2	-54810.59	1	57976.11	-70.97907	7.593527E-010	0.047999	6
	45	64	31.6723	21443.43	-67126.84	1	70468.66	-72.2841	-1.195796E-010	0.0479992	6
	46	65	24.93351	25305.15	-82817.14	1	86596.94	-73.00923	2.749981E-010	0.0479936	6
	47	66	19.86229	30054.91	-101025.7	1	105401.5	-73.43238	3.42014E-010	0.0480054	6
	48	68	15.83615	37050.4	-123042.7	1	128499.9	-73.24199	-7.357511E-010	0.0479985	5
	49	69	12.40079	44386.59	-151764.6	1	158122.3	-73.69738	3.281016E-010	0.0480021	5
	50	71	9.93114	55719.27	-182938.3	1	191235.6	-73.06033	4.724041E-010	0.0479984	5
	51	72	7.944915	69224.27	-220358.5	1	230975.9	-72.5602	-2.168253E-010	0.0479984	5
	52	74	6.317385	87595.92	-265830.6	1	279891	-71.76202	-1.016056E-010	0.0479851	5
	53	76	5.008013	111513.7	-320257.7	1	339117	-70.8019	-1.178087E-010	0.0479946	5
	54	78	3.945707	142576.9	-385218.1	1	410756.8	-69.68948	-5.430859E-011	0.0480001	5
	55	81	3.158693	179564.7	-455194.6	1	489331.8	-68.47182	-6.294591E-011	0.0479892	5
	56	84	2.504006	227638	-539806.1	1	585841.1	-67.13469	5.556231E-011	0.0480059	5
	57	87	1.998082	284973.1	-632456.1	1	693693.3	-65.74455	1.594426E-010	0.0479879	5
	58	90	1.584686	357669.1	-740331.1	1	822202.7	-64.21386	-5.165522E-011	0.0479566	5
	59	94	1.266892	442527.1	-852869.3	1	960841	-62.57662	1.305308E-010	0.0479775	5
	60	98	0.999041	549800.6	-991095	1	1133380	-60.98109	-2.128294E-010	0.0480101	4
