EXPLAIN
TAG	EISPOT
TITLE	LABEL	Potentiostatic IDE	Test &Identifier
DATE	LABEL	9/8/2019	Date
TIME	LABEL	8:10:34	Time
NOTES	NOTES	1	&Notes...
	
PSTAT	PSTAT	REF600-11020	Potentiostat
VDC	POTEN	0.00000E+000	T	DC &Voltage (V)
FREQINIT	QUANT	1.00000E+006	Initial Fre&q. (Hz)
FREQFINAL	QUANT	1.00000E+000	Final Fre&q. (Hz)
PTSPERDEC	QUANT	1.00000E+001	Points/&decade
VAC	QUANT	2.50000E+001	AC &Voltage (mV rms)
AREA	QUANT	1.00000E-002	&Area (cm^2)
CONDIT	TWOPARAM	T	5.00000E+000	0.00000E+000	Conditionin&g	Time(s)	E(V)
DELAY	TWOPARAM	T	5.00000E+000	0.00000E+000	Init. De&lay	Time(s)	Stab.(mV/s)
SPEED	SELECTOR	1	&Optimize for:
ZGUESS	QUANT	1.00000E+007	E&stimated Z (ohms)
OCVCURVE	TABLE	19
	Pt	T	Vf	Vm	Ach	Over
	#	s	V vs. Ref.	V	V	bits
	0	0.258333	4.95550E-003	4.95550E-003	5.63066E-004	...........
	1	0.516667	4.95676E-003	5.02189E-003	5.68366E-004	...........
	2	0.775	4.96448E-003	5.08086E-003	5.72266E-004	...........
	3	1.03333	4.98623E-003	5.14734E-003	5.69299E-004	...........
	4	1.29167	5.02597E-003	5.23611E-003	5.69999E-004	...........
	5	1.55	5.08418E-003	5.42059E-003	5.67066E-004	...........
	6	1.80833	5.16121E-003	5.38986E-003	5.70566E-004	...........
	7	2.06667	5.24884E-003	5.40988E-003	5.66799E-004	...........
	8	2.325	5.32789E-003	5.49658E-003	5.67166E-004	...........
	9	2.58333	5.38984E-003	5.62524E-003	5.62666E-004	...........
	10	2.84167	5.44922E-003	5.76218E-003	5.69599E-004	...........
	11	3.1	5.52221E-003	5.67558E-003	5.68899E-004	...........
	12	3.35833	5.60147E-003	5.73905E-003	5.70899E-004	...........
	13	3.61667	5.66678E-003	5.81636E-003	5.73699E-004	...........
	14	3.875	5.71478E-003	5.87405E-003	5.70099E-004	...........
	15	4.13333	5.75950E-003	5.93898E-003	5.72199E-004	...........
	16	4.39167	5.81102E-003	5.99278E-003	5.66666E-004	...........
	17	4.65	5.86882E-003	6.04864E-003	5.71632E-004	...........
	18	4.90833	5.92847E-003	6.10201E-003	5.70332E-004	...........
EOC	QUANT	0.0059285	Open Circuit (V)
PSTATMODEL	IQUANT	4	Pstat Model
PSTATSECTION	LABEL	REF600-11020	Pstat Section
PSTATSERIALNO	LABEL	11020	Pstat Serial Number
CTRLMODE	IQUANT	1	Control Mode
IESTAB	IQUANT	0	I/E Stability
CASPEED	IQUANT	1	Control Amp Speed
CONVENTION	IQUANT	1	Current Convention
ICHRANGE	IQUANT	2	Ich Range
ICHRANGEMODE	TOGGLE	F	Ich Auto Range
ICHOFFSETENABLE	TOGGLE	T	Ich Offset Enable
ICHOFFSET	QUANT	0	Ich Offset (V)
ICHFILTER	IQUANT	3	Ich Filter
VCHRANGE	IQUANT	2	Vch Range
VCHRANGEMODE	TOGGLE	F	Vch Auto Range
VCHOFFSETENABLE	TOGGLE	T	Vch Offset Enable
VCHOFFSET	QUANT	0	Vch Offset (V)
VCHFILTER	IQUANT	3	Vch Filter
ACHRANGE	IQUANT	2	Ach Range
ACHOFFSETENABLE	TOGGLE	F	Ach Offset Enable
ACHOFFSET	QUANT	0	Ach Offset (V)
ACHFILTER	IQUANT	3	Ach Filter
IERANGELOWERLIMIT	IQUANT	1	I/E Range Lower Limit
IERANGEMODE	TOGGLE	F	I/E AutoRange
IERANGE	IQUANT	3	I/E Range
POSFEEDENABLE	TOGGLE	F	Positive Feedback IR Comp
POSFEEDRESISTANCE	QUANT	0	Positive Feedback Resistance (ohm)
ACHSELECT	IQUANT	0	Ach Select
CABLEID	IQUANT	14	Cable ID
DCCALDATE	LABEL	8/19/2019	DC Calibration Date
ACCALDATE	LABEL	8/19/2019	AC Calibration Date
THERMOSELECT	IQUANT	1	Thermo Select
FRAMEWORKVERSION	QUANT	6.33	Framework Version
INSTRUMENTVERSION	LABEL	3.50	Instrument Version
ZCURVE	TABLE
	Pt	Time	Freq	Zreal	Zimag	Zsig	Zmod	Zphz	Idc	Vdc	IERange
	#	s	Hz	ohm	ohm	V	ohm	°	A	V	#
	0	2	1000078	2386.632	-1464.703	1	2800.244	-31.53792	-8.889345E-006	0.010284	8
	1	4	794390.6	2673.701	-1375.898	1	3006.954	-27.23054	1.001286E-006	0.0081795	8
	2	5	630984.4	2919.825	-1248.667	1	3175.618	-23.15404	2.609346E-006	0.0073126	8
	3	7	501234.4	3114.163	-1122.158	1	3310.173	-19.81612	2.237306E-006	0.0072555	8
	4	8	398109.4	3257.34	-990.87	1	3404.715	-16.91956	-6.87478E-007	0.0080623	8
	5	9	316265.6	3385.032	-845.0862	1	3488.927	-14.01758	-1.031741E-006	0.0079483	8
	6	11	251203.1	3478.418	-746.9203	1	3557.707	-12.11909	2.020556E-006	0.0072801	8
	7	12	199546.9	3544.194	-641.9142	1	3601.855	-10.26596	-2.259622E-006	0.0078884	8
	8	14	158578.1	3596.097	-564.9958	1	3640.21	-8.928957	-1.200067E-006	0.0080825	8
	9	15	125953.1	3668.901	-450.1252	1	3696.41	-6.994474	-2.195283E-007	0.0078071	7
	10	17	100078.1	3696.109	-407.4579	1	3718.5	-6.290867	-2.846093E-008	0.0076127	7
	11	18	79453.13	3728.676	-386.4622	1	3748.65	-5.917347	2.60262E-008	0.0075098	7
	12	19	63140.62	3760.244	-373.0497	1	3778.704	-5.665713	-7.803799E-008	0.0077226	7
	13	21	50203.12	3792.771	-368.6833	1	3810.648	-5.552098	1.001863E-007	0.0074091	7
	14	22	39890.62	3825.822	-371.6561	1	3843.832	-5.548538	3.672606E-008	0.0075796	7
	15	23	31640.63	3859.034	-385.0024	1	3878.192	-5.697348	3.695111E-008	0.007578	7
	16	25	25171.88	3894.54	-407.0419	1	3915.753	-5.966666	1.57266E-007	0.0073717	7
	17	26	20015.62	3932.86	-437.3183	1	3957.1	-6.344995	-2.6395E-008	0.0076018	7
	18	27	15890.62	3973.324	-476.3616	1	4001.778	-6.836557	-5.316428E-008	0.0076485	7
	19	29	12609.37	4017.792	-529.7578	1	4052.567	-7.511289	-1.876034E-009	0.0075394	7
	20	30	10078.13	4064.057	-590.4159	1	4106.72	-8.265958	-6.017461E-008	0.007724	7
	21	31	8015.625	4116.453	-667.7426	1	4170.26	-9.21387	-6.068094E-008	0.0077176	7
	22	33	6328.125	4176.37	-765.1917	1	4245.891	-10.38254	-4.027034E-008	0.0077431	7
	23	34	5015.625	4240.591	-879.7501	1	4330.886	-11.72028	-5.10093E-008	0.0076382	7
	24	35	3984.375	4311.075	-1018.127	1	4429.667	-13.28782	-1.511691E-008	0.0076592	7
	25	37	3170.956	4389.133	-1183.093	1	4545.79	-15.08557	2.956262E-008	0.0075077	7
	26	38	2527.573	4476.403	-1382.015	1	4684.885	-17.1572	-6.144823E-008	0.0077129	7
	27	39	1976.103	4582.885	-1641.673	1	4868.052	-19.70844	2.839994E-008	0.0075033	7
	28	41	1577.524	4695.037	-1931.719	1	5076.9	-22.36415	7.748321E-008	0.0075824	7
	29	42	1265.625	4830.036	-2269.774	1	5336.771	-25.17019	-4.797922E-008	0.0076361	7
	30	43	998.264	4975.27	-2716.243	1	5668.447	-28.63228	7.972708E-008	0.0075834	7
	31	45	796.875	5142.87	-3225.392	1	6070.606	-32.09421	-3.960308E-008	0.0077429	7
	32	46	627.7902	5349.988	-3882.922	1	6610.557	-35.97145	8.489949E-008	0.0075768	7
	33	47	505.5147	5571.549	-4601.535	1	7226.083	-39.55325	-5.335887E-008	0.0076254	7
	34	49	397.9953	5854.572	-5576.587	1	8085.439	-43.60695	7.591688E-009	0.0076119	7
	35	50	315.5048	6186.719	-6727.754	1	9139.922	-47.39893	7.152781E-009	0.0076095	7
	36	51	252.4038	6572.062	-8068.108	1	10406.07	-50.83468	1.696372E-009	0.0075488	6
	37	53	198.6229	7066.651	-9821.31	1	12099.41	-54.26415	1.844852E-009	0.0075512	6
	38	54	158.3615	7634.974	-11840.24	1	14088.44	-57.18476	2.078069E-009	0.0075523	6
	39	55	125.558	8352.58	-14350.87	1	16604.61	-59.79949	1.592337E-009	0.0075559	6
	40	57	100.4464	9188.728	-17262.33	1	19555.58	-61.97366	2.508243E-009	0.007551	6
	41	58	79.00281	10358.78	-21139.14	1	23540.77	-63.89383	1.465395E-009	0.0075497	6
	42	59	63.3446	11511.72	-25216.09	1	27719.5	-65.46221	1.915635E-009	0.0075562	6
	43	61	49.86702	13624.01	-31057.54	1	33914.37	-66.31438	6.314072E-010	0.0075505	6
	44	62	39.72458	15730.19	-37338.52	1	40516.71	-67.15499	2.135704E-009	0.0075524	6
	45	63	31.6723	18622.54	-45093	1	48787.06	-67.56032	1.39914E-009	0.0075533	6
	46	65	24.93351	22628.48	-54520.41	1	59029.85	-67.4593	2.282869E-009	0.0075539	6
	47	66	19.86229	27459.16	-65180.08	1	70727.99	-67.15521	2.058406E-009	0.0075638	6
	48	67	15.83615	34140.69	-78103.52	1	85239.34	-66.38885	3.968688E-009	0.007553	6
	49	69	12.40079	42833.78	-93277.61	1	102642.3	-65.33505	2.921029E-009	0.0075508	6
	50	70	9.93114	52042.55	-109013	1	120798.4	-64.48029	1.791596E-009	0.007554	5
	51	72	7.944915	64186.43	-127077.3	1	142367.6	-63.20177	5.996021E-010	0.0075634	5
	52	74	6.317385	78890.54	-147873.6	1	167601.7	-61.92009	6.896516E-010	0.0075694	5
	53	76	5.008013	97090.4	-171452.5	1	197034.3	-60.47793	8.041843E-010	0.0075495	5
	54	78	3.945707	119589	-198044.8	1	231351	-58.87439	1.007917E-009	0.0075547	5
	55	81	3.158693	143907.9	-224969.8	1	267059.7	-57.39391	9.393917E-010	0.0075755	5
	56	84	2.504006	173863.3	-256300.1	1	309706.6	-55.84868	2.155051E-010	0.007555	5
	57	87	1.998082	207102.5	-287965.6	1	354705	-54.27663	6.645571E-010	0.0075149	5
	58	90	1.584686	245362.9	-324092.3	1	406495.7	-52.87147	4.181204E-010	0.0075326	5
	59	93	1.266892	287621.7	-359974.5	1	460768.8	-51.37495	8.299061E-010	0.0075165	5
	60	98	0.999041	337336.2	-402983.5	1	525539.2	-50.06741	3.209554E-010	0.0075718	5
