EXPLAIN
TAG	EISPOT
TITLE	LABEL	Potentiostatic EIS	Test &Identifier
DATE	LABEL	11/13/2019	Date
TIME	LABEL	0:16:29	Time
NOTES	NOTES	3	&Notes...
	
	
	
PSTAT	PSTAT	REF600-11020	Potentiostat
VDC	POTEN	0.00000E+000	T	DC &Voltage (V)
FREQINIT	QUANT	1.00000E+006	Initial Fre&q. (Hz)
FREQFINAL	QUANT	1.00000E+000	Final Fre&q. (Hz)
PTSPERDEC	QUANT	1.00000E+001	Points/&decade
VAC	QUANT	2.50000E+001	AC &Voltage (mV rms)
AREA	QUANT	1.00000E-002	&Area (cm^2)
CONDIT	TWOPARAM	T	5.00000E+000	0.00000E+000	Conditionin&g	Time(s)	E(V)
DELAY	TWOPARAM	T	5.00000E+000	0.00000E+000	Init. De&lay	Time(s)	Stab.(mV/s)
SPEED	SELECTOR	1	&Optimize for:
ZGUESS	QUANT	1.00000E+005	E&stimated Z (ohms)
OCVCURVE	TABLE	19
	Pt	T	Vf	Vm	Ach	Over
	#	s	V vs. Ref.	V	V	bits
	0	0.258333	5.81663E-003	5.81663E-003	5.23033E-004	...........
	1	0.516667	5.81854E-003	5.91686E-003	5.17700E-004	...........
	2	0.775	5.83045E-003	6.01988E-003	5.22866E-004	...........
	3	1.03333	5.86516E-003	6.14484E-003	5.17700E-004	...........
	4	1.29167	5.92999E-003	6.24300E-003	5.16133E-004	...........
	5	1.55	6.02036E-003	6.35037E-003	5.13033E-004	...........
	6	1.80833	6.12464E-003	6.45613E-003	5.23400E-004	...........
	7	2.06667	6.23309E-003	6.56796E-003	5.23866E-004	...........
	8	2.325	6.34172E-003	6.67841E-003	5.23400E-004	...........
	9	2.58333	6.45029E-003	6.78244E-003	5.20766E-004	...........
	10	2.84167	6.55887E-003	6.88704E-003	5.25233E-004	...........
	11	3.1	6.66680E-003	6.99276E-003	5.26400E-004	...........
	12	3.35833	6.77351E-003	7.09602E-003	5.24700E-004	...........
	13	3.61667	6.87903E-003	7.19781E-003	5.23333E-004	...........
	14	3.875	6.98354E-003	7.30062E-003	5.22566E-004	...........
	15	4.13333	7.08708E-003	7.39958E-003	5.23433E-004	...........
	16	4.39167	7.18957E-003	7.49656E-003	5.22800E-004	...........
	17	4.65	7.29072E-003	7.59246E-003	5.24600E-004	...........
	18	4.90833	7.39027E-003	7.69021E-003	5.20766E-004	...........
EOC	QUANT	0.0073903	Open Circuit (V)
PSTATMODEL	IQUANT	4	Pstat Model
PSTATSECTION	LABEL	REF600-11020	Pstat Section
PSTATSERIALNO	LABEL	11020	Pstat Serial Number
CTRLMODE	IQUANT	1	Control Mode
IESTAB	IQUANT	0	I/E Stability
CASPEED	IQUANT	1	Control Amp Speed
CONVENTION	IQUANT	1	Current Convention
ICHRANGE	IQUANT	2	Ich Range
ICHRANGEMODE	TOGGLE	F	Ich Auto Range
ICHOFFSETENABLE	TOGGLE	T	Ich Offset Enable
ICHOFFSET	QUANT	0	Ich Offset (V)
ICHFILTER	IQUANT	3	Ich Filter
VCHRANGE	IQUANT	2	Vch Range
VCHRANGEMODE	TOGGLE	F	Vch Auto Range
VCHOFFSETENABLE	TOGGLE	T	Vch Offset Enable
VCHOFFSET	QUANT	0	Vch Offset (V)
VCHFILTER	IQUANT	3	Vch Filter
ACHRANGE	IQUANT	2	Ach Range
ACHOFFSETENABLE	TOGGLE	F	Ach Offset Enable
ACHOFFSET	QUANT	0	Ach Offset (V)
ACHFILTER	IQUANT	3	Ach Filter
IERANGELOWERLIMIT	IQUANT	1	I/E Range Lower Limit
IERANGEMODE	TOGGLE	F	I/E AutoRange
IERANGE	IQUANT	5	I/E Range
POSFEEDENABLE	TOGGLE	F	Positive Feedback IR Comp
POSFEEDRESISTANCE	QUANT	0	Positive Feedback Resistance (ohm)
ACHSELECT	IQUANT	0	Ach Select
CABLEID	IQUANT	14	Cable ID
DCCALDATE	LABEL	8/19/2019	DC Calibration Date
ACCALDATE	LABEL	8/19/2019	AC Calibration Date
THERMOSELECT	IQUANT	1	Thermo Select
FRAMEWORKVERSION	QUANT	6.33	Framework Version
INSTRUMENTVERSION	LABEL	3.50	Instrument Version
ZCURVE	TABLE
	Pt	Time	Freq	Zreal	Zimag	Zsig	Zmod	Zphz	Idc	Vdc	IERange
	#	s	Hz	ohm	ohm	V	ohm	°	A	V	#
	0	1	1000078	1696.971	-846.5833	1	1896.422	-26.51365	1.352115E-005	0.0087981	8
	1	3	794390.6	1833.882	-828.3221	1	2012.272	-24.3076	-5.68297E-006	0.0091407	8
	2	4	630984.4	1961.891	-797.1351	1	2117.65	-22.11238	8.679024E-007	0.0098166	8
	3	6	501234.4	2078.077	-763.4749	1	2213.887	-20.17308	-2.333088E-007	0.008863	8
	4	7	398109.4	2194.705	-726.7777	1	2311.912	-18.32231	5.907948E-006	0.0083872	8
	5	8	316265.6	2291.577	-700.5497	1	2396.267	-16.99873	-2.797932E-006	0.0095677	8
	6	10	251203.1	2392.933	-667.1484	1	2484.193	-15.57844	9.064736E-007	0.0093926	8
	7	11	199546.9	2486.805	-633.5895	1	2566.249	-14.29374	-7.425697E-007	0.0094522	8
	8	12	158578.1	2572.322	-618.3818	1	2645.607	-13.51731	6.443946E-006	0.0083483	8
	9	14	125953.1	2670.102	-562.831	1	2728.777	-11.90313	1.084878E-006	0.0100599	7
	10	15	100078.1	2738.405	-539.4597	1	2791.035	-11.14444	1.130818E-007	0.0097906	7
	11	16	79453.13	2809.447	-526.8746	1	2858.425	-10.62169	3.66696E-007	0.0076253	7
	12	18	63140.62	2878.802	-523.7775	1	2926.062	-10.31176	8.904314E-007	0.0083226	7
	13	19	50203.12	2940.604	-518.1459	1	2985.905	-9.99316	-9.289508E-007	0.0104397	7
	14	21	39890.62	3005.395	-517.681	1	3049.655	-9.77332	-1.067417E-006	0.0100142	7
	15	22	31640.63	3073.834	-523.0668	1	3118.021	-9.65738	3.66632E-007	0.0076191	7
	16	23	25171.88	3134.719	-532.3481	1	3179.6	-9.6382	-3.11662E-007	0.0083447	7
	17	25	20015.62	3199.221	-548.1172	1	3245.836	-9.722	4.951532E-008	0.0078919	7
	18	26	15890.62	3262.204	-571.04	1	3311.807	-9.92887	-6.711376E-007	0.0089432	7
	19	27	12609.37	3334.842	-604.7668	1	3389.235	-10.27876	5.705176E-007	0.0090913	7
	20	29	10078.13	3395.852	-642.292	1	3456.059	-10.71041	-1.056639E-006	0.0102981	7
	21	30	8015.625	3473.842	-688.4809	1	3541.409	-11.21019	8.906706E-007	0.0083106	7
	22	32	6328.125	3551.59	-748.0533	1	3629.514	-11.89407	8.088001E-007	0.0075494	7
	23	33	5015.625	3622.38	-815.0585	1	3712.944	-12.68073	-1.050469E-006	0.0102929	7
	24	34	3984.375	3705.512	-897.3354	1	3812.615	-13.61282	-7.378529E-007	0.0104374	7
	25	36	3170.956	3779.147	-998.074	1	3908.722	-14.79405	-1.059576E-006	0.0099976	7
	26	37	2527.573	3862.118	-1124.371	1	4022.458	-16.23177	3.671867E-007	0.0076187	7
	27	38	1976.103	3940.026	-1289.527	1	4145.683	-18.12271	-1.059494E-006	0.009994	7
	28	40	1577.524	4019.502	-1474.653	1	4281.472	-20.1468	-3.083772E-007	0.0083399	7
	29	41	1265.625	4099.494	-1732.335	1	4450.487	-22.90761	-3.094805E-007	0.0083425	7
	30	43	998.264	4200.523	-2069.904	1	4682.83	-26.23283	9.443518E-007	0.0079705	7
	31	44	796.875	4296.284	-2465.924	1	4953.669	-29.85439	9.151224E-007	0.0077156	7
	32	45	627.7902	4415.874	-2985.096	1	5330.172	-34.05838	6.236311E-007	0.0075021	7
	33	47	505.5147	4544.715	-3573.945	1	5781.654	-38.18136	3.890163E-007	0.0093688	7
	34	48	397.9953	4720.683	-4370.619	1	6433.285	-42.7949	4.263944E-009	0.0090135	7
	35	49	315.5048	4937.636	-5334.854	1	7269.176	-47.21442	5.816994E-009	0.0090138	7
	36	51	252.4038	5204.296	-6471.073	1	8304.185	-51.19237	4.996541E-009	0.00901	7
	37	52	198.6229	5575.802	-7967.977	1	9725.13	-55.01658	5.754615E-009	0.0090131	7
	38	53	158.3615	6039.138	-9696.97	1	11423.77	-58.08593	1.476426E-010	0.0089541	6
	39	55	125.558	6656.539	-11843.79	1	13586.2	-60.66281	1.114505E-009	0.0089512	6
	40	56	100.4464	7434.941	-14335.94	1	16149.23	-62.58773	-3.883165E-010	0.0089576	6
	41	58	79.00281	8537.625	-17530.57	1	19499.03	-64.03329	-1.350577E-010	0.0089567	6
	42	59	63.3446	9893.94	-20966.29	1	23183.51	-64.7375	5.439253E-010	0.0089613	6
	43	60	49.86702	11822.18	-25597.8	1	28195.95	-65.21044	6.540712E-010	0.0089492	6
	44	62	39.72458	14089.45	-30570.16	1	33660.77	-65.25555	5.095173E-010	0.0089625	6
	45	63	31.6723	16959.34	-36384.7	1	40143.07	-65.00922	7.709716E-011	0.008962	6
	46	65	24.93351	20860.43	-43369.41	1	48125.5	-64.31271	-1.299378E-010	0.008952	6
	47	66	19.86229	25437.13	-50939.16	1	56937.21	-63.46416	5.939E-010	0.0089622	6
	48	67	15.83615	30973.79	-59269.48	1	66874.86	-62.40877	5.867716E-011	0.0089423	6
	49	69	12.40079	38024.17	-70146.83	1	79789.82	-61.53941	-4.037954E-010	0.0089412	6
	50	70	9.93114	45932.26	-80367.89	1	92567.66	-60.25095	8.156707E-010	0.0089437	6
	51	72	7.944915	54848.62	-91913.47	1	107034.8	-59.1737	1.592939E-010	0.0089478	5
	52	73	6.317385	65188.91	-104950	1	123547.9	-58.15382	7.662472E-010	0.0089481	5
	53	76	5.008013	76899.47	-119789.4	1	142348.3	-57.30135	3.593635E-010	0.0089622	5
	54	78	3.945707	90078.03	-136892.3	1	163870.5	-56.65423	-1.195655E-010	0.0089516	5
	55	80	3.158693	102883.6	-155032.9	1	186065.1	-56.43078	-1.007456E-011	0.0089555	5
	56	84	2.504006	116874	-177390.6	1	212431.1	-56.62106	-1.465373E-011	0.008941	5
	57	87	1.998082	130854.2	-203101.5	1	241605.2	-57.20715	-2.803683E-010	0.0089766	5
	58	90	1.584686	145735	-236087.3	1	277445.3	-58.31326	-2.545618E-011	0.0089802	5
	59	93	1.266892	161817.7	-274336.6	1	318505.2	-59.46573	-2.122411E-010	0.0089928	5
	60	98	0.999041	180011.1	-325093.2	1	371604.1	-61.02576	-5.629881E-011	0.008929	5
