EXPLAIN
TAG	EISPOT
TITLE	LABEL	Potentiostatic EIS	Test &Identifier
DATE	LABEL	9/26/2019	Date
TIME	LABEL	9:03:02	Time
NOTES	NOTES	2	&Notes...
	
	
PSTAT	PSTAT	REF600-11020	Potentiostat
VDC	POTEN	0.00000E+000	T	DC &Voltage (V)
FREQINIT	QUANT	1.00000E+006	Initial Fre&q. (Hz)
FREQFINAL	QUANT	1.00000E+000	Final Fre&q. (Hz)
PTSPERDEC	QUANT	1.00000E+001	Points/&decade
VAC	QUANT	2.50000E+001	AC &Voltage (mV rms)
AREA	QUANT	1.00000E-002	&Area (cm^2)
CONDIT	TWOPARAM	T	5.00000E+000	0.00000E+000	Conditionin&g	Time(s)	E(V)
DELAY	TWOPARAM	T	5.00000E+000	0.00000E+000	Init. De&lay	Time(s)	Stab.(mV/s)
SPEED	SELECTOR	1	&Optimize for:
ZGUESS	QUANT	1.00000E+004	E&stimated Z (ohms)
OCVCURVE	TABLE	19
	Pt	T	Vf	Vm	Ach	Over
	#	s	V vs. Ref.	V	V	bits
	0	0.258333	2.84022E-002	2.84022E-002	5.71566E-004	...........
	1	0.516667	2.84287E-002	2.97893E-002	5.71232E-004	...........
	2	0.775	2.85922E-002	3.11438E-002	5.68599E-004	...........
	3	1.03333	2.90569E-002	3.24314E-002	5.70499E-004	...........
	4	1.29167	2.98922E-002	3.36618E-002	5.75899E-004	...........
	5	1.55	3.10059E-002	3.47831E-002	5.71032E-004	...........
	6	1.80833	3.22387E-002	3.58625E-002	5.67832E-004	...........
	7	2.06667	3.34678E-002	3.68740E-002	5.66832E-004	...........
	8	2.325	3.46363E-002	3.78684E-002	5.67599E-004	...........
	9	2.58333	3.57333E-002	3.87545E-002	5.67066E-004	...........
	10	2.84167	3.67678E-002	3.97703E-002	5.68599E-004	...........
	11	3.1	3.77528E-002	4.04770E-002	5.69866E-004	...........
	12	3.35833	3.86926E-002	4.12853E-002	5.64599E-004	...........
	13	3.61667	3.95812E-002	4.20567E-002	5.63566E-004	...........
	14	3.875	4.04177E-002	4.28014E-002	5.65232E-004	...........
	15	4.13333	4.12126E-002	4.34555E-002	5.64666E-004	...........
	16	4.39167	4.19733E-002	4.41197E-002	5.69132E-004	...........
	17	4.65	4.26992E-002	4.47567E-002	5.66632E-004	...........
	18	4.90833	4.33906E-002	4.53503E-002	5.67499E-004	...........
EOC	QUANT	0.0433906	Open Circuit (V)
PSTATMODEL	IQUANT	4	Pstat Model
PSTATSECTION	LABEL	REF600-11020	Pstat Section
PSTATSERIALNO	LABEL	11020	Pstat Serial Number
CTRLMODE	IQUANT	1	Control Mode
IESTAB	IQUANT	0	I/E Stability
CASPEED	IQUANT	1	Control Amp Speed
CONVENTION	IQUANT	1	Current Convention
ICHRANGE	IQUANT	2	Ich Range
ICHRANGEMODE	TOGGLE	F	Ich Auto Range
ICHOFFSETENABLE	TOGGLE	T	Ich Offset Enable
ICHOFFSET	QUANT	0	Ich Offset (V)
ICHFILTER	IQUANT	3	Ich Filter
VCHRANGE	IQUANT	2	Vch Range
VCHRANGEMODE	TOGGLE	F	Vch Auto Range
VCHOFFSETENABLE	TOGGLE	T	Vch Offset Enable
VCHOFFSET	QUANT	0	Vch Offset (V)
VCHFILTER	IQUANT	3	Vch Filter
ACHRANGE	IQUANT	2	Ach Range
ACHOFFSETENABLE	TOGGLE	F	Ach Offset Enable
ACHOFFSET	QUANT	0	Ach Offset (V)
ACHFILTER	IQUANT	3	Ach Filter
IERANGELOWERLIMIT	IQUANT	1	I/E Range Lower Limit
IERANGEMODE	TOGGLE	F	I/E AutoRange
IERANGE	IQUANT	6	I/E Range
POSFEEDENABLE	TOGGLE	F	Positive Feedback IR Comp
POSFEEDRESISTANCE	QUANT	0	Positive Feedback Resistance (ohm)
ACHSELECT	IQUANT	0	Ach Select
CABLEID	IQUANT	14	Cable ID
DCCALDATE	LABEL	8/19/2019	DC Calibration Date
ACCALDATE	LABEL	8/19/2019	AC Calibration Date
THERMOSELECT	IQUANT	1	Thermo Select
FRAMEWORKVERSION	QUANT	6.33	Framework Version
INSTRUMENTVERSION	LABEL	3.50	Instrument Version
ZCURVE	TABLE
	Pt	Time	Freq	Zreal	Zimag	Zsig	Zmod	Zphz	Idc	Vdc	IERange
	#	s	Hz	ohm	ohm	V	ohm	°	A	V	#
	0	1	1000078	2108.31	-1925.855	1	2855.502	-42.41043	-2.116857E-006	0.0466413	8
	1	3	794390.6	2471.448	-1991.249	1	3173.819	-38.85844	2.401186E-006	0.0449488	8
	2	4	630984.4	2876.385	-2002.789	1	3504.962	-34.84898	-4.255667E-006	0.0459078	8
	3	6	501234.4	3248.129	-1978.049	1	3803.028	-31.34062	2.010655E-006	0.0448404	8
	4	7	398109.4	3613.583	-1840.543	1	4055.316	-26.99157	-2.999808E-007	0.0452674	8
	5	9	316265.6	3959.571	-1665.573	1	4295.619	-22.81381	-4.249799E-006	0.046105	8
	6	10	251203.1	4204.961	-1545.23	1	4479.893	-20.17726	-2.979088E-006	0.0457494	8
	7	12	199546.9	4432.513	-1354.578	1	4634.874	-16.99318	-1.313586E-008	0.0451971	8
	8	13	158578.1	4609.297	-1200.106	1	4762.969	-14.59388	-4.104758E-006	0.0460407	8
	9	15	125953.1	4767.903	-974.8	1	4866.532	-11.5549	3.416909E-007	0.0440997	7
	10	16	100078.1	4869.335	-856.5744	1	4944.102	-9.97694	-4.546716E-009	0.045076	7
	11	18	79453.13	4950.923	-759.9719	1	5008.912	-8.726846	-5.631626E-008	0.045207	7
	12	19	63140.62	5018.958	-680.657	1	5064.902	-7.723176	-2.781553E-008	0.0450107	7
	13	20	50203.12	5079.241	-621.7272	1	5117.151	-6.978604	1.384696E-007	0.0448201	7
	14	22	39890.62	5125.639	-575.8448	1	5157.884	-6.410072	-2.912195E-008	0.0450202	7
	15	23	31640.63	5171.965	-550.5677	1	5201.187	-6.076385	-3.990935E-008	0.0450622	7
	16	24	25171.88	5218.172	-539.8597	1	5246.024	-5.906672	1.378352E-007	0.0448224	7
	17	26	20015.62	5257.173	-544.2408	1	5285.269	-5.910404	-5.569589E-008	0.0452069	7
	18	27	15890.62	5300.906	-567.3411	1	5331.18	-6.108952	-3.912798E-008	0.0450623	7
	19	29	12609.37	5341.632	-608.0818	1	5376.132	-6.49449	-3.947649E-008	0.0450609	7
	20	30	10078.13	5384.205	-655.0561	1	5423.906	-6.93666	-2.727952E-008	0.0450057	7
	21	31	8015.625	5432.47	-729.2424	1	5481.198	-7.64555	-8.15666E-008	0.0451623	7
	22	33	6328.125	5485.693	-826.19	1	5547.56	-8.564839	-2.321433E-009	0.0450707	7
	23	34	5015.625	5537.04	-948.2997	1	5617.658	-9.71846	-3.600258E-008	0.0450394	7
	24	35	3984.375	5594.747	-1108.422	1	5703.49	-11.20623	-1.420429E-008	0.0449863	7
	25	37	3170.956	5661.087	-1298.297	1	5808.054	-12.91668	-1.26869E-008	0.0449919	7
	26	38	2527.573	5735.951	-1536.897	1	5938.281	-14.99957	8.420599E-008	0.0448461	7
	27	40	1976.103	5825.514	-1856.807	1	6114.273	-17.679	-4.681915E-009	0.0450495	7
	28	41	1577.524	5925.072	-2217.299	1	6326.365	-20.51701	-2.766032E-009	0.0451604	7
	29	42	1265.625	6039.793	-2640.884	1	6591.917	-23.61723	-4.068651E-008	0.0450406	7
	30	44	998.264	6179.439	-3208.321	1	6962.671	-27.43802	-2.049334E-009	0.0450596	7
	31	45	796.875	6336.732	-3862.168	1	7420.951	-31.36184	6.999061E-008	0.0449109	7
	32	46	627.7902	6531.779	-4710.701	1	8053.25	-35.79904	1.09882E-008	0.0449527	7
	33	48	505.5147	6741.882	-5655.07	1	8799.59	-39.98982	-3.905613E-008	0.0450528	7
	34	49	397.9953	7019.889	-6911.7	1	9851.42	-44.55507	5.542588E-010	0.0449865	6
	35	50	315.5048	7336.858	-8431.389	1	11176.66	-48.97073	-2.165295E-010	0.044987	6
	36	52	252.4038	7696.625	-10220.04	1	12794.03	-53.0169	-5.546517E-010	0.0449839	6
	37	53	198.6229	8170.171	-12590.53	1	15009.1	-57.01991	-7.155909E-011	0.0449822	6
	38	54	158.3615	8724.299	-15350.12	1	17656.15	-60.3881	-4.296233E-010	0.0449787	6
	39	56	125.558	9431.854	-18835.51	1	21065.05	-63.40065	1.162706E-010	0.0449833	6
	40	57	100.4464	10271.99	-22917.55	1	25114.3	-65.85737	-7.392767E-010	0.044978	6
	41	59	79.00281	11435.91	-28377.68	1	30595.3	-68.05107	-5.718667E-010	0.0449832	6
	42	60	63.3446	13069.69	-34829.16	1	37200.63	-69.43133	2.504223E-010	0.0449775	6
	43	61	49.86702	14644.37	-42400	1	44857.75	-70.94581	4.298202E-010	0.0449781	6
	44	63	39.72458	17540.19	-51669.71	1	54565.71	-71.24931	5.366702E-010	0.0449808	6
	45	64	31.6723	20913.62	-62976.75	1	66358.5	-71.62946	-1.193566E-010	0.0449817	6
	46	66	24.93351	25330.59	-77091.2	1	81146.12	-71.81053	4.07047E-010	0.0449787	6
	47	67	19.86229	30802.35	-93343.41	1	98294.3	-71.73765	-4.644561E-010	0.0449823	6
	48	68	15.83615	39666.44	-112313.1	1	119111.9	-70.54793	-1.571015E-009	0.0449867	5
	49	70	12.40079	47812.08	-136611.3	1	144736.5	-70.71066	-4.460397E-010	0.0449862	5
	50	71	9.93114	60939.36	-163129.7	1	174140.4	-69.51613	-8.10353E-010	0.0449889	5
	51	73	7.944915	74976.73	-193814.2	1	207811.1	-68.85111	5.725176E-010	0.0449821	5
	52	74	6.317385	96473.9	-230439.3	1	249818.9	-67.28327	4.347271E-012	0.0449953	5
	53	76	5.008013	122571.5	-272109.2	1	298441.2	-65.75083	-7.436676E-011	0.0449842	5
	54	79	3.945707	155606.2	-320114.3	1	355930.4	-64.07581	3.289061E-011	0.0449909	5
	55	82	3.158693	194262.3	-370302.6	1	418164.8	-62.3183	-4.857207E-010	0.0449778	5
	56	85	2.504006	240809.9	-426002.8	1	489354.5	-60.5215	6.437258E-011	0.0449817	5
	57	88	1.998082	295053.8	-484846.5	1	567567.5	-58.67736	-3.4703E-010	0.0450298	5
	58	91	1.584686	356150.1	-549670.8	1	654966.3	-57.05945	-1.281285E-010	0.0449863	5
	59	94	1.266892	424930.7	-616861.2	1	749055.3	-55.43861	-2.630834E-010	0.0450276	5
	60	99	0.999041	503090.4	-693286.5	1	856589.8	-54.0331	-4.175637E-010	0.0449448	5
