EXPLAIN
TAG	EISPOT
TITLE	LABEL	Potentiostatic EIS	Test &Identifier
DATE	LABEL	10/14/2019	Date
TIME	LABEL	10:32:45	Time
NOTES	NOTES	1	&Notes...
	
PSTAT	PSTAT	REF600-11020	Potentiostat
VDC	POTEN	0.00000E+000	T	DC &Voltage (V)
FREQINIT	QUANT	1.00000E+006	Initial Fre&q. (Hz)
FREQFINAL	QUANT	1.00000E+000	Final Fre&q. (Hz)
PTSPERDEC	QUANT	1.00000E+001	Points/&decade
VAC	QUANT	2.50000E+001	AC &Voltage (mV rms)
AREA	QUANT	1.00000E-002	&Area (cm^2)
CONDIT	TWOPARAM	T	5.00000E+000	0.00000E+000	Conditionin&g	Time(s)	E(V)
DELAY	TWOPARAM	T	5.00000E+000	0.00000E+000	Init. De&lay	Time(s)	Stab.(mV/s)
SPEED	SELECTOR	1	&Optimize for:
ZGUESS	QUANT	1.00000E+004	E&stimated Z (ohms)
OCVCURVE	TABLE	19
	Pt	T	Vf	Vm	Ach	Over
	#	s	V vs. Ref.	V	V	bits
	0	0.258333	5.42774E-003	5.42774E-003	5.49266E-004	...........
	1	0.516667	5.42534E-003	5.30209E-003	5.50333E-004	...........
	2	0.775	5.41057E-003	5.18154E-003	5.46433E-004	...........
	3	1.03333	5.36927E-003	5.09541E-003	5.44966E-004	...........
	4	1.29167	5.29800E-003	5.03037E-003	5.42466E-004	...........
	5	1.55	5.20981E-003	4.96981E-003	5.53366E-004	...........
	6	1.80833	5.12239E-003	4.92373E-003	5.49933E-004	...........
	7	2.06667	5.04606E-003	4.87704E-003	5.48199E-004	...........
	8	2.325	4.98265E-003	4.83914E-003	5.46699E-004	...........
	9	2.58333	4.92978E-003	4.80500E-003	5.45999E-004	...........
	10	2.84167	4.88453E-003	4.77273E-003	5.41733E-004	...........
	11	3.1	4.84489E-003	4.74662E-003	5.46366E-004	...........
	12	3.35833	4.80966E-003	4.71866E-003	5.40366E-004	...........
	13	3.61667	4.77792E-003	4.69183E-003	5.39299E-004	...........
	14	3.875	4.74895E-003	4.67858E-003	5.38666E-004	...........
	15	4.13333	4.72265E-003	4.65819E-003	5.41566E-004	...........
	16	4.39167	4.69943E-003	4.64388E-003	5.44599E-004	...........
	17	4.65	4.67923E-003	4.62771E-003	5.41333E-004	...........
	18	4.90833	4.66134E-003	4.61417E-003	5.42233E-004	...........
EOC	QUANT	0.0046613	Open Circuit (V)
PSTATMODEL	IQUANT	4	Pstat Model
PSTATSECTION	LABEL	REF600-11020	Pstat Section
PSTATSERIALNO	LABEL	11020	Pstat Serial Number
CTRLMODE	IQUANT	1	Control Mode
IESTAB	IQUANT	0	I/E Stability
CASPEED	IQUANT	1	Control Amp Speed
CONVENTION	IQUANT	1	Current Convention
ICHRANGE	IQUANT	2	Ich Range
ICHRANGEMODE	TOGGLE	F	Ich Auto Range
ICHOFFSETENABLE	TOGGLE	T	Ich Offset Enable
ICHOFFSET	QUANT	0	Ich Offset (V)
ICHFILTER	IQUANT	3	Ich Filter
VCHRANGE	IQUANT	2	Vch Range
VCHRANGEMODE	TOGGLE	F	Vch Auto Range
VCHOFFSETENABLE	TOGGLE	T	Vch Offset Enable
VCHOFFSET	QUANT	0	Vch Offset (V)
VCHFILTER	IQUANT	3	Vch Filter
ACHRANGE	IQUANT	2	Ach Range
ACHOFFSETENABLE	TOGGLE	F	Ach Offset Enable
ACHOFFSET	QUANT	0	Ach Offset (V)
ACHFILTER	IQUANT	3	Ach Filter
IERANGELOWERLIMIT	IQUANT	1	I/E Range Lower Limit
IERANGEMODE	TOGGLE	F	I/E AutoRange
IERANGE	IQUANT	5	I/E Range
POSFEEDENABLE	TOGGLE	F	Positive Feedback IR Comp
POSFEEDRESISTANCE	QUANT	0	Positive Feedback Resistance (ohm)
ACHSELECT	IQUANT	0	Ach Select
CABLEID	IQUANT	14	Cable ID
DCCALDATE	LABEL	8/19/2019	DC Calibration Date
ACCALDATE	LABEL	8/19/2019	AC Calibration Date
THERMOSELECT	IQUANT	1	Thermo Select
FRAMEWORKVERSION	QUANT	6.33	Framework Version
INSTRUMENTVERSION	LABEL	3.50	Instrument Version
ZCURVE	TABLE
	Pt	Time	Freq	Zreal	Zimag	Zsig	Zmod	Zphz	Idc	Vdc	IERange
	#	s	Hz	ohm	ohm	V	ohm	°	A	V	#
	0	1	1000078	2352.589	-1851.627	1	2993.86	-38.20483	-5.519151E-006	0.0072811	8
	1	3	794390.6	2736.263	-1822.982	1	3287.917	-33.67276	3.326543E-006	0.0063933	8
	2	4	630984.4	3089.284	-1722.487	1	3537.038	-29.14265	5.027408E-007	0.0062671	8
	3	6	501234.4	3404.686	-1590.729	1	3757.965	-25.04281	-3.468372E-006	0.0071836	8
	4	7	398109.4	3660.157	-1406.118	1	3920.959	-21.01522	-4.318508E-006	0.0074518	8
	5	9	316265.6	3850.985	-1248.732	1	4048.384	-17.96596	-2.937048E-007	0.0065421	8
	6	10	251203.1	4022.904	-1068.605	1	4162.412	-14.87596	-2.816675E-006	0.0069153	8
	7	12	199546.9	4130.497	-912.7064	1	4230.134	-12.46029	1.449227E-006	0.0060596	8
	8	13	158578.1	4223.972	-798.6895	1	4298.819	-10.70736	-1.163566E-006	0.0065691	8
	9	14	125953.1	4305.885	-665.4149	1	4356.997	-8.784777	6.98341E-007	0.0048529	7
	10	16	100078.1	4358.533	-573.199	1	4396.063	-7.492082	-1.600609E-008	0.0063776	7
	11	17	79453.13	4401.486	-520.7961	1	4432.19	-6.748022	-1.677651E-008	0.0063686	7
	12	18	63140.62	4441.054	-483.1422	1	4467.257	-6.20879	-3.768722E-008	0.0063455	7
	13	20	50203.12	4475.671	-459.7966	1	4499.227	-5.865558	6.159043E-008	0.0062119	7
	14	21	39890.62	4510.421	-445.9983	1	4532.418	-5.647149	-1.511378E-008	0.0064456	7
	15	22	31640.63	4545.621	-450.3113	1	4567.871	-5.657539	7.87521E-008	0.0062648	7
	16	24	25171.88	4579.045	-464.7601	1	4602.57	-5.795512	6.341411E-008	0.0062085	7
	17	25	20015.62	4608.152	-491.2537	1	4634.263	-6.085055	-3.33741E-008	0.0063358	7
	18	27	15890.62	4651.525	-533.9464	1	4682.07	-6.548295	-7.372802E-008	0.0064284	7
	19	28	12609.37	4688.374	-590.7594	1	4725.446	-7.181716	-3.139258E-008	0.0063323	7
	20	29	10078.13	4734.335	-663.4956	1	4780.603	-7.977784	-7.565329E-008	0.0064251	7
	21	31	8015.625	4786.703	-751.1919	1	4845.288	-8.918858	7.674248E-008	0.0061409	7
	22	32	6328.125	4830.993	-879.2214	1	4910.348	-10.31471	1.578261E-008	0.0062267	7
	23	33	5015.625	4887.262	-1028.773	1	4994.367	-11.88727	-4.03259E-009	0.0063468	7
	24	35	3984.375	4940.015	-1223.567	1	5089.289	-13.91134	-1.627959E-008	0.0062792	7
	25	36	3170.956	5019.504	-1435.364	1	5220.698	-15.95827	-3.816379E-008	0.0063198	7
	26	37	2527.573	5096.983	-1707.73	1	5375.461	-18.52328	-3.745054E-009	0.0063427	7
	27	39	1976.103	5196.397	-2069.862	1	5593.467	-21.7187	-3.130662E-008	0.0063268	7
	28	40	1577.524	5247.563	-2484.452	1	5805.981	-25.33515	-4.596644E-008	0.0063892	7
	29	41	1265.625	5428.624	-2976.415	1	6191.042	-28.73515	1.288761E-007	0.0061085	7
	30	43	998.264	5581.025	-3622.815	1	6653.769	-32.98884	-1.315589E-008	0.0064395	7
	31	44	796.875	5761.223	-4374.06	1	7233.539	-37.20665	7.838115E-008	0.0061402	7
	32	45	627.7902	5984.565	-5343.461	1	8022.942	-41.76083	1.29955E-007	0.0061064	7
	33	47	505.5147	6234.553	-6421.813	1	8950.382	-45.84767	-1.748617E-008	0.0062696	7
	34	48	397.9953	6568.977	-7868.039	1	10249.76	-50.1417	1.326271E-009	0.0062516	6
	35	49	315.5048	6957.321	-9598.37	1	11854.66	-54.06374	1.282906E-009	0.006248	6
	36	51	252.4038	7409.955	-11625.23	1	13785.99	-57.48645	1.380195E-009	0.006246	6
	37	52	198.6229	8006.106	-14298.83	1	16387.63	-60.75495	6.521602E-010	0.0062455	6
	38	54	158.3615	8709.913	-17409.09	1	19466.36	-63.42082	1.083068E-009	0.0062406	6
	39	55	125.558	9622.57	-21309.61	1	23381.47	-65.69797	6.046966E-010	0.006245	6
	40	56	100.4464	10746.33	-25862.67	1	28006.45	-67.43639	1.482855E-009	0.006244	6
	41	58	79.00281	12370.37	-31885.77	1	34201.29	-68.79579	1.204921E-009	0.0062486	6
	42	59	63.3446	13999.86	-38370	1	40844.26	-69.95476	9.533265E-010	0.0062442	6
	43	60	49.86702	17371.82	-47497.19	1	50574.34	-69.9103	1.270162E-009	0.006237	6
	44	62	39.72458	20621.92	-57801.81	1	61370.3	-70.36515	3.073441E-010	0.0062432	6
	45	63	31.6723	25386.8	-69658.73	1	74140.6	-69.97597	5.687131E-010	0.0062445	6
	46	65	24.93351	32034.62	-84694.37	1	90550.27	-69.28149	5.757239E-010	0.006246	6
	47	66	19.86229	40343.26	-101081.7	1	108835.1	-68.24229	9.264629E-010	0.0062504	5
	48	67	15.83615	52295.02	-120481.9	1	131341.7	-66.5368	-1.300224E-009	0.0062452	5
	49	69	12.40079	65327.48	-143695.8	1	157848.5	-65.55234	7.754366E-010	0.0062534	5
	50	70	9.93114	82711.45	-165333.3	1	184868.3	-63.42253	-1.740127E-010	0.0062549	5
	51	72	7.944915	102742.2	-190882	1	216776.1	-61.70864	3.211009E-010	0.0062502	5
	52	73	6.317385	126000.9	-217084.4	1	251001.7	-59.86811	3.523456E-010	0.0062618	5
	53	75	5.008013	152644.3	-246955.2	1	290322.5	-58.27958	4.889907E-010	0.0062591	5
	54	78	3.945707	183250.6	-280638.4	1	335169.7	-56.85636	-6.672485E-011	0.0062489	5
	55	81	3.158693	213943.4	-315486.2	1	381186.8	-55.85728	3.150861E-010	0.0062723	5
	56	84	2.504006	248851.9	-357511.7	1	435593.8	-55.15952	-2.338102E-010	0.0062477	5
	57	87	1.998082	285324.5	-403500	1	494188.5	-54.73495	1.151511E-011	0.0062092	5
	58	90	1.584686	324711.3	-458942.2	1	562196.9	-54.71979	-2.763597E-011	0.0062558	5
	59	93	1.266892	368365.5	-522920	1	639639.4	-54.83762	4.641356E-011	0.0062017	5
	60	98	0.999041	418689.8	-602620.5	1	733793.3	-55.20913	9.112129E-011	0.0062853	5
