EXPLAIN
TAG	EISPOT
TITLE	LABEL	Potentiostatic EIS	Test &Identifier
DATE	LABEL	10/16/2019	Date
TIME	LABEL	9:36:36	Time
NOTES	NOTES	1	&Notes...
	
PSTAT	PSTAT	REF600-11020	Potentiostat
VDC	POTEN	0.00000E+000	T	DC &Voltage (V)
FREQINIT	QUANT	1.00000E+006	Initial Fre&q. (Hz)
FREQFINAL	QUANT	1.00000E+000	Final Fre&q. (Hz)
PTSPERDEC	QUANT	1.00000E+001	Points/&decade
VAC	QUANT	2.50000E+001	AC &Voltage (mV rms)
AREA	QUANT	1.00000E-002	&Area (cm^2)
CONDIT	TWOPARAM	T	5.00000E+000	0.00000E+000	Conditionin&g	Time(s)	E(V)
DELAY	TWOPARAM	T	5.00000E+000	0.00000E+000	Init. De&lay	Time(s)	Stab.(mV/s)
SPEED	SELECTOR	0	&Optimize for:
ZGUESS	QUANT	1.00000E+005	E&stimated Z (ohms)
OCVCURVE	TABLE	19
	Pt	T	Vf	Vm	Ach	Over
	#	s	V vs. Ref.	V	V	bits
	0	0.258333	5.33336E-003	5.33336E-003	5.52532E-004	...........
	1	0.516667	5.33250E-003	5.28828E-003	5.51733E-004	...........
	2	0.775	5.32722E-003	5.24609E-003	5.54233E-004	...........
	3	1.03333	5.31233E-003	5.20581E-003	5.56066E-004	...........
	4	1.29167	5.28584E-003	5.17112E-003	5.58666E-004	...........
	5	1.55	5.25118E-003	5.14247E-003	5.54299E-004	...........
	6	1.80833	5.21421E-003	5.12394E-003	5.56166E-004	...........
	7	2.06667	5.18026E-003	5.12192E-003	5.52033E-004	...........
	8	2.325	5.15325E-003	5.12273E-003	5.57399E-004	...........
	9	2.58333	5.13542E-003	5.12906E-003	5.58632E-004	...........
	10	2.84167	5.12684E-003	5.13778E-003	5.53366E-004	...........
	11	3.1	5.12582E-003	5.14787E-003	5.52966E-004	...........
	12	3.35833	5.13016E-003	5.16075E-003	5.50099E-004	...........
	13	3.61667	5.13816E-003	5.17941E-003	5.52799E-004	...........
	14	3.875	5.14887E-003	5.18725E-003	5.52666E-004	...........
	15	4.13333	5.16151E-003	5.20832E-003	5.56799E-004	...........
	16	4.39167	5.17548E-003	5.22835E-003	5.61832E-004	...........
	17	4.65	5.19100E-003	5.25444E-003	5.58966E-004	...........
	18	4.90833	5.20873E-003	5.27030E-003	5.59532E-004	...........
EOC	QUANT	0.0052087	Open Circuit (V)
PSTATMODEL	IQUANT	4	Pstat Model
PSTATSECTION	LABEL	REF600-11020	Pstat Section
PSTATSERIALNO	LABEL	11020	Pstat Serial Number
CTRLMODE	IQUANT	1	Control Mode
IESTAB	IQUANT	0	I/E Stability
CASPEED	IQUANT	1	Control Amp Speed
CONVENTION	IQUANT	1	Current Convention
ICHRANGE	IQUANT	2	Ich Range
ICHRANGEMODE	TOGGLE	F	Ich Auto Range
ICHOFFSETENABLE	TOGGLE	T	Ich Offset Enable
ICHOFFSET	QUANT	0	Ich Offset (V)
ICHFILTER	IQUANT	3	Ich Filter
VCHRANGE	IQUANT	2	Vch Range
VCHRANGEMODE	TOGGLE	F	Vch Auto Range
VCHOFFSETENABLE	TOGGLE	T	Vch Offset Enable
VCHOFFSET	QUANT	0	Vch Offset (V)
VCHFILTER	IQUANT	3	Vch Filter
ACHRANGE	IQUANT	2	Ach Range
ACHOFFSETENABLE	TOGGLE	F	Ach Offset Enable
ACHOFFSET	QUANT	0	Ach Offset (V)
ACHFILTER	IQUANT	3	Ach Filter
IERANGELOWERLIMIT	IQUANT	1	I/E Range Lower Limit
IERANGEMODE	TOGGLE	F	I/E AutoRange
IERANGE	IQUANT	4	I/E Range
POSFEEDENABLE	TOGGLE	F	Positive Feedback IR Comp
POSFEEDRESISTANCE	QUANT	0	Positive Feedback Resistance (ohm)
ACHSELECT	IQUANT	0	Ach Select
CABLEID	IQUANT	14	Cable ID
DCCALDATE	LABEL	8/19/2019	DC Calibration Date
ACCALDATE	LABEL	8/19/2019	AC Calibration Date
THERMOSELECT	IQUANT	1	Thermo Select
FRAMEWORKVERSION	QUANT	6.33	Framework Version
INSTRUMENTVERSION	LABEL	3.50	Instrument Version
ZCURVE	TABLE
	Pt	Time	Freq	Zreal	Zimag	Zsig	Zmod	Zphz	Idc	Vdc	IERange
	#	s	Hz	ohm	ohm	V	ohm	°	A	V	#
	0	1	1000078	2399.016	-1546.038	1	2854.034	-32.79963	3.723498E-006	0.0070008	8
	1	1	794390.6	2703.52	-1444.484	1	3065.217	-28.11548	2.902144E-006	0.0063155	8
	2	2	630984.4	2958.128	-1314.898	1	3237.202	-23.96531	-1.02099E-006	0.0070739	8
	3	2	501234.4	3156.915	-1172.506	1	3367.623	-20.37543	-2.419496E-006	0.0074871	8
	4	2	398109.4	3327.477	-1002.096	1	3475.097	-16.76008	-2.852971E-006	0.0074479	8
	5	3	316265.6	3445.584	-865.8727	1	3552.715	-14.10629	-5.042979E-007	0.0071399	8
	6	3	251203.1	3532.051	-747.4075	1	3610.263	-11.94795	1.288113E-006	0.0066153	8
	7	3	199546.9	3607.351	-639.5454	1	3663.604	-10.05348	-1.833955E-006	0.0072372	8
	8	4	158578.1	3658.073	-563.0181	1	3701.147	-8.749798	-1.225126E-006	0.0070816	8
	9	4	125953.1	3714.227	-424.4373	1	3738.399	-6.519104	-8.94917E-007	0.0082345	7
	10	4	100078.1	3747.447	-388.2606	1	3767.506	-5.915122	8.073054E-008	0.0067664	7
	11	5	79453.13	3776.365	-358.5989	1	3793.353	-5.424469	-5.08671E-008	0.0069167	7
	12	5	63140.62	3802.217	-340.779	1	3817.458	-5.121529	4.618519E-008	0.0067478	7
	13	5	50203.12	3830.018	-330.9228	1	3844.287	-4.93823	-2.709823E-008	0.0068148	7
	14	6	39890.62	3853.299	-328.9914	1	3867.318	-4.88003	5.899787E-008	0.006687	7
	15	6	31640.63	3881.849	-336.6821	1	3896.422	-4.956995	-3.798168E-009	0.0068208	7
	16	6	25171.88	3908.432	-352.7297	1	3924.316	-5.156881	-1.173207E-008	0.0067888	7
	17	6	20015.62	3937.477	-363.7836	1	3954.246	-5.278573	-3.137135E-009	0.0068157	7
	18	7	15890.62	3966.003	-414.1432	1	3987.568	-5.961411	-3.317093E-008	0.0068203	7
	19	7	12609.37	3998.124	-461.6879	1	4024.692	-6.587119	-3.615332E-009	0.0068172	7
	20	7	10078.13	4031.151	-520.1056	1	4064.565	-7.351779	-2.592308E-008	0.0068152	7
	21	8	8015.625	4071.908	-571.2235	1	4111.779	-7.985569	-1.471374E-008	0.0068447	7
	22	8	6328.125	4105.298	-691.6129	1	4163.148	-9.56273	-2.390201E-009	0.0067913	7
	23	8	5015.625	4147.291	-810.8849	1	4225.82	-11.063	-6.290712E-009	0.0067927	7
	24	9	3984.375	4178.365	-983.646	1	4292.585	-13.24703	3.378505E-008	0.0067047	7
	25	9	3170.956	4247.031	-1138.782	1	4397.055	-15.00999	-1.599047E-008	0.0068494	7
	26	9	2527.573	4305.974	-1359.065	1	4515.359	-17.5169	-3.331001E-008	0.0068215	7
	27	10	1976.103	4376.954	-1651.813	1	4678.271	-20.67594	-4.638922E-009	0.0067946	7
	28	10	1577.524	4432.583	-1982.56	1	4855.753	-24.09752	1.219931E-008	0.0068874	7
	29	10	1265.625	4545.226	-2388.145	1	5134.425	-27.71826	-5.602249E-008	0.0069829	7
	30	11	998.264	4651.333	-2910.772	1	5487.029	-32.03806	-2.633077E-008	0.006805	7
	31	11	796.875	4777.122	-3524.151	1	5936.374	-36.41673	3.118783E-008	0.0067051	7
	32	11	627.7902	4925.717	-4330.792	1	6558.845	-41.3226	1.21262E-008	0.0068763	7
	33	12	505.5147	5092.418	-5231.229	1	7300.581	-45.77035	-1.291295E-009	0.0068041	7
	34	12	397.9953	5311.917	-6448.875	1	8354.905	-50.52183	3.865483E-009	0.0068245	7
	35	12	315.5048	5572.867	-7920.583	1	9684.65	-54.87004	3.636212E-009	0.0068266	7
	36	13	252.4038	5886.558	-9659.4	1	11311.74	-58.64134	5.376473E-010	0.0067614	6
	37	13	198.6229	6307.025	-11964.33	1	13524.93	-62.20393	3.226301E-010	0.0067655	6
	38	13	158.3615	6815.911	-14657.59	1	16164.82	-65.06114	1.091112E-009	0.0067632	6
	39	14	125.558	7497.198	-18048.27	1	19543.49	-67.44214	6.918699E-010	0.0067656	6
	40	14	100.4464	8347.068	-22060.55	1	23586.89	-69.27482	-5.977435E-010	0.0067592	6
	41	14	79.00281	9508.75	-27320.93	1	28928.36	-70.81011	-5.463475E-010	0.0067576	6
	42	15	63.3446	11267.85	-32945.65	1	34819.25	-71.11862	4.585726E-010	0.0067572	6
	43	15	49.86702	13389.64	-40820.39	1	42960.3	-71.83981	7.954907E-010	0.0067553	6
	44	15	39.72458	15865.66	-49814.51	1	52280.06	-72.3336	9.110462E-011	0.0067617	6
	45	16	31.6723	19187.69	-60521.5	1	63490.31	-72.40935	-3.200513E-010	0.0067616	6
	46	16	24.93351	24373.42	-74034.69	1	77943.56	-71.77761	-4.443438E-010	0.0067569	6
	47	16	19.86229	30538.32	-89327.52	1	94403.36	-71.12602	-1.464506E-009	0.0067575	6
	48	16	15.83615	38406.75	-106336.9	1	113060.2	-70.1413	1.612384E-010	0.006761	5
	49	17	12.40079	48873.1	-128601.4	1	137575.1	-69.19143	1.057115E-009	0.0067632	5
	50	17	9.93114	63314.66	-151991	1	164651.2	-67.38493	7.22484E-010	0.0067543	5
	51	18	7.944915	79884.16	-178341.3	1	195415.2	-65.87103	-2.889472E-010	0.006774	5
	52	18	6.317385	100667.3	-208698.3	1	231708.7	-64.24929	-4.136147E-010	0.0067748	5
	53	19	5.008013	126744.1	-242200.2	1	273358.8	-62.3768	2.974427E-011	0.0067673	5
	54	20	3.945707	158418.3	-279595.1	1	321356.1	-60.46416	-2.507766E-010	0.0067575	5
	55	22	3.158693	193021.1	-317023	1	371161.3	-58.66463	1.232586E-010	0.0067582	5
	56	23	2.504006	233059.8	-358712.3	1	427774.9	-56.98772	9.241097E-011	0.006762	5
	57	25	1.998082	276280.6	-402343	1	488068.5	-55.52342	-2.03926E-010	0.0067139	5
	58	26	1.584686	321816	-451685.8	1	554604.1	-54.53098	-1.317198E-010	0.0067387	5
	59	28	1.266892	369473.4	-504234.5	1	625110.4	-53.76823	-2.56489E-011	0.0067713	5
	60	31	0.999041	423047.7	-570277.4	1	710060.4	-53.43095	2.06097E-011	0.0067918	5
