EXPLAIN
TAG	EISPOT
TITLE	LABEL	Potentiostatic IDE	Test &Identifier
DATE	LABEL	9/4/2019	Date
TIME	LABEL	14:39:25	Time
NOTES	NOTES	1	&Notes...
	
PSTAT	PSTAT	REF600-11020	Potentiostat
VDC	POTEN	0.00000E+000	T	DC &Voltage (V)
FREQINIT	QUANT	1.00000E+006	Initial Fre&q. (Hz)
FREQFINAL	QUANT	1.00000E+000	Final Fre&q. (Hz)
PTSPERDEC	QUANT	1.00000E+001	Points/&decade
VAC	QUANT	2.50000E+001	AC &Voltage (mV rms)
AREA	QUANT	1.00000E-002	&Area (cm^2)
CONDIT	TWOPARAM	T	5.00000E+000	0.00000E+000	Conditionin&g	Time(s)	E(V)
DELAY	TWOPARAM	T	5.00000E+000	0.00000E+000	Init. De&lay	Time(s)	Stab.(mV/s)
SPEED	SELECTOR	1	&Optimize for:
ZGUESS	QUANT	1.00000E+007	E&stimated Z (ohms)
OCVCURVE	TABLE	18
	Pt	T	Vf	Vm	Ach	Over
	#	s	V vs. Ref.	V	V	bits
	0	0.258333	2.06282E-003	2.06282E-003	5.82312E-004	...........
	1	0.516667	2.05009E-003	1.39650E-003	5.84179E-004	...........
	2	0.775	1.97218E-003	7.77925E-004	5.84446E-004	...........
	3	1.03333	1.75991E-003	5.67537E-004	5.88479E-004	...........
	4	1.29167	1.40533E-003	-7.11687E-005	5.82679E-004	...........
	5	1.55	9.65365E-004	-5.62793E-004	5.85479E-004	...........
	6	1.80833	4.89321E-004	-1.00782E-003	5.84246E-004	...........
	7	2.06667	2.17278E-006	-1.29956E-003	5.89746E-004	...........
	8	2.325	-4.66101E-004	-1.56848E-003	5.84612E-004	...........
	9	2.58333	-8.83704E-004	-1.85145E-003	5.84179E-004	...........
	10	2.84167	-1.23967E-003	-2.10440E-003	5.85912E-004	...........
	11	3.1	-1.54574E-003	-2.32772E-003	5.83012E-004	...........
	12	3.35833	-1.81839E-003	-2.52249E-003	5.88479E-004	...........
	13	3.61667	-2.06641E-003	-2.71810E-003	5.92845E-004	...........
	14	3.875	-2.29365E-003	-2.93051E-003	5.86179E-004	...........
	15	4.13333	-2.50499E-003	-3.08800E-003	5.85879E-004	...........
	16	4.39167	-2.70446E-003	-3.24131E-003	5.90445E-004	...........
	17	4.65	-2.89142E-003	-3.37833E-003	5.87079E-004	...........
EOC	QUANT	-0.0030637	Open Circuit (V)
PSTATMODEL	IQUANT	4	Pstat Model
PSTATSECTION	LABEL	REF600-11020	Pstat Section
PSTATSERIALNO	LABEL	11020	Pstat Serial Number
CTRLMODE	IQUANT	1	Control Mode
IESTAB	IQUANT	0	I/E Stability
CASPEED	IQUANT	1	Control Amp Speed
CONVENTION	IQUANT	1	Current Convention
ICHRANGE	IQUANT	2	Ich Range
ICHRANGEMODE	TOGGLE	F	Ich Auto Range
ICHOFFSETENABLE	TOGGLE	T	Ich Offset Enable
ICHOFFSET	QUANT	0	Ich Offset (V)
ICHFILTER	IQUANT	3	Ich Filter
VCHRANGE	IQUANT	2	Vch Range
VCHRANGEMODE	TOGGLE	F	Vch Auto Range
VCHOFFSETENABLE	TOGGLE	T	Vch Offset Enable
VCHOFFSET	QUANT	0	Vch Offset (V)
VCHFILTER	IQUANT	3	Vch Filter
ACHRANGE	IQUANT	2	Ach Range
ACHOFFSETENABLE	TOGGLE	F	Ach Offset Enable
ACHOFFSET	QUANT	0	Ach Offset (V)
ACHFILTER	IQUANT	1	Ach Filter
IERANGELOWERLIMIT	IQUANT	1	I/E Range Lower Limit
IERANGEMODE	TOGGLE	F	I/E AutoRange
IERANGE	IQUANT	2	I/E Range
POSFEEDENABLE	TOGGLE	F	Positive Feedback IR Comp
POSFEEDRESISTANCE	QUANT	0	Positive Feedback Resistance (ohm)
ACHSELECT	IQUANT	0	Ach Select
CABLEID	IQUANT	14	Cable ID
DCCALDATE	LABEL	8/19/2019	DC Calibration Date
ACCALDATE	LABEL	8/19/2019	AC Calibration Date
THERMOSELECT	IQUANT	1	Thermo Select
FRAMEWORKVERSION	QUANT	6.33	Framework Version
INSTRUMENTVERSION	LABEL	3.50	Instrument Version
ZCURVE	TABLE
	Pt	Time	Freq	Zreal	Zimag	Zsig	Zmod	Zphz	Idc	Vdc	IERange
	#	s	Hz	ohm	ohm	V	ohm	°	A	V	#
	0	2	1000078	1346.12	-2184.047	1	2565.56	-58.35273	6.061748E-006	0.0035488	8
	1	3	794390.6	1846.778	-2275.735	1	2930.795	-50.94039	-3.033107E-006	0.0047838	8
	2	5	630984.4	2346.123	-2250.93	1	3251.304	-43.81373	-1.267567E-007	0.0040206	8
	3	6	501234.4	2802.449	-2148.076	1	3530.998	-37.47015	-1.557866E-007	-0.0012989	8
	4	7	398109.4	3178.639	-1990.948	1	3750.683	-32.06107	1.583182E-006	0.004419	8
	5	9	316265.6	3482.425	-1800.183	1	3920.197	-27.33597	-4.427911E-007	0.0028951	8
	6	10	251203.1	3726.486	-1625.435	1	4065.555	-23.56608	-9.468947E-007	-0.0014246	8
	7	11	199546.9	3902.098	-1462.785	1	4167.267	-20.54958	1.219933E-007	-0.0044408	8
	8	13	158578.1	4064.382	-1341.616	1	4280.086	-18.26759	1.736043E-006	0.0004753	8
	9	14	125953.1	4172.086	-1303.524	1	4370.981	-17.35087	5.883834E-007	0.0010935	7
	10	15	100078.1	4281.589	-1237.667	1	4456.885	-16.12284	-1.211338E-008	-0.0014118	7
	11	17	79453.13	4388.178	-1212.428	1	4552.591	-15.44517	-1.575604E-008	-0.0014691	7
	12	18	63140.62	4490.552	-1221.835	1	4653.809	-15.22113	-2.08391E-009	-0.001336	7
	13	19	50203.12	4594.949	-1262.591	1	4765.259	-15.36442	-1.532163E-008	-0.0014708	7
	14	21	39890.62	4703.298	-1337.398	1	4889.749	-15.87327	6.055489E-010	-0.0013551	7
	15	22	31640.63	4822.237	-1446.343	1	5034.469	-16.69567	1.304472E-008	-0.0013067	7
	16	23	25171.88	4951.618	-1589.804	1	5200.577	-17.80014	5.240323E-008	-0.0012158	7
	17	25	20015.62	5096.115	-1773.054	1	5395.75	-19.18395	5.235164E-008	-0.0012211	7
	18	26	15890.62	5260.731	-2001.257	1	5628.528	-20.82753	-2.17647E-008	-0.0015446	7
	19	27	12609.37	5446.642	-2276.261	1	5903.158	-22.68103	1.323227E-008	-0.0013166	7
	20	29	10078.13	5652.655	-2596.238	1	6220.366	-24.6691	5.917709E-008	-0.0011956	7
	21	30	8015.625	5894.018	-2982.283	1	6605.563	-26.83872	-2.753519E-008	-0.001513	7
	22	31	6328.125	6180.171	-3456.853	1	7081.267	-29.22029	-1.030631E-009	-0.0013589	7
	23	33	5015.625	6506.236	-4012.678	1	7644.128	-31.66393	-3.760109E-008	-0.0015351	7
	24	34	3984.375	6880.717	-4655.371	1	8307.632	-34.08158	-1.546167E-008	-0.0014832	7
	25	35	3170.956	7309.285	-5412.736	1	9095.238	-36.52102	-2.338478E-008	-0.0015485	7
	26	37	2527.573	7794.216	-6301.482	1	10022.9	-38.95491	-8.82048E-010	-0.0013527	6
	27	38	1976.103	8422.647	-7421.947	1	11226.14	-41.38616	-4.776399E-010	-0.0014644	6
	28	39	1577.524	9096.522	-8627.791	1	12537.36	-43.48513	-5.70863E-009	-0.0014842	6
	29	41	1265.625	9862.72	-10006.22	1	14049.83	-45.4138	-5.879635E-009	-0.0014889	6
	30	42	998.264	10829.62	-11739.55	1	15971.78	-47.30876	-8.252636E-010	-0.0013519	6
	31	43	796.875	11908.2	-13662.58	1	18123.78	-48.92484	3.17481E-009	-0.0012701	6
	32	45	627.7902	13234.85	-16048.02	1	20801.45	-50.48751	3.446291E-009	-0.0014939	6
	33	46	505.5147	14634.18	-18585.28	1	23655.27	-51.78286	-6.161521E-009	-0.0014893	6
	34	47	397.9953	16466.17	-21835.36	1	27348.08	-52.97984	1.455851E-010	-0.0014386	6
	35	49	315.5048	18534.98	-25534.94	1	31552.79	-54.02531	1.14309E-010	-0.0014372	6
	36	50	252.4038	20849.99	-29681.7	1	36272.93	-54.91377	1.370091E-010	-0.0014359	6
	37	51	198.6229	23741.78	-34880.64	1	42193.97	-55.75854	1.250935E-010	-0.0014372	6
	38	53	158.3615	26923.75	-40624.63	1	48736.52	-56.46579	8.066825E-011	-0.0014378	6
	39	54	125.558	30699.76	-47494.98	1	56553.06	-57.12222	1.735377E-010	-0.0014376	6
	40	55	100.4464	34880.86	-55199.52	1	65296.72	-57.711	1.029925E-010	-0.001442	6
	41	57	79.00281	40065.68	-64923.1	1	76290.68	-58.32022	-2.143025E-011	-0.0014429	6
	42	58	63.3446	45475.34	-75353.61	1	88012.34	-58.88934	-1.274591E-010	-0.0014479	6
	43	59	49.86702	52211.98	-88830.7	1	103038.8	-59.55429	1.014059E-011	-0.0014433	5
	44	61	39.72458	59523.42	-103862.8	1	119710.1	-60.18311	2.329791E-010	-0.001438	5
	45	62	31.6723	67879.69	-121706.3	1	139356	-60.85013	2.313645E-010	-0.001444	5
	46	63	24.93351	77956.64	-144187.4	1	163912.3	-61.6016	1.865847E-010	-0.0014415	5
	47	65	19.86229	89028.28	-169902.2	1	191814.5	-62.34558	4.332354E-010	-0.0014317	5
	48	66	15.83615	102106.3	-200386.1	1	224900.6	-62.99899	-6.662674E-011	-0.0014355	5
	49	67	12.40079	118427.8	-240355.3	1	267947.4	-63.76962	-1.352537E-011	-0.0014413	5
	50	69	9.93114	136114.2	-283732.3	1	314692.1	-64.37169	3.152433E-010	-0.0014428	5
	51	70	7.944915	157391.2	-335900.4	1	370946.2	-64.89386	2.174314E-010	-0.0014358	5
	52	72	6.317385	183899.8	-399656.1	1	439936.5	-65.2907	2.12071E-010	-0.0014318	5
	53	74	5.008013	216831	-477602.3	1	524518.4	-65.582	4.648276E-012	-0.0014433	5
	54	75	3.945707	259077.5	-572110.8	1	628038.1	-65.63684	1.821468E-010	-0.001429	5
	55	78	3.158693	308202	-677810.4	1	744590.8	-65.54859	-3.607818E-011	-0.0014413	5
	56	80	2.504006	373035.4	-805975.8	1	888117.3	-65.16355	1.825485E-010	-0.0014368	5
	57	83	1.998082	450318.9	-950865	1	1052108	-64.65829	4.781113E-011	-0.0014061	4
	58	86	1.584686	551213.7	-1124332	1	1252181	-63.88318	9.442498E-011	-0.0013844	4
	59	89	1.266892	667289.8	-1314425	1	1474106	-63.08461	-1.593576E-011	-0.0014319	4
	60	94	0.999041	823700.7	-1545284	1	1751110	-61.94052	2.019745E-010	-0.0014092	4
