EXPLAIN
TAG	EISPOT
TITLE	LABEL	Potentiostatic EIS	Test &Identifier
DATE	LABEL	10/16/2019	Date
TIME	LABEL	10:19:13	Time
NOTES	NOTES	1	&Notes...
	
PSTAT	PSTAT	REF600-11020	Potentiostat
VDC	POTEN	0.00000E+000	T	DC &Voltage (V)
FREQINIT	QUANT	1.00000E+006	Initial Fre&q. (Hz)
FREQFINAL	QUANT	1.00000E+000	Final Fre&q. (Hz)
PTSPERDEC	QUANT	1.00000E+001	Points/&decade
VAC	QUANT	2.50000E+001	AC &Voltage (mV rms)
AREA	QUANT	1.00000E-002	&Area (cm^2)
CONDIT	TWOPARAM	T	5.00000E+000	0.00000E+000	Conditionin&g	Time(s)	E(V)
DELAY	TWOPARAM	T	5.00000E+000	0.00000E+000	Init. De&lay	Time(s)	Stab.(mV/s)
SPEED	SELECTOR	0	&Optimize for:
ZGUESS	QUANT	1.00000E+005	E&stimated Z (ohms)
OCVCURVE	TABLE	19
	Pt	T	Vf	Vm	Ach	Over
	#	s	V vs. Ref.	V	V	bits
	0	0.258333	4.38119E-003	4.38119E-003	5.61032E-004	...........
	1	0.516667	4.39065E-003	4.87626E-003	5.62932E-004	...........
	2	0.775	4.43581E-003	4.66917E-003	5.64666E-004	...........
	3	1.03333	4.53334E-003	5.13746E-003	5.61099E-004	...........
	4	1.29167	4.67485E-003	5.30176E-003	5.68132E-004	...........
	5	1.55	4.84111E-003	4.96718E-003	5.61432E-004	...........
	6	1.80833	5.00010E-003	5.58382E-003	5.57766E-004	...........
	7	2.06667	5.12814E-003	5.26380E-003	5.65599E-004	...........
	8	2.325	5.22697E-003	5.25677E-003	5.64099E-004	...........
	9	2.58333	5.29499E-003	5.55987E-003	5.66332E-004	...........
	10	2.84167	5.33061E-003	5.04684E-003	5.60566E-004	...........
	11	3.1	5.33855E-003	5.37822E-003	5.60832E-004	...........
	12	3.35833	5.32748E-003	5.55108E-003	5.59066E-004	...........
	13	3.61667	5.32677E-003	5.29342E-003	5.63066E-004	...........
	14	3.875	5.36102E-003	5.90077E-003	5.62332E-004	...........
	15	4.13333	5.43071E-003	5.59146E-003	5.63166E-004	...........
	16	4.39167	5.51658E-003	5.35323E-003	5.61332E-004	...........
	17	4.65	5.57736E-003	5.87650E-003	5.58866E-004	...........
	18	4.90833	5.59873E-003	5.49762E-003	5.58832E-004	...........
EOC	QUANT	0.0055987	Open Circuit (V)
PSTATMODEL	IQUANT	4	Pstat Model
PSTATSECTION	LABEL	REF600-11020	Pstat Section
PSTATSERIALNO	LABEL	11020	Pstat Serial Number
CTRLMODE	IQUANT	1	Control Mode
IESTAB	IQUANT	0	I/E Stability
CASPEED	IQUANT	1	Control Amp Speed
CONVENTION	IQUANT	1	Current Convention
ICHRANGE	IQUANT	2	Ich Range
ICHRANGEMODE	TOGGLE	F	Ich Auto Range
ICHOFFSETENABLE	TOGGLE	T	Ich Offset Enable
ICHOFFSET	QUANT	0	Ich Offset (V)
ICHFILTER	IQUANT	3	Ich Filter
VCHRANGE	IQUANT	2	Vch Range
VCHRANGEMODE	TOGGLE	F	Vch Auto Range
VCHOFFSETENABLE	TOGGLE	T	Vch Offset Enable
VCHOFFSET	QUANT	0	Vch Offset (V)
VCHFILTER	IQUANT	3	Vch Filter
ACHRANGE	IQUANT	2	Ach Range
ACHOFFSETENABLE	TOGGLE	F	Ach Offset Enable
ACHOFFSET	QUANT	0	Ach Offset (V)
ACHFILTER	IQUANT	3	Ach Filter
IERANGELOWERLIMIT	IQUANT	1	I/E Range Lower Limit
IERANGEMODE	TOGGLE	F	I/E AutoRange
IERANGE	IQUANT	5	I/E Range
POSFEEDENABLE	TOGGLE	F	Positive Feedback IR Comp
POSFEEDRESISTANCE	QUANT	0	Positive Feedback Resistance (ohm)
ACHSELECT	IQUANT	0	Ach Select
CABLEID	IQUANT	14	Cable ID
DCCALDATE	LABEL	8/19/2019	DC Calibration Date
ACCALDATE	LABEL	8/19/2019	AC Calibration Date
THERMOSELECT	IQUANT	1	Thermo Select
FRAMEWORKVERSION	QUANT	6.33	Framework Version
INSTRUMENTVERSION	LABEL	3.50	Instrument Version
ZCURVE	TABLE
	Pt	Time	Freq	Zreal	Zimag	Zsig	Zmod	Zphz	Idc	Vdc	IERange
	#	s	Hz	ohm	ohm	V	ohm	°	A	V	#
	0	1	1000078	2617.765	-1535.778	1	3035.013	-30.39909	9.621804E-007	0.0080483	8
	1	2	794390.6	2885.513	-1412.359	1	3212.622	-26.08015	-4.016891E-007	0.00734	8
	2	2	630984.4	3120.167	-1275.11	1	3370.66	-22.22822	2.784008E-007	0.0073664	8
	3	2	501234.4	3324.331	-1113.489	1	3505.857	-18.51834	-2.354513E-006	0.0076695	8
	4	3	398109.4	3448.224	-956.684	1	3578.476	-15.50627	9.617552E-007	0.0069579	8
	5	3	316265.6	3570.394	-829.1239	1	3665.4	-13.07362	6.322146E-007	0.0069926	8
	6	3	251203.1	3640.787	-708.3125	1	3709.048	-11.00933	3.438511E-006	0.0065347	8
	7	3	199546.9	3721.195	-604.9711	1	3770.051	-9.23404	-9.721722E-008	0.0070699	8
	8	4	158578.1	3757.859	-565.3961	1	3800.155	-8.556372	3.375606E-006	0.0065649	8
	9	4	125953.1	3822.075	-425.0172	1	3845.634	-6.345258	4.462724E-007	0.0059813	7
	10	4	100078.1	3841.351	-385.0755	1	3860.603	-5.724481	-2.504481E-008	0.0070816	7
	11	5	79453.13	3870.083	-365.5068	1	3887.305	-5.395249	-5.538963E-008	0.0071647	7
	12	5	63140.62	3898.326	-355.2704	1	3914.481	-5.207214	-4.816673E-008	0.0072288	7
	13	5	50203.12	3926.666	-354.4409	1	3942.63	-5.157832	3.999777E-009	0.0071557	7
	14	6	39890.62	3954.786	-362.7253	1	3971.385	-5.240397	-3.177075E-008	0.0071342	7
	15	6	31640.63	3987.113	-380.3989	1	4005.219	-5.449927	1.679111E-009	0.0070116	7
	16	6	25171.88	4019.619	-406.5116	1	4040.123	-5.774795	-3.044866E-008	0.0070733	7
	17	6	20015.62	4045.243	-435.6683	1	4068.636	-6.146999	7.498669E-009	0.0071475	7
	18	7	15890.62	4091.84	-489.7246	1	4121.042	-6.824881	6.296248E-008	0.0069325	7
	19	7	12609.37	4130.831	-547.5467	1	4166.961	-7.550611	-2.958607E-008	0.0070667	7
	20	7	10078.13	4173.592	-619.9191	1	4219.38	-8.448585	3.130852E-009	0.0071523	7
	21	8	8015.625	4226.713	-711.5926	1	4286.195	-9.55647	-1.570626E-010	0.0070327	7
	22	8	6328.125	4270.32	-823.999	1	4349.093	-10.92154	5.967145E-008	0.0069702	7
	23	8	5015.625	4325.385	-962.843	1	4431.255	-12.54959	-4.925905E-008	0.007221	7
	24	9	3984.375	4376.042	-1131.544	1	4519.971	-14.49782	-5.860981E-009	0.0070933	7
	25	9	3170.956	4449.877	-1341.591	1	4647.717	-16.7775	3.407573E-008	0.0070185	7
	26	9	2527.573	4521.698	-1595.739	1	4795.012	-19.43829	-2.794992E-008	0.0070641	7
	27	10	1976.103	4614.818	-1939.402	1	5005.78	-22.79484	-2.205848E-008	0.0070584	7
	28	10	1577.524	4703.543	-2293.85	1	5233.074	-25.99782	-4.070633E-008	0.007108	7
	29	10	1265.625	4825.023	-2782.529	1	5569.857	-29.97149	3.234581E-008	0.0069549	7
	30	11	998.264	4964.46	-3392.334	1	6012.803	-34.34573	9.975758E-008	0.0069158	7
	31	11	796.875	5118.808	-4089.009	1	6551.503	-38.61858	-5.240577E-008	0.0071408	7
	32	11	627.7902	5311.722	-5007.363	1	7299.868	-43.31057	-2.824283E-008	0.0071112	7
	33	11	505.5147	5521.246	-6017.419	1	8166.608	-47.46225	1.895464E-010	0.0070211	7
	34	12	397.9953	5795.648	-7402.565	1	9401.463	-51.94175	2.630421E-009	0.0070737	7
	35	12	315.5048	6121.56	-9059.59	1	10933.88	-55.95313	-2.736922E-012	0.0070145	6
	36	12	252.4038	6501.84	-11020.82	1	12795.79	-59.4611	1.047109E-009	0.0070125	6
	37	13	198.6229	7014.229	-13618	1	15318.27	-62.74834	3.341568E-010	0.0070152	6
	38	13	158.3615	7641.221	-16646.21	1	18316.23	-65.34313	5.383616E-010	0.0070063	6
	39	13	125.558	8458.388	-20456.71	1	22136.43	-67.53601	3.961656E-010	0.007012	6
	40	14	100.4464	9447.604	-24939.2	1	26668.73	-69.25204	1.200908E-009	0.0070088	6
	41	14	79.00281	10889.62	-30757.94	1	32628.74	-70.50387	1.302327E-009	0.0070101	6
	42	14	63.3446	13119.23	-37530.79	1	39757.69	-70.73245	1.585334E-010	0.0070019	6
	43	15	49.86702	15510.97	-46196.45	1	48730.91	-71.43996	1.739314E-010	0.0070022	6
	44	15	39.72458	18523.9	-55847.86	1	58839.76	-71.65009	3.210205E-010	0.0070102	6
	45	15	31.6723	22549.78	-67540.5	1	71205.42	-71.53735	-6.064416E-011	0.007006	6
	46	16	24.93351	28551.05	-82380.2	1	87187.5	-70.88488	-1.980311E-010	0.0070052	6
	47	16	19.86229	35912.95	-98807	1	105131.2	-70.02554	-7.463328E-010	0.0070101	5
	48	16	15.83615	44621.22	-117188.4	1	125396.1	-69.15493	-1.840115E-010	0.0070115	5
	49	17	12.40079	59323.82	-140744.3	1	152735.9	-67.14454	-1.569834E-009	0.0070178	5
	50	17	9.93114	72571.35	-165917.6	1	181094.6	-66.37572	7.762372E-010	0.0070152	5
	51	18	7.944915	89848.25	-193293.2	1	213154.8	-65.06963	5.962722E-010	0.0070142	5
	52	18	6.317385	112040.4	-223824.8	1	250301	-63.40873	2.66645E-010	0.0070125	5
	53	19	5.008013	140570.2	-259250.7	1	294908.3	-61.53268	2.701739E-010	0.0070211	5
	54	20	3.945707	171293.6	-301609	1	346856.6	-60.40634	-1.216315E-010	0.007014	5
	55	21	3.158693	204242.2	-342429.8	1	398714.3	-59.18604	-2.281834E-011	0.0069951	5
	56	23	2.504006	243284.3	-391269.6	1	460737.7	-58.1274	1.847022E-010	0.0070069	5
	57	24	1.998082	284208.8	-443575.5	1	526814.8	-57.35139	-3.456426E-011	0.0069932	5
	58	26	1.584686	332601.7	-505708	1	605280.6	-56.66727	-1.068748E-010	0.0069568	5
	59	28	1.266892	380627.7	-575797.6	1	690232.1	-56.53354	-8.318363E-011	0.00697	5
	60	30	0.999041	436525.4	-659260.2	1	790682.3	-56.48969	-2.471601E-010	0.0069994	5
