EXPLAIN
TAG	EISPOT
TITLE	LABEL	Potentiostatic IDE	Test &Identifier
DATE	LABEL	9/12/2019	Date
TIME	LABEL	8:59:40	Time
NOTES	NOTES	1	&Notes...
	
PSTAT	PSTAT	REF600-11020	Potentiostat
VDC	POTEN	0.00000E+000	T	DC &Voltage (V)
FREQINIT	QUANT	1.00000E+006	Initial Fre&q. (Hz)
FREQFINAL	QUANT	1.00000E+000	Final Fre&q. (Hz)
PTSPERDEC	QUANT	1.00000E+001	Points/&decade
VAC	QUANT	2.50000E+001	AC &Voltage (mV rms)
AREA	QUANT	1.00000E-002	&Area (cm^2)
CONDIT	TWOPARAM	T	5.00000E+000	0.00000E+000	Conditionin&g	Time(s)	E(V)
DELAY	TWOPARAM	T	5.00000E+000	0.00000E+000	Init. De&lay	Time(s)	Stab.(mV/s)
SPEED	SELECTOR	1	&Optimize for:
ZGUESS	QUANT	1.00000E+007	E&stimated Z (ohms)
OCVCURVE	TABLE	19
	Pt	T	Vf	Vm	Ach	Over
	#	s	V vs. Ref.	V	V	bits
	0	0.258333	4.12925E-003	4.12925E-003	5.73399E-004	...........
	1	0.516667	4.12470E-003	3.89126E-003	5.71066E-004	...........
	2	0.775	4.09682E-003	3.66757E-003	5.71166E-004	...........
	3	1.03333	4.01853E-003	3.47698E-003	5.69432E-004	...........
	4	1.29167	3.88130E-003	3.32628E-003	5.70766E-004	...........
	5	1.55	3.70613E-003	3.17711E-003	5.72732E-004	...........
	6	1.80833	3.52338E-003	3.03286E-003	5.70632E-004	...........
	7	2.06667	3.35174E-003	2.91303E-003	5.71999E-004	...........
	8	2.325	3.19615E-003	2.79184E-003	5.72199E-004	...........
	9	2.58333	3.05323E-003	2.57589E-003	5.70199E-004	...........
	10	2.84167	2.88856E-003	1.15264E-003	5.71366E-004	...........
	11	3.1	2.62310E-003	1.48750E-003	5.72399E-004	...........
	12	3.35833	2.24167E-003	1.79187E-003	5.72666E-004	...........
	13	3.61667	1.88400E-003	1.84385E-003	5.70932E-004	...........
	14	3.875	1.70063E-003	1.84795E-003	5.74799E-004	...........
	15	4.13333	1.68957E-003	1.83415E-003	5.73932E-004	...........
	16	4.39167	1.74954E-003	1.79117E-003	5.69532E-004	...........
	17	4.65	1.79921E-003	1.74661E-003	5.68199E-004	...........
	18	4.90833	1.81044E-003	1.66306E-003	5.69599E-004	...........
EOC	QUANT	0.0018104	Open Circuit (V)
PSTATMODEL	IQUANT	4	Pstat Model
PSTATSECTION	LABEL	REF600-11020	Pstat Section
PSTATSERIALNO	LABEL	11020	Pstat Serial Number
CTRLMODE	IQUANT	1	Control Mode
IESTAB	IQUANT	0	I/E Stability
CASPEED	IQUANT	1	Control Amp Speed
CONVENTION	IQUANT	1	Current Convention
ICHRANGE	IQUANT	2	Ich Range
ICHRANGEMODE	TOGGLE	F	Ich Auto Range
ICHOFFSETENABLE	TOGGLE	T	Ich Offset Enable
ICHOFFSET	QUANT	0	Ich Offset (V)
ICHFILTER	IQUANT	3	Ich Filter
VCHRANGE	IQUANT	2	Vch Range
VCHRANGEMODE	TOGGLE	F	Vch Auto Range
VCHOFFSETENABLE	TOGGLE	T	Vch Offset Enable
VCHOFFSET	QUANT	0	Vch Offset (V)
VCHFILTER	IQUANT	3	Vch Filter
ACHRANGE	IQUANT	2	Ach Range
ACHOFFSETENABLE	TOGGLE	F	Ach Offset Enable
ACHOFFSET	QUANT	0	Ach Offset (V)
ACHFILTER	IQUANT	3	Ach Filter
IERANGELOWERLIMIT	IQUANT	1	I/E Range Lower Limit
IERANGEMODE	TOGGLE	F	I/E AutoRange
IERANGE	IQUANT	2	I/E Range
POSFEEDENABLE	TOGGLE	F	Positive Feedback IR Comp
POSFEEDRESISTANCE	QUANT	0	Positive Feedback Resistance (ohm)
ACHSELECT	IQUANT	0	Ach Select
CABLEID	IQUANT	14	Cable ID
DCCALDATE	LABEL	8/19/2019	DC Calibration Date
ACCALDATE	LABEL	8/19/2019	AC Calibration Date
THERMOSELECT	IQUANT	1	Thermo Select
FRAMEWORKVERSION	QUANT	6.33	Framework Version
INSTRUMENTVERSION	LABEL	3.50	Instrument Version
ZCURVE	TABLE
	Pt	Time	Freq	Zreal	Zimag	Zsig	Zmod	Zphz	Idc	Vdc	IERange
	#	s	Hz	ohm	ohm	V	ohm	°	A	V	#
	0	2	1000078	2430.338	-1443.258	1	2826.577	-30.70399	-1.930458E-006	0.0051383	8
	1	4	794390.6	2702.868	-1328.223	1	3011.589	-26.17007	2.918532E-006	0.0031221	8
	2	5	630984.4	2919.344	-1188.778	1	3152.104	-22.15652	-1.253982E-007	0.0034592	8
	3	7	501234.4	3102.138	-1045.225	1	3273.493	-18.62058	-1.938864E-006	0.0038215	8
	4	8	398109.4	3195.961	-913.2131	1	3323.872	-15.94675	-5.163081E-008	0.0037087	8
	5	9	316265.6	3331.902	-772.4421	1	3420.269	-13.05242	-1.006473E-006	0.0036934	8
	6	11	251203.1	3401.516	-663.9338	1	3465.706	-11.04457	4.9613E-007	0.0033079	8
	7	12	199546.9	3460.572	-585.516	1	3509.756	-9.60328	2.421004E-006	0.0029364	8
	8	13	158578.1	3485.619	-488.753	1	3519.719	-7.981965	1.968806E-006	0.0028365	8
	9	15	125953.1	3557.649	-413.6571	1	3581.616	-6.63215	-6.289125E-007	0.0046668	7
	10	16	100078.1	3582.355	-382.9335	1	3602.763	-6.101427	-4.297225E-008	0.0035114	7
	11	17	79453.13	3611.739	-369.4561	1	3630.586	-5.840651	2.992363E-008	0.0033475	7
	12	19	63140.62	3643.367	-367.2652	1	3661.831	-5.756188	8.052735E-008	0.0032259	7
	13	20	50203.12	3674.395	-370.3143	1	3693.008	-5.754974	-5.314865E-008	0.0034731	7
	14	21	39890.62	3704.588	-380.5721	1	3724.085	-5.865416	-2.035358E-008	0.0035085	7
	15	23	31640.63	3742.562	-405.4403	1	3764.459	-6.182872	8.028515E-008	0.0032172	7
	16	24	25171.88	3781.027	-436.5575	1	3806.146	-6.586209	-3.272712E-008	0.0033687	7
	17	26	20015.62	3822.211	-476.3495	1	3851.78	-7.103956	8.150094E-008	0.0032221	7
	18	27	15890.62	3867.81	-528.755	1	3903.785	-7.784454	-4.480536E-008	0.0033905	7
	19	28	12609.37	3917.523	-590.9919	1	3961.851	-8.578868	-4.603832E-008	0.00339	7
	20	30	10078.13	3971.491	-665.3691	1	4026.842	-9.5108	3.190981E-008	0.0033335	7
	21	31	8015.625	4032.391	-755.066	1	4102.475	-10.60583	-3.311623E-008	0.0033655	7
	22	32	6328.125	4099.813	-867.001	1	4190.484	-11.94061	-3.086299E-010	0.0033009	7
	23	34	5015.625	4173.792	-999.878	1	4291.887	-13.47196	-6.928837E-008	0.003461	7
	24	35	3984.375	4252.782	-1157.994	1	4407.619	-15.23185	2.075361E-008	0.0032732	7
	25	36	3170.956	4338.82	-1347.407	1	4543.222	-17.25202	3.22911E-008	0.0033315	7
	26	38	2527.573	4434.717	-1574.069	1	4705.784	-19.54193	1.373398E-007	0.0031496	7
	27	39	1976.103	4549.993	-1873.484	1	4920.607	-22.37968	1.397651E-007	0.0031597	7
	28	40	1577.524	4664.292	-2208.947	1	5160.917	-25.34161	-2.145528E-008	0.0033519	7
	29	41	1265.625	4789.422	-2607.421	1	5453.184	-28.56442	2.033791E-008	0.0032727	7
	30	43	998.264	4944.784	-3130.276	1	5852.308	-32.33569	-4.233295E-008	0.0033921	7
	31	44	796.875	5107.617	-3739.241	1	6330.061	-36.20753	3.216297E-008	0.003331	7
	32	45	627.7902	5302.424	-4533.111	1	6976.016	-40.52756	-3.264655E-008	0.0033608	7
	33	47	505.5147	5508.438	-5410.992	1	7721.51	-44.4887	-7.021944E-008	0.0034588	7
	34	48	397.9953	5774.306	-6597.575	1	8767.588	-48.80705	6.168753E-009	0.0033653	7
	35	49	315.5048	6072.728	-8022.153	1	10061.46	-52.87447	1.260378E-009	0.0033006	6
	36	51	252.4038	6403.883	-9704.31	1	11626.84	-56.57915	1.838407E-009	0.0032972	6
	37	52	198.6229	6822.267	-11933.55	1	13746.02	-60.24392	9.568913E-010	0.0033043	6
	38	53	158.3615	7294.172	-14546.73	1	16273.05	-63.36942	5.517587E-010	0.0033072	6
	39	55	125.558	7884.425	-17850.31	1	19514.04	-66.16911	9.646501E-010	0.0033052	6
	40	56	100.4464	8579.282	-21772.7	1	23402.02	-68.49365	1.924013E-009	0.0033038	6
	41	57	79.00281	9511.91	-27000.56	1	28627.03	-70.59338	1.297834E-010	0.0032933	6
	42	59	63.3446	10982.83	-32921.73	1	34705.38	-71.55108	8.664391E-010	0.0032942	6
	43	60	49.86702	12058.26	-40838.48	1	42581.49	-73.54987	1.225234E-009	0.0032968	6
	44	62	39.72458	14329.9	-49924.35	1	51940.22	-73.98481	1.058026E-009	0.0032979	6
	45	63	31.6723	16990.61	-61077.38	1	63396.58	-74.45441	1.221102E-009	0.003296	6
	46	64	24.93351	20631.61	-75376.91	1	78149.48	-74.69235	6.466707E-010	0.0032938	6
	47	66	19.86229	25115.96	-91929.27	1	95298.5	-74.71916	6.297478E-010	0.003296	6
	48	67	15.83615	30398.96	-112217.1	1	116261.7	-74.84269	1.736258E-009	0.0032951	5
	49	68	12.40079	39136.32	-137723.5	1	143176.2	-74.13666	6.991606E-011	0.0032963	5
	50	70	9.93114	50550.94	-165007.4	1	172577.1	-72.96726	1.6097E-009	0.0033006	5
	51	71	7.944915	63442.36	-198987	1	208855.8	-72.31633	1.758973E-010	0.0033028	5
	52	73	6.317385	81879.02	-237969.6	1	251661.9	-71.01302	6.208341E-011	0.0033073	5
	53	75	5.008013	105471.2	-285031.6	1	303919.8	-69.69384	2.412004E-010	0.0033006	5
	54	78	3.945707	135338.6	-340061.7	1	366003.4	-68.29831	5.053231E-010	0.0033091	5
	55	80	3.158693	170995.6	-399210.4	1	434290.7	-66.81288	2.376479E-010	0.0033133	5
	56	84	2.504006	216307.3	-468951.4	1	516434.1	-65.23814	2.941703E-010	0.0032901	5
	57	86	1.998082	268673.2	-544397	1	607086	-63.73254	-2.810944E-011	0.0033161	5
	58	89	1.584686	335415.6	-630298.8	1	713988.9	-61.98018	2.038432E-010	0.0033522	5
	59	93	1.266892	407664.2	-723143.8	1	830136.8	-60.58836	-4.837439E-011	0.0032908	5
	60	97	0.999041	500016.1	-828868	1	968007	-58.89944	3.533146E-010	0.0033408	5
