EXPLAIN
TAG	EISPOT
TITLE	LABEL	Potentiostatic EIS	Test &Identifier
DATE	LABEL	10/12/2019	Date
TIME	LABEL	9:18:51	Time
NOTES	NOTES	1	&Notes...
	
PSTAT	PSTAT	REF600-11020	Potentiostat
VDC	POTEN	0.00000E+000	T	DC &Voltage (V)
FREQINIT	QUANT	1.00000E+006	Initial Fre&q. (Hz)
FREQFINAL	QUANT	1.00000E+000	Final Fre&q. (Hz)
PTSPERDEC	QUANT	1.00000E+001	Points/&decade
VAC	QUANT	2.50000E+001	AC &Voltage (mV rms)
AREA	QUANT	1.00000E-002	&Area (cm^2)
CONDIT	TWOPARAM	T	5.00000E+000	0.00000E+000	Conditionin&g	Time(s)	E(V)
DELAY	TWOPARAM	T	5.00000E+000	0.00000E+000	Init. De&lay	Time(s)	Stab.(mV/s)
SPEED	SELECTOR	1	&Optimize for:
ZGUESS	QUANT	1.00000E+004	E&stimated Z (ohms)
OCVCURVE	TABLE	19
	Pt	T	Vf	Vm	Ach	Over
	#	s	V vs. Ref.	V	V	bits
	0	0.258333	1.30976E-002	1.30976E-002	5.70532E-004	...........
	1	0.516667	1.31048E-002	1.34770E-002	5.67799E-004	...........
	2	0.775	1.31490E-002	1.38221E-002	5.63799E-004	...........
	3	1.03333	1.32735E-002	1.41640E-002	5.68032E-004	...........
	4	1.29167	1.34950E-002	1.44829E-002	5.66232E-004	...........
	5	1.55	1.37885E-002	1.47867E-002	5.62132E-004	...........
	6	1.80833	1.41131E-002	1.50885E-002	5.71766E-004	...........
	7	2.06667	1.44396E-002	1.53943E-002	5.67366E-004	...........
	8	2.325	1.47562E-002	1.56560E-002	5.70366E-004	...........
	9	2.58333	1.50593E-002	1.58596E-002	5.69199E-004	...........
	10	2.84167	1.53440E-002	1.61009E-002	5.68332E-004	...........
	11	3.1	1.56063E-002	1.63335E-002	5.74899E-004	...........
	12	3.35833	1.58502E-002	1.65540E-002	5.68766E-004	...........
	13	3.61667	1.60833E-002	1.67735E-002	5.67732E-004	...........
	14	3.875	1.63106E-002	1.69737E-002	5.70799E-004	...........
	15	4.13333	1.65321E-002	1.71645E-002	5.68532E-004	...........
	16	4.39167	1.67457E-002	1.73507E-002	5.65299E-004	...........
	17	4.65	1.69499E-002	1.75270E-002	5.64666E-004	...........
	18	4.90833	1.71445E-002	1.76987E-002	5.68699E-004	...........
EOC	QUANT	0.0171445	Open Circuit (V)
PSTATMODEL	IQUANT	4	Pstat Model
PSTATSECTION	LABEL	REF600-11020	Pstat Section
PSTATSERIALNO	LABEL	11020	Pstat Serial Number
CTRLMODE	IQUANT	1	Control Mode
IESTAB	IQUANT	0	I/E Stability
CASPEED	IQUANT	1	Control Amp Speed
CONVENTION	IQUANT	1	Current Convention
ICHRANGE	IQUANT	2	Ich Range
ICHRANGEMODE	TOGGLE	F	Ich Auto Range
ICHOFFSETENABLE	TOGGLE	T	Ich Offset Enable
ICHOFFSET	QUANT	0	Ich Offset (V)
ICHFILTER	IQUANT	3	Ich Filter
VCHRANGE	IQUANT	2	Vch Range
VCHRANGEMODE	TOGGLE	F	Vch Auto Range
VCHOFFSETENABLE	TOGGLE	T	Vch Offset Enable
VCHOFFSET	QUANT	0	Vch Offset (V)
VCHFILTER	IQUANT	3	Vch Filter
ACHRANGE	IQUANT	2	Ach Range
ACHOFFSETENABLE	TOGGLE	F	Ach Offset Enable
ACHOFFSET	QUANT	0	Ach Offset (V)
ACHFILTER	IQUANT	3	Ach Filter
IERANGELOWERLIMIT	IQUANT	1	I/E Range Lower Limit
IERANGEMODE	TOGGLE	F	I/E AutoRange
IERANGE	IQUANT	6	I/E Range
POSFEEDENABLE	TOGGLE	F	Positive Feedback IR Comp
POSFEEDRESISTANCE	QUANT	0	Positive Feedback Resistance (ohm)
ACHSELECT	IQUANT	0	Ach Select
CABLEID	IQUANT	14	Cable ID
DCCALDATE	LABEL	8/19/2019	DC Calibration Date
ACCALDATE	LABEL	8/19/2019	AC Calibration Date
THERMOSELECT	IQUANT	1	Thermo Select
FRAMEWORKVERSION	QUANT	6.33	Framework Version
INSTRUMENTVERSION	LABEL	3.50	Instrument Version
ZCURVE	TABLE
	Pt	Time	Freq	Zreal	Zimag	Zsig	Zmod	Zphz	Idc	Vdc	IERange
	#	s	Hz	ohm	ohm	V	ohm	°	A	V	#
	0	2	1000078	2110.892	-1178.181	1	2417.431	-29.16779	-4.282573E-007	0.0199921	8
	1	3	794390.6	2330.386	-1090.894	1	2573.081	-25.0851	1.130154E-006	0.019194	8
	2	5	630984.4	2515.803	-972.42	1	2697.196	-21.13274	5.622966E-006	0.0177591	8
	3	6	501234.4	2652.315	-857.064	1	2787.352	-17.90762	-3.014064E-006	0.0193953	8
	4	7	398109.4	2764.1	-764.5995	1	2867.902	-15.4624	5.515187E-006	0.0177382	8
	5	9	316265.6	2852.277	-645.1161	1	2924.322	-12.74449	1.720618E-007	0.0189249	8
	6	10	251203.1	2909.132	-565.4472	1	2963.576	-10.99941	3.042932E-006	0.0182775	8
	7	11	199546.9	2965.36	-491.8107	1	3005.867	-9.416898	1.589958E-006	0.0184507	8
	8	13	158578.1	2997.49	-430.0535	1	3028.183	-8.164578	-6.547131E-007	0.0191136	8
	9	14	125953.1	3045.69	-356.9769	1	3066.539	-6.684978	5.069587E-007	0.017788	7
	10	15	100078.1	3072.385	-326.027	1	3089.634	-6.05729	1.186544E-007	0.0186205	7
	11	17	79453.13	3098.535	-315.1249	1	3114.518	-5.807087	9.270715E-008	0.0187169	7
	12	18	63140.62	3125.787	-311.8401	1	3141.304	-5.697187	9.413392E-008	0.0187101	7
	13	19	50203.12	3154.855	-315.3984	1	3170.581	-5.709026	4.276751E-008	0.0186583	7
	14	21	39890.62	3183.964	-324.5429	1	3200.461	-5.820084	7.163712E-008	0.0186458	7
	15	22	31640.63	3216.455	-341.1861	1	3234.5	-6.055017	1.426679E-008	0.0187241	7
	16	23	25171.88	3250.219	-364.2013	1	3270.561	-6.393573	-1.69625E-008	0.0188322	7
	17	25	20015.62	3288.649	-397.4699	1	3312.581	-6.891407	-1.406208E-008	0.018788	7
	18	26	15890.62	3329.273	-431.7285	1	3357.149	-7.388685	-7.261693E-008	0.0188811	7
	19	27	12609.37	3374.317	-478.5195	1	3408.078	-8.071423	4.389112E-008	0.0186541	7
	20	29	10078.13	3422.002	-531.5283	1	3463.036	-8.829011	-5.636941E-008	0.0188545	7
	21	30	8015.625	3474.138	-600.0159	1	3525.571	-9.79885	-7.25185E-008	0.0189996	7
	22	31	6328.125	3536.881	-676.7042	1	3601.036	-10.83138	-7.204653E-008	0.0189967	7
	23	33	5015.625	3603.041	-769.0875	1	3684.21	-12.04925	8.0253E-009	0.0188684	7
	24	34	3984.375	3672.86	-876.5871	1	3776.018	-13.42344	4.263156E-008	0.0186584	7
	25	36	3170.956	3753.8	-1004.21	1	3885.801	-14.97696	1.509188E-008	0.0187145	7
	26	37	2527.573	3839.299	-1153.429	1	4008.817	-16.72169	1.374483E-008	0.018709	7
	27	38	1976.103	3941.16	-1349.189	1	4165.7	-18.89777	-1.202589E-008	0.018823	7
	28	40	1577.524	4041.668	-1559.422	1	4332.075	-21.09842	7.407806E-008	0.018632	7
	29	41	1265.625	4144.63	-1813.314	1	4523.944	-23.62982	9.365726E-008	0.0187064	7
	30	42	998.264	4262.649	-2141.738	1	4770.453	-26.67692	-6.980544E-008	0.0189962	7
	31	44	796.875	4385.362	-2522.105	1	5058.895	-29.90402	-3.158164E-008	0.018776	7
	32	45	627.7902	4517.785	-3019.769	1	5434.094	-33.75948	-7.21825E-008	0.018988	7
	33	46	505.5147	4650.918	-3580.243	1	5869.342	-37.58882	-6.827572E-008	0.0188656	7
	34	48	397.9953	4811.244	-4348.587	1	6485.235	-42.10848	6.226009E-009	0.0187899	7
	35	49	315.5048	4984.385	-5282.135	1	7262.578	-46.66123	4.897349E-009	0.0187931	7
	36	50	252.4038	5179.674	-6395.57	1	8229.966	-50.99652	6.011298E-009	0.0187948	7
	37	52	198.6229	5432.533	-7885.282	1	9575.49	-55.43526	5.341869E-009	0.0187904	7
	38	53	158.3615	5727.492	-9637.23	1	11210.73	-59.27661	6.253809E-010	0.0187234	6
	39	54	125.558	6109.994	-11853.87	1	13335.9	-62.73148	6.20497E-010	0.0187258	6
	40	56	100.4464	6580	-14478.65	1	15903.7	-65.55999	1.52576E-009	0.0187212	6
	41	57	79.00281	7187.031	-17957.31	1	19342.14	-68.18729	-5.717926E-011	0.0187217	6
	42	59	63.3446	7901.383	-22018.66	1	23393.44	-70.2595	-1.13971E-010	0.0187214	6
	43	60	49.86702	9034.234	-27016.52	1	28487.01	-71.51024	9.95908E-010	0.0187179	6
	44	61	39.72458	10397.25	-33227.06	1	34815.81	-72.62431	6.042555E-010	0.0187255	6
	45	63	31.6723	12041.52	-40621.94	1	42369.1	-73.48865	1.016532E-010	0.0187265	6
	46	64	24.93351	14487.29	-50100.36	1	52152.93	-73.87196	7.529869E-010	0.0187248	6
	47	65	19.86229	17523.8	-61119.63	1	63582.17	-74.00171	7.532973E-010	0.0187299	6
	48	67	15.83615	21503.08	-74259.15	1	77309.79	-73.85067	6.830755E-010	0.0187274	6
	49	68	12.40079	26725.25	-91769.37	1	95581.7	-73.76328	-5.090956E-010	0.0187285	6
	50	70	9.93114	33059.03	-109914.8	1	114778.8	-73.26031	3.251384E-010	0.0187311	5
	51	71	7.944915	41211.56	-132180.2	1	138455.8	-72.6834	3.603138E-010	0.0187361	5
	52	73	6.317385	51923.84	-159068.5	1	167328.7	-71.92206	6.127488E-011	0.0187483	5
	53	75	5.008013	65754.32	-191136.3	1	202130.5	-71.01586	2.273108E-010	0.0187346	5
	54	77	3.945707	83435.86	-229836.5	1	244512.5	-70.04795	6.38455E-011	0.0187288	5
	55	80	3.158693	104070.2	-271605.3	1	290860.9	-69.03482	1.508983E-010	0.0187482	5
	56	83	2.504006	130236.2	-322679.8	1	347970.9	-68.02059	-1.643784E-010	0.0187214	5
	57	86	1.998082	160931.9	-379175	1	411913.6	-67.00235	-1.434196E-010	0.0187089	5
	58	89	1.584686	200359.7	-445313.4	1	488311.4	-65.77561	1.968705E-011	0.0187779	5
	59	93	1.266892	243494.4	-519827.6	1	574029.9	-64.90096	-1.560557E-010	0.0187219	5
	60	97	0.999041	299524.9	-610097.9	1	679657.8	-63.85147	2.244999E-010	0.0187542	5
