EXPLAIN
TAG	EISPOT
TITLE	LABEL	Potentiostatic EIS	Test &Identifier
DATE	LABEL	10/14/2019	Date
TIME	LABEL	9:11:11	Time
NOTES	NOTES	1	&Notes...
	
PSTAT	PSTAT	REF600-11020	Potentiostat
VDC	POTEN	0.00000E+000	T	DC &Voltage (V)
FREQINIT	QUANT	1.00000E+006	Initial Fre&q. (Hz)
FREQFINAL	QUANT	1.00000E+000	Final Fre&q. (Hz)
PTSPERDEC	QUANT	1.00000E+001	Points/&decade
VAC	QUANT	2.50000E+001	AC &Voltage (mV rms)
AREA	QUANT	1.00000E-002	&Area (cm^2)
CONDIT	TWOPARAM	T	5.00000E+000	0.00000E+000	Conditionin&g	Time(s)	E(V)
DELAY	TWOPARAM	T	5.00000E+000	0.00000E+000	Init. De&lay	Time(s)	Stab.(mV/s)
SPEED	SELECTOR	1	&Optimize for:
ZGUESS	QUANT	1.00000E+004	E&stimated Z (ohms)
OCVCURVE	TABLE	19
	Pt	T	Vf	Vm	Ach	Over
	#	s	V vs. Ref.	V	V	bits
	0	0.258333	9.85300E-003	9.85300E-003	5.62513E-004	...........
	1	0.516667	9.85592E-003	1.00061E-002	5.64046E-004	...........
	2	0.775	9.87394E-003	1.01541E-002	5.56979E-004	...........
	3	1.03333	9.92523E-003	1.03041E-002	5.60746E-004	...........
	4	1.29167	1.00181E-002	1.04529E-002	5.62279E-004	...........
	5	1.55	1.01442E-002	1.06056E-002	5.58979E-004	...........
	6	1.80833	1.02880E-002	1.07332E-002	5.60613E-004	...........
	7	2.06667	1.04370E-002	1.08905E-002	5.57413E-004	...........
	8	2.325	1.05847E-002	1.10262E-002	5.63379E-004	...........
	9	2.58333	1.07299E-002	1.11649E-002	5.55246E-004	...........
	10	2.84167	1.08728E-002	1.12880E-002	5.65513E-004	...........
	11	3.1	1.10124E-002	1.14208E-002	5.69879E-004	...........
	12	3.35833	1.11479E-002	1.15439E-002	5.65013E-004	...........
	13	3.61667	1.12793E-002	1.16668E-002	5.59346E-004	...........
	14	3.875	1.14073E-002	1.17792E-002	5.67746E-004	...........
	15	4.13333	1.15319E-002	1.19016E-002	5.66546E-004	...........
	16	4.39167	1.16534E-002	1.20126E-002	5.58346E-004	...........
	17	4.65	1.17721E-002	1.21251E-002	5.63813E-004	...........
	18	4.90833	1.18886E-002	1.22351E-002	5.67946E-004	...........
EOC	QUANT	0.0118886	Open Circuit (V)
PSTATMODEL	IQUANT	4	Pstat Model
PSTATSECTION	LABEL	REF600-11020	Pstat Section
PSTATSERIALNO	LABEL	11020	Pstat Serial Number
CTRLMODE	IQUANT	1	Control Mode
IESTAB	IQUANT	0	I/E Stability
CASPEED	IQUANT	1	Control Amp Speed
CONVENTION	IQUANT	1	Current Convention
ICHRANGE	IQUANT	2	Ich Range
ICHRANGEMODE	TOGGLE	F	Ich Auto Range
ICHOFFSETENABLE	TOGGLE	T	Ich Offset Enable
ICHOFFSET	QUANT	0	Ich Offset (V)
ICHFILTER	IQUANT	3	Ich Filter
VCHRANGE	IQUANT	2	Vch Range
VCHRANGEMODE	TOGGLE	F	Vch Auto Range
VCHOFFSETENABLE	TOGGLE	T	Vch Offset Enable
VCHOFFSET	QUANT	0	Vch Offset (V)
VCHFILTER	IQUANT	3	Vch Filter
ACHRANGE	IQUANT	2	Ach Range
ACHOFFSETENABLE	TOGGLE	F	Ach Offset Enable
ACHOFFSET	QUANT	0	Ach Offset (V)
ACHFILTER	IQUANT	1	Ach Filter
IERANGELOWERLIMIT	IQUANT	1	I/E Range Lower Limit
IERANGEMODE	TOGGLE	F	I/E AutoRange
IERANGE	IQUANT	6	I/E Range
POSFEEDENABLE	TOGGLE	F	Positive Feedback IR Comp
POSFEEDRESISTANCE	QUANT	0	Positive Feedback Resistance (ohm)
ACHSELECT	IQUANT	0	Ach Select
CABLEID	IQUANT	14	Cable ID
DCCALDATE	LABEL	8/19/2019	DC Calibration Date
ACCALDATE	LABEL	8/19/2019	AC Calibration Date
THERMOSELECT	IQUANT	1	Thermo Select
FRAMEWORKVERSION	QUANT	6.33	Framework Version
INSTRUMENTVERSION	LABEL	3.50	Instrument Version
ZCURVE	TABLE
	Pt	Time	Freq	Zreal	Zimag	Zsig	Zmod	Zphz	Idc	Vdc	IERange
	#	s	Hz	ohm	ohm	V	ohm	°	A	V	#
	0	1	1000078	1309.563	-1663.078	1	2116.786	-51.78193	3.471301E-006	0.0134022	8
	1	2	794390.6	1426.239	-1960.991	1	2424.798	-53.97142	1.831195E-006	0.0133331	8
	2	3	630984.4	1537.211	-2312.062	1	2776.446	-56.38142	-1.3351E-006	0.0141254	8
	3	5	501234.4	1686.786	-2776.855	1	3249.026	-58.72364	-9.217179E-007	0.0139396	8
	4	6	398109.4	1849.984	-3339.215	1	3817.433	-61.01277	8.587878E-007	0.0134428	8
	5	8	316265.6	2089.674	-4045.153	1	4553.021	-62.67971	-8.18071E-007	0.0138884	8
	6	9	251203.1	2421.837	-4896.448	1	5462.646	-63.6825	-2.640013E-006	0.0141785	8
	7	11	199546.9	2812.041	-5869.207	1	6508.084	-64.40009	3.629004E-006	0.013012	8
	8	12	158578.1	3348.725	-7109.26	1	7858.469	-64.77783	-2.43605E-006	0.0140872	8
	9	14	125953.1	4228.261	-8483.101	1	9478.459	-63.5068	4.220464E-007	0.0124042	7
	10	16	100078.1	5233.305	-10098.83	1	11374.26	-62.6064	6.944567E-008	0.0134222	7
	11	17	79453.13	6540.714	-11896.97	1	13576.4	-61.19888	-7.440197E-008	0.0136959	7
	12	19	63140.62	8238.026	-13878	1	16138.9	-59.3065	6.487601E-008	0.0134632	7
	13	20	50203.12	10366.3	-15917.27	1	18995.25	-56.92536	5.455656E-009	0.0136685	7
	14	22	39890.62	13005.73	-17923.38	1	22144.9	-54.03426	-2.763087E-008	0.0135593	7
	15	23	31640.63	16106.91	-19875.98	1	25582.95	-50.97971	6.488936E-009	0.0135739	7
	16	25	25171.88	19579.66	-21551.9	1	29117.82	-47.7452	-8.903477E-009	0.013615	7
	17	27	20015.62	23383.01	-22470.73	1	32429.91	-43.86023	-5.385658E-009	0.0135882	7
	18	28	15890.62	27339.86	-24041.75	1	36407.05	-41.32731	7.076714E-008	0.0134007	7
	19	30	12609.37	31591.85	-24589.03	1	40033.3	-37.89486	-4.181865E-009	0.0134938	6
	20	31	10078.13	35396.28	-25200.86	1	43450.89	-35.44948	-6.106497E-009	0.0135601	6
	21	33	8015.625	38856.42	-26033.34	1	46771.32	-33.82162	-3.789881E-009	0.0134299	6
	22	34	6328.125	43068.15	-26278.08	1	50451.99	-31.3895	-8.186223E-009	0.0135736	6
	23	36	5015.625	46857.06	-26931.59	1	54045.3	-29.88859	1.492742E-008	0.0131998	6
	24	37	3984.375	50604.85	-27708.48	1	57694.11	-28.70273	1.48989E-008	0.0132848	6
	25	39	3170.956	54251.41	-28665.59	1	61359.03	-27.85126	8.182339E-009	0.0134756	6
	26	40	2527.573	58148.97	-29923.66	1	65396.7	-27.2305	3.971502E-008	0.0134998	7
	27	42	1976.103	62440.41	-31218.76	1	69809.85	-26.56399	1.553796E-008	0.0132817	6
	28	44	1577.524	67116.79	-32636.61	1	74631.17	-25.93208	1.451127E-008	0.0132019	6
	29	45	1265.625	70721.26	-34727.75	1	78787.77	-26.15339	-8.683365E-009	0.0135754	6
	30	47	998.264	75517.89	-37131.5	1	84152.84	-26.18295	-3.173277E-009	0.0134273	6
	31	48	796.875	80548.28	-39372.66	1	89656.19	-26.04976	-4.84043E-009	0.0135562	6
	32	50	627.7902	86611.06	-41532.73	1	96054.4	-25.61918	-7.936622E-010	0.013654	5
	33	51	505.5147	92046.71	-44249.37	1	102130.3	-25.67487	4.945024E-010	0.0134521	5
	34	52	397.9953	98405.7	-47362.85	1	109210.5	-25.7016	-4.882937E-010	0.013497	5
	35	54	315.5048	105001.9	-50580.59	1	116549.6	-25.72063	-7.228497E-010	0.0134949	5
	36	55	252.4038	111365.6	-54040.75	1	123784.9	-25.88523	5.285938E-010	0.0134929	5
	37	56	198.6229	118505.7	-58168.96	1	132012.3	-26.14428	1.029229E-011	0.0134963	5
	38	58	158.3615	125305.2	-62657	1	140097.4	-26.56667	-4.223084E-010	0.0134934	5
	39	59	125.558	132816.4	-68413.12	1	149400.6	-27.25279	5.132051E-011	0.0134978	5
	40	61	100.4464	140165.7	-75125.41	1	159029.1	-28.19023	6.571092E-011	0.0134977	5
	41	62	79.00281	149547.4	-82854.02	1	170965.5	-28.98785	-1.040637E-010	0.0134978	5
	42	64	63.3446	164509.5	-96970.7	1	190962.5	-30.51736	1.31052E-010	0.0134924	5
	43	65	49.86702	168450.5	-105553.2	1	198789	-32.07177	-6.468184E-012	0.0134923	5
	44	67	39.72458	180191.4	-117114.2	1	214906.2	-33.02158	2.939928E-010	0.0134975	5
	45	68	31.6723	191826.9	-134713.6	1	234404.2	-35.07907	-5.461092E-010	0.0134953	5
	46	70	24.93351	207809.9	-152037.1	1	257488.3	-36.18981	-2.46555E-010	0.0134901	5
	47	71	19.86229	224795	-172830.7	1	283554.6	-37.55442	1.596714E-010	0.0134952	5
	48	73	15.83615	238727.7	-195613.9	1	308635.3	-39.33125	1.277956E-010	0.0134864	5
	49	74	12.40079	269820	-230292.1	1	354735.5	-40.48084	-1.014448E-009	0.0134856	5
	50	76	9.93114	288476.2	-256732.1	1	386173.4	-41.66779	2.986222E-010	0.0134819	5
	51	77	7.944915	314718.1	-293159.1	1	430104.3	-42.9688	-6.246308E-010	0.0134853	5
	52	79	6.317385	349433.6	-338704.3	1	486646.1	-44.10673	4.055491E-011	0.0134725	5
	53	81	5.008013	390183.1	-389833.2	1	551554.9	-44.97429	-1.006544E-010	0.0134937	5
	54	83	3.945707	439217.1	-449756.6	1	628643.4	-45.67926	-3.368885E-010	0.0134824	5
	55	86	3.158693	493524.2	-510143.2	1	709797.3	-45.94863	1.651177E-010	0.0135005	6
	56	90	2.504006	559201	-580657.3	1	806144.3	-46.07838	-1.606735E-010	0.0134813	5
	57	93	1.998082	630171.9	-655076.3	1	908978.3	-46.11009	-3.944595E-010	0.0135012	5
	58	96	1.584686	722490.8	-737596.8	1	1032493	-45.59276	-2.931206E-011	0.013534	4
	59	100	1.266892	814127.8	-823768.8	1	1158188	-45.33725	-3.070547E-010	0.013513	4
	60	104	0.999041	923612.7	-924761.7	1	1306998	-45.03562	1.496898E-010	0.0134786	4
