EXPLAIN
TAG	EISPOT
TITLE	LABEL	Potentiostatic IDE	Test &Identifier
DATE	LABEL	9/4/2019	Date
TIME	LABEL	12:35:08	Time
NOTES	NOTES	1	&Notes...
	
PSTAT	PSTAT	REF600-11020	Potentiostat
VDC	POTEN	0.00000E+000	T	DC &Voltage (V)
FREQINIT	QUANT	1.00000E+006	Initial Fre&q. (Hz)
FREQFINAL	QUANT	1.00000E+000	Final Fre&q. (Hz)
PTSPERDEC	QUANT	1.00000E+001	Points/&decade
VAC	QUANT	2.50000E+001	AC &Voltage (mV rms)
AREA	QUANT	1.00000E-002	&Area (cm^2)
CONDIT	TWOPARAM	T	5.00000E+000	0.00000E+000	Conditionin&g	Time(s)	E(V)
DELAY	TWOPARAM	T	5.00000E+000	0.00000E+000	Init. De&lay	Time(s)	Stab.(mV/s)
SPEED	SELECTOR	1	&Optimize for:
ZGUESS	QUANT	1.00000E+007	E&stimated Z (ohms)
OCVCURVE	TABLE	19
	Pt	T	Vf	Vm	Ach	Over
	#	s	V vs. Ref.	V	V	bits
	0	0.258333	6.71918E-002	6.71918E-002	5.72299E-004	...........
	1	0.516667	6.72062E-002	6.79413E-002	5.76366E-004	...........
	2	0.775	6.73018E-002	6.90533E-002	5.71432E-004	...........
	3	1.03333	6.75924E-002	6.98462E-002	5.74299E-004	...........
	4	1.29167	6.81470E-002	7.10277E-002	5.72632E-004	...........
	5	1.55	6.89306E-002	7.18144E-002	5.74932E-004	...........
	6	1.80833	6.98416E-002	7.24541E-002	5.72799E-004	...........
	7	2.06667	7.07657E-002	7.31514E-002	5.72766E-004	...........
	8	2.325	7.16186E-002	7.36854E-002	5.75199E-004	...........
	9	2.58333	7.23721E-002	7.42778E-002	5.73132E-004	...........
	10	2.84167	7.30425E-002	7.49836E-002	5.75966E-004	...........
	11	3.1	7.36691E-002	7.56382E-002	5.74266E-004	...........
	12	3.35833	7.42916E-002	7.62841E-002	5.73799E-004	...........
	13	3.61667	7.49280E-002	7.68841E-002	5.72266E-004	...........
	14	3.875	7.55710E-002	7.74710E-002	5.75066E-004	...........
	15	4.13333	7.62048E-002	7.80342E-002	5.73866E-004	...........
	16	4.39167	7.68184E-002	7.85788E-002	5.71266E-004	...........
	17	4.65	7.74085E-002	7.91054E-002	5.68566E-004	...........
	18	4.90833	7.79759E-002	7.95988E-002	5.74532E-004	...........
EOC	QUANT	0.0779759	Open Circuit (V)
PSTATMODEL	IQUANT	4	Pstat Model
PSTATSECTION	LABEL	REF600-11020	Pstat Section
PSTATSERIALNO	LABEL	11020	Pstat Serial Number
CTRLMODE	IQUANT	1	Control Mode
IESTAB	IQUANT	0	I/E Stability
CASPEED	IQUANT	1	Control Amp Speed
CONVENTION	IQUANT	1	Current Convention
ICHRANGE	IQUANT	2	Ich Range
ICHRANGEMODE	TOGGLE	F	Ich Auto Range
ICHOFFSETENABLE	TOGGLE	T	Ich Offset Enable
ICHOFFSET	QUANT	0	Ich Offset (V)
ICHFILTER	IQUANT	3	Ich Filter
VCHRANGE	IQUANT	2	Vch Range
VCHRANGEMODE	TOGGLE	F	Vch Auto Range
VCHOFFSETENABLE	TOGGLE	T	Vch Offset Enable
VCHOFFSET	QUANT	0	Vch Offset (V)
VCHFILTER	IQUANT	3	Vch Filter
ACHRANGE	IQUANT	2	Ach Range
ACHOFFSETENABLE	TOGGLE	F	Ach Offset Enable
ACHOFFSET	QUANT	0	Ach Offset (V)
ACHFILTER	IQUANT	3	Ach Filter
IERANGELOWERLIMIT	IQUANT	1	I/E Range Lower Limit
IERANGEMODE	TOGGLE	F	I/E AutoRange
IERANGE	IQUANT	4	I/E Range
POSFEEDENABLE	TOGGLE	F	Positive Feedback IR Comp
POSFEEDRESISTANCE	QUANT	0	Positive Feedback Resistance (ohm)
ACHSELECT	IQUANT	0	Ach Select
CABLEID	IQUANT	14	Cable ID
DCCALDATE	LABEL	8/19/2019	DC Calibration Date
ACCALDATE	LABEL	8/19/2019	AC Calibration Date
THERMOSELECT	IQUANT	1	Thermo Select
FRAMEWORKVERSION	QUANT	6.33	Framework Version
INSTRUMENTVERSION	LABEL	3.50	Instrument Version
ZCURVE	TABLE
	Pt	Time	Freq	Zreal	Zimag	Zsig	Zmod	Zphz	Idc	Vdc	IERange
	#	s	Hz	ohm	ohm	V	ohm	°	A	V	#
	0	2	1000078	2309.664	-2158.396	1	3161.205	-43.06097	8.989073E-006	0.0795955	8
	1	4	794390.6	2778.82	-2155.444	1	3516.786	-37.79961	1.346776E-005	0.0782392	8
	2	5	630984.4	3182.414	-2061.231	1	3791.627	-32.9309	7.865822E-006	0.0792762	8
	3	7	501234.4	3551.405	-1913.086	1	4033.903	-28.31065	1.020628E-005	0.0789994	8
	4	8	398109.4	3830.203	-1682.43	1	4183.423	-23.71364	1.077944E-005	0.0787244	8
	5	10	316265.6	4042.68	-1506.59	1	4314.288	-20.43897	1.158965E-005	0.0785144	8
	6	12	251203.1	4278.195	-1383.678	1	4496.389	-17.92254	1.135297E-005	0.0786602	8
	7	13	199546.9	4423.247	-1283.157	1	4605.606	-16.17712	1.119795E-005	0.0787296	8
	8	15	158578.1	4527.178	-1191.632	1	4681.381	-14.74675	9.725933E-006	0.0791766	8
	9	16	125953.1	4650.173	-1087.812	1	4775.714	-13.1664	9.338892E-007	0.0786596	7
	10	18	100078.1	4727.84	-1040.562	1	4840.996	-12.41247	8.804364E-007	0.0792779	7
	11	19	79453.13	4811.396	-1034.161	1	4921.282	-12.13059	8.649343E-007	0.0793182	7
	12	20	63140.62	4896.631	-1054.536	1	5008.896	-12.15356	9.275756E-007	0.0791585	7
	13	22	50203.12	4981.178	-1104.825	1	5102.232	-12.50575	9.017689E-007	0.0791553	7
	14	23	39890.62	5067.456	-1188.398	1	5204.939	-13.19825	9.02705E-007	0.0791536	7
	15	24	31640.63	5173.293	-1301.175	1	5334.418	-14.11805	9.173805E-007	0.0791833	7
	16	26	25171.88	5284.23	-1452.656	1	5480.264	-15.37114	8.641294E-007	0.0793061	7
	17	27	20015.62	5406.261	-1638.596	1	5649.128	-16.86165	8.573239E-007	0.0792738	7
	18	28	15890.62	5553.452	-1870.032	1	5859.85	-18.61009	9.184462E-007	0.0791818	7
	19	30	12609.37	5713.146	-2150.387	1	6104.441	-20.62598	8.183701E-007	0.0793313	7
	20	31	10078.13	5900.771	-2473.181	1	6398.103	-22.73994	8.19224E-007	0.0793344	7
	21	33	8015.625	6107.5	-2867.975	1	6747.357	-25.15393	8.578891E-007	0.0792848	7
	22	34	6328.125	6369.952	-3354.212	1	7199.099	-27.76985	8.341724E-007	0.0792874	7
	23	35	5015.625	6663.726	-3917.305	1	7729.846	-30.44936	8.579478E-007	0.0792752	7
	24	37	3984.375	7003.82	-4583.694	1	8370.409	-33.203	8.480809E-007	0.0792825	7
	25	38	3170.956	7394.532	-5372.273	1	9140.045	-35.99915	8.675159E-007	0.079225	7
	26	39	2527.573	7844.942	-6294.036	1	10057.73	-38.74024	8.58577E-007	0.0792665	7
	27	41	1976.103	8413.208	-7465.898	1	11248.19	-41.58592	9.059221E-007	0.0791441	7
	28	42	1577.524	9019.327	-8749.018	1	12565.57	-44.12843	8.482663E-008	0.079265	6
	29	43	1265.625	9759.75	-10231.31	1	14139.75	-46.35127	8.579531E-008	0.0792499	6
	30	45	998.264	10690.28	-12113.86	1	16156.35	-48.57214	8.005742E-008	0.0792069	6
	31	46	796.875	11691.19	-14197.73	1	18391.83	-50.53007	8.323718E-008	0.0791738	6
	32	47	627.7902	12962.84	-16832.51	1	21245.44	-52.39986	8.347088E-008	0.0792609	6
	33	49	505.5147	14313.79	-19653.4	1	24313.38	-53.93373	8.510556E-008	0.0792423	6
	34	50	397.9953	16100.93	-23308.07	1	28328.54	-55.36375	8.527517E-008	0.078844	6
	35	51	315.5048	18143.21	-27500.98	1	32946.62	-56.58598	8.523248E-008	0.0788456	6
	36	53	252.4038	20456.07	-32241.59	1	38183.38	-57.60641	8.539864E-008	0.0788355	6
	37	54	198.6229	23407.18	-38241.62	1	44836.57	-58.52976	8.559496E-008	0.0788378	6
	38	55	158.3615	26706.17	-44949.53	1	52284.6	-59.2839	8.543081E-008	0.0788348	6
	39	57	125.558	30690.48	-52982.07	1	61229.12	-59.91793	8.554117E-008	0.0788374	6
	40	58	100.4464	35316.87	-61969.56	1	71326.77	-60.3209	8.565705E-008	0.0788402	6
	41	59	79.00281	40897.82	-73635.07	1	84230.37	-60.95167	8.529398E-008	0.0788336	6
	42	61	63.3446	46242.6	-85722.91	1	97400.2	-61.65568	8.519486E-008	0.0788318	6
	43	62	49.86702	55774.07	-101116.6	1	115478.7	-61.11968	8.556614E-008	0.0788252	6
	44	63	39.72458	63735.67	-118894	1	134900	-61.80551	8.787747E-009	0.0788402	5
	45	65	31.6723	74014.55	-138862.6	1	157356.2	-61.94213	8.808671E-009	0.0788405	5
	46	66	24.93351	86511.83	-164572.1	1	185925.5	-62.27012	8.597181E-009	0.0788366	5
	47	67	19.86229	100223.3	-192970.7	1	217445.2	-62.55397	8.745499E-009	0.078841	5
	48	69	15.83615	116525.5	-227999.4	1	256050.6	-62.92941	9.143093E-009	0.0788363	5
	49	70	12.40079	134699.2	-270453.7	1	302140.8	-63.52444	8.633855E-009	0.0788396	5
	50	72	9.93114	156178.7	-316068.1	1	352549.1	-63.70464	8.939074E-009	0.0788346	5
	51	73	7.944915	180803.3	-373176	1	414668.8	-64.14986	8.72028E-009	0.0788457	5
	52	75	6.317385	210484.9	-441012.8	1	488667.7	-64.48597	8.673004E-009	0.0788565	5
	53	77	5.008013	245903.7	-523711	1	578568.8	-64.84803	8.733521E-009	0.0788398	5
	54	80	3.945707	290326.4	-625685.6	1	689762.3	-65.10808	8.674226E-009	0.0788379	5
	55	82	3.158693	339550.2	-740945.2	1	815042.4	-65.37962	8.550025E-008	0.0788245	6
	56	86	2.504006	403807.6	-879473.8	1	967747	-65.33793	8.56233E-009	0.0791268	5
	57	89	1.998082	478902.8	-1040125	1	1145080	-65.27732	8.593624E-009	0.0791492	5
	58	92	1.584686	574987.9	-1232789	1	1360287	-64.99508	9.208891E-010	0.0790973	4
	59	96	1.266892	692906.6	-1454845	1	1611426	-64.53269	9.359711E-010	0.0791581	4
	60	100	0.999041	847552.4	-1721665	1	1918977	-63.78959	8.603026E-010	0.0790757	4
