EXPLAIN
TAG	EISPOT
TITLE	LABEL	Potentiostatic EIS	Test &Identifier
DATE	LABEL	11/20/2019	Date
TIME	LABEL	12:11:53	Time
NOTES	NOTES	4	&Notes...
	
	
	
	
PSTAT	PSTAT	REF600-11020	Potentiostat
VDC	POTEN	0.00000E+000	T	DC &Voltage (V)
FREQINIT	QUANT	1.00000E+006	Initial Fre&q. (Hz)
FREQFINAL	QUANT	1.00000E+000	Final Fre&q. (Hz)
PTSPERDEC	QUANT	1.00000E+001	Points/&decade
VAC	QUANT	2.50000E+001	AC &Voltage (mV rms)
AREA	QUANT	1.00000E-002	&Area (cm^2)
CONDIT	TWOPARAM	T	5.00000E+000	0.00000E+000	Conditionin&g	Time(s)	E(V)
DELAY	TWOPARAM	T	5.00000E+000	0.00000E+000	Init. De&lay	Time(s)	Stab.(mV/s)
SPEED	SELECTOR	1	&Optimize for:
ZGUESS	QUANT	1.00000E+005	E&stimated Z (ohms)
OCVCURVE	TABLE	19
	Pt	T	Vf	Vm	Ach	Over
	#	s	V vs. Ref.	V	V	bits
	0	0.258333	4.26448E-003	4.26448E-003	4.89300E-004	...........
	1	0.516667	4.26078E-003	4.07126E-003	4.86534E-004	...........
	2	0.775	4.23856E-003	3.91134E-003	4.82867E-004	...........
	3	1.03333	4.17756E-003	3.77816E-003	4.90634E-004	...........
	4	1.29167	4.07274E-003	3.63866E-003	4.82600E-004	...........
	5	1.55	3.93987E-003	3.53122E-003	4.86900E-004	...........
	6	1.80833	3.80027E-003	3.43326E-003	4.85134E-004	...........
	7	2.06667	3.66872E-003	3.34570E-003	4.94300E-004	...........
	8	2.325	3.55129E-003	3.25568E-003	4.90034E-004	...........
	9	2.58333	3.44744E-003	3.17713E-003	4.93667E-004	...........
	10	2.84167	3.35365E-003	3.09657E-003	4.93033E-004	...........
	11	3.1	3.26712E-003	3.04850E-003	4.91333E-004	...........
	12	3.35833	3.18718E-003	2.96603E-003	4.94300E-004	...........
	13	3.61667	3.11376E-003	2.92245E-003	4.91634E-004	...........
	14	3.875	3.04577E-003	2.84956E-003	4.95367E-004	...........
	15	4.13333	2.98171E-003	2.80183E-003	4.92367E-004	...........
	16	4.39167	2.92006E-003	2.72246E-003	4.89600E-004	...........
	17	4.65	2.85746E-003	2.58776E-003	4.91933E-004	...........
	18	4.90833	2.78859E-003	2.57719E-003	4.92967E-004	...........
EOC	QUANT	0.0027886	Open Circuit (V)
PSTATMODEL	IQUANT	4	Pstat Model
PSTATSECTION	LABEL	REF600-11020	Pstat Section
PSTATSERIALNO	LABEL	11020	Pstat Serial Number
CTRLMODE	IQUANT	1	Control Mode
IESTAB	IQUANT	0	I/E Stability
CASPEED	IQUANT	1	Control Amp Speed
CONVENTION	IQUANT	1	Current Convention
ICHRANGE	IQUANT	2	Ich Range
ICHRANGEMODE	TOGGLE	F	Ich Auto Range
ICHOFFSETENABLE	TOGGLE	T	Ich Offset Enable
ICHOFFSET	QUANT	0	Ich Offset (V)
ICHFILTER	IQUANT	3	Ich Filter
VCHRANGE	IQUANT	2	Vch Range
VCHRANGEMODE	TOGGLE	F	Vch Auto Range
VCHOFFSETENABLE	TOGGLE	T	Vch Offset Enable
VCHOFFSET	QUANT	0	Vch Offset (V)
VCHFILTER	IQUANT	3	Vch Filter
ACHRANGE	IQUANT	2	Ach Range
ACHOFFSETENABLE	TOGGLE	F	Ach Offset Enable
ACHOFFSET	QUANT	0	Ach Offset (V)
ACHFILTER	IQUANT	3	Ach Filter
IERANGELOWERLIMIT	IQUANT	1	I/E Range Lower Limit
IERANGEMODE	TOGGLE	F	I/E AutoRange
IERANGE	IQUANT	4	I/E Range
POSFEEDENABLE	TOGGLE	F	Positive Feedback IR Comp
POSFEEDRESISTANCE	QUANT	0	Positive Feedback Resistance (ohm)
ACHSELECT	IQUANT	0	Ach Select
CABLEID	IQUANT	14	Cable ID
DCCALDATE	LABEL	8/19/2019	DC Calibration Date
ACCALDATE	LABEL	8/19/2019	AC Calibration Date
THERMOSELECT	IQUANT	1	Thermo Select
FRAMEWORKVERSION	QUANT	6.33	Framework Version
INSTRUMENTVERSION	LABEL	3.50	Instrument Version
ZCURVE	TABLE
	Pt	Time	Freq	Zreal	Zimag	Zsig	Zmod	Zphz	Idc	Vdc	IERange
	#	s	Hz	ohm	ohm	V	ohm	°	A	V	#
	0	1	1000078	1822.022	-858.2546	1	2014.042	-25.22256	-6.338126E-006	0.0055645	8
	1	3	794390.6	1961.383	-801.5474	1	2118.844	-22.22808	-1.938073E-006	0.0053192	8
	2	4	630984.4	2079.456	-736.7383	1	2206.11	-19.50892	-2.262862E-006	0.004431	8
	3	6	501234.4	2183.296	-672.6214	1	2284.557	-17.12282	-1.871331E-006	0.0046134	8
	4	7	398109.4	2266.728	-618.8113	1	2349.677	-15.26954	-3.198234E-006	0.004897	8
	5	8	316265.6	2341.81	-573.4116	1	2410.99	-13.75864	3.904953E-006	0.0042792	8
	6	10	251203.1	2405.881	-528.3727	1	2463.217	-12.3865	5.063895E-006	0.0036904	8
	7	11	199546.9	2461.452	-504.9026	1	2512.702	-11.59194	5.129238E-006	0.0033375	8
	8	12	158578.1	2514.332	-481.9147	1	2560.099	-10.85013	-3.203736E-007	0.0047253	8
	9	14	125953.1	2579.476	-449.0724	1	2618.275	-9.8759	1.035915E-006	0.0053609	7
	10	15	100078.1	2622.695	-443.5164	1	2659.932	-9.59832	9.529335E-008	0.0050305	7
	11	16	79453.13	2671.84	-458.0595	1	2710.82	-9.7282	-8.757469E-007	0.0056263	7
	12	18	63140.62	2724.617	-479.5435	1	2766.496	-9.98205	-8.657486E-007	0.0047566	7
	13	19	50203.12	2780.909	-506.3324	1	2826.628	-10.31906	-4.763751E-007	0.0055695	7
	14	20	39890.62	2842.477	-539.1553	1	2893.158	-10.74016	8.676456E-007	0.003095	7
	15	22	31640.63	2907.186	-576.7737	1	2963.848	-11.22153	9.398705E-008	0.0050245	7
	16	23	25171.88	2975.247	-620.9335	1	3039.35	-11.78841	-4.747983E-007	0.0055716	7
	17	24	20015.62	3047.445	-671.5294	1	3120.557	-12.42699	-8.684129E-007	0.0047611	7
	18	26	15890.62	3124.509	-733.1395	1	3209.369	-13.20508	5.277743E-007	0.0043962	7
	19	27	12609.37	3204.849	-804.8329	1	3304.362	-14.09715	-4.786035E-007	0.0055667	7
	20	28	10078.13	3289.552	-890.0522	1	3407.836	-15.13998	5.278665E-007	0.0043971	7
	21	30	8015.625	3377.837	-991.999	1	3520.489	-16.36639	-2.047209E-007	0.0053582	7
	22	31	6328.125	3483.244	-1117.563	1	3658.133	-17.78831	-9.933158E-007	0.0054977	7
	23	33	5015.625	3598.909	-1265.804	1	3815.024	-19.37773	6.049551E-007	0.0028722	7
	24	34	3984.375	3723.031	-1438.462	1	3991.257	-21.12496	5.280274E-007	0.0043936	7
	25	35	3170.956	3856.168	-1634.948	1	4188.447	-22.97609	-8.761999E-007	0.0056179	7
	26	37	2527.573	4007.065	-1868.322	1	4421.222	-24.99761	-7.053578E-007	0.0056402	7
	27	38	1976.103	4182.629	-2166.898	1	4710.609	-27.38736	3.551851E-007	0.0046522	7
	28	39	1577.524	4353.456	-2493.725	1	5017.095	-29.80473	8.939961E-007	0.0033291	7
	29	41	1265.625	4530.192	-2870.207	1	5362.903	-32.35724	-9.981977E-007	0.0052028	7
	30	42	998.264	4731.269	-3368.726	1	5808.031	-35.45137	-8.654052E-007	0.0047482	7
	31	43	796.875	4937.869	-3959.618	1	6329.386	-38.72571	9.672175E-008	0.0050158	7
	32	45	627.7902	5181.01	-4739.645	1	7021.901	-42.45262	5.830402E-008	0.003211	7
	33	46	505.5147	5434.938	-5607.08	1	7808.835	-45.89315	-6.197101E-007	0.0041918	7
	34	47	397.9953	5775.927	-6794.292	1	8917.608	-49.63165	1.476264E-009	0.0043011	7
	35	49	315.5048	6191.176	-8215.001	1	10286.73	-52.99676	1.446653E-009	0.0042436	6
	36	50	252.4038	6692.532	-9879.79	1	11933.16	-55.88645	1.499494E-009	0.0042367	6
	37	51	198.6229	7381.222	-12049.94	1	14130.94	-58.51035	5.722763E-010	0.0042463	6
	38	53	158.3615	8228.525	-14530	1	16698.19	-60.47657	1.007172E-009	0.0042411	6
	39	54	125.558	9340.605	-17569.68	1	19898.26	-62.00346	2.230636E-010	0.0042394	6
	40	56	100.4464	10702.65	-21050.49	1	23615.03	-63.04996	1.543159E-009	0.0042318	6
	41	57	79.00281	12631.41	-25502.05	1	28458.87	-63.65034	8.137199E-010	0.004236	6
	42	58	63.3446	15077.23	-30039.32	1	33610.77	-63.34716	1.037085E-009	0.004234	6
	43	60	49.86702	17954.44	-36395	1	40582.73	-63.74187	1.041224E-009	0.0042369	6
	44	61	39.72458	21540.59	-42791.4	1	47907.21	-63.27996	2.174883E-010	0.0042448	6
	45	62	31.6723	26203.78	-50240.59	1	56663.52	-62.45499	1.041951E-009	0.0042415	6
	46	64	24.93351	31856.98	-59010.87	1	67060.79	-61.63764	3.382463E-010	0.0042371	6
	47	65	19.86229	38415.5	-68322.13	1	78381.52	-60.65225	1.898854E-009	0.004244	6
	48	66	15.83615	46773.83	-79203.75	1	91983.84	-59.43599	-1.931242E-009	0.0042416	6
	49	68	12.40079	55402.35	-91556.31	1	107013.9	-58.82112	5.719708E-010	0.0042444	5
	50	69	9.93114	65561.48	-103629.2	1	122626.7	-57.68032	6.852356E-011	0.0042465	5
	51	71	7.944915	76065.45	-117393.6	1	139882.9	-57.0587	2.604335E-010	0.0042434	5
	52	72	6.317385	87565.88	-133825.2	1	159928	-56.80207	5.603996E-010	0.004228	5
	53	75	5.008013	100281.1	-153449.3	1	183311.2	-56.83486	1.350874E-010	0.0042419	5
	54	77	3.945707	113908.7	-177381.2	1	210806.3	-57.29268	-3.051368E-011	0.0042326	5
	55	80	3.158693	127669.5	-204270.3	1	240885.6	-57.99451	4.899169E-011	0.004227	5
	56	83	2.504006	143312.9	-238605.1	1	278336.1	-59.0098	2.64839E-010	0.0042474	5
	57	86	1.998082	160271.7	-278957.5	1	321720.8	-60.12099	3.295985E-010	0.0042404	5
	58	89	1.584686	181671.4	-329631.8	1	376379.7	-61.13934	9.166018E-011	0.0041907	5
	59	92	1.266892	204236	-388660.2	1	439054.8	-62.27864	2.562935E-010	0.0042437	5
	60	97	0.999041	234535.8	-465311.5	1	521077.6	-63.25005	-8.43793E-011	0.0042118	5
