EXPLAIN
TAG	EISPOT
TITLE	LABEL	Potentiostatic IDE	Test &Identifier
DATE	LABEL	9/16/2019	Date
TIME	LABEL	7:58:01	Time
NOTES	NOTES	1	&Notes...
	
PSTAT	PSTAT	REF600-11020	Potentiostat
VDC	POTEN	0.00000E+000	T	DC &Voltage (V)
FREQINIT	QUANT	1.00000E+006	Initial Fre&q. (Hz)
FREQFINAL	QUANT	1.00000E+000	Final Fre&q. (Hz)
PTSPERDEC	QUANT	1.00000E+001	Points/&decade
VAC	QUANT	2.50000E+001	AC &Voltage (mV rms)
AREA	QUANT	1.00000E-002	&Area (cm^2)
CONDIT	TWOPARAM	T	5.00000E+000	0.00000E+000	Conditionin&g	Time(s)	E(V)
DELAY	TWOPARAM	T	5.00000E+000	0.00000E+000	Init. De&lay	Time(s)	Stab.(mV/s)
SPEED	SELECTOR	1	&Optimize for:
ZGUESS	QUANT	1.00000E+007	E&stimated Z (ohms)
OCVCURVE	TABLE	19
	Pt	T	Vf	Vm	Ach	Over
	#	s	V vs. Ref.	V	V	bits
	0	0.258333	1.35185E-002	1.35185E-002	5.64866E-004	...........
	1	0.516667	1.35313E-002	1.41894E-002	5.58032E-004	...........
	2	0.775	1.36101E-002	1.48278E-002	5.64599E-004	...........
	3	1.03333	1.38331E-002	1.54439E-002	5.65266E-004	...........
	4	1.29167	1.42326E-002	1.60363E-002	5.71866E-004	...........
	5	1.55	1.47654E-002	1.66000E-002	5.67599E-004	...........
	6	1.80833	1.53580E-002	1.71459E-002	5.62299E-004	...........
	7	2.06667	1.59559E-002	1.76674E-002	5.63266E-004	...........
	8	2.325	1.65338E-002	1.81780E-002	5.60532E-004	...........
	9	2.58333	1.70863E-002	1.86643E-002	5.65999E-004	...........
	10	2.84167	1.76154E-002	1.91399E-002	5.62832E-004	...........
	11	3.1	1.81244E-002	1.95904E-002	5.68266E-004	...........
	12	3.35833	1.86152E-002	2.00357E-002	5.60632E-004	...........
	13	3.61667	1.90892E-002	2.04734E-002	5.61932E-004	...........
	14	3.875	1.95480E-002	2.08773E-002	5.64699E-004	...........
	15	4.13333	1.99926E-002	2.12769E-002	5.64399E-004	...........
	16	4.39167	2.04223E-002	2.16637E-002	5.65266E-004	...........
	17	4.65	2.08369E-002	2.20406E-002	5.63066E-004	...........
	18	4.90833	2.12378E-002	2.24111E-002	5.57299E-004	...........
EOC	QUANT	0.0212378	Open Circuit (V)
PSTATMODEL	IQUANT	4	Pstat Model
PSTATSECTION	LABEL	REF600-11020	Pstat Section
PSTATSERIALNO	LABEL	11020	Pstat Serial Number
CTRLMODE	IQUANT	1	Control Mode
IESTAB	IQUANT	0	I/E Stability
CASPEED	IQUANT	1	Control Amp Speed
CONVENTION	IQUANT	1	Current Convention
ICHRANGE	IQUANT	2	Ich Range
ICHRANGEMODE	TOGGLE	F	Ich Auto Range
ICHOFFSETENABLE	TOGGLE	T	Ich Offset Enable
ICHOFFSET	QUANT	0	Ich Offset (V)
ICHFILTER	IQUANT	3	Ich Filter
VCHRANGE	IQUANT	2	Vch Range
VCHRANGEMODE	TOGGLE	F	Vch Auto Range
VCHOFFSETENABLE	TOGGLE	T	Vch Offset Enable
VCHOFFSET	QUANT	0	Vch Offset (V)
VCHFILTER	IQUANT	3	Vch Filter
ACHRANGE	IQUANT	2	Ach Range
ACHOFFSETENABLE	TOGGLE	F	Ach Offset Enable
ACHOFFSET	QUANT	0	Ach Offset (V)
ACHFILTER	IQUANT	3	Ach Filter
IERANGELOWERLIMIT	IQUANT	1	I/E Range Lower Limit
IERANGEMODE	TOGGLE	F	I/E AutoRange
IERANGE	IQUANT	3	I/E Range
POSFEEDENABLE	TOGGLE	F	Positive Feedback IR Comp
POSFEEDRESISTANCE	QUANT	0	Positive Feedback Resistance (ohm)
ACHSELECT	IQUANT	0	Ach Select
CABLEID	IQUANT	14	Cable ID
DCCALDATE	LABEL	8/19/2019	DC Calibration Date
ACCALDATE	LABEL	8/19/2019	AC Calibration Date
THERMOSELECT	IQUANT	1	Thermo Select
FRAMEWORKVERSION	QUANT	6.33	Framework Version
INSTRUMENTVERSION	LABEL	3.50	Instrument Version
ZCURVE	TABLE
	Pt	Time	Freq	Zreal	Zimag	Zsig	Zmod	Zphz	Idc	Vdc	IERange
	#	s	Hz	ohm	ohm	V	ohm	°	A	V	#
	0	2	1000078	2159.336	-1348.078	1	2545.594	-31.97662	4.824652E-006	0.0231313	8
	1	3	794390.6	2434.968	-1289.114	1	2755.156	-27.89752	7.434807E-007	0.022539	8
	2	5	630984.4	2647.638	-1176.039	1	2897.077	-23.95003	3.178237E-007	0.0229329	8
	3	6	501234.4	2840.287	-1073.926	1	3036.535	-20.71184	1.228521E-006	0.0226448	8
	4	7	398109.4	3011.045	-959.514	1	3160.231	-17.67525	-7.070414E-007	0.0232438	8
	5	9	316265.6	3109.33	-829.3972	1	3218.048	-14.93559	-2.752965E-006	0.0233001	8
	6	10	251203.1	3188.149	-718.6143	1	3268.134	-12.70229	2.172346E-007	0.0231146	8
	7	12	199546.9	3279.985	-637.2761	1	3341.32	-10.99515	-1.801534E-006	0.0232315	8
	8	13	158578.1	3337.022	-572.5568	1	3385.784	-9.73585	-3.713763E-006	0.0236952	8
	9	14	125953.1	3423.548	-480.8433	1	3457.151	-7.994994	-7.82181E-007	0.0254099	7
	10	16	100078.1	3454.213	-428.9923	1	3480.75	-7.079538	-1.678748E-008	0.0229148	7
	11	17	79453.13	3493.868	-406.6975	1	3517.459	-6.639533	7.413431E-008	0.0227162	7
	12	18	63140.62	3532.042	-391.5212	1	3553.675	-6.325323	7.47844E-008	0.0227179	7
	13	20	50203.12	3570.414	-383.8995	1	3590.994	-6.137002	-4.17487E-008	0.022898	7
	14	21	39890.62	3610.642	-379.6964	1	3630.552	-6.003179	-2.129433E-008	0.0228291	7
	15	22	31640.63	3645.363	-391.0806	1	3666.281	-6.123367	1.856425E-008	0.0227674	7
	16	24	25171.88	3683.873	-407.2468	1	3706.315	-6.308351	-6.204752E-009	0.022871	7
	17	25	20015.62	3723.376	-431.1433	1	3748.255	-6.605072	1.386602E-007	0.0226435	7
	18	26	15890.62	3766.084	-467.2722	1	3794.962	-7.072757	-4.64399E-008	0.0228761	7
	19	27	12609.37	3806.561	-507.5646	1	3840.251	-7.594986	-1.522159E-008	0.0229029	7
	20	29	10078.13	3850.646	-561.1552	1	3891.319	-8.291357	-4.528508E-008	0.022883	7
	21	30	8015.625	3897.472	-629.694	1	3948.013	-9.17767	7.857868E-008	0.0228082	7
	22	31	6328.125	3948.04	-719.4027	1	4013.049	-10.327	-7.409059E-008	0.0229643	7
	23	33	5015.625	4000.185	-829.2719	1	4085.238	-11.71199	7.586736E-008	0.0227093	7
	24	34	3984.375	4057.972	-961.761	1	4170.386	-13.33339	7.878806E-008	0.0228097	7
	25	35	3170.956	4119.565	-1128.2	1	4271.259	-15.31571	8.746269E-008	0.0226633	7
	26	37	2527.573	4188.849	-1328.7	1	4394.531	-17.59899	-4.559295E-008	0.0228689	7
	27	38	1976.103	4272.551	-1599.114	1	4562.001	-20.51968	-1.608112E-008	0.0228894	7
	28	39	1577.524	4362.384	-1901.96	1	4758.976	-23.55676	-4.876682E-008	0.0229945	7
	29	41	1265.625	4456.362	-2256.531	1	4995.106	-26.8559	-1.536382E-008	0.0228983	7
	30	42	998.264	4587.771	-2737.149	1	5342.25	-30.82108	-7.069462E-009	0.0227807	7
	31	43	796.875	4719.015	-3286.03	1	5750.399	-34.85096	-1.410428E-008	0.0228955	7
	32	45	627.7902	4884.089	-4005.88	1	6316.756	-39.35825	7.928779E-008	0.0227029	7
	33	46	505.5147	5054.896	-4807.885	1	6976.227	-43.56534	-5.016156E-008	0.0229459	7
	34	47	397.9953	5282.506	-5892.919	1	7913.999	-48.12645	4.699996E-009	0.0228674	7
	35	49	315.5048	5549.621	-7203.983	1	9093.716	-52.39098	5.839171E-009	0.0228658	7
	36	50	252.4038	5868.896	-8756.924	1	10541.71	-56.16998	9.988654E-011	0.0228047	6
	37	51	198.6229	6299.801	-10817.16	1	12517.92	-59.78392	-3.790586E-010	0.022803	6
	38	53	158.3615	6833.905	-13216.13	1	14878.45	-62.65705	-1.940956E-010	0.0227961	6
	39	54	125.558	7546.666	-16232.8	1	17901.28	-65.06618	-5.539468E-010	0.0228048	6
	40	55	100.4464	8457.515	-19782.71	1	21514.77	-66.85229	2.9278E-010	0.0228016	6
	41	57	79.00281	9737.94	-24357.46	1	26231.92	-68.20882	1.277068E-010	0.0227999	6
	42	58	63.3446	11656.63	-29496.9	1	31716.62	-68.43698	-6.406261E-010	0.0227996	6
	43	60	49.86702	13560.26	-36306.79	1	38756.46	-69.51979	-9.30119E-010	0.0227984	6
	44	61	39.72458	16649.14	-43738.65	1	46800.25	-69.16064	-6.658285E-010	0.0228073	6
	45	62	31.6723	20658.22	-52526.64	1	56442.98	-68.53077	-1.094703E-009	0.0228048	6
	46	64	24.93351	25917.4	-63463.43	1	68551.57	-67.78571	-4.802946E-010	0.0227992	6
	47	65	19.86229	32496.95	-75333.46	1	82043.78	-66.66586	-9.421314E-011	0.0228023	6
	48	66	15.83615	40141	-88974.25	1	97610	-65.71735	-9.421403E-011	0.0227982	6
	49	68	12.40079	52300.83	-105695.4	1	117927.5	-63.6726	-8.325353E-010	0.0228019	5
	50	69	9.93114	64548.85	-121319.2	1	137422.4	-61.98444	-5.4568E-010	0.0228086	5
	51	71	7.944915	79529.48	-139608.1	1	160671.6	-60.33147	-1.78827E-009	0.0228149	5
	52	72	6.317385	98260	-158740.7	1	186691.3	-58.24261	-1.307606E-009	0.022825	5
	53	74	5.008013	119590.8	-179755.4	1	215902.7	-56.36427	-6.72158E-010	0.0228219	5
	54	77	3.945707	144624.3	-203418.4	1	249590.1	-54.58833	-1.5981E-009	0.0228098	5
	55	79	3.158693	170776.4	-226278.8	1	283490.1	-52.95753	-1.286022E-009	0.0227993	5
	56	83	2.504006	200194.1	-252356.3	1	322120.2	-51.57505	-4.604225E-010	0.0228158	5
	57	85	1.998082	231996.8	-279884.1	1	363534.9	-50.34456	-5.290499E-010	0.0228355	5
	58	88	1.584686	265822.5	-310401.7	1	408669.5	-49.42383	-7.259346E-010	0.0227973	5
	59	92	1.266892	303110.2	-344054.8	1	458529.7	-48.62015	-1.024652E-009	0.0228483	5
	60	96	0.999041	343312.4	-384174.1	1	515221.4	-48.21483	-1.045625E-009	0.0227751	5
