EXPLAIN
TAG	EISPOT
TITLE	LABEL	Potentiostatic IDE	Test &Identifier
DATE	LABEL	9/12/2019	Date
TIME	LABEL	9:37:36	Time
NOTES	NOTES	1	&Notes...
	
PSTAT	PSTAT	REF600-11020	Potentiostat
VDC	POTEN	0.00000E+000	T	DC &Voltage (V)
FREQINIT	QUANT	1.00000E+006	Initial Fre&q. (Hz)
FREQFINAL	QUANT	1.00000E+000	Final Fre&q. (Hz)
PTSPERDEC	QUANT	1.00000E+001	Points/&decade
VAC	QUANT	2.50000E+001	AC &Voltage (mV rms)
AREA	QUANT	1.00000E-002	&Area (cm^2)
CONDIT	TWOPARAM	T	5.00000E+000	0.00000E+000	Conditionin&g	Time(s)	E(V)
DELAY	TWOPARAM	T	5.00000E+000	0.00000E+000	Init. De&lay	Time(s)	Stab.(mV/s)
SPEED	SELECTOR	1	&Optimize for:
ZGUESS	QUANT	1.00000E+007	E&stimated Z (ohms)
OCVCURVE	TABLE	19
	Pt	T	Vf	Vm	Ach	Over
	#	s	V vs. Ref.	V	V	bits
	0	0.258333	2.25809E-003	2.25809E-003	4.71234E-004	...........
	1	0.516667	2.25270E-003	1.97597E-003	4.78100E-004	...........
	2	0.775	2.21989E-003	1.72355E-003	4.76800E-004	...........
	3	1.03333	2.12825E-003	1.49304E-003	4.83600E-004	...........
	4	1.29167	1.96718E-003	1.27465E-003	4.75100E-004	...........
	5	1.55	1.75756E-003	1.06869E-003	4.76067E-004	...........
	6	1.80833	1.53054E-003	8.81535E-004	4.72100E-004	...........
	7	2.06667	1.30783E-003	7.02473E-004	4.75767E-004	...........
	8	2.325	1.09869E-003	5.33193E-004	4.76667E-004	...........
	9	2.58333	9.04361E-004	3.69678E-004	4.74167E-004	...........
	10	2.84167	7.22664E-004	2.14002E-004	4.82834E-004	...........
	11	3.1	5.50989E-004	6.68149E-005	4.66567E-004	...........
	12	3.35833	3.87596E-004	-7.61223E-005	4.72700E-004	...........
	13	3.61667	2.31555E-004	-2.13515E-004	4.77000E-004	...........
	14	3.875	8.22294E-005	-3.43032E-004	4.74067E-004	...........
	15	4.13333	-6.09176E-005	-4.72383E-004	4.64234E-004	...........
	16	4.39167	-1.98475E-004	-5.98149E-004	4.71100E-004	...........
	17	4.65	-3.31264E-004	-7.18112E-004	4.73967E-004	...........
	18	4.90833	-4.59928E-004	-8.31496E-004	4.70634E-004	...........
EOC	QUANT	-0.0004599	Open Circuit (V)
PSTATMODEL	IQUANT	4	Pstat Model
PSTATSECTION	LABEL	REF600-11020	Pstat Section
PSTATSERIALNO	LABEL	11020	Pstat Serial Number
CTRLMODE	IQUANT	1	Control Mode
IESTAB	IQUANT	0	I/E Stability
CASPEED	IQUANT	1	Control Amp Speed
CONVENTION	IQUANT	1	Current Convention
ICHRANGE	IQUANT	2	Ich Range
ICHRANGEMODE	TOGGLE	F	Ich Auto Range
ICHOFFSETENABLE	TOGGLE	T	Ich Offset Enable
ICHOFFSET	QUANT	0	Ich Offset (V)
ICHFILTER	IQUANT	3	Ich Filter
VCHRANGE	IQUANT	2	Vch Range
VCHRANGEMODE	TOGGLE	F	Vch Auto Range
VCHOFFSETENABLE	TOGGLE	T	Vch Offset Enable
VCHOFFSET	QUANT	0	Vch Offset (V)
VCHFILTER	IQUANT	3	Vch Filter
ACHRANGE	IQUANT	2	Ach Range
ACHOFFSETENABLE	TOGGLE	F	Ach Offset Enable
ACHOFFSET	QUANT	0	Ach Offset (V)
ACHFILTER	IQUANT	3	Ach Filter
IERANGELOWERLIMIT	IQUANT	1	I/E Range Lower Limit
IERANGEMODE	TOGGLE	F	I/E AutoRange
IERANGE	IQUANT	1	I/E Range
POSFEEDENABLE	TOGGLE	F	Positive Feedback IR Comp
POSFEEDRESISTANCE	QUANT	0	Positive Feedback Resistance (ohm)
ACHSELECT	IQUANT	0	Ach Select
CABLEID	IQUANT	14	Cable ID
DCCALDATE	LABEL	8/19/2019	DC Calibration Date
ACCALDATE	LABEL	8/19/2019	AC Calibration Date
THERMOSELECT	IQUANT	1	Thermo Select
FRAMEWORKVERSION	QUANT	6.33	Framework Version
INSTRUMENTVERSION	LABEL	3.50	Instrument Version
ZCURVE	TABLE
	Pt	Time	Freq	Zreal	Zimag	Zsig	Zmod	Zphz	Idc	Vdc	IERange
	#	s	Hz	ohm	ohm	V	ohm	°	A	V	#
	0	2	1000078	2497.759	-1549.339	1	2939.26	-31.81098	7.979397E-006	0.0002695	8
	1	4	794390.6	2802.471	-1449.876	1	3155.31	-27.35507	-2.005471E-006	0.0012703	8
	2	5	630984.4	3069.883	-1285.909	1	3328.324	-22.72778	-5.356658E-007	0.0015557	8
	3	7	501234.4	3257.458	-1139.5	1	3451.013	-19.28048	2.720117E-007	0.0010286	8
	4	8	398109.4	3400.648	-962.268	1	3534.172	-15.79972	2.190453E-006	0.0006937	8
	5	9	316265.6	3522.621	-849.6273	1	3623.635	-13.56028	1.603755E-006	0.0006697	8
	6	11	251203.1	3601.093	-706.144	1	3669.674	-11.09445	-9.587596E-007	0.0013676	8
	7	12	199546.9	3666.845	-617.9932	1	3718.557	-9.56647	2.003908E-006	0.0007139	8
	8	13	158578.1	3720.317	-547.5151	1	3760.39	-8.372061	1.912816E-006	0.0005488	8
	9	15	125953.1	3769.099	-422.0473	1	3792.655	-6.389117	2.840899E-007	0.0004388	7
	10	16	100078.1	3802.189	-380.614	1	3821.192	-5.716487	-2.208926E-009	0.0010184	7
	11	17	79453.13	3829.205	-354.5752	1	3845.586	-5.290366	4.692435E-008	0.0009283	7
	12	19	63140.62	3857.489	-338.2184	1	3872.288	-5.010787	8.628129E-008	0.0008909	7
	13	20	50203.12	3883.976	-330.6959	1	3898.029	-4.866635	1.369101E-007	0.0008726	7
	14	21	39890.62	3914.154	-329.2023	1	3927.973	-4.807582	-3.51884E-008	0.0010821	7
	15	23	31640.63	3941.235	-338.4744	1	3955.742	-4.908535	-7.222098E-009	0.0011086	7
	16	24	25171.88	3970.395	-354.5834	1	3986.197	-5.103366	-4.481316E-008	0.0011265	7
	17	25	20015.62	4000.819	-377.7742	1	4018.615	-5.394115	-1.314631E-008	0.0011241	7
	18	27	15890.62	4034.359	-410.6621	1	4055.206	-5.812185	3.35538E-008	0.0010346	7
	19	28	12609.37	4068.935	-454.5403	1	4094.244	-6.37408	-4.282536E-008	0.0010957	7
	20	29	10078.13	4103.131	-507.1408	1	4134.354	-7.045937	-4.353642E-008	0.001208	7
	21	31	8015.625	4143.424	-575.6274	1	4183.217	-7.909223	8.100713E-008	0.0009244	7
	22	32	6328.125	4185.997	-663.8262	1	4238.306	-9.011074	-5.439571E-008	0.00118	7
	23	34	5015.625	4233.461	-771.3126	1	4303.152	-10.32571	8.157753E-008	0.0009229	7
	24	35	3984.375	4285.208	-902.4727	1	4379.208	-11.8928	-3.26443E-008	0.0010755	7
	25	36	3170.956	4341.787	-1062.511	1	4469.904	-13.75103	-4.509131E-008	0.0011246	7
	26	38	2527.573	4406.127	-1256.213	1	4581.706	-15.91316	8.574994E-008	0.0008845	7
	27	39	1976.103	4487.733	-1515.402	1	4736.686	-18.65862	8.732518E-008	0.0008857	7
	28	40	1577.524	4571.907	-1803.805	1	4914.88	-21.53127	5.08827E-008	0.0009096	7
	29	42	1265.625	4666.334	-2147.861	1	5136.923	-24.71608	8.781743E-008	0.0008862	7
	30	43	998.264	4786.983	-2596.208	1	5445.687	-28.47308	1.039285E-009	0.0010089	7
	31	44	796.875	4917.659	-3117.162	1	5822.376	-32.36943	8.83003E-008	0.0008873	7
	32	46	627.7902	5075.038	-3793.515	1	6336.147	-36.77756	-2.288585E-008	0.0010518	7
	33	47	505.5147	5237.411	-4542.155	1	6932.651	-40.93353	1.38071E-007	0.0008528	7
	34	48	397.9953	5447.87	-5557.298	1	7782.214	-45.56969	4.712304E-009	0.0010741	7
	35	49	315.5048	5683.965	-6778.848	1	8846.481	-50.02066	5.031248E-009	0.0010761	7
	36	51	252.4038	5956.205	-8224.351	1	10154.62	-54.08735	1.778409E-009	0.0010138	6
	37	52	198.6229	6306.667	-10146.84	1	11947.07	-58.13741	1.297517E-009	0.0010155	6
	38	53	158.3615	6715.642	-12395.69	1	14097.98	-61.5524	1.830948E-009	0.0010155	6
	39	55	125.558	7238.153	-15236.81	1	16868.65	-64.59023	1.098702E-009	0.0010249	6
	40	56	100.4464	7872.375	-18587.66	1	20186.02	-67.04604	2.117791E-009	0.0010139	6
	41	57	79.00281	8751.183	-23023.29	1	24630.37	-69.18814	2.647174E-010	0.00101	6
	42	59	63.3446	10052.14	-27934.52	1	29688.1	-70.20892	9.95204E-010	0.0010076	6
	43	60	49.86702	11329.27	-34897.31	1	36690.25	-72.01419	1.723735E-009	0.0010132	6
	44	62	39.72458	13313.23	-42409.36	1	44449.92	-72.57178	9.562532E-010	0.0010185	6
	45	63	31.6723	15839.79	-51860.53	1	54225.58	-73.01572	7.986168E-010	0.0010191	6
	46	64	24.93351	19320.72	-63699.46	1	66565.09	-73.12689	9.286328E-010	0.0010104	6
	47	66	19.86229	23709.31	-77350.56	1	80902.66	-72.95878	7.389402E-010	0.0010138	6
	48	67	15.83615	30254.1	-93657.09	1	98422.4	-72.09796	-6.292433E-010	0.00101	6
	49	68	12.40079	38118.37	-114623.1	1	120795.1	-71.60524	5.768113E-010	0.0010163	5
	50	70	9.93114	47289.48	-136832.9	1	144774.1	-70.93484	5.890619E-010	0.0010114	5
	51	71	7.944915	60164.34	-162656.3	1	173426.7	-69.70126	4.341054E-010	0.0010123	5
	52	73	6.317385	76295.89	-193603.3	1	208094.4	-68.49141	5.617117E-010	0.0010043	5
	53	75	5.008013	97108	-229872.2	1	249542	-67.09869	1.192513E-010	0.001008	5
	54	77	3.945707	123945.8	-271404	1	298366.8	-65.45459	7.177169E-010	0.0010191	5
	55	80	3.158693	155144.6	-315760.3	1	351815.9	-63.83342	8.926979E-011	0.0010093	5
	56	83	2.504006	193853.2	-365652.9	1	413861.2	-62.06943	8.665572E-010	0.0010141	5
	57	86	1.998082	238823.5	-418940.2	1	482231.8	-60.31401	4.376017E-010	0.001049	5
	58	89	1.584686	290559.2	-476601.3	1	558187.6	-58.6315	4.135677E-010	0.0009944	5
	59	93	1.266892	349961	-539151.5	1	642772.9	-57.01256	3.180541E-010	0.0010547	5
	60	97	0.999041	417331.9	-608784.6	1	738095.3	-55.56872	2.183272E-010	0.0009788	5
