EXPLAIN
TAG	EISPOT
TITLE	LABEL	Potentiostatic EIS	Test &Identifier
DATE	LABEL	9/24/2019	Date
TIME	LABEL	10:07:06	Time
NOTES	NOTES	1	&Notes...
	
PSTAT	PSTAT	REF600-11020	Potentiostat
VDC	POTEN	0.00000E+000	T	DC &Voltage (V)
FREQINIT	QUANT	1.00000E+006	Initial Fre&q. (Hz)
FREQFINAL	QUANT	1.00000E+000	Final Fre&q. (Hz)
PTSPERDEC	QUANT	1.00000E+001	Points/&decade
VAC	QUANT	2.50000E+001	AC &Voltage (mV rms)
AREA	QUANT	1.00000E-002	&Area (cm^2)
CONDIT	TWOPARAM	T	5.00000E+000	0.00000E+000	Conditionin&g	Time(s)	E(V)
DELAY	TWOPARAM	T	5.00000E+000	0.00000E+000	Init. De&lay	Time(s)	Stab.(mV/s)
SPEED	SELECTOR	1	&Optimize for:
ZGUESS	QUANT	1.00000E+004	E&stimated Z (ohms)
OCVCURVE	TABLE	19
	Pt	T	Vf	Vm	Ach	Over
	#	s	V vs. Ref.	V	V	bits
	0	0.258333	-2.24555E-003	-2.24555E-003	5.51466E-004	...........
	1	0.516667	-2.21335E-003	-5.59931E-004	5.50899E-004	...........
	2	0.775	-2.02396E-003	6.00828E-004	5.47766E-004	...........
	3	1.03333	-1.52839E-003	1.06333E-003	5.47866E-004	...........
	4	1.29167	-8.11435E-004	-1.71987E-003	5.52632E-004	...........
	5	1.55	-3.31824E-004	-4.10696E-003	5.47133E-004	...........
	6	1.80833	-5.25594E-004	-8.05311E-004	5.50566E-004	...........
	7	2.06667	-1.18963E-003	-1.36090E-003	5.47633E-004	...........
	8	2.325	-1.68784E-003	-1.50532E-003	5.50866E-004	...........
	9	2.58333	-1.77092E-003	-2.02857E-003	5.46799E-004	...........
	10	2.84167	-1.68807E-003	-1.72237E-003	5.45933E-004	...........
	11	3.1	-1.66088E-003	-1.40064E-003	5.55333E-004	...........
	12	3.35833	-1.66778E-003	-1.31631E-003	5.50266E-004	...........
	13	3.61667	-1.61598E-003	-1.08057E-003	5.51299E-004	...........
	14	3.875	-1.43923E-003	1.50229E-003	5.52466E-004	...........
	15	4.13333	-1.03148E-003	1.27557E-003	5.49066E-004	...........
	16	4.39167	-4.68750E-004	-4.78171E-003	5.46366E-004	...........
	17	4.65	-3.02884E-004	-3.83606E-003	5.46966E-004	...........
	18	4.90833	-9.91106E-004	-3.65744E-003	5.50199E-004	...........
EOC	QUANT	-0.0009911	Open Circuit (V)
PSTATMODEL	IQUANT	4	Pstat Model
PSTATSECTION	LABEL	REF600-11020	Pstat Section
PSTATSERIALNO	LABEL	11020	Pstat Serial Number
CTRLMODE	IQUANT	1	Control Mode
IESTAB	IQUANT	0	I/E Stability
CASPEED	IQUANT	1	Control Amp Speed
CONVENTION	IQUANT	1	Current Convention
ICHRANGE	IQUANT	2	Ich Range
ICHRANGEMODE	TOGGLE	F	Ich Auto Range
ICHOFFSETENABLE	TOGGLE	T	Ich Offset Enable
ICHOFFSET	QUANT	0	Ich Offset (V)
ICHFILTER	IQUANT	3	Ich Filter
VCHRANGE	IQUANT	2	Vch Range
VCHRANGEMODE	TOGGLE	F	Vch Auto Range
VCHOFFSETENABLE	TOGGLE	T	Vch Offset Enable
VCHOFFSET	QUANT	0	Vch Offset (V)
VCHFILTER	IQUANT	3	Vch Filter
ACHRANGE	IQUANT	2	Ach Range
ACHOFFSETENABLE	TOGGLE	F	Ach Offset Enable
ACHOFFSET	QUANT	0	Ach Offset (V)
ACHFILTER	IQUANT	3	Ach Filter
IERANGELOWERLIMIT	IQUANT	1	I/E Range Lower Limit
IERANGEMODE	TOGGLE	F	I/E AutoRange
IERANGE	IQUANT	5	I/E Range
POSFEEDENABLE	TOGGLE	F	Positive Feedback IR Comp
POSFEEDRESISTANCE	QUANT	0	Positive Feedback Resistance (ohm)
ACHSELECT	IQUANT	0	Ach Select
CABLEID	IQUANT	14	Cable ID
DCCALDATE	LABEL	8/19/2019	DC Calibration Date
ACCALDATE	LABEL	8/19/2019	AC Calibration Date
THERMOSELECT	IQUANT	1	Thermo Select
FRAMEWORKVERSION	QUANT	6.33	Framework Version
INSTRUMENTVERSION	LABEL	3.50	Instrument Version
ZCURVE	TABLE
	Pt	Time	Freq	Zreal	Zimag	Zsig	Zmod	Zphz	Idc	Vdc	IERange
	#	s	Hz	ohm	ohm	V	ohm	°	A	V	#
	0	2	1000078	801.3185	-7210.569	1	7254.958	-83.65868	2.08042E-006	0.0012476	8
	1	4	794390.6	926.7661	-8964.706	1	9012.483	-84.09776	-1.091057E-007	0.000818	8
	2	5	630984.4	1055.758	-11159.42	1	11209.25	-84.59551	-2.231198E-007	0.0006627	8
	3	7	501234.4	1488.397	-13672.35	1	13753.13	-83.78714	1.868552E-006	0.0001986	8
	4	9	398109.4	1442.829	-17299.09	1	17359.16	-85.23228	3.325817E-007	0.0005224	8
	5	10	316265.6	1673.49	-21291.99	1	21357.65	-85.50595	-1.190276E-006	0.0008449	8
	6	12	251203.1	2269.865	-26437.83	1	26535.09	-85.09281	2.751143E-007	0.0006152	8
	7	13	199546.9	1707.598	-33356.54	1	33400.21	-87.06946	7.526334E-008	0.0005939	8
	8	15	158578.1	2196.031	-41256.75	1	41315.15	-86.95311	1.666897E-006	0.0001344	8
	9	17	125953.1	4241.942	-51931.88	1	52104.83	-85.33028	1.396103E-006	-0.002611	7
	10	19	100078.1	4594.605	-65025.26	1	65187.38	-85.95827	4.834421E-008	0.0003863	7
	11	20	79453.13	5604.026	-81381.05	1	81573.78	-86.06075	-7.059985E-008	0.0006047	7
	12	22	63140.62	7098.23	-101487.7	1	101735.7	-85.99915	-4.289178E-008	0.0005817	7
	13	24	50203.12	8124.551	-126114.5	1	126375.9	-86.31398	-3.232308E-008	0.0005073	7
	14	25	39890.62	10610.68	-157981.5	1	158337.4	-86.15755	2.028417E-008	0.0004416	7
	15	27	31640.63	11704.28	-198085.9	1	198431.4	-86.6185	1.428898E-007	0.0003291	7
	16	28	25171.88	14499.36	-247339.7	1	247764.4	-86.64509	-3.968802E-008	0.0005438	7
	17	30	20015.62	19044.72	-309022.1	1	309608.4	-86.47338	1.014903E-007	0.0003178	7
	18	31	15890.62	24628.87	-383957	1	384746.1	-86.3298	-4.496336E-008	0.0006023	7
	19	33	12609.37	37760.49	-480166	1	481648.4	-85.50349	2.416417E-008	0.0001436	6
	20	35	10078.13	41597	-597906.9	1	599352.2	-86.02029	4.554143E-009	0.0002263	6
	21	36	8015.625	51472.53	-754093.1	1	755847.8	-86.09519	-1.033856E-008	0.0006476	6
	22	38	6328.125	61636.43	-939955.4	1	941974.1	-86.24827	-5.50809E-009	0.0004619	6
	23	40	5015.625	84223.94	-1159591	1	1162646	-85.84576	5.307372E-009	0.000564	6
	24	41	3984.375	119893.9	-1438061	1	1443051	-85.23417	-5.815254E-009	0.0006791	6
	25	43	3170.956	218321.3	-1781365	1	1794694	-83.01276	-5.632574E-009	0.0003716	6
	26	45	2527.573	204494.1	-2298561	1	2307639	-84.916	-5.26398E-009	0.0003703	6
	27	46	1976.103	95585	-2861366	1	2862962	-88.08672	2.76662E-010	0.0005928	6
	28	48	1577.524	479874.9	-3322524	1	3356999	-81.78156	2.197329E-008	7.788819E-005	6
	29	50	1265.625	431099.8	-4384029	1	4405174	-84.38393	-1.306768E-009	0.0006562	5
	30	52	998.264	782281.7	-5419478	1	5475647	-81.7863	-2.710524E-011	0.0006878	5
	31	53	796.875	845971.4	-6089595	1	6148075	-82.09104	9.971583E-009	0.0002372	6
	32	56	627.7902	1747397	-8361543	1	8542177	-78.1962	1.019062E-009	0.0002526	5
	33	57	505.5147	2607189	-9.988853E+006	1	1.03235E+007	-75.3716	2.530891E-009	0.0001145	5
	34	59	397.9953	3994295	-1.436147E+007	1	1.490659E+007	-74.45738	7.437381E-011	0.0004886	5
	35	60	315.5048	5785822	-1.764085E+007	1	1.856543E+007	-71.84161	-1.003151E-010	0.000488	5
	36	62	252.4038	5696005	-1.933329E+007	1	2.015491E+007	-73.58389	-6.042671E-010	0.0004872	5
	37	63	198.6229	1.135924E+007	-2.244128E+007	1	2.51524E+007	-63.15256	-1.128015E-010	0.0004872	5
	38	65	158.3615	1.196024E+007	-3.759398E+007	1	3.945066E+007	-72.35193	1.628862E-010	0.0004824	5
	39	66	125.558	1.565417E+007	-1.977745E+007	1	2.522302E+007	-51.63781	2.308387E-011	0.0004893	4
	40	68	100.4464	1.690209E+007	-3.211998E+007	1	3.629564E+007	-62.24587	1.183255E-010	0.0004823	4
	41	70	79.00281	1.919288E+007	-2025696	1	1.929948E+007	-6.024928	3.668605E-010	0.0004821	4
	42	71	63.3446	-2897189	4510598	1	5360895	122.7129	4.969262E-010	0.0004812	4
	43	73	49.86702	2.835479E+007	3.434853E+007	1	4.454004E+007	50.46025	1.448302E-011	0.0004795	4
	44	75	39.72458	1.966341E+007	-2.420123E+007	1	3.118251E+007	-50.90626	7.236998E-011	0.0004832	4
	45	76	31.6723	-1.626674E+007	-2.891799E+007	1	3.317916E+007	-119.3583	5.411375E-010	0.0004798	4
	46	78	24.93351	4.797358E+007	-3.113852E+007	1	5.719328E+007	-32.98665	7.050825E-011	0.0004779	4
	47	80	19.86229	4.941295E+007	3.216206E+007	1	5.895793E+007	33.05943	-8.727272E-011	0.0004823	4
	48	81	15.83615	9.653203E+006	1.875693E+007	1	2.109518E+007	62.76751	8.295148E-010	0.0004852	5
	49	83	12.40079	91635.05	-1.829729E+007	1	1.829752E+007	-89.71306	1.033676E-009	0.0004756	4
	50	85	9.93114	3.307963E+007	-2714551	1	3.319082E+007	-4.691243	3.466214E-010	0.0004786	4
	51	86	7.944915	2.290712E+007	9.998903E+006	1	2.499429E+007	23.58115	-3.829373E-010	0.0004837	4
	52	88	6.317385	5.898586E+007	-7390119	1	5.944699E+007	-7.141166	1.277429E-010	0.0004969	4
	53	91	5.008013	6.463304E+007	-682894.4	1	6.463665E+007	-0.6053484	1.215003E-010	0.0004759	5
	54	94	3.945707	5.84807E+007	2009973	1	5.851524E+007	1.968472	1.72414E-010	0.0004787	5
	55	98	3.158693	6.522568E+007	-2506316	1	6.527381E+007	-2.200525	1.040959E-010	0.0004778	4
	56	102	2.504006	2.035848E+008	-1.143037E+007	1	2.039054E+008	-3.213526	7.497197E-011	0.0004679	3
	57	106	1.998082	2.044504E+008	-9.738894E+006	1	2.046823E+008	-2.727194	7.562953E-011	0.0005139	3
	58	110	1.584686	2.038625E+008	-1.339603E+007	1	2.043021E+008	-3.759563	8.024172E-011	0.0004595	3
	59	116	1.266892	2.130503E+009	-4.94571E+008	1	2.187154E+009	-13.06906	3.370305E-012	0.0005136	2
	60	122	0.999041	2.126772E+009	-3.777157E+008	1	2.160053E+009	-10.07075	2.972073E-012	0.000433	2
