EXPLAIN
TAG	EISPOT
TITLE	LABEL	Potentiostatic IDE	Test &Identifier
DATE	LABEL	9/18/2019	Date
TIME	LABEL	9:44:50	Time
NOTES	NOTES	1	&Notes...
	
PSTAT	PSTAT	REF600-11020	Potentiostat
VDC	POTEN	0.00000E+000	T	DC &Voltage (V)
FREQINIT	QUANT	1.00000E+006	Initial Fre&q. (Hz)
FREQFINAL	QUANT	1.00000E+000	Final Fre&q. (Hz)
PTSPERDEC	QUANT	1.00000E+001	Points/&decade
VAC	QUANT	2.50000E+001	AC &Voltage (mV rms)
AREA	QUANT	1.00000E-002	&Area (cm^2)
CONDIT	TWOPARAM	T	5.00000E+000	0.00000E+000	Conditionin&g	Time(s)	E(V)
DELAY	TWOPARAM	T	5.00000E+000	0.00000E+000	Init. De&lay	Time(s)	Stab.(mV/s)
SPEED	SELECTOR	1	&Optimize for:
ZGUESS	QUANT	1.00000E+007	E&stimated Z (ohms)
OCVCURVE	TABLE	19
	Pt	T	Vf	Vm	Ach	Over
	#	s	V vs. Ref.	V	V	bits
	0	0.258333	-1.37065E-005	-1.37065E-005	5.64632E-004	...........
	1	0.516667	-2.44351E-005	-5.75305E-004	5.68266E-004	...........
	2	0.775	-8.83204E-005	-1.00322E-003	5.59199E-004	...........
	3	1.03333	-2.63388E-004	-1.46477E-003	5.66732E-004	...........
	4	1.29167	-5.67741E-004	-1.89349E-003	5.61766E-004	...........
	5	1.55	-9.64054E-004	-2.29083E-003	5.71432E-004	...........
	6	1.80833	-1.39646E-003	-2.61051E-003	5.64999E-004	...........
	7	2.06667	-1.82204E-003	-2.98965E-003	5.64199E-004	...........
	8	2.325	-2.22191E-003	-3.36579E-003	5.64432E-004	...........
	9	2.58333	-2.59869E-003	-3.67215E-003	5.70899E-004	...........
	10	2.84167	-2.96040E-003	-3.99472E-003	5.65866E-004	...........
	11	3.1	-3.30947E-003	-4.34282E-003	5.67199E-004	...........
	12	3.35833	-3.64766E-003	-4.66246E-003	5.62332E-004	...........
	13	3.61667	-3.97895E-003	-4.94749E-003	5.66566E-004	...........
	14	3.875	-4.30331E-003	-5.21841E-003	5.65932E-004	...........
	15	4.13333	-4.61544E-003	-5.48453E-003	5.59766E-004	...........
	16	4.39167	-4.91119E-003	-5.74185E-003	5.59332E-004	...........
	17	4.65	-5.19123E-003	-5.99288E-003	5.58999E-004	...........
	18	4.90833	-5.45894E-003	-6.23494E-003	5.62399E-004	...........
EOC	QUANT	-0.0054589	Open Circuit (V)
PSTATMODEL	IQUANT	4	Pstat Model
PSTATSECTION	LABEL	REF600-11020	Pstat Section
PSTATSERIALNO	LABEL	11020	Pstat Serial Number
CTRLMODE	IQUANT	1	Control Mode
IESTAB	IQUANT	0	I/E Stability
CASPEED	IQUANT	1	Control Amp Speed
CONVENTION	IQUANT	1	Current Convention
ICHRANGE	IQUANT	2	Ich Range
ICHRANGEMODE	TOGGLE	F	Ich Auto Range
ICHOFFSETENABLE	TOGGLE	T	Ich Offset Enable
ICHOFFSET	QUANT	0	Ich Offset (V)
ICHFILTER	IQUANT	3	Ich Filter
VCHRANGE	IQUANT	2	Vch Range
VCHRANGEMODE	TOGGLE	F	Vch Auto Range
VCHOFFSETENABLE	TOGGLE	T	Vch Offset Enable
VCHOFFSET	QUANT	0	Vch Offset (V)
VCHFILTER	IQUANT	3	Vch Filter
ACHRANGE	IQUANT	2	Ach Range
ACHOFFSETENABLE	TOGGLE	F	Ach Offset Enable
ACHOFFSET	QUANT	0	Ach Offset (V)
ACHFILTER	IQUANT	3	Ach Filter
IERANGELOWERLIMIT	IQUANT	1	I/E Range Lower Limit
IERANGEMODE	TOGGLE	F	I/E AutoRange
IERANGE	IQUANT	3	I/E Range
POSFEEDENABLE	TOGGLE	F	Positive Feedback IR Comp
POSFEEDRESISTANCE	QUANT	0	Positive Feedback Resistance (ohm)
ACHSELECT	IQUANT	0	Ach Select
CABLEID	IQUANT	14	Cable ID
DCCALDATE	LABEL	8/19/2019	DC Calibration Date
ACCALDATE	LABEL	8/19/2019	AC Calibration Date
THERMOSELECT	IQUANT	1	Thermo Select
FRAMEWORKVERSION	QUANT	6.33	Framework Version
INSTRUMENTVERSION	LABEL	3.50	Instrument Version
ZCURVE	TABLE
	Pt	Time	Freq	Zreal	Zimag	Zsig	Zmod	Zphz	Idc	Vdc	IERange
	#	s	Hz	ohm	ohm	V	ohm	°	A	V	#
	0	2	1000078	2317.105	-1793.078	1	2929.864	-37.73429	-1.294711E-006	-0.0029197	8
	1	3	794390.6	2696.572	-1715.872	1	3196.203	-32.46925	3.60699E-007	-0.0035638	8
	2	5	630984.4	3011.147	-1596.183	1	3408.05	-27.92768	-1.658583E-006	-0.0034889	8
	3	6	501234.4	3298.72	-1433.992	1	3596.928	-23.49514	-1.174325E-006	-0.0034696	8
	4	7	398109.4	3521.591	-1260.68	1	3740.443	-19.69666	-6.948387E-007	-0.0036178	8
	5	9	316265.6	3678.504	-1075.657	1	3832.549	-16.29982	-6.910352E-007	-0.0037725	8
	6	10	251203.1	3793.574	-922.124	1	3904.038	-13.66222	-6.301916E-007	-0.003683	8
	7	11	199546.9	3886.02	-811.2146	1	3969.788	-11.79128	7.255964E-007	-0.0040514	8
	8	13	158578.1	3966.261	-696.4687	1	4026.946	-9.9595	-6.415829E-007	-0.0036995	8
	9	14	125953.1	4029.208	-582.4692	1	4071.092	-8.225792	-8.184465E-008	-0.0035327	7
	10	15	100078.1	4065.557	-514.3082	1	4097.958	-7.209834	-2.458228E-008	-0.0039197	7
	11	17	79453.13	4103.035	-469.7211	1	4129.835	-6.530868	5.085147E-008	-0.0040124	7
	12	18	63140.62	4137.887	-440.6848	1	4161.287	-6.079085	6.76475E-008	-0.0040695	7
	13	19	50203.12	4171.093	-423.7899	1	4192.567	-5.801438	-5.25308E-009	-0.0039708	7
	14	21	39890.62	4201.381	-416.9886	1	4222.023	-5.668064	-4.41231E-009	-0.0039532	7
	15	22	31640.63	4233.558	-424.96	1	4254.833	-5.732088	1.875956E-008	-0.0040342	7
	16	23	25171.88	4265.262	-443.4596	1	4288.253	-5.93572	6.813662E-008	-0.0040656	7
	17	25	20015.62	4299.8	-474.7397	1	4325.928	-6.300493	1.798291E-008	-0.004035	7
	18	26	15890.62	4336.275	-519.1398	1	4367.241	-6.82697	-2.285235E-008	-0.0039303	7
	19	27	12609.37	4375.664	-579.0947	1	4413.818	-7.538965	6.744278E-008	-0.0040663	7
	20	29	10078.13	4416.545	-652.4034	1	4464.471	-8.402854	5.294079E-008	-0.0040158	7
	21	30	8015.625	4465.995	-745.7266	1	4527.827	-9.479723	-1.102572E-008	-0.0039985	7
	22	31	6328.125	4519.964	-868.0392	1	4602.561	-10.87105	-2.11271E-008	-0.003935	7
	23	33	5015.625	4580.246	-1015.669	1	4691.507	-12.50302	5.103274E-008	-0.0040191	7
	24	34	3984.375	4647.323	-1193.841	1	4798.215	-14.40707	-4.099776E-009	-0.003961	7
	25	35	3170.956	4723.35	-1410.674	1	4929.506	-16.62876	-3.983278E-008	-0.0038671	7
	26	37	2527.573	4809.284	-1671.258	1	5091.396	-19.16268	-3.937246E-009	-0.00395	7
	27	38	1976.103	4916.959	-2020.251	1	5315.816	-22.33649	-3.566033E-008	-0.0039127	7
	28	39	1577.524	5030.54	-2408.133	1	5577.225	-25.58056	6.848978E-008	-0.0040711	7
	29	41	1265.625	5170.945	-2867.469	1	5912.787	-29.00989	1.947374E-008	-0.0040411	7
	30	42	998.264	5324.653	-3473.602	1	6357.502	-33.11891	3.2612E-008	-0.004039	7
	31	43	796.875	5506.29	-4176.065	1	6910.771	-37.17731	-3.13565E-008	-0.0039528	7
	32	45	627.7902	5735.12	-5081.27	1	7662.304	-41.54068	-2.766293E-009	-0.0039544	7
	33	46	505.5147	5970.73	-6089.168	1	8528.047	-45.56268	3.194307E-009	-0.0039312	7
	34	47	397.9953	6298.162	-7442.396	1	9749.67	-49.76028	5.089073E-009	-0.003955	7
	35	48	315.5048	6678.084	-9059.416	1	11254.77	-53.60448	9.383214E-010	-0.0040173	6
	36	50	252.4038	7117.547	-10957.38	1	13066.13	-56.9936	1.03793E-009	-0.0040262	6
	37	51	198.6229	7700.365	-13454.08	1	15501.87	-60.21559	1.515942E-009	-0.0040243	6
	38	52	158.3615	8386.57	-16352.6	1	18377.76	-62.84859	7.452997E-010	-0.0040288	6
	39	54	125.558	9268.941	-19980.09	1	22025.38	-65.113	1.265373E-009	-0.0040217	6
	40	55	100.4464	10338.97	-24247.48	1	26359.71	-66.9069	1.049773E-009	-0.0040254	6
	41	56	79.00281	11816.36	-29856.15	1	32109.44	-68.40751	1.535426E-009	-0.0040286	6
	42	58	63.3446	13693.75	-35831.04	1	38358.6	-69.08436	9.011328E-010	-0.0040278	6
	43	59	49.86702	16255.86	-44472.39	1	47350.26	-69.92128	1.805705E-010	-0.0040325	6
	44	61	39.72458	19421.77	-53714.69	1	57118.06	-70.12139	8.835909E-010	-0.0040298	6
	45	62	31.6723	23555.26	-64851.45	1	68996.82	-70.03803	9.651568E-010	-0.0040276	6
	46	63	24.93351	29641.3	-78710.81	1	84107.07	-69.36438	5.377816E-010	-0.0040284	6
	47	65	19.86229	37114.43	-94345.41	1	101383.1	-68.52588	3.333797E-010	-0.004035	6
	48	66	15.83615	47102.52	-112302.6	1	121780.6	-67.2456	2.2094E-009	-0.0040227	5
	49	67	12.40079	59153.69	-133575	1	146087.1	-66.11385	2.246819E-009	-0.0040196	5
	50	69	9.93114	74664.98	-155609.3	1	172595.3	-64.36723	1.099313E-011	-0.0040253	5
	51	70	7.944915	92716.39	-179306.9	1	201859.6	-62.65732	4.64846E-010	-0.004028	5
	52	72	6.317385	114353.1	-207199	1	236660.2	-61.10571	7.249711E-010	-0.0040367	5
	53	74	5.008013	139896	-237659	1	275776.5	-59.51716	8.214621E-011	-0.0040341	5
	54	76	3.945707	169014.3	-271076.8	1	319450.3	-58.05678	5.384747E-010	-0.0040156	5
	55	79	3.158693	199350.5	-306890.8	1	365954.4	-56.993	2.256429E-010	-0.0040407	5
	56	82	2.504006	233980.5	-348348.9	1	419635.3	-56.11136	6.526347E-010	-0.0040251	5
	57	85	1.998082	270956.4	-393921.7	1	478112.6	-55.47812	3.572931E-010	-0.0039864	5
	58	88	1.584686	310845.4	-448819.9	1	545952.6	-55.29415	4.474046E-010	-0.0040028	5
	59	92	1.266892	355147.7	-509858.7	1	621358	-55.14043	1.467796E-010	-0.0039858	5
	60	96	0.999041	405023.8	-586314.5	1	712607.1	-55.36344	4.139496E-010	-0.004035	5
