EXPLAIN
TAG	EISPOT
TITLE	LABEL	Potentiostatic EIS	Test &Identifier
DATE	LABEL	9/22/2019	Date
TIME	LABEL	9:40:18	Time
NOTES	NOTES	1	&Notes...
	
PSTAT	PSTAT	REF600-11020	Potentiostat
VDC	POTEN	0.00000E+000	T	DC &Voltage (V)
FREQINIT	QUANT	1.00000E+006	Initial Fre&q. (Hz)
FREQFINAL	QUANT	1.00000E+000	Final Fre&q. (Hz)
PTSPERDEC	QUANT	1.00000E+001	Points/&decade
VAC	QUANT	2.50000E+001	AC &Voltage (mV rms)
AREA	QUANT	1.00000E-002	&Area (cm^2)
CONDIT	TWOPARAM	T	5.00000E+000	0.00000E+000	Conditionin&g	Time(s)	E(V)
DELAY	TWOPARAM	T	5.00000E+000	0.00000E+000	Init. De&lay	Time(s)	Stab.(mV/s)
SPEED	SELECTOR	1	&Optimize for:
ZGUESS	QUANT	1.00000E+004	E&stimated Z (ohms)
OCVCURVE	TABLE	19
	Pt	T	Vf	Vm	Ach	Over
	#	s	V vs. Ref.	V	V	bits
	0	0.258333	1.11980E-002	1.11980E-002	5.85199E-004	...........
	1	0.516667	1.12053E-002	1.15798E-002	5.85699E-004	...........
	2	0.775	1.12506E-002	1.19660E-002	5.83399E-004	...........
	3	1.03333	1.13779E-002	1.22235E-002	5.80332E-004	...........
	4	1.29167	1.15980E-002	1.23938E-002	5.83465E-004	...........
	5	1.55	1.18698E-002	1.26846E-002	5.80865E-004	...........
	6	1.80833	1.21431E-002	1.28122E-002	5.79399E-004	...........
	7	2.06667	1.23965E-002	1.32332E-002	5.81599E-004	...........
	8	2.325	1.26370E-002	1.32934E-002	5.82265E-004	...........
	9	2.58333	1.28385E-002	1.17066E-002	5.78099E-004	...........
	10	2.84167	1.28377E-002	9.45002E-003	5.79732E-004	...........
	11	3.1	1.24106E-002	9.98263E-003	5.78699E-004	...........
	12	3.35833	1.16522E-002	1.30196E-002	5.77499E-004	...........
	13	3.61667	1.11800E-002	1.65420E-002	5.80665E-004	...........
	14	3.875	1.16724E-002	1.76227E-002	5.80432E-004	...........
	15	4.13333	1.31576E-002	1.68887E-002	5.83665E-004	...........
	16	4.39167	1.48883E-002	1.44561E-002	5.83999E-004	...........
	17	4.65	1.59565E-002	1.43190E-002	5.81199E-004	...........
	18	4.90833	1.60439E-002	1.51968E-002	5.80699E-004	...........
EOC	QUANT	0.0160439	Open Circuit (V)
PSTATMODEL	IQUANT	4	Pstat Model
PSTATSECTION	LABEL	REF600-11020	Pstat Section
PSTATSERIALNO	LABEL	11020	Pstat Serial Number
CTRLMODE	IQUANT	1	Control Mode
IESTAB	IQUANT	0	I/E Stability
CASPEED	IQUANT	1	Control Amp Speed
CONVENTION	IQUANT	1	Current Convention
ICHRANGE	IQUANT	2	Ich Range
ICHRANGEMODE	TOGGLE	F	Ich Auto Range
ICHOFFSETENABLE	TOGGLE	T	Ich Offset Enable
ICHOFFSET	QUANT	0	Ich Offset (V)
ICHFILTER	IQUANT	3	Ich Filter
VCHRANGE	IQUANT	2	Vch Range
VCHRANGEMODE	TOGGLE	F	Vch Auto Range
VCHOFFSETENABLE	TOGGLE	T	Vch Offset Enable
VCHOFFSET	QUANT	0	Vch Offset (V)
VCHFILTER	IQUANT	3	Vch Filter
ACHRANGE	IQUANT	2	Ach Range
ACHOFFSETENABLE	TOGGLE	F	Ach Offset Enable
ACHOFFSET	QUANT	0	Ach Offset (V)
ACHFILTER	IQUANT	3	Ach Filter
IERANGELOWERLIMIT	IQUANT	1	I/E Range Lower Limit
IERANGEMODE	TOGGLE	F	I/E AutoRange
IERANGE	IQUANT	6	I/E Range
POSFEEDENABLE	TOGGLE	F	Positive Feedback IR Comp
POSFEEDRESISTANCE	QUANT	0	Positive Feedback Resistance (ohm)
ACHSELECT	IQUANT	0	Ach Select
CABLEID	IQUANT	14	Cable ID
DCCALDATE	LABEL	8/19/2019	DC Calibration Date
ACCALDATE	LABEL	8/19/2019	AC Calibration Date
THERMOSELECT	IQUANT	1	Thermo Select
FRAMEWORKVERSION	QUANT	6.33	Framework Version
INSTRUMENTVERSION	LABEL	3.50	Instrument Version
ZCURVE	TABLE
	Pt	Time	Freq	Zreal	Zimag	Zsig	Zmod	Zphz	Idc	Vdc	IERange
	#	s	Hz	ohm	ohm	V	ohm	°	A	V	#
	0	2	1000078	2415.239	-1749.168	1	2982.108	-35.91286	5.75367E-006	0.0173063	8
	1	3	794390.6	2756.488	-1679.181	1	3227.673	-31.34869	-6.072691E-006	0.0188103	8
	2	5	630984.4	3067.477	-1577.318	1	3449.253	-27.21254	-1.012923E-006	0.0182401	8
	3	6	501234.4	3347.311	-1434.625	1	3641.791	-23.19951	-3.258821E-006	0.0184203	8
	4	7	398109.4	3557.803	-1280.446	1	3781.204	-19.7937	8.761401E-007	0.0177405	8
	5	9	316265.6	3737.801	-1122.953	1	3902.842	-16.72192	-1.009322E-006	0.0179632	8
	6	10	251203.1	3875.806	-977.31	1	3997.125	-14.15248	3.556835E-006	0.0169569	8
	7	12	199546.9	3982.54	-827.9941	1	4067.702	-11.74482	-6.491628E-007	0.0178018	8
	8	13	158578.1	4061.959	-740.1141	1	4128.835	-10.32636	1.82852E-006	0.01724	8
	9	15	125953.1	4136.728	-609.4977	1	4181.388	-8.381549	-8.432395E-007	0.0191976	7
	10	16	100078.1	4182.375	-546.4163	1	4217.918	-7.443384	1.561228E-008	0.0174794	7
	11	17	79453.13	4226.881	-508.3881	1	4257.345	-6.858305	7.165585E-008	0.0174309	7
	12	19	63140.62	4268.701	-482.4174	1	4295.875	-6.447793	7.916155E-008	0.0173855	7
	13	20	50203.12	4308.77	-468.6906	1	4334.186	-6.207996	-2.721542E-008	0.0175435	7
	14	21	39890.62	4349.189	-466.3253	1	4374.118	-6.119941	4.30754E-008	0.017405	7
	15	23	31640.63	4391.419	-475.4255	1	4417.079	-6.178913	7.268413E-008	0.0174244	7
	16	24	25171.88	4436.053	-493.607	1	4463.431	-6.349279	-9.344267E-009	0.0175818	7
	17	25	20015.62	4483.058	-522.2307	1	4513.373	-6.644429	-2.638095E-008	0.0175449	7
	18	27	15890.62	4535.702	-562.0959	1	4570.398	-7.064476	8.027263E-008	0.0173842	7
	19	28	12609.37	4589.008	-611.1188	1	4629.521	-7.585456	-4.005783E-008	0.0175702	7
	20	30	10078.13	4646.32	-673.1751	1	4694.833	-8.24385	-4.486002E-008	0.0176968	7
	21	31	8015.625	4708.078	-746.614	1	4766.91	-9.011012	-1.588577E-008	0.0176882	7
	22	32	6328.125	4773.556	-842.8787	1	4847.399	-10.01364	7.995385E-008	0.0173886	7
	23	34	5015.625	4841.974	-957.81	1	4935.799	-11.18945	-8.436317E-009	0.0175957	7
	24	35	3984.375	4914.923	-1100.267	1	5036.572	-12.61833	-4.426776E-008	0.0176072	7
	25	36	3170.956	4992.073	-1270.269	1	5151.153	-14.27635	7.361236E-008	0.017422	7
	26	38	2527.573	5074.286	-1479.052	1	5285.449	-16.25034	-3.982653E-008	0.0175672	7
	27	39	1976.103	5170.421	-1763.55	1	5462.908	-18.83371	-2.593557E-008	0.0175365	7
	28	41	1577.524	5269.15	-2079.168	1	5664.528	-21.53383	3.501648E-008	0.0175046	7
	29	42	1265.625	5384.627	-2469.419	1	5923.871	-24.63644	-5.049831E-008	0.0176541	7
	30	43	998.264	5514.739	-2966.164	1	6261.827	-28.27409	-2.712446E-008	0.0175386	7
	31	45	796.875	5664.662	-3553.972	1	6687.235	-32.10389	8.115995E-008	0.0173749	7
	32	46	627.7902	5847.94	-4328.704	1	7275.719	-36.50922	-8.011439E-009	0.0175759	7
	33	47	505.5147	6037.506	-5178.927	1	7954.418	-40.62275	-4.739117E-008	0.017697	7
	34	49	397.9953	6299.216	-6326.22	1	8927.552	-45.12254	3.36627E-009	0.017565	7
	35	50	315.5048	6598.26	-7701.478	1	10141.49	-49.4116	1.238665E-009	0.0175091	6
	36	51	252.4038	6936.566	-9320.574	1	11618.48	-53.34261	1.063496E-009	0.0175103	6
	37	53	198.6229	7374.669	-11458.91	1	13626.9	-57.23567	6.023532E-010	0.0175067	6
	38	54	158.3615	7876.652	-13949.65	1	16019.81	-60.5488	8.4957E-010	0.0175082	6
	39	55	125.558	8512.193	-17086.34	1	19089.28	-63.51811	5.569609E-010	0.017506	6
	40	57	100.4464	9276.338	-20803.68	1	22778.13	-65.96796	1.028022E-010	0.0175002	6
	41	58	79.00281	10315.46	-25727.35	1	27718.32	-68.15153	-2.405755E-010	0.0175042	6
	42	60	63.3446	11601.75	-31436.97	1	33509.45	-69.74352	4.391976E-010	0.0175055	6
	43	61	49.86702	13139.08	-38556.6	1	40733.85	-71.18223	6.766684E-011	0.0174978	6
	44	62	39.72458	15439.21	-47074.97	1	49542.12	-71.84203	6.984083E-010	0.0175023	6
	45	64	31.6723	18372.87	-57418.78	1	60286.64	-72.25636	1.013155E-009	0.0174989	6
	46	65	24.93351	22326.08	-70506.66	1	73957.04	-72.4295	5.875259E-011	0.0175019	6
	47	67	19.86229	27389.83	-85581.72	1	89857.85	-72.25309	1.319478E-010	0.0175074	6
	48	68	15.83615	33737.33	-103223.2	1	108596.7	-71.9006	8.673209E-010	0.0175093	5
	49	69	12.40079	43294.68	-126739.6	1	133930.4	-71.13965	7.203569E-010	0.0175132	5
	50	71	9.93114	54300.43	-150730.8	1	160213.3	-70.18855	2.42486E-010	0.0175142	5
	51	72	7.944915	69022.21	-179091.1	1	191931.5	-68.9232	7.659199E-010	0.0175122	5
	52	74	6.317385	87710.22	-212890.8	1	230251.1	-67.60852	-1.182537E-010	0.0175228	5
	53	76	5.008013	112094	-251813.5	1	275635.8	-66.00392	-1.004778E-011	0.0175094	5
	54	78	3.945707	143054.2	-296264	1	328993.7	-64.22593	-1.255746E-011	0.0175068	5
	55	81	3.158693	178452.2	-342415.1	1	386126	-62.47338	2.135355E-010	0.0175232	5
	56	84	2.504006	223480.3	-394874.5	1	453728.2	-60.49219	-3.295921E-010	0.0175115	5
	57	87	1.998082	273170.9	-447805.4	1	524549.4	-58.61591	2.748697E-010	0.0174771	5
	58	90	1.584686	333669.7	-508000.8	1	607783.1	-56.70193	-9.137079E-011	0.0174531	5
	59	94	1.266892	395761.6	-568581.6	1	692757	-55.16013	2.143643E-010	0.0175065	5
	60	98	0.999041	473096.2	-639601.1	1	795556.1	-53.51064	-4.027312E-010	0.0174698	5
