EXPLAIN
TAG	EISPOT
TITLE	LABEL	Potentiostatic EIS	Test &Identifier
DATE	LABEL	10/22/2019	Date
TIME	LABEL	9:12:23	Time
NOTES	NOTES	1	&Notes...
	
PSTAT	PSTAT	REF600-11020	Potentiostat
VDC	POTEN	0.00000E+000	T	DC &Voltage (V)
FREQINIT	QUANT	1.00000E+006	Initial Fre&q. (Hz)
FREQFINAL	QUANT	1.00000E+000	Final Fre&q. (Hz)
PTSPERDEC	QUANT	1.00000E+001	Points/&decade
VAC	QUANT	2.50000E+001	AC &Voltage (mV rms)
AREA	QUANT	1.00000E-002	&Area (cm^2)
CONDIT	TWOPARAM	T	5.00000E+000	0.00000E+000	Conditionin&g	Time(s)	E(V)
DELAY	TWOPARAM	T	5.00000E+000	0.00000E+000	Init. De&lay	Time(s)	Stab.(mV/s)
SPEED	SELECTOR	1	&Optimize for:
ZGUESS	QUANT	1.00000E+005	E&stimated Z (ohms)
OCVCURVE	TABLE	19
	Pt	T	Vf	Vm	Ach	Over
	#	s	V vs. Ref.	V	V	bits
	0	0.258333	9.21300E-003	9.21300E-003	5.52366E-004	...........
	1	0.516667	9.21580E-003	9.35994E-003	5.59666E-004	...........
	2	0.775	9.23330E-003	9.51290E-003	5.57566E-004	...........
	3	1.03333	9.28360E-003	9.65594E-003	5.55366E-004	...........
	4	1.29167	9.37535E-003	9.81347E-003	5.57999E-004	...........
	5	1.55	9.50074E-003	9.96407E-003	5.56866E-004	...........
	6	1.80833	9.64515E-003	1.01153E-002	5.52066E-004	...........
	7	2.06667	9.79700E-003	1.02635E-002	5.57833E-004	...........
	8	2.325	9.94994E-003	1.04113E-002	5.54633E-004	...........
	9	2.58333	1.01012E-002	1.05464E-002	5.54733E-004	...........
	10	2.84167	1.02496E-002	1.06881E-002	5.57366E-004	...........
	11	3.1	1.03945E-002	1.08231E-002	5.60132E-004	...........
	12	3.35833	1.05361E-002	1.09574E-002	5.58732E-004	...........
	13	3.61667	1.06748E-002	1.10845E-002	5.56766E-004	...........
	14	3.875	1.08106E-002	1.12118E-002	5.56466E-004	...........
	15	4.13333	1.09434E-002	1.13334E-002	5.61866E-004	...........
	16	4.39167	1.10727E-002	1.14476E-002	5.60966E-004	...........
	17	4.65	1.11984E-002	1.15709E-002	5.58399E-004	...........
	18	4.90833	1.13210E-002	1.16953E-002	5.60399E-004	...........
EOC	QUANT	0.011321	Open Circuit (V)
PSTATMODEL	IQUANT	4	Pstat Model
PSTATSECTION	LABEL	REF600-11020	Pstat Section
PSTATSERIALNO	LABEL	11020	Pstat Serial Number
CTRLMODE	IQUANT	1	Control Mode
IESTAB	IQUANT	0	I/E Stability
CASPEED	IQUANT	1	Control Amp Speed
CONVENTION	IQUANT	1	Current Convention
ICHRANGE	IQUANT	2	Ich Range
ICHRANGEMODE	TOGGLE	F	Ich Auto Range
ICHOFFSETENABLE	TOGGLE	T	Ich Offset Enable
ICHOFFSET	QUANT	0	Ich Offset (V)
ICHFILTER	IQUANT	3	Ich Filter
VCHRANGE	IQUANT	2	Vch Range
VCHRANGEMODE	TOGGLE	F	Vch Auto Range
VCHOFFSETENABLE	TOGGLE	T	Vch Offset Enable
VCHOFFSET	QUANT	0	Vch Offset (V)
VCHFILTER	IQUANT	3	Vch Filter
ACHRANGE	IQUANT	2	Ach Range
ACHOFFSETENABLE	TOGGLE	F	Ach Offset Enable
ACHOFFSET	QUANT	0	Ach Offset (V)
ACHFILTER	IQUANT	3	Ach Filter
IERANGELOWERLIMIT	IQUANT	1	I/E Range Lower Limit
IERANGEMODE	TOGGLE	F	I/E AutoRange
IERANGE	IQUANT	5	I/E Range
POSFEEDENABLE	TOGGLE	F	Positive Feedback IR Comp
POSFEEDRESISTANCE	QUANT	0	Positive Feedback Resistance (ohm)
ACHSELECT	IQUANT	0	Ach Select
CABLEID	IQUANT	14	Cable ID
DCCALDATE	LABEL	8/19/2019	DC Calibration Date
ACCALDATE	LABEL	8/19/2019	AC Calibration Date
THERMOSELECT	IQUANT	1	Thermo Select
FRAMEWORKVERSION	QUANT	6.33	Framework Version
INSTRUMENTVERSION	LABEL	3.50	Instrument Version
ZCURVE	TABLE
	Pt	Time	Freq	Zreal	Zimag	Zsig	Zmod	Zphz	Idc	Vdc	IERange
	#	s	Hz	ohm	ohm	V	ohm	°	A	V	#
	0	2	1000078	2543.195	-1976.541	1	3220.956	-37.85393	-5.862511E-006	0.0144395	8
	1	3	794390.6	2921.956	-1989.665	1	3535.052	-34.25236	3.441485E-006	0.0128911	8
	2	5	630984.4	3332.54	-1900.489	1	3836.363	-29.69536	2.773155E-007	0.0127165	8
	3	6	501234.4	3656.345	-1771.367	1	4062.831	-25.84852	-2.411474E-006	0.0133997	8
	4	7	398109.4	3950.32	-1634.824	1	4275.24	-22.48202	1.311967E-006	0.012642	8
	5	9	316265.6	4185.806	-1457.673	1	4432.356	-19.20026	3.025543E-006	0.0122099	8
	6	11	251203.1	4384.476	-1290.04	1	4570.321	-16.39541	1.042431E-006	0.0125769	8
	7	12	199546.9	4554.548	-1170.645	1	4702.586	-14.41458	3.822877E-006	0.0121533	8
	8	14	158578.1	4676.54	-1009.423	1	4784.241	-12.18032	-1.621857E-007	0.0129403	8
	9	15	125953.1	4787.282	-852.2374	1	4862.549	-10.09411	-1.477453E-006	0.0158714	7
	10	17	100078.1	4867.59	-769.3593	1	4928.016	-8.981728	9.204613E-008	0.0127305	7
	11	18	79453.13	4939.629	-715.8394	1	4991.229	-8.245765	-2.12662E-008	0.0128491	7
	12	19	63140.62	5003.375	-679.2443	1	5049.271	-7.731052	-5.139218E-008	0.0128242	7
	13	21	50203.12	5063.823	-659.6638	1	5106.609	-7.42212	-9.647412E-009	0.0129228	7
	14	22	39890.62	5121.8	-654.9572	1	5163.507	-7.287227	-2.760537E-009	0.0127955	7
	15	23	31640.63	5182.357	-666.4915	1	5225.039	-7.328456	-8.005233E-008	0.0129205	7
	16	25	25171.88	5244.215	-693.018	1	5289.808	-7.527963	-2.162405E-008	0.0128437	7
	17	26	20015.62	5336.424	-729.5933	1	5386.068	-7.785183	-1.712971E-008	0.0127424	7
	18	27	15890.62	5380.218	-793.015	1	5438.347	-8.384716	-2.301102E-009	0.0127868	7
	19	29	12609.37	5457.38	-869.8211	1	5526.264	-9.055881	-8.022267E-008	0.0129083	7
	20	30	10078.13	5537.088	-963.955	1	5620.37	-9.87569	-5.721485E-008	0.0129544	7
	21	32	8015.625	5647.304	-1082.378	1	5750.094	-10.84988	-5.005447E-008	0.0128077	7
	22	33	6328.125	5732.095	-1222.865	1	5861.084	-12.04275	-3.851386E-008	0.0127929	7
	23	34	5015.625	5843.768	-1394.413	1	6007.829	-13.4207	-4.924501E-008	0.0128062	7
	24	36	3984.375	5969.681	-1599.731	1	6180.31	-15.00143	-9.903226E-010	0.0127854	7
	25	37	3170.956	6106.197	-1836.464	1	6376.381	-16.73888	1.000431E-008	0.0126994	7
	26	38	2527.573	6257.414	-2120.497	1	6606.946	-18.72037	-2.939999E-008	0.0127769	7
	27	40	1976.103	6441.316	-2489.186	1	6905.548	-21.12856	-1.445778E-008	0.0127407	7
	28	41	1577.524	6646.394	-2915.983	1	7257.928	-23.68858	-1.551622E-008	0.0127336	7
	29	43	1265.625	6824.389	-3373.695	1	7612.759	-26.30588	4.602766E-008	0.0127109	7
	30	44	998.264	7060.284	-3992.853	1	8111.133	-29.48977	1.132036E-008	0.0126897	7
	31	45	796.875	7314.222	-4707.847	1	8698.371	-32.76762	1.382629E-007	0.0125561	7
	32	47	627.7902	7607.151	-5631.362	1	9464.724	-36.51152	-3.064333E-008	0.012777	7
	33	48	505.5147	7912.107	-6650.35	1	10335.79	-40.048	5.26904E-009	0.0124946	6
	34	49	397.9953	8284.053	-8031.981	1	11538.56	-44.11489	9.442992E-010	0.0127297	6
	35	51	315.5048	8696.972	-9686.65	1	13018.01	-48.08154	6.940943E-010	0.012729	6
	36	52	252.4038	9154.843	-11638.53	1	14807.65	-51.81149	3.452599E-012	0.0127279	6
	37	53	198.6229	9734.3	-14225.01	1	17236.81	-55.61582	4.392413E-010	0.0127303	6
	38	55	158.3615	10393.7	-17245.5	1	20135.45	-58.92303	1.101369E-009	0.0127262	6
	39	56	125.558	11218.71	-21068.82	1	23869.54	-61.96564	5.77435E-010	0.0127287	6
	40	58	100.4464	12241.24	-25591.04	1	28368.11	-64.4363	1.114283E-009	0.0127299	6
	41	59	79.00281	13664.96	-31560.05	1	34391.39	-66.58821	6.483341E-010	0.0127298	6
	42	60	63.3446	15344.02	-38622.42	1	41558.75	-68.33293	1.332193E-010	0.0127291	6
	43	62	49.86702	17380.85	-46969.78	1	50082.47	-69.69335	-1.030612E-010	0.0127227	6
	44	63	39.72458	20431.94	-57446.87	1	60972.18	-70.42122	4.493548E-010	0.0127282	6
	45	65	31.6723	24337.16	-69586.34	1	73719.45	-70.72321	-6.418087E-012	0.0127271	6
	46	66	24.93351	29789.96	-85560.58	1	90598.31	-70.80322	4.825569E-010	0.0127265	6
	47	67	19.86229	36709.29	-103330	1	109657	-70.44177	6.402809E-010	0.0127307	5
	48	69	15.83615	45428.34	-124295.5	1	132337.1	-69.92332	7.373905E-010	0.0127272	5
	49	70	12.40079	58879.04	-152147.4	1	163142.8	-68.84422	1.137768E-009	0.0127328	5
	50	72	9.93114	74103.37	-178711.5	1	193466	-67.47848	-1.847562E-010	0.0127371	5
	51	73	7.944915	93323.96	-210171.9	1	229960	-66.05704	-1.493019E-010	0.0127347	5
	52	75	6.317385	119301.2	-245808.9	1	273230.3	-64.11079	-3.512582E-010	0.0127308	5
	53	77	5.008013	150706.9	-285651.9	1	322969.9	-62.18435	-3.293094E-010	0.0127291	5
	54	79	3.945707	189722.4	-329418.6	1	380146.3	-60.06102	3.931163E-011	0.0127325	5
	55	82	3.158693	232131	-372673.8	1	439056.4	-58.08205	-9.574816E-011	0.0127216	5
	56	85	2.504006	281054.7	-420335.3	1	505641.7	-56.23158	6.424717E-012	0.0127398	5
	57	88	1.998082	333203.2	-469235.2	1	575505	-54.62149	3.036671E-010	0.0127131	5
	58	91	1.584686	392802.4	-524010.7	1	654890	-53.14449	-1.091801E-010	0.0126793	5
	59	95	1.266892	450596.1	-581497.9	1	735647.1	-52.22831	2.022446E-010	0.0127063	5
	60	99	0.999041	516841.6	-653333.6	1	833048.7	-51.65305	-2.980829E-010	0.0127293	5
