EXPLAIN
TAG	EISPOT
TITLE	LABEL	Potentiostatic EIS	Test &Identifier
DATE	LABEL	10/6/2019	Date
TIME	LABEL	10:36:30	Time
NOTES	NOTES	2	&Notes...
	
	
PSTAT	PSTAT	REF600-11020	Potentiostat
VDC	POTEN	0.00000E+000	T	DC &Voltage (V)
FREQINIT	QUANT	1.00000E+006	Initial Fre&q. (Hz)
FREQFINAL	QUANT	1.00000E+000	Final Fre&q. (Hz)
PTSPERDEC	QUANT	1.00000E+001	Points/&decade
VAC	QUANT	2.50000E+001	AC &Voltage (mV rms)
AREA	QUANT	1.00000E-002	&Area (cm^2)
CONDIT	TWOPARAM	T	5.00000E+000	0.00000E+000	Conditionin&g	Time(s)	E(V)
DELAY	TWOPARAM	T	5.00000E+000	0.00000E+000	Init. De&lay	Time(s)	Stab.(mV/s)
SPEED	SELECTOR	1	&Optimize for:
ZGUESS	QUANT	1.00000E+004	E&stimated Z (ohms)
OCVCURVE	TABLE	19
	Pt	T	Vf	Vm	Ach	Over
	#	s	V vs. Ref.	V	V	bits
	0	0.258333	6.11245E-003	6.11245E-003	5.64832E-004	...........
	1	0.516667	6.11217E-003	6.09759E-003	5.63666E-004	...........
	2	0.775	6.11072E-003	6.09886E-003	5.67332E-004	...........
	3	1.03333	6.10769E-003	6.10517E-003	5.60199E-004	...........
	4	1.29167	6.10485E-003	6.12508E-003	5.61066E-004	...........
	5	1.55	6.10554E-003	6.14054E-003	5.69666E-004	...........
	6	1.80833	6.11223E-003	6.16907E-003	5.67999E-004	...........
	7	2.06667	6.12542E-003	6.19533E-003	5.67966E-004	...........
	8	2.325	6.14436E-003	6.22490E-003	5.66566E-004	...........
	9	2.58333	6.16778E-003	6.25316E-003	5.73965E-004	...........
	10	2.84167	6.19430E-003	6.28783E-003	5.64966E-004	...........
	11	3.1	6.22288E-003	6.31716E-003	5.60466E-004	...........
	12	3.35833	6.25296E-003	6.35045E-003	5.62899E-004	...........
	13	3.61667	6.28402E-003	6.38111E-003	5.67332E-004	...........
	14	3.875	6.31575E-003	6.42343E-003	5.66266E-004	...........
	15	4.13333	6.34850E-003	6.45727E-003	5.64632E-004	...........
	16	4.39167	6.38280E-003	6.49473E-003	5.61966E-004	...........
	17	4.65	6.41841E-003	6.52685E-003	5.64532E-004	...........
	18	4.90833	6.45433E-003	6.55871E-003	5.72466E-004	...........
EOC	QUANT	0.0064543	Open Circuit (V)
PSTATMODEL	IQUANT	4	Pstat Model
PSTATSECTION	LABEL	REF600-11020	Pstat Section
PSTATSERIALNO	LABEL	11020	Pstat Serial Number
CTRLMODE	IQUANT	1	Control Mode
IESTAB	IQUANT	0	I/E Stability
CASPEED	IQUANT	1	Control Amp Speed
CONVENTION	IQUANT	1	Current Convention
ICHRANGE	IQUANT	2	Ich Range
ICHRANGEMODE	TOGGLE	F	Ich Auto Range
ICHOFFSETENABLE	TOGGLE	T	Ich Offset Enable
ICHOFFSET	QUANT	0	Ich Offset (V)
ICHFILTER	IQUANT	3	Ich Filter
VCHRANGE	IQUANT	2	Vch Range
VCHRANGEMODE	TOGGLE	F	Vch Auto Range
VCHOFFSETENABLE	TOGGLE	T	Vch Offset Enable
VCHOFFSET	QUANT	0	Vch Offset (V)
VCHFILTER	IQUANT	3	Vch Filter
ACHRANGE	IQUANT	2	Ach Range
ACHOFFSETENABLE	TOGGLE	F	Ach Offset Enable
ACHOFFSET	QUANT	0	Ach Offset (V)
ACHFILTER	IQUANT	3	Ach Filter
IERANGELOWERLIMIT	IQUANT	1	I/E Range Lower Limit
IERANGEMODE	TOGGLE	F	I/E AutoRange
IERANGE	IQUANT	6	I/E Range
POSFEEDENABLE	TOGGLE	F	Positive Feedback IR Comp
POSFEEDRESISTANCE	QUANT	0	Positive Feedback Resistance (ohm)
ACHSELECT	IQUANT	0	Ach Select
CABLEID	IQUANT	14	Cable ID
DCCALDATE	LABEL	8/19/2019	DC Calibration Date
ACCALDATE	LABEL	8/19/2019	AC Calibration Date
THERMOSELECT	IQUANT	1	Thermo Select
FRAMEWORKVERSION	QUANT	6.33	Framework Version
INSTRUMENTVERSION	LABEL	3.50	Instrument Version
ZCURVE	TABLE
	Pt	Time	Freq	Zreal	Zimag	Zsig	Zmod	Zphz	Idc	Vdc	IERange
	#	s	Hz	ohm	ohm	V	ohm	°	A	V	#
	0	1	1000078	1938.852	-876.7203	1	2127.859	-24.33179	1.907049E-006	0.0087857	8
	1	3	794390.6	2070.906	-810.0999	1	2223.716	-21.36452	-4.587731E-006	0.0092519	8
	2	4	630984.4	2188.728	-719.6481	1	2304.002	-18.20073	2.473517E-006	0.0081655	8
	3	5	501234.4	2280.465	-650.0663	1	2371.309	-15.91066	3.789721E-006	0.0075088	8
	4	7	398109.4	2367.317	-578.3937	1	2436.951	-13.72978	-9.090436E-007	0.0083155	8
	5	8	316265.6	2423.655	-521.3608	1	2479.096	-12.14009	-2.180689E-006	0.0087106	8
	6	9	251203.1	2475.35	-472.5106	1	2520.044	-10.80698	-1.117476E-006	0.0084986	8
	7	11	199546.9	2521.313	-427.1862	1	2557.246	-9.6163	2.048428E-006	0.0076179	8
	8	12	158578.1	2563.337	-406.0263	1	2595.295	-9.000733	-2.994998E-006	0.0086747	8
	9	13	125953.1	2614.062	-352.6724	1	2637.745	-7.683585	3.822452E-007	0.0079874	7
	10	15	100078.1	2648.169	-347.5679	1	2670.881	-7.477238	9.595751E-008	0.0079572	7
	11	16	79453.13	2683.826	-354.9888	1	2707.201	-7.534756	1.173338E-007	0.0078615	7
	12	18	63140.62	2722.375	-367.738	1	2747.1	-7.69294	-5.65352E-008	0.0081071	7
	13	19	50203.12	2764.679	-384.7899	1	2791.329	-7.923563	-9.441148E-009	0.0080689	7
	14	20	39890.62	2808.954	-406.0912	1	2838.156	-8.226271	-2.870314E-008	0.0080267	7
	15	22	31640.63	2856.956	-432.9271	1	2889.571	-8.616726	3.460393E-008	0.0080032	7
	16	23	25171.88	2907.159	-465.1695	1	2944.14	-9.090737	-1.36589E-008	0.0080357	7
	17	24	20015.62	2962.82	-504.3295	1	3005.437	-9.66026	1.478245E-008	0.0079658	7
	18	26	15890.62	3021.94	-550.0446	1	3071.591	-10.31588	-2.026074E-009	0.0079859	7
	19	27	12609.37	3087.286	-603.5667	1	3145.732	-11.06185	7.687059E-008	0.0078792	7
	20	28	10078.13	3156.826	-662.8448	1	3225.665	-11.85824	1.68187E-008	0.0079632	7
	21	30	8015.625	3233.378	-733.3692	1	3315.504	-12.77917	1.375109E-008	0.0080033	7
	22	31	6328.125	3321.923	-811.8043	1	3419.678	-13.73266	-2.430784E-009	0.0079781	7
	23	32	5015.625	3412.971	-901.1404	1	3529.933	-14.7905	-8.128457E-009	0.0080545	7
	24	34	3984.375	3508.924	-1001.324	1	3649	-15.92688	-1.13961E-008	0.0080838	7
	25	35	3170.956	3602.354	-1117.437	1	3771.687	-17.2337	7.676122E-008	0.0078785	7
	26	36	2527.573	3696.8	-1255.493	1	3904.176	-18.75832	-1.300725E-008	0.0080928	7
	27	38	1976.103	3800.105	-1440.086	1	4063.822	-20.75468	4.709783E-008	0.0078974	7
	28	39	1577.524	3895.062	-1655.649	1	4232.338	-23.02858	-5.998083E-008	0.0081558	7
	29	40	1265.625	3985.364	-1911.912	1	4420.241	-25.62859	5.6771E-008	0.0079466	7
	30	42	998.264	4088.932	-2263.825	1	4673.785	-28.97098	1.347327E-008	0.0080065	7
	31	43	796.875	4193.001	-2681.471	1	4977.102	-32.59937	1.202359E-007	0.0078642	7
	32	44	627.7902	4314.557	-3238.987	1	5395.038	-36.89597	-6.04587E-008	0.008163	7
	33	46	505.5147	4435.253	-3866.03	1	5883.678	-41.07734	9.911896E-008	0.0079519	7
	34	47	397.9953	4597.018	-4732.842	1	6597.907	-45.83405	4.776167E-009	0.0080608	7
	35	48	315.5048	4780.811	-5781.244	1	7501.929	-50.41088	5.026577E-009	0.008061	7
	36	50	252.4038	4995.594	-7028.987	1	8623.377	-54.59809	4.807049E-009	0.0080545	7
	37	51	198.6229	5282.998	-8690.483	1	10170.28	-58.70433	5.330719E-009	0.0080612	7
	38	52	158.3615	5627.069	-10635.79	1	12032.62	-62.11806	8.42608E-010	0.0079991	6
	39	54	125.558	6074.353	-13092.23	1	14432.75	-65.1103	7.637689E-010	0.0080023	6
	40	55	100.4464	6634.986	-15988.58	1	17310.63	-67.46239	1.244244E-009	0.0079968	6
	41	56	79.00281	7408.581	-19805.31	1	21145.63	-69.49067	8.046419E-010	0.0079915	6
	42	58	63.3446	8218.636	-24107.69	1	25470.11	-71.17506	8.117612E-010	0.0079895	6
	43	59	49.86702	9727.86	-29905.28	1	31447.69	-71.98086	1.309528E-010	0.0079935	6
	44	61	39.72458	11277.65	-36537.91	1	38238.78	-72.84684	4.536532E-010	0.0079945	6
	45	62	31.6723	13452.29	-44458.22	1	46448.87	-73.16509	4.892018E-010	0.0079835	6
	46	63	24.93351	16456.96	-54806.56	1	57224.04	-73.28638	6.517218E-010	0.0079889	6
	47	65	19.86229	20273.5	-66547.17	1	69566.81	-73.05672	1.958066E-010	0.0079932	6
	48	66	15.83615	25384.99	-80950.4	1	84837.28	-72.58926	-1.086603E-009	0.0079915	6
	49	68	12.40079	32386.19	-98905.8	1	104073.1	-71.86922	1.532596E-009	0.0079932	6
	50	69	9.93114	40605.79	-117807.3	1	124608.9	-70.98196	1.6759E-010	0.0079973	5
	51	71	7.944915	51335.32	-139876.1	1	148998.8	-69.84657	9.635684E-010	0.0079985	5
	52	72	6.317385	65042.2	-166230.2	1	178502	-68.63069	5.552717E-010	0.0080052	5
	53	74	5.008013	82370.8	-196807.6	1	213349.9	-67.28901	4.654826E-010	0.0080054	5
	54	77	3.945707	104199.3	-232435.5	1	254722.9	-65.85363	-1.017962E-010	0.0079925	5
	55	79	3.158693	128418.2	-269910.6	1	298902.9	-64.55581	3.493309E-010	0.0080129	5
	56	83	2.504006	158337.2	-313933.2	1	351603.1	-63.23518	-2.643329E-010	0.0079998	5
	57	85	1.998082	191412.8	-360840.2	1	408466.1	-62.05564	1.91158E-010	0.0079495	5
	58	89	1.584686	229143.4	-416887.8	1	475712.3	-61.2045	-5.081855E-011	0.0079759	5
	59	92	1.266892	271871.5	-477318	1	549314.6	-60.33496	1.606103E-010	0.0079533	5
	60	96	0.999041	321246.4	-552145	1	638798.4	-59.8085	-5.633422E-011	0.0080215	5
