EXPLAIN
TAG	EISPOT
TITLE	LABEL	Potentiostatic EIS	Test &Identifier
DATE	LABEL	10/22/2019	Date
TIME	LABEL	8:00:56	Time
NOTES	NOTES	1	&Notes...
	
PSTAT	PSTAT	REF600-11020	Potentiostat
VDC	POTEN	0.00000E+000	T	DC &Voltage (V)
FREQINIT	QUANT	1.00000E+006	Initial Fre&q. (Hz)
FREQFINAL	QUANT	1.00000E+000	Final Fre&q. (Hz)
PTSPERDEC	QUANT	1.00000E+001	Points/&decade
VAC	QUANT	2.50000E+001	AC &Voltage (mV rms)
AREA	QUANT	1.00000E-002	&Area (cm^2)
CONDIT	TWOPARAM	T	5.00000E+000	0.00000E+000	Conditionin&g	Time(s)	E(V)
DELAY	TWOPARAM	T	5.00000E+000	0.00000E+000	Init. De&lay	Time(s)	Stab.(mV/s)
SPEED	SELECTOR	1	&Optimize for:
ZGUESS	QUANT	1.00000E+005	E&stimated Z (ohms)
OCVCURVE	TABLE	19
	Pt	T	Vf	Vm	Ach	Over
	#	s	V vs. Ref.	V	V	bits
	0	0.258333	1.39604E-002	1.39604E-002	5.15933E-004	...........
	1	0.516667	1.39718E-002	1.45564E-002	5.17000E-004	...........
	2	0.775	1.40419E-002	1.51299E-002	5.18300E-004	...........
	3	1.03333	1.42408E-002	1.56910E-002	5.23900E-004	...........
	4	1.29167	1.45988E-002	1.62300E-002	5.22066E-004	...........
	5	1.55	1.50785E-002	1.67514E-002	5.16833E-004	...........
	6	1.80833	1.56152E-002	1.72432E-002	5.22866E-004	...........
	7	2.06667	1.61593E-002	1.77205E-002	5.24866E-004	...........
	8	2.325	1.66864E-002	1.81864E-002	5.27400E-004	...........
	9	2.58333	1.71902E-002	1.86207E-002	5.21666E-004	...........
	10	2.84167	1.76722E-002	1.90628E-002	5.19933E-004	...........
	11	3.1	1.81354E-002	1.94822E-002	5.22500E-004	...........
	12	3.35833	1.85833E-002	1.98936E-002	5.24666E-004	...........
	13	3.61667	1.90187E-002	2.03132E-002	5.21600E-004	...........
	14	3.875	1.94438E-002	2.06977E-002	5.22366E-004	...........
	15	4.13333	1.98598E-002	2.10884E-002	5.26800E-004	...........
	16	4.39167	2.02666E-002	2.14690E-002	5.21166E-004	...........
	17	4.65	2.06641E-002	2.18446E-002	5.23500E-004	...........
	18	4.90833	2.10531E-002	2.22052E-002	5.20166E-004	...........
EOC	QUANT	0.0210531	Open Circuit (V)
PSTATMODEL	IQUANT	4	Pstat Model
PSTATSECTION	LABEL	REF600-11020	Pstat Section
PSTATSERIALNO	LABEL	11020	Pstat Serial Number
CTRLMODE	IQUANT	1	Control Mode
IESTAB	IQUANT	0	I/E Stability
CASPEED	IQUANT	1	Control Amp Speed
CONVENTION	IQUANT	1	Current Convention
ICHRANGE	IQUANT	2	Ich Range
ICHRANGEMODE	TOGGLE	F	Ich Auto Range
ICHOFFSETENABLE	TOGGLE	T	Ich Offset Enable
ICHOFFSET	QUANT	0	Ich Offset (V)
ICHFILTER	IQUANT	3	Ich Filter
VCHRANGE	IQUANT	2	Vch Range
VCHRANGEMODE	TOGGLE	F	Vch Auto Range
VCHOFFSETENABLE	TOGGLE	T	Vch Offset Enable
VCHOFFSET	QUANT	0	Vch Offset (V)
VCHFILTER	IQUANT	3	Vch Filter
ACHRANGE	IQUANT	2	Ach Range
ACHOFFSETENABLE	TOGGLE	F	Ach Offset Enable
ACHOFFSET	QUANT	0	Ach Offset (V)
ACHFILTER	IQUANT	3	Ach Filter
IERANGELOWERLIMIT	IQUANT	1	I/E Range Lower Limit
IERANGEMODE	TOGGLE	F	I/E AutoRange
IERANGE	IQUANT	5	I/E Range
POSFEEDENABLE	TOGGLE	F	Positive Feedback IR Comp
POSFEEDRESISTANCE	QUANT	0	Positive Feedback Resistance (ohm)
ACHSELECT	IQUANT	0	Ach Select
CABLEID	IQUANT	14	Cable ID
DCCALDATE	LABEL	8/19/2019	DC Calibration Date
ACCALDATE	LABEL	8/19/2019	AC Calibration Date
THERMOSELECT	IQUANT	1	Thermo Select
FRAMEWORKVERSION	QUANT	6.33	Framework Version
INSTRUMENTVERSION	LABEL	3.50	Instrument Version
ZCURVE	TABLE
	Pt	Time	Freq	Zreal	Zimag	Zsig	Zmod	Zphz	Idc	Vdc	IERange
	#	s	Hz	ohm	ohm	V	ohm	°	A	V	#
	0	2	1000078	2174.475	-1176.011	1	2472.113	-28.40565	3.997947E-006	0.0227807	8
	1	3	794390.6	2379.103	-1087.847	1	2616.016	-24.5723	-1.74572E-006	0.0230218	8
	2	5	630984.4	2555.437	-986.091	1	2739.093	-21.10058	-2.914828E-006	0.0234245	8
	3	6	501234.4	2700.965	-886.7034	1	2842.79	-18.17456	4.515415E-006	0.0218567	8
	4	7	398109.4	2817.584	-773.8354	1	2921.917	-15.35734	-4.811498E-006	0.0236224	8
	5	9	316265.6	2903.034	-683.1737	1	2982.336	-13.24252	1.656011E-007	0.0226837	8
	6	10	251203.1	2983.375	-597.8819	1	3042.694	-11.33222	-1.092568E-007	0.0226743	8
	7	11	199546.9	3054.77	-531.012	1	3100.58	-9.86121	-2.881749E-006	0.0229922	8
	8	13	158578.1	3093.283	-476.1342	1	3129.713	-8.750586	-4.052769E-006	0.023524	8
	9	14	125953.1	3158.26	-398.0385	1	3183.244	-7.183168	5.866737E-007	0.021386	7
	10	15	100078.1	3189.398	-366.9043	1	3210.432	-6.562387	-3.897641E-008	0.0225471	7
	11	17	79453.13	3224.887	-354.289	1	3244.29	-6.269424	7.46844E-008	0.0224789	7
	12	18	63140.62	3260.155	-346.7271	1	3278.541	-6.070756	8.400353E-009	0.0226107	7
	13	20	50203.12	3295.059	-346.1483	1	3313.191	-5.996968	-4.01672E-008	0.0226058	7
	14	21	39890.62	3330.854	-351.0714	1	3349.305	-6.016748	7.412651E-008	0.0223675	7
	15	22	31640.63	3366.255	-362.1527	1	3385.679	-6.140451	-1.555911E-008	0.0226551	7
	16	24	25171.88	3402.163	-379.9498	1	3423.313	-6.372326	-4.228312E-008	0.0225451	7
	17	25	20015.62	3436.766	-403.1205	1	3460.327	-6.690022	-1.387616E-008	0.0224846	7
	18	26	15890.62	3478.132	-438.4152	1	3505.654	-7.18419	-1.493876E-008	0.0224876	7
	19	28	12609.37	3516.381	-482.6334	1	3549.348	-7.815179	-1.418553E-008	0.0224907	7
	20	29	10078.13	3556.156	-537.717	1	3596.579	-8.598409	-1.519972E-008	0.0226533	7
	21	30	8015.625	3596.922	-600.7697	1	3646.748	-9.482201	1.248428E-007	0.0223305	7
	22	32	6328.125	3644.149	-698.8696	1	3710.558	-10.85629	7.593925E-013	0.0225215	7
	23	33	5015.625	3691.859	-811.6715	1	3780.031	-12.39946	7.481409E-008	0.0223584	7
	24	35	3984.375	3745.849	-955.182	1	3865.715	-14.30541	-4.124391E-008	0.022542	7
	25	36	3170.956	3802.749	-1119.145	1	3964.011	-16.39911	-3.040178E-008	0.0225344	7
	26	37	2527.573	3866.377	-1326.451	1	4087.584	-18.93573	-3.983748E-008	0.0226006	7
	27	39	1976.103	3946.186	-1603.625	1	4259.577	-22.11552	6.358287E-008	0.0224136	7
	28	40	1577.524	4036.837	-1917.601	1	4469.144	-25.40891	4.070318E-008	0.0223938	7
	29	41	1265.625	4123.836	-2287.678	1	4715.877	-29.01911	7.510318E-008	0.0223622	7
	30	43	998.264	4237.059	-2776.498	1	5065.729	-33.23639	7.646796E-008	0.0223591	7
	31	44	796.875	4361.847	-3351.565	1	5500.791	-37.53803	7.554699E-008	0.0223595	7
	32	45	627.7902	4516.896	-4096.637	1	6097.933	-42.20673	4.075649E-008	0.0223957	7
	33	47	505.5147	4675.566	-4938.852	1	6800.969	-46.56862	-7.200595E-008	0.022643	7
	34	48	397.9953	4888.955	-6079.453	1	7801.386	-51.19457	3.687525E-009	0.0225386	7
	35	50	315.5048	5143.385	-7455.827	1	9057.801	-55.40023	4.043137E-009	0.0225375	7
	36	51	252.4038	5452.154	-9087.509	1	10597.58	-59.03787	-1.013074E-010	0.0224799	6
	37	52	198.6229	5869.173	-11248.09	1	12687.27	-62.44477	4.331535E-010	0.0224792	6
	38	54	158.3615	6377.963	-13767.64	1	15173.21	-65.14371	-4.273807E-010	0.0224748	6
	39	55	125.558	7060.616	-16936.8	1	18349.6	-67.36972	1.053357E-010	0.022476	6
	40	56	100.4464	7912.047	-20669.49	1	22132.06	-69.05372	-3.561423E-011	0.0224759	6
	41	58	79.00281	9095.658	-25516.05	1	27088.74	-70.38047	8.220642E-010	0.0224726	6
	42	59	63.3446	10773.78	-30800.04	1	32630	-70.72028	-1.793234E-010	0.0224721	6
	43	61	49.86702	12672.48	-38305.49	1	40347.27	-71.69441	2.008857E-010	0.022467	6
	44	62	39.72458	15343.9	-46338.31	1	48812.64	-71.67886	1.286111E-010	0.0224762	6
	45	63	31.6723	18829.85	-55867.82	1	58955.72	-71.37398	-1.412339E-010	0.0224731	6
	46	65	24.93351	23629.72	-68248.5	1	72223.41	-70.90258	2.195537E-010	0.0224734	6
	47	66	19.86229	29598.63	-81975.27	1	87155.16	-70.14698	8.885296E-010	0.0224755	6
	48	68	15.83615	37180.84	-97139.5	1	104012.1	-69.05531	-4.018288E-010	0.0224771	6
	49	69	12.40079	47916.25	-118172.7	1	127517.7	-67.9286	4.6264E-010	0.0224857	5
	50	70	9.93114	60667.9	-138687	1	151376	-66.37328	-8.389877E-010	0.0224869	5
	51	72	7.944915	76178.53	-161527.1	1	178589.4	-64.75076	6.866881E-010	0.0224841	5
	52	74	6.317385	95777	-188741.3	1	211651.8	-63.09443	-3.993008E-010	0.0224991	5
	53	76	5.008013	119834.6	-218400.6	1	249116.8	-61.24679	-4.087546E-010	0.0224752	5
	54	78	3.945707	148446	-250558.6	1	291231.5	-59.35495	9.965375E-011	0.0224875	5
	55	81	3.158693	179649.4	-283661.3	1	335764.3	-57.65295	-6.844082E-010	0.0224674	5
	56	84	2.504006	215533.7	-320332.5	1	386092.8	-56.06561	1.583133E-010	0.0224797	5
	57	87	1.998082	254124.9	-359098.1	1	439921.5	-54.7139	-1.800483E-010	0.0225092	5
	58	90	1.584686	296119.8	-401953	1	499252.6	-53.62083	-2.956698E-010	0.0224456	5
	59	94	1.266892	340455.6	-451208.9	1	565242.9	-52.96395	-2.310679E-010	0.0225018	5
	60	98	0.999041	391514.7	-510177.6	1	643090.1	-52.49706	-6.970461E-010	0.0224377	5
