EXPLAIN
TAG	EISPOT
TITLE	LABEL	Potentiostatic EIS	Test &Identifier
DATE	LABEL	10/12/2019	Date
TIME	LABEL	11:10:54	Time
NOTES	NOTES	1	&Notes...
	
PSTAT	PSTAT	REF600-11020	Potentiostat
VDC	POTEN	0.00000E+000	T	DC &Voltage (V)
FREQINIT	QUANT	1.00000E+006	Initial Fre&q. (Hz)
FREQFINAL	QUANT	1.00000E+000	Final Fre&q. (Hz)
PTSPERDEC	QUANT	1.00000E+001	Points/&decade
VAC	QUANT	2.50000E+001	AC &Voltage (mV rms)
AREA	QUANT	1.00000E-002	&Area (cm^2)
CONDIT	TWOPARAM	T	5.00000E+000	0.00000E+000	Conditionin&g	Time(s)	E(V)
DELAY	TWOPARAM	T	5.00000E+000	0.00000E+000	Init. De&lay	Time(s)	Stab.(mV/s)
SPEED	SELECTOR	1	&Optimize for:
ZGUESS	QUANT	1.00000E+004	E&stimated Z (ohms)
OCVCURVE	TABLE	19
	Pt	T	Vf	Vm	Ach	Over
	#	s	V vs. Ref.	V	V	bits
	0	0.258333	4.10710E-003	4.10710E-003	5.28400E-004	...........
	1	0.516667	4.10514E-003	4.00410E-003	5.22000E-004	...........
	2	0.775	4.09676E-003	4.10050E-003	5.27000E-004	...........
	3	1.03333	4.08531E-003	4.18912E-003	5.22666E-004	...........
	4	1.29167	4.08435E-003	4.06435E-003	5.23833E-004	...........
	5	1.55	4.09088E-003	3.83456E-003	5.34000E-004	...........
	6	1.80833	4.07185E-003	3.71161E-003	5.29633E-004	...........
	7	2.06667	4.00217E-003	3.75261E-003	5.31300E-004	...........
	8	2.325	3.90194E-003	3.76038E-003	5.27700E-004	...........
	9	2.58333	3.81513E-003	3.71802E-003	5.33000E-004	...........
	10	2.84167	3.76322E-003	3.69698E-003	5.32500E-004	...........
	11	3.1	3.73682E-003	3.70316E-003	5.25700E-004	...........
	12	3.35833	3.72166E-003	3.73555E-003	5.31200E-004	...........
	13	3.61667	3.71369E-003	3.70302E-003	5.31300E-004	...........
	14	3.875	3.71097E-003	3.65660E-003	5.30733E-004	...........
	15	4.13333	3.70580E-003	3.63908E-003	5.26933E-004	...........
	16	4.39167	3.69150E-003	3.62245E-003	5.26866E-004	...........
	17	4.65	3.66978E-003	3.60770E-003	5.30133E-004	...........
	18	4.90833	3.64693E-003	3.59775E-003	5.29933E-004	...........
EOC	QUANT	0.0036469	Open Circuit (V)
PSTATMODEL	IQUANT	4	Pstat Model
PSTATSECTION	LABEL	REF600-11020	Pstat Section
PSTATSERIALNO	LABEL	11020	Pstat Serial Number
CTRLMODE	IQUANT	1	Control Mode
IESTAB	IQUANT	0	I/E Stability
CASPEED	IQUANT	1	Control Amp Speed
CONVENTION	IQUANT	1	Current Convention
ICHRANGE	IQUANT	2	Ich Range
ICHRANGEMODE	TOGGLE	F	Ich Auto Range
ICHOFFSETENABLE	TOGGLE	T	Ich Offset Enable
ICHOFFSET	QUANT	0	Ich Offset (V)
ICHFILTER	IQUANT	3	Ich Filter
VCHRANGE	IQUANT	2	Vch Range
VCHRANGEMODE	TOGGLE	F	Vch Auto Range
VCHOFFSETENABLE	TOGGLE	T	Vch Offset Enable
VCHOFFSET	QUANT	0	Vch Offset (V)
VCHFILTER	IQUANT	3	Vch Filter
ACHRANGE	IQUANT	2	Ach Range
ACHOFFSETENABLE	TOGGLE	F	Ach Offset Enable
ACHOFFSET	QUANT	0	Ach Offset (V)
ACHFILTER	IQUANT	3	Ach Filter
IERANGELOWERLIMIT	IQUANT	1	I/E Range Lower Limit
IERANGEMODE	TOGGLE	F	I/E AutoRange
IERANGE	IQUANT	5	I/E Range
POSFEEDENABLE	TOGGLE	F	Positive Feedback IR Comp
POSFEEDRESISTANCE	QUANT	0	Positive Feedback Resistance (ohm)
ACHSELECT	IQUANT	0	Ach Select
CABLEID	IQUANT	14	Cable ID
DCCALDATE	LABEL	8/19/2019	DC Calibration Date
ACCALDATE	LABEL	8/19/2019	AC Calibration Date
THERMOSELECT	IQUANT	1	Thermo Select
FRAMEWORKVERSION	QUANT	6.33	Framework Version
INSTRUMENTVERSION	LABEL	3.50	Instrument Version
ZCURVE	TABLE
	Pt	Time	Freq	Zreal	Zimag	Zsig	Zmod	Zphz	Idc	Vdc	IERange
	#	s	Hz	ohm	ohm	V	ohm	°	A	V	#
	0	2	1000078	2571.192	-1710.792	1	3088.34	-33.63857	5.328111E-006	0.0052689	8
	1	3	794390.6	2870.723	-1647.87	1	3310.064	-29.85696	-3.961469E-006	0.0061843	8
	2	5	630984.4	3168.875	-1526.412	1	3517.343	-25.7196	1.470944E-006	0.0053748	8
	3	6	501234.4	3437.427	-1388.402	1	3707.231	-21.99414	-1.223738E-006	0.0054172	8
	4	8	398109.4	3624.939	-1252.056	1	3835.078	-19.05494	-1.882892E-006	0.0059436	8
	5	9	316265.6	3817.793	-1098.591	1	3972.712	-16.05346	-6.770559E-007	0.0056836	8
	6	11	251203.1	3948.197	-935.7875	1	4057.58	-13.33399	1.755054E-006	0.0049691	8
	7	12	199546.9	4052.462	-805.8644	1	4131.812	-11.247	-3.009919E-006	0.0059439	8
	8	14	158578.1	4103.537	-724.7981	1	4167.055	-10.01671	-7.674461E-007	0.0055721	8
	9	16	125953.1	4217.598	-565.9961	1	4255.406	-7.643353	-1.029949E-006	0.007583	7
	10	17	100078.1	4245.609	-512.6344	1	4276.446	-6.884827	-4.257377E-008	0.0053172	7
	11	18	79453.13	4289.245	-457.816	1	4313.608	-6.092445	-2.210066E-008	0.0053673	7
	12	20	63140.62	4326.007	-430.7119	1	4347.396	-5.685824	-3.546812E-008	0.0053071	7
	13	21	50203.12	4345.827	-403.2699	1	4364.497	-5.301565	-4.784793E-008	0.0053891	7
	14	22	39890.62	4401.848	-394.6779	1	4419.506	-5.123546	-6.37954E-008	0.0053931	7
	15	24	31640.63	4415.625	-396.1064	1	4433.356	-5.126032	1.171386E-007	0.0051111	7
	16	25	25171.88	4444.076	-397.1394	1	4461.785	-5.106603	-5.430819E-008	0.0053999	7
	17	26	20015.62	4480.554	-420.9973	1	4500.289	-5.367809	-6.341571E-008	0.0053892	7
	18	28	15890.62	4504.95	-459.7391	1	4528.348	-5.826976	-1.397769E-008	0.0052863	7
	19	29	12609.37	4542.386	-510.2383	1	4570.954	-6.409069	9.940804E-008	0.0052046	7
	20	30	10078.13	4573.777	-566.6603	1	4608.746	-7.062574	4.412086E-008	0.0052477	7
	21	32	8015.625	4609.445	-644.5489	1	4654.292	-7.960181	-5.341903E-008	0.0054014	7
	22	33	6328.125	4668.13	-751.4286	1	4728.222	-9.144454	-3.166604E-008	0.0052878	7
	23	34	5015.625	4703.875	-867.613	1	4783.22	-10.45055	1.692337E-008	0.0052185	7
	24	36	3984.375	4762.826	-1030.588	1	4873.05	-12.20953	-7.710506E-008	0.0053942	7
	25	37	3170.956	4822.325	-1231.944	1	4977.199	-14.33067	1.06444E-008	0.005228	7
	26	38	2527.573	4881.636	-1459.039	1	5095.014	-16.64053	-7.276227E-008	0.0053988	7
	27	40	1976.103	4958.27	-1778.672	1	5267.647	-19.73435	-1.967381E-008	0.0052929	7
	28	41	1577.524	5025.073	-2160.256	1	5469.741	-23.26265	-1.342763E-008	0.0053232	7
	29	42	1265.625	5155.346	-2557.254	1	5754.75	-26.38322	-7.900328E-009	0.0053133	7
	30	44	998.264	5264.526	-3089.238	1	6103.984	-30.40453	8.628354E-008	0.005134	7
	31	45	796.875	5427.056	-3741.477	1	6591.781	-34.58284	1.02596E-007	0.0051972	7
	32	47	627.7902	5609.202	-4575.335	1	7238.566	-39.20357	9.99873E-008	0.0052033	7
	33	48	505.5147	5845.961	-5497.47	1	8024.801	-43.24032	4.182974E-008	0.0052407	7
	34	50	397.9953	6093.553	-6754.078	1	9096.646	-47.94311	6.729226E-009	0.0053038	7
	35	51	315.5048	6414.293	-8250.454	1	10450.51	-52.13682	1.204127E-009	0.0052433	6
	36	52	252.4038	6791.762	-10004.05	1	12091.69	-55.82736	8.597775E-010	0.0052478	6
	37	54	198.6229	7290.855	-12314.29	1	14310.77	-59.37172	1.042057E-009	0.0052464	6
	38	55	158.3615	7884.614	-15012.16	1	16956.77	-62.29086	2.227421E-009	0.0052482	6
	39	56	125.558	8650.191	-18391.99	1	20324.64	-64.81127	1.148528E-009	0.0052448	6
	40	58	100.4464	9607.31	-22337.5	1	24315.93	-66.72757	2.608022E-009	0.005242	6
	41	59	79.00281	10856.44	-27497.98	1	29563.51	-68.45546	1.877921E-009	0.0052405	6
	42	60	63.3446	11808.92	-33535.27	1	35553.7	-70.60108	4.895126E-010	0.0052388	6
	43	62	49.86702	14898.87	-40685.59	1	43327.75	-69.8875	2.264036E-009	0.0052403	6
	44	63	39.72458	17752.78	-50024.29	1	53080.98	-70.46107	1.065449E-009	0.0052454	6
	45	65	31.6723	21388.56	-60494.23	1	64164.03	-70.52826	6.824218E-010	0.0052413	6
	46	66	24.93351	26910.02	-73849.6	1	78599.7	-69.97879	1.092227E-009	0.0052435	6
	47	68	19.86229	33703.46	-88486.77	1	94688.08	-69.14881	2.605194E-010	0.0052408	6
	48	69	15.83615	43509.9	-104761.2	1	113437.3	-67.44569	-4.732383E-010	0.0052432	5
	49	70	12.40079	53965.09	-126811.8	1	137816.7	-66.94769	5.282943E-010	0.0052444	5
	50	72	9.93114	68572.95	-147959	1	163077	-65.13421	4.274546E-010	0.0052421	5
	51	73	7.944915	86389.71	-171164.9	1	191730.6	-63.21918	-5.872979E-010	0.0052453	5
	52	75	6.317385	107221.5	-198339.7	1	225466.4	-61.60457	5.662873E-010	0.005235	5
	53	77	5.008013	132962	-227774.7	1	263742.7	-59.72602	9.354992E-011	0.0052494	5
	54	80	3.945707	163368.5	-260260.9	1	307286.5	-57.88308	-8.958876E-011	0.0052437	5
	55	82	3.158693	193505.2	-292057.4	1	350345.3	-56.47319	-6.131168E-011	0.0052381	5
	56	86	2.504006	228630.1	-329029.4	1	400664.6	-55.20602	3.935534E-010	0.0052531	5
	57	88	1.998082	265426.9	-368896.2	1	454462.1	-54.26435	4.205606E-010	0.0052597	5
	58	92	1.584686	305763.1	-413843.2	1	514545.7	-53.5416	1.884775E-010	0.0052068	5
	59	95	1.266892	346756.4	-466611.3	1	581348.5	-53.38257	2.658155E-010	0.0052706	5
	60	99	0.999041	393856.6	-531016.7	1	661136.7	-53.43557	-9.143388E-011	0.0052059	5
