EXPLAIN
TAG	EISPOT
TITLE	LABEL	Potentiostatic IDE	Test &Identifier
DATE	LABEL	9/18/2019	Date
TIME	LABEL	8:00:01	Time
NOTES	NOTES	1	&Notes...
	
PSTAT	PSTAT	REF600-11020	Potentiostat
VDC	POTEN	0.00000E+000	T	DC &Voltage (V)
FREQINIT	QUANT	1.00000E+006	Initial Fre&q. (Hz)
FREQFINAL	QUANT	1.00000E+000	Final Fre&q. (Hz)
PTSPERDEC	QUANT	1.00000E+001	Points/&decade
VAC	QUANT	2.50000E+001	AC &Voltage (mV rms)
AREA	QUANT	1.00000E-002	&Area (cm^2)
CONDIT	TWOPARAM	T	5.00000E+000	0.00000E+000	Conditionin&g	Time(s)	E(V)
DELAY	TWOPARAM	T	5.00000E+000	0.00000E+000	Init. De&lay	Time(s)	Stab.(mV/s)
SPEED	SELECTOR	1	&Optimize for:
ZGUESS	QUANT	1.00000E+007	E&stimated Z (ohms)
OCVCURVE	TABLE	19
	Pt	T	Vf	Vm	Ach	Over
	#	s	V vs. Ref.	V	V	bits
	0	0.258333	2.01146E-002	2.01146E-002	5.69099E-004	...........
	1	0.516667	2.01326E-002	2.10590E-002	5.69399E-004	...........
	2	0.775	2.02434E-002	2.19566E-002	5.68166E-004	...........
	3	1.03333	2.05565E-002	2.27835E-002	5.72166E-004	...........
	4	1.29167	2.11128E-002	2.35176E-002	5.75732E-004	...........
	5	1.55	2.18414E-002	2.41984E-002	5.69332E-004	...........
	6	1.80833	2.26288E-002	2.48468E-002	5.75399E-004	...........
	7	2.06667	2.33959E-002	2.55375E-002	5.71699E-004	...........
	8	2.325	2.41176E-002	2.61236E-002	5.72932E-004	...........
	9	2.58333	2.47978E-002	2.66913E-002	5.72932E-004	...........
	10	2.84167	2.54416E-002	2.72021E-002	5.74799E-004	...........
	11	3.1	2.60498E-002	2.78231E-002	5.69132E-004	...........
	12	3.35833	2.66284E-002	2.82792E-002	5.71499E-004	...........
	13	3.61667	2.71860E-002	2.87982E-002	5.69766E-004	...........
	14	3.875	2.77242E-002	2.92474E-002	5.68266E-004	...........
	15	4.13333	2.82400E-002	2.96994E-002	5.69266E-004	...........
	16	4.39167	2.87331E-002	3.01754E-002	5.67732E-004	...........
	17	4.65	2.92083E-002	3.06345E-002	5.68532E-004	...........
	18	4.90833	2.96727E-002	3.10247E-002	5.74032E-004	...........
EOC	QUANT	0.0296727	Open Circuit (V)
PSTATMODEL	IQUANT	4	Pstat Model
PSTATSECTION	LABEL	REF600-11020	Pstat Section
PSTATSERIALNO	LABEL	11020	Pstat Serial Number
CTRLMODE	IQUANT	1	Control Mode
IESTAB	IQUANT	0	I/E Stability
CASPEED	IQUANT	1	Control Amp Speed
CONVENTION	IQUANT	1	Current Convention
ICHRANGE	IQUANT	2	Ich Range
ICHRANGEMODE	TOGGLE	F	Ich Auto Range
ICHOFFSETENABLE	TOGGLE	T	Ich Offset Enable
ICHOFFSET	QUANT	0	Ich Offset (V)
ICHFILTER	IQUANT	3	Ich Filter
VCHRANGE	IQUANT	2	Vch Range
VCHRANGEMODE	TOGGLE	F	Vch Auto Range
VCHOFFSETENABLE	TOGGLE	T	Vch Offset Enable
VCHOFFSET	QUANT	0	Vch Offset (V)
VCHFILTER	IQUANT	3	Vch Filter
ACHRANGE	IQUANT	2	Ach Range
ACHOFFSETENABLE	TOGGLE	F	Ach Offset Enable
ACHOFFSET	QUANT	0	Ach Offset (V)
ACHFILTER	IQUANT	3	Ach Filter
IERANGELOWERLIMIT	IQUANT	1	I/E Range Lower Limit
IERANGEMODE	TOGGLE	F	I/E AutoRange
IERANGE	IQUANT	3	I/E Range
POSFEEDENABLE	TOGGLE	F	Positive Feedback IR Comp
POSFEEDRESISTANCE	QUANT	0	Positive Feedback Resistance (ohm)
ACHSELECT	IQUANT	0	Ach Select
CABLEID	IQUANT	14	Cable ID
DCCALDATE	LABEL	8/19/2019	DC Calibration Date
ACCALDATE	LABEL	8/19/2019	AC Calibration Date
THERMOSELECT	IQUANT	1	Thermo Select
FRAMEWORKVERSION	QUANT	6.33	Framework Version
INSTRUMENTVERSION	LABEL	3.50	Instrument Version
ZCURVE	TABLE
	Pt	Time	Freq	Zreal	Zimag	Zsig	Zmod	Zphz	Idc	Vdc	IERange
	#	s	Hz	ohm	ohm	V	ohm	°	A	V	#
	0	2	1000078	2108.346	-1359.898	1	2508.873	-32.8223	3.152131E-006	0.0317324	8
	1	4	794390.6	2367.252	-1274.255	1	2688.421	-28.29288	-2.718359E-006	0.0319358	8
	2	5	630984.4	2591.85	-1135.605	1	2829.715	-23.66038	-1.047849E-006	0.0318461	8
	3	6	501234.4	2759.226	-1020.749	1	2941.982	-20.30147	1.866201E-006	0.0310967	8
	4	8	398109.4	2896.424	-903.6565	1	3034.117	-17.32742	3.56827E-006	0.0305794	8
	5	9	316265.6	3020.941	-772.6429	1	3118.183	-14.34655	4.042661E-006	0.0304257	8
	6	10	251203.1	3086.736	-662.053	1	3156.937	-12.10558	-1.705182E-006	0.0316037	8
	7	12	199546.9	3150.997	-581.3029	1	3204.169	-10.45253	1.699574E-007	0.0312455	8
	8	13	158578.1	3191.006	-521.0007	1	3233.259	-9.272952	-1.972243E-006	0.0316585	8
	9	14	125953.1	3247.164	-435.4304	1	3276.228	-7.63755	5.210173E-007	0.0298641	7
	10	16	100078.1	3282.576	-398.5869	1	3306.686	-6.923249	5.956283E-009	0.0312968	7
	11	17	79453.13	3315.068	-379.7807	1	3336.751	-6.535424	8.638757E-008	0.0311111	7
	12	18	63140.62	3347.161	-369.4851	1	3367.493	-6.299241	-5.723983E-008	0.0313488	7
	13	20	50203.12	3380.535	-367.6562	1	3400.469	-6.206912	3.125038E-008	0.0312053	7
	14	21	39890.62	3414.539	-374.1223	1	3434.974	-6.252809	6.656335E-009	0.0312857	7
	15	22	31640.63	3451.682	-388.9229	1	3473.524	-6.428765	8.050238E-008	0.0311142	7
	16	24	25171.88	3490.731	-411.1729	1	3514.863	-6.71791	7.695503E-008	0.0311225	7
	17	25	20015.62	3533.213	-440.5635	1	3560.574	-7.107643	1.80548E-008	0.0311866	7
	18	26	15890.62	3582.23	-478.8619	1	3614.094	-7.613993	-4.920752E-008	0.0313379	7
	19	28	12609.37	3630.237	-526.252	1	3668.182	-8.248342	3.75934E-008	0.0311478	7
	20	29	10078.13	3682.571	-580.5247	1	3728.047	-8.958449	-4.452873E-008	0.031327	7
	21	30	8015.625	3743.415	-646.4425	1	3798.821	-9.79766	-2.73639E-008	0.0312953	7
	22	32	6328.125	3810.563	-727.1882	1	3879.328	-10.80413	-2.478071E-008	0.0313006	7
	23	33	5015.625	3880.945	-820.5498	1	3966.741	-11.93825	3.537592E-008	0.0311831	7
	24	34	3984.375	3956.193	-930.7963	1	4064.215	-13.23952	-1.977068E-008	0.0312999	7
	25	36	3170.956	4035.863	-1062.692	1	4173.428	-14.75183	5.957919E-008	0.031151	7
	26	37	2527.573	4118.799	-1219.862	1	4295.645	-16.49768	-1.981756E-008	0.0312957	7
	27	38	1976.103	4214.861	-1426.804	1	4449.812	-18.70186	-2.290703E-008	0.0312621	7
	28	40	1577.524	4308.452	-1662.046	1	4617.917	-21.09483	4.265431E-009	0.0312995	7
	29	41	1265.625	4404.598	-1938.186	1	4812.177	-23.75128	6.088406E-008	0.0311804	7
	30	42	998.264	4518.591	-2305.975	1	5072.986	-27.03661	-2.509796E-008	0.0312896	7
	31	44	796.875	4635.386	-2739.181	1	5384.229	-30.58004	-2.413532E-008	0.0312635	7
	32	45	627.7902	4771.293	-3306.372	1	5804.94	-34.72087	3.849751E-008	0.0311744	7
	33	46	505.5147	4905.4	-3944.959	1	6294.891	-38.8065	6.024491E-008	0.0311583	7
	34	48	397.9953	5076.384	-4820.694	1	7000.626	-43.5201	3.940347E-009	0.0312753	7
	35	49	315.5048	5273.333	-5881.654	1	7899.487	-48.12145	3.614034E-009	0.0312786	7
	36	50	252.4038	5501.17	-7144.003	1	9016.632	-52.40228	4.16593E-009	0.0312736	7
	37	52	198.6229	5806.955	-8824.694	1	10563.9	-56.6537	-1.263949E-009	0.0312151	6
	38	53	158.3615	6172.768	-10795.74	1	12435.88	-60.24002	-1.734512E-009	0.0312092	6
	39	54	125.558	6654.604	-13283.04	1	14856.75	-63.38982	-1.500408E-009	0.0312132	6
	40	56	100.4464	7249.231	-16212.39	1	17759.31	-65.90861	-8.015429E-010	0.0312115	6
	41	57	79.00281	8092.997	-20083.31	1	21652.62	-68.05198	-1.975923E-009	0.031211	6
	42	58	63.3446	9241.401	-24525.55	1	26208.9	-69.35324	-1.431658E-009	0.0312123	6
	43	60	49.86702	10538.76	-30201.04	1	31987.01	-70.76338	-1.475892E-009	0.0312113	6
	44	61	39.72458	12537.74	-36836.6	1	38911.82	-71.20344	-1.722602E-009	0.0312162	6
	45	62	31.6723	15042.72	-44833.83	1	47290.13	-71.45229	-1.320625E-009	0.0312152	6
	46	64	24.93351	18539.38	-54881.19	1	57928	-71.33455	-1.413228E-009	0.0312171	6
	47	65	19.86229	22922.41	-66362.52	1	70209.84	-70.94447	-6.222661E-010	0.0312269	6
	48	67	15.83615	28907.19	-79884.84	1	84954.18	-70.1068	-3.020874E-009	0.0312208	6
	49	68	12.40079	36528.55	-96729.4	1	103396.9	-69.31165	-1.544932E-009	0.031217	6
	50	69	9.93114	46275.41	-114619.4	1	123608.3	-68.01453	-2.195323E-009	0.0312179	5
	51	71	7.944915	58267.91	-135093.1	1	147123.4	-66.66866	-2.371775E-009	0.0312207	5
	52	73	6.317385	73413.73	-158746.3	1	174899.9	-65.18137	-2.422E-009	0.0312346	5
	53	75	5.008013	92848.84	-185526.9	1	207463.6	-63.41386	-1.835573E-009	0.0312262	5
	54	77	3.945707	116957.7	-216193.5	1	245802.3	-61.58722	-2.36614E-009	0.0312157	5
	55	80	3.158693	144264	-247381.6	1	286373.4	-59.75081	-1.826603E-009	0.0312274	5
	56	83	2.504006	177916.6	-282067.7	1	333491.4	-57.75797	-2.425331E-009	0.031228	5
	57	86	1.998082	214457.1	-317196.8	1	382891.2	-55.93734	-1.69544E-009	0.0311953	5
	58	89	1.584686	258976.1	-356870.2	1	440936.5	-54.03209	-2.241549E-009	0.0311667	5
	59	92	1.266892	304596.1	-396245.4	1	499789.2	-52.45032	-1.731905E-009	0.0312083	5
	60	97	0.999041	360180	-442699.4	1	570712.3	-50.86822	-2.558017E-009	0.0312011	5
