EXPLAIN
TAG	EISPOT
TITLE	LABEL	Potentiostatic EIS	Test &Identifier
DATE	LABEL	10/28/2019	Date
TIME	LABEL	10:47:59	Time
NOTES	NOTES	1	&Notes...
	
PSTAT	PSTAT	REF600-11020	Potentiostat
VDC	POTEN	0.00000E+000	T	DC &Voltage (V)
FREQINIT	QUANT	1.00000E+006	Initial Fre&q. (Hz)
FREQFINAL	QUANT	1.00000E+000	Final Fre&q. (Hz)
PTSPERDEC	QUANT	1.00000E+001	Points/&decade
VAC	QUANT	2.50000E+001	AC &Voltage (mV rms)
AREA	QUANT	1.00000E-002	&Area (cm^2)
CONDIT	TWOPARAM	T	5.00000E+000	0.00000E+000	Conditionin&g	Time(s)	E(V)
DELAY	TWOPARAM	T	5.00000E+000	0.00000E+000	Init. De&lay	Time(s)	Stab.(mV/s)
SPEED	SELECTOR	1	&Optimize for:
ZGUESS	QUANT	1.00000E+005	E&stimated Z (ohms)
OCVCURVE	TABLE	19
	Pt	T	Vf	Vm	Ach	Over
	#	s	V vs. Ref.	V	V	bits
	0	0.258333	8.26850E-003	8.26850E-003	5.62799E-004	...........
	1	0.516667	8.26748E-003	8.21523E-003	5.60166E-004	...........
	2	0.775	8.26202E-003	8.20613E-003	5.62932E-004	...........
	3	1.03333	8.24931E-003	8.20247E-003	5.57699E-004	...........
	4	1.29167	8.23222E-003	8.20670E-003	5.58099E-004	...........
	5	1.55	8.21777E-003	8.22663E-003	5.58199E-004	...........
	6	1.80833	8.21137E-003	8.23851E-003	5.60599E-004	...........
	7	2.06667	8.21432E-003	8.26302E-003	5.53032E-004	...........
	8	2.325	8.22496E-003	8.27686E-003	5.59466E-004	...........
	9	2.58333	8.24051E-003	8.30140E-003	5.63166E-004	...........
	10	2.84167	8.25875E-003	8.32274E-003	5.59899E-004	...........
	11	3.1	8.27871E-003	8.35385E-003	5.59199E-004	...........
	12	3.35833	8.30054E-003	8.37738E-003	5.59432E-004	...........
	13	3.61667	8.32457E-003	8.41345E-003	5.63399E-004	...........
	14	3.875	8.35102E-003	8.44938E-003	5.64099E-004	...........
	15	4.13333	8.38032E-003	8.48898E-003	5.58799E-004	...........
	16	4.39167	8.41268E-003	8.51833E-003	5.62599E-004	...........
	17	4.65	8.44707E-003	8.54900E-003	5.63599E-004	...........
	18	4.90833	8.48154E-003	8.57877E-003	5.62666E-004	...........
EOC	QUANT	0.0084815	Open Circuit (V)
PSTATMODEL	IQUANT	4	Pstat Model
PSTATSECTION	LABEL	REF600-11020	Pstat Section
PSTATSERIALNO	LABEL	11020	Pstat Serial Number
CTRLMODE	IQUANT	1	Control Mode
IESTAB	IQUANT	0	I/E Stability
CASPEED	IQUANT	1	Control Amp Speed
CONVENTION	IQUANT	1	Current Convention
ICHRANGE	IQUANT	2	Ich Range
ICHRANGEMODE	TOGGLE	F	Ich Auto Range
ICHOFFSETENABLE	TOGGLE	T	Ich Offset Enable
ICHOFFSET	QUANT	0	Ich Offset (V)
ICHFILTER	IQUANT	3	Ich Filter
VCHRANGE	IQUANT	2	Vch Range
VCHRANGEMODE	TOGGLE	F	Vch Auto Range
VCHOFFSETENABLE	TOGGLE	T	Vch Offset Enable
VCHOFFSET	QUANT	0	Vch Offset (V)
VCHFILTER	IQUANT	3	Vch Filter
ACHRANGE	IQUANT	2	Ach Range
ACHOFFSETENABLE	TOGGLE	F	Ach Offset Enable
ACHOFFSET	QUANT	0	Ach Offset (V)
ACHFILTER	IQUANT	3	Ach Filter
IERANGELOWERLIMIT	IQUANT	1	I/E Range Lower Limit
IERANGEMODE	TOGGLE	F	I/E AutoRange
IERANGE	IQUANT	5	I/E Range
POSFEEDENABLE	TOGGLE	F	Positive Feedback IR Comp
POSFEEDRESISTANCE	QUANT	0	Positive Feedback Resistance (ohm)
ACHSELECT	IQUANT	0	Ach Select
CABLEID	IQUANT	14	Cable ID
DCCALDATE	LABEL	8/19/2019	DC Calibration Date
ACCALDATE	LABEL	8/19/2019	AC Calibration Date
THERMOSELECT	IQUANT	1	Thermo Select
FRAMEWORKVERSION	QUANT	6.33	Framework Version
INSTRUMENTVERSION	LABEL	3.50	Instrument Version
ZCURVE	TABLE
	Pt	Time	Freq	Zreal	Zimag	Zsig	Zmod	Zphz	Idc	Vdc	IERange
	#	s	Hz	ohm	ohm	V	ohm	°	A	V	#
	0	2	1000078	2098.844	-986.67	1	2319.195	-25.17829	-3.741113E-006	0.0111927	8
	1	3	794390.6	2237.242	-894.8346	1	2409.561	-21.80003	3.798696E-006	0.0099168	8
	2	5	630984.4	2373.368	-811.5109	1	2508.271	-18.87678	-3.563184E-006	0.0105944	8
	3	6	501234.4	2469.827	-730.6177	1	2575.625	-16.47914	2.649525E-006	0.0096236	8
	4	8	398109.4	2567.238	-654.8664	1	2649.446	-14.31018	2.519266E-006	0.0095431	8
	5	9	316265.6	2630.2	-598.5642	1	2697.449	-12.82066	-4.195761E-006	0.0108823	8
	6	11	251203.1	2688.799	-552.2484	1	2744.926	-11.60649	3.218132E-007	0.0099162	8
	7	12	199546.9	2749.01	-512.1937	1	2796.318	-10.55429	-1.193178E-006	0.0104582	8
	8	14	158578.1	2786.413	-494.81	1	2830.006	-10.06959	-5.301788E-007	0.0102171	8
	9	15	125953.1	2859.776	-431.1999	1	2892.101	-8.574526	7.4382E-008	0.0099481	7
	10	16	100078.1	2903.74	-418.6871	1	2933.769	-8.204869	-1.11992E-008	0.0100525	7
	11	18	79453.13	2947.698	-434.3512	1	2979.528	-8.382363	-5.479573E-008	0.0100708	7
	12	19	63140.62	2996.745	-456.56	1	3031.324	-8.662512	-4.323481E-008	0.0100279	7
	13	20	50203.12	3050.131	-484.4824	1	3088.368	-9.025455	-4.175805E-008	0.0100187	7
	14	22	39890.62	3107.157	-518.4138	1	3150.107	-9.472268	-6.628797E-008	0.0100963	7
	15	23	31640.63	3169.26	-557.8458	1	3217.981	-9.98281	-4.535226E-008	0.0100256	7
	16	25	25171.88	3235.944	-603.8643	1	3291.806	-10.57047	-3.570912E-010	0.0099204	7
	17	26	20015.62	3308.519	-652.716	1	3372.289	-11.16019	-6.174727E-011	0.0099235	7
	18	27	15890.62	3384.111	-716.8898	1	3459.211	-11.96071	4.878711E-008	0.0098434	7
	19	29	12609.37	3469.972	-788.3684	1	3558.403	-12.80016	-4.407084E-008	0.0100228	7
	20	30	10078.13	3554.298	-868.0322	1	3658.759	-13.72416	1.467149E-008	0.0099236	7
	21	31	8015.625	3644.678	-957.127	1	3768.258	-14.71417	-4.322229E-008	0.0100225	7
	22	33	6328.125	3741.347	-1074.91	1	3892.7	-16.02966	1.228212E-008	0.0099195	7
	23	34	5015.625	3841.818	-1210.228	1	4027.929	-17.48517	-4.144235E-008	0.0101422	7
	24	35	3984.375	3941.092	-1367.081	1	4171.464	-19.13057	-5.324867E-008	0.0100569	7
	25	37	3170.956	4047.591	-1560.478	1	4337.981	-21.08327	1.42267E-007	0.0097834	7
	26	38	2527.573	4154.542	-1797.353	1	4526.665	-23.39445	8.830343E-008	0.0098396	7
	27	40	1976.103	4270.365	-2118.386	1	4766.925	-26.38448	8.485296E-008	0.0098171	7
	28	41	1577.524	4398.883	-2492.15	1	5055.787	-29.53335	7.729569E-008	0.0099614	7
	29	42	1265.625	4498.639	-2934.694	1	5371.236	-33.11848	-1.24228E-008	0.0100402	7
	30	44	998.264	4635.497	-3533.808	1	5828.862	-37.31959	-9.280015E-010	0.0099223	7
	31	45	796.875	4790.118	-4245.866	1	6400.985	-41.55315	4.920435E-008	0.0098325	7
	32	46	627.7902	4969.231	-5181.997	1	7179.579	-46.20072	-6.709694E-009	0.0100354	7
	33	48	505.5147	5164.196	-6242.168	1	8101.456	-50.39877	-6.491294E-008	0.0100881	7
	34	49	397.9953	5433.601	-7678.309	1	9406.404	-54.71464	5.436704E-009	0.0100153	7
	35	50	315.5048	5756.98	-9412.426	1	11033.43	-58.54853	4.104417E-010	0.0099538	6
	36	52	252.4038	6131.82	-11459.39	1	12996.8	-61.84916	6.447183E-010	0.0099484	6
	37	53	198.6229	6644.798	-14179.75	1	15659.46	-64.89166	5.9142E-010	0.0099491	6
	38	55	158.3615	7269.186	-17345.28	1	18806.91	-67.26206	7.160564E-010	0.0099484	6
	39	56	125.558	8070.708	-21317.33	1	22793.97	-69.26341	3.838307E-010	0.0099493	6
	40	57	100.4464	9066.047	-25965.42	1	27502.66	-70.75291	2.036056E-009	0.0099425	6
	41	59	79.00281	10584.49	-32212.93	1	33907.29	-71.81056	6.668273E-010	0.0099442	6
	42	60	63.3446	12753.09	-39174.23	1	41197.83	-71.96745	2.554218E-010	0.0099415	6
	43	62	49.86702	14021.75	-48344.36	1	50336.73	-73.82578	-6.05076E-010	0.0099475	6
	44	63	39.72458	17361.47	-58654.07	1	61169.61	-73.51136	6.577789E-010	0.0099472	6
	45	64	31.6723	21259.08	-71091.04	1	74201.65	-73.35122	1.664516E-010	0.0099443	6
	46	66	24.93351	26536.38	-87309.38	1	91252.99	-73.09413	2.690911E-010	0.0099444	6
	47	67	19.86229	33204.64	-105506.1	1	110607.8	-72.5303	4.0367E-010	0.0099519	5
	48	69	15.83615	39735.99	-127070	1	133138	-72.63504	-1.993572E-009	0.0099489	5
	49	70	12.40079	56631.43	-154362.4	1	164422.9	-69.85327	2.035015E-009	0.0099477	5
	50	72	9.93114	69444.39	-183547	1	196244.8	-69.27602	6.700419E-010	0.0099496	5
	51	73	7.944915	86671.52	-217333.9	1	233978.5	-68.25816	9.76969E-011	0.0099457	5
	52	75	6.317385	110465	-255277.1	1	278152.7	-66.60062	-1.257842E-011	0.0099466	5
	53	77	5.008013	140284	-299272.8	1	330520.5	-64.88519	-3.853229E-011	0.0099439	5
	54	79	3.945707	175715.4	-349187.4	1	390906.3	-63.2879	2.127268E-010	0.0099517	5
	55	82	3.158693	214846.1	-400957.2	1	454890.7	-61.81612	-8.961945E-011	0.0099307	5
	56	85	2.504006	261609.5	-461188.3	1	530220.9	-60.43588	3.787831E-010	0.0099531	5
	57	88	1.998082	313556.4	-525589.8	1	612014.9	-59.18054	1.483893E-010	0.0099863	5
	58	91	1.584686	371140.8	-598132.6	1	703923.4	-58.18043	1.439451E-010	0.0099323	5
	59	95	1.266892	435617.2	-680064.9	1	807620.3	-57.35831	6.384968E-011	0.0099903	5
	60	99	0.999041	508569.4	-777192.6	1	928800.9	-56.80058	8.169978E-012	0.0099039	5
