EXPLAIN
TAG	EISPOT
TITLE	LABEL	Potentiostatic EIS	Test &Identifier
DATE	LABEL	11/11/2019	Date
TIME	LABEL	14:09:26	Time
NOTES	NOTES	3	&Notes...
	
	
	
PSTAT	PSTAT	REF600-11020	Potentiostat
VDC	POTEN	0.00000E+000	T	DC &Voltage (V)
FREQINIT	QUANT	1.00000E+006	Initial Fre&q. (Hz)
FREQFINAL	QUANT	1.00000E+000	Final Fre&q. (Hz)
PTSPERDEC	QUANT	1.00000E+001	Points/&decade
VAC	QUANT	2.50000E+001	AC &Voltage (mV rms)
AREA	QUANT	1.00000E-002	&Area (cm^2)
CONDIT	TWOPARAM	T	5.00000E+000	0.00000E+000	Conditionin&g	Time(s)	E(V)
DELAY	TWOPARAM	T	5.00000E+000	0.00000E+000	Init. De&lay	Time(s)	Stab.(mV/s)
SPEED	SELECTOR	1	&Optimize for:
ZGUESS	QUANT	1.00000E+005	E&stimated Z (ohms)
OCVCURVE	TABLE	19
	Pt	T	Vf	Vm	Ach	Over
	#	s	V vs. Ref.	V	V	bits
	0	0.258333	5.12625E-003	5.12625E-003	5.11633E-004	...........
	1	0.516667	5.13374E-003	5.51809E-003	5.03300E-004	...........
	2	0.775	5.16767E-003	5.25956E-003	5.03367E-004	...........
	3	1.03333	5.22821E-003	5.24953E-003	5.04500E-004	...........
	4	1.29167	5.27770E-003	5.17621E-003	4.98367E-004	...........
	5	1.55	5.27189E-003	4.54381E-003	5.09900E-004	...........
	6	1.80833	5.18377E-003	4.73128E-003	5.02700E-004	...........
	7	2.06667	5.02690E-003	4.78042E-003	5.00367E-004	...........
	8	2.325	4.86888E-003	4.67890E-003	5.07733E-004	...........
	9	2.58333	4.76732E-003	4.66516E-003	5.02767E-004	...........
	10	2.84167	4.71190E-003	4.33351E-003	5.04600E-004	...........
	11	3.1	4.65453E-003	4.36835E-003	5.02733E-004	...........
	12	3.35833	4.57154E-003	4.47767E-003	5.05467E-004	...........
	13	3.61667	4.48669E-003	4.34511E-003	5.08667E-004	...........
	14	3.875	4.42980E-003	4.35983E-003	5.07667E-004	...........
	15	4.13333	4.39559E-003	4.18589E-003	5.07933E-004	...........
	16	4.39167	4.37066E-003	4.79186E-003	5.05400E-004	...........
	17	4.65	4.37705E-003	4.63508E-003	4.99067E-004	...........
	18	4.90833	4.43846E-003	4.52292E-003	5.03567E-004	...........
EOC	QUANT	0.0044385	Open Circuit (V)
PSTATMODEL	IQUANT	4	Pstat Model
PSTATSECTION	LABEL	REF600-11020	Pstat Section
PSTATSERIALNO	LABEL	11020	Pstat Serial Number
CTRLMODE	IQUANT	1	Control Mode
IESTAB	IQUANT	0	I/E Stability
CASPEED	IQUANT	1	Control Amp Speed
CONVENTION	IQUANT	1	Current Convention
ICHRANGE	IQUANT	2	Ich Range
ICHRANGEMODE	TOGGLE	F	Ich Auto Range
ICHOFFSETENABLE	TOGGLE	T	Ich Offset Enable
ICHOFFSET	QUANT	0	Ich Offset (V)
ICHFILTER	IQUANT	3	Ich Filter
VCHRANGE	IQUANT	2	Vch Range
VCHRANGEMODE	TOGGLE	F	Vch Auto Range
VCHOFFSETENABLE	TOGGLE	T	Vch Offset Enable
VCHOFFSET	QUANT	0	Vch Offset (V)
VCHFILTER	IQUANT	3	Vch Filter
ACHRANGE	IQUANT	2	Ach Range
ACHOFFSETENABLE	TOGGLE	F	Ach Offset Enable
ACHOFFSET	QUANT	0	Ach Offset (V)
ACHFILTER	IQUANT	3	Ach Filter
IERANGELOWERLIMIT	IQUANT	1	I/E Range Lower Limit
IERANGEMODE	TOGGLE	F	I/E AutoRange
IERANGE	IQUANT	4	I/E Range
POSFEEDENABLE	TOGGLE	F	Positive Feedback IR Comp
POSFEEDRESISTANCE	QUANT	0	Positive Feedback Resistance (ohm)
ACHSELECT	IQUANT	0	Ach Select
CABLEID	IQUANT	14	Cable ID
DCCALDATE	LABEL	8/19/2019	DC Calibration Date
ACCALDATE	LABEL	8/19/2019	AC Calibration Date
THERMOSELECT	IQUANT	1	Thermo Select
FRAMEWORKVERSION	QUANT	6.33	Framework Version
INSTRUMENTVERSION	LABEL	3.50	Instrument Version
ZCURVE	TABLE
	Pt	Time	Freq	Zreal	Zimag	Zsig	Zmod	Zphz	Idc	Vdc	IERange
	#	s	Hz	ohm	ohm	V	ohm	°	A	V	#
	0	2	1000078	2585.132	-1649.167	1	3066.375	-32.53557	8.992481E-007	0.0075424	8
	1	3	794390.6	2906.524	-1547.132	1	3292.643	-28.02621	1.905611E-006	0.0059656	8
	2	5	630984.4	3186.219	-1405.163	1	3482.309	-23.79809	5.706499E-006	0.0051423	8
	3	6	501234.4	3405.212	-1237.279	1	3623.027	-19.96854	-2.827338E-006	0.0063443	8
	4	7	398109.4	3575.105	-1080.952	1	3734.948	-16.82297	5.57546E-006	0.0054694	8
	5	9	316265.6	3695.771	-931.3258	1	3811.311	-14.14392	-2.547151E-006	0.0065263	8
	6	10	251203.1	3798.012	-809.3773	1	3883.296	-12.03009	-3.016476E-006	0.0065568	8
	7	11	199546.9	3882.552	-690.2213	1	3943.427	-10.08045	-8.558721E-008	0.0058251	8
	8	13	158578.1	3952.411	-589.683	1	3996.158	-8.485695	4.915842E-006	0.005475	8
	9	14	125953.1	4007.417	-465.1833	1	4034.326	-6.621294	-2.055209E-006	0.0089054	7
	10	15	100078.1	4039.247	-421.5381	1	4061.183	-5.957854	8.774922E-007	0.0054316	7
	11	17	79453.13	4070.356	-390.1277	1	4089.01	-5.474852	6.876695E-007	0.0044866	7
	12	18	63140.62	4098.211	-372.1115	1	4115.07	-5.188144	3.283643E-007	0.006497	7
	13	19	50203.12	4128.606	-362.3583	1	4144.478	-5.015866	7.187518E-007	0.0058439	7
	14	21	39890.62	4158.72	-361.9705	1	4174.443	-4.974427	6.891197E-007	0.0044788	7
	15	22	31640.63	4183.44	-369.5466	1	4199.73	-5.048153	-9.028551E-007	0.0064517	7
	16	23	25171.88	4212.384	-388.4778	1	4230.26	-5.269072	-9.556873E-007	0.0074205	7
	17	25	20015.62	4249.989	-420.046	1	4270.696	-5.644475	8.601399E-007	0.004559	7
	18	26	15890.62	4274.735	-459.2177	1	4299.33	-6.131543	-5.481958E-007	0.0074165	7
	19	27	12609.37	4314.819	-513.6147	1	4345.281	-6.788265	5.237378E-007	0.0062168	7
	20	29	10078.13	4345.922	-586.848	1	4385.366	-7.69037	-9.54623E-007	0.0074158	7
	21	30	8015.625	4385.95	-662.6013	1	4435.719	-8.590915	-2.617068E-007	0.0072005	7
	22	31	6328.125	4433.396	-771.014	1	4499.941	-9.86566	-1.062807E-006	0.007269	7
	23	33	5015.625	4485.113	-903.1606	1	4575.143	-11.38531	5.242925E-007	0.0062102	7
	24	34	3984.375	4539.366	-1067.688	1	4663.239	-13.23575	-2.6256E-007	0.0072053	7
	25	36	3170.956	4601.564	-1266.089	1	4772.565	-15.38388	4.370228E-007	0.0045485	7
	26	37	2527.573	4666.668	-1510.986	1	4905.188	-17.94105	5.276852E-007	0.0062107	7
	27	38	1976.103	4753.389	-1833.872	1	5094.879	-21.09677	-2.648588E-007	0.0072007	7
	28	40	1577.524	4827.779	-2198.006	1	5304.59	-24.47897	-6.265471E-007	0.0058508	7
	29	41	1265.625	4958.334	-2643.843	1	5619.162	-28.06707	7.231524E-007	0.0058312	7
	30	42	998.264	5097.598	-3221.9	1	6030.435	-32.29464	8.608839E-007	0.0045458	7
	31	44	796.875	5254.626	-3887.148	1	6536.132	-36.49245	-2.509209E-007	0.0052517	7
	32	45	627.7902	5455.24	-4755.256	1	7236.857	-41.0782	4.346392E-007	0.0045393	7
	33	46	505.5147	5671.279	-5708.392	1	8046.685	-45.18686	-2.56586E-007	0.005249	7
	34	48	397.9953	5960.322	-7001.41	1	9194.845	-49.59215	2.828719E-009	0.0060375	7
	35	49	315.5048	6305.349	-8546.679	1	10620.88	-53.58179	1.686393E-009	0.0059709	6
	36	51	252.4038	6709.077	-10368.46	1	12349.76	-57.09447	7.15607E-010	0.005971	6
	37	52	198.6229	7251.706	-12770.7	1	14685.98	-60.41038	8.549154E-010	0.0059703	6
	38	53	158.3615	7909.22	-15559	1	17453.89	-63.05407	5.769786E-010	0.0059747	6
	39	55	125.558	8770.919	-19059.13	1	20980.45	-65.28834	6.685979E-010	0.0059714	6
	40	56	100.4464	9854.25	-23163.65	1	25172.63	-66.95418	1.228377E-009	0.0059739	6
	41	57	79.00281	11440.79	-28466.07	1	30679.13	-68.10433	3.227763E-010	0.0059681	6
	42	59	63.3446	13159.16	-34233.87	1	36675.89	-68.97373	8.692505E-010	0.0059627	6
	43	60	49.86702	16204.28	-42146.73	1	45154.46	-68.9696	6.552417E-010	0.0059582	6
	44	61	39.72458	19438.66	-50819.51	1	54410.33	-69.06796	9.989506E-011	0.0059661	6
	45	63	31.6723	23886.77	-60863.76	1	65383.3	-68.57183	7.948213E-010	0.0059609	6
	46	64	24.93351	29766.9	-73364.04	1	79172.91	-67.91552	1.168549E-009	0.0059647	6
	47	66	19.86229	36816.17	-87161.12	1	94617.61	-67.10119	7.2046E-010	0.0059697	6
	48	67	15.83615	45599.65	-102313.5	1	112015.1	-65.97816	6.334058E-010	0.0059759	5
	49	68	12.40079	57068.03	-121600.6	1	134326	-64.859	5.905335E-010	0.0059721	5
	50	70	9.93114	69733.95	-140853.5	1	157170.4	-63.66084	8.697364E-010	0.0059594	5
	51	71	7.944915	84654.38	-164287.6	1	184815.5	-62.73878	2.762607E-010	0.0059762	5
	52	73	6.317385	101373.1	-189084.2	1	214544.5	-61.80306	-9.963028E-011	0.0059693	5
	53	75	5.008013	121529.3	-219006.5	1	250466	-60.97358	-9.182442E-011	0.0059686	5
	54	77	3.945707	145070.3	-253611	1	292171	-60.22963	4.53497E-010	0.0059735	5
	55	80	3.158693	170240.9	-291381.7	1	337468.9	-59.70423	-4.910692E-011	0.0059658	5
	56	83	2.504006	199660.7	-336287.8	1	391093.1	-59.30156	4.621148E-010	0.0059649	5
	57	86	1.998082	230907.8	-386410.5	1	450146.1	-59.13868	1.905517E-011	0.0060107	5
	58	89	1.584686	267165.3	-449108.7	1	522566.7	-59.25248	3.385551E-010	0.0059874	5
	59	93	1.266892	309267.7	-517287.7	1	602688.2	-59.12632	-8.633235E-012	0.0060096	5
	60	97	0.999041	356669.3	-601692.7	1	699462	-59.34153	8.492747E-011	0.0059429	5
