EXPLAIN
TAG	EISPOT
TITLE	LABEL	Potentiostatic EIS	Test &Identifier
DATE	LABEL	10/22/2019	Date
TIME	LABEL	8:19:24	Time
NOTES	NOTES	1	&Notes...
	
PSTAT	PSTAT	REF600-11020	Potentiostat
VDC	POTEN	0.00000E+000	T	DC &Voltage (V)
FREQINIT	QUANT	1.00000E+006	Initial Fre&q. (Hz)
FREQFINAL	QUANT	1.00000E+000	Final Fre&q. (Hz)
PTSPERDEC	QUANT	1.00000E+001	Points/&decade
VAC	QUANT	2.50000E+001	AC &Voltage (mV rms)
AREA	QUANT	1.00000E-002	&Area (cm^2)
CONDIT	TWOPARAM	T	5.00000E+000	0.00000E+000	Conditionin&g	Time(s)	E(V)
DELAY	TWOPARAM	T	5.00000E+000	0.00000E+000	Init. De&lay	Time(s)	Stab.(mV/s)
SPEED	SELECTOR	1	&Optimize for:
ZGUESS	QUANT	1.00000E+005	E&stimated Z (ohms)
OCVCURVE	TABLE	19
	Pt	T	Vf	Vm	Ach	Over
	#	s	V vs. Ref.	V	V	bits
	0	0.258333	5.08424E-003	5.08424E-003	5.49299E-004	...........
	1	0.516667	5.08546E-003	5.14810E-003	5.54333E-004	...........
	2	0.775	5.09286E-003	5.20365E-003	5.48966E-004	...........
	3	1.03333	5.11374E-003	5.27130E-003	5.47933E-004	...........
	4	1.29167	5.15180E-003	5.34238E-003	5.54999E-004	...........
	5	1.55	5.20493E-003	5.41854E-003	5.50966E-004	...........
	6	1.80833	5.26862E-003	5.49518E-003	5.47699E-004	...........
	7	2.06667	5.33900E-003	5.57634E-003	5.44466E-004	...........
	8	2.325	5.41358E-003	5.65599E-003	5.44933E-004	...........
	9	2.58333	5.49076E-003	5.72980E-003	5.45899E-004	...........
	10	2.84167	5.56892E-003	5.80035E-003	5.53799E-004	...........
	11	3.1	5.64628E-003	5.87456E-003	5.44599E-004	...........
	12	3.35833	5.72177E-003	5.94578E-003	5.47733E-004	...........
	13	3.61667	5.79541E-003	6.01109E-003	5.54666E-004	...........
	14	3.875	5.86760E-003	6.09221E-003	5.46033E-004	...........
	15	4.13333	5.93831E-003	6.11847E-003	5.48933E-004	...........
	16	4.39167	6.00578E-003	6.18573E-003	5.46266E-004	...........
	17	4.65	6.06815E-003	6.25566E-003	5.48766E-004	...........
	18	4.90833	6.12726E-003	6.32161E-003	5.52733E-004	...........
EOC	QUANT	0.0061273	Open Circuit (V)
PSTATMODEL	IQUANT	4	Pstat Model
PSTATSECTION	LABEL	REF600-11020	Pstat Section
PSTATSERIALNO	LABEL	11020	Pstat Serial Number
CTRLMODE	IQUANT	1	Control Mode
IESTAB	IQUANT	0	I/E Stability
CASPEED	IQUANT	1	Control Amp Speed
CONVENTION	IQUANT	1	Current Convention
ICHRANGE	IQUANT	2	Ich Range
ICHRANGEMODE	TOGGLE	F	Ich Auto Range
ICHOFFSETENABLE	TOGGLE	T	Ich Offset Enable
ICHOFFSET	QUANT	0	Ich Offset (V)
ICHFILTER	IQUANT	3	Ich Filter
VCHRANGE	IQUANT	2	Vch Range
VCHRANGEMODE	TOGGLE	F	Vch Auto Range
VCHOFFSETENABLE	TOGGLE	T	Vch Offset Enable
VCHOFFSET	QUANT	0	Vch Offset (V)
VCHFILTER	IQUANT	3	Vch Filter
ACHRANGE	IQUANT	2	Ach Range
ACHOFFSETENABLE	TOGGLE	F	Ach Offset Enable
ACHOFFSET	QUANT	0	Ach Offset (V)
ACHFILTER	IQUANT	3	Ach Filter
IERANGELOWERLIMIT	IQUANT	1	I/E Range Lower Limit
IERANGEMODE	TOGGLE	F	I/E AutoRange
IERANGE	IQUANT	5	I/E Range
POSFEEDENABLE	TOGGLE	F	Positive Feedback IR Comp
POSFEEDRESISTANCE	QUANT	0	Positive Feedback Resistance (ohm)
ACHSELECT	IQUANT	0	Ach Select
CABLEID	IQUANT	14	Cable ID
DCCALDATE	LABEL	8/19/2019	DC Calibration Date
ACCALDATE	LABEL	8/19/2019	AC Calibration Date
THERMOSELECT	IQUANT	1	Thermo Select
FRAMEWORKVERSION	QUANT	6.33	Framework Version
INSTRUMENTVERSION	LABEL	3.50	Instrument Version
ZCURVE	TABLE
	Pt	Time	Freq	Zreal	Zimag	Zsig	Zmod	Zphz	Idc	Vdc	IERange
	#	s	Hz	ohm	ohm	V	ohm	°	A	V	#
	0	2	1000078	2448.672	-1143.334	1	2702.444	-25.02881	8.307513E-006	0.0076596	8
	1	3	794390.6	2642.128	-1086.405	1	2856.766	-22.35176	-4.629139E-006	0.0086406	8
	2	5	630984.4	2802.238	-1000.492	1	2975.487	-19.64826	-3.996811E-006	0.0092697	8
	3	6	501234.4	2952.655	-929.3896	1	3095.47	-17.47213	1.482974E-006	0.0077001	8
	4	8	398109.4	3074.025	-864.3089	1	3193.221	-15.70413	-3.677994E-007	0.0080558	8
	5	9	316265.6	3208.326	-799.4011	1	3306.418	-13.99118	-2.958829E-006	0.0084883	8
	6	10	251203.1	3311.587	-723.881	1	3389.781	-12.33036	-2.809623E-006	0.0084897	8
	7	12	199546.9	3408.287	-658.8632	1	3471.386	-10.94101	1.38867E-006	0.0077378	8
	8	13	158578.1	3489.371	-598.3231	1	3540.296	-9.7299	-2.089199E-006	0.0082548	8
	9	14	125953.1	3586.944	-493.5456	1	3620.74	-7.834419	-7.820726E-007	0.0094447	7
	10	16	100078.1	3637.19	-435.751	1	3663.2	-6.831718	3.836849E-008	0.0076758	7
	11	17	79453.13	3690.201	-396.1863	1	3711.408	-6.127901	-6.187174E-008	0.0079716	7
	12	18	63140.62	3729.091	-359.8694	1	3746.415	-5.512161	3.568687E-008	0.0077709	7
	13	20	50203.12	3767.985	-330.6126	1	3782.462	-5.014435	3.890293E-008	0.0076616	7
	14	21	39890.62	3799.572	-307.1664	1	3811.968	-4.621874	6.689196E-009	0.007736	7
	15	22	31640.63	3823.976	-291.2928	1	3835.055	-4.356115	-1.636236E-008	0.0079363	7
	16	24	25171.88	3847.394	-283.8507	1	3857.851	-4.21949	-9.033254E-009	0.0078419	7
	17	25	20015.62	3873.103	-279.6266	1	3883.184	-4.129421	-1.534193E-008	0.0078492	7
	18	27	15890.62	3887.263	-294.1412	1	3898.375	-4.327208	8.080034E-009	0.0077343	7
	19	28	12609.37	3905.523	-314.1497	1	3918.138	-4.598815	-1.787669E-008	0.0079366	7
	20	29	10078.13	3925.469	-343.846	1	3940.5	-5.005967	7.841301E-008	0.007628	7
	21	31	8015.625	3944.425	-384.8454	1	3963.155	-5.572536	-1.572484E-008	0.0079307	7
	22	32	6328.125	3966.543	-444.1308	1	3991.33	-6.388755	-1.546071E-008	0.0079366	7
	23	33	5015.625	3990.643	-519.2206	1	4024.279	-7.413083	-7.894592E-008	0.0079253	7
	24	35	3984.375	4022.979	-622.7187	1	4070.889	-8.799008	7.761602E-008	0.0076308	7
	25	36	3170.956	4046.55	-727.2457	1	4111.381	-10.18843	-3.223017E-008	0.007806	7
	26	37	2527.573	4081.372	-870.3422	1	4173.139	-12.03787	-4.15877E-008	0.0078736	7
	27	39	1976.103	4124.571	-1063.478	1	4259.469	-14.45821	7.790513E-008	0.0076259	7
	28	40	1577.524	4208.208	-1275.817	1	4397.355	-16.86591	-3.661986E-008	0.0078253	7
	29	41	1265.625	4225.024	-1543.172	1	4498.023	-20.06451	7.965223E-008	0.0077459	7
	30	43	998.264	4290.152	-1891.264	1	4688.526	-23.78973	-7.220525E-009	0.0078313	7
	31	44	796.875	4365.457	-2295.886	1	4932.374	-27.74083	4.235029E-008	0.007654	7
	32	45	627.7902	4459.91	-2831.24	1	5282.681	-32.4082	-1.492297E-008	0.0079301	7
	33	47	505.5147	4563.168	-3425.506	1	5705.838	-36.89504	1.324813E-007	0.0075827	7
	34	48	397.9953	4706.155	-4235.169	1	6331.236	-41.98472	4.546966E-009	0.0078092	7
	35	49	315.5048	4875.77	-5208.754	1	7134.721	-46.89118	4.582779E-009	0.0078133	7
	36	51	252.4038	5081.927	-6359.996	1	8140.979	-51.37355	5.718878E-009	0.007806	7
	37	52	198.6229	5363.887	-7885.134	1	9536.59	-55.77438	4.872077E-009	0.0078039	7
	38	54	158.3615	5707.225	-9661.57	1	11221.33	-59.42905	1.050881E-009	0.0077396	6
	39	55	125.558	6163.87	-11895.78	1	13397.86	-62.60879	1.266604E-009	0.0077431	6
	40	56	100.4464	6741.825	-14512.45	1	16001.98	-65.08257	8.256767E-010	0.007746	6
	41	58	79.00281	7513.486	-17969.63	1	19477.16	-67.30915	1.11302E-009	0.0077461	6
	42	59	63.3446	8442.385	-21951.35	1	23518.83	-68.96349	1.049613E-009	0.007743	6
	43	60	49.86702	9879	-26845.14	1	28605.18	-69.7964	1.19632E-009	0.0077396	6
	44	62	39.72458	11694.23	-32823.24	1	34844.23	-70.39009	6.997744E-010	0.0077469	6
	45	63	31.6723	13990.16	-39733.27	1	42124.3	-70.60274	9.343466E-010	0.007746	6
	46	64	24.93351	17256.19	-48661.47	1	51630.56	-70.47462	8.58313E-010	0.0077452	6
	47	66	19.86229	21272.52	-58676.71	1	62413.75	-70.07251	1.159603E-009	0.0077507	6
	48	67	15.83615	26787.1	-70608.59	1	75519.02	-69.22453	-1.265065E-009	0.0077422	6
	49	69	12.40079	33570.61	-85102.47	1	91484.51	-68.47211	4.055522E-010	0.0077487	6
	50	70	9.93114	42398.68	-100047	1	108660.3	-67.03338	-6.06836E-010	0.007751	5
	51	72	7.944915	52749.79	-117180.1	1	128505.7	-65.76463	1.344835E-009	0.00775	5
	52	73	6.317385	66224.16	-137276.8	1	152415.8	-64.24672	6.051907E-010	0.0077603	5
	53	75	5.008013	82295.09	-159917.1	1	179849.9	-62.76916	6.512275E-010	0.0077612	5
	54	78	3.945707	102229.9	-185586	1	211879.9	-61.15186	-3.902758E-010	0.0077454	5
	55	80	3.158693	123854.3	-211956	1	245489.8	-59.70056	3.224042E-010	0.0077607	5
	56	84	2.504006	149676.8	-242052.6	1	284592	-58.26882	-4.305056E-010	0.0077527	5
	57	86	1.998082	176938.4	-273457.5	1	325708.8	-57.09545	3.415374E-010	0.0077133	5
	58	90	1.584686	208678	-310791	1	374349.5	-56.12095	-2.225953E-010	0.0077148	5
	59	93	1.266892	241091.6	-349434.1	1	424534.3	-55.39632	2.630745E-010	0.0077176	5
	60	97	0.999041	278374.7	-397927.4	1	485632.3	-55.02485	-3.442791E-010	0.0077645	5
