EXPLAIN
TAG	EISPOT
TITLE	LABEL	Potentiostatic EIS	Test &Identifier
DATE	LABEL	10/26/2019	Date
TIME	LABEL	10:53:26	Time
NOTES	NOTES	1	&Notes...
	
PSTAT	PSTAT	REF600-11020	Potentiostat
VDC	POTEN	0.00000E+000	T	DC &Voltage (V)
FREQINIT	QUANT	1.00000E+006	Initial Fre&q. (Hz)
FREQFINAL	QUANT	1.00000E+000	Final Fre&q. (Hz)
PTSPERDEC	QUANT	1.00000E+001	Points/&decade
VAC	QUANT	2.50000E+001	AC &Voltage (mV rms)
AREA	QUANT	1.00000E-002	&Area (cm^2)
CONDIT	TWOPARAM	T	5.00000E+000	0.00000E+000	Conditionin&g	Time(s)	E(V)
DELAY	TWOPARAM	T	5.00000E+000	0.00000E+000	Init. De&lay	Time(s)	Stab.(mV/s)
SPEED	SELECTOR	0	&Optimize for:
ZGUESS	QUANT	1.00000E+005	E&stimated Z (ohms)
OCVCURVE	TABLE	19
	Pt	T	Vf	Vm	Ach	Over
	#	s	V vs. Ref.	V	V	bits
	0	0.258333	7.63131E-003	7.63131E-003	5.53199E-004	...........
	1	0.516667	7.63275E-003	7.70652E-003	5.53833E-004	...........
	2	0.775	7.63934E-003	7.66133E-003	5.53833E-004	...........
	3	1.03333	7.65271E-003	7.72777E-003	5.52966E-004	...........
	4	1.29167	7.67126E-003	7.78153E-003	5.49366E-004	...........
	5	1.55	7.69564E-003	7.78898E-003	5.50499E-004	...........
	6	1.80833	7.72779E-003	7.89545E-003	5.60332E-004	...........
	7	2.06667	7.76720E-003	7.87623E-003	5.53166E-004	...........
	8	2.325	7.81207E-003	8.01474E-003	5.52466E-004	...........
	9	2.58333	7.86252E-003	8.05982E-003	5.53133E-004	...........
	10	2.84167	7.91948E-003	8.05755E-003	5.49766E-004	...........
	11	3.1	7.97867E-003	8.15864E-003	5.54466E-004	...........
	12	3.35833	8.03323E-003	8.14209E-003	5.58666E-004	...........
	13	3.61667	8.08050E-003	8.18827E-003	5.56133E-004	...........
	14	3.875	8.12101E-003	8.25374E-003	5.59932E-004	...........
	15	4.13333	8.15718E-003	8.22231E-003	5.59666E-004	...........
	16	4.39167	8.19218E-003	8.37158E-003	5.58066E-004	...........
	17	4.65	8.23191E-003	8.46593E-003	5.59866E-004	...........
	18	4.90833	8.28459E-003	8.43840E-003	5.64532E-004	...........
EOC	QUANT	0.0082846	Open Circuit (V)
PSTATMODEL	IQUANT	4	Pstat Model
PSTATSECTION	LABEL	REF600-11020	Pstat Section
PSTATSERIALNO	LABEL	11020	Pstat Serial Number
CTRLMODE	IQUANT	1	Control Mode
IESTAB	IQUANT	0	I/E Stability
CASPEED	IQUANT	1	Control Amp Speed
CONVENTION	IQUANT	1	Current Convention
ICHRANGE	IQUANT	2	Ich Range
ICHRANGEMODE	TOGGLE	F	Ich Auto Range
ICHOFFSETENABLE	TOGGLE	T	Ich Offset Enable
ICHOFFSET	QUANT	0	Ich Offset (V)
ICHFILTER	IQUANT	3	Ich Filter
VCHRANGE	IQUANT	2	Vch Range
VCHRANGEMODE	TOGGLE	F	Vch Auto Range
VCHOFFSETENABLE	TOGGLE	T	Vch Offset Enable
VCHOFFSET	QUANT	0	Vch Offset (V)
VCHFILTER	IQUANT	3	Vch Filter
ACHRANGE	IQUANT	2	Ach Range
ACHOFFSETENABLE	TOGGLE	F	Ach Offset Enable
ACHOFFSET	QUANT	0	Ach Offset (V)
ACHFILTER	IQUANT	3	Ach Filter
IERANGELOWERLIMIT	IQUANT	1	I/E Range Lower Limit
IERANGEMODE	TOGGLE	F	I/E AutoRange
IERANGE	IQUANT	5	I/E Range
POSFEEDENABLE	TOGGLE	F	Positive Feedback IR Comp
POSFEEDRESISTANCE	QUANT	0	Positive Feedback Resistance (ohm)
ACHSELECT	IQUANT	0	Ach Select
CABLEID	IQUANT	14	Cable ID
DCCALDATE	LABEL	8/19/2019	DC Calibration Date
ACCALDATE	LABEL	8/19/2019	AC Calibration Date
THERMOSELECT	IQUANT	1	Thermo Select
FRAMEWORKVERSION	QUANT	6.33	Framework Version
INSTRUMENTVERSION	LABEL	3.50	Instrument Version
ZCURVE	TABLE
	Pt	Time	Freq	Zreal	Zimag	Zsig	Zmod	Zphz	Idc	Vdc	IERange
	#	s	Hz	ohm	ohm	V	ohm	°	A	V	#
	0	1	1000078	2430.766	-1890.074	1	3079.123	-37.86732	2.649303E-006	0.0102784	8
	1	2	794390.6	2810.181	-1870.858	1	3375.978	-33.6534	3.208863E-006	0.0093238	8
	2	2	630984.4	3173.172	-1787.996	1	3642.245	-29.40007	7.476474E-007	0.0095826	8
	3	2	501234.4	3505.985	-1660.76	1	3879.44	-25.34657	-2.690168E-006	0.0104098	8
	4	3	398109.4	3788.259	-1508.885	1	4077.7	-21.71767	6.651553E-007	0.0098172	8
	5	3	316265.6	4003.569	-1326.732	1	4217.675	-18.33454	-3.924629E-007	0.0098238	8
	6	3	251203.1	4188.029	-1143.748	1	4341.399	-15.27496	-2.384597E-006	0.0101869	8
	7	4	199546.9	4330.15	-997.043	1	4443.456	-12.96669	4.946132E-007	0.0097605	8
	8	4	158578.1	4437.015	-854.0953	1	4518.471	-10.89578	-5.29613E-008	0.0098576	8
	9	4	125953.1	4525.233	-695.5906	1	4578.382	-8.738751	4.516662E-007	0.008847	7
	10	4	100078.1	4589.844	-610.6881	1	4630.292	-7.578807	3.608226E-008	0.0097467	7
	11	5	79453.13	4636.484	-546.0123	1	4668.523	-6.716462	-2.682319E-008	0.0098257	7
	12	5	63140.62	4680.504	-497.1286	1	4706.831	-6.062804	5.037795E-008	0.0096942	7
	13	5	50203.12	4719.027	-461.2787	1	4741.519	-5.582851	1.019256E-007	0.0096227	7
	14	6	39890.62	4753.204	-437.0026	1	4773.25	-5.252923	-2.392124E-008	0.0097734	7
	15	6	31640.63	4787.125	-425.7246	1	4806.018	-5.082011	3.030803E-008	0.0096644	7
	16	6	25171.88	4818.883	-427.5074	1	4837.809	-5.069725	3.202702E-008	0.0096638	7
	17	7	20015.62	4856.324	-442.797	1	4876.469	-5.209793	6.670516E-008	0.009631	7
	18	7	15890.62	4883.111	-466.293	1	4905.324	-5.45469	-4.934189E-008	0.0099301	7
	19	7	12609.37	4916.904	-504.4034	1	4942.708	-5.857231	4.806114E-009	0.0097222	7
	20	8	10078.13	4950.56	-555.4553	1	4981.624	-6.40184	-3.561657E-008	0.009784	7
	21	8	8015.625	4985.863	-625.1331	1	5024.9	-7.146516	5.132338E-008	0.0096848	7
	22	8	6328.125	5023.557	-721.2271	1	5075.065	-8.17007	-3.042056E-008	0.0097789	7
	23	9	5015.625	5064.471	-842.212	1	5134.022	-9.441775	-2.963766E-008	0.0097754	7
	24	9	3984.375	5112.56	-993.235	1	5208.146	-10.9941	2.112023E-009	0.0098561	7
	25	9	3170.956	5162.052	-1174.306	1	5293.938	-12.816	7.497194E-008	0.009713	7
	26	10	2527.573	5219.216	-1400.305	1	5403.801	-15.01864	-5.466918E-008	0.0098581	7
	27	10	1976.103	5289.744	-1706.593	1	5558.223	-17.88089	-2.760611E-008	0.0098134	7
	28	10	1577.524	5344.254	-2046.784	1	5722.794	-20.95623	-2.949543E-008	0.0098141	7
	29	11	1265.625	5448.932	-2461.592	1	5979.155	-24.3114	6.738495E-008	0.0096245	7
	30	11	998.264	5553.136	-3013.561	1	6318.138	-28.48768	-5.04108E-008	0.0099227	7
	31	11	796.875	5674.194	-3654.584	1	6749.256	-32.78442	3.515491E-008	0.0097203	7
	32	11	627.7902	5821.508	-4491.661	1	7352.889	-37.65245	4.350302E-009	0.0097155	7
	33	12	505.5147	5982.246	-5443.173	1	8087.979	-42.29868	4.859535E-009	0.0098451	7
	34	12	397.9953	6194.133	-6727.771	1	9144.955	-47.36481	2.804219E-009	0.0097888	7
	35	12	315.5048	6458.203	-8280.701	1	10501.35	-52.04897	-1.733896E-010	0.0097257	6
	36	13	252.4038	6769.727	-10120.23	1	12175.72	-56.22024	5.247602E-010	0.009727	6
	37	13	198.6229	7202.602	-12560.04	1	14478.68	-60.16773	9.877228E-011	0.0097306	6
	38	13	158.3615	7735.095	-15416.04	1	17247.79	-63.35451	4.901385E-010	0.0097295	6
	39	14	125.558	8442.08	-19009.04	1	20799.34	-66.05358	3.815805E-010	0.0097307	6
	40	14	100.4464	9303.051	-23217.81	1	25012.27	-68.16472	6.111104E-010	0.0097254	6
	41	14	79.00281	10609.6	-28739.79	1	30635.59	-69.73785	1.029637E-009	0.0097253	6
	42	15	63.3446	12451.02	-35431.83	1	37555.86	-70.63812	-4.337271E-010	0.009722	6
	43	15	49.86702	14633.42	-43654.93	1	46042.26	-71.46851	1.215468E-009	0.0097209	6
	44	15	39.72458	17578.88	-52678.76	1	55534.39	-71.54617	5.116676E-010	0.0097271	6
	45	16	31.6723	21500.88	-63787.63	1	67313.81	-71.3726	-9.145065E-011	0.0097214	6
	46	16	24.93351	27008.93	-77966.69	1	82512.34	-70.89308	5.890693E-010	0.0097234	6
	47	16	19.86229	34139.41	-93659.07	1	99687.1	-69.97283	1.277407E-009	0.0097272	6
	48	17	15.83615	43014.9	-110674.4	1	118739.6	-68.7608	8.085267E-010	0.0097273	5
	49	17	12.40079	54883.02	-132803.4	1	143697.3	-67.5464	-1.858854E-009	0.0097309	5
	50	17	9.93114	69836.2	-156805.4	1	171653.8	-65.9933	-3.152692E-010	0.0097318	5
	51	18	7.944915	86435.83	-182529	1	201960.4	-64.6603	7.257152E-010	0.0097238	5
	52	19	6.317385	107055.2	-211585.7	1	237127.2	-63.16212	5.092544E-010	0.0097147	5
	53	19	5.008013	131510.5	-244482.5	1	277608.9	-61.72358	6.828725E-011	0.0097242	5
	54	20	3.945707	160917.8	-282009.9	1	324690.8	-60.29047	-8.521293E-011	0.0097264	5
	55	22	3.158693	190552.5	-322638.4	1	374707.6	-59.43361	-2.468507E-010	0.0097137	5
	56	23	2.504006	225919.9	-369231.7	1	432864.7	-58.53901	-3.093953E-011	0.0097165	5
	57	25	1.998082	263567.7	-421710.9	1	497300.8	-57.99478	5.837363E-011	0.0097537	5
	58	26	1.584686	307380.3	-482032.3	1	571697.2	-57.47533	-8.970586E-011	0.0097104	5
	59	28	1.266892	355978.1	-551447.1	1	656364.4	-57.15636	-1.273946E-010	0.0096798	5
	60	31	0.999041	412561.6	-637634.6	1	759463.6	-57.09637	-1.62936E-010	0.0096747	5
