EXPLAIN
TAG	EISPOT
TITLE	LABEL	Potentiostatic EIS	Test &Identifier
DATE	LABEL	11/22/2019	Date
TIME	LABEL	0:36:28	Time
NOTES	NOTES	4	&Notes...
	
	
	
	
PSTAT	PSTAT	REF600-11020	Potentiostat
VDC	POTEN	0.00000E+000	T	DC &Voltage (V)
FREQINIT	QUANT	1.00000E+006	Initial Fre&q. (Hz)
FREQFINAL	QUANT	1.00000E+000	Final Fre&q. (Hz)
PTSPERDEC	QUANT	1.00000E+001	Points/&decade
VAC	QUANT	2.50000E+001	AC &Voltage (mV rms)
AREA	QUANT	1.00000E-002	&Area (cm^2)
CONDIT	TWOPARAM	T	5.00000E+000	0.00000E+000	Conditionin&g	Time(s)	E(V)
DELAY	TWOPARAM	T	5.00000E+000	0.00000E+000	Init. De&lay	Time(s)	Stab.(mV/s)
SPEED	SELECTOR	1	&Optimize for:
ZGUESS	QUANT	1.00000E+005	E&stimated Z (ohms)
OCVCURVE	TABLE	19
	Pt	T	Vf	Vm	Ach	Over
	#	s	V vs. Ref.	V	V	bits
	0	0.258333	6.84778E-003	6.84778E-003	5.54233E-004	...........
	1	0.516667	6.84926E-003	6.92516E-003	5.62832E-004	...........
	2	0.775	6.85837E-003	7.00008E-003	5.54566E-004	...........
	3	1.03333	6.88460E-003	7.09126E-003	5.52632E-004	...........
	4	1.29167	6.93318E-003	7.17089E-003	5.53433E-004	...........
	5	1.55	7.00102E-003	7.26123E-003	5.53666E-004	...........
	6	1.80833	7.08092E-003	7.35858E-003	5.50233E-004	...........
	7	2.06667	7.16730E-003	7.45209E-003	5.51766E-004	...........
	8	2.325	7.25743E-003	7.53724E-003	5.51399E-004	...........
	9	2.58333	7.34932E-003	7.63174E-003	5.51933E-004	...........
	10	2.84167	7.44121E-003	7.71832E-003	5.56933E-004	...........
	11	3.1	7.53224E-003	7.80655E-003	5.52266E-004	...........
	12	3.35833	7.62229E-003	7.89610E-003	5.49533E-004	...........
	13	3.61667	7.71129E-003	7.97248E-003	5.47733E-004	...........
	14	3.875	7.79876E-003	8.05428E-003	5.49266E-004	...........
	15	4.13333	7.88399E-003	8.13707E-003	5.50466E-004	...........
	16	4.39167	7.96707E-003	8.21832E-003	5.49899E-004	...........
	17	4.65	8.04894E-003	8.29891E-003	5.50566E-004	...........
	18	4.90833	8.13039E-003	8.38028E-003	5.48233E-004	...........
EOC	QUANT	0.0081304	Open Circuit (V)
PSTATMODEL	IQUANT	4	Pstat Model
PSTATSECTION	LABEL	REF600-11020	Pstat Section
PSTATSERIALNO	LABEL	11020	Pstat Serial Number
CTRLMODE	IQUANT	1	Control Mode
IESTAB	IQUANT	0	I/E Stability
CASPEED	IQUANT	1	Control Amp Speed
CONVENTION	IQUANT	1	Current Convention
ICHRANGE	IQUANT	2	Ich Range
ICHRANGEMODE	TOGGLE	F	Ich Auto Range
ICHOFFSETENABLE	TOGGLE	T	Ich Offset Enable
ICHOFFSET	QUANT	0	Ich Offset (V)
ICHFILTER	IQUANT	3	Ich Filter
VCHRANGE	IQUANT	2	Vch Range
VCHRANGEMODE	TOGGLE	F	Vch Auto Range
VCHOFFSETENABLE	TOGGLE	T	Vch Offset Enable
VCHOFFSET	QUANT	0	Vch Offset (V)
VCHFILTER	IQUANT	3	Vch Filter
ACHRANGE	IQUANT	2	Ach Range
ACHOFFSETENABLE	TOGGLE	F	Ach Offset Enable
ACHOFFSET	QUANT	0	Ach Offset (V)
ACHFILTER	IQUANT	3	Ach Filter
IERANGELOWERLIMIT	IQUANT	1	I/E Range Lower Limit
IERANGEMODE	TOGGLE	F	I/E AutoRange
IERANGE	IQUANT	5	I/E Range
POSFEEDENABLE	TOGGLE	F	Positive Feedback IR Comp
POSFEEDRESISTANCE	QUANT	0	Positive Feedback Resistance (ohm)
ACHSELECT	IQUANT	0	Ach Select
CABLEID	IQUANT	14	Cable ID
DCCALDATE	LABEL	8/19/2019	DC Calibration Date
ACCALDATE	LABEL	8/19/2019	AC Calibration Date
THERMOSELECT	IQUANT	1	Thermo Select
FRAMEWORKVERSION	QUANT	6.33	Framework Version
INSTRUMENTVERSION	LABEL	3.50	Instrument Version
ZCURVE	TABLE
	Pt	Time	Freq	Zreal	Zimag	Zsig	Zmod	Zphz	Idc	Vdc	IERange
	#	s	Hz	ohm	ohm	V	ohm	°	A	V	#
	0	1	1000078	2315.914	-1776.739	1	2918.948	-37.49496	-5.187879E-006	0.0111422	8
	1	3	794390.6	2656.212	-1767.812	1	3190.708	-33.6453	9.523155E-007	0.0098325	8
	2	4	630984.4	2979.986	-1706.093	1	3433.813	-29.79188	-2.812008E-006	0.0102051	8
	3	5	501234.4	3277.211	-1615.796	1	3653.89	-26.24513	-6.241594E-006	0.0108588	8
	4	7	398109.4	3545.695	-1507.527	1	3852.868	-23.0338	-4.201629E-006	0.0101908	8
	5	8	316265.6	3774.339	-1386.561	1	4020.969	-20.17158	2.385771E-007	0.0094769	8
	6	10	251203.1	3960.262	-1261.926	1	4156.457	-17.67433	-3.734303E-007	0.0102315	8
	7	11	199546.9	4140.305	-1155.51	1	4298.526	-15.59379	-5.912622E-006	0.0106366	8
	8	12	158578.1	4289.211	-1052.843	1	4416.538	-13.79133	-2.407965E-006	0.0096987	8
	9	14	125953.1	4450.898	-912.535	1	4543.481	-11.58637	3.919884E-006	0.0050488	7
	10	15	100078.1	4524.246	-836.7975	1	4600.982	-10.47892	1.025448E-006	0.0079602	7
	11	16	79453.13	4610.37	-787.0071	1	4677.06	-9.68723	1.194749E-007	0.0083026	7
	12	18	63140.62	4692.024	-754.3257	1	4752.273	-9.133157	5.069855E-007	0.0079828	7
	13	19	50203.12	4772.992	-736.5303	1	4829.486	-8.772239	1.069009E-006	0.008971	7
	14	20	39890.62	4836.079	-728.5937	1	4890.655	-8.567631	6.439666E-007	0.0099441	7
	15	22	31640.63	4910.829	-739.3104	1	4966.168	-8.561412	8.764812E-007	0.0094841	7
	16	23	25171.88	4967.117	-762.4769	1	5025.298	-8.727061	-1.273467E-006	0.0108675	7
	17	25	20015.62	5045.487	-812.308	1	5110.458	-9.145964	-9.360799E-007	0.0114813	7
	18	26	15890.62	5116.95	-866.2855	1	5189.762	-9.60891	-7.624656E-007	0.0095551	7
	19	27	12609.37	5197.578	-951.66	1	5283.982	-10.37575	-6.514505E-007	0.0113909	7
	20	29	10078.13	5293.923	-1051.314	1	5397.303	-11.23216	6.441385E-007	0.0099386	7
	21	30	8015.625	5354.686	-1171.14	1	5481.261	-12.33707	4.107911E-007	0.0102764	7
	22	31	6328.125	5500.607	-1340.119	1	5661.501	-13.69229	1.028446E-006	0.0079561	7
	23	33	5015.625	5621.667	-1532.17	1	5826.722	-15.24552	8.799722E-007	0.0094804	7
	24	34	3984.375	5756.604	-1754.538	1	6018.047	-16.95054	-3.015685E-007	0.011136	7
	25	35	3170.956	5887.402	-2028.108	1	6226.936	-19.00794	-1.096475E-006	0.0102708	7
	26	37	2527.573	6054.148	-2350.475	1	6494.417	-21.2183	-6.479407E-007	0.0113951	7
	27	39	1976.103	6253.587	-2764.188	1	6837.257	-23.84622	-1.274148E-006	0.0108594	7
	28	40	1577.524	6458.253	-3255.157	1	7232.226	-26.7495	1.030619E-006	0.0079514	7
	29	42	1265.625	6710.916	-3775.208	1	7699.908	-29.35982	1.027028E-006	0.0079559	7
	30	43	998.264	6980.487	-4450.914	1	8278.758	-32.52249	-3.016305E-007	0.0111429	7
	31	45	796.875	7282.673	-5262.147	1	8984.85	-35.85026	6.480952E-007	0.0099387	7
	32	46	627.7902	7646.217	-6286.848	1	9898.94	-39.42761	1.158995E-006	0.008532	7
	33	47	505.5147	8010.829	-7404.774	1	10908.9	-42.74861	6.479089E-007	0.0099385	7
	34	49	397.9953	8461.57	-8902.344	1	12282.1	-46.45411	1.202342E-009	0.009695	6
	35	50	315.5048	8974.849	-10693.83	1	13960.87	-49.99479	1.580326E-009	0.0096835	6
	36	51	252.4038	9545.63	-12790.93	1	15960.17	-53.26674	5.951271E-010	0.0096766	6
	37	53	198.6229	10265.73	-15551.94	1	18634.59	-56.57146	5.585943E-010	0.009688	6
	38	54	158.3615	11069.41	-18759.45	1	21781.84	-59.45637	2.561761E-010	0.0096817	6
	39	56	125.558	12067.68	-22790.95	1	25788.68	-62.09903	3.383324E-010	0.0096933	6
	40	57	100.4464	13244.22	-27549.67	1	30567.86	-64.32455	-5.962045E-010	0.0096866	6
	41	58	79.00281	14780.83	-33839.89	1	36927.11	-66.40492	1.297637E-009	0.0096809	6
	42	60	63.3446	16606.22	-40449.74	1	43725.83	-67.67991	7.292346E-010	0.0096739	6
	43	61	49.86702	19509.24	-50404.85	1	54048.68	-68.84103	3.669223E-010	0.0096918	6
	44	63	39.72458	22589.42	-61028.09	1	65074.65	-69.68808	3.510988E-010	0.0096868	6
	45	64	31.6723	26638.02	-73772.79	1	78434.74	-70.14626	2.338715E-011	0.0096918	6
	46	65	24.93351	32815.09	-90284.7	1	96063.3	-70.0257	5.252172E-010	0.00968	6
	47	67	19.86229	40332.32	-108928.8	1	116155.9	-69.68227	9.138054E-010	0.0096893	5
	48	68	15.83615	50547.39	-132038.4	1	141383.1	-69.05199	-1.51461E-009	0.0096854	5
	49	69	12.40079	65039.73	-157594.4	1	170488	-67.5739	4.348086E-011	0.0096908	5
	50	71	9.93114	82201.22	-186243.2	1	203576.9	-66.18502	5.131472E-010	0.009678	5
	51	72	7.944915	102010.4	-218699.9	1	241320.9	-64.99376	4.269904E-010	0.0096812	5
	52	74	6.317385	130442.2	-253779	1	285340	-62.79686	2.2781E-010	0.0096957	5
	53	76	5.008013	164097.6	-293344.5	1	336123.5	-60.77725	7.516733E-011	0.0096833	5
	54	79	3.945707	204432.2	-336033.3	1	393333	-58.68497	4.003586E-010	0.0096776	5
	55	81	3.158693	248332	-378449.9	1	452651.2	-56.72783	-2.110246E-010	0.0096741	5
	56	85	2.504006	299105.3	-425177.4	1	519846	-54.87425	4.608203E-010	0.0096773	5
	57	87	1.998082	353134	-472664.4	1	590012.9	-53.2361	6.740368E-011	0.0097202	5
	58	91	1.584686	411713.6	-525306.3	1	667424	-51.9121	1.382858E-010	0.0096632	5
	59	94	1.266892	474950.7	-583684.3	1	752506.2	-50.86435	8.944143E-011	0.0097179	5
	60	99	0.999041	547159.8	-651941.2	1	851123.4	-49.99401	-2.226284E-010	0.0096432	5
