EXPLAIN
TAG	EISPOT
TITLE	LABEL	Potentiostatic IDE	Test &Identifier
DATE	LABEL	9/18/2019	Date
TIME	LABEL	8:53:46	Time
NOTES	NOTES	1	&Notes...
	
PSTAT	PSTAT	REF600-11020	Potentiostat
VDC	POTEN	0.00000E+000	T	DC &Voltage (V)
FREQINIT	QUANT	1.00000E+006	Initial Fre&q. (Hz)
FREQFINAL	QUANT	1.00000E+000	Final Fre&q. (Hz)
PTSPERDEC	QUANT	1.00000E+001	Points/&decade
VAC	QUANT	2.50000E+001	AC &Voltage (mV rms)
AREA	QUANT	1.00000E-002	&Area (cm^2)
CONDIT	TWOPARAM	T	5.00000E+000	0.00000E+000	Conditionin&g	Time(s)	E(V)
DELAY	TWOPARAM	T	5.00000E+000	0.00000E+000	Init. De&lay	Time(s)	Stab.(mV/s)
SPEED	SELECTOR	1	&Optimize for:
ZGUESS	QUANT	1.00000E+007	E&stimated Z (ohms)
OCVCURVE	TABLE	19
	Pt	T	Vf	Vm	Ach	Over
	#	s	V vs. Ref.	V	V	bits
	0	0.258333	-3.78160E-003	-3.78160E-003	5.63432E-004	...........
	1	0.516667	-3.79600E-003	-4.53556E-003	5.65599E-004	...........
	2	0.775	-3.88509E-003	-5.28372E-003	5.61166E-004	...........
	3	1.03333	-4.13809E-003	-5.94185E-003	5.61032E-004	...........
	4	1.29167	-4.58822E-003	-6.48764E-003	5.64366E-004	...........
	5	1.55	-5.17425E-003	-7.03054E-003	5.64232E-004	...........
	6	1.80833	-5.80199E-003	-7.63418E-003	5.61599E-004	...........
	7	2.06667	-6.41455E-003	-8.15973E-003	5.63399E-004	...........
	8	2.325	-6.99894E-003	-8.62248E-003	5.66366E-004	...........
	9	2.58333	-7.55516E-003	-9.09887E-003	5.68032E-004	...........
	10	2.84167	-8.08081E-003	-9.53307E-003	5.67232E-004	...........
	11	3.1	-8.57575E-003	-9.96489E-003	5.63466E-004	...........
	12	3.35833	-9.04497E-003	-1.04219E-002	5.60499E-004	...........
	13	3.61667	-9.49598E-003	-1.08004E-002	5.62132E-004	...........
	14	3.875	-9.93260E-003	-1.11472E-002	5.62499E-004	...........
	15	4.13333	-1.03508E-002	-1.15068E-002	5.63899E-004	...........
	16	4.39167	-1.07456E-002	-1.18714E-002	5.63399E-004	...........
	17	4.65	-1.11202E-002	-1.22205E-002	5.65732E-004	...........
	18	4.90833	-1.14824E-002	-1.25565E-002	5.67066E-004	...........
EOC	QUANT	-0.0114824	Open Circuit (V)
PSTATMODEL	IQUANT	4	Pstat Model
PSTATSECTION	LABEL	REF600-11020	Pstat Section
PSTATSERIALNO	LABEL	11020	Pstat Serial Number
CTRLMODE	IQUANT	1	Control Mode
IESTAB	IQUANT	0	I/E Stability
CASPEED	IQUANT	1	Control Amp Speed
CONVENTION	IQUANT	1	Current Convention
ICHRANGE	IQUANT	2	Ich Range
ICHRANGEMODE	TOGGLE	F	Ich Auto Range
ICHOFFSETENABLE	TOGGLE	T	Ich Offset Enable
ICHOFFSET	QUANT	0	Ich Offset (V)
ICHFILTER	IQUANT	3	Ich Filter
VCHRANGE	IQUANT	2	Vch Range
VCHRANGEMODE	TOGGLE	F	Vch Auto Range
VCHOFFSETENABLE	TOGGLE	T	Vch Offset Enable
VCHOFFSET	QUANT	0	Vch Offset (V)
VCHFILTER	IQUANT	3	Vch Filter
ACHRANGE	IQUANT	2	Ach Range
ACHOFFSETENABLE	TOGGLE	F	Ach Offset Enable
ACHOFFSET	QUANT	0	Ach Offset (V)
ACHFILTER	IQUANT	3	Ach Filter
IERANGELOWERLIMIT	IQUANT	1	I/E Range Lower Limit
IERANGEMODE	TOGGLE	F	I/E AutoRange
IERANGE	IQUANT	3	I/E Range
POSFEEDENABLE	TOGGLE	F	Positive Feedback IR Comp
POSFEEDRESISTANCE	QUANT	0	Positive Feedback Resistance (ohm)
ACHSELECT	IQUANT	0	Ach Select
CABLEID	IQUANT	14	Cable ID
DCCALDATE	LABEL	8/19/2019	DC Calibration Date
ACCALDATE	LABEL	8/19/2019	AC Calibration Date
THERMOSELECT	IQUANT	1	Thermo Select
FRAMEWORKVERSION	QUANT	6.33	Framework Version
INSTRUMENTVERSION	LABEL	3.50	Instrument Version
ZCURVE	TABLE
	Pt	Time	Freq	Zreal	Zimag	Zsig	Zmod	Zphz	Idc	Vdc	IERange
	#	s	Hz	ohm	ohm	V	ohm	°	A	V	#
	0	1	1000078	2195.827	-1599.843	1	2716.828	-36.07645	-5.354591E-007	-0.0085581	8
	1	2	794390.6	2514.247	-1511.36	1	2933.538	-31.01085	-1.278411E-006	-0.009274	8
	2	4	630984.4	2798.538	-1397.583	1	3128.107	-26.53743	5.745781E-007	-0.0098416	8
	3	5	501234.4	3031.67	-1256.322	1	3281.671	-22.50909	-1.166376E-006	-0.0095955	8
	4	7	398109.4	3216.85	-1090.232	1	3396.576	-18.72219	7.388424E-008	-0.0099257	8
	5	8	316265.6	3357.413	-944.7365	1	3487.8	-15.71598	1.359983E-006	-0.0100111	8
	6	9	251203.1	3461.643	-806.8407	1	3554.429	-13.12027	1.099588E-006	-0.0102014	8
	7	11	199546.9	3530.362	-699.0595	1	3598.908	-11.20045	1.663739E-006	-0.0100912	8
	8	12	158578.1	3587.605	-597.7159	1	3637.056	-9.45893	-1.142062E-006	-0.0096775	8
	9	13	125953.1	3652.467	-502.9536	1	3686.933	-7.840461	2.986734E-008	-0.0099725	7
	10	15	100078.1	3683.458	-447.2604	1	3710.513	-6.923193	1.382225E-009	-0.009924	7
	11	16	79453.13	3716.737	-413.742	1	3739.695	-6.351935	-1.812514E-008	-0.00998	7
	12	17	63140.62	3747.981	-390.8173	1	3768.302	-5.952951	-3.21118E-010	-0.0099376	7
	13	19	50203.12	3779.014	-379.1809	1	3797.99	-5.729799	5.331742E-008	-0.0101151	7
	14	20	39890.62	3807.042	-375.493	1	3825.514	-5.632932	5.336117E-008	-0.0101137	7
	15	21	31640.63	3840.522	-384.0646	1	3859.678	-5.710777	8.165252E-008	-0.0101234	7
	16	23	25171.88	3872.423	-400.6836	1	3893.097	-5.907431	1.793603E-008	-0.0099508	7
	17	24	20015.62	3905.699	-427.4242	1	3929.018	-6.245369	5.504423E-008	-0.0100258	7
	18	25	15890.62	3946.497	-463.7305	1	3973.649	-6.701771	-2.149747E-008	-0.0099064	7
	19	27	12609.37	3982.384	-513.2917	1	4015.327	-7.344393	-2.772021E-008	-0.0099467	7
	20	28	10078.13	4019.945	-574.051	1	4060.725	-8.126933	1.367295E-008	-0.0099555	7
	21	29	8015.625	4066.762	-648.6218	1	4118.163	-9.061975	3.266614E-008	-0.0100329	7
	22	31	6328.125	4117.811	-747.1669	1	4185.047	-10.28429	7.717461E-009	-0.0100116	7
	23	32	5015.625	4172.146	-866.3695	1	4261.15	-11.73107	5.537708E-008	-0.010029	7
	24	33	3984.375	4229.859	-1011.912	1	4349.216	-13.45405	2.341176E-008	-0.0100575	7
	25	35	3170.956	4294.09	-1188.75	1	4455.596	-15.4739	-2.529643E-008	-0.0099533	7
	26	36	2527.573	4365.718	-1404.014	1	4585.93	-17.82778	-2.941417E-008	-0.0099555	7
	27	37	1976.103	4454.109	-1691.967	1	4764.645	-20.80011	-2.55449E-008	-0.0099171	7
	28	39	1577.524	4548.026	-2014.037	1	4974.021	-23.88557	8.14228E-008	-0.0101246	7
	29	40	1265.625	4647.919	-2395.69	1	5229.004	-27.26807	5.566771E-008	-0.0101187	7
	30	41	998.264	4785.335	-2901.777	1	5596.404	-31.23218	2.246406E-008	-0.0100538	7
	31	43	796.875	4931.722	-3488.041	1	6040.556	-35.27048	2.256164E-008	-0.0100205	7
	32	44	627.7902	5109.664	-4242.939	1	6641.626	-39.70541	-1.626586E-008	-0.0099905	7
	33	45	505.5147	5301.295	-5080.224	1	7342.507	-43.78009	-6.517187E-009	-0.0100204	7
	34	47	397.9953	5540.524	-6215.385	1	8326.369	-48.28552	5.56294E-009	-0.0099637	7
	35	48	315.5048	5812.784	-7573.026	1	9546.68	-52.49145	5.881203E-009	-0.0099679	7
	36	49	252.4038	6119.597	-9175.854	1	11029.31	-56.29972	1.009587E-009	-0.010023	6
	37	51	198.6229	6511.669	-11303.76	1	13045.19	-60.05538	1.441111E-009	-0.0100263	6
	38	52	158.3615	6962.969	-13792.41	1	15450.36	-63.2135	1.25609E-009	-0.0100298	6
	39	53	125.558	7530.959	-16945.35	1	18543.46	-66.03838	1.166069E-009	-0.0100326	6
	40	55	100.4464	8207.599	-20682.28	1	22251.32	-68.35474	8.756676E-010	-0.010029	6
	41	56	79.00281	9178.048	-25595.52	1	27191.31	-70.27317	9.801551E-010	-0.010036	6
	42	57	63.3446	10226.74	-31385.96	1	33010.07	-71.95242	7.164143E-010	-0.0100342	6
	43	59	49.86702	11934.82	-38537.93	1	40343.67	-72.79276	1.091235E-009	-0.0100335	6
	44	60	39.72458	13978.12	-47366.38	1	49385.84	-73.55833	1.101978E-009	-0.010027	6
	45	61	31.6723	16599.59	-57762.27	1	60100.13	-73.96653	1.181256E-009	-0.010031	6
	46	63	24.93351	20414.85	-71191.69	1	74060.94	-73.99928	1.107573E-009	-0.0100308	6
	47	64	19.86229	25121.16	-86733.03	1	90297.8	-73.84698	7.629675E-010	-0.0100318	6
	48	65	15.83615	31585.18	-105384.3	1	110015.7	-73.31577	-2.512756E-010	-0.0100213	5
	49	67	12.40079	39974.32	-129128.5	1	135174.3	-72.79903	7.280131E-010	-0.0100297	5
	50	68	9.93114	50301.41	-154053.7	1	162058	-71.91718	1.006057E-009	-0.0100204	5
	51	70	7.944915	64211.02	-184267	1	195134.3	-70.78823	1.176092E-009	-0.0100257	5
	52	71	6.317385	81398.41	-219756.8	1	234347.5	-69.67525	6.630376E-010	-0.0100266	5
	53	73	5.008013	104013.1	-262396.9	1	282260.3	-68.37682	2.640742E-010	-0.0100294	5
	54	76	3.945707	133490.6	-311596.7	1	338987.1	-66.80931	5.41878E-010	-0.0100252	5
	55	78	3.158693	167714.2	-364385	1	401129	-65.28497	1.796708E-010	-0.0100376	5
	56	82	2.504006	211769.4	-424709.5	1	474578.2	-63.49815	7.839711E-010	-0.0100304	5
	57	84	1.998082	262739.6	-488787.7	1	554928.3	-61.7405	2.015457E-010	-0.009991	5
	58	88	1.584686	323246.5	-561024.3	1	647484.8	-60.05066	5.132246E-010	-0.0100044	5
	59	91	1.266892	392433.7	-635406.9	1	746824	-58.30011	1.452667E-010	-0.00999	5
	60	96	0.999041	470988.5	-720355.5	1	860663.8	-56.82222	4.908631E-010	-0.0100406	5
