EXPLAIN
TAG	EISPOT
TITLE	LABEL	Potentiostatic EIS	Test &Identifier
DATE	LABEL	10/14/2019	Date
TIME	LABEL	9:48:51	Time
NOTES	NOTES	1	&Notes...
	
PSTAT	PSTAT	REF600-11020	Potentiostat
VDC	POTEN	0.00000E+000	T	DC &Voltage (V)
FREQINIT	QUANT	1.00000E+006	Initial Fre&q. (Hz)
FREQFINAL	QUANT	1.00000E+000	Final Fre&q. (Hz)
PTSPERDEC	QUANT	1.00000E+001	Points/&decade
VAC	QUANT	2.50000E+001	AC &Voltage (mV rms)
AREA	QUANT	1.00000E-002	&Area (cm^2)
CONDIT	TWOPARAM	T	5.00000E+000	0.00000E+000	Conditionin&g	Time(s)	E(V)
DELAY	TWOPARAM	T	5.00000E+000	0.00000E+000	Init. De&lay	Time(s)	Stab.(mV/s)
SPEED	SELECTOR	1	&Optimize for:
ZGUESS	QUANT	1.00000E+004	E&stimated Z (ohms)
OCVCURVE	TABLE	19
	Pt	T	Vf	Vm	Ach	Over
	#	s	V vs. Ref.	V	V	bits
	0	0.258333	6.92844E-003	6.92844E-003	5.63699E-004	...........
	1	0.516667	6.93003E-003	7.01167E-003	5.59699E-004	...........
	2	0.775	6.93992E-003	7.09682E-003	5.62932E-004	...........
	3	1.03333	6.96839E-003	7.18471E-003	5.55499E-004	...........
	4	1.29167	7.02061E-003	7.26883E-003	5.54633E-004	...........
	5	1.55	7.09266E-003	7.37681E-003	5.57333E-004	...........
	6	1.80833	7.17712E-003	7.46078E-003	5.61499E-004	...........
	7	2.06667	7.26805E-003	7.55276E-003	5.61899E-004	...........
	8	2.325	7.36114E-003	7.64163E-003	5.65532E-004	...........
	9	2.58333	7.45365E-003	7.73244E-003	5.62166E-004	...........
	10	2.84167	7.54451E-003	7.80209E-003	5.60866E-004	...........
	11	3.1	7.63207E-003	7.84878E-003	5.50733E-004	...........
	12	3.35833	7.71376E-003	7.95839E-003	5.51566E-004	...........
	13	3.61667	7.79063E-003	8.05397E-003	5.54333E-004	...........
	14	3.875	7.86887E-003	8.14000E-003	5.56166E-004	...........
	15	4.13333	7.95287E-003	8.22367E-003	5.62366E-004	...........
	16	4.39167	8.04087E-003	8.29977E-003	5.57199E-004	...........
	17	4.65	8.12845E-003	8.38094E-003	5.58599E-004	...........
	18	4.90833	8.21301E-003	8.45937E-003	5.60599E-004	...........
EOC	QUANT	0.008213	Open Circuit (V)
PSTATMODEL	IQUANT	4	Pstat Model
PSTATSECTION	LABEL	REF600-11020	Pstat Section
PSTATSERIALNO	LABEL	11020	Pstat Serial Number
CTRLMODE	IQUANT	1	Control Mode
IESTAB	IQUANT	0	I/E Stability
CASPEED	IQUANT	1	Control Amp Speed
CONVENTION	IQUANT	1	Current Convention
ICHRANGE	IQUANT	2	Ich Range
ICHRANGEMODE	TOGGLE	F	Ich Auto Range
ICHOFFSETENABLE	TOGGLE	T	Ich Offset Enable
ICHOFFSET	QUANT	0	Ich Offset (V)
ICHFILTER	IQUANT	3	Ich Filter
VCHRANGE	IQUANT	2	Vch Range
VCHRANGEMODE	TOGGLE	F	Vch Auto Range
VCHOFFSETENABLE	TOGGLE	T	Vch Offset Enable
VCHOFFSET	QUANT	0	Vch Offset (V)
VCHFILTER	IQUANT	3	Vch Filter
ACHRANGE	IQUANT	2	Ach Range
ACHOFFSETENABLE	TOGGLE	F	Ach Offset Enable
ACHOFFSET	QUANT	0	Ach Offset (V)
ACHFILTER	IQUANT	3	Ach Filter
IERANGELOWERLIMIT	IQUANT	1	I/E Range Lower Limit
IERANGEMODE	TOGGLE	F	I/E AutoRange
IERANGE	IQUANT	6	I/E Range
POSFEEDENABLE	TOGGLE	F	Positive Feedback IR Comp
POSFEEDRESISTANCE	QUANT	0	Positive Feedback Resistance (ohm)
ACHSELECT	IQUANT	0	Ach Select
CABLEID	IQUANT	14	Cable ID
DCCALDATE	LABEL	8/19/2019	DC Calibration Date
ACCALDATE	LABEL	8/19/2019	AC Calibration Date
THERMOSELECT	IQUANT	1	Thermo Select
FRAMEWORKVERSION	QUANT	6.33	Framework Version
INSTRUMENTVERSION	LABEL	3.50	Instrument Version
ZCURVE	TABLE
	Pt	Time	Freq	Zreal	Zimag	Zsig	Zmod	Zphz	Idc	Vdc	IERange
	#	s	Hz	ohm	ohm	V	ohm	°	A	V	#
	0	1	1000078	2293.746	-1691.011	1	2849.7	-36.39862	9.477253E-008	0.01067	8
	1	2	794390.6	2629.369	-1608.627	1	3082.412	-31.45796	-3.578959E-006	0.0107837	8
	2	4	630984.4	2939.496	-1510.898	1	3305.064	-27.20312	-4.42347E-006	0.0111354	8
	3	5	501234.4	3204.813	-1346.227	1	3476.083	-22.78553	1.714872E-006	0.0095943	8
	4	6	398109.4	3419.37	-1194.794	1	3622.102	-19.26041	4.324184E-006	0.0090602	8
	5	8	316265.6	3595.553	-1007.378	1	3734.008	-15.65145	-4.746441E-006	0.0108202	8
	6	9	251203.1	3704.833	-853.0037	1	3801.764	-12.96587	4.00326E-006	0.0090755	8
	7	11	199546.9	3775.071	-735.3304	1	3846.02	-11.02239	-2.060022E-006	0.0101603	8
	8	12	158578.1	3837.424	-615.2248	1	3886.428	-9.108283	4.195952E-006	0.0090857	8
	9	14	125953.1	3891.364	-478.3522	1	3920.655	-7.008018	2.423437E-007	0.009247	7
	10	15	100078.1	3939.951	-416.8422	1	3961.94	-6.03936	7.7877E-008	0.0096133	7
	11	16	79453.13	3966.041	-368.489	1	3983.123	-5.308172	7.546107E-008	0.0097289	7
	12	18	63140.62	3992.715	-329.4065	1	4006.281	-4.716328	-6.948636E-009	0.00981	7
	13	19	50203.12	4015.109	-302.0113	1	4026.452	-4.301614	-1.722346E-008	0.0097436	7
	14	20	39890.62	4035.674	-283.1422	1	4045.594	-4.013286	-4.730414E-008	0.0098572	7
	15	22	31640.63	4053.687	-272.7574	1	4062.853	-3.849416	1.255741E-007	0.0095741	7
	16	23	25171.88	4070.595	-271.8301	1	4079.661	-3.82048	-7.319826E-008	0.0098771	7
	17	24	20015.62	4095.573	-279.6823	1	4105.112	-3.906603	1.12398E-008	0.0097009	7
	18	26	15890.62	4103.939	-295.9754	1	4114.598	-4.125021	-6.898362E-008	0.009878	7
	19	27	12609.37	4120.025	-322.2545	1	4132.608	-4.472378	6.324686E-008	0.0096619	7
	20	28	10078.13	4136.684	-360.3034	1	4152.345	-4.977876	-7.319984E-008	0.0098748	7
	21	30	8015.625	4156.132	-416.304	1	4176.93	-5.720022	7.497662E-008	0.0096073	7
	22	31	6328.125	4172.403	-484.4286	1	4200.431	-6.622562	7.56767E-008	0.0097221	7
	23	32	5015.625	4194.675	-575.1965	1	4233.929	-7.80801	1.461058E-008	0.0096918	7
	24	34	3984.375	4214.516	-688.2505	1	4270.344	-9.274804	-7.748715E-009	0.0097183	7
	25	35	3170.956	4244.556	-829.9665	1	4324.939	-11.06383	1.19383E-008	0.0096904	7
	26	36	2527.573	4277.268	-1004.258	1	4393.581	-13.21312	6.51831E-008	0.0096452	7
	27	38	1976.103	4319.087	-1242.316	1	4494.204	-16.04704	3.414916E-008	0.0097229	7
	28	39	1577.524	4384.11	-1502.559	1	4634.448	-18.91804	-4.962421E-009	0.0097745	7
	29	41	1265.625	4427.358	-1835.46	1	4792.746	-22.51754	-3.538843E-008	0.0097762	7
	30	42	998.264	4505.139	-2264.419	1	5042.209	-26.68548	-7.055903E-008	0.0098655	7
	31	43	796.875	4596.177	-2769.62	1	5366.157	-31.07283	-7.153243E-008	0.0098636	7
	32	45	627.7902	4723.415	-3428.82	1	5836.733	-35.97664	-1.60429E-008	0.0097314	7
	33	46	505.5147	4867.282	-4159.071	1	6402.211	-40.51374	-4.563045E-008	0.0098437	7
	34	47	397.9953	5079.585	-5145.62	1	7230.462	-45.37001	4.51749E-009	0.0097645	7
	35	49	315.5048	5347.263	-6325.197	1	8282.592	-49.78913	4.628705E-009	0.0097671	7
	36	50	252.4038	5683.276	-7703.68	1	9573.21	-53.58249	4.223753E-009	0.0097649	7
	37	51	198.6229	6161.398	-9504.41	1	11326.81	-57.04598	7.808394E-010	0.0097003	6
	38	53	158.3615	6754.769	-11568.95	1	13396.55	-59.72061	2.008221E-010	0.0097	6
	39	54	125.558	7555.777	-14117.94	1	16012.68	-61.84476	1.127178E-009	0.0096998	6
	40	55	100.4464	8577.888	-17031.78	1	19069.92	-63.26834	1.176376E-009	0.0096983	6
	41	57	79.00281	9957.87	-20780.09	1	23042.81	-64.39613	6.28049E-010	0.0097013	6
	42	58	63.3446	11635.51	-24994.16	1	27569.79	-65.03666	9.339503E-010	0.0097088	6
	43	59	49.86702	13986.26	-29820.43	1	32937.41	-64.87267	-3.704102E-011	0.0096983	6
	44	61	39.72458	16871.12	-35500.46	1	39305.43	-64.58122	5.675341E-010	0.0097023	6
	45	62	31.6723	20271.99	-41815.99	1	46470.75	-64.13634	6.936925E-010	0.0097037	6
	46	64	24.93351	24626.64	-49557.77	1	55339.36	-63.57594	1.91665E-010	0.0096988	6
	47	65	19.86229	29450.05	-57777.2	1	64849.9	-62.99126	8.345604E-010	0.0096997	6
	48	66	15.83615	34753.39	-67620.74	1	76028.7	-62.79929	-1.128209E-009	0.0096978	6
	49	68	12.40079	41178.92	-78880.13	1	88981.89	-62.43345	8.192508E-010	0.0096952	6
	50	69	9.93114	48396.27	-91547.95	1	103553	-62.1371	1.422775E-011	0.0097005	5
	51	71	7.944915	55727	-106231.4	1	119960.8	-62.31934	1.013605E-009	0.0096992	5
	52	72	6.317385	64603.41	-124476.8	1	140242.9	-62.57069	5.286201E-010	0.0097051	5
	53	74	5.008013	74789.3	-146671.9	1	164639.3	-62.98257	4.207337E-010	0.0097068	5
	54	77	3.945707	87234.26	-174086.9	1	194720.5	-63.38473	-1.889317E-010	0.0096944	5
	55	79	3.158693	100918.9	-204580.4	1	228117.8	-63.74302	2.445115E-010	0.0097124	5
	56	83	2.504006	118217.7	-242556.2	1	269831.3	-64.0162	-3.370705E-010	0.0097032	5
	57	86	1.998082	138140.9	-285360.7	1	317038.9	-64.16873	6.234932E-011	0.0096571	5
	58	89	1.584686	161977.2	-337950.6	1	374762.9	-64.39194	-9.281667E-011	0.0096798	5
	59	92	1.266892	190808.1	-396833.1	1	440322.9	-64.3205	6.644265E-011	0.0096565	5
	60	97	0.999041	225956.9	-470657.9	1	522087.5	-64.35493	-9.302594E-011	0.0097304	5
