EXPLAIN
TAG	EISPOT
TITLE	LABEL	Potentiostatic EIS	Test &Identifier
DATE	LABEL	10/20/2019	Date
TIME	LABEL	9:50:33	Time
NOTES	NOTES	1	&Notes...
	
PSTAT	PSTAT	REF600-11020	Potentiostat
VDC	POTEN	0.00000E+000	T	DC &Voltage (V)
FREQINIT	QUANT	1.00000E+006	Initial Fre&q. (Hz)
FREQFINAL	QUANT	1.00000E+000	Final Fre&q. (Hz)
PTSPERDEC	QUANT	1.00000E+001	Points/&decade
VAC	QUANT	2.50000E+001	AC &Voltage (mV rms)
AREA	QUANT	1.00000E-002	&Area (cm^2)
CONDIT	TWOPARAM	T	5.00000E+000	0.00000E+000	Conditionin&g	Time(s)	E(V)
DELAY	TWOPARAM	T	5.00000E+000	0.00000E+000	Init. De&lay	Time(s)	Stab.(mV/s)
SPEED	SELECTOR	1	&Optimize for:
ZGUESS	QUANT	1.00000E+005	E&stimated Z (ohms)
OCVCURVE	TABLE	19
	Pt	T	Vf	Vm	Ach	Over
	#	s	V vs. Ref.	V	V	bits
	0	0.258333	5.68065E-003	5.68065E-003	5.17200E-004	...........
	1	0.516667	5.68010E-003	5.65198E-003	5.20666E-004	...........
	2	0.775	5.67719E-003	5.64827E-003	5.21933E-004	...........
	3	1.03333	5.67105E-003	5.67692E-003	5.22300E-004	...........
	4	1.29167	5.66469E-003	5.65526E-003	5.17233E-004	...........
	5	1.55	5.66206E-003	5.68897E-003	5.15333E-004	...........
	6	1.80833	5.66448E-003	5.70011E-003	5.19733E-004	...........
	7	2.06667	5.67188E-003	5.70981E-003	5.17866E-004	...........
	8	2.325	5.68434E-003	5.78076E-003	5.17533E-004	...........
	9	2.58333	5.70260E-003	5.76694E-003	5.14033E-004	...........
	10	2.84167	5.72566E-003	5.77320E-003	5.12800E-004	...........
	11	3.1	5.74801E-003	5.78589E-003	5.14466E-004	...........
	12	3.35833	5.76526E-003	5.82377E-003	5.20666E-004	...........
	13	3.61667	5.77988E-003	5.84423E-003	5.22000E-004	...........
	14	3.875	5.79353E-003	5.68971E-003	5.19866E-004	...........
	15	4.13333	5.79470E-003	5.59537E-003	5.17066E-004	...........
	16	4.39167	5.76644E-003	5.57906E-003	5.11867E-004	...........
	17	4.65	5.71114E-003	5.60760E-003	5.18333E-004	...........
	18	4.90833	5.65102E-003	5.46649E-003	5.21333E-004	...........
EOC	QUANT	0.005651	Open Circuit (V)
PSTATMODEL	IQUANT	4	Pstat Model
PSTATSECTION	LABEL	REF600-11020	Pstat Section
PSTATSERIALNO	LABEL	11020	Pstat Serial Number
CTRLMODE	IQUANT	1	Control Mode
IESTAB	IQUANT	0	I/E Stability
CASPEED	IQUANT	1	Control Amp Speed
CONVENTION	IQUANT	1	Current Convention
ICHRANGE	IQUANT	2	Ich Range
ICHRANGEMODE	TOGGLE	F	Ich Auto Range
ICHOFFSETENABLE	TOGGLE	T	Ich Offset Enable
ICHOFFSET	QUANT	0	Ich Offset (V)
ICHFILTER	IQUANT	3	Ich Filter
VCHRANGE	IQUANT	2	Vch Range
VCHRANGEMODE	TOGGLE	F	Vch Auto Range
VCHOFFSETENABLE	TOGGLE	T	Vch Offset Enable
VCHOFFSET	QUANT	0	Vch Offset (V)
VCHFILTER	IQUANT	3	Vch Filter
ACHRANGE	IQUANT	2	Ach Range
ACHOFFSETENABLE	TOGGLE	F	Ach Offset Enable
ACHOFFSET	QUANT	0	Ach Offset (V)
ACHFILTER	IQUANT	3	Ach Filter
IERANGELOWERLIMIT	IQUANT	1	I/E Range Lower Limit
IERANGEMODE	TOGGLE	F	I/E AutoRange
IERANGE	IQUANT	5	I/E Range
POSFEEDENABLE	TOGGLE	F	Positive Feedback IR Comp
POSFEEDRESISTANCE	QUANT	0	Positive Feedback Resistance (ohm)
ACHSELECT	IQUANT	0	Ach Select
CABLEID	IQUANT	14	Cable ID
DCCALDATE	LABEL	8/19/2019	DC Calibration Date
ACCALDATE	LABEL	8/19/2019	AC Calibration Date
THERMOSELECT	IQUANT	1	Thermo Select
FRAMEWORKVERSION	QUANT	6.33	Framework Version
INSTRUMENTVERSION	LABEL	3.50	Instrument Version
ZCURVE	TABLE
	Pt	Time	Freq	Zreal	Zimag	Zsig	Zmod	Zphz	Idc	Vdc	IERange
	#	s	Hz	ohm	ohm	V	ohm	°	A	V	#
	0	2	1000078	2638.746	-1693.716	1	3135.547	-32.69494	6.285881E-006	0.0070568	8
	1	3	794390.6	2926.724	-1661.521	1	3365.467	-29.58388	-6.144205E-006	0.0084862	8
	2	4	630984.4	3241.33	-1615.286	1	3621.515	-26.48895	-4.502291E-006	0.0086643	8
	3	6	501234.4	3510.666	-1521.693	1	3826.268	-23.43425	4.167919E-006	0.0066511	8
	4	7	398109.4	3760.816	-1419.187	1	4019.68	-20.67458	2.90907E-006	0.0066364	8
	5	9	316265.6	3972.049	-1298.459	1	4178.896	-18.10252	-2.890312E-006	0.0078649	8
	6	10	251203.1	4180.308	-1158.044	1	4337.746	-15.48399	5.423279E-006	0.0061578	8
	7	12	199546.9	4327.851	-1035.106	1	4449.915	-13.45094	1.807792E-006	0.0071162	8
	8	13	158578.1	4469.311	-891.641	1	4557.385	-11.28255	-3.512795E-006	0.0080224	8
	9	14	125953.1	4600.442	-729.4146	1	4657.909	-9.009429	-9.355304E-007	0.0092477	7
	10	16	100078.1	4659.281	-634.5793	1	4702.296	-7.755782	-1.053917E-007	0.0074608	7
	11	17	79453.13	4721.224	-566.9646	1	4755.145	-6.847771	-6.03512E-008	0.0073289	7
	12	18	63140.62	4770.727	-507.7756	1	4797.674	-6.075442	3.099406E-008	0.0073721	7
	13	20	50203.12	4812.46	-463.7996	1	4834.758	-5.504864	4.784011E-008	0.007249	7
	14	21	39890.62	4851.334	-438.4003	1	4871.103	-5.16362	-1.627955E-008	0.0073668	7
	15	22	31640.63	4883.084	-416.1987	1	4900.789	-4.871703	9.528093E-008	0.0070971	7
	16	24	25171.88	4914.366	-408.8845	1	4931.346	-4.756162	-7.520948E-008	0.0074098	7
	17	25	20015.62	4931.969	-411.0506	1	4949.068	-4.764255	-7.830366E-008	0.0074186	7
	18	27	15890.62	4976.852	-432.0251	1	4995.568	-4.961233	9.717652E-008	0.0070949	7
	19	28	12609.37	5007.15	-462.9753	1	5028.508	-5.282711	-1.314477E-008	0.0072925	7
	20	29	10078.13	5039.529	-502.7029	1	5064.54	-5.696521	3.01455E-008	0.0071915	7
	21	31	8015.625	5076.509	-565.5063	1	5107.91	-6.356354	-1.554509E-008	0.0073693	7
	22	32	6328.125	5108.53	-644.627	1	5149.041	-7.191936	-6.234523E-008	0.00742	7
	23	33	5015.625	5147.328	-745.0127	1	5200.964	-8.23567	5.975889E-008	0.0071159	7
	24	35	3984.375	5192.09	-868.8739	1	5264.289	-9.50017	-4.868638E-009	0.0072787	7
	25	36	3170.956	5234.764	-1029.442	1	5335.026	-11.12553	5.416597E-008	0.0072132	7
	26	38	2527.573	5289.223	-1224.666	1	5429.151	-13.03653	1.319234E-007	0.0070948	7
	27	39	1976.103	5353.463	-1481.776	1	5554.749	-15.47147	-1.009771E-007	0.0074474	7
	28	40	1577.524	5442.133	-1789.154	1	5728.69	-18.19878	5.671633E-008	0.0071227	7
	29	42	1265.625	5504.589	-2134.501	1	5903.947	-21.19468	-3.934367E-008	0.007293	7
	30	43	998.264	5597.95	-2599.728	1	6172.166	-24.91049	5.827347E-008	0.0071194	7
	31	44	796.875	5709.017	-3150.277	1	6520.515	-28.89024	9.244514E-009	0.0072827	7
	32	46	627.7902	5841.465	-3869.294	1	7006.722	-33.51986	3.359267E-008	0.0071766	7
	33	47	505.5147	5987.528	-4665.972	1	7590.901	-37.92864	-6.482952E-009	0.0072806	7
	34	48	397.9953	6181.863	-5759.664	1	8449.211	-42.97512	5.14899E-009	0.0073115	7
	35	50	315.5048	6411.287	-7073.486	1	9546.67	-47.81137	5.114379E-009	0.0073137	7
	36	51	252.4038	6685.819	-8628.081	1	10915.31	-52.22823	-2.183149E-010	0.0072506	6
	37	53	198.6229	7050.56	-10691.27	1	12806.78	-56.59639	6.394421E-010	0.007249	6
	38	54	158.3615	7498.995	-13099.88	1	15094.43	-60.21112	-5.682635E-012	0.0072482	6
	39	55	125.558	8082.731	-16138.14	1	18049.1	-63.39616	7.998777E-010	0.0072486	6
	40	57	100.4464	8832.657	-19735.87	1	21622.22	-65.88942	3.95474E-010	0.0072506	6
	41	58	79.00281	9905.26	-24415.7	1	26348.44	-67.91798	1.773489E-009	0.0072507	6
	42	59	63.3446	11427.54	-30016.44	1	32118.14	-69.15769	1.079047E-010	0.0072486	6
	43	61	49.86702	12590.92	-36909.34	1	38997.83	-71.16391	1.251016E-009	0.0072492	6
	44	62	39.72458	15047.82	-44854.82	1	47311.64	-71.45451	1.032827E-009	0.0072528	6
	45	64	31.6723	18113.39	-54652	1	57575.48	-71.66318	8.165895E-010	0.0072471	6
	46	65	24.93351	22167.81	-66917.36	1	70493.58	-71.67144	7.564234E-010	0.0072505	6
	47	67	19.86229	27436	-80790.28	1	85321.77	-71.24275	-2.52749E-010	0.0072542	6
	48	68	15.83615	34862.17	-97314.5	1	103370.6	-70.29033	1.628908E-010	0.0072485	6
	49	69	12.40079	43773.8	-119834.1	1	127578.8	-69.93343	-1.378131E-009	0.0072515	5
	50	71	9.93114	56441.7	-140170.8	1	151107.7	-68.06715	1.02628E-009	0.0072467	5
	51	73	7.944915	71764.79	-164991.9	1	179923.6	-66.49291	-8.708043E-011	0.0072433	5
	52	74	6.317385	90271.91	-193927.8	1	213908.9	-65.03838	5.722974E-010	0.0072596	5
	53	76	5.008013	113877.1	-226020.3	1	253087.2	-63.25941	4.553197E-010	0.0072483	5
	54	79	3.945707	143011.8	-261429.8	1	297989.8	-61.3197	1.902937E-010	0.0072524	5
	55	82	3.158693	175496.2	-298187.8	1	345998.4	-59.52139	-6.002137E-012	0.0072518	5
	56	85	2.504006	212946.5	-338404.9	1	399830.1	-57.81922	3.087041E-010	0.0072364	5
	57	88	1.998082	252923.9	-380595.6	1	456972.1	-56.39407	-5.897462E-011	0.0072865	5
	58	91	1.584686	295964.4	-428748.9	1	520980.3	-55.38277	2.321541E-010	0.0072539	5
	59	95	1.266892	342992.1	-480877.4	1	590666.3	-54.50114	4.356898E-011	0.0072874	5
	60	99	0.999041	394044.7	-545374.1	1	672832.9	-54.15106	-4.967117E-011	0.0072087	5
