EXPLAIN
TAG	EISPOT
TITLE	LABEL	Potentiostatic EIS	Test &Identifier
DATE	LABEL	10/24/2019	Date
TIME	LABEL	9:46:52	Time
NOTES	NOTES	1	&Notes...
	
PSTAT	PSTAT	REF600-11020	Potentiostat
VDC	POTEN	0.00000E+000	T	DC &Voltage (V)
FREQINIT	QUANT	1.00000E+006	Initial Fre&q. (Hz)
FREQFINAL	QUANT	1.00000E+000	Final Fre&q. (Hz)
PTSPERDEC	QUANT	1.00000E+001	Points/&decade
VAC	QUANT	2.50000E+001	AC &Voltage (mV rms)
AREA	QUANT	1.00000E-002	&Area (cm^2)
CONDIT	TWOPARAM	T	5.00000E+000	0.00000E+000	Conditionin&g	Time(s)	E(V)
DELAY	TWOPARAM	T	5.00000E+000	0.00000E+000	Init. De&lay	Time(s)	Stab.(mV/s)
SPEED	SELECTOR	1	&Optimize for:
ZGUESS	QUANT	1.00000E+005	E&stimated Z (ohms)
OCVCURVE	TABLE	19
	Pt	T	Vf	Vm	Ach	Over
	#	s	V vs. Ref.	V	V	bits
	0	0.258333	5.11290E-003	5.11290E-003	5.20433E-004	...........
	1	0.516667	5.11098E-003	5.01269E-003	5.21333E-004	...........
	2	0.775	5.09841E-003	4.87502E-003	5.20966E-004	...........
	3	1.03333	5.06329E-003	4.90792E-003	5.24933E-004	...........
	4	1.29167	5.00587E-003	4.77742E-003	5.31266E-004	...........
	5	1.55	4.93958E-003	4.78018E-003	5.23300E-004	...........
	6	1.80833	4.87532E-003	4.67992E-003	5.27266E-004	...........
	7	2.06667	4.81630E-003	4.70028E-003	5.24533E-004	...........
	8	2.325	4.76445E-003	4.66109E-003	5.26833E-004	...........
	9	2.58333	4.72203E-003	4.61146E-003	5.23066E-004	...........
	10	2.84167	4.68766E-003	4.61266E-003	5.22133E-004	...........
	11	3.1	4.65742E-003	4.56706E-003	5.26566E-004	...........
	12	3.35833	4.63048E-003	4.61538E-003	5.22033E-004	...........
	13	3.61667	4.60859E-003	4.51238E-003	5.22233E-004	...........
	14	3.875	4.59072E-003	4.56629E-003	5.26066E-004	...........
	15	4.13333	4.57394E-003	4.52404E-003	5.24966E-004	...........
	16	4.39167	4.55900E-003	4.55998E-003	5.24166E-004	...........
	17	4.65	4.54925E-003	4.54541E-003	5.23900E-004	...........
	18	4.90833	4.54942E-003	4.74512E-003	5.27300E-004	...........
EOC	QUANT	0.0045494	Open Circuit (V)
PSTATMODEL	IQUANT	4	Pstat Model
PSTATSECTION	LABEL	REF600-11020	Pstat Section
PSTATSERIALNO	LABEL	11020	Pstat Serial Number
CTRLMODE	IQUANT	1	Control Mode
IESTAB	IQUANT	0	I/E Stability
CASPEED	IQUANT	1	Control Amp Speed
CONVENTION	IQUANT	1	Current Convention
ICHRANGE	IQUANT	2	Ich Range
ICHRANGEMODE	TOGGLE	F	Ich Auto Range
ICHOFFSETENABLE	TOGGLE	T	Ich Offset Enable
ICHOFFSET	QUANT	0	Ich Offset (V)
ICHFILTER	IQUANT	3	Ich Filter
VCHRANGE	IQUANT	2	Vch Range
VCHRANGEMODE	TOGGLE	F	Vch Auto Range
VCHOFFSETENABLE	TOGGLE	T	Vch Offset Enable
VCHOFFSET	QUANT	0	Vch Offset (V)
VCHFILTER	IQUANT	3	Vch Filter
ACHRANGE	IQUANT	2	Ach Range
ACHOFFSETENABLE	TOGGLE	F	Ach Offset Enable
ACHOFFSET	QUANT	0	Ach Offset (V)
ACHFILTER	IQUANT	3	Ach Filter
IERANGELOWERLIMIT	IQUANT	1	I/E Range Lower Limit
IERANGEMODE	TOGGLE	F	I/E AutoRange
IERANGE	IQUANT	4	I/E Range
POSFEEDENABLE	TOGGLE	F	Positive Feedback IR Comp
POSFEEDRESISTANCE	QUANT	0	Positive Feedback Resistance (ohm)
ACHSELECT	IQUANT	0	Ach Select
CABLEID	IQUANT	14	Cable ID
DCCALDATE	LABEL	8/19/2019	DC Calibration Date
ACCALDATE	LABEL	8/19/2019	AC Calibration Date
THERMOSELECT	IQUANT	1	Thermo Select
FRAMEWORKVERSION	QUANT	6.33	Framework Version
INSTRUMENTVERSION	LABEL	3.50	Instrument Version
ZCURVE	TABLE
	Pt	Time	Freq	Zreal	Zimag	Zsig	Zmod	Zphz	Idc	Vdc	IERange
	#	s	Hz	ohm	ohm	V	ohm	°	A	V	#
	0	2	1000078	2425.675	-1803	1	3022.368	-36.62336	-4.262957E-006	0.0075794	8
	1	4	794390.6	2800.518	-1748.995	1	3301.8	-31.98583	9.433764E-007	0.0067386	8
	2	5	630984.4	3129.148	-1629.623	1	3528.064	-27.50997	-2.504917E-006	0.0067875	8
	3	6	501234.4	3416.68	-1473.784	1	3720.986	-23.33294	3.601943E-006	0.0055208	8
	4	8	398109.4	3623.376	-1281.428	1	3843.294	-19.47644	2.747509E-006	0.0054897	8
	5	9	316265.6	3809.213	-1120.293	1	3970.536	-16.38866	3.009268E-006	0.0055721	8
	6	11	251203.1	3936.467	-976.514	1	4055.78	-13.93205	-6.135078E-007	0.0063031	8
	7	12	199546.9	4031.948	-831.2971	1	4116.753	-11.64986	-5.025229E-007	0.0063041	8
	8	14	158578.1	4101.246	-730.4323	1	4165.783	-10.0985	9.099666E-007	0.0058492	8
	9	15	125953.1	4198.043	-587.4197	1	4238.942	-7.96551	4.277506E-007	0.0056055	7
	10	16	100078.1	4222.949	-524.8504	1	4255.44	-7.084692	-8.534761E-009	0.0060548	7
	11	18	79453.13	4263.186	-484.6138	1	4290.641	-6.485209	-2.546675E-008	0.0060327	7
	12	19	63140.62	4300.506	-457.3597	1	4324.758	-6.070601	9.692803E-008	0.0058842	7
	13	20	50203.12	4336.847	-439.6076	1	4359.07	-5.788058	-2.395092E-008	0.0060683	7
	14	22	39890.62	4371.592	-435.2337	1	4393.205	-5.685606	-3.611507E-008	0.0060636	7
	15	23	31640.63	4408.962	-443.1502	1	4431.177	-5.739593	-3.516968E-008	0.0060589	7
	16	25	25171.88	4445.258	-461.2698	1	4469.126	-5.924192	-2.60872E-008	0.0060284	7
	17	26	20015.62	4505.984	-482.5491	1	4531.749	-6.11255	7.447809E-008	0.0059642	7
	18	27	15890.62	4529.371	-532.1906	1	4560.529	-6.701394	9.775628E-008	0.0058711	7
	19	29	12609.37	4574.354	-586.2084	1	4611.763	-7.302713	-5.259326E-009	0.0060286	7
	20	30	10078.13	4623.499	-652.0612	1	4669.253	-8.027594	9.791255E-008	0.005874	7
	21	31	8015.625	4676.475	-712.8907	1	4730.5	-8.667547	-2.442599E-008	0.0060703	7
	22	33	6328.125	4734.921	-842.903	1	4809.362	-10.09396	-2.060827E-008	0.0060123	7
	23	34	5015.625	4796.079	-973.141	1	4893.81	-11.4698	5.773677E-008	0.0059247	7
	24	35	3984.375	4864.137	-1130.865	1	4993.865	-13.0882	-5.657256E-008	0.0061927	7
	25	37	3170.956	4936.715	-1326.463	1	5111.816	-15.03978	8.085554E-008	0.0059504	7
	26	38	2527.573	5017.611	-1562.592	1	5255.293	-17.29771	-2.204756E-008	0.0060627	7
	27	40	1976.103	5114.615	-1878.177	1	5448.563	-20.16412	-2.570589E-008	0.006061	7
	28	41	1577.524	5155.49	-2224.707	1	5615.016	-23.34126	-4.553669E-008	0.0061677	7
	29	42	1265.625	5330.457	-2660.162	1	5957.368	-26.52147	-4.69775E-008	0.0061628	7
	30	44	998.264	5470.962	-3213.902	1	6345.124	-30.43199	5.546077E-008	0.0059155	7
	31	45	796.875	5628.798	-3869.78	1	6830.708	-34.5084	3.927454E-008	0.0059651	7
	32	46	627.7902	5822.875	-4715.333	1	7492.679	-39.00037	-1.15425E-009	0.006036	7
	33	48	505.5147	6025.967	-5654.381	1	8263.432	-43.17787	-4.997887E-008	0.0060892	7
	34	49	397.9953	6293.567	-6929.355	1	9360.82	-47.75279	4.938021E-009	0.0060282	7
	35	51	315.5048	6601.467	-8457.927	1	10729.21	-52.02773	8.078234E-010	0.0059691	6
	36	52	252.4038	6957.113	-10266.81	1	12401.97	-55.87721	1.30826E-009	0.0059636	6
	37	53	198.6229	7423.16	-12664.39	1	14679.58	-59.62354	8.721199E-010	0.005964	6
	38	55	158.3615	7978.698	-15468.98	1	17405.43	-62.7159	2.414513E-010	0.0059657	6
	39	56	125.558	8698.883	-18993.29	1	20890.57	-65.39233	8.906778E-010	0.0059661	6
	40	57	100.4464	9573.41	-23134.06	1	25036.67	-67.5191	1.018755E-009	0.0059715	6
	41	59	79.00281	10797.27	-28656.73	1	30623.35	-69.35462	1.267167E-009	0.0059689	6
	42	60	63.3446	12189.28	-35084.2	1	37141.34	-70.84127	3.548092E-010	0.0059706	6
	43	62	49.86702	14591.39	-42619.7	1	45048.28	-71.10071	-6.125008E-010	0.0059694	6
	44	63	39.72458	17324.3	-52210.74	1	55009.94	-71.64339	9.349649E-010	0.0059766	6
	45	64	31.6723	21058.94	-63328.33	1	66737.97	-71.60619	4.999187E-010	0.0059714	6
	46	66	24.93351	26164.68	-77592.86	1	81885.55	-71.36565	-2.119705E-010	0.0059684	6
	47	67	19.86229	32555.33	-93503.84	1	99009.2	-70.80337	1.54023E-010	0.005973	6
	48	69	15.83615	41305.34	-110919.4	1	118360.7	-69.57515	-4.331975E-010	0.0059742	5
	49	70	12.40079	52161.85	-136785.4	1	146393.7	-69.12611	1.09852E-009	0.0059823	5
	50	71	9.93114	66110.95	-160220.8	1	173324.4	-67.57777	2.27811E-010	0.0059787	5
	51	73	7.944915	83752.85	-188160	1	205958.1	-66.00544	3.471762E-010	0.0059763	5
	52	75	6.317385	105448.8	-219969.2	1	243938.3	-64.38787	-2.571079E-010	0.0059871	5
	53	77	5.008013	132555.5	-255642.9	1	287965.8	-62.59244	-6.737916E-011	0.0059732	5
	54	79	3.945707	165694.3	-295552.9	1	338830.5	-60.72393	-1.094414E-010	0.0059775	5
	55	82	3.158693	200894.5	-336347.2	1	391775.5	-59.15084	3.426657E-010	0.0059786	5
	56	85	2.504006	243254.3	-381466.2	1	452425.8	-57.47505	-1.317663E-010	0.005978	5
	57	88	1.998082	287067.2	-429239.3	1	516385.5	-56.22614	1.532885E-010	0.0059301	5
	58	91	1.584686	335546.1	-483545	1	588563.4	-55.24208	7.105661E-011	0.0059905	5
	59	95	1.266892	386645.8	-544140.5	1	667520.7	-54.60383	6.630513E-011	0.0059369	5
	60	99	0.999041	446337.4	-616879.5	1	761418	-54.11274	7.811635E-011	0.0060159	5
