EXPLAIN
TAG	EISPOT
TITLE	LABEL	Potentiostatic EIS	Test &Identifier
DATE	LABEL	10/10/2019	Date
TIME	LABEL	8:06:46	Time
NOTES	NOTES	1	&Notes...
	
PSTAT	PSTAT	REF600-11020	Potentiostat
VDC	POTEN	0.00000E+000	T	DC &Voltage (V)
FREQINIT	QUANT	1.00000E+006	Initial Fre&q. (Hz)
FREQFINAL	QUANT	1.00000E+000	Final Fre&q. (Hz)
PTSPERDEC	QUANT	1.00000E+001	Points/&decade
VAC	QUANT	2.50000E+001	AC &Voltage (mV rms)
AREA	QUANT	1.00000E-002	&Area (cm^2)
CONDIT	TWOPARAM	T	5.00000E+000	0.00000E+000	Conditionin&g	Time(s)	E(V)
DELAY	TWOPARAM	T	5.00000E+000	0.00000E+000	Init. De&lay	Time(s)	Stab.(mV/s)
SPEED	SELECTOR	1	&Optimize for:
ZGUESS	QUANT	1.00000E+004	E&stimated Z (ohms)
OCVCURVE	TABLE	19
	Pt	T	Vf	Vm	Ach	Over
	#	s	V vs. Ref.	V	V	bits
	0	0.258333	6.43349E-003	6.43349E-003	5.72832E-004	...........
	1	0.516667	6.50945E-003	1.04099E-002	5.78699E-004	...........
	2	0.775	6.79348E-003	4.62892E-003	5.78732E-004	...........
	3	1.03333	7.11979E-003	5.84312E-003	5.80732E-004	...........
	4	1.29167	7.06041E-003	5.30285E-003	5.79399E-004	...........
	5	1.55	6.56106E-003	5.50933E-003	5.75766E-004	...........
	6	1.80833	5.96895E-003	4.28974E-003	5.74099E-004	...........
	7	2.06667	5.51752E-003	6.04940E-003	5.80399E-004	...........
	8	2.325	5.27045E-003	5.60394E-003	5.73899E-004	...........
	9	2.58333	5.25123E-003	5.39645E-003	5.79199E-004	...........
	10	2.84167	5.37545E-003	5.83935E-003	5.74332E-004	...........
	11	3.1	5.51260E-003	5.87547E-003	5.76966E-004	...........
	12	3.35833	5.85985E-003	1.81082E-002	5.72699E-004	...........
	13	3.61667	6.84119E-003	6.00763E-004	5.74865E-004	...........
	14	3.875	7.94650E-003	3.99305E-003	5.77666E-004	...........
	15	4.13333	7.89474E-003	5.30711E-003	5.73532E-004	...........
	16	4.39167	6.65493E-003	4.93496E-003	5.75099E-004	...........
	17	4.65	5.38225E-003	2.33847E-003	5.75132E-004	...........
	18	4.90833	4.63193E-003	5.81132E-003	5.75932E-004	...........
EOC	QUANT	0.0046319	Open Circuit (V)
PSTATMODEL	IQUANT	4	Pstat Model
PSTATSECTION	LABEL	REF600-11020	Pstat Section
PSTATSERIALNO	LABEL	11020	Pstat Serial Number
CTRLMODE	IQUANT	1	Control Mode
IESTAB	IQUANT	0	I/E Stability
CASPEED	IQUANT	1	Control Amp Speed
CONVENTION	IQUANT	1	Current Convention
ICHRANGE	IQUANT	2	Ich Range
ICHRANGEMODE	TOGGLE	F	Ich Auto Range
ICHOFFSETENABLE	TOGGLE	T	Ich Offset Enable
ICHOFFSET	QUANT	0	Ich Offset (V)
ICHFILTER	IQUANT	3	Ich Filter
VCHRANGE	IQUANT	2	Vch Range
VCHRANGEMODE	TOGGLE	F	Vch Auto Range
VCHOFFSETENABLE	TOGGLE	T	Vch Offset Enable
VCHOFFSET	QUANT	0	Vch Offset (V)
VCHFILTER	IQUANT	3	Vch Filter
ACHRANGE	IQUANT	2	Ach Range
ACHOFFSETENABLE	TOGGLE	F	Ach Offset Enable
ACHOFFSET	QUANT	0	Ach Offset (V)
ACHFILTER	IQUANT	3	Ach Filter
IERANGELOWERLIMIT	IQUANT	1	I/E Range Lower Limit
IERANGEMODE	TOGGLE	F	I/E AutoRange
IERANGE	IQUANT	5	I/E Range
POSFEEDENABLE	TOGGLE	F	Positive Feedback IR Comp
POSFEEDRESISTANCE	QUANT	0	Positive Feedback Resistance (ohm)
ACHSELECT	IQUANT	0	Ach Select
CABLEID	IQUANT	14	Cable ID
DCCALDATE	LABEL	8/19/2019	DC Calibration Date
ACCALDATE	LABEL	8/19/2019	AC Calibration Date
THERMOSELECT	IQUANT	1	Thermo Select
FRAMEWORKVERSION	QUANT	6.33	Framework Version
INSTRUMENTVERSION	LABEL	3.50	Instrument Version
ZCURVE	TABLE
	Pt	Time	Freq	Zreal	Zimag	Zsig	Zmod	Zphz	Idc	Vdc	IERange
	#	s	Hz	ohm	ohm	V	ohm	°	A	V	#
	0	2	1000078	1185.519	-10261.84	1	10330.09	-83.41001	-7.920522E-006	0.0079249	8
	1	3	794390.6	1315.82	-12848.01	1	12915.22	-84.15248	5.290169E-006	0.0057286	8
	2	5	630984.4	1403.035	-16085.28	1	16146.36	-85.01501	1.449875E-007	0.0064939	8
	3	7	501234.4	1641.618	-20084.14	1	20151.12	-85.3272	-3.159466E-007	0.0064411	8
	4	9	398109.4	2369.728	-25262.46	1	25373.36	-84.64109	1.155708E-006	0.006167	8
	5	10	316265.6	2685.777	-30843.04	1	30959.75	-85.0233	-3.965599E-007	0.0065166	8
	6	12	251203.1	2474.421	-40169.05	1	40245.19	-86.47502	-2.177462E-006	0.0067761	8
	7	13	199546.9	5762.461	-52751.35	1	53065.16	-83.76583	1.04639E-006	0.0063193	8
	8	15	158578.1	2977.691	-60950.76	1	61023.45	-87.20309	-2.905981E-007	0.006328	8
	9	17	125953.1	5375.261	-76917.31	1	77104.91	-86.00246	-1.123287E-006	0.0086379	7
	10	18	100078.1	7101.336	-94500.83	1	94767.27	-85.70255	-1.020005E-007	0.0064804	7
	11	20	79453.13	8668.756	-117180.5	1	117500.7	-85.76909	-1.020222E-007	0.0064702	7
	12	22	63140.62	10733.12	-147663.2	1	148052.7	-85.84268	-9.393156E-009	0.0064882	7
	13	24	50203.12	13650.31	-183945.5	1	184451.3	-85.75595	1.681654E-007	0.0060685	7
	14	26	39890.62	18341.41	-225877.3	1	226620.7	-85.35773	5.27432E-008	0.0061355	7
	15	28	31640.63	19926.58	-288885	1	289571.4	-86.05412	1.135755E-007	0.0060758	7
	16	29	25171.88	26636.57	-355052.1	1	356049.8	-85.70962	-6.008352E-008	0.0064163	7
	17	31	20015.62	6761.336	-412965.4	1	413020.7	-89.062	1.753167E-009	0.0063589	7
	18	33	15890.62	30634.89	-563424.6	1	564256.9	-86.88774	-3.108957E-008	0.0063354	7
	19	34	12609.37	69172.8	-691487.2	1	694938.4	-84.28743	6.081838E-009	0.0063226	6
	20	36	10078.13	101390.9	-854975.6	1	860966.5	-83.23692	-6.440169E-009	0.0062182	6
	21	37	8015.625	150167.6	-1042537	1	1053297	-81.80347	-1.261692E-008	0.0063401	6
	22	39	6328.125	172209	-1333163	1	1344240	-82.63968	-1.043005E-008	0.0063277	6
	23	41	5015.625	213567.6	-1663190	1	1676846	-82.68278	4.822709E-009	0.0063403	6
	24	42	3984.375	123428.5	-1906743	1	1910733	-86.29626	2.8166E-008	0.0058848	6
	25	44	3170.956	410172.3	-2488666	1	2522241	-80.64087	9.489138E-009	0.0060057	6
	26	46	2527.573	643415.1	-3077821	1	3144355	-78.19242	-5.765552E-009	0.0061407	6
	27	47	1976.103	952282	-3440523	1	3569879	-74.52876	-1.043383E-008	0.0063084	6
	28	49	1577.524	1828158	-5206732	1	5518353	-70.6531	5.409815E-009	0.0063011	6
	29	51	1265.625	1966653	-5743771	1	6071131	-71.09892	-4.810102E-010	0.0063311	5
	30	53	998.264	2506603	-6811518	1	7258088	-69.79665	-7.706225E-010	0.006405	5
	31	55	796.875	3682663	-7811528	1	8636085	-64.75896	2.422746E-009	0.0057668	5
	32	56	627.7902	4188350	-9.818485E+006	1	1.06745E+007	-66.89797	7.144807E-010	0.0062615	5
	33	58	505.5147	6871308	-9.747529E+006	1	1.192599E+007	-54.81891	-6.909788E-010	0.006398	5
	34	59	397.9953	9106703	-1.07957E+007	1	1.412371E+007	-49.85072	5.783823E-010	0.0062554	5
	35	61	315.5048	9.790776E+006	-1.599467E+007	1	1.875337E+007	-58.52806	4.053584E-010	0.0062576	5
	36	62	252.4038	1.582977E+007	-1.000911E+007	1	1.872869E+007	-32.30505	-6.026247E-011	0.0062526	5
	37	64	198.6229	1.657603E+007	-1.220118E+007	1	2.058236E+007	-36.3558	-1.04696E-011	0.0062567	5
	38	65	158.3615	1.892698E+007	-1.848796E+007	1	2.645818E+007	-44.32773	-2.535166E-010	0.0062504	5
	39	67	125.558	1.98268E+007	-1.078181E+007	1	2.256877E+007	-28.53734	2.922921E-010	0.0062486	4
	40	68	100.4464	2.384697E+007	-1.441084E+007	1	2.786307E+007	-31.14477	9.984598E-011	0.0062501	4
	41	70	79.00281	1.321239E+007	-4393133	1	1.392361E+007	-18.39202	-1.561283E-010	0.0062496	4
	42	71	63.3446	4486591	25689.11	1	4486665	0.3280578	-3.24935E-010	0.0062505	4
	43	73	49.86702	1.863748E+007	2892213	1	1.886056E+007	8.820949	7.194234E-011	0.0062471	4
	44	75	39.72458	6.159144E+007	2.554154E+007	1	6.66774E+007	22.52344	3.084944E-010	0.0062487	4
	45	76	31.6723	1.746518E+007	1671608	1	1.7545E+007	5.467175	-2.713477E-010	0.0062521	5
	46	78	24.93351	2.588639E+007	-5830859	1	2.653496E+007	-12.69391	4.341972E-011	0.0062538	4
	47	80	19.86229	2.100926E+007	-2935386	1	2.121333E+007	-7.953801	-2.520096E-010	0.0062629	4
	48	81	15.83615	-1.507531E+007	2.465931E+007	1	2.890236E+007	121.4393	9.935657E-010	0.0062434	4
	49	83	12.40079	1.247357E+007	-1.032419E+007	1	1.619193E+007	-39.61404	6.653552E-010	0.0062484	4
	50	84	9.93114	2.85987E+007	-2027330	1	2.867047E+007	-4.054851	5.133795E-011	0.0062521	4
	51	86	7.944915	6.620313E+007	-2.946355E+007	1	7.246348E+007	-23.99135	-3.146356E-010	0.0062576	4
	52	88	6.317385	3.092027E+007	-2098920	1	3.099142E+007	-3.883378	2.659357E-011	0.0062536	5
	53	91	5.008013	2.815651E+007	-3861722	1	2.84201E+007	-7.809506	-3.050269E-011	0.0062575	4
	54	94	3.945707	3.300572E+007	1657889	1	3.304733E+007	2.87557	1.979222E-010	0.0062475	4
	55	97	3.158693	3.093005E+007	-4011210	1	3.118907E+007	-7.389247	6.450526E-011	0.0062417	4
	56	101	2.504006	9.002156E+007	-7727717	1	9.035264E+007	-4.906411	2.903851E-011	0.0062404	3
	57	105	1.998082	9.337563E+007	-7245353	1	9.36563E+007	-4.436897	2.454302E-011	0.0062841	3
	58	109	1.584686	9.212229E+007	-5896397	1	9.23108E+007	-3.662289	2.414831E-011	0.0062774	3
	59	115	1.266892	9.341673E+007	-8990042	1	9.384831E+007	-5.496982	2.457647E-011	0.0062754	3
	60	119	0.999041	7.162203E+008	-1.711788E+008	1	7.363923E+008	-13.44171	1.349389E-011	0.0062269	2
