EXPLAIN
TAG	EISPOT
TITLE	LABEL	Potentiostatic EIS	Test &Identifier
DATE	LABEL	10/4/2019	Date
TIME	LABEL	9:17:15	Time
NOTES	NOTES	2	&Notes...
	
	
PSTAT	PSTAT	REF600-11020	Potentiostat
VDC	POTEN	0.00000E+000	T	DC &Voltage (V)
FREQINIT	QUANT	1.00000E+006	Initial Fre&q. (Hz)
FREQFINAL	QUANT	1.00000E+000	Final Fre&q. (Hz)
PTSPERDEC	QUANT	1.00000E+001	Points/&decade
VAC	QUANT	2.50000E+001	AC &Voltage (mV rms)
AREA	QUANT	1.00000E-002	&Area (cm^2)
CONDIT	TWOPARAM	T	5.00000E+000	0.00000E+000	Conditionin&g	Time(s)	E(V)
DELAY	TWOPARAM	T	5.00000E+000	0.00000E+000	Init. De&lay	Time(s)	Stab.(mV/s)
SPEED	SELECTOR	1	&Optimize for:
ZGUESS	QUANT	1.00000E+004	E&stimated Z (ohms)
OCVCURVE	TABLE	19
	Pt	T	Vf	Vm	Ach	Over
	#	s	V vs. Ref.	V	V	bits
	0	0.258333	3.95012E-003	3.95012E-003	5.41966E-004	...........
	1	0.516667	3.94663E-003	3.76748E-003	5.48266E-004	...........
	2	0.775	3.92568E-003	3.61930E-003	5.66099E-004	...........
	3	1.03333	3.86813E-003	3.48377E-003	5.57333E-004	...........
	4	1.29167	3.76909E-003	3.36932E-003	5.44866E-004	...........
	5	1.55	3.64393E-003	3.26888E-003	5.53199E-004	...........
	6	1.80833	3.51396E-003	3.17812E-003	5.51366E-004	...........
	7	2.06667	3.39304E-003	3.09308E-003	5.40699E-004	...........
	8	2.325	3.28563E-003	3.02120E-003	5.42466E-004	...........
	9	2.58333	3.19076E-003	2.94764E-003	5.52766E-004	...........
	10	2.84167	3.10591E-003	2.88252E-003	5.53566E-004	...........
	11	3.1	3.02866E-003	2.82264E-003	5.43799E-004	...........
	12	3.35833	2.95745E-003	2.76766E-003	5.40433E-004	...........
	13	3.61667	2.89156E-003	2.71305E-003	5.55133E-004	...........
	14	3.875	2.83045E-003	2.66323E-003	5.54799E-004	...........
	15	4.13333	2.77339E-003	2.61617E-003	5.44999E-004	...........
	16	4.39167	2.71978E-003	2.57140E-003	5.44233E-004	...........
	17	4.65	2.66924E-003	2.52696E-003	5.51199E-004	...........
	18	4.90833	2.62137E-003	2.48596E-003	5.45499E-004	...........
EOC	QUANT	0.0026214	Open Circuit (V)
PSTATMODEL	IQUANT	4	Pstat Model
PSTATSECTION	LABEL	REF600-11020	Pstat Section
PSTATSERIALNO	LABEL	11020	Pstat Serial Number
CTRLMODE	IQUANT	1	Control Mode
IESTAB	IQUANT	0	I/E Stability
CASPEED	IQUANT	1	Control Amp Speed
CONVENTION	IQUANT	1	Current Convention
ICHRANGE	IQUANT	2	Ich Range
ICHRANGEMODE	TOGGLE	F	Ich Auto Range
ICHOFFSETENABLE	TOGGLE	T	Ich Offset Enable
ICHOFFSET	QUANT	0	Ich Offset (V)
ICHFILTER	IQUANT	3	Ich Filter
VCHRANGE	IQUANT	2	Vch Range
VCHRANGEMODE	TOGGLE	F	Vch Auto Range
VCHOFFSETENABLE	TOGGLE	T	Vch Offset Enable
VCHOFFSET	QUANT	0	Vch Offset (V)
VCHFILTER	IQUANT	3	Vch Filter
ACHRANGE	IQUANT	2	Ach Range
ACHOFFSETENABLE	TOGGLE	F	Ach Offset Enable
ACHOFFSET	QUANT	0	Ach Offset (V)
ACHFILTER	IQUANT	3	Ach Filter
IERANGELOWERLIMIT	IQUANT	1	I/E Range Lower Limit
IERANGEMODE	TOGGLE	F	I/E AutoRange
IERANGE	IQUANT	5	I/E Range
POSFEEDENABLE	TOGGLE	F	Positive Feedback IR Comp
POSFEEDRESISTANCE	QUANT	0	Positive Feedback Resistance (ohm)
ACHSELECT	IQUANT	0	Ach Select
CABLEID	IQUANT	14	Cable ID
DCCALDATE	LABEL	8/19/2019	DC Calibration Date
ACCALDATE	LABEL	8/19/2019	AC Calibration Date
THERMOSELECT	IQUANT	1	Thermo Select
FRAMEWORKVERSION	QUANT	6.33	Framework Version
INSTRUMENTVERSION	LABEL	3.50	Instrument Version
ZCURVE	TABLE
	Pt	Time	Freq	Zreal	Zimag	Zsig	Zmod	Zphz	Idc	Vdc	IERange
	#	s	Hz	ohm	ohm	V	ohm	°	A	V	#
	0	1	1000078	2491.831	-1213.046	1	2771.408	-25.95724	-3.027774E-006	0.0050705	8
	1	3	794390.6	2690.641	-1083.596	1	2900.643	-21.93601	5.888805E-006	0.0034615	8
	2	4	630984.4	2857.861	-956.58	1	3013.704	-18.50637	9.734671E-007	0.0036758	8
	3	5	501234.4	2973.525	-830.5812	1	3087.348	-15.6064	-7.895687E-007	0.0040655	8
	4	7	398109.4	3070.368	-708.4902	1	3151.05	-12.99362	-9.17226E-007	0.0044885	8
	5	8	316265.6	3147.373	-614.4169	1	3206.784	-11.04612	3.836055E-006	0.0034048	8
	6	9	251203.1	3209.06	-524.4041	1	3251.625	-9.280877	-2.741288E-006	0.0046021	8
	7	11	199546.9	3239.737	-461.8296	1	3272.489	-8.112945	3.70265E-006	0.0034296	8
	8	12	158578.1	3277.975	-413.483	1	3303.95	-7.189307	-2.533026E-006	0.00459	8
	9	13	125953.1	3318.486	-331.4845	1	3335	-5.70437	1.447608E-006	0.0009833	7
	10	15	100078.1	3336.542	-309.7167	1	3350.886	-5.303321	1.598579E-008	0.0039704	7
	11	16	79453.13	3359.707	-303.9117	1	3373.425	-5.168781	4.039223E-008	0.0040063	7
	12	18	63140.62	3385.43	-306.4485	1	3399.272	-5.172307	-1.667181E-008	0.0040759	7
	13	19	50203.12	3411.635	-314.1248	1	3426.065	-5.260652	-4.489595E-008	0.0041462	7
	14	20	39890.62	3440.031	-328.966	1	3455.724	-5.462515	9.678647E-009	0.0041405	7
	15	22	31640.63	3471.653	-351.83	1	3489.435	-5.786807	-6.926179E-008	0.0041335	7
	16	23	25171.88	3504.635	-382.0676	1	3525.4	-6.221689	7.915929E-009	0.0041373	7
	17	24	20015.62	3542.461	-420.9599	1	3567.385	-6.776828	-6.774597E-008	0.0042475	7
	18	26	15890.62	3584.697	-468.5986	1	3615.195	-7.447586	-5.547085E-008	0.004117	7
	19	27	12609.37	3632.257	-525.3633	1	3670.054	-8.230087	1.773445E-008	0.0039565	7
	20	28	10078.13	3683.955	-592.123	1	3731.237	-9.131069	-1.466217E-008	0.0040716	7
	21	30	8015.625	3742.086	-670.1281	1	3801.615	-10.15284	-5.813687E-008	0.0041467	7
	22	31	6328.125	3809.463	-766.4897	1	3885.81	-11.3764	-5.627096E-008	0.004122	7
	23	32	5015.625	3882.995	-877.1315	1	3980.83	-12.72894	1.19478E-007	0.0038617	7
	24	34	3984.375	3962.042	-1007.046	1	4088.021	-14.26108	9.402451E-008	0.0039625	7
	25	35	3170.956	4049.323	-1157.803	1	4211.594	-15.95657	4.798703E-008	0.0038939	7
	26	36	2527.573	4143.523	-1336.285	1	4353.67	-17.87449	4.324883E-008	0.0039923	7
	27	38	1976.103	4253.265	-1569.495	1	4533.605	-20.25454	9.474806E-008	0.0039598	7
	28	39	1577.524	4363.317	-1828.066	1	4730.789	-22.73186	-5.661788E-008	0.0041186	7
	29	40	1265.625	4480.603	-2133.602	1	4962.667	-25.46316	5.932448E-008	0.0039391	7
	30	42	998.264	4615.774	-2534.359	1	5265.771	-28.76964	1.36364E-010	0.0040239	7
	31	43	796.875	4754.6	-3001.117	1	5622.537	-32.26023	-9.730237E-009	0.0040554	7
	32	44	627.7902	4916.47	-3608.32	1	6098.496	-36.27588	-6.98037E-008	0.0042494	7
	33	46	505.5147	5077.996	-4285.333	1	6644.556	-40.1611	8.622702E-008	0.0038646	7
	34	47	397.9953	5281.997	-5217.771	1	7424.595	-44.64953	5.098483E-009	0.0040614	7
	35	49	315.5048	5513.67	-6342.642	1	8404.146	-48.9995	5.942637E-009	0.0040558	7
	36	50	252.4038	5777.741	-7677.313	1	9608.51	-53.03585	4.814454E-009	0.0040601	7
	37	51	198.6229	6130.999	-9452	1	11266.3	-57.03072	8.941288E-010	0.0040039	6
	38	53	158.3615	6545.167	-11529.68	1	13257.93	-60.41729	6.365813E-010	0.0039988	6
	39	54	125.558	7087.32	-14144.56	1	15820.83	-63.38623	9.84278E-010	0.0040056	6
	40	55	100.4464	7756.475	-17228.33	1	18893.87	-65.76195	2.76268E-010	0.0039969	6
	41	57	79.00281	8679.328	-21270.11	1	22972.78	-67.80195	1.17994E-009	0.003993	6
	42	58	63.3446	9687.15	-25831.97	1	27588.61	-69.44363	8.555036E-010	0.0039914	6
	43	59	49.86702	11484.79	-31794.22	1	33804.92	-70.13913	2.157278E-010	0.0039927	6
	44	61	39.72458	13423.8	-38800.82	1	41057.31	-70.91607	4.716212E-010	0.0039964	6
	45	62	31.6723	16038.31	-47064.28	1	49721.96	-71.1822	1.614347E-009	0.0039959	6
	46	64	24.93351	19642.06	-57613.25	1	60869.51	-71.17424	5.226442E-010	0.0039972	6
	47	65	19.86229	24120.6	-69561.91	1	73625.16	-70.87601	1.689061E-010	0.0039921	6
	48	66	15.83615	29719.78	-83395.19	1	88532.61	-70.38531	6.316603E-010	0.0039971	6
	49	68	12.40079	37992.18	-101201.3	1	108097.7	-69.42326	8.510705E-010	0.0039983	5
	50	69	9.93114	47714.5	-119878.7	1	129025.5	-68.2963	9.252094E-010	0.0039927	5
	51	71	7.944915	59496.63	-141211.5	1	153233.6	-67.15285	-3.675912E-010	0.0040037	5
	52	72	6.317385	74290.36	-166108.4	1	181964.4	-65.90388	-2.233518E-010	0.004007	5
	53	74	5.008013	92629.47	-194652.1	1	215568.2	-64.55154	-2.946115E-011	0.0039941	5
	54	77	3.945707	114800.5	-227445.1	1	254775.2	-63.21812	5.27249E-010	0.004005	5
	55	79	3.158693	139201.3	-262129.3	1	296797.5	-62.02988	-5.687656E-011	0.0039879	5
	56	83	2.504006	168327.1	-302168.2	1	345889.6	-60.87939	4.8349E-010	0.0039902	5
	57	86	1.998082	199726.4	-345488.1	1	399064.8	-59.96783	5.194802E-011	0.0040347	5
	58	89	1.584686	235349.5	-397674.6	1	462097.9	-59.38234	2.621273E-010	0.0040306	5
	59	92	1.266892	274009.8	-453897.8	1	530192.9	-58.88139	-1.816173E-012	0.004032	5
	60	97	0.999041	318180.8	-524727.1	1	613659.1	-58.76847	3.032494E-010	0.0039822	5
