EXPLAIN
TAG	EISPOT
TITLE	LABEL	Potentiostatic EIS	Test &Identifier
DATE	LABEL	8/16/2017	Date
TIME	LABEL	16:46:13	Time
NOTES	NOTES	1	&Notes...
	
PSTAT	PSTAT	REF600-11020	Potentiostat
VDC	POTEN	0.00000E+000	T	DC &Voltage (V)
FREQINIT	QUANT	1.00000E+006	Initial Fre&q. (Hz)
FREQFINAL	QUANT	1.00000E+000	Final Fre&q. (Hz)
PTSPERDEC	QUANT	1.00000E+001	Points/&decade
VAC	QUANT	2.50000E+001	AC &Voltage (mV rms)
AREA	QUANT	1.00000E-002	&Area (cm^2)
CONDIT	TWOPARAM	T	5.00000E+000	0.00000E+000	Conditionin&g	Time(s)	E(V)
DELAY	TWOPARAM	T	5.00000E+000	0.00000E+000	Init. De&lay	Time(s)	Stab.(mV/s)
SPEED	SELECTOR	0	&Optimize for:
ZGUESS	QUANT	1.00000E+005	E&stimated Z (ohms)
OCVCURVE	TABLE	19
	Pt	T	Vf	Vm	Ach	Over
	#	s	V vs. Ref.	V	V	bits
	0	0.258333	6.38319E-003	6.38319E-003	5.57132E-004	...........
	1	0.516667	6.38234E-003	6.33851E-003	5.54666E-004	...........
	2	0.775	6.37568E-003	6.22189E-003	5.55599E-004	...........
	3	1.03333	6.35546E-003	6.28461E-003	5.58632E-004	...........
	4	1.29167	6.32332E-003	6.27211E-003	5.52999E-004	...........
	5	1.55	6.29271E-003	6.23017E-003	5.54066E-004	...........
	6	1.80833	6.27067E-003	6.17600E-003	5.51433E-004	...........
	7	2.06667	6.26326E-003	6.84756E-003	5.54566E-004	...........
	8	2.325	6.32242E-003	7.71948E-003	5.59532E-004	...........
	9	2.58333	6.52708E-003	7.39595E-003	5.49666E-004	...........
	10	2.84167	6.83281E-003	6.12179E-003	5.53866E-004	...........
	11	3.1	7.02126E-003	6.22453E-003	5.60032E-004	...........
	12	3.35833	6.93602E-003	6.28296E-003	5.61166E-004	...........
	13	3.61667	6.67547E-003	6.37913E-003	5.58399E-004	...........
	14	3.875	6.44444E-003	6.36267E-003	5.57199E-004	...........
	15	4.13333	6.33940E-003	6.53345E-003	5.63366E-004	...........
	16	4.39167	6.34048E-003	6.53893E-003	5.52532E-004	...........
	17	4.65	6.39816E-003	6.66524E-003	5.51766E-004	...........
	18	4.90833	6.47496E-003	6.62657E-003	5.48933E-004	...........
EOC	QUANT	0.006475	Open Circuit (V)
PSTATMODEL	IQUANT	4	Pstat Model
PSTATSECTION	LABEL	REF600-11020	Pstat Section
PSTATSERIALNO	LABEL	11020	Pstat Serial Number
CTRLMODE	IQUANT	1	Control Mode
IESTAB	IQUANT	0	I/E Stability
CASPEED	IQUANT	1	Control Amp Speed
CONVENTION	IQUANT	1	Current Convention
ICHRANGE	IQUANT	2	Ich Range
ICHRANGEMODE	TOGGLE	F	Ich Auto Range
ICHOFFSETENABLE	TOGGLE	T	Ich Offset Enable
ICHOFFSET	QUANT	0	Ich Offset (V)
ICHFILTER	IQUANT	3	Ich Filter
VCHRANGE	IQUANT	2	Vch Range
VCHRANGEMODE	TOGGLE	F	Vch Auto Range
VCHOFFSETENABLE	TOGGLE	T	Vch Offset Enable
VCHOFFSET	QUANT	0	Vch Offset (V)
VCHFILTER	IQUANT	3	Vch Filter
ACHRANGE	IQUANT	2	Ach Range
ACHOFFSETENABLE	TOGGLE	F	Ach Offset Enable
ACHOFFSET	QUANT	0	Ach Offset (V)
ACHFILTER	IQUANT	3	Ach Filter
IERANGELOWERLIMIT	IQUANT	1	I/E Range Lower Limit
IERANGEMODE	TOGGLE	F	I/E AutoRange
IERANGE	IQUANT	5	I/E Range
POSFEEDENABLE	TOGGLE	F	Positive Feedback IR Comp
POSFEEDRESISTANCE	QUANT	0	Positive Feedback Resistance (ohm)
ACHSELECT	IQUANT	0	Ach Select
CABLEID	IQUANT	14	Cable ID
DCCALDATE	LABEL	8/19/2019	DC Calibration Date
ACCALDATE	LABEL	8/19/2019	AC Calibration Date
THERMOSELECT	IQUANT	1	Thermo Select
FRAMEWORKVERSION	QUANT	6.33	Framework Version
INSTRUMENTVERSION	LABEL	3.50	Instrument Version
ZCURVE	TABLE
	Pt	Time	Freq	Zreal	Zimag	Zsig	Zmod	Zphz	Idc	Vdc	IERange
	#	s	Hz	ohm	ohm	V	ohm	°	A	V	#
	0	1	1000078	2118.938	-1794.466	1	2776.689	-40.26027	-3.995584E-006	0.0090315	8
	1	1	794390.6	2469.614	-1817.638	1	3066.399	-36.3531	2.328602E-007	0.0090745	8
	2	2	630984.4	2822.42	-1795.982	1	3345.386	-32.46969	-3.50218E-006	0.008977	8
	3	2	501234.4	3158.573	-1737.209	1	3604.785	-28.81071	1.327374E-006	0.0086534	8
	4	2	398109.4	3443.659	-1651.95	1	3819.388	-25.6274	2.529706E-006	0.0075532	8
	5	2	316265.6	3737.401	-1521.363	1	4035.184	-22.14949	-1.904507E-006	0.0078747	8
	6	3	251203.1	3980.612	-1375.788	1	4211.658	-19.06628	-2.683839E-007	0.0078134	8
	7	3	199546.9	4163.21	-1230.816	1	4341.339	-16.46985	-2.637009E-006	0.0080008	8
	8	3	158578.1	4314.585	-1025.245	1	4434.724	-13.36689	-3.837935E-006	0.0086833	8
	9	4	125953.1	4477.807	-884.8687	1	4564.4	-11.17832	-1.310998E-006	0.0067651	7
	10	4	100078.1	4590.403	-792.6846	1	4658.342	-9.79739	1.217711E-006	0.0064149	7
	11	4	79453.13	4654.176	-725.5912	1	4710.396	-8.861145	7.897247E-008	0.009139	7
	12	5	63140.62	4708.438	-657.2145	1	4754.084	-7.946135	-1.377171E-006	0.0096893	7
	13	5	50203.12	4784.58	-619.0511	1	4824.461	-7.372238	6.888524E-007	0.0082813	7
	14	5	39890.62	4827.792	-590.4242	1	4863.762	-6.972475	7.829114E-008	0.0091374	7
	15	6	31640.63	4879.742	-573.153	1	4913.287	-6.699017	5.386226E-007	0.006188	7
	16	6	25171.88	4913.078	-576.2839	1	4946.761	-6.68999	-1.231783E-006	0.0098747	7
	17	6	20015.62	4956.237	-590.2891	1	4991.265	-6.791949	-1.007227E-006	0.009938	7
	18	7	15890.62	5005.021	-628.3126	1	5044.304	-7.155279	-1.006328E-006	0.0099357	7
	19	7	12609.37	5072.497	-683.6246	1	5118.356	-7.675552	1.236969E-006	0.0067715	7
	20	7	10078.13	5104.358	-745.2151	1	5158.471	-8.306262	8.690317E-007	0.0060617	7
	21	8	8015.625	5169.276	-847.3569	1	5238.266	-9.309234	1.098819E-006	0.0061527	7
	22	8	6328.125	5226.394	-972.404	1	5316.085	-10.53973	9.363549E-007	0.0077991	7
	23	8	5015.625	5274.616	-1123.575	1	5392.958	-12.02516	-3.517143E-007	0.0071076	7
	24	9	3984.375	5345.324	-1317.622	1	5505.326	-13.84734	-3.268703E-007	0.0095649	7
	25	9	3170.956	5415.006	-1552.424	1	5633.144	-15.99702	-6.957691E-007	0.009835	7
	26	9	2527.573	5507.5	-1847.829	1	5809.22	-18.54718	4.36068E-007	0.00864	7
	27	9	1976.103	5614.984	-2241.351	1	6045.8	-21.76056	1.140191E-006	0.0072392	7
	28	10	1577.524	5724.979	-2673.724	1	6318.559	-25.03388	1.252772E-007	0.006516	7
	29	10	1265.625	5848.941	-3204.496	1	6669.25	-28.71729	8.460041E-008	0.0091187	7
	30	11	998.264	6004.024	-3895.627	1	7157.11	-32.97696	-3.233001E-007	0.0095588	7
	31	11	796.875	6177.02	-4699.056	1	7761.23	-37.2614	-1.001007E-006	0.0099231	7
	32	12	627.7902	6398.65	-5761.889	1	8610.58	-42.00257	1.178931E-007	0.0065156	7
	33	12	505.5147	6637.677	-6922.067	1	9590.3	-46.20149	-1.374084E-006	0.0096742	7
	34	12	397.9953	6956.491	-8548.238	1	11021.12	-50.86157	-2.673346E-010	0.0080654	7
	35	12	315.5048	7341.358	-10473.84	1	12790.5	-54.97249	1.059758E-009	0.0079985	6
	36	13	252.4038	7805.571	-12747.61	1	14947.52	-58.52018	1.030734E-009	0.0080037	6
	37	13	198.6229	8430.52	-15752.5	1	17866.58	-61.84492	5.410138E-010	0.0080089	6
	38	13	158.3615	9198.01	-19255.12	1	21339.23	-64.46658	7.292201E-010	0.0080091	6
	39	14	125.558	10217.77	-23644.18	1	25757.52	-66.62854	2.405747E-010	0.008007	6
	40	14	100.4464	11444.49	-28785.84	1	30977.43	-68.31853	7.269572E-010	0.0079973	6
	41	14	79.00281	13256.55	-35458.05	1	37855.11	-69.50096	1.25831E-009	0.0079946	6
	42	15	63.3446	16191.9	-43325.48	1	46252.3	-69.50793	-4.881069E-010	0.0079983	6
	43	15	49.86702	19318.35	-53277.45	1	56671.73	-70.06941	-1.62005E-009	0.0079979	6
	44	16	39.72458	23172.34	-63982.65	1	68049.52	-70.09134	2.780456E-010	0.0079939	6
	45	16	31.6723	28417.45	-76937.56	1	82017.92	-69.72793	-2.858273E-010	0.0080056	6
	46	16	24.93351	36551.38	-93652.44	1	100532.5	-68.67992	-1.212395E-010	0.0079987	6
	47	16	19.86229	46537.19	-111227.5	1	120570.6	-67.29573	6.297303E-010	0.0080057	5
	48	17	15.83615	57818.34	-131589	1	143731.1	-66.28	-4.310952E-011	0.0079997	5
	49	17	12.40079	76240.9	-155223.2	1	172936.1	-63.84113	7.598362E-010	0.0080094	5
	50	17	9.93114	96829.6	-178636.3	1	203191.8	-61.54014	-5.748294E-010	0.0080059	5
	51	18	7.944915	119696.1	-203668.5	1	236237.2	-59.55724	-6.761649E-010	0.0080033	5
	52	19	6.317385	146097.7	-230098.2	1	272561.4	-57.58705	-5.87483E-010	0.0080168	5
	53	19	5.008013	176424.6	-258243.8	1	312754.7	-55.66024	-3.5507E-010	0.0080058	5
	54	20	3.945707	211358.7	-289096.4	1	358119	-53.82942	1.465956E-010	0.008008	5
	55	22	3.158693	242936	-320251.9	1	401969.1	-52.81686	3.72816E-011	0.0080189	5
	56	24	2.504006	278830.1	-357546.3	1	453415.4	-52.05135	-2.402963E-010	0.0080088	5
	57	25	1.998082	313143.9	-399326.9	1	507465.3	-51.89719	-1.266297E-010	0.0080098	5
	58	26	1.584686	351746.3	-450891.7	1	571864.3	-52.04176	3.502941E-011	0.0080525	5
	59	28	1.266892	390047.7	-513446.4	1	644798	-52.77731	-1.129033E-011	0.0080387	5
	60	31	0.999041	433805.9	-592535.3	1	734360.6	-53.79146	7.862849E-012	0.0080163	5
