EXPLAIN
TAG	EISPOT
TITLE	LABEL	Potentiostatic EIS	Test &Identifier
DATE	LABEL	11/22/2019	Date
TIME	LABEL	10:04:26	Time
NOTES	NOTES	4	&Notes...
	
	
	
	
PSTAT	PSTAT	REF600-11020	Potentiostat
VDC	POTEN	0.00000E+000	T	DC &Voltage (V)
FREQINIT	QUANT	1.00000E+006	Initial Fre&q. (Hz)
FREQFINAL	QUANT	1.00000E+000	Final Fre&q. (Hz)
PTSPERDEC	QUANT	1.00000E+001	Points/&decade
VAC	QUANT	2.50000E+001	AC &Voltage (mV rms)
AREA	QUANT	1.00000E-002	&Area (cm^2)
CONDIT	TWOPARAM	T	5.00000E+000	0.00000E+000	Conditionin&g	Time(s)	E(V)
DELAY	TWOPARAM	T	5.00000E+000	0.00000E+000	Init. De&lay	Time(s)	Stab.(mV/s)
SPEED	SELECTOR	0	&Optimize for:
ZGUESS	QUANT	1.00000E+005	E&stimated Z (ohms)
OCVCURVE	TABLE	19
	Pt	T	Vf	Vm	Ach	Over
	#	s	V vs. Ref.	V	V	bits
	0	0.258333	4.31532E-003	4.31532E-003	5.68866E-004	...........
	1	0.516667	4.31466E-003	4.28037E-003	5.68199E-004	...........
	2	0.775	4.31114E-003	4.27770E-003	5.71199E-004	...........
	3	1.03333	4.30300E-003	4.26896E-003	5.73732E-004	...........
	4	1.29167	4.29211E-003	4.28373E-003	5.68232E-004	...........
	5	1.55	4.28342E-003	4.30076E-003	5.66332E-004	...........
	6	1.80833	4.28131E-003	4.31299E-003	5.66032E-004	...........
	7	2.06667	4.28699E-003	4.33448E-003	5.67366E-004	...........
	8	2.325	4.29886E-003	4.35538E-003	5.67266E-004	...........
	9	2.58333	4.31483E-003	4.37590E-003	5.68832E-004	...........
	10	2.84167	4.33349E-003	4.40041E-003	5.65666E-004	...........
	11	3.1	4.35385E-003	4.41819E-003	5.70932E-004	...........
	12	3.35833	4.37520E-003	4.44738E-003	5.68066E-004	...........
	13	3.61667	4.39727E-003	4.46918E-003	5.67699E-004	...........
	14	3.875	4.42004E-003	4.48870E-003	5.63432E-004	...........
	15	4.13333	4.44300E-003	4.50616E-003	5.61666E-004	...........
	16	4.39167	4.46505E-003	4.52212E-003	5.61866E-004	...........
	17	4.65	4.48546E-003	4.54517E-003	5.59299E-004	...........
	18	4.90833	4.50462E-003	4.56369E-003	5.62399E-004	...........
EOC	QUANT	0.0045046	Open Circuit (V)
PSTATMODEL	IQUANT	4	Pstat Model
PSTATSECTION	LABEL	REF600-11020	Pstat Section
PSTATSERIALNO	LABEL	11020	Pstat Serial Number
CTRLMODE	IQUANT	1	Control Mode
IESTAB	IQUANT	0	I/E Stability
CASPEED	IQUANT	1	Control Amp Speed
CONVENTION	IQUANT	1	Current Convention
ICHRANGE	IQUANT	2	Ich Range
ICHRANGEMODE	TOGGLE	F	Ich Auto Range
ICHOFFSETENABLE	TOGGLE	T	Ich Offset Enable
ICHOFFSET	QUANT	0	Ich Offset (V)
ICHFILTER	IQUANT	3	Ich Filter
VCHRANGE	IQUANT	2	Vch Range
VCHRANGEMODE	TOGGLE	F	Vch Auto Range
VCHOFFSETENABLE	TOGGLE	T	Vch Offset Enable
VCHOFFSET	QUANT	0	Vch Offset (V)
VCHFILTER	IQUANT	3	Vch Filter
ACHRANGE	IQUANT	2	Ach Range
ACHOFFSETENABLE	TOGGLE	F	Ach Offset Enable
ACHOFFSET	QUANT	0	Ach Offset (V)
ACHFILTER	IQUANT	3	Ach Filter
IERANGELOWERLIMIT	IQUANT	1	I/E Range Lower Limit
IERANGEMODE	TOGGLE	F	I/E AutoRange
IERANGE	IQUANT	4	I/E Range
POSFEEDENABLE	TOGGLE	F	Positive Feedback IR Comp
POSFEEDRESISTANCE	QUANT	0	Positive Feedback Resistance (ohm)
ACHSELECT	IQUANT	0	Ach Select
CABLEID	IQUANT	14	Cable ID
DCCALDATE	LABEL	8/19/2019	DC Calibration Date
ACCALDATE	LABEL	8/19/2019	AC Calibration Date
THERMOSELECT	IQUANT	1	Thermo Select
FRAMEWORKVERSION	QUANT	6.33	Framework Version
INSTRUMENTVERSION	LABEL	3.50	Instrument Version
ZCURVE	TABLE
	Pt	Time	Freq	Zreal	Zimag	Zsig	Zmod	Zphz	Idc	Vdc	IERange
	#	s	Hz	ohm	ohm	V	ohm	°	A	V	#
	0	1	1000078	1875.653	-872.9578	1	2068.847	-24.958	-5.376354E-006	0.0075781	8
	1	1	794390.6	2020.612	-842.4276	1	2189.191	-22.63209	7.091868E-006	0.0063106	8
	2	1	630984.4	2160.997	-792.9493	1	2301.885	-20.14995	5.431211E-006	0.0053792	8
	3	2	501234.4	2277.606	-738.3786	1	2394.304	-17.96221	-2.563921E-006	0.0059253	8
	4	2	398109.4	2397.721	-673.9224	1	2490.63	-15.69897	-1.910811E-006	0.0062431	8
	5	2	316265.6	2491.051	-618.5402	1	2566.696	-13.9448	7.139878E-006	0.0052847	8
	6	3	251203.1	2575.273	-561.2557	1	2635.724	-12.2948	5.640104E-006	0.0049574	8
	7	3	199546.9	2642.754	-500.8785	1	2689.801	-10.73192	6.673069E-006	0.0053086	8
	8	3	158578.1	2713.388	-436.7164	1	2748.308	-9.143272	2.14632E-006	0.005543	8
	9	3	125953.1	2781.103	-356.838	1	2803.902	-7.311563	3.345512E-006	0.0019679	7
	10	4	100078.1	2805.862	-320.2764	1	2824.082	-6.511869	8.708451E-008	0.0068761	7
	11	4	79453.13	2839.484	-294.3139	1	2854.696	-5.917604	1.00543E-006	0.0049466	7
	12	4	63140.62	2866.944	-276.8774	1	2880.283	-5.516277	7.718855E-007	0.0057766	7
	13	5	50203.12	2892.678	-265.4189	1	2904.829	-5.242518	7.732264E-007	0.005773	7
	14	5	39890.62	2916.923	-258.176	1	2928.326	-5.058052	9.854959E-007	0.0046541	7
	15	5	31640.63	2937.653	-256.9024	1	2948.865	-4.997892	8.615314E-008	0.0068633	7
	16	6	25171.88	2960.893	-261.5483	1	2972.422	-5.048078	4.205472E-007	0.0045078	7
	17	6	20015.62	2980.799	-272.6198	1	2993.24	-5.225655	-1.133111E-006	0.0073768	7
	18	6	15890.62	3005.786	-291.5148	1	3019.889	-5.53948	3.832545E-007	0.0064529	7
	19	6	12609.37	3029.765	-319.6326	1	3046.579	-6.022284	5.808909E-007	0.0061554	7
	20	7	10078.13	3048.066	-350.3618	1	3068.136	-6.557121	-1.004002E-006	0.0075125	7
	21	7	8015.625	3074.133	-397.0153	1	3099.664	-7.35885	-3.019153E-007	0.0052552	7
	22	7	6328.125	3106.667	-454.6699	1	3139.762	-8.326294	6.916419E-007	0.0043961	7
	23	8	5015.625	3133.985	-526.2889	1	3177.868	-9.53271	-2.990853E-007	0.0052475	7
	24	8	3984.375	3169.379	-616.1399	1	3228.714	-11.00131	8.59125E-008	0.006858	7
	25	8	3170.956	3205.948	-725.9453	1	3287.111	-12.75873	8.819334E-007	0.0044609	7
	26	9	2527.573	3242.147	-858.0727	1	3353.775	-14.82412	-8.139555E-007	0.0075524	7
	27	9	1976.103	3291.337	-1036.611	1	3450.719	-17.4819	-5.574705E-007	0.0074654	7
	28	9	1577.524	3346.357	-1238.939	1	3568.344	-20.31633	-1.129216E-006	0.0073656	7
	29	10	1265.625	3400.118	-1486.524	1	3710.87	-23.61484	-1.129935E-006	0.0073658	7
	30	10	998.264	3476.207	-1814.196	1	3921.138	-27.55959	8.787648E-007	0.0044639	7
	31	10	796.875	3558.742	-2195.017	1	4181.237	-31.66611	4.211488E-007	0.0045003	7
	32	10	627.7902	3665.876	-2695.917	1	4550.452	-36.33109	1.004212E-006	0.0049388	7
	33	11	505.5147	3785.533	-3245.359	1	4986.243	-40.60667	8.689855E-008	0.0047749	7
	34	11	397.9953	3952.651	-3993.805	1	5619.068	-45.29673	1.230538E-009	0.0060286	7
	35	11	315.5048	4159.015	-4889.812	1	6419.32	-49.61728	2.469947E-009	0.0060205	7
	36	12	252.4038	4413.031	-5938.592	1	7398.765	-53.38357	-1.173832E-009	0.0060223	7
	37	12	198.6229	4766.887	-7314.696	1	8730.864	-56.90826	1.512837E-009	0.0060247	7
	38	12	158.3615	5206.101	-8896.736	1	10308.03	-59.66512	8.702734E-010	0.0059542	6
	39	13	125.558	5793.001	-10858.67	1	12307.3	-61.92048	-1.756322E-010	0.0059629	6
	40	13	100.4464	6534.918	-13122.21	1	14659.38	-63.52649	-7.546491E-010	0.0059559	6
	41	13	79.00281	7579.481	-16045.35	1	17745.48	-64.71495	4.983667E-010	0.0059573	6
	42	14	63.3446	8748.271	-19329.7	1	21217.2	-65.64936	2.454534E-010	0.0059546	6
	43	14	49.86702	10459.1	-23331.56	1	25568.63	-65.85419	5.025035E-010	0.0059437	6
	44	14	39.72458	12637.28	-27826.69	1	30561.83	-65.57519	-4.380629E-010	0.0059528	6
	45	15	31.6723	15283.04	-33076.89	1	36436.96	-65.20089	-3.608808E-011	0.0059502	6
	46	15	24.93351	18782.45	-39325.02	1	43580.25	-64.46988	-1.127476E-010	0.0059436	6
	47	15	19.86229	22789.34	-46210.95	1	51524.8	-63.74937	-3.182359E-009	0.0059542	6
	48	16	15.83615	27644.67	-53739.7	1	60433.3	-62.7779	2.197234E-009	0.0059441	6
	49	16	12.40079	34326.81	-63291.48	1	72000.98	-61.52634	8.669384E-010	0.0059514	6
	50	16	9.93114	40665.11	-72796.71	1	83384.72	-60.81176	-3.711217E-010	0.0059522	6
	51	16	7.944915	48307.55	-83632.73	1	96581.8	-59.98861	-8.267217E-011	0.0059552	6
	52	17	6.317385	57252.73	-95969	1	111749.4	-59.18075	6.016298E-010	0.0059358	5
	53	18	5.008013	67492.58	-110223	1	129245.3	-58.51971	3.590684E-010	0.0059465	5
	54	19	3.945707	78794.73	-126706.2	1	149208.2	-58.12378	8.015302E-011	0.0059605	5
	55	20	3.158693	90207.92	-144962.7	1	170738.5	-58.10667	-1.575089E-010	0.0059602	5
	56	22	2.504006	102729.9	-167230.8	1	196264	-58.4376	1.6747E-011	0.0059459	5
	57	23	1.998082	116166.3	-193012.4	1	225274	-58.95798	2.365572E-010	0.0059932	5
	58	24	1.584686	130075.9	-225427.2	1	260263.7	-60.01421	8.478605E-012	0.0059696	5
	59	26	1.266892	145947.7	-263208.5	1	300964.2	-60.99187	-5.244286E-011	0.0059292	5
	60	29	0.999041	165801.8	-312877.5	1	354094	-62.07974	-8.920423E-011	0.0059094	5
