EXPLAIN
TAG	EISPOT
TITLE	LABEL	Potentiostatic EIS	Test &Identifier
DATE	LABEL	11/27/2019	Date
TIME	LABEL	13:47:28	Time
NOTES	NOTES	3	&Notes...
	
	
	
PSTAT	PSTAT	REF600-11020	Potentiostat
VDC	POTEN	0.00000E+000	T	DC &Voltage (V)
FREQINIT	QUANT	1.00000E+006	Initial Fre&q. (Hz)
FREQFINAL	QUANT	1.00000E+000	Final Fre&q. (Hz)
PTSPERDEC	QUANT	1.00000E+001	Points/&decade
VAC	QUANT	2.50000E+001	AC &Voltage (mV rms)
AREA	QUANT	1.00000E-002	&Area (cm^2)
CONDIT	TWOPARAM	T	5.00000E+000	0.00000E+000	Conditionin&g	Time(s)	E(V)
DELAY	TWOPARAM	T	5.00000E+000	0.00000E+000	Init. De&lay	Time(s)	Stab.(mV/s)
SPEED	SELECTOR	0	&Optimize for:
ZGUESS	QUANT	1.00000E+005	E&stimated Z (ohms)
OCVCURVE	TABLE	19
	Pt	T	Vf	Vm	Ach	Over
	#	s	V vs. Ref.	V	V	bits
	0	0.258333	7.58964E-003	7.58964E-003	5.73132E-004	...........
	1	0.516667	7.59053E-003	7.63631E-003	5.75199E-004	...........
	2	0.775	7.59509E-003	7.63265E-003	5.80999E-004	...........
	3	1.03333	7.60282E-003	7.51800E-003	5.83899E-004	...........
	4	1.29167	7.61001E-003	7.85319E-003	5.80999E-004	...........
	5	1.55	7.63094E-003	8.03797E-003	5.82932E-004	...........
	6	1.80833	7.69617E-003	8.03776E-003	5.83399E-004	...........
	7	2.06667	7.80561E-003	8.01808E-003	5.79266E-004	...........
	8	2.325	7.91874E-003	8.15972E-003	5.78066E-004	...........
	9	2.58333	8.00394E-003	8.08836E-003	5.75832E-004	...........
	10	2.84167	8.06152E-003	8.22675E-003	5.76499E-004	...........
	11	3.1	8.10731E-003	8.34784E-003	5.77999E-004	...........
	12	3.35833	8.15978E-003	8.37372E-003	5.72066E-004	...........
	13	3.61667	8.22381E-003	8.26843E-003	5.76532E-004	...........
	14	3.875	8.28095E-003	8.34120E-003	5.74032E-004	...........
	15	4.13333	8.31742E-003	8.55651E-003	5.77099E-004	...........
	16	4.39167	8.35755E-003	8.89819E-003	5.77466E-004	...........
	17	4.65	8.44239E-003	8.78060E-003	5.77599E-004	...........
	18	4.90833	8.57112E-003	8.80900E-003	5.74999E-004	...........
EOC	QUANT	0.0085711	Open Circuit (V)
PSTATMODEL	IQUANT	4	Pstat Model
PSTATSECTION	LABEL	REF600-11020	Pstat Section
PSTATSERIALNO	LABEL	11020	Pstat Serial Number
CTRLMODE	IQUANT	1	Control Mode
IESTAB	IQUANT	0	I/E Stability
CASPEED	IQUANT	1	Control Amp Speed
CONVENTION	IQUANT	1	Current Convention
ICHRANGE	IQUANT	2	Ich Range
ICHRANGEMODE	TOGGLE	F	Ich Auto Range
ICHOFFSETENABLE	TOGGLE	T	Ich Offset Enable
ICHOFFSET	QUANT	0	Ich Offset (V)
ICHFILTER	IQUANT	3	Ich Filter
VCHRANGE	IQUANT	2	Vch Range
VCHRANGEMODE	TOGGLE	F	Vch Auto Range
VCHOFFSETENABLE	TOGGLE	T	Vch Offset Enable
VCHOFFSET	QUANT	0	Vch Offset (V)
VCHFILTER	IQUANT	3	Vch Filter
ACHRANGE	IQUANT	2	Ach Range
ACHOFFSETENABLE	TOGGLE	F	Ach Offset Enable
ACHOFFSET	QUANT	0	Ach Offset (V)
ACHFILTER	IQUANT	3	Ach Filter
IERANGELOWERLIMIT	IQUANT	1	I/E Range Lower Limit
IERANGEMODE	TOGGLE	F	I/E AutoRange
IERANGE	IQUANT	5	I/E Range
POSFEEDENABLE	TOGGLE	F	Positive Feedback IR Comp
POSFEEDRESISTANCE	QUANT	0	Positive Feedback Resistance (ohm)
ACHSELECT	IQUANT	0	Ach Select
CABLEID	IQUANT	14	Cable ID
DCCALDATE	LABEL	8/19/2019	DC Calibration Date
ACCALDATE	LABEL	8/19/2019	AC Calibration Date
THERMOSELECT	IQUANT	1	Thermo Select
FRAMEWORKVERSION	QUANT	6.33	Framework Version
INSTRUMENTVERSION	LABEL	3.50	Instrument Version
ZCURVE	TABLE
	Pt	Time	Freq	Zreal	Zimag	Zsig	Zmod	Zphz	Idc	Vdc	IERange
	#	s	Hz	ohm	ohm	V	ohm	°	A	V	#
	0	1	1000078	2077.244	-1848.91	1	2780.901	-41.67159	-9.689527E-006	0.0115569	8
	1	2	794390.6	2437.867	-1899.312	1	3090.402	-37.92171	1.515367E-006	0.0101506	8
	2	2	630984.4	2822.07	-1881.885	1	3391.986	-33.69716	-1.808887E-006	0.0107068	8
	3	2	501234.4	3185.55	-1817.819	1	3667.723	-29.71103	-2.36123E-006	0.0106938	8
	4	2	398109.4	3508.791	-1703.238	1	3900.337	-25.89287	-1.721076E-007	0.0105652	8
	5	3	316265.6	3805.649	-1556.313	1	4111.578	-22.24201	5.68639E-006	0.0089793	8
	6	3	251203.1	4043.303	-1407.878	1	4281.404	-19.19812	5.153006E-006	0.0093911	8
	7	3	199546.9	4238.101	-1240.575	1	4415.939	-16.31578	6.283698E-006	0.0093423	8
	8	4	158578.1	4390.745	-1096.861	1	4525.676	-14.0261	6.256002E-006	0.009349	8
	9	4	125953.1	4545.27	-911.5571	1	4635.775	-11.34027	3.776533E-006	0.003492	7
	10	4	100078.1	4615.727	-791.9407	1	4683.172	-9.7357	-3.13306E-007	0.0092186	7
	11	5	79453.13	4686.056	-707.7722	1	4739.205	-8.588917	-7.213241E-007	0.0098842	7
	12	5	63140.62	4745.238	-641.6541	1	4788.424	-7.700863	-7.226149E-007	0.0098827	7
	13	5	50203.12	4812.516	-597.3539	1	4849.448	-7.075652	9.922469E-007	0.0093082	7
	14	6	39890.62	4856.014	-565.1829	1	4888.794	-6.638685	5.980307E-007	0.010212	7
	15	6	31640.63	4888.051	-543.7266	1	4918.199	-6.347252	-1.0633E-006	0.0115977	7
	16	6	25171.88	4932.43	-542.0179	1	4962.122	-6.270993	-3.148453E-007	0.0092012	7
	17	7	20015.62	4979.528	-565.6484	1	5011.552	-6.480721	6.007123E-007	0.0102063	7
	18	7	15890.62	5013.991	-586.5464	1	5048.182	-6.672246	-8.663251E-007	0.0116474	7
	19	7	12609.37	5070.612	-637.0321	1	5110.472	-7.160678	1.070905E-006	0.0088959	7
	20	8	10078.13	5112.704	-696.144	1	5159.88	-7.753691	4.60862E-007	0.0083872	7
	21	8	8015.625	5145.484	-782.9898	1	5204.717	-8.652339	-8.663376E-007	0.0116424	7
	22	8	6328.125	5201.879	-899.5887	1	5279.092	-9.81142	-2.750602E-007	0.0113238	7
	23	9	5015.625	5267.208	-1046.377	1	5370.138	-11.23602	1.05637E-006	0.0085686	7
	24	9	3984.375	5310.204	-1220.902	1	5448.75	-12.94821	-1.026178E-006	0.0105277	7
	25	9	3170.956	5382.933	-1447.018	1	5574.032	-15.04632	-5.983792E-007	0.0115576	7
	26	10	2527.573	5458.011	-1721.308	1	5723.005	-17.50386	-8.669111E-007	0.0116456	7
	27	10	1976.103	5572.394	-2094.649	1	5953.077	-20.60112	1.071906E-006	0.0088868	7
	28	10	1577.524	5689.99	-2491.196	1	6211.444	-23.64481	1.07283E-006	0.0088911	7
	29	11	1265.625	5794.293	-3000.118	1	6524.917	-27.37382	-2.75493E-007	0.011317	7
	30	11	998.264	5954.177	-3652.525	1	6985.21	-31.52658	-3.13198E-007	0.0091912	7
	31	12	796.875	6135.441	-4412.966	1	7557.639	-35.72588	7.487658E-007	0.0082673	7
	32	12	627.7902	6359.672	-5371.864	1	8324.804	-40.18699	-3.186015E-007	0.0091901	7
	33	12	505.5147	6596.494	-6469.844	1	9239.73	-44.44466	9.936532E-007	0.0092926	7
	34	13	397.9953	6925.045	-7916.694	1	10518.09	-48.82253	4.327036E-010	0.0100256	7
	35	13	315.5048	7304.16	-9663.18	1	12113.12	-52.91525	-2.477597E-010	0.0099594	6
	36	13	252.4038	7743.713	-11723.33	1	14049.96	-56.55368	5.679749E-010	0.0099601	6
	37	14	198.6229	8330.443	-14440.48	1	16671.04	-60.02015	3.605733E-011	0.0099701	6
	38	14	158.3615	9045.591	-17595.72	1	19784.65	-62.79326	7.20741E-010	0.0099556	6
	39	14	125.558	9964.6	-21568.02	1	23758.64	-65.20268	-2.000973E-010	0.0099624	6
	40	15	100.4464	11124.68	-26240.54	1	28501.31	-67.02549	1.27301E-009	0.0099578	6
	41	15	79.00281	12650.94	-32384.86	1	34768.16	-68.66221	9.082682E-010	0.0099577	6
	42	15	63.3446	14964.08	-38731.65	1	41521.85	-68.87582	1.425971E-010	0.0099517	6
	43	16	49.86702	17749.63	-47817.23	1	51005.27	-69.63521	-1.166084E-009	0.0099609	6
	44	16	39.72458	20880.99	-58273.59	1	61901.75	-70.28603	-5.253794E-010	0.0099637	6
	45	16	31.6723	25739.66	-70580.15	1	75127.14	-69.96375	-6.529489E-010	0.0099605	6
	46	17	24.93351	32057.88	-85629.84	1	91434	-69.47523	7.114608E-010	0.0099486	6
	47	17	19.86229	40355.53	-102564.6	1	110218.3	-68.52213	7.563781E-010	0.0099577	5
	48	17	15.83615	51425.67	-122855.3	1	133184.2	-67.28644	2.18678E-009	0.0099606	5
	49	18	12.40079	64142.14	-146588.3	1	160007.3	-66.36742	5.206865E-010	0.0099608	5
	50	18	9.93114	81902.38	-169646.6	1	188382.5	-64.22958	1.084647E-009	0.0099494	5
	51	19	7.944915	102408.4	-195825.9	1	220987	-62.3924	5.106605E-010	0.0099599	5
	52	19	6.317385	127695.4	-226374.4	1	259906.7	-60.57311	-5.546529E-011	0.0099618	5
	53	20	5.008013	157691.5	-258174.6	1	302523.9	-58.58367	2.370618E-010	0.0099616	5
	54	21	3.945707	192960.8	-293924.5	1	351604.2	-56.71519	-4.088653E-010	0.0099571	5
	55	22	3.158693	229140.8	-327353.9	1	399582.4	-55.0088	6.237205E-011	0.0099438	5
	56	24	2.504006	269491.3	-366297.6	1	454752.2	-53.65746	1.25394E-010	0.0099561	5
	57	25	1.998082	311551.9	-406988.4	1	512546.7	-52.56574	-1.992039E-010	0.0099169	5
	58	27	1.584686	355852.9	-456262.5	1	578624.9	-52.04826	-1.991789E-010	0.0099169	5
	59	29	1.266892	399866.8	-509716.3	1	647845.8	-51.8862	-1.150569E-010	0.0099481	5
	60	31	0.999041	448109.3	-579467.3	1	732519.1	-52.28477	-3.847349E-011	0.0099743	5
