EXPLAIN
TAG	EISPOT
TITLE	LABEL	Potentiostatic EIS	Test &Identifier
DATE	LABEL	11/5/2019	Date
TIME	LABEL	10:22:04	Time
NOTES	NOTES	2	&Notes...
	
	
PSTAT	PSTAT	REF600-11020	Potentiostat
VDC	POTEN	0.00000E+000	T	DC &Voltage (V)
FREQINIT	QUANT	1.00000E+006	Initial Fre&q. (Hz)
FREQFINAL	QUANT	1.00000E+000	Final Fre&q. (Hz)
PTSPERDEC	QUANT	1.00000E+001	Points/&decade
VAC	QUANT	2.50000E+001	AC &Voltage (mV rms)
AREA	QUANT	1.00000E-002	&Area (cm^2)
CONDIT	TWOPARAM	T	5.00000E+000	0.00000E+000	Conditionin&g	Time(s)	E(V)
DELAY	TWOPARAM	T	5.00000E+000	0.00000E+000	Init. De&lay	Time(s)	Stab.(mV/s)
SPEED	SELECTOR	1	&Optimize for:
ZGUESS	QUANT	1.00000E+005	E&stimated Z (ohms)
OCVCURVE	TABLE	19
	Pt	T	Vf	Vm	Ach	Over
	#	s	V vs. Ref.	V	V	bits
	0	0.258333	7.06212E-003	7.06212E-003	5.72532E-004	...........
	1	0.516667	7.05912E-003	6.90509E-003	5.75499E-004	...........
	2	0.775	7.04117E-003	6.78118E-003	5.75899E-004	...........
	3	1.03333	6.99208E-003	6.66658E-003	5.71866E-004	...........
	4	1.29167	6.90809E-003	6.57916E-003	5.77832E-004	...........
	5	1.55	6.80301E-003	6.49437E-003	5.78999E-004	...........
	6	1.80833	6.69493E-003	6.40483E-003	5.80365E-004	...........
	7	2.06667	6.59419E-003	6.33806E-003	5.73366E-004	...........
	8	2.325	6.50349E-003	6.29063E-003	5.77066E-004	...........
	9	2.58333	6.42306E-003	6.21224E-003	5.79132E-004	...........
	10	2.84167	6.35238E-003	6.19563E-003	5.75832E-004	...........
	11	3.1	6.29095E-003	6.16030E-003	5.70366E-004	...........
	12	3.35833	6.23967E-003	6.13595E-003	5.70332E-004	...........
	13	3.61667	6.19851E-003	6.09966E-003	5.74799E-004	...........
	14	3.875	6.16481E-003	6.08842E-003	5.75566E-004	...........
	15	4.13333	6.13615E-003	6.08434E-003	5.73799E-004	...........
	16	4.39167	6.11272E-003	6.07041E-003	5.73532E-004	...........
	17	4.65	6.09493E-003	6.04846E-003	5.73799E-004	...........
	18	4.90833	6.08053E-003	6.02916E-003	5.70199E-004	...........
EOC	QUANT	0.0060805	Open Circuit (V)
PSTATMODEL	IQUANT	4	Pstat Model
PSTATSECTION	LABEL	REF600-11020	Pstat Section
PSTATSERIALNO	LABEL	11020	Pstat Serial Number
CTRLMODE	IQUANT	1	Control Mode
IESTAB	IQUANT	0	I/E Stability
CASPEED	IQUANT	1	Control Amp Speed
CONVENTION	IQUANT	1	Current Convention
ICHRANGE	IQUANT	2	Ich Range
ICHRANGEMODE	TOGGLE	F	Ich Auto Range
ICHOFFSETENABLE	TOGGLE	T	Ich Offset Enable
ICHOFFSET	QUANT	0	Ich Offset (V)
ICHFILTER	IQUANT	3	Ich Filter
VCHRANGE	IQUANT	2	Vch Range
VCHRANGEMODE	TOGGLE	F	Vch Auto Range
VCHOFFSETENABLE	TOGGLE	T	Vch Offset Enable
VCHOFFSET	QUANT	0	Vch Offset (V)
VCHFILTER	IQUANT	3	Vch Filter
ACHRANGE	IQUANT	2	Ach Range
ACHOFFSETENABLE	TOGGLE	F	Ach Offset Enable
ACHOFFSET	QUANT	0	Ach Offset (V)
ACHFILTER	IQUANT	3	Ach Filter
IERANGELOWERLIMIT	IQUANT	1	I/E Range Lower Limit
IERANGEMODE	TOGGLE	F	I/E AutoRange
IERANGE	IQUANT	5	I/E Range
POSFEEDENABLE	TOGGLE	F	Positive Feedback IR Comp
POSFEEDRESISTANCE	QUANT	0	Positive Feedback Resistance (ohm)
ACHSELECT	IQUANT	0	Ach Select
CABLEID	IQUANT	14	Cable ID
DCCALDATE	LABEL	8/19/2019	DC Calibration Date
ACCALDATE	LABEL	8/19/2019	AC Calibration Date
THERMOSELECT	IQUANT	1	Thermo Select
FRAMEWORKVERSION	QUANT	6.33	Framework Version
INSTRUMENTVERSION	LABEL	3.50	Instrument Version
ZCURVE	TABLE
	Pt	Time	Freq	Zreal	Zimag	Zsig	Zmod	Zphz	Idc	Vdc	IERange
	#	s	Hz	ohm	ohm	V	ohm	°	A	V	#
	0	2	1000078	2423.788	-2031.087	1	3162.288	-39.96235	-2.341044E-006	0.0088904	8
	1	3	794390.6	2833.693	-2050.086	1	3497.523	-35.88453	1.985629E-007	0.0085336	8
	2	5	630984.4	3231.409	-1976.551	1	3787.975	-31.4528	-4.033842E-007	0.0073534	8
	3	6	501234.4	3591.392	-1855.421	1	4042.361	-27.32223	-7.306489E-007	0.0072686	8
	4	7	398109.4	3901.003	-1715.931	1	4261.719	-23.74321	2.198029E-006	0.007909	8
	5	9	316265.6	4158.493	-1568.104	1	4444.323	-20.66069	-2.922984E-006	0.0074275	8
	6	10	251203.1	4372.055	-1408.115	1	4593.218	-17.85227	-2.636121E-006	0.0074333	8
	7	12	199546.9	4539.491	-1277.484	1	4715.819	-15.71743	-9.065914E-007	0.0079959	8
	8	13	158578.1	4682.811	-1165.582	1	4825.692	-13.97726	-3.905708E-006	0.0081242	8
	9	14	125953.1	4818.833	-979.258	1	4917.327	-11.48693	-3.561533E-006	0.0119587	7
	10	16	100078.1	4921.623	-915.9589	1	5006.131	-10.54265	-1.295598E-006	0.0093752	7
	11	17	79453.13	5009.267	-900.3538	1	5089.537	-10.18941	1.66475E-007	0.0058522	7
	12	18	63140.62	5092.129	-887.8455	1	5168.95	-9.89046	-3.676056E-007	0.0090946	7
	13	20	50203.12	5178.111	-895.8279	1	5255.03	-9.81518	-3.66582E-007	0.0090922	7
	14	21	39890.62	5267.792	-925.9283	1	5348.549	-9.96914	1.670626E-007	0.0058417	7
	15	22	31640.63	5361.176	-974.846	1	5449.086	-10.30574	6.918185E-007	0.0077682	7
	16	24	25171.88	5459.911	-1041.166	1	5558.296	-10.79628	9.561279E-007	0.0072722	7
	17	25	20015.62	5571.337	-1125.536	1	5683.892	-11.42131	1.169363E-006	0.0055043	7
	18	27	15890.62	5687.802	-1237.851	1	5820.942	-12.27797	1.29298E-006	0.0061815	7
	19	28	12609.37	5818.906	-1364.852	1	5976.83	-13.20037	1.679658E-007	0.0058424	7
	20	29	10078.13	5960.379	-1518.739	1	6150.829	-14.2951	6.951595E-007	0.0077668	7
	21	31	8015.625	6125.874	-1703.808	1	6358.403	-15.54301	1.170592E-006	0.0055046	7
	22	32	6328.125	6313.897	-1925.671	1	6601.023	-16.96114	9.346548E-007	0.0053856	7
	23	34	5015.625	6524.415	-2178.835	1	6878.612	-18.46679	1.286798E-006	0.0057779	7
	24	35	3984.375	6749.745	-2466.133	1	7186.158	-20.07063	-1.207179E-006	0.0080381	7
	25	37	3170.956	7018.841	-2800.543	1	7556.928	-21.75218	6.942219E-007	0.0077609	7
	26	38	2527.573	7311.25	-3184.49	1	7974.669	-23.53603	1.182323E-006	0.006686	7
	27	40	1976.103	7669.121	-3672.813	1	8503.232	-25.59019	1.178969E-006	0.0066846	7
	28	41	1577.524	8046.644	-4195.039	1	9074.516	-27.53484	5.77976E-008	0.0086318	7
	29	43	1265.625	8457.342	-4728.983	1	9689.68	-29.21205	-5.75252E-008	0.0057641	6
	30	44	998.264	8953.638	-5430.022	1	10471.52	-31.23513	-5.916649E-008	0.0102055	6
	31	45	796.875	9462.315	-6199.954	1	11312.6	-33.23385	1.396532E-007	0.0041093	6
	32	47	627.7902	10044.45	-7145.552	1	12326.79	-35.42778	-1.890148E-007	0.0110131	6
	33	48	505.5147	10599.77	-8150.157	1	13370.87	-37.55666	-1.906387E-007	0.0080933	6
	34	49	397.9953	11234.38	-9487.33	1	14704.45	-40.18079	7.755717E-011	0.0074385	6
	35	51	315.5048	11867.28	-11069.86	1	16228.81	-43.0089	-1.384921E-010	0.0074316	6
	36	52	252.4038	12493.7	-12946.62	1	17991.87	-46.01994	8.756247E-010	0.0074475	6
	37	54	198.6229	13194.08	-15464.86	1	20328.44	-49.53034	8.582303E-010	0.0074387	6
	38	55	158.3615	13927.57	-18457.97	1	23123.01	-52.96341	4.800749E-010	0.0074292	6
	39	56	125.558	14753.96	-22285.56	1	26726.87	-56.4938	7.461836E-010	0.0074347	6
	40	58	100.4464	15719.82	-26832.58	1	31098.23	-59.63617	9.243048E-010	0.0074344	6
	41	59	79.00281	17111.46	-32987.67	1	37161.65	-62.5832	9.051421E-010	0.0074422	6
	42	60	63.3446	18384.82	-39515.46	1	43582.95	-65.04949	5.352102E-011	0.0074393	6
	43	62	49.86702	20710.86	-49837.5	1	53969.59	-67.4338	6.700864E-010	0.0074408	6
	44	63	39.72458	23500.05	-60467.99	1	64873.95	-68.76208	1.105689E-009	0.0074356	6
	45	65	31.6723	27180.45	-73900.09	1	78740.09	-69.80648	9.27139E-010	0.0074357	6
	46	66	24.93351	32506.17	-90691.67	1	96341.2	-70.28104	9.309539E-012	0.0074402	6
	47	67	19.86229	39576.07	-110010.9	1	116913	-70.21396	-4.525409E-011	0.0074385	5
	48	69	15.83615	50032.66	-133849.9	1	142895.2	-69.50441	-8.275517E-010	0.0074486	5
	49	70	12.40079	62686.31	-162160.5	1	173855.1	-68.86501	-7.12954E-010	0.007458	5
	50	72	9.93114	77939.82	-193105.5	1	208241.1	-68.02038	4.474671E-010	0.0074528	5
	51	73	7.944915	97813.9	-228668	1	248710	-66.84093	-3.836958E-010	0.0074458	5
	52	75	6.317385	126806.8	-267758.3	1	296267.5	-64.65839	-1.029168E-010	0.0074353	5
	53	77	5.008013	160468.5	-311906.1	1	350764.2	-62.77522	-5.200648E-011	0.0074321	5
	54	79	3.945707	202495.8	-359162.3	1	412313.1	-60.58569	-7.143398E-011	0.0074401	5
	55	82	3.158693	247216.5	-405965	1	475314.2	-58.66025	1.315887E-010	0.0074247	5
	56	85	2.504006	297763.1	-458056.9	1	546332.3	-56.97384	-1.354084E-010	0.0074403	5
	57	88	1.998082	349790.6	-512596.4	1	620571.1	-55.69077	1.058516E-010	0.0073912	5
	58	91	1.584686	404026.3	-575530.9	1	703187.8	-54.9309	5.460796E-011	0.0074566	5
	59	95	1.266892	460399.4	-648709.9	1	795482.4	-54.63609	2.930317E-011	0.0074027	5
	60	99	0.999041	523605.7	-740090.1	1	906584.9	-54.72101	1.911084E-010	0.0074762	5
