EXPLAIN
TAG	EISPOT
TITLE	LABEL	Potentiostatic EIS	Test &Identifier
DATE	LABEL	10/26/2019	Date
TIME	LABEL	10:59:21	Time
NOTES	NOTES	1	&Notes...
	
PSTAT	PSTAT	REF600-11020	Potentiostat
VDC	POTEN	0.00000E+000	T	DC &Voltage (V)
FREQINIT	QUANT	1.00000E+006	Initial Fre&q. (Hz)
FREQFINAL	QUANT	1.00000E+000	Final Fre&q. (Hz)
PTSPERDEC	QUANT	1.00000E+001	Points/&decade
VAC	QUANT	2.50000E+001	AC &Voltage (mV rms)
AREA	QUANT	1.00000E-002	&Area (cm^2)
CONDIT	TWOPARAM	T	5.00000E+000	0.00000E+000	Conditionin&g	Time(s)	E(V)
DELAY	TWOPARAM	T	5.00000E+000	0.00000E+000	Init. De&lay	Time(s)	Stab.(mV/s)
SPEED	SELECTOR	0	&Optimize for:
ZGUESS	QUANT	1.00000E+005	E&stimated Z (ohms)
OCVCURVE	TABLE	19
	Pt	T	Vf	Vm	Ach	Over
	#	s	V vs. Ref.	V	V	bits
	0	0.258333	7.47850E-003	7.47850E-003	5.19900E-004	...........
	1	0.516667	7.47498E-003	7.29435E-003	5.22766E-004	...........
	2	0.775	7.45368E-003	7.13571E-003	5.17166E-004	...........
	3	1.03333	7.39472E-003	6.99814E-003	5.20733E-004	...........
	4	1.29167	7.29338E-003	6.91680E-003	5.27766E-004	...........
	5	1.55	7.16805E-003	6.82857E-003	5.21166E-004	...........
	6	1.80833	7.04407E-003	6.76760E-003	5.19966E-004	...........
	7	2.06667	6.93705E-003	6.72746E-003	5.19866E-004	...........
	8	2.325	6.85105E-003	6.67185E-003	5.16533E-004	...........
	9	2.58333	6.78354E-003	6.64755E-003	5.16533E-004	...........
	10	2.84167	6.72995E-003	6.61788E-003	5.13733E-004	...........
	11	3.1	6.68658E-003	6.58516E-003	5.18166E-004	...........
	12	3.35833	6.65092E-003	6.58202E-003	5.14766E-004	...........
	13	3.61667	6.62146E-003	6.55385E-003	5.21900E-004	...........
	14	3.875	6.59751E-003	6.55174E-003	5.19700E-004	...........
	15	4.13333	6.57851E-003	6.54855E-003	5.20433E-004	...........
	16	4.39167	6.56410E-003	6.53495E-003	5.15966E-004	...........
	17	4.65	6.55403E-003	6.55507E-003	5.13800E-004	...........
	18	4.90833	6.54825E-003	6.55393E-003	5.10033E-004	...........
EOC	QUANT	0.0065483	Open Circuit (V)
PSTATMODEL	IQUANT	4	Pstat Model
PSTATSECTION	LABEL	REF600-11020	Pstat Section
PSTATSERIALNO	LABEL	11020	Pstat Serial Number
CTRLMODE	IQUANT	1	Control Mode
IESTAB	IQUANT	0	I/E Stability
CASPEED	IQUANT	1	Control Amp Speed
CONVENTION	IQUANT	1	Current Convention
ICHRANGE	IQUANT	2	Ich Range
ICHRANGEMODE	TOGGLE	F	Ich Auto Range
ICHOFFSETENABLE	TOGGLE	T	Ich Offset Enable
ICHOFFSET	QUANT	0	Ich Offset (V)
ICHFILTER	IQUANT	3	Ich Filter
VCHRANGE	IQUANT	2	Vch Range
VCHRANGEMODE	TOGGLE	F	Vch Auto Range
VCHOFFSETENABLE	TOGGLE	T	Vch Offset Enable
VCHOFFSET	QUANT	0	Vch Offset (V)
VCHFILTER	IQUANT	3	Vch Filter
ACHRANGE	IQUANT	2	Ach Range
ACHOFFSETENABLE	TOGGLE	F	Ach Offset Enable
ACHOFFSET	QUANT	0	Ach Offset (V)
ACHFILTER	IQUANT	3	Ach Filter
IERANGELOWERLIMIT	IQUANT	1	I/E Range Lower Limit
IERANGEMODE	TOGGLE	F	I/E AutoRange
IERANGE	IQUANT	5	I/E Range
POSFEEDENABLE	TOGGLE	F	Positive Feedback IR Comp
POSFEEDRESISTANCE	QUANT	0	Positive Feedback Resistance (ohm)
ACHSELECT	IQUANT	0	Ach Select
CABLEID	IQUANT	14	Cable ID
DCCALDATE	LABEL	8/19/2019	DC Calibration Date
ACCALDATE	LABEL	8/19/2019	AC Calibration Date
THERMOSELECT	IQUANT	1	Thermo Select
FRAMEWORKVERSION	QUANT	6.33	Framework Version
INSTRUMENTVERSION	LABEL	3.50	Instrument Version
ZCURVE	TABLE
	Pt	Time	Freq	Zreal	Zimag	Zsig	Zmod	Zphz	Idc	Vdc	IERange
	#	s	Hz	ohm	ohm	V	ohm	°	A	V	#
	0	2	1000078	2472.375	-1781.041	1	3047.088	-35.7681	3.477596E-006	0.0080885	8
	1	2	794390.6	2796.84	-1733.488	1	3290.485	-31.79073	-4.519036E-006	0.0092067	8
	2	2	630984.4	3126.404	-1624.52	1	3523.275	-27.45696	7.094011E-007	0.0083127	8
	3	3	501234.4	3401.994	-1495.263	1	3716.096	-23.72672	1.651205E-006	0.0078442	8
	4	3	398109.4	3630.626	-1340.196	1	3870.086	-20.26094	-4.964388E-008	0.0081903	8
	5	3	316265.6	3780.191	-1187.44	1	3962.304	-17.43863	3.423489E-006	0.0075641	8
	6	4	251203.1	3953.14	-1046.406	1	4089.289	-14.8263	5.714172E-007	0.0078421	8
	7	4	199546.9	4062.355	-926.4961	1	4166.668	-12.84762	-4.70119E-007	0.008161	8
	8	4	158578.1	4155.618	-845.0554	1	4240.669	-11.49451	1.849274E-008	0.008177	8
	9	5	125953.1	4257.089	-713.644	1	4316.491	-9.51639	-4.646927E-007	0.0097367	7
	10	5	100078.1	4310.565	-664.5632	1	4361.492	-8.764332	-4.534449E-008	0.0081157	7
	11	5	79453.13	4371.943	-640.8481	1	4418.662	-8.339142	-2.829527E-008	0.008076	7
	12	6	63140.62	4430.034	-629.7686	1	4474.573	-8.09089	3.253804E-008	0.0080316	7
	13	6	50203.12	4487.798	-631.9542	1	4532.075	-8.015465	1.07617E-007	0.0079018	7
	14	6	39890.62	4549.496	-647.1641	1	4595.294	-8.095987	-6.186021E-009	0.0081685	7
	15	7	31640.63	4613.005	-679.2188	1	4662.741	-8.376046	-4.402087E-008	0.0081013	7
	16	7	25171.88	4681.361	-723.3337	1	4736.914	-8.783513	-1.061317E-008	0.0080868	7
	17	7	20015.62	4754.1	-779.1017	1	4817.517	-9.306901	-4.964193E-008	0.0082164	7
	18	7	15890.62	4836.774	-853.8419	1	4911.561	-10.01135	3.409136E-008	0.0080243	7
	19	8	12609.37	4928.564	-943.1739	1	5018	-10.83365	-1.060224E-008	0.0080872	7
	20	8	10078.13	5028.248	-1048.516	1	5136.406	-11.77882	-2.673725E-008	0.0080726	7
	21	8	8015.625	5137.964	-1158.719	1	5267.001	-12.7088	-8.275365E-009	0.0080849	7
	22	9	6328.125	5272.018	-1320.243	1	5434.815	-14.05914	-2.087396E-008	0.0081216	7
	23	9	5015.625	5417.177	-1490.335	1	5618.443	-15.38226	3.33725E-008	0.0079476	7
	24	9	3984.375	5571.76	-1688.282	1	5821.924	-16.85718	3.384756E-008	0.0079533	7
	25	10	3170.956	5754.872	-1902.455	1	6061.179	-18.29293	3.357568E-008	0.0079494	7
	26	10	2527.573	5949.454	-2155.533	1	6327.9	-19.91585	-3.527969E-008	0.0081297	7
	27	10	1976.103	6176.814	-2471.17	1	6652.797	-21.80496	-2.771928E-008	0.0080674	7
	28	11	1577.524	6385.897	-2798.519	1	6972.187	-23.66468	-2.500936E-008	0.008069	7
	29	11	1265.625	6630.695	-3193.325	1	7359.582	-25.71534	3.027317E-008	0.007945	7
	30	11	998.264	6890.956	-3690.157	1	7816.811	-28.16937	-6.773586E-009	0.0080777	7
	31	12	796.875	7152.093	-4262.721	1	8326.057	-30.79538	-3.612511E-008	0.0081299	7
	32	12	627.7902	7430.431	-5005.321	1	8959.048	-33.96518	3.105189E-008	0.0079471	7
	33	12	505.5147	7707.059	-5840.874	1	9670.29	-37.15704	-5.191037E-009	0.0080119	6
	34	13	397.9953	8021.867	-6985.584	1	10637.14	-41.04993	5.041266E-010	0.008027	6
	35	13	315.5048	8356.464	-8380.297	1	11834.69	-45.08159	1.112415E-009	0.0080211	6
	36	13	252.4038	8719.017	-10045.76	1	13301.83	-49.04432	1.353404E-009	0.0080209	6
	37	14	198.6229	9177.243	-12280.8	1	15331.01	-53.22984	5.834006E-011	0.0080225	6
	38	14	158.3615	9712.79	-14911.67	1	17795.96	-56.9216	9.529193E-010	0.0080216	6
	39	14	125.558	10394.49	-18246.31	1	20999.36	-60.33086	3.643931E-010	0.0080187	6
	40	15	100.4464	11211.44	-22177.46	1	24850.27	-63.18189	-9.710108E-010	0.0080134	6
	41	15	79.00281	12424.84	-27343.58	1	30034.12	-65.56309	-5.333241E-010	0.0080115	6
	42	15	63.3446	13895.14	-33695.46	1	36448.03	-67.59	7.126685E-010	0.0080088	6
	43	16	49.86702	15839.51	-41343.82	1	44274.16	-69.03732	1.108814E-009	0.0080056	6
	44	16	39.72458	18446.33	-49895.88	1	53196.48	-69.71082	2.870277E-010	0.0080118	6
	45	16	31.6723	21645.88	-60361.01	1	64124.85	-70.27181	3.351649E-010	0.0080143	6
	46	17	24.93351	26111.61	-73977.13	1	78450.19	-70.55857	1.061339E-010	0.0080131	6
	47	17	19.86229	31766.64	-89344.59	1	94823.92	-70.42706	-3.979614E-010	0.008015	6
	48	17	15.83615	39452.68	-105779.7	1	112897.6	-69.54599	2.099163E-009	0.008016	5
	49	18	12.40079	47174.07	-130325.1	1	138600.2	-70.10115	2.091936E-010	0.0080259	5
	50	18	9.93114	58946.63	-154110.9	1	164999.6	-69.06841	1.337523E-010	0.0080236	5
	51	18	7.944915	71865.84	-182844.7	1	196460.9	-68.54304	9.516114E-011	0.0080227	5
	52	19	6.317385	87300.02	-216405.3	1	233350.6	-68.03036	2.612431E-010	0.0080116	5
	53	20	5.008013	106742.6	-257007	1	278292.2	-67.44544	2.552693E-010	0.0080249	5
	54	21	3.945707	130396.1	-305073.1	1	331772.2	-66.85689	1.853363E-011	0.008017	5
	55	22	3.158693	157198.4	-358143.7	1	391124.3	-66.30211	-4.083236E-011	0.0079975	5
	56	24	2.504006	190224.7	-422869	1	463684.8	-65.77973	1.193959E-010	0.0080053	5
	57	25	1.998082	227334.4	-495075.1	1	544775.5	-65.3358	-1.360177E-011	0.0079971	5
	58	27	1.584686	274081	-584128.4	1	645233.6	-64.86339	-6.337107E-011	0.0079637	5
	59	29	1.266892	325357.1	-684504.4	1	757894.1	-64.57743	-5.153683E-011	0.0079813	5
	60	31	0.999041	391324.1	-807668.3	1	897475.7	-64.14931	-4.948545E-011	0.0080037	5
