EXPLAIN
TAG	EISPOT
TITLE	LABEL	Potentiostatic EIS	Test &Identifier
DATE	LABEL	11/3/2019	Date
TIME	LABEL	10:04:07	Time
NOTES	NOTES	1	&Notes...
	
PSTAT	PSTAT	REF600-11020	Potentiostat
VDC	POTEN	0.00000E+000	T	DC &Voltage (V)
FREQINIT	QUANT	1.00000E+006	Initial Fre&q. (Hz)
FREQFINAL	QUANT	1.00000E+000	Final Fre&q. (Hz)
PTSPERDEC	QUANT	1.00000E+001	Points/&decade
VAC	QUANT	2.50000E+001	AC &Voltage (mV rms)
AREA	QUANT	1.00000E-002	&Area (cm^2)
CONDIT	TWOPARAM	T	5.00000E+000	0.00000E+000	Conditionin&g	Time(s)	E(V)
DELAY	TWOPARAM	T	5.00000E+000	0.00000E+000	Init. De&lay	Time(s)	Stab.(mV/s)
SPEED	SELECTOR	1	&Optimize for:
ZGUESS	QUANT	1.00000E+005	E&stimated Z (ohms)
OCVCURVE	TABLE	19
	Pt	T	Vf	Vm	Ach	Over
	#	s	V vs. Ref.	V	V	bits
	0	0.258333	8.39566E-003	8.39566E-003	5.83999E-004	...........
	1	0.516667	8.39871E-003	8.55483E-003	5.86499E-004	...........
	2	0.775	8.41776E-003	8.72575E-003	5.79532E-004	...........
	3	1.03333	8.47302E-003	8.89431E-003	5.81699E-004	...........
	4	1.29167	8.57496E-003	9.06748E-003	5.77266E-004	...........
	5	1.55	8.71554E-003	9.23391E-003	5.78599E-004	...........
	6	1.80833	8.87792E-003	9.40376E-003	5.80132E-004	...........
	7	2.06667	9.04821E-003	9.56905E-003	5.80266E-004	...........
	8	2.325	9.21912E-003	9.73291E-003	5.83632E-004	...........
	9	2.58333	9.38802E-003	9.89223E-003	5.87732E-004	...........
	10	2.84167	9.55423E-003	1.00508E-002	5.82632E-004	...........
	11	3.1	9.71763E-003	1.02047E-002	5.82832E-004	...........
	12	3.35833	9.87818E-003	1.03559E-002	5.77399E-004	...........
	13	3.61667	1.00358E-002	1.05034E-002	5.76766E-004	...........
	14	3.875	1.01901E-002	1.06385E-002	5.77766E-004	...........
	15	4.13333	1.03405E-002	1.07840E-002	5.83565E-004	...........
	16	4.39167	1.04868E-002	1.09205E-002	5.78666E-004	...........
	17	4.65	1.06298E-002	1.10561E-002	5.82465E-004	...........
	18	4.90833	1.07701E-002	1.11883E-002	5.78432E-004	...........
EOC	QUANT	0.0107701	Open Circuit (V)
PSTATMODEL	IQUANT	4	Pstat Model
PSTATSECTION	LABEL	REF600-11020	Pstat Section
PSTATSERIALNO	LABEL	11020	Pstat Serial Number
CTRLMODE	IQUANT	1	Control Mode
IESTAB	IQUANT	0	I/E Stability
CASPEED	IQUANT	1	Control Amp Speed
CONVENTION	IQUANT	1	Current Convention
ICHRANGE	IQUANT	2	Ich Range
ICHRANGEMODE	TOGGLE	F	Ich Auto Range
ICHOFFSETENABLE	TOGGLE	T	Ich Offset Enable
ICHOFFSET	QUANT	0	Ich Offset (V)
ICHFILTER	IQUANT	3	Ich Filter
VCHRANGE	IQUANT	2	Vch Range
VCHRANGEMODE	TOGGLE	F	Vch Auto Range
VCHOFFSETENABLE	TOGGLE	T	Vch Offset Enable
VCHOFFSET	QUANT	0	Vch Offset (V)
VCHFILTER	IQUANT	3	Vch Filter
ACHRANGE	IQUANT	2	Ach Range
ACHOFFSETENABLE	TOGGLE	F	Ach Offset Enable
ACHOFFSET	QUANT	0	Ach Offset (V)
ACHFILTER	IQUANT	3	Ach Filter
IERANGELOWERLIMIT	IQUANT	1	I/E Range Lower Limit
IERANGEMODE	TOGGLE	F	I/E AutoRange
IERANGE	IQUANT	5	I/E Range
POSFEEDENABLE	TOGGLE	F	Positive Feedback IR Comp
POSFEEDRESISTANCE	QUANT	0	Positive Feedback Resistance (ohm)
ACHSELECT	IQUANT	0	Ach Select
CABLEID	IQUANT	14	Cable ID
DCCALDATE	LABEL	8/19/2019	DC Calibration Date
ACCALDATE	LABEL	8/19/2019	AC Calibration Date
THERMOSELECT	IQUANT	1	Thermo Select
FRAMEWORKVERSION	QUANT	6.33	Framework Version
INSTRUMENTVERSION	LABEL	3.50	Instrument Version
ZCURVE	TABLE
	Pt	Time	Freq	Zreal	Zimag	Zsig	Zmod	Zphz	Idc	Vdc	IERange
	#	s	Hz	ohm	ohm	V	ohm	°	A	V	#
	0	1	1000078	1716.908	-809.3545	1	1898.112	-25.2393	9.540835E-006	0.0128237	8
	1	3	794390.6	1854.365	-729.9904	1	1992.876	-21.48761	1.662502E-006	0.0125291	8
	2	4	630984.4	1964.635	-645.3231	1	2067.905	-18.18379	-2.607852E-006	0.0125931	8
	3	5	501234.4	2047.931	-563.2896	1	2123.986	-15.37907	4.631137E-006	0.0123108	8
	4	7	398109.4	2117.11	-493.6277	1	2173.896	-13.12467	-2.375423E-006	0.0124412	8
	5	8	316265.6	2162.937	-426.863	1	2204.656	-11.16405	-3.506788E-006	0.0128478	8
	6	9	251203.1	2203.281	-374.6832	1	2234.913	-9.65121	6.946987E-006	0.0115454	8
	7	11	199546.9	2235.664	-334.2536	1	2260.513	-8.503292	2.347068E-006	0.0117136	8
	8	12	158578.1	2268.596	-284.9963	1	2286.427	-7.16037	-4.415156E-006	0.0126276	8
	9	14	125953.1	2303.295	-240.1594	1	2315.782	-5.952593	1.764614E-006	0.0123342	7
	10	15	100078.1	2316.536	-226.89	1	2327.62	-5.593916	-9.097329E-007	0.0127105	7
	11	16	79453.13	2338.289	-227.7187	1	2349.351	-5.562318	8.331422E-007	0.010799	7
	12	18	63140.62	2358.401	-232.9491	1	2369.878	-5.641044	3.531455E-007	0.012664	7
	13	19	50203.12	2381.219	-241.3714	1	2393.421	-5.787997	-1.059295E-006	0.0131971	7
	14	20	39890.62	2405.311	-255.2217	1	2418.813	-6.056855	-9.51612E-007	0.013655	7
	15	22	31640.63	2432.457	-273.8612	1	2447.825	-6.423667	-6.304916E-007	0.0121035	7
	16	23	25171.88	2459.987	-297.4909	1	2477.91	-6.895405	-1.06181E-006	0.0131953	7
	17	24	20015.62	2492.776	-327.6478	1	2514.216	-7.487973	8.7647E-007	0.011618	7
	18	26	15890.62	2526.385	-363.1927	1	2552.357	-8.180782	6.644412E-007	0.0107188	7
	19	27	12609.37	2563.878	-406.8221	1	2595.954	-9.016212	4.129054E-007	0.010815	7
	20	28	10078.13	2602.557	-456.0262	1	2642.208	-9.93861	3.568899E-007	0.0126628	7
	21	30	8015.625	2646.461	-516.0871	1	2696.313	-11.03478	-2.421323E-007	0.0133992	7
	22	31	6328.125	2697.948	-588.7925	1	2761.448	-12.31104	8.388009E-007	0.0107919	7
	23	32	5015.625	2751.573	-674.6715	1	2833.079	-13.77683	9.508193E-007	0.0112494	7
	24	34	3984.375	2808.723	-776.7063	1	2914.137	-15.45791	9.496349E-007	0.0112457	7
	25	35	3170.956	2871.411	-897.0966	1	3008.285	-17.35004	7.563138E-008	0.0130506	7
	26	36	2527.573	2940.26	-1040.964	1	3119.091	-19.4959	6.664791E-007	0.0107154	7
	27	38	1976.103	3020.181	-1229.441	1	3260.831	-22.15001	8.777063E-007	0.011611	7
	28	39	1577.524	3096.72	-1442.471	1	3416.197	-24.9764	4.160247E-007	0.0108096	7
	29	40	1265.625	3182.094	-1686.993	1	3601.62	-27.93039	-1.074142E-006	0.0135209	7
	30	42	998.264	3278.558	-2019.012	1	3850.37	-31.62573	4.155854E-007	0.0108032	7
	31	43	796.875	3375.94	-2405.01	1	4145.002	-35.46596	7.229336E-007	0.0120364	7
	32	45	627.7902	3490.096	-2909.572	1	4543.828	-39.8168	-9.137572E-007	0.0126939	7
	33	46	505.5147	3607.353	-3485.034	1	5015.82	-44.01195	8.798269E-007	0.0116096	7
	34	47	397.9953	3755.122	-4263.482	1	5681.393	-48.62756	9.978535E-010	0.0122677	7
	35	49	315.5048	3926.244	-5210.982	1	6524.548	-53.00359	3.716984E-009	0.012264	7
	36	50	252.4038	4125.439	-6334.239	1	7559.222	-56.92412	2.28425E-009	0.012262	7
	37	51	198.6229	4391.346	-7829.581	1	8976.984	-60.71341	1.703877E-009	0.0122571	7
	38	53	158.3615	4711	-9579.43	1	10675.15	-63.81282	1.068064E-009	0.0121881	6
	39	54	125.558	5125.835	-11783.95	1	12850.51	-66.49171	1.081093E-010	0.0122001	6
	40	55	100.4464	5637.517	-14393.14	1	15457.81	-68.61067	1.034417E-009	0.0121986	6
	41	57	79.00281	6340.456	-17795.98	1	18891.75	-70.38973	-1.186222E-011	0.0121979	6
	42	58	63.3446	7067.591	-21634.87	1	22760.02	-71.90903	1.813845E-010	0.0121965	6
	43	59	49.86702	8473.427	-26739.16	1	28049.63	-72.41701	-5.265505E-010	0.0121866	6
	44	61	39.72458	9851.35	-32731.85	1	34182.2	-73.2497	-2.79648E-010	0.0121994	6
	45	62	31.6723	11788.08	-39806.62	1	41515.36	-73.50421	8.245751E-011	0.0121974	6
	46	64	24.93351	14381.6	-48987.66	1	51055.08	-73.63902	1.394707E-010	0.0121897	6
	47	65	19.86229	17586.99	-59422.59	1	61970.53	-73.51311	-5.26618E-011	0.012197	6
	48	66	15.83615	21315.67	-72097.68	1	75182.66	-73.52969	1.597604E-009	0.0122001	6
	49	68	12.40079	27501.05	-87638.46	1	91852.09	-72.57809	-3.395426E-010	0.0122039	6
	50	69	9.93114	34416.39	-105494.8	1	110966.8	-71.93171	-1.2166E-010	0.0122138	5
	51	71	7.944915	43168.84	-125697.9	1	132904.1	-71.04582	8.360658E-010	0.012205	5
	52	72	6.317385	54383.41	-150200.1	1	159742.4	-70.09605	4.224366E-010	0.0122162	5
	53	74	5.008013	68522.91	-179216	1	191869.2	-69.07574	2.185862E-010	0.01221	5
	54	77	3.945707	86586.75	-213775.4	1	230645.2	-67.95028	-2.977558E-010	0.0122012	5
	55	80	3.158693	107332.2	-250785.7	1	272788.7	-66.82986	1.603931E-010	0.0122014	5
	56	83	2.504006	133231.2	-294714.2	1	323430.1	-65.67374	-2.062324E-010	0.0122077	5
	57	86	1.998082	162329.7	-342534.4	1	379052.4	-64.64337	2.337101E-010	0.0121762	5
	58	89	1.584686	198339	-400510.5	1	446930.7	-63.65467	-1.071103E-010	0.0121523	5
	59	92	1.266892	237517.6	-462296.5	1	519742.9	-62.80692	1.787679E-010	0.0121871	5
	60	97	0.999041	286443.6	-540112.9	1	611368.9	-62.0612	-2.917422E-010	0.0121985	5
