EXPLAIN
TAG	EISPOT
TITLE	LABEL	Potentiostatic IDE	Test &Identifier
DATE	LABEL	9/14/2019	Date
TIME	LABEL	13:41:54	Time
NOTES	NOTES	1	&Notes...
	
PSTAT	PSTAT	REF600-11020	Potentiostat
VDC	POTEN	0.00000E+000	T	DC &Voltage (V)
FREQINIT	QUANT	1.00000E+006	Initial Fre&q. (Hz)
FREQFINAL	QUANT	1.00000E+000	Final Fre&q. (Hz)
PTSPERDEC	QUANT	1.00000E+001	Points/&decade
VAC	QUANT	2.50000E+001	AC &Voltage (mV rms)
AREA	QUANT	1.00000E-002	&Area (cm^2)
CONDIT	TWOPARAM	T	5.00000E+000	0.00000E+000	Conditionin&g	Time(s)	E(V)
DELAY	TWOPARAM	T	5.00000E+000	0.00000E+000	Init. De&lay	Time(s)	Stab.(mV/s)
SPEED	SELECTOR	1	&Optimize for:
ZGUESS	QUANT	1.00000E+007	E&stimated Z (ohms)
OCVCURVE	TABLE	19
	Pt	T	Vf	Vm	Ach	Over
	#	s	V vs. Ref.	V	V	bits
	0	0.258333	7.15349E-003	7.15349E-003	5.64966E-004	...........
	1	0.516667	7.15583E-003	7.27583E-003	5.64699E-004	...........
	2	0.775	7.16869E-003	7.31382E-003	5.72266E-004	...........
	3	1.03333	7.20116E-003	7.40437E-003	5.71799E-004	...........
	4	1.29167	7.25364E-003	7.46334E-003	5.73266E-004	...........
	5	1.55	7.31981E-003	7.59211E-003	5.74665E-004	...........
	6	1.80833	7.39552E-003	7.66393E-003	5.77532E-004	...........
	7	2.06667	7.48317E-003	7.95317E-003	5.69966E-004	...........
	8	2.325	7.59415E-003	8.16544E-003	5.71899E-004	...........
	9	2.58333	7.73269E-003	7.86073E-003	5.69199E-004	...........
	10	2.84167	7.86441E-003	7.89407E-003	5.71166E-004	...........
	11	3.1	7.93569E-003	7.76940E-003	5.67399E-004	...........
	12	3.35833	7.93668E-003	8.02525E-003	5.68732E-004	...........
	13	3.61667	7.91045E-003	7.86113E-003	5.66932E-004	...........
	14	3.875	7.89131E-003	7.60688E-003	5.65499E-004	...........
	15	4.13333	7.85733E-003	7.30184E-003	5.64199E-004	...........
	16	4.39167	7.76945E-003	7.55986E-003	5.67466E-004	...........
	17	4.65	7.65483E-003	8.00991E-003	5.68299E-004	...........
	18	4.90833	7.61098E-003	8.28261E-003	5.72032E-004	...........
EOC	QUANT	0.007611	Open Circuit (V)
PSTATMODEL	IQUANT	4	Pstat Model
PSTATSECTION	LABEL	REF600-11020	Pstat Section
PSTATSERIALNO	LABEL	11020	Pstat Serial Number
CTRLMODE	IQUANT	1	Control Mode
IESTAB	IQUANT	0	I/E Stability
CASPEED	IQUANT	1	Control Amp Speed
CONVENTION	IQUANT	1	Current Convention
ICHRANGE	IQUANT	2	Ich Range
ICHRANGEMODE	TOGGLE	F	Ich Auto Range
ICHOFFSETENABLE	TOGGLE	T	Ich Offset Enable
ICHOFFSET	QUANT	0	Ich Offset (V)
ICHFILTER	IQUANT	3	Ich Filter
VCHRANGE	IQUANT	2	Vch Range
VCHRANGEMODE	TOGGLE	F	Vch Auto Range
VCHOFFSETENABLE	TOGGLE	T	Vch Offset Enable
VCHOFFSET	QUANT	0	Vch Offset (V)
VCHFILTER	IQUANT	3	Vch Filter
ACHRANGE	IQUANT	2	Ach Range
ACHOFFSETENABLE	TOGGLE	F	Ach Offset Enable
ACHOFFSET	QUANT	0	Ach Offset (V)
ACHFILTER	IQUANT	3	Ach Filter
IERANGELOWERLIMIT	IQUANT	1	I/E Range Lower Limit
IERANGEMODE	TOGGLE	F	I/E AutoRange
IERANGE	IQUANT	3	I/E Range
POSFEEDENABLE	TOGGLE	F	Positive Feedback IR Comp
POSFEEDRESISTANCE	QUANT	0	Positive Feedback Resistance (ohm)
ACHSELECT	IQUANT	0	Ach Select
CABLEID	IQUANT	14	Cable ID
DCCALDATE	LABEL	8/19/2019	DC Calibration Date
ACCALDATE	LABEL	8/19/2019	AC Calibration Date
THERMOSELECT	IQUANT	1	Thermo Select
FRAMEWORKVERSION	QUANT	6.33	Framework Version
INSTRUMENTVERSION	LABEL	3.50	Instrument Version
ZCURVE	TABLE
	Pt	Time	Freq	Zreal	Zimag	Zsig	Zmod	Zphz	Idc	Vdc	IERange
	#	s	Hz	ohm	ohm	V	ohm	°	A	V	#
	0	2	1000078	2585.902	-1786.697	1	3143.115	-34.64206	-4.199082E-006	0.00996	8
	1	3	794390.6	2938.885	-1687.633	1	3388.975	-29.86629	-2.794456E-006	0.0103945	8
	2	5	630984.4	3238.889	-1538.535	1	3585.735	-25.40862	-1.540758E-006	0.0097211	8
	3	6	501234.4	3485.262	-1349.942	1	3737.565	-21.17281	-7.415462E-007	0.0096171	8
	4	8	398109.4	3671.5	-1172.588	1	3854.202	-17.71222	-1.497525E-006	0.0095457	8
	5	9	316265.6	3813.084	-1010.747	1	3944.771	-14.84615	2.603309E-008	0.0090414	8
	6	10	251203.1	3912.394	-868.5302	1	4007.639	-12.51638	-1.243306E-006	0.0091525	8
	7	12	199546.9	3992.856	-760.3682	1	4064.61	-10.78186	3.094099E-007	0.0089865	8
	8	13	158578.1	4056.055	-653.9038	1	4108.427	-9.158237	-1.428709E-006	0.009562	8
	9	14	125953.1	4122.45	-535.0841	1	4157.031	-7.395507	5.683584E-007	0.0076103	7
	10	16	100078.1	4156.636	-482.9901	1	4184.603	-6.627895	1.005035E-007	0.0090193	7
	11	17	79453.13	4191.19	-453.3776	1	4215.641	-6.173904	-1.121636E-008	0.0091319	7
	12	18	63140.62	4225.374	-436.339	1	4247.844	-5.895828	1.12713E-007	0.0089353	7
	13	20	50203.12	4262.057	-433.9227	1	4284.089	-5.813289	-3.932545E-009	0.0090434	7
	14	21	39890.62	4299.365	-446.6698	1	4322.506	-5.931296	1.823449E-008	0.0091758	7
	15	22	31640.63	4334.752	-459.9435	1	4359.085	-6.056767	-6.212174E-008	0.0092048	7
	16	24	25171.88	4375.521	-489.5168	1	4402.818	-6.383492	-2.929293E-009	0.0090365	7
	17	25	20015.62	4418.025	-530.0239	1	4449.705	-6.840995	1.1624E-007	0.0089297	7
	18	26	15890.62	4470.692	-572.432	1	4507.191	-7.296509	4.560545E-008	0.0090465	7
	19	28	12609.37	4518.07	-653.3507	1	4565.066	-8.228409	-6.191705E-008	0.0092083	7
	20	29	10078.13	4574.628	-734.9848	1	4633.295	-9.12745	2.406341E-008	0.0089973	7
	21	30	8015.625	4636.852	-836.537	1	4711.708	-10.22676	-2.699041E-008	0.0090795	7
	22	32	6328.125	4710.553	-963.312	1	4808.043	-11.55768	4.495534E-008	0.0090403	7
	23	33	5015.625	4790.708	-1114.027	1	4918.53	-13.09086	-7.88928E-008	0.0092043	7
	24	34	3984.375	4881.09	-1293.531	1	5049.58	-14.84269	-8.895737E-009	0.0091189	7
	25	36	3170.956	4980.258	-1508.346	1	5203.66	-16.84972	-6.030902E-008	0.0092155	7
	26	37	2527.573	5091.489	-1762.367	1	5387.875	-19.09278	8.32371E-008	0.008928	7
	27	38	1976.103	5230.127	-2099.351	1	5635.734	-21.87032	8.498893E-008	0.0089216	7
	28	40	1577.524	5368.934	-2469.231	1	5909.531	-24.69822	-1.099916E-008	0.0091155	7
	29	41	1265.625	5522.524	-2907.544	1	6241.161	-27.76628	-5.046347E-008	0.0091993	7
	30	42	998.264	5722.14	-3470.096	1	6692.118	-31.23402	-5.314365E-009	0.0090736	7
	31	44	796.875	5926.083	-4125.13	1	7220.468	-34.84167	-1.142408E-008	0.0091135	7
	32	45	627.7902	6183.2	-4968.146	1	7931.862	-38.78156	2.135871E-008	0.009173	7
	33	46	505.5147	6442.21	-5899.437	1	8735.298	-42.48181	1.038462E-007	0.0089904	7
	34	48	397.9953	6787.804	-7144.687	1	9854.99	-46.46732	5.985722E-009	0.0091044	7
	35	49	315.5048	7178.401	-8632.563	1	11227.23	-50.25481	2.833915E-010	0.009054	6
	36	50	252.4038	7616.065	-10375.5	1	12870.72	-53.71973	8.173988E-010	0.0090484	6
	37	52	198.6229	8177.31	-12670.37	1	15080	-57.16226	8.680125E-010	0.009048	6
	38	53	158.3615	8816.318	-15322.17	1	17677.57	-60.08405	8.957687E-010	0.00905	6
	39	54	125.558	9609.65	-18650.85	1	20980.93	-62.74071	9.807943E-010	0.0090493	6
	40	56	100.4464	10568.86	-22568.83	1	24920.93	-64.90656	1.248914E-009	0.0090469	6
	41	57	79.00281	11715.93	-27736.86	1	30109.74	-67.10101	5.965098E-010	0.0090455	6
	42	58	63.3446	13520.57	-33330.63	1	35968.55	-67.92007	4.601393E-010	0.0090454	6
	43	60	49.86702	15052.39	-41368.01	1	44021.44	-70.0053	1.014272E-009	0.0090447	6
	44	61	39.72458	17488.18	-50073.43	1	53039.46	-70.74821	1.331499E-009	0.0090449	6
	45	63	31.6723	20532.37	-60597.79	1	63981.8	-71.28206	8.952818E-010	0.0090425	6
	46	64	24.93351	24811.25	-74471.02	1	78495.42	-71.57365	6.412955E-010	0.0090407	6
	47	65	19.86229	29917.75	-90283.25	1	95111.2	-71.66602	4.914478E-010	0.0090399	6
	48	67	15.83615	36986.21	-109373.1	1	115457.6	-71.31624	9.35836E-010	0.0090452	5
	49	68	12.40079	46625.17	-132854.5	1	140798.5	-70.66152	5.457943E-010	0.0090539	5
	50	69	9.93114	57922.61	-159586.1	1	169772.6	-70.05137	4.213738E-010	0.0090518	5
	51	71	7.944915	72711.08	-189894.8	1	203339.4	-69.04806	2.305875E-010	0.0090525	5
	52	73	6.317385	92550.82	-225513.4	1	243766.1	-67.68672	1.947017E-011	0.0090667	5
	53	75	5.008013	118170.3	-266771.5	1	291772.6	-66.10837	3.014896E-010	0.0090513	5
	54	77	3.945707	150975.2	-314416.5	1	348785.4	-64.3508	5.658597E-010	0.0090507	5
	55	80	3.158693	189247.8	-363324	1	409657.3	-62.48595	1.032221E-010	0.0090588	5
	56	83	2.504006	235976.9	-418686.7	1	480607.6	-60.59386	6.850742E-011	0.0090423	5
	57	86	1.998082	289358	-476743.4	1	557684.8	-58.74447	-1.641202E-010	0.0090303	5
	58	89	1.584686	353450	-537346.9	1	643170.7	-56.66433	-2.653869E-011	0.0090769	5
	59	92	1.266892	419424.8	-601793.4	1	733534.3	-55.12512	3.315856E-011	0.0090072	5
	60	97	0.999041	497496.8	-673539.8	1	837352.4	-53.54931	1.710475E-010	0.0090872	5
