EXPLAIN
TAG	EISPOT
TITLE	LABEL	Potentiostatic IDE	Test &Identifier
DATE	LABEL	9/8/2019	Date
TIME	LABEL	10:59:56	Time
NOTES	NOTES	1	&Notes...
	
PSTAT	PSTAT	REF600-11020	Potentiostat
VDC	POTEN	0.00000E+000	T	DC &Voltage (V)
FREQINIT	QUANT	1.00000E+006	Initial Fre&q. (Hz)
FREQFINAL	QUANT	1.00000E+000	Final Fre&q. (Hz)
PTSPERDEC	QUANT	1.00000E+001	Points/&decade
VAC	QUANT	2.50000E+001	AC &Voltage (mV rms)
AREA	QUANT	1.00000E-002	&Area (cm^2)
CONDIT	TWOPARAM	T	5.00000E+000	0.00000E+000	Conditionin&g	Time(s)	E(V)
DELAY	TWOPARAM	T	5.00000E+000	0.00000E+000	Init. De&lay	Time(s)	Stab.(mV/s)
SPEED	SELECTOR	1	&Optimize for:
ZGUESS	QUANT	1.00000E+007	E&stimated Z (ohms)
OCVCURVE	TABLE	19
	Pt	T	Vf	Vm	Ach	Over
	#	s	V vs. Ref.	V	V	bits
	0	0.258333	3.96912E-003	3.96912E-003	5.72832E-004	...........
	1	0.516667	3.96456E-003	3.73054E-003	5.73732E-004	...........
	2	0.775	3.93665E-003	3.50827E-003	5.74665E-004	...........
	3	1.03333	3.85801E-003	3.29888E-003	5.76166E-004	...........
	4	1.29167	3.71877E-003	3.13250E-003	5.73499E-004	...........
	5	1.55	3.53795E-003	2.97230E-003	5.73799E-004	...........
	6	1.80833	3.34565E-003	2.82701E-003	5.75699E-004	...........
	7	2.06667	3.16271E-003	2.68883E-003	5.75499E-004	...........
	8	2.325	2.99610E-003	2.55865E-003	5.67166E-004	...........
	9	2.58333	2.84432E-003	2.42408E-003	5.71332E-004	...........
	10	2.84167	2.70321E-003	2.30707E-003	5.64532E-004	...........
	11	3.1	2.56994E-003	2.21712E-003	5.67732E-004	...........
	12	3.35833	2.44507E-003	2.12017E-003	5.63799E-004	...........
	13	3.61667	2.33045E-003	2.02135E-003	5.65632E-004	...........
	14	3.875	2.22539E-003	1.93334E-003	5.64132E-004	...........
	15	4.13333	2.12662E-003	1.82924E-003	5.66899E-004	...........
	16	4.39167	2.03035E-003	1.71757E-003	5.67166E-004	...........
	17	4.65	1.93291E-003	1.61399E-003	5.72366E-004	...........
	18	4.90833	1.83263E-003	1.53767E-003	5.72932E-004	...........
EOC	QUANT	0.0018326	Open Circuit (V)
PSTATMODEL	IQUANT	4	Pstat Model
PSTATSECTION	LABEL	REF600-11020	Pstat Section
PSTATSERIALNO	LABEL	11020	Pstat Serial Number
CTRLMODE	IQUANT	1	Control Mode
IESTAB	IQUANT	0	I/E Stability
CASPEED	IQUANT	1	Control Amp Speed
CONVENTION	IQUANT	1	Current Convention
ICHRANGE	IQUANT	2	Ich Range
ICHRANGEMODE	TOGGLE	F	Ich Auto Range
ICHOFFSETENABLE	TOGGLE	T	Ich Offset Enable
ICHOFFSET	QUANT	0	Ich Offset (V)
ICHFILTER	IQUANT	3	Ich Filter
VCHRANGE	IQUANT	2	Vch Range
VCHRANGEMODE	TOGGLE	F	Vch Auto Range
VCHOFFSETENABLE	TOGGLE	T	Vch Offset Enable
VCHOFFSET	QUANT	0	Vch Offset (V)
VCHFILTER	IQUANT	3	Vch Filter
ACHRANGE	IQUANT	2	Ach Range
ACHOFFSETENABLE	TOGGLE	F	Ach Offset Enable
ACHOFFSET	QUANT	0	Ach Offset (V)
ACHFILTER	IQUANT	3	Ach Filter
IERANGELOWERLIMIT	IQUANT	1	I/E Range Lower Limit
IERANGEMODE	TOGGLE	F	I/E AutoRange
IERANGE	IQUANT	2	I/E Range
POSFEEDENABLE	TOGGLE	F	Positive Feedback IR Comp
POSFEEDRESISTANCE	QUANT	0	Positive Feedback Resistance (ohm)
ACHSELECT	IQUANT	0	Ach Select
CABLEID	IQUANT	14	Cable ID
DCCALDATE	LABEL	8/19/2019	DC Calibration Date
ACCALDATE	LABEL	8/19/2019	AC Calibration Date
THERMOSELECT	IQUANT	1	Thermo Select
FRAMEWORKVERSION	QUANT	6.33	Framework Version
INSTRUMENTVERSION	LABEL	3.50	Instrument Version
ZCURVE	TABLE
	Pt	Time	Freq	Zreal	Zimag	Zsig	Zmod	Zphz	Idc	Vdc	IERange
	#	s	Hz	ohm	ohm	V	ohm	°	A	V	#
	0	2	1000078	2752.223	-1789.911	1	3283.065	-33.03801	1.020082E-005	0.002511	8
	1	3	794390.6	3104.8	-1671.01	1	3525.913	-28.28923	-4.708796E-006	0.0040161	8
	2	5	630984.4	3396.714	-1527.628	1	3724.422	-24.21521	1.133618E-006	0.0034159	8
	3	6	501234.4	3637.734	-1369.161	1	3886.864	-20.62521	-2.104787E-006	0.0038493	8
	4	7	398109.4	3816.376	-1191.836	1	3998.149	-17.34334	2.042808E-006	0.0029115	8
	5	9	316265.6	3975.261	-1029.015	1	4106.285	-14.51273	3.643522E-006	0.0027435	8
	6	10	251203.1	4066.868	-909.7168	1	4167.374	-12.60891	-6.851047E-008	0.0032855	8
	7	11	199546.9	4195.172	-772.4414	1	4265.692	-10.43281	8.077031E-008	0.0032838	8
	8	13	158578.1	4227.844	-665.7736	1	4279.943	-8.94908	-7.260837E-007	0.0035517	8
	9	14	125953.1	4293.068	-547.2415	1	4327.806	-7.264371	-1.131168E-006	0.0060953	7
	10	16	100078.1	4341.96	-489.0232	1	4369.412	-6.425988	7.139177E-008	0.0033507	7
	11	17	79453.13	4381.717	-461.2225	1	4405.924	-6.008865	5.094519E-008	0.0032182	7
	12	18	63140.62	4413.983	-441.1156	1	4435.97	-5.70696	-3.858262E-008	0.0033944	7
	13	20	50203.12	4449.115	-434.7766	1	4470.309	-5.581339	-3.337097E-008	0.0033712	7
	14	21	39890.62	4482.016	-443.4465	1	4503.9	-5.650402	5.072957E-008	0.0032125	7
	15	22	31640.63	4518.912	-457.7783	1	4542.04	-5.784488	2.365176E-009	0.0032967	7
	16	24	25171.88	4555.584	-486.4399	1	4581.481	-6.094882	-1.088197E-008	0.0034034	7
	17	25	20015.62	4595.712	-528.7534	1	4626.03	-6.56323	8.131029E-008	0.0032185	7
	18	26	15890.62	4640.714	-584.0269	1	4677.319	-7.172878	-4.070323E-008	0.0034161	7
	19	27	12609.37	4686.583	-656.0121	1	4732.273	-7.968298	3.537746E-008	0.0033251	7
	20	29	10078.13	4739.283	-742.3334	1	4797.068	-8.902143	-9.531765E-009	0.0033849	7
	21	30	8015.625	4797.724	-852.309	1	4872.842	-10.07342	-4.030161E-008	0.0033825	7
	22	31	6328.125	4866.885	-989.628	1	4966.481	-11.49377	3.385605E-009	0.0032879	7
	23	33	5015.625	4944.288	-1154.71	1	5077.336	-13.14549	8.956611E-008	0.0031777	7
	24	34	3984.375	5031.377	-1352.155	1	5209.902	-15.04251	-8.956701E-009	0.0033925	7
	25	35	3170.956	5133.263	-1587.861	1	5373.239	-17.18829	2.421343E-008	0.0032687	7
	26	37	2527.573	5248.537	-1868.274	1	5571.139	-19.59374	-4.054069E-008	0.0033908	7
	27	38	1976.103	5395.961	-2236.82	1	5841.212	-22.51577	-7.041196E-008	0.0034726	7
	28	39	1577.524	5549.331	-2643.28	1	6146.707	-25.46959	-1.368704E-008	0.0034157	7
	29	41	1265.625	5726.364	-3115.348	1	6518.944	-28.54778	-4.06809E-008	0.0034099	7
	30	42	998.264	5938.155	-3733.858	1	7014.513	-32.16131	-5.338341E-008	0.0034581	7
	31	43	796.875	6177.72	-4433.771	1	7604.114	-35.66714	-1.097527E-008	0.0034066	7
	32	45	627.7902	6473.188	-5331.875	1	8386.361	-39.47781	-2.378217E-008	0.0033517	7
	33	46	505.5147	6772.193	-6324.889	1	9266.435	-43.04394	-9.64665E-009	0.0033991	7
	34	47	397.9953	7174.695	-7637.645	1	10479.02	-46.79016	9.956929E-010	0.0033147	6
	35	49	315.5048	7626.518	-9203.254	1	11952.56	-50.35226	1.735313E-009	0.0033141	6
	36	50	252.4038	8140.156	-11028.23	1	13707.08	-53.56823	1.813254E-009	0.0033084	6
	37	51	198.6229	8799.726	-13418.69	1	16046.7	-56.74389	6.568471E-010	0.0033113	6
	38	53	158.3615	9551.29	-16169.78	1	18780.02	-59.43016	1.443826E-009	0.0033052	6
	39	54	125.558	10493.42	-19603.89	1	22235.65	-61.84108	1.112403E-009	0.0033072	6
	40	56	100.4464	11617.53	-23604.71	1	26308.73	-63.79497	1.622396E-009	0.0033083	6
	41	57	79.00281	13110.24	-28855.26	1	31693.91	-65.56557	7.861153E-010	0.0033026	6
	42	58	63.3446	14491.01	-34535.28	1	37452.3	-67.23706	5.95778E-010	0.0033041	6
	43	60	49.86702	17153.65	-42434.73	1	45770.67	-67.98966	1.002942E-009	0.0033037	6
	44	61	39.72458	19660.15	-51088.9	1	54741.18	-68.95216	8.066254E-010	0.003308	6
	45	62	31.6723	23096.54	-61595.08	1	65783.01	-69.44527	1.221885E-009	0.0033026	6
	46	64	24.93351	27536.68	-75103.41	1	79992.44	-69.86452	7.865023E-010	0.0032997	6
	47	65	19.86229	32898.74	-90437.33	1	96235.3	-70.00993	8.086745E-010	0.0033047	6
	48	66	15.83615	40273.8	-108263.5	1	115511.7	-69.59489	1.664498E-009	0.003304	5
	49	68	12.40079	49050.4	-132156.5	1	140965.5	-69.6374	7.667662E-010	0.0033084	5
	50	69	9.93114	60138.06	-157723.9	1	168799.9	-69.1288	4.097716E-010	0.0033093	5
	51	71	7.944915	73910.13	-186928.4	1	201009.8	-68.42651	9.081237E-010	0.003309	5
	52	72	6.317385	91565.16	-222296.4	1	240416	-67.61295	6.696336E-010	0.0033006	5
	53	74	5.008013	113827.1	-264063.6	1	287552.1	-66.68108	6.041604E-011	0.0033044	5
	54	77	3.945707	142518.3	-312902.6	1	343830.6	-65.51208	5.252376E-010	0.0033126	5
	55	79	3.158693	175720.9	-365489.4	1	405537.1	-64.32257	1.339475E-010	0.0033117	5
	56	83	2.504006	216674.5	-426709.1	1	478569.2	-63.07944	6.718225E-010	0.0033096	5
	57	86	1.998082	265707.8	-493010.9	1	560053.9	-61.67759	2.517788E-010	0.0033508	5
	58	89	1.584686	322944.2	-569387.9	1	654595.7	-60.43906	3.775604E-010	0.00332	5
	59	92	1.266892	394060	-652417	1	762188.4	-58.86802	-2.902368E-011	0.0033534	5
	60	97	0.999041	469654.9	-744193.4	1	879999.8	-57.74428	3.206977E-010	0.0032887	5
