EXPLAIN
TAG	EISPOT
TITLE	LABEL	Potentiostatic EIS	Test &Identifier
DATE	LABEL	10/31/2019	Date
TIME	LABEL	23:52:32	Time
NOTES	NOTES	1	&Notes...
	
PSTAT	PSTAT	REF600-11020	Potentiostat
VDC	POTEN	0.00000E+000	T	DC &Voltage (V)
FREQINIT	QUANT	1.00000E+006	Initial Fre&q. (Hz)
FREQFINAL	QUANT	1.00000E+000	Final Fre&q. (Hz)
PTSPERDEC	QUANT	1.00000E+001	Points/&decade
VAC	QUANT	2.50000E+001	AC &Voltage (mV rms)
AREA	QUANT	1.00000E-002	&Area (cm^2)
CONDIT	TWOPARAM	T	5.00000E+000	0.00000E+000	Conditionin&g	Time(s)	E(V)
DELAY	TWOPARAM	T	5.00000E+000	0.00000E+000	Init. De&lay	Time(s)	Stab.(mV/s)
SPEED	SELECTOR	0	&Optimize for:
ZGUESS	QUANT	1.00000E+005	E&stimated Z (ohms)
OCVCURVE	TABLE	19
	Pt	T	Vf	Vm	Ach	Over
	#	s	V vs. Ref.	V	V	bits
	0	0.258333	2.88132E-003	2.88132E-003	5.76166E-004	...........
	1	0.516667	2.87471E-003	2.53545E-003	5.75866E-004	...........
	2	0.775	2.83613E-003	2.31185E-003	5.75132E-004	...........
	3	1.03333	2.73646E-003	2.24662E-003	5.78432E-004	...........
	4	1.29167	2.58315E-003	2.17138E-003	5.75432E-004	...........
	5	1.55	2.41966E-003	2.05595E-003	5.73199E-004	...........
	6	1.80833	2.27851E-003	1.90768E-003	5.72332E-004	...........
	7	2.06667	2.15886E-003	1.82247E-003	5.76899E-004	...........
	8	2.325	2.04780E-003	1.75895E-003	5.74966E-004	...........
	9	2.58333	1.94291E-003	1.70353E-003	5.77832E-004	...........
	10	2.84167	1.85018E-003	1.63775E-003	5.72399E-004	...........
	11	3.1	1.77184E-003	1.56554E-003	5.71966E-004	...........
	12	3.35833	1.70363E-003	1.52737E-003	5.76099E-004	...........
	13	3.61667	1.64058E-003	1.44956E-003	5.69632E-004	...........
	14	3.875	1.57986E-003	1.38866E-003	5.75932E-004	...........
	15	4.13333	1.51921E-003	1.32579E-003	5.78966E-004	...........
	16	4.39167	1.45716E-003	1.25934E-003	5.74266E-004	...........
	17	4.65	1.39408E-003	1.21145E-003	5.76499E-004	...........
	18	4.90833	1.33166E-003	1.15450E-003	5.74999E-004	...........
EOC	QUANT	0.0013317	Open Circuit (V)
PSTATMODEL	IQUANT	4	Pstat Model
PSTATSECTION	LABEL	REF600-11020	Pstat Section
PSTATSERIALNO	LABEL	11020	Pstat Serial Number
CTRLMODE	IQUANT	1	Control Mode
IESTAB	IQUANT	0	I/E Stability
CASPEED	IQUANT	1	Control Amp Speed
CONVENTION	IQUANT	1	Current Convention
ICHRANGE	IQUANT	2	Ich Range
ICHRANGEMODE	TOGGLE	F	Ich Auto Range
ICHOFFSETENABLE	TOGGLE	T	Ich Offset Enable
ICHOFFSET	QUANT	0	Ich Offset (V)
ICHFILTER	IQUANT	3	Ich Filter
VCHRANGE	IQUANT	2	Vch Range
VCHRANGEMODE	TOGGLE	F	Vch Auto Range
VCHOFFSETENABLE	TOGGLE	T	Vch Offset Enable
VCHOFFSET	QUANT	0	Vch Offset (V)
VCHFILTER	IQUANT	3	Vch Filter
ACHRANGE	IQUANT	2	Ach Range
ACHOFFSETENABLE	TOGGLE	F	Ach Offset Enable
ACHOFFSET	QUANT	0	Ach Offset (V)
ACHFILTER	IQUANT	3	Ach Filter
IERANGELOWERLIMIT	IQUANT	1	I/E Range Lower Limit
IERANGEMODE	TOGGLE	F	I/E AutoRange
IERANGE	IQUANT	4	I/E Range
POSFEEDENABLE	TOGGLE	F	Positive Feedback IR Comp
POSFEEDRESISTANCE	QUANT	0	Positive Feedback Resistance (ohm)
ACHSELECT	IQUANT	0	Ach Select
CABLEID	IQUANT	14	Cable ID
DCCALDATE	LABEL	8/19/2019	DC Calibration Date
ACCALDATE	LABEL	8/19/2019	AC Calibration Date
THERMOSELECT	IQUANT	1	Thermo Select
FRAMEWORKVERSION	QUANT	6.33	Framework Version
INSTRUMENTVERSION	LABEL	3.50	Instrument Version
ZCURVE	TABLE
	Pt	Time	Freq	Zreal	Zimag	Zsig	Zmod	Zphz	Idc	Vdc	IERange
	#	s	Hz	ohm	ohm	V	ohm	°	A	V	#
	0	1	1000078	1836.775	-826.9224	1	2014.335	-24.23743	-1.154489E-006	0.0026862	8
	1	1	794390.6	1962.192	-797.6201	1	2118.112	-22.12146	-4.790782E-007	0.0028104	8
	2	2	630984.4	2075.153	-785.3709	1	2218.799	-20.72985	-2.836503E-006	0.002931	8
	3	2	501234.4	2184.782	-777.2523	1	2318.921	-19.58339	3.049789E-006	0.0023372	8
	4	2	398109.4	2306.337	-770.5887	1	2431.665	-18.4754	5.138679E-007	0.0032605	8
	5	3	316265.6	2428.418	-755.782	1	2543.309	-17.2874	6.054064E-006	0.0021059	8
	6	3	251203.1	2550.998	-756.494	1	2660.803	-16.51763	1.678422E-006	0.0031015	8
	7	3	199546.9	2675.901	-719.9341	1	2771.056	-15.05849	-3.56674E-006	0.0033902	8
	8	3	158578.1	2790.856	-688.3608	1	2874.495	-13.85538	-2.588218E-006	0.0033564	8
	9	4	125953.1	2937.799	-608.4037	1	3000.136	-11.70028	2.571633E-006	0.0011548	7
	10	4	100078.1	3016.297	-551.398	1	3066.282	-10.35964	-9.680061E-007	0.0033299	7
	11	4	79453.13	3099.468	-505.0387	1	3140.345	-9.254652	-3.084193E-007	0.0020805	7
	12	5	63140.62	3163.781	-457.6115	1	3196.705	-8.230224	-1.118736E-006	0.0038327	7
	13	5	50203.12	3226.012	-415.5006	1	3252.659	-7.339119	3.948249E-007	0.0032159	7
	14	5	39890.62	3262.683	-374.4298	1	3284.097	-6.5467	-9.874557E-007	0.0042924	7
	15	6	31640.63	3306.223	-345.0538	1	3324.18	-5.958102	5.885184E-007	0.0029141	7
	16	6	25171.88	3333.514	-323.0302	1	3349.129	-5.534896	9.977899E-007	0.0017282	7
	17	6	20015.62	3346.579	-311.6553	1	3361.06	-5.320412	-6.920857E-007	0.0027041	7
	18	7	15890.62	3370.302	-311.7946	1	3384.693	-5.285524	6.41408E-008	0.0016049	7
	19	7	12609.37	3392.373	-323.5568	1	3407.768	-5.44826	8.6124E-007	0.0012601	7
	20	7	10078.13	3406.37	-342.3864	1	3423.534	-5.739725	9.979118E-007	0.0017244	7
	21	8	8015.625	3425.189	-381.5432	1	3446.374	-6.356164	-5.372318E-007	0.0042256	7
	22	8	6328.125	3445.636	-433.4487	1	3472.792	-7.169943	6.703202E-007	0.0012064	7
	23	8	5015.625	3466.101	-501.9078	1	3502.252	-8.239429	1.012177E-007	0.0036208	7
	24	9	3984.375	3482.906	-588.8851	1	3532.339	-9.59673	-1.121285E-006	0.0041511	7
	25	9	3170.956	3515.859	-701.541	1	3585.167	-11.28438	3.960172E-007	0.0032037	7
	26	9	2527.573	3535.989	-835.5121	1	3633.359	-13.29447	-1.118514E-006	0.0038198	7
	27	10	1976.103	3582.468	-1026.186	1	3726.545	-15.98418	9.970976E-007	0.0017191	7
	28	10	1577.524	3618.979	-1243.351	1	3826.608	-18.96088	-2.328904E-007	0.0039896	7
	29	10	1265.625	3662.109	-1492.462	1	3954.552	-22.17294	-3.094102E-007	0.0020625	7
	30	10	998.264	3723.937	-1836.722	1	4152.259	-26.25347	6.958162E-008	0.0015992	7
	31	11	796.875	3799	-2243.333	1	4411.91	-30.56212	8.640779E-007	0.0012627	7
	32	11	627.7902	3887.493	-2767.617	1	4772.034	-35.44815	-5.342819E-007	0.0042219	7
	33	11	505.5147	3991.507	-3354.634	1	5213.991	-40.04514	-5.349893E-007	0.0042222	7
	34	12	397.9953	4135.553	-4155.984	1	5863.02	-45.14118	3.494727E-009	0.002813	7
	35	12	315.5048	4313.482	-5117.183	1	6692.66	-49.87109	1.340103E-009	0.0028145	7
	36	12	252.4038	4532.218	-6248.335	1	7718.982	-54.04482	4.523422E-010	0.0028109	7
	37	13	198.6229	4837.355	-7741.511	1	9128.581	-58.00041	1.29836E-010	0.002811	7
	38	13	158.3615	5218.206	-9476.072	1	10817.84	-61.15966	1.0156E-009	0.0027466	6
	39	13	125.558	5721.092	-11644.57	1	12974.09	-63.83467	3.963418E-010	0.0027493	6
	40	14	100.4464	6372.159	-14178.91	1	15544.96	-65.80032	-1.568158E-010	0.0027404	6
	41	14	79.00281	7282.807	-17523.21	1	18976.36	-67.43179	-3.942033E-010	0.0027405	6
	42	14	63.3446	8250.41	-21083.7	1	22640.49	-68.62875	7.614562E-010	0.0027462	6
	43	15	49.86702	9873.17	-25882.79	1	27701.96	-69.1203	7.646264E-010	0.0027368	6
	44	15	39.72458	11958.57	-31459.74	1	33655.95	-69.18705	4.743551E-010	0.0027496	6
	45	15	31.6723	14642.86	-37894.25	1	40624.96	-68.87279	9.955183E-010	0.0027455	6
	46	16	24.93351	18177.81	-45812.6	1	49287.19	-68.3575	-1.344468E-009	0.002742	6
	47	16	19.86229	22514.03	-54631.11	1	59088.4	-67.60295	-2.036902E-009	0.0027402	6
	48	16	15.83615	28487.29	-65244.29	1	71192.3	-66.41271	3.756865E-009	0.0027421	6
	49	17	12.40079	35414.6	-76997.47	1	84751.43	-65.30017	-6.900824E-010	0.0027435	6
	50	17	9.93114	44084.76	-89477.63	1	99748.2	-63.77098	-7.165981E-010	0.0027426	6
	51	18	7.944915	54105.13	-103284.1	1	116597.5	-62.35232	9.818544E-010	0.002744	5
	52	18	6.317385	66082.74	-119330.9	1	136406.7	-61.0233	1.311931E-009	0.0027338	5
	53	19	5.008013	80672.63	-137185.2	1	159147.2	-59.54207	4.021184E-010	0.0027446	5
	54	20	3.945707	97109.9	-157273.2	1	184838.3	-58.30634	3.763872E-010	0.0027453	5
	55	21	3.158693	114565.5	-178084.6	1	211753.1	-57.24598	-2.672507E-010	0.0027365	5
	56	23	2.504006	134249.6	-201988.2	1	242532.9	-56.39036	9.442633E-011	0.0027337	5
	57	24	1.998082	154672.1	-228702.9	1	276095.1	-55.92945	2.936462E-010	0.0027693	5
	58	26	1.584686	176668.5	-259649.9	1	314053.9	-55.76822	5.728261E-011	0.0027266	5
	59	28	1.266892	200111	-295380.7	1	356783.1	-55.88362	-5.626214E-011	0.0027008	5
	60	30	0.999041	225635	-341559.6	1	409358.2	-56.55116	-9.742777E-011	0.0027001	5
