EXPLAIN
TAG	EISPOT
TITLE	LABEL	Potentiostatic IDE	Test &Identifier
DATE	LABEL	9/16/2019	Date
TIME	LABEL	8:59:24	Time
NOTES	NOTES	1	&Notes...
	
PSTAT	PSTAT	REF600-11020	Potentiostat
VDC	POTEN	0.00000E+000	T	DC &Voltage (V)
FREQINIT	QUANT	1.00000E+006	Initial Fre&q. (Hz)
FREQFINAL	QUANT	1.00000E+000	Final Fre&q. (Hz)
PTSPERDEC	QUANT	1.00000E+001	Points/&decade
VAC	QUANT	2.50000E+001	AC &Voltage (mV rms)
AREA	QUANT	1.00000E-002	&Area (cm^2)
CONDIT	TWOPARAM	T	5.00000E+000	0.00000E+000	Conditionin&g	Time(s)	E(V)
DELAY	TWOPARAM	T	5.00000E+000	0.00000E+000	Init. De&lay	Time(s)	Stab.(mV/s)
SPEED	SELECTOR	1	&Optimize for:
ZGUESS	QUANT	1.00000E+007	E&stimated Z (ohms)
OCVCURVE	TABLE	18
	Pt	T	Vf	Vm	Ach	Over
	#	s	V vs. Ref.	V	V	bits
	0	0.258333	2.92428E-003	2.92428E-003	5.68332E-004	...........
	1	0.516667	2.92092E-003	2.74826E-003	5.69399E-004	...........
	2	0.775	2.90068E-003	2.60277E-003	5.67699E-004	...........
	3	1.03333	2.84072E-003	2.25085E-003	5.72599E-004	...........
	4	1.29167	2.72018E-003	2.00752E-003	5.69499E-004	...........
	5	1.55	2.53490E-003	1.80916E-003	5.69432E-004	...........
	6	1.80833	2.30811E-003	1.72011E-003	5.72699E-004	...........
	7	2.06667	2.08216E-003	1.63266E-003	5.73466E-004	...........
	8	2.325	1.89013E-003	1.42924E-003	5.68666E-004	...........
	9	2.58333	1.73428E-003	1.31358E-003	5.69166E-004	...........
	10	2.84167	1.59592E-003	1.18965E-003	5.71799E-004	...........
	11	3.1	1.46285E-003	1.14222E-003	5.68899E-004	...........
	12	3.35833	1.33869E-003	1.04186E-003	5.66266E-004	...........
	13	3.61667	1.22876E-003	8.87197E-004	5.75666E-004	...........
	14	3.875	1.12693E-003	7.82493E-004	5.75832E-004	...........
	15	4.13333	1.02156E-003	6.57510E-004	5.75066E-004	...........
	16	4.39167	9.06684E-004	4.63074E-004	5.72032E-004	...........
	17	4.65	7.82552E-004	4.51402E-004	5.70999E-004	...........
EOC	QUANT	0.0006585	Open Circuit (V)
PSTATMODEL	IQUANT	4	Pstat Model
PSTATSECTION	LABEL	REF600-11020	Pstat Section
PSTATSERIALNO	LABEL	11020	Pstat Serial Number
CTRLMODE	IQUANT	1	Control Mode
IESTAB	IQUANT	0	I/E Stability
CASPEED	IQUANT	1	Control Amp Speed
CONVENTION	IQUANT	1	Current Convention
ICHRANGE	IQUANT	2	Ich Range
ICHRANGEMODE	TOGGLE	F	Ich Auto Range
ICHOFFSETENABLE	TOGGLE	T	Ich Offset Enable
ICHOFFSET	QUANT	0	Ich Offset (V)
ICHFILTER	IQUANT	3	Ich Filter
VCHRANGE	IQUANT	2	Vch Range
VCHRANGEMODE	TOGGLE	F	Vch Auto Range
VCHOFFSETENABLE	TOGGLE	T	Vch Offset Enable
VCHOFFSET	QUANT	0	Vch Offset (V)
VCHFILTER	IQUANT	3	Vch Filter
ACHRANGE	IQUANT	2	Ach Range
ACHOFFSETENABLE	TOGGLE	F	Ach Offset Enable
ACHOFFSET	QUANT	0	Ach Offset (V)
ACHFILTER	IQUANT	3	Ach Filter
IERANGELOWERLIMIT	IQUANT	1	I/E Range Lower Limit
IERANGEMODE	TOGGLE	F	I/E AutoRange
IERANGE	IQUANT	2	I/E Range
POSFEEDENABLE	TOGGLE	F	Positive Feedback IR Comp
POSFEEDRESISTANCE	QUANT	0	Positive Feedback Resistance (ohm)
ACHSELECT	IQUANT	0	Ach Select
CABLEID	IQUANT	14	Cable ID
DCCALDATE	LABEL	8/19/2019	DC Calibration Date
ACCALDATE	LABEL	8/19/2019	AC Calibration Date
THERMOSELECT	IQUANT	1	Thermo Select
FRAMEWORKVERSION	QUANT	6.33	Framework Version
INSTRUMENTVERSION	LABEL	3.50	Instrument Version
ZCURVE	TABLE
	Pt	Time	Freq	Zreal	Zimag	Zsig	Zmod	Zphz	Idc	Vdc	IERange
	#	s	Hz	ohm	ohm	V	ohm	°	A	V	#
	0	3	1000078	2442.875	-1880.061	1	3082.575	-37.58225	1.154865E-006	0.0022403	8
	1	4	794390.6	2815.205	-1812.366	1	3348.142	-32.77253	-2.511543E-007	0.0025618	8
	2	5	630984.4	3169.086	-1723.754	1	3607.552	-28.543	2.472909E-006	0.0021066	8
	3	7	501234.4	3483.94	-1555.299	1	3815.337	-24.05692	-2.387422E-006	0.0028734	8
	4	8	398109.4	3730.95	-1390.738	1	3981.726	-20.4433	7.303548E-007	0.0022654	8
	5	10	316265.6	3913.039	-1239.234	1	4104.579	-17.57265	2.73054E-006	0.0018642	8
	6	11	251203.1	4062.332	-1064.976	1	4199.608	-14.69002	-9.84507E-007	0.0025818	8
	7	13	199546.9	4188.04	-896.1929	1	4282.854	-12.07848	-1.678126E-007	0.0026654	8
	8	14	158578.1	4262.215	-781.9396	1	4333.349	-10.39579	2.008128E-006	0.0019993	8
	9	16	125953.1	4374.287	-644.4662	1	4421.506	-8.381126	-1.05499E-006	0.004849	7
	10	17	100078.1	4402.175	-564.6513	1	4438.24	-7.309216	3.318656E-008	0.0023287	7
	11	18	79453.13	4445.053	-513.6318	1	4474.63	-6.591371	-2.218037E-008	0.002501	7
	12	20	63140.62	4484.208	-477.3127	1	4509.539	-6.075859	-4.285504E-008	0.0023837	7
	13	21	50203.12	4520.25	-453.6694	1	4542.959	-5.731229	2.039574E-008	0.0022636	7
	14	22	39890.62	4561.278	-446.3988	1	4583.07	-5.589568	8.588278E-008	0.0021669	7
	15	24	31640.63	4590.748	-442.8967	1	4612.063	-5.510609	-7.303354E-009	0.0023828	7
	16	25	25171.88	4625.899	-454.6239	1	4648.186	-5.612887	-8.825438E-009	0.0023846	7
	17	26	20015.62	4661.302	-479.7109	1	4685.921	-5.875823	4.615236E-008	0.0022051	7
	18	28	15890.62	4704.502	-516.9092	1	4732.815	-6.270247	-3.243958E-008	0.002351	7
	19	29	12609.37	4743.988	-566.9091	1	4777.741	-6.81456	7.498132E-008	0.002212	7
	20	30	10078.13	4789.165	-627.7028	1	4830.125	-7.467038	8.774396E-008	0.0021729	7
	21	32	8015.625	4836.524	-711.725	1	4888.611	-8.371353	-7.750273E-009	0.0023793	7
	22	33	6328.125	4892.447	-815.4564	1	4959.94	-9.462874	3.555562E-008	0.0023154	7
	23	34	5015.625	4951.098	-944.0156	1	5040.291	-10.7949	3.444765E-008	0.0023161	7
	24	36	3984.375	5014.498	-1099.434	1	5133.609	-12.36648	7.502349E-008	0.0023224	7
	25	37	3170.956	5087.644	-1289.055	1	5248.408	-14.21782	3.77309E-008	0.0022994	7
	26	38	2527.573	5168.687	-1518.871	1	5387.234	-16.37596	-2.682007E-008	0.0023266	7
	27	40	1976.103	5266.201	-1821.009	1	5572.158	-19.07496	3.961237E-010	0.0022766	7
	28	41	1577.524	5371.839	-2169.334	1	5793.329	-21.99056	-5.075301E-008	0.0023853	7
	29	42	1265.625	5487.816	-2568.832	1	6059.292	-25.08417	-3.091439E-008	0.0023941	7
	30	44	998.264	5626.559	-3102.67	1	6425.319	-28.87379	-4.722998E-008	0.0024035	7
	31	45	796.875	5779.817	-3724.41	1	6875.865	-32.797	-1.675779E-008	0.0023584	7
	32	46	627.7902	5961.982	-4523.539	1	7483.825	-37.18871	4.202629E-008	0.0022827	7
	33	48	505.5147	6150.557	-5417.716	1	8196.401	-41.3752	1.140575E-008	0.0022812	7
	34	49	397.9953	6391.679	-6631.91	1	9210.634	-46.05675	5.454414E-009	0.0023642	7
	35	50	315.5048	6665.399	-8092.016	1	10483.71	-50.52169	6.027996E-010	0.002304	6
	36	52	252.4038	6969.065	-9823.05	1	12044.1	-54.64582	1.583101E-009	0.0022944	6
	37	53	198.6229	7362.128	-12126.83	1	14186.65	-58.73831	1.385256E-009	0.0022999	6
	38	54	158.3615	7818.027	-14825.95	1	16760.98	-62.1964	1.600549E-009	0.0022934	6
	39	56	125.558	8398.343	-18249.31	1	20089.04	-65.28809	1.273022E-009	0.0022938	6
	40	57	100.4464	9098.023	-22286.64	1	24072.15	-67.79336	6.18932E-010	0.002294	6
	41	58	79.00281	10069.85	-27734.03	1	29505.56	-70.04472	7.501718E-010	0.0022944	6
	42	60	63.3446	11386.07	-33532.83	1	35413.18	-71.24508	1.267113E-009	0.0022905	6
	43	61	49.86702	12995.17	-42135.3	1	44093.74	-72.85944	1.532304E-009	0.002296	6
	44	63	39.72458	15130.59	-51322.79	1	53506.66	-73.57383	1.199253E-009	0.0022973	6
	45	64	31.6723	17824.32	-62968.82	1	65442.94	-74.19499	1.429056E-009	0.0022966	6
	46	65	24.93351	21883.84	-77535.13	1	80564.25	-74.23859	1.003029E-009	0.0022886	6
	47	67	19.86229	27032.93	-94369.09	1	98164.7	-74.01514	1.332923E-009	0.002292	6
	48	68	15.83615	34640.51	-114971.7	1	120076.9	-73.23266	2.258933E-009	0.0022856	5
	49	69	12.40079	44212.74	-141316.6	1	148071.4	-72.62703	-2.709833E-010	0.0022955	5
	50	71	9.93114	54606.8	-169141.4	1	177737.8	-72.10748	3.824125E-010	0.0022939	5
	51	72	7.944915	69339.79	-202871	1	214393.6	-71.12995	7.546495E-010	0.0022881	5
	52	74	6.317385	88870.87	-241279.1	1	257125.7	-69.77962	2.088296E-010	0.0022992	5
	53	76	5.008013	114374.1	-287659.4	1	309563.2	-68.31711	3.119127E-010	0.0022978	5
	54	78	3.945707	147074.4	-341409.1	1	371740.6	-66.69427	3.373001E-010	0.0022951	5
	55	81	3.158693	184574.3	-398153.6	1	438855.3	-65.12871	4.991361E-010	0.0023135	5
	56	84	2.504006	233399.6	-465124.1	1	520399.7	-63.35247	-1.442045E-011	0.0022967	5
	57	87	1.998082	290052.9	-533922.5	1	607621.5	-61.48702	4.165016E-010	0.0022551	5
	58	90	1.584686	357971.1	-613591.2	1	710378.4	-59.74057	1.156751E-010	0.0022851	5
	59	94	1.266892	436071.4	-693058.9	1	818833.9	-57.82198	4.043717E-010	0.0022573	5
	60	98	0.999041	529512.9	-785884.4	1	947627.7	-56.02872	1.161935E-010	0.0023307	5
