EXPLAIN
TAG	EISPOT
TITLE	LABEL	Potentiostatic EIS	Test &Identifier
DATE	LABEL	10/4/2019	Date
TIME	LABEL	9:26:25	Time
NOTES	NOTES	2	&Notes...
	
	
PSTAT	PSTAT	REF600-11020	Potentiostat
VDC	POTEN	0.00000E+000	T	DC &Voltage (V)
FREQINIT	QUANT	1.00000E+006	Initial Fre&q. (Hz)
FREQFINAL	QUANT	1.00000E+000	Final Fre&q. (Hz)
PTSPERDEC	QUANT	1.00000E+001	Points/&decade
VAC	QUANT	2.50000E+001	AC &Voltage (mV rms)
AREA	QUANT	1.00000E-002	&Area (cm^2)
CONDIT	TWOPARAM	T	5.00000E+000	0.00000E+000	Conditionin&g	Time(s)	E(V)
DELAY	TWOPARAM	T	5.00000E+000	0.00000E+000	Init. De&lay	Time(s)	Stab.(mV/s)
SPEED	SELECTOR	1	&Optimize for:
ZGUESS	QUANT	1.00000E+004	E&stimated Z (ohms)
OCVCURVE	TABLE	19
	Pt	T	Vf	Vm	Ach	Over
	#	s	V vs. Ref.	V	V	bits
	0	0.258333	5.39720E-003	5.39720E-003	5.43266E-004	...........
	1	0.516667	5.39477E-003	5.27013E-003	5.46999E-004	...........
	2	0.775	5.38016E-003	5.16502E-003	5.46233E-004	...........
	3	1.03333	5.34012E-003	5.08130E-003	5.38433E-004	...........
	4	1.29167	5.27195E-003	5.00882E-003	5.34966E-004	...........
	5	1.55	5.18752E-003	4.94749E-003	5.42333E-004	...........
	6	1.80833	5.10211E-003	4.88970E-003	5.45266E-004	...........
	7	2.06667	5.02480E-003	4.84642E-003	5.47433E-004	...........
	8	2.325	4.95819E-003	4.80626E-003	5.35799E-004	...........
	9	2.58333	4.90173E-003	4.77305E-003	5.37566E-004	...........
	10	2.84167	4.85382E-003	4.73449E-003	5.43999E-004	...........
	11	3.1	4.81229E-003	4.70715E-003	5.47866E-004	...........
	12	3.35833	4.77522E-003	4.68079E-003	5.47199E-004	...........
	13	3.61667	4.74176E-003	4.65935E-003	5.45099E-004	...........
	14	3.875	4.71177E-003	4.63245E-003	5.43566E-004	...........
	15	4.13333	4.68478E-003	4.61197E-003	5.37599E-004	...........
	16	4.39167	4.65989E-003	4.59179E-003	5.33766E-004	...........
	17	4.65	4.63660E-003	4.57512E-003	5.41966E-004	...........
	18	4.90833	4.61501E-003	4.56016E-003	5.47833E-004	...........
EOC	QUANT	0.004615	Open Circuit (V)
PSTATMODEL	IQUANT	4	Pstat Model
PSTATSECTION	LABEL	REF600-11020	Pstat Section
PSTATSERIALNO	LABEL	11020	Pstat Serial Number
CTRLMODE	IQUANT	1	Control Mode
IESTAB	IQUANT	0	I/E Stability
CASPEED	IQUANT	1	Control Amp Speed
CONVENTION	IQUANT	1	Current Convention
ICHRANGE	IQUANT	2	Ich Range
ICHRANGEMODE	TOGGLE	F	Ich Auto Range
ICHOFFSETENABLE	TOGGLE	T	Ich Offset Enable
ICHOFFSET	QUANT	0	Ich Offset (V)
ICHFILTER	IQUANT	3	Ich Filter
VCHRANGE	IQUANT	2	Vch Range
VCHRANGEMODE	TOGGLE	F	Vch Auto Range
VCHOFFSETENABLE	TOGGLE	T	Vch Offset Enable
VCHOFFSET	QUANT	0	Vch Offset (V)
VCHFILTER	IQUANT	3	Vch Filter
ACHRANGE	IQUANT	2	Ach Range
ACHOFFSETENABLE	TOGGLE	F	Ach Offset Enable
ACHOFFSET	QUANT	0	Ach Offset (V)
ACHFILTER	IQUANT	3	Ach Filter
IERANGELOWERLIMIT	IQUANT	1	I/E Range Lower Limit
IERANGEMODE	TOGGLE	F	I/E AutoRange
IERANGE	IQUANT	5	I/E Range
POSFEEDENABLE	TOGGLE	F	Positive Feedback IR Comp
POSFEEDRESISTANCE	QUANT	0	Positive Feedback Resistance (ohm)
ACHSELECT	IQUANT	0	Ach Select
CABLEID	IQUANT	14	Cable ID
DCCALDATE	LABEL	8/19/2019	DC Calibration Date
ACCALDATE	LABEL	8/19/2019	AC Calibration Date
THERMOSELECT	IQUANT	1	Thermo Select
FRAMEWORKVERSION	QUANT	6.33	Framework Version
INSTRUMENTVERSION	LABEL	3.50	Instrument Version
ZCURVE	TABLE
	Pt	Time	Freq	Zreal	Zimag	Zsig	Zmod	Zphz	Idc	Vdc	IERange
	#	s	Hz	ohm	ohm	V	ohm	°	A	V	#
	0	2	1000078	2566.722	-1498.395	1	2972.078	-30.27544	-5.884639E-006	0.0072352	8
	1	3	794390.6	2842.52	-1380.957	1	3160.216	-25.91148	-8.231933E-007	0.0069276	8
	2	5	630984.4	3072.697	-1257.536	1	3320.07	-22.25739	-2.426696E-006	0.0069338	8
	3	6	501234.4	3263.538	-1097.876	1	3443.256	-18.59328	-7.522372E-007	0.0060951	8
	4	7	398109.4	3392.294	-962.209	1	3526.118	-15.83574	1.473426E-006	0.0059652	8
	5	9	316265.6	3521.044	-823.9951	1	3616.174	-13.17134	3.844388E-006	0.0054053	8
	6	10	251203.1	3605.208	-709.2024	1	3674.302	-11.1289	1.148902E-006	0.0059619	8
	7	12	199546.9	3652.975	-628.276	1	3706.61	-9.75884	-2.268497E-006	0.0065339	8
	8	13	158578.1	3724.945	-556.6473	1	3766.307	-8.499255	-2.102766E-006	0.0066738	8
	9	14	125953.1	3784.091	-454.5971	1	3811.299	-6.850329	1.491704E-006	0.0029429	7
	10	16	100078.1	3806.027	-420.303	1	3829.164	-6.301692	-9.137967E-009	0.0060443	7
	11	17	79453.13	3839.846	-403.0048	1	3860.937	-5.99145	-9.388008E-009	0.0060324	7
	12	18	63140.62	3874.149	-397.314	1	3894.469	-5.855507	-6.962667E-009	0.0060635	7
	13	20	50203.12	3908.599	-400.0045	1	3929.014	-5.843285	1.896585E-008	0.0059616	7
	14	21	39890.62	3945.234	-411.4734	1	3966.634	-5.954213	4.483968E-008	0.0060054	7
	15	23	31640.63	3985.478	-433.0237	1	4008.933	-6.200885	4.40302E-008	0.0060067	7
	16	24	25171.88	4028.134	-462.7333	1	4054.625	-6.553148	1.238974E-007	0.0058637	7
	17	25	20015.62	4082.268	-500.5956	1	4112.846	-6.991098	-4.335356E-008	0.006058	7
	18	27	15890.62	4128.091	-547.7108	1	4164.267	-7.557802	8.800026E-008	0.0058742	7
	19	28	12609.37	4182.794	-607.5785	1	4226.691	-8.264786	2.052389E-008	0.0059539	7
	20	29	10078.13	4240.773	-672.9087	1	4293.829	-9.016292	-1.366049E-008	0.0061009	7
	21	31	8015.625	4306.797	-752.4312	1	4372.031	-9.91	1.500281E-008	0.0061361	7
	22	32	6328.125	4376.521	-853.4764	1	4458.963	-11.0349	4.479439E-008	0.0059937	7
	23	33	5015.625	4450.69	-972.636	1	4555.729	-12.32739	-2.030762E-009	0.0059751	7
	24	35	3984.375	4527.97	-1113.68	1	4662.917	-13.81794	1.077045E-007	0.005935	7
	25	36	3170.956	4609.641	-1288.264	1	4786.273	-15.61417	7.300181E-009	0.0060067	7
	26	38	2527.573	4697.189	-1496.305	1	4929.758	-17.66945	-5.99543E-008	0.0061185	7
	27	39	1976.103	4802.315	-1776.639	1	5120.418	-20.30219	-1.521328E-009	0.0059771	7
	28	40	1577.524	4907.189	-2096.14	1	5336.133	-23.13009	-1.272828E-009	0.0059745	7
	29	42	1265.625	5020.506	-2473.539	1	5596.774	-26.22888	5.567556E-008	0.0059461	7
	30	43	998.264	5162.175	-2975.003	1	5958.078	-29.95519	-5.321985E-008	0.006146	7
	31	44	796.875	5312.893	-3557.665	1	6394.045	-33.80739	-6.454883E-008	0.0061545	7
	32	46	627.7902	5498.566	-4314.917	1	6989.473	-38.12251	4.461709E-008	0.0059887	7
	33	47	505.5147	5691.91	-5143.159	1	7671.37	-42.10069	-8.495319E-008	0.0061489	7
	34	48	397.9953	5939.213	-6297.253	1	8656.191	-46.676	4.755015E-009	0.0060628	7
	35	50	315.5048	6222.941	-7665.863	1	9873.73	-50.93124	4.649147E-009	0.0060589	7
	36	51	252.4038	6547.257	-9282.151	1	11358.91	-54.80239	3.475833E-010	0.0059945	6
	37	53	198.6229	6964.556	-11424.19	1	13379.73	-58.63216	1.159258E-009	0.0059975	6
	38	54	158.3615	7446.635	-13929.92	1	15795.41	-61.872	5.5466E-010	0.0060004	6
	39	55	125.558	8065.261	-17089.34	1	18896.93	-64.73518	6.764211E-010	0.006001	6
	40	57	100.4464	8816.459	-20826.14	1	22615.44	-67.0553	1.297588E-009	0.0059974	6
	41	58	79.00281	9846.53	-25724.97	1	27545.03	-69.05507	5.683803E-010	0.0059991	6
	42	59	63.3446	11083.35	-31146.4	1	33059.62	-70.41206	3.663772E-010	0.0059987	6
	43	61	49.86702	12876.9	-38824.07	1	40903.82	-71.65071	2.223739E-010	0.0059908	6
	44	62	39.72458	15010.03	-47272.94	1	49598.71	-72.3844	1.160381E-009	0.0059968	6
	45	64	31.6723	17817.71	-57575.39	1	60269.36	-72.80441	7.227157E-010	0.0059979	6
	46	65	24.93351	21826.58	-70693.4	1	73986.19	-72.84193	4.149532E-010	0.005993	6
	47	66	19.86229	26802.18	-85647.59	1	89743.34	-72.62325	4.939888E-010	0.0059896	6
	48	68	15.83615	33735.32	-103700.6	1	109049.9	-71.97954	1.283663E-009	0.0059985	5
	49	69	12.40079	42324.49	-126324.6	1	133226.4	-71.47681	9.332299E-010	0.0059986	5
	50	71	9.93114	52908.18	-151067	1	160064.1	-70.69823	6.675933E-010	0.0059979	5
	51	72	7.944915	66514.71	-179744.6	1	191656.8	-69.69295	-5.209459E-011	0.0059987	5
	52	74	6.317385	83881.23	-213942.6	1	229798.8	-68.59117	6.214684E-010	0.006007	5
	53	76	5.008013	106260.4	-253972.5	1	275305.8	-67.29589	5.094336E-010	0.0060108	5
	54	78	3.945707	135232.2	-300868.4	1	329862.9	-65.79738	1.777598E-010	0.0060003	5
	55	81	3.158693	168372.8	-349672.1	1	388097.9	-64.28843	2.223169E-010	0.0060168	5
	56	84	2.504006	209853.4	-406734.3	1	457680.3	-62.70866	2.548078E-010	0.0059965	5
	57	87	1.998082	256786.4	-467060.1	1	532995.7	-61.1983	-5.220763E-011	0.0060307	5
	58	90	1.584686	312734.6	-536519.5	1	621012.2	-59.7623	2.62497E-010	0.0060337	5
	59	94	1.266892	374641.9	-608070.8	1	714217.5	-58.36213	-3.14755E-011	0.0060362	5
	60	98	0.999041	446326.2	-693267.3	1	824516	-57.22652	2.223048E-010	0.0059756	5
