EXPLAIN
TAG	EISPOT
TITLE	LABEL	Potentiostatic EIS	Test &Identifier
DATE	LABEL	10/22/2019	Date
TIME	LABEL	8:35:18	Time
NOTES	NOTES	1	&Notes...
	
PSTAT	PSTAT	REF600-11020	Potentiostat
VDC	POTEN	0.00000E+000	T	DC &Voltage (V)
FREQINIT	QUANT	1.00000E+006	Initial Fre&q. (Hz)
FREQFINAL	QUANT	1.00000E+000	Final Fre&q. (Hz)
PTSPERDEC	QUANT	1.00000E+001	Points/&decade
VAC	QUANT	2.50000E+001	AC &Voltage (mV rms)
AREA	QUANT	1.00000E-002	&Area (cm^2)
CONDIT	TWOPARAM	T	5.00000E+000	0.00000E+000	Conditionin&g	Time(s)	E(V)
DELAY	TWOPARAM	T	5.00000E+000	0.00000E+000	Init. De&lay	Time(s)	Stab.(mV/s)
SPEED	SELECTOR	1	&Optimize for:
ZGUESS	QUANT	1.00000E+005	E&stimated Z (ohms)
OCVCURVE	TABLE	19
	Pt	T	Vf	Vm	Ach	Over
	#	s	V vs. Ref.	V	V	bits
	0	0.258333	1.56048E-002	1.56048E-002	5.47866E-004	...........
	1	0.516667	1.56064E-002	1.56914E-002	5.54366E-004	...........
	2	0.775	1.56197E-002	1.59379E-002	5.57566E-004	...........
	3	1.03333	1.56698E-002	1.62776E-002	5.44966E-004	...........
	4	1.29167	1.57884E-002	1.66210E-002	5.48499E-004	...........
	5	1.55	1.59915E-002	1.69458E-002	5.51999E-004	...........
	6	1.80833	1.62669E-002	1.73347E-002	5.49499E-004	...........
	7	2.06667	1.65901E-002	1.77446E-002	5.51266E-004	...........
	8	2.325	1.69415E-002	1.80202E-002	5.50799E-004	...........
	9	2.58333	1.73048E-002	1.83941E-002	5.50299E-004	...........
	10	2.84167	1.76644E-002	1.86995E-002	5.48766E-004	...........
	11	3.1	1.80115E-002	1.89807E-002	5.48166E-004	...........
	12	3.35833	1.83400E-002	1.91186E-002	5.56933E-004	...........
	13	3.61667	1.86382E-002	1.93382E-002	5.53433E-004	...........
	14	3.875	1.88977E-002	1.95993E-002	5.52932E-004	...........
	15	4.13333	1.91285E-002	1.98427E-002	5.55599E-004	...........
	16	4.39167	1.93514E-002	2.00323E-002	5.53333E-004	...........
	17	4.65	1.95770E-002	2.02742E-002	5.56999E-004	...........
	18	4.90833	1.98033E-002	2.04801E-002	5.52666E-004	...........
EOC	QUANT	0.0198033	Open Circuit (V)
PSTATMODEL	IQUANT	4	Pstat Model
PSTATSECTION	LABEL	REF600-11020	Pstat Section
PSTATSERIALNO	LABEL	11020	Pstat Serial Number
CTRLMODE	IQUANT	1	Control Mode
IESTAB	IQUANT	0	I/E Stability
CASPEED	IQUANT	1	Control Amp Speed
CONVENTION	IQUANT	1	Current Convention
ICHRANGE	IQUANT	2	Ich Range
ICHRANGEMODE	TOGGLE	F	Ich Auto Range
ICHOFFSETENABLE	TOGGLE	T	Ich Offset Enable
ICHOFFSET	QUANT	0	Ich Offset (V)
ICHFILTER	IQUANT	3	Ich Filter
VCHRANGE	IQUANT	2	Vch Range
VCHRANGEMODE	TOGGLE	F	Vch Auto Range
VCHOFFSETENABLE	TOGGLE	T	Vch Offset Enable
VCHOFFSET	QUANT	0	Vch Offset (V)
VCHFILTER	IQUANT	3	Vch Filter
ACHRANGE	IQUANT	2	Ach Range
ACHOFFSETENABLE	TOGGLE	F	Ach Offset Enable
ACHOFFSET	QUANT	0	Ach Offset (V)
ACHFILTER	IQUANT	3	Ach Filter
IERANGELOWERLIMIT	IQUANT	1	I/E Range Lower Limit
IERANGEMODE	TOGGLE	F	I/E AutoRange
IERANGE	IQUANT	5	I/E Range
POSFEEDENABLE	TOGGLE	F	Positive Feedback IR Comp
POSFEEDRESISTANCE	QUANT	0	Positive Feedback Resistance (ohm)
ACHSELECT	IQUANT	0	Ach Select
CABLEID	IQUANT	14	Cable ID
DCCALDATE	LABEL	8/19/2019	DC Calibration Date
ACCALDATE	LABEL	8/19/2019	AC Calibration Date
THERMOSELECT	IQUANT	1	Thermo Select
FRAMEWORKVERSION	QUANT	6.33	Framework Version
INSTRUMENTVERSION	LABEL	3.50	Instrument Version
ZCURVE	TABLE
	Pt	Time	Freq	Zreal	Zimag	Zsig	Zmod	Zphz	Idc	Vdc	IERange
	#	s	Hz	ohm	ohm	V	ohm	°	A	V	#
	0	2	1000078	2564.21	-1446.615	1	2944.124	-29.42979	3.718398E-006	0.0210386	8
	1	3	794390.6	2832.073	-1342.487	1	3134.151	-25.36234	-4.996153E-006	0.0223597	8
	2	5	630984.4	3048.206	-1224.998	1	3285.146	-21.89396	-2.228963E-006	0.0222206	8
	3	6	501234.4	3235.908	-1060.158	1	3405.149	-18.13998	3.169708E-006	0.0207892	8
	4	7	398109.4	3358.3	-940.4108	1	3487.485	-15.64362	4.974391E-007	0.0211137	8
	5	9	316265.6	3464.695	-813.0806	1	3558.822	-13.20696	3.782925E-006	0.0206196	8
	6	10	251203.1	3548.063	-699.7982	1	3616.416	-11.15746	-2.933432E-006	0.0219497	8
	7	11	199546.9	3610.54	-613.299	1	3662.258	-9.64045	5.815363E-008	0.021418	8
	8	13	158578.1	3665.646	-544.0304	1	3705.797	-8.44183	2.528318E-006	0.0207924	8
	9	14	125953.1	3726.53	-448.8038	1	3753.458	-6.86733	-6.375403E-007	0.0230683	7
	10	15	100078.1	3754.872	-409.9981	1	3777.189	-6.231494	-1.42527E-008	0.0214414	7
	11	17	79453.13	3787.809	-398.0189	1	3808.663	-5.998567	-1.51638E-008	0.0212724	7
	12	18	63140.62	3821.571	-394.7759	1	3841.907	-5.897849	-2.04192E-008	0.0213491	7
	13	20	50203.12	3857.232	-400.1461	1	3877.932	-5.922633	-3.206923E-008	0.0213052	7
	14	21	39890.62	3894.322	-414.6935	1	3916.339	-6.078332	-3.120504E-008	0.0213035	7
	15	22	31640.63	3935.982	-439.2871	1	3960.42	-6.368313	-1.707503E-008	0.0212624	7
	16	24	25171.88	3979.951	-472.2779	1	4007.875	-6.767315	-6.150072E-009	0.0213266	7
	17	25	20015.62	4034.252	-510.3651	1	4066.407	-7.210072	7.736133E-008	0.0211247	7
	18	26	15890.62	4082.188	-564.7872	1	4121.073	-7.877096	-1.814231E-008	0.0213381	7
	19	28	12609.37	4141.509	-626.6608	1	4188.652	-8.60428	-7.757072E-008	0.0214143	7
	20	29	10078.13	4202.818	-695.6816	1	4260.006	-9.398799	-3.346472E-008	0.021313	7
	21	31	8015.625	4277.229	-773.326	1	4346.575	-10.24841	-1.470279E-008	0.0212537	7
	22	32	6328.125	4348.864	-885.2342	1	4438.047	-11.50566	-3.868263E-008	0.0213021	7
	23	33	5015.625	4430.572	-1006.714	1	4543.505	-12.80139	-7.766762E-008	0.0214156	7
	24	35	3984.375	4504.751	-1151.275	1	4649.54	-14.33616	-7.622367E-008	0.0214141	7
	25	36	3170.956	4603.427	-1327.628	1	4791.047	-16.08755	-2.422986E-009	0.0212852	7
	26	37	2527.573	4698.592	-1538.915	1	4944.191	-18.13501	-1.351513E-008	0.0214196	7
	27	39	1976.103	4808.905	-1819.472	1	5141.6	-20.72437	7.846771E-008	0.0211148	7
	28	40	1577.524	4930.424	-2143.073	1	5376.043	-23.4928	-4.621804E-008	0.0213118	7
	29	42	1265.625	5045.125	-2515.228	1	5637.345	-26.49837	3.977494E-008	0.0211471	7
	30	43	998.264	5192.851	-3017.448	1	6005.888	-30.1599	-5.133427E-009	0.0213196	7
	31	44	796.875	5348.135	-3602.042	1	6448.042	-33.9608	8.672991E-008	0.021222	7
	32	46	627.7902	5540.228	-4357.418	1	7048.49	-38.18524	-1.345175E-008	0.0212467	7
	33	47	505.5147	5742.386	-5203.434	1	7749.24	-42.18114	6.01038E-008	0.0211727	7
	34	48	397.9953	5992.416	-6345.004	1	8727.435	-46.637	4.35999E-009	0.0213019	7
	35	50	315.5048	6282.372	-7714.353	1	9948.84	-50.84151	9.976932E-010	0.0212445	6
	36	51	252.4038	6604.905	-9335.24	1	11435.54	-54.71968	1.052354E-009	0.0212446	6
	37	53	198.6229	7017.831	-11486.67	1	13460.82	-58.57698	8.945812E-010	0.0212408	6
	38	54	158.3615	7494.554	-14004.45	1	15883.74	-61.84631	9.085055E-010	0.0212366	6
	39	55	125.558	8106.488	-17183.11	1	18999.32	-64.74343	4.467031E-010	0.021238	6
	40	57	100.4464	8860.866	-20928.61	1	22727.11	-67.05291	7.891177E-011	0.0212368	6
	41	58	79.00281	9899.05	-25895.03	1	27722.62	-69.07934	8.889896E-010	0.0212417	6
	42	59	63.3446	11170.8	-31780.86	1	33686.94	-70.63371	6.504701E-010	0.0212408	6
	43	61	49.86702	12701.93	-38805.64	1	40831.57	-71.8756	6.89617E-010	0.021238	6
	44	62	39.72458	14917.89	-47598.09	1	49881.07	-72.5983	5.538616E-010	0.0212387	6
	45	64	31.6723	17750.88	-57876.58	1	60537.53	-72.9491	9.135873E-010	0.0212447	6
	46	65	24.93351	21660.3	-71376.63	1	74590.84	-73.1188	2.63372E-010	0.02124	6
	47	66	19.86229	26623.11	-86604.98	1	90604.71	-72.91212	2.081697E-010	0.0212461	6
	48	68	15.83615	32288.32	-105451.9	1	110284.4	-72.97594	-1.488469E-009	0.0212459	5
	49	69	12.40079	42612.67	-127542.7	1	134473	-71.52526	1.273841E-009	0.0212418	5
	50	71	9.93114	52528.06	-153409.5	1	162153.2	-71.09857	2.569136E-010	0.0212424	5
	51	72	7.944915	66012.23	-182680	1	194241	-70.13245	2.718296E-010	0.0212377	5
	52	74	6.317385	83975.66	-217702.7	1	233337.5	-68.90661	4.41462E-010	0.0212495	5
	53	76	5.008013	107043.8	-258761.7	1	280028.5	-67.52624	2.51589E-010	0.0212536	5
	54	78	3.945707	136662.4	-307049.7	1	336089.4	-66.007	-5.083766E-011	0.0212424	5
	55	81	3.158693	170602.5	-357022	1	395689.2	-64.45925	-1.444045E-013	0.0212565	5
	56	84	2.504006	213339.9	-415392.8	1	466974.4	-62.8156	1.002939E-010	0.0212367	5
	57	87	1.998082	261712.8	-477111.9	1	544177.7	-61.25367	-2.942337E-010	0.0212694	5
	58	90	1.584686	320853.4	-547462.1	1	634556.3	-59.62653	-1.826813E-011	0.0212933	5
	59	94	1.266892	384164.9	-621245.1	1	730430.1	-58.26822	-2.92434E-010	0.0212692	5
	60	98	0.999041	458446	-706904.4	1	842547.6	-57.03553	1.588725E-010	0.0212445	5
