EXPLAIN
TAG	EISPOT
TITLE	LABEL	Potentiostatic EIS	Test &Identifier
DATE	LABEL	9/24/2019	Date
TIME	LABEL	8:51:42	Time
NOTES	NOTES	1	&Notes...
	
PSTAT	PSTAT	REF600-11020	Potentiostat
VDC	POTEN	0.00000E+000	T	DC &Voltage (V)
FREQINIT	QUANT	1.00000E+006	Initial Fre&q. (Hz)
FREQFINAL	QUANT	1.00000E+000	Final Fre&q. (Hz)
PTSPERDEC	QUANT	1.00000E+001	Points/&decade
VAC	QUANT	2.50000E+001	AC &Voltage (mV rms)
AREA	QUANT	1.00000E-002	&Area (cm^2)
CONDIT	TWOPARAM	T	5.00000E+000	0.00000E+000	Conditionin&g	Time(s)	E(V)
DELAY	TWOPARAM	T	5.00000E+000	0.00000E+000	Init. De&lay	Time(s)	Stab.(mV/s)
SPEED	SELECTOR	1	&Optimize for:
ZGUESS	QUANT	1.00000E+004	E&stimated Z (ohms)
OCVCURVE	TABLE	19
	Pt	T	Vf	Vm	Ach	Over
	#	s	V vs. Ref.	V	V	bits
	0	0.258333	-1.36558E-002	-1.36558E-002	5.66732E-004	...........
	1	0.516667	-1.36784E-002	-1.48417E-002	5.70199E-004	...........
	2	0.775	-1.38173E-002	-1.59530E-002	5.66632E-004	...........
	3	1.03333	-1.42091E-002	-1.70075E-002	5.64832E-004	...........
	4	1.29167	-1.49071E-002	-1.79967E-002	5.66432E-004	...........
	5	1.55	-1.58297E-002	-1.89407E-002	5.64132E-004	...........
	6	1.80833	-1.68446E-002	-1.98429E-002	5.67299E-004	...........
	7	2.06667	-1.78564E-002	-2.06945E-002	5.61599E-004	...........
	8	2.325	-1.88230E-002	-2.15066E-002	5.60799E-004	...........
	9	2.58333	-1.97358E-002	-2.22906E-002	5.64366E-004	...........
	10	2.84167	-2.05997E-002	-2.30575E-002	5.63132E-004	...........
	11	3.1	-2.14234E-002	-2.37937E-002	5.56266E-004	...........
	12	3.35833	-2.22148E-002	-2.45005E-002	5.58632E-004	...........
	13	3.61667	-2.29786E-002	-2.51914E-002	5.61799E-004	...........
	14	3.875	-2.37167E-002	-2.58628E-002	5.61532E-004	...........
	15	4.13333	-2.44311E-002	-2.65124E-002	5.66132E-004	...........
	16	4.39167	-2.51235E-002	-2.71391E-002	5.63766E-004	...........
	17	4.65	-2.57948E-002	-2.77407E-002	5.65099E-004	...........
	18	4.90833	-2.64449E-002	-2.83333E-002	5.64299E-004	...........
EOC	QUANT	-0.0264449	Open Circuit (V)
PSTATMODEL	IQUANT	4	Pstat Model
PSTATSECTION	LABEL	REF600-11020	Pstat Section
PSTATSERIALNO	LABEL	11020	Pstat Serial Number
CTRLMODE	IQUANT	1	Control Mode
IESTAB	IQUANT	0	I/E Stability
CASPEED	IQUANT	1	Control Amp Speed
CONVENTION	IQUANT	1	Current Convention
ICHRANGE	IQUANT	2	Ich Range
ICHRANGEMODE	TOGGLE	F	Ich Auto Range
ICHOFFSETENABLE	TOGGLE	T	Ich Offset Enable
ICHOFFSET	QUANT	0	Ich Offset (V)
ICHFILTER	IQUANT	3	Ich Filter
VCHRANGE	IQUANT	2	Vch Range
VCHRANGEMODE	TOGGLE	F	Vch Auto Range
VCHOFFSETENABLE	TOGGLE	T	Vch Offset Enable
VCHOFFSET	QUANT	0	Vch Offset (V)
VCHFILTER	IQUANT	3	Vch Filter
ACHRANGE	IQUANT	2	Ach Range
ACHOFFSETENABLE	TOGGLE	F	Ach Offset Enable
ACHOFFSET	QUANT	0	Ach Offset (V)
ACHFILTER	IQUANT	3	Ach Filter
IERANGELOWERLIMIT	IQUANT	1	I/E Range Lower Limit
IERANGEMODE	TOGGLE	F	I/E AutoRange
IERANGE	IQUANT	6	I/E Range
POSFEEDENABLE	TOGGLE	F	Positive Feedback IR Comp
POSFEEDRESISTANCE	QUANT	0	Positive Feedback Resistance (ohm)
ACHSELECT	IQUANT	0	Ach Select
CABLEID	IQUANT	14	Cable ID
DCCALDATE	LABEL	8/19/2019	DC Calibration Date
ACCALDATE	LABEL	8/19/2019	AC Calibration Date
THERMOSELECT	IQUANT	1	Thermo Select
FRAMEWORKVERSION	QUANT	6.33	Framework Version
INSTRUMENTVERSION	LABEL	3.50	Instrument Version
ZCURVE	TABLE
	Pt	Time	Freq	Zreal	Zimag	Zsig	Zmod	Zphz	Idc	Vdc	IERange
	#	s	Hz	ohm	ohm	V	ohm	°	A	V	#
	0	2	1000078	1988.134	-2011.919	1	2828.515	-45.34069	-1.419582E-006	-0.0239453	8
	1	4	794390.6	2408.737	-2111.939	1	3203.483	-41.24372	2.659508E-006	-0.0252585	8
	2	5	630984.4	2803.719	-2158.173	1	3538.156	-37.5874	-5.677477E-006	-0.0235484	8
	3	7	501234.4	3220.65	-2120.855	1	3856.243	-33.3656	1.42969E-006	-0.0247062	8
	4	8	398109.4	3634.774	-2053.936	1	4174.954	-29.46989	-6.137515E-007	-0.0246947	8
	5	10	316265.6	3999.29	-1924.825	1	4438.386	-25.70112	-9.407833E-007	-0.0246931	8
	6	11	251203.1	4310.044	-1752.375	1	4652.666	-22.12564	-3.132712E-006	-0.024256	8
	7	12	199546.9	4586.149	-1576.142	1	4849.432	-18.96653	4.060213E-007	-0.0250518	8
	8	14	158578.1	4796.085	-1424.222	1	5003.083	-16.53906	-1.790801E-007	-0.0249767	8
	9	16	125953.1	5003.422	-1199.651	1	5145.23	-13.48306	6.180851E-007	-0.0266953	7
	10	17	100078.1	5141.377	-1067.357	1	5251.001	-11.72809	8.28558E-008	-0.0249933	7
	11	18	79453.13	5251.888	-950.333	1	5337.177	-10.25673	-4.42662E-008	-0.0248551	7
	12	20	63140.62	5344.195	-851.1245	1	5411.546	-9.049015	8.327931E-008	-0.0251235	7
	13	21	50203.12	5420.456	-770.3886	1	5474.928	-8.089054	-3.388199E-008	-0.0249203	7
	14	22	39890.62	5488.948	-708.5192	1	5534.487	-7.355129	4.382392E-008	-0.025011	7
	15	24	31640.63	5548.672	-665.4706	1	5588.436	-6.839007	4.475686E-008	-0.0250987	7
	16	25	25171.88	5603.553	-638.6292	1	5639.827	-6.501867	8.509362E-008	-0.0250113	7
	17	26	20015.62	5650.556	-628.2488	1	5685.375	-6.344291	-3.092063E-008	-0.0249278	7
	18	28	15890.62	5696.263	-633.1268	1	5731.34	-6.342266	-3.486962E-008	-0.0249438	7
	19	29	12609.37	5745.957	-661.7955	1	5783.943	-6.57014	7.465314E-008	-0.0250877	7
	20	30	10078.13	5791.632	-703.7504	1	5834.232	-6.928135	-4.756131E-009	-0.0248377	7
	21	32	8015.625	5836.053	-771.0034	1	5886.762	-7.525788	-3.909206E-008	-0.0248193	7
	22	33	6328.125	5885.753	-862.182	1	5948.567	-8.333774	-5.356214E-009	-0.0248369	7
	23	34	5015.625	5938.431	-980.294	1	6018.799	-9.373642	7.548918E-008	-0.0250906	7
	24	36	3984.375	5994.925	-1133.021	1	6101.054	-10.70247	7.370016E-008	-0.0250902	7
	25	37	3170.956	6060.607	-1327.574	1	6204.306	-12.35548	-4.968526E-009	-0.0248369	7
	26	39	2527.573	6128.335	-1562.401	1	6324.365	-14.30271	-3.922742E-008	-0.0248136	7
	27	40	1976.103	6217.6	-1883.729	1	6496.69	-16.85509	-3.218801E-008	-0.0249464	7
	28	41	1577.524	6312.434	-2246.047	1	6700.116	-19.58623	4.610892E-008	-0.0250124	7
	29	43	1265.625	6424.441	-2667.544	1	6956.237	-22.54911	-6.988022E-009	-0.0249184	7
	30	44	998.264	6559.902	-3246.483	1	7319.287	-26.33072	1.387016E-007	-0.0251577	7
	31	45	796.875	6715.428	-3913.551	1	7772.57	-30.23236	-3.896549E-008	-0.0248232	7
	32	47	627.7902	6908.513	-4770.824	1	8395.731	-34.62786	8.653218E-008	-0.025013	7
	33	48	505.5147	7125.107	-5723.393	1	9139.167	-38.77391	1.912913E-008	-0.025045	7
	34	49	397.9953	7401.141	-7016.704	1	10198.58	-43.47263	4.102501E-009	-0.0250103	6
	35	51	315.5048	7728.703	-8568.303	1	11539.01	-47.94919	2.792941E-009	-0.0250128	6
	36	52	252.4038	8110.539	-10397.27	1	13186.51	-52.04348	3.540207E-009	-0.0250168	6
	37	54	198.6229	8624.364	-12813.23	1	15445.34	-56.05619	3.171622E-009	-0.0250096	6
	38	55	158.3615	9240.876	-15625.22	1	18153.27	-59.3996	2.844006E-009	-0.0250146	6
	39	56	125.558	10042.42	-19168.68	1	21639.98	-62.35007	3.538581E-009	-0.0250129	6
	40	58	100.4464	11073.13	-23335.11	1	25829.08	-64.61441	3.714178E-009	-0.0250118	6
	41	59	79.00281	12403.48	-28834.63	1	31389.2	-66.72459	3.048908E-009	-0.0250143	6
	42	60	63.3446	14551.53	-35041.45	1	37942.72	-67.44854	3.089846E-009	-0.0250122	6
	43	62	49.86702	16372.22	-43106.7	1	46111.14	-69.20287	2.771915E-009	-0.0250145	6
	44	63	39.72458	19693.17	-52054.06	1	55654.7	-69.27729	3.377071E-009	-0.0250104	6
	45	64	31.6723	23599.27	-63156.63	1	67421.7	-69.51116	2.425388E-009	-0.0250152	6
	46	66	24.93351	29463.15	-76658.38	1	82125.42	-68.97606	3.631675E-009	-0.025014	6
	47	67	19.86229	36602.16	-92083.95	1	99091.7	-68.32283	3.440144E-009	-0.025001	6
	48	69	15.83615	45023.32	-110182.6	1	119026.5	-67.77386	4.002435E-009	-0.025008	5
	49	70	12.40079	57682.2	-132704.9	1	144699.1	-66.5071	2.235752E-009	-0.0250069	5
	50	71	9.93114	73628.84	-154704.5	1	171332.1	-64.54871	2.782698E-009	-0.0250065	5
	51	73	7.944915	92253.77	-179299.1	1	201640.6	-62.77308	2.861957E-009	-0.0250014	5
	52	75	6.317385	114902.5	-207982.4	1	237611.6	-61.08099	2.056935E-009	-0.0249878	5
	53	77	5.008013	143404.1	-238736.6	1	278495.8	-59.00765	2.413683E-009	-0.0250056	5
	54	79	3.945707	177235.4	-272508.6	1	325074.3	-56.96064	2.50781E-009	-0.0250035	5
	55	82	3.158693	213343.6	-304095.8	1	371469.7	-54.94777	2.341773E-009	-0.0249896	5
	56	85	2.504006	255384.5	-339785	1	425058.9	-53.07125	2.196685E-009	-0.0250133	5
	57	88	1.998082	299143.8	-378124.8	1	482146.6	-51.65161	1.818724E-009	-0.0250067	5
	58	91	1.584686	350482.4	-420009.8	1	547033.9	-50.15627	2.251379E-009	-0.0249528	5
	59	95	1.266892	400649.8	-462758.6	1	612099.4	-49.11445	1.767841E-009	-0.0250018	5
	60	99	0.999041	459571.1	-514400.1	1	689792	-48.22203	2.549859E-009	-0.0249983	5
