EXPLAIN
TAG	EISPOT
TITLE	LABEL	Potentiostatic IDE	Test &Identifier
DATE	LABEL	9/6/2019	Date
TIME	LABEL	8:29:28	Time
NOTES	NOTES	1	&Notes...
	
PSTAT	PSTAT	REF600-11020	Potentiostat
VDC	POTEN	0.00000E+000	T	DC &Voltage (V)
FREQINIT	QUANT	1.00000E+006	Initial Fre&q. (Hz)
FREQFINAL	QUANT	1.00000E+000	Final Fre&q. (Hz)
PTSPERDEC	QUANT	1.00000E+001	Points/&decade
VAC	QUANT	2.50000E+001	AC &Voltage (mV rms)
AREA	QUANT	1.00000E-002	&Area (cm^2)
CONDIT	TWOPARAM	T	5.00000E+000	0.00000E+000	Conditionin&g	Time(s)	E(V)
DELAY	TWOPARAM	T	5.00000E+000	0.00000E+000	Init. De&lay	Time(s)	Stab.(mV/s)
SPEED	SELECTOR	1	&Optimize for:
ZGUESS	QUANT	1.00000E+007	E&stimated Z (ohms)
OCVCURVE	TABLE	19
	Pt	T	Vf	Vm	Ach	Over
	#	s	V vs. Ref.	V	V	bits
	0	0.258333	6.61338E-003	6.61338E-003	5.68666E-004	...........
	1	0.516667	6.60647E-003	6.25138E-003	5.70066E-004	...........
	2	0.775	6.56588E-003	6.00651E-003	5.63832E-004	...........
	3	1.03333	6.45976E-003	5.90044E-003	5.65132E-004	...........
	4	1.29167	6.29935E-003	6.14556E-003	5.63632E-004	...........
	5	1.55	6.14138E-003	5.62495E-003	5.68099E-004	...........
	6	1.80833	6.00914E-003	5.29625E-003	5.68066E-004	...........
	7	2.06667	5.85724E-003	5.12644E-003	5.71066E-004	...........
	8	2.325	5.64999E-003	5.00792E-003	5.73132E-004	...........
	9	2.58333	5.41649E-003	4.89969E-003	5.71299E-004	...........
	10	2.84167	5.20643E-003	4.79881E-003	5.70299E-004	...........
	11	3.1	5.04091E-003	4.70602E-003	5.67866E-004	...........
	12	3.35833	4.91306E-003	4.61645E-003	5.65899E-004	...........
	13	3.61667	4.80778E-003	4.53203E-003	5.70299E-004	...........
	14	3.875	4.71381E-003	4.45372E-003	5.63932E-004	...........
	15	4.13333	4.62572E-003	4.37277E-003	5.66966E-004	...........
	16	4.39167	4.54148E-003	4.29920E-003	5.73999E-004	...........
	17	4.65	4.46034E-003	4.22507E-003	5.62866E-004	...........
	18	4.90833	4.38206E-003	4.16063E-003	5.67899E-004	...........
EOC	QUANT	0.0043821	Open Circuit (V)
PSTATMODEL	IQUANT	4	Pstat Model
PSTATSECTION	LABEL	REF600-11020	Pstat Section
PSTATSERIALNO	LABEL	11020	Pstat Serial Number
CTRLMODE	IQUANT	1	Control Mode
IESTAB	IQUANT	0	I/E Stability
CASPEED	IQUANT	1	Control Amp Speed
CONVENTION	IQUANT	1	Current Convention
ICHRANGE	IQUANT	2	Ich Range
ICHRANGEMODE	TOGGLE	F	Ich Auto Range
ICHOFFSETENABLE	TOGGLE	T	Ich Offset Enable
ICHOFFSET	QUANT	0	Ich Offset (V)
ICHFILTER	IQUANT	3	Ich Filter
VCHRANGE	IQUANT	2	Vch Range
VCHRANGEMODE	TOGGLE	F	Vch Auto Range
VCHOFFSETENABLE	TOGGLE	T	Vch Offset Enable
VCHOFFSET	QUANT	0	Vch Offset (V)
VCHFILTER	IQUANT	3	Vch Filter
ACHRANGE	IQUANT	2	Ach Range
ACHOFFSETENABLE	TOGGLE	F	Ach Offset Enable
ACHOFFSET	QUANT	0	Ach Offset (V)
ACHFILTER	IQUANT	3	Ach Filter
IERANGELOWERLIMIT	IQUANT	1	I/E Range Lower Limit
IERANGEMODE	TOGGLE	F	I/E AutoRange
IERANGE	IQUANT	2	I/E Range
POSFEEDENABLE	TOGGLE	F	Positive Feedback IR Comp
POSFEEDRESISTANCE	QUANT	0	Positive Feedback Resistance (ohm)
ACHSELECT	IQUANT	0	Ach Select
CABLEID	IQUANT	14	Cable ID
DCCALDATE	LABEL	8/19/2019	DC Calibration Date
ACCALDATE	LABEL	8/19/2019	AC Calibration Date
THERMOSELECT	IQUANT	1	Thermo Select
FRAMEWORKVERSION	QUANT	6.33	Framework Version
INSTRUMENTVERSION	LABEL	3.50	Instrument Version
ZCURVE	TABLE
	Pt	Time	Freq	Zreal	Zimag	Zsig	Zmod	Zphz	Idc	Vdc	IERange
	#	s	Hz	ohm	ohm	V	ohm	°	A	V	#
	0	2	1000078	2430.684	-1827.526	1	3041.065	-36.93793	-4.965941E-007	0.0072242	8
	1	4	794390.6	2811.71	-1749.854	1	3311.752	-31.89586	-6.97602E-007	0.0068173	8
	2	5	630984.4	3130.239	-1622.519	1	3525.757	-27.39938	1.059302E-006	0.0061987	8
	3	6	501234.4	3410.368	-1457.798	1	3708.879	-23.14479	-1.390806E-006	0.0064489	8
	4	8	398109.4	3624.47	-1283.096	1	3844.882	-19.49443	-8.67545E-007	0.006399	8
	5	9	316265.6	3782.792	-1118.817	1	3944.777	-16.47636	-1.118503E-006	0.0063313	8
	6	10	251203.1	3903.18	-967.784	1	4021.371	-13.92551	-3.418002E-007	0.0062536	8
	7	12	199546.9	4003.759	-840.3715	1	4091.003	-11.85405	-6.762439E-007	0.0063453	8
	8	13	158578.1	4073.953	-753.9722	1	4143.135	-10.48517	-1.863742E-006	0.0065829	8
	9	14	125953.1	4149.963	-646.035	1	4199.947	-8.848355	-6.140423E-007	0.0076864	7
	10	16	100078.1	4185.999	-596.06	1	4228.223	-8.104081	2.829213E-008	0.0060599	7
	11	17	79453.13	4233.08	-567.6788	1	4270.974	-7.638102	-2.172406E-008	0.0062165	7
	12	18	63140.62	4278.068	-558.0293	1	4314.31	-7.431676	1.066554E-009	0.0061024	7
	13	20	50203.12	4320.717	-560.6571	1	4356.94	-7.393401	-2.256323E-008	0.0061525	7
	14	21	39890.62	4364.421	-582.8116	1	4403.163	-7.606107	3.692926E-008	0.0061258	7
	15	22	31640.63	4411.617	-615.9302	1	4454.406	-7.948004	3.719179E-008	0.0061277	7
	16	24	25171.88	4460.552	-666.0587	1	4510.007	-8.492771	-4.674873E-009	0.0061506	7
	17	25	20015.62	4514.754	-735.476	1	4574.268	-9.252493	1.861963E-009	0.0060975	7
	18	26	15890.62	4572.808	-824.6013	1	4646.563	-10.22213	-5.26558E-009	0.0061516	7
	19	28	12609.37	4638.535	-940.1009	1	4732.842	-11.45706	-2.225695E-008	0.0061514	7
	20	29	10078.13	4712.818	-1076.346	1	4834.167	-12.86495	3.011894E-008	0.0060471	7
	21	30	8015.625	4792.933	-1245.77	1	4952.187	-14.56982	-2.151155E-008	0.0061637	7
	22	32	6328.125	4891.698	-1461.62	1	5105.394	-16.63594	-2.857345E-008	0.0061892	7
	23	33	5015.625	5003.686	-1717.741	1	5290.322	-18.9471	3.002674E-008	0.0060406	7
	24	34	3984.375	5137.482	-2023.977	1	5521.794	-21.50259	-2.006447E-008	0.0061547	7
	25	36	3170.956	5286.305	-2391.08	1	5801.92	-24.338	-4.427957E-009	0.0061406	7
	26	37	2527.573	5467.584	-2825.051	1	6154.298	-27.32498	-4.502965E-009	0.0061437	7
	27	38	1976.103	5698.248	-3390.795	1	6630.801	-30.75516	-1.185291E-008	0.0062105	7
	28	40	1577.524	5954.842	-4007.181	1	7177.579	-33.93773	5.020993E-008	0.0060238	7
	29	41	1265.625	6247.65	-4725.567	1	7833.525	-37.10295	7.958629E-008	0.006015	7
	30	42	998.264	6618.39	-5640.289	1	8695.743	-40.43813	3.690163E-008	0.0061084	7
	31	44	796.875	7042.434	-6670.284	1	9699.93	-43.44543	-9.350837E-009	0.0062058	7
	32	45	627.7902	7560.028	-7966.571	1	10982.73	-46.49987	8.261014E-009	0.0059762	6
	33	46	505.5147	8113.148	-9372.627	1	12396.34	-49.11983	-3.144869E-009	0.0061481	6
	34	48	397.9953	8810.965	-11216.92	1	14263.67	-51.85012	7.226225E-010	0.0060777	6
	35	49	315.5048	9597.56	-13376.39	1	16463.32	-54.34058	7.327146E-010	0.0060799	6
	36	50	252.4038	10472.75	-15867.14	1	19011.7	-56.57409	9.090195E-010	0.0060808	6
	37	52	198.6229	11567.7	-19098.52	1	22328.57	-58.79733	9.051079E-010	0.0060835	6
	38	53	158.3615	12785.47	-22799.32	1	26139.57	-60.71704	8.088982E-010	0.0060839	6
	39	54	125.558	14262.68	-27383.58	1	30875.3	-62.48735	6.871475E-010	0.0060847	6
	40	56	100.4464	15950.68	-32719.93	1	36400.8	-64.01117	5.543891E-010	0.0060711	6
	41	57	79.00281	18182.68	-39688.94	1	43655.72	-65.38609	6.149979E-010	0.006074	6
	42	58	63.3446	20535.85	-47237.53	1	51508.3	-66.50368	6.317193E-010	0.0060814	6
	43	60	49.86702	24009.87	-57480.75	1	62293.75	-67.32957	7.693152E-010	0.0060776	6
	44	61	39.72458	27645.24	-68990.95	1	74323.69	-68.16361	7.731443E-010	0.0060829	6
	45	62	31.6723	32381.04	-82825.55	1	88930.33	-68.64675	3.543888E-010	0.0060769	6
	46	64	24.93351	38280.2	-100290.8	1	107348.1	-69.10854	4.60133E-010	0.0060838	5
	47	65	19.86229	45235.9	-120300.6	1	128524.4	-69.39253	7.259049E-010	0.0060904	5
	48	66	15.83615	54039.36	-144224	1	154015.6	-69.4595	7.46763E-010	0.0060823	5
	49	68	12.40079	64854.56	-175163.5	1	186784.2	-69.68285	2.812237E-010	0.0060867	5
	50	69	9.93114	77836.13	-208646.8	1	222692.5	-69.54186	2.523705E-010	0.0060854	5
	51	71	7.944915	93306.03	-248490.3	1	265430.7	-69.41927	6.439462E-010	0.0060841	5
	52	72	6.317385	112951.9	-297829.7	1	318528.9	-69.23077	4.993581E-010	0.0060769	5
	53	74	5.008013	138806.7	-357017.6	1	383052.1	-68.75417	3.007749E-010	0.0060907	5
	54	77	3.945707	171460.9	-429049.5	1	462041.5	-68.21689	3.280341E-010	0.0060897	5
	55	79	3.158693	210447.6	-507876.1	1	549751.2	-67.49245	2.511442E-010	0.0061022	5
	56	82	2.504006	261645.5	-604198.6	1	658418	-66.58519	4.585112E-011	0.0060775	5
	57	85	1.998082	323262	-710792.5	1	780848.4	-65.54439	3.472951E-011	0.0060546	5
	58	88	1.584686	403647.5	-832550.3	1	925241.2	-64.13438	1.206044E-010	0.0061224	5
	59	92	1.266892	495762	-969903	1	1089262	-62.92633	-2.452736E-011	0.0060562	4
	60	96	0.999041	616127.8	-1126079	1	1283615	-61.31499	1.80877E-010	0.0061192	4
