EXPLAIN
TAG	EISPOT
TITLE	LABEL	Potentiostatic EIS	Test &Identifier
DATE	LABEL	11/22/2019	Date
TIME	LABEL	10:39:52	Time
NOTES	NOTES	4	&Notes...
	
	
	
	
PSTAT	PSTAT	REF600-11020	Potentiostat
VDC	POTEN	0.00000E+000	T	DC &Voltage (V)
FREQINIT	QUANT	1.00000E+006	Initial Fre&q. (Hz)
FREQFINAL	QUANT	1.00000E+000	Final Fre&q. (Hz)
PTSPERDEC	QUANT	1.00000E+001	Points/&decade
VAC	QUANT	2.50000E+001	AC &Voltage (mV rms)
AREA	QUANT	1.00000E-002	&Area (cm^2)
CONDIT	TWOPARAM	T	5.00000E+000	0.00000E+000	Conditionin&g	Time(s)	E(V)
DELAY	TWOPARAM	T	5.00000E+000	0.00000E+000	Init. De&lay	Time(s)	Stab.(mV/s)
SPEED	SELECTOR	0	&Optimize for:
ZGUESS	QUANT	1.00000E+005	E&stimated Z (ohms)
OCVCURVE	TABLE	19
	Pt	T	Vf	Vm	Ach	Over
	#	s	V vs. Ref.	V	V	bits
	0	0.258333	5.58203E-002	5.58203E-002	5.91145E-004	...........
	1	0.516667	5.58916E-002	5.95539E-002	5.89246E-004	...........
	2	0.775	5.63281E-002	6.30110E-002	5.90245E-004	...........
	3	1.03333	5.75566E-002	6.62877E-002	5.94779E-004	...........
	4	1.29167	5.97398E-002	6.93561E-002	5.87112E-004	...........
	5	1.55	6.26172E-002	7.22578E-002	5.90012E-004	...........
	6	1.80833	6.57723E-002	7.49985E-002	5.94912E-004	...........
	7	2.06667	6.89032E-002	7.75908E-002	5.94412E-004	...........
	8	2.325	7.18765E-002	8.00317E-002	5.95046E-004	...........
	9	2.58333	7.46656E-002	8.23748E-002	5.93912E-004	...........
	10	2.84167	7.72871E-002	8.46433E-002	5.87612E-004	...........
	11	3.1	7.97684E-002	8.68202E-002	5.93512E-004	...........
	12	3.35833	8.21358E-002	8.89252E-002	5.95345E-004	...........
	13	3.61667	8.44078E-002	9.09416E-002	5.88512E-004	...........
	14	3.875	8.65947E-002	9.28888E-002	5.91845E-004	...........
	15	4.13333	8.87012E-002	9.47625E-002	5.88946E-004	...........
	16	4.39167	9.07300E-002	9.65691E-002	5.89212E-004	...........
	17	4.65	9.26838E-002	9.82950E-002	5.87546E-004	...........
	18	4.90833	9.45644E-002	9.99612E-002	5.87812E-004	...........
EOC	QUANT	0.0945644	Open Circuit (V)
PSTATMODEL	IQUANT	4	Pstat Model
PSTATSECTION	LABEL	REF600-11020	Pstat Section
PSTATSERIALNO	LABEL	11020	Pstat Serial Number
CTRLMODE	IQUANT	1	Control Mode
IESTAB	IQUANT	0	I/E Stability
CASPEED	IQUANT	1	Control Amp Speed
CONVENTION	IQUANT	1	Current Convention
ICHRANGE	IQUANT	2	Ich Range
ICHRANGEMODE	TOGGLE	F	Ich Auto Range
ICHOFFSETENABLE	TOGGLE	T	Ich Offset Enable
ICHOFFSET	QUANT	0	Ich Offset (V)
ICHFILTER	IQUANT	3	Ich Filter
VCHRANGE	IQUANT	2	Vch Range
VCHRANGEMODE	TOGGLE	F	Vch Auto Range
VCHOFFSETENABLE	TOGGLE	T	Vch Offset Enable
VCHOFFSET	QUANT	0	Vch Offset (V)
VCHFILTER	IQUANT	3	Vch Filter
ACHRANGE	IQUANT	2	Ach Range
ACHOFFSETENABLE	TOGGLE	F	Ach Offset Enable
ACHOFFSET	QUANT	0	Ach Offset (V)
ACHFILTER	IQUANT	1	Ach Filter
IERANGELOWERLIMIT	IQUANT	1	I/E Range Lower Limit
IERANGEMODE	TOGGLE	F	I/E AutoRange
IERANGE	IQUANT	6	I/E Range
POSFEEDENABLE	TOGGLE	F	Positive Feedback IR Comp
POSFEEDRESISTANCE	QUANT	0	Positive Feedback Resistance (ohm)
ACHSELECT	IQUANT	0	Ach Select
CABLEID	IQUANT	14	Cable ID
DCCALDATE	LABEL	8/19/2019	DC Calibration Date
ACCALDATE	LABEL	8/19/2019	AC Calibration Date
THERMOSELECT	IQUANT	1	Thermo Select
FRAMEWORKVERSION	QUANT	6.33	Framework Version
INSTRUMENTVERSION	LABEL	3.50	Instrument Version
ZCURVE	TABLE
	Pt	Time	Freq	Zreal	Zimag	Zsig	Zmod	Zphz	Idc	Vdc	IERange
	#	s	Hz	ohm	ohm	V	ohm	°	A	V	#
	0	1	1000078	1965.029	-1360.556	1	2390.073	-34.69813	-6.5509E-007	0.0973508	8
	1	1	794390.6	2161.484	-1382.89	1	2566.009	-32.6106	1.18399E-007	0.0959771	8
	2	1	630984.4	2348.408	-1425.279	1	2747.078	-31.25409	7.094814E-006	0.0948716	8
	3	2	501234.4	2533.56	-1478.29	1	2933.303	-30.26284	6.755385E-006	0.0952581	8
	4	2	398109.4	2710.58	-1549.954	1	3122.435	-29.76163	1.622333E-006	0.0955553	8
	5	2	316265.6	2925.173	-1633.214	1	3350.228	-29.17596	-1.75955E-006	0.0958142	8
	6	3	251203.1	3128.984	-1745.233	1	3582.79	-29.15118	-6.238263E-007	0.0957316	8
	7	3	199546.9	3371.168	-1858.387	1	3849.465	-28.86616	-2.101692E-006	0.0961871	8
	8	3	158578.1	3611.299	-2025.679	1	4140.635	-29.28929	-3.308444E-007	0.0964852	8
	9	4	125953.1	3929.878	-2102.115	1	4456.774	-28.1426	8.090414E-007	0.0979551	7
	10	4	100078.1	4208.919	-2262.825	1	4778.638	-28.26364	-8.175138E-007	0.0959561	7
	11	4	79453.13	4532.36	-2465.111	1	5159.366	-28.54138	4.704946E-007	0.0964307	7
	12	5	63140.62	4875.699	-2665.616	1	5556.792	-28.66607	4.712181E-007	0.0964319	7
	13	5	50203.12	5255.204	-2881.885	1	5993.532	-28.73978	7.330428E-007	0.0941821	7
	14	5	39890.62	5654.293	-3108.204	1	6452.283	-28.7979	9.589585E-007	0.0942272	7
	15	6	31640.63	6088.669	-3347.891	1	6948.4	-28.80445	9.580598E-007	0.094222	7
	16	6	25171.88	6530.402	-3582.905	1	7448.715	-28.75138	-8.17259E-007	0.0959449	7
	17	6	20015.62	7010.316	-3865.303	1	8005.317	-28.87118	-8.259948E-007	0.0959443	7
	18	7	15890.62	7530.919	-4179.906	1	8613.15	-29.0317	2.295106E-008	0.0946742	7
	19	7	12609.37	8062.742	-4526.111	1	9246.27	-29.30817	-2.273884E-007	0.0973196	7
	20	7	10078.13	8703.787	-4813.036	1	9945.92	-28.9418	-1.871348E-007	0.0988106	6
	21	8	8015.625	9338.32	-5290.625	1	10732.89	-29.53372	1.220597E-007	0.0957801	6
	22	8	6328.125	10038.98	-5826.116	1	11607.1	-30.12871	1.594751E-007	0.0934887	6
	23	8	5015.625	10811.52	-6418.179	1	12573.06	-30.69518	7.517821E-008	0.0966272	6
	24	8	3984.375	11647.16	-7055.378	1	13617.44	-31.20578	1.351344E-007	0.0932758	6
	25	9	3170.956	12617.99	-7742.472	1	14804.04	-31.53352	1.597519E-007	0.0934842	6
	26	9	2527.573	13640.79	-8456.552	1	16049.43	-31.79668	1.940609E-008	0.0974142	6
	27	9	1976.103	14817.36	-9286.821	1	17487.12	-32.07754	1.349261E-007	0.0932765	6
	28	10	1577.524	15997.84	-10095.33	1	18916.84	-32.25371	-9.468952E-008	0.09853	6
	29	10	1265.625	17139.69	-10984.62	1	20357.57	-32.65532	-1.165859E-007	0.0956459	6
	30	10	998.264	18505.14	-12156.79	1	22141.09	-33.30257	-3.824303E-008	0.0980543	6
	31	11	796.875	19880.28	-13444.68	1	23999.68	-34.06979	2.052782E-008	0.097405	6
	32	11	627.7902	21471	-15078.78	1	26236.87	-35.07982	7.518183E-008	0.0966281	6
	33	11	505.5147	23045.52	-16691.66	1	28455.36	-35.91547	-1.167799E-007	0.0956487	6
	34	12	397.9953	25183.62	-18974.93	1	31531.93	-36.99668	-4.078737E-009	0.0959294	6
	35	12	315.5048	27545.84	-21385.97	1	34873.1	-37.82496	-3.246118E-009	0.0959272	6
	36	12	252.4038	30206.28	-23992.87	1	38575.61	-38.46014	-3.335308E-009	0.0959356	6
	37	13	198.6229	33503.4	-27047.84	1	43058.84	-38.91451	-3.736919E-009	0.0959264	6
	38	13	158.3615	37072.18	-30148.07	1	47783.4	-39.11892	-4.247114E-009	0.0959297	6
	39	13	125.558	41093.8	-33513.59	1	53026.98	-39.19858	-4.405173E-009	0.0959361	6
	40	14	100.4464	45211.43	-37007.31	1	58426.14	-39.30166	-3.490319E-009	0.0959222	6
	41	14	79.00281	50463.91	-41276.55	1	65194.79	-39.28118	-3.894688E-009	0.0959313	6
	42	14	63.3446	54247.66	-44615.82	1	70238.03	-39.43548	-3.780705E-009	0.0959213	6
	43	15	49.86702	60685.73	-49733.98	1	78461.63	-39.33576	-3.705728E-009	0.0959279	6
	44	15	39.72458	67477.18	-55637.29	1	87456.72	-39.50677	-3.273953E-009	0.0959226	6
	45	15	31.6723	74731.67	-61493.41	1	96779.5	-39.44946	-2.965454E-009	0.095918	6
	46	16	24.93351	82189.43	-67997.59	1	106671.3	-39.6019	-5.1092E-009	0.095929	5
	47	16	19.86229	90102.35	-75482.56	1	117541.7	-39.95434	-6.396702E-009	0.0959246	5
	48	16	15.83615	98979.1	-84014.7	1	129828.1	-40.32501	-5.495343E-009	0.0959315	5
	49	16	12.40079	107381.9	-92982.66	1	142044.5	-40.8895	-5.793089E-009	0.0959316	5
	50	17	9.93114	115714.6	-104178.8	1	155701.9	-41.99697	-4.622774E-009	0.0959256	5
	51	17	7.944915	124960.4	-118094.7	1	171934.5	-43.38197	-4.039839E-009	0.095928	5
	52	18	6.317385	134721.6	-135019.7	1	190736	-45.06332	-4.15899E-009	0.0959228	5
	53	19	5.008013	146077.7	-156178.6	1	213846.8	-46.91403	-4.281272E-009	0.0959173	5
	54	20	3.945707	159555.7	-183400.5	1	243092	-48.97722	-3.764416E-009	0.0959343	5
	55	21	3.158693	174394.3	-213560.7	1	275720.1	-50.76483	-4.018853E-009	0.0959384	5
	56	23	2.504006	192994.2	-251916.9	1	317346.6	-52.54418	-3.973444E-009	0.095921	5
	57	24	1.998082	215222.8	-295452.9	1	365531.5	-53.92852	-3.53985E-009	0.0959636	5
	58	26	1.584686	242118.2	-349329.7	1	425032.3	-55.27441	-3.484468E-009	0.0959573	5
	59	28	1.266892	274617.8	-409012.6	1	492652.2	-56.12194	-3.427134E-009	0.0959125	5
	60	30	0.999041	318182.3	-483576.2	1	578866	-56.65598	-3.342496E-009	0.0958872	5
