EXPLAIN
TAG	EISPOT
TITLE	LABEL	Potentiostatic EIS	Test &Identifier
DATE	LABEL	9/20/2019	Date
TIME	LABEL	10:48:15	Time
NOTES	NOTES	1	&Notes...
	
PSTAT	PSTAT	REF600-11020	Potentiostat
VDC	POTEN	0.00000E+000	T	DC &Voltage (V)
FREQINIT	QUANT	1.00000E+006	Initial Fre&q. (Hz)
FREQFINAL	QUANT	1.00000E+000	Final Fre&q. (Hz)
PTSPERDEC	QUANT	1.00000E+001	Points/&decade
VAC	QUANT	2.50000E+001	AC &Voltage (mV rms)
AREA	QUANT	1.00000E-002	&Area (cm^2)
CONDIT	TWOPARAM	T	5.00000E+000	0.00000E+000	Conditionin&g	Time(s)	E(V)
DELAY	TWOPARAM	T	5.00000E+000	0.00000E+000	Init. De&lay	Time(s)	Stab.(mV/s)
SPEED	SELECTOR	1	&Optimize for:
ZGUESS	QUANT	1.00000E+004	E&stimated Z (ohms)
OCVCURVE	TABLE	19
	Pt	T	Vf	Vm	Ach	Over
	#	s	V vs. Ref.	V	V	bits
	0	0.258333	-7.11535E-003	-7.11535E-003	5.86299E-004	...........
	1	0.516667	-7.12523E-003	-7.63271E-003	5.88465E-004	...........
	2	0.775	-7.18583E-003	-8.11803E-003	5.69199E-004	...........
	3	1.03333	-7.35787E-003	-8.63375E-003	5.70099E-004	...........
	4	1.29167	-7.66866E-003	-9.09900E-003	5.88099E-004	...........
	5	1.55	-8.08641E-003	-9.48667E-003	5.87999E-004	...........
	6	1.80833	-8.54982E-003	-9.88089E-003	5.76866E-004	...........
	7	2.06667	-9.00753E-003	-1.02361E-002	5.72266E-004	...........
	8	2.325	-9.43416E-003	-1.05272E-002	5.77732E-004	...........
	9	2.58333	-9.82359E-003	-1.08563E-002	5.83865E-004	...........
	10	2.84167	-1.01795E-002	-1.11769E-002	5.74565E-004	...........
	11	3.1	-1.05116E-002	-1.14602E-002	5.76232E-004	...........
	12	3.35833	-1.08291E-002	-1.17325E-002	5.89299E-004	...........
	13	3.61667	-1.11341E-002	-1.19856E-002	5.81532E-004	...........
	14	3.875	-1.14236E-002	-1.21879E-002	5.82499E-004	...........
	15	4.13333	-1.16937E-002	-1.24219E-002	5.90865E-004	...........
	16	4.39167	-1.19429E-002	-1.26120E-002	5.95032E-004	...........
	17	4.65	-1.21735E-002	-1.28067E-002	5.79432E-004	...........
	18	4.90833	-1.23892E-002	-1.29902E-002	5.81332E-004	...........
EOC	QUANT	-0.0123892	Open Circuit (V)
PSTATMODEL	IQUANT	4	Pstat Model
PSTATSECTION	LABEL	REF600-11020	Pstat Section
PSTATSERIALNO	LABEL	11020	Pstat Serial Number
CTRLMODE	IQUANT	1	Control Mode
IESTAB	IQUANT	0	I/E Stability
CASPEED	IQUANT	1	Control Amp Speed
CONVENTION	IQUANT	1	Current Convention
ICHRANGE	IQUANT	2	Ich Range
ICHRANGEMODE	TOGGLE	F	Ich Auto Range
ICHOFFSETENABLE	TOGGLE	T	Ich Offset Enable
ICHOFFSET	QUANT	0	Ich Offset (V)
ICHFILTER	IQUANT	3	Ich Filter
VCHRANGE	IQUANT	2	Vch Range
VCHRANGEMODE	TOGGLE	F	Vch Auto Range
VCHOFFSETENABLE	TOGGLE	T	Vch Offset Enable
VCHOFFSET	QUANT	0	Vch Offset (V)
VCHFILTER	IQUANT	3	Vch Filter
ACHRANGE	IQUANT	2	Ach Range
ACHOFFSETENABLE	TOGGLE	F	Ach Offset Enable
ACHOFFSET	QUANT	0	Ach Offset (V)
ACHFILTER	IQUANT	3	Ach Filter
IERANGELOWERLIMIT	IQUANT	1	I/E Range Lower Limit
IERANGEMODE	TOGGLE	F	I/E AutoRange
IERANGE	IQUANT	6	I/E Range
POSFEEDENABLE	TOGGLE	F	Positive Feedback IR Comp
POSFEEDRESISTANCE	QUANT	0	Positive Feedback Resistance (ohm)
ACHSELECT	IQUANT	0	Ach Select
CABLEID	IQUANT	14	Cable ID
DCCALDATE	LABEL	8/19/2019	DC Calibration Date
ACCALDATE	LABEL	8/19/2019	AC Calibration Date
THERMOSELECT	IQUANT	1	Thermo Select
FRAMEWORKVERSION	QUANT	6.33	Framework Version
INSTRUMENTVERSION	LABEL	3.50	Instrument Version
ZCURVE	TABLE
	Pt	Time	Freq	Zreal	Zimag	Zsig	Zmod	Zphz	Idc	Vdc	IERange
	#	s	Hz	ohm	ohm	V	ohm	°	A	V	#
	0	1	1000078	2301.852	-1546.106	1	2772.898	-33.88843	7.862357E-007	-0.0106908	8
	1	2	794390.6	2600.092	-1503.688	1	3003.59	-30.04171	-7.500706E-007	-0.0106279	8
	2	4	630984.4	2872.873	-1414.651	1	3202.286	-26.21642	-2.791318E-007	-0.0105066	8
	3	5	501234.4	3111.879	-1282.714	1	3365.88	-22.40142	-4.68897E-008	-0.0107171	8
	4	6	398109.4	3302.042	-1166.253	1	3501.947	-19.45278	-3.222765E-006	-0.010169	8
	5	8	316265.6	3455.171	-1016.79	1	3601.675	-16.39813	-1.075049E-006	-0.0106212	8
	6	9	251203.1	3580.401	-892.433	1	3689.947	-13.99606	3.506742E-006	-0.0115689	8
	7	10	199546.9	3715.797	-792.6884	1	3799.408	-12.04235	2.158553E-006	-0.011395	8
	8	12	158578.1	3790.885	-671.9404	1	3849.976	-10.05137	-4.052614E-007	-0.0107201	8
	9	13	125953.1	3864.473	-546.9193	1	3902.983	-8.055285	-2.58005E-007	-0.0102362	7
	10	15	100078.1	3903.216	-481.0497	1	3932.747	-7.025958	-3.264897E-008	-0.0109311	7
	11	16	79453.13	3944.765	-435.4421	1	3968.725	-6.299083	8.073054E-008	-0.0110024	7
	12	17	63140.62	3981.469	-400.3938	1	4001.551	-5.742605	-3.248804E-008	-0.0109434	7
	13	19	50203.12	4017.721	-377.2029	1	4035.389	-5.36348	1.289168E-007	-0.011152	7
	14	20	39890.62	4047.461	-361.1306	1	4063.54	-5.098657	7.848491E-008	-0.0111243	7
	15	21	31640.63	4080.013	-357.5422	1	4095.649	-5.008186	-9.384304E-010	-0.0109488	7
	16	23	25171.88	4109.441	-360.7518	1	4125.246	-5.016911	-4.301915E-008	-0.0108703	7
	17	24	20015.62	4140.637	-374.1627	1	4157.508	-5.163427	-3.266617E-008	-0.0109491	7
	18	25	15890.62	4171.021	-395.7776	1	4189.755	-5.420422	-3.568844E-008	-0.0109237	7
	19	27	12609.37	4205.732	-429.7498	1	4227.632	-5.834342	-7.197465E-008	-0.0108414	7
	20	28	10078.13	4240.963	-474.4307	1	4267.418	-6.38306	-1.184302E-008	-0.0108239	7
	21	29	8015.625	4277.496	-531.522	1	4310.393	-7.083271	-1.199616E-008	-0.0108273	7
	22	31	6328.125	4318.387	-606.7712	1	4360.807	-7.998197	-1.200086E-008	-0.0109172	7
	23	32	5015.625	4363.334	-700.6181	1	4419.225	-9.122087	-1.649368E-008	-0.0109921	7
	24	34	3984.375	4411.621	-815.2097	1	4486.309	-10.46941	-1.09679E-008	-0.0108314	7
	25	35	3170.956	4465.077	-955.129	1	4566.09	-12.07423	4.015E-008	-0.0110912	7
	26	36	2527.573	4525.879	-1127.142	1	4664.122	-13.98466	1.288746E-007	-0.0111669	7
	27	38	1976.103	4601.222	-1355.458	1	4796.718	-16.41427	-9.189541E-009	-0.0109944	7
	28	39	1577.524	4680.303	-1611.826	1	4950.072	-19.00294	-1.123045E-008	-0.0108306	7
	29	40	1265.625	4774.687	-1913.344	1	5143.785	-21.83728	4.009997E-008	-0.0110113	7
	30	42	998.264	4886.625	-2317.547	1	5408.338	-25.37327	-1.197811E-008	-0.0109185	7
	31	43	796.875	5013.374	-2782.424	1	5733.742	-29.03028	1.316734E-007	-0.0111673	7
	32	44	627.7902	5174.501	-3388.942	1	6185.498	-33.22204	6.674788E-008	-0.0110774	7
	33	46	505.5147	5356.577	-4059.806	1	6721.23	-37.15887	7.807014E-008	-0.0111356	7
	34	47	397.9953	5606.672	-4968.17	1	7491.161	-41.54471	4.90453E-009	-0.0109391	7
	35	49	315.5048	5918.25	-6048.017	1	8461.927	-45.62131	5.819322E-009	-0.0109423	7
	36	50	252.4038	6305.478	-7306.766	1	9651.31	-49.20698	5.632545E-009	-0.0109444	7
	37	51	198.6229	6852.852	-8943.002	1	11266.71	-52.53774	1.024826E-009	-0.0110031	6
	38	53	158.3615	7536.458	-10805.07	1	13173.75	-55.10451	1.113193E-009	-0.011008	6
	39	54	125.558	8451.02	-13071.36	1	15565.35	-57.11614	1.482608E-009	-0.0110042	6
	40	55	100.4464	9594.9	-15632.05	1	18341.84	-58.45855	-2.555438E-011	-0.0110086	6
	41	57	79.00281	11237.62	-18849.61	1	21945.2	-59.19777	1.660189E-010	-0.0110084	6
	42	58	63.3446	13083.96	-22295.26	1	25850.89	-59.59348	1.686871E-009	-0.0110079	6
	43	60	49.86702	15629.07	-26200.71	1	30508.12	-59.18336	1.337748E-009	-0.0110115	6
	44	61	39.72458	18685.93	-30709.63	1	35947.81	-58.68068	1.282663E-009	-0.0110034	6
	45	62	31.6723	22362.2	-35689.56	1	42116.65	-57.92976	4.545993E-010	-0.0110076	6
	46	64	24.93351	26985.46	-41379.13	1	49400.89	-56.88956	-6.274264E-011	-0.0110089	6
	47	65	19.86229	32166.37	-47316.65	1	57214.87	-55.79171	2.532823E-009	-0.0109966	6
	48	66	15.83615	38016.9	-53616.72	1	65726.99	-54.66148	5.689E-010	-0.0110038	6
	49	68	12.40079	45720.77	-61658.79	1	76760.64	-53.4426	-9.479867E-011	-0.0110059	6
	50	69	9.93114	53379.84	-68837.97	1	87109.55	-52.2085	2.415858E-009	-0.0110055	6
	51	71	7.944915	62082.08	-77143.69	1	99021.9	-51.17431	-4.528287E-010	-0.0110044	6
	52	73	6.317385	71857.71	-86305.43	1	112303.9	-50.21931	1.367482E-009	-0.0110144	5
	53	75	5.008013	83088.27	-96668.4	1	127469.4	-49.32034	6.346633E-010	-0.0109957	5
	54	77	3.945707	95777.6	-108487.7	1	144716.7	-48.56054	-3.261637E-010	-0.0110066	5
	55	80	3.158693	108642.2	-120596.2	1	162316.3	-47.98507	1.234545E-009	-0.0109908	5
	56	83	2.504006	123211.4	-134871.1	1	182678	-47.58675	-4.983164E-010	-0.0110038	5
	57	86	1.998082	138413.7	-150173.9	1	204231.6	-47.33357	3.99208E-010	-0.0110396	5
	58	89	1.584686	154859.1	-168455.3	1	228819.8	-47.40801	8.260043E-010	-0.0109721	5
	59	92	1.266892	172144.5	-188842.1	1	255529	-47.64836	6.702342E-010	-0.0110347	5
	60	97	0.999041	193553.4	-214033.8	1	288571.3	-47.87657	1.556974E-009	-0.0109658	5
