EXPLAIN
TAG	EISPOT
TITLE	LABEL	Potentiostatic EIS	Test &Identifier
DATE	LABEL	6/14/2020	Date
TIME	LABEL	20:41:24	Time
NOTES	NOTES	1	&Notes...
	
PSTAT	PSTAT	REF600-10037	Potentiostat
VDC	POTEN	0.00000E+000	T	DC &Voltage (V)
FREQINIT	QUANT	1.00000E+006	Initial Fre&q. (Hz)
FREQFINAL	QUANT	1.00000E+000	Final Fre&q. (Hz)
PTSPERDEC	QUANT	1.00000E+001	Points/&decade
VAC	QUANT	2.50000E+001	AC &Voltage (mV rms)
AREA	QUANT	2.50000E-001	&Area (cm^2)
CONDIT	TWOPARAM	F	5.00000E+000	0.00000E+000	Conditionin&g	Time(s)	E(V)
DELAY	TWOPARAM	F	3.00000E+000	0.00000E+000	Init. De&lay	Time(s)	Stab.(mV/s)
SPEED	SELECTOR	0	&Optimize for:
ZGUESS	QUANT	1.00000E+003	E&stimated Z (ohms)
OCVCURVE	TABLE	39
	Pt	T	Vf	Vm	Ach	Over
	#	s	V vs. Ref.	V	V	bits
	0	0.258333	-8.82443E-002	-8.82443E-002	5.51054E-004	...........
	1	0.516667	-8.82457E-002	-8.83187E-002	5.49787E-004	...........
	2	0.775	-8.82543E-002	-8.83832E-002	5.49354E-004	...........
	3	1.03333	-8.82784E-002	-8.84475E-002	5.43154E-004	...........
	4	1.29167	-8.83208E-002	-8.85051E-002	5.43154E-004	...........
	5	1.55	-8.83762E-002	-8.85588E-002	5.42620E-004	...........
	6	1.80833	-8.84366E-002	-8.86099E-002	5.47187E-004	...........
	7	2.06667	-8.84959E-002	-8.86609E-002	5.47554E-004	...........
	8	2.325	-8.85521E-002	-8.87084E-002	5.49987E-004	...........
	9	2.58333	-8.86049E-002	-8.87526E-002	5.49654E-004	...........
	10	2.84167	-8.86551E-002	-8.87995E-002	5.48287E-004	...........
	11	3.1	-8.87031E-002	-8.88398E-002	5.48254E-004	...........
	12	3.35833	-8.87491E-002	-8.88793E-002	5.55054E-004	...........
	13	3.61667	-8.87931E-002	-8.89162E-002	5.43487E-004	...........
	14	3.875	-8.88351E-002	-8.89549E-002	5.48387E-004	...........
	15	4.13333	-8.88751E-002	-8.89936E-002	5.51720E-004	...........
	16	4.39167	-8.89138E-002	-8.90284E-002	5.49220E-004	...........
	17	4.65	-8.89517E-002	-8.90607E-002	5.50820E-004	...........
	18	4.90833	-8.89886E-002	-8.90978E-002	5.54387E-004	...........
	19	5.16667	-8.90244E-002	-8.91274E-002	5.50720E-004	...........
	20	5.425	-8.90590E-002	-8.91607E-002	5.49787E-004	...........
	21	5.68333	-8.90927E-002	-8.91915E-002	5.54087E-004	...........
	22	5.94167	-8.91254E-002	-8.92209E-002	5.54720E-004	...........
	23	6.2	-8.91574E-002	-8.92555E-002	5.56254E-004	...........
	24	6.45833	-8.91888E-002	-8.92841E-002	5.52387E-004	...........
	25	6.71667	-8.92201E-002	-8.93133E-002	5.47720E-004	...........
	26	6.975	-8.92510E-002	-8.93449E-002	5.51020E-004	...........
	27	7.23333	-8.92815E-002	-8.93695E-002	5.53287E-004	...........
	28	7.49167	-8.93112E-002	-8.93987E-002	5.54887E-004	...........
	29	7.75	-8.93403E-002	-8.94307E-002	5.54620E-004	...........
	30	8.00833	-8.93689E-002	-8.94562E-002	5.51220E-004	...........
	31	8.26667	-8.93975E-002	-8.94811E-002	5.45720E-004	...........
	32	8.525	-8.94258E-002	-8.95101E-002	5.49087E-004	...........
	33	8.78333	-8.94533E-002	-8.95316E-002	5.49687E-004	...........
	34	9.04167	-8.94799E-002	-8.95573E-002	5.46787E-004	...........
	35	9.3	-8.95058E-002	-8.95891E-002	5.48420E-004	...........
	36	9.5583	-8.95315E-002	-8.96118E-002	5.50454E-004	...........
	37	9.8167	-8.95575E-002	-8.96327E-002	5.55387E-004	...........
	38	10.075	-8.95835E-002	-8.96628E-002	5.53354E-004	...........
EOC	QUANT	-0.0895835	Open Circuit (V)
PSTATMODEL	IQUANT	4	Pstat Model
PSTATSECTION	LABEL	REF600-10037	Pstat Section
PSTATSERIALNO	LABEL	10037	Pstat Serial Number
CTRLMODE	IQUANT	1	Control Mode
IESTAB	IQUANT	0	I/E Stability
CASPEED	IQUANT	1	Control Amp Speed
CONVENTION	IQUANT	1	Current Convention
ICHRANGE	IQUANT	2	Ich Range
ICHRANGEMODE	TOGGLE	F	Ich Auto Range
ICHOFFSETENABLE	TOGGLE	T	Ich Offset Enable
ICHOFFSET	QUANT	0	Ich Offset (V)
ICHFILTER	IQUANT	3	Ich Filter
VCHRANGE	IQUANT	2	Vch Range
VCHRANGEMODE	TOGGLE	F	Vch Auto Range
VCHOFFSETENABLE	TOGGLE	T	Vch Offset Enable
VCHOFFSET	QUANT	0	Vch Offset (V)
VCHFILTER	IQUANT	3	Vch Filter
ACHRANGE	IQUANT	2	Ach Range
ACHOFFSETENABLE	TOGGLE	F	Ach Offset Enable
ACHOFFSET	QUANT	0	Ach Offset (V)
ACHFILTER	IQUANT	3	Ach Filter
IERANGELOWERLIMIT	IQUANT	1	I/E Range Lower Limit
IERANGEMODE	TOGGLE	F	I/E AutoRange
IERANGE	IQUANT	8	I/E Range
POSFEEDENABLE	TOGGLE	F	Positive Feedback IR Comp
POSFEEDRESISTANCE	QUANT	0	Positive Feedback Resistance (ohm)
ACHSELECT	IQUANT	0	Ach Select
CABLEID	IQUANT	14	Cable ID
DCCALDATE	LABEL	6/8/2020	DC Calibration Date
ACCALDATE	LABEL	6/8/2020	AC Calibration Date
THERMOSELECT	IQUANT	1	Thermo Select
FRAMEWORKVERSION	QUANT	6.33	Framework Version
INSTRUMENTVERSION	LABEL	3.50	Instrument Version
ZCURVE	TABLE
	Pt	Time	Freq	Zreal	Zimag	Zsig	Zmod	Zphz	Idc	Vdc	IERange
	#	s	Hz	ohm	ohm	V	ohm	°	A	V	#
	0	1	1000078	2198.122	-1925.773	1	2922.386	-41.22158	-3.788908E-008	-0.0803896	8
	1	1	794390.6	2579.822	-1995.245	1	3261.363	-37.71852	9.521834E-008	-0.0805962	8
	2	2	630984.4	2975.396	-2009.453	1	3590.388	-34.03338	2.71232E-007	-0.080749	8
	3	2	501234.4	3353.586	-1969.761	1	3889.28	-30.42825	1.55857E-007	-0.0808439	8
	4	2	398109.4	3703.752	-1890.856	1	4158.5	-27.04543	-1.90955E-007	-0.0809037	8
	5	3	316265.6	4013.071	-1778.083	1	4389.341	-23.89684	-9.574182E-008	-0.0808871	8
	6	3	251203.1	4277.461	-1652.73	1	4585.65	-21.12558	6.27678E-008	-0.0809104	8
	7	3	199546.9	4507.857	-1534.901	1	4762.006	-18.80343	-1.051799E-007	-0.0808761	8
	8	4	158578.1	4696.553	-1433.79	1	4910.536	-16.97668	3.945376E-007	-0.0809052	8
	9	4	125953.1	4975.715	-1151.382	1	5107.193	-13.02895	1.734981E-007	-0.0810103	7
	10	4	100078.1	5096.808	-1114.343	1	5217.204	-12.33282	-5.179327E-008	-0.0808106	7
	11	5	79453.13	5213.895	-1103.042	1	5329.296	-11.94526	-3.698181E-008	-0.0809113	7
	12	5	63140.62	5329.359	-1109.569	1	5443.64	-11.76093	3.299175E-008	-0.0809996	7
	13	5	50203.12	5446.464	-1135.488	1	5563.569	-11.77643	-3.586607E-008	-0.0809199	7
	14	6	39890.62	5566.254	-1182.943	1	5690.565	-11.99803	-1.568993E-008	-0.0809574	7
	15	6	31640.63	5694.97	-1250.009	1	5830.541	-12.37974	1.103712E-008	-0.080982	7
	16	6	25171.88	5827.039	-1339.515	1	5979.02	-12.94619	6.504138E-008	-0.0810067	7
	17	6	20015.62	5974.288	-1450.357	1	6147.816	-13.64551	-4.597396E-008	-0.0808294	7
	18	7	15890.62	6132.229	-1590.096	1	6335.032	-14.53672	5.475322E-008	-0.080938	7
	19	7	12609.37	6307.222	-1755.84	1	6547.063	-15.55644	1.02162E-008	-0.0809739	7
	20	7	10078.13	6495.083	-1944.602	1	6779.939	-16.66749	-7.123351E-009	-0.0808563	7
	21	8	8015.625	6707.831	-2172.757	1	7050.948	-17.94784	-1.46825E-008	-0.0809499	7
	22	8	6328.125	6951.985	-2447.623	1	7370.275	-19.39591	5.666254E-008	-0.0809999	7
	23	8	5015.625	7218.462	-2760.715	1	7728.373	-20.92945	-6.493737E-009	-0.08086	7
	24	9	3984.375	7518.219	-3125.109	1	8141.863	-22.57126	-5.728395E-008	-0.0808806	7
	25	9	3170.956	7849.434	-3538.519	1	8610.152	-24.26581	-4.177214E-008	-0.0808409	7
	26	9	2527.573	8220.924	-4016.37	1	9149.58	-26.03803	-6.413881E-009	-0.0808583	7
	27	10	1976.103	8712.082	-4563.664	1	9835.01	-27.64697	1.050679E-008	-0.0810056	6
	28	10	1577.524	9182.686	-5215.889	1	10560.64	-29.59716	7.054324E-009	-0.0809294	6
	29	10	1265.625	9702.87	-5948.907	1	11381.35	-31.51279	7.437804E-009	-0.0809267	6
	30	11	998.264	10339.72	-6860.701	1	12408.83	-33.56542	9.874805E-009	-0.0809742	6
	31	11	796.875	11023.7	-7860.936	1	13539.43	-35.49245	3.914379E-009	-0.0810543	6
	32	11	627.7902	11857.3	-9090.082	1	14940.72	-37.47462	5.942535E-009	-0.0810449	6
	33	12	505.5147	12711.28	-10374.4	1	16407.46	-39.21983	-6.323805E-009	-0.0809263	6
	34	12	397.9953	13775.55	-12016.11	1	18279.84	-41.09748	7.031226E-010	-0.080903	6
	35	12	315.5048	14948.48	-13879.06	1	20398.18	-42.87547	7.338807E-010	-0.0809054	6
	36	12	252.4038	16211.77	-15962.64	1	22751.43	-44.55637	7.359903E-010	-0.080906	6
	37	13	198.6229	17734.22	-18587.21	1	25690.21	-46.34531	8.297658E-010	-0.0809059	6
	38	13	158.3615	19345.73	-21521.59	1	28938.49	-48.04768	7.943429E-010	-0.0809126	6
	39	13	125.558	21192.42	-25080.03	1	32834.84	-49.80245	8.46235E-010	-0.0809104	6
	40	14	100.4464	23180.21	-29150.2	1	37243.2	-51.50832	8.269301E-010	-0.0809168	6
	41	14	79.00281	25598.25	-34415.41	1	42891.62	-53.35806	6.686847E-010	-0.0809094	6
	42	14	63.3446	28093.43	-40268.79	1	49100.07	-55.09853	5.505929E-010	-0.0809134	6
	43	15	49.86702	31274.04	-47893.91	1	57200.45	-56.85603	6.062911E-010	-0.0809142	6
	44	15	39.72458	34882.95	-56723.16	1	66590.82	-58.4098	6.521995E-010	-0.0809074	6
	45	15	31.6723	39200.87	-67342.3	1	77921.07	-59.79573	6.188872E-010	-0.0809098	6
	46	16	24.93351	44823.5	-80823.41	1	92420.61	-60.98788	3.26161E-010	-0.0809127	6
	47	16	19.86229	51317.88	-95835.6	1	108710.5	-61.83191	-5.044499E-009	-0.0895496	5
	48	17	15.83615	59656.72	-113838.8	1	128523.1	-62.34341	-3.502646E-009	-0.0895517	5
	49	17	12.40079	71288.43	-136770.1	1	154233.9	-62.47021	-2.447059E-009	-0.0895475	5
	50	17	9.93114	84758.26	-160987.5	1	181936.6	-62.23365	-1.922977E-009	-0.0895495	5
	51	18	7.944915	101493.6	-188611.8	1	214185.4	-61.71494	-1.536432E-009	-0.0895468	5
	52	18	6.317385	122779.1	-220329.6	1	252229.7	-60.87118	-9.92563E-010	-0.0895425	5
	53	19	5.008013	148526.3	-256131.5	1	296080.1	-59.89128	-6.948236E-010	-0.0895413	5
	54	20	3.945707	179800.3	-296776.9	1	346993.8	-58.79071	-5.22683E-010	-0.089545	5
	55	21	3.158693	213231.4	-338577.3	1	400127.8	-57.79783	-4.177806E-010	-0.0895443	5
	56	22	2.504006	253503.8	-387196.8	1	462801.8	-56.78661	-2.858023E-010	-0.0895474	5
	57	24	1.998082	295984.7	-439681.5	1	530025.3	-56.05236	-2.246616E-010	-0.0895482	5
	58	26	1.584686	344308.6	-500591.8	1	607569.4	-55.47969	-1.414674E-010	-0.0895443	5
	59	29	1.266892	395685.1	-568147.1	1	692356.8	-55.14478	-9.390642E-011	-0.0895411	5
	60	32	0.999041	455652.3	-651025.5	1	794640.3	-55.01185	-8.522449E-011	-0.0895446	5
