EXPLAIN
TAG	EISPOT
TITLE	LABEL	Potentiostatic EIS	Test &Identifier
DATE	LABEL	3/20/2020	Date
TIME	LABEL	15:08:17	Time
NOTES	NOTES	1	&Notes...
	
PSTAT	PSTAT	REF600-11020	Potentiostat
VDC	POTEN	0.00000E+000	T	DC &Voltage (V)
FREQINIT	QUANT	1.00000E+006	Initial Fre&q. (Hz)
FREQFINAL	QUANT	1.00000E+000	Final Fre&q. (Hz)
PTSPERDEC	QUANT	1.00000E+001	Points/&decade
VAC	QUANT	2.50000E+001	AC &Voltage (mV rms)
AREA	QUANT	4.00000E-004	&Area (cm^2)
CONDIT	TWOPARAM	F	5.00000E+000	0.00000E+000	Conditionin&g	Time(s)	E(V)
DELAY	TWOPARAM	T	3.00000E+000	0.00000E+000	Init. De&lay	Time(s)	Stab.(mV/s)
SPEED	SELECTOR	0	&Optimize for:
ZGUESS	QUANT	1.00000E+003	E&stimated Z (ohms)
OCVCURVE	TABLE	12
	Pt	T	Vf	Vm	Ach	Over
	#	s	V vs. Ref.	V	V	bits
	0	0.258333	5.18440E-002	5.18440E-002	5.76530E-004	...........
	1	0.516667	5.18438E-002	5.18322E-002	5.84263E-004	...........
	2	0.775	5.18415E-002	5.17727E-002	5.73330E-004	...........
	3	1.03333	5.18329E-002	5.17710E-002	5.81163E-004	...........
	4	1.29167	5.18171E-002	5.18069E-002	5.83397E-004	...........
	5	1.55	5.18028E-002	5.18965E-002	5.80663E-004	...........
	6	1.80833	5.18134E-002	5.23685E-002	5.72797E-004	...........
	7	2.06667	5.18789E-002	5.22179E-002	5.83497E-004	...........
	8	2.325	5.19942E-002	5.20132E-002	5.72497E-004	...........
	9	2.58333	5.20955E-002	5.19971E-002	5.73230E-004	...........
	10	2.84167	5.21245E-002	5.19568E-002	5.76563E-004	...........
	11	3.1	5.20845E-002	5.17517E-002	5.81530E-004	...........
EOC	QUANT	0.0520845	Open Circuit (V)
PSTATMODEL	IQUANT	4	Pstat Model
PSTATSECTION	LABEL	REF600-11020	Pstat Section
PSTATSERIALNO	LABEL	11020	Pstat Serial Number
CTRLMODE	IQUANT	1	Control Mode
IESTAB	IQUANT	0	I/E Stability
CASPEED	IQUANT	1	Control Amp Speed
CONVENTION	IQUANT	1	Current Convention
ICHRANGE	IQUANT	2	Ich Range
ICHRANGEMODE	TOGGLE	F	Ich Auto Range
ICHOFFSETENABLE	TOGGLE	T	Ich Offset Enable
ICHOFFSET	QUANT	0	Ich Offset (V)
ICHFILTER	IQUANT	3	Ich Filter
VCHRANGE	IQUANT	2	Vch Range
VCHRANGEMODE	TOGGLE	F	Vch Auto Range
VCHOFFSETENABLE	TOGGLE	T	Vch Offset Enable
VCHOFFSET	QUANT	0	Vch Offset (V)
VCHFILTER	IQUANT	3	Vch Filter
ACHRANGE	IQUANT	2	Ach Range
ACHOFFSETENABLE	TOGGLE	F	Ach Offset Enable
ACHOFFSET	QUANT	0	Ach Offset (V)
ACHFILTER	IQUANT	3	Ach Filter
IERANGELOWERLIMIT	IQUANT	1	I/E Range Lower Limit
IERANGEMODE	TOGGLE	F	I/E AutoRange
IERANGE	IQUANT	7	I/E Range
POSFEEDENABLE	TOGGLE	F	Positive Feedback IR Comp
POSFEEDRESISTANCE	QUANT	0	Positive Feedback Resistance (ohm)
ACHSELECT	IQUANT	0	Ach Select
CABLEID	IQUANT	14	Cable ID
DCCALDATE	LABEL	2/27/2020	DC Calibration Date
ACCALDATE	LABEL	2/27/2020	AC Calibration Date
THERMOSELECT	IQUANT	1	Thermo Select
FRAMEWORKVERSION	QUANT	6.33	Framework Version
INSTRUMENTVERSION	LABEL	3.50	Instrument Version
ZCURVE	TABLE
	Pt	Time	Freq	Zreal	Zimag	Zsig	Zmod	Zphz	Idc	Vdc	IERange
	#	s	Hz	ohm	ohm	V	ohm	°	A	V	#
	0	1	1000078	1811.705	-1384.844	1	2280.366	-37.39383	3.762718E-007	0.0542617	8
	1	1	794390.6	2056.773	-1410.567	1	2493.996	-34.44294	-4.130085E-007	0.0540941	8
	2	2	630984.4	2302.102	-1415.785	1	2702.614	-31.59138	1.261541E-007	0.0538938	8
	3	2	501234.4	2538.31	-1404.831	1	2901.132	-28.96239	4.935401E-007	0.0537126	8
	4	2	398109.4	2764.891	-1382.339	1	3091.194	-26.56329	2.031821E-007	0.0536945	8
	5	3	316265.6	2979.37	-1349.171	1	3270.613	-24.36282	5.335137E-007	0.0536474	8
	6	3	251203.1	3180.546	-1311.473	1	3440.325	-22.40841	8.237708E-009	0.0536865	8
	7	3	199546.9	3371.091	-1280.978	1	3606.267	-20.80624	-2.055098E-007	0.0537238	8
	8	4	158578.1	3547.875	-1245.536	1	3760.156	-19.34442	1.763471E-008	0.0536883	8
	9	4	125953.1	3758.489	-1157.292	1	3932.628	-17.11434	1.198173E-007	0.0534384	7
	10	4	100078.1	3902.5	-1140.151	1	4065.643	-16.2862	1.790809E-010	0.0536079	7
	11	5	79453.13	4054.825	-1140.483	1	4212.162	-15.70946	2.504397E-009	0.0536021	7
	12	5	63140.62	4205.463	-1146.245	1	4358.876	-15.24624	6.231502E-009	0.0536134	7
	13	5	50203.12	4354.368	-1158.937	1	4505.958	-14.90404	-1.158576E-009	0.0536146	7
	14	6	39890.62	4503.972	-1179.406	1	4655.831	-14.67395	2.788857E-009	0.0535998	7
	15	6	31640.63	4657.076	-1211.525	1	4812.084	-14.58211	2.671686E-009	0.053609	7
	16	6	25171.88	4810.874	-1252.778	1	4971.314	-14.59598	-1.76955E-009	0.0536052	7
	17	7	20015.62	4970.68	-1305.087	1	5139.154	-14.71136	-1.61481E-009	0.0536124	7
	18	7	15890.62	5137.999	-1369.125	1	5317.287	-14.92092	1.695066E-009	0.0536069	7
	19	7	12609.37	5310.69	-1443.082	1	5503.265	-15.20201	-1.067791E-009	0.053596	7
	20	7	10078.13	5486.291	-1527.491	1	5694.964	-15.55824	8.710102E-009	0.0535754	7
	21	8	8015.625	5671.866	-1627.757	1	5900.818	-16.01284	9.432075E-009	0.0535766	7
	22	8	6328.125	5870.606	-1749.453	1	6125.732	-16.59417	-9.228268E-010	0.053595	7
	23	8	5015.625	6070.43	-1891.815	1	6358.387	-17.30935	-1.411794E-009	0.0535925	7
	24	9	3984.375	6276.592	-2060.974	1	6606.301	-18.17805	2.531085E-009	0.0536016	7
	25	9	3170.956	6482.095	-2258.671	1	6864.339	-19.21077	3.756722E-009	0.0535784	7
	26	9	2527.573	6693.431	-2497.535	1	7144.208	-20.46217	-8.679604E-010	0.053586	7
	27	10	1976.103	6931.148	-2822.077	1	7483.645	-22.15412	2.998658E-009	0.0535997	7
	28	10	1577.524	7151.063	-3182.698	1	7827.341	-23.99224	3.535602E-009	0.053594	7
	29	10	1265.625	7371.867	-3616.559	1	8211.207	-26.13208	7.505329E-010	0.0535904	7
	30	11	998.264	7611.027	-4194.805	1	8690.461	-28.86128	7.095356E-010	0.0535769	7
	31	11	796.875	7851.444	-4890.196	1	9249.821	-31.91631	4.392283E-009	0.0535739	7
	32	11	627.7902	8127.185	-5803.314	1	9986.47	-35.52919	-3.97665E-010	0.053628	6
	33	12	505.5147	8398.286	-6842.189	1	10832.67	-39.17014	-3.041178E-010	0.053653	6
	34	12	397.9953	8731.403	-8268.908	1	12025.48	-43.44165	5.566521E-010	0.053654	6
	35	12	315.5048	9106.619	-9997.61	1	13523.42	-47.67026	6.094811E-010	0.053651	6
	36	13	252.4038	9532.73	-12051.66	1	15366.05	-51.65638	6.215912E-010	0.0536452	6
	37	13	198.6229	10085.19	-14783.3	1	17895.73	-55.69814	5.836912E-010	0.0536474	6
	38	13	158.3615	10726.41	-17978.54	1	20935.23	-59.17873	5.395027E-010	0.0536465	6
	39	14	125.558	11547.24	-22008.89	1	24854.17	-62.31569	4.736303E-010	0.0536493	6
	40	14	100.4464	12540.32	-26760.02	1	29552.64	-64.89121	4.580455E-010	0.0536464	6
	41	14	79.00281	13901.64	-33041.72	1	35847.05	-67.18204	3.303115E-010	0.0536472	6
	42	15	63.3446	15494.99	-40151.76	1	43037.87	-68.89787	1.586703E-010	0.0536406	6
	43	15	49.86702	17745.49	-49512.35	1	52596.34	-70.28205	2.65317E-010	0.0536415	6
	44	15	39.72458	20562.27	-60387.91	1	63792.68	-71.19613	4.071251E-010	0.0536444	6
	45	16	31.6723	24193.96	-73509.98	1	77389.05	-71.78234	6.972863E-010	0.0536404	6
	46	16	24.93351	29248.67	-90333.95	1	94951.08	-72.05888	1.252513E-010	0.0536392	6
	47	16	19.86229	35628.28	-109620.3	1	115264.9	-71.99505	-6.06064E-010	0.0536445	5
	48	16	15.83615	44108.43	-132494.2	1	139643.3	-71.58696	1.090356E-010	0.0536449	5
	49	17	12.40079	56115.39	-162249	1	171679	-70.92155	-7.588355E-010	0.0536498	5
	50	17	9.93114	70630.24	-193946.1	1	206406.7	-69.98966	-7.268162E-010	0.053641	5
	51	17	7.944915	88928.07	-230739.8	1	247283.3	-68.92313	3.839674E-010	0.0536435	5
	52	18	6.317385	114317.2	-274058.4	1	296945.2	-67.35765	-2.136662E-010	0.0536577	5
	53	19	5.008013	146465	-323731.8	1	355322.8	-65.65671	-2.524711E-010	0.0536371	5
	54	20	3.945707	187691.7	-379742.3	1	423594.6	-63.69862	1.104489E-010	0.0536475	5
	55	20	3.158693	235052.6	-438147.8	1	497215.5	-61.78783	-1.783075E-010	0.0536377	5
	56	21	2.504006	293517.9	-501437.2	1	581026.7	-59.65729	7.285742E-011	0.0536339	5
	57	23	1.998082	359109	-567150.9	1	671281.9	-57.6588	2.342494E-010	0.0536764	5
	58	24	1.584686	433782.6	-636652.8	1	770385.7	-55.73149	1.557005E-010	0.0536433	5
	59	26	1.266892	515684.1	-707962.6	1	875865.9	-53.93018	9.277672E-011	0.0536053	5
	60	29	0.999041	609782.3	-792329.6	1	999810	-52.41787	1.678155E-011	0.0535906	4
