EXPLAIN
TAG	EISPOT
TITLE	LABEL	Potentiostatic EIS	Test &Identifier
DATE	LABEL	2/25/2020	Date
TIME	LABEL	14:36:48	Time
NOTES	NOTES	1	&Notes...
	
PSTAT	PSTAT	REF600-11020	Potentiostat
VDC	POTEN	0.00000E+000	T	DC &Voltage (V)
FREQINIT	QUANT	1.00000E+006	Initial Fre&q. (Hz)
FREQFINAL	QUANT	1.00000E+000	Final Fre&q. (Hz)
PTSPERDEC	QUANT	1.00000E+001	Points/&decade
VAC	QUANT	2.50000E+001	AC &Voltage (mV rms)
AREA	QUANT	1.60000E-004	&Area (cm^2)
CONDIT	TWOPARAM	F	1.50000E+001	0.00000E+000	Conditionin&g	Time(s)	E(V)
DELAY	TWOPARAM	F	1.00000E+002	0.00000E+000	Init. De&lay	Time(s)	Stab.(mV/s)
SPEED	SELECTOR	1	&Optimize for:
ZGUESS	QUANT	1.00000E+003	E&stimated Z (ohms)
OCVCURVE	TABLE	39
	Pt	T	Vf	Vm	Ach	Over
	#	s	V vs. Ref.	V	V	bits
	0	0.258333	7.66382E-002	7.66382E-002	5.57104E-004	...........
	1	0.516667	7.66338E-002	7.64058E-002	5.54704E-004	...........
	2	0.775	7.66160E-002	7.66789E-002	5.53038E-004	...........
	3	1.03333	7.65927E-002	7.67244E-002	5.50571E-004	...........
	4	1.29167	7.65876E-002	7.64502E-002	5.46705E-004	...........
	5	1.55	7.65927E-002	7.63648E-002	5.51338E-004	...........
	6	1.80833	7.65637E-002	7.60802E-002	5.50505E-004	...........
	7	2.06667	7.64664E-002	7.56951E-002	5.51771E-004	...........
	8	2.325	7.62920E-002	7.54549E-002	5.58371E-004	...........
	9	2.58333	7.60574E-002	7.55108E-002	5.54271E-004	...........
	10	2.84167	7.58152E-002	7.54151E-002	5.53405E-004	...........
	11	3.1	7.56212E-002	7.52601E-002	5.51505E-004	...........
	12	3.35833	7.54889E-002	7.53425E-002	5.52105E-004	...........
	13	3.61667	7.54116E-002	7.58303E-002	5.55204E-004	...........
	14	3.875	7.54106E-002	7.58606E-002	5.52238E-004	...........
	15	4.13333	7.55066E-002	7.60908E-002	5.53671E-004	...........
	16	4.39167	7.56698E-002	7.60380E-002	5.59538E-004	...........
	17	4.65	7.58351E-002	7.59245E-002	5.58038E-004	...........
	18	4.90833	7.59346E-002	7.53265E-002	5.54738E-004	...........
	19	5.16667	7.58898E-002	7.40719E-002	5.54038E-004	...........
	20	5.425	7.56011E-002	7.29315E-002	5.55204E-004	...........
	21	5.68333	7.50276E-002	7.32590E-002	5.58038E-004	...........
	22	5.94167	7.43223E-002	7.39460E-002	5.59804E-004	...........
	23	6.2	7.37905E-002	7.42427E-002	5.60638E-004	...........
	24	6.45833	7.36332E-002	7.45943E-002	5.60904E-004	...........
	25	6.71667	7.38005E-002	7.46023E-002	5.49071E-004	...........
	26	6.975	7.41036E-002	7.47572E-002	5.62138E-004	...........
	27	7.23333	7.43896E-002	7.50049E-002	5.60571E-004	...........
	28	7.49167	7.46148E-002	7.52686E-002	5.59604E-004	...........
	29	7.75	7.48151E-002	7.56889E-002	5.57504E-004	...........
	30	8.00833	7.50466E-002	7.62946E-002	5.51705E-004	...........
	31	8.26667	7.53488E-002	7.65010E-002	5.55138E-004	...........
	32	8.525	7.57201E-002	7.69928E-002	5.56238E-004	...........
	33	8.78333	7.61164E-002	7.69249E-002	5.54238E-004	...........
	34	9.04167	7.64683E-002	7.66664E-002	5.52138E-004	...........
	35	9.3	7.66957E-002	7.63250E-002	5.57838E-004	...........
	36	9.5583	7.67362E-002	7.57331E-002	5.55804E-004	...........
	37	9.8167	7.65635E-002	7.46563E-002	5.52871E-004	...........
	38	10.075	7.61622E-002	7.35871E-002	5.53071E-004	...........
EOC	QUANT	0.0761622	Open Circuit (V)
PSTATMODEL	IQUANT	4	Pstat Model
PSTATSECTION	LABEL	REF600-11020	Pstat Section
PSTATSERIALNO	LABEL	11020	Pstat Serial Number
CTRLMODE	IQUANT	1	Control Mode
IESTAB	IQUANT	0	I/E Stability
CASPEED	IQUANT	1	Control Amp Speed
CONVENTION	IQUANT	1	Current Convention
ICHRANGE	IQUANT	2	Ich Range
ICHRANGEMODE	TOGGLE	F	Ich Auto Range
ICHOFFSETENABLE	TOGGLE	T	Ich Offset Enable
ICHOFFSET	QUANT	0	Ich Offset (V)
ICHFILTER	IQUANT	3	Ich Filter
VCHRANGE	IQUANT	2	Vch Range
VCHRANGEMODE	TOGGLE	F	Vch Auto Range
VCHOFFSETENABLE	TOGGLE	T	Vch Offset Enable
VCHOFFSET	QUANT	0	Vch Offset (V)
VCHFILTER	IQUANT	3	Vch Filter
ACHRANGE	IQUANT	2	Ach Range
ACHOFFSETENABLE	TOGGLE	F	Ach Offset Enable
ACHOFFSET	QUANT	0	Ach Offset (V)
ACHFILTER	IQUANT	3	Ach Filter
IERANGELOWERLIMIT	IQUANT	1	I/E Range Lower Limit
IERANGEMODE	TOGGLE	F	I/E AutoRange
IERANGE	IQUANT	8	I/E Range
POSFEEDENABLE	TOGGLE	F	Positive Feedback IR Comp
POSFEEDRESISTANCE	QUANT	0	Positive Feedback Resistance (ohm)
ACHSELECT	IQUANT	0	Ach Select
CABLEID	IQUANT	14	Cable ID
DCCALDATE	LABEL	1/27/2020	DC Calibration Date
ACCALDATE	LABEL	1/27/2020	AC Calibration Date
THERMOSELECT	IQUANT	1	Thermo Select
FRAMEWORKVERSION	QUANT	6.33	Framework Version
INSTRUMENTVERSION	LABEL	3.50	Instrument Version
ZCURVE	TABLE
	Pt	Time	Freq	Zreal	Zimag	Zsig	Zmod	Zphz	Idc	Vdc	IERange
	#	s	Hz	ohm	ohm	V	ohm	°	A	V	#
	0	2	1000078	1630.464	-2274.391	1	2798.44	-54.36405	2.018693E-006	0.0782918	8
	1	3	794390.6	2061.273	-2520.152	1	3255.766	-50.71972	1.112579E-006	0.0778964	8
	2	4	630984.4	2554.499	-2704.193	1	3719.963	-46.63054	-1.670537E-007	0.0781863	8
	3	6	501234.4	3080.032	-2833.448	1	4185.096	-42.61223	6.499349E-008	0.0779807	8
	4	7	398109.4	3642.819	-2889.506	1	4649.664	-38.42166	1.297412E-006	0.0776307	8
	5	8	316265.6	4188.421	-2848.008	1	5064.979	-34.21459	2.495495E-009	0.0779459	8
	6	10	251203.1	4705.397	-2775.994	1	5463.232	-30.53889	-9.34079E-007	0.0780385	8
	7	11	199546.9	5190.394	-2607.18	1	5808.406	-26.67078	2.300086E-006	0.0774721	8
	8	13	158578.1	5630.621	-2440.272	1	6136.678	-23.43157	-4.87934E-008	0.0777831	8
	9	14	125953.1	6017.302	-2220.795	1	6414.036	-20.25751	2.891223E-007	0.0774016	7
	10	15	100078.1	6327.354	-2022.618	1	6642.77	-17.72713	9.264308E-009	0.0777795	7
	11	17	79453.13	6600.23	-1839.954	1	6851.896	-15.57694	-8.773922E-009	0.0777611	7
	12	18	63140.62	6808.794	-1681.995	1	7013.472	-13.87612	-1.753432E-008	0.0778139	7
	13	19	50203.12	6992.501	-1542.686	1	7160.653	-12.4413	6.441527E-008	0.0776843	7
	14	21	39890.62	7151.907	-1432.733	1	7294.004	-11.32805	4.38659E-008	0.0777013	7
	15	22	31640.63	7290.976	-1352.093	1	7415.287	-10.50601	-1.101345E-008	0.0778327	7
	16	23	25171.88	7412.735	-1304.855	1	7526.705	-9.98343	-1.066014E-008	0.0778335	7
	17	25	20015.62	7523.811	-1286.449	1	7633	-9.70282	4.497878E-009	0.0777326	7
	18	26	15890.62	7635.777	-1303.46	1	7746.231	-9.68726	-1.455316E-008	0.0778055	7
	19	28	12609.37	7742.669	-1351.171	1	7859.681	-9.89899	-1.044994E-008	0.077758	7
	20	29	10078.13	7851.772	-1434.981	1	7981.823	-10.35701	2.760555E-008	0.0777261	7
	21	30	8015.625	7964.289	-1557.836	1	8115.217	-11.06747	1.012177E-008	0.0777232	7
	22	32	6328.125	8088.727	-1733.73	1	8272.443	-12.09768	3.953585E-009	0.0777235	7
	23	33	5015.625	8221.799	-1953.581	1	8450.707	-13.36618	9.449324E-009	0.077719	7
	24	34	3984.375	8369.22	-2232.345	1	8661.824	-14.93495	3.483372E-009	0.0777255	7
	25	36	3170.956	8530.555	-2572.123	1	8909.893	-16.77905	-1.435142E-008	0.077776	7
	26	37	2527.573	8718.229	-2984.206	1	9214.825	-18.89581	4.001524E-009	0.0776578	6
	27	38	1976.103	8951.003	-3545.724	1	9627.7	-21.6098	-8.081529E-010	0.0777087	6
	28	40	1577.524	9190.747	-4168.557	1	10091.91	-24.39715	-2.146598E-009	0.0777638	6
	29	41	1265.625	9464.905	-4904.063	1	10659.94	-27.39009	1.599354E-009	0.0777906	6
	30	43	998.264	9815.46	-5862.102	1	11432.74	-30.84699	-2.468402E-009	0.0777635	6
	31	44	796.875	10203.65	-6960.242	1	12351.5	-34.29916	-2.942289E-009	0.0777971	6
	32	45	627.7902	10691.42	-8363.695	1	13574.16	-38.0354	-2.618725E-009	0.0777992	6
	33	47	505.5147	11210.51	-9900.17	1	14956.23	-41.44821	8.443728E-009	0.0776143	6
	34	48	397.9953	11895.02	-11940.44	1	16854.25	-45.10917	1.030791E-009	0.077774	6
	35	49	315.5048	12697.51	-14351.88	1	19162.55	-48.49993	7.885386E-010	0.0777719	6
	36	51	252.4038	13625.1	-17145.06	1	21899.69	-51.526	1.276568E-009	0.0777678	6
	37	52	198.6229	14844.08	-20770.04	1	25529.22	-54.44709	9.212499E-010	0.0777705	6
	38	54	158.3615	16269	-24917.44	1	29758.35	-56.85883	1.178677E-009	0.0777706	6
	39	55	125.558	18088.95	-30023.1	1	35051.34	-58.93099	1.024365E-009	0.0777685	6
	40	56	100.4464	20240.26	-35912.22	1	41223.24	-60.59423	1.376694E-009	0.0777642	6
	41	58	79.00281	23143.73	-43461.27	1	49239.36	-61.96408	5.053762E-010	0.0777617	6
	42	59	63.3446	26333.8	-51382.82	1	57737.89	-62.86477	1.130455E-009	0.0777679	6
	43	60	49.86702	31725.5	-62432.65	1	70031.02	-63.06234	1.145302E-009	0.0777597	6
	44	62	39.72458	37062.79	-74167.74	1	82912.63	-63.44798	4.994797E-010	0.0777653	6
	45	63	31.6723	44275.54	-87810.58	1	98341.4	-63.24201	6.98041E-010	0.077768	6
	46	65	24.93351	53433.79	-104573.6	1	117434.2	-62.9344	-2.524754E-010	0.0777584	5
	47	66	19.86229	64349.03	-122991.3	1	138808	-62.38145	8.228136E-010	0.077765	5
	48	67	15.83615	78226.36	-144281.7	1	164123.6	-61.53442	-2.652339E-010	0.0777633	5
	49	69	12.40079	97212.2	-167841.5	1	193961.3	-59.92099	1.140326E-009	0.0777564	5
	50	70	9.93114	116566.5	-194227	1	226521.3	-59.02967	3.175509E-010	0.0777579	5
	51	72	7.944915	140227.7	-221276.7	1	261967.9	-57.63671	8.033181E-010	0.0777572	5
	52	74	6.317385	168885.8	-251984	1	303345.2	-56.16905	-1.515862E-010	0.0777817	5
	53	76	5.008013	201776.3	-285065.9	1	349250.9	-54.70825	6.716618E-011	0.0777602	5
	54	78	3.945707	239163	-321526	1	400721.8	-53.35676	4.852046E-010	0.0777721	5
	55	81	3.158693	277791.7	-359022.9	1	453944.6	-52.26932	-6.628222E-011	0.0777541	5
	56	84	2.504006	321215.8	-401987.5	1	514561.5	-51.37273	5.735332E-010	0.0777652	5
	57	87	1.998082	367060.2	-448467.1	1	579530.8	-50.70045	2.879162E-010	0.0777999	5
	58	90	1.584686	416440	-502429.7	1	652577.8	-50.34629	2.472703E-010	0.0777294	5
	59	94	1.266892	469801.3	-565057	1	734848.7	-50.25909	2.709795E-010	0.0777884	5
	60	98	0.999041	531713.9	-640840.2	1	832703.9	-50.31704	-6.806703E-011	0.0777241	5
