EXPLAIN
TAG	EISPOT
TITLE	LABEL	Potentiostatic EIS	Test &Identifier
DATE	LABEL	6/26/2020	Date
TIME	LABEL	12:59:49	Time
NOTES	NOTES	1	&Notes...
	
PSTAT	PSTAT	REF600-11020	Potentiostat
VDC	POTEN	0.00000E+000	T	DC &Voltage (V)
FREQINIT	QUANT	1.00000E+006	Initial Fre&q. (Hz)
FREQFINAL	QUANT	1.00000E+000	Final Fre&q. (Hz)
PTSPERDEC	QUANT	1.00000E+001	Points/&decade
VAC	QUANT	2.50000E+001	AC &Voltage (mV rms)
AREA	QUANT	4.00000E-004	&Area (cm^2)
CONDIT	TWOPARAM	F	5.00000E+000	0.00000E+000	Conditionin&g	Time(s)	E(V)
DELAY	TWOPARAM	F	3.00000E+000	0.00000E+000	Init. De&lay	Time(s)	Stab.(mV/s)
SPEED	SELECTOR	0	&Optimize for:
ZGUESS	QUANT	1.00000E+003	E&stimated Z (ohms)
OCVCURVE	TABLE	39
	Pt	T	Vf	Vm	Ach	Over
	#	s	V vs. Ref.	V	V	bits
	0	0.258333	7.85512E-002	7.85512E-002	5.18517E-004	...........
	1	0.516667	7.85508E-002	7.85316E-002	5.17450E-004	...........
	2	0.775	7.85486E-002	7.85148E-002	5.18483E-004	...........
	3	1.03333	7.85423E-002	7.85020E-002	5.23517E-004	...........
	4	1.29167	7.85317E-002	7.84882E-002	5.16783E-004	...........
	5	1.55	7.85182E-002	7.84745E-002	5.20850E-004	...........
	6	1.80833	7.85037E-002	7.84584E-002	5.19383E-004	...........
	7	2.06667	7.84892E-002	7.84436E-002	5.22017E-004	...........
	8	2.325	7.84747E-002	7.84317E-002	5.24550E-004	...........
	9	2.58333	7.84602E-002	7.84173E-002	5.22650E-004	...........
	10	2.84167	7.84460E-002	7.84055E-002	5.25350E-004	...........
	11	3.1	7.84324E-002	7.83936E-002	5.19083E-004	...........
	12	3.35833	7.84193E-002	7.83813E-002	5.13617E-004	...........
	13	3.61667	7.84067E-002	7.83702E-002	5.18017E-004	...........
	14	3.875	7.83945E-002	7.83554E-002	5.13350E-004	...........
	15	4.13333	7.83823E-002	7.83437E-002	5.18350E-004	...........
	16	4.39167	7.83699E-002	7.83334E-002	5.14083E-004	...........
	17	4.65	7.83576E-002	7.83228E-002	5.21717E-004	...........
	18	4.90833	7.83456E-002	7.83082E-002	5.23117E-004	...........
	19	5.16667	7.83340E-002	7.83001E-002	5.17983E-004	...........
	20	5.425	7.83225E-002	7.82892E-002	5.16817E-004	...........
	21	5.68333	7.83112E-002	7.82747E-002	5.20383E-004	...........
	22	5.94167	7.83000E-002	7.82616E-002	5.18383E-004	...........
	23	6.2	7.82884E-002	7.82548E-002	5.12450E-004	...........
	24	6.45833	7.82765E-002	7.82412E-002	5.12550E-004	...........
	25	6.71667	7.82649E-002	7.82305E-002	5.11017E-004	...........
	26	6.975	7.82537E-002	7.82197E-002	5.09217E-004	...........
	27	7.23333	7.82426E-002	7.82102E-002	5.12217E-004	...........
	28	7.49167	7.82317E-002	7.81998E-002	5.13917E-004	...........
	29	7.75	7.82212E-002	7.81924E-002	5.17750E-004	...........
	30	8.00833	7.82110E-002	7.81776E-002	5.19983E-004	...........
	31	8.26667	7.82011E-002	7.81720E-002	5.15850E-004	...........
	32	8.525	7.81910E-002	7.81577E-002	5.17317E-004	...........
	33	8.78333	7.81808E-002	7.81486E-002	5.19250E-004	...........
	34	9.04167	7.81704E-002	7.81383E-002	5.19583E-004	...........
	35	9.3	7.81599E-002	7.81292E-002	5.18750E-004	...........
	36	9.5583	7.81496E-002	7.81188E-002	5.14183E-004	...........
	37	9.8167	7.81395E-002	7.81108E-002	5.16683E-004	...........
	38	10.075	7.81297E-002	7.80999E-002	5.20883E-004	...........
EOC	QUANT	0.0781297	Open Circuit (V)
PSTATMODEL	IQUANT	4	Pstat Model
PSTATSECTION	LABEL	REF600-11020	Pstat Section
PSTATSERIALNO	LABEL	11020	Pstat Serial Number
CTRLMODE	IQUANT	1	Control Mode
IESTAB	IQUANT	0	I/E Stability
CASPEED	IQUANT	1	Control Amp Speed
CONVENTION	IQUANT	1	Current Convention
ICHRANGE	IQUANT	2	Ich Range
ICHRANGEMODE	TOGGLE	F	Ich Auto Range
ICHOFFSETENABLE	TOGGLE	T	Ich Offset Enable
ICHOFFSET	QUANT	0	Ich Offset (V)
ICHFILTER	IQUANT	3	Ich Filter
VCHRANGE	IQUANT	2	Vch Range
VCHRANGEMODE	TOGGLE	F	Vch Auto Range
VCHOFFSETENABLE	TOGGLE	T	Vch Offset Enable
VCHOFFSET	QUANT	0	Vch Offset (V)
VCHFILTER	IQUANT	3	Vch Filter
ACHRANGE	IQUANT	2	Ach Range
ACHOFFSETENABLE	TOGGLE	F	Ach Offset Enable
ACHOFFSET	QUANT	0	Ach Offset (V)
ACHFILTER	IQUANT	3	Ach Filter
IERANGELOWERLIMIT	IQUANT	1	I/E Range Lower Limit
IERANGEMODE	TOGGLE	F	I/E AutoRange
IERANGE	IQUANT	8	I/E Range
POSFEEDENABLE	TOGGLE	F	Positive Feedback IR Comp
POSFEEDRESISTANCE	QUANT	0	Positive Feedback Resistance (ohm)
ACHSELECT	IQUANT	0	Ach Select
CABLEID	IQUANT	14	Cable ID
DCCALDATE	LABEL	6/26/2020	DC Calibration Date
ACCALDATE	LABEL	6/26/2020	AC Calibration Date
THERMOSELECT	IQUANT	1	Thermo Select
FRAMEWORKVERSION	QUANT	6.33	Framework Version
INSTRUMENTVERSION	LABEL	3.50	Instrument Version
ZCURVE	TABLE
	Pt	Time	Freq	Zreal	Zimag	Zsig	Zmod	Zphz	Idc	Vdc	IERange
	#	s	Hz	ohm	ohm	V	ohm	°	A	V	#
	0	1	1000078	1918.396	-2123.095	1	2861.429	-47.89951	2.355547E-007	0.0808805	8
	1	1	794390.6	2329.903	-2285.826	1	3263.962	-44.45289	3.126502E-008	0.0804797	8
	2	2	630984.4	2783.709	-2392.55	1	3670.604	-40.67849	1.34254E-007	0.0802712	8
	3	2	501234.4	3265.675	-2433.972	1	4072.942	-36.69789	1.457968E-007	0.0801476	8
	4	2	398109.4	3748.842	-2407.027	1	4455.064	-32.70339	-3.715785E-008	0.0800659	8
	5	3	316265.6	4201.434	-2309.533	1	4794.371	-28.79765	-3.184648E-008	0.0800072	8
	6	3	251203.1	4612.191	-2162.575	1	5094.02	-25.12105	-2.026919E-008	0.0800096	8
	7	3	199546.9	4964.831	-1976.229	1	5343.69	-21.70481	-6.669454E-010	0.0799943	8
	8	4	158578.1	5258.484	-1783.429	1	5552.682	-18.73451	-1.873799E-008	0.0799926	8
	9	4	125953.1	5542.641	-1531.714	1	5750.393	-15.44819	-2.422414E-008	0.0799534	7
	10	4	100078.1	5739.2	-1359.876	1	5898.108	-13.33013	-2.354304E-008	0.0799893	7
	11	5	79453.13	5890.162	-1209.298	1	6013.02	-11.60207	2.284765E-008	0.0799348	7
	12	5	63140.62	6011.123	-1080.307	1	6107.427	-10.18832	-4.310952E-009	0.0799175	7
	13	5	50203.12	6110.893	-976.464	1	6188.417	-9.078585	1.245525E-008	0.0799424	7
	14	6	39890.62	6197.683	-896.4918	1	6262.186	-8.230719	-2.880911E-008	0.0799663	7
	15	6	31640.63	6274.415	-839.3264	1	6330.304	-7.619205	1.285875E-008	0.0799426	7
	16	6	25171.88	6343.614	-804.9639	1	6394.483	-7.231816	6.449632E-011	0.0799607	7
	17	7	20015.62	6409.139	-791.7073	1	6457.853	-7.041953	-1.65912E-008	0.0799713	7
	18	7	15890.62	6474.717	-799.4911	1	6523.89	-7.039191	2.632682E-008	0.0798986	7
	19	7	12609.37	6538.759	-827.4291	1	6590.903	-7.212004	-2.696841E-008	0.0799623	7
	20	8	10078.13	6603.972	-875.3487	1	6661.733	-7.550475	2.673643E-008	0.0799087	7
	21	8	8015.625	6672.622	-948.6462	1	6739.719	-8.091512	2.529763E-008	0.0798904	7
	22	8	6328.125	6746.209	-1049.556	1	6827.364	-8.843023	2.433078E-008	0.0799146	7
	23	9	5015.625	6821.887	-1179.933	1	6923.177	-9.81296	7.317517E-009	0.079937	7
	24	9	3984.375	6903.656	-1346.977	1	7033.833	-11.04032	6.329119E-009	0.0798926	7
	25	9	3170.956	6987.53	-1551.948	1	7157.801	-12.52227	8.120273E-009	0.0799422	7
	26	9	2527.573	7081.101	-1808.852	1	7308.483	-14.32965	-2.691684E-008	0.0799377	7
	27	10	1976.103	7192.169	-2155.589	1	7508.253	-16.68418	7.290336E-009	0.0799361	7
	28	10	1577.524	7308.209	-2555.557	1	7742.145	-19.27387	-1.313339E-008	0.0799122	7
	29	10	1265.625	7435.352	-3030.814	1	8029.34	-22.1769	-2.747348E-008	0.0799316	7
	30	11	998.264	7594.822	-3664.245	1	8432.557	-25.75574	1.536128E-008	0.0798836	7
	31	11	796.875	7773.469	-4400.434	1	8932.561	-29.51349	1.366151E-008	0.0799284	7
	32	11	627.7902	8003.342	-5360.236	1	9632.53	-33.81218	1.390136E-009	0.0798499	6
	33	12	505.5147	8254.575	-6430.464	1	10463.69	-37.91924	-3.461449E-009	0.0799771	6
	34	12	397.9953	8583.362	-7877.459	1	11650.26	-42.54444	3.674988E-010	0.0799405	6
	35	12	315.5048	8981.059	-9602.15	1	13147.65	-46.91423	4.497927E-010	0.0799386	6
	36	13	252.4038	9450.022	-11619.99	1	14977.55	-50.88007	3.622158E-010	0.079938	6
	37	13	198.6229	10073.35	-14265.28	1	17463.41	-54.77238	3.596844E-010	0.0799399	6
	38	13	158.3615	10804.96	-17319.64	1	20413.65	-58.04178	3.148702E-010	0.0799369	6
	39	14	125.558	11730.51	-21127.32	1	24165.44	-60.95968	5.216572E-010	0.0799362	6
	40	14	100.4464	12832.94	-25571.33	1	28610.79	-63.35026	3.966111E-010	0.0799343	6
	41	14	79.00281	14313.13	-31409.54	1	34517.03	-65.50154	2.627032E-010	0.0799327	6
	42	15	63.3446	16033.25	-37933.73	1	41182.92	-67.08794	1.758653E-010	0.0799322	6
	43	15	49.86702	18377.23	-46550.96	1	50047.12	-68.45705	1.24524E-010	0.07993	6
	44	15	39.72458	21222.5	-56507.98	1	60361.8	-69.41551	1.86242E-010	0.079937	6
	45	16	31.6723	24877.06	-68481.95	1	72860.45	-70.03571	4.08602E-010	0.0799353	6
	46	16	24.93351	29922.22	-83761.02	1	88945.19	-70.34158	1.361434E-012	0.07993	6
	47	16	19.86229	36226.05	-101127.4	1	107420.1	-70.29137	-4.869097E-010	0.0799177	5
	48	17	15.83615	44366.4	-121794.1	1	129623.3	-69.98465	-1.529143E-010	0.0799199	5
	49	17	12.40079	55926.82	-148189.7	1	158391.9	-69.32349	-7.501249E-010	0.0799252	5
	50	17	9.93114	69351.79	-175909.1	1	189086.5	-68.48327	-7.627036E-010	0.0799195	5
	51	17	7.944915	86263.95	-208032.1	1	225208.4	-67.47785	3.825092E-010	0.0799186	5
	52	18	6.317385	108156.2	-245832.1	1	268572.5	-66.25245	-2.890515E-010	0.0799396	5
	53	19	5.008013	135536.2	-289292.2	1	319468.3	-64.89646	-2.341557E-010	0.0799181	5
	54	20	3.945707	169348.9	-338535.8	1	378530.7	-63.42398	2.373079E-010	0.0799199	5
	55	20	3.158693	207247.7	-390774.1	1	442330.2	-62.06068	-1.084711E-010	0.0799224	5
	56	21	2.504006	252417.8	-450657.7	1	516533.7	-60.74638	-2.443502E-011	0.0799062	5
	57	23	1.998082	303503.5	-515416	1	598137.1	-59.50824	1.8686E-010	0.079949	5
	58	24	1.584686	361027.8	-590049.9	1	691736.9	-58.53922	1.302511E-010	0.0799241	5
	59	26	1.266892	426009.2	-670187.5	1	794125.4	-57.55765	7.263513E-011	0.0798822	5
	60	29	0.999041	504373.8	-768380.8	1	919131.1	-56.71865	4.327005E-011	0.0798696	5
