EXPLAIN
TAG	EISPOT
TITLE	LABEL	Potentiostatic EIS	Test &Identifier
DATE	LABEL	6/19/2020	Date
TIME	LABEL	16:32:33	Time
NOTES	NOTES	1	&Notes...
	
PSTAT	PSTAT	REF600-10037	Potentiostat
VDC	POTEN	0.00000E+000	T	DC &Voltage (V)
FREQINIT	QUANT	1.00000E+006	Initial Fre&q. (Hz)
FREQFINAL	QUANT	1.00000E+000	Final Fre&q. (Hz)
PTSPERDEC	QUANT	1.00000E+001	Points/&decade
VAC	QUANT	1.00000E+002	AC &Voltage (mV rms)
AREA	QUANT	2.50000E-001	&Area (cm^2)
CONDIT	TWOPARAM	F	5.00000E+000	0.00000E+000	Conditionin&g	Time(s)	E(V)
DELAY	TWOPARAM	F	5.00000E+000	0.00000E+000	Init. De&lay	Time(s)	Stab.(mV/s)
SPEED	SELECTOR	0	&Optimize for:
ZGUESS	QUANT	1.00000E+003	E&stimated Z (ohms)
OCVCURVE	TABLE	39
	Pt	T	Vf	Vm	Ach	Over
	#	s	V vs. Ref.	V	V	bits
	0	0.258333	4.69291E-002	4.69291E-002	5.38387E-004	...........
	1	0.516667	4.69296E-002	4.69572E-002	5.43587E-004	...........
	2	0.775	4.69330E-002	4.69863E-002	5.41587E-004	...........
	3	1.03333	4.69427E-002	4.70184E-002	5.36587E-004	...........
	4	1.29167	4.69606E-002	4.70449E-002	5.37387E-004	...........
	5	1.55	4.69852E-002	4.70741E-002	5.40654E-004	...........
	6	1.80833	4.70133E-002	4.70994E-002	5.45820E-004	...........
	7	2.06667	4.70421E-002	4.71281E-002	5.40187E-004	...........
	8	2.325	4.70704E-002	4.71518E-002	5.41354E-004	...........
	9	2.58333	4.70978E-002	4.71782E-002	5.44720E-004	...........
	10	2.84167	4.71243E-002	4.71999E-002	5.37821E-004	...........
	11	3.1	4.71500E-002	4.72283E-002	5.38121E-004	...........
	12	3.35833	4.71752E-002	4.72537E-002	5.43187E-004	...........
	13	3.61667	4.72003E-002	4.72804E-002	5.37387E-004	...........
	14	3.875	4.72258E-002	4.72981E-002	5.35887E-004	...........
	15	4.13333	4.72512E-002	4.73350E-002	5.39254E-004	...........
	16	4.39167	4.72763E-002	4.73495E-002	5.38554E-004	...........
	17	4.65	4.73012E-002	4.73617E-002	5.41420E-004	...........
	18	4.90833	4.73250E-002	4.74119E-002	5.37087E-004	...........
	19	5.16667	4.73483E-002	4.74199E-002	5.37454E-004	...........
	20	5.425	4.73723E-002	4.74388E-002	5.40554E-004	...........
	21	5.68333	4.73961E-002	4.74548E-002	5.37654E-004	...........
	22	5.94167	4.74180E-002	4.74893E-002	5.36021E-004	...........
	23	6.2	4.74386E-002	4.75004E-002	5.39387E-004	...........
	24	6.45833	4.74593E-002	4.75181E-002	5.35954E-004	...........
	25	6.71667	4.74797E-002	4.75338E-002	5.41187E-004	...........
	26	6.975	4.74992E-002	4.75708E-002	5.45021E-004	...........
	27	7.23333	4.75187E-002	4.75834E-002	5.44254E-004	...........
	28	7.49167	4.75395E-002	4.76007E-002	5.42354E-004	...........
	29	7.75	4.75607E-002	4.76143E-002	5.39587E-004	...........
	30	8.00833	4.75807E-002	4.76495E-002	5.40854E-004	...........
	31	8.26667	4.76001E-002	4.76594E-002	5.40554E-004	...........
	32	8.525	4.76198E-002	4.76751E-002	5.36687E-004	...........
	33	8.78333	4.76392E-002	4.76840E-002	5.44387E-004	...........
	34	9.04167	4.76571E-002	4.77203E-002	5.41221E-004	...........
	35	9.3	4.76743E-002	4.77376E-002	5.41420E-004	...........
	36	9.5583	4.76928E-002	4.77508E-002	5.39987E-004	...........
	37	9.8167	4.77126E-002	4.77620E-002	5.40854E-004	...........
	38	10.075	4.77314E-002	4.77746E-002	5.44054E-004	...........
EOC	QUANT	0.0477314	Open Circuit (V)
PSTATMODEL	IQUANT	4	Pstat Model
PSTATSECTION	LABEL	REF600-10037	Pstat Section
PSTATSERIALNO	LABEL	10037	Pstat Serial Number
CTRLMODE	IQUANT	1	Control Mode
IESTAB	IQUANT	0	I/E Stability
CASPEED	IQUANT	1	Control Amp Speed
CONVENTION	IQUANT	1	Current Convention
ICHRANGE	IQUANT	2	Ich Range
ICHRANGEMODE	TOGGLE	F	Ich Auto Range
ICHOFFSETENABLE	TOGGLE	T	Ich Offset Enable
ICHOFFSET	QUANT	0	Ich Offset (V)
ICHFILTER	IQUANT	3	Ich Filter
VCHRANGE	IQUANT	2	Vch Range
VCHRANGEMODE	TOGGLE	F	Vch Auto Range
VCHOFFSETENABLE	TOGGLE	T	Vch Offset Enable
VCHOFFSET	QUANT	0	Vch Offset (V)
VCHFILTER	IQUANT	3	Vch Filter
ACHRANGE	IQUANT	2	Ach Range
ACHOFFSETENABLE	TOGGLE	F	Ach Offset Enable
ACHOFFSET	QUANT	0	Ach Offset (V)
ACHFILTER	IQUANT	3	Ach Filter
IERANGELOWERLIMIT	IQUANT	1	I/E Range Lower Limit
IERANGEMODE	TOGGLE	F	I/E AutoRange
IERANGE	IQUANT	7	I/E Range
POSFEEDENABLE	TOGGLE	F	Positive Feedback IR Comp
POSFEEDRESISTANCE	QUANT	0	Positive Feedback Resistance (ohm)
ACHSELECT	IQUANT	0	Ach Select
CABLEID	IQUANT	14	Cable ID
DCCALDATE	LABEL	6/8/2020	DC Calibration Date
ACCALDATE	LABEL	6/8/2020	AC Calibration Date
THERMOSELECT	IQUANT	1	Thermo Select
FRAMEWORKVERSION	QUANT	6.33	Framework Version
INSTRUMENTVERSION	LABEL	3.50	Instrument Version
ZCURVE	TABLE
	Pt	Time	Freq	Zreal	Zimag	Zsig	Zmod	Zphz	Idc	Vdc	IERange
	#	s	Hz	ohm	ohm	V	ohm	°	A	V	#
	0	2	1000078	1975.7	-1789.428	1	2665.604	-42.16773	6.943374E-008	0.0567606	8
	1	2	794390.6	2350.783	-1847.5	1	2989.889	-38.1641	5.709916E-008	0.0564152	8
	2	3	630984.4	2732.253	-1831.843	1	3289.507	-33.83994	2.324472E-008	0.0562658	8
	3	3	501234.4	3090.933	-1747.567	1	3550.755	-29.48317	5.954001E-008	0.0562463	8
	4	3	398109.4	3408.909	-1624.067	1	3776.01	-25.47399	1.222875E-007	0.0561602	8
	5	4	316265.6	3676.7	-1471.604	1	3960.271	-21.81382	7.82965E-008	0.0561512	8
	6	4	251203.1	3893.82	-1309.375	1	4108.077	-18.58625	5.457304E-008	0.0561575	8
	7	4	199546.9	4062.1	-1154.978	1	4223.107	-15.87206	1.220551E-007	0.056239	8
	8	5	158578.1	4200.112	-1018.206	1	4321.769	-13.62696	6.305161E-008	0.0562181	8
	9	5	125953.1	4344.187	-807.5308	1	4418.604	-10.53039	-3.062018E-009	0.0562319	7
	10	5	100078.1	4427.77	-709.3765	1	4484.234	-9.102053	2.193271E-008	0.0562125	7
	11	6	79453.13	4490.144	-648.6547	1	4536.754	-8.220189	1.853532E-008	0.0561771	7
	12	6	63140.62	4535.458	-602.8002	1	4575.341	-7.570717	1.960728E-008	0.0561737	7
	13	6	50203.12	4588.087	-578.0115	1	4624.353	-7.180348	1.916194E-008	0.0561433	7
	14	7	39890.62	4627.642	-567.5782	1	4662.318	-6.99238	1.192195E-008	0.0561452	7
	15	7	31640.63	4674.121	-573.2462	1	4709.142	-6.991985	1.547161E-010	0.0561345	7
	16	7	25171.88	4722.294	-593.5459	1	4759.45	-7.163948	1.535984E-008	0.05614	7
	17	7	20015.62	4771.997	-627.5556	1	4813.084	-7.491859	6.747761E-009	0.0561381	7
	18	8	15890.62	4825.407	-677.4306	1	4872.727	-7.991428	-4.105279E-009	0.0561367	7
	19	8	12609.37	4883.44	-744.3579	1	4939.844	-8.666597	1.074982E-008	0.0561391	7
	20	8	10078.13	4949.575	-827.3187	1	5018.242	-9.489233	1.677728E-008	0.0561307	7
	21	9	8015.625	5011.347	-932.4868	1	5097.365	-10.54077	1.428003E-008	0.0561416	7
	22	9	6328.125	5087.514	-1066.583	1	5198.115	-11.84042	3.062859E-009	0.0561356	7
	23	9	5015.625	5171.433	-1230.172	1	5315.735	-13.38073	1.583964E-008	0.0561304	7
	24	10	3984.375	5262.457	-1427.125	1	5452.535	-15.17309	1.299706E-008	0.0561343	7
	25	10	3170.956	5361.944	-1662.542	1	5613.777	-17.22674	-3.952136E-009	0.0561331	7
	26	10	2527.573	5473.356	-1947.611	1	5809.545	-19.58734	2.647134E-009	0.0561346	7
	27	11	1976.103	5610.785	-2328.59	1	6074.804	-22.53944	-7.660497E-009	0.0561262	7
	28	11	1577.524	5753.341	-2751.189	1	6377.301	-25.55665	9.779447E-009	0.0561294	7
	29	11	1265.625	5916.673	-3250.374	1	6750.7	-28.78256	-7.046302E-009	0.0561164	7
	30	12	998.264	6112.541	-3915.116	1	7258.876	-32.63979	1.480404E-008	0.0561299	7
	31	12	796.875	6335.552	-4671.494	1	7871.599	-36.40306	1.56411E-008	0.0561325	7
	32	12	627.7902	6612.028	-5650.645	1	8697.627	-40.51723	1.532837E-008	0.0561406	7
	33	13	505.5147	6901.14	-6743.486	1	9648.85	-44.33802	8.658894E-009	0.0561289	7
	34	13	397.9953	7296.995	-8185.488	1	10965.78	-48.28443	6.945327E-009	0.0561544	7
	35	13	315.5048	7759.985	-9908.59	1	12585.61	-51.93346	6.456363E-009	0.0561521	7
	36	13	252.4038	8300.922	-11916.56	1	14522.73	-55.13943	6.613042E-009	0.0561531	7
	37	14	198.6229	9015.261	-14540.21	1	17108.26	-58.20014	7.077977E-009	0.0561517	7
	38	14	158.3615	9847.9	-17464.55	1	20049.73	-60.58224	7.78649E-009	0.0561381	7
	39	14	125.558	10909.58	-21303.09	1	23934.09	-62.88245	6.193535E-009	0.0561508	7
	40	15	100.4464	12169.67	-25642.59	1	28383.85	-64.61153	6.977149E-009	0.0561478	7
	41	15	79.00281	13850.84	-31281.24	1	34210.55	-66.117	6.942786E-009	0.0561448	7
	42	15	63.3446	15760.33	-37530.86	1	40705.7	-67.22101	7.223514E-009	0.0561468	7
	43	16	49.86702	18319.13	-45670.04	1	49207.14	-68.14333	9.704135E-010	0.0561378	6
	44	16	39.72458	21339.83	-55011.77	1	59005.79	-68.79803	1.201663E-009	0.0561463	6
	45	16	31.6723	25052.05	-66181.2	1	70764.09	-69.26647	3.656724E-010	0.0561423	6
	46	17	24.93351	29955.24	-80314.44	1	85718.88	-69.54576	2.514886E-009	0.0561477	6
	47	17	19.86229	35814.05	-96787.2	1	103200.9	-69.69408	-1.107584E-009	0.0475755	6
	48	18	15.83615	43191.41	-116226.6	1	123992.4	-69.61423	-1.094291E-009	0.0475699	6
	49	18	12.40079	52901.38	-140965.5	1	150565.1	-69.42995	-9.781378E-010	0.0475717	6
	50	18	9.93114	64104.39	-167786.2	1	179615	-69.09014	-8.919308E-010	0.0475726	6
	51	19	7.944915	78151.3	-199476.3	1	214239.2	-68.60563	-8.408434E-010	0.0475681	6
	52	19	6.317385	96103.9	-237555	1	256258.3	-67.97398	-5.933566E-010	0.0475717	6
	53	20	5.008013	118950.1	-282894.1	1	306884.7	-67.19442	-5.081412E-010	0.0475728	6
	54	21	3.945707	148434.7	-337051	1	368288.3	-66.23168	-4.313322E-010	0.0475733	6
	55	22	3.158693	182355.7	-394455.8	1	434567.6	-65.18904	-6.399786E-010	0.0475783	5
	56	23	2.504006	227506	-463770.7	1	516567.8	-63.86942	-5.334346E-010	0.0475758	5
	57	25	1.998082	279323	-537387.6	1	605645.8	-62.53551	-4.35164E-010	0.0475788	5
	58	27	1.584686	343459.8	-623665.9	1	711985.8	-61.15793	-4.174138E-010	0.0475751	5
	59	30	1.266892	416242.3	-715302.6	1	827596.1	-59.80441	-3.557429E-010	0.0475752	5
	60	33	0.999041	505833.1	-822763.4	1	965819	-58.41689	-4.148276E-010	0.0475755	5
