EXPLAIN
TAG	EISPOT
TITLE	LABEL	Potentiostatic EIS	Test &Identifier
DATE	LABEL	3/3/2020	Date
TIME	LABEL	17:28:22	Time
NOTES	NOTES	1	&Notes...
	
PSTAT	PSTAT	REF600-11020	Potentiostat
VDC	POTEN	0.00000E+000	T	DC &Voltage (V)
FREQINIT	QUANT	1.00000E+006	Initial Fre&q. (Hz)
FREQFINAL	QUANT	1.00000E+000	Final Fre&q. (Hz)
PTSPERDEC	QUANT	1.00000E+001	Points/&decade
VAC	QUANT	2.50000E+001	AC &Voltage (mV rms)
AREA	QUANT	1.60000E-004	&Area (cm^2)
CONDIT	TWOPARAM	F	1.50000E+001	0.00000E+000	Conditionin&g	Time(s)	E(V)
DELAY	TWOPARAM	F	1.00000E+002	0.00000E+000	Init. De&lay	Time(s)	Stab.(mV/s)
SPEED	SELECTOR	1	&Optimize for:
ZGUESS	QUANT	1.00000E+004	E&stimated Z (ohms)
OCVCURVE	TABLE	39
	Pt	T	Vf	Vm	Ach	Over
	#	s	V vs. Ref.	V	V	bits
	0	0.258333	8.80348E-002	8.80348E-002	5.66263E-004	...........
	1	0.516667	8.80352E-002	8.80565E-002	5.66797E-004	...........
	2	0.775	8.80380E-002	8.80907E-002	5.66063E-004	...........
	3	1.03333	8.80468E-002	8.81235E-002	5.68163E-004	...........
	4	1.29167	8.80642E-002	8.81551E-002	5.64497E-004	...........
	5	1.55	8.80896E-002	8.81880E-002	5.63164E-004	...........
	6	1.80833	8.81196E-002	8.82093E-002	5.66497E-004	...........
	7	2.06667	8.81509E-002	8.82435E-002	5.63130E-004	...........
	8	2.325	8.81812E-002	8.82649E-002	5.59564E-004	...........
	9	2.58333	8.82100E-002	8.82880E-002	5.60630E-004	...........
	10	2.84167	8.82370E-002	8.83088E-002	5.63330E-004	...........
	11	3.1	8.82620E-002	8.83298E-002	5.58464E-004	...........
	12	3.35833	8.82852E-002	8.83493E-002	5.63930E-004	...........
	13	3.61667	8.83070E-002	8.83740E-002	5.66263E-004	...........
	14	3.875	8.83279E-002	8.83731E-002	5.67663E-004	...........
	15	4.13333	8.83451E-002	8.82909E-002	5.62330E-004	...........
	16	4.39167	8.83499E-002	8.82217E-002	5.65730E-004	...........
	17	4.65	8.83331E-002	8.82069E-002	5.66930E-004	...........
	18	4.90833	8.82984E-002	8.82771E-002	5.63030E-004	...........
	19	5.16667	8.82657E-002	8.83005E-002	5.62064E-004	...........
	20	5.425	8.82550E-002	8.83633E-002	5.67130E-004	...........
	21	5.68333	8.82709E-002	8.83953E-002	5.67297E-004	...........
	22	5.94167	8.83057E-002	8.84505E-002	5.68730E-004	...........
	23	6.2	8.83503E-002	8.85331E-002	5.68063E-004	...........
	24	6.45833	8.84011E-002	8.85872E-002	5.69330E-004	...........
	25	6.71667	8.84568E-002	8.85845E-002	5.71697E-004	...........
	26	6.975	8.85105E-002	8.85832E-002	5.66397E-004	...........
	27	7.23333	8.85518E-002	8.86071E-002	5.69563E-004	...........
	28	7.49167	8.85774E-002	8.86080E-002	5.70663E-004	...........
	29	7.75	8.85919E-002	8.86127E-002	5.64363E-004	...........
	30	8.00833	8.86009E-002	8.86120E-002	5.70163E-004	...........
	31	8.26667	8.86067E-002	8.86074E-002	5.65497E-004	...........
	32	8.525	8.86098E-002	8.86135E-002	5.67897E-004	...........
	33	8.78333	8.86110E-002	8.86172E-002	5.68997E-004	...........
	34	9.04167	8.86121E-002	8.86300E-002	5.67297E-004	...........
	35	9.3	8.86151E-002	8.86428E-002	5.70397E-004	...........
	36	9.5583	8.86213E-002	8.86616E-002	5.64397E-004	...........
	37	9.8167	8.86311E-002	8.86762E-002	5.66497E-004	...........
	38	10.075	8.86440E-002	8.86884E-002	5.64897E-004	...........
EOC	QUANT	0.088644	Open Circuit (V)
PSTATMODEL	IQUANT	4	Pstat Model
PSTATSECTION	LABEL	REF600-11020	Pstat Section
PSTATSERIALNO	LABEL	11020	Pstat Serial Number
CTRLMODE	IQUANT	1	Control Mode
IESTAB	IQUANT	0	I/E Stability
CASPEED	IQUANT	1	Control Amp Speed
CONVENTION	IQUANT	1	Current Convention
ICHRANGE	IQUANT	2	Ich Range
ICHRANGEMODE	TOGGLE	F	Ich Auto Range
ICHOFFSETENABLE	TOGGLE	T	Ich Offset Enable
ICHOFFSET	QUANT	0	Ich Offset (V)
ICHFILTER	IQUANT	3	Ich Filter
VCHRANGE	IQUANT	2	Vch Range
VCHRANGEMODE	TOGGLE	F	Vch Auto Range
VCHOFFSETENABLE	TOGGLE	T	Vch Offset Enable
VCHOFFSET	QUANT	0	Vch Offset (V)
VCHFILTER	IQUANT	3	Vch Filter
ACHRANGE	IQUANT	2	Ach Range
ACHOFFSETENABLE	TOGGLE	F	Ach Offset Enable
ACHOFFSET	QUANT	0	Ach Offset (V)
ACHFILTER	IQUANT	3	Ach Filter
IERANGELOWERLIMIT	IQUANT	1	I/E Range Lower Limit
IERANGEMODE	TOGGLE	F	I/E AutoRange
IERANGE	IQUANT	7	I/E Range
POSFEEDENABLE	TOGGLE	F	Positive Feedback IR Comp
POSFEEDRESISTANCE	QUANT	0	Positive Feedback Resistance (ohm)
ACHSELECT	IQUANT	0	Ach Select
CABLEID	IQUANT	14	Cable ID
DCCALDATE	LABEL	2/27/2020	DC Calibration Date
ACCALDATE	LABEL	2/27/2020	AC Calibration Date
THERMOSELECT	IQUANT	1	Thermo Select
FRAMEWORKVERSION	QUANT	6.33	Framework Version
INSTRUMENTVERSION	LABEL	3.50	Instrument Version
ZCURVE	TABLE
	Pt	Time	Freq	Zreal	Zimag	Zsig	Zmod	Zphz	Idc	Vdc	IERange
	#	s	Hz	ohm	ohm	V	ohm	°	A	V	#
	0	2	1000078	1842.637	-1422.313	1	2327.721	-37.66418	-1.854519E-006	0.0911681	8
	1	3	794390.6	2057.233	-1482.214	1	2535.579	-35.77234	5.045558E-007	0.0906512	8
	2	5	630984.4	2275.858	-1524.966	1	2739.535	-33.82455	-7.026024E-007	0.090612	8
	3	6	501234.4	2492.648	-1579.925	1	2951.179	-32.36792	9.084417E-007	0.0902775	8
	4	7	398109.4	2711.789	-1640.092	1	3169.18	-31.16559	-1.46277E-006	0.0907948	8
	5	9	316265.6	2945.377	-1694.953	1	3398.251	-29.91879	-8.102516E-008	0.090417	8
	6	10	251203.1	3190.975	-1799.124	1	3663.218	-29.41502	-1.347683E-006	0.090731	8
	7	11	199546.9	3425.295	-1886.045	1	3910.219	-28.83817	-8.461633E-007	0.0905259	8
	8	13	158578.1	3686.735	-1977.594	1	4183.646	-28.20947	-8.919046E-008	0.0903146	8
	9	14	125953.1	3993.347	-2075.387	1	4500.45	-27.4614	-7.625491E-007	0.0918516	7
	10	15	100078.1	4289.228	-2200.385	1	4820.703	-27.15794	3.260526E-010	0.0902164	7
	11	17	79453.13	4620.759	-2340.021	1	5179.489	-26.85833	-3.729313E-008	0.0903473	7
	12	18	63140.62	5001.089	-2482.503	1	5583.343	-26.39946	1.899795E-009	0.0902059	7
	13	19	50203.12	5406.143	-2611.354	1	6003.794	-25.78215	-5.674258E-008	0.0903546	7
	14	21	39890.62	5857.117	-2717.337	1	6456.759	-24.88836	8.40236E-008	0.0901946	7
	15	22	31640.63	6336.837	-2785.802	1	6922.152	-23.73127	3.872834E-009	0.0901797	7
	16	24	25171.88	6826.452	-2810.11	1	7382.219	-22.37453	-6.836124E-008	0.0902886	7
	17	25	20015.62	7318.083	-2787.126	1	7830.863	-20.84957	-6.611383E-008	0.0903408	7
	18	27	15890.62	7802.942	-2720.288	1	8263.526	-19.21975	8.26099E-008	0.0901891	7
	19	28	12609.37	8239.783	-2610.523	1	8643.429	-17.57921	-1.061798E-008	0.0901696	7
	20	30	10078.13	8630.559	-2472.935	1	8977.858	-15.98872	-3.153144E-008	0.0902487	7
	21	31	8015.625	9007.502	-2306.59	1	9298.143	-14.36333	-2.980704E-009	0.090432	6
	22	33	6328.125	9316.853	-2168.384	1	9565.86	-13.10166	-1.260623E-008	0.0904406	6
	23	34	5015.625	9581.09	-2054.033	1	9798.79	-12.10015	-5.105355E-009	0.0903688	6
	24	36	3984.375	9797.3	-1967.038	1	9992.81	-11.35254	-4.962911E-009	0.090272	6
	25	38	3170.956	9981.84	-1918.273	1	10164.5	-10.87826	1.005962E-008	0.0900395	6
	26	39	2527.573	10145.44	-1914.889	1	10324.57	-10.68848	-1.186935E-008	0.0904704	6
	27	41	1976.103	10302.39	-1970.26	1	10489.1	-10.82669	-3.389599E-009	0.0904312	6
	28	42	1577.524	10431.39	-2084.852	1	10637.7	-11.30239	-6.516402E-009	0.0904497	6
	29	44	1265.625	10553.46	-2256.402	1	10791.99	-12.06852	-6.058597E-009	0.0904527	6
	30	45	998.264	10678.64	-2533.437	1	10975.04	-13.3463	-5.637407E-009	0.0902855	6
	31	47	796.875	10817.69	-2883.837	1	11195.48	-14.92707	3.139438E-009	0.0901218	6
	32	48	627.7902	10978.04	-3369.602	1	11483.53	-17.06336	-1.187657E-008	0.0904769	6
	33	49	505.5147	11141.72	-3928.93	1	11814.16	-19.4243	-6.123145E-009	0.0902725	6
	34	51	397.9953	11351.76	-4701.117	1	12286.7	-22.49597	1.120071E-009	0.0903097	6
	35	52	315.5048	11609.91	-5636.987	1	12906.03	-25.89808	1.412407E-009	0.0903095	6
	36	54	252.4038	11902.04	-6743.177	1	13679.51	-29.534	9.581532E-010	0.0903052	6
	37	55	198.6229	12295.45	-8204.932	1	14781.71	-33.71575	8.987745E-010	0.0903025	6
	38	56	158.3615	12763.98	-9901.29	1	16154.09	-37.80149	8.379659E-010	0.0903009	6
	39	58	125.558	13353.98	-12015.16	1	17963.66	-41.9791	5.76227E-010	0.0903069	6
	40	59	100.4464	14087.75	-14482.68	1	20204.28	-45.79195	4.591339E-010	0.090302	6
	41	61	79.00281	15092.57	-17699.01	1	23260.28	-49.54461	7.402442E-010	0.0903046	6
	42	62	63.3446	16376.74	-21298.89	1	26867.09	-52.44329	2.211878E-010	0.0903026	6
	43	64	49.86702	17869	-25942.63	1	31501.13	-55.44135	8.579837E-010	0.0903059	6
	44	65	39.72458	19981.66	-31167.48	1	37022.67	-57.33582	8.335668E-010	0.0903093	6
	45	67	31.6723	22615.14	-37376.47	1	43685.75	-58.8234	1.035568E-009	0.0903083	6
	46	68	24.93351	26284.29	-45035.52	1	52144.62	-59.73068	-4.039115E-010	0.0903042	6
	47	69	19.86229	30683.14	-53516.2	1	61688.24	-60.1725	-3.519565E-010	0.0902955	6
	48	71	15.83615	35961.78	-63161.75	1	72681.88	-60.34454	-3.921229E-010	0.0903041	6
	49	72	12.40079	43650.6	-74909.21	1	86699.27	-59.77007	-1.049665E-009	0.090303	6
	50	73	9.93114	51571.18	-86670.21	1	100852.9	-59.24618	-2.026307E-011	0.0903047	6
	51	75	7.944915	61084.84	-99676.6	1	116905	-58.49878	1.284209E-009	0.0903096	5
	52	77	6.317385	72135.08	-114636	1	135443.3	-57.81972	8.001515E-010	0.0903131	5
	53	78	5.008013	84688.23	-131705.6	1	156583.8	-57.25852	-2.976256E-010	0.0903028	5
	54	81	3.945707	99007.9	-151294.3	1	180810.7	-56.79901	3.821486E-010	0.0903122	5
	55	83	3.158693	113306.2	-172610.2	1	206476.5	-56.71799	-2.249796E-010	0.0902952	5
	56	87	2.504006	129646.3	-198473.3	1	237065	-56.84671	5.520545E-010	0.0903103	5
	57	89	1.998082	146787.7	-227824.8	1	271018	-57.20629	1.456773E-010	0.0903487	5
	58	92	1.584686	165121.4	-263834.9	1	311245.8	-57.95956	1.388351E-010	0.0903083	5
	59	96	1.266892	185994.9	-306189.6	1	358254.3	-58.7234	4.571182E-011	0.0903527	5
	60	100	0.999041	209765.3	-360171	1	416802.9	-59.78328	1.349882E-011	0.0902709	5
