EXPLAIN
TAG	EISPOT
TITLE	LABEL	Potentiostatic EIS	Test &Identifier
DATE	LABEL	3/12/2020	Date
TIME	LABEL	12:52:29	Time
NOTES	NOTES	1	&Notes...
	
PSTAT	PSTAT	REF600-11020	Potentiostat
VDC	POTEN	0.00000E+000	T	DC &Voltage (V)
FREQINIT	QUANT	1.00000E+006	Initial Fre&q. (Hz)
FREQFINAL	QUANT	1.00000E+000	Final Fre&q. (Hz)
PTSPERDEC	QUANT	1.00000E+001	Points/&decade
VAC	QUANT	2.50000E+001	AC &Voltage (mV rms)
AREA	QUANT	2.50000E-001	&Area (cm^2)
CONDIT	TWOPARAM	F	5.00000E+000	0.00000E+000	Conditionin&g	Time(s)	E(V)
DELAY	TWOPARAM	T	5.00000E+000	0.00000E+000	Init. De&lay	Time(s)	Stab.(mV/s)
SPEED	SELECTOR	1	&Optimize for:
ZGUESS	QUANT	5.00000E+003	E&stimated Z (ohms)
OCVCURVE	TABLE	19
	Pt	T	Vf	Vm	Ach	Over
	#	s	V vs. Ref.	V	V	bits
	0	0.258333	1.01984E-001	1.01984E-001	5.80830E-004	...........
	1	0.516667	1.01977E-001	1.01643E-001	5.81397E-004	...........
	2	0.775	1.01938E-001	1.01339E-001	5.76130E-004	...........
	3	1.03333	1.01827E-001	1.01036E-001	5.78597E-004	...........
	4	1.29167	1.01629E-001	1.00742E-001	5.80797E-004	...........
	5	1.55	1.01367E-001	1.00461E-001	5.79930E-004	...........
	6	1.80833	1.01076E-001	1.00183E-001	5.72463E-004	...........
	7	2.06667	1.00780E-001	9.99156E-002	5.78330E-004	...........
	8	2.325	1.00491E-001	9.96563E-002	5.72763E-004	...........
	9	2.58333	1.00212E-001	9.93990E-002	5.68863E-004	...........
	10	2.84167	9.99418E-002	9.91497E-002	5.74663E-004	...........
	11	3.1	9.96794E-002	9.89034E-002	5.76630E-004	...........
	12	3.35833	9.94232E-002	9.86630E-002	5.76663E-004	...........
	13	3.61667	9.91723E-002	9.84286E-002	5.69297E-004	...........
	14	3.875	9.89265E-002	9.81988E-002	5.75863E-004	...........
	15	4.13333	9.86860E-002	9.79747E-002	5.76963E-004	...........
	16	4.39167	9.84507E-002	9.77529E-002	5.76097E-004	...........
	17	4.65	9.82204E-002	9.75382E-002	5.71763E-004	...........
	18	4.90833	9.79948E-002	9.73223E-002	5.76363E-004	...........
EOC	QUANT	0.0979948	Open Circuit (V)
PSTATMODEL	IQUANT	4	Pstat Model
PSTATSECTION	LABEL	REF600-11020	Pstat Section
PSTATSERIALNO	LABEL	11020	Pstat Serial Number
CTRLMODE	IQUANT	1	Control Mode
IESTAB	IQUANT	0	I/E Stability
CASPEED	IQUANT	1	Control Amp Speed
CONVENTION	IQUANT	1	Current Convention
ICHRANGE	IQUANT	2	Ich Range
ICHRANGEMODE	TOGGLE	F	Ich Auto Range
ICHOFFSETENABLE	TOGGLE	T	Ich Offset Enable
ICHOFFSET	QUANT	0	Ich Offset (V)
ICHFILTER	IQUANT	3	Ich Filter
VCHRANGE	IQUANT	2	Vch Range
VCHRANGEMODE	TOGGLE	F	Vch Auto Range
VCHOFFSETENABLE	TOGGLE	T	Vch Offset Enable
VCHOFFSET	QUANT	0	Vch Offset (V)
VCHFILTER	IQUANT	3	Vch Filter
ACHRANGE	IQUANT	2	Ach Range
ACHOFFSETENABLE	TOGGLE	F	Ach Offset Enable
ACHOFFSET	QUANT	0	Ach Offset (V)
ACHFILTER	IQUANT	3	Ach Filter
IERANGELOWERLIMIT	IQUANT	1	I/E Range Lower Limit
IERANGEMODE	TOGGLE	F	I/E AutoRange
IERANGE	IQUANT	7	I/E Range
POSFEEDENABLE	TOGGLE	F	Positive Feedback IR Comp
POSFEEDRESISTANCE	QUANT	0	Positive Feedback Resistance (ohm)
ACHSELECT	IQUANT	0	Ach Select
CABLEID	IQUANT	14	Cable ID
DCCALDATE	LABEL	2/27/2020	DC Calibration Date
ACCALDATE	LABEL	2/27/2020	AC Calibration Date
THERMOSELECT	IQUANT	1	Thermo Select
FRAMEWORKVERSION	QUANT	6.33	Framework Version
INSTRUMENTVERSION	LABEL	3.50	Instrument Version
ZCURVE	TABLE
	Pt	Time	Freq	Zreal	Zimag	Zsig	Zmod	Zphz	Idc	Vdc	IERange
	#	s	Hz	ohm	ohm	V	ohm	°	A	V	#
	0	2	1000078	1667.572	-1551.739	1	2277.87	-42.93936	8.139211E-006	0.0992516	8
	1	3	794390.6	1993.89	-1587.576	1	2548.724	-38.52752	-8.849728E-006	0.101363	8
	2	4	630984.4	2316.833	-1582.281	1	2805.589	-34.33111	-3.404717E-006	0.1010764	8
	3	6	501234.4	2632.523	-1494.122	1	3026.975	-29.57764	8.015613E-007	0.0995186	8
	4	7	398109.4	2893.541	-1393.57	1	3211.637	-25.71613	-6.083282E-007	0.0996792	8
	5	8	316265.6	3130.368	-1244.412	1	3368.644	-21.67925	-2.330498E-006	0.1003308	8
	6	10	251203.1	3281.698	-1128.775	1	3470.4	-18.9812	1.939207E-006	0.0991884	8
	7	12	199546.9	3411.812	-1000.772	1	3555.559	-16.34776	-1.244498E-006	0.0998378	8
	8	13	158578.1	3530.326	-884.0762	1	3639.34	-14.05907	-5.007844E-007	0.0996405	8
	9	14	125953.1	3670.137	-738.9479	1	3743.789	-11.38377	-4.019291E-007	0.100249	7
	10	16	100078.1	3721.327	-678.1989	1	3782.622	-10.3286	-6.491596E-010	0.0995296	7
	11	17	79453.13	3779.596	-649.9993	1	3835.081	-9.75804	-6.292176E-008	0.0996016	7
	12	18	63140.62	3835.826	-636.9972	1	3888.358	-9.428789	-4.783523E-008	0.0995382	7
	13	20	50203.12	3890.977	-640.9109	1	3943.408	-9.353613	-4.700076E-008	0.0995407	7
	14	21	39890.62	3947.593	-659.6989	1	4002.336	-9.48727	4.075337E-008	0.0994112	7
	15	22	31640.63	4006.48	-695.7925	1	4066.45	-9.85211	-8.479966E-008	0.0996419	7
	16	24	25171.88	4071.151	-745.6417	1	4138.871	-10.37884	-3.804796E-008	0.0994985	7
	17	25	20015.62	4141.515	-815.621	1	4221.064	-11.14113	-3.653996E-008	0.0996185	7
	18	27	15890.62	4220.879	-902.3726	1	4316.26	-12.06748	-7.245312E-009	0.099598	7
	19	28	12609.37	4309.024	-1010.509	1	4425.926	-13.19794	3.032854E-008	0.099531	7
	20	29	10078.13	4405.413	-1134.768	1	4549.215	-14.44452	1.19747E-007	0.0993562	7
	21	31	8015.625	4516.873	-1287.16	1	4696.692	-15.90581	6.318148E-008	0.0993251	7
	22	32	6328.125	4645.844	-1472.177	1	4873.517	-17.58239	1.186078E-007	0.0993	7
	23	33	5015.625	4790.469	-1686.003	1	5078.503	-19.38949	-4.543172E-008	0.099537	7
	24	35	3984.375	4954.634	-1936.831	1	5319.747	-21.35118	1.565324E-008	0.09941	7
	25	36	3170.956	5139.52	-2229.799	1	5602.381	-23.45378	-4.346364E-009	0.0995976	7
	26	38	2527.573	5343.601	-2566.869	1	5928.144	-25.65792	-5.955389E-008	0.0995859	7
	27	39	1976.103	5601.647	-2998.669	1	6353.776	-28.161	7.352984E-009	0.0994542	7
	28	40	1577.524	5866.222	-3467.553	1	6814.432	-30.58755	-3.889567E-008	0.0994946	7
	29	42	1265.625	6163.152	-4009.26	1	7352.456	-33.04485	3.681577E-008	0.0995332	7
	30	43	998.264	6524.158	-4690.261	1	8035.122	-35.71261	6.204583E-008	0.0993196	7
	31	44	796.875	6924.997	-5468.156	1	8823.623	-38.29553	3.172976E-008	0.0995339	7
	32	46	627.7902	7415.641	-6427.736	1	9813.64	-40.91812	-1.194296E-009	0.0995258	6
	33	47	505.5147	7914.111	-7470.848	1	10883.32	-43.34968	1.579903E-008	0.0992973	6
	34	48	397.9953	8565.936	-8836.621	1	12306.95	-45.89113	1.098723E-009	0.0995707	6
	35	50	315.5048	9299.352	-10421.29	1	13967.15	-48.25614	3.663146E-010	0.0995675	6
	36	51	252.4038	10122.41	-12225.98	1	15872.55	-50.37719	2.69791E-010	0.0995686	6
	37	53	198.6229	11162.49	-14533.7	1	18325.66	-52.47422	1.123405E-009	0.0995706	6
	38	54	158.3615	12317.56	-17121.55	1	21091.94	-54.26805	1.738987E-009	0.0995622	6
	39	55	125.558	13723.53	-20275.96	1	24483.66	-55.90839	1.190212E-009	0.099563	6
	40	57	100.4464	15340.11	-23856.34	1	28362.72	-57.25816	4.225512E-010	0.0995666	6
	41	58	79.00281	17270.78	-28298.16	1	33152.16	-58.60367	7.147354E-010	0.0995658	6
	42	60	63.3446	19832.61	-33191.05	1	38664.95	-59.14046	1.225058E-009	0.0995689	6
	43	61	49.86702	21850.7	-39882.12	1	45475.66	-61.28246	1.1545E-009	0.0995662	6
	44	62	39.72458	24905.56	-46924.71	1	53124.53	-62.04261	1.006032E-009	0.0995668	6
	45	64	31.6723	28059.03	-55651.99	1	62325.38	-63.24334	1.867577E-009	0.0995634	6
	46	65	24.93351	32256.53	-66612.24	1	74011.31	-64.16173	1.119753E-009	0.0995634	6
	47	67	19.86229	36829.74	-79272.2	1	87410.02	-65.08049	1.000127E-009	0.0995631	6
	48	68	15.83615	40937.23	-94826.53	1	103285.7	-66.64983	2.362211E-009	0.0995696	5
	49	69	12.40079	48230.98	-115575.6	1	125235.6	-67.34869	1.533362E-009	0.0995703	5
	50	71	9.93114	56782.81	-136950.7	1	148255.8	-67.48001	7.623414E-010	0.0995771	5
	51	72	7.944915	66398.55	-163301	1	176283.8	-67.87324	-1.596257E-010	0.0995742	5
	52	74	6.317385	79847.06	-196836.7	1	212415.2	-67.92	6.383691E-010	0.0995587	5
	53	76	5.008013	96500.7	-236764.6	1	255675.3	-67.82513	5.183498E-010	0.0995789	5
	54	79	3.945707	118667.8	-284660.6	1	308405.1	-67.36998	2.66466E-010	0.099562	5
	55	81	3.158693	144825.4	-337035.8	1	366834.5	-66.74665	6.264675E-010	0.099593	5
	56	85	2.504006	179278.9	-400433.9	1	438734.8	-65.88139	2.048765E-010	0.0995646	5
	57	87	1.998082	220275.3	-470085.5	1	519135.4	-64.89288	2.737681E-010	0.0995546	5
	58	90	1.584686	273844.4	-551022.7	1	615318.4	-63.57378	4.534455E-010	0.0996244	5
	59	94	1.266892	333260.1	-639025.3	1	720704.9	-62.45737	2.51042E-010	0.0995786	5
	60	98	0.999041	409902.2	-744235.6	1	849650.8	-61.15537	6.658339E-010	0.0995886	5
