EXPLAIN
TAG	EISPOT
TITLE	LABEL	Potentiostatic EIS	Test &Identifier
DATE	LABEL	9/1/2020	Date
TIME	LABEL	20:51:55	Time
NOTES	NOTES	1	&Notes...
	
PSTAT	PSTAT	REF600-11020	Potentiostat
VDC	POTEN	0.00000E+000	T	DC &Voltage (V)
FREQINIT	QUANT	1.00000E+006	Initial Fre&q. (Hz)
FREQFINAL	QUANT	1.00000E+000	Final Fre&q. (Hz)
PTSPERDEC	QUANT	1.00000E+001	Points/&decade
VAC	QUANT	2.50000E+001	AC &Voltage (mV rms)
AREA	QUANT	4.00000E-005	&Area (cm^2)
CONDIT	TWOPARAM	F	5.00000E+000	0.00000E+000	Conditionin&g	Time(s)	E(V)
DELAY	TWOPARAM	F	3.00000E+000	0.00000E+000	Init. De&lay	Time(s)	Stab.(mV/s)
SPEED	SELECTOR	0	&Optimize for:
ZGUESS	QUANT	1.00000E+003	E&stimated Z (ohms)
OCVCURVE	TABLE	39
	Pt	T	Vf	Vm	Ach	Over
	#	s	V vs. Ref.	V	V	bits
	0	0.258333	1.35083E-001	1.35083E-001	5.92191E-004	...........
	1	0.516667	1.35087E-001	1.35278E-001	5.90825E-004	...........
	2	0.775	1.35110E-001	1.35452E-001	5.88358E-004	...........
	3	1.03333	1.35173E-001	1.35615E-001	5.93658E-004	...........
	4	1.29167	1.35285E-001	1.35765E-001	5.92091E-004	...........
	5	1.55	1.35430E-001	1.35911E-001	5.94091E-004	...........
	6	1.80833	1.35588E-001	1.36040E-001	5.89058E-004	...........
	7	2.06667	1.35743E-001	1.36160E-001	5.89625E-004	...........
	8	2.325	1.35888E-001	1.36276E-001	5.91458E-004	...........
	9	2.58333	1.36023E-001	1.36412E-001	5.95458E-004	...........
	10	2.84167	1.36151E-001	1.36565E-001	5.94025E-004	...........
	11	3.1	1.36278E-001	1.36696E-001	5.93091E-004	...........
	12	3.35833	1.36410E-001	1.36799E-001	5.94458E-004	...........
	13	3.61667	1.36542E-001	1.36866E-001	5.93758E-004	...........
	14	3.875	1.36663E-001	1.36914E-001	5.95758E-004	...........
	15	4.13333	1.36765E-001	1.36949E-001	5.91858E-004	...........
	16	4.39167	1.36843E-001	1.36975E-001	5.93758E-004	...........
	17	4.65	1.36900E-001	1.36985E-001	5.93158E-004	...........
	18	4.90833	1.36939E-001	1.36988E-001	5.91891E-004	...........
	19	5.16667	1.36964E-001	1.36984E-001	5.93058E-004	...........
	20	5.425	1.36978E-001	1.36979E-001	5.95258E-004	...........
	21	5.68333	1.36984E-001	1.36983E-001	5.90525E-004	...........
	22	5.94167	1.36985E-001	1.36978E-001	5.89725E-004	...........
	23	6.2	1.36983E-001	1.36963E-001	5.86925E-004	...........
	24	6.45833	1.36979E-001	1.36941E-001	5.87258E-004	...........
	25	6.71667	1.36971E-001	1.36916E-001	5.90658E-004	...........
	26	6.975	1.36958E-001	1.36883E-001	5.90558E-004	...........
	27	7.23333	1.36939E-001	1.36858E-001	5.89858E-004	...........
	28	7.49167	1.36915E-001	1.36827E-001	5.91291E-004	...........
	29	7.75	1.36888E-001	1.36797E-001	5.88725E-004	...........
	30	8.00833	1.36859E-001	1.36767E-001	5.96091E-004	...........
	31	8.26667	1.36829E-001	1.36734E-001	5.96691E-004	...........
	32	8.525	1.36799E-001	1.36701E-001	5.93758E-004	...........
	33	8.78333	1.36768E-001	1.36669E-001	5.91625E-004	...........
	34	9.04167	1.36736E-001	1.36640E-001	5.94991E-004	...........
	35	9.3	1.36704E-001	1.36609E-001	5.92591E-004	...........
	36	9.5583	1.36673E-001	1.36580E-001	5.93425E-004	...........
	37	9.8167	1.36642E-001	1.36544E-001	5.89391E-004	...........
	38	10.075	1.36611E-001	1.36512E-001	5.94358E-004	...........
EOC	QUANT	0.1366111	Open Circuit (V)
PSTATMODEL	IQUANT	4	Pstat Model
PSTATSECTION	LABEL	REF600-11020	Pstat Section
PSTATSERIALNO	LABEL	11020	Pstat Serial Number
CTRLMODE	IQUANT	1	Control Mode
IESTAB	IQUANT	0	I/E Stability
CASPEED	IQUANT	1	Control Amp Speed
CONVENTION	IQUANT	1	Current Convention
ICHRANGE	IQUANT	2	Ich Range
ICHRANGEMODE	TOGGLE	F	Ich Auto Range
ICHOFFSETENABLE	TOGGLE	T	Ich Offset Enable
ICHOFFSET	QUANT	0	Ich Offset (V)
ICHFILTER	IQUANT	3	Ich Filter
VCHRANGE	IQUANT	2	Vch Range
VCHRANGEMODE	TOGGLE	F	Vch Auto Range
VCHOFFSETENABLE	TOGGLE	T	Vch Offset Enable
VCHOFFSET	QUANT	0	Vch Offset (V)
VCHFILTER	IQUANT	3	Vch Filter
ACHRANGE	IQUANT	2	Ach Range
ACHOFFSETENABLE	TOGGLE	F	Ach Offset Enable
ACHOFFSET	QUANT	0	Ach Offset (V)
ACHFILTER	IQUANT	3	Ach Filter
IERANGELOWERLIMIT	IQUANT	1	I/E Range Lower Limit
IERANGEMODE	TOGGLE	F	I/E AutoRange
IERANGE	IQUANT	8	I/E Range
POSFEEDENABLE	TOGGLE	F	Positive Feedback IR Comp
POSFEEDRESISTANCE	QUANT	0	Positive Feedback Resistance (ohm)
ACHSELECT	IQUANT	0	Ach Select
CABLEID	IQUANT	14	Cable ID
DCCALDATE	LABEL	9/1/2020	DC Calibration Date
ACCALDATE	LABEL	9/1/2020	AC Calibration Date
THERMOSELECT	IQUANT	1	Thermo Select
FRAMEWORKVERSION	QUANT	6.33	Framework Version
INSTRUMENTVERSION	LABEL	3.50	Instrument Version
ZCURVE	TABLE
	Pt	Time	Freq	Zreal	Zimag	Zsig	Zmod	Zphz	Idc	Vdc	IERange
	#	s	Hz	ohm	ohm	V	ohm	°	A	V	#
	0	1	1000078	1646.437	-2363.786	1	2880.667	-55.14181	2.061881E-008	0.138422	8
	1	1	794390.6	1948.606	-2664.969	1	3301.383	-53.82601	1.08438E-007	0.1381635	8
	2	1	630984.4	2278.968	-2993.131	1	3761.984	-52.71438	1.780865E-008	0.1380738	8
	3	2	501234.4	2632.81	-3356.349	1	4265.767	-51.88841	1.226715E-007	0.1379567	8
	4	2	398109.4	3014.683	-3767.135	1	4824.896	-51.33115	7.133934E-008	0.1379517	8
	5	2	316265.6	3421.058	-4240.545	1	5448.474	-51.10516	7.237116E-008	0.1379347	8
	6	3	251203.1	3866.466	-4778.593	1	6146.911	-51.0229	7.248289E-008	0.1379348	8
	7	3	199546.9	4349.208	-5430.762	1	6957.643	-51.31062	3.787354E-008	0.1379667	8
	8	3	158578.1	4873.142	-6217.564	1	7899.723	-51.91171	3.444715E-008	0.1379636	8
	9	4	125953.1	5524.916	-7150.959	1	9036.643	-52.3099	1.530787E-009	0.1379572	7
	10	4	100078.1	6261.369	-8252.403	1	10358.9	-52.81122	2.644621E-009	0.1379186	7
	11	4	79453.13	7100.922	-9571.28	1	11917.74	-53.42831	4.27452E-009	0.1379213	7
	12	5	63140.62	8123.122	-11096.08	1	13751.66	-53.79322	4.662541E-009	0.1379172	7
	13	5	50203.12	9354.578	-12841.93	1	15887.84	-53.92891	4.463143E-009	0.1379169	7
	14	5	39890.62	10848.32	-14812.11	1	18359.86	-53.78111	2.886046E-009	0.1379024	7
	15	5	31640.63	12636.02	-17062.73	1	21232.19	-53.47773	3.008403E-009	0.1379032	7
	16	6	25171.88	14706.76	-19552.82	1	24466.34	-53.05114	3.663965E-009	0.1379063	7
	17	6	20015.62	17162.03	-22349.11	1	28178.33	-52.4791	4.373753E-009	0.1379031	7
	18	6	15890.62	20117.14	-25463.85	1	32451.61	-51.69029	4.073081E-009	0.1379041	7
	19	7	12609.37	23790.62	-28940.76	1	37464.13	-50.57825	1.243282E-009	0.1378944	6
	20	7	10078.13	27877.12	-32566.27	1	42868.36	-49.43607	1.221405E-009	0.1378988	6
	21	7	8015.625	32874.46	-36423.65	1	49065.39	-47.93192	1.290007E-009	0.1378963	6
	22	8	6328.125	39009.34	-40335.03	1	56112.77	-45.95721	1.158738E-009	0.137891	6
	23	8	5015.625	45978.64	-44117.43	1	63721.13	-43.81655	1.127017E-009	0.137892	6
	24	8	3984.375	53804.03	-47260.99	1	71613.37	-41.29579	1.362616E-009	0.1378924	6
	25	9	3170.956	62228.13	-49771.07	1	79683.75	-38.65339	1.039809E-009	0.1378845	6
	26	9	2527.573	71064.34	-51404.49	1	87707.25	-35.88015	1.167763E-009	0.137889	6
	27	9	1976.103	80692.83	-52048.23	1	96022.7	-32.8227	1.288701E-009	0.137892	6
	28	10	1577.524	89551.73	-52279.77	1	103695.2	-30.27613	1.023373E-009	0.1378791	6
	29	10	1265.625	98480.6	-50741.51	1	110784.2	-27.2595	6.113736E-010	0.1378778	5
	30	10	998.264	106789.9	-49895.63	1	117871.4	-25.04347	5.636445E-010	0.1378735	5
	31	10	796.875	113776	-48463.59	1	123667.7	-23.07187	5.923596E-010	0.1378724	5
	32	11	627.7902	121254.4	-47502.02	1	130227	-21.39301	5.852102E-010	0.137878	5
	33	11	505.5147	127889.7	-46819.45	1	136190.4	-20.1073	5.529545E-010	0.1378742	5
	34	11	397.9953	134574.3	-46029.25	1	142228.4	-18.88254	5.865617E-010	0.1378926	5
	35	12	315.5048	140853.8	-45586.49	1	148047	-17.93386	5.228005E-010	0.1378958	5
	36	12	252.4038	146153.8	-45258.41	1	153000.9	-17.20581	4.57251E-010	0.1378922	5
	37	12	198.6229	151476.3	-45354.42	1	158120.5	-16.66854	3.61701E-010	0.1378953	5
	38	13	158.3615	156215.2	-46005.62	1	162848.7	-16.40978	4.197499E-010	0.1378913	5
	39	13	125.558	161706.8	-47723.29	1	168601.9	-16.44251	4.954476E-010	0.1378938	5
	40	13	100.4464	166703.1	-50027.92	1	174048	-16.7046	3.63632E-010	0.1378902	5
	41	14	79.00281	171953.3	-53533.73	1	180093.9	-17.29278	3.464916E-010	0.1378941	5
	42	14	63.3446	176274.6	-57682.27	1	185472.3	-18.11963	3.176836E-010	0.1378867	5
	43	14	49.86702	182208.8	-63767.19	1	193044.8	-19.28839	1.311066E-010	0.1378862	5
	44	15	39.72458	187033.7	-70896.09	1	200019.7	-20.75947	5.22948E-011	0.1378895	5
	45	15	31.6723	194194.1	-80072.05	1	210054.5	-22.40782	-1.240869E-010	0.1378905	5
	46	15	24.93351	201222.7	-91666.03	1	221118.2	-24.49141	2.765571E-010	0.1378857	5
	47	16	19.86229	209958.2	-105107.8	1	234798	-26.59315	1.902876E-010	0.1378884	5
	48	16	15.83615	220728.5	-121129.4	1	251780.5	-28.7567	3.209183E-010	0.1378848	5
	49	16	12.40079	233226.2	-141538.1	1	272814	-31.25232	9.300817E-010	0.1378856	5
	50	17	9.93114	246533.7	-163834.3	1	296007.7	-33.60608	7.77732E-010	0.1378888	5
	51	17	7.944915	262988.2	-189655.3	1	324240.6	-35.79744	-4.044057E-010	0.1378864	5
	52	17	6.317385	283664.9	-220587.1	1	359338.9	-37.86981	1.642003E-011	0.1378789	5
	53	18	5.008013	308710.1	-256832.8	1	401578.2	-39.75891	2.860212E-010	0.1378932	5
	54	19	3.945707	338917.2	-298292.5	1	451490.1	-41.3521	-1.783405E-010	0.1378804	5
	55	20	3.158693	373759.9	-342040	1	506643.7	-42.46266	1.686467E-010	0.1378838	5
	56	21	2.504006	416117	-391762.6	1	571516.6	-43.27328	7.112731E-011	0.137887	5
	57	22	1.998082	465461.5	-445700.4	1	644440.3	-43.75758	-1.484336E-010	0.137841	5
	58	24	1.584686	522251	-505640.7	1	726924.1	-44.07421	-1.241971E-010	0.1378725	5
	59	26	1.266892	587171.3	-567643.8	1	816694.3	-44.03124	5.058592E-011	0.1379087	5
	60	28	0.999041	667159.7	-639670.1	1	924272.6	-43.79494	2.728185E-010	0.1379195	5
