EXPLAIN
TAG	EISPOT
TITLE	LABEL	Potentiostatic EIS	Test &Identifier
DATE	LABEL	3/12/2020	Date
TIME	LABEL	13:49:55	Time
NOTES	NOTES	1	&Notes...
	
PSTAT	PSTAT	REF600-11020	Potentiostat
VDC	POTEN	0.00000E+000	T	DC &Voltage (V)
FREQINIT	QUANT	1.00000E+006	Initial Fre&q. (Hz)
FREQFINAL	QUANT	1.00000E+000	Final Fre&q. (Hz)
PTSPERDEC	QUANT	1.00000E+001	Points/&decade
VAC	QUANT	2.50000E+001	AC &Voltage (mV rms)
AREA	QUANT	2.50000E-001	&Area (cm^2)
CONDIT	TWOPARAM	F	5.00000E+000	0.00000E+000	Conditionin&g	Time(s)	E(V)
DELAY	TWOPARAM	T	5.00000E+000	0.00000E+000	Init. De&lay	Time(s)	Stab.(mV/s)
SPEED	SELECTOR	1	&Optimize for:
ZGUESS	QUANT	5.00000E+003	E&stimated Z (ohms)
OCVCURVE	TABLE	19
	Pt	T	Vf	Vm	Ach	Over
	#	s	V vs. Ref.	V	V	bits
	0	0.258333	7.60999E-002	7.60999E-002	6.54429E-004	...........
	1	0.516667	7.61001E-002	7.61095E-002	6.46029E-004	...........
	2	0.775	7.61015E-002	7.61328E-002	6.39962E-004	...........
	3	1.03333	7.61066E-002	7.61672E-002	6.43562E-004	...........
	4	1.29167	7.61179E-002	7.61693E-002	6.42929E-004	...........
	5	1.55	7.61335E-002	7.61304E-002	6.41529E-004	...........
	6	1.80833	7.61409E-002	7.58604E-002	6.44296E-004	...........
	7	2.06667	7.61138E-002	7.56886E-002	6.48662E-004	...........
	8	2.325	7.60296E-002	7.55549E-002	6.43129E-004	...........
	9	2.58333	7.58963E-002	7.55401E-002	6.41662E-004	...........
	10	2.84167	7.57534E-002	7.55807E-002	6.50429E-004	...........
	11	3.1	7.56449E-002	7.56375E-002	6.42429E-004	...........
	12	3.35833	7.55954E-002	7.58063E-002	6.42329E-004	...........
	13	3.61667	7.56105E-002	7.59706E-002	6.40396E-004	...........
	14	3.875	7.56840E-002	7.61001E-002	6.42762E-004	...........
	15	4.13333	7.58062E-002	7.65145E-002	6.46029E-004	...........
	16	4.39167	7.59653E-002	7.62744E-002	6.47696E-004	...........
	17	4.65	7.61265E-002	7.60869E-002	6.40896E-004	...........
	18	4.90833	7.62265E-002	7.60540E-002	6.45129E-004	...........
EOC	QUANT	0.0762265	Open Circuit (V)
PSTATMODEL	IQUANT	4	Pstat Model
PSTATSECTION	LABEL	REF600-11020	Pstat Section
PSTATSERIALNO	LABEL	11020	Pstat Serial Number
CTRLMODE	IQUANT	1	Control Mode
IESTAB	IQUANT	0	I/E Stability
CASPEED	IQUANT	1	Control Amp Speed
CONVENTION	IQUANT	1	Current Convention
ICHRANGE	IQUANT	2	Ich Range
ICHRANGEMODE	TOGGLE	F	Ich Auto Range
ICHOFFSETENABLE	TOGGLE	T	Ich Offset Enable
ICHOFFSET	QUANT	0	Ich Offset (V)
ICHFILTER	IQUANT	3	Ich Filter
VCHRANGE	IQUANT	2	Vch Range
VCHRANGEMODE	TOGGLE	F	Vch Auto Range
VCHOFFSETENABLE	TOGGLE	T	Vch Offset Enable
VCHOFFSET	QUANT	0	Vch Offset (V)
VCHFILTER	IQUANT	3	Vch Filter
ACHRANGE	IQUANT	2	Ach Range
ACHOFFSETENABLE	TOGGLE	F	Ach Offset Enable
ACHOFFSET	QUANT	0	Ach Offset (V)
ACHFILTER	IQUANT	3	Ach Filter
IERANGELOWERLIMIT	IQUANT	1	I/E Range Lower Limit
IERANGEMODE	TOGGLE	F	I/E AutoRange
IERANGE	IQUANT	7	I/E Range
POSFEEDENABLE	TOGGLE	F	Positive Feedback IR Comp
POSFEEDRESISTANCE	QUANT	0	Positive Feedback Resistance (ohm)
ACHSELECT	IQUANT	0	Ach Select
CABLEID	IQUANT	14	Cable ID
DCCALDATE	LABEL	2/27/2020	DC Calibration Date
ACCALDATE	LABEL	2/27/2020	AC Calibration Date
THERMOSELECT	IQUANT	1	Thermo Select
FRAMEWORKVERSION	QUANT	6.33	Framework Version
INSTRUMENTVERSION	LABEL	3.50	Instrument Version
ZCURVE	TABLE
	Pt	Time	Freq	Zreal	Zimag	Zsig	Zmod	Zphz	Idc	Vdc	IERange
	#	s	Hz	ohm	ohm	V	ohm	°	A	V	#
	0	1	1000078	1853.55	-2145.472	1	2835.26	-49.17508	3.961826E-006	0.0781356	8
	1	3	794390.6	2287.181	-2284.678	1	3232.793	-44.96864	-1.106324E-006	0.0781827	8
	2	4	630984.4	2755.079	-2345.293	1	3618.13	-40.40648	-8.359919E-007	0.0784345	8
	3	6	501234.4	3237.477	-2332.772	1	3990.374	-35.77473	-1.321966E-006	0.0781963	8
	4	7	398109.4	3692.521	-2240.938	1	4319.319	-31.25296	7.50713E-007	0.077825	8
	5	8	316265.6	4086.819	-2116.324	1	4602.273	-27.37699	-1.403208E-006	0.078261	8
	6	10	251203.1	4405.808	-1947.492	1	4817.04	-23.84679	-8.720422E-007	0.0782064	8
	7	11	199546.9	4686.752	-1785.962	1	5015.506	-20.86015	2.184567E-006	0.0776341	8
	8	12	158578.1	4938.303	-1616.253	1	5196.066	-18.12271	-1.287016E-006	0.0780747	8
	9	14	125953.1	5141.014	-1450.583	1	5341.743	-15.75689	-8.997478E-008	0.0779228	7
	10	15	100078.1	5280.811	-1333.505	1	5446.577	-14.172	4.657998E-009	0.0778414	7
	11	16	79453.13	5417.132	-1257.646	1	5561.204	-13.07029	-1.422118E-008	0.0778204	7
	12	18	63140.62	5540.799	-1207.753	1	5670.901	-12.29668	-2.2727E-008	0.0778494	7
	13	19	50203.12	5655.332	-1184.833	1	5778.115	-11.83274	4.848643E-009	0.0777845	7
	14	21	39890.62	5766.282	-1188.026	1	5887.395	-11.64174	2.9577E-008	0.0777435	7
	15	22	31640.63	5876.947	-1220.163	1	6002.274	-11.72903	3.568775E-009	0.0777957	7
	16	23	25171.88	5989.435	-1279.451	1	6124.567	-12.05817	1.243024E-008	0.0778541	7
	17	25	20015.62	6109.055	-1368.713	1	6260.505	-12.62838	1.426331E-008	0.0778525	7
	18	26	15890.62	6237.967	-1489.281	1	6413.282	-13.42771	-1.786237E-009	0.0778731	7
	19	27	12609.37	6379.107	-1643.5	1	6587.419	-14.44738	1.365916E-008	0.0778477	7
	20	29	10078.13	6528.853	-1831.46	1	6780.867	-15.66976	1.516126E-008	0.0778517	7
	21	30	8015.625	6697.46	-2061.345	1	7007.504	-17.10733	-3.152434E-008	0.077875	7
	22	31	6328.125	6894.677	-2354.038	1	7285.469	-18.85136	-2.424587E-009	0.0778745	7
	23	33	5015.625	7111.235	-2699.165	1	7606.258	-20.78493	-1.373988E-008	0.0778719	7
	24	34	3984.375	7356.981	-3102.34	1	7984.34	-22.8645	5.577007E-008	0.0777283	7
	25	36	3170.956	7632.636	-3583.279	1	8431.905	-25.14856	-1.315683E-008	0.0778162	7
	26	37	2527.573	7949.72	-4154.1	1	8969.648	-27.58917	-2.147994E-009	0.0778712	7
	27	38	1976.103	8351.846	-4878.622	1	9672.35	-30.29078	-2.978804E-010	0.0778595	6
	28	40	1577.524	8774.157	-5677.574	1	10450.87	-32.90606	7.636888E-009	0.0777478	6
	29	41	1265.625	9255.209	-6598.996	1	11366.87	-35.489	4.254897E-009	0.0778507	6
	30	42	998.264	9863.65	-7772.961	1	12558.28	-38.23957	-5.445373E-009	0.077909	6
	31	44	796.875	10545.58	-9085.297	1	13919.48	-40.74577	-9.488321E-011	0.0778124	6
	32	45	627.7902	11397.29	-10719.91	1	15646.55	-43.24575	-1.420892E-010	0.077864	6
	33	47	505.5147	12311.24	-12476.92	1	17528.27	-45.38297	-3.918351E-009	0.0779452	6
	34	48	397.9953	13519.9	-14733.12	1	19996.31	-47.45884	7.401432E-010	0.0778912	6
	35	49	315.5048	14915.81	-17301.26	1	22843.27	-49.23462	1.955275E-010	0.0778931	6
	36	51	252.4038	16502.55	-20173.39	1	26063.38	-50.71562	1.330783E-010	0.0778866	6
	37	52	198.6229	18519.42	-23755.5	1	30121.3	-52.06057	5.499393E-010	0.0778852	6
	38	53	158.3615	20763.19	-27681.86	1	34603.4	-53.12772	7.080766E-010	0.0778764	6
	39	55	125.558	23425.66	-32365.48	1	39953.55	-54.10353	4.908317E-010	0.0778889	6
	40	56	100.4464	26373.2	-37571.61	1	45903.94	-54.93325	6.911026E-010	0.0778829	6
	41	58	79.00281	30033.05	-44122.07	1	53373.6	-55.75763	3.190969E-010	0.0778844	6
	42	59	63.3446	33868.93	-50785.67	1	61043.33	-56.30071	5.987099E-010	0.0778761	6
	43	60	49.86702	39326.79	-60200.35	1	71907.43	-56.84481	3.201184E-010	0.0778809	6
	44	62	39.72458	44627	-70085.27	1	83087.38	-57.51294	2.666748E-010	0.0778853	6
	45	63	31.6723	51086.82	-81914.45	1	96539.3	-58.04983	5.983235E-010	0.0778847	6
	46	65	24.93351	58960.5	-96178.3	1	112812.2	-58.49031	2.174672E-010	0.0778833	5
	47	66	19.86229	68014.88	-112408.7	1	131383.9	-58.82322	2.426914E-011	0.0778899	5
	48	67	15.83615	77514.93	-131467.8	1	152618.3	-59.47591	9.319959E-010	0.0778871	5
	49	69	12.40079	92830.29	-155364.5	1	180985.1	-59.14169	-5.681509E-010	0.0778931	5
	50	70	9.93114	107242.5	-181067.1	1	210443	-59.36258	3.725995E-010	0.0778947	5
	51	72	7.944915	125511.3	-210561.7	1	245131.2	-59.20175	-2.819641E-010	0.0778971	5
	52	74	6.317385	147945.4	-245515.2	1	286645.3	-58.92719	1.439695E-010	0.0778826	5
	53	76	5.008013	175875.7	-286141.1	1	335870.5	-58.42316	5.041621E-011	0.0778996	5
	54	78	3.945707	210495.9	-333089.6	1	394026.9	-57.70918	-1.680304E-010	0.077891	5
	55	81	3.158693	249461.1	-382044.2	1	456276.9	-56.85691	2.868136E-010	0.0779018	5
	56	84	2.504006	297338.3	-438249.3	1	529596.6	-55.84435	-2.820617E-010	0.0779	5
	57	87	1.998082	350925.3	-497152.8	1	608530.6	-54.78288	5.816936E-011	0.0778468	5
	58	90	1.584686	412752.1	-562539.4	1	697721.3	-53.73138	-2.41359E-012	0.0779188	5
	59	94	1.266892	482206.5	-634143.5	1	796656.2	-52.75043	-3.372907E-011	0.0778628	5
	60	98	0.999041	564137.5	-715983.9	1	911528.4	-51.76475	3.303036E-010	0.0779298	5
