EXPLAIN
TAG	EISPOT
TITLE	LABEL	Potentiostatic EIS	Test &Identifier
DATE	LABEL	1/27/2020	Date
TIME	LABEL	17:11:42	Time
NOTES	NOTES	6	&Notes...
	
	
	
	
	
	
PSTAT	PSTAT	REF600-11020	Potentiostat
VDC	POTEN	0.00000E+000	T	DC &Voltage (V)
FREQINIT	QUANT	1.00000E+006	Initial Fre&q. (Hz)
FREQFINAL	QUANT	1.00000E+000	Final Fre&q. (Hz)
PTSPERDEC	QUANT	1.00000E+001	Points/&decade
VAC	QUANT	2.50000E+001	AC &Voltage (mV rms)
AREA	QUANT	1.60000E-004	&Area (cm^2)
CONDIT	TWOPARAM	F	5.00000E+000	0.00000E+000	Conditionin&g	Time(s)	E(V)
DELAY	TWOPARAM	F	5.00000E+000	0.00000E+000	Init. De&lay	Time(s)	Stab.(mV/s)
SPEED	SELECTOR	1	&Optimize for:
ZGUESS	QUANT	1.00000E+003	E&stimated Z (ohms)
OCVCURVE	TABLE	39
	Pt	T	Vf	Vm	Ach	Over
	#	s	V vs. Ref.	V	V	bits
	0	0.258333	4.48586E-002	4.48586E-002	5.77371E-004	...........
	1	0.516667	4.48573E-002	4.47868E-002	5.81004E-004	...........
	2	0.775	4.48463E-002	4.45886E-002	5.78804E-004	...........
	3	1.03333	4.48089E-002	4.44855E-002	5.79337E-004	...........
	4	1.29167	4.47339E-002	4.44261E-002	5.74038E-004	...........
	5	1.55	4.46310E-002	4.42615E-002	5.78637E-004	...........
	6	1.80833	4.45170E-002	4.41145E-002	5.76938E-004	...........
	7	2.06667	4.43949E-002	4.38848E-002	5.79171E-004	...........
	8	2.325	4.42578E-002	4.38186E-002	5.75704E-004	...........
	9	2.58333	4.41090E-002	4.37487E-002	5.77871E-004	...........
	10	2.84167	4.39614E-002	4.33624E-002	5.76871E-004	...........
	11	3.1	4.38142E-002	4.33742E-002	5.80037E-004	...........
	12	3.35833	4.36644E-002	4.35129E-002	5.80404E-004	...........
	13	3.61667	4.35472E-002	4.38767E-002	5.82437E-004	...........
	14	3.875	4.35227E-002	4.40405E-002	5.83204E-004	...........
	15	4.13333	4.36159E-002	4.42485E-002	5.82504E-004	...........
	16	4.39167	4.37767E-002	4.35222E-002	5.82437E-004	...........
	17	4.65	4.38820E-002	4.29157E-002	5.80104E-004	...........
	18	4.90833	4.37950E-002	4.21778E-002	5.83204E-004	...........
	19	5.16667	4.34766E-002	4.24565E-002	5.80271E-004	...........
	20	5.425	4.30517E-002	4.27751E-002	5.79837E-004	...........
	21	5.68333	4.27244E-002	4.28240E-002	5.81137E-004	...........
	22	5.94167	4.26051E-002	4.28375E-002	5.79437E-004	...........
	23	6.2	4.26460E-002	4.29153E-002	5.77737E-004	...........
	24	6.45833	4.27460E-002	4.31511E-002	5.85737E-004	...........
	25	6.71667	4.28603E-002	4.35139E-002	5.85771E-004	...........
	26	6.975	4.30065E-002	4.37423E-002	5.82604E-004	...........
	27	7.23333	4.31979E-002	4.35523E-002	5.83971E-004	...........
	28	7.49167	4.33885E-002	4.33350E-002	5.85704E-004	...........
	29	7.75	4.34933E-002	4.29840E-002	5.80004E-004	...........
	30	8.00833	4.34623E-002	4.29663E-002	5.82071E-004	...........
	31	8.26667	4.33261E-002	4.30470E-002	5.81837E-004	...........
	32	8.525	4.31733E-002	4.31394E-002	5.82071E-004	...........
	33	8.78333	4.30822E-002	4.32277E-002	5.84037E-004	...........
	34	9.04167	4.30765E-002	4.34069E-002	5.81404E-004	...........
	35	9.3	4.31377E-002	4.34134E-002	5.81871E-004	...........
	36	9.5583	4.32298E-002	4.33428E-002	5.76038E-004	...........
	37	9.8167	4.33098E-002	4.32571E-002	5.81437E-004	...........
	38	10.075	4.33430E-002	4.31432E-002	5.78704E-004	...........
EOC	QUANT	0.043343	Open Circuit (V)
PSTATMODEL	IQUANT	4	Pstat Model
PSTATSECTION	LABEL	REF600-11020	Pstat Section
PSTATSERIALNO	LABEL	11020	Pstat Serial Number
CTRLMODE	IQUANT	1	Control Mode
IESTAB	IQUANT	0	I/E Stability
CASPEED	IQUANT	1	Control Amp Speed
CONVENTION	IQUANT	1	Current Convention
ICHRANGE	IQUANT	2	Ich Range
ICHRANGEMODE	TOGGLE	F	Ich Auto Range
ICHOFFSETENABLE	TOGGLE	T	Ich Offset Enable
ICHOFFSET	QUANT	0	Ich Offset (V)
ICHFILTER	IQUANT	3	Ich Filter
VCHRANGE	IQUANT	2	Vch Range
VCHRANGEMODE	TOGGLE	F	Vch Auto Range
VCHOFFSETENABLE	TOGGLE	T	Vch Offset Enable
VCHOFFSET	QUANT	0	Vch Offset (V)
VCHFILTER	IQUANT	3	Vch Filter
ACHRANGE	IQUANT	2	Ach Range
ACHOFFSETENABLE	TOGGLE	F	Ach Offset Enable
ACHOFFSET	QUANT	0	Ach Offset (V)
ACHFILTER	IQUANT	3	Ach Filter
IERANGELOWERLIMIT	IQUANT	1	I/E Range Lower Limit
IERANGEMODE	TOGGLE	F	I/E AutoRange
IERANGE	IQUANT	7	I/E Range
POSFEEDENABLE	TOGGLE	F	Positive Feedback IR Comp
POSFEEDRESISTANCE	QUANT	0	Positive Feedback Resistance (ohm)
ACHSELECT	IQUANT	0	Ach Select
CABLEID	IQUANT	14	Cable ID
DCCALDATE	LABEL	1/27/2020	DC Calibration Date
ACCALDATE	LABEL	1/27/2020	AC Calibration Date
THERMOSELECT	IQUANT	1	Thermo Select
FRAMEWORKVERSION	QUANT	6.33	Framework Version
INSTRUMENTVERSION	LABEL	3.50	Instrument Version
ZCURVE	TABLE
	Pt	Time	Freq	Zreal	Zimag	Zsig	Zmod	Zphz	Idc	Vdc	IERange
	#	s	Hz	ohm	ohm	V	ohm	°	A	V	#
	0	1	1000078	2049.161	-1603.289	1	2601.845	-38.04006	3.112502E-006	0.0451287	8
	1	2	794390.6	2363.214	-1578.906	1	2842.134	-33.7476	-6.038424E-006	0.0462706	8
	2	4	630984.4	2663.643	-1538.608	1	3076.086	-30.01215	5.591066E-006	0.0442289	8
	3	5	501234.4	2936.832	-1456.897	1	3278.343	-26.38498	-3.559008E-006	0.0454475	8
	4	6	398109.4	3183.397	-1341.665	1	3454.574	-22.85334	3.297702E-007	0.0448538	8
	5	8	316265.6	3382.466	-1220.909	1	3596.067	-19.84716	-1.425074E-007	0.0448935	8
	6	9	251203.1	3546.2	-1107.698	1	3715.176	-17.34682	-1.126876E-007	0.0448702	8
	7	10	199546.9	3683.903	-992.917	1	3815.367	-15.0844	2.252745E-007	0.0446301	8
	8	12	158578.1	3815.467	-889.7604	1	3917.839	-13.12669	3.391477E-008	0.0447661	8
	9	13	125953.1	3920.916	-774.4055	1	3996.659	-11.17248	4.26042E-008	0.0446836	7
	10	14	100078.1	4003.463	-717.7791	1	4067.3	-10.16454	-1.136955E-008	0.0447951	7
	11	16	79453.13	4072.023	-670.2645	1	4126.818	-9.347202	-2.566055E-008	0.0447653	7
	12	17	63140.62	4137.983	-639.0539	1	4187.039	-8.779178	-3.919364E-008	0.044804	7
	13	18	50203.12	4200.361	-619.525	1	4245.803	-8.390249	-1.103667E-008	0.0448562	7
	14	20	39890.62	4261.868	-612.5569	1	4305.664	-8.17909	3.643454E-009	0.044767	7
	15	21	31640.63	4324.184	-617.9216	1	4368.111	-8.132452	-5.870337E-009	0.0447855	7
	16	22	25171.88	4384.236	-632.6411	1	4429.646	-8.211048	8.868249E-010	0.0446941	7
	17	24	20015.62	4447.628	-659.9715	1	4496.327	-8.440376	-2.494325E-008	0.0447789	7
	18	25	15890.62	4508.869	-701.1721	1	4563.063	-8.839241	-4.174813E-009	0.0447765	7
	19	26	12609.37	4574.749	-756.4246	1	4636.864	-9.388782	-2.613632E-009	0.0447763	7
	20	28	10078.13	4637.999	-827.5161	1	4711.243	-10.11632	1.123411E-007	0.0445852	7
	21	29	8015.625	4707.676	-917.0396	1	4796.162	-11.02299	4.110325E-008	0.0446296	7
	22	31	6328.125	4781.872	-1038.313	1	4893.301	-12.25076	-3.288495E-008	0.0447785	7
	23	32	5015.625	4857.686	-1185.1	1	5000.158	-13.71028	1.485352E-009	0.0446936	7
	24	33	3984.375	4938.133	-1370.895	1	5124.891	-15.5154	1.674437E-009	0.0446939	7
	25	35	3170.956	5025.637	-1593.302	1	5272.157	-17.59044	2.718101E-008	0.0446604	7
	26	36	2527.573	5119.582	-1872.139	1	5451.149	-20.08656	-3.910299E-008	0.0448218	7
	27	37	1976.103	5231.666	-2246.083	1	5693.436	-23.23504	6.369226E-008	0.0446275	7
	28	39	1577.524	5350.55	-2674.678	1	5981.83	-26.55993	-3.865918E-008	0.0448254	7
	29	40	1265.625	5485.983	-3187.25	1	6344.649	-30.15576	-2.32281E-008	0.0447733	7
	30	41	998.264	5656.46	-3871.925	1	6854.731	-34.39218	7.284989E-008	0.0446001	7
	31	43	796.875	5864.056	-4673.646	1	7498.675	-38.55481	3.249654E-008	0.0447052	7
	32	44	627.7902	6131.336	-5718.282	1	8384.035	-43.00359	7.077392E-009	0.0447543	7
	33	45	505.5147	6443.524	-6867.745	1	9417.267	-46.82536	-1.044167E-008	0.0447293	7
	34	47	397.9953	6888.058	-8406.054	1	10867.71	-50.66825	1.128718E-009	0.0447421	6
	35	48	315.5048	7442.171	-10224.84	1	12646.47	-53.95091	1.806954E-009	0.0447412	6
	36	49	252.4038	8128.354	-12320.9	1	14760.58	-56.58634	1.871957E-009	0.0447363	6
	37	51	198.6229	9074.732	-15019.93	1	17548.47	-58.86049	1.306257E-009	0.0447388	6
	38	52	158.3615	10226.03	-18065.02	1	20758.53	-60.48719	1.654852E-009	0.0447378	6
	39	53	125.558	11728.04	-21751.61	1	24711.93	-61.66733	1.440914E-009	0.0447392	6
	40	55	100.4464	13520.44	-25913.24	1	29228.38	-62.44633	1.945739E-009	0.0447373	6
	41	56	79.00281	16061.38	-31207.04	1	35097.68	-62.76641	9.583001E-010	0.0447383	6
	42	58	63.3446	19145.75	-36672.65	1	41369.59	-62.43222	1.365172E-009	0.0447391	6
	43	59	49.86702	22501.16	-44072.12	1	49483.87	-62.95327	3.756719E-010	0.0447369	6
	44	60	39.72458	27043.3	-51554.02	1	58216.46	-62.32019	1.044117E-009	0.0447465	6
	45	62	31.6723	32507.58	-60579.44	1	68750.35	-61.78152	1.876086E-009	0.04474	6
	46	63	24.93351	39486.77	-70945.7	1	81194.2	-60.90068	8.395991E-010	0.0447383	6
	47	64	19.86229	47608.23	-82150.44	1	94948.6	-59.90664	1.496248E-009	0.0447395	6
	48	66	15.83615	57777.18	-94190.03	1	110498.7	-58.4746	1.63257E-009	0.0447364	5
	49	67	12.40079	69002.23	-109733.6	1	129625.5	-57.83768	1.751853E-010	0.044737	5
	50	69	9.93114	80873.13	-123951.1	1	148001.2	-56.87717	8.677894E-010	0.0447336	5
	51	70	7.944915	94136.34	-140645.4	1	169241.8	-56.20494	-1.113828E-011	0.0447399	5
	52	72	6.317385	109136.3	-159737.3	1	193459.9	-55.65819	-7.25695E-011	0.0447511	5
	53	74	5.008013	125477.7	-182065.1	1	221116.1	-55.42573	2.431015E-010	0.0447345	5
	54	76	3.945707	143667.2	-209167.1	1	253754.1	-55.51662	3.641507E-010	0.0447405	5
	55	79	3.158693	162264.8	-238989.7	1	288870.1	-55.825	1.504596E-010	0.0447481	5
	56	82	2.504006	183418.7	-276140	1	331505.2	-56.40696	1.318071E-010	0.0447348	5
	57	85	1.998082	206077.8	-319480.2	1	380178.5	-57.17632	-8.035156E-011	0.0447483	5
	58	88	1.584686	233948.1	-373047.1	1	440336.1	-57.90704	1.848845E-010	0.0447937	5
	59	92	1.266892	263200.1	-434997.3	1	508425.9	-58.82348	-5.233588E-011	0.0447492	5
	60	96	0.999041	301040.6	-514565.6	1	596157	-59.67073	3.568931E-010	0.0447562	5
