EXPLAIN
TAG	EISPOT
TITLE	LABEL	Potentiostatic EIS	Test &Identifier
DATE	LABEL	9/1/2020	Date
TIME	LABEL	20:43:51	Time
NOTES	NOTES	1	&Notes...
	
PSTAT	PSTAT	REF600-11020	Potentiostat
VDC	POTEN	0.00000E+000	T	DC &Voltage (V)
FREQINIT	QUANT	1.00000E+006	Initial Fre&q. (Hz)
FREQFINAL	QUANT	1.00000E+000	Final Fre&q. (Hz)
PTSPERDEC	QUANT	1.00000E+001	Points/&decade
VAC	QUANT	2.50000E+001	AC &Voltage (mV rms)
AREA	QUANT	4.00000E-005	&Area (cm^2)
CONDIT	TWOPARAM	F	5.00000E+000	0.00000E+000	Conditionin&g	Time(s)	E(V)
DELAY	TWOPARAM	F	3.00000E+000	0.00000E+000	Init. De&lay	Time(s)	Stab.(mV/s)
SPEED	SELECTOR	0	&Optimize for:
ZGUESS	QUANT	1.00000E+003	E&stimated Z (ohms)
OCVCURVE	TABLE	39
	Pt	T	Vf	Vm	Ach	Over
	#	s	V vs. Ref.	V	V	bits
	0	0.258333	6.53872E-002	6.53872E-002	5.65958E-004	...........
	1	0.516667	6.53871E-002	6.53784E-002	5.57959E-004	...........
	2	0.775	6.53860E-002	6.53691E-002	5.57925E-004	...........
	3	1.03333	6.53829E-002	6.53541E-002	5.57559E-004	...........
	4	1.29167	6.53765E-002	6.53374E-002	5.63658E-004	...........
	5	1.55	6.53667E-002	6.53194E-002	5.62792E-004	...........
	6	1.80833	6.53535E-002	6.53019E-002	5.57059E-004	...........
	7	2.06667	6.53380E-002	6.52833E-002	5.60659E-004	...........
	8	2.325	6.53209E-002	6.52640E-002	5.59759E-004	...........
	9	2.58333	6.53031E-002	6.52525E-002	5.64558E-004	...........
	10	2.84167	6.52854E-002	6.52409E-002	5.64458E-004	...........
	11	3.1	6.52690E-002	6.52234E-002	5.63125E-004	...........
	12	3.35833	6.52538E-002	6.52009E-002	5.63025E-004	...........
	13	3.61667	6.52384E-002	6.51797E-002	5.64558E-004	...........
	14	3.875	6.52213E-002	6.51571E-002	5.70358E-004	...........
	15	4.13333	6.52019E-002	6.51312E-002	5.67992E-004	...........
	16	4.39167	6.51805E-002	6.51074E-002	5.68192E-004	...........
	17	4.65	6.51575E-002	6.50797E-002	5.60825E-004	...........
	18	4.90833	6.51333E-002	6.50555E-002	5.74258E-004	...........
	19	5.16667	6.51082E-002	6.50278E-002	5.73525E-004	...........
	20	5.425	6.50826E-002	6.50009E-002	5.70692E-004	...........
	21	5.68333	6.50564E-002	6.49747E-002	5.67225E-004	...........
	22	5.94167	6.50300E-002	6.49507E-002	5.67858E-004	...........
	23	6.2	6.50037E-002	6.49235E-002	5.67758E-004	...........
	24	6.45833	6.49775E-002	6.48959E-002	5.71192E-004	...........
	25	6.71667	6.49515E-002	6.48736E-002	5.65725E-004	...........
	26	6.975	6.49257E-002	6.48549E-002	5.67692E-004	...........
	27	7.23333	6.49008E-002	6.48337E-002	5.64125E-004	...........
	28	7.49167	6.48776E-002	6.48100E-002	5.64425E-004	...........
	29	7.75	6.48556E-002	6.47889E-002	5.66525E-004	...........
	30	8.00833	6.48340E-002	6.47685E-002	5.63159E-004	...........
	31	8.26667	6.48125E-002	6.47453E-002	5.65658E-004	...........
	32	8.525	6.47908E-002	6.47208E-002	5.67825E-004	...........
	33	8.78333	6.47689E-002	6.47002E-002	5.66592E-004	...........
	34	9.04167	6.47465E-002	6.46795E-002	5.63825E-004	...........
	35	9.3	6.47242E-002	6.46565E-002	5.63292E-004	...........
	36	9.5583	6.47021E-002	6.46346E-002	5.60925E-004	...........
	37	9.8167	6.46804E-002	6.46187E-002	5.62059E-004	...........
	38	10.075	6.46591E-002	6.45974E-002	5.64625E-004	...........
EOC	QUANT	0.0646591	Open Circuit (V)
PSTATMODEL	IQUANT	4	Pstat Model
PSTATSECTION	LABEL	REF600-11020	Pstat Section
PSTATSERIALNO	LABEL	11020	Pstat Serial Number
CTRLMODE	IQUANT	1	Control Mode
IESTAB	IQUANT	0	I/E Stability
CASPEED	IQUANT	1	Control Amp Speed
CONVENTION	IQUANT	1	Current Convention
ICHRANGE	IQUANT	2	Ich Range
ICHRANGEMODE	TOGGLE	F	Ich Auto Range
ICHOFFSETENABLE	TOGGLE	T	Ich Offset Enable
ICHOFFSET	QUANT	0	Ich Offset (V)
ICHFILTER	IQUANT	3	Ich Filter
VCHRANGE	IQUANT	2	Vch Range
VCHRANGEMODE	TOGGLE	F	Vch Auto Range
VCHOFFSETENABLE	TOGGLE	T	Vch Offset Enable
VCHOFFSET	QUANT	0	Vch Offset (V)
VCHFILTER	IQUANT	3	Vch Filter
ACHRANGE	IQUANT	2	Ach Range
ACHOFFSETENABLE	TOGGLE	F	Ach Offset Enable
ACHOFFSET	QUANT	0	Ach Offset (V)
ACHFILTER	IQUANT	3	Ach Filter
IERANGELOWERLIMIT	IQUANT	1	I/E Range Lower Limit
IERANGEMODE	TOGGLE	F	I/E AutoRange
IERANGE	IQUANT	8	I/E Range
POSFEEDENABLE	TOGGLE	F	Positive Feedback IR Comp
POSFEEDRESISTANCE	QUANT	0	Positive Feedback Resistance (ohm)
ACHSELECT	IQUANT	0	Ach Select
CABLEID	IQUANT	14	Cable ID
DCCALDATE	LABEL	9/1/2020	DC Calibration Date
ACCALDATE	LABEL	9/1/2020	AC Calibration Date
THERMOSELECT	IQUANT	1	Thermo Select
FRAMEWORKVERSION	QUANT	6.33	Framework Version
INSTRUMENTVERSION	LABEL	3.50	Instrument Version
ZCURVE	TABLE
	Pt	Time	Freq	Zreal	Zimag	Zsig	Zmod	Zphz	Idc	Vdc	IERange
	#	s	Hz	ohm	ohm	V	ohm	°	A	V	#
	0	1	1000078	2225.152	-2467.736	1	3322.804	-47.95909	9.809199E-008	0.0668118	8
	1	2	794390.6	2686.134	-2640.288	1	3766.489	-44.50684	7.102494E-008	0.0665168	8
	2	2	630984.4	3174.506	-2764.599	1	4209.572	-41.05181	7.363938E-008	0.0663808	8
	3	2	501234.4	3675.444	-2835.274	1	4641.946	-37.64696	1.177301E-007	0.0662788	8
	4	2	398109.4	4173.841	-2860.762	1	5060.129	-34.42684	1.097238E-007	0.0662282	8
	5	3	316265.6	4656.658	-2855.882	1	5462.648	-31.52037	5.839192E-008	0.0662201	8
	6	3	251203.1	5125.62	-2824.521	1	5852.341	-28.85737	8.167992E-008	0.0662201	8
	7	3	199546.9	5570.827	-2763.542	1	6218.624	-26.38481	8.449501E-008	0.0662424	8
	8	4	158578.1	6004.182	-2708.568	1	6586.846	-24.28078	5.755669E-008	0.0662174	8
	9	4	125953.1	6449.712	-2607.569	1	6956.882	-22.0131	6.133845E-009	0.0662214	7
	10	4	100078.1	6843.284	-2508.8	1	7288.664	-20.13332	3.536619E-009	0.0662015	7
	11	5	79453.13	7212.703	-2414.978	1	7606.261	-18.51172	3.194062E-009	0.066191	7
	12	5	63140.62	7551.702	-2316.954	1	7899.144	-17.05665	4.053094E-009	0.0661879	7
	13	5	50203.12	7859.052	-2223.284	1	8167.478	-15.79593	3.565666E-009	0.0661818	7
	14	6	39890.62	8133.9	-2144.08	1	8411.742	-14.76714	3.702253E-009	0.0661755	7
	15	6	31640.63	8379.256	-2089.226	1	8635.785	-14.00027	4.073718E-009	0.0661857	7
	16	6	25171.88	8598.83	-2066.727	1	8843.712	-13.51468	3.219373E-009	0.0661732	7
	17	7	20015.62	8801.699	-2085.07	1	9045.299	-13.32735	3.938065E-009	0.0661827	7
	18	7	15890.62	9004.146	-2153.547	1	9258.1	-13.45092	4.351723E-009	0.0661831	7
	19	7	12609.37	9225.056	-2236.662	1	9492.329	-13.62866	7.125892E-010	0.0661782	6
	20	8	10078.13	9420.419	-2410.59	1	9723.95	-14.35341	5.02723E-010	0.0661742	6
	21	8	8015.625	9630.3	-2652.25	1	9988.85	-15.39791	4.772535E-010	0.0661721	6
	22	8	6328.125	9863.14	-2970.736	1	10300.81	-16.76208	5.517888E-010	0.0661727	6
	23	8	5015.625	10126.42	-3366.995	1	10671.5	-18.39177	4.430233E-010	0.0661678	6
	24	9	3984.375	10413.84	-3848.581	1	11102.24	-20.2825	4.083337E-010	0.0661688	6
	25	9	3170.956	10748.1	-4430.16	1	11625.32	-22.40051	-6.89115E-011	0.0661577	6
	26	9	2527.573	11125	-5122.344	1	12247.62	-24.72301	4.511533E-010	0.0661745	6
	27	10	1976.103	11612.6	-6023.445	1	13081.84	-27.41572	3.258293E-010	0.0661578	6
	28	10	1577.524	12138.47	-7006.724	1	14015.58	-29.99496	5.163198E-010	0.0661709	6
	29	10	1265.625	12746.4	-8138.789	1	15123.18	-32.5589	2.54879E-010	0.0661657	6
	30	11	998.264	13522.17	-9574.45	1	16568.62	-35.30063	3.753651E-010	0.0661689	6
	31	11	796.875	14394.25	-11168.21	1	18218.76	-37.80717	3.314464E-010	0.0661656	6
	32	11	627.7902	15495.05	-13140.48	1	20316.71	-40.2994	4.434253E-010	0.0661566	6
	33	12	505.5147	16665.32	-15227.67	1	22574.65	-42.41899	3.006657E-010	0.0661607	6
	34	12	397.9953	18196.57	-17906.4	1	25529.48	-44.53952	6.899621E-010	0.0661825	6
	35	12	315.5048	19948.82	-20942.01	1	28922.71	-46.39137	7.993911E-010	0.0661834	6
	36	13	252.4038	21923.51	-24330.14	1	32750.51	-47.97847	7.167166E-010	0.066179	6
	37	13	198.6229	24416.11	-28566.2	1	37578.91	-49.47882	7.776606E-010	0.066181	6
	38	13	158.3615	27199.8	-33238.71	1	42949.29	-50.70595	6.131281E-010	0.0661789	6
	39	14	125.558	30572.05	-38798.9	1	49396.41	-51.76324	6.625342E-010	0.0661803	6
	40	14	100.4464	34395.02	-44998.52	1	56638.19	-52.60719	5.24485E-010	0.0661787	6
	41	14	79.00281	39290.82	-52745.74	1	65771.43	-53.31721	5.666793E-010	0.066175	6
	42	15	63.3446	44649.55	-60970.78	1	75571.28	-53.78428	6.533452E-010	0.0661725	6
	43	15	49.86702	51608.67	-71254.41	1	87980.94	-54.08466	7.511947E-010	0.0661696	6
	44	15	39.72458	59584.06	-82389.49	1	101677.4	-54.12556	6.403367E-010	0.0661674	5
	45	16	31.6723	69119.12	-95052.5	1	117526.3	-53.97657	1.705174E-010	0.0661684	5
	46	16	24.93351	81304.47	-110133.8	1	136893.6	-53.56401	-2.490876E-010	0.0661639	5
	47	16	19.86229	95267.5	-126102.4	1	158043.4	-52.92979	2.952921E-010	0.0661665	5
	48	16	15.83615	111895	-143373.8	1	181869.6	-52.03002	-4.30438E-010	0.0661635	5
	49	17	12.40079	133319.9	-163148.1	1	210692.8	-50.7453	-1.45308E-009	0.0661656	5
	50	17	9.93114	155339.8	-182095.5	1	239351.6	-49.53358	-1.083275E-009	0.0661614	5
	51	17	7.944915	181193.7	-201162.6	1	270735.2	-47.98962	1.13162E-009	0.066162	5
	52	18	6.317385	210250.4	-221687.3	1	305533.1	-46.51672	-1.784085E-010	0.0661792	5
	53	19	5.008013	242249.6	-242637.6	1	342867.2	-45.04585	-4.404903E-010	0.0661604	5
	54	20	3.945707	276332.3	-263669	1	381943.6	-43.65663	3.997491E-010	0.0661672	5
	55	20	3.158693	309902.9	-285377.4	1	421283.8	-42.64076	-1.858535E-010	0.0661657	5
	56	21	2.504006	344706.9	-309759	1	463436.6	-41.94336	7.941658E-011	0.0661597	5
	57	23	1.998082	379968.5	-337719.3	1	508360.5	-41.63097	4.017664E-010	0.0662005	5
	58	24	1.584686	415512.6	-372358.7	1	557944.2	-41.86488	2.641474E-010	0.0661669	5
	59	26	1.266892	452815.7	-411475.3	1	611844.7	-42.26154	1.386423E-010	0.0661285	5
	60	29	0.999041	495777.5	-463142.3	1	678451.3	-43.05079	6.726195E-011	0.0661138	5
