EXPLAIN
TAG	EISPOT
TITLE	LABEL	Potentiostatic EIS	Test &Identifier
DATE	LABEL	6/6/2020	Date
TIME	LABEL	18:38:17	Time
NOTES	NOTES	1	&Notes...
	
PSTAT	PSTAT	REF600-11020	Potentiostat
VDC	POTEN	0.00000E+000	T	DC &Voltage (V)
FREQINIT	QUANT	1.00000E+006	Initial Fre&q. (Hz)
FREQFINAL	QUANT	1.00000E+000	Final Fre&q. (Hz)
PTSPERDEC	QUANT	1.00000E+001	Points/&decade
VAC	QUANT	2.50000E+001	AC &Voltage (mV rms)
AREA	QUANT	4.00000E-004	&Area (cm^2)
CONDIT	TWOPARAM	F	5.00000E+000	0.00000E+000	Conditionin&g	Time(s)	E(V)
DELAY	TWOPARAM	T	3.00000E+000	0.00000E+000	Init. De&lay	Time(s)	Stab.(mV/s)
SPEED	SELECTOR	0	&Optimize for:
ZGUESS	QUANT	1.00000E+003	E&stimated Z (ohms)
OCVCURVE	TABLE	12
	Pt	T	Vf	Vm	Ach	Over
	#	s	V vs. Ref.	V	V	bits
	0	0.258333	-1.05839E-002	-1.05839E-002	5.77512E-004	...........
	1	0.516667	-1.05832E-002	-1.05497E-002	5.80612E-004	...........
	2	0.775	-1.05793E-002	-1.05207E-002	5.79212E-004	...........
	3	1.03333	-1.05682E-002	-1.04880E-002	5.86011E-004	...........
	4	1.29167	-1.05485E-002	-1.04581E-002	5.84078E-004	...........
	5	1.55	-1.05221E-002	-1.04265E-002	5.80378E-004	...........
	6	1.80833	-1.04919E-002	-1.03893E-002	5.86011E-004	...........
	7	2.06667	-1.04599E-002	-1.03512E-002	5.82112E-004	...........
	8	2.325	-1.04263E-002	-1.03147E-002	5.82878E-004	...........
	9	2.58333	-1.03911E-002	-1.02798E-002	5.78212E-004	...........
	10	2.84167	-1.03549E-002	-1.02448E-002	5.86445E-004	...........
	11	3.1	-1.03188E-002	-1.02168E-002	5.82445E-004	...........
EOC	QUANT	-0.0103188	Open Circuit (V)
PSTATMODEL	IQUANT	4	Pstat Model
PSTATSECTION	LABEL	REF600-11020	Pstat Section
PSTATSERIALNO	LABEL	11020	Pstat Serial Number
CTRLMODE	IQUANT	1	Control Mode
IESTAB	IQUANT	0	I/E Stability
CASPEED	IQUANT	1	Control Amp Speed
CONVENTION	IQUANT	1	Current Convention
ICHRANGE	IQUANT	2	Ich Range
ICHRANGEMODE	TOGGLE	F	Ich Auto Range
ICHOFFSETENABLE	TOGGLE	T	Ich Offset Enable
ICHOFFSET	QUANT	0	Ich Offset (V)
ICHFILTER	IQUANT	3	Ich Filter
VCHRANGE	IQUANT	2	Vch Range
VCHRANGEMODE	TOGGLE	F	Vch Auto Range
VCHOFFSETENABLE	TOGGLE	T	Vch Offset Enable
VCHOFFSET	QUANT	0	Vch Offset (V)
VCHFILTER	IQUANT	3	Vch Filter
ACHRANGE	IQUANT	2	Ach Range
ACHOFFSETENABLE	TOGGLE	F	Ach Offset Enable
ACHOFFSET	QUANT	0	Ach Offset (V)
ACHFILTER	IQUANT	1	Ach Filter
IERANGELOWERLIMIT	IQUANT	1	I/E Range Lower Limit
IERANGEMODE	TOGGLE	F	I/E AutoRange
IERANGE	IQUANT	7	I/E Range
POSFEEDENABLE	TOGGLE	F	Positive Feedback IR Comp
POSFEEDRESISTANCE	QUANT	0	Positive Feedback Resistance (ohm)
ACHSELECT	IQUANT	0	Ach Select
CABLEID	IQUANT	14	Cable ID
DCCALDATE	LABEL	2/27/2020	DC Calibration Date
ACCALDATE	LABEL	2/27/2020	AC Calibration Date
THERMOSELECT	IQUANT	1	Thermo Select
FRAMEWORKVERSION	QUANT	6.33	Framework Version
INSTRUMENTVERSION	LABEL	3.50	Instrument Version
ZCURVE	TABLE
	Pt	Time	Freq	Zreal	Zimag	Zsig	Zmod	Zphz	Idc	Vdc	IERange
	#	s	Hz	ohm	ohm	V	ohm	°	A	V	#
	0	1	1000078	2018.049	-1584.803	1	2565.954	-38.14305	1.043971E-008	-0.0077509	8
	1	1	794390.6	2293.535	-1609.27	1	2801.794	-35.0556	5.868862E-008	-0.0081391	8
	2	1	630984.4	2552.611	-1615.27	1	3020.748	-32.32528	3.485681E-008	-0.0083314	8
	3	2	501234.4	2792.206	-1612.708	1	3224.476	-30.00964	8.009555E-008	-0.0084649	8
	4	2	398109.4	3010.573	-1617.038	1	3417.362	-28.24112	3.166402E-008	-0.0085042	8
	5	2	316265.6	3218.904	-1634.785	1	3610.244	-26.92465	-4.946613E-009	-0.0085121	8
	6	3	251203.1	3422.736	-1676.543	1	3811.289	-26.09679	3.249722E-008	-0.0085598	8
	7	3	199546.9	3632.635	-1747.39	1	4031.055	-25.68874	6.780921E-008	-0.0085434	8
	8	3	158578.1	3861.439	-1843.39	1	4278.878	-25.51907	1.882986E-008	-0.0085629	8
	9	4	125953.1	4150.764	-1904.483	1	4566.825	-24.64694	2.882647E-009	-0.008628	7
	10	4	100078.1	4417.537	-2033.947	1	4863.288	-24.72255	1.823124E-009	-0.008624	7
	11	4	79453.13	4733.15	-2174.552	1	5208.78	-24.67548	1.249632E-009	-0.0086444	7
	12	5	63140.62	5086.637	-2305.779	1	5584.845	-24.38485	1.307537E-009	-0.0086433	7
	13	5	50203.12	5471.342	-2417.165	1	5981.494	-23.83519	1.712256E-009	-0.008642	7
	14	5	39890.62	5877.271	-2500.24	1	6386.979	-23.04531	2.221195E-009	-0.008643	7
	15	6	31640.63	6300.393	-2553.005	1	6797.999	-22.05846	1.334667E-009	-0.0086507	7
	16	6	25171.88	6719.328	-2578.312	1	7197.017	-20.9926	1.49064E-009	-0.0086474	7
	17	6	20015.62	7129.352	-2579.065	1	7581.506	-19.88775	1.361707E-009	-0.0086565	7
	18	7	15890.62	7528.268	-2567.142	1	7953.932	-18.8294	2.489676E-009	-0.0086485	7
	19	7	12609.37	7901.162	-2542.478	1	8300.154	-17.83741	2.643434E-009	-0.0086484	7
	20	7	10078.13	8247.366	-2525.871	1	8625.49	-17.02794	3.101627E-009	-0.0086459	7
	21	7	8015.625	8574.009	-2519.912	1	8936.643	-16.37813	3.288226E-009	-0.0086461	7
	22	8	6328.125	8916.087	-2475.875	1	9253.462	-15.51924	1.887655E-010	-0.0086001	6
	23	8	5015.625	9205.614	-2530.745	1	9547.15	-15.37163	-1.96442E-010	-0.0085969	6
	24	8	3984.375	9485.274	-2622.406	1	9841.11	-15.45459	1.860957E-010	-0.0085962	6
	25	9	3170.956	9757.73	-2758.353	1	10140.11	-15.78474	8.53039E-011	-0.0085969	6
	26	9	2527.573	10035.91	-2945.338	1	10459.19	-16.3559	-1.14728E-010	-0.0086014	6
	27	9	1976.103	10343.5	-3209.807	1	10830.09	-17.24022	-3.206806E-010	-0.0086032	6
	28	10	1577.524	10636.68	-3518.071	1	11203.38	-18.30158	-8.503288E-011	-0.008601	6
	29	10	1265.625	10934.4	-3893.866	1	11607.04	-19.6014	-1.730154E-010	-0.0086065	6
	30	10	998.264	11266.33	-4391.655	1	12092.01	-21.29601	-6.124638E-010	-0.008611	6
	31	11	796.875	11590.82	-4979.715	1	12615.25	-23.24961	-1.22859E-010	-0.0086016	6
	32	11	627.7902	11952.57	-5755.022	1	13265.9	-25.71027	-2.370662E-010	-0.0086036	6
	33	11	505.5147	12302.46	-6632.671	1	13976.51	-28.3306	-8.232526E-010	-0.0086128	6
	34	12	397.9953	12722.65	-7842.78	1	14945.74	-31.65143	1.020317E-010	-0.008592	6
	35	12	315.5048	13185.72	-9311.46	1	16142.08	-35.22887	-3.098825E-012	-0.0085928	6
	36	12	252.4038	13707.34	-11056.01	1	17610.41	-38.88881	-1.859312E-010	-0.0085953	6
	37	13	198.6229	14381.31	-13370.46	1	19636.48	-42.91394	-9.744114E-011	-0.0085954	6
	38	13	158.3615	15174.53	-16060.25	1	22095.2	-46.6243	-1.672862E-010	-0.0086005	6
	39	13	125.558	16201	-19422.63	1	25292.51	-50.1675	-7.97366E-011	-0.0085972	6
	40	14	100.4464	17449.69	-23337.63	1	29139.95	-53.21431	-2.933891E-010	-0.0086029	6
	41	14	79.00281	19172.65	-28433.12	1	34293.33	-56.00794	-2.11159E-010	-0.0086099	6
	42	14	63.3446	21217.65	-34066.31	1	40133.55	-58.08396	-1.63869E-010	-0.0086155	6
	43	15	49.86702	24076.58	-41354.11	1	47852.32	-59.79182	2.50084E-010	-0.0086149	6
	44	15	39.72458	27592.54	-49587.24	1	56747.18	-60.9065	1.586528E-011	-0.0086056	6
	45	15	31.6723	32086.84	-59194.58	1	67331.74	-61.53978	2.006248E-010	-0.0086081	6
	46	16	24.93351	38194.27	-71026.85	1	80645	-61.73112	-9.356006E-011	-0.0086139	6
	47	16	19.86229	45538.78	-84024.07	1	95571	-61.5435	-1.433073E-009	-0.0086166	6
	48	16	15.83615	54746.87	-98596.4	1	112776.2	-60.95823	1.110875E-009	-0.0086136	5
	49	17	12.40079	67132.2	-116314.3	1	134297.2	-60.00808	-8.290458E-010	-0.0086074	5
	50	17	9.93114	80642.63	-134248.9	1	156607.8	-59.00698	-1.024757E-009	-0.0086133	5
	51	17	7.944915	96898.4	-153748.7	1	181736	-57.77928	9.661771E-010	-0.0086128	5
	52	18	6.317385	116558.5	-176095.4	1	211176.4	-56.49921	-5.439021E-010	-0.0085993	5
	53	18	5.008013	139606.4	-200529.5	1	244340	-55.15479	-9.520116E-010	-0.008621	5
	54	19	3.945707	167155.2	-227003.1	1	281906.5	-53.63368	-2.991759E-010	-0.0086079	5
	55	20	3.158693	195507	-254030.5	1	320553.4	-52.41739	-6.275716E-010	-0.0086215	5
	56	21	2.504006	228776.2	-283583.2	1	364359.7	-51.1057	-3.849857E-011	-0.0086277	5
	57	23	1.998082	262938.3	-315486.4	1	410692.3	-50.1909	-7.59875E-012	-0.0086089	5
	58	24	1.584686	301755.4	-350160.7	1	462243.3	-49.24646	-3.124394E-010	-0.008661	5
	59	26	1.266892	342117.1	-389402	1	518341.6	-48.69841	-3.845558E-010	-0.0086651	5
	60	29	0.999041	386594.9	-437156	1	583576.1	-48.51236	-3.706545E-010	-0.0086523	5
