EXPLAIN
TAG	EISPOT
TITLE	LABEL	Potentiostatic EIS	Test &Identifier
DATE	LABEL	3/17/2020	Date
TIME	LABEL	15:34:10	Time
NOTES	NOTES	1	&Notes...
	
PSTAT	PSTAT	REF600-11020	Potentiostat
VDC	POTEN	0.00000E+000	T	DC &Voltage (V)
FREQINIT	QUANT	1.00000E+006	Initial Fre&q. (Hz)
FREQFINAL	QUANT	1.00000E+000	Final Fre&q. (Hz)
PTSPERDEC	QUANT	1.00000E+001	Points/&decade
VAC	QUANT	2.50000E+001	AC &Voltage (mV rms)
AREA	QUANT	4.00000E-004	&Area (cm^2)
CONDIT	TWOPARAM	F	5.00000E+000	0.00000E+000	Conditionin&g	Time(s)	E(V)
DELAY	TWOPARAM	T	3.00000E+000	0.00000E+000	Init. De&lay	Time(s)	Stab.(mV/s)
SPEED	SELECTOR	0	&Optimize for:
ZGUESS	QUANT	5.00000E+003	E&stimated Z (ohms)
OCVCURVE	TABLE	12
	Pt	T	Vf	Vm	Ach	Over
	#	s	V vs. Ref.	V	V	bits
	0	0.258333	3.17353E-002	3.17353E-002	5.73530E-004	...........
	1	0.516667	3.17367E-002	3.18086E-002	5.77630E-004	...........
	2	0.775	3.17453E-002	3.18748E-002	5.74197E-004	...........
	3	1.03333	3.17693E-002	3.19428E-002	5.72330E-004	...........
	4	1.29167	3.18122E-002	3.20063E-002	5.74863E-004	...........
	5	1.55	3.18694E-002	3.20670E-002	5.78097E-004	...........
	6	1.80833	3.19332E-002	3.21243E-002	5.81830E-004	...........
	7	2.06667	3.19974E-002	3.21780E-002	5.81097E-004	...........
	8	2.325	3.20590E-002	3.22296E-002	5.80130E-004	...........
	9	2.58333	3.21172E-002	3.22820E-002	5.80163E-004	...........
	10	2.84167	3.21724E-002	3.23310E-002	5.79097E-004	...........
	11	3.1	3.22253E-002	3.23767E-002	5.76963E-004	...........
EOC	QUANT	0.0322253	Open Circuit (V)
PSTATMODEL	IQUANT	4	Pstat Model
PSTATSECTION	LABEL	REF600-11020	Pstat Section
PSTATSERIALNO	LABEL	11020	Pstat Serial Number
CTRLMODE	IQUANT	1	Control Mode
IESTAB	IQUANT	0	I/E Stability
CASPEED	IQUANT	1	Control Amp Speed
CONVENTION	IQUANT	1	Current Convention
ICHRANGE	IQUANT	2	Ich Range
ICHRANGEMODE	TOGGLE	F	Ich Auto Range
ICHOFFSETENABLE	TOGGLE	T	Ich Offset Enable
ICHOFFSET	QUANT	0	Ich Offset (V)
ICHFILTER	IQUANT	3	Ich Filter
VCHRANGE	IQUANT	2	Vch Range
VCHRANGEMODE	TOGGLE	F	Vch Auto Range
VCHOFFSETENABLE	TOGGLE	T	Vch Offset Enable
VCHOFFSET	QUANT	0	Vch Offset (V)
VCHFILTER	IQUANT	3	Vch Filter
ACHRANGE	IQUANT	2	Ach Range
ACHOFFSETENABLE	TOGGLE	F	Ach Offset Enable
ACHOFFSET	QUANT	0	Ach Offset (V)
ACHFILTER	IQUANT	3	Ach Filter
IERANGELOWERLIMIT	IQUANT	1	I/E Range Lower Limit
IERANGEMODE	TOGGLE	F	I/E AutoRange
IERANGE	IQUANT	7	I/E Range
POSFEEDENABLE	TOGGLE	F	Positive Feedback IR Comp
POSFEEDRESISTANCE	QUANT	0	Positive Feedback Resistance (ohm)
ACHSELECT	IQUANT	0	Ach Select
CABLEID	IQUANT	14	Cable ID
DCCALDATE	LABEL	2/27/2020	DC Calibration Date
ACCALDATE	LABEL	2/27/2020	AC Calibration Date
THERMOSELECT	IQUANT	1	Thermo Select
FRAMEWORKVERSION	QUANT	6.33	Framework Version
INSTRUMENTVERSION	LABEL	3.50	Instrument Version
ZCURVE	TABLE
	Pt	Time	Freq	Zreal	Zimag	Zsig	Zmod	Zphz	Idc	Vdc	IERange
	#	s	Hz	ohm	ohm	V	ohm	°	A	V	#
	0	1	1000078	1728.641	-2048.396	1	2680.322	-49.83899	7.800475E-009	0.0345075	8
	1	1	794390.6	2051.364	-2277.642	1	3065.248	-47.99214	5.685137E-008	0.0342216	8
	2	2	630984.4	2429.822	-2506.986	1	3491.277	-45.89548	-9.048573E-009	0.0340918	8
	3	2	501234.4	2862.367	-2727.368	1	3953.692	-43.6165	4.258263E-008	0.0339724	8
	4	2	398109.4	3365.458	-2914.678	1	4452.151	-40.89443	2.368446E-008	0.0339242	8
	5	3	316265.6	3913.387	-3055.991	1	4965.248	-37.98652	5.592161E-009	0.0339318	8
	6	3	251203.1	4502.255	-3126.84	1	5481.554	-34.78018	7.370873E-009	0.0339256	8
	7	3	199546.9	5115.567	-3125.003	1	5994.553	-31.41997	9.857597E-009	0.0338992	8
	8	4	158578.1	5696.976	-3034.059	1	6454.537	-28.03859	4.754285E-008	0.0339172	8
	9	4	125953.1	6310.979	-2775.877	1	6894.487	-23.74224	-5.648673E-010	0.0338413	7
	10	4	100078.1	6750.065	-2570.96	1	7223.104	-20.8508	2.578176E-010	0.0338368	7
	11	5	79453.13	7146.023	-2356.088	1	7524.414	-18.24771	9.482206E-010	0.0338243	7
	12	5	63140.62	7477.859	-2138.283	1	7777.572	-15.9578	2.172451E-009	0.0338183	7
	13	5	50203.12	7747.517	-1932.943	1	7985.004	-14.00885	1.180133E-009	0.0338185	7
	14	5	39890.62	7974.894	-1751.137	1	8164.889	-12.38453	9.683745E-010	0.0338164	7
	15	6	31640.63	8169.461	-1596.759	1	8324.046	-11.0593	2.038674E-009	0.0338176	7
	16	6	25171.88	8330.962	-1473.375	1	8460.246	-10.02936	2.151343E-009	0.0338173	7
	17	6	20015.62	8471.712	-1378.236	1	8583.09	-9.240315	1.656753E-009	0.0338179	7
	18	7	15890.62	8603.662	-1313.672	1	8703.375	-8.6813	2.386369E-009	0.0338175	7
	19	7	12609.37	8727.816	-1280.2	1	8821.207	-8.344662	2.001024E-009	0.033811	7
	20	7	10078.13	8869.026	-1166.488	1	8945.408	-7.492752	-2.167573E-010	0.0338609	6
	21	8	8015.625	8971.44	-1208.106	1	9052.418	-7.669392	-1.553511E-010	0.0338628	6
	22	8	6328.125	9078.315	-1281.304	1	9168.29	-8.033602	-1.673883E-010	0.0338567	6
	23	8	5015.625	9184.268	-1385.948	1	9288.252	-8.581449	-3.600678E-010	0.0338552	6
	24	9	3984.375	9289.165	-1526.086	1	9413.688	-9.329595	-6.021119E-010	0.0338565	6
	25	9	3170.956	9401.593	-1709.498	1	9555.75	-10.30554	-5.030457E-010	0.0338574	6
	26	9	2527.573	9517.45	-1941.27	1	9713.41	-11.52846	-3.339621E-010	0.0338529	6
	27	10	1976.103	9652.27	-2261.487	1	9913.66	-13.18631	-3.816372E-010	0.0338586	6
	28	10	1577.524	9791.65	-2629.727	1	10138.63	-15.03309	-4.331995E-010	0.0338561	6
	29	10	1265.625	9946.11	-3075.935	1	10410.88	-17.18475	-3.917855E-010	0.0338514	6
	30	11	998.264	10138.53	-3671.905	1	10782.98	-19.90904	-2.976636E-010	0.0338543	6
	31	11	796.875	10341.96	-4367.133	1	11226.21	-22.89304	-5.824438E-010	0.0338552	6
	32	11	627.7902	10606.96	-5271.668	1	11844.75	-26.42742	-4.567152E-010	0.0338593	6
	33	12	505.5147	10901.04	-6276.394	1	12578.79	-29.93165	-5.791585E-010	0.033854	6
	34	12	397.9953	11300.55	-7626.625	1	13633.33	-34.01502	2.508386E-010	0.0338647	6
	35	12	315.5048	11786.29	-9225.546	1	14967.54	-38.05155	1.390993E-010	0.0338681	6
	36	12	252.4038	12370.95	-11080.55	1	16607.8	-41.85051	1.035515E-010	0.0338626	6
	37	13	198.6229	13165.86	-13479.5	1	18842.42	-45.67439	2.057216E-010	0.0338631	6
	38	13	158.3615	14115.03	-16202.97	1	21488.84	-48.93963	1.374428E-010	0.0338606	6
	39	13	125.558	15339.65	-19526.36	1	24831.11	-51.84729	2.616252E-010	0.0338602	6
	40	14	100.4464	16807.09	-23304.45	1	28732.83	-54.20098	2.734283E-010	0.0338598	6
	41	14	79.00281	18768.24	-28115.06	1	33803.89	-56.27486	7.246773E-011	0.0338593	6
	42	14	63.3446	20979.85	-33324.74	1	39378.83	-57.80722	-5.447876E-011	0.033859	6
	43	15	49.86702	23892.7	-39966.91	1	46564.09	-59.12851	-1.398104E-010	0.0338559	6
	44	15	39.72458	27239.42	-47401.88	1	54671.05	-60.11623	1.565066E-010	0.0338603	6
	45	16	31.6723	31245.06	-56104.07	1	64217.77	-60.88602	4.100557E-011	0.0338566	6
	46	16	24.93351	36342.23	-66932.24	1	76162.21	-61.49935	-1.436226E-011	0.0338559	6
	47	16	19.86229	42181.03	-79092.02	1	89636.98	-61.9283	8.170589E-010	0.033862	6
	48	16	15.83615	49263.41	-93205.83	1	105424	-62.14156	-8.022426E-010	0.0338638	5
	49	17	12.40079	58468.59	-111252.1	1	125680.6	-62.27581	-1.025195E-009	0.0338639	5
	50	17	9.93114	68627.63	-130329.9	1	147294.4	-62.23012	-1.12312E-009	0.0338624	5
	51	17	7.944915	80707.78	-152720.3	1	172734.5	-62.14498	-6.994479E-010	0.0338669	5
	52	18	6.317385	95942.7	-179325.7	1	203378.2	-61.85237	-2.050003E-011	0.0338598	5
	53	19	5.008013	114919.7	-210814	1	240102.2	-61.40416	-2.043013E-010	0.0338543	5
	54	20	3.945707	138742.9	-248255.9	1	284395.1	-60.80046	-4.4791E-010	0.0338597	5
	55	20	3.158693	166073	-287389.9	1	331923.5	-59.97783	-1.585526E-010	0.0338465	5
	56	21	2.504006	200698.4	-333686.8	1	389392.8	-58.97489	1.207956E-010	0.0338506	5
	57	23	1.998082	240603.5	-382336.8	1	451742.8	-57.81791	-1.126502E-010	0.0338281	5
	58	24	1.584686	289713.5	-438854.5	1	525858.5	-56.56887	-2.095307E-010	0.0338063	5
	59	26	1.266892	343027.9	-497172.3	1	604026.9	-55.39596	-1.719627E-010	0.0338307	5
	60	29	0.999041	408246.5	-563096.5	1	695516.3	-54.05779	-1.385126E-010	0.033855	5
