EXPLAIN
TAG	EISPOT
TITLE	LABEL	Potentiostatic EIS	Test &Identifier
DATE	LABEL	6/6/2020	Date
TIME	LABEL	13:54:21	Time
NOTES	NOTES	1	&Notes...
	
PSTAT	PSTAT	REF600-11020	Potentiostat
VDC	POTEN	0.00000E+000	T	DC &Voltage (V)
FREQINIT	QUANT	1.00000E+006	Initial Fre&q. (Hz)
FREQFINAL	QUANT	1.00000E+000	Final Fre&q. (Hz)
PTSPERDEC	QUANT	1.00000E+001	Points/&decade
VAC	QUANT	2.50000E+001	AC &Voltage (mV rms)
AREA	QUANT	2.50000E-001	&Area (cm^2)
CONDIT	TWOPARAM	F	5.00000E+000	0.00000E+000	Conditionin&g	Time(s)	E(V)
DELAY	TWOPARAM	T	3.00000E+000	0.00000E+000	Init. De&lay	Time(s)	Stab.(mV/s)
SPEED	SELECTOR	0	&Optimize for:
ZGUESS	QUANT	1.00000E+003	E&stimated Z (ohms)
OCVCURVE	TABLE	12
	Pt	T	Vf	Vm	Ach	Over
	#	s	V vs. Ref.	V	V	bits
	0	0.258333	-2.17961E-002	-2.17961E-002	5.90563E-004	...........
	1	0.516667	-2.17961E-002	-2.17951E-002	5.91230E-004	...........
	2	0.775	-2.17959E-002	-2.17897E-002	5.91663E-004	...........
	3	1.03333	-2.17951E-002	-2.17882E-002	5.93996E-004	...........
	4	1.29167	-2.17934E-002	-2.17840E-002	5.91596E-004	...........
	5	1.55	-2.17907E-002	-2.17737E-002	5.88796E-004	...........
	6	1.80833	-2.17869E-002	-2.17649E-002	5.93430E-004	...........
	7	2.06667	-2.17814E-002	-2.17605E-002	5.92196E-004	...........
	8	2.325	-2.17750E-002	-2.17696E-002	5.92496E-004	...........
	9	2.58333	-2.17698E-002	-2.17815E-002	5.91096E-004	...........
	10	2.84167	-2.17685E-002	-2.17894E-002	5.90796E-004	...........
	11	3.1	-2.17721E-002	-2.17931E-002	5.92796E-004	...........
EOC	QUANT	-0.0217721	Open Circuit (V)
PSTATMODEL	IQUANT	4	Pstat Model
PSTATSECTION	LABEL	REF600-11020	Pstat Section
PSTATSERIALNO	LABEL	11020	Pstat Serial Number
CTRLMODE	IQUANT	1	Control Mode
IESTAB	IQUANT	0	I/E Stability
CASPEED	IQUANT	1	Control Amp Speed
CONVENTION	IQUANT	1	Current Convention
ICHRANGE	IQUANT	2	Ich Range
ICHRANGEMODE	TOGGLE	F	Ich Auto Range
ICHOFFSETENABLE	TOGGLE	T	Ich Offset Enable
ICHOFFSET	QUANT	0	Ich Offset (V)
ICHFILTER	IQUANT	3	Ich Filter
VCHRANGE	IQUANT	2	Vch Range
VCHRANGEMODE	TOGGLE	F	Vch Auto Range
VCHOFFSETENABLE	TOGGLE	T	Vch Offset Enable
VCHOFFSET	QUANT	0	Vch Offset (V)
VCHFILTER	IQUANT	3	Vch Filter
ACHRANGE	IQUANT	2	Ach Range
ACHOFFSETENABLE	TOGGLE	F	Ach Offset Enable
ACHOFFSET	QUANT	0	Ach Offset (V)
ACHFILTER	IQUANT	3	Ach Filter
IERANGELOWERLIMIT	IQUANT	1	I/E Range Lower Limit
IERANGEMODE	TOGGLE	F	I/E AutoRange
IERANGE	IQUANT	7	I/E Range
POSFEEDENABLE	TOGGLE	F	Positive Feedback IR Comp
POSFEEDRESISTANCE	QUANT	0	Positive Feedback Resistance (ohm)
ACHSELECT	IQUANT	0	Ach Select
CABLEID	IQUANT	14	Cable ID
DCCALDATE	LABEL	2/27/2020	DC Calibration Date
ACCALDATE	LABEL	2/27/2020	AC Calibration Date
THERMOSELECT	IQUANT	1	Thermo Select
FRAMEWORKVERSION	QUANT	6.33	Framework Version
INSTRUMENTVERSION	LABEL	3.50	Instrument Version
ZCURVE	TABLE
	Pt	Time	Freq	Zreal	Zimag	Zsig	Zmod	Zphz	Idc	Vdc	IERange
	#	s	Hz	ohm	ohm	V	ohm	°	A	V	#
	0	1	1000078	2870.748	-5853.982	1	6519.992	-63.87702	1.800801E-008	-0.0195195	8
	1	1	794390.6	3685.906	-6806.529	1	7740.461	-61.56334	8.844324E-008	-0.0198121	8
	2	1	630984.4	4676.25	-7822.812	1	9113.929	-59.13025	3.272529E-008	-0.0199305	8
	3	2	501234.4	5870.4	-8871.896	1	10638.24	-56.50799	1.004393E-007	-0.0200394	8
	4	2	398109.4	7261.38	-9925.83	1	12298.36	-53.81213	7.12223E-008	-0.0200839	8
	5	2	316265.6	8879.544	-10974.69	1	14117.02	-51.02393	5.918646E-008	-0.0201173	8
	6	3	251203.1	10735.61	-11935.59	1	16053.4	-48.02983	8.99805E-008	-0.0201457	8
	7	3	199546.9	12759.6	-12800.82	1	18073.97	-45.09241	3.394267E-008	-0.0200898	8
	8	3	158578.1	14937.6	-13619.4	1	20214.36	-42.35709	5.652821E-008	-0.020119	8
	9	4	125953.1	17565.84	-14002.04	1	22463.66	-38.55897	-3.802926E-009	-0.0201584	7
	10	4	100078.1	19852.52	-14439.06	1	24548.1	-36.02901	2.61094E-009	-0.0201797	7
	11	4	79453.13	22277.17	-14795.22	1	26742.67	-33.58983	3.582008E-009	-0.0201899	7
	12	5	63140.62	24714.7	-15014.66	1	28918.1	-31.27949	3.114601E-009	-0.0201901	7
	13	5	50203.12	27136.91	-15133.74	1	31071.56	-29.14758	4.191782E-009	-0.0202009	7
	14	5	39890.62	29494.94	-15122.09	1	33145.58	-27.14426	3.672487E-009	-0.0201945	7
	15	6	31640.63	31833.2	-15078.9	1	35223.93	-25.3462	3.727966E-009	-0.0201921	7
	16	6	25171.88	34094.32	-14989.05	1	37243.71	-23.73196	3.757814E-009	-0.0202011	7
	17	6	20015.62	36274.28	-14892.98	1	39212.55	-22.32137	4.055198E-009	-0.0202001	7
	18	7	15890.62	38361.46	-14781.96	1	41110.92	-21.07335	3.428392E-009	-0.0201999	7
	19	7	12609.37	40811.27	-14207.21	1	43213.48	-19.19402	5.693728E-010	-0.0201473	6
	20	7	10078.13	42695.57	-14286.08	1	45022.26	-18.50042	5.065547E-010	-0.0201484	6
	21	7	8015.625	44600.82	-14447.35	1	46882.4	-17.94847	4.726449E-010	-0.0201529	6
	22	8	6328.125	46574.11	-14701.14	1	48839.24	-17.51832	5.012405E-010	-0.0201533	6
	23	8	5015.625	48521.54	-15057.84	1	50804.32	-17.24085	5.217118E-010	-0.0201507	6
	24	8	3984.375	50475.81	-15532.49	1	52811.61	-17.10425	5.479656E-010	-0.0201533	6
	25	9	3170.956	52437.7	-16120.14	1	54859.56	-17.08822	3.888845E-010	-0.0201573	6
	26	9	2527.573	54464.24	-16862.09	1	57014.77	-17.20249	3.868534E-010	-0.0201594	6
	27	9	1976.103	56747.04	-17842.16	1	59485.87	-17.45396	3.229387E-010	-0.0201543	6
	28	10	1577.524	58946.59	-18913.84	1	61906.66	-17.78956	4.827774E-010	-0.0201591	6
	29	10	1265.625	61216.11	-20153.87	1	64448.36	-18.22283	6.072449E-010	-0.0201561	6
	30	10	998.264	63810.8	-21702.96	1	67400.57	-18.7839	4.069517E-010	-0.0201606	6
	31	11	796.875	66421.65	-23422	1	70430.29	-19.42397	5.758516E-010	-0.0201522	6
	32	11	627.7902	69445.06	-25499.31	1	73978.59	-20.16257	6.547972E-010	-0.020153	6
	33	11	505.5147	72374.6	-27677.3	1	77486.23	-20.92772	6.026668E-010	-0.020154	6
	34	12	397.9953	75860.38	-30426.74	1	81734.84	-21.85516	6.209196E-010	-0.0201382	6
	35	12	315.5048	79547.42	-33492.42	1	86310.69	-22.8329	6.345193E-010	-0.0201397	6
	36	12	252.4038	83397.37	-36871.95	1	91184.77	-23.85135	6.107231E-010	-0.0201391	6
	37	13	198.6229	88009.7	-40731.67	1	96978.2	-24.83512	1.614868E-010	-0.0201302	5
	38	13	158.3615	92672.66	-45355.8	1	103176.4	-26.07803	8.54808E-011	-0.020139	5
	39	13	125.558	97961.5	-50822.75	1	110360.3	-27.42044	1.162549E-010	-0.0201437	5
	40	14	100.4464	103646.5	-56872.95	1	118224.9	-28.75447	1.478494E-011	-0.0201418	5
	41	14	79.00281	110564	-64367.82	1	127936	-30.20698	2.175841E-010	-0.020143	5
	42	14	63.3446	117803	-72236.76	1	138187.2	-31.51661	1.834907E-010	-0.0201471	5
	43	15	49.86702	126743.9	-81898.91	1	150902.1	-32.86959	-1.075351E-010	-0.0201497	5
	44	15	39.72458	136431.6	-92219.45	1	164675.5	-34.0563	1.384107E-010	-0.0201463	5
	45	15	31.6723	147345.8	-103717.3	1	180189	-35.14185	2.95527E-010	-0.0201489	5
	46	16	24.93351	160314.1	-117222.8	1	198599.5	-36.17453	-3.511229E-010	-0.0201461	5
	47	16	19.86229	173973.4	-131688.4	1	218193.9	-37.12375	-3.680917E-010	-0.0201485	5
	48	16	15.83615	189282.9	-147850.7	1	240182.9	-37.99373	-1.781632E-010	-0.0201542	5
	49	16	12.40079	207744.4	-167367.1	1	266776.1	-38.8563	-1.092182E-009	-0.0201449	5
	50	17	9.93114	225508.9	-188500	1	293915.8	-39.89182	-6.083348E-010	-0.0201537	5
	51	17	7.944915	245723.5	-211616.4	1	324286.2	-40.73494	8.622041E-010	-0.0201518	5
	52	18	6.317385	269418.9	-239673.6	1	360596.7	-41.65611	-2.442365E-010	-0.020134	5
	53	18	5.008013	296245	-272609	1	402587.5	-42.62072	-2.853541E-010	-0.0201527	5
	54	19	3.945707	326654.6	-310849.8	1	450922.2	-43.57983	1.996781E-010	-0.0201469	5
	55	20	3.158693	359333.4	-353137.4	1	503811.9	-44.50174	-1.283282E-010	-0.0201555	5
	56	21	2.504006	397318.6	-403288	1	566130.1	-45.4272	6.417639E-011	-0.0201603	5
	57	22	1.998082	440156.3	-460453.3	1	636988.9	-46.29106	2.29008E-010	-0.0201196	5
	58	24	1.584686	489001.1	-527070.4	1	718975.1	-47.14571	1.357022E-010	-0.020156	5
	59	26	1.266892	546277.9	-601356.3	1	812433.9	-47.74768	6.75183E-011	-0.0201884	5
	60	29	0.999041	616717.1	-693763.1	1	928249.5	-48.36467	2.42986E-011	-0.0201949	5
