EXPLAIN
TAG	EISPOT
TITLE	LABEL	Potentiostatic EIS	Test &Identifier
DATE	LABEL	9/1/2020	Date
TIME	LABEL	21:03:27	Time
NOTES	NOTES	1	&Notes...
	
PSTAT	PSTAT	REF600-11020	Potentiostat
VDC	POTEN	0.00000E+000	T	DC &Voltage (V)
FREQINIT	QUANT	1.00000E+006	Initial Fre&q. (Hz)
FREQFINAL	QUANT	1.00000E+000	Final Fre&q. (Hz)
PTSPERDEC	QUANT	1.00000E+001	Points/&decade
VAC	QUANT	2.50000E+001	AC &Voltage (mV rms)
AREA	QUANT	4.00000E-005	&Area (cm^2)
CONDIT	TWOPARAM	F	5.00000E+000	0.00000E+000	Conditionin&g	Time(s)	E(V)
DELAY	TWOPARAM	F	3.00000E+000	0.00000E+000	Init. De&lay	Time(s)	Stab.(mV/s)
SPEED	SELECTOR	0	&Optimize for:
ZGUESS	QUANT	1.00000E+003	E&stimated Z (ohms)
OCVCURVE	TABLE	39
	Pt	T	Vf	Vm	Ach	Over
	#	s	V vs. Ref.	V	V	bits
	0	0.258333	1.03824E-001	1.03824E-001	5.66592E-004	...........
	1	0.516667	1.03824E-001	1.03824E-001	5.59325E-004	...........
	2	0.775	1.03824E-001	1.03826E-001	5.65558E-004	...........
	3	1.03333	1.03825E-001	1.03827E-001	5.71158E-004	...........
	4	1.29167	1.03825E-001	1.03815E-001	5.65058E-004	...........
	5	1.55	1.03824E-001	1.03800E-001	5.70125E-004	...........
	6	1.80833	1.03820E-001	1.03782E-001	5.68958E-004	...........
	7	2.06667	1.03812E-001	1.03755E-001	5.61359E-004	...........
	8	2.325	1.03798E-001	1.03722E-001	5.63125E-004	...........
	9	2.58333	1.03778E-001	1.03684E-001	5.65658E-004	...........
	10	2.84167	1.03752E-001	1.03641E-001	5.64092E-004	...........
	11	3.1	1.03721E-001	1.03585E-001	5.61259E-004	...........
	12	3.35833	1.03682E-001	1.03525E-001	5.62625E-004	...........
	13	3.61667	1.03637E-001	1.03456E-001	5.63525E-004	...........
	14	3.875	1.03584E-001	1.03376E-001	5.60592E-004	...........
	15	4.13333	1.03523E-001	1.03292E-001	5.66592E-004	...........
	16	4.39167	1.03454E-001	1.03204E-001	5.65758E-004	...........
	17	4.65	1.03378E-001	1.03116E-001	5.65192E-004	...........
	18	4.90833	1.03296E-001	1.03027E-001	5.69058E-004	...........
	19	5.16667	1.03211E-001	1.02934E-001	5.71292E-004	...........
	20	5.425	1.03123E-001	1.02847E-001	5.65058E-004	...........
	21	5.68333	1.03033E-001	1.02752E-001	5.74292E-004	...........
	22	5.94167	1.02943E-001	1.02661E-001	5.70025E-004	...........
	23	6.2	1.02852E-001	1.02570E-001	5.68625E-004	...........
	24	6.45833	1.02760E-001	1.02481E-001	5.70092E-004	...........
	25	6.71667	1.02669E-001	1.02398E-001	5.64592E-004	...........
	26	6.975	1.02579E-001	1.02329E-001	5.67158E-004	...........
	27	7.23333	1.02493E-001	1.02254E-001	5.62259E-004	...........
	28	7.49167	1.02411E-001	1.02179E-001	5.64525E-004	...........
	29	7.75	1.02334E-001	1.02104E-001	5.65892E-004	...........
	30	8.00833	1.02259E-001	1.02032E-001	5.63992E-004	...........
	31	8.26667	1.02185E-001	1.01962E-001	5.67992E-004	...........
	32	8.525	1.02111E-001	1.01893E-001	5.64358E-004	...........
	33	8.78333	1.02039E-001	1.01829E-001	5.67092E-004	...........
	34	9.04167	1.01969E-001	1.01767E-001	5.75858E-004	...........
	35	9.3	1.01901E-001	1.01712E-001	5.64958E-004	...........
	36	9.5583	1.01837E-001	1.01659E-001	5.67558E-004	...........
	37	9.8167	1.01776E-001	1.01601E-001	5.63892E-004	...........
	38	10.075	1.01718E-001	1.01547E-001	5.63792E-004	...........
EOC	QUANT	0.1017176	Open Circuit (V)
PSTATMODEL	IQUANT	4	Pstat Model
PSTATSECTION	LABEL	REF600-11020	Pstat Section
PSTATSERIALNO	LABEL	11020	Pstat Serial Number
CTRLMODE	IQUANT	1	Control Mode
IESTAB	IQUANT	0	I/E Stability
CASPEED	IQUANT	1	Control Amp Speed
CONVENTION	IQUANT	1	Current Convention
ICHRANGE	IQUANT	2	Ich Range
ICHRANGEMODE	TOGGLE	F	Ich Auto Range
ICHOFFSETENABLE	TOGGLE	T	Ich Offset Enable
ICHOFFSET	QUANT	0	Ich Offset (V)
ICHFILTER	IQUANT	3	Ich Filter
VCHRANGE	IQUANT	2	Vch Range
VCHRANGEMODE	TOGGLE	F	Vch Auto Range
VCHOFFSETENABLE	TOGGLE	T	Vch Offset Enable
VCHOFFSET	QUANT	0	Vch Offset (V)
VCHFILTER	IQUANT	3	Vch Filter
ACHRANGE	IQUANT	2	Ach Range
ACHOFFSETENABLE	TOGGLE	F	Ach Offset Enable
ACHOFFSET	QUANT	0	Ach Offset (V)
ACHFILTER	IQUANT	3	Ach Filter
IERANGELOWERLIMIT	IQUANT	1	I/E Range Lower Limit
IERANGEMODE	TOGGLE	F	I/E AutoRange
IERANGE	IQUANT	8	I/E Range
POSFEEDENABLE	TOGGLE	F	Positive Feedback IR Comp
POSFEEDRESISTANCE	QUANT	0	Positive Feedback Resistance (ohm)
ACHSELECT	IQUANT	0	Ach Select
CABLEID	IQUANT	14	Cable ID
DCCALDATE	LABEL	9/1/2020	DC Calibration Date
ACCALDATE	LABEL	9/1/2020	AC Calibration Date
THERMOSELECT	IQUANT	1	Thermo Select
FRAMEWORKVERSION	QUANT	6.33	Framework Version
INSTRUMENTVERSION	LABEL	3.50	Instrument Version
ZCURVE	TABLE
	Pt	Time	Freq	Zreal	Zimag	Zsig	Zmod	Zphz	Idc	Vdc	IERange
	#	s	Hz	ohm	ohm	V	ohm	°	A	V	#
	0	2	1000078	1902.707	-2489.576	1	3133.414	-52.61043	7.465168E-009	0.1040308	8
	1	2	794390.6	2239.333	-2781.512	1	3570.913	-51.16324	1.104035E-007	0.1036654	8
	2	2	630984.4	2607.498	-3095.06	1	4047.029	-49.88683	7.198062E-008	0.103495	8
	3	3	501234.4	3003.76	-3429.436	1	4558.904	-48.78566	5.657461E-008	0.1033964	8
	4	3	398109.4	3427.891	-3798.645	1	5116.653	-47.93696	6.137324E-008	0.1033368	8
	5	3	316265.6	3884.369	-4225.881	1	5739.896	-47.41122	6.294281E-008	0.1032882	8
	6	3	251203.1	4370.679	-4709.963	1	6425.464	-47.13977	1.09322E-007	0.1032627	8
	7	4	199546.9	4895.906	-5278.857	1	7199.738	-47.15545	7.751181E-008	0.1032958	8
	8	4	158578.1	5512.43	-5940.564	1	8104.146	-47.14083	8.634876E-008	0.103306	8
	9	4	125953.1	6318.575	-6653.817	1	9175.929	-46.48035	5.287097E-009	0.1033034	7
	10	5	100078.1	7102.367	-7533.474	1	10353.59	-46.68719	2.587104E-009	0.1032593	7
	11	5	79453.13	8013.401	-8566.401	1	11730.21	-46.91032	3.401124E-009	0.103253	7
	12	5	63140.62	9076.903	-9721.29	1	13300.14	-46.96328	3.77007E-009	0.1032519	7
	13	6	50203.12	10331.78	-10995.69	1	15088.1	-46.783	4.370629E-009	0.1032519	7
	14	6	39890.62	11811.87	-12396.67	1	17123.02	-46.3838	2.794315E-009	0.1032365	7
	15	6	31640.63	13538.32	-13927.09	1	19422.92	-45.81095	4.052298E-009	0.1032408	7
	16	7	25171.88	15520.07	-15496.24	1	21931.85	-44.95599	4.225747E-009	0.1032351	7
	17	7	20015.62	17798.02	-17151.29	1	24717.12	-43.93987	2.92121E-009	0.1032313	7
	18	7	15890.62	20414.67	-18915.41	1	27830.76	-42.81694	4.359532E-009	0.1032395	7
	19	8	12609.37	23821.69	-20486.04	1	31418.95	-40.69468	9.632478E-010	0.1032377	6
	20	8	10078.13	27080.53	-22174.53	1	35000.93	-39.31187	1.129361E-009	0.1032356	6
	21	8	8015.625	30817.53	-23795.87	1	38935.38	-37.67365	1.368611E-009	0.103236	6
	22	9	6328.125	34994.77	-25123.88	1	43079.5	-35.67579	1.365015E-009	0.1032367	6
	23	9	5015.625	39285.87	-26084.31	1	47156.88	-33.58264	1.119203E-009	0.1032355	6
	24	9	3984.375	43547.8	-26727.8	1	51095.85	-31.53984	1.27735E-009	0.1032336	6
	25	9	3170.956	47657.21	-27173.09	1	54859.7	-29.69084	4.070803E-010	0.1032242	6
	26	10	2527.573	51487.99	-27434.89	1	58341.12	-28.0505	1.514409E-009	0.1032361	6
	27	10	1976.103	55703.95	-28199.23	1	62434.98	-26.85008	1.212808E-009	0.103234	6
	28	10	1577.524	59189.41	-28816.92	1	65831.62	-25.95957	1.168247E-009	0.1032339	6
	29	11	1265.625	62785.23	-29858.07	1	69523.3	-25.43383	1.218658E-009	0.1032297	6
	30	11	998.264	66716.06	-31102.44	1	73609.75	-24.99452	9.60473E-010	0.1032263	6
	31	11	796.875	70683.14	-32740.68	1	77897.74	-24.85374	1.037982E-009	0.103227	6
	32	12	627.7902	75322.99	-34786.85	1	82967.93	-24.78918	9.682896E-010	0.1032263	6
	33	12	505.5147	79835.01	-36662.03	1	87850.63	-24.66565	1.816034E-009	0.1032383	6
	34	12	397.9953	85656.15	-38463.67	1	93895.84	-24.18234	6.210336E-010	0.1032423	5
	35	13	315.5048	91197.87	-40908.22	1	99952.7	-24.15936	5.925456E-010	0.1032388	5
	36	13	252.4038	96679.6	-43260.52	1	105917	-24.10673	5.770727E-010	0.1032366	5
	37	13	198.6229	102441.5	-45739.2	1	112188.8	-24.06033	6.272715E-010	0.1032382	5
	38	14	158.3615	107936.3	-48341.09	1	118267.1	-24.12603	5.104406E-010	0.1032329	5
	39	14	125.558	114641.3	-52039.05	1	125899.6	-24.41469	3.697969E-010	0.1032375	5
	40	14	100.4464	120152	-55698.73	1	132434.3	-24.87097	5.132776E-010	0.1032351	5
	41	15	79.00281	126622.1	-60916.77	1	140513.4	-25.6918	3.112814E-010	0.103231	5
	42	15	63.3446	131616.7	-66458.93	1	147444	-26.79118	1.791781E-010	0.1032285	5
	43	15	49.86702	138879.2	-74555.84	1	157626.2	-28.22866	4.899876E-010	0.1032298	5
	44	16	39.72458	145525.3	-83825.93	1	167941.7	-29.94294	-1.000739E-010	0.1032337	5
	45	16	31.6723	154275.8	-95375.5	1	181376.7	-31.72496	-1.230378E-010	0.103229	5
	46	16	24.93351	164241.5	-109719.4	1	197518.7	-33.74439	2.856199E-010	0.1032262	5
	47	17	19.86229	175708.8	-126243.6	1	216358.5	-35.69656	-2.033987E-010	0.1032267	5
	48	17	15.83615	189057.5	-144598.6	1	238015.8	-37.41017	7.32496E-010	0.1032277	5
	49	17	12.40079	206416.4	-167268.1	1	265680.9	-39.01935	1.38489E-009	0.1032243	5
	50	17	9.93114	226227.7	-190947.3	1	296040.3	-40.16601	1.457015E-009	0.1032289	5
	51	18	7.944915	248693.3	-217890.4	1	330642.7	-41.22293	3.468724E-010	0.1032241	5
	52	18	6.317385	274839.6	-247261.9	1	369696.1	-41.97641	7.271735E-011	0.1032334	5
	53	19	5.008013	305925.8	-279778.2	1	414567.8	-42.44384	4.714447E-010	0.1032335	5
	54	20	3.945707	342710.1	-316520.1	1	466513.9	-42.72495	4.951005E-010	0.1032177	5
	55	21	3.158693	379763.3	-353459.5	1	518800.3	-42.94543	3.613658E-010	0.1032363	5
	56	22	2.504006	424012.4	-396859.8	1	580761.8	-43.10547	9.008209E-011	0.1032252	5
	57	23	1.998082	467118	-443720.9	1	644272.8	-43.52855	2.219439E-010	0.1032293	5
	58	25	1.584686	519847.2	-498426.7	1	720187.7	-43.7949	3.533875E-010	0.1032651	5
	59	27	1.266892	572611.9	-561231.4	1	801788.7	-44.42494	3.503982E-010	0.1032469	5
	60	29	0.999041	634650.2	-637136.3	1	899290.6	-45.112	3.358235E-010	0.1032226	5
