EXPLAIN
TAG	EISPOT
TITLE	LABEL	Potentiostatic EIS	Test &Identifier
DATE	LABEL	2/13/2020	Date
TIME	LABEL	14:01:18	Time
NOTES	NOTES	1	&Notes...
	
PSTAT	PSTAT	REF600-11020	Potentiostat
VDC	POTEN	0.00000E+000	T	DC &Voltage (V)
FREQINIT	QUANT	1.00000E+006	Initial Fre&q. (Hz)
FREQFINAL	QUANT	1.00000E+000	Final Fre&q. (Hz)
PTSPERDEC	QUANT	1.00000E+001	Points/&decade
VAC	QUANT	2.50000E+001	AC &Voltage (mV rms)
AREA	QUANT	5.00000E-004	&Area (cm^2)
CONDIT	TWOPARAM	F	1.50000E+001	0.00000E+000	Conditionin&g	Time(s)	E(V)
DELAY	TWOPARAM	F	1.00000E+002	0.00000E+000	Init. De&lay	Time(s)	Stab.(mV/s)
SPEED	SELECTOR	0	&Optimize for:
ZGUESS	QUANT	1.00000E+003	E&stimated Z (ohms)
OCVCURVE	TABLE	39
	Pt	T	Vf	Vm	Ach	Over
	#	s	V vs. Ref.	V	V	bits
	0	0.258333	5.82277E-002	5.82277E-002	5.90937E-004	...........
	1	0.516667	5.82287E-002	5.82820E-002	5.88804E-004	...........
	2	0.775	5.82043E-002	5.67235E-002	5.92004E-004	...........
	3	1.03333	5.80587E-002	5.65672E-002	5.91571E-004	...........
	4	1.29167	5.77119E-002	5.64176E-002	5.88537E-004	...........
	5	1.55	5.72443E-002	5.65527E-002	5.89204E-004	...........
	6	1.80833	5.68399E-002	5.65782E-002	5.91771E-004	...........
	7	2.06667	5.66044E-002	5.63828E-002	5.91504E-004	...........
	8	2.325	5.65102E-002	5.65050E-002	5.92971E-004	...........
	9	2.58333	5.64817E-002	5.65001E-002	5.90171E-004	...........
	10	2.84167	5.64746E-002	5.64449E-002	5.87604E-004	...........
	11	3.1	5.64732E-002	5.64012E-002	5.90104E-004	...........
	12	3.35833	5.64661E-002	5.64275E-002	5.89804E-004	...........
	13	3.61667	5.64516E-002	5.64885E-002	5.89804E-004	...........
	14	3.875	5.64423E-002	5.64876E-002	5.92904E-004	...........
	15	4.13333	5.64467E-002	5.64523E-002	5.89371E-004	...........
	16	4.39167	5.64588E-002	5.64841E-002	5.89904E-004	...........
	17	4.65	5.64698E-002	5.65635E-002	5.89804E-004	...........
	18	4.90833	5.64817E-002	5.64882E-002	5.92071E-004	...........
	19	5.16667	5.64915E-002	5.62622E-002	5.90037E-004	...........
	20	5.425	5.64852E-002	5.66462E-002	5.91437E-004	...........
	21	5.68333	5.64727E-002	5.66683E-002	5.90704E-004	...........
	22	5.94167	5.64914E-002	5.67157E-002	5.91637E-004	...........
	23	6.2	5.65674E-002	5.75388E-002	5.92004E-004	...........
	24	6.45833	5.67182E-002	5.73908E-002	5.91037E-004	...........
	25	6.71667	5.69384E-002	5.73522E-002	5.91204E-004	...........
	26	6.975	5.71671E-002	5.77583E-002	5.92037E-004	...........
	27	7.23333	5.73366E-002	5.69474E-002	5.94004E-004	...........
	28	7.49167	5.73811E-002	5.57611E-002	5.94237E-004	...........
	29	7.75	5.72025E-002	5.55919E-002	5.92771E-004	...........
	30	8.00833	5.67875E-002	5.58532E-002	5.92871E-004	...........
	31	8.26667	5.63055E-002	5.57365E-002	5.92271E-004	...........
	32	8.525	5.59623E-002	5.61290E-002	5.92704E-004	...........
	33	8.78333	5.58266E-002	5.58583E-002	5.95737E-004	...........
	34	9.04167	5.58303E-002	5.57215E-002	5.96637E-004	...........
	35	9.3	5.58616E-002	5.58261E-002	5.94137E-004	...........
	36	9.5583	5.58595E-002	5.58578E-002	5.97637E-004	...........
	37	9.8167	5.58418E-002	5.59939E-002	5.94237E-004	...........
	38	10.075	5.58443E-002	5.58616E-002	5.97537E-004	...........
EOC	QUANT	0.0558443	Open Circuit (V)
PSTATMODEL	IQUANT	4	Pstat Model
PSTATSECTION	LABEL	REF600-11020	Pstat Section
PSTATSERIALNO	LABEL	11020	Pstat Serial Number
CTRLMODE	IQUANT	1	Control Mode
IESTAB	IQUANT	0	I/E Stability
CASPEED	IQUANT	1	Control Amp Speed
CONVENTION	IQUANT	1	Current Convention
ICHRANGE	IQUANT	2	Ich Range
ICHRANGEMODE	TOGGLE	F	Ich Auto Range
ICHOFFSETENABLE	TOGGLE	T	Ich Offset Enable
ICHOFFSET	QUANT	0	Ich Offset (V)
ICHFILTER	IQUANT	3	Ich Filter
VCHRANGE	IQUANT	2	Vch Range
VCHRANGEMODE	TOGGLE	F	Vch Auto Range
VCHOFFSETENABLE	TOGGLE	T	Vch Offset Enable
VCHOFFSET	QUANT	0	Vch Offset (V)
VCHFILTER	IQUANT	3	Vch Filter
ACHRANGE	IQUANT	2	Ach Range
ACHOFFSETENABLE	TOGGLE	F	Ach Offset Enable
ACHOFFSET	QUANT	0	Ach Offset (V)
ACHFILTER	IQUANT	3	Ach Filter
IERANGELOWERLIMIT	IQUANT	1	I/E Range Lower Limit
IERANGEMODE	TOGGLE	F	I/E AutoRange
IERANGE	IQUANT	8	I/E Range
POSFEEDENABLE	TOGGLE	F	Positive Feedback IR Comp
POSFEEDRESISTANCE	QUANT	0	Positive Feedback Resistance (ohm)
ACHSELECT	IQUANT	0	Ach Select
CABLEID	IQUANT	14	Cable ID
DCCALDATE	LABEL	1/27/2020	DC Calibration Date
ACCALDATE	LABEL	1/27/2020	AC Calibration Date
THERMOSELECT	IQUANT	1	Thermo Select
FRAMEWORKVERSION	QUANT	6.33	Framework Version
INSTRUMENTVERSION	LABEL	3.50	Instrument Version
ZCURVE	TABLE
	Pt	Time	Freq	Zreal	Zimag	Zsig	Zmod	Zphz	Idc	Vdc	IERange
	#	s	Hz	ohm	ohm	V	ohm	°	A	V	#
	0	1	1000078	1868.207	-1316.3	1	2285.354	-35.16774	1.700048E-006	0.0577281	8
	1	1	794390.6	2076.969	-1316.736	1	2459.186	-32.37347	9.506458E-007	0.0573627	8
	2	2	630984.4	2297.53	-1320.302	1	2649.876	-29.88433	2.570176E-006	0.0571171	8
	3	2	501234.4	2513.96	-1294.613	1	2827.723	-27.2471	9.767256E-007	0.0571994	8
	4	2	398109.4	2719.51	-1281.269	1	3006.225	-25.22698	-1.148707E-006	0.0575502	8
	5	3	316265.6	2920.316	-1255.934	1	3178.933	-23.27099	7.235992E-007	0.0572421	8
	6	3	251203.1	3117.717	-1222.005	1	3348.65	-21.40295	2.718132E-006	0.0567748	8
	7	3	199546.9	3284.867	-1180.711	1	3490.621	-19.77044	-1.05912E-006	0.0575144	8
	8	4	158578.1	3447.622	-1169.097	1	3640.451	-18.73192	1.185589E-006	0.0571611	8
	9	4	125953.1	3634.544	-1092.546	1	3795.203	-16.73081	-3.771795E-008	0.0573275	7
	10	4	100078.1	3791.557	-1066.616	1	3938.727	-15.71201	1.989877E-008	0.057255	7
	11	5	79453.13	3937.123	-1054.505	1	4075.894	-14.99398	-2.038952E-008	0.0573388	7
	12	5	63140.62	4081.731	-1042.419	1	4212.739	-14.32634	4.1994E-008	0.057178	7
	13	5	50203.12	4225.977	-1032.367	1	4350.249	-13.72796	1.761918E-009	0.0572276	7
	14	6	39890.62	4368.536	-1025.552	1	4487.3	-13.21145	-1.534506E-008	0.0572987	7
	15	6	31640.63	4511.416	-1021.494	1	4625.616	-12.75804	5.211387E-010	0.0572251	7
	16	6	25171.88	4650.813	-1020.342	1	4761.424	-12.37408	-1.567637E-008	0.0572923	7
	17	7	20015.62	4788.791	-1024.679	1	4897.192	-12.07771	2.857498E-008	0.0572762	7
	18	7	15890.62	4923.186	-1028.457	1	5029.461	-11.79944	6.331564E-008	0.0572135	7
	19	7	12609.37	5054.881	-1042.164	1	5161.195	-11.64943	6.331721E-008	0.0572123	7
	20	8	10078.13	5178.032	-1063.848	1	5286.188	-11.61009	-2.014259E-008	0.057313	7
	21	8	8015.625	5305.247	-1093.769	1	5416.823	-11.6493	2.012695E-008	0.0572333	7
	22	8	6328.125	5433.265	-1142.237	1	5552.034	-11.87242	-1.442932E-008	0.0572872	7
	23	8	5015.625	5558.541	-1204.249	1	5687.495	-12.22412	-5.428094E-009	0.0572643	7
	24	9	3984.375	5681.98	-1288.496	1	5826.244	-12.77681	-2.634658E-008	0.0573077	7
	25	9	3170.956	5806.512	-1391.012	1	5970.804	-13.47193	-1.9355E-008	0.0572686	7
	26	9	2527.573	5928.068	-1523.497	1	6120.705	-14.41294	6.379673E-008	0.0572043	7
	27	10	1976.103	6061.012	-1706.712	1	6296.724	-15.72662	2.145191E-008	0.0572921	7
	28	10	1577.524	6179.38	-1915.956	1	6469.592	-17.22638	-3.260842E-009	0.0572597	7
	29	10	1265.625	6301.289	-2184.348	1	6669.154	-19.11892	-1.546267E-008	0.0572827	7
	30	11	998.264	6431.316	-2544.773	1	6916.48	-21.58795	-3.369118E-008	0.057306	7
	31	11	796.875	6564.949	-2981.907	1	7210.432	-24.42833	8.198535E-009	0.057304	7
	32	11	627.7902	6721.062	-3561.051	1	7606.166	-27.91619	-2.756918E-008	0.0573039	7
	33	12	505.5147	6876.977	-4224.008	1	8070.629	-31.55927	6.446822E-008	0.0571981	7
	34	12	397.9953	7087.219	-5127.558	1	8747.601	-35.8855	8.313217E-009	0.0572765	7
	35	12	315.5048	7335.125	-6223.185	1	9619.36	-40.31157	5.539668E-010	0.0572725	6
	36	13	252.4038	7629.889	-7523.455	1	10715.3	-44.59757	1.200783E-009	0.0572701	6
	37	13	198.6229	8034.688	-9241.788	1	12246.1	-48.99674	9.950879E-010	0.057267	6
	38	13	158.3615	8528.922	-11235.56	1	14106.04	-52.79783	1.244541E-009	0.0572651	6
	39	14	125.558	9187.321	-13730.23	1	16520.47	-56.21229	7.949963E-010	0.0572665	6
	40	14	100.4464	9997.54	-16630.36	1	19404.11	-58.98731	2.540098E-010	0.0572656	6
	41	14	79.00281	11160.9	-20395.55	1	23249.6	-61.31154	3.274891E-010	0.0572643	6
	42	15	63.3446	12697.11	-24646.21	1	27724.58	-62.74361	9.476195E-010	0.057263	6
	43	15	49.86702	14653.43	-30054.52	1	33436.46	-64.0079	1.516832E-009	0.0572596	6
	44	15	39.72458	17057.91	-36059.02	1	39890.16	-64.68326	8.909748E-010	0.0572669	6
	45	16	31.6723	20144.36	-43147.23	1	47618.05	-64.97331	7.817543E-010	0.0572653	6
	46	16	24.93351	24485.55	-51922.16	1	57406.04	-64.75229	1.452059E-009	0.0572627	6
	47	16	19.86229	29675.06	-61518.38	1	68301.69	-64.2484	1.156242E-009	0.057267	6
	48	17	15.83615	35820.2	-72451.4	1	80822.59	-63.69207	1.263014E-009	0.0572611	6
	49	17	12.40079	44243.22	-85357.68	1	96142.6	-62.60106	3.794923E-009	0.05726	6
	50	17	9.93114	53373.25	-99166	1	112617	-61.70992	1.621946E-009	0.0572642	5
	51	18	7.944915	65390.16	-114731.1	1	132057.2	-60.31934	-1.079706E-010	0.0572619	5
	52	18	6.317385	77266.34	-131691.2	1	152684.8	-59.59884	5.531507E-010	0.0572514	5
	53	19	5.008013	92369.97	-151512.4	1	177449.2	-58.63131	5.428875E-010	0.0572661	5
	54	20	3.945707	108971.9	-173698.4	1	205051.2	-57.89739	-5.44846E-011	0.0572491	5
	55	21	3.158693	126339.5	-197168	1	234172.8	-57.34943	1.874427E-011	0.0572371	5
	56	23	2.504006	145682.9	-225285.5	1	268285.4	-57.1109	3.210877E-010	0.0572468	5
	57	24	1.998082	164742.7	-256925.6	1	305206.3	-57.3317	2.052116E-011	0.05723	5
	58	25	1.584686	186168.7	-296979.3	1	350507.5	-57.91746	-5.843184E-011	0.0572054	5
	59	27	1.266892	206852.4	-343902.9	1	401319.3	-58.97373	4.306487E-011	0.0572258	5
	60	30	0.999041	231345.9	-404179.1	1	465705.6	-60.21385	7.108732E-011	0.0572529	5
