EXPLAIN
TAG	EISPOT
TITLE	LABEL	Potentiostatic EIS	Test &Identifier
DATE	LABEL	5/26/2020	Date
TIME	LABEL	18:39:39	Time
NOTES	NOTES	1	&Notes...
	
PSTAT	PSTAT	REF600-11020	Potentiostat
VDC	POTEN	0.00000E+000	T	DC &Voltage (V)
FREQINIT	QUANT	1.00000E+006	Initial Fre&q. (Hz)
FREQFINAL	QUANT	1.00000E+000	Final Fre&q. (Hz)
PTSPERDEC	QUANT	1.00000E+001	Points/&decade
VAC	QUANT	2.50000E+001	AC &Voltage (mV rms)
AREA	QUANT	5.00000E-004	&Area (cm^2)
CONDIT	TWOPARAM	F	5.00000E+000	0.00000E+000	Conditionin&g	Time(s)	E(V)
DELAY	TWOPARAM	T	3.00000E+000	0.00000E+000	Init. De&lay	Time(s)	Stab.(mV/s)
SPEED	SELECTOR	0	&Optimize for:
ZGUESS	QUANT	1.00000E+003	E&stimated Z (ohms)
OCVCURVE	TABLE	12
	Pt	T	Vf	Vm	Ach	Over
	#	s	V vs. Ref.	V	V	bits
	0	0.258333	1.02008E-001	1.02008E-001	5.84730E-004	...........
	1	0.516667	1.02010E-001	1.02101E-001	5.85797E-004	...........
	2	0.775	1.02021E-001	1.02183E-001	5.84463E-004	...........
	3	1.03333	1.02051E-001	1.02252E-001	5.83963E-004	...........
	4	1.29167	1.02103E-001	1.02316E-001	5.83697E-004	...........
	5	1.55	1.02169E-001	1.02368E-001	5.82830E-004	...........
	6	1.80833	1.02238E-001	1.02419E-001	5.86796E-004	...........
	7	2.06667	1.02302E-001	1.02468E-001	5.85330E-004	...........
	8	2.325	1.02360E-001	1.02507E-001	5.81830E-004	...........
	9	2.58333	1.02412E-001	1.02543E-001	5.84897E-004	...........
	10	2.84167	1.02459E-001	1.02579E-001	5.86896E-004	...........
	11	3.1	1.02501E-001	1.02617E-001	5.80930E-004	...........
EOC	QUANT	0.1025011	Open Circuit (V)
PSTATMODEL	IQUANT	4	Pstat Model
PSTATSECTION	LABEL	REF600-11020	Pstat Section
PSTATSERIALNO	LABEL	11020	Pstat Serial Number
CTRLMODE	IQUANT	1	Control Mode
IESTAB	IQUANT	0	I/E Stability
CASPEED	IQUANT	1	Control Amp Speed
CONVENTION	IQUANT	1	Current Convention
ICHRANGE	IQUANT	2	Ich Range
ICHRANGEMODE	TOGGLE	F	Ich Auto Range
ICHOFFSETENABLE	TOGGLE	T	Ich Offset Enable
ICHOFFSET	QUANT	0	Ich Offset (V)
ICHFILTER	IQUANT	3	Ich Filter
VCHRANGE	IQUANT	2	Vch Range
VCHRANGEMODE	TOGGLE	F	Vch Auto Range
VCHOFFSETENABLE	TOGGLE	T	Vch Offset Enable
VCHOFFSET	QUANT	0	Vch Offset (V)
VCHFILTER	IQUANT	3	Vch Filter
ACHRANGE	IQUANT	2	Ach Range
ACHOFFSETENABLE	TOGGLE	F	Ach Offset Enable
ACHOFFSET	QUANT	0	Ach Offset (V)
ACHFILTER	IQUANT	3	Ach Filter
IERANGELOWERLIMIT	IQUANT	1	I/E Range Lower Limit
IERANGEMODE	TOGGLE	F	I/E AutoRange
IERANGE	IQUANT	8	I/E Range
POSFEEDENABLE	TOGGLE	F	Positive Feedback IR Comp
POSFEEDRESISTANCE	QUANT	0	Positive Feedback Resistance (ohm)
ACHSELECT	IQUANT	0	Ach Select
CABLEID	IQUANT	14	Cable ID
DCCALDATE	LABEL	2/27/2020	DC Calibration Date
ACCALDATE	LABEL	2/27/2020	AC Calibration Date
THERMOSELECT	IQUANT	1	Thermo Select
FRAMEWORKVERSION	QUANT	6.33	Framework Version
INSTRUMENTVERSION	LABEL	3.50	Instrument Version
ZCURVE	TABLE
	Pt	Time	Freq	Zreal	Zimag	Zsig	Zmod	Zphz	Idc	Vdc	IERange
	#	s	Hz	ohm	ohm	V	ohm	°	A	V	#
	0	2	1000078	1839.004	-1393.028	1	2307.047	-37.14358	2.134237E-008	0.1050009	8
	1	2	794390.6	2064.375	-1447.85	1	2521.491	-35.0439	2.236151E-008	0.1046625	8
	2	2	630984.4	2291.23	-1496.406	1	2736.597	-33.14862	2.171531E-008	0.1044846	8
	3	2	501234.4	2519.513	-1541.792	1	2953.823	-31.46415	6.272084E-008	0.1043601	8
	4	3	398109.4	2755.251	-1586.601	1	3179.42	-29.93533	2.420764E-008	0.1042811	8
	5	3	316265.6	2996.671	-1624.114	1	3408.486	-28.45648	4.902471E-008	0.1042548	8
	6	3	251203.1	3242	-1667.85	1	3645.859	-27.22359	5.131596E-008	0.1042349	8
	7	4	199546.9	3488.185	-1705.256	1	3882.697	-26.05246	5.544965E-008	0.1042315	8
	8	4	158578.1	3737.384	-1748.109	1	4126.006	-25.06719	2.531424E-008	0.1042454	8
	9	4	125953.1	4040.887	-1733.793	1	4397.136	-23.22236	1.605265E-009	0.104196	7
	10	5	100078.1	4286.612	-1775.855	1	4639.904	-22.50322	3.21704E-009	0.1041537	7
	11	5	79453.13	4553.146	-1832.104	1	4907.927	-21.91897	3.592096E-009	0.1041542	7
	12	5	63140.62	4824.567	-1882.523	1	5178.836	-21.31549	3.374917E-009	0.1041405	7
	13	6	50203.12	5102.694	-1931.532	1	5456.033	-20.73325	3.1281E-009	0.1041402	7
	14	6	39890.62	5387.804	-1982.174	1	5740.857	-20.19857	3.94541E-009	0.1041435	7
	15	6	31640.63	5680.594	-2032.709	1	6033.329	-19.68893	3.137471E-009	0.1041342	7
	16	7	25171.88	5973.763	-2080.701	1	6325.754	-19.20356	3.268984E-009	0.1041288	7
	17	7	20015.62	6275.704	-2134.475	1	6628.758	-18.78405	4.157545E-009	0.1041389	7
	18	7	15890.62	6582.723	-2188.854	1	6937.098	-18.39274	4.821858E-009	0.1041378	7
	19	8	12609.37	6890.62	-2244.44	1	7246.941	-18.04167	4.639488E-009	0.104137	7
	20	8	10078.13	7196.857	-2308.318	1	7557.981	-17.78311	4.632942E-009	0.1041405	7
	21	8	8015.625	7506.633	-2379.489	1	7874.738	-17.58783	4.814218E-009	0.1041409	7
	22	8	6328.125	7829.285	-2467.207	1	8208.825	-17.49097	5.248646E-009	0.1041411	7
	23	9	5015.625	8145.5	-2569.819	1	8541.262	-17.50993	4.117087E-009	0.1041264	7
	24	9	3984.375	8465.743	-2698.464	1	8885.41	-17.67973	4.761086E-009	0.1041316	7
	25	9	3170.956	8794.739	-2816.537	1	9234.734	-17.7578	1.031216E-010	0.1041795	6
	26	10	2527.573	9112.164	-3008.293	1	9595.9	-18.27014	2.364253E-010	0.1041866	6
	27	10	1976.103	9468.271	-3266.957	1	10016.04	-19.03662	4.617679E-010	0.1041823	6
	28	10	1577.524	9805.49	-3560.476	1	10431.9	-19.95649	2.76894E-010	0.1041826	6
	29	11	1265.625	10141.05	-3907.663	1	10867.88	-21.07323	1.982944E-010	0.1041844	6
	30	11	998.264	10527.02	-4367.66	1	11397.13	-22.53356	4.276021E-010	0.1041749	6
	31	11	796.875	10918.94	-4900.963	1	11968.4	-24.17292	1.006119E-010	0.1041831	6
	32	12	627.7902	11364.21	-5584.749	1	12662.34	-26.17102	2.7202E-010	0.1041824	6
	33	12	505.5147	11806.13	-6330.449	1	13396.24	-28.20022	-1.528606E-010	0.1041812	6
	34	12	397.9953	12336.63	-7328.147	1	14349.02	-30.71095	6.988097E-010	0.1042019	6
	35	13	315.5048	12898.43	-8502.425	1	15448.65	-33.39219	6.304152E-010	0.1042019	6
	36	13	252.4038	13479.82	-9870.09	1	16707.01	-36.21204	5.317329E-010	0.1041988	6
	37	13	198.6229	14168.29	-11671.76	1	18356.76	-39.48151	4.127768E-010	0.1042009	6
	38	14	158.3615	14892.21	-13768.62	1	20281.84	-42.75498	3.450538E-010	0.1042014	6
	39	14	125.558	15745.54	-16415.11	1	22745.94	-46.19269	4.373308E-010	0.1042016	6
	40	14	100.4464	16729.99	-19537.52	1	25721.72	-49.42653	3.341406E-010	0.1041977	6
	41	15	79.00281	18022.71	-23660.5	1	29742.85	-52.7027	1.800347E-010	0.1041941	6
	42	15	63.3446	19536.49	-28290.72	1	34380.8	-55.37252	4.053856E-011	0.1041927	6
	43	15	49.86702	21605.2	-34356.61	1	40585.23	-57.83622	5.04419E-010	0.1041905	6
	44	16	39.72458	24160.01	-41317.33	1	47862.6	-59.68335	2.176598E-010	0.1041933	6
	45	16	31.6723	27425.51	-49567.17	1	56648.59	-61.04425	7.22587E-011	0.1041849	6
	46	16	24.93351	31879.84	-59878.04	1	67835.86	-61.96859	5.690198E-010	0.1041885	6
	47	17	19.86229	37265.22	-71329.06	1	80476.91	-62.41559	1.658727E-009	0.1041973	6
	48	17	15.83615	44113.22	-84695.02	1	95494.6	-62.48734	-2.561261E-010	0.1041886	6
	49	17	12.40079	53407.96	-101042.6	1	114289.2	-62.14046	8.936799E-010	0.1041942	5
	50	17	9.93114	63719.02	-118149.3	1	134236.2	-61.6616	8.529323E-010	0.104199	5
	51	18	7.944915	76444.11	-137551.9	1	157366.5	-60.937	-1.004866E-009	0.1041962	5
	52	18	6.317385	91820.61	-159913.2	1	184399.7	-60.13597	2.552571E-010	0.1041816	5
	53	19	5.008013	110475.5	-185314	1	215745.5	-59.19858	4.356794E-010	0.1041945	5
	54	20	3.945707	132600.6	-213916.7	1	251680.9	-58.20646	-2.978053E-010	0.1041852	5
	55	21	3.158693	156584.1	-243783.5	1	289739.5	-57.28704	2.495316E-010	0.1041887	5
	56	22	2.504006	183976.5	-278203.7	1	333533.6	-56.52329	1.291596E-010	0.1041896	5
	57	23	1.998082	213785.6	-316035.2	1	381552.8	-55.92317	-1.582264E-010	0.1041442	5
	58	25	1.584686	245791.1	-360363.7	1	436205.5	-55.7035	-4.84347E-011	0.1041707	5
	59	27	1.266892	280895.4	-409592.3	1	496656.9	-55.55796	4.875853E-011	0.1042061	5
	60	29	0.999041	322228.9	-472594	1	571993.5	-55.71265	9.694461E-011	0.1042204	5
