EXPLAIN
TAG	EISPOT
TITLE	LABEL	Potentiostatic EIS	Test &Identifier
DATE	LABEL	1/25/2020	Date
TIME	LABEL	13:45:38	Time
NOTES	NOTES	6	&Notes...
	
	
	
	
	
	
PSTAT	PSTAT	REF600-11020	Potentiostat
VDC	POTEN	0.00000E+000	T	DC &Voltage (V)
FREQINIT	QUANT	1.00000E+006	Initial Fre&q. (Hz)
FREQFINAL	QUANT	1.00000E+000	Final Fre&q. (Hz)
PTSPERDEC	QUANT	1.00000E+001	Points/&decade
VAC	QUANT	2.50000E+001	AC &Voltage (mV rms)
AREA	QUANT	1.00000E-001	&Area (cm^2)
CONDIT	TWOPARAM	F	5.00000E+000	0.00000E+000	Conditionin&g	Time(s)	E(V)
DELAY	TWOPARAM	F	5.00000E+000	0.00000E+000	Init. De&lay	Time(s)	Stab.(mV/s)
SPEED	SELECTOR	0	&Optimize for:
ZGUESS	QUANT	5.00000E+002	E&stimated Z (ohms)
OCVCURVE	TABLE	39
	Pt	T	Vf	Vm	Ach	Over
	#	s	V vs. Ref.	V	V	bits
	0	0.258333	-6.48612E-002	-6.48612E-002	6.99945E-004	...........
	1	0.516667	-6.48591E-002	-6.47491E-002	6.98079E-004	...........
	2	0.775	-6.48466E-002	-6.46788E-002	7.00479E-004	...........
	3	1.03333	-6.48145E-002	-6.46576E-002	7.00312E-004	...........
	4	1.29167	-6.47656E-002	-6.46470E-002	7.00679E-004	...........
	5	1.55	-6.47150E-002	-6.46346E-002	7.03279E-004	...........
	6	1.80833	-6.46751E-002	-6.45770E-002	6.96812E-004	...........
	7	2.06667	-6.46456E-002	-6.45819E-002	7.00112E-004	...........
	8	2.325	-6.46208E-002	-6.45592E-002	6.99379E-004	...........
	9	2.58333	-6.45985E-002	-6.45511E-002	7.00779E-004	...........
	10	2.84167	-6.45801E-002	-6.45577E-002	7.03412E-004	...........
	11	3.1	-6.45662E-002	-6.45301E-002	7.04812E-004	...........
	12	3.35833	-6.45566E-002	-6.45617E-002	6.99079E-004	...........
	13	3.61667	-6.45505E-002	-6.45368E-002	6.98879E-004	...........
	14	3.875	-6.45474E-002	-6.45458E-002	6.98479E-004	...........
	15	4.13333	-6.45462E-002	-6.45578E-002	6.98712E-004	...........
	16	4.39167	-6.45461E-002	-6.45300E-002	6.98512E-004	...........
	17	4.65	-6.45465E-002	-6.45686E-002	6.97212E-004	...........
	18	4.90833	-6.45474E-002	-6.45491E-002	6.98146E-004	...........
	19	5.16667	-6.45492E-002	-6.45476E-002	6.99545E-004	...........
	20	5.425	-6.45516E-002	-6.45802E-002	6.99112E-004	...........
	21	5.68333	-6.45543E-002	-6.45511E-002	7.00212E-004	...........
	22	5.94167	-6.45577E-002	-6.45636E-002	7.01012E-004	...........
	23	6.2	-6.45608E-002	-6.45885E-002	7.02079E-004	...........
	24	6.45833	-6.45640E-002	-6.45624E-002	7.04845E-004	...........
	25	6.71667	-6.45675E-002	-6.45580E-002	6.97046E-004	...........
	26	6.975	-6.45697E-002	-6.46042E-002	6.94746E-004	...........
	27	7.23333	-6.45723E-002	-6.46131E-002	6.98012E-004	...........
	28	7.49167	-6.45797E-002	-6.46223E-002	7.00645E-004	...........
	29	7.75	-6.45922E-002	-6.46108E-002	7.00612E-004	...........
	30	8.00833	-6.46044E-002	-6.46121E-002	6.99812E-004	...........
	31	8.26667	-6.46118E-002	-6.46148E-002	7.00145E-004	...........
	32	8.525	-6.46143E-002	-6.46156E-002	6.98745E-004	...........
	33	8.78333	-6.46147E-002	-6.46203E-002	7.02645E-004	...........
	34	9.04167	-6.46154E-002	-6.46248E-002	7.02579E-004	...........
	35	9.3	-6.46173E-002	-6.46313E-002	6.99745E-004	...........
	36	9.5583	-6.46206E-002	-6.46368E-002	7.03212E-004	...........
	37	9.8167	-6.46252E-002	-6.46396E-002	6.99845E-004	...........
	38	10.075	-6.46302E-002	-6.46435E-002	7.05312E-004	...........
EOC	QUANT	-0.0646302	Open Circuit (V)
PSTATMODEL	IQUANT	4	Pstat Model
PSTATSECTION	LABEL	REF600-11020	Pstat Section
PSTATSERIALNO	LABEL	11020	Pstat Serial Number
CTRLMODE	IQUANT	1	Control Mode
IESTAB	IQUANT	0	I/E Stability
CASPEED	IQUANT	1	Control Amp Speed
CONVENTION	IQUANT	1	Current Convention
ICHRANGE	IQUANT	2	Ich Range
ICHRANGEMODE	TOGGLE	F	Ich Auto Range
ICHOFFSETENABLE	TOGGLE	T	Ich Offset Enable
ICHOFFSET	QUANT	0	Ich Offset (V)
ICHFILTER	IQUANT	3	Ich Filter
VCHRANGE	IQUANT	2	Vch Range
VCHRANGEMODE	TOGGLE	F	Vch Auto Range
VCHOFFSETENABLE	TOGGLE	T	Vch Offset Enable
VCHOFFSET	QUANT	0	Vch Offset (V)
VCHFILTER	IQUANT	3	Vch Filter
ACHRANGE	IQUANT	2	Ach Range
ACHOFFSETENABLE	TOGGLE	F	Ach Offset Enable
ACHOFFSET	QUANT	0	Ach Offset (V)
ACHFILTER	IQUANT	3	Ach Filter
IERANGELOWERLIMIT	IQUANT	1	I/E Range Lower Limit
IERANGEMODE	TOGGLE	F	I/E AutoRange
IERANGE	IQUANT	8	I/E Range
POSFEEDENABLE	TOGGLE	F	Positive Feedback IR Comp
POSFEEDRESISTANCE	QUANT	0	Positive Feedback Resistance (ohm)
ACHSELECT	IQUANT	0	Ach Select
CABLEID	IQUANT	14	Cable ID
DCCALDATE	LABEL	12/22/2019	DC Calibration Date
ACCALDATE	LABEL	12/22/2019	AC Calibration Date
THERMOSELECT	IQUANT	1	Thermo Select
FRAMEWORKVERSION	QUANT	6.33	Framework Version
INSTRUMENTVERSION	LABEL	3.50	Instrument Version
ZCURVE	TABLE
	Pt	Time	Freq	Zreal	Zimag	Zsig	Zmod	Zphz	Idc	Vdc	IERange
	#	s	Hz	ohm	ohm	V	ohm	°	A	V	#
	0	1	1000078	1744.684	-860.4565	1	1945.329	-26.25195	2.169368E-006	-0.062857	8
	1	2	794390.6	1885.116	-812.3857	1	2052.714	-23.31349	-2.993468E-006	-0.0623954	8
	2	2	630984.4	2009.001	-761.0307	1	2148.314	-20.74721	1.21362E-007	-0.0627534	8
	3	2	501234.4	2111.434	-712.4528	1	2228.394	-18.64574	4.99407E-007	-0.0632371	8
	4	2	398109.4	2207.067	-663.2092	1	2304.559	-16.72518	-1.927502E-006	-0.0628145	8
	5	3	316265.6	2286.667	-622.4716	1	2369.877	-15.22795	9.480072E-007	-0.063401	8
	6	3	251203.1	2361.296	-591.9102	1	2434.354	-14.07246	5.539346E-007	-0.0632824	8
	7	3	199546.9	2432.545	-571.8234	1	2498.851	-13.22847	1.618984E-008	-0.0631889	8
	8	4	158578.1	2496.21	-555.8161	1	2557.342	-12.55292	-2.244853E-007	-0.0631694	8
	9	4	125953.1	2568.225	-528.3065	1	2622	-11.62409	-6.951572E-007	-0.061663	7
	10	4	100078.1	2627.52	-525.5092	1	2679.556	-11.31004	-5.373263E-009	-0.0631803	7
	11	5	79453.13	2690.479	-539.6366	1	2744.063	-11.34148	9.11785E-009	-0.063201	7
	12	5	63140.62	2755.882	-558.3171	1	2811.868	-11.45261	-4.906056E-009	-0.0631894	7
	13	5	50203.12	2823.556	-582.1746	1	2882.949	-11.65026	3.032215E-008	-0.0633095	7
	14	6	39890.62	2895.906	-610.9405	1	2959.649	-11.91283	7.767543E-008	-0.0633297	7
	15	6	31640.63	2969.894	-647.6591	1	3039.693	-12.30217	-2.754197E-008	-0.0631742	7
	16	6	25171.88	3048.408	-689.0748	1	3125.319	-12.73731	1.31151E-008	-0.0632264	7
	17	7	20015.62	3128.395	-737.5219	1	3214.155	-13.26531	4.833709E-008	-0.0633148	7
	18	7	15890.62	3212.42	-797.3101	1	3309.886	-13.93893	-2.908281E-008	-0.0631767	7
	19	7	12609.37	3300.324	-869.6681	1	3412.984	-14.76243	3.041591E-008	-0.0633096	7
	20	8	10078.13	3389.117	-952.053	1	3520.301	-15.69083	-8.383124E-009	-0.0632304	7
	21	8	8015.625	3484.681	-1056.725	1	3641.383	-16.86987	-7.614254E-009	-0.0632317	7
	22	8	6328.125	3591.323	-1187.101	1	3782.434	-18.29115	-4.132548E-009	-0.0631991	7
	23	8	5015.625	3703.86	-1342.984	1	3939.821	-19.93016	7.769425E-008	-0.063339	7
	24	9	3984.375	3826.303	-1527.266	1	4119.847	-21.75937	-5.107663E-009	-0.0632034	7
	25	9	3170.956	3962.348	-1748.194	1	4330.864	-23.80715	3.309439E-008	-0.0633173	7
	26	9	2527.573	4114.259	-2010.529	1	4579.231	-26.04354	3.259434E-008	-0.0632295	7
	27	10	1976.103	4298.009	-2347.336	1	4897.23	-28.64094	-3.069866E-008	-0.0631667	7
	28	10	1577.524	4483.606	-2722.551	1	5245.475	-31.26711	-1.170388E-008	-0.0631782	7
	29	10	1265.625	4684.211	-3139.351	1	5638.915	-33.82993	-2.679186E-008	-0.0631935	7
	30	11	998.264	4914.68	-3694.936	1	6148.709	-36.93644	-2.707261E-008	-0.0632094	7
	31	11	796.875	5160.367	-4330.872	1	6736.901	-40.00528	3.078399E-008	-0.0633271	7
	32	11	627.7902	5439.588	-5171.47	1	7505.546	-43.55257	-1.278389E-008	-0.0631819	7
	33	12	505.5147	5733.875	-6094.751	1	8367.993	-46.74748	-6.422165E-009	-0.0632448	7
	34	12	397.9953	6111.094	-7343.625	1	9553.76	-50.23402	5.47221E-009	-0.0632273	7
	35	12	315.5048	6550.315	-8837.351	1	11000.25	-53.45386	9.424591E-010	-0.0632254	6
	36	13	252.4038	7057.076	-10585.95	1	12722.61	-56.31078	7.581821E-010	-0.0632287	6
	37	13	198.6229	7726.733	-12872.05	1	15013.06	-59.02477	5.722289E-010	-0.0632269	6
	38	13	158.3615	8508.825	-15504.04	1	17685.45	-61.24142	2.974992E-010	-0.0632306	6
	39	14	125.558	9499.204	-18765.62	1	21032.91	-63.15135	5.421262E-010	-0.0632275	6
	40	14	100.4464	10688.36	-22531.43	1	24938.05	-64.62148	5.426206E-010	-0.0632391	6
	41	14	79.00281	12287.27	-27435.5	1	30061.33	-65.87429	7.831284E-010	-0.0632338	6
	42	15	63.3446	13986.21	-32931.44	1	35778.39	-66.98874	2.653587E-010	-0.0632342	6
	43	15	49.86702	16466.77	-39946.15	1	43207.05	-67.59735	5.779037E-010	-0.0632307	6
	44	15	39.72458	19536.22	-47965.66	1	51791.58	-67.83913	5.060292E-010	-0.0632313	6
	45	16	31.6723	23285.36	-57437.23	1	61977.77	-67.93211	4.399535E-010	-0.0632352	6
	46	16	24.93351	28198.22	-69327.93	1	74843.18	-67.86662	8.126538E-010	-0.0632406	6
	47	16	19.86229	34072.02	-82633.24	1	89382.07	-67.59226	1.842377E-009	-0.063233	6
	48	16	15.83615	41700.44	-97829.8	1	106346.5	-66.91362	-1.106891E-009	-0.0632369	5
	49	17	12.40079	51009.26	-117748.2	1	128322.2	-66.57744	-6.1693E-010	-0.0632341	5
	50	17	9.93114	62103.73	-138072.8	1	151396.8	-65.78228	-9.782989E-010	-0.0632388	5
	51	17	7.944915	75084.59	-162870.4	1	179344.5	-65.24991	-9.133896E-010	-0.0632372	5
	52	18	6.317385	91148.48	-189809.8	1	210560.7	-64.34924	7.803621E-011	-0.0632491	5
	53	19	5.008013	110471.7	-222432.6	1	248355.1	-63.58859	-1.618851E-010	-0.063245	5
	54	20	3.945707	133743.8	-261027.6	1	293296.5	-62.87056	-1.373824E-010	-0.0632395	5
	55	20	3.158693	159485.2	-302149.1	1	341657.1	-62.17328	-5.091875E-011	-0.0632543	5
	56	22	2.504006	190969.3	-351895.2	1	400374.2	-61.51184	2.204676E-010	-0.0632511	5
	57	23	1.998082	225261.8	-406470.1	1	464715.8	-61.0052	5.719856E-011	-0.0632532	5
	58	25	1.584686	267710.9	-472778.3	1	543312.4	-60.47927	-2.753133E-011	-0.0632955	5
	59	27	1.266892	313295.3	-546896.4	1	630277.4	-60.19332	8.274572E-012	-0.0632771	5
	60	29	0.999041	369979.5	-636670.5	1	736365.5	-59.83844	1.394557E-011	-0.0632553	5
