EXPLAIN
TAG	EISPOT
TITLE	LABEL	Potentiostatic EIS	Test &Identifier
DATE	LABEL	7/13/2020	Date
TIME	LABEL	21:15:52	Time
NOTES	NOTES	1	&Notes...
	
PSTAT	PSTAT	REF600-11020	Potentiostat
VDC	POTEN	0.00000E+000	T	DC &Voltage (V)
FREQINIT	QUANT	1.00000E+006	Initial Fre&q. (Hz)
FREQFINAL	QUANT	1.00000E+000	Final Fre&q. (Hz)
PTSPERDEC	QUANT	1.00000E+001	Points/&decade
VAC	QUANT	2.50000E+001	AC &Voltage (mV rms)
AREA	QUANT	4.00000E-004	&Area (cm^2)
CONDIT	TWOPARAM	F	5.00000E+000	0.00000E+000	Conditionin&g	Time(s)	E(V)
DELAY	TWOPARAM	F	3.00000E+000	0.00000E+000	Init. De&lay	Time(s)	Stab.(mV/s)
SPEED	SELECTOR	0	&Optimize for:
ZGUESS	QUANT	1.00000E+003	E&stimated Z (ohms)
OCVCURVE	TABLE	39
	Pt	T	Vf	Vm	Ach	Over
	#	s	V vs. Ref.	V	V	bits
	0	0.258333	1.93001E-001	1.93001E-001	5.29350E-004	...........
	1	0.516667	1.93001E-001	1.92992E-001	5.29416E-004	...........
	2	0.775	1.93000E-001	1.92983E-001	5.33350E-004	...........
	3	1.03333	1.92997E-001	1.92971E-001	5.31683E-004	...........
	4	1.29167	1.92991E-001	1.92961E-001	5.31150E-004	...........
	5	1.55	1.92982E-001	1.92951E-001	5.31817E-004	...........
	6	1.80833	1.92973E-001	1.92944E-001	5.32717E-004	...........
	7	2.06667	1.92963E-001	1.92938E-001	5.33717E-004	...........
	8	2.325	1.92953E-001	1.92929E-001	5.36383E-004	...........
	9	2.58333	1.92945E-001	1.92921E-001	5.35050E-004	...........
	10	2.84167	1.92937E-001	1.92914E-001	5.36616E-004	...........
	11	3.1	1.92930E-001	1.92906E-001	5.37283E-004	...........
	12	3.35833	1.92922E-001	1.92897E-001	5.35650E-004	...........
	13	3.61667	1.92914E-001	1.92890E-001	5.31083E-004	...........
	14	3.875	1.92906E-001	1.92881E-001	5.37216E-004	...........
	15	4.13333	1.92898E-001	1.92875E-001	5.38516E-004	...........
	16	4.39167	1.92891E-001	1.92869E-001	5.35516E-004	...........
	17	4.65	1.92883E-001	1.92863E-001	5.36550E-004	...........
	18	4.90833	1.92876E-001	1.92855E-001	5.33450E-004	...........
	19	5.16667	1.92870E-001	1.92849E-001	5.33917E-004	...........
	20	5.425	1.92863E-001	1.92844E-001	5.31783E-004	...........
	21	5.68333	1.92856E-001	1.92837E-001	5.30283E-004	...........
	22	5.94167	1.92850E-001	1.92832E-001	5.30150E-004	...........
	23	6.2	1.92844E-001	1.92824E-001	5.30750E-004	...........
	24	6.45833	1.92838E-001	1.92816E-001	5.31483E-004	...........
	25	6.71667	1.92831E-001	1.92812E-001	5.31917E-004	...........
	26	6.975	1.92825E-001	1.92805E-001	5.28950E-004	...........
	27	7.23333	1.92818E-001	1.92805E-001	5.33483E-004	...........
	28	7.49167	1.92813E-001	1.92797E-001	5.34250E-004	...........
	29	7.75	1.92808E-001	1.92792E-001	5.35083E-004	...........
	30	8.00833	1.92803E-001	1.92787E-001	5.39483E-004	...........
	31	8.26667	1.92798E-001	1.92785E-001	5.38116E-004	...........
	32	8.525	1.92793E-001	1.92778E-001	5.38050E-004	...........
	33	8.78333	1.92788E-001	1.92776E-001	5.38583E-004	...........
	34	9.04167	1.92784E-001	1.92771E-001	5.40216E-004	...........
	35	9.3	1.92780E-001	1.92768E-001	5.39483E-004	...........
	36	9.5583	1.92775E-001	1.92761E-001	5.40183E-004	...........
	37	9.8167	1.92771E-001	1.92756E-001	5.39616E-004	...........
	38	10.075	1.92767E-001	1.92754E-001	5.36983E-004	...........
EOC	QUANT	0.1927668	Open Circuit (V)
PSTATMODEL	IQUANT	4	Pstat Model
PSTATSECTION	LABEL	REF600-11020	Pstat Section
PSTATSERIALNO	LABEL	11020	Pstat Serial Number
CTRLMODE	IQUANT	1	Control Mode
IESTAB	IQUANT	0	I/E Stability
CASPEED	IQUANT	1	Control Amp Speed
CONVENTION	IQUANT	1	Current Convention
ICHRANGE	IQUANT	2	Ich Range
ICHRANGEMODE	TOGGLE	F	Ich Auto Range
ICHOFFSETENABLE	TOGGLE	T	Ich Offset Enable
ICHOFFSET	QUANT	0	Ich Offset (V)
ICHFILTER	IQUANT	3	Ich Filter
VCHRANGE	IQUANT	2	Vch Range
VCHRANGEMODE	TOGGLE	F	Vch Auto Range
VCHOFFSETENABLE	TOGGLE	T	Vch Offset Enable
VCHOFFSET	QUANT	0	Vch Offset (V)
VCHFILTER	IQUANT	3	Vch Filter
ACHRANGE	IQUANT	2	Ach Range
ACHOFFSETENABLE	TOGGLE	F	Ach Offset Enable
ACHOFFSET	QUANT	0	Ach Offset (V)
ACHFILTER	IQUANT	3	Ach Filter
IERANGELOWERLIMIT	IQUANT	1	I/E Range Lower Limit
IERANGEMODE	TOGGLE	F	I/E AutoRange
IERANGE	IQUANT	8	I/E Range
POSFEEDENABLE	TOGGLE	F	Positive Feedback IR Comp
POSFEEDRESISTANCE	QUANT	0	Positive Feedback Resistance (ohm)
ACHSELECT	IQUANT	0	Ach Select
CABLEID	IQUANT	14	Cable ID
DCCALDATE	LABEL	6/26/2020	DC Calibration Date
ACCALDATE	LABEL	6/26/2020	AC Calibration Date
THERMOSELECT	IQUANT	1	Thermo Select
FRAMEWORKVERSION	QUANT	6.33	Framework Version
INSTRUMENTVERSION	LABEL	3.50	Instrument Version
ZCURVE	TABLE
	Pt	Time	Freq	Zreal	Zimag	Zsig	Zmod	Zphz	Idc	Vdc	IERange
	#	s	Hz	ohm	ohm	V	ohm	°	A	V	#
	0	1	1000078	1464.156	-1416.823	1	2037.435	-44.05873	4.110362E-008	0.1950563	8
	1	1	794390.6	1690.571	-1527.105	1	2278.175	-42.09175	-4.611219E-008	0.1947352	8
	2	1	630984.4	1937.816	-1624.614	1	2528.735	-39.97559	7.754336E-008	0.1945792	8
	3	2	501234.4	2197.586	-1711.703	1	2785.554	-37.91507	6.090985E-008	0.1944924	8
	4	2	398109.4	2466.85	-1789	1	3047.273	-35.95024	-1.872214E-008	0.1944145	8
	5	2	316265.6	2736.112	-1858.029	1	3307.352	-34.17949	6.723172E-008	0.1943823	8
	6	3	251203.1	3001.646	-1930.446	1	3568.823	-32.74625	-6.982875E-008	0.1943974	8
	7	3	199546.9	3265.298	-2001.519	1	3829.915	-31.50691	4.173694E-008	0.1943908	8
	8	3	158578.1	3526.333	-2080.213	1	4094.18	-30.5367	6.501831E-008	0.1943738	8
	9	4	125953.1	3834.701	-2145.786	1	4394.238	-29.23009	5.638911E-008	0.1943587	7
	10	4	100078.1	4100.618	-2282.628	1	4693.129	-29.10271	-2.449629E-008	0.1943916	7
	11	4	79453.13	4366.258	-2456.71	1	5009.954	-29.36463	-6.059397E-009	0.1943462	7
	12	4	63140.62	4648.295	-2668.025	1	5359.571	-29.85493	2.065144E-009	0.194333	7
	13	5	50203.12	4954.232	-2921.656	1	5751.564	-30.5291	1.613112E-008	0.1943506	7
	14	5	39890.62	5296.609	-3226.53	1	6201.981	-31.34847	1.65171E-008	0.1943529	7
	15	5	31640.63	5687.169	-3592.553	1	6726.836	-32.28038	1.587836E-008	0.194312	7
	16	6	25171.88	6131.107	-4007.113	1	7324.44	-33.16747	-2.072646E-008	0.1943643	7
	17	6	20015.62	6646.963	-4478.122	1	8014.717	-33.96852	-1.469752E-008	0.1943489	7
	18	6	15890.62	7255.545	-4996.933	1	8809.783	-34.55539	1.589306E-008	0.1943461	7
	19	7	12609.37	8089.757	-5482.951	1	9772.76	-34.12803	1.896112E-009	0.1943551	6
	20	7	10078.13	8884.519	-6061.195	1	10755.13	-34.30259	-4.963919E-010	0.1943167	6
	21	7	8015.625	9821.78	-6653.723	1	11863.36	-34.11552	-3.509754E-009	0.1943893	6
	22	8	6328.125	10914.36	-7241.054	1	13097.94	-33.562	-5.551852E-010	0.1943795	6
	23	8	5015.625	12088.22	-7768.789	1	14369.39	-32.7278	2.672235E-009	0.1942874	6
	24	8	3984.375	13317.35	-8233.494	1	15657.02	-31.72655	-3.2021E-009	0.1943861	6
	25	9	3170.956	14567.51	-8643.174	1	16938.62	-30.68144	-2.649059E-009	0.1943457	6
	26	9	2527.573	15809.84	-9021.296	1	18202.61	-29.70963	1.620547E-009	0.1942868	6
	27	9	1976.103	17116.71	-9429.132	1	19542.01	-28.84919	-2.045223E-009	0.1943836	6
	28	10	1577.524	18266.67	-9858.62	1	20757.25	-28.35597	-2.877514E-009	0.1943915	6
	29	10	1265.625	19354.21	-10387.02	1	21965.33	-28.22156	-3.625732E-009	0.1943784	6
	30	10	998.264	20481.34	-11121.45	1	23306.05	-28.50213	1.315092E-009	0.1943433	6
	31	11	796.875	21520.85	-12057.73	1	24668.52	-29.2611	-3.129411E-009	0.1943862	6
	32	11	627.7902	22650.83	-13370.15	1	26302.49	-30.55215	2.240049E-009	0.1943265	6
	33	11	505.5147	23737.38	-14914.35	1	28033.93	-32.14141	1.235071E-009	0.1943399	6
	34	11	397.9953	25101.25	-17079.19	1	30360.7	-34.23184	1.634739E-010	0.1943552	6
	35	12	315.5048	26665.44	-19684	1	33143.71	-36.43415	1.346143E-010	0.1943509	6
	36	12	252.4038	28498.06	-22698.86	1	36433.2	-38.53751	3.037968E-011	0.1943454	6
	37	12	198.6229	30915	-26511.15	1	40725.65	-40.61474	-6.397174E-011	0.1943486	6
	38	13	158.3615	33720.2	-30656.09	1	45572.45	-42.27496	-1.639512E-011	0.194346	6
	39	13	125.558	37190.04	-35467.43	1	51391.03	-43.64184	-1.454361E-010	0.1943505	6
	40	13	100.4464	41116.46	-40615.54	1	57794.34	-44.64885	1.090553E-010	0.1943474	6
	41	14	79.00281	45991.76	-46762.09	1	65589.13	-45.47584	-9.487962E-012	0.1943463	6
	42	14	63.3446	51066.84	-53116.97	1	73683.34	-46.12732	-7.489748E-011	0.1943474	6
	43	14	49.86702	57165.23	-60854.15	1	83493.05	-46.79031	-3.713418E-010	0.1943461	6
	44	15	39.72458	63644.86	-69317.62	1	94104.2	-47.44301	-1.266047E-010	0.194354	6
	45	15	31.6723	70870.61	-79029.99	1	106152.6	-48.11565	-3.974049E-011	0.1943349	5
	46	15	24.93351	79575.2	-91221.34	1	121051.8	-48.9008	-5.342404E-010	0.1943367	5
	47	16	19.86229	89291.3	-104826.7	1	137701.1	-49.57568	-4.558173E-010	0.1943371	5
	48	16	15.83615	100865	-120513.9	1	157153.9	-50.07209	-1.483045E-010	0.1943337	5
	49	16	12.40079	116253.1	-139770.5	1	181798.1	-50.24826	-2.062206E-009	0.1943409	5
	50	17	9.93114	132378.6	-159261.7	1	207095.1	-50.26657	-1.731882E-009	0.1943347	5
	51	17	7.944915	152314.3	-180773.7	1	236386.9	-49.88356	4.511363E-010	0.1943408	5
	52	17	6.317385	175279.9	-204448.4	1	269299.4	-49.39251	-1.839247E-010	0.1943464	5
	53	18	5.008013	201376.8	-229854.4	1	305590.7	-48.77822	-5.824931E-010	0.194329	5
	54	19	3.945707	231161.5	-257333.8	1	345913.8	-48.06683	-1.892422E-010	0.1943408	5
	55	20	3.158693	259331.3	-285650.3	1	385809.3	-47.76486	-2.789789E-010	0.1943224	5
	56	21	2.504006	290316.2	-318576	1	431015.3	-47.6573	1.319171E-010	0.1943214	5
	57	22	1.998082	319573.1	-356978.4	1	479124.8	-48.16456	1.065149E-010	0.1943392	5
	58	24	1.584686	351431.5	-403379.2	1	534994.3	-48.937	-6.385102E-011	0.1942946	5
	59	26	1.266892	383824.5	-460826.4	1	599735.2	-50.20892	-6.630108E-011	0.1942791	5
	60	28	0.999041	419499.3	-536073.1	1	680701.1	-51.95535	-5.532752E-011	0.1942919	5
