EXPLAIN
TAG	EISPOT
TITLE	LABEL	Potentiostatic EIS	Test &Identifier
DATE	LABEL	2/21/2020	Date
TIME	LABEL	18:27:06	Time
NOTES	NOTES	1	&Notes...
	
PSTAT	PSTAT	REF600-11020	Potentiostat
VDC	POTEN	0.00000E+000	T	DC &Voltage (V)
FREQINIT	QUANT	1.00000E+006	Initial Fre&q. (Hz)
FREQFINAL	QUANT	1.00000E+000	Final Fre&q. (Hz)
PTSPERDEC	QUANT	1.00000E+001	Points/&decade
VAC	QUANT	2.50000E+001	AC &Voltage (mV rms)
AREA	QUANT	2.08200E-005	&Area (cm^2)
CONDIT	TWOPARAM	F	1.50000E+001	0.00000E+000	Conditionin&g	Time(s)	E(V)
DELAY	TWOPARAM	F	1.00000E+002	0.00000E+000	Init. De&lay	Time(s)	Stab.(mV/s)
SPEED	SELECTOR	0	&Optimize for:
ZGUESS	QUANT	2.00000E+003	E&stimated Z (ohms)
OCVCURVE	TABLE	39
	Pt	T	Vf	Vm	Ach	Over
	#	s	V vs. Ref.	V	V	bits
	0	0.258333	3.78096E-002	3.78096E-002	5.74537E-004	...........
	1	0.516667	3.78093E-002	3.77963E-002	5.71371E-004	...........
	2	0.775	3.78083E-002	3.78105E-002	5.72171E-004	...........
	3	1.03333	3.78074E-002	3.78426E-002	5.74571E-004	...........
	4	1.29167	3.78106E-002	3.78772E-002	5.70438E-004	...........
	5	1.55	3.78224E-002	3.78926E-002	5.70604E-004	...........
	6	1.80833	3.78417E-002	3.78728E-002	5.74571E-004	...........
	7	2.06667	3.78618E-002	3.79098E-002	5.68338E-004	...........
	8	2.325	3.78776E-002	3.79146E-002	5.67738E-004	...........
	9	2.58333	3.78907E-002	3.79509E-002	5.70171E-004	...........
	10	2.84167	3.79051E-002	3.79667E-002	5.66804E-004	...........
	11	3.1	3.79232E-002	3.79983E-002	5.69171E-004	...........
	12	3.35833	3.79441E-002	3.79856E-002	5.67338E-004	...........
	13	3.61667	3.79643E-002	3.79989E-002	5.71704E-004	...........
	14	3.875	3.79798E-002	3.79919E-002	5.69404E-004	...........
	15	4.13333	3.79900E-002	3.80448E-002	5.68504E-004	...........
	16	4.39167	3.79987E-002	3.80216E-002	5.74437E-004	...........
	17	4.65	3.80094E-002	3.80529E-002	5.70971E-004	...........
	18	4.90833	3.80213E-002	3.80417E-002	5.70771E-004	...........
	19	5.16667	3.80326E-002	3.80840E-002	5.70338E-004	...........
	20	5.425	3.80423E-002	3.79974E-002	5.69004E-004	...........
	21	5.68333	3.80477E-002	3.80727E-002	5.70438E-004	...........
	22	5.94167	3.80481E-002	3.80550E-002	5.70038E-004	...........
	23	6.2	3.80487E-002	3.80966E-002	5.67238E-004	...........
	24	6.45833	3.80544E-002	3.80500E-002	5.66238E-004	...........
	25	6.71667	3.80631E-002	3.81138E-002	5.71538E-004	...........
	26	6.975	3.80716E-002	3.80749E-002	5.71038E-004	...........
	27	7.23333	3.80791E-002	3.81026E-002	5.73004E-004	...........
	28	7.49167	3.80856E-002	3.81024E-002	5.67438E-004	...........
	29	7.75	3.80915E-002	3.81242E-002	5.74571E-004	...........
	30	8.00833	3.80985E-002	3.81215E-002	5.76338E-004	...........
	31	8.26667	3.81069E-002	3.81311E-002	5.73704E-004	...........
	32	8.525	3.81156E-002	3.81428E-002	5.69871E-004	...........
	33	8.78333	3.81235E-002	3.81322E-002	5.75137E-004	...........
	34	9.04167	3.81301E-002	3.81416E-002	5.72304E-004	...........
	35	9.3	3.81346E-002	3.81394E-002	5.75338E-004	...........
	36	9.5583	3.81377E-002	3.81632E-002	5.69871E-004	...........
	37	9.8167	3.81415E-002	3.81629E-002	5.69038E-004	...........
	38	10.075	3.81477E-002	3.81767E-002	5.72738E-004	...........
EOC	QUANT	0.0381477	Open Circuit (V)
PSTATMODEL	IQUANT	4	Pstat Model
PSTATSECTION	LABEL	REF600-11020	Pstat Section
PSTATSERIALNO	LABEL	11020	Pstat Serial Number
CTRLMODE	IQUANT	1	Control Mode
IESTAB	IQUANT	0	I/E Stability
CASPEED	IQUANT	1	Control Amp Speed
CONVENTION	IQUANT	1	Current Convention
ICHRANGE	IQUANT	2	Ich Range
ICHRANGEMODE	TOGGLE	F	Ich Auto Range
ICHOFFSETENABLE	TOGGLE	T	Ich Offset Enable
ICHOFFSET	QUANT	0	Ich Offset (V)
ICHFILTER	IQUANT	3	Ich Filter
VCHRANGE	IQUANT	2	Vch Range
VCHRANGEMODE	TOGGLE	F	Vch Auto Range
VCHOFFSETENABLE	TOGGLE	T	Vch Offset Enable
VCHOFFSET	QUANT	0	Vch Offset (V)
VCHFILTER	IQUANT	3	Vch Filter
ACHRANGE	IQUANT	2	Ach Range
ACHOFFSETENABLE	TOGGLE	F	Ach Offset Enable
ACHOFFSET	QUANT	0	Ach Offset (V)
ACHFILTER	IQUANT	3	Ach Filter
IERANGELOWERLIMIT	IQUANT	1	I/E Range Lower Limit
IERANGEMODE	TOGGLE	F	I/E AutoRange
IERANGE	IQUANT	7	I/E Range
POSFEEDENABLE	TOGGLE	F	Positive Feedback IR Comp
POSFEEDRESISTANCE	QUANT	0	Positive Feedback Resistance (ohm)
ACHSELECT	IQUANT	0	Ach Select
CABLEID	IQUANT	14	Cable ID
DCCALDATE	LABEL	1/27/2020	DC Calibration Date
ACCALDATE	LABEL	1/27/2020	AC Calibration Date
THERMOSELECT	IQUANT	1	Thermo Select
FRAMEWORKVERSION	QUANT	6.33	Framework Version
INSTRUMENTVERSION	LABEL	3.50	Instrument Version
ZCURVE	TABLE
	Pt	Time	Freq	Zreal	Zimag	Zsig	Zmod	Zphz	Idc	Vdc	IERange
	#	s	Hz	ohm	ohm	V	ohm	°	A	V	#
	0	1	1000078	1431.318	-2209.422	1	2632.531	-57.06384	-1.357541E-006	0.0409521	8
	1	1	794390.6	1770.101	-2502.594	1	3065.328	-54.72798	1.079128E-006	0.0401942	8
	2	1	630984.4	2168.821	-2787.951	1	3532.203	-52.11971	2.328141E-007	0.039962	8
	3	2	501234.4	2614.579	-3085.781	1	4044.511	-49.72544	-1.007257E-007	0.0399523	8
	4	2	398109.4	3142.533	-3354.147	1	4596.284	-46.86562	-5.791872E-007	0.0399956	8
	5	2	316265.6	3721.75	-3621.958	1	5193.266	-44.22147	-5.500359E-007	0.0399626	8
	6	3	251203.1	4356.253	-3844.859	1	5810.325	-41.43185	-9.604782E-007	0.0400452	8
	7	3	199546.9	5057.72	-3990.15	1	6442.191	-38.27071	-2.372996E-008	0.039824	8
	8	3	158578.1	5855.317	-4116.553	1	7157.565	-35.10895	4.220163E-007	0.0397782	8
	9	4	125953.1	6632.327	-4085.553	1	7789.705	-31.63332	1.677995E-007	0.0393248	7
	10	4	100078.1	7375.744	-3978.951	1	8380.552	-28.34528	1.916723E-008	0.0397892	7
	11	4	79453.13	8093.369	-3791.063	1	8937.27	-25.09914	-1.585616E-008	0.0398039	7
	12	5	63140.62	8734.357	-3543.441	1	9425.761	-22.0819	1.559767E-008	0.0397537	7
	13	5	50203.12	9288.684	-3248.302	1	9840.28	-19.27501	-2.97741E-011	0.0397677	7
	14	5	39890.62	9764.37	-2929.107	1	10194.24	-16.69814	-2.233735E-008	0.0397991	7
	15	6	31640.63	10159.06	-2613.626	1	10489.88	-14.42763	-2.221732E-008	0.0397971	7
	16	6	25171.88	10461.75	-2349.132	1	10722.25	-12.65555	4.301828E-008	0.0397012	7
	17	6	20015.62	10718.26	-2105.764	1	10923.16	-11.11506	1.670578E-008	0.0397827	7
	18	7	15890.62	10904.49	-1894.47	1	11067.83	-9.85579	1.627527E-008	0.0397789	7
	19	7	12609.37	11071.66	-1732.464	1	11206.38	-8.893373	4.431603E-009	0.0397277	6
	20	7	10078.13	11201.48	-1646.552	1	11321.85	-8.362259	-5.559032E-010	0.0397314	6
	21	7	8015.625	11312.45	-1613.009	1	11426.87	-8.114932	3.637906E-009	0.0397188	6
	22	8	6328.125	11428.17	-1621.052	1	11542.57	-8.073372	-1.666826E-009	0.0397642	6
	23	8	5015.625	11514.37	-1705.136	1	11639.94	-8.423578	9.475657E-010	0.0397871	6
	24	8	3984.375	11615.27	-1832.933	1	11759.01	-8.967534	4.851504E-009	0.0397174	6
	25	9	3170.956	11709.82	-2034.692	1	11885.28	-9.85727	4.937767E-009	0.039721	6
	26	9	2527.573	11811.52	-2314.242	1	12036.1	-11.08558	4.542088E-009	0.0396583	6
	27	9	1976.103	11929.94	-2714.379	1	12234.84	-12.8181	-2.80337E-009	0.0397955	6
	28	10	1577.524	12056.46	-3191.963	1	12471.84	-14.82891	-3.679101E-009	0.0397918	6
	29	10	1265.625	12210.22	-3766.544	1	12777.96	-17.14368	2.975344E-009	0.0397828	6
	30	10	998.264	12401.2	-4553.222	1	13210.66	-20.16121	-7.257872E-010	0.0397563	6
	31	11	796.875	12633.23	-5457.602	1	13761.68	-23.36452	-7.468245E-010	0.0397084	6
	32	11	627.7902	12908.39	-6652.163	1	14521.63	-27.26371	-1.250318E-009	0.0397441	6
	33	11	505.5147	13220.56	-7972.708	1	15438.5	-31.09223	2.691121E-009	0.0397641	6
	34	12	397.9953	13644.53	-9751.67	1	16771.05	-35.55317	2.784354E-010	0.0397685	6
	35	12	315.5048	14158.04	-11861.24	1	18469.95	-39.9554	1.161558E-009	0.0397678	6
	36	12	252.4038	14756.43	-14324.71	1	20565.73	-44.14948	6.202373E-010	0.0397644	6
	37	13	198.6229	15560.57	-17545.88	1	23451.85	-48.43177	5.385847E-010	0.0397673	6
	38	13	158.3615	16480.51	-21262.06	1	26901.35	-52.22026	1.90383E-010	0.0397641	6
	39	13	125.558	17647.55	-25893.83	1	31335.7	-55.72421	4.991266E-010	0.0397644	6
	40	13	100.4464	19066.3	-31305.18	1	36654.3	-58.65666	7.942519E-010	0.0397647	6
	41	14	79.00281	20870.99	-38462.34	1	43760.14	-61.51422	3.535361E-010	0.0397586	6
	42	14	63.3446	22975.41	-45803.67	1	51243.01	-63.36136	5.147559E-010	0.03976	6
	43	15	49.86702	25982.58	-56400.37	1	62097.47	-65.26537	8.831618E-010	0.0397558	6
	44	15	39.72458	29340.43	-68759.63	1	74757.92	-66.89156	5.161221E-010	0.0397616	6
	45	15	31.6723	33657.46	-83400.73	1	89936.13	-68.02281	4.221134E-010	0.039762	6
	46	16	24.93351	40141.79	-101927.8	1	109547.4	-68.5042	-1.801609E-010	0.0397561	5
	47	16	19.86229	47997.96	-123192.3	1	132212.5	-68.71321	-2.245164E-011	0.0397584	5
	48	16	15.83615	57789.32	-147308.4	1	158238.4	-68.57985	-2.640618E-010	0.0397609	5
	49	16	12.40079	74023.48	-180496.7	1	195086	-67.70098	-5.128846E-010	0.0397617	5
	50	17	9.93114	90436.93	-214477.3	1	232764.5	-67.13669	3.000624E-010	0.0397619	5
	51	17	7.944915	112392.5	-253456.9	1	277258.8	-66.08567	4.139754E-010	0.0397562	5
	52	18	6.317385	140759	-298378.5	1	329913.4	-64.74457	4.221122E-010	0.0397485	5
	53	19	5.008013	177277.8	-349143	1	391571.5	-63.08075	3.402017E-010	0.0397665	5
	54	20	3.945707	224094.4	-407041.8	1	464651.9	-61.16528	-8.815551E-011	0.0397594	5
	55	21	3.158693	273721.2	-463923.3	1	538654	-59.45881	-8.210351E-012	0.0397402	5
	56	23	2.504006	334982.9	-527732.4	1	625072	-57.59429	2.004193E-010	0.039748	5
	57	24	1.998082	400147.7	-593285.8	1	715615.9	-56.0019	1.079994E-010	0.0397498	5
	58	26	1.584686	477940.3	-667249.9	1	820761.4	-54.38659	-1.619137E-011	0.0397082	5
	59	28	1.266892	557648.2	-746315.1	1	931642.5	-53.23284	-2.627181E-011	0.0397168	5
	60	30	0.999041	649865.1	-839033.1	1	1061273	-52.24076	-6.27992E-011	0.0396915	4
