EXPLAIN
TAG	EISPOT
TITLE	LABEL	Potentiostatic EIS	Test &Identifier
DATE	LABEL	1/10/2020	Date
TIME	LABEL	12:37:46	Time
NOTES	NOTES	5	&Notes...
	
	
	
	
	
PSTAT	PSTAT	REF600-11020	Potentiostat
VDC	POTEN	0.00000E+000	T	DC &Voltage (V)
FREQINIT	QUANT	1.00000E+006	Initial Fre&q. (Hz)
FREQFINAL	QUANT	1.00000E+000	Final Fre&q. (Hz)
PTSPERDEC	QUANT	1.00000E+001	Points/&decade
VAC	QUANT	2.50000E+001	AC &Voltage (mV rms)
AREA	QUANT	1.00000E-001	&Area (cm^2)
CONDIT	TWOPARAM	T	5.00000E+000	0.00000E+000	Conditionin&g	Time(s)	E(V)
DELAY	TWOPARAM	T	5.00000E+000	0.00000E+000	Init. De&lay	Time(s)	Stab.(mV/s)
SPEED	SELECTOR	0	&Optimize for:
ZGUESS	QUANT	5.00000E+002	E&stimated Z (ohms)
OCVCURVE	TABLE	19
	Pt	T	Vf	Vm	Ach	Over
	#	s	V vs. Ref.	V	V	bits
	0	0.258333	-2.31048E-002	-2.31048E-002	6.60446E-004	...........
	1	0.516667	-2.31341E-002	-2.46401E-002	6.60979E-004	...........
	2	0.775	-2.33130E-002	-2.60291E-002	6.53213E-004	...........
	3	1.03333	-2.38131E-002	-2.72791E-002	6.60346E-004	...........
	4	1.29167	-2.46919E-002	-2.84289E-002	6.58479E-004	...........
	5	1.55	-2.58309E-002	-2.94877E-002	6.55246E-004	...........
	6	1.80833	-2.70531E-002	-3.04709E-002	6.50813E-004	...........
	7	2.06667	-2.82369E-002	-3.13855E-002	6.54946E-004	...........
	8	2.325	-2.93353E-002	-3.22893E-002	6.53446E-004	...........
	9	2.58333	-3.03476E-002	-3.30834E-002	6.56413E-004	...........
	10	2.84167	-3.12888E-002	-3.39123E-002	6.51513E-004	...........
	11	3.1	-3.21727E-002	-3.46127E-002	6.54479E-004	...........
	12	3.35833	-3.30077E-002	-3.53599E-002	6.55313E-004	...........
	13	3.61667	-3.37985E-002	-3.59913E-002	6.55546E-004	...........
	14	3.875	-3.45481E-002	-3.66737E-002	6.55346E-004	...........
	15	4.13333	-3.52602E-002	-3.72658E-002	6.52913E-004	...........
	16	4.39167	-3.59392E-002	-3.78842E-002	6.49646E-004	...........
	17	4.65	-3.65891E-002	-3.84482E-002	6.52146E-004	...........
	18	4.90833	-3.72130E-002	-3.89970E-002	6.47746E-004	...........
EOC	QUANT	-0.037213	Open Circuit (V)
PSTATMODEL	IQUANT	4	Pstat Model
PSTATSECTION	LABEL	REF600-11020	Pstat Section
PSTATSERIALNO	LABEL	11020	Pstat Serial Number
CTRLMODE	IQUANT	1	Control Mode
IESTAB	IQUANT	0	I/E Stability
CASPEED	IQUANT	1	Control Amp Speed
CONVENTION	IQUANT	1	Current Convention
ICHRANGE	IQUANT	2	Ich Range
ICHRANGEMODE	TOGGLE	F	Ich Auto Range
ICHOFFSETENABLE	TOGGLE	T	Ich Offset Enable
ICHOFFSET	QUANT	0	Ich Offset (V)
ICHFILTER	IQUANT	3	Ich Filter
VCHRANGE	IQUANT	2	Vch Range
VCHRANGEMODE	TOGGLE	F	Vch Auto Range
VCHOFFSETENABLE	TOGGLE	T	Vch Offset Enable
VCHOFFSET	QUANT	0	Vch Offset (V)
VCHFILTER	IQUANT	3	Vch Filter
ACHRANGE	IQUANT	2	Ach Range
ACHOFFSETENABLE	TOGGLE	F	Ach Offset Enable
ACHOFFSET	QUANT	0	Ach Offset (V)
ACHFILTER	IQUANT	3	Ach Filter
IERANGELOWERLIMIT	IQUANT	1	I/E Range Lower Limit
IERANGEMODE	TOGGLE	F	I/E AutoRange
IERANGE	IQUANT	8	I/E Range
POSFEEDENABLE	TOGGLE	F	Positive Feedback IR Comp
POSFEEDRESISTANCE	QUANT	0	Positive Feedback Resistance (ohm)
ACHSELECT	IQUANT	0	Ach Select
CABLEID	IQUANT	14	Cable ID
DCCALDATE	LABEL	12/22/2019	DC Calibration Date
ACCALDATE	LABEL	12/22/2019	AC Calibration Date
THERMOSELECT	IQUANT	1	Thermo Select
FRAMEWORKVERSION	QUANT	6.33	Framework Version
INSTRUMENTVERSION	LABEL	3.50	Instrument Version
ZCURVE	TABLE
	Pt	Time	Freq	Zreal	Zimag	Zsig	Zmod	Zphz	Idc	Vdc	IERange
	#	s	Hz	ohm	ohm	V	ohm	°	A	V	#
	0	1	1000078	2317.621	-1631.733	1	2834.417	-35.14765	4.618991E-006	-0.0356347	8
	1	2	794390.6	2623.835	-1614.54	1	3080.787	-31.60547	-9.342721E-007	-0.0354624	8
	2	2	630984.4	2925.293	-1507.51	1	3290.885	-27.26371	3.132463E-006	-0.0360422	8
	3	2	501234.4	3181.028	-1397.264	1	3474.375	-23.71344	5.405023E-006	-0.0366793	8
	4	3	398109.4	3412.728	-1266.331	1	3640.097	-20.35794	-1.200765E-008	-0.0357403	8
	5	3	316265.6	3596.899	-1146.609	1	3775.235	-17.68109	3.204932E-006	-0.0363642	8
	6	3	251203.1	3710.519	-1026.412	1	3849.867	-15.46263	1.50815E-006	-0.0360143	8
	7	4	199546.9	3849.221	-920.5554	1	3957.768	-13.44987	3.964876E-007	-0.0357629	8
	8	4	158578.1	3943.618	-836.4888	1	4031.357	-11.97563	3.383938E-006	-0.036257	8
	9	4	125953.1	4035.987	-737.7686	1	4102.864	-10.35916	1.381225E-006	-0.0387301	7
	10	5	100078.1	4091.768	-685.4825	1	4148.79	-9.51029	-1.928306E-008	-0.0356032	7
	11	5	79453.13	4152.281	-661.3434	1	4204.618	-9.04962	-3.470232E-008	-0.0356994	7
	12	5	63140.62	4213.322	-655.7589	1	4264.047	-8.846505	-5.150306E-008	-0.0356336	7
	13	5	50203.12	4274.206	-659.605	1	4324.802	-8.772807	-1.267588E-008	-0.0357389	7
	14	6	39890.62	4331.524	-683.0342	1	4385.047	-8.961132	6.914307E-008	-0.0358538	7
	15	6	31640.63	4392.104	-721.1937	1	4450.921	-9.324886	-4.90793E-008	-0.0356306	7
	16	6	25171.88	4465.087	-776.1204	1	4532.038	-9.86062	2.830004E-008	-0.0356841	7
	17	7	20015.62	4534.529	-843.0907	1	4612.24	-10.53256	-2.588079E-008	-0.0357111	7
	18	7	15890.62	4617.786	-940.9778	1	4712.684	-11.51762	-7.253286E-009	-0.0356773	7
	19	7	12609.37	4707.19	-1052.854	1	4823.499	-12.60779	-5.726502E-009	-0.0356924	7
	20	8	10078.13	4803.321	-1184.791	1	4947.285	-13.85604	-2.829519E-008	-0.0357126	7
	21	8	8015.625	4921.699	-1341.254	1	5101.185	-15.24398	2.943612E-008	-0.0358342	7
	22	8	6328.125	5050.395	-1540.696	1	5280.173	-16.96509	2.792809E-008	-0.0356885	7
	23	9	5015.625	5201.261	-1769.487	1	5494.015	-18.78848	-1.991281E-008	-0.035626	7
	24	9	3984.375	5371.493	-2037.087	1	5744.794	-20.76875	-6.70631E-009	-0.0356865	7
	25	9	3170.956	5563.161	-2347.53	1	6038.183	-22.87866	3.178332E-008	-0.0358417	7
	26	10	2527.573	5778.085	-2708.619	1	6381.449	-25.11599	-4.90822E-008	-0.0356469	7
	27	10	1976.103	6059.076	-3177.536	1	6841.72	-27.67368	-8.395715E-009	-0.0357565	7
	28	10	1577.524	6353.423	-3678.827	1	7341.645	-30.07216	2.843742E-008	-0.0358367	7
	29	11	1265.625	6681.096	-4250.673	1	7918.666	-32.4655	9.502135E-008	-0.0359038	7
	30	11	998.264	7102.472	-4970.359	1	8668.886	-34.9846	1.076828E-008	-0.0357214	7
	31	11	796.875	7582.358	-5778.495	1	9533.27	-37.31093	-5.432666E-008	-0.0356421	7
	32	12	627.7902	8136.056	-6740.863	1	10565.73	-39.64234	1.766784E-008	-0.0359933	6
	33	12	505.5147	8735.006	-7773.518	1	11693.07	-41.66675	-2.75145E-009	-0.0356464	6
	34	12	397.9953	9496.952	-9099.521	1	13152.7	-43.7757	2.685439E-009	-0.0357413	6
	35	13	315.5048	10336.13	-10598.17	1	14803.95	-45.71714	2.93928E-009	-0.0357391	6
	36	13	252.4038	11243.34	-12273.26	1	16644.69	-47.50768	3.393686E-009	-0.035743	6
	37	13	198.6229	12335.08	-14428.56	1	18982.56	-49.47263	2.716838E-009	-0.0357388	6
	38	13	158.3615	13423.31	-16753.16	1	21467.5	-51.29688	4.909918E-009	-0.035746	6
	39	14	125.558	14692.97	-19650.12	1	24535.9	-53.21347	2.466158E-009	-0.0357415	6
	40	14	100.4464	16127.5	-23129.23	1	28196.76	-55.11279	3.142063E-009	-0.0357434	6
	41	14	79.00281	17541.77	-27728.61	1	32811.43	-57.68159	1.570472E-009	-0.0357446	6
	42	15	63.3446	19529.73	-31110.31	1	36732.3	-57.88115	1.904319E-009	-0.0357452	6
	43	15	49.86702	21707.31	-38131.45	1	43877.27	-60.34818	-1.710192E-010	-0.0357457	6
	44	16	39.72458	23517.81	-46784.18	1	52362.65	-63.31191	2.700253E-009	-0.0357417	6
	45	16	31.6723	26417.87	-56544.03	1	62410.99	-64.9576	2.83914E-009	-0.0357438	6
	46	16	24.93351	30296.05	-68199.68	1	74626.05	-66.04798	1.675241E-009	-0.0357483	6
	47	17	19.86229	34541.92	-82444.88	1	89388.48	-67.26778	1.500848E-009	-0.0357471	6
	48	17	15.83615	40574.93	-101611.8	1	109413.4	-68.23252	4.393313E-009	-0.0357513	5
	49	17	12.40079	50942.08	-118173.3	1	128685.8	-66.68012	6.045457E-009	-0.0357534	5
	50	18	9.93114	58394.39	-145355.2	1	156646.2	-68.11291	1.357885E-009	-0.0357515	5
	51	18	7.944915	70738.21	-173180.9	1	187070.9	-67.78174	1.197113E-009	-0.0357481	5
	52	19	6.317385	86893.4	-206736	1	224254.8	-67.20245	1.225157E-009	-0.0357403	5
	53	20	5.008013	107634.6	-246184.9	1	268686.1	-66.38454	1.256553E-009	-0.0357571	5
	54	21	3.945707	135069.2	-292177.5	1	321887.3	-65.18962	1.560808E-009	-0.035751	5
	55	22	3.158693	165312.9	-341800.4	1	379678.6	-64.18912	1.525689E-009	-0.035733	5
	56	24	2.504006	205484.6	-400525.4	1	450160.6	-62.84047	7.77411E-010	-0.0357441	5
	57	25	1.998082	249819.5	-460971.9	1	524313.8	-61.54493	1.392003E-009	-0.0357271	5
	58	27	1.584686	305277.4	-534088.8	1	615178.9	-60.24834	1.554615E-009	-0.0357048	5
	59	29	1.266892	365536.4	-612081.1	1	712923.7	-59.15425	1.423613E-009	-0.0357348	5
	60	31	0.999041	441571.3	-703894.6	1	830934.9	-57.89889	1.372582E-009	-0.0357587	5
