EXPLAIN
TAG	EISPOT
TITLE	LABEL	Potentiostatic EIS	Test &Identifier
DATE	LABEL	2/6/2020	Date
TIME	LABEL	17:33:28	Time
NOTES	NOTES	6	&Notes...
	
	
	
	
	
	
PSTAT	PSTAT	REF600-11020	Potentiostat
VDC	POTEN	0.00000E+000	T	DC &Voltage (V)
FREQINIT	QUANT	1.00000E+006	Initial Fre&q. (Hz)
FREQFINAL	QUANT	1.00000E+000	Final Fre&q. (Hz)
PTSPERDEC	QUANT	1.00000E+001	Points/&decade
VAC	QUANT	2.50000E+001	AC &Voltage (mV rms)
AREA	QUANT	1.60000E-004	&Area (cm^2)
CONDIT	TWOPARAM	F	5.00000E+000	0.00000E+000	Conditionin&g	Time(s)	E(V)
DELAY	TWOPARAM	F	5.00000E+000	0.00000E+000	Init. De&lay	Time(s)	Stab.(mV/s)
SPEED	SELECTOR	0	&Optimize for:
ZGUESS	QUANT	1.00000E+003	E&stimated Z (ohms)
OCVCURVE	TABLE	39
	Pt	T	Vf	Vm	Ach	Over
	#	s	V vs. Ref.	V	V	bits
	0	0.258333	-8.31752E-002	-8.31752E-002	5.22172E-004	...........
	1	0.516667	-8.31726E-002	-8.30396E-002	5.15238E-004	...........
	2	0.775	-8.31631E-002	-8.32460E-002	5.07239E-004	...........
	3	1.03333	-8.31481E-002	-8.29522E-002	5.08005E-004	...........
	4	1.29167	-8.31284E-002	-8.30367E-002	5.15338E-004	...........
	5	1.55	-8.30985E-002	-8.30080E-002	5.23038E-004	...........
	6	1.80833	-8.30621E-002	-8.30007E-002	5.14638E-004	...........
	7	2.06667	-8.30326E-002	-8.30296E-002	5.09239E-004	...........
	8	2.325	-8.30173E-002	-8.30327E-002	5.13938E-004	...........
	9	2.58333	-8.30144E-002	-8.30106E-002	5.19705E-004	...........
	10	2.84167	-8.30174E-002	-8.30161E-002	5.14738E-004	...........
	11	3.1	-8.30185E-002	-8.29623E-002	5.13505E-004	...........
	12	3.35833	-8.30130E-002	-8.29856E-002	5.20238E-004	...........
	13	3.61667	-8.30021E-002	-8.29956E-002	5.15905E-004	...........
	14	3.875	-8.29936E-002	-8.30642E-002	5.08805E-004	...........
	15	4.13333	-8.29953E-002	-8.29920E-002	5.08105E-004	...........
	16	4.39167	-8.30041E-002	-8.29623E-002	5.14405E-004	...........
	17	4.65	-8.30073E-002	-8.29758E-002	5.13505E-004	...........
	18	4.90833	-8.30011E-002	-8.30690E-002	5.12538E-004	...........
	19	5.16667	-8.29978E-002	-8.30470E-002	5.20805E-004	...........
	20	5.425	-8.30063E-002	-8.29784E-002	5.23038E-004	...........
	21	5.68333	-8.30185E-002	-8.30462E-002	5.19405E-004	...........
	22	5.94167	-8.30247E-002	-8.30656E-002	5.13905E-004	...........
	23	6.2	-8.30299E-002	-8.30944E-002	5.21838E-004	...........
	24	6.45833	-8.30429E-002	-8.31259E-002	5.22772E-004	...........
	25	6.71667	-8.30650E-002	-8.31573E-002	5.16305E-004	...........
	26	6.975	-8.30920E-002	-8.31496E-002	5.18605E-004	...........
	27	7.23333	-8.31185E-002	-8.31814E-002	5.27205E-004	...........
	28	7.49167	-8.31405E-002	-8.31694E-002	5.28572E-004	...........
	29	7.75	-8.31567E-002	-8.31861E-002	5.17272E-004	...........
	30	8.00833	-8.31681E-002	-8.31958E-002	5.18505E-004	...........
	31	8.26667	-8.31771E-002	-8.32084E-002	5.25672E-004	...........
	32	8.525	-8.31859E-002	-8.32140E-002	5.21272E-004	...........
	33	8.78333	-8.31957E-002	-8.32379E-002	5.16572E-004	...........
	34	9.04167	-8.32068E-002	-8.32535E-002	5.18572E-004	...........
	35	9.3	-8.32197E-002	-8.32615E-002	5.29305E-004	...........
	36	9.5583	-8.32341E-002	-8.32769E-002	5.21738E-004	...........
	37	9.8167	-8.32487E-002	-8.32956E-002	5.18105E-004	...........
	38	10.075	-8.32632E-002	-8.33197E-002	5.18172E-004	...........
EOC	QUANT	-0.0832632	Open Circuit (V)
PSTATMODEL	IQUANT	4	Pstat Model
PSTATSECTION	LABEL	REF600-11020	Pstat Section
PSTATSERIALNO	LABEL	11020	Pstat Serial Number
CTRLMODE	IQUANT	1	Control Mode
IESTAB	IQUANT	0	I/E Stability
CASPEED	IQUANT	1	Control Amp Speed
CONVENTION	IQUANT	1	Current Convention
ICHRANGE	IQUANT	2	Ich Range
ICHRANGEMODE	TOGGLE	F	Ich Auto Range
ICHOFFSETENABLE	TOGGLE	T	Ich Offset Enable
ICHOFFSET	QUANT	0	Ich Offset (V)
ICHFILTER	IQUANT	3	Ich Filter
VCHRANGE	IQUANT	2	Vch Range
VCHRANGEMODE	TOGGLE	F	Vch Auto Range
VCHOFFSETENABLE	TOGGLE	T	Vch Offset Enable
VCHOFFSET	QUANT	0	Vch Offset (V)
VCHFILTER	IQUANT	3	Vch Filter
ACHRANGE	IQUANT	2	Ach Range
ACHOFFSETENABLE	TOGGLE	F	Ach Offset Enable
ACHOFFSET	QUANT	0	Ach Offset (V)
ACHFILTER	IQUANT	3	Ach Filter
IERANGELOWERLIMIT	IQUANT	1	I/E Range Lower Limit
IERANGEMODE	TOGGLE	F	I/E AutoRange
IERANGE	IQUANT	8	I/E Range
POSFEEDENABLE	TOGGLE	F	Positive Feedback IR Comp
POSFEEDRESISTANCE	QUANT	0	Positive Feedback Resistance (ohm)
ACHSELECT	IQUANT	0	Ach Select
CABLEID	IQUANT	14	Cable ID
DCCALDATE	LABEL	1/27/2020	DC Calibration Date
ACCALDATE	LABEL	1/27/2020	AC Calibration Date
THERMOSELECT	IQUANT	1	Thermo Select
FRAMEWORKVERSION	QUANT	6.33	Framework Version
INSTRUMENTVERSION	LABEL	3.50	Instrument Version
ZCURVE	TABLE
	Pt	Time	Freq	Zreal	Zimag	Zsig	Zmod	Zphz	Idc	Vdc	IERange
	#	s	Hz	ohm	ohm	V	ohm	°	A	V	#
	0	1	1000078	2400.226	-1827.043	1	3016.483	-37.27826	-5.485071E-006	-0.0805007	8
	1	2	794390.6	2727.92	-1779.981	1	3257.281	-33.12464	3.828253E-006	-0.0817988	8
	2	2	630984.4	3080.974	-1663.611	1	3501.429	-28.3674	-8.545965E-007	-0.0815873	8
	3	2	501234.4	3370.666	-1537.238	1	3704.657	-24.51601	2.103603E-007	-0.0815809	8
	4	3	398109.4	3593.57	-1359.417	1	3842.103	-20.72121	3.31469E-006	-0.0821324	8
	5	3	316265.6	3800.626	-1214.749	1	3990.034	-17.72482	1.312392E-006	-0.0820182	8
	6	3	251203.1	3939.323	-1049.187	1	4076.648	-14.91377	-1.750741E-007	-0.0816085	8
	7	3	199546.9	4046.31	-933.9594	1	4152.698	-12.99725	3.785254E-008	-0.0815928	8
	8	4	158578.1	4151.382	-827.6526	1	4233.082	-11.27511	2.327389E-006	-0.0821702	8
	9	4	125953.1	4230.178	-693.4147	1	4286.634	-9.309186	2.971068E-007	-0.0823342	7
	10	4	100078.1	4285.493	-635.7423	1	4332.392	-8.438148	-3.737622E-008	-0.0816866	7
	11	5	79453.13	4334.468	-604.407	1	4376.405	-7.938253	-3.803409E-008	-0.0816891	7
	12	5	63140.62	4381.333	-590.1032	1	4420.894	-7.670765	-3.347258E-008	-0.0816985	7
	13	5	50203.12	4428.626	-592.0147	1	4468.021	-7.614106	-3.259585E-008	-0.0816999	7
	14	6	39890.62	4478.014	-610.2825	1	4519.409	-7.760697	6.022615E-008	-0.0818638	7
	15	6	31640.63	4530.892	-644.4745	1	4576.498	-8.095452	7.003292E-009	-0.0817771	7
	16	6	25171.88	4586.734	-694.7167	1	4639.047	-8.612681	5.953857E-008	-0.0818307	7
	17	7	20015.62	4648.795	-760.3891	1	4710.572	-9.289433	6.57738E-008	-0.0817695	7
	18	7	15890.62	4717.739	-844.7703	1	4792.776	-10.15194	-1.898931E-008	-0.0816733	7
	19	7	12609.37	4795.794	-951.451	1	4889.264	-11.22136	-2.737015E-008	-0.0816874	7
	20	8	10078.13	4876.881	-1073.034	1	4993.533	-12.40876	3.226141E-008	-0.0818414	7
	21	8	8015.625	4975.639	-1226.866	1	5124.665	-13.85138	-3.410857E-008	-0.0817023	7
	22	8	6328.125	5087.215	-1415.417	1	5280.451	-15.54817	-3.55744E-008	-0.0817037	7
	23	9	5015.625	5210.496	-1636.856	1	5461.553	-17.4399	8.40503E-009	-0.0817822	7
	24	9	3984.375	5348.5	-1898.556	1	5675.47	-19.54333	-2.401813E-008	-0.0817396	7
	25	9	3170.956	5505.148	-2210.715	1	5932.446	-21.87902	6.050588E-008	-0.0818364	7
	26	9	2527.573	5681.575	-2578.372	1	6239.254	-24.40916	-8.299324E-009	-0.0817313	7
	27	10	1976.103	5900.433	-3056.022	1	6644.876	-27.38108	3.814138E-008	-0.0817964	7
	28	10	1577.524	6129.361	-3578.728	1	7097.63	-30.27922	3.340526E-008	-0.0818488	7
	29	10	1265.625	6384.035	-4198.635	1	7640.971	-33.33201	-3.341916E-008	-0.081623	7
	30	11	998.264	6699.329	-4983.657	1	8349.722	-36.6457	6.135788E-008	-0.0818804	7
	31	11	796.875	7046.36	-5894.136	1	9186.514	-39.91179	6.801857E-008	-0.0817942	7
	32	11	627.7902	7475.873	-7047.519	1	10274.05	-43.3106	-5.571249E-009	-0.0816522	6
	33	12	505.5147	7918.593	-8309.736	1	11478.49	-46.3807	4.337453E-010	-0.0817182	6
	34	12	397.9953	8490.202	-9990.44	1	13110.77	-49.64102	1.15564E-009	-0.0817358	6
	35	12	315.5048	9146.234	-11980.04	1	15072.32	-52.63985	1.152492E-009	-0.0817418	6
	36	13	252.4038	9897.94	-14287.69	1	17381.24	-55.28732	1.473273E-009	-0.0817417	6
	37	13	198.6229	10867.77	-17295.77	1	20426.75	-57.85686	8.325652E-010	-0.0817387	6
	38	13	158.3615	11982.35	-20746.53	1	23958.2	-59.99102	5.919941E-010	-0.0817437	6
	39	14	125.558	13396.24	-25010.11	1	28371.9	-61.82504	7.548875E-010	-0.0817418	6
	40	14	100.4464	15042.96	-29961.53	1	33525.87	-63.33989	6.76158E-010	-0.0817442	6
	41	14	79.00281	17243.64	-36308.65	1	40195.29	-64.59611	1.376323E-009	-0.0817463	6
	42	15	63.3446	20280.89	-43110.89	1	47643.09	-64.80605	5.27254E-010	-0.0817514	6
	43	15	49.86702	23677.65	-52246.95	1	57361.79	-65.62057	3.266024E-011	-0.0817515	6
	44	15	39.72458	27308.19	-62342.95	1	68061.59	-66.34505	7.134125E-010	-0.0817518	6
	45	16	31.6723	31955.78	-74348.5	1	80925.1	-66.74145	3.563913E-010	-0.0817503	6
	46	16	24.93351	38294.7	-89248.46	1	97117.3	-66.77681	3.051567E-010	-0.0817536	6
	47	16	19.86229	45405.37	-106202.8	1	115501.8	-66.85161	-6.503649E-010	-0.0817534	5
	48	17	15.83615	52749.82	-125302.1	1	135952.8	-67.16983	-5.262981E-010	-0.0817519	5
	49	17	12.40079	65850.7	-150657.4	1	164420.1	-66.39039	-8.649559E-010	-0.0817513	5
	50	17	9.93114	76991.2	-178995.5	1	194851.3	-66.72604	5.295622E-010	-0.0817482	5
	51	18	7.944915	92128.6	-211868.2	1	231032	-66.4987	3.624717E-010	-0.0817516	5
	52	18	6.317385	110558.6	-251578.2	1	274799.5	-66.27643	4.499364E-010	-0.0817626	5
	53	19	5.008013	134335.1	-299477.1	1	328226.2	-65.84064	3.700587E-010	-0.0817398	5
	54	20	3.945707	165679.8	-356788.4	1	393379.9	-65.09154	7.057138E-011	-0.0817458	5
	55	22	3.158693	201200.1	-418803.9	1	464626.9	-64.33962	1.083033E-011	-0.0817589	5
	56	23	2.504006	248601.1	-491406.8	1	550711.4	-63.1653	2.344264E-010	-0.08175	5
	57	25	1.998082	302995.8	-570416.4	1	645895.8	-62.02349	1.781157E-010	-0.0817482	5
	58	26	1.584686	373326.2	-660671.7	1	758854.1	-60.53048	7.114819E-011	-0.0817948	5
	59	28	1.266892	451642.2	-758497.5	1	882779.2	-59.2286	5.596091E-011	-0.0817918	5
	60	31	0.999041	547770.8	-871205	1	1029102	-57.84034	-1.555654E-011	-0.0818259	4
