EXPLAIN
TAG	EISPOT
TITLE	LABEL	Potentiostatic EIS	Test &Identifier
DATE	LABEL	2/21/2020	Date
TIME	LABEL	16:46:13	Time
NOTES	NOTES	1	&Notes...
	
PSTAT	PSTAT	REF600-11020	Potentiostat
VDC	POTEN	0.00000E+000	T	DC &Voltage (V)
FREQINIT	QUANT	1.00000E+006	Initial Fre&q. (Hz)
FREQFINAL	QUANT	1.00000E+000	Final Fre&q. (Hz)
PTSPERDEC	QUANT	1.00000E+001	Points/&decade
VAC	QUANT	2.50000E+001	AC &Voltage (mV rms)
AREA	QUANT	2.08200E-005	&Area (cm^2)
CONDIT	TWOPARAM	F	1.50000E+001	0.00000E+000	Conditionin&g	Time(s)	E(V)
DELAY	TWOPARAM	F	1.00000E+002	0.00000E+000	Init. De&lay	Time(s)	Stab.(mV/s)
SPEED	SELECTOR	1	&Optimize for:
ZGUESS	QUANT	2.00000E+003	E&stimated Z (ohms)
OCVCURVE	TABLE	39
	Pt	T	Vf	Vm	Ach	Over
	#	s	V vs. Ref.	V	V	bits
	0	0.258333	4.04666E-002	4.04666E-002	5.69971E-004	...........
	1	0.516667	4.04695E-002	4.06152E-002	5.73671E-004	...........
	2	0.775	4.04860E-002	4.07107E-002	5.68138E-004	...........
	3	1.03333	4.05316E-002	4.08861E-002	5.69571E-004	...........
	4	1.29167	4.06131E-002	4.09805E-002	5.68604E-004	...........
	5	1.55	4.07234E-002	4.11105E-002	5.71304E-004	...........
	6	1.80833	4.08493E-002	4.13206E-002	5.73704E-004	...........
	7	2.06667	4.09865E-002	4.15363E-002	5.70971E-004	...........
	8	2.325	4.11391E-002	4.15995E-002	5.73171E-004	...........
	9	2.58333	4.13001E-002	4.16314E-002	5.73737E-004	...........
	10	2.84167	4.14439E-002	4.16261E-002	5.75671E-004	...........
	11	3.1	4.15445E-002	4.15251E-002	5.69804E-004	...........
	12	3.35833	4.15856E-002	4.12405E-002	5.73337E-004	...........
	13	3.61667	4.15575E-002	4.12304E-002	5.72904E-004	...........
	14	3.875	4.14730E-002	4.13578E-002	5.69004E-004	...........
	15	4.13333	4.13819E-002	4.14255E-002	5.69171E-004	...........
	16	4.39167	4.13373E-002	4.14857E-002	5.68038E-004	...........
	17	4.65	4.13520E-002	4.15283E-002	5.64971E-004	...........
	18	4.90833	4.14028E-002	4.15621E-002	5.70971E-004	...........
	19	5.16667	4.14619E-002	4.15987E-002	5.68771E-004	...........
	20	5.425	4.15142E-002	4.16166E-002	5.65004E-004	...........
	21	5.68333	4.15566E-002	4.16718E-002	5.65204E-004	...........
	22	5.94167	4.15923E-002	4.16797E-002	5.62604E-004	...........
	23	6.2	4.16245E-002	4.17027E-002	5.61404E-004	...........
	24	6.45833	4.16536E-002	4.17233E-002	5.62271E-004	...........
	25	6.71667	4.16790E-002	4.17497E-002	5.64338E-004	...........
	26	6.975	4.17016E-002	4.17544E-002	5.65871E-004	...........
	27	7.23333	4.17220E-002	4.17676E-002	5.65304E-004	...........
	28	7.49167	4.17416E-002	4.18823E-002	5.64838E-004	...........
	29	7.75	4.17657E-002	4.18515E-002	5.61471E-004	...........
	30	8.00833	4.17906E-002	4.15370E-002	5.66038E-004	...........
	31	8.26667	4.17912E-002	4.16514E-002	5.61804E-004	...........
	32	8.525	4.17517E-002	4.16358E-002	5.67904E-004	...........
	33	8.78333	4.16960E-002	4.16650E-002	5.61971E-004	...........
	34	9.04167	4.16580E-002	4.16580E-002	5.64104E-004	...........
	35	9.3	4.16473E-002	4.17369E-002	5.71304E-004	...........
	36	9.5583	4.16570E-002	4.17062E-002	5.66738E-004	...........
	37	9.8167	4.16751E-002	4.16203E-002	5.67571E-004	...........
	38	10.075	4.16856E-002	4.16449E-002	5.65838E-004	...........
EOC	QUANT	0.0416856	Open Circuit (V)
PSTATMODEL	IQUANT	4	Pstat Model
PSTATSECTION	LABEL	REF600-11020	Pstat Section
PSTATSERIALNO	LABEL	11020	Pstat Serial Number
CTRLMODE	IQUANT	1	Control Mode
IESTAB	IQUANT	0	I/E Stability
CASPEED	IQUANT	1	Control Amp Speed
CONVENTION	IQUANT	1	Current Convention
ICHRANGE	IQUANT	2	Ich Range
ICHRANGEMODE	TOGGLE	F	Ich Auto Range
ICHOFFSETENABLE	TOGGLE	T	Ich Offset Enable
ICHOFFSET	QUANT	0	Ich Offset (V)
ICHFILTER	IQUANT	3	Ich Filter
VCHRANGE	IQUANT	2	Vch Range
VCHRANGEMODE	TOGGLE	F	Vch Auto Range
VCHOFFSETENABLE	TOGGLE	T	Vch Offset Enable
VCHOFFSET	QUANT	0	Vch Offset (V)
VCHFILTER	IQUANT	3	Vch Filter
ACHRANGE	IQUANT	2	Ach Range
ACHOFFSETENABLE	TOGGLE	F	Ach Offset Enable
ACHOFFSET	QUANT	0	Ach Offset (V)
ACHFILTER	IQUANT	3	Ach Filter
IERANGELOWERLIMIT	IQUANT	1	I/E Range Lower Limit
IERANGEMODE	TOGGLE	F	I/E AutoRange
IERANGE	IQUANT	7	I/E Range
POSFEEDENABLE	TOGGLE	F	Positive Feedback IR Comp
POSFEEDRESISTANCE	QUANT	0	Positive Feedback Resistance (ohm)
ACHSELECT	IQUANT	0	Ach Select
CABLEID	IQUANT	14	Cable ID
DCCALDATE	LABEL	1/27/2020	DC Calibration Date
ACCALDATE	LABEL	1/27/2020	AC Calibration Date
THERMOSELECT	IQUANT	1	Thermo Select
FRAMEWORKVERSION	QUANT	6.33	Framework Version
INSTRUMENTVERSION	LABEL	3.50	Instrument Version
ZCURVE	TABLE
	Pt	Time	Freq	Zreal	Zimag	Zsig	Zmod	Zphz	Idc	Vdc	IERange
	#	s	Hz	ohm	ohm	V	ohm	°	A	V	#
	0	2	1000078	1641.784	-2196.607	1	2742.36	-53.22489	-2.377939E-006	0.0443229	8
	1	3	794390.6	2047.706	-2404.841	1	3158.538	-49.58583	-3.939356E-007	0.0439876	8
	2	5	630984.4	2523.835	-2569.251	1	3601.499	-45.5109	1.103034E-006	0.0433636	8
	3	6	501234.4	3036.312	-2657.465	1	4035.011	-41.19333	1.691177E-006	0.0430416	8
	4	7	398109.4	3567.091	-2678.041	1	4460.498	-36.89787	-8.968784E-007	0.0435789	8
	5	9	316265.6	4078.947	-2629.57	1	4853.086	-32.80861	1.73693E-006	0.0429633	8
	6	10	251203.1	4567.301	-2493.272	1	5203.522	-28.62995	3.036467E-007	0.0432255	8
	7	11	199546.9	5003.849	-2312.431	1	5512.335	-24.80309	3.62906E-007	0.0432216	8
	8	13	158578.1	5378.004	-2119.41	1	5780.556	-21.50883	1.012206E-006	0.0431421	8
	9	14	125953.1	5707.5	-1884.76	1	6010.646	-18.27453	1.535619E-007	0.0429607	7
	10	15	100078.1	5947.108	-1687.338	1	6181.845	-15.83992	6.515336E-009	0.0432139	7
	11	17	79453.13	6160.161	-1498.604	1	6339.826	-13.67295	1.270401E-008	0.0432309	7
	12	18	63140.62	6327.974	-1333.991	1	6467.054	-11.90414	4.657675E-008	0.04316	7
	13	20	50203.12	6465.575	-1192.13	1	6574.559	-10.44693	2.552403E-008	0.0432431	7
	14	21	39890.62	6576.205	-1075.599	1	6663.586	-9.289001	-1.662982E-008	0.0432486	7
	15	22	31640.63	6672.503	-985.37	1	6744.869	-8.40051	4.647812E-008	0.0431577	7
	16	24	25171.88	6752.461	-922.2097	1	6815.145	-7.776991	1.242209E-008	0.0432597	7
	17	25	20015.62	6822.546	-884.0385	1	6879.583	-7.383024	-1.182232E-008	0.0432739	7
	18	26	15890.62	6890.051	-870.5354	1	6944.828	-7.200979	-1.65864E-008	0.043252	7
	19	28	12609.37	6952.986	-883.4394	1	7008.886	-7.241143	4.823195E-008	0.0431501	7
	20	29	10078.13	7012.586	-922.2795	1	7072.975	-7.492411	-2.134579E-008	0.0432708	7
	21	30	8015.625	7077.125	-988.653	1	7145.847	-7.952583	2.972474E-008	0.0431617	7
	22	32	6328.125	7144.224	-1092.4	1	7227.259	-8.693577	3.582575E-010	0.0432733	7
	23	33	5015.625	7216.016	-1228.505	1	7319.844	-9.6618	1.457128E-008	0.0432209	7
	24	35	3984.375	7294.27	-1406.169	1	7428.572	-10.91147	4.781504E-009	0.043271	7
	25	36	3170.956	7375.723	-1626.527	1	7552.938	-12.43608	9.105849E-009	0.0431954	7
	26	37	2527.573	7469.039	-1904.193	1	7707.95	-14.30259	-1.587552E-008	0.0432532	7
	27	39	1976.103	7586.305	-2278.707	1	7921.145	-16.71875	2.731692E-008	0.0431848	7
	28	40	1577.524	7715.562	-2707.208	1	8176.727	-19.33476	-1.937804E-008	0.0432604	7
	29	41	1265.625	7856.557	-3219.179	1	8490.5	-22.28108	1.414591E-008	0.0432172	7
	30	43	998.264	8036.154	-3887.17	1	8926.918	-25.81353	9.653093E-009	0.0431893	7
	31	44	796.875	8246.853	-4666.355	1	9475.519	-29.50269	4.906954E-009	0.0431782	6
	32	45	627.7902	8509.605	-5677.252	1	10229.59	-33.70956	4.641855E-009	0.0431286	6
	33	47	505.5147	8798.891	-6789.317	1	11113.74	-37.65416	-1.731369E-009	0.0432186	6
	34	48	397.9953	9171.798	-8285.67	1	12360.19	-42.0942	1.107016E-009	0.0432493	6
	35	50	315.5048	9616.83	-10064.14	1	13920.14	-46.302	6.894596E-010	0.0432434	6
	36	51	252.4038	10135.27	-12143.13	1	15817.06	-50.14991	1.152139E-009	0.0432379	6
	37	52	198.6229	10812.65	-14870.06	1	18385.65	-53.97752	1.159365E-009	0.0432407	6
	38	54	158.3615	11609.62	-18018.59	1	21434.86	-57.20577	9.668137E-010	0.0432352	6
	39	55	125.558	12615.64	-21954.87	1	25321.34	-60.1176	1.233941E-009	0.0432442	6
	40	56	100.4464	13815.83	-26566.09	1	29943.86	-62.52309	1.121751E-009	0.0432401	6
	41	58	79.00281	15522.79	-32560.74	1	36071.58	-64.5113	1.199214E-009	0.0432426	6
	42	59	63.3446	17412	-39514.82	1	43181	-66.21955	1.293602E-009	0.0432392	6
	43	61	49.86702	20191.39	-47970.8	1	52047	-67.17329	1.0867E-009	0.0432419	6
	44	62	39.72458	23585.48	-58207.24	1	62804.12	-67.94229	9.353146E-010	0.0432448	6
	45	63	31.6723	27907.56	-70392.55	1	75722.8	-68.37385	5.054714E-010	0.0432422	6
	46	65	24.93351	33896.55	-85441.1	1	91919.3	-68.36058	6.839552E-010	0.0432416	6
	47	66	19.86229	41343.28	-102467.9	1	110494.1	-68.02715	-1.979527E-011	0.0432451	5
	48	68	15.83615	51188.71	-122052.2	1	132351.9	-67.24681	2.932229E-010	0.0432376	5
	49	69	12.40079	64017.98	-147598.1	1	160883.5	-66.5521	9.976132E-010	0.043243	5
	50	70	9.93114	79333.96	-173535.2	1	190809.7	-65.43185	5.766557E-012	0.0432449	5
	51	72	7.944915	98561.3	-202725.3	1	225414.9	-64.07184	7.973476E-010	0.0432408	5
	52	74	6.317385	122649	-236425.1	1	266344.9	-62.58131	3.247533E-010	0.0432551	5
	53	76	5.008013	152506.9	-274022.3	1	313602.5	-60.90191	4.22862E-010	0.0432436	5
	54	78	3.945707	189231.7	-316324	1	368604.8	-59.11125	3.786408E-010	0.0432391	5
	55	81	3.158693	229402.8	-358027.8	1	425217.1	-57.35068	6.406903E-011	0.0432488	5
	56	84	2.504006	276363.6	-404209.3	1	489655	-55.63904	4.367925E-010	0.0432334	5
	57	87	1.998082	327239.6	-451925.2	1	557962.4	-54.09165	1.656345E-011	0.0432858	5
	58	90	1.584686	382882.2	-506408.8	1	634861.1	-52.90805	2.799692E-010	0.0432514	5
	59	94	1.266892	443579.8	-563073.4	1	716808.7	-51.76955	6.747657E-011	0.0432901	5
	60	98	0.999041	510645	-631712.1	1	812292.1	-51.04963	1.043889E-010	0.0432142	5
