EXPLAIN
TAG	EISPOT
TITLE	LABEL	Potentiostatic EIS	Test &Identifier
DATE	LABEL	2/11/2020	Date
TIME	LABEL	11:34:48	Time
NOTES	NOTES	6	&Notes...
	
	
	
	
	
	
PSTAT	PSTAT	REF600-11020	Potentiostat
VDC	POTEN	0.00000E+000	T	DC &Voltage (V)
FREQINIT	QUANT	1.00000E+006	Initial Fre&q. (Hz)
FREQFINAL	QUANT	1.00000E+000	Final Fre&q. (Hz)
PTSPERDEC	QUANT	1.00000E+001	Points/&decade
VAC	QUANT	2.50000E+001	AC &Voltage (mV rms)
AREA	QUANT	4.00000E-005	&Area (cm^2)
CONDIT	TWOPARAM	F	5.00000E+000	0.00000E+000	Conditionin&g	Time(s)	E(V)
DELAY	TWOPARAM	F	5.00000E+000	0.00000E+000	Init. De&lay	Time(s)	Stab.(mV/s)
SPEED	SELECTOR	0	&Optimize for:
ZGUESS	QUANT	1.00000E+003	E&stimated Z (ohms)
OCVCURVE	TABLE	39
	Pt	T	Vf	Vm	Ach	Over
	#	s	V vs. Ref.	V	V	bits
	0	0.258333	5.84348E-002	5.84348E-002	5.75904E-004	...........
	1	0.516667	5.84350E-002	5.84448E-002	5.74904E-004	...........
	2	0.775	5.84377E-002	5.85338E-002	5.70504E-004	...........
	3	1.03333	5.84503E-002	5.86168E-002	5.71004E-004	...........
	4	1.29167	5.84818E-002	5.86611E-002	5.70571E-004	...........
	5	1.55	5.85325E-002	5.87189E-002	5.67204E-004	...........
	6	1.80833	5.85940E-002	5.88141E-002	5.61904E-004	...........
	7	2.06667	5.86594E-002	5.88675E-002	5.67904E-004	...........
	8	2.325	5.87269E-002	5.89279E-002	5.67304E-004	...........
	9	2.58333	5.87949E-002	5.89983E-002	5.73604E-004	...........
	10	2.84167	5.88611E-002	5.90385E-002	5.75104E-004	...........
	11	3.1	5.89235E-002	5.90711E-002	5.67204E-004	...........
	12	3.35833	5.89801E-002	5.91311E-002	5.69871E-004	...........
	13	3.61667	5.90301E-002	5.91517E-002	5.69071E-004	...........
	14	3.875	5.90746E-002	5.91795E-002	5.73804E-004	...........
	15	4.13333	5.91105E-002	5.90277E-002	5.71138E-004	...........
	16	4.39167	5.91111E-002	5.82394E-002	5.68971E-004	...........
	17	4.65	5.89924E-002	5.67980E-002	5.68104E-004	...........
	18	4.90833	5.86369E-002	5.64088E-002	5.68538E-004	...........
	19	5.16667	5.80337E-002	5.65107E-002	5.65304E-004	...........
	20	5.425	5.73707E-002	5.68847E-002	5.66638E-004	...........
	21	5.68333	5.69070E-002	5.74147E-002	5.70504E-004	...........
	22	5.94167	5.67838E-002	5.80410E-002	5.70838E-004	...........
	23	6.2	5.69713E-002	5.78627E-002	5.70404E-004	...........
	24	6.45833	5.73066E-002	5.74953E-002	5.69938E-004	...........
	25	6.71667	5.75850E-002	5.76680E-002	5.70571E-004	...........
	26	6.975	5.77089E-002	5.79585E-002	5.70971E-004	...........
	27	7.23333	5.77412E-002	5.79933E-002	5.71571E-004	...........
	28	7.49167	5.77843E-002	5.80695E-002	5.68371E-004	...........
	29	7.75	5.78677E-002	5.81656E-002	5.68771E-004	...........
	30	8.00833	5.79690E-002	5.83142E-002	5.64904E-004	...........
	31	8.26667	5.80767E-002	5.86074E-002	5.71338E-004	...........
	32	8.525	5.82006E-002	5.85840E-002	5.70438E-004	...........
	33	8.78333	5.83391E-002	5.85803E-002	5.67771E-004	...........
	34	9.04167	5.84560E-002	5.82512E-002	5.69638E-004	...........
	35	9.3	5.85061E-002	5.84186E-002	5.69871E-004	...........
	36	9.5583	5.84889E-002	5.85992E-002	5.73271E-004	...........
	37	9.8167	5.84630E-002	5.86916E-002	5.66171E-004	...........
	38	10.075	5.84839E-002	5.86923E-002	5.72438E-004	...........
EOC	QUANT	0.0584839	Open Circuit (V)
PSTATMODEL	IQUANT	4	Pstat Model
PSTATSECTION	LABEL	REF600-11020	Pstat Section
PSTATSERIALNO	LABEL	11020	Pstat Serial Number
CTRLMODE	IQUANT	1	Control Mode
IESTAB	IQUANT	0	I/E Stability
CASPEED	IQUANT	1	Control Amp Speed
CONVENTION	IQUANT	1	Current Convention
ICHRANGE	IQUANT	2	Ich Range
ICHRANGEMODE	TOGGLE	F	Ich Auto Range
ICHOFFSETENABLE	TOGGLE	T	Ich Offset Enable
ICHOFFSET	QUANT	0	Ich Offset (V)
ICHFILTER	IQUANT	3	Ich Filter
VCHRANGE	IQUANT	2	Vch Range
VCHRANGEMODE	TOGGLE	F	Vch Auto Range
VCHOFFSETENABLE	TOGGLE	T	Vch Offset Enable
VCHOFFSET	QUANT	0	Vch Offset (V)
VCHFILTER	IQUANT	3	Vch Filter
ACHRANGE	IQUANT	2	Ach Range
ACHOFFSETENABLE	TOGGLE	F	Ach Offset Enable
ACHOFFSET	QUANT	0	Ach Offset (V)
ACHFILTER	IQUANT	3	Ach Filter
IERANGELOWERLIMIT	IQUANT	1	I/E Range Lower Limit
IERANGEMODE	TOGGLE	F	I/E AutoRange
IERANGE	IQUANT	8	I/E Range
POSFEEDENABLE	TOGGLE	F	Positive Feedback IR Comp
POSFEEDRESISTANCE	QUANT	0	Positive Feedback Resistance (ohm)
ACHSELECT	IQUANT	0	Ach Select
CABLEID	IQUANT	14	Cable ID
DCCALDATE	LABEL	1/27/2020	DC Calibration Date
ACCALDATE	LABEL	1/27/2020	AC Calibration Date
THERMOSELECT	IQUANT	1	Thermo Select
FRAMEWORKVERSION	QUANT	6.33	Framework Version
INSTRUMENTVERSION	LABEL	3.50	Instrument Version
ZCURVE	TABLE
	Pt	Time	Freq	Zreal	Zimag	Zsig	Zmod	Zphz	Idc	Vdc	IERange
	#	s	Hz	ohm	ohm	V	ohm	°	A	V	#
	0	1	1000078	2320.53	-2050.069	1	3096.392	-41.45893	1.63354E-007	0.060469	8
	1	1	794390.6	2758.119	-2043.123	1	3432.429	-36.52982	2.829181E-006	0.059742	8
	2	2	630984.4	3177.917	-1985.626	1	3747.248	-31.99796	1.490344E-007	0.0600084	8
	3	2	501234.4	3548.479	-1847.357	1	4000.553	-27.50173	-5.201605E-007	0.0602311	8
	4	2	398109.4	3874.118	-1679.451	1	4222.481	-23.43699	1.022336E-006	0.0598943	8
	5	3	316265.6	4131.338	-1511.057	1	4399.005	-20.09024	-4.579133E-007	0.0601248	8
	6	3	251203.1	4346.438	-1318.875	1	4542.131	-16.87979	2.657801E-006	0.0594513	8
	7	3	199546.9	4464.614	-1153.9	1	4611.319	-14.49125	1.019379E-006	0.0598682	8
	8	4	158578.1	4608.064	-992.581	1	4713.754	-12.15583	2.74387E-007	0.059992	8
	9	4	125953.1	4704.871	-848.298	1	4780.734	-10.22074	3.032974E-007	0.0593327	7
	10	4	100078.1	4767.62	-754.4346	1	4826.942	-8.992002	-3.123163E-008	0.0600412	7
	11	5	79453.13	4830.774	-693.296	1	4880.271	-8.167123	8.534835E-008	0.0598796	7
	12	5	63140.62	4885.195	-651.6255	1	4928.463	-7.597711	7.435307E-008	0.0598798	7
	13	5	50203.12	4935.621	-629.0215	1	4975.542	-7.262923	2.25726E-008	0.0599478	7
	14	6	39890.62	4984.173	-625.2587	1	5023.239	-7.150335	-3.045027E-008	0.0600316	7
	15	6	31640.63	5036.023	-638.5142	1	5076.34	-7.225941	1.248998E-008	0.059935	7
	16	6	25171.88	5085.538	-667.5135	1	5129.159	-7.477736	5.110928E-008	0.05987	7
	17	6	20015.62	5143.005	-713.7567	1	5192.297	-7.901156	-2.56715E-008	0.0600256	7
	18	7	15890.62	5203.627	-780.6898	1	5261.864	-8.532334	-1.938781E-008	0.0600755	7
	19	7	12609.37	5268.368	-868.1648	1	5339.421	-9.35757	-4.949916E-009	0.0601265	7
	20	7	10078.13	5341.562	-972.427	1	5429.355	-10.31765	-1.701562E-008	0.060071	7
	21	8	8015.625	5418.682	-1106.678	1	5530.538	-11.54299	8.340744E-008	0.0598761	7
	22	8	6328.125	5511.026	-1277.107	1	5657.067	-13.04724	-2.340086E-008	0.0601212	7
	23	8	5015.625	5611.184	-1479.841	1	5803.044	-14.77425	-4.046412E-008	0.0600717	7
	24	9	3984.375	5724.766	-1724.92	1	5978.987	-16.76799	1.111789E-008	0.0599328	7
	25	9	3170.956	5856.089	-2015.438	1	6193.204	-18.99147	7.818995E-008	0.0598552	7
	26	9	2527.573	6002.356	-2365.602	1	6451.694	-21.51001	-2.487081E-008	0.06001	7
	27	10	1976.103	6185.933	-2826.589	1	6801.13	-24.55747	1.233831E-007	0.0598343	7
	28	10	1577.524	6377.63	-3332.153	1	7195.652	-27.58595	-6.429776E-010	0.060028	7
	29	10	1265.625	6601.06	-3930.897	1	7682.834	-30.77358	5.562296E-010	0.0600293	7
	30	11	998.264	6877.141	-4704.087	1	8332.077	-34.37283	6.036018E-008	0.0599947	7
	31	11	796.875	7179.411	-5583.228	1	9094.854	-37.87121	-3.452136E-008	0.0600234	7
	32	11	627.7902	7560.106	-6712.002	1	10109.71	-41.59926	-9.227096E-009	0.0600661	6
	33	12	505.5147	7955.023	-7950.421	1	11246.85	-44.98343	-1.670583E-009	0.0599483	6
	34	12	397.9953	8453.58	-9601.91	1	12792.96	-48.63913	1.401496E-009	0.0600152	6
	35	12	315.5048	9030.934	-11557.07	1	14667.1	-51.9952	1.165625E-009	0.0600113	6
	36	13	252.4038	9685.28	-13835.03	1	16888.24	-55.00586	1.182809E-009	0.0600092	6
	37	13	198.6229	10511.44	-16810.81	1	19826.59	-57.98313	1.252537E-009	0.0600146	6
	38	13	158.3615	11447.81	-20242.86	1	23255.66	-60.51083	4.426455E-010	0.0600088	6
	39	14	125.558	12606.68	-24510.74	1	27562.74	-62.78174	1.167267E-009	0.0600096	6
	40	14	100.4464	13985.8	-29525.24	1	32670.21	-64.65358	1.360395E-009	0.060004	6
	41	14	79.00281	15739.73	-36086.61	1	39369.82	-66.43484	2.639408E-010	0.0600061	6
	42	15	63.3446	17509.25	-42781.93	1	46226.27	-67.74231	8.054165E-010	0.0600061	6
	43	15	49.86702	20205.6	-52496.16	1	56250.45	-68.94846	4.936558E-010	0.0600068	6
	44	15	39.72458	23280.46	-64023.19	1	68124.51	-70.01745	7.790433E-010	0.0600057	6
	45	16	31.6723	27238.76	-77559.9	1	82203.94	-70.64891	7.897932E-010	0.0600021	6
	46	16	24.93351	32184.86	-94677.9	1	99998.8	-71.22502	6.702983E-010	0.0599998	6
	47	16	19.86229	38169.59	-114767.4	1	120948.2	-71.6038	-7.497448E-010	0.0599964	5
	48	17	15.83615	46736.78	-137296.8	1	145033.6	-71.20107	-9.640884E-010	0.0600002	5
	49	17	12.40079	58248.5	-170404.3	1	180084.8	-71.12828	-1.255412E-011	0.0600019	5
	50	17	9.93114	71236.16	-204160.9	1	216232	-70.76501	2.454125E-010	0.0599982	5
	51	18	7.944915	88348.47	-244036.4	1	259536.6	-70.09823	-3.95712E-010	0.0600071	5
	52	18	6.317385	112739.2	-291256.8	1	312315	-68.83966	-1.828212E-010	0.0600143	5
	53	19	5.008013	143446.4	-346914.6	1	375401.9	-67.53529	1.525867E-011	0.0600003	5
	54	20	3.945707	184591.3	-411171.1	1	450705.7	-65.82276	4.207289E-011	0.0599922	5
	55	22	3.158693	230972.2	-479928	1	532615.3	-64.30015	1.285882E-010	0.0600085	5
	56	23	2.504006	290302.5	-557230.9	1	628316.6	-62.48168	9.450372E-011	0.0600027	5
	57	25	1.998082	358942.1	-639933.1	1	733725.9	-60.71169	-2.002111E-011	0.0599581	5
	58	26	1.584686	439445	-730176.8	1	852214.8	-58.95905	2.07905E-011	0.0599923	5
	59	28	1.266892	530937.4	-823844.4	1	980109	-57.19971	9.289491E-011	0.0600215	5
	60	31	0.999041	640519.8	-934894.2	1	1133266	-55.58397	5.897745E-011	0.0599772	4
