EXPLAIN
TAG	EISPOT
TITLE	LABEL	Potentiostatic EIS	Test &Identifier
DATE	LABEL	5/26/2020	Date
TIME	LABEL	18:36:28	Time
NOTES	NOTES	1	&Notes...
	
PSTAT	PSTAT	REF600-11020	Potentiostat
VDC	POTEN	0.00000E+000	T	DC &Voltage (V)
FREQINIT	QUANT	1.00000E+006	Initial Fre&q. (Hz)
FREQFINAL	QUANT	1.00000E+000	Final Fre&q. (Hz)
PTSPERDEC	QUANT	1.00000E+001	Points/&decade
VAC	QUANT	2.50000E+001	AC &Voltage (mV rms)
AREA	QUANT	5.00000E-004	&Area (cm^2)
CONDIT	TWOPARAM	F	5.00000E+000	0.00000E+000	Conditionin&g	Time(s)	E(V)
DELAY	TWOPARAM	T	3.00000E+000	0.00000E+000	Init. De&lay	Time(s)	Stab.(mV/s)
SPEED	SELECTOR	0	&Optimize for:
ZGUESS	QUANT	1.00000E+003	E&stimated Z (ohms)
OCVCURVE	TABLE	12
	Pt	T	Vf	Vm	Ach	Over
	#	s	V vs. Ref.	V	V	bits
	0	0.258333	1.10094E-001	1.10094E-001	5.62130E-004	...........
	1	0.516667	1.10093E-001	1.10072E-001	5.62430E-004	...........
	2	0.775	1.10091E-001	1.10055E-001	5.66130E-004	...........
	3	1.03333	1.10084E-001	1.10043E-001	5.59297E-004	...........
	4	1.29167	1.10073E-001	1.10029E-001	5.60664E-004	...........
	5	1.55	1.10059E-001	1.10016E-001	5.62697E-004	...........
	6	1.80833	1.10044E-001	1.09995E-001	5.60997E-004	...........
	7	2.06667	1.10030E-001	1.09978E-001	5.63297E-004	...........
	8	2.325	1.10014E-001	1.09960E-001	5.66630E-004	...........
	9	2.58333	1.09997E-001	1.09941E-001	5.69230E-004	...........
	10	2.84167	1.09980E-001	1.09928E-001	5.62597E-004	...........
	11	3.1	1.09962E-001	1.09917E-001	5.62264E-004	...........
EOC	QUANT	0.109962	Open Circuit (V)
PSTATMODEL	IQUANT	4	Pstat Model
PSTATSECTION	LABEL	REF600-11020	Pstat Section
PSTATSERIALNO	LABEL	11020	Pstat Serial Number
CTRLMODE	IQUANT	1	Control Mode
IESTAB	IQUANT	0	I/E Stability
CASPEED	IQUANT	1	Control Amp Speed
CONVENTION	IQUANT	1	Current Convention
ICHRANGE	IQUANT	2	Ich Range
ICHRANGEMODE	TOGGLE	F	Ich Auto Range
ICHOFFSETENABLE	TOGGLE	T	Ich Offset Enable
ICHOFFSET	QUANT	0	Ich Offset (V)
ICHFILTER	IQUANT	3	Ich Filter
VCHRANGE	IQUANT	2	Vch Range
VCHRANGEMODE	TOGGLE	F	Vch Auto Range
VCHOFFSETENABLE	TOGGLE	T	Vch Offset Enable
VCHOFFSET	QUANT	0	Vch Offset (V)
VCHFILTER	IQUANT	3	Vch Filter
ACHRANGE	IQUANT	2	Ach Range
ACHOFFSETENABLE	TOGGLE	F	Ach Offset Enable
ACHOFFSET	QUANT	0	Ach Offset (V)
ACHFILTER	IQUANT	3	Ach Filter
IERANGELOWERLIMIT	IQUANT	1	I/E Range Lower Limit
IERANGEMODE	TOGGLE	F	I/E AutoRange
IERANGE	IQUANT	8	I/E Range
POSFEEDENABLE	TOGGLE	F	Positive Feedback IR Comp
POSFEEDRESISTANCE	QUANT	0	Positive Feedback Resistance (ohm)
ACHSELECT	IQUANT	0	Ach Select
CABLEID	IQUANT	14	Cable ID
DCCALDATE	LABEL	2/27/2020	DC Calibration Date
ACCALDATE	LABEL	2/27/2020	AC Calibration Date
THERMOSELECT	IQUANT	1	Thermo Select
FRAMEWORKVERSION	QUANT	6.33	Framework Version
INSTRUMENTVERSION	LABEL	3.50	Instrument Version
ZCURVE	TABLE
	Pt	Time	Freq	Zreal	Zimag	Zsig	Zmod	Zphz	Idc	Vdc	IERange
	#	s	Hz	ohm	ohm	V	ohm	°	A	V	#
	0	1	1000078	1753.993	-2517.813	1	3068.53	-55.13764	6.049937E-008	0.1123674	8
	1	1	794390.6	2100.55	-2848.431	1	3539.191	-53.59342	4.899932E-008	0.1120311	8
	2	2	630984.4	2489.104	-3201.995	1	4055.664	-52.13993	6.125916E-008	0.1118782	8
	3	2	501234.4	2935.797	-3583.314	1	4632.391	-50.67235	6.27132E-008	0.1117903	8
	4	2	398109.4	3440.361	-4007.676	1	5281.813	-49.3558	3.177284E-008	0.1117096	8
	5	3	316265.6	4029.624	-4458.291	1	6009.511	-47.89116	5.931198E-008	0.1116873	8
	6	3	251203.1	4722.186	-4905.808	1	6809.258	-46.09259	5.249156E-008	0.1116788	8
	7	3	199546.9	5529.985	-5390.201	1	7722.37	-44.26662	5.193671E-008	0.1116677	8
	8	3	158578.1	6443.513	-5842.998	1	8698.246	-42.20184	5.622031E-008	0.1116723	8
	9	4	125953.1	7600.366	-6139.708	1	9770.44	-38.93188	7.830775E-009	0.1116218	7
	10	4	100078.1	8697.436	-6415.313	1	10807.48	-36.41285	3.272752E-009	0.1116002	7
	11	4	79453.13	9893.25	-6607.802	1	11897.04	-33.73936	3.584053E-009	0.1115928	7
	12	5	63140.62	11118	-6662.508	1	12961.44	-30.93232	3.68905E-009	0.1115865	7
	13	5	50203.12	12315.31	-6562.603	1	13954.74	-28.05233	3.079435E-009	0.1115854	7
	14	5	39890.62	13458.65	-6354.327	1	14883.31	-25.27373	3.453089E-009	0.1115903	7
	15	6	31640.63	14527.05	-6058.359	1	15739.73	-22.63808	4.522919E-009	0.1115878	7
	16	6	25171.88	15470.57	-5713.442	1	16491.88	-20.26971	4.514168E-009	0.1115869	7
	17	6	20015.62	16298.89	-5340.498	1	17151.52	-18.14191	3.710623E-009	0.1115863	7
	18	7	15890.62	17037.76	-4969.767	1	17747.78	-16.26151	4.472599E-009	0.1115764	7
	19	7	12609.37	17789.08	-4403.817	1	18326.07	-13.90445	4.786174E-010	0.1116363	6
	20	7	10078.13	18299.95	-4146.017	1	18763.73	-12.76537	6.673913E-010	0.1116389	6
	21	8	8015.625	18751.71	-3934.748	1	19160.09	-11.85067	5.658155E-010	0.111638	6
	22	8	6328.125	19164.08	-3785.604	1	19534.4	-11.17414	4.365792E-010	0.1116259	6
	23	8	5015.625	19535.79	-3715.8	1	19886.03	-10.76929	5.044031E-010	0.1116329	6
	24	9	3984.375	19862.14	-3729.76	1	20209.3	-10.63528	5.570614E-010	0.1116329	6
	25	9	3170.956	20171.42	-3837.666	1	20533.24	-10.77194	4.375167E-010	0.1116256	6
	26	9	2527.573	20463.26	-4049.683	1	20860.13	-11.1942	5.741014E-010	0.1116305	6
	27	9	1976.103	20779.17	-4413.289	1	21242.67	-11.99087	5.037698E-010	0.1116287	6
	28	10	1577.524	21072.71	-4878.963	1	21630.15	-13.03599	3.071817E-010	0.1116276	6
	29	10	1265.625	21387.17	-5480.445	1	22078.19	-14.37274	2.996833E-010	0.1116221	6
	30	10	998.264	21757.68	-6317.277	1	22656.23	-16.19049	4.315704E-010	0.111626	6
	31	11	796.875	22151.8	-7315.9	1	23328.62	-18.27643	3.615595E-010	0.1116232	6
	32	11	627.7902	22618.08	-8633.088	1	24209.66	-20.89134	4.268753E-010	0.1116268	6
	33	11	505.5147	23112.17	-10100.96	1	25223.04	-23.60728	3.188829E-010	0.1116288	6
	34	12	397.9953	23756.88	-12090.15	1	26656.35	-26.97207	5.200005E-010	0.1116453	6
	35	12	315.5048	24493.63	-14460.64	1	28443.76	-30.55691	4.64968E-010	0.1116414	6
	36	12	252.4038	25326.46	-17233.12	1	30633.48	-34.23291	4.09879E-010	0.1116351	6
	37	13	198.6229	26405.9	-20862.46	1	33652.84	-38.31113	3.655362E-010	0.1116374	6
	38	13	158.3615	27660.3	-25037.01	1	37308.77	-42.15014	3.077994E-010	0.1116364	6
	39	13	125.558	29228	-30226.63	1	42046.7	-45.96228	3.602583E-010	0.1116376	6
	40	14	100.4464	31079.7	-36251.29	1	47750.43	-49.39217	4.080312E-010	0.1116341	6
	41	14	79.00281	33536.27	-44100.86	1	55403.68	-52.74902	3.427952E-010	0.1116321	6
	42	14	63.3446	36354	-52828.22	1	64128.26	-55.46601	3.071126E-010	0.1116318	6
	43	15	49.86702	40173.31	-64220.95	1	75751.07	-57.97203	2.333509E-010	0.1116301	6
	44	15	39.72458	44752.93	-77301.55	1	89321.64	-59.93175	3.3686E-010	0.1116282	6
	45	15	31.6723	50557.65	-92842.69	1	105715.9	-61.42942	-2.401014E-011	0.1116326	5
	46	16	24.93351	58462.1	-112634.3	1	126902.7	-62.56871	-2.073948E-010	0.1116334	5
	47	16	19.86229	68170.29	-135019.8	1	151253.2	-63.2112	-2.342582E-010	0.1116325	5
	48	16	15.83615	80675.54	-161229.5	1	180287.2	-63.41766	-1.734754E-010	0.1116281	5
	49	16	12.40079	98429.2	-194278.4	1	217789.8	-63.1314	-7.794095E-010	0.111635	5
	50	17	9.93114	118828	-228613.5	1	257651.4	-62.53564	-6.24977E-010	0.1116277	5
	51	17	7.944915	144799.8	-267380.2	1	304071	-61.56224	2.098985E-010	0.1116276	5
	52	18	6.317385	178128.3	-311592.3	1	358914.3	-60.24465	-3.863515E-010	0.1116462	5
	53	18	5.008013	219698.9	-360431.7	1	422112.1	-58.63586	-2.635392E-010	0.111631	5
	54	19	3.945707	270013.2	-413471.5	1	493827.7	-56.85388	2.011979E-010	0.1116343	5
	55	20	3.158693	325937.5	-466037.4	1	568705.7	-55.03181	-1.365767E-010	0.1116386	5
	56	21	2.504006	391076.5	-523365.5	1	653339.4	-53.23166	-1.439608E-010	0.1116229	5
	57	22	1.998082	462611.3	-580230.5	1	742075.9	-51.43503	1.183349E-010	0.1116645	5
	58	24	1.584686	541546.2	-643733.6	1	841228.4	-49.9275	1.349781E-010	0.1116535	5
	59	26	1.266892	625164.8	-705871	1	942912.9	-48.46983	7.346869E-011	0.1116091	5
	60	28	0.999041	723339.7	-778329.4	1	1062552	-47.09718	-2.344342E-011	0.1115926	4
