EXPLAIN
TAG	EISPOT
TITLE	LABEL	Potentiostatic EIS	Test &Identifier
DATE	LABEL	5/26/2020	Date
TIME	LABEL	18:37:29	Time
NOTES	NOTES	1	&Notes...
	
PSTAT	PSTAT	REF600-11020	Potentiostat
VDC	POTEN	0.00000E+000	T	DC &Voltage (V)
FREQINIT	QUANT	1.00000E+006	Initial Fre&q. (Hz)
FREQFINAL	QUANT	1.00000E+000	Final Fre&q. (Hz)
PTSPERDEC	QUANT	1.00000E+001	Points/&decade
VAC	QUANT	2.50000E+001	AC &Voltage (mV rms)
AREA	QUANT	5.00000E-004	&Area (cm^2)
CONDIT	TWOPARAM	F	5.00000E+000	0.00000E+000	Conditionin&g	Time(s)	E(V)
DELAY	TWOPARAM	T	3.00000E+000	0.00000E+000	Init. De&lay	Time(s)	Stab.(mV/s)
SPEED	SELECTOR	0	&Optimize for:
ZGUESS	QUANT	1.00000E+003	E&stimated Z (ohms)
OCVCURVE	TABLE	12
	Pt	T	Vf	Vm	Ach	Over
	#	s	V vs. Ref.	V	V	bits
	0	0.258333	1.06724E-001	1.06724E-001	5.66030E-004	...........
	1	0.516667	1.06723E-001	1.06684E-001	5.64663E-004	...........
	2	0.775	1.06718E-001	1.06644E-001	5.63897E-004	...........
	3	1.03333	1.06705E-001	1.06610E-001	5.62164E-004	...........
	4	1.29167	1.06681E-001	1.06583E-001	5.69363E-004	...........
	5	1.55	1.06651E-001	1.06561E-001	5.72230E-004	...........
	6	1.80833	1.06619E-001	1.06541E-001	5.69097E-004	...........
	7	2.06667	1.06590E-001	1.06518E-001	5.69497E-004	...........
	8	2.325	1.06565E-001	1.06500E-001	5.71030E-004	...........
	9	2.58333	1.06542E-001	1.06484E-001	5.72130E-004	...........
	10	2.84167	1.06522E-001	1.06470E-001	5.74097E-004	...........
	11	3.1	1.06503E-001	1.06453E-001	5.66763E-004	...........
EOC	QUANT	0.1065033	Open Circuit (V)
PSTATMODEL	IQUANT	4	Pstat Model
PSTATSECTION	LABEL	REF600-11020	Pstat Section
PSTATSERIALNO	LABEL	11020	Pstat Serial Number
CTRLMODE	IQUANT	1	Control Mode
IESTAB	IQUANT	0	I/E Stability
CASPEED	IQUANT	1	Control Amp Speed
CONVENTION	IQUANT	1	Current Convention
ICHRANGE	IQUANT	2	Ich Range
ICHRANGEMODE	TOGGLE	F	Ich Auto Range
ICHOFFSETENABLE	TOGGLE	T	Ich Offset Enable
ICHOFFSET	QUANT	0	Ich Offset (V)
ICHFILTER	IQUANT	3	Ich Filter
VCHRANGE	IQUANT	2	Vch Range
VCHRANGEMODE	TOGGLE	F	Vch Auto Range
VCHOFFSETENABLE	TOGGLE	T	Vch Offset Enable
VCHOFFSET	QUANT	0	Vch Offset (V)
VCHFILTER	IQUANT	3	Vch Filter
ACHRANGE	IQUANT	2	Ach Range
ACHOFFSETENABLE	TOGGLE	F	Ach Offset Enable
ACHOFFSET	QUANT	0	Ach Offset (V)
ACHFILTER	IQUANT	3	Ach Filter
IERANGELOWERLIMIT	IQUANT	1	I/E Range Lower Limit
IERANGEMODE	TOGGLE	F	I/E AutoRange
IERANGE	IQUANT	8	I/E Range
POSFEEDENABLE	TOGGLE	F	Positive Feedback IR Comp
POSFEEDRESISTANCE	QUANT	0	Positive Feedback Resistance (ohm)
ACHSELECT	IQUANT	0	Ach Select
CABLEID	IQUANT	14	Cable ID
DCCALDATE	LABEL	2/27/2020	DC Calibration Date
ACCALDATE	LABEL	2/27/2020	AC Calibration Date
THERMOSELECT	IQUANT	1	Thermo Select
FRAMEWORKVERSION	QUANT	6.33	Framework Version
INSTRUMENTVERSION	LABEL	3.50	Instrument Version
ZCURVE	TABLE
	Pt	Time	Freq	Zreal	Zimag	Zsig	Zmod	Zphz	Idc	Vdc	IERange
	#	s	Hz	ohm	ohm	V	ohm	°	A	V	#
	0	1	1000078	1947.283	-2354.074	1	3055.09	-50.40255	7.452066E-008	0.108945	8
	1	1	794390.6	2332.197	-2580.823	1	3478.475	-47.89701	5.7109E-008	0.1085722	8
	2	2	630984.4	2756.332	-2785.464	1	3918.695	-45.30119	1.097716E-007	0.1083803	8
	3	2	501234.4	3202.798	-2973.213	1	4370.116	-42.87109	4.634194E-008	0.1082975	8
	4	2	398109.4	3660.883	-3146.84	1	4827.491	-40.68186	7.243795E-008	0.108245	8
	5	2	316265.6	4141.712	-3323.136	1	5310.086	-38.7421	6.161392E-008	0.108202	8
	6	3	251203.1	4637.167	-3502.102	1	5811.027	-37.061	5.854714E-008	0.1081831	8
	7	3	199546.9	5152.688	-3684.555	1	6334.52	-35.56759	6.68219E-008	0.1081855	8
	8	3	158578.1	5692.458	-3890.311	1	6894.824	-34.34929	5.718244E-008	0.1081989	8
	9	4	125953.1	6384.471	-4042.265	1	7556.545	-32.33955	7.316205E-009	0.1081289	7
	10	4	100078.1	7020.179	-4253.256	1	8208.112	-31.21006	2.907075E-009	0.1081029	7
	11	4	79453.13	7740.053	-4460.31	1	8933.24	-29.95327	2.722671E-009	0.1080978	7
	12	5	63140.62	8527.892	-4618.835	1	9698.38	-28.44065	2.444831E-009	0.1080978	7
	13	5	50203.12	9359.89	-4699.707	1	10473.53	-26.66175	2.759394E-009	0.1080975	7
	14	5	39890.62	10213.23	-4689.31	1	11238.31	-24.66179	2.772998E-009	0.1080928	7
	15	6	31640.63	11063.85	-4585.633	1	11976.51	-22.51254	3.325876E-009	0.1080896	7
	16	6	25171.88	11852.27	-4396.986	1	12641.59	-20.35397	3.267133E-009	0.108091	7
	17	6	20015.62	12567.94	-4139.362	1	13232.06	-18.22976	3.348379E-009	0.1080861	7
	18	7	15890.62	13199.15	-3838.919	1	13746.09	-16.21685	2.862073E-009	0.1080823	7
	19	7	12609.37	13829.9	-3362.8	1	14232.87	-13.6665	2.815707E-010	0.1081344	6
	20	7	10078.13	14253.1	-3107.051	1	14587.83	-12.29759	3.129857E-010	0.1081341	6
	21	8	8015.625	14607.46	-2878.36	1	14888.34	-11.14717	2.407896E-010	0.108134	6
	22	8	6328.125	14912.08	-2688.684	1	15152.53	-10.22075	2.648565E-010	0.1081388	6
	23	8	5015.625	15161.42	-2560.208	1	15376.07	-9.58473	4.139331E-010	0.1081379	6
	24	8	3984.375	15366.84	-2497.77	1	15568.51	-9.232276	4.598756E-010	0.1081385	6
	25	9	3170.956	15548.7	-2509.266	1	15749.87	-9.167418	1.549868E-010	0.1081334	6
	26	9	2527.573	15706.54	-2598.61	1	15920.05	-9.394355	1.532735E-010	0.1081291	6
	27	9	1976.103	15872.72	-2796.809	1	16117.24	-9.99307	2.074949E-010	0.1081339	6
	28	10	1577.524	16019.39	-3079.132	1	16312.63	-10.88029	2.064023E-010	0.1081295	6
	29	10	1265.625	16160.42	-3466.746	1	16528.08	-12.10764	3.54074E-010	0.1081328	6
	30	10	998.264	16329.54	-4023.509	1	16817.93	-13.84165	3.01708E-010	0.1081316	6
	31	11	796.875	16517.95	-4707.523	1	17175.66	-15.90726	-3.176048E-011	0.1081242	6
	32	11	627.7902	16753.37	-5631.71	1	17674.6	-18.58027	1.516881E-010	0.1081308	6
	33	11	505.5147	17006.92	-6682.386	1	18272.65	-21.45093	5.621617E-011	0.1081307	6
	34	12	397.9953	17345.35	-8119.739	1	19151.8	-25.08533	5.53484E-010	0.1081475	6
	35	12	315.5048	17763.7	-9852.59	1	20313.11	-29.01482	5.268206E-010	0.1081416	6
	36	12	252.4038	18265.62	-11891.33	1	21795.34	-33.06503	5.028377E-010	0.108143	6
	37	13	198.6229	18965.87	-14571.89	1	23917.44	-37.53585	5.559754E-010	0.1081423	6
	38	13	158.3615	19822.34	-17667.05	1	26552.78	-41.70965	3.223065E-010	0.1081394	6
	39	13	125.558	20959.32	-21506.46	1	30030.33	-45.73818	4.502095E-010	0.1081453	6
	40	14	100.4464	22400.26	-25955.61	1	34285.06	-49.20508	2.138162E-010	0.1081442	6
	41	14	79.00281	24432.97	-31705.02	1	40027.22	-52.38092	3.469771E-010	0.1081398	6
	42	14	63.3446	26884.88	-38013.25	1	46559.68	-54.73014	4.049504E-010	0.1081378	6
	43	15	49.86702	30360.77	-46095.83	1	55196.03	-56.62932	1.215188E-011	0.1081361	6
	44	15	39.72458	34664.8	-55097.74	1	65095.39	-57.82391	3.836836E-010	0.1081431	6
	45	15	31.6723	40177.01	-65458.99	1	76805.41	-58.45949	9.352867E-010	0.108137	6
	46	16	24.93351	47684.05	-77989.52	1	91411.88	-58.55771	-3.084928E-010	0.1081384	6
	47	16	19.86229	56579.91	-91275.12	1	107389.2	-58.20592	-1.043734E-009	0.1081439	5
	48	16	15.83615	67565.52	-106054.9	1	125748.8	-57.49959	-7.906806E-010	0.1081423	5
	49	16	12.40079	81982.5	-123433.2	1	148178.6	-56.40848	-1.745799E-009	0.1081475	5
	50	17	9.93114	96977.3	-140109.3	1	170397.2	-55.31078	-1.730526E-009	0.1081456	5
	51	17	7.944915	114191.8	-158388	1	195260.1	-54.20982	-4.679854E-011	0.1081435	5
	52	18	6.317385	133847.8	-178515.1	1	223120.8	-53.13802	-3.488843E-010	0.1081529	5
	53	18	5.008013	155716.6	-200942.8	1	254215.8	-52.22682	-5.094773E-010	0.1081395	5
	54	19	3.945707	179589.1	-226083	1	288731.3	-51.53811	1.713107E-010	0.1081468	5
	55	20	3.158693	203959.5	-253573.2	1	325421	-51.18882	-3.37237E-010	0.1081419	5
	56	21	2.504006	230795.3	-286387	1	367809.7	-51.13514	-1.103808E-010	0.1081267	5
	57	22	1.998082	259789.5	-324376.1	1	415584.5	-51.30911	1.807434E-010	0.1081676	5
	58	24	1.584686	291862.8	-369937.8	1	471208.9	-51.72829	5.503161E-011	0.1081312	5
	59	26	1.266892	328822.6	-421724.3	1	534767	-52.05611	-2.548579E-011	0.1080949	5
	60	28	0.999041	374056.6	-487409.6	1	614399.3	-52.496	-8.212793E-011	0.1080847	5
