EXPLAIN
TAG	EISPOT
TITLE	LABEL	Potentiostatic EIS	Test &Identifier
DATE	LABEL	9/1/2020	Date
TIME	LABEL	21:29:43	Time
NOTES	NOTES	1	&Notes...
	
PSTAT	PSTAT	REF600-11020	Potentiostat
VDC	POTEN	0.00000E+000	T	DC &Voltage (V)
FREQINIT	QUANT	1.00000E+006	Initial Fre&q. (Hz)
FREQFINAL	QUANT	1.00000E+000	Final Fre&q. (Hz)
PTSPERDEC	QUANT	1.00000E+001	Points/&decade
VAC	QUANT	2.50000E+001	AC &Voltage (mV rms)
AREA	QUANT	4.00000E-005	&Area (cm^2)
CONDIT	TWOPARAM	F	5.00000E+000	0.00000E+000	Conditionin&g	Time(s)	E(V)
DELAY	TWOPARAM	F	3.00000E+000	0.00000E+000	Init. De&lay	Time(s)	Stab.(mV/s)
SPEED	SELECTOR	0	&Optimize for:
ZGUESS	QUANT	1.00000E+003	E&stimated Z (ohms)
OCVCURVE	TABLE	39
	Pt	T	Vf	Vm	Ach	Over
	#	s	V vs. Ref.	V	V	bits
	0	0.258333	1.45493E-001	1.45493E-001	5.68125E-004	...........
	1	0.516667	1.45493E-001	1.45487E-001	5.77358E-004	...........
	2	0.775	1.45492E-001	1.45482E-001	5.64358E-004	...........
	3	1.03333	1.45490E-001	1.45475E-001	5.57159E-004	...........
	4	1.29167	1.45487E-001	1.45469E-001	5.73892E-004	...........
	5	1.55	1.45482E-001	1.45463E-001	5.69492E-004	...........
	6	1.80833	1.45476E-001	1.45459E-001	5.55359E-004	...........
	7	2.06667	1.45470E-001	1.45455E-001	5.58325E-004	...........
	8	2.325	1.45464E-001	1.45449E-001	5.77492E-004	...........
	9	2.58333	1.45459E-001	1.45447E-001	5.74325E-004	...........
	10	2.84167	1.45455E-001	1.45442E-001	5.60192E-004	...........
	11	3.1	1.45451E-001	1.45440E-001	5.64958E-004	...........
	12	3.35833	1.45447E-001	1.45434E-001	5.78825E-004	...........
	13	3.61667	1.45443E-001	1.45435E-001	5.84558E-004	...........
	14	3.875	1.45440E-001	1.45435E-001	5.65725E-004	...........
	15	4.13333	1.45437E-001	1.45433E-001	5.65558E-004	...........
	16	4.39167	1.45435E-001	1.45427E-001	5.74158E-004	...........
	17	4.65	1.45433E-001	1.45422E-001	5.74192E-004	...........
	18	4.90833	1.45431E-001	1.45419E-001	5.58692E-004	...........
	19	5.16667	1.45427E-001	1.45416E-001	5.66125E-004	...........
	20	5.425	1.45423E-001	1.45408E-001	5.74592E-004	...........
	21	5.68333	1.45419E-001	1.45406E-001	5.67092E-004	...........
	22	5.94167	1.45415E-001	1.45405E-001	5.56159E-004	...........
	23	6.2	1.45411E-001	1.45399E-001	5.68992E-004	...........
	24	6.45833	1.45407E-001	1.45401E-001	5.71892E-004	...........
	25	6.71667	1.45404E-001	1.45404E-001	5.69092E-004	...........
	26	6.975	1.45403E-001	1.45406E-001	5.60659E-004	...........
	27	7.23333	1.45402E-001	1.45404E-001	5.76725E-004	...........
	28	7.49167	1.45403E-001	1.45412E-001	5.76058E-004	...........
	29	7.75	1.45405E-001	1.45418E-001	5.59492E-004	...........
	30	8.00833	1.45408E-001	1.45423E-001	5.63792E-004	...........
	31	8.26667	1.45412E-001	1.45428E-001	5.73425E-004	...........
	32	8.525	1.45417E-001	1.45436E-001	5.70925E-004	...........
	33	8.78333	1.45423E-001	1.45443E-001	5.59959E-004	...........
	34	9.04167	1.45429E-001	1.45450E-001	5.59792E-004	...........
	35	9.3	1.45435E-001	1.45457E-001	5.82025E-004	...........
	36	9.5583	1.45442E-001	1.45467E-001	5.81758E-004	...........
	37	9.8167	1.45450E-001	1.45474E-001	5.63392E-004	...........
	38	10.075	1.45457E-001	1.45486E-001	5.62892E-004	...........
EOC	QUANT	0.1454575	Open Circuit (V)
PSTATMODEL	IQUANT	4	Pstat Model
PSTATSECTION	LABEL	REF600-11020	Pstat Section
PSTATSERIALNO	LABEL	11020	Pstat Serial Number
CTRLMODE	IQUANT	1	Control Mode
IESTAB	IQUANT	0	I/E Stability
CASPEED	IQUANT	1	Control Amp Speed
CONVENTION	IQUANT	1	Current Convention
ICHRANGE	IQUANT	2	Ich Range
ICHRANGEMODE	TOGGLE	F	Ich Auto Range
ICHOFFSETENABLE	TOGGLE	T	Ich Offset Enable
ICHOFFSET	QUANT	0	Ich Offset (V)
ICHFILTER	IQUANT	3	Ich Filter
VCHRANGE	IQUANT	2	Vch Range
VCHRANGEMODE	TOGGLE	F	Vch Auto Range
VCHOFFSETENABLE	TOGGLE	T	Vch Offset Enable
VCHOFFSET	QUANT	0	Vch Offset (V)
VCHFILTER	IQUANT	3	Vch Filter
ACHRANGE	IQUANT	2	Ach Range
ACHOFFSETENABLE	TOGGLE	F	Ach Offset Enable
ACHOFFSET	QUANT	0	Ach Offset (V)
ACHFILTER	IQUANT	3	Ach Filter
IERANGELOWERLIMIT	IQUANT	1	I/E Range Lower Limit
IERANGEMODE	TOGGLE	F	I/E AutoRange
IERANGE	IQUANT	8	I/E Range
POSFEEDENABLE	TOGGLE	F	Positive Feedback IR Comp
POSFEEDRESISTANCE	QUANT	0	Positive Feedback Resistance (ohm)
ACHSELECT	IQUANT	0	Ach Select
CABLEID	IQUANT	14	Cable ID
DCCALDATE	LABEL	9/1/2020	DC Calibration Date
ACCALDATE	LABEL	9/1/2020	AC Calibration Date
THERMOSELECT	IQUANT	1	Thermo Select
FRAMEWORKVERSION	QUANT	6.33	Framework Version
INSTRUMENTVERSION	LABEL	3.50	Instrument Version
ZCURVE	TABLE
	Pt	Time	Freq	Zreal	Zimag	Zsig	Zmod	Zphz	Idc	Vdc	IERange
	#	s	Hz	ohm	ohm	V	ohm	°	A	V	#
	0	1	1000078	1431.635	-2889.291	1	3224.528	-63.64173	1.177276E-007	0.1475174	8
	1	1	794390.6	1706.149	-3400.189	1	3804.238	-63.35339	6.448408E-008	0.1472331	8
	2	2	630984.4	2032.364	-3994.599	1	4481.888	-63.03401	4.020866E-008	0.1471201	8
	3	2	501234.4	2412.169	-4693.302	1	5276.897	-62.79865	7.479538E-008	0.1470347	8
	4	2	398109.4	2868.555	-5507.378	1	6209.655	-62.48694	1.25339E-007	0.1469593	8
	5	3	316265.6	3423.385	-6461.842	1	7312.658	-62.08604	9.140793E-008	0.1469788	8
	6	3	251203.1	4083.73	-7598.459	1	8626.322	-61.74456	7.608369E-008	0.1469422	8
	7	3	199546.9	4926.316	-8883.479	1	10157.99	-60.98952	9.685707E-008	0.146978	8
	8	4	158578.1	5958.026	-10398.84	1	11984.74	-60.18941	9.303908E-008	0.1469638	8
	9	4	125953.1	7375.068	-12090.46	1	14162.3	-58.61719	3.787721E-009	0.1469546	7
	10	4	100078.1	9021.229	-13920.95	1	16588.41	-57.05545	4.568159E-009	0.1469395	7
	11	5	79453.13	11025.62	-15948.18	1	19388.37	-55.34231	4.76693E-009	0.1469305	7
	12	5	63140.62	13455.04	-18085.19	1	22541.35	-53.35144	5.376529E-009	0.1469318	7
	13	5	50203.12	16369.82	-20222.33	1	26017.56	-51.01009	5.683928E-009	0.1469275	7
	14	6	39890.62	19766.26	-22225.7	1	29743.68	-48.35194	5.243085E-009	0.1469224	7
	15	6	31640.63	23668.17	-24016.96	1	33719.38	-45.41908	4.375465E-009	0.1469182	7
	16	6	25171.88	27813.8	-25501.38	1	37734.97	-42.51648	4.451878E-009	0.1469175	7
	17	6	20015.62	32173.13	-26674.69	1	41792.93	-39.66207	5.327464E-009	0.14692	7
	18	7	15890.62	36669.13	-27414.44	1	45784.02	-36.78239	4.643617E-009	0.146918	7
	19	7	12609.37	41565.05	-27759.13	1	49982.22	-33.7369	5.867892E-010	0.1469198	6
	20	7	10078.13	45702.33	-28172.02	1	53687.66	-31.65068	8.913622E-010	0.1469173	6
	21	8	8015.625	49783.79	-28551.09	1	57389.81	-29.83434	4.933429E-010	0.1469081	6
	22	8	6328.125	53889.32	-29048.91	1	61220.08	-28.32678	7.300922E-010	0.146907	6
	23	8	5015.625	57883.63	-29745.48	1	65079.25	-27.19791	6.608545E-010	0.1469046	6
	24	9	3984.375	61875.74	-30659.07	1	69054.95	-26.35815	6.900299E-010	0.1469073	6
	25	9	3170.956	66031.08	-31878.02	1	73323.34	-25.76999	5.199466E-010	0.1468961	6
	26	9	2527.573	70366.73	-33233.83	1	77820.08	-25.28111	4.600785E-010	0.146896	6
	27	10	1976.103	75430.73	-34923.35	1	83123.02	-24.84346	1.095317E-009	0.1469145	6
	28	10	1577.524	80351.96	-36469.28	1	88240.84	-24.41183	6.113653E-010	0.1469028	6
	29	10	1265.625	86518.78	-36677.62	1	93972.05	-22.97338	-9.104451E-011	0.1468906	5
	30	11	998.264	92053.2	-38505.41	1	99782.1	-22.69933	-5.629417E-011	0.1468953	5
	31	11	796.875	97568.1	-40249.36	1	105544.1	-22.41741	-9.42928E-011	0.1468915	5
	32	11	627.7902	103538.3	-42140.74	1	111785.6	-22.14664	-1.090207E-010	0.1468908	5
	33	12	505.5147	109049.4	-43981.58	1	117584.6	-21.96511	-1.960452E-010	0.1468852	5
	34	12	397.9953	115248.5	-46254.32	1	124184.1	-21.86777	4.256257E-011	0.1469117	5
	35	12	315.5048	121454.4	-48817.64	1	130898.2	-21.89727	9.515769E-011	0.1469094	5
	36	13	252.4038	127703	-51700.03	1	137771.4	-22.04036	3.311492E-011	0.1469097	5
	37	13	198.6229	134811.8	-55285.3	1	145707.6	-22.29816	5.870165E-011	0.1469128	5
	38	13	158.3615	142029.9	-59129.13	1	153846.5	-22.60268	-2.209696E-011	0.1469091	5
	39	13	125.558	150032.3	-63500.65	1	162917.2	-22.94034	1.7705E-010	0.1469107	5
	40	14	100.4464	158261.3	-68062.1	1	172276.2	-23.27068	1.385346E-010	0.1469076	5
	41	14	79.00281	167662.3	-73403.3	1	183026.4	-23.64402	-3.664749E-011	0.1469082	5
	42	14	63.3446	176729.5	-78828.33	1	193512.9	-24.03876	-7.92684E-011	0.1469027	5
	43	15	49.86702	186976.7	-85495.61	1	205596.2	-24.57238	8.165095E-011	0.1469022	5
	44	15	39.72458	197262.9	-92925.71	1	218054.7	-25.22397	4.813341E-010	0.1469051	5
	45	16	31.6723	208132.7	-101586.2	1	231600.9	-26.01626	3.167334E-010	0.1468996	5
	46	16	24.93351	220771.5	-112455.5	1	247762.5	-26.99317	-5.984442E-010	0.146899	5
	47	16	19.86229	234137.3	-124764.4	1	265304.4	-28.05174	-1.044758E-009	0.1469008	5
	48	16	15.83615	249910.2	-138772.6	1	285854.7	-29.04297	-7.144051E-011	0.1469018	5
	49	17	12.40079	269334.8	-155188.2	1	310845.1	-29.95015	-1.212499E-009	0.1469079	5
	50	17	9.93114	289843.6	-172304.9	1	337191.8	-30.73044	-7.334571E-010	0.1469005	5
	51	17	7.944915	312726.8	-189172.8	1	365492	-31.17032	1.170153E-009	0.1468989	5
	52	18	6.317385	340317.4	-207731.9	1	398708.5	-31.40015	-3.060475E-010	0.1469167	5
	53	19	5.008013	370275.8	-226316	1	433962.1	-31.43366	-3.329082E-010	0.146904	5
	54	20	3.945707	401602	-246492	1	471213.8	-31.54043	4.289267E-010	0.1469036	5
	55	20	3.158693	432676.7	-265333.9	1	507554.2	-31.51822	-2.263289E-010	0.1469104	5
	56	21	2.504006	464889.6	-288438.8	1	547100.8	-31.81736	-2.822887E-010	0.1468966	5
	57	23	1.998082	496559.8	-313220.5	1	587093.4	-32.24295	1.252725E-010	0.1469399	5
	58	24	1.584686	530248.1	-346513.3	1	633430.8	-33.16433	1.665009E-010	0.1469302	5
	59	26	1.266892	562918.3	-383987.3	1	681412.7	-34.29934	3.837648E-011	0.1468919	5
	60	29	0.999041	601597.9	-432143.2	1	740721.1	-35.69065	-7.469689E-011	0.1468641	5
