EXPLAIN
TAG	EISPOT
TITLE	LABEL	Potentiostatic EIS	Test &Identifier
DATE	LABEL	6/26/2020	Date
TIME	LABEL	13:33:23	Time
NOTES	NOTES	1	&Notes...
	
PSTAT	PSTAT	REF600-11020	Potentiostat
VDC	POTEN	0.00000E+000	T	DC &Voltage (V)
FREQINIT	QUANT	1.00000E+006	Initial Fre&q. (Hz)
FREQFINAL	QUANT	1.00000E+000	Final Fre&q. (Hz)
PTSPERDEC	QUANT	1.00000E+001	Points/&decade
VAC	QUANT	2.50000E+001	AC &Voltage (mV rms)
AREA	QUANT	4.00000E-004	&Area (cm^2)
CONDIT	TWOPARAM	F	5.00000E+000	0.00000E+000	Conditionin&g	Time(s)	E(V)
DELAY	TWOPARAM	F	3.00000E+000	0.00000E+000	Init. De&lay	Time(s)	Stab.(mV/s)
SPEED	SELECTOR	0	&Optimize for:
ZGUESS	QUANT	1.00000E+003	E&stimated Z (ohms)
OCVCURVE	TABLE	39
	Pt	T	Vf	Vm	Ach	Over
	#	s	V vs. Ref.	V	V	bits
	0	0.258333	1.08732E-001	1.08732E-001	5.30816E-004	...........
	1	0.516667	1.08732E-001	1.08725E-001	5.31683E-004	...........
	2	0.775	1.08731E-001	1.08712E-001	5.30283E-004	...........
	3	1.03333	1.08728E-001	1.08704E-001	5.28383E-004	...........
	4	1.29167	1.08722E-001	1.08695E-001	5.28183E-004	...........
	5	1.55	1.08714E-001	1.08686E-001	5.25750E-004	...........
	6	1.80833	1.08705E-001	1.08677E-001	5.30116E-004	...........
	7	2.06667	1.08696E-001	1.08666E-001	5.28117E-004	...........
	8	2.325	1.08686E-001	1.08655E-001	5.35916E-004	...........
	9	2.58333	1.08677E-001	1.08648E-001	5.36016E-004	...........
	10	2.84167	1.08667E-001	1.08636E-001	5.25683E-004	...........
	11	3.1	1.08657E-001	1.08628E-001	5.27117E-004	...........
	12	3.35833	1.08647E-001	1.08617E-001	5.31550E-004	...........
	13	3.61667	1.08638E-001	1.08609E-001	5.32217E-004	...........
	14	3.875	1.08628E-001	1.08601E-001	5.25183E-004	...........
	15	4.13333	1.08619E-001	1.08591E-001	5.24717E-004	...........
	16	4.39167	1.08610E-001	1.08580E-001	5.31517E-004	...........
	17	4.65	1.08601E-001	1.08570E-001	5.31683E-004	...........
	18	4.90833	1.08591E-001	1.08565E-001	5.33350E-004	...........
	19	5.16667	1.08582E-001	1.08563E-001	5.34317E-004	...........
	20	5.425	1.08574E-001	1.08553E-001	5.31983E-004	...........
	21	5.68333	1.08567E-001	1.08542E-001	5.25017E-004	...........
	22	5.94167	1.08560E-001	1.08534E-001	5.30916E-004	...........
	23	6.2	1.08552E-001	1.08526E-001	5.29183E-004	...........
	24	6.45833	1.08544E-001	1.08521E-001	5.30850E-004	...........
	25	6.71667	1.08535E-001	1.08510E-001	5.30516E-004	...........
	26	6.975	1.08527E-001	1.08499E-001	5.27150E-004	...........
	27	7.23333	1.08519E-001	1.08492E-001	5.32150E-004	...........
	28	7.49167	1.08511E-001	1.08488E-001	5.29483E-004	...........
	29	7.75	1.08502E-001	1.08478E-001	5.26217E-004	...........
	30	8.00833	1.08494E-001	1.08470E-001	5.26850E-004	...........
	31	8.26667	1.08486E-001	1.08465E-001	5.27250E-004	...........
	32	8.525	1.08479E-001	1.08457E-001	5.30750E-004	...........
	33	8.78333	1.08472E-001	1.08450E-001	5.24717E-004	...........
	34	9.04167	1.08465E-001	1.08443E-001	5.23983E-004	...........
	35	9.3	1.08458E-001	1.08435E-001	5.29617E-004	...........
	36	9.5583	1.08450E-001	1.08427E-001	5.31717E-004	...........
	37	9.8167	1.08443E-001	1.08418E-001	5.32150E-004	...........
	38	10.075	1.08435E-001	1.08412E-001	5.33283E-004	...........
EOC	QUANT	0.1084351	Open Circuit (V)
PSTATMODEL	IQUANT	4	Pstat Model
PSTATSECTION	LABEL	REF600-11020	Pstat Section
PSTATSERIALNO	LABEL	11020	Pstat Serial Number
CTRLMODE	IQUANT	1	Control Mode
IESTAB	IQUANT	0	I/E Stability
CASPEED	IQUANT	1	Control Amp Speed
CONVENTION	IQUANT	1	Current Convention
ICHRANGE	IQUANT	2	Ich Range
ICHRANGEMODE	TOGGLE	F	Ich Auto Range
ICHOFFSETENABLE	TOGGLE	T	Ich Offset Enable
ICHOFFSET	QUANT	0	Ich Offset (V)
ICHFILTER	IQUANT	3	Ich Filter
VCHRANGE	IQUANT	2	Vch Range
VCHRANGEMODE	TOGGLE	F	Vch Auto Range
VCHOFFSETENABLE	TOGGLE	T	Vch Offset Enable
VCHOFFSET	QUANT	0	Vch Offset (V)
VCHFILTER	IQUANT	3	Vch Filter
ACHRANGE	IQUANT	2	Ach Range
ACHOFFSETENABLE	TOGGLE	F	Ach Offset Enable
ACHOFFSET	QUANT	0	Ach Offset (V)
ACHFILTER	IQUANT	3	Ach Filter
IERANGELOWERLIMIT	IQUANT	1	I/E Range Lower Limit
IERANGEMODE	TOGGLE	F	I/E AutoRange
IERANGE	IQUANT	8	I/E Range
POSFEEDENABLE	TOGGLE	F	Positive Feedback IR Comp
POSFEEDRESISTANCE	QUANT	0	Positive Feedback Resistance (ohm)
ACHSELECT	IQUANT	0	Ach Select
CABLEID	IQUANT	14	Cable ID
DCCALDATE	LABEL	6/26/2020	DC Calibration Date
ACCALDATE	LABEL	6/26/2020	AC Calibration Date
THERMOSELECT	IQUANT	1	Thermo Select
FRAMEWORKVERSION	QUANT	6.33	Framework Version
INSTRUMENTVERSION	LABEL	3.50	Instrument Version
ZCURVE	TABLE
	Pt	Time	Freq	Zreal	Zimag	Zsig	Zmod	Zphz	Idc	Vdc	IERange
	#	s	Hz	ohm	ohm	V	ohm	°	A	V	#
	0	2	1000078	1985.18	-1870.12	1	2727.322	-43.29053	1.1008E-007	0.1109976	8
	1	2	794390.6	2342.226	-1963.169	1	3056.15	-39.96852	3.902061E-008	0.1106573	8
	2	2	630984.4	2718.927	-2010.273	1	3381.385	-36.47784	3.548595E-008	0.110449	8
	3	2	501234.4	3099.048	-2007.223	1	3692.296	-32.93074	2.603735E-008	0.1103468	8
	4	3	398109.4	3465.568	-1958.834	1	3980.854	-29.47633	9.196419E-008	0.1102547	8
	5	3	316265.6	3802.73	-1877.971	1	4241.171	-26.28238	1.970977E-008	0.1102327	8
	6	3	251203.1	4117.896	-1768.704	1	4481.671	-23.24432	-2.31359E-009	0.1102356	8
	7	4	199546.9	4382.361	-1644.609	1	4680.793	-20.57007	5.779257E-008	0.1102295	8
	8	4	158578.1	4615.972	-1519.596	1	4859.667	-18.22175	5.141169E-008	0.1102201	8
	9	4	125953.1	4863.124	-1332.196	1	5042.293	-15.31968	1.066799E-008	0.1102259	7
	10	5	100078.1	5033.08	-1235.031	1	5182.393	-13.78698	4.337322E-009	0.1101933	7
	11	5	79453.13	5174.024	-1155.327	1	5301.443	-12.58729	-7.629917E-009	0.1101916	7
	12	5	63140.62	5297.325	-1094.328	1	5409.178	-11.67204	-8.053441E-009	0.1101882	7
	13	6	50203.12	5408.673	-1053.041	1	5510.23	-11.01737	-2.127632E-009	0.1101853	7
	14	6	39890.62	5512.656	-1033.439	1	5608.688	-10.61781	9.391139E-009	0.1101699	7
	15	6	31640.63	5613.444	-1035.792	1	5708.207	-10.45461	4.627969E-009	0.1101751	7
	16	7	25171.88	5711.746	-1060.102	1	5809.291	-10.51447	8.497282E-009	0.110162	7
	17	7	20015.62	5811.262	-1108.187	1	5915.982	-10.79647	3.758382E-010	0.110181	7
	18	7	15890.62	5915.602	-1181.178	1	6032.373	-11.29184	-5.961623E-009	0.1101852	7
	19	8	12609.37	6028.19	-1282.453	1	6163.097	-12.0102	5.884356E-009	0.1101858	7
	20	8	10078.13	6147.752	-1407.744	1	6306.869	-12.89753	-3.896671E-009	0.1101816	7
	21	8	8015.625	6280.548	-1566.891	1	6473.055	-14.00837	9.601113E-009	0.1101733	7
	22	8	6328.125	6434.953	-1768.512	1	6673.549	-15.36715	5.605103E-009	0.1101704	7
	23	9	5015.625	6604.72	-2008.716	1	6903.424	-16.91627	2.534669E-009	0.1101722	7
	24	9	3984.375	6794.559	-2291.272	1	7170.492	-18.63522	-6.171978E-009	0.1101787	7
	25	9	3170.956	7009.974	-2624.291	1	7485.094	-20.52416	1.187624E-009	0.1101812	7
	26	10	2527.573	7256.707	-3019.938	1	7860.014	-22.59504	3.134453E-009	0.1101683	7
	27	10	1976.103	7562.994	-3520.385	1	8342.181	-24.9608	5.968592E-009	0.1101733	7
	28	10	1577.524	7889.297	-4067.166	1	8875.971	-27.27245	-6.334813E-009	0.1101739	7
	29	11	1265.625	8268.148	-4674.43	1	9498.03	-29.48182	3.509188E-010	0.1101579	6
	30	11	998.264	8724.413	-5458.528	1	10291.3	-32.03262	3.780297E-010	0.1101666	6
	31	11	796.875	9226.437	-6330.06	1	11189.14	-34.45318	1.144435E-009	0.1101551	6
	32	12	627.7902	9842.85	-7407.709	1	12318.92	-36.96504	1.489605E-009	0.1101596	6
	33	12	505.5147	10485.41	-8547.86	1	13528.11	-39.18742	-1.241541E-009	0.1101622	6
	34	12	397.9953	11301.44	-10017.14	1	15101.84	-41.55248	3.558123E-010	0.1101884	6
	35	13	315.5048	12214.55	-11691.06	1	16907.87	-43.74553	4.239852E-010	0.1101888	6
	36	13	252.4038	13213.43	-13572.95	1	18942.53	-45.76897	3.479662E-010	0.1101809	6
	37	13	198.6229	14428.29	-15951.47	1	21508.72	-47.8703	3.557864E-010	0.1101813	6
	38	14	158.3615	15726.42	-18615.23	1	24368.98	-49.80838	2.617538E-010	0.11018	6
	39	14	125.558	17219.56	-21863.22	1	27830.08	-51.77589	5.465087E-010	0.1101746	6
	40	14	100.4464	18835.95	-25596.99	1	31780.48	-53.65193	2.17793E-010	0.1101781	6
	41	14	79.00281	20822.2	-30462.97	1	36899.28	-55.64642	2.163417E-010	0.1101729	6
	42	15	63.3446	22935.46	-35887.46	1	42590.44	-57.4176	2.486874E-010	0.1101718	6
	43	15	49.86702	25669.8	-43026.95	1	50102.46	-59.17978	1.803906E-010	0.1101739	6
	44	16	39.72458	28846.45	-51289.91	1	58845.33	-60.64575	4.026746E-010	0.1101721	6
	45	16	31.6723	32786.57	-61201.18	1	69430.13	-61.82125	2.619759E-010	0.1101706	6
	46	16	24.93351	38074.56	-73758.31	1	83005.79	-62.6969	5.461502E-010	0.1101683	6
	47	17	19.86229	44584.13	-87992.61	1	98643	-63.12956	7.5197E-011	0.1101752	6
	48	17	15.83615	52868.61	-104445.4	1	117063.8	-63.1522	4.428896E-010	0.1101612	5
	49	17	12.40079	64371.87	-125161.3	1	140744.7	-62.78272	1.687257E-009	0.1101628	5
	50	17	9.93114	77388.59	-146355	1	165556	-62.13131	1.699653E-009	0.110164	5
	51	18	7.944915	93369.07	-170690	1	194558.1	-61.32092	-4.753575E-011	0.1101622	5
	52	18	6.317385	113135.7	-198261.1	1	228270	-60.2892	5.825563E-010	0.110149	5
	53	19	5.008013	137047.4	-229472.1	1	267281.5	-59.15313	6.773288E-010	0.1101663	5
	54	20	3.945707	166036.2	-264113.8	1	311968.1	-57.8443	-1.045711E-011	0.1101498	5
	55	21	3.158693	197072.5	-300168.2	1	359080.1	-56.71349	4.193897E-010	0.110163	5
	56	22	2.504006	233316.5	-340159.1	1	412486.1	-55.55362	1.107448E-010	0.1101584	5
	57	23	1.998082	271983.7	-383527.7	1	470179.3	-54.65714	-7.597788E-011	0.1101134	5
	58	25	1.584686	313509.9	-431740.2	1	533561.7	-54.01457	7.436293E-011	0.1101505	5
	59	27	1.266892	357589	-485107.8	1	602660.4	-53.60485	1.538529E-010	0.110181	5
	60	29	0.999041	405577.5	-552640.9	1	685496.2	-53.72543	1.844572E-010	0.110184	5
