EXPLAIN
TAG	EISPOT
TITLE	LABEL	Potentiostatic EIS	Test &Identifier
DATE	LABEL	6/26/2020	Date
TIME	LABEL	14:15:02	Time
NOTES	NOTES	1	&Notes...
	
PSTAT	PSTAT	REF600-11020	Potentiostat
VDC	POTEN	0.00000E+000	T	DC &Voltage (V)
FREQINIT	QUANT	1.00000E+006	Initial Fre&q. (Hz)
FREQFINAL	QUANT	1.00000E+000	Final Fre&q. (Hz)
PTSPERDEC	QUANT	1.00000E+001	Points/&decade
VAC	QUANT	2.50000E+001	AC &Voltage (mV rms)
AREA	QUANT	4.00000E-004	&Area (cm^2)
CONDIT	TWOPARAM	F	5.00000E+000	0.00000E+000	Conditionin&g	Time(s)	E(V)
DELAY	TWOPARAM	F	3.00000E+000	0.00000E+000	Init. De&lay	Time(s)	Stab.(mV/s)
SPEED	SELECTOR	0	&Optimize for:
ZGUESS	QUANT	1.00000E+003	E&stimated Z (ohms)
OCVCURVE	TABLE	39
	Pt	T	Vf	Vm	Ach	Over
	#	s	V vs. Ref.	V	V	bits
	0	0.258333	9.48429E-002	9.48429E-002	5.39216E-004	...........
	1	0.516667	9.48433E-002	9.48666E-002	5.37116E-004	...........
	2	0.775	9.48462E-002	9.48914E-002	5.36650E-004	...........
	3	1.03333	9.48543E-002	9.49163E-002	5.42316E-004	...........
	4	1.29167	9.48692E-002	9.49319E-002	5.39816E-004	...........
	5	1.55	9.48887E-002	9.49484E-002	5.39816E-004	...........
	6	1.80833	9.49095E-002	9.49687E-002	5.39716E-004	...........
	7	2.06667	9.49295E-002	9.49881E-002	5.43850E-004	...........
	8	2.325	9.49485E-002	9.50036E-002	5.41150E-004	...........
	9	2.58333	9.49671E-002	9.50213E-002	5.39850E-004	...........
	10	2.84167	9.49851E-002	9.50373E-002	5.37716E-004	...........
	11	3.1	9.50026E-002	9.50557E-002	5.37683E-004	...........
	12	3.35833	9.50197E-002	9.50708E-002	5.39483E-004	...........
	13	3.61667	9.50367E-002	9.50899E-002	5.38616E-004	...........
	14	3.875	9.50536E-002	9.51070E-002	5.38816E-004	...........
	15	4.13333	9.50708E-002	9.51245E-002	5.36483E-004	...........
	16	4.39167	9.50882E-002	9.51422E-002	5.32283E-004	...........
	17	4.65	9.51057E-002	9.51594E-002	5.36850E-004	...........
	18	4.90833	9.51231E-002	9.51741E-002	5.35516E-004	...........
	19	5.16667	9.51403E-002	9.51881E-002	5.37050E-004	...........
	20	5.425	9.51567E-002	9.52012E-002	5.37916E-004	...........
	21	5.68333	9.51721E-002	9.52175E-002	5.38616E-004	...........
	22	5.94167	9.51870E-002	9.52381E-002	5.38616E-004	...........
	23	6.2	9.52022E-002	9.52552E-002	5.39516E-004	...........
	24	6.45833	9.52184E-002	9.52705E-002	5.37616E-004	...........
	25	6.71667	9.52354E-002	9.52843E-002	5.36216E-004	...........
	26	6.975	9.52522E-002	9.52982E-002	5.38550E-004	...........
	27	7.23333	9.52681E-002	9.53143E-002	5.36783E-004	...........
	28	7.49167	9.52833E-002	9.53334E-002	5.37816E-004	...........
	29	7.75	9.52986E-002	9.53495E-002	5.36583E-004	...........
	30	8.00833	9.53145E-002	9.53653E-002	5.36850E-004	...........
	31	8.26667	9.53310E-002	9.53787E-002	5.35216E-004	...........
	32	8.525	9.53473E-002	9.53956E-002	5.34416E-004	...........
	33	8.78333	9.53632E-002	9.54131E-002	5.36650E-004	...........
	34	9.04167	9.53790E-002	9.54283E-002	5.32417E-004	...........
	35	9.3	9.53949E-002	9.54444E-002	5.37350E-004	...........
	36	9.5583	9.54110E-002	9.54609E-002	5.37316E-004	...........
	37	9.8167	9.54272E-002	9.54762E-002	5.31583E-004	...........
	38	10.075	9.54433E-002	9.54958E-002	5.40550E-004	...........
EOC	QUANT	0.0954433	Open Circuit (V)
PSTATMODEL	IQUANT	4	Pstat Model
PSTATSECTION	LABEL	REF600-11020	Pstat Section
PSTATSERIALNO	LABEL	11020	Pstat Serial Number
CTRLMODE	IQUANT	1	Control Mode
IESTAB	IQUANT	0	I/E Stability
CASPEED	IQUANT	1	Control Amp Speed
CONVENTION	IQUANT	1	Current Convention
ICHRANGE	IQUANT	2	Ich Range
ICHRANGEMODE	TOGGLE	F	Ich Auto Range
ICHOFFSETENABLE	TOGGLE	T	Ich Offset Enable
ICHOFFSET	QUANT	0	Ich Offset (V)
ICHFILTER	IQUANT	3	Ich Filter
VCHRANGE	IQUANT	2	Vch Range
VCHRANGEMODE	TOGGLE	F	Vch Auto Range
VCHOFFSETENABLE	TOGGLE	T	Vch Offset Enable
VCHOFFSET	QUANT	0	Vch Offset (V)
VCHFILTER	IQUANT	3	Vch Filter
ACHRANGE	IQUANT	2	Ach Range
ACHOFFSETENABLE	TOGGLE	F	Ach Offset Enable
ACHOFFSET	QUANT	0	Ach Offset (V)
ACHFILTER	IQUANT	3	Ach Filter
IERANGELOWERLIMIT	IQUANT	1	I/E Range Lower Limit
IERANGEMODE	TOGGLE	F	I/E AutoRange
IERANGE	IQUANT	8	I/E Range
POSFEEDENABLE	TOGGLE	F	Positive Feedback IR Comp
POSFEEDRESISTANCE	QUANT	0	Positive Feedback Resistance (ohm)
ACHSELECT	IQUANT	0	Ach Select
CABLEID	IQUANT	14	Cable ID
DCCALDATE	LABEL	6/26/2020	DC Calibration Date
ACCALDATE	LABEL	6/26/2020	AC Calibration Date
THERMOSELECT	IQUANT	1	Thermo Select
FRAMEWORKVERSION	QUANT	6.33	Framework Version
INSTRUMENTVERSION	LABEL	3.50	Instrument Version
ZCURVE	TABLE
	Pt	Time	Freq	Zreal	Zimag	Zsig	Zmod	Zphz	Idc	Vdc	IERange
	#	s	Hz	ohm	ohm	V	ohm	°	A	V	#
	0	1	1000078	1917.68	-1761.695	1	2604.048	-42.57243	5.581104E-008	0.097966	8
	1	1	794390.6	2270.287	-1825.471	1	2913.168	-38.80175	-2.285667E-008	0.0976651	8
	2	2	630984.4	2635.028	-1830.172	1	3208.255	-34.78211	7.3932E-008	0.0974778	8
	3	2	501234.4	2991.069	-1787.113	1	3484.289	-30.8576	1.678392E-008	0.0973802	8
	4	2	398109.4	3319.487	-1696.388	1	3727.832	-27.06882	2.263609E-008	0.0973163	8
	5	3	316265.6	3611.145	-1575.263	1	3939.774	-23.56791	2.92459E-008	0.0972869	8
	6	3	251203.1	3862.241	-1434.057	1	4119.882	-20.37005	-5.907431E-009	0.0972904	8
	7	3	199546.9	4063.248	-1285.421	1	4261.724	-17.55493	6.407799E-008	0.0973039	8
	8	4	158578.1	4235.86	-1146.479	1	4388.271	-15.14483	5.172549E-008	0.0972859	8
	9	4	125953.1	4399.834	-977.736	1	4507.162	-12.52875	-2.024394E-008	0.0972623	7
	10	4	100078.1	4514.182	-869.2853	1	4597.118	-10.89989	-4.226345E-009	0.0972409	7
	11	5	79453.13	4601.051	-780.546	1	4666.79	-9.62828	-1.040376E-008	0.097248	7
	12	5	63140.62	4674.477	-708.3891	1	4727.849	-8.617266	6.848611E-009	0.0972312	7
	13	5	50203.12	4737.706	-653.1428	1	4782.515	-7.849351	9.21143E-009	0.0972217	7
	14	5	39890.62	4793.189	-613.6675	1	4832.313	-7.295835	3.824742E-009	0.0972377	7
	15	6	31640.63	4845.069	-590.7947	1	4880.957	-6.952172	9.480211E-009	0.0972287	7
	16	6	25171.88	4892.098	-582.1153	1	4926.609	-6.785772	-7.583032E-009	0.0972446	7
	17	6	20015.62	4939.002	-589.9882	1	4974.116	-6.811985	7.089252E-009	0.0972201	7
	18	7	15890.62	4984.928	-614.0532	1	5022.605	-7.02243	8.995761E-009	0.0972101	7
	19	7	12609.37	5031.942	-655.8217	1	5074.5	-7.425601	1.067724E-008	0.0972244	7
	20	7	10078.13	5078.448	-713.817	1	5128.369	-8.00097	7.317418E-009	0.0972337	7
	21	8	8015.625	5128.183	-794.67	1	5189.389	-8.808569	4.629556E-009	0.097231	7
	22	8	6328.125	5183.361	-903.3641	1	5261.492	-9.8863	-5.258203E-010	0.0972358	7
	23	8	5015.625	5243.309	-1041.199	1	5345.688	-11.2315	-8.106561E-009	0.0972279	7
	24	9	3984.375	5308.109	-1212.237	1	5444.772	-12.86429	6.975181E-009	0.0972337	7
	25	9	3170.956	5380.542	-1424.222	1	5565.846	-14.8261	-9.416115E-009	0.0972354	7
	26	9	2527.573	5462.36	-1683.498	1	5715.903	-17.12928	-6.940774E-009	0.0972359	7
	27	10	1976.103	5564.763	-2033.541	1	5924.684	-20.07391	-7.13769E-009	0.0972343	7
	28	10	1577.524	5676.94	-2431.347	1	6175.687	-23.18472	9.117606E-009	0.0972097	7
	29	10	1265.625	5806.943	-2902.869	1	6492.091	-26.5603	1.039795E-008	0.0972129	7
	30	11	998.264	5975.621	-3522.951	1	6936.802	-30.52164	1.141074E-008	0.0972159	7
	31	11	796.875	6172.991	-4243.861	1	7491.073	-34.50808	1.004898E-008	0.0972106	7
	32	11	627.7902	6428.313	-5167.146	1	8247.581	-38.79269	-7.91396E-009	0.0972353	7
	33	12	505.5147	6716.985	-6191.147	1	9134.998	-42.66724	8.357355E-009	0.0972251	7
	34	12	397.9953	7117.557	-7556.044	1	10380.43	-46.71165	5.456575E-010	0.0972448	6
	35	12	315.5048	7603.521	-9168.021	1	11910.76	-50.3293	5.098216E-010	0.0972436	6
	36	12	252.4038	8189.333	-11031.86	1	13739.25	-53.41222	4.452396E-010	0.0972384	6
	37	13	198.6229	8984.391	-13439.24	1	16165.78	-56.2365	3.493301E-010	0.0972419	6
	38	13	158.3615	9934.3	-16169.95	1	18977.82	-58.43477	3.586266E-010	0.0972379	6
	39	13	125.558	11154.45	-19504.93	1	22469.17	-60.23569	2.356754E-010	0.0972431	6
	40	14	100.4464	12616.74	-23309.8	1	26505.26	-61.57495	8.250258E-011	0.0972374	6
	41	14	79.00281	14580.8	-28173.17	1	31722.66	-62.63654	5.794075E-010	0.097234	6
	42	14	63.3446	16824.98	-33468.37	1	37459.47	-63.31073	3.50889E-010	0.097234	6
	43	15	49.86702	19853.2	-40248.91	1	44879	-63.74469	1.952398E-010	0.0972287	6
	44	15	39.72458	23444.08	-47857.5	1	53291.33	-63.90104	1.866339E-010	0.0972307	6
	45	16	31.6723	27912.71	-56747.49	1	63240.79	-63.80855	-2.720208E-010	0.0972296	6
	46	16	24.93351	33854.94	-67660.6	1	75657.88	-63.41826	9.040724E-010	0.0972296	6
	47	16	19.86229	40924.15	-79643.17	1	89542.29	-62.80391	1.396304E-009	0.0972381	6
	48	16	15.83615	49698.96	-93255.78	1	105672.3	-61.94543	-3.108092E-010	0.0972239	5
	49	17	12.40079	61718.16	-109668.3	1	125842.2	-60.63044	2.27426E-009	0.097222	5
	50	17	9.93114	74569.77	-126003.7	1	146415.8	-59.38269	1.936226E-009	0.0972231	5
	51	17	7.944915	90332.39	-144058	1	170037.2	-57.91	-9.199441E-010	0.0972216	5
	52	18	6.317385	108702.8	-163781.9	1	196572.6	-56.42759	2.955045E-010	0.0972141	5
	53	19	5.008013	129745.5	-185069	1	226018.6	-54.96702	7.159608E-010	0.0972291	5
	54	20	3.945707	153982.4	-208078.2	1	258857.4	-53.49775	6.6408E-011	0.097209	5
	55	20	3.158693	177544.8	-231807.7	1	291987.9	-52.55099	3.608664E-010	0.0972251	5
	56	21	2.504006	203621.6	-258601.2	1	329144.8	-51.78324	-1.131348E-010	0.0972063	5
	57	23	1.998082	228821.7	-289316	1	368867.3	-51.65932	-1.545844E-010	0.0971798	5
	58	24	1.584686	255337.6	-325396.9	1	413618.7	-51.87887	3.957844E-011	0.0972287	5
	59	26	1.266892	282154.3	-369263.2	1	464721.8	-52.61653	7.266424E-011	0.0972428	5
	60	29	0.999041	310573	-427276.8	1	528224.4	-53.98787	5.460002E-011	0.0972334	5
