EXPLAIN
TAG	EISPOT
TITLE	LABEL	Potentiostatic EIS	Test &Identifier
DATE	LABEL	2/21/2020	Date
TIME	LABEL	16:56:45	Time
NOTES	NOTES	1	&Notes...
	
PSTAT	PSTAT	REF600-11020	Potentiostat
VDC	POTEN	0.00000E+000	T	DC &Voltage (V)
FREQINIT	QUANT	1.00000E+006	Initial Fre&q. (Hz)
FREQFINAL	QUANT	1.00000E+000	Final Fre&q. (Hz)
PTSPERDEC	QUANT	1.00000E+001	Points/&decade
VAC	QUANT	2.50000E+001	AC &Voltage (mV rms)
AREA	QUANT	2.08200E-005	&Area (cm^2)
CONDIT	TWOPARAM	F	1.50000E+001	0.00000E+000	Conditionin&g	Time(s)	E(V)
DELAY	TWOPARAM	F	1.00000E+002	0.00000E+000	Init. De&lay	Time(s)	Stab.(mV/s)
SPEED	SELECTOR	1	&Optimize for:
ZGUESS	QUANT	2.00000E+003	E&stimated Z (ohms)
OCVCURVE	TABLE	39
	Pt	T	Vf	Vm	Ach	Over
	#	s	V vs. Ref.	V	V	bits
	0	0.258333	1.95330E-002	1.95330E-002	5.73104E-004	...........
	1	0.516667	1.95364E-002	1.97082E-002	5.73638E-004	...........
	2	0.775	1.95534E-002	1.96893E-002	5.73238E-004	...........
	3	1.03333	1.95914E-002	1.97573E-002	5.74038E-004	...........
	4	1.29167	1.96436E-002	1.98062E-002	5.70138E-004	...........
	5	1.55	1.96994E-002	1.99104E-002	5.69838E-004	...........
	6	1.80833	1.97623E-002	2.02161E-002	5.69004E-004	...........
	7	2.06667	1.98542E-002	2.04495E-002	5.70338E-004	...........
	8	2.325	1.99933E-002	2.04565E-002	5.71604E-004	...........
	9	2.58333	2.01631E-002	2.05270E-002	5.69071E-004	...........
	10	2.84167	2.03185E-002	2.04805E-002	5.70538E-004	...........
	11	3.1	2.04206E-002	2.02495E-002	5.67238E-004	...........
	12	3.35833	2.04497E-002	2.02136E-002	5.70704E-004	...........
	13	3.61667	2.04117E-002	2.02956E-002	5.69471E-004	...........
	14	3.875	2.03439E-002	2.02038E-002	5.70238E-004	...........
	15	4.13333	2.02858E-002	2.01957E-002	5.74771E-004	...........
	16	4.39167	2.02469E-002	2.01409E-002	5.71504E-004	...........
	17	4.65	2.02171E-002	2.01624E-002	5.74038E-004	...........
	18	4.90833	2.01888E-002	2.00384E-002	5.75004E-004	...........
	19	5.16667	2.01557E-002	1.99400E-002	5.74937E-004	...........
	20	5.425	2.01097E-002	1.99717E-002	5.71804E-004	...........
	21	5.68333	2.00538E-002	1.99464E-002	5.70471E-004	...........
	22	5.94167	2.00028E-002	1.98993E-002	5.67504E-004	...........
	23	6.2	1.99647E-002	1.98762E-002	5.66704E-004	...........
	24	6.45833	1.99351E-002	1.98724E-002	5.67404E-004	...........
	25	6.71667	1.99094E-002	1.98472E-002	5.69404E-004	...........
	26	6.975	1.98872E-002	1.98345E-002	5.66504E-004	...........
	27	7.23333	1.98681E-002	1.98131E-002	5.70538E-004	...........
	28	7.49167	1.98507E-002	1.98038E-002	5.69338E-004	...........
	29	7.75	1.98342E-002	1.97960E-002	5.74238E-004	...........
	30	8.00833	1.98193E-002	1.97799E-002	5.76304E-004	...........
	31	8.26667	1.98061E-002	1.97726E-002	5.74404E-004	...........
	32	8.525	1.97926E-002	1.96711E-002	5.73571E-004	...........
	33	8.78333	1.97680E-002	1.94250E-002	5.73004E-004	...........
	34	9.04167	1.97174E-002	1.95841E-002	5.70238E-004	...........
	35	9.3	1.96486E-002	1.96740E-002	5.71371E-004	...........
	36	9.5583	1.96035E-002	1.98545E-002	5.69771E-004	...........
	37	9.8167	1.96171E-002	1.98209E-002	5.71704E-004	...........
	38	10.075	1.96797E-002	1.98159E-002	5.73937E-004	...........
EOC	QUANT	0.0196797	Open Circuit (V)
PSTATMODEL	IQUANT	4	Pstat Model
PSTATSECTION	LABEL	REF600-11020	Pstat Section
PSTATSERIALNO	LABEL	11020	Pstat Serial Number
CTRLMODE	IQUANT	1	Control Mode
IESTAB	IQUANT	0	I/E Stability
CASPEED	IQUANT	1	Control Amp Speed
CONVENTION	IQUANT	1	Current Convention
ICHRANGE	IQUANT	2	Ich Range
ICHRANGEMODE	TOGGLE	F	Ich Auto Range
ICHOFFSETENABLE	TOGGLE	T	Ich Offset Enable
ICHOFFSET	QUANT	0	Ich Offset (V)
ICHFILTER	IQUANT	3	Ich Filter
VCHRANGE	IQUANT	2	Vch Range
VCHRANGEMODE	TOGGLE	F	Vch Auto Range
VCHOFFSETENABLE	TOGGLE	T	Vch Offset Enable
VCHOFFSET	QUANT	0	Vch Offset (V)
VCHFILTER	IQUANT	3	Vch Filter
ACHRANGE	IQUANT	2	Ach Range
ACHOFFSETENABLE	TOGGLE	F	Ach Offset Enable
ACHOFFSET	QUANT	0	Ach Offset (V)
ACHFILTER	IQUANT	3	Ach Filter
IERANGELOWERLIMIT	IQUANT	1	I/E Range Lower Limit
IERANGEMODE	TOGGLE	F	I/E AutoRange
IERANGE	IQUANT	7	I/E Range
POSFEEDENABLE	TOGGLE	F	Positive Feedback IR Comp
POSFEEDRESISTANCE	QUANT	0	Positive Feedback Resistance (ohm)
ACHSELECT	IQUANT	0	Ach Select
CABLEID	IQUANT	14	Cable ID
DCCALDATE	LABEL	1/27/2020	DC Calibration Date
ACCALDATE	LABEL	1/27/2020	AC Calibration Date
THERMOSELECT	IQUANT	1	Thermo Select
FRAMEWORKVERSION	QUANT	6.33	Framework Version
INSTRUMENTVERSION	LABEL	3.50	Instrument Version
ZCURVE	TABLE
	Pt	Time	Freq	Zreal	Zimag	Zsig	Zmod	Zphz	Idc	Vdc	IERange
	#	s	Hz	ohm	ohm	V	ohm	°	A	V	#
	0	1	1000078	1608.894	-1965.614	1	2540.114	-50.69899	-4.472776E-007	0.0221402	8
	1	3	794390.6	1981.135	-2115.666	1	2898.437	-46.88079	-5.788467E-007	0.0218932	8
	2	4	630984.4	2379.979	-2233.967	1	3264.186	-43.18742	-1.043517E-006	0.021817	8
	3	5	501234.4	2807.093	-2297.352	1	3627.34	-39.29722	-4.693644E-007	0.0215773	8
	4	7	398109.4	3243.777	-2318.282	1	3987.045	-35.55286	2.286241E-007	0.0213438	8
	5	8	316265.6	3668.225	-2283.397	1	4320.854	-31.90144	-9.872432E-008	0.0213518	8
	6	9	251203.1	4064.891	-2213.657	1	4628.565	-28.57182	1.808368E-006	0.0209659	8
	7	11	199546.9	4440.047	-2109.185	1	4915.555	-25.40944	-1.941808E-007	0.0213797	8
	8	12	158578.1	4765.923	-2000.407	1	5168.719	-22.76932	1.723017E-006	0.0211058	8
	9	14	125953.1	5079.02	-1845.788	1	5404.015	-19.97186	1.926436E-008	0.0211995	7
	10	15	100078.1	5331.669	-1722.893	1	5603.129	-17.90788	-1.043971E-008	0.0213052	7
	11	16	79453.13	5560.318	-1606.864	1	5787.845	-16.11865	-1.307288E-008	0.0212857	7
	12	18	63140.62	5760.573	-1505.3	1	5954.001	-14.64454	-1.305569E-008	0.0212887	7
	13	19	50203.12	5938.022	-1421.683	1	6105.841	-13.46432	-1.187998E-008	0.0212849	7
	14	20	39890.62	6103.115	-1354.659	1	6251.648	-12.5146	-4.678689E-009	0.0212544	7
	15	22	31640.63	6257.903	-1307.227	1	6392.98	-11.79897	4.723354E-008	0.021222	7
	16	23	25171.88	6401.581	-1279.449	1	6528.187	-11.30247	-1.732979E-009	0.021307	7
	17	24	20015.62	6540.791	-1270.716	1	6663.083	-10.99422	-8.603428E-009	0.0212922	7
	18	26	15890.62	6678.05	-1280.844	1	6799.773	-10.85742	1.098203E-008	0.0212614	7
	19	27	12609.37	6813.757	-1315.635	1	6939.61	-10.92848	2.607255E-008	0.0212201	7
	20	29	10078.13	6944.868	-1367.75	1	7078.271	-11.14148	6.688329E-009	0.021291	7
	21	30	8015.625	7082.995	-1448.322	1	7229.554	-11.55646	4.779644E-008	0.0212133	7
	22	31	6328.125	7223.874	-1558.868	1	7390.157	-12.17735	-3.352413E-009	0.0212473	7
	23	33	5015.625	7374.147	-1703.702	1	7568.397	-13.00919	4.736045E-008	0.0211841	7
	24	34	3984.375	7526.679	-1882.949	1	7758.633	-14.04541	-2.702485E-009	0.0212431	7
	25	35	3170.956	7682.599	-2106.626	1	7966.19	-15.33403	1.270445E-008	0.0212203	7
	26	37	2527.573	7850.415	-2379.077	1	8202.988	-16.8595	1.337298E-008	0.0212204	7
	27	38	1976.103	8043.402	-2750.417	1	8500.653	-18.87797	2.759742E-008	0.0212121	7
	28	40	1577.524	8228.847	-3170.844	1	8818.626	-21.07331	-1.158508E-008	0.0212919	7
	29	41	1265.625	8426.801	-3677.304	1	9194.212	-23.57559	-3.427711E-009	0.0212674	6
	30	42	998.264	8654.156	-4357.298	1	9689.19	-26.72489	-1.542783E-009	0.0212992	6
	31	44	796.875	8901.099	-5158.058	1	10287.62	-30.09167	-1.171203E-010	0.0212968	6
	32	45	627.7902	9206.884	-6211.037	1	11106.02	-34.00392	-3.080113E-009	0.0213036	6
	33	46	505.5147	9536.43	-7384.862	1	12061.5	-37.75363	-3.493931E-009	0.021303	6
	34	48	397.9953	9981.39	-8970.003	1	13419.73	-41.94516	8.347587E-010	0.0212765	6
	35	49	315.5048	10525.63	-10862.86	1	15125.83	-45.90328	1.401117E-009	0.0212756	6
	36	50	252.4038	11182.22	-13067.74	1	17199.07	-49.44599	6.977824E-010	0.0212699	6
	37	52	198.6229	12074.01	-15937.68	1	19994.78	-52.85329	1.302154E-009	0.0212694	6
	38	53	158.3615	13147.25	-19211.02	1	23279.03	-55.61382	9.255181E-010	0.0212698	6
	39	55	125.558	14551.11	-23237.59	1	27417.52	-57.94568	1.008049E-009	0.0212715	6
	40	56	100.4464	16249.81	-27823.53	1	32221.19	-59.71373	5.189952E-010	0.021274	6
	41	57	79.00281	18586.43	-33772.95	1	38549.54	-61.17448	5.592903E-010	0.0212686	6
	42	59	63.3446	21013.21	-40245.14	1	45400.73	-62.42957	6.522702E-010	0.0212704	6
	43	60	49.86702	24911.17	-48214.13	1	54269.41	-62.67561	1.079667E-009	0.0212664	6
	44	62	39.72458	29216.39	-57564	1	64553.94	-63.0901	1.212498E-009	0.0212681	6
	45	63	31.6723	34716.04	-68348.7	1	76659.95	-63.07283	5.123695E-010	0.0212671	6
	46	64	24.93351	41971.94	-81396.82	1	91581.03	-62.72229	6.30105E-010	0.0212632	6
	47	66	19.86229	50542.9	-95480.2	1	108032.6	-62.10527	1.07794E-009	0.0212669	5
	48	67	15.83615	61575.18	-111402.8	1	127287.4	-61.06944	8.457461E-010	0.0212591	5
	49	68	12.40079	74996.12	-130937.4	1	150894.1	-60.19752	9.661281E-010	0.0212578	5
	50	70	9.93114	89849.7	-149913.6	1	174777.2	-59.06393	-2.754417E-010	0.0212635	5
	51	71	7.944915	106875.7	-170958.6	1	201616.6	-57.98821	9.832904E-010	0.0212552	5
	52	73	6.317385	126782.2	-195444.3	1	232964	-57.02904	1.243205E-010	0.0212705	5
	53	75	5.008013	149253.3	-222882.6	1	268240.9	-56.19177	1.516303E-010	0.0212568	5
	54	78	3.945707	174550.5	-254623.6	1	308708.6	-55.56844	4.371059E-010	0.0212647	5
	55	80	3.158693	201143.2	-288982	1	352092.6	-55.16051	-7.002949E-011	0.0212536	5
	56	84	2.504006	231576.6	-330027.3	1	403169.6	-54.94308	5.695293E-010	0.0212614	5
	57	86	1.998082	264808.3	-376329	1	460159.7	-54.86742	2.011171E-010	0.0212959	5
	58	90	1.584686	302282.5	-431169.5	1	526575.6	-54.96663	2.145783E-010	0.0212347	5
	59	93	1.266892	344575.4	-495340.4	1	603402.3	-55.17623	2.481163E-010	0.0212871	5
	60	98	0.999041	396254.6	-573324.8	1	696935.4	-55.34964	-1.150007E-010	0.0212235	5
