EXPLAIN
TAG	EISPOT
TITLE	LABEL	Potentiostatic EIS	Test &Identifier
DATE	LABEL	6/14/2020	Date
TIME	LABEL	21:12:11	Time
NOTES	NOTES	1	&Notes...
	
PSTAT	PSTAT	REF600-10037	Potentiostat
VDC	POTEN	0.00000E+000	T	DC &Voltage (V)
FREQINIT	QUANT	1.00000E+006	Initial Fre&q. (Hz)
FREQFINAL	QUANT	1.00000E+000	Final Fre&q. (Hz)
PTSPERDEC	QUANT	1.00000E+001	Points/&decade
VAC	QUANT	2.50000E+001	AC &Voltage (mV rms)
AREA	QUANT	2.50000E-001	&Area (cm^2)
CONDIT	TWOPARAM	F	5.00000E+000	0.00000E+000	Conditionin&g	Time(s)	E(V)
DELAY	TWOPARAM	F	3.00000E+000	0.00000E+000	Init. De&lay	Time(s)	Stab.(mV/s)
SPEED	SELECTOR	0	&Optimize for:
ZGUESS	QUANT	1.00000E+003	E&stimated Z (ohms)
OCVCURVE	TABLE	39
	Pt	T	Vf	Vm	Ach	Over
	#	s	V vs. Ref.	V	V	bits
	0	0.258333	-8.76768E-002	-8.76768E-002	5.46320E-004	...........
	1	0.516667	-8.76770E-002	-8.76862E-002	5.41054E-004	...........
	2	0.775	-8.76780E-002	-8.76921E-002	5.43787E-004	...........
	3	1.03333	-8.76808E-002	-8.76977E-002	5.38687E-004	...........
	4	1.29167	-8.76853E-002	-8.77017E-002	5.46754E-004	...........
	5	1.55	-8.76909E-002	-8.77097E-002	5.50220E-004	...........
	6	1.80833	-8.76967E-002	-8.77162E-002	5.46487E-004	...........
	7	2.06667	-8.77028E-002	-8.77250E-002	5.44421E-004	...........
	8	2.325	-8.77094E-002	-8.77356E-002	5.47487E-004	...........
	9	2.58333	-8.77168E-002	-8.77412E-002	5.47420E-004	...........
	10	2.84167	-8.77248E-002	-8.77468E-002	5.36887E-004	...........
	11	3.1	-8.77327E-002	-8.77505E-002	5.38821E-004	...........
	12	3.35833	-8.77396E-002	-8.77528E-002	5.43720E-004	...........
	13	3.61667	-8.77451E-002	-8.77550E-002	5.43787E-004	...........
	14	3.875	-8.77493E-002	-8.77577E-002	5.36554E-004	...........
	15	4.13333	-8.77525E-002	-8.77635E-002	5.33321E-004	...........
	16	4.39167	-8.77555E-002	-8.77676E-002	5.42354E-004	...........
	17	4.65	-8.77589E-002	-8.77733E-002	5.43554E-004	...........
	18	4.90833	-8.77630E-002	-8.77752E-002	5.38187E-004	...........
	19	5.16667	-8.77673E-002	-8.77779E-002	5.43620E-004	...........
	20	5.425	-8.77714E-002	-8.77821E-002	5.51387E-004	...........
	21	5.68333	-8.77750E-002	-8.77841E-002	5.49087E-004	...........
	22	5.94167	-8.77782E-002	-8.77853E-002	5.45387E-004	...........
	23	6.2	-8.77811E-002	-8.77937E-002	5.44854E-004	...........
	24	6.45833	-8.77841E-002	-8.77962E-002	5.50954E-004	...........
	25	6.71667	-8.77877E-002	-8.78032E-002	5.43220E-004	...........
	26	6.975	-8.77922E-002	-8.78132E-002	5.35221E-004	...........
	27	7.23333	-8.77976E-002	-8.78207E-002	5.41621E-004	...........
	28	7.49167	-8.78042E-002	-8.78250E-002	5.46554E-004	...........
	29	7.75	-8.78113E-002	-8.78273E-002	5.41754E-004	...........
	30	8.00833	-8.78178E-002	-8.78287E-002	5.36854E-004	...........
	31	8.26667	-8.78229E-002	-8.78332E-002	5.43720E-004	...........
	32	8.525	-8.78267E-002	-8.78361E-002	5.43754E-004	...........
	33	8.78333	-8.78298E-002	-8.78371E-002	5.33087E-004	...........
	34	9.04167	-8.78325E-002	-8.78401E-002	5.40721E-004	...........
	35	9.3	-8.78351E-002	-8.78428E-002	5.48020E-004	...........
	36	9.5583	-8.78376E-002	-8.78461E-002	5.44120E-004	...........
	37	9.8167	-8.78402E-002	-8.78502E-002	5.42687E-004	...........
	38	10.075	-8.78430E-002	-8.78516E-002	5.43320E-004	...........
EOC	QUANT	-0.087843	Open Circuit (V)
PSTATMODEL	IQUANT	4	Pstat Model
PSTATSECTION	LABEL	REF600-10037	Pstat Section
PSTATSERIALNO	LABEL	10037	Pstat Serial Number
CTRLMODE	IQUANT	1	Control Mode
IESTAB	IQUANT	0	I/E Stability
CASPEED	IQUANT	1	Control Amp Speed
CONVENTION	IQUANT	1	Current Convention
ICHRANGE	IQUANT	2	Ich Range
ICHRANGEMODE	TOGGLE	F	Ich Auto Range
ICHOFFSETENABLE	TOGGLE	T	Ich Offset Enable
ICHOFFSET	QUANT	0	Ich Offset (V)
ICHFILTER	IQUANT	3	Ich Filter
VCHRANGE	IQUANT	2	Vch Range
VCHRANGEMODE	TOGGLE	F	Vch Auto Range
VCHOFFSETENABLE	TOGGLE	T	Vch Offset Enable
VCHOFFSET	QUANT	0	Vch Offset (V)
VCHFILTER	IQUANT	3	Vch Filter
ACHRANGE	IQUANT	2	Ach Range
ACHOFFSETENABLE	TOGGLE	F	Ach Offset Enable
ACHOFFSET	QUANT	0	Ach Offset (V)
ACHFILTER	IQUANT	3	Ach Filter
IERANGELOWERLIMIT	IQUANT	1	I/E Range Lower Limit
IERANGEMODE	TOGGLE	F	I/E AutoRange
IERANGE	IQUANT	8	I/E Range
POSFEEDENABLE	TOGGLE	F	Positive Feedback IR Comp
POSFEEDRESISTANCE	QUANT	0	Positive Feedback Resistance (ohm)
ACHSELECT	IQUANT	0	Ach Select
CABLEID	IQUANT	14	Cable ID
DCCALDATE	LABEL	6/8/2020	DC Calibration Date
ACCALDATE	LABEL	6/8/2020	AC Calibration Date
THERMOSELECT	IQUANT	1	Thermo Select
FRAMEWORKVERSION	QUANT	6.33	Framework Version
INSTRUMENTVERSION	LABEL	3.50	Instrument Version
ZCURVE	TABLE
	Pt	Time	Freq	Zreal	Zimag	Zsig	Zmod	Zphz	Idc	Vdc	IERange
	#	s	Hz	ohm	ohm	V	ohm	°	A	V	#
	0	1	1000078	2119.553	-2030.84	1	2935.441	-43.77552	-1.152524E-007	-0.0786682	8
	1	1	794390.6	2538.148	-2122.381	1	3308.579	-39.90211	6.797772E-008	-0.0788769	8
	2	2	630984.4	2975.885	-2142.725	1	3667.037	-35.755	7.089466E-008	-0.0790383	8
	3	2	501234.4	3399.083	-2093.282	1	3991.941	-31.62631	1.169117E-007	-0.079098	8
	4	2	398109.4	3789.634	-1990.503	1	4280.587	-27.71067	-4.144507E-008	-0.0791942	8
	5	3	316265.6	4134.596	-1842.526	1	4526.564	-24.01948	-8.219097E-008	-0.0791874	8
	6	3	251203.1	4416.906	-1670.575	1	4722.275	-20.71777	3.320602E-008	-0.0791278	8
	7	3	199546.9	4642.311	-1505.295	1	4880.263	-17.96558	5.152788E-007	-0.079204	8
	8	4	158578.1	4837.098	-1356.762	1	5023.775	-15.66832	1.169604E-007	-0.0791359	8
	9	4	125953.1	5075.004	-1052.155	1	5182.924	-11.71269	2.889246E-007	-0.0794847	7
	10	4	100078.1	5180.227	-969.988	1	5270.259	-10.60571	-8.516815E-008	-0.0790939	7
	11	5	79453.13	5267.847	-911.0555	1	5346.048	-9.81204	6.928576E-008	-0.0792085	7
	12	5	63140.62	5350.647	-875.2154	1	5421.755	-9.289709	5.389774E-008	-0.0791816	7
	13	5	50203.12	5429.708	-859.7096	1	5497.348	-8.997203	7.538971E-008	-0.0793085	7
	14	6	39890.62	5507.968	-865.3288	1	5575.528	-8.928468	-6.203216E-008	-0.0790842	7
	15	6	31640.63	5586.598	-891.3041	1	5657.252	-9.064759	1.068083E-008	-0.0792766	7
	16	6	25171.88	5668.775	-938.0909	1	5745.87	-9.396373	8.468308E-008	-0.0792969	7
	17	6	20015.62	5754.962	-1005.224	1	5842.094	-9.90794	7.645384E-008	-0.0793094	7
	18	7	15890.62	5849.208	-1094.07	1	5950.649	-10.59451	3.725788E-008	-0.0791613	7
	19	7	12609.37	5954.481	-1210.844	1	6076.347	-11.49438	-8.438513E-008	-0.0791131	7
	20	7	10078.13	6066.246	-1351.164	1	6214.9	-12.55679	1.172235E-008	-0.0792729	7
	21	8	8015.625	6189.576	-1524.968	1	6374.667	-13.8407	6.19917E-008	-0.0793061	7
	22	8	6328.125	6334.326	-1739.964	1	6568.955	-15.35963	8.557164E-008	-0.079288	7
	23	8	5015.625	6494.627	-1994.877	1	6794.094	-17.07476	-1.347046E-008	-0.079106	7
	24	9	3984.375	6678.146	-2299.281	1	7062.883	-18.99855	-7.336067E-008	-0.0791437	7
	25	9	3170.956	6881.979	-2655.597	1	7376.574	-21.10045	8.714983E-008	-0.0792678	7
	26	9	2527.573	7114.89	-3074.605	1	7750.797	-23.37095	8.744751E-008	-0.0792689	7
	27	10	1976.103	7404.644	-3613.34	1	8239.234	-26.01159	1.35976E-008	-0.079132	7
	28	10	1577.524	7711.796	-4200.945	1	8781.784	-28.57902	-7.532483E-008	-0.079078	7
	29	10	1265.625	8054.875	-4874.38	1	9414.914	-31.18009	5.500589E-008	-0.0791844	7
	30	11	998.264	8488.955	-5709.513	1	10230.39	-33.92404	4.672069E-009	-0.0793593	6
	31	11	796.875	8942.477	-6678.9	1	11161.34	-36.75508	-1.195139E-008	-0.0791323	6
	32	11	627.7902	9488.94	-7902.37	1	12348.58	-39.78746	1.187247E-008	-0.0792581	6
	33	12	505.5147	10043.74	-9223.146	1	13636.1	-42.56119	6.167798E-010	-0.0793209	6
	34	12	397.9953	10742.43	-10971.49	1	15354.91	-45.60439	6.352225E-010	-0.079178	6
	35	12	315.5048	11520.95	-13028.86	1	17392.05	-48.51484	6.029134E-010	-0.0791756	6
	36	13	252.4038	12382.01	-15415.61	1	19772.59	-51.22814	5.859705E-010	-0.0791807	6
	37	13	198.6229	13465.12	-18527.93	1	22904.01	-53.99233	5.666404E-010	-0.0791764	6
	38	13	158.3615	14683.82	-22108.34	1	26540.41	-56.40885	6.101535E-010	-0.0791803	6
	39	13	125.558	16193.47	-26550.47	1	31099.13	-58.62044	5.675515E-010	-0.0791762	6
	40	14	100.4464	17970.48	-31710.69	1	36448.67	-60.45973	5.63057E-010	-0.0791784	6
	41	14	79.00281	20336.55	-38417.61	1	43468.24	-62.10528	2.649885E-010	-0.0791802	6
	42	14	63.3446	23104.57	-45780.74	1	51280.57	-63.22089	3.590052E-010	-0.0791817	6
	43	15	49.86702	26811.32	-55371.23	1	61520.89	-64.16326	5.66445E-010	-0.0791787	6
	44	15	39.72458	31228.06	-66255.23	1	73245.8	-64.76411	6.911805E-010	-0.0791724	6
	45	16	31.6723	36735.24	-79044.55	1	87163.74	-65.07378	7.249719E-010	-0.0791821	6
	46	16	24.93351	44088.98	-94962.38	1	104698.1	-65.09557	7.345258E-010	-0.079184	6
	47	16	19.86229	52349.67	-112161.5	1	123776.8	-64.9799	-4.798632E-009	-0.0878123	5
	48	17	15.83615	63019.4	-132603.3	1	146816.5	-64.58071	-3.414283E-009	-0.087821	5
	49	17	12.40079	77877.63	-158492.9	1	176592.6	-63.83219	-2.475289E-009	-0.0878157	5
	50	17	9.93114	94491.43	-185308.5	1	208009.3	-62.98232	-1.821216E-009	-0.0878147	5
	51	18	7.944915	115182.8	-215737.1	1	244560	-61.90208	-1.534431E-009	-0.0878122	5
	52	18	6.317385	140885.2	-250424.5	1	287334.5	-60.63852	-9.950961E-010	-0.0878122	5
	53	19	5.008013	172362	-289250.1	1	336711	-59.20959	-7.43957E-010	-0.0878171	5
	54	20	3.945707	210741.8	-332572.7	1	393721.6	-57.63873	-5.739916E-010	-0.0878159	5
	55	21	3.158693	252177.3	-376082.2	1	452803.8	-56.15666	-4.724305E-010	-0.087816	5
	56	22	2.504006	302621	-424629.5	1	521430.5	-54.52364	-3.496416E-010	-0.0878188	5
	57	24	1.998082	355429.4	-474450.9	1	592818.4	-53.16171	-2.944908E-010	-0.0878217	5
	58	26	1.584686	414056.2	-529463	1	672141.1	-51.97351	-1.91106E-010	-0.0878188	5
	59	29	1.266892	473426.2	-587527.1	1	754533.3	-51.13832	-1.286769E-010	-0.0878233	5
	60	32	0.999041	538674.3	-657727.3	1	850161.8	-50.68275	-1.265384E-010	-0.0878192	5
