EXPLAIN
TAG	EISPOT
TITLE	LABEL	Potentiostatic EIS	Test &Identifier
DATE	LABEL	3/9/2020	Date
TIME	LABEL	20:49:29	Time
NOTES	NOTES	1	&Notes...
	
PSTAT	PSTAT	REF600-11020	Potentiostat
VDC	POTEN	0.00000E+000	T	DC &Voltage (V)
FREQINIT	QUANT	1.00000E+006	Initial Fre&q. (Hz)
FREQFINAL	QUANT	1.00000E+000	Final Fre&q. (Hz)
PTSPERDEC	QUANT	1.00000E+001	Points/&decade
VAC	QUANT	2.50000E+001	AC &Voltage (mV rms)
AREA	QUANT	4.00000E-005	&Area (cm^2)
CONDIT	TWOPARAM	F	5.00000E+000	0.00000E+000	Conditionin&g	Time(s)	E(V)
DELAY	TWOPARAM	T	3.00000E+000	0.00000E+000	Init. De&lay	Time(s)	Stab.(mV/s)
SPEED	SELECTOR	0	&Optimize for:
ZGUESS	QUANT	1.00000E+003	E&stimated Z (ohms)
OCVCURVE	TABLE	12
	Pt	T	Vf	Vm	Ach	Over
	#	s	V vs. Ref.	V	V	bits
	0	0.258333	1.41432E-002	1.41432E-002	5.74797E-004	...........
	1	0.516667	1.41428E-002	1.41214E-002	5.72630E-004	...........
	2	0.775	1.41402E-002	1.41007E-002	5.78263E-004	...........
	3	1.03333	1.41330E-002	1.40827E-002	5.79563E-004	...........
	4	1.29167	1.41202E-002	1.40602E-002	5.77663E-004	...........
	5	1.55	1.41030E-002	1.40409E-002	5.76497E-004	...........
	6	1.80833	1.40835E-002	1.40233E-002	5.77663E-004	...........
	7	2.06667	1.40634E-002	1.40034E-002	5.82897E-004	...........
	8	2.325	1.40435E-002	1.39830E-002	5.78397E-004	...........
	9	2.58333	1.40240E-002	1.39657E-002	5.77197E-004	...........
	10	2.84167	1.40047E-002	1.39481E-002	5.76697E-004	...........
	11	3.1	1.39859E-002	1.39324E-002	5.77197E-004	...........
EOC	QUANT	0.0139859	Open Circuit (V)
PSTATMODEL	IQUANT	4	Pstat Model
PSTATSECTION	LABEL	REF600-11020	Pstat Section
PSTATSERIALNO	LABEL	11020	Pstat Serial Number
CTRLMODE	IQUANT	1	Control Mode
IESTAB	IQUANT	0	I/E Stability
CASPEED	IQUANT	1	Control Amp Speed
CONVENTION	IQUANT	1	Current Convention
ICHRANGE	IQUANT	2	Ich Range
ICHRANGEMODE	TOGGLE	F	Ich Auto Range
ICHOFFSETENABLE	TOGGLE	T	Ich Offset Enable
ICHOFFSET	QUANT	0	Ich Offset (V)
ICHFILTER	IQUANT	3	Ich Filter
VCHRANGE	IQUANT	2	Vch Range
VCHRANGEMODE	TOGGLE	F	Vch Auto Range
VCHOFFSETENABLE	TOGGLE	T	Vch Offset Enable
VCHOFFSET	QUANT	0	Vch Offset (V)
VCHFILTER	IQUANT	3	Vch Filter
ACHRANGE	IQUANT	2	Ach Range
ACHOFFSETENABLE	TOGGLE	F	Ach Offset Enable
ACHOFFSET	QUANT	0	Ach Offset (V)
ACHFILTER	IQUANT	3	Ach Filter
IERANGELOWERLIMIT	IQUANT	1	I/E Range Lower Limit
IERANGEMODE	TOGGLE	F	I/E AutoRange
IERANGE	IQUANT	7	I/E Range
POSFEEDENABLE	TOGGLE	F	Positive Feedback IR Comp
POSFEEDRESISTANCE	QUANT	0	Positive Feedback Resistance (ohm)
ACHSELECT	IQUANT	0	Ach Select
CABLEID	IQUANT	14	Cable ID
DCCALDATE	LABEL	2/27/2020	DC Calibration Date
ACCALDATE	LABEL	2/27/2020	AC Calibration Date
THERMOSELECT	IQUANT	1	Thermo Select
FRAMEWORKVERSION	QUANT	6.33	Framework Version
INSTRUMENTVERSION	LABEL	3.50	Instrument Version
ZCURVE	TABLE
	Pt	Time	Freq	Zreal	Zimag	Zsig	Zmod	Zphz	Idc	Vdc	IERange
	#	s	Hz	ohm	ohm	V	ohm	°	A	V	#
	0	1	1000078	1630.539	-1860.707	1	2474.043	-48.7719	5.336146E-008	0.0163423	8
	1	1	794390.6	1950.579	-2042.051	1	2823.957	-46.31242	6.047974E-008	0.0160074	8
	2	2	630984.4	2313.861	-2202.979	1	3194.851	-43.59375	5.457787E-008	0.0158668	8
	3	2	501234.4	2716.977	-2335.851	1	3583.038	-40.68645	9.068447E-008	0.0157279	8
	4	2	398109.4	3152.813	-2428.267	1	3979.536	-37.60313	5.544989E-008	0.0157071	8
	5	3	316265.6	3608.518	-2477.481	1	4377.136	-34.47212	5.581429E-008	0.0156816	8
	6	3	251203.1	4074.543	-2467.731	1	4763.569	-31.20103	4.237468E-008	0.0156454	8
	7	3	199546.9	4532.695	-2412.726	1	5134.838	-28.0261	4.81268E-008	0.0156508	8
	8	4	158578.1	4961.431	-2301.764	1	5469.361	-24.88807	4.050747E-008	0.0156598	8
	9	4	125953.1	5423.283	-2056.795	1	5800.208	-20.76937	-3.279295E-009	0.0155875	7
	10	4	100078.1	5736.798	-1890.642	1	6040.313	-18.24036	6.355587E-010	0.0155865	7
	11	4	79453.13	6021.921	-1720.672	1	6262.926	-15.94648	9.41351E-010	0.0155786	7
	12	5	63140.62	6261.987	-1546.396	1	6450.103	-13.87164	1.732533E-009	0.0155825	7
	13	5	50203.12	6456.117	-1378.076	1	6601.556	-12.04912	5.029839E-010	0.0155752	7
	14	5	39890.62	6615.986	-1225.489	1	6728.528	-10.49404	3.340632E-010	0.0155757	7
	15	6	31640.63	6744.967	-1092.183	1	6832.821	-9.197824	1.344205E-009	0.0155756	7
	16	6	25171.88	6848.086	-983.394	1	6918.334	-8.171885	1.890352E-009	0.0155762	7
	17	6	20015.62	6933.597	-897.8962	1	6991.494	-7.378701	7.042786E-010	0.0155714	7
	18	7	15890.62	7004.937	-836.4316	1	7054.697	-6.809222	5.500146E-010	0.0155682	7
	19	7	12609.37	7066.72	-800.6044	1	7111.927	-6.463606	6.533379E-010	0.0155688	7
	20	7	10078.13	7120.611	-789.1818	1	7164.21	-6.324317	6.770682E-010	0.0155673	7
	21	8	8015.625	7170.918	-802.1978	1	7215.648	-6.383038	7.036398E-010	0.0155699	7
	22	8	6328.125	7217.371	-844.3225	1	7266.589	-6.672406	1.689407E-009	0.0155692	7
	23	8	5015.625	7264.834	-916.4521	1	7322.411	-7.189831	5.175529E-010	0.0155724	7
	24	9	3984.375	7313.925	-1021.49	1	7384.913	-7.950716	1.299817E-009	0.0155677	7
	25	9	3170.956	7362.317	-1162.729	1	7453.566	-8.974583	1.241542E-009	0.0155629	7
	26	9	2527.573	7413.888	-1347.769	1	7535.397	-10.30327	3.748509E-010	0.0155612	7
	27	10	1976.103	7478.52	-1609.478	1	7649.75	-12.14557	1.585799E-009	0.0155688	7
	28	10	1577.524	7543.993	-1911.393	1	7782.368	-14.21763	9.918253E-010	0.0155652	7
	29	10	1265.625	7620.788	-2282.271	1	7955.197	-16.67189	1.153239E-009	0.0155675	7
	30	11	998.264	7717.497	-2782.055	1	8203.633	-19.82356	1.359274E-009	0.0155696	7
	31	11	796.875	7830.918	-3372.05	1	8526.077	-23.29706	9.597753E-010	0.01557	7
	32	11	627.7902	7980.071	-4147.074	1	8993.317	-27.45994	9.474254E-010	0.0155678	7
	33	11	505.5147	8157.442	-5002.406	1	9569.11	-31.51796	-7.088607E-010	0.0156154	6
	34	12	397.9953	8397.063	-6176.276	1	10423.87	-36.33553	4.880709E-010	0.0156297	6
	35	12	315.5048	8700.681	-7579.107	1	11538.83	-41.05891	3.851222E-010	0.0156368	6
	36	12	252.4038	9077.283	-9222.623	1	12940.4	-45.45504	5.042137E-010	0.0156306	6
	37	13	198.6229	9606.47	-11376.53	1	14889.92	-49.82187	3.127563E-010	0.0156297	6
	38	13	158.3615	10259.83	-13854.45	1	17239.77	-53.47844	4.356862E-010	0.0156263	6
	39	13	125.558	11131.67	-16925.27	1	20257.81	-56.66725	3.572832E-010	0.015631	6
	40	14	100.4464	12225.08	-20474.77	1	23846.78	-59.15942	4.173976E-010	0.0156276	6
	41	14	79.00281	13756	-25069.53	1	28595.61	-61.2458	2.154538E-010	0.0156245	6
	42	14	63.3446	15586.86	-30114.49	1	33909.18	-62.63452	5.022392E-011	0.0156233	6
	43	15	49.86702	18153.63	-36594.51	1	40849.88	-63.61513	1.625783E-010	0.0156209	6
	44	15	39.72458	21303.56	-43860.38	1	48760.38	-64.09355	4.887863E-010	0.0156316	6
	45	15	31.6723	25295.49	-52284.65	1	58082.24	-64.18215	6.060325E-010	0.0156248	6
	46	16	24.93351	30627.21	-62573.17	1	69666.54	-63.91999	2.042876E-010	0.0156231	6
	47	16	19.86229	36948.26	-73809.55	1	82541.05	-63.40795	9.059758E-010	0.015626	6
	48	16	15.83615	44640.37	-86461.02	1	97305	-62.69241	-4.584173E-010	0.0156207	6
	49	17	12.40079	54631.54	-101852.9	1	115579.4	-61.79191	-1.414011E-009	0.0156306	5
	50	17	9.93114	65136.73	-117528.7	1	134371.9	-61.00392	-1.551807E-009	0.0156284	5
	51	17	7.944915	77075.8	-135384.4	1	155787.1	-60.34667	-2.524939E-010	0.0156323	5
	52	18	6.317385	90998.39	-156103.5	1	180690.3	-59.76053	6.11824E-012	0.015622	5
	53	19	5.008013	107032.1	-180462.1	1	209815.2	-59.32781	-3.005547E-010	0.015615	5
	54	19	3.945707	125806.4	-209734.7	1	244572.9	-59.04314	-2.545363E-010	0.0156206	5
	55	20	3.158693	145482.4	-241376.3	1	281829.1	-58.92176	-1.594568E-010	0.0156067	5
	56	21	2.504006	169637.2	-280092.1	1	327457.4	-58.79889	2.419369E-010	0.0156131	5
	57	23	1.998082	196061.8	-323488.2	1	378265.6	-58.78051	9.290023E-011	0.0156106	5
	58	24	1.584686	229385	-375946.1	1	440400.9	-58.61039	-6.339169E-011	0.0155719	5
	59	26	1.266892	265339.4	-435076.6	1	509604.4	-58.62231	-3.297171E-011	0.0155837	5
	60	29	0.999041	309419.9	-506370.8	1	593424	-58.57281	-3.209197E-011	0.0156035	5
