EXPLAIN
TAG	EISPOT
TITLE	LABEL	Potentiostatic EIS	Test &Identifier
DATE	LABEL	6/14/2020	Date
TIME	LABEL	21:51:31	Time
NOTES	NOTES	1	&Notes...
	
PSTAT	PSTAT	REF600-10037	Potentiostat
VDC	POTEN	0.00000E+000	T	DC &Voltage (V)
FREQINIT	QUANT	1.00000E+006	Initial Fre&q. (Hz)
FREQFINAL	QUANT	1.00000E+000	Final Fre&q. (Hz)
PTSPERDEC	QUANT	1.00000E+001	Points/&decade
VAC	QUANT	2.50000E+001	AC &Voltage (mV rms)
AREA	QUANT	2.50000E-001	&Area (cm^2)
CONDIT	TWOPARAM	F	5.00000E+000	0.00000E+000	Conditionin&g	Time(s)	E(V)
DELAY	TWOPARAM	F	3.00000E+000	0.00000E+000	Init. De&lay	Time(s)	Stab.(mV/s)
SPEED	SELECTOR	0	&Optimize for:
ZGUESS	QUANT	1.00000E+003	E&stimated Z (ohms)
OCVCURVE	TABLE	39
	Pt	T	Vf	Vm	Ach	Over
	#	s	V vs. Ref.	V	V	bits
	0	0.258333	-5.47875E-002	-5.47875E-002	5.59754E-004	...........
	1	0.516667	-5.47876E-002	-5.47896E-002	5.60520E-004	...........
	2	0.775	-5.47877E-002	-5.47853E-002	5.60287E-004	...........
	3	1.03333	-5.47876E-002	-5.47780E-002	5.62287E-004	...........
	4	1.29167	-5.47864E-002	-5.47715E-002	5.63454E-004	...........
	5	1.55	-5.47833E-002	-5.47670E-002	5.61954E-004	...........
	6	1.80833	-5.47784E-002	-5.47548E-002	5.64920E-004	...........
	7	2.06667	-5.47722E-002	-5.47470E-002	5.67787E-004	...........
	8	2.325	-5.47649E-002	-5.47428E-002	5.69153E-004	...........
	9	2.58333	-5.47572E-002	-5.47392E-002	5.67453E-004	...........
	10	2.84167	-5.47500E-002	-5.47328E-002	5.66853E-004	...........
	11	3.1	-5.47439E-002	-5.47301E-002	5.64920E-004	...........
	12	3.35833	-5.47387E-002	-5.47217E-002	5.66320E-004	...........
	13	3.61667	-5.47338E-002	-5.47173E-002	5.64454E-004	...........
	14	3.875	-5.47285E-002	-5.47073E-002	5.67453E-004	...........
	15	4.13333	-5.47226E-002	-5.46991E-002	5.66754E-004	...........
	16	4.39167	-5.47152E-002	-5.46623E-002	5.64687E-004	...........
	17	4.65	-5.47060E-002	-5.47179E-002	5.64087E-004	...........
	18	4.90833	-5.46976E-002	-5.46967E-002	5.63220E-004	...........
	19	5.16667	-5.46940E-002	-5.46810E-002	5.60854E-004	...........
	20	5.425	-5.46933E-002	-5.46659E-002	5.60220E-004	...........
	21	5.68333	-5.46899E-002	-5.46622E-002	5.64987E-004	...........
	22	5.94167	-5.46818E-002	-5.46317E-002	5.64554E-004	...........
	23	6.2	-5.46702E-002	-5.46432E-002	5.68753E-004	...........
	24	6.45833	-5.46584E-002	-5.46679E-002	5.65420E-004	...........
	25	6.71667	-5.46511E-002	-5.46537E-002	5.65787E-004	...........
	26	6.975	-5.46499E-002	-5.46392E-002	5.66954E-004	...........
	27	7.23333	-5.46508E-002	-5.46331E-002	5.61220E-004	...........
	28	7.49167	-5.46485E-002	-5.46205E-002	5.65420E-004	...........
	29	7.75	-5.46418E-002	-5.46025E-002	5.66453E-004	...........
	30	8.00833	-5.46317E-002	-5.45887E-002	5.62987E-004	...........
	31	8.26667	-5.46192E-002	-5.45799E-002	5.68053E-004	...........
	32	8.525	-5.46058E-002	-5.45734E-002	5.66820E-004	...........
	33	8.78333	-5.45932E-002	-5.45631E-002	5.61287E-004	...........
	34	9.04167	-5.45824E-002	-5.45589E-002	5.64820E-004	...........
	35	9.3	-5.45734E-002	-5.45537E-002	5.55987E-004	...........
	36	9.5583	-5.45658E-002	-5.45424E-002	5.65987E-004	...........
	37	9.8167	-5.45587E-002	-5.45274E-002	5.61954E-004	...........
	38	10.075	-5.45506E-002	-5.45144E-002	5.67920E-004	...........
EOC	QUANT	-0.0545506	Open Circuit (V)
PSTATMODEL	IQUANT	4	Pstat Model
PSTATSECTION	LABEL	REF600-10037	Pstat Section
PSTATSERIALNO	LABEL	10037	Pstat Serial Number
CTRLMODE	IQUANT	1	Control Mode
IESTAB	IQUANT	0	I/E Stability
CASPEED	IQUANT	1	Control Amp Speed
CONVENTION	IQUANT	1	Current Convention
ICHRANGE	IQUANT	2	Ich Range
ICHRANGEMODE	TOGGLE	F	Ich Auto Range
ICHOFFSETENABLE	TOGGLE	T	Ich Offset Enable
ICHOFFSET	QUANT	0	Ich Offset (V)
ICHFILTER	IQUANT	3	Ich Filter
VCHRANGE	IQUANT	2	Vch Range
VCHRANGEMODE	TOGGLE	F	Vch Auto Range
VCHOFFSETENABLE	TOGGLE	T	Vch Offset Enable
VCHOFFSET	QUANT	0	Vch Offset (V)
VCHFILTER	IQUANT	3	Vch Filter
ACHRANGE	IQUANT	2	Ach Range
ACHOFFSETENABLE	TOGGLE	F	Ach Offset Enable
ACHOFFSET	QUANT	0	Ach Offset (V)
ACHFILTER	IQUANT	3	Ach Filter
IERANGELOWERLIMIT	IQUANT	1	I/E Range Lower Limit
IERANGEMODE	TOGGLE	F	I/E AutoRange
IERANGE	IQUANT	8	I/E Range
POSFEEDENABLE	TOGGLE	F	Positive Feedback IR Comp
POSFEEDRESISTANCE	QUANT	0	Positive Feedback Resistance (ohm)
ACHSELECT	IQUANT	0	Ach Select
CABLEID	IQUANT	14	Cable ID
DCCALDATE	LABEL	6/8/2020	DC Calibration Date
ACCALDATE	LABEL	6/8/2020	AC Calibration Date
THERMOSELECT	IQUANT	1	Thermo Select
FRAMEWORKVERSION	QUANT	6.33	Framework Version
INSTRUMENTVERSION	LABEL	3.50	Instrument Version
ZCURVE	TABLE
	Pt	Time	Freq	Zreal	Zimag	Zsig	Zmod	Zphz	Idc	Vdc	IERange
	#	s	Hz	ohm	ohm	V	ohm	°	A	V	#
	0	1	1000078	1763.289	-1236.658	1	2153.72	-35.04337	4.920975E-007	-0.0454802	8
	1	2	794390.6	1941.63	-1291.021	1	2331.666	-33.62057	1.699728E-007	-0.0456752	8
	2	2	630984.4	2117.165	-1350.052	1	2510.982	-32.52443	1.877404E-007	-0.0458111	8
	3	2	501234.4	2291.319	-1423.011	1	2697.24	-31.84213	-4.338275E-008	-0.0459073	8
	4	2	398109.4	2472.074	-1510.566	1	2897.061	-31.42709	-6.528408E-008	-0.0459329	8
	5	3	316265.6	2662.705	-1612.644	1	3112.976	-31.20082	6.828007E-008	-0.045953	8
	6	3	251203.1	2859.679	-1742.466	1	3348.724	-31.35488	1.12124E-007	-0.0459072	8
	7	3	199546.9	3078.501	-1887.583	1	3611.113	-31.51455	3.314962E-007	-0.0459305	8
	8	4	158578.1	3324.697	-2061.274	1	3911.836	-31.79844	-1.301542E-007	-0.0458941	8
	9	4	125953.1	3701.2	-2146.157	1	4278.419	-30.10749	2.536374E-007	-0.0463311	7
	10	4	100078.1	3986.048	-2368.83	1	4636.802	-30.72218	-6.416519E-008	-0.0458318	7
	11	5	79453.13	4305.785	-2621.599	1	5041.087	-31.33536	-6.445896E-008	-0.0458395	7
	12	5	63140.62	4664.733	-2893.51	1	5489.275	-31.81111	6.269112E-008	-0.0459748	7
	13	5	50203.12	5074.415	-3183.35	1	5990.276	-32.10143	-3.021849E-008	-0.0458642	7
	14	6	39890.62	5538.089	-3496.129	1	6549.302	-32.26373	-4.835756E-008	-0.0459476	7
	15	6	31640.63	6068.912	-3820.094	1	7171.109	-32.18848	4.453846E-009	-0.0460175	7
	16	6	25171.88	6652.981	-4129.94	1	7830.617	-31.83058	-7.487619E-009	-0.045888	7
	17	7	20015.62	7299.244	-4441.454	1	8544.324	-31.31973	2.909362E-008	-0.0460416	7
	18	7	15890.62	7998.071	-4724.051	1	9289.015	-30.56817	1.774644E-008	-0.0459081	7
	19	7	12609.37	8972.097	-4729.66	1	10142.4	-27.79605	-3.242785E-009	-0.0460137	6
	20	8	10078.13	9662.07	-4991.065	1	10875.03	-27.31919	9.817166E-009	-0.0460191	6
	21	8	8015.625	10390.68	-5257.408	1	11645.02	-26.8382	1.048054E-008	-0.0460734	6
	22	8	6328.125	11154.54	-5531.028	1	12450.54	-26.37473	-6.578672E-009	-0.045957	6
	23	8	5015.625	11915.54	-5817.63	1	13259.9	-26.02343	7.808931E-009	-0.0459751	6
	24	9	3984.375	12674.67	-6137.999	1	14082.7	-25.83964	1.047786E-008	-0.0460504	6
	25	9	3170.956	13427.08	-6505.111	1	14919.89	-25.84912	8.047722E-009	-0.0461053	6
	26	9	2527.573	14180.85	-6944.38	1	15789.9	-26.09105	5.874778E-009	-0.0461018	6
	27	10	1976.103	14998.79	-7531.902	1	16783.72	-26.66431	8.168506E-009	-0.046102	6
	28	10	1577.524	15770.2	-8210.929	1	17779.72	-27.50424	-1.113301E-008	-0.0457947	6
	29	10	1265.625	16573.53	-9042.164	1	18879.69	-28.61593	9.757457E-009	-0.046016	6
	30	11	998.264	17514.96	-10160.55	1	20248.72	-30.11832	-5.517617E-009	-0.0458069	6
	31	11	796.875	18530.96	-11472.98	1	21795.09	-31.76268	-6.777935E-009	-0.0459567	6
	32	11	627.7902	19805.43	-13142.86	1	23769.51	-33.5682	7.943981E-009	-0.0459744	6
	33	12	505.5147	21179.64	-14889.85	1	25889.86	-35.10825	9.86338E-009	-0.0460202	6
	34	12	397.9953	23030.5	-17116.43	1	28694.53	-36.61999	3.393991E-010	-0.0459394	6
	35	12	315.5048	25195.02	-19484.43	1	31850.15	-37.71638	1.327368E-010	-0.0459438	6
	36	13	252.4038	27669.16	-21965.95	1	35328.25	-38.4453	6.5622E-011	-0.0459492	6
	37	13	198.6229	30676.87	-24759.51	1	39422.12	-38.90724	3.062722E-010	-0.045947	6
	38	13	158.3615	33797.42	-27496.55	1	43569.79	-39.13075	2.924831E-010	-0.0459474	6
	39	14	125.558	37184.26	-30533.1	1	48113.82	-39.39043	3.683829E-010	-0.045943	6
	40	14	100.4464	40478.87	-33749.55	1	52702.66	-39.8199	3.938253E-010	-0.0459443	6
	41	14	79.00281	44163.79	-37878.14	1	58182.42	-40.61884	2.558582E-010	-0.0459484	6
	42	15	63.3446	47669.37	-42332.92	1	63753	-41.60677	2.208546E-010	-0.045947	6
	43	15	49.86702	51805.04	-48519.9	1	70978.47	-43.12452	7.381593E-010	-0.0459462	6
	44	15	39.72458	56082.91	-55677.51	1	79027.07	-44.79217	8.377626E-010	-0.0459449	6
	45	16	31.6723	61195.12	-64345.32	1	88798.44	-46.43743	7.722982E-010	-0.0459444	6
	46	16	24.93351	68000.45	-75185.73	1	101375.3	-47.87277	3.694209E-010	-0.0459407	5
	47	16	19.86229	73506.57	-86563.96	1	113562.9	-49.66345	-7.574673E-009	-0.0545724	5
	48	17	15.83615	83133.91	-100443.6	1	130384.7	-50.38654	-4.711987E-009	-0.0545827	5
	49	17	12.40079	96008.9	-117423.6	1	151677.4	-50.72958	-3.625541E-009	-0.0545776	5
	50	17	9.93114	109933.4	-134282.5	1	173542.9	-50.69374	-2.819223E-009	-0.0545774	5
	51	18	7.944915	126192.2	-152581	1	198003.6	-50.40753	-2.209019E-009	-0.054578	5
	52	18	6.317385	145657.3	-172440.5	1	225725	-49.81283	-1.479245E-009	-0.0545757	5
	53	19	5.008013	167401.2	-194004.2	1	256243.6	-49.20994	-1.078162E-009	-0.0545755	5
	54	20	3.945707	191283.6	-217807.2	1	289878.2	-48.70961	-7.615906E-010	-0.0545784	5
	55	21	3.158693	214573.6	-242421.5	1	323743.8	-48.48712	-6.115941E-010	-0.0545785	5
	56	22	2.504006	239743.7	-271685.6	1	362339.8	-48.57383	-4.28976E-010	-0.0545854	5
	57	24	1.998082	263840.7	-305674.8	1	403793.3	-49.20115	-3.329401E-010	-0.0545854	5
	58	26	1.584686	288848.1	-348213.6	1	452422.3	-50.32382	-2.079058E-010	-0.0545884	5
	59	29	1.266892	313921.3	-399283.4	1	507911.3	-51.82515	-1.454218E-010	-0.0545919	5
	60	32	0.999041	342754.3	-467252.3	1	579487.1	-53.73798	-1.320291E-010	-0.0545894	5
