EXPLAIN
TAG	EISPOT
TITLE	LABEL	Potentiostatic EIS	Test &Identifier
DATE	LABEL	9/1/2020	Date
TIME	LABEL	20:57:16	Time
NOTES	NOTES	1	&Notes...
	
PSTAT	PSTAT	REF600-11020	Potentiostat
VDC	POTEN	0.00000E+000	T	DC &Voltage (V)
FREQINIT	QUANT	1.00000E+006	Initial Fre&q. (Hz)
FREQFINAL	QUANT	1.00000E+000	Final Fre&q. (Hz)
PTSPERDEC	QUANT	1.00000E+001	Points/&decade
VAC	QUANT	2.50000E+001	AC &Voltage (mV rms)
AREA	QUANT	4.00000E-005	&Area (cm^2)
CONDIT	TWOPARAM	F	5.00000E+000	0.00000E+000	Conditionin&g	Time(s)	E(V)
DELAY	TWOPARAM	F	3.00000E+000	0.00000E+000	Init. De&lay	Time(s)	Stab.(mV/s)
SPEED	SELECTOR	0	&Optimize for:
ZGUESS	QUANT	1.00000E+003	E&stimated Z (ohms)
OCVCURVE	TABLE	39
	Pt	T	Vf	Vm	Ach	Over
	#	s	V vs. Ref.	V	V	bits
	0	0.258333	2.25953E-001	2.25953E-001	5.56192E-004	...........
	1	0.516667	2.25957E-001	2.26160E-001	5.58725E-004	...........
	2	0.775	2.25981E-001	2.26343E-001	5.55825E-004	...........
	3	1.03333	2.26048E-001	2.26500E-001	5.56792E-004	...........
	4	1.29167	2.26164E-001	2.26640E-001	5.54659E-004	...........
	5	1.55	2.26312E-001	2.26763E-001	5.59392E-004	...........
	6	1.80833	2.26467E-001	2.26873E-001	5.61292E-004	...........
	7	2.06667	2.26612E-001	2.26973E-001	5.60492E-004	...........
	8	2.325	2.26742E-001	2.27055E-001	5.59092E-004	...........
	9	2.58333	2.26855E-001	2.27130E-001	5.59959E-004	...........
	10	2.84167	2.26955E-001	2.27199E-001	5.60659E-004	...........
	11	3.1	2.27042E-001	2.27258E-001	5.63025E-004	...........
	12	3.35833	2.27119E-001	2.27313E-001	5.58425E-004	...........
	13	3.61667	2.27188E-001	2.27363E-001	5.63992E-004	...........
	14	3.875	2.27250E-001	2.27409E-001	5.61825E-004	...........
	15	4.13333	2.27305E-001	2.27443E-001	5.58225E-004	...........
	16	4.39167	2.27355E-001	2.27466E-001	5.58192E-004	...........
	17	4.65	2.27398E-001	2.27493E-001	5.58825E-004	...........
	18	4.90833	2.27434E-001	2.27516E-001	5.62592E-004	...........
	19	5.16667	2.27464E-001	2.27539E-001	5.56692E-004	...........
	20	5.425	2.27490E-001	2.27555E-001	5.59659E-004	...........
	21	5.68333	2.27513E-001	2.27575E-001	5.62092E-004	...........
	22	5.94167	2.27535E-001	2.27597E-001	5.59692E-004	...........
	23	6.2	2.27555E-001	2.27616E-001	5.57859E-004	...........
	24	6.45833	2.27575E-001	2.27640E-001	5.55992E-004	...........
	25	6.71667	2.27595E-001	2.27658E-001	5.56125E-004	...........
	26	6.975	2.27616E-001	2.27673E-001	5.55625E-004	...........
	27	7.23333	2.27636E-001	2.27687E-001	5.55492E-004	...........
	28	7.49167	2.27654E-001	2.27699E-001	5.61625E-004	...........
	29	7.75	2.27670E-001	2.27709E-001	5.55592E-004	...........
	30	8.00833	2.27684E-001	2.27716E-001	5.62959E-004	...........
	31	8.26667	2.27696E-001	2.27722E-001	5.60092E-004	...........
	32	8.525	2.27706E-001	2.27728E-001	5.60859E-004	...........
	33	8.78333	2.27714E-001	2.27731E-001	5.59392E-004	...........
	34	9.04167	2.27721E-001	2.27735E-001	5.57625E-004	...........
	35	9.3	2.27726E-001	2.27734E-001	5.60692E-004	...........
	36	9.5583	2.27730E-001	2.27730E-001	5.59759E-004	...........
	37	9.8167	2.27732E-001	2.27729E-001	5.57659E-004	...........
	38	10.075	2.27732E-001	2.27724E-001	5.61025E-004	...........
EOC	QUANT	0.2277321	Open Circuit (V)
PSTATMODEL	IQUANT	4	Pstat Model
PSTATSECTION	LABEL	REF600-11020	Pstat Section
PSTATSERIALNO	LABEL	11020	Pstat Serial Number
CTRLMODE	IQUANT	1	Control Mode
IESTAB	IQUANT	0	I/E Stability
CASPEED	IQUANT	1	Control Amp Speed
CONVENTION	IQUANT	1	Current Convention
ICHRANGE	IQUANT	2	Ich Range
ICHRANGEMODE	TOGGLE	F	Ich Auto Range
ICHOFFSETENABLE	TOGGLE	T	Ich Offset Enable
ICHOFFSET	QUANT	0	Ich Offset (V)
ICHFILTER	IQUANT	3	Ich Filter
VCHRANGE	IQUANT	2	Vch Range
VCHRANGEMODE	TOGGLE	F	Vch Auto Range
VCHOFFSETENABLE	TOGGLE	T	Vch Offset Enable
VCHOFFSET	QUANT	0	Vch Offset (V)
VCHFILTER	IQUANT	3	Vch Filter
ACHRANGE	IQUANT	2	Ach Range
ACHOFFSETENABLE	TOGGLE	F	Ach Offset Enable
ACHOFFSET	QUANT	0	Ach Offset (V)
ACHFILTER	IQUANT	3	Ach Filter
IERANGELOWERLIMIT	IQUANT	1	I/E Range Lower Limit
IERANGEMODE	TOGGLE	F	I/E AutoRange
IERANGE	IQUANT	8	I/E Range
POSFEEDENABLE	TOGGLE	F	Positive Feedback IR Comp
POSFEEDRESISTANCE	QUANT	0	Positive Feedback Resistance (ohm)
ACHSELECT	IQUANT	0	Ach Select
CABLEID	IQUANT	14	Cable ID
DCCALDATE	LABEL	9/1/2020	DC Calibration Date
ACCALDATE	LABEL	9/1/2020	AC Calibration Date
THERMOSELECT	IQUANT	1	Thermo Select
FRAMEWORKVERSION	QUANT	6.33	Framework Version
INSTRUMENTVERSION	LABEL	3.50	Instrument Version
ZCURVE	TABLE
	Pt	Time	Freq	Zreal	Zimag	Zsig	Zmod	Zphz	Idc	Vdc	IERange
	#	s	Hz	ohm	ohm	V	ohm	°	A	V	#
	0	1	1000078	1636.623	-2523.589	1	3007.829	-57.03539	1.143681E-007	0.22993	8
	1	2	794390.6	1960.341	-2864.665	1	3471.202	-55.61548	3.428358E-008	0.2296141	8
	2	2	630984.4	2322.359	-3227.687	1	3976.345	-54.26454	5.280966E-008	0.2294386	8
	3	2	501234.4	2717.509	-3623.549	1	4529.345	-53.13165	6.915108E-008	0.2293422	8
	4	3	398109.4	3142.548	-4067.698	1	5140.212	-52.3117	6.420274E-008	0.2292912	8
	5	3	316265.6	3608.671	-4572.233	1	5824.759	-51.71745	6.701256E-008	0.2292619	8
	6	3	251203.1	4134.327	-5158.398	1	6610.729	-51.2887	6.978939E-008	0.229246	8
	7	4	199546.9	4693.536	-5851.117	1	7500.99	-51.26479	6.236105E-008	0.2292396	8
	8	4	158578.1	5337.676	-6643.49	1	8522.133	-51.22005	5.389822E-008	0.2292594	8
	9	4	125953.1	6115.546	-7568.861	1	9730.75	-51.06222	2.610931E-009	0.229237	7
	10	5	100078.1	6976.385	-8608.05	1	11080.09	-50.977	2.266748E-009	0.2292149	7
	11	5	79453.13	7979.529	-9849.15	1	12675.91	-50.9865	2.63507E-009	0.229201	7
	12	5	63140.62	9141.354	-11229.6	1	14479.93	-50.853	2.226114E-009	0.229203	7
	13	5	50203.12	10492.07	-12788.66	1	16541.87	-50.63386	3.006994E-009	0.2291942	7
	14	6	39890.62	12058.39	-14516.77	1	18871.71	-50.2852	2.62382E-009	0.2291981	7
	15	6	31640.63	13893.17	-16488.58	1	21561.38	-49.88273	2.36909E-009	0.2291968	7
	16	6	25171.88	15980.48	-18657.45	1	24565.75	-49.41928	4.349998E-009	0.2291989	7
	17	7	20015.62	18376.93	-21121.32	1	27996.81	-48.9746	4.289052E-009	0.2291959	7
	18	7	15890.62	21214	-23729.32	1	31829.46	-48.2033	3.628648E-009	0.2291889	7
	19	7	12609.37	24667.96	-26520.71	1	36219.55	-47.07289	1.342826E-009	0.2291912	6
	20	8	10078.13	28359.11	-29547.62	1	40954.86	-46.17581	9.941886E-010	0.2291922	6
	21	8	8015.625	32739.82	-32682.17	1	46260.35	-44.94951	9.152691E-010	0.2291977	6
	22	8	6328.125	37958.39	-36028.64	1	52334.53	-43.50594	9.954372E-010	0.2291961	6
	23	9	5015.625	43795.31	-39386.22	1	58900.79	-41.96584	9.532465E-010	0.2291943	6
	24	9	3984.375	50436.22	-43143.13	1	66371.24	-40.54367	1.014189E-009	0.2291925	6
	25	9	3170.956	57809.47	-45956.99	1	73851.06	-38.48377	1.010243E-009	0.229189	6
	26	10	2527.573	65604.17	-47570.03	1	81035.89	-35.94612	7.557587E-010	0.2291785	6
	27	10	1976.103	74294.22	-48371.17	1	88653.27	-33.06718	1.021526E-009	0.229189	6
	28	10	1577.524	82915.26	-49649.72	1	96643.9	-30.91321	9.881651E-010	0.2291903	6
	29	11	1265.625	91971.35	-49438.34	1	104416.9	-28.25983	4.60383E-010	0.2291803	5
	30	11	998.264	99821.2	-48595.73	1	111021.7	-25.9581	4.488822E-010	0.2291833	5
	31	11	796.875	106971.3	-47924.67	1	117216.2	-24.13306	4.580888E-010	0.2291777	5
	32	12	627.7902	114227.6	-47437.56	1	123686.1	-22.55262	5.338685E-010	0.229176	5
	33	12	505.5147	120446	-47184.6	1	129358.5	-21.39271	3.991668E-010	0.2291634	5
	34	12	397.9953	125661.7	-46108.64	1	133853.9	-20.14944	4.715733E-010	0.2291939	5
	35	12	315.5048	131177.6	-46153.82	1	139060.2	-19.38402	3.951076E-010	0.2291941	5
	36	13	252.4038	137081.8	-47070.01	1	144937.9	-18.95102	3.825607E-010	0.2291936	5
	37	13	198.6229	145738.8	-50032.55	1	154087.8	-18.94749	4.679158E-010	0.2291955	5
	38	13	158.3615	150844.9	-51215.25	1	159302.1	-18.75351	4.24661E-010	0.229195	5
	39	14	125.558	156654.4	-53391.47	1	165503	-18.82031	3.316914E-010	0.2291971	5
	40	14	100.4464	161683.3	-56003.44	1	171107.8	-19.10493	5.032359E-010	0.2291949	5
	41	14	79.00281	168087.9	-60080.28	1	178502.6	-19.6686	4.718616E-010	0.2291936	5
	42	15	63.3446	175459.8	-65548.84	1	187304	-20.48484	5.708811E-010	0.2291913	5
	43	15	49.86702	181015.1	-71499.27	1	194624.3	-21.55356	2.803305E-010	0.2291869	5
	44	16	39.72458	185090.4	-77489.96	1	200656.8	-22.71711	3.627949E-010	0.2291962	5
	45	16	31.6723	195490.1	-88445.59	1	214567	-24.34343	1.244047E-010	0.2291956	5
	46	16	24.93351	204396.1	-100436.3	1	227739.3	-26.1686	9.753333E-010	0.2291934	5
	47	16	19.86229	218516.7	-115603.5	1	247211.9	-27.8805	1.604013E-009	0.2292021	5
	48	17	15.83615	226974	-129601.4	1	261368.9	-29.72621	-1.299689E-009	0.2291933	5
	49	17	12.40079	251452.7	-154843.5	1	295304.9	-31.62459	-3.355906E-010	0.2292031	5
	50	17	9.93114	271284.8	-175523.8	1	323116.2	-32.90325	-9.01393E-010	0.2291942	5
	51	18	7.944915	291695.2	-199458.7	1	353369.3	-34.36399	-4.467509E-010	0.2292026	5
	52	18	6.317385	304045.9	-219645.9	1	375084.3	-35.84473	-7.890713E-011	0.2291955	5
	53	19	5.008013	330395.8	-249626	1	414094.8	-37.07237	-4.01774E-010	0.2291816	5
	54	20	3.945707	365525.7	-285682.4	1	463921.8	-38.00998	-1.250717E-010	0.2291902	5
	55	21	3.158693	393450	-321213.1	1	507918.1	-39.22824	-2.85846E-010	0.2291732	5
	56	22	2.504006	435252.8	-362630.8	1	566521	-39.79937	1.544596E-010	0.2291724	5
	57	23	1.998082	480437.5	-410269.5	1	631776.3	-40.49567	8.458827E-011	0.2291871	5
	58	25	1.584686	526534	-460569.2	1	699544.2	-41.1768	-1.471653E-010	0.2291431	5
	59	27	1.266892	585025.1	-521148.5	1	783485.8	-41.6951	-2.471896E-010	0.229132	5
	60	29	0.999041	659890.4	-589042.8	1	884548.9	-41.75329	-2.385386E-010	0.2291453	5
