EXPLAIN
TAG	EISPOT
TITLE	LABEL	Potentiostatic EIS	Test &Identifier
DATE	LABEL	3/12/2020	Date
TIME	LABEL	13:43:46	Time
NOTES	NOTES	1	&Notes...
	
PSTAT	PSTAT	REF600-11020	Potentiostat
VDC	POTEN	0.00000E+000	T	DC &Voltage (V)
FREQINIT	QUANT	1.00000E+006	Initial Fre&q. (Hz)
FREQFINAL	QUANT	1.00000E+000	Final Fre&q. (Hz)
PTSPERDEC	QUANT	1.00000E+001	Points/&decade
VAC	QUANT	2.50000E+001	AC &Voltage (mV rms)
AREA	QUANT	2.50000E-001	&Area (cm^2)
CONDIT	TWOPARAM	F	5.00000E+000	0.00000E+000	Conditionin&g	Time(s)	E(V)
DELAY	TWOPARAM	T	5.00000E+000	0.00000E+000	Init. De&lay	Time(s)	Stab.(mV/s)
SPEED	SELECTOR	1	&Optimize for:
ZGUESS	QUANT	5.00000E+003	E&stimated Z (ohms)
OCVCURVE	TABLE	19
	Pt	T	Vf	Vm	Ach	Over
	#	s	V vs. Ref.	V	V	bits
	0	0.258333	2.07007E-002	2.07007E-002	5.75330E-004	...........
	1	0.516667	2.06999E-002	2.06615E-002	5.77730E-004	...........
	2	0.775	2.06956E-002	2.06392E-002	5.75297E-004	...........
	3	1.03333	2.06851E-002	2.06564E-002	5.79397E-004	...........
	4	1.29167	2.06715E-002	2.06827E-002	5.78697E-004	...........
	5	1.55	2.06633E-002	2.07006E-002	5.75530E-004	...........
	6	1.80833	2.06655E-002	2.06776E-002	5.75030E-004	...........
	7	2.06667	2.06725E-002	2.06085E-002	5.76230E-004	...........
	8	2.325	2.06719E-002	2.05887E-002	5.79297E-004	...........
	9	2.58333	2.06559E-002	2.05655E-002	5.80763E-004	...........
	10	2.84167	2.06283E-002	2.05501E-002	5.81330E-004	...........
	11	3.1	2.05987E-002	2.05343E-002	5.73663E-004	...........
	12	3.35833	2.05731E-002	2.05184E-002	5.76497E-004	...........
	13	3.61667	2.05525E-002	2.05051E-002	5.78197E-004	...........
	14	3.875	2.05354E-002	2.04905E-002	5.71397E-004	...........
	15	4.13333	2.05202E-002	2.04788E-002	5.73463E-004	...........
	16	4.39167	2.05061E-002	2.04652E-002	5.74297E-004	...........
	17	4.65	2.04925E-002	2.04533E-002	5.79830E-004	...........
	18	4.90833	2.04795E-002	2.04422E-002	5.73430E-004	...........
EOC	QUANT	0.0204795	Open Circuit (V)
PSTATMODEL	IQUANT	4	Pstat Model
PSTATSECTION	LABEL	REF600-11020	Pstat Section
PSTATSERIALNO	LABEL	11020	Pstat Serial Number
CTRLMODE	IQUANT	1	Control Mode
IESTAB	IQUANT	0	I/E Stability
CASPEED	IQUANT	1	Control Amp Speed
CONVENTION	IQUANT	1	Current Convention
ICHRANGE	IQUANT	2	Ich Range
ICHRANGEMODE	TOGGLE	F	Ich Auto Range
ICHOFFSETENABLE	TOGGLE	T	Ich Offset Enable
ICHOFFSET	QUANT	0	Ich Offset (V)
ICHFILTER	IQUANT	3	Ich Filter
VCHRANGE	IQUANT	2	Vch Range
VCHRANGEMODE	TOGGLE	F	Vch Auto Range
VCHOFFSETENABLE	TOGGLE	T	Vch Offset Enable
VCHOFFSET	QUANT	0	Vch Offset (V)
VCHFILTER	IQUANT	3	Vch Filter
ACHRANGE	IQUANT	2	Ach Range
ACHOFFSETENABLE	TOGGLE	F	Ach Offset Enable
ACHOFFSET	QUANT	0	Ach Offset (V)
ACHFILTER	IQUANT	3	Ach Filter
IERANGELOWERLIMIT	IQUANT	1	I/E Range Lower Limit
IERANGEMODE	TOGGLE	F	I/E AutoRange
IERANGE	IQUANT	6	I/E Range
POSFEEDENABLE	TOGGLE	F	Positive Feedback IR Comp
POSFEEDRESISTANCE	QUANT	0	Positive Feedback Resistance (ohm)
ACHSELECT	IQUANT	0	Ach Select
CABLEID	IQUANT	14	Cable ID
DCCALDATE	LABEL	2/27/2020	DC Calibration Date
ACCALDATE	LABEL	2/27/2020	AC Calibration Date
THERMOSELECT	IQUANT	1	Thermo Select
FRAMEWORKVERSION	QUANT	6.33	Framework Version
INSTRUMENTVERSION	LABEL	3.50	Instrument Version
ZCURVE	TABLE
	Pt	Time	Freq	Zreal	Zimag	Zsig	Zmod	Zphz	Idc	Vdc	IERange
	#	s	Hz	ohm	ohm	V	ohm	°	A	V	#
	0	1	1000078	1794.919	-1871.887	1	2593.394	-46.20249	-2.359526E-006	0.0228995	8
	1	3	794390.6	2146.006	-1975.993	1	2917.171	-42.63815	4.974478E-007	0.0226783	8
	2	4	630984.4	2518.221	-2048.37	1	3246.114	-39.12557	-4.097933E-007	0.0224161	8
	3	5	501234.4	2903.055	-2076	1	3568.964	-35.56889	3.257194E-007	0.022231	8
	4	7	398109.4	3269.592	-2063.583	1	3866.342	-32.25782	3.512631E-007	0.0221408	8
	5	8	316265.6	3637.938	-2009.898	1	4156.234	-28.91989	2.789945E-006	0.0217796	8
	6	10	251203.1	3974.806	-1950.685	1	4427.669	-26.14007	-1.323891E-006	0.0224376	8
	7	11	199546.9	4277.662	-1864.041	1	4666.159	-23.54572	-1.759114E-006	0.0226176	8
	8	12	158578.1	4550.804	-1755.342	1	4877.606	-21.09269	3.931472E-007	0.0220916	8
	9	14	125953.1	4850.121	-1627.005	1	5115.742	-18.54437	-3.218809E-007	0.0229955	7
	10	15	100078.1	5058.65	-1529.466	1	5284.81	-16.82252	-1.286117E-010	0.0221247	7
	11	16	79453.13	5264.623	-1447.864	1	5460.088	-15.37719	3.727644E-008	0.022087	7
	12	18	63140.62	5448.928	-1373.794	1	5619.441	-14.15061	3.282794E-009	0.0220968	7
	13	19	50203.12	5617.116	-1310.813	1	5768.034	-13.1355	3.847353E-008	0.0220748	7
	14	20	39890.62	5772.677	-1263.927	1	5909.426	-12.35001	6.811663E-008	0.0219937	7
	15	22	31640.63	5919.592	-1231.971	1	6046.431	-11.75644	-1.726676E-008	0.0220996	7
	16	23	25171.88	6060.465	-1217.926	1	6181.633	-11.36295	-2.466028E-008	0.022104	7
	17	25	20015.62	6197.849	-1221.221	1	6317.018	-11.14674	4.691213E-008	0.0220028	7
	18	26	15890.62	6331.945	-1240.366	1	6452.29	-11.08334	-2.174893E-008	0.0221293	7
	19	27	12609.37	6466.848	-1279.841	1	6592.277	-11.19463	1.932479E-008	0.0220062	7
	20	29	10078.13	6596.294	-1339.085	1	6730.843	-11.47542	4.76041E-008	0.0220029	7
	21	30	8015.625	6732.054	-1420.394	1	6880.267	-11.91407	6.92619E-008	0.0219854	7
	22	31	6328.125	6878.455	-1534.462	1	7047.533	-12.57576	-1.081759E-009	0.0220426	7
	23	33	5015.625	7026.077	-1675.999	1	7223.208	-13.4166	-1.88762E-008	0.0220712	7
	24	34	3984.375	7184.277	-1856.332	1	7420.229	-14.48768	3.959853E-009	0.0220786	7
	25	36	3170.956	7342.583	-2074.511	1	7630.015	-15.77666	-2.376297E-008	0.0221233	7
	26	37	2527.573	7513.22	-2340.886	1	7869.448	-17.30541	-2.143657E-008	0.02213	7
	27	38	1976.103	7706.954	-2698.976	1	8165.881	-19.30026	3.209559E-008	0.0220814	7
	28	40	1577.524	7894.523	-3107.679	1	8484.172	-21.48708	3.545073E-008	0.0220792	7
	29	41	1265.625	8088.207	-3593.598	1	8850.596	-23.95563	-2.125044E-008	0.0221193	7
	30	42	998.264	8319.967	-4241.737	1	9338.854	-27.01368	5.489751E-010	0.0220925	6
	31	44	796.875	8568.171	-5012.272	1	9926.55	-30.3271	-1.156417E-009	0.02209	6
	32	45	627.7902	8867.744	-6025.191	1	10721	-34.19416	4.749676E-009	0.022123	6
	33	46	505.5147	9198.396	-7160.478	1	11656.88	-37.89892	-4.599347E-009	0.0221981	6
	34	48	397.9953	9639.24	-8685.686	1	12975.21	-42.02125	1.016584E-009	0.0221483	6
	35	49	315.5048	10179.84	-10504.08	1	14627.54	-45.89808	7.688657E-010	0.0221452	6
	36	51	252.4038	10827.95	-12622.24	1	16630.26	-49.37545	9.546419E-010	0.0221412	6
	37	52	198.6229	11707.12	-15374.2	1	19324.15	-52.71151	5.803755E-010	0.022142	6
	38	53	158.3615	12770.83	-18505.82	1	22484.64	-55.39053	9.578629E-010	0.0221395	6
	39	55	125.558	14143.96	-22348.03	1	26447.8	-57.67047	6.132441E-010	0.0221436	6
	40	56	100.4464	15814.64	-26748.68	1	31074.02	-59.40712	1.080669E-009	0.0221352	6
	41	57	79.00281	18005.93	-32362.65	1	37034.5	-60.90931	5.074131E-010	0.0221369	6
	42	59	63.3446	20676.96	-38226.73	1	43460.56	-61.5909	3.155625E-010	0.0221397	6
	43	60	49.86702	24208.54	-46447.77	1	52377.94	-62.4715	3.090712E-010	0.0221336	6
	44	62	39.72458	28329.08	-55075.07	1	61933.83	-62.77998	3.873956E-010	0.0221398	6
	45	63	31.6723	33670.17	-65202.32	1	73382.72	-62.68838	7.393016E-010	0.0221433	6
	46	64	24.93351	40470.7	-77591.86	1	87512.14	-62.45416	4.433214E-010	0.0221392	6
	47	66	19.86229	48727.57	-90975.67	1	103203.4	-61.82601	7.149245E-010	0.0221427	5
	48	67	15.83615	58914.41	-106312.8	1	121545.6	-61.0065	7.38823E-011	0.0221394	5
	49	68	12.40079	72142.37	-124105.2	1	143550.1	-59.83057	9.681038E-010	0.022141	5
	50	70	9.93114	85743.16	-142759.4	1	166529.7	-59.01042	3.434449E-010	0.0221392	5
	51	72	7.944915	101612.2	-162657.6	1	191787.7	-58.00698	9.154715E-010	0.0221394	5
	52	73	6.317385	120493.5	-185910	1	221542.8	-57.05159	2.777856E-010	0.0221531	5
	53	75	5.008013	141491.2	-212336.6	1	255159.9	-56.32237	2.348801E-010	0.0221401	5
	54	78	3.945707	165039.7	-243177.5	1	293893.5	-55.83604	3.354994E-010	0.0221417	5
	55	80	3.158693	189852.4	-276455.8	1	335368.1	-55.52117	-3.645449E-011	0.0221423	5
	56	84	2.504006	218392.4	-316686.3	1	384688.7	-55.40917	4.844201E-010	0.0221358	5
	57	87	1.998082	249389	-361547.3	1	439216.7	-55.40276	-2.53161E-011	0.0221762	5
	58	90	1.584686	284658.1	-416719.2	1	504663.4	-55.66328	2.491463E-010	0.0221611	5
	59	93	1.266892	324847.8	-477299.7	1	577357	-55.76099	3.907203E-011	0.0221825	5
	60	98	0.999041	372007.5	-553369.3	1	666788.6	-56.08867	1.510975E-010	0.022107	5
