EXPLAIN
TAG	EISPOT
TITLE	LABEL	Potentiostatic EIS	Test &Identifier
DATE	LABEL	1/25/2020	Date
TIME	LABEL	11:52:32	Time
NOTES	NOTES	6	&Notes...
	
	
	
	
	
	
PSTAT	PSTAT	REF600-11020	Potentiostat
VDC	POTEN	0.00000E+000	T	DC &Voltage (V)
FREQINIT	QUANT	1.00000E+006	Initial Fre&q. (Hz)
FREQFINAL	QUANT	1.00000E+000	Final Fre&q. (Hz)
PTSPERDEC	QUANT	1.00000E+001	Points/&decade
VAC	QUANT	2.50000E+001	AC &Voltage (mV rms)
AREA	QUANT	1.00000E-001	&Area (cm^2)
CONDIT	TWOPARAM	F	5.00000E+000	0.00000E+000	Conditionin&g	Time(s)	E(V)
DELAY	TWOPARAM	F	5.00000E+000	0.00000E+000	Init. De&lay	Time(s)	Stab.(mV/s)
SPEED	SELECTOR	0	&Optimize for:
ZGUESS	QUANT	5.00000E+002	E&stimated Z (ohms)
OCVCURVE	TABLE	39
	Pt	T	Vf	Vm	Ach	Over
	#	s	V vs. Ref.	V	V	bits
	0	0.258333	-1.61297E-002	-1.61297E-002	6.67579E-004	...........
	1	0.516667	-1.61280E-002	-1.60368E-002	6.58379E-004	...........
	2	0.775	-1.61190E-002	-1.60529E-002	6.57279E-004	...........
	3	1.03333	-1.61020E-002	-1.61481E-002	6.61779E-004	...........
	4	1.29167	-1.60887E-002	-1.61257E-002	6.65579E-004	...........
	5	1.55	-1.60907E-002	-1.61010E-002	6.62046E-004	...........
	6	1.80833	-1.61021E-002	-1.61009E-002	6.62679E-004	...........
	7	2.06667	-1.61092E-002	-1.60823E-002	6.64246E-004	...........
	8	2.325	-1.61075E-002	-1.60983E-002	6.61479E-004	...........
	9	2.58333	-1.61019E-002	-1.61222E-002	6.66779E-004	...........
	10	2.84167	-1.60985E-002	-1.60705E-002	6.67713E-004	...........
	11	3.1	-1.60972E-002	-1.60630E-002	6.60313E-004	...........
	12	3.35833	-1.60948E-002	-1.61765E-002	6.61646E-004	...........
	13	3.61667	-1.60983E-002	-1.62710E-002	6.57379E-004	...........
	14	3.875	-1.61205E-002	-1.61618E-002	6.60679E-004	...........
	15	4.13333	-1.61555E-002	-1.61651E-002	6.61846E-004	...........
	16	4.39167	-1.61805E-002	-1.61718E-002	6.60346E-004	...........
	17	4.65	-1.61857E-002	-1.61684E-002	6.66613E-004	...........
	18	4.90833	-1.61798E-002	-1.61667E-002	6.59546E-004	...........
	19	5.16667	-1.61746E-002	-1.62412E-002	6.59446E-004	...........
	20	5.425	-1.61792E-002	-1.63032E-002	6.60613E-004	...........
	21	5.68333	-1.61992E-002	-1.62657E-002	6.63713E-004	...........
	22	5.94167	-1.62295E-002	-1.62783E-002	6.56346E-004	...........
	23	6.2	-1.62566E-002	-1.62967E-002	6.62513E-004	...........
	24	6.45833	-1.62742E-002	-1.63187E-002	6.63246E-004	...........
	25	6.71667	-1.62865E-002	-1.63274E-002	6.60579E-004	...........
	26	6.975	-1.62960E-002	-1.61802E-002	6.65279E-004	...........
	27	7.23333	-1.62930E-002	-1.61553E-002	6.66246E-004	...........
	28	7.49167	-1.62678E-002	-1.61829E-002	6.70813E-004	...........
	29	7.75	-1.62293E-002	-1.61790E-002	6.61713E-004	...........
	30	8.00833	-1.61975E-002	-1.61902E-002	6.60946E-004	...........
	31	8.26667	-1.61823E-002	-1.61927E-002	6.62179E-004	...........
	32	8.525	-1.61811E-002	-1.62205E-002	6.63713E-004	...........
	33	8.78333	-1.61882E-002	-1.62391E-002	6.62279E-004	...........
	34	9.04167	-1.62011E-002	-1.62649E-002	6.60379E-004	...........
	35	9.3	-1.62193E-002	-1.63281E-002	6.60379E-004	...........
	36	9.5583	-1.62446E-002	-1.63732E-002	6.60946E-004	...........
	37	9.8167	-1.62777E-002	-1.63584E-002	6.57980E-004	...........
	38	10.075	-1.63129E-002	-1.63582E-002	6.58679E-004	...........
EOC	QUANT	-0.0163129	Open Circuit (V)
PSTATMODEL	IQUANT	4	Pstat Model
PSTATSECTION	LABEL	REF600-11020	Pstat Section
PSTATSERIALNO	LABEL	11020	Pstat Serial Number
CTRLMODE	IQUANT	1	Control Mode
IESTAB	IQUANT	0	I/E Stability
CASPEED	IQUANT	1	Control Amp Speed
CONVENTION	IQUANT	1	Current Convention
ICHRANGE	IQUANT	2	Ich Range
ICHRANGEMODE	TOGGLE	F	Ich Auto Range
ICHOFFSETENABLE	TOGGLE	T	Ich Offset Enable
ICHOFFSET	QUANT	0	Ich Offset (V)
ICHFILTER	IQUANT	3	Ich Filter
VCHRANGE	IQUANT	2	Vch Range
VCHRANGEMODE	TOGGLE	F	Vch Auto Range
VCHOFFSETENABLE	TOGGLE	T	Vch Offset Enable
VCHOFFSET	QUANT	0	Vch Offset (V)
VCHFILTER	IQUANT	3	Vch Filter
ACHRANGE	IQUANT	2	Ach Range
ACHOFFSETENABLE	TOGGLE	F	Ach Offset Enable
ACHOFFSET	QUANT	0	Ach Offset (V)
ACHFILTER	IQUANT	3	Ach Filter
IERANGELOWERLIMIT	IQUANT	1	I/E Range Lower Limit
IERANGEMODE	TOGGLE	F	I/E AutoRange
IERANGE	IQUANT	7	I/E Range
POSFEEDENABLE	TOGGLE	F	Positive Feedback IR Comp
POSFEEDRESISTANCE	QUANT	0	Positive Feedback Resistance (ohm)
ACHSELECT	IQUANT	0	Ach Select
CABLEID	IQUANT	14	Cable ID
DCCALDATE	LABEL	12/22/2019	DC Calibration Date
ACCALDATE	LABEL	12/22/2019	AC Calibration Date
THERMOSELECT	IQUANT	1	Thermo Select
FRAMEWORKVERSION	QUANT	6.33	Framework Version
INSTRUMENTVERSION	LABEL	3.50	Instrument Version
ZCURVE	TABLE
	Pt	Time	Freq	Zreal	Zimag	Zsig	Zmod	Zphz	Idc	Vdc	IERange
	#	s	Hz	ohm	ohm	V	ohm	°	A	V	#
	0	1	1000078	1585.18	-866.5698	1	1806.582	-28.66409	4.687885E-007	-0.014237	8
	1	2	794390.6	1716.368	-861.0943	1	1920.261	-26.64272	-6.044247E-007	-0.014235	8
	2	2	630984.4	1837.628	-865.3351	1	2031.177	-25.21565	1.548976E-006	-0.0147637	8
	3	2	501234.4	1961.036	-882.5873	1	2150.493	-24.23069	1.070549E-006	-0.0147895	8
	4	3	398109.4	2086.646	-892.9504	1	2269.681	-23.16781	1.106094E-006	-0.0148448	8
	5	3	316265.6	2225.335	-908.8615	1	2403.778	-22.21587	9.217406E-007	-0.0148285	8
	6	3	251203.1	2353.186	-924.0186	1	2528.101	-21.4383	-7.879561E-007	-0.0145665	8
	7	4	199546.9	2507.25	-943.7062	1	2678.971	-20.62588	2.301701E-006	-0.0150702	8
	8	4	158578.1	2657.153	-948.6245	1	2821.409	-19.64696	-9.063246E-007	-0.0144741	8
	9	4	125953.1	2834.134	-930.8478	1	2983.085	-18.18233	-5.789644E-007	-0.0130623	7
	10	4	100078.1	2984.455	-915.7892	1	3121.801	-17.05879	4.988574E-008	-0.0147936	7
	11	5	79453.13	3140.203	-896.3481	1	3265.626	-15.93101	-1.188047E-008	-0.0147097	7
	12	5	63140.62	3288.03	-862.6163	1	3399.301	-14.70029	8.153485E-009	-0.0147557	7
	13	5	50203.12	3424.978	-819.4234	1	3521.637	-13.45506	7.208408E-008	-0.0148208	7
	14	6	39890.62	3546.058	-769.8808	1	3628.67	-12.24932	2.745927E-008	-0.0147978	7
	15	6	31640.63	3653.149	-719.0437	1	3723.241	-11.1351	-4.735776E-009	-0.0146964	7
	16	6	25171.88	3743.824	-672.3138	1	3803.712	-10.18063	-3.212544E-008	-0.0146778	7
	17	7	20015.62	3822.153	-632.1525	1	3874.076	-9.391234	-8.170624E-009	-0.0146948	7
	18	7	15890.62	3888.462	-601.4116	1	3934.696	-8.792027	5.005919E-008	-0.0148178	7
	19	7	12609.37	3946.47	-582.6088	1	3989.243	-8.397795	-6.784465E-009	-0.0146971	7
	20	8	10078.13	3994.45	-578.384	1	4036.107	-8.23899	1.077496E-009	-0.014767	7
	21	8	8015.625	4041.108	-588.5945	1	4083.748	-8.286958	-3.111591E-008	-0.0146599	7
	22	8	6328.125	4084.217	-617.8386	1	4130.684	-8.60218	5.63389E-010	-0.0147665	7
	23	9	5015.625	4126.539	-667.442	1	4180.168	-9.187667	7.321547E-008	-0.01483	7
	24	9	3984.375	4167.407	-740.7378	1	4232.727	-10.0788	9.758402E-009	-0.0147676	7
	25	9	3170.956	4210.544	-837.7223	1	4293.071	-11.25253	-2.974384E-008	-0.0146877	7
	26	10	2527.573	4258.874	-964.43	1	4366.707	-12.75954	7.130275E-008	-0.0148353	7
	27	10	1976.103	4314.595	-1140.284	1	4462.732	-14.80396	2.490218E-009	-0.01477	7
	28	10	1577.524	4376.345	-1342.04	1	4577.496	-17.04856	-1.546535E-008	-0.0147251	7
	29	11	1265.625	4445.413	-1589.835	1	4721.151	-19.67883	-1.611385E-008	-0.0147252	7
	30	11	998.264	4534.023	-1917.632	1	4922.874	-22.92558	-1.118505E-008	-0.0147346	7
	31	11	796.875	4635.692	-2297.933	1	5173.987	-26.36781	9.0677E-009	-0.0147783	7
	32	11	627.7902	4768.273	-2796.414	1	5527.781	-30.39003	-4.277855E-009	-0.0147117	7
	33	12	505.5147	4915.917	-3345.685	1	5946.415	-34.23851	1.544828E-009	-0.0147734	7
	34	12	397.9953	5115.47	-4088.226	1	6548.406	-38.63145	4.51145E-009	-0.0147212	7
	35	12	315.5048	5363.89	-4969.878	1	7312.387	-42.81645	4.337269E-009	-0.0147236	7
	36	13	252.4038	5666.976	-5995.244	1	8249.7	-46.61234	4.834887E-009	-0.0147242	7
	37	13	198.6229	6083.527	-7327.421	1	9523.68	-50.29914	4.712423E-009	-0.0147258	7
	38	13	158.3615	6592.455	-8845.954	1	11032.29	-53.30465	7.185304E-010	-0.0147261	6
	39	14	125.558	7260.974	-10708.65	1	12938.19	-55.86086	3.631067E-010	-0.0147209	6
	40	14	100.4464	8077.639	-12833.72	1	15164.19	-57.81339	-1.367102E-010	-0.0147231	6
	41	14	79.00281	9213.214	-15539.25	1	18065.21	-59.33633	2.416503E-010	-0.014726	6
	42	15	63.3446	10579.66	-18523.19	1	21331.61	-60.26682	5.113199E-010	-0.014729	6
	43	15	49.86702	12387.1	-22226.41	1	25445.11	-60.86844	-8.004021E-010	-0.0147279	6
	44	16	39.72458	14564.58	-26255.17	1	30024.34	-60.98148	4.354933E-010	-0.0147259	6
	45	16	31.6723	17239.65	-30864.41	1	35352.76	-60.81399	6.058026E-010	-0.0147231	6
	46	16	24.93351	20749.79	-36415.91	1	41912.68	-60.3255	-6.297499E-010	-0.0147255	6
	47	16	19.86229	24753.51	-42309.55	1	49018.71	-59.66992	-3.268946E-010	-0.0147242	6
	48	17	15.83615	29352.08	-48668.15	1	56834.27	-58.90554	-9.449315E-010	-0.0147219	6
	49	17	12.40079	35145.1	-56545.89	1	66577.89	-58.13771	-2.617803E-009	-0.0147226	6
	50	17	9.93114	40920.84	-64605.71	1	76474.91	-57.65009	-1.368814E-009	-0.0147314	6
	51	18	7.944915	47527.92	-73749.8	1	87737.89	-57.20032	1.068871E-009	-0.0147284	6
	52	18	6.317385	54344.52	-84471.45	1	100442.8	-57.24488	-4.674485E-010	-0.0147209	5
	53	19	5.008013	62078.2	-97335.6	1	115446.6	-57.47129	-8.165009E-010	-0.0147379	5
	54	20	3.945707	70947.59	-112981.2	1	133410.3	-57.87284	-2.12687E-010	-0.0147296	5
	55	21	3.158693	79630.31	-130766.8	1	153104.4	-58.66072	-3.773677E-010	-0.0147495	5
	56	22	2.504006	90085.28	-152939.2	1	177498.6	-59.50077	1.433091E-010	-0.0147436	5
	57	23	1.998082	101178	-179072.9	1	205679.6	-60.53311	1.258132E-010	-0.014725	5
	58	25	1.584686	114436.9	-211279.9	1	240281.1	-61.55842	-8.675416E-011	-0.0147696	5
	59	27	1.266892	130322.4	-250386.4	1	282271.7	-62.50369	-7.8449E-011	-0.0147842	5
	60	29	0.999041	149347.1	-299633.8	1	334790.9	-63.50686	-4.439063E-011	-0.0147723	5
