EXPLAIN
TAG	EISPOT
TITLE	LABEL	Potentiostatic EIS	Test &Identifier
DATE	LABEL	3/19/2020	Date
TIME	LABEL	20:54:19	Time
NOTES	NOTES	1	&Notes...
	
PSTAT	PSTAT	REF600-11020	Potentiostat
VDC	POTEN	0.00000E+000	T	DC &Voltage (V)
FREQINIT	QUANT	1.00000E+006	Initial Fre&q. (Hz)
FREQFINAL	QUANT	1.00000E+000	Final Fre&q. (Hz)
PTSPERDEC	QUANT	1.00000E+001	Points/&decade
VAC	QUANT	2.50000E+001	AC &Voltage (mV rms)
AREA	QUANT	4.00000E-004	&Area (cm^2)
CONDIT	TWOPARAM	F	5.00000E+000	0.00000E+000	Conditionin&g	Time(s)	E(V)
DELAY	TWOPARAM	T	3.00000E+000	0.00000E+000	Init. De&lay	Time(s)	Stab.(mV/s)
SPEED	SELECTOR	0	&Optimize for:
ZGUESS	QUANT	1.00000E+003	E&stimated Z (ohms)
OCVCURVE	TABLE	12
	Pt	T	Vf	Vm	Ach	Over
	#	s	V vs. Ref.	V	V	bits
	0	0.258333	4.43913E-002	4.43913E-002	5.87296E-004	...........
	1	0.516667	4.43906E-002	4.43579E-002	5.87897E-004	...........
	2	0.775	4.43870E-002	4.43425E-002	5.83363E-004	...........
	3	1.03333	4.43780E-002	4.43337E-002	5.79630E-004	...........
	4	1.29167	4.43647E-002	4.43485E-002	5.83930E-004	...........
	5	1.55	4.43511E-002	4.42762E-002	5.86030E-004	...........
	6	1.80833	4.43367E-002	4.42478E-002	5.85597E-004	...........
	7	2.06667	4.43160E-002	4.42048E-002	5.82097E-004	...........
	8	2.325	4.42873E-002	4.42365E-002	5.81263E-004	...........
	9	2.58333	4.42606E-002	4.43490E-002	5.81163E-004	...........
	10	2.84167	4.42521E-002	4.43310E-002	5.84230E-004	...........
	11	3.1	4.42665E-002	4.42588E-002	5.88297E-004	...........
EOC	QUANT	0.0442665	Open Circuit (V)
PSTATMODEL	IQUANT	4	Pstat Model
PSTATSECTION	LABEL	REF600-11020	Pstat Section
PSTATSERIALNO	LABEL	11020	Pstat Serial Number
CTRLMODE	IQUANT	1	Control Mode
IESTAB	IQUANT	0	I/E Stability
CASPEED	IQUANT	1	Control Amp Speed
CONVENTION	IQUANT	1	Current Convention
ICHRANGE	IQUANT	2	Ich Range
ICHRANGEMODE	TOGGLE	F	Ich Auto Range
ICHOFFSETENABLE	TOGGLE	T	Ich Offset Enable
ICHOFFSET	QUANT	0	Ich Offset (V)
ICHFILTER	IQUANT	3	Ich Filter
VCHRANGE	IQUANT	2	Vch Range
VCHRANGEMODE	TOGGLE	F	Vch Auto Range
VCHOFFSETENABLE	TOGGLE	T	Vch Offset Enable
VCHOFFSET	QUANT	0	Vch Offset (V)
VCHFILTER	IQUANT	3	Vch Filter
ACHRANGE	IQUANT	2	Ach Range
ACHOFFSETENABLE	TOGGLE	F	Ach Offset Enable
ACHOFFSET	QUANT	0	Ach Offset (V)
ACHFILTER	IQUANT	3	Ach Filter
IERANGELOWERLIMIT	IQUANT	1	I/E Range Lower Limit
IERANGEMODE	TOGGLE	F	I/E AutoRange
IERANGE	IQUANT	7	I/E Range
POSFEEDENABLE	TOGGLE	F	Positive Feedback IR Comp
POSFEEDRESISTANCE	QUANT	0	Positive Feedback Resistance (ohm)
ACHSELECT	IQUANT	0	Ach Select
CABLEID	IQUANT	14	Cable ID
DCCALDATE	LABEL	2/27/2020	DC Calibration Date
ACCALDATE	LABEL	2/27/2020	AC Calibration Date
THERMOSELECT	IQUANT	1	Thermo Select
FRAMEWORKVERSION	QUANT	6.33	Framework Version
INSTRUMENTVERSION	LABEL	3.50	Instrument Version
ZCURVE	TABLE
	Pt	Time	Freq	Zreal	Zimag	Zsig	Zmod	Zphz	Idc	Vdc	IERange
	#	s	Hz	ohm	ohm	V	ohm	°	A	V	#
	0	1	1000078	1607.158	-2273.136	1	2783.902	-54.73883	-7.261406E-007	0.0464884	8
	1	1	794390.6	1994.182	-2548.427	1	3235.93	-51.95629	1.02123E-006	0.0461323	8
	2	2	630984.4	2456.638	-2802.313	1	3726.665	-48.76068	4.551653E-007	0.0460028	8
	3	2	501234.4	2988.163	-3023.441	1	4250.919	-45.33623	5.898206E-008	0.0459566	8
	4	2	398109.4	3595.541	-3177.721	1	4798.523	-41.47009	-2.527367E-007	0.046018	8
	5	3	316265.6	4233.874	-3241.847	1	5332.473	-37.44102	-9.770536E-008	0.0459142	8
	6	3	251203.1	4876.558	-3210.323	1	5838.406	-33.3576	7.082148E-007	0.0457761	8
	7	3	199546.9	5493.287	-3081.025	1	6298.326	-29.2868	-3.786363E-007	0.0459807	8
	8	4	158578.1	6033.857	-2873.048	1	6682.951	-25.46167	2.289632E-007	0.0458384	8
	9	4	125953.1	6549.649	-2570.873	1	7036.142	-21.43103	4.512319E-008	0.0456976	7
	10	4	100078.1	6919.558	-2307.103	1	7294.039	-18.43929	1.10485E-008	0.0458009	7
	11	5	79453.13	7233.894	-2064.436	1	7522.707	-15.92789	-4.222975E-010	0.0458195	7
	12	5	63140.62	7483.984	-1833.094	1	7705.209	-13.76282	-2.082995E-009	0.045811	7
	13	5	50203.12	7687.777	-1632.049	1	7859.103	-11.98546	4.997219E-009	0.0458174	7
	14	6	39890.62	7850.18	-1462.196	1	7985.195	-10.55116	3.001766E-009	0.0458272	7
	15	6	31640.63	7985.251	-1324.905	1	8094.419	-9.420638	-2.60461E-009	0.0458077	7
	16	6	25171.88	8104.209	-1225.416	1	8196.331	-8.598405	2.699865E-009	0.0458182	7
	17	7	20015.62	8206.341	-1153.681	1	8287.039	-8.002433	-8.51089E-010	0.0457971	7
	18	7	15890.62	8302.885	-1115.208	1	8377.445	-7.649939	-2.770577E-009	0.0458191	7
	19	7	12609.37	8391.937	-1104.929	1	8464.364	-7.500737	-2.188923E-009	0.0458027	7
	20	8	10078.13	8477.758	-1121.754	1	8551.649	-7.537439	9.831927E-009	0.0457907	7
	21	8	8015.625	8565.069	-1170.684	1	8644.704	-7.78303	5.823573E-009	0.0458158	7
	22	8	6328.125	8652.814	-1254.577	1	8743.292	-8.249859	5.442266E-009	0.0458172	7
	23	9	5015.625	8749.803	-1342.395	1	8852.179	-8.72231	-3.53976E-010	0.0458533	6
	24	9	3984.375	8837.494	-1509.166	1	8965.427	-9.69084	1.653239E-010	0.0458352	6
	25	9	3170.956	8928.207	-1724.964	1	9093.315	-10.93503	-1.569048E-010	0.0458624	6
	26	10	2527.573	9026.303	-1998.467	1	9244.892	-12.48417	2.542401E-010	0.0458607	6
	27	10	1976.103	9143.342	-2373.538	1	9446.396	-14.55232	3.492479E-010	0.0458583	6
	28	10	1577.524	9266.501	-2806.545	1	9682.19	-16.84998	-4.371019E-010	0.0458471	6
	29	10	1265.625	9404.75	-3330.159	1	9976.94	-19.49872	-1.467864E-009	0.0458606	6
	30	11	998.264	9574.56	-4026.532	1	10386.78	-22.80894	-1.023246E-010	0.0458454	6
	31	11	796.875	9773.68	-4844.311	1	10908.35	-26.36525	-4.389791E-010	0.0458398	6
	32	11	627.7902	10027.76	-5909.118	1	11639.31	-30.50983	-2.240367E-010	0.0458393	6
	33	12	505.5147	10307.43	-7089.652	1	12510.25	-34.52095	-5.796373E-010	0.0458615	6
	34	12	397.9953	10690.27	-8679.849	1	13770.32	-39.0745	5.753609E-010	0.0458707	6
	35	12	315.5048	11156.73	-10571.44	1	15369.71	-43.45698	6.227602E-010	0.0458602	6
	36	13	252.4038	11712.26	-12775.77	1	17331.97	-47.48679	5.309552E-010	0.0458596	6
	37	13	198.6229	12452.44	-15652.88	1	20001.9	-51.49647	6.245265E-010	0.0458613	6
	38	13	158.3615	13324.17	-18955.26	1	23169.71	-54.89556	4.162809E-010	0.0458624	6
	39	14	125.558	14428.83	-23051.55	1	27194.95	-57.95601	4.738261E-010	0.0458584	6
	40	14	100.4464	15730.27	-27805.36	1	31946.51	-60.50194	4.906398E-010	0.0458552	6
	41	14	79.00281	17467.8	-34007.54	1	38231.36	-62.81293	3.521907E-010	0.04585	6
	42	15	63.3446	19423.06	-40946.39	1	45319.56	-64.62251	3.480681E-010	0.0458469	6
	43	15	49.86702	22069.97	-50020.35	1	54672.83	-66.19198	3.610255E-010	0.0458463	6
	44	15	39.72458	25270.19	-60495.53	1	65561.36	-67.32873	5.958205E-010	0.0458486	6
	45	16	31.6723	29272.56	-73094.3	1	78737.92	-68.17506	7.225581E-010	0.0458501	6
	46	16	24.93351	34725.19	-89194.27	1	95715.5	-68.728	4.239757E-010	0.0458464	6
	47	16	19.86229	41483.94	-107574.3	1	115295.9	-68.91183	3.106898E-010	0.045853	5
	48	17	15.83615	50318.84	-129392.4	1	138832.2	-68.74966	-4.528613E-010	0.0458518	5
	49	17	12.40079	62730.99	-157472.3	1	169507.3	-68.27954	-7.064895E-010	0.0458576	5
	50	17	9.93114	77449.32	-187212.9	1	202600.7	-67.52529	-8.025615E-010	0.0458498	5
	51	18	7.944915	96228.4	-221951.2	1	241913.7	-66.56055	-2.794951E-010	0.0458527	5
	52	18	6.317385	121006.7	-261845	1	288453.5	-65.19688	-7.843969E-012	0.0458423	5
	53	19	5.008013	152850	-307544.2	1	343433.4	-63.57255	-1.08568E-010	0.0458407	5
	54	20	3.945707	193408.9	-359717.1	1	408415.7	-61.73444	-1.953155E-010	0.0458501	5
	55	21	3.158693	238866.1	-411372.8	1	475693.8	-59.85814	-5.215885E-011	0.0458374	5
	56	22	2.504006	295720.8	-469666.6	1	555011.3	-57.80385	2.861508E-010	0.0458447	5
	57	23	1.998082	357341.9	-528124.5	1	637658.8	-55.91676	1.33461E-010	0.045827	5
	58	24	1.584686	431998.8	-592654.3	1	733390.8	-53.91087	9.12451E-013	0.0457954	5
	59	26	1.266892	508776.3	-658145.9	1	831871	-52.29436	3.750777E-012	0.0458139	5
	60	29	0.999041	599003	-730729.8	1	944865.4	-50.65741	2.913051E-011	0.0458394	5
