EXPLAIN
TAG	EISPOT
TITLE	LABEL	Potentiostatic EIS	Test &Identifier
DATE	LABEL	6/1/2020	Date
TIME	LABEL	13:23:17	Time
NOTES	NOTES	1	&Notes...
	
PSTAT	PSTAT	REF600-11020	Potentiostat
VDC	POTEN	0.00000E+000	T	DC &Voltage (V)
FREQINIT	QUANT	1.00000E+006	Initial Fre&q. (Hz)
FREQFINAL	QUANT	1.00000E+000	Final Fre&q. (Hz)
PTSPERDEC	QUANT	1.00000E+001	Points/&decade
VAC	QUANT	2.50000E+001	AC &Voltage (mV rms)
AREA	QUANT	4.00000E-004	&Area (cm^2)
CONDIT	TWOPARAM	F	5.00000E+000	0.00000E+000	Conditionin&g	Time(s)	E(V)
DELAY	TWOPARAM	T	3.00000E+000	0.00000E+000	Init. De&lay	Time(s)	Stab.(mV/s)
SPEED	SELECTOR	0	&Optimize for:
ZGUESS	QUANT	1.00000E+003	E&stimated Z (ohms)
OCVCURVE	TABLE	12
	Pt	T	Vf	Vm	Ach	Over
	#	s	V vs. Ref.	V	V	bits
	0	0.258333	-2.27389E-001	-2.27389E-001	6.03063E-004	...........
	1	0.516667	-2.27387E-001	-2.27296E-001	6.04330E-004	...........
	2	0.775	-2.27377E-001	-2.27224E-001	6.04996E-004	...........
	3	1.03333	-2.27348E-001	-2.27165E-001	6.03763E-004	...........
	4	1.29167	-2.27299E-001	-2.27115E-001	6.04663E-004	...........
	5	1.55	-2.27240E-001	-2.27075E-001	6.03563E-004	...........
	6	1.80833	-2.27180E-001	-2.27036E-001	6.06030E-004	...........
	7	2.06667	-2.27127E-001	-2.27008E-001	6.02330E-004	...........
	8	2.325	-2.27082E-001	-2.26981E-001	6.01930E-004	...........
	9	2.58333	-2.27044E-001	-2.26959E-001	6.06863E-004	...........
	10	2.84167	-2.27013E-001	-2.26938E-001	6.02096E-004	...........
	11	3.1	-2.26986E-001	-2.26920E-001	6.06163E-004	...........
EOC	QUANT	-0.2269856	Open Circuit (V)
PSTATMODEL	IQUANT	4	Pstat Model
PSTATSECTION	LABEL	REF600-11020	Pstat Section
PSTATSERIALNO	LABEL	11020	Pstat Serial Number
CTRLMODE	IQUANT	1	Control Mode
IESTAB	IQUANT	0	I/E Stability
CASPEED	IQUANT	1	Control Amp Speed
CONVENTION	IQUANT	1	Current Convention
ICHRANGE	IQUANT	2	Ich Range
ICHRANGEMODE	TOGGLE	F	Ich Auto Range
ICHOFFSETENABLE	TOGGLE	T	Ich Offset Enable
ICHOFFSET	QUANT	0	Ich Offset (V)
ICHFILTER	IQUANT	3	Ich Filter
VCHRANGE	IQUANT	2	Vch Range
VCHRANGEMODE	TOGGLE	F	Vch Auto Range
VCHOFFSETENABLE	TOGGLE	T	Vch Offset Enable
VCHOFFSET	QUANT	0	Vch Offset (V)
VCHFILTER	IQUANT	3	Vch Filter
ACHRANGE	IQUANT	2	Ach Range
ACHOFFSETENABLE	TOGGLE	F	Ach Offset Enable
ACHOFFSET	QUANT	0	Ach Offset (V)
ACHFILTER	IQUANT	3	Ach Filter
IERANGELOWERLIMIT	IQUANT	1	I/E Range Lower Limit
IERANGEMODE	TOGGLE	F	I/E AutoRange
IERANGE	IQUANT	8	I/E Range
POSFEEDENABLE	TOGGLE	F	Positive Feedback IR Comp
POSFEEDRESISTANCE	QUANT	0	Positive Feedback Resistance (ohm)
ACHSELECT	IQUANT	0	Ach Select
CABLEID	IQUANT	14	Cable ID
DCCALDATE	LABEL	2/27/2020	DC Calibration Date
ACCALDATE	LABEL	2/27/2020	AC Calibration Date
THERMOSELECT	IQUANT	1	Thermo Select
FRAMEWORKVERSION	QUANT	6.33	Framework Version
INSTRUMENTVERSION	LABEL	3.50	Instrument Version
ZCURVE	TABLE
	Pt	Time	Freq	Zreal	Zimag	Zsig	Zmod	Zphz	Idc	Vdc	IERange
	#	s	Hz	ohm	ohm	V	ohm	°	A	V	#
	0	1	1000078	2393.942	-6225.102	1	6669.546	-68.96512	6.685551E-009	-0.2247653	8
	1	1	794390.6	3104.651	-7432.984	1	8055.316	-67.33041	6.932345E-008	-0.2250519	8
	2	2	630984.4	4043.141	-8785.039	1	9670.78	-65.28668	1.709152E-008	-0.2251919	8
	3	2	501234.4	5247.173	-10287.48	1	11548.38	-62.97595	2.121146E-008	-0.2252752	8
	4	2	398109.4	6755.887	-11870.73	1	13658.56	-60.35487	4.278943E-008	-0.2253163	8
	5	3	316265.6	8628.229	-13499.09	1	16020.98	-57.41446	4.341572E-008	-0.2253407	8
	6	3	251203.1	10873.95	-15128.55	1	18631.05	-54.29256	1.985378E-008	-0.2253475	8
	7	3	199546.9	13486.33	-16515.79	1	21322.59	-50.76588	4.161418E-008	-0.2253416	8
	8	4	158578.1	16423.33	-17830.11	1	24241.26	-47.3518	4.240608E-008	-0.2253428	8
	9	4	125953.1	19952.55	-18692	1	27340.36	-43.13173	6.863162E-009	-0.2253945	7
	10	4	100078.1	23096.8	-19439.47	1	30188.66	-40.08572	1.699724E-009	-0.225407	7
	11	5	79453.13	26388.94	-20082.23	1	33161.3	-37.27147	2.01367E-009	-0.2254152	7
	12	5	63140.62	29696.37	-20513.7	1	36092.74	-34.636	2.128529E-009	-0.2254197	7
	13	5	50203.12	33009.82	-20830.68	1	39032.88	-32.25377	2.504206E-009	-0.2254243	7
	14	6	39890.62	36308.01	-21060.46	1	41973.97	-30.11588	3.122571E-009	-0.2254267	7
	15	6	31640.63	39578.68	-21181.78	1	44890.3	-28.15487	2.822531E-009	-0.2254264	7
	16	6	25171.88	42836.34	-21237.47	1	47811.95	-26.37137	3.680772E-009	-0.2254336	7
	17	7	20015.62	46022.8	-21212.28	1	50676.02	-24.74536	2.459198E-009	-0.2254285	7
	18	7	15890.62	49243.11	-21162.49	1	53597.9	-23.25588	2.903475E-009	-0.225432	7
	19	7	12609.37	52937.65	-20253.96	1	56679.96	-20.93686	5.809407E-010	-0.2253749	6
	20	7	10078.13	55814.94	-20236.8	1	59370.33	-19.92911	5.429678E-010	-0.225378	6
	21	8	8015.625	58693.79	-20218.46	1	62078.55	-19.00747	6.6894E-010	-0.2253714	6
	22	8	6328.125	61619.24	-20232.6	1	64855.91	-18.17753	4.64586E-010	-0.2253862	6
	23	8	5015.625	64415.79	-20294.39	1	67537.07	-17.48719	5.000615E-010	-0.225384	6
	24	9	3984.375	67128.91	-20460.61	1	70177.82	-16.951	6.046518E-010	-0.2253812	6
	25	9	3170.956	69785.57	-20731.71	1	72799.93	-16.54549	3.407896E-010	-0.2253911	6
	26	9	2527.573	72377.27	-21167.62	1	75409.13	-16.30221	4.415545E-010	-0.2253946	6
	27	10	1976.103	75176.7	-21825.15	1	78280.73	-16.18896	2.759698E-010	-0.2253953	6
	28	10	1577.524	77683.27	-22688.34	1	80928.69	-16.28109	5.226738E-010	-0.2253876	6
	29	10	1265.625	80163.67	-23810.63	1	83625.12	-16.54274	6.254843E-010	-0.2253828	6
	30	11	998.264	82860.41	-25366.13	1	86656.14	-17.02097	3.024793E-010	-0.225401	6
	31	11	796.875	85488.94	-27270.73	1	89733.22	-17.69253	4.930295E-010	-0.2253918	6
	32	11	627.7902	88784.7	-28798.17	1	93338.4	-17.97097	-5.768179E-011	-0.2253941	5
	33	12	505.5147	91494.16	-31867.7	1	96885.1	-19.20338	-1.161046E-010	-0.2253886	5
	34	12	397.9953	94690.95	-35974.69	1	101294.4	-20.80263	6.264281E-011	-0.2253719	5
	35	12	315.5048	98140.2	-40807	1	106286	-22.5777	7.836908E-011	-0.2253719	5
	36	13	252.4038	101821	-46372.44	1	111883.5	-24.48598	6.964516E-011	-0.2253769	5
	37	13	198.6229	106266.9	-53534.81	1	118990	-26.73792	6.745626E-011	-0.225377	5
	38	13	158.3615	111048.9	-61613.45	1	126996.4	-29.0229	8.820163E-011	-0.2253787	5
	39	14	125.558	116641.6	-71451.21	1	136786.4	-31.49042	1.027415E-010	-0.2253768	5
	40	14	100.4464	122800.5	-82639.73	1	148017.9	-33.93894	7.085324E-011	-0.2253805	5
	41	14	79.00281	130446.9	-96894.4	1	162495.9	-36.60452	7.265412E-011	-0.2253863	5
	42	15	63.3446	138553	-112397.5	1	178410	-39.04978	5.261103E-011	-0.2253815	5
	43	15	49.86702	148674.3	-132255.3	1	198986.3	-41.65514	9.227674E-011	-0.2253828	5
	44	15	39.72458	159783.1	-154634.2	1	222356.4	-44.06181	8.692538E-011	-0.2253784	5
	45	16	31.6723	172531.1	-181009.6	1	250062.9	-46.37378	6.228148E-011	-0.225385	5
	46	16	24.93351	188126.6	-214143.9	1	285042.5	-48.70051	2.019612E-010	-0.2253878	5
	47	16	19.86229	205224.1	-251833.7	1	324864.8	-50.82275	3.914674E-010	-0.225376	5
	48	17	15.83615	225540	-296708.7	1	372698.8	-52.7601	-1.148789E-010	-0.2253818	5
	49	17	12.40079	251450.1	-354283.8	1	434447	-54.63507	1.3875E-010	-0.2253793	5
	50	17	9.93114	279630.1	-417206.9	1	502249.5	-56.16829	5.469713E-011	-0.2253741	5
	51	17	7.944915	313187.3	-491442.6	1	582753.9	-57.49138	-1.784595E-010	-0.2253765	5
	52	18	6.317385	355740.1	-582397.4	1	682449.9	-58.58257	1.283554E-010	-0.2253972	5
	53	19	5.008013	408542.3	-691505.5	1	803172.9	-59.42535	1.408215E-010	-0.2253835	5
	54	20	3.945707	474413.8	-822679.3	1	949668.2	-60.02927	1.140118E-011	-0.2253929	5
	55	20	3.158693	552901.7	-967450	1	1114298	-60.25187	8.585882E-011	-0.2253957	4
	56	22	2.504006	649694.1	-1141044	1	1313044	-60.34344	6.410199E-011	-0.2253922	4
	57	23	1.998082	765924.9	-1335469	1	1539519	-60.16464	3.804456E-012	-0.2254388	4
	58	24	1.584686	906242.9	-1563447	1	1807109	-59.90152	2.705774E-011	-0.2254064	4
	59	26	1.266892	1076654	-1812014	1	2107743	-59.28226	4.456814E-011	-0.2253743	4
	60	29	0.999041	1294567	-2114990	1	2479735	-58.52956	5.220116E-011	-0.2253562	4
