EXPLAIN
TAG	EISPOT
TITLE	LABEL	Potentiostatic EIS	Test &Identifier
DATE	LABEL	9/11/2020	Date
TIME	LABEL	19:34:27	Time
NOTES	NOTES	1	&Notes...
	
PSTAT	PSTAT	REF600-11020	Potentiostat
VDC	POTEN	0.00000E+000	T	DC &Voltage (V)
FREQINIT	QUANT	1.00000E+006	Initial Fre&q. (Hz)
FREQFINAL	QUANT	1.00000E+000	Final Fre&q. (Hz)
PTSPERDEC	QUANT	1.00000E+001	Points/&decade
VAC	QUANT	2.50000E+001	AC &Voltage (mV rms)
AREA	QUANT	4.00000E-005	&Area (cm^2)
CONDIT	TWOPARAM	F	5.00000E+000	0.00000E+000	Conditionin&g	Time(s)	E(V)
DELAY	TWOPARAM	F	3.00000E+000	0.00000E+000	Init. De&lay	Time(s)	Stab.(mV/s)
SPEED	SELECTOR	0	&Optimize for:
ZGUESS	QUANT	1.00000E+003	E&stimated Z (ohms)
OCVCURVE	TABLE	39
	Pt	T	Vf	Vm	Ach	Over
	#	s	V vs. Ref.	V	V	bits
	0	0.258333	-2.05630E-001	-2.05630E-001	5.71458E-004	...........
	1	0.516667	-2.05630E-001	-2.05623E-001	5.72825E-004	...........
	2	0.775	-2.05629E-001	-2.05617E-001	5.71492E-004	...........
	3	1.03333	-2.05627E-001	-2.05609E-001	5.74258E-004	...........
	4	1.29167	-2.05622E-001	-2.05601E-001	5.68692E-004	...........
	5	1.55	-2.05617E-001	-2.05596E-001	5.64958E-004	...........
	6	1.80833	-2.05610E-001	-2.05591E-001	5.70625E-004	...........
	7	2.06667	-2.05603E-001	-2.05587E-001	5.65792E-004	...........
	8	2.325	-2.05597E-001	-2.05583E-001	5.66458E-004	...........
	9	2.58333	-2.05592E-001	-2.05575E-001	5.68692E-004	...........
	10	2.84167	-2.05587E-001	-2.05570E-001	5.70492E-004	...........
	11	3.1	-2.05582E-001	-2.05563E-001	5.72892E-004	...........
	12	3.35833	-2.05576E-001	-2.05558E-001	5.70192E-004	...........
	13	3.61667	-2.05570E-001	-2.05548E-001	5.69925E-004	...........
	14	3.875	-2.05564E-001	-2.05545E-001	5.71625E-004	...........
	15	4.13333	-2.05558E-001	-2.05540E-001	5.71625E-004	...........
	16	4.39167	-2.05551E-001	-2.05540E-001	5.72358E-004	...........
	17	4.65	-2.05546E-001	-2.05546E-001	5.68725E-004	...........
	18	4.90833	-2.05543E-001	-2.05553E-001	5.70558E-004	...........
	19	5.16667	-2.05544E-001	-2.05565E-001	5.67958E-004	...........
	20	5.425	-2.05547E-001	-2.05569E-001	5.66458E-004	...........
	21	5.68333	-2.05554E-001	-2.05569E-001	5.71492E-004	...........
	22	5.94167	-2.05561E-001	-2.05584E-001	5.71425E-004	...........
	23	6.2	-2.05567E-001	-2.05594E-001	5.68258E-004	...........
	24	6.45833	-2.05574E-001	-2.05596E-001	5.71392E-004	...........
	25	6.71667	-2.05582E-001	-2.05594E-001	5.70192E-004	...........
	26	6.975	-2.05589E-001	-2.05596E-001	5.70592E-004	...........
	27	7.23333	-2.05593E-001	-2.05593E-001	5.68092E-004	...........
	28	7.49167	-2.05595E-001	-2.05592E-001	5.71425E-004	...........
	29	7.75	-2.05595E-001	-2.05589E-001	5.71025E-004	...........
	30	8.00833	-2.05593E-001	-2.05589E-001	5.72925E-004	...........
	31	8.26667	-2.05592E-001	-2.05591E-001	5.74025E-004	...........
	32	8.525	-2.05591E-001	-2.05587E-001	5.74658E-004	...........
	33	8.78333	-2.05590E-001	-2.05586E-001	5.73058E-004	...........
	34	9.04167	-2.05589E-001	-2.05584E-001	5.74392E-004	...........
	35	9.3	-2.05588E-001	-2.05581E-001	5.71425E-004	...........
	36	9.5583	-2.05586E-001	-2.05580E-001	5.71958E-004	...........
	37	9.8167	-2.05584E-001	-2.05576E-001	5.73258E-004	...........
	38	10.075	-2.05582E-001	-2.05572E-001	5.69858E-004	...........
EOC	QUANT	-0.2055815	Open Circuit (V)
PSTATMODEL	IQUANT	4	Pstat Model
PSTATSECTION	LABEL	REF600-11020	Pstat Section
PSTATSERIALNO	LABEL	11020	Pstat Serial Number
CTRLMODE	IQUANT	1	Control Mode
IESTAB	IQUANT	0	I/E Stability
CASPEED	IQUANT	1	Control Amp Speed
CONVENTION	IQUANT	1	Current Convention
ICHRANGE	IQUANT	2	Ich Range
ICHRANGEMODE	TOGGLE	F	Ich Auto Range
ICHOFFSETENABLE	TOGGLE	T	Ich Offset Enable
ICHOFFSET	QUANT	0	Ich Offset (V)
ICHFILTER	IQUANT	3	Ich Filter
VCHRANGE	IQUANT	2	Vch Range
VCHRANGEMODE	TOGGLE	F	Vch Auto Range
VCHOFFSETENABLE	TOGGLE	T	Vch Offset Enable
VCHOFFSET	QUANT	0	Vch Offset (V)
VCHFILTER	IQUANT	3	Vch Filter
ACHRANGE	IQUANT	2	Ach Range
ACHOFFSETENABLE	TOGGLE	F	Ach Offset Enable
ACHOFFSET	QUANT	0	Ach Offset (V)
ACHFILTER	IQUANT	3	Ach Filter
IERANGELOWERLIMIT	IQUANT	1	I/E Range Lower Limit
IERANGEMODE	TOGGLE	F	I/E AutoRange
IERANGE	IQUANT	8	I/E Range
POSFEEDENABLE	TOGGLE	F	Positive Feedback IR Comp
POSFEEDRESISTANCE	QUANT	0	Positive Feedback Resistance (ohm)
ACHSELECT	IQUANT	0	Ach Select
CABLEID	IQUANT	14	Cable ID
DCCALDATE	LABEL	9/1/2020	DC Calibration Date
ACCALDATE	LABEL	9/1/2020	AC Calibration Date
THERMOSELECT	IQUANT	1	Thermo Select
FRAMEWORKVERSION	QUANT	6.33	Framework Version
INSTRUMENTVERSION	LABEL	3.50	Instrument Version
ZCURVE	TABLE
	Pt	Time	Freq	Zreal	Zimag	Zsig	Zmod	Zphz	Idc	Vdc	IERange
	#	s	Hz	ohm	ohm	V	ohm	°	A	V	#
	0	1	1000078	2055.57	-2293.635	1	3079.956	-48.13311	2.135259E-008	-0.2032924	8
	1	2	794390.6	2510.108	-2442.211	1	3502.147	-44.21452	9.019619E-008	-0.2036134	8
	2	2	630984.4	3000.061	-2525.436	1	3921.504	-40.0905	6.946161E-008	-0.2037775	8
	3	2	501234.4	3495.205	-2534.375	1	4317.35	-35.94589	4.576787E-008	-0.2039031	8
	4	3	398109.4	3972.416	-2469.278	1	4677.331	-31.86534	6.443246E-008	-0.2039427	8
	5	3	316265.6	4407.577	-2357.634	1	4998.517	-28.14254	9.521332E-008	-0.2039415	8
	6	3	251203.1	4801.608	-2211.417	1	5286.379	-24.72879	6.516375E-008	-0.2039918	8
	7	4	199546.9	5131.746	-2052.185	1	5526.869	-21.79647	4.795051E-008	-0.204006	8
	8	4	158578.1	5407.865	-1891.682	1	5729.177	-19.27993	6.320342E-008	-0.2039917	8
	9	4	125953.1	5685.686	-1724.321	1	5941.406	-16.87119	1.266068E-009	-0.2039806	7
	10	5	100078.1	5887.073	-1593.416	1	6098.901	-15.145	2.375197E-009	-0.2040074	7
	11	5	79453.13	6063.616	-1501.39	1	6246.728	-13.90709	1.875437E-009	-0.2040176	7
	12	5	63140.62	6221.795	-1436.375	1	6385.445	-12.99965	2.421141E-009	-0.2040231	7
	13	5	50203.12	6366.997	-1398.17	1	6518.706	-12.38536	2.72134E-009	-0.2040267	7
	14	6	39890.62	6505.487	-1388.56	1	6652.027	-12.04867	3.032789E-009	-0.2040192	7
	15	6	31640.63	6642.086	-1407.831	1	6789.646	-11.96708	3.791937E-009	-0.2040248	7
	16	6	25171.88	6777.006	-1457.542	1	6931.972	-12.1378	4.222953E-009	-0.2040228	7
	17	7	20015.62	6914.538	-1537.816	1	7083.481	-12.53869	2.256748E-009	-0.2040274	7
	18	7	15890.62	7062.814	-1655.346	1	7254.207	-13.19061	4.695059E-009	-0.2040222	7
	19	7	12609.37	7219.168	-1808.265	1	7442.191	-14.06219	3.327701E-009	-0.2040274	7
	20	8	10078.13	7385.571	-1998.868	1	7651.283	-15.14402	4.347036E-009	-0.2040316	7
	21	8	8015.625	7570.839	-2236.525	1	7894.279	-16.45783	2.714461E-009	-0.2040343	7
	22	8	6328.125	7786.953	-2541.077	1	8191.075	-18.0728	3.266106E-009	-0.2040329	7
	23	9	5015.625	8025.644	-2900.001	1	8533.52	-19.86691	3.71709E-009	-0.2040407	7
	24	9	3984.375	8296.367	-3329.343	1	8939.477	-21.86566	4.437829E-009	-0.2040285	7
	25	9	3170.956	8620.812	-3812.707	1	9426.3	-23.85826	4.12621E-011	-0.2040395	6
	26	10	2527.573	8969.56	-4407.17	1	9993.81	-26.16708	-1.295544E-010	-0.2040413	6
	27	10	1976.103	9406.318	-5170.841	1	10733.89	-28.79848	-2.222223E-010	-0.2040418	6
	28	10	1577.524	9872.05	-5997.659	1	11551.16	-31.28033	2.767475E-010	-0.2040412	6
	29	11	1265.625	10404.4	-6939.681	1	12506.43	-33.70308	-4.937781E-011	-0.2040447	6
	30	11	998.264	11065.17	-8133.449	1	13732.84	-36.31775	2.413179E-010	-0.2040518	6
	31	11	796.875	11799.06	-9462.051	1	15124.43	-38.72725	8.110262E-011	-0.204046	6
	32	11	627.7902	12691.81	-11106.09	1	16864.97	-41.18786	5.295432E-010	-0.2040417	6
	33	12	505.5147	13639.98	-12863.05	1	18748.52	-43.32088	3.059752E-010	-0.2040444	6
	34	12	397.9953	14846.89	-15130.88	1	21198.44	-45.54277	3.899124E-010	-0.2040286	6
	35	12	315.5048	16210.76	-17730.63	1	24024.23	-47.56394	4.086906E-010	-0.2040331	6
	36	13	252.4038	17725.45	-20668.58	1	27228.33	-49.3835	3.897232E-010	-0.2040352	6
	37	13	198.6229	19615.45	-24396.47	1	31304.21	-51.19973	4.289877E-010	-0.2040372	6
	38	13	158.3615	21700.68	-28575.8	1	35881.69	-52.78668	2.782702E-010	-0.2040362	6
	39	14	125.558	24201.88	-33645.14	1	41445.46	-54.2715	2.857555E-010	-0.2040336	6
	40	14	100.4464	27033.31	-39412.43	1	47792.68	-55.55345	1.804805E-010	-0.2040358	6
	41	14	79.00281	30665.07	-46783.71	1	55938.02	-56.75657	3.643082E-010	-0.2040391	6
	42	15	63.3446	34671.75	-54806.49	1	64852.77	-57.68168	3.56028E-010	-0.2040397	6
	43	15	49.86702	39912.5	-65055.49	1	76323.16	-58.47027	3.159424E-010	-0.2040404	6
	44	15	39.72458	45988.68	-76530.13	1	89285.04	-58.99739	5.75782E-010	-0.2040363	6
	45	16	31.6723	53396.07	-89816.69	1	104490.1	-59.26849	6.769988E-011	-0.2040469	5
	46	16	24.93351	62963.91	-106249.3	1	123504.6	-59.3488	3.215237E-010	-0.2040556	5
	47	16	19.86229	74145.03	-124309.9	1	144742.7	-59.18591	9.074242E-010	-0.2040446	5
	48	17	15.83615	87821.36	-145036.9	1	169553.3	-58.80466	-3.134022E-010	-0.2040471	5
	49	17	12.40079	106175.8	-170129.6	1	200542.7	-58.03223	6.288204E-010	-0.2040389	5
	50	17	9.93114	126344.5	-195851	1	233067.6	-57.17373	1.886868E-010	-0.2040368	5
	51	18	7.944915	150468.5	-223593.9	1	269508.8	-56.06123	-1.023148E-009	-0.204039	5
	52	18	6.317385	180273	-254904.6	1	312209.3	-54.73138	1.892392E-010	-0.2040476	5
	53	19	5.008013	215377.4	-288372.9	1	359925.5	-53.24501	9.753273E-011	-0.2040507	5
	54	20	3.945707	255697.8	-324864.6	1	413422.8	-51.79406	-3.352069E-010	-0.2040521	5
	55	21	3.158693	298014	-359531.8	1	466985.5	-50.34485	8.023397E-011	-0.2040641	5
	56	22	2.504006	345454.7	-399115.8	1	527856.4	-49.12217	2.633394E-010	-0.2040541	5
	57	23	1.998082	394234.5	-439335.2	1	590284.9	-48.097	-3.591906E-011	-0.2040917	5
	58	24	1.584686	447643.9	-488026.4	1	662234.8	-47.47129	-1.165773E-010	-0.2040973	5
	59	26	1.266892	500587.8	-540255.6	1	736521.8	-47.18256	-5.468484E-011	-0.2040636	5
	60	29	0.999041	561875.6	-604152.4	1	825048.1	-47.07647	-1.13691E-011	-0.2040318	5
