EXPLAIN
TAG	EISPOT
TITLE	LABEL	Potentiostatic EIS	Test &Identifier
DATE	LABEL	1/14/2020	Date
TIME	LABEL	18:32:47	Time
NOTES	NOTES	5	&Notes...
	
	
	
	
	
PSTAT	PSTAT	REF600-11020	Potentiostat
VDC	POTEN	0.00000E+000	T	DC &Voltage (V)
FREQINIT	QUANT	1.00000E+006	Initial Fre&q. (Hz)
FREQFINAL	QUANT	1.00000E+000	Final Fre&q. (Hz)
PTSPERDEC	QUANT	1.00000E+001	Points/&decade
VAC	QUANT	2.50000E+001	AC &Voltage (mV rms)
AREA	QUANT	1.00000E-001	&Area (cm^2)
CONDIT	TWOPARAM	T	5.00000E+000	0.00000E+000	Conditionin&g	Time(s)	E(V)
DELAY	TWOPARAM	T	5.00000E+000	0.00000E+000	Init. De&lay	Time(s)	Stab.(mV/s)
SPEED	SELECTOR	0	&Optimize for:
ZGUESS	QUANT	5.00000E+002	E&stimated Z (ohms)
OCVCURVE	TABLE	19
	Pt	T	Vf	Vm	Ach	Over
	#	s	V vs. Ref.	V	V	bits
	0	0.258333	7.32014E-003	7.32014E-003	6.48680E-004	...........
	1	0.516667	7.32012E-003	7.31892E-003	6.46013E-004	...........
	2	0.775	7.32075E-003	7.35835E-003	6.46013E-004	...........
	3	1.03333	7.32514E-003	7.39764E-003	6.46113E-004	...........
	4	1.29167	7.33840E-003	7.45051E-003	6.48246E-004	...........
	5	1.55	7.36401E-003	7.50394E-003	6.46446E-004	...........
	6	1.80833	7.40117E-003	7.53650E-003	6.47180E-004	...........
	7	2.06667	7.44564E-003	7.60088E-003	6.48080E-004	...........
	8	2.325	7.49334E-003	7.65151E-003	6.42013E-004	...........
	9	2.58333	7.54293E-003	7.70283E-003	6.46180E-004	...........
	10	2.84167	7.59433E-003	7.75990E-003	6.48380E-004	...........
	11	3.1	7.64698E-003	7.81002E-003	6.43213E-004	...........
	12	3.35833	7.70041E-003	7.87315E-003	6.42846E-004	...........
	13	3.61667	7.75453E-003	7.92021E-003	6.49613E-004	...........
	14	3.875	7.80904E-003	7.96820E-003	6.45613E-004	...........
	15	4.13333	7.86294E-003	8.02594E-003	6.45146E-004	...........
	16	4.39167	7.91564E-003	8.07426E-003	6.47813E-004	...........
	17	4.65	7.96778E-003	8.13420E-003	6.43380E-004	...........
	18	4.90833	8.02003E-003	8.17205E-003	6.53413E-004	...........
EOC	QUANT	0.00802	Open Circuit (V)
PSTATMODEL	IQUANT	4	Pstat Model
PSTATSECTION	LABEL	REF600-11020	Pstat Section
PSTATSERIALNO	LABEL	11020	Pstat Serial Number
CTRLMODE	IQUANT	1	Control Mode
IESTAB	IQUANT	0	I/E Stability
CASPEED	IQUANT	1	Control Amp Speed
CONVENTION	IQUANT	1	Current Convention
ICHRANGE	IQUANT	2	Ich Range
ICHRANGEMODE	TOGGLE	F	Ich Auto Range
ICHOFFSETENABLE	TOGGLE	T	Ich Offset Enable
ICHOFFSET	QUANT	0	Ich Offset (V)
ICHFILTER	IQUANT	3	Ich Filter
VCHRANGE	IQUANT	2	Vch Range
VCHRANGEMODE	TOGGLE	F	Vch Auto Range
VCHOFFSETENABLE	TOGGLE	T	Vch Offset Enable
VCHOFFSET	QUANT	0	Vch Offset (V)
VCHFILTER	IQUANT	3	Vch Filter
ACHRANGE	IQUANT	2	Ach Range
ACHOFFSETENABLE	TOGGLE	F	Ach Offset Enable
ACHOFFSET	QUANT	0	Ach Offset (V)
ACHFILTER	IQUANT	3	Ach Filter
IERANGELOWERLIMIT	IQUANT	1	I/E Range Lower Limit
IERANGEMODE	TOGGLE	F	I/E AutoRange
IERANGE	IQUANT	7	I/E Range
POSFEEDENABLE	TOGGLE	F	Positive Feedback IR Comp
POSFEEDRESISTANCE	QUANT	0	Positive Feedback Resistance (ohm)
ACHSELECT	IQUANT	0	Ach Select
CABLEID	IQUANT	14	Cable ID
DCCALDATE	LABEL	12/22/2019	DC Calibration Date
ACCALDATE	LABEL	12/22/2019	AC Calibration Date
THERMOSELECT	IQUANT	1	Thermo Select
FRAMEWORKVERSION	QUANT	6.33	Framework Version
INSTRUMENTVERSION	LABEL	3.50	Instrument Version
ZCURVE	TABLE
	Pt	Time	Freq	Zreal	Zimag	Zsig	Zmod	Zphz	Idc	Vdc	IERange
	#	s	Hz	ohm	ohm	V	ohm	°	A	V	#
	0	1	1000078	1682.562	-783.1238	1	1855.882	-24.95893	1.327435E-006	0.0095739	8
	1	1	794390.6	1803.542	-774.7451	1	1962.904	-23.24685	2.947238E-006	0.0093954	8
	2	2	630984.4	1922.213	-751.5395	1	2063.908	-21.35431	1.725512E-006	0.0093151	8
	3	2	501234.4	2039.656	-722.9804	1	2164	-19.51748	-1.758387E-006	0.0099712	8
	4	2	398109.4	2141.396	-698.8656	1	2252.552	-18.0746	6.624048E-007	0.0094786	8
	5	3	316265.6	2237.032	-667.4176	1	2334.472	-16.61245	-2.203407E-007	0.0095627	8
	6	3	251203.1	2324.662	-646.3475	1	2412.844	-15.53802	2.000955E-006	0.009216	8
	7	3	199546.9	2399.61	-631.2037	1	2481.239	-14.73748	-1.722116E-006	0.0098715	8
	8	4	158578.1	2477.064	-616.985	1	2552.747	-13.98658	-4.361549E-007	0.00975	8
	9	4	125953.1	2563.509	-596.3795	1	2631.966	-13.09645	-3.443134E-007	0.0102657	7
	10	4	100078.1	2631.011	-598.1777	1	2698.154	-12.80883	1.477701E-009	0.0095506	7
	11	5	79453.13	2701.692	-619.5604	1	2771.822	-12.91593	-2.88889E-008	0.0095913	7
	12	5	63140.62	2774.741	-647.5971	1	2849.311	-13.13711	-1.702029E-008	0.0095422	7
	13	5	50203.12	2852.003	-681.3895	1	2932.271	-13.437	8.466038E-009	0.0094946	7
	14	5	39890.62	2932.62	-722.6501	1	3020.344	-13.84292	5.180883E-010	0.0095552	7
	15	6	31640.63	3016.188	-773.3589	1	3113.755	-14.38099	2.965951E-008	0.0094602	7
	16	6	25171.88	3102.615	-834.8995	1	3212.985	-15.06126	2.035488E-009	0.0095611	7
	17	6	20015.62	3192.424	-910.0787	1	3319.611	-15.9115	-1.144606E-008	0.0095248	7
	18	7	15890.62	3291.119	-1005.82	1	3441.386	-16.99401	2.430317E-010	0.0095389	7
	19	7	12609.37	3398.17	-1120.81	1	3578.236	-18.25398	2.570278E-008	0.0095008	7
	20	7	10078.13	3514.205	-1254.891	1	3731.54	-19.6512	1.304112E-009	0.0095469	7
	21	8	8015.625	3654.65	-1416.02	1	3919.385	-21.17921	1.172867E-009	0.009513	7
	22	8	6328.125	3823.873	-1609	1	4148.6	-22.82026	6.07155E-010	0.0095103	7
	23	8	5015.625	4018.456	-1824.066	1	4413.072	-24.41435	2.910012E-008	0.0094546	7
	24	8	3984.375	4240.834	-2062.446	1	4715.756	-25.93505	-1.022868E-008	0.0095232	7
	25	9	3170.956	4500.019	-2320.018	1	5062.87	-27.2737	5.216733E-008	0.0095013	7
	26	9	2527.573	4783.979	-2590.275	1	5440.218	-28.43323	4.834494E-008	0.0094501	7
	27	9	1976.103	5120.829	-2909.639	1	5889.728	-29.6051	2.685596E-009	0.009537	7
	28	10	1577.524	5433.148	-3214.029	1	6312.613	-30.60683	9.725621E-009	0.0094839	7
	29	10	1265.625	5754.562	-3571.52	1	6772.793	-31.82546	2.683722E-008	0.0094983	7
	30	10	998.264	6084.476	-4014.374	1	7289.447	-33.41575	-1.074457E-008	0.0095214	7
	31	11	796.875	6395.663	-4530.227	1	7837.567	-35.31101	-1.143051E-008	0.0095201	7
	32	11	627.7902	6709.515	-5227.771	1	8505.715	-37.92422	-2.879717E-008	0.0095905	7
	33	11	505.5147	7010.11	-6021.615	1	9241.293	-40.66225	1.078846E-008	0.0095826	7
	34	11	397.9953	7352.617	-7115.705	1	10232.02	-44.06189	2.601362E-010	0.0095507	6
	35	12	315.5048	7723.678	-8473.308	1	11465.26	-47.64988	5.299058E-010	0.0095457	6
	36	12	252.4038	8139.316	-10102.86	1	12973.67	-51.14351	3.546151E-010	0.0095429	6
	37	12	198.6229	8676.075	-12276.47	1	15032.83	-54.75024	5.05423E-010	0.009543	6
	38	13	158.3615	9307.244	-14821.28	1	17501.29	-57.87263	5.211922E-010	0.0095448	6
	39	13	125.558	10117.78	-18023.18	1	20668.92	-60.6912	6.45263E-010	0.0095431	6
	40	13	100.4464	11099.17	-21767.17	1	24433.61	-62.98278	6.58039E-010	0.0095383	6
	41	14	79.00281	12465.45	-26709.03	1	29474.73	-64.98093	5.291886E-010	0.0095402	6
	42	14	63.3446	13985.65	-32102.92	1	35017.08	-66.45963	2.831724E-010	0.0095402	6
	43	14	49.86702	16283.61	-39255.67	1	42498.98	-67.47089	1.57228E-011	0.0095342	6
	44	15	39.72458	19023.04	-47503.78	1	51171.14	-68.17622	7.574247E-010	0.0095371	6
	45	15	31.6723	22494.4	-57207.29	1	61470.9	-68.53482	8.333065E-010	0.0095348	6
	46	15	24.93351	27180.95	-69508.42	1	74633.94	-68.64224	1.041463E-009	0.0095363	6
	47	16	19.86229	32823.06	-83391.41	1	89618.53	-68.51528	1.154086E-009	0.0095338	6
	48	16	15.83615	39712.59	-99681.9	1	107301.3	-68.278	6.993469E-010	0.0095358	5
	49	16	12.40079	49284.32	-119864.5	1	129601.1	-67.64915	1.225795E-009	0.0095311	5
	50	16	9.93114	60708.82	-141703.6	1	154160.6	-66.80869	-4.536706E-010	0.0095292	5
	51	17	7.944915	75282.71	-166304.6	1	182550.6	-65.64471	-2.932586E-011	0.0095278	5
	52	17	6.317385	91616.34	-196046.1	1	216396.9	-64.95235	-4.043812E-010	0.0095461	5
	53	18	5.008013	112959.6	-229882.3	1	256136.2	-63.83142	-2.009141E-010	0.0095406	5
	54	19	3.945707	138386.6	-268953.3	1	302467.8	-62.77248	8.268281E-011	0.0095331	5
	55	20	3.158693	167184.8	-310287.6	1	352461.5	-61.68394	-4.504555E-011	0.0095467	5
	56	21	2.504006	202027.7	-358975.4	1	411920.5	-60.62963	-2.185283E-010	0.0095377	5
	57	23	1.998082	239011.6	-411313.8	1	475715.8	-59.83943	-1.040947E-010	0.0095299	5
	58	24	1.584686	283724.9	-472501.6	1	551142	-59.01628	4.406331E-012	0.0095702	5
	59	26	1.266892	330600.2	-541465.6	1	634414.3	-58.5932	-2.298051E-012	0.0095743	5
	60	29	0.999041	385240.6	-625522.4	1	734635	-58.37233	4.417196E-013	0.0095615	5
