EXPLAIN
TAG	EISPOT
TITLE	LABEL	Potentiostatic EIS	Test &Identifier
DATE	LABEL	9/11/2020	Date
TIME	LABEL	19:55:26	Time
NOTES	NOTES	1	&Notes...
	
PSTAT	PSTAT	REF600-11020	Potentiostat
VDC	POTEN	0.00000E+000	T	DC &Voltage (V)
FREQINIT	QUANT	1.00000E+006	Initial Fre&q. (Hz)
FREQFINAL	QUANT	1.00000E+000	Final Fre&q. (Hz)
PTSPERDEC	QUANT	1.00000E+001	Points/&decade
VAC	QUANT	2.50000E+001	AC &Voltage (mV rms)
AREA	QUANT	4.00000E-005	&Area (cm^2)
CONDIT	TWOPARAM	F	5.00000E+000	0.00000E+000	Conditionin&g	Time(s)	E(V)
DELAY	TWOPARAM	F	3.00000E+000	0.00000E+000	Init. De&lay	Time(s)	Stab.(mV/s)
SPEED	SELECTOR	0	&Optimize for:
ZGUESS	QUANT	1.00000E+003	E&stimated Z (ohms)
OCVCURVE	TABLE	39
	Pt	T	Vf	Vm	Ach	Over
	#	s	V vs. Ref.	V	V	bits
	0	0.258333	-1.51377E-001	-1.51377E-001	5.50925E-004	...........
	1	0.516667	-1.51378E-001	-1.51432E-001	5.54792E-004	...........
	2	0.775	-1.51384E-001	-1.51487E-001	5.57392E-004	...........
	3	1.03333	-1.51403E-001	-1.51540E-001	5.57859E-004	...........
	4	1.29167	-1.51437E-001	-1.51588E-001	5.53425E-004	...........
	5	1.55	-1.51482E-001	-1.51634E-001	5.54425E-004	...........
	6	1.80833	-1.51531E-001	-1.51678E-001	5.60459E-004	...........
	7	2.06667	-1.51581E-001	-1.51723E-001	5.61159E-004	...........
	8	2.325	-1.51629E-001	-1.51763E-001	5.56425E-004	...........
	9	2.58333	-1.51674E-001	-1.51803E-001	5.54025E-004	...........
	10	2.84167	-1.51717E-001	-1.51841E-001	5.55192E-004	...........
	11	3.1	-1.51759E-001	-1.51881E-001	5.61292E-004	...........
	12	3.35833	-1.51799E-001	-1.51911E-001	5.58559E-004	...........
	13	3.61667	-1.51838E-001	-1.51946E-001	5.48592E-004	...........
	14	3.875	-1.51874E-001	-1.51980E-001	5.59025E-004	...........
	15	4.13333	-1.51909E-001	-1.52009E-001	5.50892E-004	...........
	16	4.39167	-1.51943E-001	-1.52042E-001	5.50825E-004	...........
	17	4.65	-1.51975E-001	-1.52074E-001	5.54459E-004	...........
	18	4.90833	-1.52007E-001	-1.52100E-001	5.58925E-004	...........
	19	5.16667	-1.52039E-001	-1.52129E-001	5.57859E-004	...........
	20	5.425	-1.52069E-001	-1.52157E-001	5.50225E-004	...........
	21	5.68333	-1.52098E-001	-1.52185E-001	5.56559E-004	...........
	22	5.94167	-1.52127E-001	-1.52210E-001	5.56325E-004	...........
	23	6.2	-1.52154E-001	-1.52233E-001	5.51792E-004	...........
	24	6.45833	-1.52181E-001	-1.52256E-001	5.51759E-004	...........
	25	6.71667	-1.52207E-001	-1.52283E-001	5.51692E-004	...........
	26	6.975	-1.52231E-001	-1.52306E-001	5.57392E-004	...........
	27	7.23333	-1.52255E-001	-1.52328E-001	5.48625E-004	...........
	28	7.49167	-1.52279E-001	-1.52351E-001	5.52359E-004	...........
	29	7.75	-1.52303E-001	-1.52371E-001	5.57659E-004	...........
	30	8.00833	-1.52326E-001	-1.52393E-001	5.62025E-004	...........
	31	8.26667	-1.52348E-001	-1.52414E-001	5.54692E-004	...........
	32	8.525	-1.52370E-001	-1.52435E-001	5.56992E-004	...........
	33	8.78333	-1.52391E-001	-1.52454E-001	5.53825E-004	...........
	34	9.04167	-1.52412E-001	-1.52472E-001	5.52159E-004	...........
	35	9.3	-1.52432E-001	-1.52491E-001	5.52825E-004	...........
	36	9.5583	-1.52452E-001	-1.52509E-001	5.53259E-004	...........
	37	9.8167	-1.52471E-001	-1.52528E-001	5.50125E-004	...........
	38	10.075	-1.52489E-001	-1.52548E-001	5.54692E-004	...........
EOC	QUANT	-0.1524894	Open Circuit (V)
PSTATMODEL	IQUANT	4	Pstat Model
PSTATSECTION	LABEL	REF600-11020	Pstat Section
PSTATSERIALNO	LABEL	11020	Pstat Serial Number
CTRLMODE	IQUANT	1	Control Mode
IESTAB	IQUANT	0	I/E Stability
CASPEED	IQUANT	1	Control Amp Speed
CONVENTION	IQUANT	1	Current Convention
ICHRANGE	IQUANT	2	Ich Range
ICHRANGEMODE	TOGGLE	F	Ich Auto Range
ICHOFFSETENABLE	TOGGLE	T	Ich Offset Enable
ICHOFFSET	QUANT	0	Ich Offset (V)
ICHFILTER	IQUANT	3	Ich Filter
VCHRANGE	IQUANT	2	Vch Range
VCHRANGEMODE	TOGGLE	F	Vch Auto Range
VCHOFFSETENABLE	TOGGLE	T	Vch Offset Enable
VCHOFFSET	QUANT	0	Vch Offset (V)
VCHFILTER	IQUANT	3	Vch Filter
ACHRANGE	IQUANT	2	Ach Range
ACHOFFSETENABLE	TOGGLE	F	Ach Offset Enable
ACHOFFSET	QUANT	0	Ach Offset (V)
ACHFILTER	IQUANT	3	Ach Filter
IERANGELOWERLIMIT	IQUANT	1	I/E Range Lower Limit
IERANGEMODE	TOGGLE	F	I/E AutoRange
IERANGE	IQUANT	8	I/E Range
POSFEEDENABLE	TOGGLE	F	Positive Feedback IR Comp
POSFEEDRESISTANCE	QUANT	0	Positive Feedback Resistance (ohm)
ACHSELECT	IQUANT	0	Ach Select
CABLEID	IQUANT	14	Cable ID
DCCALDATE	LABEL	9/1/2020	DC Calibration Date
ACCALDATE	LABEL	9/1/2020	AC Calibration Date
THERMOSELECT	IQUANT	1	Thermo Select
FRAMEWORKVERSION	QUANT	6.33	Framework Version
INSTRUMENTVERSION	LABEL	3.50	Instrument Version
ZCURVE	TABLE
	Pt	Time	Freq	Zreal	Zimag	Zsig	Zmod	Zphz	Idc	Vdc	IERange
	#	s	Hz	ohm	ohm	V	ohm	°	A	V	#
	0	1	1000078	1882.028	-2212.507	1	2904.689	-49.61447	9.817231E-008	-0.150438	8
	1	1	794390.6	2272.517	-2399.693	1	3304.975	-46.55919	8.854081E-008	-0.1507382	8
	2	2	630984.4	2695.483	-2544.511	1	3706.773	-43.34968	2.863923E-008	-0.1508282	8
	3	2	501234.4	3134.819	-2660.286	1	4111.473	-40.31876	1.654264E-007	-0.1509169	8
	4	2	398109.4	3581.781	-2751.319	1	4516.515	-37.52941	9.066405E-008	-0.1509849	8
	5	2	316265.6	4026.728	-2810.537	1	4910.566	-34.9139	1.444213E-007	-0.1509892	8
	6	3	251203.1	4475.586	-2873.122	1	5318.43	-32.69861	9.299631E-008	-0.1510207	8
	7	3	199546.9	4922.939	-2919.916	1	5723.744	-30.67322	9.161175E-008	-0.1510282	8
	8	3	158578.1	5372.596	-2960.856	1	6134.448	-28.85931	7.923858E-008	-0.1510193	8
	9	4	125953.1	5898.473	-2970.292	1	6604.136	-26.72843	-1.480401E-009	-0.1510128	7
	10	4	100078.1	6382.476	-2984.926	1	7045.976	-25.06433	4.833813E-009	-0.151032	7
	11	4	79453.13	6881.035	-2985.201	1	7500.671	-23.45266	5.046501E-009	-0.1510382	7
	12	5	63140.62	7380.852	-2944.395	1	7946.473	-21.74822	1.791215E-009	-0.1510469	7
	13	5	50203.12	7865.165	-2866.37	1	8371.194	-20.02369	4.009499E-009	-0.1510472	7
	14	5	39890.62	8317.887	-2750.213	1	8760.76	-18.29587	3.681162E-009	-0.151048	7
	15	6	31640.63	8734.904	-2619.402	1	9119.201	-16.69281	4.768811E-009	-0.151054	7
	16	6	25171.88	9094.344	-2482.588	1	9427.106	-15.26868	2.684926E-009	-0.151049	7
	17	6	20015.62	9407.915	-2359.404	1	9699.26	-14.0788	3.190322E-009	-0.1510541	7
	18	7	15890.62	9689.79	-2261.857	1	9950.27	-13.13911	3.194524E-009	-0.1510539	7
	19	7	12609.37	10011.67	-2113.447	1	10232.32	-11.92003	3.786388E-010	-0.1510479	6
	20	7	10078.13	10220.63	-2097.53	1	10433.65	-11.5975	1.481356E-010	-0.1510575	6
	21	8	8015.625	10431.37	-2123.056	1	10645.22	-11.50406	4.216172E-010	-0.1510545	6
	22	8	6328.125	10640.7	-2197.46	1	10865.24	-11.66838	-1.878357E-010	-0.1510586	6
	23	8	5015.625	10845.25	-2319.785	1	11090.57	-12.07356	-2.859814E-011	-0.1510587	6
	24	8	3984.375	11047.08	-2496.91	1	11325.75	-12.73623	2.778495E-010	-0.1510616	6
	25	9	3170.956	11262.65	-2733.01	1	11589.5	-13.63983	-4.673195E-011	-0.1510634	6
	26	9	2527.573	11485.27	-3036.752	1	11879.95	-14.81032	1.858031E-010	-0.1510613	6
	27	9	1976.103	11747.34	-3459.42	1	12246.12	-16.40893	-2.369079E-010	-0.1510628	6
	28	10	1577.524	12009.34	-3944.886	1	12640.66	-18.18457	3.633213E-010	-0.1510644	6
	29	10	1265.625	12298.37	-4528.029	1	13105.46	-20.21276	2.023617E-010	-0.1510623	6
	30	10	998.264	12648.22	-5295.719	1	13712.11	-22.71871	1.103943E-010	-0.1510635	6
	31	11	796.875	13029.63	-6187.723	1	14424.25	-25.40288	-3.390816E-011	-0.1510644	6
	32	11	627.7902	13502.4	-7338.223	1	15367.64	-28.52299	-7.278529E-011	-0.1510634	6
	33	11	505.5147	14004.86	-8596.201	1	16432.61	-31.54166	-4.603701E-010	-0.1510625	6
	34	12	397.9953	14653.64	-10269.56	1	17893.94	-35.02353	5.088477E-010	-0.1510515	6
	35	12	315.5048	15409.96	-12233.1	1	19675.25	-38.4441	6.698004E-010	-0.151061	6
	36	12	252.4038	16282.83	-14496.83	1	21801.12	-41.67912	4.828761E-010	-0.1510548	6
	37	13	198.6229	17412.54	-17418.92	1	24629.56	-45.0105	6.30166E-010	-0.1510561	6
	38	13	158.3615	18728.03	-20737.75	1	27942.68	-47.91517	6.015244E-010	-0.1510564	6
	39	13	125.558	20365.96	-24804.44	1	32094.12	-50.61192	7.115103E-010	-0.1510555	6
	40	14	100.4464	22310.33	-29462.93	1	36956.94	-52.86575	6.669331E-010	-0.1510603	6
	41	14	79.00281	24915.37	-35428.99	1	43312.69	-54.88327	5.205928E-010	-0.1510531	6
	42	14	63.3446	27897.97	-41926.39	1	50359.89	-56.36007	6.348182E-010	-0.1510593	6
	43	15	49.86702	31943.78	-50222.28	1	59520.44	-57.54168	5.020549E-011	-0.15106	6
	44	15	39.72458	36769.7	-59457.06	1	69908.18	-58.26634	6.859117E-010	-0.1510544	6
	45	15	31.6723	42802.09	-70157.96	1	82183.69	-58.6134	8.98909E-010	-0.1510586	6
	46	16	24.93351	50852.44	-83165.35	1	97480.5	-58.55581	1.063494E-009	-0.1510597	6
	47	16	19.86229	60396.5	-97158.4	1	114400.6	-58.13371	2.244889E-009	-0.1510616	5
	48	16	15.83615	72366.27	-112852.4	1	134061.7	-57.33009	-1.011476E-009	-0.1510641	5
	49	16	12.40079	88305.33	-130995.6	1	157980	-56.01574	8.314319E-010	-0.1510658	5
	50	17	9.93114	105563.8	-148839.9	1	182474.7	-54.65407	1.679824E-010	-0.1510592	5
	51	17	7.944915	125418.4	-166992.9	1	208845.4	-53.09197	-1.639296E-009	-0.1510597	5
	52	18	6.317385	148868.4	-186663	1	238757	-51.42678	7.205985E-010	-0.1510745	5
	53	18	5.008013	175042.4	-207208.3	1	271247.3	-49.81003	7.006025E-010	-0.1510612	5
	54	19	3.945707	203070.8	-228581.8	1	305757.1	-48.38228	-2.224686E-010	-0.1510715	5
	55	20	3.158693	230955.7	-250412.5	1	340656.6	-47.31463	4.491928E-010	-0.1510677	5
	56	21	2.504006	260003.2	-275592.8	1	378883.9	-46.66724	2.892672E-010	-0.1510609	5
	57	22	1.998082	289629.5	-304204.2	1	420030.3	-46.40596	-1.004981E-010	-0.1511116	5
	58	24	1.584686	319704	-339962.3	1	466674.4	-46.759	-1.852128E-012	-0.1510857	5
	59	26	1.266892	351395.6	-380536	1	517963.8	-47.27992	1.218085E-010	-0.1510488	5
	60	28	0.999041	388500.3	-434020.6	1	582500.1	-48.16766	1.911344E-010	-0.1510336	5
