EXPLAIN
TAG	EISPOT
TITLE	LABEL	Potentiostatic EIS	Test &Identifier
DATE	LABEL	6/14/2020	Date
TIME	LABEL	21:06:27	Time
NOTES	NOTES	1	&Notes...
	
PSTAT	PSTAT	REF600-10037	Potentiostat
VDC	POTEN	0.00000E+000	T	DC &Voltage (V)
FREQINIT	QUANT	1.00000E+006	Initial Fre&q. (Hz)
FREQFINAL	QUANT	1.00000E+000	Final Fre&q. (Hz)
PTSPERDEC	QUANT	1.00000E+001	Points/&decade
VAC	QUANT	2.50000E+001	AC &Voltage (mV rms)
AREA	QUANT	2.50000E-001	&Area (cm^2)
CONDIT	TWOPARAM	F	5.00000E+000	0.00000E+000	Conditionin&g	Time(s)	E(V)
DELAY	TWOPARAM	F	3.00000E+000	0.00000E+000	Init. De&lay	Time(s)	Stab.(mV/s)
SPEED	SELECTOR	0	&Optimize for:
ZGUESS	QUANT	1.00000E+003	E&stimated Z (ohms)
OCVCURVE	TABLE	39
	Pt	T	Vf	Vm	Ach	Over
	#	s	V vs. Ref.	V	V	bits
	0	0.258333	-8.87452E-003	-8.87452E-003	4.90421E-004	...........
	1	0.516667	-8.88316E-003	-9.32688E-003	4.89055E-004	...........
	2	0.775	-8.93607E-003	-9.74773E-003	4.90621E-004	...........
	3	1.03333	-9.08508E-003	-1.01424E-002	4.92355E-004	...........
	4	1.29167	-9.34981E-003	-1.05146E-002	4.90321E-004	...........
	5	1.55	-9.69855E-003	-1.08680E-002	4.90788E-004	...........
	6	1.80833	-1.00810E-002	-1.12042E-002	4.92555E-004	...........
	7	2.06667	-1.04611E-002	-1.15256E-002	4.93188E-004	...........
	8	2.325	-1.08236E-002	-1.18323E-002	4.91755E-004	...........
	9	2.58333	-1.11659E-002	-1.21260E-002	4.91388E-004	...........
	10	2.84167	-1.14902E-002	-1.24080E-002	4.90421E-004	...........
	11	3.1	-1.17992E-002	-1.26815E-002	4.89388E-004	...........
	12	3.35833	-1.20950E-002	-1.29464E-002	4.91088E-004	...........
	13	3.61667	-1.23795E-002	-1.32001E-002	4.89288E-004	...........
	14	3.875	-1.26538E-002	-1.34481E-002	4.90355E-004	...........
	15	4.13333	-1.29188E-002	-1.36892E-002	4.91188E-004	...........
	16	4.39167	-1.31753E-002	-1.39243E-002	4.89288E-004	...........
	17	4.65	-1.34241E-002	-1.41541E-002	4.88588E-004	...........
	18	4.90833	-1.36661E-002	-1.43753E-002	4.90921E-004	...........
	19	5.16667	-1.39017E-002	-1.45926E-002	4.90088E-004	...........
	20	5.425	-1.41310E-002	-1.48032E-002	4.90721E-004	...........
	21	5.68333	-1.43542E-002	-1.50146E-002	4.90555E-004	...........
	22	5.94167	-1.45721E-002	-1.52166E-002	4.92988E-004	...........
	23	6.2	-1.47851E-002	-1.54179E-002	4.93155E-004	...........
	24	6.45833	-1.49940E-002	-1.56154E-002	4.90988E-004	...........
	25	6.71667	-1.51987E-002	-1.58060E-002	4.90321E-004	...........
	26	6.975	-1.53995E-002	-1.59958E-002	4.90755E-004	...........
	27	7.23333	-1.55962E-002	-1.61812E-002	4.92988E-004	...........
	28	7.49167	-1.57891E-002	-1.63618E-002	4.90421E-004	...........
	29	7.75	-1.59784E-002	-1.65474E-002	4.90721E-004	...........
	30	8.00833	-1.61645E-002	-1.67207E-002	4.89021E-004	...........
	31	8.26667	-1.63478E-002	-1.68933E-002	4.89855E-004	...........
	32	8.525	-1.65281E-002	-1.70665E-002	4.88621E-004	...........
	33	8.78333	-1.67052E-002	-1.72366E-002	4.90155E-004	...........
	34	9.04167	-1.68794E-002	-1.74010E-002	4.90788E-004	...........
	35	9.3	-1.70512E-002	-1.75669E-002	4.90421E-004	...........
	36	9.5583	-1.72205E-002	-1.77296E-002	4.92121E-004	...........
	37	9.8167	-1.73876E-002	-1.78900E-002	4.91755E-004	...........
	38	10.075	-1.75524E-002	-1.80460E-002	4.92188E-004	...........
EOC	QUANT	-0.0175524	Open Circuit (V)
PSTATMODEL	IQUANT	4	Pstat Model
PSTATSECTION	LABEL	REF600-10037	Pstat Section
PSTATSERIALNO	LABEL	10037	Pstat Serial Number
CTRLMODE	IQUANT	1	Control Mode
IESTAB	IQUANT	0	I/E Stability
CASPEED	IQUANT	1	Control Amp Speed
CONVENTION	IQUANT	1	Current Convention
ICHRANGE	IQUANT	2	Ich Range
ICHRANGEMODE	TOGGLE	F	Ich Auto Range
ICHOFFSETENABLE	TOGGLE	T	Ich Offset Enable
ICHOFFSET	QUANT	0	Ich Offset (V)
ICHFILTER	IQUANT	3	Ich Filter
VCHRANGE	IQUANT	2	Vch Range
VCHRANGEMODE	TOGGLE	F	Vch Auto Range
VCHOFFSETENABLE	TOGGLE	T	Vch Offset Enable
VCHOFFSET	QUANT	0	Vch Offset (V)
VCHFILTER	IQUANT	3	Vch Filter
ACHRANGE	IQUANT	2	Ach Range
ACHOFFSETENABLE	TOGGLE	F	Ach Offset Enable
ACHOFFSET	QUANT	0	Ach Offset (V)
ACHFILTER	IQUANT	3	Ach Filter
IERANGELOWERLIMIT	IQUANT	1	I/E Range Lower Limit
IERANGEMODE	TOGGLE	F	I/E AutoRange
IERANGE	IQUANT	7	I/E Range
POSFEEDENABLE	TOGGLE	F	Positive Feedback IR Comp
POSFEEDRESISTANCE	QUANT	0	Positive Feedback Resistance (ohm)
ACHSELECT	IQUANT	0	Ach Select
CABLEID	IQUANT	14	Cable ID
DCCALDATE	LABEL	6/8/2020	DC Calibration Date
ACCALDATE	LABEL	6/8/2020	AC Calibration Date
THERMOSELECT	IQUANT	1	Thermo Select
FRAMEWORKVERSION	QUANT	6.33	Framework Version
INSTRUMENTVERSION	LABEL	3.50	Instrument Version
ZCURVE	TABLE
	Pt	Time	Freq	Zreal	Zimag	Zsig	Zmod	Zphz	Idc	Vdc	IERange
	#	s	Hz	ohm	ohm	V	ohm	°	A	V	#
	0	1	1000078	2108.846	-1888.559	1	2830.881	-41.84576	1.258495E-007	-0.008492	8
	1	1	794390.6	2503.112	-1939.525	1	3166.595	-37.77015	-5.436694E-008	-0.0087791	8
	2	2	630984.4	2900.216	-1918.564	1	3477.375	-33.48561	-4.654884E-008	-0.0089137	8
	3	2	501234.4	3276.582	-1840.161	1	3757.949	-29.31901	-1.551468E-007	-0.0089463	8
	4	2	398109.4	3604.21	-1709.738	1	3989.177	-25.37838	4.028718E-007	-0.0090645	8
	5	3	316265.6	3887.529	-1556.427	1	4187.522	-21.81939	3.217869E-008	-0.0089819	8
	6	3	251203.1	4115.212	-1396.407	1	4345.679	-18.74351	2.827264E-008	-0.0089726	8
	7	3	199546.9	4295.832	-1247.93	1	4473.421	-16.19847	1.683665E-007	-0.0090042	8
	8	3	158578.1	4446.173	-1111.347	1	4582.962	-14.03387	-1.009198E-007	-0.0090299	8
	9	4	125953.1	4640.146	-834.5522	1	4714.598	-10.19591	-1.055443E-007	-0.008994	7
	10	4	100078.1	4722.246	-762.0023	1	4783.331	-9.166482	-5.695489E-008	-0.0089192	7
	11	4	79453.13	4793.282	-711.5378	1	4845.807	-8.4436	-1.834018E-008	-0.0090712	7
	12	5	63140.62	4860.015	-676.2449	1	4906.837	-7.921538	1.049342E-008	-0.0091076	7
	13	5	50203.12	4924.051	-654.2249	1	4967.322	-7.568172	3.226358E-008	-0.0090057	7
	14	5	39890.62	4987.038	-645.5454	1	5028.646	-7.375619	-3.73928E-008	-0.0089392	7
	15	6	31640.63	5050.415	-649.5872	1	5092.019	-7.329176	-1.583362E-008	-0.0089618	7
	16	6	25171.88	5112.521	-665.5585	1	5155.661	-7.417169	3.14103E-008	-0.0090115	7
	17	6	20015.62	5174.534	-695.3984	1	5221.052	-7.654041	-7.076302E-008	-0.0089346	7
	18	7	15890.62	5239.149	-740.7966	1	5291.263	-8.048063	9.26819E-009	-0.0089842	7
	19	7	12609.37	5305.306	-801.5527	1	5365.515	-8.591559	3.642029E-008	-0.009134	7
	20	7	10078.13	5371.452	-880.463	1	5443.134	-9.308871	-7.798593E-008	-0.0089355	7
	21	8	8015.625	5443.122	-985.802	1	5531.67	-10.26555	-6.749703E-008	-0.0089885	7
	22	8	6328.125	5519.304	-1119.275	1	5631.651	-11.46371	-1.527584E-008	-0.0089562	7
	23	8	5015.625	5602.649	-1289.382	1	5749.103	-12.96027	3.631089E-008	-0.0091322	7
	24	9	3984.375	5690.679	-1497.464	1	5884.406	-14.74278	1.164658E-008	-0.0091107	7
	25	9	3170.956	5789.699	-1747.021	1	6047.536	-16.79101	1.003229E-008	-0.0089832	7
	26	9	2527.573	5899.768	-2054.982	1	6247.417	-19.20403	-3.656643E-008	-0.0089402	7
	27	9	1976.103	6037.824	-2469.599	1	6523.361	-22.24561	-7.769702E-008	-0.0089425	7
	28	10	1577.524	6183.489	-2934.953	1	6844.668	-25.39105	-3.665862E-008	-0.0089375	7
	29	10	1265.625	6350.544	-3491.044	1	7246.848	-28.79863	-7.809083E-008	-0.0089417	7
	30	10	998.264	6565.685	-4219.649	1	7804.72	-32.72813	-4.408719E-008	-0.0090322	7
	31	11	796.875	6813.847	-5064.62	1	8489.929	-36.62281	7.662259E-008	-0.0091216	7
	32	11	627.7902	7130.379	-6149.356	1	9415.778	-40.77502	-6.60091E-008	-0.0089949	7
	33	11	505.5147	7500.257	-7331.456	1	10488.28	-44.34794	7.749701E-009	-0.0090476	6
	34	12	397.9953	7981.171	-8925.773	1	11973.66	-48.19783	6.863196E-010	-0.0090248	6
	35	12	315.5048	8570.233	-10803.78	1	13790.23	-51.57635	7.605881E-010	-0.0090259	6
	36	12	252.4038	9275.817	-12967.98	1	15943.94	-54.42437	6.269741E-010	-0.009026	6
	37	13	198.6229	10217.32	-15748.27	1	18772.36	-57.02488	7.154747E-010	-0.0090269	6
	38	13	158.3615	11323.27	-18901.3	1	22033.51	-59.0753	7.306923E-010	-0.00903	6
	39	13	125.558	12709.34	-22740.25	1	26050.84	-60.79953	6.534923E-010	-0.0090266	6
	40	14	100.4464	14325.62	-27125.31	1	30675.82	-62.16023	5.4051E-010	-0.009026	6
	41	14	79.00281	16428.51	-32759.33	1	36647.91	-63.36665	6.004499E-010	-0.00903	6
	42	14	63.3446	18778.55	-38897.24	1	43192.93	-64.22999	5.612246E-010	-0.00903	6
	43	15	49.86702	21876.35	-46953.99	1	51800.12	-65.0187	4.746442E-010	-0.0090239	6
	44	15	39.72458	25479.41	-56151.4	1	61661.82	-65.59322	6.223103E-010	-0.0090257	6
	45	15	31.6723	30000.7	-67134.77	1	73533.12	-65.92143	7.215106E-010	-0.0090274	6
	46	16	24.93351	36080.64	-80910.31	1	88590.59	-65.96629	6.625331E-011	-0.0090286	6
	47	16	19.86229	43132.64	-95942.7	1	105192.3	-65.7929	-5.606241E-009	-0.017664	5
	48	16	15.83615	52298.29	-113785.3	1	125228.6	-65.31541	-3.565617E-009	-0.0176691	5
	49	17	12.40079	65760.59	-136449.3	1	151469.1	-64.26865	-2.628941E-009	-0.0176596	5
	50	17	9.93114	81098.3	-159561.7	1	178988.4	-63.05774	-1.993606E-009	-0.0176611	5
	51	17	7.944915	100216.7	-185206	1	210581.7	-61.58177	-1.635903E-009	-0.017657	5
	52	18	6.317385	123892.9	-213451.5	1	246801.6	-59.86799	-8.959413E-010	-0.0176507	5
	53	19	5.008013	152299.1	-244008.3	1	287637	-58.02942	-5.480988E-010	-0.0176569	5
	54	20	3.945707	185494.6	-276836.6	1	333236.8	-56.1759	-2.803443E-010	-0.017658	5
	55	21	3.158693	219834.4	-309143.4	1	379337.3	-54.58306	-1.740272E-010	-0.0176609	5
	56	22	2.504006	258905.4	-345245.2	1	431539.4	-53.13313	-1.697304E-011	-0.0176676	5
	57	24	1.998082	297279.8	-383919.3	1	485560.8	-52.24834	5.416663E-011	-0.0176676	5
	58	26	1.584686	337780.1	-429527.9	1	546433.6	-51.81854	1.742393E-010	-0.0176618	5
	59	29	1.266892	378122.2	-481759	1	612428	-51.8724	2.273707E-010	-0.0176642	5
	60	32	0.999041	423257.9	-549521.3	1	693628.8	-52.39545	2.337772E-010	-0.0176682	5
