EXPLAIN
TAG	EISPOT
TITLE	LABEL	Potentiostatic EIS	Test &Identifier
DATE	LABEL	1/14/2020	Date
TIME	LABEL	18:18:31	Time
NOTES	NOTES	5	&Notes...
	
	
	
	
	
PSTAT	PSTAT	REF600-11020	Potentiostat
VDC	POTEN	0.00000E+000	T	DC &Voltage (V)
FREQINIT	QUANT	1.00000E+006	Initial Fre&q. (Hz)
FREQFINAL	QUANT	1.00000E+000	Final Fre&q. (Hz)
PTSPERDEC	QUANT	1.00000E+001	Points/&decade
VAC	QUANT	2.50000E+001	AC &Voltage (mV rms)
AREA	QUANT	1.00000E-001	&Area (cm^2)
CONDIT	TWOPARAM	T	5.00000E+000	0.00000E+000	Conditionin&g	Time(s)	E(V)
DELAY	TWOPARAM	T	5.00000E+000	0.00000E+000	Init. De&lay	Time(s)	Stab.(mV/s)
SPEED	SELECTOR	1	&Optimize for:
ZGUESS	QUANT	5.00000E+002	E&stimated Z (ohms)
OCVCURVE	TABLE	19
	Pt	T	Vf	Vm	Ach	Over
	#	s	V vs. Ref.	V	V	bits
	0	0.258333	8.89318E-003	8.89318E-003	6.37780E-004	...........
	1	0.516667	8.89524E-003	9.00121E-003	6.30113E-004	...........
	2	0.775	8.90825E-003	9.12107E-003	6.36646E-004	...........
	3	1.03333	8.94649E-003	9.25383E-003	6.35913E-004	...........
	4	1.29167	9.01860E-003	9.38454E-003	6.36280E-004	...........
	5	1.55	9.12090E-003	9.52161E-003	6.38513E-004	...........
	6	1.80833	9.24281E-003	9.65969E-003	6.45146E-004	...........
	7	2.06667	9.37464E-003	9.79506E-003	6.41980E-004	...........
	8	2.325	9.51044E-003	9.92869E-003	6.38413E-004	...........
	9	2.58333	9.64701E-003	1.00600E-002	6.34446E-004	...........
	10	2.84167	9.78257E-003	1.01865E-002	6.41013E-004	...........
	11	3.1	9.91584E-003	1.03000E-002	6.40246E-004	...........
	12	3.35833	1.00452E-002	1.04070E-002	6.37113E-004	...........
	13	3.61667	1.01694E-002	1.05437E-002	6.37780E-004	...........
	14	3.875	1.02898E-002	1.06681E-002	6.42080E-004	...........
	15	4.13333	1.04102E-002	1.08003E-002	6.41613E-004	...........
	16	4.39167	1.05342E-002	1.09524E-002	6.42480E-004	...........
	17	4.65	1.06626E-002	1.10525E-002	6.40980E-004	...........
	18	4.90833	1.07933E-002	1.11656E-002	6.38713E-004	...........
EOC	QUANT	0.0107933	Open Circuit (V)
PSTATMODEL	IQUANT	4	Pstat Model
PSTATSECTION	LABEL	REF600-11020	Pstat Section
PSTATSERIALNO	LABEL	11020	Pstat Serial Number
CTRLMODE	IQUANT	1	Control Mode
IESTAB	IQUANT	0	I/E Stability
CASPEED	IQUANT	1	Control Amp Speed
CONVENTION	IQUANT	1	Current Convention
ICHRANGE	IQUANT	2	Ich Range
ICHRANGEMODE	TOGGLE	F	Ich Auto Range
ICHOFFSETENABLE	TOGGLE	T	Ich Offset Enable
ICHOFFSET	QUANT	0	Ich Offset (V)
ICHFILTER	IQUANT	3	Ich Filter
VCHRANGE	IQUANT	2	Vch Range
VCHRANGEMODE	TOGGLE	F	Vch Auto Range
VCHOFFSETENABLE	TOGGLE	T	Vch Offset Enable
VCHOFFSET	QUANT	0	Vch Offset (V)
VCHFILTER	IQUANT	3	Vch Filter
ACHRANGE	IQUANT	2	Ach Range
ACHOFFSETENABLE	TOGGLE	F	Ach Offset Enable
ACHOFFSET	QUANT	0	Ach Offset (V)
ACHFILTER	IQUANT	3	Ach Filter
IERANGELOWERLIMIT	IQUANT	1	I/E Range Lower Limit
IERANGEMODE	TOGGLE	F	I/E AutoRange
IERANGE	IQUANT	7	I/E Range
POSFEEDENABLE	TOGGLE	F	Positive Feedback IR Comp
POSFEEDRESISTANCE	QUANT	0	Positive Feedback Resistance (ohm)
ACHSELECT	IQUANT	0	Ach Select
CABLEID	IQUANT	14	Cable ID
DCCALDATE	LABEL	12/22/2019	DC Calibration Date
ACCALDATE	LABEL	12/22/2019	AC Calibration Date
THERMOSELECT	IQUANT	1	Thermo Select
FRAMEWORKVERSION	QUANT	6.33	Framework Version
INSTRUMENTVERSION	LABEL	3.50	Instrument Version
ZCURVE	TABLE
	Pt	Time	Freq	Zreal	Zimag	Zsig	Zmod	Zphz	Idc	Vdc	IERange
	#	s	Hz	ohm	ohm	V	ohm	°	A	V	#
	0	1	1000078	2308.464	-2009.047	1	3060.273	-41.03292	5.078376E-006	0.0120324	8
	1	2	794390.6	2703.607	-2026.213	1	3378.614	-36.84964	4.587935E-007	0.0122142	8
	2	4	630984.4	3104.033	-2024.095	1	3705.669	-33.10779	-2.633282E-006	0.0129404	8
	3	5	501234.4	3461.08	-1942.859	1	3969.103	-29.30745	1.864616E-006	0.0120663	8
	4	6	398109.4	3803.722	-1837.956	1	4224.498	-25.7898	1.627047E-006	0.0120135	8
	5	8	316265.6	4118.502	-1704.75	1	4457.379	-22.48587	2.832707E-006	0.0117003	8
	6	9	251203.1	4379.098	-1567.619	1	4651.229	-19.69624	-9.917645E-007	0.0124432	8
	7	11	199546.9	4595.754	-1412.469	1	4807.913	-17.0844	-2.652898E-008	0.0123778	8
	8	12	158578.1	4788.181	-1245.707	1	4947.571	-14.58296	-9.111981E-007	0.0124839	8
	9	13	125953.1	4947.51	-1119.674	1	5072.625	-12.75183	7.531707E-008	0.0118934	7
	10	15	100078.1	5066.51	-1010.242	1	5166.248	-11.27666	-4.164388E-008	0.012409	7
	11	16	79453.13	5177.658	-926.7704	1	5259.947	-10.14814	-4.131886E-008	0.0124083	7
	12	17	63140.62	5272.407	-860.5605	1	5342.175	-9.270056	2.779346E-009	0.0122591	7
	13	19	50203.12	5356.326	-811.3177	1	5417.422	-8.613068	-4.013586E-008	0.0123999	7
	14	20	39890.62	5432.883	-778.483	1	5488.374	-8.154459	-2.974226E-008	0.012294	7
	15	21	31640.63	5506.901	-765.5924	1	5559.864	-7.914768	1.163057E-008	0.0123189	7
	16	23	25171.88	5578.571	-771.249	1	5631.632	-7.871364	1.249632E-008	0.012319	7
	17	24	20015.62	5653.564	-793.4852	1	5708.976	-7.989352	5.190793E-008	0.0121568	7
	18	26	15890.62	5728.483	-830.9664	1	5788.439	-8.253682	5.223454E-008	0.0121556	7
	19	27	12609.37	5811.788	-887.5682	1	5879.171	-8.683043	1.292293E-008	0.01231	7
	20	28	10078.13	5898.787	-963.676	1	5976.985	-9.278362	5.093123E-008	0.0121813	7
	21	30	8015.625	5993.251	-1043.796	1	6083.467	-9.87964	-2.742814E-008	0.0122851	7
	22	31	6328.125	6102.406	-1174.012	1	6214.312	-10.88981	3.891277E-009	0.012247	7
	23	32	5015.625	6218.37	-1313.119	1	6355.502	-11.92384	4.331643E-009	0.0122738	7
	24	34	3984.375	6343.993	-1475.784	1	6513.385	-13.09563	-1.169352E-008	0.0122824	7
	25	35	3170.956	6475.427	-1669.929	1	6687.288	-14.46076	-8.678246E-011	0.0122345	7
	26	36	2527.573	6613.73	-1901.802	1	6881.735	-16.04278	1.430503E-008	0.012307	7
	27	38	1976.103	6772.32	-2202.408	1	7121.44	-18.0149	-8.540264E-009	0.0122304	7
	28	39	1577.524	6914.501	-2553.421	1	7370.908	-20.26843	3.327927E-009	0.0122729	7
	29	41	1265.625	7084.428	-2963.517	1	7679.293	-22.70025	-3.863782E-008	0.0123901	7
	30	42	998.264	7269.664	-3509.155	1	8072.31	-25.76717	-4.046581E-009	0.0122245	7
	31	43	796.875	7468.918	-4156.417	1	8547.546	-29.09573	-2.030812E-008	0.0123139	7
	32	45	627.7902	7704.932	-4997.514	1	9183.742	-32.96794	1.236295E-008	0.0121955	7
	33	46	505.5147	7957.364	-5933.965	1	9926.31	-36.71263	1.104422E-008	0.01211	6
	34	47	397.9953	8288.059	-7211.08	1	10985.97	-41.02512	8.584798E-010	0.0122651	6
	35	49	315.5048	8675.488	-8740.332	1	12314.93	-45.21333	7.069644E-010	0.0122638	6
	36	50	252.4038	9132.422	-10535.79	1	13942.89	-49.08127	6.060211E-010	0.0122627	6
	37	51	198.6229	9740.72	-12893.75	1	16159.53	-52.9304	6.370722E-010	0.0122634	6
	38	53	158.3615	10463.91	-15612.61	1	18794.87	-56.16915	6.627213E-010	0.0122592	6
	39	54	125.558	11394.35	-18999.83	1	22154.57	-59.04854	6.4978E-010	0.0122566	6
	40	56	100.4464	12521.56	-22920.71	1	26117.97	-61.35226	8.524809E-010	0.0122549	6
	41	57	79.00281	14078.61	-28058.29	1	31392.27	-63.3542	7.688067E-010	0.0122529	6
	42	58	63.3446	15767.33	-33784.52	1	37282.73	-64.98141	3.284955E-010	0.0122536	6
	43	60	49.86702	18270.32	-40939.97	1	44831.75	-65.95018	2.317666E-010	0.0122533	6
	44	61	39.72458	21155.82	-49413.82	1	53752.16	-66.8225	4.70286E-010	0.0122598	6
	45	63	31.6723	24826.21	-59416.1	1	64394.2	-67.32305	5.908661E-010	0.0122558	6
	46	64	24.93351	29553.94	-72002.59	1	77831.93	-67.68398	1.883249E-010	0.0122573	6
	47	65	19.86229	35287.43	-86283.81	1	93220.7	-67.75694	6.728118E-010	0.0122687	6
	48	67	15.83615	42521.25	-102952.8	1	111388.3	-67.55856	1.003408E-010	0.0122531	5
	49	68	12.40079	52390.11	-124642.7	1	135205.5	-67.2019	3.627939E-010	0.0122544	5
	50	70	9.93114	64523.53	-147564.5	1	161054.6	-66.38234	-5.567354E-011	0.012263	5
	51	71	7.944915	79238.87	-173332	1	190585.4	-65.43245	7.619071E-010	0.012261	5
	52	73	6.317385	98301	-203661.5	1	226144	-64.23486	-8.135238E-011	0.0122727	5
	53	75	5.008013	121020.4	-238248.5	1	267223.3	-63.07132	6.325985E-011	0.012269	5
	54	77	3.945707	149129.1	-277426.7	1	314968.3	-61.74001	-2.269962E-010	0.0122523	5
	55	80	3.158693	179280.5	-318068.7	1	365115.4	-60.59207	1.405604E-010	0.0122703	5
	56	83	2.504006	215071.2	-365578.9	1	424150.4	-59.53158	-1.324738E-010	0.0122458	5
	57	86	1.998082	252832.4	-417052.6	1	487705.9	-58.77424	-2.103228E-010	0.0122666	5
	58	89	1.584686	297202.2	-478659.3	1	563421.6	-58.16363	6.038155E-011	0.01231	5
	59	93	1.266892	342516.5	-546383.9	1	644866.6	-57.91727	-1.688264E-010	0.0122919	5
	60	97	0.999041	396777	-632571.4	1	746711.8	-57.90223	1.580998E-010	0.0122501	5
