EXPLAIN
TAG	EISPOT
TITLE	LABEL	Potentiostatic EIS	Test &Identifier
DATE	LABEL	6/19/2020	Date
TIME	LABEL	17:18:00	Time
NOTES	NOTES	1	&Notes...
	
PSTAT	PSTAT	REF600-10037	Potentiostat
VDC	POTEN	0.00000E+000	T	DC &Voltage (V)
FREQINIT	QUANT	1.00000E+006	Initial Fre&q. (Hz)
FREQFINAL	QUANT	1.00000E+000	Final Fre&q. (Hz)
PTSPERDEC	QUANT	1.00000E+001	Points/&decade
VAC	QUANT	1.00000E+002	AC &Voltage (mV rms)
AREA	QUANT	2.50000E-001	&Area (cm^2)
CONDIT	TWOPARAM	F	5.00000E+000	0.00000E+000	Conditionin&g	Time(s)	E(V)
DELAY	TWOPARAM	F	5.00000E+000	0.00000E+000	Init. De&lay	Time(s)	Stab.(mV/s)
SPEED	SELECTOR	0	&Optimize for:
ZGUESS	QUANT	1.00000E+003	E&stimated Z (ohms)
OCVCURVE	TABLE	39
	Pt	T	Vf	Vm	Ach	Over
	#	s	V vs. Ref.	V	V	bits
	0	0.258333	1.24153E-001	1.24153E-001	5.18054E-004	...........
	1	0.516667	1.24154E-001	1.24159E-001	5.20921E-004	...........
	2	0.775	1.24154E-001	1.24164E-001	5.18721E-004	...........
	3	1.03333	1.24156E-001	1.24183E-001	5.26054E-004	...........
	4	1.29167	1.24161E-001	1.24206E-001	5.21621E-004	...........
	5	1.55	1.24171E-001	1.24216E-001	5.24554E-004	...........
	6	1.80833	1.24184E-001	1.24218E-001	5.24454E-004	...........
	7	2.06667	1.24198E-001	1.24221E-001	5.15254E-004	...........
	8	2.325	1.24209E-001	1.24227E-001	5.27954E-004	...........
	9	2.58333	1.24217E-001	1.24237E-001	5.18488E-004	...........
	10	2.84167	1.24223E-001	1.24241E-001	5.17454E-004	...........
	11	3.1	1.24229E-001	1.24247E-001	5.20887E-004	...........
	12	3.35833	1.24235E-001	1.24254E-001	5.23587E-004	...........
	13	3.61667	1.24241E-001	1.24274E-001	5.26187E-004	...........
	14	3.875	1.24249E-001	1.24287E-001	5.23754E-004	...........
	15	4.13333	1.24259E-001	1.24298E-001	5.22054E-004	...........
	16	4.39167	1.24271E-001	1.24301E-001	5.27221E-004	...........
	17	4.65	1.24283E-001	1.24303E-001	5.22021E-004	...........
	18	4.90833	1.24292E-001	1.24307E-001	5.24321E-004	...........
	19	5.16667	1.24299E-001	1.24313E-001	5.19321E-004	...........
	20	5.425	1.24304E-001	1.24319E-001	5.25287E-004	...........
	21	5.68333	1.24308E-001	1.24322E-001	5.23787E-004	...........
	22	5.94167	1.24313E-001	1.24328E-001	5.23121E-004	...........
	23	6.2	1.24318E-001	1.24337E-001	5.21554E-004	...........
	24	6.45833	1.24323E-001	1.24353E-001	5.24387E-004	...........
	25	6.71667	1.24330E-001	1.24366E-001	5.30754E-004	...........
	26	6.975	1.24340E-001	1.24379E-001	5.22187E-004	...........
	27	7.23333	1.24351E-001	1.24384E-001	5.25387E-004	...........
	28	7.49167	1.24363E-001	1.24387E-001	5.29421E-004	...........
	29	7.75	1.24374E-001	1.24392E-001	5.24154E-004	...........
	30	8.00833	1.24382E-001	1.24400E-001	5.27787E-004	...........
	31	8.26667	1.24388E-001	1.24403E-001	5.31854E-004	...........
	32	8.525	1.24393E-001	1.24406E-001	5.29154E-004	...........
	33	8.78333	1.24398E-001	1.24408E-001	5.24621E-004	...........
	34	9.04167	1.24402E-001	1.24412E-001	5.18954E-004	...........
	35	9.3	1.24406E-001	1.24418E-001	5.23054E-004	...........
	36	9.5583	1.24409E-001	1.24436E-001	5.17988E-004	...........
	37	9.8167	1.24415E-001	1.24446E-001	5.18188E-004	...........
	38	10.075	1.24423E-001	1.24457E-001	5.19621E-004	...........
EOC	QUANT	0.1244226	Open Circuit (V)
PSTATMODEL	IQUANT	4	Pstat Model
PSTATSECTION	LABEL	REF600-10037	Pstat Section
PSTATSERIALNO	LABEL	10037	Pstat Serial Number
CTRLMODE	IQUANT	1	Control Mode
IESTAB	IQUANT	0	I/E Stability
CASPEED	IQUANT	1	Control Amp Speed
CONVENTION	IQUANT	1	Current Convention
ICHRANGE	IQUANT	2	Ich Range
ICHRANGEMODE	TOGGLE	F	Ich Auto Range
ICHOFFSETENABLE	TOGGLE	T	Ich Offset Enable
ICHOFFSET	QUANT	0	Ich Offset (V)
ICHFILTER	IQUANT	3	Ich Filter
VCHRANGE	IQUANT	2	Vch Range
VCHRANGEMODE	TOGGLE	F	Vch Auto Range
VCHOFFSETENABLE	TOGGLE	T	Vch Offset Enable
VCHOFFSET	QUANT	0	Vch Offset (V)
VCHFILTER	IQUANT	3	Vch Filter
ACHRANGE	IQUANT	2	Ach Range
ACHOFFSETENABLE	TOGGLE	F	Ach Offset Enable
ACHOFFSET	QUANT	0	Ach Offset (V)
ACHFILTER	IQUANT	3	Ach Filter
IERANGELOWERLIMIT	IQUANT	1	I/E Range Lower Limit
IERANGEMODE	TOGGLE	F	I/E AutoRange
IERANGE	IQUANT	8	I/E Range
POSFEEDENABLE	TOGGLE	F	Positive Feedback IR Comp
POSFEEDRESISTANCE	QUANT	0	Positive Feedback Resistance (ohm)
ACHSELECT	IQUANT	0	Ach Select
CABLEID	IQUANT	14	Cable ID
DCCALDATE	LABEL	6/8/2020	DC Calibration Date
ACCALDATE	LABEL	6/8/2020	AC Calibration Date
THERMOSELECT	IQUANT	1	Thermo Select
FRAMEWORKVERSION	QUANT	6.33	Framework Version
INSTRUMENTVERSION	LABEL	3.50	Instrument Version
ZCURVE	TABLE
	Pt	Time	Freq	Zreal	Zimag	Zsig	Zmod	Zphz	Idc	Vdc	IERange
	#	s	Hz	ohm	ohm	V	ohm	°	A	V	#
	0	2	1000078	1276.504	-561.017	1	1394.346	-23.72525	1.859574E-007	0.1334706	8
	1	2	794390.6	1356.905	-568.9109	1	1471.343	-22.74689	4.156921E-008	0.1331146	8
	2	3	630984.4	1434.371	-591.6151	1	1551.589	-22.414	1.213712E-006	0.132938	9
	3	3	501234.4	1520.243	-594.1346	1	1632.218	-21.34632	1.569039E-007	0.1328054	8
	4	4	398109.4	1595.099	-607.5216	1	1706.875	-20.85022	1.472168E-007	0.1329737	8
	5	4	316265.6	1682.079	-629.5066	1	1796.015	-20.51802	1.232653E-007	0.1327041	8
	6	5	251203.1	1772.312	-652.4191	1	1888.582	-20.20954	8.065053E-008	0.1327363	8
	7	6	199546.9	1859.218	-682.48	1	1980.522	-20.15713	3.897825E-008	0.1328547	8
	8	6	158578.1	1951.703	-711.3823	1	2077.308	-20.02645	9.191892E-008	0.1329249	8
	9	6	125953.1	2053.318	-742.1843	1	2183.335	-19.8727	1.75662E-007	0.1329599	8
	10	7	100078.1	2151.749	-779.438	1	2288.569	-19.91214	7.335161E-008	0.1329103	8
	11	7	79453.13	2258.332	-819.4341	1	2402.402	-19.94327	6.613229E-008	0.132879	8
	12	7	63140.62	2367.087	-864.884	1	2520.144	-20.07125	9.484701E-008	0.1328692	8
	13	8	50203.12	2484.305	-918.9872	1	2648.832	-20.3003	1.060583E-006	0.1328412	9
	14	8	39890.62	2592.23	-968.274	1	2767.167	-20.48214	5.553769E-008	0.1328471	8
	15	9	31640.63	2718.922	-1042.508	1	2911.934	-20.97817	1.10485E-006	0.1328112	9
	16	9	25171.88	2815.955	-1101.652	1	3023.779	-21.36632	6.654746E-008	0.1328616	8
	17	10	20015.62	2940.812	-1204.333	1	3177.859	-22.27027	8.467634E-008	0.132855	8
	18	10	15890.62	3088.04	-1320.123	1	3358.38	-23.14648	1.155275E-006	0.1327561	9
	19	11	12609.37	3213.253	-1465.825	1	3531.804	-24.52158	1.097772E-006	0.1327525	9
	20	12	10078.13	3314.667	-1654.866	1	3704.808	-26.53091	1.012238E-007	0.1328257	8
	21	12	8015.625	3447.522	-1872.737	1	3923.334	-28.51137	1.520514E-008	0.1328186	7
	22	12	6328.125	3597.393	-2164.115	1	4198.17	-31.03021	-3.706667E-009	0.1328327	7
	23	13	5015.625	3768.052	-2522.095	1	4534.223	-33.79584	7.715078E-009	0.1328233	7
	24	13	3984.375	3969.605	-2956.631	1	4949.689	-36.67938	1.853834E-008	0.1328178	7
	25	13	3170.956	4214.512	-3473.381	1	5461.363	-39.49356	6.322733E-009	0.1328425	7
	26	14	2527.573	4518.019	-4096.516	1	6098.683	-42.19879	-6.974456E-009	0.1328383	7
	27	14	1976.103	4938.896	-4901.741	1	6958.431	-44.78367	1.723047E-008	0.1328088	7
	28	14	1577.524	5432.505	-5759.563	1	7917.366	-46.67384	-3.495961E-009	0.1328399	7
	29	15	1265.625	6043.568	-6707.1	1	9028.283	-47.97893	-4.677278E-009	0.1328513	7
	30	15	998.264	6851.184	-7846.657	1	10416.75	-48.87468	2.731788E-008	0.1328139	7
	31	15	796.875	7831.556	-9074.195	1	11986.42	-49.20391	-6.718255E-009	0.1328494	7
	32	16	627.7902	9042.222	-10468.82	1	13833.22	-49.18188	1.051869E-008	0.1328264	7
	33	16	505.5147	10334.7	-11745.71	1	15645.05	-48.65641	-7.294899E-009	0.1328342	7
	34	16	397.9953	11884.53	-13199.79	1	17761.66	-48.00147	6.747428E-009	0.13285	7
	35	17	315.5048	13490.29	-14689.4	1	19944.08	-47.43658	7.626873E-009	0.1328512	7
	36	17	252.4038	15046.11	-16230.08	1	22131.44	-47.16791	6.945148E-009	0.1328439	7
	37	17	198.6229	16679.74	-18113.77	1	24623.61	-47.36012	6.142308E-009	0.1328519	7
	38	18	158.3615	18179.51	-20260.56	1	27221.04	-48.09883	6.429512E-009	0.1328495	7
	39	18	125.558	19641.8	-23045.98	1	30280.64	-49.55946	9.139171E-009	0.1328385	7
	40	18	100.4464	21074.97	-26218.11	1	33638.43	-51.20654	3.959319E-009	0.1328508	7
	41	18	79.00281	22637.48	-30609.49	1	38070.94	-53.51493	4.006468E-009	0.132849	7
	42	19	63.3446	24291.77	-35689.04	1	43171.73	-55.75881	-1.95674E-009	0.1328443	6
	43	19	49.86702	26410.06	-42522.84	1	50056.8	-58.15643	-9.636285E-010	0.1328407	6
	44	20	39.72458	29013.14	-50591.68	1	58320.5	-60.16674	-6.562E-010	0.1328439	6
	45	20	31.6723	32268	-60383.32	1	68464.37	-61.88058	-1.391909E-009	0.1328448	6
	46	21	24.93351	36628.57	-72908.48	1	81592.27	-63.32545	-1.103071E-009	0.1328479	6
	47	21	19.86229	42541.82	-87791.64	1	97556	-64.14623	-3.950147E-009	0.1242742	6
	48	21	15.83615	49553.53	-105186.5	1	116274.4	-64.7748	-3.788381E-009	0.1242696	6
	49	22	12.40079	58410.33	-126996.4	1	139785	-65.30055	-3.242484E-009	0.1242756	6
	50	22	9.93114	68961.95	-150682.9	1	165713.9	-65.4082	-3.046502E-009	0.1242714	6
	51	22	7.944915	82316.52	-178478.3	1	196546.5	-65.24023	-2.772334E-009	0.1242707	6
	52	23	6.317385	99440.9	-211380.9	1	233603	-64.80608	-2.181057E-009	0.1242736	6
	53	24	5.008013	121134.1	-249960.8	1	277765.9	-64.14459	-1.743268E-009	0.1242771	6
	54	25	3.945707	148717.5	-295388.7	1	330713.4	-63.27639	-1.479988E-009	0.1242742	6
	55	26	3.158693	179874.7	-343262.4	1	387535.8	-62.34478	-1.254673E-009	0.1242742	6
	56	27	2.504006	219034.9	-399035.1	1	455198.1	-61.23711	-1.168875E-009	0.1242712	5
	57	29	1.998082	262908	-458839.2	1	528823.3	-60.18793	-9.094082E-010	0.1242692	5
	58	31	1.584686	315388.7	-528942.1	1	615832.6	-59.19394	-7.275611E-010	0.1242754	5
	59	34	1.266892	372859.9	-604405.8	1	710162.6	-58.32943	-5.582812E-010	0.1242727	5
	60	37	0.999041	441390	-695095.9	1	823397.4	-57.58421	-5.470887E-010	0.1242755	5
