EXPLAIN
TAG	EISPOT
TITLE	LABEL	Potentiostatic EIS	Test &Identifier
DATE	LABEL	5/26/2020	Date
TIME	LABEL	18:10:26	Time
NOTES	NOTES	1	&Notes...
	
PSTAT	PSTAT	REF600-11020	Potentiostat
VDC	POTEN	0.00000E+000	T	DC &Voltage (V)
FREQINIT	QUANT	1.00000E+006	Initial Fre&q. (Hz)
FREQFINAL	QUANT	1.00000E+000	Final Fre&q. (Hz)
PTSPERDEC	QUANT	1.00000E+001	Points/&decade
VAC	QUANT	2.50000E+001	AC &Voltage (mV rms)
AREA	QUANT	5.00000E-004	&Area (cm^2)
CONDIT	TWOPARAM	F	5.00000E+000	0.00000E+000	Conditionin&g	Time(s)	E(V)
DELAY	TWOPARAM	T	3.00000E+000	0.00000E+000	Init. De&lay	Time(s)	Stab.(mV/s)
SPEED	SELECTOR	0	&Optimize for:
ZGUESS	QUANT	1.00000E+003	E&stimated Z (ohms)
OCVCURVE	TABLE	12
	Pt	T	Vf	Vm	Ach	Over
	#	s	V vs. Ref.	V	V	bits
	0	0.258333	4.71198E-002	4.71198E-002	5.86663E-004	...........
	1	0.516667	4.71236E-002	4.73224E-002	5.84063E-004	...........
	2	0.775	4.71474E-002	4.75159E-002	5.84163E-004	...........
	3	1.03333	4.72148E-002	4.76998E-002	5.87363E-004	...........
	4	1.29167	4.73353E-002	4.78722E-002	5.88763E-004	...........
	5	1.55	4.74951E-002	4.80331E-002	5.85697E-004	...........
	6	1.80833	4.76711E-002	4.81894E-002	5.85996E-004	...........
	7	2.06667	4.78463E-002	4.83353E-002	5.83630E-004	...........
	8	2.325	4.80132E-002	4.84714E-002	5.84730E-004	...........
	9	2.58333	4.81701E-002	4.86038E-002	5.88430E-004	...........
	10	2.84167	4.83175E-002	4.87276E-002	5.84696E-004	...........
	11	3.1	4.84567E-002	4.88498E-002	5.87430E-004	...........
EOC	QUANT	0.0484567	Open Circuit (V)
PSTATMODEL	IQUANT	4	Pstat Model
PSTATSECTION	LABEL	REF600-11020	Pstat Section
PSTATSERIALNO	LABEL	11020	Pstat Serial Number
CTRLMODE	IQUANT	1	Control Mode
IESTAB	IQUANT	0	I/E Stability
CASPEED	IQUANT	1	Control Amp Speed
CONVENTION	IQUANT	1	Current Convention
ICHRANGE	IQUANT	2	Ich Range
ICHRANGEMODE	TOGGLE	F	Ich Auto Range
ICHOFFSETENABLE	TOGGLE	T	Ich Offset Enable
ICHOFFSET	QUANT	0	Ich Offset (V)
ICHFILTER	IQUANT	3	Ich Filter
VCHRANGE	IQUANT	2	Vch Range
VCHRANGEMODE	TOGGLE	F	Vch Auto Range
VCHOFFSETENABLE	TOGGLE	T	Vch Offset Enable
VCHOFFSET	QUANT	0	Vch Offset (V)
VCHFILTER	IQUANT	3	Vch Filter
ACHRANGE	IQUANT	2	Ach Range
ACHOFFSETENABLE	TOGGLE	F	Ach Offset Enable
ACHOFFSET	QUANT	0	Ach Offset (V)
ACHFILTER	IQUANT	3	Ach Filter
IERANGELOWERLIMIT	IQUANT	1	I/E Range Lower Limit
IERANGEMODE	TOGGLE	F	I/E AutoRange
IERANGE	IQUANT	7	I/E Range
POSFEEDENABLE	TOGGLE	F	Positive Feedback IR Comp
POSFEEDRESISTANCE	QUANT	0	Positive Feedback Resistance (ohm)
ACHSELECT	IQUANT	0	Ach Select
CABLEID	IQUANT	14	Cable ID
DCCALDATE	LABEL	2/27/2020	DC Calibration Date
ACCALDATE	LABEL	2/27/2020	AC Calibration Date
THERMOSELECT	IQUANT	1	Thermo Select
FRAMEWORKVERSION	QUANT	6.33	Framework Version
INSTRUMENTVERSION	LABEL	3.50	Instrument Version
ZCURVE	TABLE
	Pt	Time	Freq	Zreal	Zimag	Zsig	Zmod	Zphz	Idc	Vdc	IERange
	#	s	Hz	ohm	ohm	V	ohm	°	A	V	#
	0	2	1000078	1714.215	-2503.668	1	3034.285	-55.60129	5.831028E-008	0.050981	8
	1	2	794390.6	2097.831	-2837.014	1	3528.391	-53.51892	4.333209E-008	0.05063	8
	2	2	630984.4	2555.833	-3172.248	1	4073.75	-51.14212	5.70925E-008	0.0504475	8
	3	3	501234.4	3084.54	-3505.065	1	4669.032	-48.65146	4.863652E-008	0.0503271	8
	4	3	398109.4	3696.569	-3800.516	1	5301.749	-45.79435	3.763083E-008	0.0502663	8
	5	3	316265.6	4374.485	-4056.803	1	5966.052	-42.84217	4.805579E-008	0.0502395	8
	6	3	251203.1	5105.653	-4270.158	1	6655.97	-39.90772	5.348044E-008	0.0502179	8
	7	4	199546.9	5876.089	-4399.975	1	7340.858	-36.82561	4.882772E-008	0.0502273	8
	8	4	158578.1	6674.09	-4442.391	1	8017.375	-33.64843	4.097272E-008	0.0502063	8
	9	4	125953.1	7575.48	-4328.962	1	8725.126	-29.74554	3.583716E-009	0.0501417	7
	10	5	100078.1	8314.176	-4251.554	1	9338.16	-27.08348	3.017871E-009	0.0501329	7
	11	5	79453.13	9045.456	-4121.931	1	9940.35	-24.49832	2.843939E-009	0.0501328	7
	12	5	63140.62	9728.06	-3940.462	1	10495.83	-22.05098	3.5031E-009	0.0501264	7
	13	6	50203.12	10349.89	-3714.787	1	10996.36	-19.7441	3.212592E-009	0.0501224	7
	14	6	39890.62	10910.02	-3464.865	1	11447	-17.6191	3.342299E-009	0.0501259	7
	15	6	31640.63	11407.85	-3199.446	1	11848.01	-15.66669	3.482305E-009	0.0501193	7
	16	7	25171.88	11824.13	-2945.284	1	12185.43	-13.98722	2.465146E-009	0.0501204	7
	17	7	20015.62	12195.72	-2717.807	1	12494.88	-12.56304	3.676393E-009	0.0501226	7
	18	7	15890.62	12499.15	-2508.755	1	12748.43	-11.34927	2.923484E-009	0.0501116	7
	19	8	12609.37	12840.05	-2158.206	1	13020.17	-9.54131	2.206334E-010	0.0501767	6
	20	8	10078.13	13041.87	-2076.842	1	13206.2	-9.048048	1.841982E-011	0.0501634	6
	21	8	8015.625	13222.45	-2041.735	1	13379.16	-8.777958	3.216699E-011	0.0501677	6
	22	8	6328.125	13390.19	-2062.528	1	13548.11	-8.756609	-1.475496E-010	0.0501622	6
	23	9	5015.625	13548.9	-2142.619	1	13717.27	-8.986323	1.201E-011	0.0501679	6
	24	9	3984.375	13703.52	-2286.494	1	13892.97	-9.472794	-4.940973E-011	0.0501679	6
	25	9	3170.956	13862.08	-2498.77	1	14085.5	-10.21836	-2.760011E-010	0.0501613	6
	26	10	2527.573	14029.11	-2788.506	1	14303.55	-11.24192	-4.081624E-012	0.0501633	6
	27	10	1976.103	14231.34	-3202.154	1	14587.14	-12.68078	-3.403811E-010	0.0501587	6
	28	10	1577.524	14433.39	-3683.943	1	14896.11	-14.31833	-3.419465E-010	0.0501572	6
	29	11	1265.625	14658.23	-4269.811	1	15267.45	-16.24037	-1.844249E-010	0.0501602	6
	30	11	998.264	14928.17	-5048.617	1	15758.77	-18.68523	-1.64836E-010	0.0501616	6
	31	11	796.875	15233.32	-5956.486	1	16356.46	-21.35634	-3.882035E-010	0.0501587	6
	32	12	627.7902	15604.33	-7131.914	1	17156.9	-24.56263	-9.348089E-011	0.0501543	6
	33	12	505.5147	15988.79	-8432.503	1	18076.19	-27.8072	-3.00854E-010	0.0501602	6
	34	12	397.9953	16493.65	-10176.66	1	19380.53	-31.67479	2.286196E-010	0.0501773	6
	35	13	315.5048	17077.38	-12248.38	1	21015.7	-35.64916	2.442818E-010	0.0501768	6
	36	13	252.4038	17735.48	-14667.8	1	23015.03	-39.59183	1.307229E-010	0.0501748	6
	37	13	198.6229	18579.42	-17837.56	1	25756.03	-43.83298	1.567134E-010	0.0501737	6
	38	14	158.3615	19541.02	-21501.65	1	29054.64	-47.73497	1.662697E-010	0.050169	6
	39	14	125.558	20730.65	-26079.03	1	33314.8	-51.51824	1.07975E-010	0.0501744	6
	40	14	100.4464	22122.65	-31434.61	1	38438.86	-54.86337	1.839023E-010	0.0501698	6
	41	15	79.00281	23984.78	-38482.68	1	45345.2	-58.0663	7.168034E-011	0.0501746	6
	42	15	63.3446	26115.64	-46380.7	1	53227.77	-60.61739	8.958589E-011	0.0501705	6
	43	15	49.86702	29037.26	-56804.78	1	63796.12	-62.92496	1.266176E-010	0.0501682	6
	44	16	39.72458	32595.44	-68866.41	1	76190.84	-64.67114	2.326279E-010	0.0501703	6
	45	16	31.6723	37160.85	-83401.91	1	91306.13	-65.98399	1.244677E-010	0.0501695	6
	46	16	24.93351	43483.25	-101860.8	1	110753.9	-66.88291	8.246259E-011	0.0501678	5
	47	17	19.86229	51387.13	-123041.6	1	133341.2	-67.33261	4.625652E-010	0.0501729	5
	48	17	15.83615	61723.67	-148218.6	1	160557.1	-67.39137	-1.632413E-010	0.0501702	5
	49	17	12.40079	76701.28	-180241	1	195882.4	-66.94789	4.698559E-010	0.0501676	5
	50	17	9.93114	94340.29	-214172.5	1	234029.8	-66.22711	2.527519E-010	0.0501743	5
	51	18	7.944915	117421.2	-252962.5	1	278886.7	-65.10001	-7.354496E-010	0.0501695	5
	52	18	6.317385	147771.1	-297830.3	1	332474.4	-63.61129	8.674716E-012	0.0501589	5
	53	19	5.008013	186703	-347905.2	1	394836.7	-61.7798	-2.049125E-013	0.0501638	5
	54	20	3.945707	235350.6	-403091.4	1	466768.3	-59.72087	-3.721616E-010	0.0501655	5
	55	21	3.158693	290295.4	-456381.3	1	540883.8	-57.54034	-5.098202E-011	0.050161	5
	56	22	2.504006	355367.5	-514310.5	1	625141.1	-55.35712	6.048707E-011	0.0501674	5
	57	23	1.998082	426087.3	-569940.7	1	711605.8	-53.21823	-1.492039E-010	0.0501269	5
	58	25	1.584686	504242.8	-631781.7	1	808337.1	-51.40565	-2.057869E-010	0.0501277	5
	59	27	1.266892	582855.3	-692447	1	905098.4	-49.91159	-1.386736E-010	0.0501538	5
	60	29	0.999041	673038.6	-763684.6	1	1017937	-48.61013	-1.395927E-010	0.0501809	4
