EXPLAIN
TAG	EISPOT
TITLE	LABEL	Potentiostatic EIS	Test &Identifier
DATE	LABEL	3/12/2020	Date
TIME	LABEL	14:44:32	Time
NOTES	NOTES	1	&Notes...
	
PSTAT	PSTAT	REF600-11020	Potentiostat
VDC	POTEN	0.00000E+000	T	DC &Voltage (V)
FREQINIT	QUANT	1.00000E+006	Initial Fre&q. (Hz)
FREQFINAL	QUANT	1.00000E+000	Final Fre&q. (Hz)
PTSPERDEC	QUANT	1.00000E+001	Points/&decade
VAC	QUANT	2.50000E+001	AC &Voltage (mV rms)
AREA	QUANT	2.50000E-001	&Area (cm^2)
CONDIT	TWOPARAM	F	5.00000E+000	0.00000E+000	Conditionin&g	Time(s)	E(V)
DELAY	TWOPARAM	T	5.00000E+000	0.00000E+000	Init. De&lay	Time(s)	Stab.(mV/s)
SPEED	SELECTOR	1	&Optimize for:
ZGUESS	QUANT	5.00000E+003	E&stimated Z (ohms)
OCVCURVE	TABLE	19
	Pt	T	Vf	Vm	Ach	Over
	#	s	V vs. Ref.	V	V	bits
	0	0.258333	3.78452E-002	3.78452E-002	5.82297E-004	...........
	1	0.516667	3.78449E-002	3.78300E-002	5.82897E-004	...........
	2	0.775	3.78431E-002	3.78155E-002	5.83930E-004	...........
	3	1.03333	3.78382E-002	3.78107E-002	5.85563E-004	...........
	4	1.29167	3.78301E-002	3.77986E-002	5.87196E-004	...........
	5	1.55	3.78200E-002	3.77745E-002	5.84363E-004	...........
	6	1.80833	3.78083E-002	3.77624E-002	5.85763E-004	...........
	7	2.06667	3.77948E-002	3.77558E-002	5.92263E-004	...........
	8	2.325	3.77805E-002	3.77455E-002	5.87430E-004	...........
	9	2.58333	3.77674E-002	3.77346E-002	5.88630E-004	...........
	10	2.84167	3.77559E-002	3.77204E-002	5.86030E-004	...........
	11	3.1	3.77451E-002	3.77144E-002	5.91563E-004	...........
	12	3.35833	3.77346E-002	3.77065E-002	5.90463E-004	...........
	13	3.61667	3.77246E-002	3.77025E-002	5.91130E-004	...........
	14	3.875	3.77158E-002	3.76954E-002	5.86163E-004	...........
	15	4.13333	3.77085E-002	3.76913E-002	5.87963E-004	...........
	16	4.39167	3.77022E-002	3.76865E-002	5.83263E-004	...........
	17	4.65	3.76967E-002	3.76805E-002	5.81897E-004	...........
	18	4.90833	3.76914E-002	3.76733E-002	5.88796E-004	...........
EOC	QUANT	0.0376914	Open Circuit (V)
PSTATMODEL	IQUANT	4	Pstat Model
PSTATSECTION	LABEL	REF600-11020	Pstat Section
PSTATSERIALNO	LABEL	11020	Pstat Serial Number
CTRLMODE	IQUANT	1	Control Mode
IESTAB	IQUANT	0	I/E Stability
CASPEED	IQUANT	1	Control Amp Speed
CONVENTION	IQUANT	1	Current Convention
ICHRANGE	IQUANT	2	Ich Range
ICHRANGEMODE	TOGGLE	F	Ich Auto Range
ICHOFFSETENABLE	TOGGLE	T	Ich Offset Enable
ICHOFFSET	QUANT	0	Ich Offset (V)
ICHFILTER	IQUANT	3	Ich Filter
VCHRANGE	IQUANT	2	Vch Range
VCHRANGEMODE	TOGGLE	F	Vch Auto Range
VCHOFFSETENABLE	TOGGLE	T	Vch Offset Enable
VCHOFFSET	QUANT	0	Vch Offset (V)
VCHFILTER	IQUANT	3	Vch Filter
ACHRANGE	IQUANT	2	Ach Range
ACHOFFSETENABLE	TOGGLE	F	Ach Offset Enable
ACHOFFSET	QUANT	0	Ach Offset (V)
ACHFILTER	IQUANT	3	Ach Filter
IERANGELOWERLIMIT	IQUANT	1	I/E Range Lower Limit
IERANGEMODE	TOGGLE	F	I/E AutoRange
IERANGE	IQUANT	7	I/E Range
POSFEEDENABLE	TOGGLE	F	Positive Feedback IR Comp
POSFEEDRESISTANCE	QUANT	0	Positive Feedback Resistance (ohm)
ACHSELECT	IQUANT	0	Ach Select
CABLEID	IQUANT	14	Cable ID
DCCALDATE	LABEL	2/27/2020	DC Calibration Date
ACCALDATE	LABEL	2/27/2020	AC Calibration Date
THERMOSELECT	IQUANT	1	Thermo Select
FRAMEWORKVERSION	QUANT	6.33	Framework Version
INSTRUMENTVERSION	LABEL	3.50	Instrument Version
ZCURVE	TABLE
	Pt	Time	Freq	Zreal	Zimag	Zsig	Zmod	Zphz	Idc	Vdc	IERange
	#	s	Hz	ohm	ohm	V	ohm	°	A	V	#
	0	1	1000078	1448.37	-696.864	1	1607.295	-25.69391	-6.555981E-007	0.0404194	8
	1	2	794390.6	1554.23	-691.1183	1	1700.963	-23.97325	-1.069319E-006	0.0400098	8
	2	4	630984.4	1659.964	-682.5589	1	1794.817	-22.35192	1.217252E-006	0.0394305	8
	3	5	501234.4	1761.736	-670.9805	1	1885.187	-20.85	2.701527E-006	0.0391684	8
	4	6	398109.4	1855.842	-657.0315	1	1968.715	-19.4957	-5.67743E-007	0.0394996	8
	5	8	316265.6	1949.497	-647.2463	1	2054.134	-18.36652	-3.16555E-007	0.0394574	8
	6	9	251203.1	2035.085	-635.6005	1	2132.031	-17.3447	-4.017257E-007	0.0394808	8
	7	10	199546.9	2121.916	-632.6962	1	2214.234	-16.60311	7.90151E-007	0.0392493	8
	8	12	158578.1	2202.857	-633.2843	1	2292.079	-16.03905	-3.862404E-007	0.0394703	8
	9	13	125953.1	2294.673	-621.1606	1	2377.26	-15.14678	-1.300063E-007	0.0394631	7
	10	15	100078.1	2370.199	-628.8585	1	2452.204	-14.8593	6.125951E-008	0.0392441	7
	11	16	79453.13	2448.216	-652.4592	1	2533.666	-14.92272	1.685025E-008	0.0393267	7
	12	17	63140.62	2527.712	-681.9189	1	2618.08	-15.09767	-1.47009E-008	0.0393441	7
	13	19	50203.12	2609.374	-716.9484	1	2706.076	-15.3634	6.339558E-008	0.0392342	7
	14	20	39890.62	2692.5	-760.5975	1	2797.868	-15.77432	1.586081E-008	0.0393193	7
	15	21	31640.63	2778.293	-814.8002	1	2895.309	-16.34502	5.728534E-010	0.0393472	7
	16	23	25171.88	2864.585	-880.2945	1	2996.793	-17.08233	2.319466E-008	0.0392603	7
	17	24	20015.62	2954.825	-963.227	1	3107.86	-18.05516	-1.671076E-008	0.0393347	7
	18	25	15890.62	3051.394	-1066.964	1	3232.555	-19.27292	1.21166E-008	0.0392856	7
	19	27	12609.37	3155.871	-1195.923	1	3374.871	-20.75429	-1.073804E-008	0.0393448	7
	20	28	10078.13	3268.642	-1347.739	1	3535.593	-22.40752	-2.226773E-008	0.039334	7
	21	30	8015.625	3398.814	-1536.645	1	3730.042	-24.3283	5.882457E-008	0.0392035	7
	22	31	6328.125	3554.483	-1771.87	1	3971.634	-26.49574	2.997223E-008	0.0393141	7
	23	32	5015.625	3740.675	-2044.38	1	4262.879	-28.6578	5.761126E-009	0.0392823	7
	24	34	3984.375	3963.032	-2362.238	1	4613.653	-30.79783	6.322176E-009	0.0392989	7
	25	35	3170.956	4228.634	-2720.59	1	5028.216	-32.75615	-1.703568E-008	0.0392989	7
	26	36	2527.573	4550.898	-3127.176	1	5521.766	-34.49512	1.394988E-008	0.0393267	7
	27	38	1976.103	4967.648	-3600.665	1	6135.333	-35.93546	6.489483E-009	0.039276	7
	28	39	1577.524	5415.384	-4072.731	1	6775.952	-36.94561	6.923253E-008	0.0392124	7
	29	41	1265.625	5901.543	-4559.296	1	7457.573	-37.68824	1.292968E-008	0.0393353	7
	30	42	998.264	6467.494	-5114.986	1	8245.699	-38.33963	6.947545E-009	0.0393305	7
	31	43	796.875	7029.663	-5679.119	1	9037.065	-38.93402	-2.073505E-008	0.0393291	7
	32	45	627.7902	7626.547	-6361.103	1	9931.16	-39.8306	2.702727E-009	0.0392807	6
	33	46	505.5147	8149.612	-7098.564	1	10807.67	-41.05687	-4.50825E-009	0.0394293	6
	34	47	397.9953	8711.967	-8101.888	1	11897.01	-42.92197	6.87912E-010	0.0393698	6
	35	49	315.5048	9250.899	-9332.845	1	13140.82	-45.25264	5.998037E-010	0.039364	6
	36	50	252.4038	9789.25	-10832.36	1	14600.32	-47.89576	1.290813E-009	0.0393634	6
	37	51	198.6229	10417.49	-12868.21	1	16556.41	-51.00802	7.157394E-010	0.0393646	6
	38	53	158.3615	11099.42	-15288.52	1	18892.75	-54.02045	8.330583E-010	0.0393593	6
	39	54	125.558	11925.04	-18377.77	1	21907.74	-57.02109	6.764272E-010	0.0393602	6
	40	56	100.4464	12904.48	-22041.76	1	25541.43	-59.6529	1.132672E-009	0.0393589	6
	41	57	79.00281	14192.73	-26915.78	1	30428.48	-62.19725	2.956773E-010	0.0393535	6
	42	58	63.3446	15621.14	-32178.19	1	35769.48	-64.10541	3.552632E-010	0.0393491	6
	43	60	49.86702	17989.98	-39512.21	1	43414.91	-65.52015	3.840876E-010	0.0393524	6
	44	61	39.72458	20467.86	-47729.86	1	51933.35	-66.78904	6.33915E-010	0.0393578	6
	45	63	31.6723	23628.4	-57594.14	1	62252.61	-67.69376	9.571944E-010	0.0393529	6
	46	64	24.93351	28192.54	-70125.58	1	75580.52	-68.09843	6.480345E-010	0.0393503	6
	47	65	19.86229	33665.65	-84346.8	1	90817.17	-68.24139	2.294833E-010	0.0393469	6
	48	67	15.83615	40508.89	-101179	1	108987	-68.1804	-2.468707E-010	0.0393613	5
	49	68	12.40079	50620.75	-122582.6	1	132623.4	-67.56172	-7.695637E-010	0.0393641	5
	50	70	9.93114	61105.14	-144784.4	1	157150.8	-67.11819	6.453187E-010	0.0393643	5
	51	71	7.944915	74847.02	-170910	1	186580.6	-66.34983	-2.58384E-010	0.0393632	5
	52	73	6.317385	92015.21	-201578.1	1	221586.4	-65.46452	5.843329E-010	0.0393568	5
	53	75	5.008013	113559.6	-237250.1	1	263027.4	-64.42192	3.628011E-010	0.0393716	5
	54	77	3.945707	140288.7	-278780.1	1	312088.5	-63.28739	-1.076075E-010	0.0393583	5
	55	80	3.158693	169666.2	-322233.7	1	364171.9	-62.23178	2.865754E-010	0.0393832	5
	56	83	2.504006	205697.4	-373726.9	1	426594.9	-61.17183	-1.962327E-010	0.0393571	5
	57	86	1.998082	245660	-429203.9	1	494535	-60.21482	-1.134437E-010	0.0393399	5
	58	89	1.584686	293605.7	-492632.9	1	573490.6	-59.20536	1.016148E-010	0.0394116	5
	59	93	1.266892	342981.2	-562920.4	1	659177.9	-58.64651	-1.205903E-010	0.0393666	5
	60	97	0.999041	402261.2	-648639.8	1	763248.1	-58.19442	2.671021E-010	0.0393741	5
