EXPLAIN
TAG	EISPOT
TITLE	LABEL	Potentiostatic EIS	Test &Identifier
DATE	LABEL	2/18/2020	Date
TIME	LABEL	17:20:00	Time
NOTES	NOTES	1	&Notes...
	
PSTAT	PSTAT	REF600-11020	Potentiostat
VDC	POTEN	0.00000E+000	T	DC &Voltage (V)
FREQINIT	QUANT	1.00000E+006	Initial Fre&q. (Hz)
FREQFINAL	QUANT	1.00000E+000	Final Fre&q. (Hz)
PTSPERDEC	QUANT	1.00000E+001	Points/&decade
VAC	QUANT	2.50000E+001	AC &Voltage (mV rms)
AREA	QUANT	1.60000E-004	&Area (cm^2)
CONDIT	TWOPARAM	F	1.50000E+001	0.00000E+000	Conditionin&g	Time(s)	E(V)
DELAY	TWOPARAM	F	1.00000E+002	0.00000E+000	Init. De&lay	Time(s)	Stab.(mV/s)
SPEED	SELECTOR	1	&Optimize for:
ZGUESS	QUANT	1.00000E+003	E&stimated Z (ohms)
OCVCURVE	TABLE	39
	Pt	T	Vf	Vm	Ach	Over
	#	s	V vs. Ref.	V	V	bits
	0	0.258333	7.44388E-002	7.44388E-002	5.63938E-004	...........
	1	0.516667	7.44388E-002	7.44392E-002	5.67471E-004	...........
	2	0.775	7.44376E-002	7.43791E-002	5.61138E-004	...........
	3	1.03333	7.44313E-002	7.43545E-002	5.62738E-004	...........
	4	1.29167	7.44151E-002	7.43211E-002	5.63038E-004	...........
	5	1.55	7.43886E-002	7.42597E-002	5.61771E-004	...........
	6	1.80833	7.43550E-002	7.42609E-002	5.57638E-004	...........
	7	2.06667	7.43189E-002	7.42317E-002	5.58904E-004	...........
	8	2.325	7.42859E-002	7.42216E-002	5.60771E-004	...........
	9	2.58333	7.42593E-002	7.42082E-002	5.63671E-004	...........
	10	2.84167	7.42385E-002	7.41780E-002	5.59338E-004	...........
	11	3.1	7.42205E-002	7.41550E-002	5.61504E-004	...........
	12	3.35833	7.42019E-002	7.41462E-002	5.60271E-004	...........
	13	3.61667	7.41822E-002	7.41251E-002	5.53771E-004	...........
	14	3.875	7.41629E-002	7.41141E-002	5.53805E-004	...........
	15	4.13333	7.41453E-002	7.41028E-002	5.52738E-004	...........
	16	4.39167	7.41296E-002	7.40864E-002	5.52604E-004	...........
	17	4.65	7.41154E-002	7.40741E-002	5.57471E-004	...........
	18	4.90833	7.41019E-002	7.40645E-002	5.61671E-004	...........
	19	5.16667	7.40889E-002	7.40498E-002	5.59138E-004	...........
	20	5.425	7.40763E-002	7.40440E-002	5.60171E-004	...........
	21	5.68333	7.40647E-002	7.40430E-002	5.71104E-004	...........
	22	5.94167	7.40549E-002	7.40358E-002	5.61738E-004	...........
	23	6.2	7.40470E-002	7.40180E-002	5.66238E-004	...........
	24	6.45833	7.40398E-002	7.40075E-002	5.68904E-004	...........
	25	6.71667	7.40311E-002	7.39970E-002	5.67204E-004	...........
	26	6.975	7.40207E-002	7.39884E-002	5.64438E-004	...........
	27	7.23333	7.40097E-002	7.39770E-002	5.66738E-004	...........
	28	7.49167	7.39989E-002	7.39750E-002	5.66371E-004	...........
	29	7.75	7.39893E-002	7.39656E-002	5.66371E-004	...........
	30	8.00833	7.39808E-002	7.39535E-002	5.64271E-004	...........
	31	8.26667	7.39728E-002	7.39442E-002	5.58904E-004	...........
	32	8.525	7.39643E-002	7.39335E-002	5.59538E-004	...........
	33	8.78333	7.39549E-002	7.39243E-002	5.61338E-004	...........
	34	9.04167	7.39450E-002	7.39181E-002	5.58104E-004	...........
	35	9.3	7.39355E-002	7.39160E-002	5.58838E-004	...........
	36	9.5583	7.39272E-002	7.39099E-002	5.60938E-004	...........
	37	9.8167	7.39205E-002	7.38985E-002	5.55304E-004	...........
	38	10.075	7.39143E-002	7.38914E-002	5.59738E-004	...........
EOC	QUANT	0.0739143	Open Circuit (V)
PSTATMODEL	IQUANT	4	Pstat Model
PSTATSECTION	LABEL	REF600-11020	Pstat Section
PSTATSERIALNO	LABEL	11020	Pstat Serial Number
CTRLMODE	IQUANT	1	Control Mode
IESTAB	IQUANT	0	I/E Stability
CASPEED	IQUANT	1	Control Amp Speed
CONVENTION	IQUANT	1	Current Convention
ICHRANGE	IQUANT	2	Ich Range
ICHRANGEMODE	TOGGLE	F	Ich Auto Range
ICHOFFSETENABLE	TOGGLE	T	Ich Offset Enable
ICHOFFSET	QUANT	0	Ich Offset (V)
ICHFILTER	IQUANT	3	Ich Filter
VCHRANGE	IQUANT	2	Vch Range
VCHRANGEMODE	TOGGLE	F	Vch Auto Range
VCHOFFSETENABLE	TOGGLE	T	Vch Offset Enable
VCHOFFSET	QUANT	0	Vch Offset (V)
VCHFILTER	IQUANT	3	Vch Filter
ACHRANGE	IQUANT	2	Ach Range
ACHOFFSETENABLE	TOGGLE	F	Ach Offset Enable
ACHOFFSET	QUANT	0	Ach Offset (V)
ACHFILTER	IQUANT	3	Ach Filter
IERANGELOWERLIMIT	IQUANT	1	I/E Range Lower Limit
IERANGEMODE	TOGGLE	F	I/E AutoRange
IERANGE	IQUANT	8	I/E Range
POSFEEDENABLE	TOGGLE	F	Positive Feedback IR Comp
POSFEEDRESISTANCE	QUANT	0	Positive Feedback Resistance (ohm)
ACHSELECT	IQUANT	0	Ach Select
CABLEID	IQUANT	14	Cable ID
DCCALDATE	LABEL	1/27/2020	DC Calibration Date
ACCALDATE	LABEL	1/27/2020	AC Calibration Date
THERMOSELECT	IQUANT	1	Thermo Select
FRAMEWORKVERSION	QUANT	6.33	Framework Version
INSTRUMENTVERSION	LABEL	3.50	Instrument Version
ZCURVE	TABLE
	Pt	Time	Freq	Zreal	Zimag	Zsig	Zmod	Zphz	Idc	Vdc	IERange
	#	s	Hz	ohm	ohm	V	ohm	°	A	V	#
	0	2	1000078	1535.691	-2098.242	1	2600.186	-53.79984	-8.099003E-007	0.0764974	8
	1	3	794390.6	1843.54	-2369.091	1	3001.871	-52.11125	1.715934E-006	0.0755872	8
	2	5	630984.4	2204.386	-2653.205	1	3449.466	-50.27888	-1.075227E-006	0.0758954	8
	3	6	501234.4	2596.403	-2941.107	1	3923.19	-48.56201	7.163142E-007	0.0754875	8
	4	7	398109.4	3087.151	-3212.058	1	4455.089	-46.13597	-9.478587E-007	0.0757898	8
	5	9	316265.6	3626.16	-3482.479	1	5027.593	-43.84208	-7.759339E-008	0.0756448	8
	6	10	251203.1	4196.362	-3718.992	1	5607.17	-41.54871	-8.295787E-007	0.0757376	8
	7	11	199546.9	4818.61	-3930.046	1	6218.059	-39.2006	4.51628E-007	0.0754924	8
	8	13	158578.1	5520.112	-4154.569	1	6908.84	-36.966	1.60826E-006	0.0752077	8
	9	14	125953.1	6213.607	-4232.853	1	7518.375	-34.26359	1.776458E-008	0.0758732	7
	10	16	100078.1	6912.335	-4324.184	1	8153.462	-32.02907	-2.782278E-008	0.0755587	7
	11	17	79453.13	7620.074	-4382.307	1	8790.344	-29.90322	4.054904E-008	0.0754279	7
	12	19	63140.62	8318.468	-4411.14	1	9415.682	-27.93624	4.205315E-008	0.0754227	7
	13	20	50203.12	8997.395	-4416.42	1	10022.87	-26.14436	-8.670956E-009	0.0755652	7
	14	21	39890.62	9651.68	-4399.23	1	10606.98	-24.50348	-3.126325E-008	0.0755328	7
	15	23	31640.63	10292.55	-4386.14	1	11188.15	-23.08114	3.230542E-008	0.0755126	7
	16	24	25171.88	10892.76	-4371.86	1	11737.35	-21.8683	3.44143E-008	0.0754013	7
	17	26	20015.62	11477.38	-4393.375	1	12289.51	-20.94612	5.275172E-009	0.0755583	7
	18	27	15890.62	12030.19	-4433.192	1	12821.03	-20.22912	7.987264E-009	0.075437	7
	19	28	12609.37	12612.51	-4485.59	1	13386.41	-19.57773	-2.744722E-009	0.0754998	6
	20	30	10078.13	13137.46	-4625.391	1	13927.93	-19.39596	8.79315E-009	0.0754259	6
	21	31	8015.625	13680.89	-4835.797	1	14510.4	-19.46702	4.444932E-009	0.0755248	6
	22	32	6328.125	14265.63	-5124.882	1	15158.25	-19.76066	-1.261572E-009	0.0754231	6
	23	34	5015.625	14872.82	-5485.746	1	15852.26	-20.24618	-2.778323E-009	0.0754892	6
	24	35	3984.375	15515.31	-5924.04	1	16607.81	-20.8978	1.06773E-008	0.0753201	6
	25	37	3170.956	16211.76	-6432.664	1	17441.34	-21.64268	-2.682219E-009	0.0754952	6
	26	38	2527.573	16958.4	-7023.289	1	18355.22	-22.49679	-2.581269E-009	0.0754969	6
	27	39	1976.103	17836.67	-7757.825	1	19450.72	-23.506	7.327459E-010	0.0754423	6
	28	41	1577.524	18716.98	-8533.967	1	20570.71	-24.51051	3.8383E-009	0.0755201	6
	29	42	1265.625	19612.37	-9422.012	1	21758.2	-25.66018	-2.597204E-010	0.075563	6
	30	43	998.264	20673.56	-10514.69	1	23193.85	-26.95815	-2.509334E-009	0.0754892	6
	31	45	796.875	21757.04	-11761.49	1	24732.6	-28.3949	-1.044039E-009	0.0754155	6
	32	46	627.7902	22995.9	-13338.58	1	26584.38	-30.11551	4.188163E-010	0.0754361	6
	33	48	505.5147	24258.51	-15036.82	1	28540.87	-31.79303	5.758385E-009	0.0754809	6
	34	49	397.9953	25848.19	-17281.43	1	31093.03	-33.76567	7.470708E-010	0.075499	6
	35	50	315.5048	27640.72	-19853.59	1	34031.96	-35.68867	6.13983E-010	0.0755029	6
	36	52	252.4038	29664.13	-22730.04	1	37371.32	-37.46102	6.688735E-010	0.0754996	6
	37	53	198.6229	32205.2	-26273.42	1	41562.81	-39.20802	8.237769E-010	0.0754972	6
	38	54	158.3615	35003.65	-30115.65	1	46175.84	-40.70729	1.072414E-009	0.0754958	6
	39	56	125.558	38328.13	-34545.36	1	51598.71	-42.02851	6.861298E-010	0.0755025	6
	40	57	100.4464	41861.05	-39329.06	1	57437.99	-43.21376	1.092282E-009	0.0754963	6
	41	58	79.00281	46110.3	-45252.41	1	64606.05	-44.46201	9.877288E-010	0.0754999	6
	42	60	63.3446	49911.39	-51402.71	1	71647.65	-45.84332	6.193208E-010	0.0754977	6
	43	61	49.86702	56081.35	-59006.49	1	81405.68	-46.45595	3.477026E-010	0.075495	6
	44	63	39.72458	61154.02	-68121.82	1	91544.5	-48.08519	4.88462E-010	0.0754987	6
	45	64	31.6723	66715.97	-78194.91	1	102788.4	-49.52916	2.24109E-010	0.0754942	5
	46	65	24.93351	73652.2	-91626.45	1	117558.7	-51.2066	3.694168E-011	0.0754878	5
	47	67	19.86229	80868.2	-106977	1	134103.4	-52.9129	1.033727E-010	0.0754973	5
	48	68	15.83615	88141.59	-125623	1	153460.4	-54.94514	6.603861E-010	0.0754915	5
	49	69	12.40079	99252.6	-148942.7	1	178983.3	-56.32126	-2.208958E-010	0.0754946	5
	50	71	9.93114	110916.8	-175994.3	1	208030.1	-57.77967	-7.854536E-011	0.0755001	5
	51	72	7.944915	124792.7	-207586	1	242208.9	-58.98734	1.643399E-010	0.0754936	5
	52	74	6.317385	142236.1	-246894.2	1	284934.8	-60.05369	3.446202E-010	0.0754855	5
	53	76	5.008013	165314.5	-294179	1	337446.6	-60.6661	1.289109E-010	0.0754974	5
	54	79	3.945707	194838.7	-350492.1	1	401007.3	-60.93031	-1.79648E-011	0.0754927	5
	55	81	3.158693	229901.2	-410877.4	1	470823.5	-60.77137	1.190743E-010	0.0754901	5
	56	85	2.504006	273915.2	-482069.4	1	554455.1	-60.39446	1.178162E-010	0.0755015	5
	57	87	1.998082	324469.3	-559621.3	1	646882	-59.89478	2.844151E-010	0.0754892	5
	58	90	1.584686	387823	-649168.1	1	756191.7	-59.14526	7.718107E-011	0.0754451	5
	59	94	1.266892	453126.4	-746676.6	1	873412.6	-58.74821	2.461383E-010	0.0754857	5
	60	98	0.999041	535551.3	-862625.4	1	1015351	-58.16639	-2.637163E-011	0.075483	5
