EXPLAIN
TAG	EISPOT
TITLE	LABEL	Potentiostatic EIS	Test &Identifier
DATE	LABEL	6/1/2020	Date
TIME	LABEL	14:00:02	Time
NOTES	NOTES	1	&Notes...
	
PSTAT	PSTAT	REF600-11020	Potentiostat
VDC	POTEN	0.00000E+000	T	DC &Voltage (V)
FREQINIT	QUANT	1.00000E+006	Initial Fre&q. (Hz)
FREQFINAL	QUANT	1.00000E+000	Final Fre&q. (Hz)
PTSPERDEC	QUANT	1.00000E+001	Points/&decade
VAC	QUANT	2.50000E+001	AC &Voltage (mV rms)
AREA	QUANT	4.00000E-004	&Area (cm^2)
CONDIT	TWOPARAM	F	5.00000E+000	0.00000E+000	Conditionin&g	Time(s)	E(V)
DELAY	TWOPARAM	T	3.00000E+000	0.00000E+000	Init. De&lay	Time(s)	Stab.(mV/s)
SPEED	SELECTOR	0	&Optimize for:
ZGUESS	QUANT	1.00000E+003	E&stimated Z (ohms)
OCVCURVE	TABLE	12
	Pt	T	Vf	Vm	Ach	Over
	#	s	V vs. Ref.	V	V	bits
	0	0.258333	2.74669E-002	2.74669E-002	5.55964E-004	...........
	1	0.516667	2.74669E-002	2.74696E-002	5.54264E-004	...........
	2	0.775	2.74673E-002	2.74742E-002	5.57764E-004	...........
	3	1.03333	2.74683E-002	2.74720E-002	5.53530E-004	...........
	4	1.29167	2.74699E-002	2.74736E-002	5.59064E-004	...........
	5	1.55	2.74714E-002	2.74702E-002	5.59530E-004	...........
	6	1.80833	2.74720E-002	2.74644E-002	5.62097E-004	...........
	7	2.06667	2.74713E-002	2.74628E-002	5.60564E-004	...........
	8	2.325	2.74692E-002	2.74603E-002	5.63730E-004	...........
	9	2.58333	2.74663E-002	2.74572E-002	5.64630E-004	...........
	10	2.84167	2.74633E-002	2.74583E-002	5.54497E-004	...........
	11	3.1	2.74608E-002	2.74575E-002	5.61830E-004	...........
EOC	QUANT	0.0274608	Open Circuit (V)
PSTATMODEL	IQUANT	4	Pstat Model
PSTATSECTION	LABEL	REF600-11020	Pstat Section
PSTATSERIALNO	LABEL	11020	Pstat Serial Number
CTRLMODE	IQUANT	1	Control Mode
IESTAB	IQUANT	0	I/E Stability
CASPEED	IQUANT	1	Control Amp Speed
CONVENTION	IQUANT	1	Current Convention
ICHRANGE	IQUANT	2	Ich Range
ICHRANGEMODE	TOGGLE	F	Ich Auto Range
ICHOFFSETENABLE	TOGGLE	T	Ich Offset Enable
ICHOFFSET	QUANT	0	Ich Offset (V)
ICHFILTER	IQUANT	3	Ich Filter
VCHRANGE	IQUANT	2	Vch Range
VCHRANGEMODE	TOGGLE	F	Vch Auto Range
VCHOFFSETENABLE	TOGGLE	T	Vch Offset Enable
VCHOFFSET	QUANT	0	Vch Offset (V)
VCHFILTER	IQUANT	3	Vch Filter
ACHRANGE	IQUANT	2	Ach Range
ACHOFFSETENABLE	TOGGLE	F	Ach Offset Enable
ACHOFFSET	QUANT	0	Ach Offset (V)
ACHFILTER	IQUANT	3	Ach Filter
IERANGELOWERLIMIT	IQUANT	1	I/E Range Lower Limit
IERANGEMODE	TOGGLE	F	I/E AutoRange
IERANGE	IQUANT	7	I/E Range
POSFEEDENABLE	TOGGLE	F	Positive Feedback IR Comp
POSFEEDRESISTANCE	QUANT	0	Positive Feedback Resistance (ohm)
ACHSELECT	IQUANT	0	Ach Select
CABLEID	IQUANT	14	Cable ID
DCCALDATE	LABEL	2/27/2020	DC Calibration Date
ACCALDATE	LABEL	2/27/2020	AC Calibration Date
THERMOSELECT	IQUANT	1	Thermo Select
FRAMEWORKVERSION	QUANT	6.33	Framework Version
INSTRUMENTVERSION	LABEL	3.50	Instrument Version
ZCURVE	TABLE
	Pt	Time	Freq	Zreal	Zimag	Zsig	Zmod	Zphz	Idc	Vdc	IERange
	#	s	Hz	ohm	ohm	V	ohm	°	A	V	#
	0	1	1000078	1801.306	-1393.223	1	2277.23	-37.72021	-1.829639E-010	0.0298196	8
	1	2	794390.6	2027.385	-1450.068	1	2492.586	-35.57388	7.094958E-008	0.029512	8
	2	2	630984.4	2257.239	-1499.235	1	2709.766	-33.59172	4.247071E-008	0.0293564	8
	3	2	501234.4	2491.69	-1543.172	1	2930.853	-31.77106	2.411728E-008	0.0292873	8
	4	3	398109.4	2727.042	-1584.274	1	3153.835	-30.15443	6.490153E-008	0.0292184	8
	5	3	316265.6	2969.696	-1624.789	1	3385.119	-28.68408	4.755758E-008	0.0291968	8
	6	3	251203.1	3216.538	-1656.678	1	3618.107	-27.25074	2.780847E-008	0.0291962	8
	7	4	199546.9	3470.27	-1693.267	1	3861.337	-26.00938	3.920897E-008	0.0291776	8
	8	4	158578.1	3718.315	-1722.067	1	4097.729	-24.85032	3.843106E-008	0.0291851	8
	9	4	125953.1	4022.879	-1698.494	1	4366.742	-22.88989	7.978979E-009	0.0291236	7
	10	5	100078.1	4261.338	-1729.098	1	4598.781	-22.08555	1.476178E-009	0.0291102	7
	11	5	79453.13	4519.469	-1775.063	1	4855.559	-21.44287	1.934078E-009	0.0291095	7
	12	5	63140.62	4782.515	-1818.754	1	5116.67	-20.82143	2.293536E-009	0.0291081	7
	13	5	50203.12	5051.847	-1860.758	1	5383.64	-20.22038	1.709107E-009	0.0290966	7
	14	6	39890.62	5328.083	-1901.977	1	5657.383	-19.64515	2.3608E-009	0.0290935	7
	15	6	31640.63	5611.171	-1944.645	1	5938.593	-19.11461	2.429565E-009	0.0290877	7
	16	6	25171.88	5894.053	-1984.304	1	6219.11	-18.60643	3.065216E-009	0.0290992	7
	17	7	20015.62	6182.095	-2023.621	1	6504.87	-18.12513	2.910984E-009	0.0290978	7
	18	7	15890.62	6473.502	-2062.321	1	6794.071	-17.67078	2.839096E-009	0.0290957	7
	19	7	12609.37	6770.228	-2107.75	1	7090.74	-17.29274	3.36541E-009	0.0290908	7
	20	8	10078.13	7052.958	-2154.272	1	7374.626	-16.98489	4.067396E-009	0.029097	7
	21	8	8015.625	7338.35	-2207.133	1	7663.081	-16.73955	2.775655E-009	0.0290899	7
	22	8	6328.125	7636.617	-2280.49	1	7969.853	-16.62697	3.742809E-009	0.0290853	7
	23	9	5015.625	7923.5	-2367.839	1	8269.734	-16.63812	3.364954E-009	0.0290931	7
	24	9	3984.375	8212.249	-2481.797	1	8579.064	-16.81517	3.797518E-009	0.029089	7
	25	9	3170.956	8493.076	-2618.599	1	8887.599	-17.13566	3.242282E-009	0.0290891	7
	26	10	2527.573	8795.215	-2766.56	1	9220.068	-17.46112	2.953351E-010	0.0291386	6
	27	10	1976.103	9112.373	-3010.316	1	9596.74	-18.28122	3.950402E-010	0.0291439	6
	28	10	1577.524	9412.77	-3286.836	1	9970.13	-19.24864	1.801593E-010	0.0291423	6
	29	10	1265.625	9719	-3617.41	1	10370.37	-20.41526	-5.658292E-011	0.029132	6
	30	11	998.264	10062.75	-4055.822	1	10849.36	-21.95205	3.354052E-010	0.0291393	6
	31	11	796.875	10414.84	-4565.576	1	11371.61	-23.6713	1.648506E-010	0.0291327	6
	32	11	627.7902	10814.26	-5224.503	1	12010.15	-25.78577	2.206297E-010	0.0291367	6
	33	12	505.5147	11201.43	-5944.052	1	12680.84	-27.95272	-1.838094E-010	0.0291253	6
	34	12	397.9953	11661.91	-6913.145	1	13556.98	-30.65934	6.20164E-010	0.0291513	6
	35	12	315.5048	12151.57	-8065.829	1	14584.87	-33.57495	5.744696E-010	0.0291506	6
	36	13	252.4038	12665.79	-9419.009	1	15784.17	-36.6366	5.34468E-010	0.0291463	6
	37	13	198.6229	13281.78	-11209.03	1	17379.52	-40.16236	4.850531E-010	0.0291431	6
	38	13	158.3615	13947.58	-13299.61	1	19272.12	-43.63768	4.216268E-010	0.0291437	6
	39	14	125.558	14747.29	-15935.34	1	21712.15	-47.21741	4.26391E-010	0.0291433	6
	40	14	100.4464	15682.7	-19042.02	1	24668.71	-50.52568	2.142476E-010	0.0291434	6
	41	14	79.00281	16923.62	-23137.82	1	28666.49	-53.81727	1.894123E-010	0.0291361	6
	42	15	63.3446	18379.37	-27725.22	1	33263.93	-56.45914	3.593252E-010	0.029146	6
	43	15	49.86702	20397.32	-33741.58	1	39427.72	-58.84637	7.350708E-011	0.0291451	6
	44	15	39.72458	22881.17	-40625.74	1	46626.16	-60.61099	5.446537E-010	0.0291435	6
	45	16	31.6723	26088.63	-48800.36	1	55336.17	-61.87108	1.050778E-010	0.0291385	6
	46	16	24.93351	30450.12	-59015.12	1	66407.78	-62.70755	-7.616192E-012	0.02914	6
	47	16	19.86229	35773.03	-70430.27	1	78994.52	-63.07302	-1.350172E-009	0.0291327	6
	48	17	15.83615	42540.92	-83565.3	1	93770.41	-63.02054	1.172806E-009	0.0291417	6
	49	17	12.40079	51682.41	-99759.9	1	112352.6	-62.61277	1.459743E-009	0.0291455	5
	50	17	9.93114	61830.84	-116785.1	1	132143.1	-62.10141	8.11602E-010	0.0291518	5
	51	18	7.944915	74365.7	-135936.2	1	154948.1	-61.31855	-1.305252E-009	0.0291481	5
	52	18	6.317385	89670.59	-158017.9	1	181687.9	-60.42635	5.054009E-010	0.0291315	5
	53	19	5.008013	108114.6	-183120.6	1	212654.5	-59.44235	6.331349E-010	0.0291476	5
	54	20	3.945707	130220.1	-211291.7	1	248196.5	-58.35427	-1.612092E-010	0.0291377	5
	55	21	3.158693	153801.5	-240760.5	1	285693.1	-57.42893	3.634868E-010	0.0291489	5
	56	22	2.504006	180995.5	-274406.2	1	328721.9	-56.59157	9.890185E-011	0.0291434	5
	57	23	1.998082	210144	-311658.5	1	375887.7	-56.00914	-1.388272E-010	0.0291005	5
	58	24	1.584686	241523.2	-354606.7	1	429044.7	-55.74115	8.415414E-012	0.0291357	5
	59	26	1.266892	275750.4	-402927.9	1	488251.2	-55.61356	9.90576E-011	0.0291682	5
	60	29	0.999041	315203	-464943.4	1	561716.4	-55.86514	2.369296E-010	0.0291751	5
