EXPLAIN
TAG	EISPOT
TITLE	LABEL	Potentiostatic EIS	Test &Identifier
DATE	LABEL	1/28/2020	Date
TIME	LABEL	12:12:24	Time
NOTES	NOTES	6	&Notes...
	
	
	
	
	
	
PSTAT	PSTAT	REF600-11020	Potentiostat
VDC	POTEN	0.00000E+000	T	DC &Voltage (V)
FREQINIT	QUANT	1.00000E+006	Initial Fre&q. (Hz)
FREQFINAL	QUANT	1.00000E+000	Final Fre&q. (Hz)
PTSPERDEC	QUANT	1.00000E+001	Points/&decade
VAC	QUANT	2.50000E+001	AC &Voltage (mV rms)
AREA	QUANT	1.60000E-004	&Area (cm^2)
CONDIT	TWOPARAM	F	5.00000E+000	0.00000E+000	Conditionin&g	Time(s)	E(V)
DELAY	TWOPARAM	F	5.00000E+000	0.00000E+000	Init. De&lay	Time(s)	Stab.(mV/s)
SPEED	SELECTOR	0	&Optimize for:
ZGUESS	QUANT	1.00000E+003	E&stimated Z (ohms)
OCVCURVE	TABLE	39
	Pt	T	Vf	Vm	Ach	Over
	#	s	V vs. Ref.	V	V	bits
	0	0.258333	4.93409E-002	4.93409E-002	5.76138E-004	...........
	1	0.516667	4.93470E-002	4.96591E-002	5.71071E-004	...........
	2	0.775	4.93731E-002	4.93730E-002	5.67571E-004	...........
	3	1.03333	4.94148E-002	4.93667E-002	5.67671E-004	...........
	4	1.29167	4.94423E-002	4.95128E-002	5.65938E-004	...........
	5	1.55	4.94484E-002	4.95865E-002	5.70538E-004	...........
	6	1.80833	4.94611E-002	4.95913E-002	5.69238E-004	...........
	7	2.06667	4.94967E-002	4.96286E-002	5.64938E-004	...........
	8	2.325	4.95422E-002	4.95709E-002	5.67138E-004	...........
	9	2.58333	4.95766E-002	4.95583E-002	5.65604E-004	...........
	10	2.84167	4.95894E-002	4.95665E-002	5.66271E-004	...........
	11	3.1	4.95864E-002	4.96366E-002	5.66804E-004	...........
	12	3.35833	4.95827E-002	4.95793E-002	5.65604E-004	...........
	13	3.61667	4.95851E-002	4.95502E-002	5.64838E-004	...........
	14	3.875	4.95880E-002	4.96285E-002	5.63738E-004	...........
	15	4.13333	4.95883E-002	4.96059E-002	5.67038E-004	...........
	16	4.39167	4.95911E-002	4.95946E-002	5.64904E-004	...........
	17	4.65	4.95968E-002	4.96071E-002	5.64871E-004	...........
	18	4.90833	4.96053E-002	4.98189E-002	5.63804E-004	...........
	19	5.16667	4.96296E-002	4.98751E-002	5.74171E-004	...........
	20	5.425	4.96798E-002	4.96911E-002	5.69371E-004	...........
	21	5.68333	4.97350E-002	4.97496E-002	5.65371E-004	...........
	22	5.94167	4.97631E-002	4.97053E-002	5.66304E-004	...........
	23	6.2	4.97588E-002	4.96854E-002	5.63038E-004	...........
	24	6.45833	4.97381E-002	4.96700E-002	5.66904E-004	...........
	25	6.71667	4.97147E-002	4.96932E-002	5.71038E-004	...........
	26	6.975	4.96975E-002	4.97431E-002	5.68538E-004	...........
	27	7.23333	4.96931E-002	4.97145E-002	5.70971E-004	...........
	28	7.49167	4.96998E-002	4.96810E-002	5.67804E-004	...........
	29	7.75	4.97004E-002	4.93612E-002	5.66271E-004	...........
	30	8.00833	4.96682E-002	4.94352E-002	5.66571E-004	...........
	31	8.26667	4.95971E-002	4.94551E-002	5.67771E-004	...........
	32	8.525	4.95179E-002	4.94460E-002	5.67971E-004	...........
	33	8.78333	4.94650E-002	4.94225E-002	5.69071E-004	...........
	34	9.04167	4.94417E-002	4.94168E-002	5.64304E-004	...........
	35	9.3	4.94325E-002	4.94122E-002	5.67671E-004	...........
	36	9.5583	4.94259E-002	4.94038E-002	5.67804E-004	...........
	37	9.8167	4.94191E-002	4.93999E-002	5.69538E-004	...........
	38	10.075	4.94122E-002	4.93943E-002	5.68471E-004	...........
EOC	QUANT	0.0494122	Open Circuit (V)
PSTATMODEL	IQUANT	4	Pstat Model
PSTATSECTION	LABEL	REF600-11020	Pstat Section
PSTATSERIALNO	LABEL	11020	Pstat Serial Number
CTRLMODE	IQUANT	1	Control Mode
IESTAB	IQUANT	0	I/E Stability
CASPEED	IQUANT	1	Control Amp Speed
CONVENTION	IQUANT	1	Current Convention
ICHRANGE	IQUANT	2	Ich Range
ICHRANGEMODE	TOGGLE	F	Ich Auto Range
ICHOFFSETENABLE	TOGGLE	T	Ich Offset Enable
ICHOFFSET	QUANT	0	Ich Offset (V)
ICHFILTER	IQUANT	3	Ich Filter
VCHRANGE	IQUANT	2	Vch Range
VCHRANGEMODE	TOGGLE	F	Vch Auto Range
VCHOFFSETENABLE	TOGGLE	T	Vch Offset Enable
VCHOFFSET	QUANT	0	Vch Offset (V)
VCHFILTER	IQUANT	3	Vch Filter
ACHRANGE	IQUANT	2	Ach Range
ACHOFFSETENABLE	TOGGLE	F	Ach Offset Enable
ACHOFFSET	QUANT	0	Ach Offset (V)
ACHFILTER	IQUANT	3	Ach Filter
IERANGELOWERLIMIT	IQUANT	1	I/E Range Lower Limit
IERANGEMODE	TOGGLE	F	I/E AutoRange
IERANGE	IQUANT	7	I/E Range
POSFEEDENABLE	TOGGLE	F	Positive Feedback IR Comp
POSFEEDRESISTANCE	QUANT	0	Positive Feedback Resistance (ohm)
ACHSELECT	IQUANT	0	Ach Select
CABLEID	IQUANT	14	Cable ID
DCCALDATE	LABEL	1/27/2020	DC Calibration Date
ACCALDATE	LABEL	1/27/2020	AC Calibration Date
THERMOSELECT	IQUANT	1	Thermo Select
FRAMEWORKVERSION	QUANT	6.33	Framework Version
INSTRUMENTVERSION	LABEL	3.50	Instrument Version
ZCURVE	TABLE
	Pt	Time	Freq	Zreal	Zimag	Zsig	Zmod	Zphz	Idc	Vdc	IERange
	#	s	Hz	ohm	ohm	V	ohm	°	A	V	#
	0	1	1000078	2013.87	-1334.265	1	2415.768	-33.52598	-3.334185E-006	0.0521478	8
	1	2	794390.6	2239.674	-1340.354	1	2610.113	-30.89881	1.191092E-006	0.0514872	8
	2	2	630984.4	2471.432	-1286.775	1	2786.354	-27.50417	1.844417E-006	0.0507882	8
	3	2	501234.4	2676.198	-1239.452	1	2949.284	-24.8507	5.236116E-007	0.0510888	8
	4	3	398109.4	2874.329	-1172.716	1	3104.357	-22.19529	1.805171E-006	0.0507108	8
	5	3	316265.6	3048.975	-1110.965	1	3245.072	-20.02038	-1.343799E-006	0.0513978	8
	6	3	251203.1	3195.476	-1033.232	1	3358.368	-17.91821	1.549871E-006	0.0508023	8
	7	4	199546.9	3333.723	-989.112	1	3477.363	-16.52557	-3.357716E-006	0.0517544	8
	8	4	158578.1	3461.508	-940.8041	1	3587.081	-15.20513	3.262881E-006	0.0505593	8
	9	4	125953.1	3593.527	-873.6034	1	3698.191	-13.66381	-1.10994E-006	0.0535567	7
	10	5	100078.1	3696.308	-845.2975	1	3791.73	-12.8813	4.688841E-008	0.0509642	7
	11	5	79453.13	3795.912	-835.0754	1	3886.682	-12.40705	-4.400835E-008	0.0511768	7
	12	5	63140.62	3893.99	-835.479	1	3982.61	-12.10956	4.499832E-009	0.0511006	7
	13	6	50203.12	3993.237	-844.8121	1	4081.624	-11.9454	4.704621E-008	0.0509543	7
	14	6	39890.62	4095.455	-864.8665	1	4185.779	-11.92436	1.023163E-007	0.0509333	7
	15	6	31640.63	4201.606	-894.6777	1	4295.806	-12.02086	3.328343E-008	0.0510934	7
	16	7	25171.88	4310.135	-933.3538	1	4410.035	-12.21866	-3.134256E-008	0.0510917	7
	17	7	20015.62	4424.04	-981.549	1	4531.619	-12.50942	-1.817827E-008	0.0511271	7
	18	7	15890.62	4542.189	-1040.128	1	4659.759	-12.89793	-9.617727E-009	0.0510584	7
	19	8	12609.37	4666.815	-1109.815	1	4796.963	-13.37702	2.532454E-008	0.051002	7
	20	8	10078.13	4790.521	-1191.406	1	4936.45	-13.96616	5.515568E-009	0.0510935	7
	21	8	8015.625	4921.832	-1286.065	1	5087.081	-14.64386	2.447282E-008	0.0509978	7
	22	9	6328.125	5062.412	-1409.134	1	5254.872	-15.55467	-2.412128E-008	0.0510971	7
	23	9	5015.625	5201.829	-1552.666	1	5428.609	-16.61956	2.500105E-008	0.0509955	7
	24	9	3984.375	5344.659	-1726.396	1	5616.567	-17.90115	-3.094096E-008	0.0510812	7
	25	9	3170.956	5492.074	-1940.939	1	5824.957	-19.46378	4.624614E-008	0.0509339	7
	26	10	2527.573	5641.338	-2201.912	1	6055.833	-21.32156	7.174336E-008	0.050936	7
	27	10	1976.103	5805.857	-2552.559	1	6342.203	-23.7328	1.041533E-007	0.0509215	7
	28	10	1577.524	5956.705	-2951.683	1	6647.914	-26.35946	6.135444E-009	0.0510877	7
	29	11	1265.625	6126.063	-3442.318	1	7026.962	-29.33223	-3.180018E-008	0.051082	7
	30	11	998.264	6317.828	-4097.443	1	7530.206	-32.96553	1.581157E-008	0.0510634	7
	31	11	796.875	6516.38	-4873.422	1	8137.165	-36.79181	-1.676722E-008	0.0511191	7
	32	12	627.7902	6759.725	-5886.615	1	8963.6	-41.05054	-3.941245E-008	0.051131	7
	33	12	505.5147	7011.3	-7029.396	1	9928.28	-45.07384	1.030527E-009	0.0509532	6
	34	12	397.9953	7338.052	-8587.234	1	11295.47	-49.48511	6.998417E-010	0.0510775	6
	35	13	315.5048	7720.426	-10462.33	1	13002.51	-53.57542	2.475272E-010	0.0510762	6
	36	13	252.4038	8164.124	-12679.12	1	15080.22	-57.22239	9.784836E-010	0.0510703	6
	37	13	198.6229	8750.486	-15609.27	1	17894.7	-60.72521	6.145721E-010	0.0510751	6
	38	14	158.3615	9441.764	-19024.86	1	21238.93	-63.60546	8.744E-010	0.0510666	6
	39	14	125.558	10316.48	-23327.44	1	25506.84	-66.14275	8.054145E-010	0.0510715	6
	40	14	100.4464	11349.41	-28362.3	1	30548.8	-68.19077	7.058492E-010	0.0510668	6
	41	15	79.00281	12842.27	-34971.52	1	37254.95	-69.83572	8.210425E-010	0.051067	6
	42	15	63.3446	14620.18	-42953	1	45373.01	-71.20264	6.366432E-010	0.0510685	6
	43	15	49.86702	16891.27	-52737	1	55376.05	-72.24013	6.014826E-010	0.0510649	6
	44	16	39.72458	19990.51	-63978.27	1	67028.65	-72.64818	7.180987E-010	0.0510679	6
	45	16	31.6723	23788.94	-77644.64	1	81207.16	-72.96587	7.07015E-010	0.0510653	6
	46	16	24.93351	28963.17	-95557.6	1	99850.5	-73.13813	1.637643E-010	0.0510618	6
	47	17	19.86229	35452.86	-115926.1	1	121226.1	-72.99517	-6.60367E-010	0.0510579	5
	48	17	15.83615	43362.91	-140393.1	1	146937.3	-72.83576	3.630714E-010	0.0510611	5
	49	17	12.40079	55770.32	-171456.5	1	180298.8	-71.98164	5.739519E-010	0.0510628	5
	50	18	9.93114	70798.8	-205271.3	1	217137.7	-70.9705	1.424985E-010	0.0510592	5
	51	18	7.944915	89448.66	-245213.2	1	261018.3	-69.95908	-3.239121E-010	0.0510668	5
	52	19	6.317385	113527.6	-292336.8	1	313606.9	-68.77655	-3.523139E-010	0.0510778	5
	53	20	5.008013	145788.1	-347750.5	1	377073.7	-67.25502	-2.452023E-010	0.0510567	5
	54	21	3.945707	186506.6	-410386.6	1	450779.2	-65.55984	2.068169E-012	0.0510567	5
	55	22	3.158693	235276.8	-475718.7	1	530719.8	-63.68432	1.325116E-010	0.0510731	5
	56	24	2.504006	296272	-550066.7	1	624780.3	-61.6926	-5.243758E-011	0.0510681	5
	57	25	1.998082	363537	-627064.3	1	724823.3	-59.89723	-5.287162E-012	0.0510514	5
	58	27	1.584686	445630.4	-710553.5	1	838732.8	-57.90572	1.178011E-010	0.0510941	5
	59	29	1.266892	531978.8	-800058.4	1	960778	-56.37907	1.387555E-010	0.0510921	5
	60	31	0.999041	630902.6	-902479.3	1	1101139	-55.04348	1.111176E-010	0.0510244	4
