EXPLAIN
TAG	EISPOT
TITLE	LABEL	Potentiostatic EIS	Test &Identifier
DATE	LABEL	1/28/2020	Date
TIME	LABEL	12:02:48	Time
NOTES	NOTES	6	&Notes...
	
	
	
	
	
	
PSTAT	PSTAT	REF600-11020	Potentiostat
VDC	POTEN	0.00000E+000	T	DC &Voltage (V)
FREQINIT	QUANT	1.00000E+006	Initial Fre&q. (Hz)
FREQFINAL	QUANT	1.00000E+000	Final Fre&q. (Hz)
PTSPERDEC	QUANT	1.00000E+001	Points/&decade
VAC	QUANT	2.50000E+001	AC &Voltage (mV rms)
AREA	QUANT	1.60000E-004	&Area (cm^2)
CONDIT	TWOPARAM	F	5.00000E+000	0.00000E+000	Conditionin&g	Time(s)	E(V)
DELAY	TWOPARAM	F	5.00000E+000	0.00000E+000	Init. De&lay	Time(s)	Stab.(mV/s)
SPEED	SELECTOR	0	&Optimize for:
ZGUESS	QUANT	1.00000E+003	E&stimated Z (ohms)
OCVCURVE	TABLE	39
	Pt	T	Vf	Vm	Ach	Over
	#	s	V vs. Ref.	V	V	bits
	0	0.258333	6.91517E-002	6.91517E-002	5.79104E-004	...........
	1	0.516667	6.91523E-002	6.91807E-002	5.68838E-004	...........
	2	0.775	6.91595E-002	6.94085E-002	5.71671E-004	...........
	3	1.03333	6.91874E-002	6.93536E-002	5.82071E-004	...........
	4	1.29167	6.92428E-002	6.94894E-002	5.83771E-004	...........
	5	1.55	6.93137E-002	6.94712E-002	5.71271E-004	...........
	6	1.80833	6.93815E-002	6.94988E-002	5.72138E-004	...........
	7	2.06667	6.94553E-002	7.05773E-002	5.79071E-004	...........
	8	2.325	6.95922E-002	7.03159E-002	5.83137E-004	...........
	9	2.58333	6.98226E-002	7.02994E-002	5.79037E-004	...........
	10	2.84167	7.00726E-002	7.03591E-002	5.75471E-004	...........
	11	3.1	7.02486E-002	7.05009E-002	5.85437E-004	...........
	12	3.35833	7.03456E-002	7.05602E-002	5.83904E-004	...........
	13	3.61667	7.04040E-002	7.02159E-002	5.78837E-004	...........
	14	3.875	7.04170E-002	6.96209E-002	5.74904E-004	...........
	15	4.13333	7.03364E-002	6.99560E-002	5.75171E-004	...........
	16	4.39167	7.01655E-002	6.96025E-002	5.75538E-004	...........
	17	4.65	6.99740E-002	6.95639E-002	5.66038E-004	...........
	18	4.90833	6.98130E-002	6.95368E-002	5.72938E-004	...........
	19	5.16667	6.96905E-002	6.95366E-002	5.76038E-004	...........
	20	5.425	6.96066E-002	6.95382E-002	5.79004E-004	...........
	21	5.68333	6.95615E-002	6.96398E-002	5.69238E-004	...........
	22	5.94167	6.95513E-002	6.96150E-002	5.76938E-004	...........
	23	6.2	6.95711E-002	6.98628E-002	5.69738E-004	...........
	24	6.45833	6.96163E-002	6.97223E-002	5.65671E-004	...........
	25	6.71667	6.96767E-002	6.98464E-002	5.72738E-004	...........
	26	6.975	6.97341E-002	6.98208E-002	5.73038E-004	...........
	27	7.23333	6.97785E-002	6.98938E-002	5.71604E-004	...........
	28	7.49167	6.98109E-002	6.97881E-002	5.69738E-004	...........
	29	7.75	6.98386E-002	7.02243E-002	5.69871E-004	...........
	30	8.00833	6.98874E-002	7.04426E-002	5.71571E-004	...........
	31	8.26667	6.99930E-002	7.04788E-002	5.74138E-004	...........
	32	8.525	7.01493E-002	7.04210E-002	5.65938E-004	...........
	33	8.78333	7.02972E-002	7.03075E-002	5.67104E-004	...........
	34	9.04167	7.03745E-002	6.99822E-002	5.74271E-004	...........
	35	9.3	7.03576E-002	7.01722E-002	5.73371E-004	...........
	36	9.5583	7.02776E-002	7.02026E-002	5.66704E-004	...........
	37	9.8167	7.02011E-002	7.02160E-002	5.65271E-004	...........
	38	10.075	7.01705E-002	7.02291E-002	5.69304E-004	...........
EOC	QUANT	0.0701705	Open Circuit (V)
PSTATMODEL	IQUANT	4	Pstat Model
PSTATSECTION	LABEL	REF600-11020	Pstat Section
PSTATSERIALNO	LABEL	11020	Pstat Serial Number
CTRLMODE	IQUANT	1	Control Mode
IESTAB	IQUANT	0	I/E Stability
CASPEED	IQUANT	1	Control Amp Speed
CONVENTION	IQUANT	1	Current Convention
ICHRANGE	IQUANT	2	Ich Range
ICHRANGEMODE	TOGGLE	F	Ich Auto Range
ICHOFFSETENABLE	TOGGLE	T	Ich Offset Enable
ICHOFFSET	QUANT	0	Ich Offset (V)
ICHFILTER	IQUANT	3	Ich Filter
VCHRANGE	IQUANT	2	Vch Range
VCHRANGEMODE	TOGGLE	F	Vch Auto Range
VCHOFFSETENABLE	TOGGLE	T	Vch Offset Enable
VCHOFFSET	QUANT	0	Vch Offset (V)
VCHFILTER	IQUANT	3	Vch Filter
ACHRANGE	IQUANT	2	Ach Range
ACHOFFSETENABLE	TOGGLE	F	Ach Offset Enable
ACHOFFSET	QUANT	0	Ach Offset (V)
ACHFILTER	IQUANT	3	Ach Filter
IERANGELOWERLIMIT	IQUANT	1	I/E Range Lower Limit
IERANGEMODE	TOGGLE	F	I/E AutoRange
IERANGE	IQUANT	8	I/E Range
POSFEEDENABLE	TOGGLE	F	Positive Feedback IR Comp
POSFEEDRESISTANCE	QUANT	0	Positive Feedback Resistance (ohm)
ACHSELECT	IQUANT	0	Ach Select
CABLEID	IQUANT	14	Cable ID
DCCALDATE	LABEL	1/27/2020	DC Calibration Date
ACCALDATE	LABEL	1/27/2020	AC Calibration Date
THERMOSELECT	IQUANT	1	Thermo Select
FRAMEWORKVERSION	QUANT	6.33	Framework Version
INSTRUMENTVERSION	LABEL	3.50	Instrument Version
ZCURVE	TABLE
	Pt	Time	Freq	Zreal	Zimag	Zsig	Zmod	Zphz	Idc	Vdc	IERange
	#	s	Hz	ohm	ohm	V	ohm	°	A	V	#
	0	1	1000078	2137.032	-1754.01	1	2764.68	-39.37808	5.182556E-006	0.071357	8
	1	2	794390.6	2492.205	-1770.389	1	3057.018	-35.38887	-2.35877E-007	0.0718823	8
	2	2	630984.4	2841.38	-1737.47	1	3330.501	-31.44529	3.028833E-006	0.0714851	8
	3	2	501234.4	3154.736	-1650.827	1	3560.56	-27.6224	2.345709E-006	0.0714218	8
	4	3	398109.4	3432.027	-1517.546	1	3752.567	-23.85367	-8.540434E-007	0.0719921	8
	5	3	316265.6	3671.089	-1401.852	1	3929.642	-20.89999	1.739535E-006	0.0715677	8
	6	3	251203.1	3862.928	-1260.909	1	4063.509	-18.07734	-1.439225E-006	0.0721922	8
	7	4	199546.9	4028.411	-1132.085	1	4184.461	-15.6967	-3.389818E-006	0.0725403	8
	8	4	158578.1	4158.792	-1039.248	1	4286.676	-14.0304	-4.642747E-006	0.0728779	8
	9	4	125953.1	4325.39	-883.0906	1	4414.618	-11.53917	-8.977503E-007	0.0745412	7
	10	4	100078.1	4398.637	-809.3121	1	4472.47	-10.42534	2.698413E-008	0.0717181	7
	11	5	79453.13	4480.322	-758.503	1	4544.074	-9.60887	-5.771646E-008	0.0718856	7
	12	5	63140.62	4555.811	-720.6212	1	4612.452	-8.988363	-5.713201E-008	0.0719087	7
	13	5	50203.12	4627.832	-697.1136	1	4680.042	-8.566347	-4.752446E-008	0.0718435	7
	14	6	39890.62	4697.982	-685.8919	1	4747.787	-8.306334	-2.083645E-008	0.071782	7
	15	6	31640.63	4768.494	-689.2498	1	4818.049	-8.22471	1.31128E-007	0.0716027	7
	16	6	25171.88	4837.092	-704.5555	1	4888.135	-8.287243	-1.896588E-008	0.0719269	7
	17	7	20015.62	4907.809	-729.817	1	4961.776	-8.458201	-1.922373E-008	0.0719245	7
	18	7	15890.62	4981.742	-771.7726	1	5041.169	-8.806269	-5.621783E-008	0.0718996	7
	19	7	12609.37	5053.579	-825.7888	1	5120.604	-9.280494	-9.884502E-010	0.0717231	7
	20	8	10078.13	5126.742	-898.0753	1	5204.807	-9.93596	3.148788E-008	0.071762	7
	21	8	8015.625	5204.471	-987.613	1	5297.348	-10.74482	-4.427558E-008	0.0718239	7
	22	8	6328.125	5291.992	-1111.235	1	5407.405	-11.85892	-1.515755E-008	0.0719055	7
	23	9	5015.625	5377.147	-1259.557	1	5522.699	-13.18342	4.393645E-008	0.0716481	7
	24	9	3984.375	5466.417	-1451.362	1	5655.808	-14.86927	-5.540837E-008	0.0718643	7
	25	9	3170.956	5566.365	-1672.249	1	5812.128	-16.72133	-1.453403E-008	0.0718342	7
	26	10	2527.573	5667.942	-1949.334	1	5993.786	-18.97925	-4.669934E-008	0.0718287	7
	27	10	1976.103	5790.885	-2327.402	1	6241.085	-21.89558	4.396797E-008	0.0716464	7
	28	10	1577.524	5913.78	-2761.979	1	6526.969	-25.03451	-5.345517E-008	0.0718904	7
	29	11	1265.625	6057.234	-3278.934	1	6887.778	-28.4278	-1.561846E-008	0.071915	7
	30	11	998.264	6239.277	-3969.138	1	7394.771	-32.46262	-7.69598E-009	0.0718298	7
	31	11	796.875	6444.99	-4776.432	1	8021.982	-36.54243	-3.440226E-008	0.0718309	7
	32	11	627.7902	6717.224	-5838.954	1	8900.251	-40.99884	1.035426E-009	0.0718102	7
	33	12	505.5147	7029.579	-7002.241	1	9922.01	-44.88837	1.21352E-009	0.0718572	6
	34	12	397.9953	7464.408	-8572.219	1	11366.63	-48.95172	1.174388E-009	0.0717925	6
	35	12	315.5048	8011.965	-10430.44	1	13152.4	-52.47094	1.130302E-009	0.0717949	6
	36	13	252.4038	8680.078	-12577.92	1	15282.27	-55.39027	1.346693E-009	0.0717863	6
	37	13	198.6229	9602.97	-15354.23	1	18109.93	-57.97697	9.691076E-010	0.0717846	6
	38	13	158.3615	10724.06	-18494.78	1	21379.02	-59.89302	8.484993E-010	0.0717864	6
	39	14	125.558	12199.74	-22322.09	1	25438.34	-61.34199	8.132304E-010	0.0717878	6
	40	14	100.4464	13950.47	-26671.52	1	30099.6	-62.38829	-2.326662E-010	0.0717864	6
	41	14	79.00281	16390.67	-32101.87	1	36044.2	-62.95192	2.225293E-010	0.0717819	6
	42	15	63.3446	19461.2	-38483.51	1	43124.46	-63.17417	1.142018E-009	0.0717828	6
	43	15	49.86702	23068.21	-45897.04	1	51368.09	-63.31554	6.264876E-010	0.0717829	6
	44	16	39.72458	27520.74	-53874.11	1	60496.37	-62.9405	7.389989E-010	0.0717897	6
	45	16	31.6723	32960.79	-63139.91	1	71225.44	-62.43419	1.01786E-009	0.071788	6
	46	16	24.93351	40090.11	-74821.94	1	84885.45	-61.81729	9.428615E-011	0.0717863	6
	47	16	19.86229	48418.15	-87233.09	1	99769.4	-60.96782	-1.397951E-009	0.0717853	6
	48	17	15.83615	58257.57	-100311.6	1	116001.6	-59.85343	1.006454E-009	0.0717827	5
	49	17	12.40079	70039.92	-116749.3	1	136147	-59.03973	8.718274E-010	0.0717845	5
	50	18	9.93114	84233.98	-132653.9	1	157138.2	-57.58484	7.582619E-010	0.0717797	5
	51	18	7.944915	98948.1	-150400.4	1	180030.6	-56.65918	-1.755818E-010	0.0717881	5
	52	19	6.317385	115330.2	-171362.3	1	206557.7	-56.05868	-3.635112E-010	0.0717953	5
	53	19	5.008013	133767.8	-194934.4	1	236417.5	-55.54133	7.613399E-012	0.0717871	5
	54	21	3.945707	153804.8	-223312.8	1	271154	-55.44319	-1.032567E-010	0.0717722	5
	55	22	3.158693	174522.1	-254392.1	1	308501.7	-55.54848	2.187868E-010	0.0717787	5
	56	24	2.504006	197781.8	-292545	1	353129.2	-55.93843	1.228423E-010	0.0717812	5
	57	25	1.998082	223172.8	-337368.4	1	404504.1	-56.51494	-7.903345E-011	0.0717333	5
	58	26	1.584686	251348.8	-391896.6	1	465574	-57.3253	3.863819E-011	0.0717638	5
	59	28	1.266892	284296.9	-454895.9	1	536428.1	-57.9958	1.115011E-010	0.0718015	5
	60	31	0.999041	324964.8	-536345.6	1	627111.4	-58.78887	1.416539E-010	0.071812	5
