EXPLAIN
TAG	EISPOT
TITLE	LABEL	Potentiostatic EIS	Test &Identifier
DATE	LABEL	1/7/2020	Date
TIME	LABEL	17:52:37	Time
NOTES	NOTES	5	&Notes...
	
	
	
	
	
PSTAT	PSTAT	REF600-11020	Potentiostat
VDC	POTEN	0.00000E+000	T	DC &Voltage (V)
FREQINIT	QUANT	1.00000E+006	Initial Fre&q. (Hz)
FREQFINAL	QUANT	1.00000E+000	Final Fre&q. (Hz)
PTSPERDEC	QUANT	1.00000E+001	Points/&decade
VAC	QUANT	2.50000E+001	AC &Voltage (mV rms)
AREA	QUANT	1.00000E-001	&Area (cm^2)
CONDIT	TWOPARAM	T	5.00000E+000	0.00000E+000	Conditionin&g	Time(s)	E(V)
DELAY	TWOPARAM	T	5.00000E+000	0.00000E+000	Init. De&lay	Time(s)	Stab.(mV/s)
SPEED	SELECTOR	0	&Optimize for:
ZGUESS	QUANT	1.00000E+003	E&stimated Z (ohms)
OCVCURVE	TABLE	19
	Pt	T	Vf	Vm	Ach	Over
	#	s	V vs. Ref.	V	V	bits
	0	0.258333	4.23850E-003	4.23850E-003	5.98980E-004	...........
	1	0.516667	4.23272E-003	3.93580E-003	5.98880E-004	...........
	2	0.775	4.19748E-003	3.66272E-003	6.06047E-004	...........
	3	1.03333	4.09869E-003	3.40260E-003	5.98114E-004	...........
	4	1.29167	3.92415E-003	3.17084E-003	5.94847E-004	...........
	5	1.55	3.69605E-003	2.95010E-003	5.94714E-004	...........
	6	1.80833	3.44934E-003	2.76719E-003	5.96514E-004	...........
	7	2.06667	3.21021E-003	2.59698E-003	5.96847E-004	...........
	8	2.325	2.99132E-003	2.43666E-003	5.93514E-004	...........
	9	2.58333	2.79507E-003	2.28975E-003	5.94880E-004	...........
	10	2.84167	2.61821E-003	2.14379E-003	5.93480E-004	...........
	11	3.1	2.45667E-003	2.04762E-003	5.96414E-004	...........
	12	3.35833	2.30965E-003	1.96336E-003	5.95047E-004	...........
	13	3.61667	2.17838E-003	1.80399E-003	5.98880E-004	...........
	14	3.875	2.05868E-003	1.67216E-003	5.95314E-004	...........
	15	4.13333	1.93999E-003	1.53680E-003	5.96580E-004	...........
	16	4.39167	1.81483E-003	1.40195E-003	5.97314E-004	...........
	17	4.65	1.68344E-003	1.27620E-003	5.99647E-004	...........
	18	4.90833	1.55015E-003	1.16759E-003	5.93447E-004	...........
EOC	QUANT	0.0015502	Open Circuit (V)
PSTATMODEL	IQUANT	4	Pstat Model
PSTATSECTION	LABEL	REF600-11020	Pstat Section
PSTATSERIALNO	LABEL	11020	Pstat Serial Number
CTRLMODE	IQUANT	1	Control Mode
IESTAB	IQUANT	0	I/E Stability
CASPEED	IQUANT	1	Control Amp Speed
CONVENTION	IQUANT	1	Current Convention
ICHRANGE	IQUANT	2	Ich Range
ICHRANGEMODE	TOGGLE	F	Ich Auto Range
ICHOFFSETENABLE	TOGGLE	T	Ich Offset Enable
ICHOFFSET	QUANT	0	Ich Offset (V)
ICHFILTER	IQUANT	3	Ich Filter
VCHRANGE	IQUANT	2	Vch Range
VCHRANGEMODE	TOGGLE	F	Vch Auto Range
VCHOFFSETENABLE	TOGGLE	T	Vch Offset Enable
VCHOFFSET	QUANT	0	Vch Offset (V)
VCHFILTER	IQUANT	3	Vch Filter
ACHRANGE	IQUANT	2	Ach Range
ACHOFFSETENABLE	TOGGLE	F	Ach Offset Enable
ACHOFFSET	QUANT	0	Ach Offset (V)
ACHFILTER	IQUANT	3	Ach Filter
IERANGELOWERLIMIT	IQUANT	1	I/E Range Lower Limit
IERANGEMODE	TOGGLE	F	I/E AutoRange
IERANGE	IQUANT	6	I/E Range
POSFEEDENABLE	TOGGLE	F	Positive Feedback IR Comp
POSFEEDRESISTANCE	QUANT	0	Positive Feedback Resistance (ohm)
ACHSELECT	IQUANT	0	Ach Select
CABLEID	IQUANT	14	Cable ID
DCCALDATE	LABEL	12/22/2019	DC Calibration Date
ACCALDATE	LABEL	12/22/2019	AC Calibration Date
THERMOSELECT	IQUANT	1	Thermo Select
FRAMEWORKVERSION	QUANT	6.33	Framework Version
INSTRUMENTVERSION	LABEL	3.50	Instrument Version
ZCURVE	TABLE
	Pt	Time	Freq	Zreal	Zimag	Zsig	Zmod	Zphz	Idc	Vdc	IERange
	#	s	Hz	ohm	ohm	V	ohm	°	A	V	#
	0	1	1000078	2314.114	-2219.792	1	3206.649	-43.80821	2.967012E-006	0.0044418	8
	1	2	794390.6	2733.37	-2386.572	1	3628.641	-41.12501	-8.614829E-007	0.0029803	8
	2	2	630984.4	3203.077	-2460.21	1	4038.853	-37.52704	6.705518E-006	0.0021047	8
	3	2	501234.4	3635.23	-2498.699	1	4411.167	-34.50294	-1.781844E-006	0.0037333	8
	4	3	398109.4	4195.035	-2407.58	1	4836.813	-29.85202	5.986996E-006	0.0020919	8
	5	3	316265.6	4620.915	-2245.788	1	5137.744	-25.91998	-9.838668E-007	0.0033571	8
	6	3	251203.1	5030.363	-2097.88	1	5450.289	-22.63826	1.883148E-007	0.0027931	8
	7	3	199546.9	5320.991	-1923.935	1	5658.133	-19.8787	-1.353404E-006	0.0033316	8
	8	4	158578.1	5694.554	-1668.239	1	5933.883	-16.32813	1.889599E-007	0.0030786	8
	9	4	125953.1	5919.987	-1369.187	1	6076.258	-13.02251	-1.715055E-006	0.0065832	7
	10	5	100078.1	6058.262	-1213.774	1	6178.655	-11.32923	-1.038492E-007	0.0032102	7
	11	5	79453.13	6185.221	-1076.862	1	6278.264	-9.87634	1.738984E-008	0.002951	7
	12	5	63140.62	6287.053	-955.864	1	6359.301	-8.644873	1.383646E-007	0.0028247	7
	13	6	50203.12	6374.284	-859.1082	1	6431.918	-7.67591	1.301175E-007	0.0030013	7
	14	6	39890.62	6449.188	-785.6583	1	6496.867	-6.945709	-5.475782E-008	0.0030496	7
	15	6	31640.63	6516.145	-735.099	1	6557.478	-6.436436	-8.912438E-008	0.0031317	7
	16	7	25171.88	6568.819	-700.8018	1	6606.096	-6.089631	1.311039E-007	0.0029987	7
	17	7	20015.62	6631.326	-693.1487	1	6667.454	-5.967253	-6.22032E-008	0.0030575	7
	18	7	15890.62	6680.63	-700.2307	1	6717.228	-5.983613	1.390334E-007	0.0028177	7
	19	7	12609.37	6733.977	-722.8137	1	6772.658	-6.126575	-7.020882E-008	0.0033132	7
	20	8	10078.13	6781.594	-764.0709	1	6824.502	-6.428311	-4.923566E-008	0.0031973	7
	21	8	8015.625	6843.097	-838.0157	1	6894.219	-6.981762	-7.815837E-008	0.0031931	7
	22	8	6328.125	6900.098	-937.2903	1	6963.466	-7.735555	-5.055803E-008	0.0031984	7
	23	9	5015.625	6952.893	-1063.353	1	7033.736	-8.695255	7.264392E-008	0.0029651	7
	24	9	3984.375	7012.169	-1229.987	1	7119.227	-9.9489	7.541446E-008	0.0028098	7
	25	9	3170.956	7086.456	-1431.306	1	7229.557	-11.41884	7.58356E-008	0.0028015	7
	26	10	2527.573	7164.951	-1691.649	1	7361.942	-13.2843	-7.179889E-008	0.0030697	7
	27	10	1976.103	7254.405	-2037.913	1	7535.216	-15.69116	1.504545E-008	0.0032011	7
	28	10	1577.524	7347.045	-2431.637	1	7738.988	-18.31289	1.298745E-007	0.0027775	7
	29	11	1265.625	7471.542	-2901.807	1	8015.262	-21.22524	1.296998E-007	0.0027753	7
	30	11	998.264	7615.708	-3528.299	1	8393.325	-24.85793	7.655867E-008	0.0027966	7
	31	11	796.875	7781.97	-4258.998	1	8871.195	-28.69147	-1.013962E-007	0.0031866	7
	32	12	627.7902	7973.833	-5198.507	1	9518.74	-33.10218	1.725215E-008	0.0031961	7
	33	12	505.5147	8202.362	-6246.952	1	10310.34	-37.29304	-1.502441E-008	0.0032012	6
	34	12	397.9953	8479.754	-7672.801	1	11435.83	-42.13998	5.134718E-010	0.003052	6
	35	13	315.5048	8808.625	-9385.792	1	12871.87	-46.81694	1.016701E-009	0.0030544	6
	36	13	252.4038	9188.494	-11409.57	1	14649.46	-51.15438	7.189228E-010	0.0030516	6
	37	13	198.6229	9687.71	-14091.83	1	17100.63	-55.49266	7.960847E-010	0.0030535	6
	38	13	158.3615	10279.25	-17223.24	1	20057.49	-59.17022	9.14093E-010	0.0030416	6
	39	14	125.558	11049.06	-21180.13	1	23888.91	-62.45026	6.423145E-010	0.0030493	6
	40	14	100.4464	11981.47	-25852.62	1	28494.09	-65.1345	1.139937E-010	0.0030425	6
	41	14	79.00281	13305	-31979.45	1	34636.81	-67.41032	5.888416E-010	0.0030406	6
	42	15	63.3446	15170.98	-39247.34	1	42077.46	-68.8661	6.891668E-010	0.0030398	6
	43	15	49.86702	17430.95	-48427.18	1	51468.72	-70.20409	1.136185E-009	0.0030382	6
	44	16	39.72458	20350.91	-58804.43	1	62226.36	-70.9104	7.648562E-010	0.0030398	6
	45	16	31.6723	24454.85	-71682.02	1	75738.7	-71.16254	1.6113E-009	0.0030357	6
	46	16	24.93351	29921.55	-87739.15	1	92700.9	-71.16917	4.317287E-010	0.0030352	6
	47	17	19.86229	37116.34	-105837.2	1	112156.8	-70.67461	-3.592873E-010	0.0030294	5
	48	17	15.83615	46745.49	-127422.2	1	135726	-69.85417	3.063988E-010	0.0030338	5
	49	17	12.40079	59994.75	-154433.8	1	165677.9	-68.76975	7.862727E-010	0.0030373	5
	50	18	9.93114	74694.87	-182262.5	1	196974.5	-67.71519	-3.219648E-010	0.0030294	5
	51	18	7.944915	94028.38	-213378.2	1	233177.1	-66.21857	-3.145844E-010	0.0030424	5
	52	19	6.317385	118094	-249728.1	1	276243.2	-64.69099	-2.544629E-010	0.003053	5
	53	19	5.008013	146881.6	-290958.7	1	325931.2	-63.21447	1.060425E-010	0.0030429	5
	54	21	3.945707	180841.4	-338208.8	1	383521.5	-61.86643	3.388473E-011	0.0030317	5
	55	22	3.158693	218347.8	-386973.3	1	444324.3	-60.56635	3.257891E-010	0.0030394	5
	56	24	2.504006	259502.4	-444926	1	515073.4	-59.74719	5.482654E-010	0.0030438	5
	57	25	1.998082	308447.8	-506612.7	1	593124.3	-58.66513	2.387971E-010	0.0029879	5
	58	26	1.584686	361299.8	-579262.9	1	682702.8	-58.04725	3.5101E-010	0.0030304	5
	59	28	1.266892	422578.2	-661105.1	1	784622.4	-57.4133	3.336135E-010	0.0030633	5
	60	31	0.999041	494481.5	-763757.1	1	909855.4	-57.07965	3.565164E-010	0.003074	5
