EXPLAIN
TAG	EISPOT
TITLE	LABEL	Potentiostatic EIS	Test &Identifier
DATE	LABEL	6/19/2020	Date
TIME	LABEL	16:40:05	Time
NOTES	NOTES	1	&Notes...
	
PSTAT	PSTAT	REF600-10037	Potentiostat
VDC	POTEN	0.00000E+000	T	DC &Voltage (V)
FREQINIT	QUANT	1.00000E+006	Initial Fre&q. (Hz)
FREQFINAL	QUANT	1.00000E+000	Final Fre&q. (Hz)
PTSPERDEC	QUANT	1.00000E+001	Points/&decade
VAC	QUANT	1.00000E+002	AC &Voltage (mV rms)
AREA	QUANT	2.50000E-001	&Area (cm^2)
CONDIT	TWOPARAM	F	5.00000E+000	0.00000E+000	Conditionin&g	Time(s)	E(V)
DELAY	TWOPARAM	F	5.00000E+000	0.00000E+000	Init. De&lay	Time(s)	Stab.(mV/s)
SPEED	SELECTOR	0	&Optimize for:
ZGUESS	QUANT	1.00000E+003	E&stimated Z (ohms)
OCVCURVE	TABLE	39
	Pt	T	Vf	Vm	Ach	Over
	#	s	V vs. Ref.	V	V	bits
	0	0.258333	-1.21425E-001	-1.21425E-001	5.27221E-004	...........
	1	0.516667	-1.21425E-001	-1.21406E-001	5.29421E-004	...........
	2	0.775	-1.21422E-001	-1.21382E-001	5.30521E-004	...........
	3	1.03333	-1.21415E-001	-1.21372E-001	5.31221E-004	...........
	4	1.29167	-1.21404E-001	-1.21355E-001	5.30521E-004	...........
	5	1.55	-1.21389E-001	-1.21351E-001	5.27254E-004	...........
	6	1.80833	-1.21374E-001	-1.21335E-001	5.32287E-004	...........
	7	2.06667	-1.21360E-001	-1.21309E-001	5.31287E-004	...........
	8	2.325	-1.21347E-001	-1.21298E-001	5.31054E-004	...........
	9	2.58333	-1.21332E-001	-1.21286E-001	5.33287E-004	...........
	10	2.84167	-1.21316E-001	-1.21278E-001	5.32787E-004	...........
	11	3.1	-1.21302E-001	-1.21268E-001	5.32787E-004	...........
	12	3.35833	-1.21289E-001	-1.21256E-001	5.29321E-004	...........
	13	3.61667	-1.21278E-001	-1.21230E-001	5.32587E-004	...........
	14	3.875	-1.21266E-001	-1.21215E-001	5.28221E-004	...........
	15	4.13333	-1.21252E-001	-1.21210E-001	5.33821E-004	...........
	16	4.39167	-1.21236E-001	-1.21196E-001	5.32154E-004	...........
	17	4.65	-1.21222E-001	-1.21189E-001	5.34721E-004	...........
	18	4.90833	-1.21209E-001	-1.21181E-001	5.28854E-004	...........
	19	5.16667	-1.21199E-001	-1.21158E-001	5.31787E-004	...........
	20	5.425	-1.21188E-001	-1.21143E-001	5.31054E-004	...........
	21	5.68333	-1.21176E-001	-1.21137E-001	5.33921E-004	...........
	22	5.94167	-1.21162E-001	-1.21126E-001	5.33687E-004	...........
	23	6.2	-1.21149E-001	-1.21113E-001	5.33021E-004	...........
	24	6.45833	-1.21137E-001	-1.21092E-001	5.32187E-004	...........
	25	6.71667	-1.21124E-001	-1.21072E-001	5.30421E-004	...........
	26	6.975	-1.21110E-001	-1.21059E-001	5.33854E-004	...........
	27	7.23333	-1.21094E-001	-1.21050E-001	5.33754E-004	...........
	28	7.49167	-1.21078E-001	-1.21039E-001	5.31254E-004	...........
	29	7.75	-1.21063E-001	-1.21033E-001	5.30821E-004	...........
	30	8.00833	-1.21052E-001	-1.21029E-001	5.27687E-004	...........
	31	8.26667	-1.21042E-001	-1.21015E-001	5.34287E-004	...........
	32	8.525	-1.21034E-001	-1.20993E-001	5.23321E-004	...........
	33	8.78333	-1.21024E-001	-1.20976E-001	5.30287E-004	...........
	34	9.04167	-1.21011E-001	-1.20966E-001	5.29287E-004	...........
	35	9.3	-1.20996E-001	-1.20958E-001	5.27387E-004	...........
	36	9.5583	-1.20982E-001	-1.20948E-001	5.35987E-004	...........
	37	9.8167	-1.20969E-001	-1.20929E-001	5.27754E-004	...........
	38	10.075	-1.20957E-001	-1.20917E-001	5.29354E-004	...........
EOC	QUANT	-0.1209573	Open Circuit (V)
PSTATMODEL	IQUANT	4	Pstat Model
PSTATSECTION	LABEL	REF600-10037	Pstat Section
PSTATSERIALNO	LABEL	10037	Pstat Serial Number
CTRLMODE	IQUANT	1	Control Mode
IESTAB	IQUANT	0	I/E Stability
CASPEED	IQUANT	1	Control Amp Speed
CONVENTION	IQUANT	1	Current Convention
ICHRANGE	IQUANT	2	Ich Range
ICHRANGEMODE	TOGGLE	F	Ich Auto Range
ICHOFFSETENABLE	TOGGLE	T	Ich Offset Enable
ICHOFFSET	QUANT	0	Ich Offset (V)
ICHFILTER	IQUANT	3	Ich Filter
VCHRANGE	IQUANT	2	Vch Range
VCHRANGEMODE	TOGGLE	F	Vch Auto Range
VCHOFFSETENABLE	TOGGLE	T	Vch Offset Enable
VCHOFFSET	QUANT	0	Vch Offset (V)
VCHFILTER	IQUANT	3	Vch Filter
ACHRANGE	IQUANT	2	Ach Range
ACHOFFSETENABLE	TOGGLE	F	Ach Offset Enable
ACHOFFSET	QUANT	0	Ach Offset (V)
ACHFILTER	IQUANT	3	Ach Filter
IERANGELOWERLIMIT	IQUANT	1	I/E Range Lower Limit
IERANGEMODE	TOGGLE	F	I/E AutoRange
IERANGE	IQUANT	8	I/E Range
POSFEEDENABLE	TOGGLE	F	Positive Feedback IR Comp
POSFEEDRESISTANCE	QUANT	0	Positive Feedback Resistance (ohm)
ACHSELECT	IQUANT	0	Ach Select
CABLEID	IQUANT	14	Cable ID
DCCALDATE	LABEL	6/8/2020	DC Calibration Date
ACCALDATE	LABEL	6/8/2020	AC Calibration Date
THERMOSELECT	IQUANT	1	Thermo Select
FRAMEWORKVERSION	QUANT	6.33	Framework Version
INSTRUMENTVERSION	LABEL	3.50	Instrument Version
ZCURVE	TABLE
	Pt	Time	Freq	Zreal	Zimag	Zsig	Zmod	Zphz	Idc	Vdc	IERange
	#	s	Hz	ohm	ohm	V	ohm	°	A	V	#
	0	2	1000078	1797.757	-2162.083	1	2811.856	-50.25671	9.047886E-008	-0.1119168	8
	1	2	794390.6	2122.424	-2413.381	1	3213.891	-48.6703	1.174521E-007	-0.1122175	8
	2	2	630984.4	2499.344	-2653.055	1	3644.917	-46.7088	1.350425E-007	-0.1124229	8
	3	3	501234.4	2917.147	-2879.356	1	4098.833	-44.62646	8.590965E-008	-0.1124688	8
	4	3	398109.4	3380.433	-3105.447	1	4590.33	-42.57225	8.988025E-008	-0.1125319	8
	5	3	316265.6	3879.936	-3317.058	1	5104.584	-40.52799	1.012516E-007	-0.112505	8
	6	4	251203.1	4425.68	-3508.203	1	5647.488	-38.40359	7.935947E-008	-0.1125075	8
	7	4	199546.9	5009.399	-3681.899	1	6216.949	-36.31582	7.811688E-008	-0.1124316	8
	8	4	158578.1	5616.245	-3814.145	1	6788.955	-34.18149	7.476602E-008	-0.1124411	8
	9	4	125953.1	6414.31	-3824.936	1	7468.166	-30.80817	1.395396E-008	-0.1124481	7
	10	5	100078.1	7039.658	-3872.408	1	8034.446	-28.81452	3.414404E-009	-0.1124557	7
	11	5	79453.13	7675.928	-3910.304	1	8614.542	-26.9954	8.078502E-010	-0.112478	7
	12	5	63140.62	8330.477	-3904.258	1	9200.004	-25.11115	1.337832E-008	-0.1125061	7
	13	6	50203.12	8900.346	-3897.626	1	9716.36	-23.6495	1.546605E-008	-0.1125073	7
	14	6	39890.62	9495.611	-3853.084	1	10247.58	-22.0861	-4.298686E-010	-0.1125221	7
	15	6	31640.63	10062.53	-3798.002	1	10755.43	-20.67851	4.561973E-010	-0.1125283	7
	16	7	25171.88	10600.37	-3749.893	1	11244.09	-19.48129	1.845477E-009	-0.1125301	7
	17	7	20015.62	11112.33	-3676.053	1	11704.58	-18.30465	1.477535E-008	-0.1125355	7
	18	7	15890.62	11620.14	-3686.913	1	12191.02	-17.60353	-2.400478E-009	-0.1125236	7
	19	8	12609.37	12100.03	-3672.687	1	12645.13	-16.88447	3.167487E-009	-0.1125263	7
	20	8	10078.13	12543.47	-3675.59	1	13070.9	-16.33207	1.608016E-008	-0.1125243	7
	21	8	8015.625	12987.45	-3707.704	1	13506.33	-15.93318	1.531131E-008	-0.1125206	7
	22	9	6328.125	13454.85	-3792.347	1	13979.09	-15.74088	1.579108E-008	-0.1125259	7
	23	9	5015.625	13883.92	-3899.977	1	14421.27	-15.68999	1.196713E-008	-0.1125273	7
	24	9	3984.375	14317.4	-4069.753	1	14884.58	-15.86792	1.213431E-008	-0.1125331	7
	25	10	3170.956	14768.34	-4317.985	1	15386.65	-16.29793	4.39261E-009	-0.1125292	7
	26	10	2527.573	15165.69	-4607.429	1	15850.13	-16.8991	7.733724E-009	-0.1125505	7
	27	10	1976.103	15686.78	-5039.162	1	16476.29	-17.8089	1.377513E-008	-0.1125215	7
	28	10	1577.524	16145.26	-5541.329	1	17069.73	-18.9431	-2.686492E-009	-0.112524	7
	29	11	1265.625	16610.53	-6143.761	1	17710.32	-20.29799	1.333443E-008	-0.112517	7
	30	11	998.264	17159.7	-6934.861	1	18508.04	-22.00544	1.510247E-008	-0.1125209	7
	31	11	796.875	17735.8	-7857.117	1	19398.27	-23.89377	1.089497E-008	-0.112518	7
	32	12	627.7902	18391.89	-9042.253	1	20494.49	-26.18074	1.08658E-008	-0.1125182	7
	33	12	505.5147	19043.19	-10334.6	1	21666.73	-28.48836	-4.447755E-009	-0.112539	7
	34	12	397.9953	19824.31	-12034.13	1	23191.02	-31.25939	5.259356E-009	-0.1125065	7
	35	13	315.5048	20803.02	-14092.17	1	25126.77	-34.11409	7.75815E-009	-0.1125223	7
	36	13	252.4038	21641.41	-16424.4	1	27168.21	-37.1961	4.77212E-009	-0.1125094	7
	37	13	198.6229	22810.68	-19487.84	1	30001.71	-40.50824	4.742239E-009	-0.1125105	7
	38	14	158.3615	24137.97	-22992.25	1	33335.95	-43.60743	5.143854E-009	-0.1125081	7
	39	14	125.558	25789.99	-27314.77	1	37566.21	-46.64467	5.424626E-009	-0.1125086	7
	40	14	100.4464	27791.56	-32281.54	1	42596.58	-49.27444	-2.162497E-009	-0.1125142	6
	41	15	79.00281	30481.91	-38688.41	1	49253.83	-51.76605	-1.075802E-009	-0.1125166	6
	42	15	63.3446	33635.01	-45680.61	1	56727.7	-53.63548	-6.433434E-010	-0.1125129	6
	43	15	49.86702	37980.09	-54612.85	1	66521.05	-55.18361	-2.062023E-009	-0.112514	6
	44	16	39.72458	43107.2	-64349.89	1	77454.11	-56.18236	-4.305779E-010	-0.1125266	6
	45	16	31.6723	49639.42	-76064.16	1	90828.57	-56.87156	1.645551E-010	-0.1125152	6
	46	16	24.93351	58262.79	-90062.16	1	107264.8	-57.10046	-2.264752E-009	-0.1125129	6
	47	17	19.86229	68634.23	-105366.9	1	125749.1	-56.92045	-1.173236E-008	-0.1210908	6
	48	17	15.83615	81046.81	-122281.7	1	146701.7	-56.46407	-8.554622E-009	-0.1210954	6
	49	17	12.40079	97107.7	-142499.4	1	172441.2	-55.72712	-6.895558E-009	-0.1210905	6
	50	18	9.93114	114608.9	-162562	1	198901	-54.81554	-5.656213E-009	-0.1210868	6
	51	18	7.944915	135093.5	-184293.9	1	228504.9	-53.75737	-4.784784E-009	-0.1210812	6
	52	19	6.317385	159114	-207928.3	1	261823.3	-52.57552	-3.018554E-009	-0.1210864	6
	53	19	5.008013	186649.5	-233772.7	1	299145	-51.39533	-2.137114E-009	-0.1210895	6
	54	21	3.945707	217935.2	-262101.4	1	340870.8	-50.25675	-1.496327E-009	-0.1210892	6
	55	22	3.158693	249702.6	-290713.4	1	383230.6	-49.33972	-1.14784E-009	-0.1210852	6
	56	23	2.504006	285782.9	-322981.2	1	431264.1	-48.49669	-1.439388E-009	-0.1210806	5
	57	25	1.998082	322169.6	-358240.5	1	481798.2	-48.03461	-1.248109E-009	-0.121081	5
	58	27	1.584686	362143.1	-400087.2	1	539645.6	-47.84986	-8.976563E-010	-0.1210843	5
	59	29	1.266892	403058.3	-446952.5	1	601849.3	-47.9561	-7.083788E-010	-0.1210886	5
	60	33	0.999041	449601.5	-505889.2	1	676805.3	-48.37139	-7.692922E-010	-0.1210895	5
