EXPLAIN
TAG	EISPOT
TITLE	LABEL	Potentiostatic EIS	Test &Identifier
DATE	LABEL	6/1/2020	Date
TIME	LABEL	13:41:57	Time
NOTES	NOTES	1	&Notes...
	
PSTAT	PSTAT	REF600-11020	Potentiostat
VDC	POTEN	0.00000E+000	T	DC &Voltage (V)
FREQINIT	QUANT	1.00000E+006	Initial Fre&q. (Hz)
FREQFINAL	QUANT	1.00000E+000	Final Fre&q. (Hz)
PTSPERDEC	QUANT	1.00000E+001	Points/&decade
VAC	QUANT	2.50000E+001	AC &Voltage (mV rms)
AREA	QUANT	4.00000E-004	&Area (cm^2)
CONDIT	TWOPARAM	F	5.00000E+000	0.00000E+000	Conditionin&g	Time(s)	E(V)
DELAY	TWOPARAM	T	3.00000E+000	0.00000E+000	Init. De&lay	Time(s)	Stab.(mV/s)
SPEED	SELECTOR	0	&Optimize for:
ZGUESS	QUANT	1.00000E+003	E&stimated Z (ohms)
OCVCURVE	TABLE	12
	Pt	T	Vf	Vm	Ach	Over
	#	s	V vs. Ref.	V	V	bits
	0	0.258333	-9.64054E-002	-9.64054E-002	5.73797E-004	...........
	1	0.516667	-9.64053E-002	-9.63963E-002	5.67397E-004	...........
	2	0.775	-9.64041E-002	-9.63831E-002	5.71697E-004	...........
	3	1.03333	-9.64007E-002	-9.63815E-002	5.67164E-004	...........
	4	1.29167	-9.63953E-002	-9.63928E-002	5.68163E-004	...........
	5	1.55	-9.63904E-002	-9.63961E-002	5.71997E-004	...........
	6	1.80833	-9.63888E-002	-9.63970E-002	5.70697E-004	...........
	7	2.06667	-9.63905E-002	-9.64013E-002	5.68263E-004	...........
	8	2.325	-9.63939E-002	-9.64100E-002	5.71397E-004	...........
	9	2.58333	-9.63982E-002	-9.64219E-002	5.72363E-004	...........
	10	2.84167	-9.64036E-002	-9.64169E-002	5.68263E-004	...........
	11	3.1	-9.64092E-002	-9.64029E-002	5.72897E-004	...........
EOC	QUANT	-0.0964092	Open Circuit (V)
PSTATMODEL	IQUANT	4	Pstat Model
PSTATSECTION	LABEL	REF600-11020	Pstat Section
PSTATSERIALNO	LABEL	11020	Pstat Serial Number
CTRLMODE	IQUANT	1	Control Mode
IESTAB	IQUANT	0	I/E Stability
CASPEED	IQUANT	1	Control Amp Speed
CONVENTION	IQUANT	1	Current Convention
ICHRANGE	IQUANT	2	Ich Range
ICHRANGEMODE	TOGGLE	F	Ich Auto Range
ICHOFFSETENABLE	TOGGLE	T	Ich Offset Enable
ICHOFFSET	QUANT	0	Ich Offset (V)
ICHFILTER	IQUANT	3	Ich Filter
VCHRANGE	IQUANT	2	Vch Range
VCHRANGEMODE	TOGGLE	F	Vch Auto Range
VCHOFFSETENABLE	TOGGLE	T	Vch Offset Enable
VCHOFFSET	QUANT	0	Vch Offset (V)
VCHFILTER	IQUANT	3	Vch Filter
ACHRANGE	IQUANT	2	Ach Range
ACHOFFSETENABLE	TOGGLE	F	Ach Offset Enable
ACHOFFSET	QUANT	0	Ach Offset (V)
ACHFILTER	IQUANT	3	Ach Filter
IERANGELOWERLIMIT	IQUANT	1	I/E Range Lower Limit
IERANGEMODE	TOGGLE	F	I/E AutoRange
IERANGE	IQUANT	8	I/E Range
POSFEEDENABLE	TOGGLE	F	Positive Feedback IR Comp
POSFEEDRESISTANCE	QUANT	0	Positive Feedback Resistance (ohm)
ACHSELECT	IQUANT	0	Ach Select
CABLEID	IQUANT	14	Cable ID
DCCALDATE	LABEL	2/27/2020	DC Calibration Date
ACCALDATE	LABEL	2/27/2020	AC Calibration Date
THERMOSELECT	IQUANT	1	Thermo Select
FRAMEWORKVERSION	QUANT	6.33	Framework Version
INSTRUMENTVERSION	LABEL	3.50	Instrument Version
ZCURVE	TABLE
	Pt	Time	Freq	Zreal	Zimag	Zsig	Zmod	Zphz	Idc	Vdc	IERange
	#	s	Hz	ohm	ohm	V	ohm	°	A	V	#
	0	1	1000078	1802.72	-1731.555	1	2499.616	-43.84647	6.162001E-008	-0.0941412	8
	1	2	794390.6	2082.832	-1840.838	1	2779.726	-41.47073	7.991259E-009	-0.0944555	8
	2	2	630984.4	2368.917	-1939.364	1	3061.519	-39.3062	5.118943E-008	-0.0946221	8
	3	2	501234.4	2657.408	-2035.281	1	3347.266	-37.44813	4.054396E-008	-0.0947216	8
	4	3	398109.4	2947.335	-2132.558	1	3637.938	-35.8878	2.231993E-008	-0.094779	8
	5	3	316265.6	3245.199	-2238.417	1	3942.312	-34.59646	3.310092E-008	-0.0948068	8
	6	3	251203.1	3544.638	-2364.788	1	4261.066	-33.70905	2.179762E-008	-0.0948164	8
	7	4	199546.9	3856.675	-2506.716	1	4599.736	-33.02259	5.130353E-008	-0.0947912	8
	8	4	158578.1	4197.044	-2665.884	1	4972.134	-32.42295	4.285893E-008	-0.094802	8
	9	4	125953.1	4603.529	-2806.383	1	5391.5	-31.36713	-4.227594E-010	-0.094869	7
	10	5	100078.1	4964.774	-3013.878	1	5807.963	-31.25994	2.788988E-009	-0.0948726	7
	11	5	79453.13	5374.115	-3257.072	1	6284.077	-31.21866	1.38412E-009	-0.0948879	7
	12	5	63140.62	5815.463	-3523.565	1	6799.641	-31.2115	2.286501E-009	-0.0948876	7
	13	5	50203.12	6299.661	-3809.323	1	7361.838	-31.16081	2.629392E-009	-0.094892	7
	14	6	39890.62	6828.489	-4117.174	1	7973.668	-31.08749	3.663912E-009	-0.0948957	7
	15	6	31640.63	7402.755	-4440.727	1	8632.545	-30.95849	2.94832E-009	-0.0948986	7
	16	6	25171.88	8016.606	-4788.579	1	9337.904	-30.85124	3.299625E-009	-0.0948998	7
	17	7	20015.62	8665.445	-5149.908	1	10080.25	-30.72318	2.916304E-009	-0.0949012	7
	18	7	15890.62	9365.189	-5555.051	1	10888.77	-30.6747	4.388681E-009	-0.094898	7
	19	7	12609.37	10186.38	-5878.301	1	11760.81	-29.98815	9.594723E-010	-0.0948533	6
	20	8	10078.13	10908.31	-6354.266	1	12624.1	-30.22149	9.794782E-010	-0.0948485	6
	21	8	8015.625	11685.04	-6908.774	1	13574.66	-30.59367	9.028991E-010	-0.0948479	6
	22	8	6328.125	12530.41	-7571.499	1	14640.31	-31.14246	9.563431E-010	-0.0948502	6
	23	9	5015.625	13417.67	-8337.038	1	15796.83	-31.85466	7.31155E-010	-0.0948504	6
	24	9	3984.375	14368.12	-9225.584	1	17074.96	-32.70399	7.641278E-010	-0.0948553	6
	25	9	3170.956	15405.49	-10255.94	1	18507.12	-33.653	1.069002E-009	-0.094853	6
	26	10	2527.573	16550.68	-11435.98	1	20117.32	-34.64322	5.244066E-010	-0.0948551	6
	27	10	1976.103	17928.06	-12892.23	1	22082.23	-35.72025	3.371827E-010	-0.0948574	6
	28	10	1577.524	19304.14	-14402.47	1	24084.87	-36.72597	5.695517E-010	-0.0948586	6
	29	11	1265.625	20742.46	-16078.61	1	26244.45	-37.78121	7.770616E-010	-0.0948573	6
	30	11	998.264	22343.69	-18135.06	1	28777.09	-39.06421	7.937416E-010	-0.0948627	6
	31	11	796.875	23859.77	-20460.7	1	31431.34	-40.61439	5.470257E-010	-0.0948678	6
	32	12	627.7902	25469.8	-23468.99	1	34633.86	-42.65883	8.555542E-010	-0.0948561	6
	33	12	505.5147	26904.05	-26835.82	1	37999.86	-44.92726	6.829826E-010	-0.0948593	6
	34	12	397.9953	28522.23	-31529.35	1	42516.09	-47.86673	6.672438E-010	-0.0948391	6
	35	12	315.5048	30151.19	-37284.86	1	47950.55	-51.03854	6.782652E-010	-0.0948417	6
	36	13	252.4038	31840.74	-44250.16	1	54515.22	-54.26265	6.538342E-010	-0.0948427	6
	37	13	198.6229	33893.37	-53629.01	1	63441.56	-57.70723	6.034379E-010	-0.0948423	6
	38	13	158.3615	36163.11	-64735.33	1	74151.42	-60.81096	6.383276E-010	-0.094842	6
	39	14	125.558	39004.91	-78878.62	1	87995.56	-63.68793	6.135247E-010	-0.0948507	6
	40	14	100.4464	42528.06	-95583.2	1	104617.3	-66.01418	2.40151E-010	-0.0948429	5
	41	14	79.00281	47214.73	-117978.5	1	127075.4	-68.18882	2.111521E-010	-0.0948471	5
	42	15	63.3446	52748.18	-143445.1	1	152836.1	-69.81033	1.977728E-010	-0.0948482	5
	43	15	49.86702	60617.32	-177389.3	1	187460.5	-71.13372	2.090002E-010	-0.0948506	5
	44	16	39.72458	70877.29	-216922.7	1	228208.4	-71.90572	2.040973E-010	-0.0948444	5
	45	16	31.6723	84364.8	-265116.8	1	278216.3	-72.34801	1.813034E-010	-0.0948482	5
	46	16	24.93351	104154	-327200.1	1	343377.3	-72.34274	2.800886E-010	-0.0948548	5
	47	17	19.86229	130083.5	-398391.5	1	419091.3	-71.91702	4.183441E-010	-0.0948439	5
	48	17	15.83615	165591.3	-482904.7	1	510507	-71.07281	1.769284E-010	-0.094848	5
	49	17	12.40079	219978.1	-590126.1	1	629793	-69.55633	2.38233E-010	-0.0948447	5
	50	17	9.93114	287840.3	-702335.2	1	759030.2	-67.71455	1.769908E-010	-0.094845	5
	51	18	7.944915	374495.2	-830996.7	1	911483.5	-65.74091	1.180833E-010	-0.0948456	5
	52	18	6.317385	497754.5	-971234	1	1091355	-62.86501	2.434294E-010	-0.0948682	4
	53	19	5.008013	655852.6	-1114305	1	1292988	-59.51997	2.258748E-010	-0.0948606	4
	54	20	3.945707	852588	-1266486	1	1526726	-56.05189	9.936616E-011	-0.0948561	4
	55	21	3.158693	1073827	-1375594	1	1745097	-52.02341	2.010221E-010	-0.0948657	4
	56	22	2.504006	1321971	-1482225	1	1986102	-48.27078	1.638996E-010	-0.0948602	4
	57	23	1.998082	1583777	-1559282	1	2222546	-44.55349	1.405099E-010	-0.0949083	4
	58	25	1.584686	1859769	-1629245	1	2472485	-41.21989	7.001467E-011	-0.0948975	4
	59	27	1.266892	2117055	-1660508	1	2690578	-38.10879	4.824669E-011	-0.0948639	4
	60	29	0.999041	2375331	-1678512	1	2908539	-35.24669	5.273451E-011	-0.094831	4
