EXPLAIN
TAG	EISPOT
TITLE	LABEL	Potentiostatic EIS	Test &Identifier
DATE	LABEL	6/6/2020	Date
TIME	LABEL	13:49:06	Time
NOTES	NOTES	1	&Notes...
	
PSTAT	PSTAT	REF600-11020	Potentiostat
VDC	POTEN	0.00000E+000	T	DC &Voltage (V)
FREQINIT	QUANT	1.00000E+006	Initial Fre&q. (Hz)
FREQFINAL	QUANT	1.00000E+000	Final Fre&q. (Hz)
PTSPERDEC	QUANT	1.00000E+001	Points/&decade
VAC	QUANT	2.50000E+001	AC &Voltage (mV rms)
AREA	QUANT	2.50000E-001	&Area (cm^2)
CONDIT	TWOPARAM	F	5.00000E+000	0.00000E+000	Conditionin&g	Time(s)	E(V)
DELAY	TWOPARAM	T	3.00000E+000	0.00000E+000	Init. De&lay	Time(s)	Stab.(mV/s)
SPEED	SELECTOR	0	&Optimize for:
ZGUESS	QUANT	1.00000E+003	E&stimated Z (ohms)
OCVCURVE	TABLE	12
	Pt	T	Vf	Vm	Ach	Over
	#	s	V vs. Ref.	V	V	bits
	0	0.258333	-2.45273E-002	-2.45273E-002	5.79463E-004	...........
	1	0.516667	-2.45274E-002	-2.45331E-002	5.79830E-004	...........
	2	0.775	-2.45281E-002	-2.45381E-002	5.75030E-004	...........
	3	1.03333	-2.45299E-002	-2.45403E-002	5.76263E-004	...........
	4	1.29167	-2.45329E-002	-2.45433E-002	5.84230E-004	...........
	5	1.55	-2.45364E-002	-2.45475E-002	5.81330E-004	...........
	6	1.80833	-2.45400E-002	-2.45523E-002	5.83997E-004	...........
	7	2.06667	-2.45437E-002	-2.45548E-002	5.82563E-004	...........
	8	2.325	-2.45474E-002	-2.45558E-002	5.88630E-004	...........
	9	2.58333	-2.45509E-002	-2.45602E-002	5.83163E-004	...........
	10	2.84167	-2.45540E-002	-2.45666E-002	5.87897E-004	...........
	11	3.1	-2.45573E-002	-2.45703E-002	5.83097E-004	...........
EOC	QUANT	-0.0245573	Open Circuit (V)
PSTATMODEL	IQUANT	4	Pstat Model
PSTATSECTION	LABEL	REF600-11020	Pstat Section
PSTATSERIALNO	LABEL	11020	Pstat Serial Number
CTRLMODE	IQUANT	1	Control Mode
IESTAB	IQUANT	0	I/E Stability
CASPEED	IQUANT	1	Control Amp Speed
CONVENTION	IQUANT	1	Current Convention
ICHRANGE	IQUANT	2	Ich Range
ICHRANGEMODE	TOGGLE	F	Ich Auto Range
ICHOFFSETENABLE	TOGGLE	T	Ich Offset Enable
ICHOFFSET	QUANT	0	Ich Offset (V)
ICHFILTER	IQUANT	3	Ich Filter
VCHRANGE	IQUANT	2	Vch Range
VCHRANGEMODE	TOGGLE	F	Vch Auto Range
VCHOFFSETENABLE	TOGGLE	T	Vch Offset Enable
VCHOFFSET	QUANT	0	Vch Offset (V)
VCHFILTER	IQUANT	3	Vch Filter
ACHRANGE	IQUANT	2	Ach Range
ACHOFFSETENABLE	TOGGLE	F	Ach Offset Enable
ACHOFFSET	QUANT	0	Ach Offset (V)
ACHFILTER	IQUANT	3	Ach Filter
IERANGELOWERLIMIT	IQUANT	1	I/E Range Lower Limit
IERANGEMODE	TOGGLE	F	I/E AutoRange
IERANGE	IQUANT	7	I/E Range
POSFEEDENABLE	TOGGLE	F	Positive Feedback IR Comp
POSFEEDRESISTANCE	QUANT	0	Positive Feedback Resistance (ohm)
ACHSELECT	IQUANT	0	Ach Select
CABLEID	IQUANT	14	Cable ID
DCCALDATE	LABEL	2/27/2020	DC Calibration Date
ACCALDATE	LABEL	2/27/2020	AC Calibration Date
THERMOSELECT	IQUANT	1	Thermo Select
FRAMEWORKVERSION	QUANT	6.33	Framework Version
INSTRUMENTVERSION	LABEL	3.50	Instrument Version
ZCURVE	TABLE
	Pt	Time	Freq	Zreal	Zimag	Zsig	Zmod	Zphz	Idc	Vdc	IERange
	#	s	Hz	ohm	ohm	V	ohm	°	A	V	#
	0	1	1000078	2181.078	-1410.884	1	2597.632	-32.89781	-2.151983E-008	-0.0221899	8
	1	1	794390.6	2376.416	-1444.529	1	2781.01	-31.29375	8.989564E-008	-0.0225197	8
	2	2	630984.4	2562.473	-1484.834	1	2961.587	-30.0903	5.013283E-009	-0.0226486	8
	3	2	501234.4	2735.91	-1541.54	1	3140.311	-29.39896	5.26122E-008	-0.0227721	8
	4	2	398109.4	2905.505	-1619.28	1	3326.263	-29.13155	6.181874E-008	-0.022819	8
	5	3	316265.6	3068.084	-1727.534	1	3521.01	-29.38238	3.288899E-008	-0.0228341	8
	6	3	251203.1	3230.46	-1880.559	1	3737.964	-30.20512	2.038275E-008	-0.0228498	8
	7	3	199546.9	3390.579	-2066.388	1	3970.641	-31.36022	6.125822E-008	-0.022852	8
	8	4	158578.1	3566.871	-2316.734	1	4253.213	-33.0043	5.414591E-008	-0.0228513	8
	9	4	125953.1	3820.369	-2567.344	1	4602.876	-33.90168	4.50647E-009	-0.0229063	7
	10	4	100078.1	4003.125	-2962.599	1	4980.161	-36.50409	3.604628E-009	-0.0229206	7
	11	5	79453.13	4224.489	-3460.343	1	5460.795	-39.32142	3.36715E-009	-0.0229237	7
	12	5	63140.62	4474.842	-4064.656	1	6045.299	-42.24997	3.504684E-009	-0.0229249	7
	13	5	50203.12	4762.988	-4791.548	1	6756.107	-45.17126	4.022072E-009	-0.02293	7
	14	6	39890.62	5100.078	-5682.141	1	7635.281	-48.09003	4.590438E-009	-0.0229312	7
	15	6	31640.63	5500.956	-6769.503	1	8722.769	-50.9024	4.701067E-009	-0.0229314	7
	16	6	25171.88	5976.727	-8064.45	1	10037.76	-53.45711	4.419464E-009	-0.0229374	7
	17	7	20015.62	6546.774	-9658.04	1	11667.82	-55.86832	5.643538E-009	-0.0229428	7
	18	7	15890.62	7282.133	-11581.55	1	13680.71	-57.83953	4.803431E-009	-0.0229436	7
	19	7	12609.37	8495.9	-13855.98	1	16253.26	-58.48515	1.869897E-009	-0.0228877	6
	20	7	10078.13	9621.54	-16608.39	1	19194.08	-59.9155	1.384045E-009	-0.0228934	6
	21	8	8015.625	11131.92	-20006.47	1	22894.95	-60.90775	1.389662E-009	-0.0228958	6
	22	8	6328.125	13308.71	-24121	1	27548.94	-61.11238	1.585125E-009	-0.0228937	6
	23	8	5015.625	16218.63	-28849.36	1	33095.77	-60.65602	1.389946E-009	-0.0228998	6
	24	9	3984.375	20173.55	-34113.66	1	39632.23	-59.40152	1.558406E-009	-0.0228953	6
	25	9	3170.956	25313.91	-39990.29	1	47328.82	-57.66613	2.143012E-009	-0.022894	6
	26	9	2527.573	32166.01	-45783.48	1	55953.36	-54.90935	1.727492E-009	-0.0228922	6
	27	10	1976.103	41497.02	-51733.07	1	66319.77	-51.2656	1.054285E-009	-0.0228984	6
	28	10	1577.524	51850.96	-56141.98	1	76422.8	-47.27541	1.745985E-009	-0.0228912	6
	29	10	1265.625	63189.68	-58444.01	1	86073.44	-42.76568	1.484812E-009	-0.0228981	6
	30	11	998.264	76099.05	-59515.57	1	96608.3	-38.02826	1.97132E-009	-0.0228919	6
	31	11	796.875	88595.12	-55724.03	1	104662.6	-32.16883	8.395399E-010	-0.0228912	5
	32	11	627.7902	99353.3	-52186.97	1	112225.4	-27.71146	8.564646E-010	-0.0228885	5
	33	12	505.5147	107215.2	-47703.34	1	117348.7	-23.98575	7.046889E-010	-0.0228944	5
	34	12	397.9953	114546.3	-42946.71	1	122332.6	-20.55247	7.007187E-010	-0.0228796	5
	35	12	315.5048	120503.6	-38857.12	1	126613.5	-17.87223	8.337677E-010	-0.0228755	5
	36	13	252.4038	124099.8	-35004.23	1	128942.1	-15.75191	7.929885E-010	-0.0228796	5
	37	13	198.6229	127271	-31969.66	1	131224.9	-14.10059	5.894456E-010	-0.0228817	5
	38	13	158.3615	130029.9	-30228.29	1	133497.3	-13.0872	5.979732E-010	-0.0228853	5
	39	14	125.558	131897.1	-29334.5	1	135119.8	-12.53876	4.07912E-010	-0.0228771	5
	40	14	100.4464	134134.4	-29637.35	1	137369.6	-12.45947	5.471899E-010	-0.0228783	5
	41	14	79.00281	135563.3	-31011.74	1	139065.2	-12.88538	6.570525E-010	-0.0228777	5
	42	15	63.3446	136672.3	-33374.21	1	140688.1	-13.72259	6.671659E-010	-0.0228807	5
	43	15	49.86702	139993.8	-37372.29	1	144896.3	-14.94693	4.753007E-010	-0.0228871	5
	44	15	39.72458	142051	-42409.63	1	148246.7	-16.6231	2.019687E-010	-0.0228826	5
	45	16	31.6723	145050.4	-48891.14	1	153068.5	-18.62706	3.698822E-010	-0.0228831	5
	46	16	24.93351	150089	-57202	1	160620	-20.86287	-6.143823E-010	-0.0228837	5
	47	16	19.86229	155762.8	-66832.21	1	169495.1	-23.22244	-1.566105E-009	-0.0228901	5
	48	17	15.83615	162151	-77914.03	1	179898.7	-25.66442	-3.752792E-010	-0.0228828	5
	49	17	12.40079	172995.8	-91692.6	1	195793.5	-27.92484	-2.153575E-009	-0.0228758	5
	50	17	9.93114	182438	-106225.2	1	211110	-30.21025	-2.044326E-009	-0.0228772	5
	51	18	7.944915	192952.3	-121612.5	1	228079.3	-32.2221	7.454494E-010	-0.0228736	5
	52	18	6.317385	208637.9	-139563.5	1	251013.5	-33.77962	-3.405563E-010	-0.0228789	5
	53	19	5.008013	226573.4	-159730.8	1	277217.3	-35.18325	-9.237812E-010	-0.0228878	5
	54	20	3.945707	247541.2	-181214.4	1	306782.1	-36.20628	-3.484318E-010	-0.022886	5
	55	21	3.158693	268763	-203243.7	1	336959.3	-37.09727	-4.805847E-010	-0.0228998	5
	56	22	2.504006	294123.9	-227516.8	1	371850.5	-37.72341	2.990141E-010	-0.0228973	5
	57	23	1.998082	320080.7	-254654.9	1	409024.2	-38.50562	1.981287E-010	-0.0228965	5
	58	24	1.584686	347691.6	-285291.9	1	449756.5	-39.36996	-1.244423E-010	-0.022942	5
	59	26	1.266892	376158.6	-321215.5	1	494646	-40.49522	-1.465845E-010	-0.0229366	5
	60	29	0.999041	407838.8	-366599.7	1	548386.6	-41.95185	-1.249693E-010	-0.0229145	5
