EXPLAIN
TAG	EISPOT
TITLE	LABEL	Potentiostatic EIS	Test &Identifier
DATE	LABEL	1/28/2020	Date
TIME	LABEL	11:22:11	Time
NOTES	NOTES	6	&Notes...
	
	
	
	
	
	
PSTAT	PSTAT	REF600-11020	Potentiostat
VDC	POTEN	0.00000E+000	T	DC &Voltage (V)
FREQINIT	QUANT	1.00000E+006	Initial Fre&q. (Hz)
FREQFINAL	QUANT	1.00000E+000	Final Fre&q. (Hz)
PTSPERDEC	QUANT	1.00000E+001	Points/&decade
VAC	QUANT	2.50000E+001	AC &Voltage (mV rms)
AREA	QUANT	1.60000E-004	&Area (cm^2)
CONDIT	TWOPARAM	F	5.00000E+000	0.00000E+000	Conditionin&g	Time(s)	E(V)
DELAY	TWOPARAM	F	5.00000E+000	0.00000E+000	Init. De&lay	Time(s)	Stab.(mV/s)
SPEED	SELECTOR	0	&Optimize for:
ZGUESS	QUANT	1.00000E+003	E&stimated Z (ohms)
OCVCURVE	TABLE	39
	Pt	T	Vf	Vm	Ach	Over
	#	s	V vs. Ref.	V	V	bits
	0	0.258333	6.44189E-002	6.44189E-002	5.54205E-004	...........
	1	0.516667	6.44215E-002	6.45566E-002	5.51171E-004	...........
	2	0.775	6.44394E-002	6.47815E-002	5.52438E-004	...........
	3	1.03333	6.44895E-002	6.46418E-002	5.51838E-004	...........
	4	1.29167	6.45656E-002	6.47531E-002	5.57271E-004	...........
	5	1.55	6.46425E-002	6.49279E-002	5.56471E-004	...........
	6	1.80833	6.47180E-002	6.52095E-002	5.50771E-004	...........
	7	2.06667	6.48173E-002	6.51978E-002	5.51171E-004	...........
	8	2.325	6.49450E-002	6.51832E-002	5.53171E-004	...........
	9	2.58333	6.50721E-002	6.54788E-002	5.58771E-004	...........
	10	2.84167	6.51872E-002	6.57710E-002	5.54938E-004	...........
	11	3.1	6.53118E-002	6.55149E-002	5.52571E-004	...........
	12	3.35833	6.54374E-002	6.53204E-002	5.61038E-004	...........
	13	3.61667	6.55141E-002	6.56843E-002	5.52838E-004	...........
	14	3.875	6.55337E-002	6.56362E-002	5.52938E-004	...........
	15	4.13333	6.55460E-002	6.57056E-002	5.49005E-004	...........
	16	4.39167	6.55827E-002	6.57086E-002	5.54371E-004	...........
	17	4.65	6.56325E-002	6.57551E-002	5.49338E-004	...........
	18	4.90833	6.56774E-002	6.57203E-002	5.54005E-004	...........
	19	5.16667	6.57127E-002	6.59289E-002	5.58571E-004	...........
	20	5.425	6.57479E-002	6.58668E-002	5.57471E-004	...........
	21	5.68333	6.57895E-002	6.57826E-002	5.51805E-004	...........
	22	5.94167	6.58237E-002	6.58176E-002	5.47371E-004	...........
	23	6.2	6.58349E-002	6.58077E-002	5.51471E-004	...........
	24	6.45833	6.58277E-002	6.57880E-002	5.52771E-004	...........
	25	6.71667	6.58167E-002	6.58519E-002	5.46138E-004	...........
	26	6.975	6.58123E-002	6.58701E-002	5.51538E-004	...........
	27	7.23333	6.58214E-002	6.59562E-002	5.53305E-004	...........
	28	7.49167	6.58471E-002	6.59826E-002	5.48105E-004	...........
	29	7.75	6.58896E-002	6.61884E-002	5.48138E-004	...........
	30	8.00833	6.59513E-002	6.62072E-002	5.49105E-004	...........
	31	8.26667	6.60305E-002	6.62280E-002	5.53338E-004	...........
	32	8.525	6.61110E-002	6.62009E-002	5.51405E-004	...........
	33	8.78333	6.61705E-002	6.61719E-002	5.56171E-004	...........
	34	9.04167	6.61980E-002	6.61665E-002	5.52338E-004	...........
	35	9.3	6.61949E-002	6.59502E-002	5.49571E-004	...........
	36	9.5583	6.61633E-002	6.60129E-002	5.51738E-004	...........
	37	9.8167	6.61127E-002	6.61373E-002	5.47638E-004	...........
	38	10.075	6.60722E-002	6.61600E-002	5.53071E-004	...........
EOC	QUANT	0.0660722	Open Circuit (V)
PSTATMODEL	IQUANT	4	Pstat Model
PSTATSECTION	LABEL	REF600-11020	Pstat Section
PSTATSERIALNO	LABEL	11020	Pstat Serial Number
CTRLMODE	IQUANT	1	Control Mode
IESTAB	IQUANT	0	I/E Stability
CASPEED	IQUANT	1	Control Amp Speed
CONVENTION	IQUANT	1	Current Convention
ICHRANGE	IQUANT	2	Ich Range
ICHRANGEMODE	TOGGLE	F	Ich Auto Range
ICHOFFSETENABLE	TOGGLE	T	Ich Offset Enable
ICHOFFSET	QUANT	0	Ich Offset (V)
ICHFILTER	IQUANT	3	Ich Filter
VCHRANGE	IQUANT	2	Vch Range
VCHRANGEMODE	TOGGLE	F	Vch Auto Range
VCHOFFSETENABLE	TOGGLE	T	Vch Offset Enable
VCHOFFSET	QUANT	0	Vch Offset (V)
VCHFILTER	IQUANT	3	Vch Filter
ACHRANGE	IQUANT	2	Ach Range
ACHOFFSETENABLE	TOGGLE	F	Ach Offset Enable
ACHOFFSET	QUANT	0	Ach Offset (V)
ACHFILTER	IQUANT	3	Ach Filter
IERANGELOWERLIMIT	IQUANT	1	I/E Range Lower Limit
IERANGEMODE	TOGGLE	F	I/E AutoRange
IERANGE	IQUANT	8	I/E Range
POSFEEDENABLE	TOGGLE	F	Positive Feedback IR Comp
POSFEEDRESISTANCE	QUANT	0	Positive Feedback Resistance (ohm)
ACHSELECT	IQUANT	0	Ach Select
CABLEID	IQUANT	14	Cable ID
DCCALDATE	LABEL	1/27/2020	DC Calibration Date
ACCALDATE	LABEL	1/27/2020	AC Calibration Date
THERMOSELECT	IQUANT	1	Thermo Select
FRAMEWORKVERSION	QUANT	6.33	Framework Version
INSTRUMENTVERSION	LABEL	3.50	Instrument Version
ZCURVE	TABLE
	Pt	Time	Freq	Zreal	Zimag	Zsig	Zmod	Zphz	Idc	Vdc	IERange
	#	s	Hz	ohm	ohm	V	ohm	°	A	V	#
	0	1	1000078	2276.826	-1772.91	1	2885.68	-37.90704	8.167144E-006	0.0670703	8
	1	1	794390.6	2600.362	-1805.207	1	3165.541	-34.76891	2.598166E-007	0.0673023	8
	2	1	630984.4	2914.555	-1804.905	1	3428.165	-31.7688	1.242979E-006	0.0674595	8
	3	2	501234.4	3254.606	-1791.807	1	3715.243	-28.83476	-4.922448E-006	0.0687499	8
	4	2	398109.4	3568.143	-1748.967	1	3973.729	-26.11233	-2.819736E-007	0.067741	8
	5	2	316265.6	3877.28	-1684.722	1	4227.48	-23.48549	-1.296215E-006	0.0679445	8
	6	3	251203.1	4165.752	-1566.391	1	4450.514	-20.60709	1.154651E-006	0.0673244	8
	7	3	199546.9	4383.106	-1456.03	1	4618.619	-18.37604	-1.053879E-006	0.0679704	8
	8	3	158578.1	4603.74	-1325.633	1	4790.796	-16.06359	4.064213E-007	0.0674141	8
	9	4	125953.1	4829.007	-1129.175	1	4959.269	-13.1611	5.74817E-007	0.0662367	7
	10	4	100078.1	4961.745	-1027.065	1	5066.929	-11.69487	-1.98379E-008	0.0675638	7
	11	4	79453.13	5078.167	-933.4695	1	5163.249	-10.41584	1.303998E-007	0.067369	7
	12	5	63140.62	5173.164	-857.1639	1	5243.697	-9.408109	-2.082863E-008	0.067555	7
	13	5	50203.12	5258.008	-798.0696	1	5318.229	-8.630578	-4.45084E-008	0.0675951	7
	14	5	39890.62	5333.448	-757.9464	1	5387.035	-8.088252	-5.280016E-008	0.0676615	7
	15	6	31640.63	5404.35	-734.4475	1	5454.027	-7.739048	1.309374E-007	0.0673556	7
	16	6	25171.88	5473.436	-729.8573	1	5521.883	-7.595321	3.263022E-008	0.067518	7
	17	6	20015.62	5539.194	-738.8819	1	5588.257	-7.597923	-3.849666E-008	0.0675762	7
	18	6	15890.62	5610.696	-766.8267	1	5662.856	-7.782527	-1.21259E-008	0.0675915	7
	19	7	12609.37	5680.507	-809.733	1	5737.929	-8.112625	-5.57787E-008	0.0676276	7
	20	7	10078.13	5749.625	-863.0521	1	5814.038	-8.536695	-6.446321E-010	0.0674945	7
	21	7	8015.625	5837.74	-944.7488	1	5913.692	-9.192743	-1.772979E-008	0.0675373	7
	22	8	6328.125	5925.262	-1045.937	1	6016.869	-10.01082	-1.469474E-008	0.0676788	7
	23	8	5015.625	6018.051	-1171.638	1	6131.042	-11.01695	8.325189E-008	0.0673885	7
	24	8	3984.375	6112.903	-1324.708	1	6254.793	-12.22732	2.843677E-008	0.0674496	7
	25	9	3170.956	6217.218	-1510.755	1	6398.139	-13.6579	-2.891122E-008	0.0676518	7
	26	9	2527.573	6327.811	-1736.411	1	6561.73	-15.34479	3.398689E-008	0.067514	7
	27	9	1976.103	6456.507	-2043.146	1	6772.07	-17.55985	-6.837742E-009	0.0675801	7
	28	10	1577.524	6578.371	-2384.414	1	6997.17	-19.92369	-5.574737E-008	0.0676196	7
	29	10	1265.625	6717.691	-2796.587	1	7276.557	-22.60205	-3.520425E-008	0.067582	7
	30	10	998.264	6880.575	-3348.314	1	7652.027	-25.94908	-1.969378E-008	0.0675215	7
	31	11	796.875	7064.181	-3992.819	1	8114.509	-29.47602	1.579982E-009	0.0675624	7
	32	11	627.7902	7284.23	-4824.477	1	8737.023	-33.51722	4.668245E-008	0.0673945	7
	33	11	505.5147	7526.818	-5762.896	1	9479.66	-37.43941	-1.416998E-008	0.067669	7
	34	12	397.9953	7849.384	-7014.807	1	10527.12	-41.7864	1.536927E-009	0.0675437	6
	35	12	315.5048	8230.147	-8513.715	1	11841.4	-45.97025	1.509726E-009	0.0675406	6
	36	12	252.4038	8673.319	-10261.74	1	13436.14	-49.7952	1.322676E-009	0.0675333	6
	37	13	198.6229	9259.368	-12549.43	1	15595.64	-53.57891	8.186916E-010	0.0675413	6
	38	13	158.3615	9935.67	-15184.22	1	18146.03	-56.8016	1.48185E-009	0.0675384	6
	39	13	125.558	10779.49	-18451.36	1	21369.37	-59.70605	1.236722E-009	0.0675314	6
	40	14	100.4464	11782.11	-22232.15	1	25161.21	-62.07828	4.511336E-010	0.067532	6
	41	14	79.00281	13093.59	-27278.59	1	30258.28	-64.35921	3.730724E-010	0.0675312	6
	42	14	63.3446	14332.8	-32580.27	1	35593.58	-66.25421	1.107016E-009	0.0675303	6
	43	15	49.86702	16386.01	-39935.56	1	43166.54	-67.6911	1.410961E-009	0.067528	6
	44	15	39.72458	18741.98	-48698.99	1	52180.97	-68.9506	1.257231E-009	0.0675378	6
	45	15	31.6723	21744.89	-59103.79	1	62976.96	-69.80092	1.607749E-009	0.0675303	6
	46	16	24.93351	25596.78	-72136	1	76542.78	-70.46325	5.394995E-010	0.0675303	6
	47	16	19.86229	30241.25	-87400.27	1	92484.27	-70.91393	1.440302E-009	0.0675357	6
	48	16	15.83615	37312.65	-105667.9	1	112062.2	-70.55124	-1.726968E-009	0.0675271	5
	49	17	12.40079	45113.16	-128907.9	1	136573.9	-70.71177	5.917639E-010	0.0675268	5
	50	17	9.93114	54928.24	-155091.1	1	164530.7	-70.49751	-9.175035E-011	0.0675293	5
	51	17	7.944915	67521.73	-185259.7	1	197181	-69.97469	1.266957E-010	0.0675247	5
	52	18	6.317385	84368.37	-221390.6	1	236921.5	-69.13897	1.623609E-011	0.0675296	5
	53	19	5.008013	106235.5	-264686.7	1	285210.5	-68.13129	-1.055457E-010	0.0675194	5
	54	20	3.945707	135008.6	-315623.6	1	343286.4	-66.84109	1.914783E-010	0.0675336	5
	55	21	3.158693	169006.7	-370182.7	1	406938	-65.46095	-3.784337E-011	0.0675329	5
	56	23	2.504006	212232.6	-433702.6	1	482846.3	-63.92516	-9.67579E-011	0.0675242	5
	57	24	1.998082	263731.4	-500950.1	1	566131.8	-62.23488	1.485494E-010	0.0675592	5
	58	26	1.584686	324779.3	-578387.6	1	663335.3	-60.68468	1.433107E-010	0.0675506	5
	59	28	1.266892	393629.8	-656991.1	1	765886.3	-59.07248	9.672284E-011	0.0675135	5
	60	30	0.999041	478446.1	-748852.8	1	888645.8	-57.42527	5.632355E-011	0.0674892	5
