EXPLAIN
TAG	EISPOT
TITLE	LABEL	Potentiostatic EIS	Test &Identifier
DATE	LABEL	2/18/2020	Date
TIME	LABEL	14:45:08	Time
NOTES	NOTES	1	&Notes...
	
PSTAT	PSTAT	REF600-11020	Potentiostat
VDC	POTEN	0.00000E+000	T	DC &Voltage (V)
FREQINIT	QUANT	1.00000E+006	Initial Fre&q. (Hz)
FREQFINAL	QUANT	1.00000E+000	Final Fre&q. (Hz)
PTSPERDEC	QUANT	1.00000E+001	Points/&decade
VAC	QUANT	2.50000E+001	AC &Voltage (mV rms)
AREA	QUANT	1.60000E-004	&Area (cm^2)
CONDIT	TWOPARAM	F	1.50000E+001	0.00000E+000	Conditionin&g	Time(s)	E(V)
DELAY	TWOPARAM	F	1.00000E+002	0.00000E+000	Init. De&lay	Time(s)	Stab.(mV/s)
SPEED	SELECTOR	1	&Optimize for:
ZGUESS	QUANT	1.00000E+003	E&stimated Z (ohms)
OCVCURVE	TABLE	39
	Pt	T	Vf	Vm	Ach	Over
	#	s	V vs. Ref.	V	V	bits
	0	0.258333	3.20559E-002	3.20559E-002	5.41905E-004	...........
	1	0.516667	3.20567E-002	3.20975E-002	5.46071E-004	...........
	2	0.775	3.20614E-002	3.21274E-002	5.49705E-004	...........
	3	1.03333	3.20741E-002	3.21566E-002	5.46771E-004	...........
	4	1.29167	3.20959E-002	3.21966E-002	5.49538E-004	...........
	5	1.55	3.21241E-002	3.22066E-002	5.43838E-004	...........
	6	1.80833	3.21538E-002	3.22097E-002	5.49838E-004	...........
	7	2.06667	3.21801E-002	3.22439E-002	5.52471E-004	...........
	8	2.325	3.22017E-002	3.22814E-002	5.50471E-004	...........
	9	2.58333	3.22225E-002	3.22942E-002	5.49871E-004	...........
	10	2.84167	3.22453E-002	3.23100E-002	5.47705E-004	...........
	11	3.1	3.22687E-002	3.23232E-002	5.50971E-004	...........
	12	3.35833	3.22898E-002	3.23452E-002	5.43138E-004	...........
	13	3.61667	3.23075E-002	3.23190E-002	5.45471E-004	...........
	14	3.875	3.23237E-002	3.25024E-002	5.44771E-004	...........
	15	4.13333	3.23467E-002	3.24529E-002	5.44938E-004	...........
	16	4.39167	3.23859E-002	3.26636E-002	5.45671E-004	...........
	17	4.65	3.24403E-002	3.24696E-002	5.44738E-004	...........
	18	4.90833	3.24904E-002	3.23642E-002	5.42871E-004	...........
	19	5.16667	3.25077E-002	3.24616E-002	5.42805E-004	...........
	20	5.425	3.24877E-002	3.23981E-002	5.42505E-004	...........
	21	5.68333	3.24596E-002	3.26463E-002	5.44538E-004	...........
	22	5.94167	3.24600E-002	3.27383E-002	5.47671E-004	...........
	23	6.2	3.25100E-002	3.28759E-002	5.49205E-004	...........
	24	6.45833	3.26065E-002	3.30295E-002	5.45938E-004	...........
	25	6.71667	3.27256E-002	3.28495E-002	5.41171E-004	...........
	26	6.975	3.28284E-002	3.27998E-002	5.42471E-004	...........
	27	7.23333	3.28786E-002	3.27653E-002	5.45405E-004	...........
	28	7.49167	3.28717E-002	3.28018E-002	5.50338E-004	...........
	29	7.75	3.28369E-002	3.27414E-002	5.50038E-004	...........
	30	8.00833	3.28038E-002	3.28188E-002	5.52438E-004	...........
	31	8.26667	3.27848E-002	3.27548E-002	5.46171E-004	...........
	32	8.525	3.27683E-002	3.22629E-002	5.46705E-004	...........
	33	8.78333	3.27169E-002	3.23172E-002	5.47405E-004	...........
	34	9.04167	3.26256E-002	3.32352E-002	5.43405E-004	...........
	35	9.3	3.25796E-002	3.29336E-002	5.43938E-004	...........
	36	9.5583	3.26545E-002	3.30332E-002	5.43905E-004	...........
	37	9.8167	3.27958E-002	3.26518E-002	5.46805E-004	...........
	38	10.075	3.28727E-002	3.19648E-002	5.46871E-004	...........
EOC	QUANT	0.0328727	Open Circuit (V)
PSTATMODEL	IQUANT	4	Pstat Model
PSTATSECTION	LABEL	REF600-11020	Pstat Section
PSTATSERIALNO	LABEL	11020	Pstat Serial Number
CTRLMODE	IQUANT	1	Control Mode
IESTAB	IQUANT	0	I/E Stability
CASPEED	IQUANT	1	Control Amp Speed
CONVENTION	IQUANT	1	Current Convention
ICHRANGE	IQUANT	2	Ich Range
ICHRANGEMODE	TOGGLE	F	Ich Auto Range
ICHOFFSETENABLE	TOGGLE	T	Ich Offset Enable
ICHOFFSET	QUANT	0	Ich Offset (V)
ICHFILTER	IQUANT	3	Ich Filter
VCHRANGE	IQUANT	2	Vch Range
VCHRANGEMODE	TOGGLE	F	Vch Auto Range
VCHOFFSETENABLE	TOGGLE	T	Vch Offset Enable
VCHOFFSET	QUANT	0	Vch Offset (V)
VCHFILTER	IQUANT	3	Vch Filter
ACHRANGE	IQUANT	2	Ach Range
ACHOFFSETENABLE	TOGGLE	F	Ach Offset Enable
ACHOFFSET	QUANT	0	Ach Offset (V)
ACHFILTER	IQUANT	3	Ach Filter
IERANGELOWERLIMIT	IQUANT	1	I/E Range Lower Limit
IERANGEMODE	TOGGLE	F	I/E AutoRange
IERANGE	IQUANT	7	I/E Range
POSFEEDENABLE	TOGGLE	F	Positive Feedback IR Comp
POSFEEDRESISTANCE	QUANT	0	Positive Feedback Resistance (ohm)
ACHSELECT	IQUANT	0	Ach Select
CABLEID	IQUANT	14	Cable ID
DCCALDATE	LABEL	1/27/2020	DC Calibration Date
ACCALDATE	LABEL	1/27/2020	AC Calibration Date
THERMOSELECT	IQUANT	1	Thermo Select
FRAMEWORKVERSION	QUANT	6.33	Framework Version
INSTRUMENTVERSION	LABEL	3.50	Instrument Version
ZCURVE	TABLE
	Pt	Time	Freq	Zreal	Zimag	Zsig	Zmod	Zphz	Idc	Vdc	IERange
	#	s	Hz	ohm	ohm	V	ohm	°	A	V	#
	0	2	1000078	1723.741	-2197.828	1	2793.158	-51.89316	1.034207E-006	0.035069	8
	1	3	794390.6	2019.906	-2449.81	1	3175.152	-50.4939	1.580886E-006	0.034286	8
	2	4	630984.4	2365.874	-2719.681	1	3604.722	-48.97972	-9.143657E-007	0.0345662	8
	3	6	501234.4	2731.523	-2998.32	1	4056.001	-47.66592	5.22702E-007	0.0342785	8
	4	7	398109.4	3125.126	-3313.626	1	4554.836	-46.6769	1.24508E-006	0.0340424	8
	5	8	316265.6	3570.093	-3629.737	1	5091.224	-45.47463	-5.280719E-007	0.0343625	8
	6	10	251203.1	4043.082	-4014.765	1	5697.793	-44.79866	1.288907E-006	0.0340644	8
	7	11	199546.9	4572.028	-4453.5	1	6382.562	-44.2476	3.335345E-007	0.0341909	8
	8	12	158578.1	5148.579	-4928	1	7126.925	-43.74598	-6.096394E-007	0.0345157	8
	9	14	125953.1	5839.986	-5420.896	1	7968.158	-42.86864	-4.06223E-007	0.0354488	7
	10	15	100078.1	6611.391	-5974.717	1	8911.102	-42.10414	3.28219E-008	0.034163	7
	11	17	79453.13	7479.877	-6598.962	1	9974.71	-41.41966	-1.628042E-008	0.0343315	7
	12	18	63140.62	8479.767	-7231.069	1	11144.27	-40.45568	-9.087824E-010	0.0343333	7
	13	19	50203.12	9606.6	-7858.013	1	12411.09	-39.2825	5.799921E-009	0.0342591	7
	14	21	39890.62	10857.7	-8450.488	1	13758.64	-37.89344	6.672589E-008	0.0341058	7
	15	22	31640.63	12228.71	-9013.889	1	15191.83	-36.39425	5.725288E-008	0.0341507	7
	16	23	25171.88	13648.68	-9490.576	1	16624	-34.81273	-2.799843E-008	0.0342629	7
	17	25	20015.62	15105.56	-9926.78	1	18075.37	-33.31135	-6.881488E-009	0.0342194	7
	18	26	15890.62	16615.95	-10297.99	1	19548.36	-31.78921	2.490144E-008	0.0341576	7
	19	28	12609.37	18127.91	-10646.85	1	21023.24	-30.42649	4.986261E-009	0.0342238	6
	20	29	10078.13	19544.24	-11050.7	1	22452.07	-29.48469	-8.805836E-010	0.0341666	6
	21	30	8015.625	20949.94	-11553.06	1	23924.32	-28.87499	3.247596E-009	0.0342496	6
	22	32	6328.125	22390.11	-12197.82	1	25497.14	-28.58093	5.740884E-009	0.0341101	6
	23	33	5015.625	23835.85	-13014.25	1	27157.29	-28.6343	-2.167152E-009	0.0342735	6
	24	34	3984.375	25313.96	-14051.82	1	28952.55	-29.03472	4.793577E-009	0.0342318	6
	25	36	3170.956	26909.06	-15292.91	1	30951.1	-29.61036	-2.647836E-009	0.0342729	6
	26	37	2527.573	28632.16	-16762.6	1	33178.09	-30.3467	4.492445E-009	0.0342273	6
	27	38	1976.103	30670.88	-18665.47	1	35904.07	-31.32356	4.42837E-009	0.0342288	6
	28	40	1577.524	32784.66	-20646.03	1	38743.94	-32.20053	-4.470924E-010	0.0343134	6
	29	41	1265.625	34996.27	-22861.39	1	41801.7	-33.15467	4.654963E-009	0.0342269	6
	30	42	998.264	37570.15	-25561.15	1	45441.04	-34.22972	-2.703977E-009	0.0342716	6
	31	44	796.875	40125.37	-28564.06	1	49253.94	-35.44594	3.301195E-009	0.0342444	6
	32	45	627.7902	43001.81	-32323.27	1	53795.45	-36.93117	-1.0687E-009	0.0341863	6
	33	47	505.5147	45643.46	-36487.03	1	58434.83	-38.63857	4.476345E-009	0.0342247	6
	34	48	397.9953	48841.31	-42068.64	1	64461.18	-40.73941	1.336386E-009	0.034238	6
	35	49	315.5048	52334.44	-48867.96	1	71602.87	-43.03822	1.362777E-009	0.0342356	6
	36	51	252.4038	56274.27	-56885.4	1	80017.14	-45.30943	6.921201E-010	0.034233	6
	37	52	198.6229	61480.89	-67317.72	1	91167.84	-47.59473	9.71746E-010	0.0342333	6
	38	53	158.3615	67637.09	-79018.02	1	104012.6	-49.43745	3.051383E-010	0.0342305	5
	39	55	125.558	75468.8	-93212.84	1	119934	-51.005	1.104778E-010	0.0342321	5
	40	56	100.4464	84630.84	-108626.7	1	137703.1	-52.07792	3.968612E-010	0.0342278	5
	41	57	79.00281	98101.8	-127732.7	1	161057.8	-52.47486	2.30968E-011	0.0342309	5
	42	59	63.3446	113313.9	-151740.1	1	189380.8	-53.24899	-2.639126E-010	0.0342243	5
	43	60	49.86702	127793.3	-169788.2	1	212506.8	-53.03258	-1.941353E-010	0.0342258	5
	44	62	39.72458	147769.4	-199049.5	1	247904.2	-53.41072	4.16365E-011	0.0342368	5
	45	63	31.6723	171566.6	-227801.9	1	285182.1	-53.01515	2.11345E-010	0.0342329	5
	46	65	24.93351	198858.1	-263463.3	1	330087	-52.95505	1.902647E-010	0.0342311	5
	47	66	19.86229	229960.1	-300244	1	378190.6	-52.55111	3.551064E-010	0.0342269	5
	48	67	15.83615	264794.9	-345373.2	1	435200	-52.5229	2.992453E-010	0.0342331	5
	49	69	12.40079	314459.8	-389312.3	1	500448.8	-51.0711	-3.802987E-010	0.0342368	5
	50	70	9.93114	366137.8	-449265	1	579565.3	-50.82098	5.137106E-011	0.0342393	5
	51	72	7.944915	427838.8	-503934.5	1	661056.8	-49.66885	-3.949465E-011	0.0342398	5
	52	73	6.317385	504135.2	-560701.3	1	754014.8	-48.0408	9.092818E-010	0.0342476	6
	53	76	5.008013	589532.4	-619194.9	1	854956.6	-46.40577	2.941848E-010	0.0342412	5
	54	79	3.945707	688606.7	-679188.1	1	967200	-44.60547	-1.157381E-010	0.0342233	5
	55	81	3.158693	790186.8	-733833.8	1	1078382	-42.88237	1.182016E-010	0.0341928	4
	56	85	2.504006	902673.9	-788430.4	1	1198517	-41.13523	-3.205414E-010	0.0341745	4
	57	87	1.998082	1015094	-839980.4	1	1317567	-39.60743	-2.953636E-010	0.0341654	4
	58	90	1.584686	1133038	-889486.8	1	1440473	-38.13354	-7.166489E-011	0.0342225	4
	59	94	1.266892	1248365	-949100.7	1	1568186	-37.24482	-3.003634E-010	0.0341807	4
	60	98	0.999041	1371208	-1014554	1	1705735	-36.49767	2.066629E-010	0.0341865	4
