EXPLAIN
TAG	EISPOT
TITLE	LABEL	Potentiostatic EIS	Test &Identifier
DATE	LABEL	1/21/2020	Date
TIME	LABEL	17:42:05	Time
NOTES	NOTES	6	&Notes...
	
	
	
	
	
	
PSTAT	PSTAT	REF600-11020	Potentiostat
VDC	POTEN	0.00000E+000	T	DC &Voltage (V)
FREQINIT	QUANT	1.00000E+006	Initial Fre&q. (Hz)
FREQFINAL	QUANT	1.00000E+000	Final Fre&q. (Hz)
PTSPERDEC	QUANT	1.00000E+001	Points/&decade
VAC	QUANT	2.50000E+001	AC &Voltage (mV rms)
AREA	QUANT	1.00000E-001	&Area (cm^2)
CONDIT	TWOPARAM	F	5.00000E+000	0.00000E+000	Conditionin&g	Time(s)	E(V)
DELAY	TWOPARAM	F	5.00000E+000	0.00000E+000	Init. De&lay	Time(s)	Stab.(mV/s)
SPEED	SELECTOR	0	&Optimize for:
ZGUESS	QUANT	5.00000E+002	E&stimated Z (ohms)
OCVCURVE	TABLE	39
	Pt	T	Vf	Vm	Ach	Over
	#	s	V vs. Ref.	V	V	bits
	0	0.258333	-1.33403E-002	-1.33403E-002	6.48913E-004	...........
	1	0.516667	-1.33380E-002	-1.32199E-002	6.50580E-004	...........
	2	0.775	-1.33238E-002	-1.31058E-002	6.52880E-004	...........
	3	1.03333	-1.32856E-002	-1.30833E-002	6.48513E-004	...........
	4	1.29167	-1.32264E-002	-1.31700E-002	6.47480E-004	...........
	5	1.55	-1.31729E-002	-1.32491E-002	6.49313E-004	...........
	6	1.80833	-1.31537E-002	-1.32620E-002	6.49680E-004	...........
	7	2.06667	-1.31724E-002	-1.32678E-002	6.55013E-004	...........
	8	2.325	-1.32073E-002	-1.31917E-002	6.57513E-004	...........
	9	2.58333	-1.32303E-002	-1.31155E-002	6.49913E-004	...........
	10	2.84167	-1.32232E-002	-1.30271E-002	6.49846E-004	...........
	11	3.1	-1.31729E-002	-1.24353E-002	6.52346E-004	...........
	12	3.35833	-1.30669E-002	-1.28900E-002	6.49646E-004	...........
	13	3.61667	-1.29401E-002	-1.33950E-002	6.55946E-004	...........
	14	3.875	-1.28916E-002	-1.33232E-002	6.55046E-004	...........
	15	4.13333	-1.29734E-002	-1.32416E-002	6.55913E-004	...........
	16	4.39167	-1.31334E-002	-1.41964E-002	6.56479E-004	...........
	17	4.65	-1.32861E-002	-1.17495E-002	6.58213E-004	...........
	18	4.90833	-1.33026E-002	-1.22020E-002	6.56280E-004	...........
	19	5.16667	-1.30886E-002	-1.29341E-002	6.54980E-004	...........
	20	5.425	-1.27858E-002	-1.29638E-002	6.56680E-004	...........
	21	5.68333	-1.26352E-002	-1.28060E-002	6.50680E-004	...........
	22	5.94167	-1.26739E-002	-1.29548E-002	6.54813E-004	...........
	23	6.2	-1.27759E-002	-1.27927E-002	6.53679E-004	...........
	24	6.45833	-1.28416E-002	-1.25958E-002	6.49880E-004	...........
	25	6.71667	-1.28403E-002	-1.27072E-002	6.52980E-004	...........
	26	6.975	-1.27930E-002	-1.28863E-002	6.52380E-004	...........
	27	7.23333	-1.27541E-002	-1.28359E-002	6.58179E-004	...........
	28	7.49167	-1.27558E-002	-1.27000E-002	6.56513E-004	...........
	29	7.75	-1.27816E-002	-1.30676E-002	6.49746E-004	...........
	30	8.00833	-1.28461E-002	-1.45694E-002	6.56346E-004	...........
	31	8.26667	-1.30389E-002	-1.38359E-002	6.58846E-004	...........
	32	8.525	-1.33726E-002	-1.38253E-002	6.60479E-004	...........
	33	8.78333	-1.36917E-002	-1.37946E-002	6.68813E-004	...........
	34	9.04167	-1.38531E-002	-1.36448E-002	6.62479E-004	...........
	35	9.3	-1.38644E-002	-1.37579E-002	6.59513E-004	...........
	36	9.5583	-1.38077E-002	-1.36047E-002	6.59446E-004	...........
	37	9.8167	-1.38087E-002	-1.70240E-002	6.60546E-004	...........
	38	10.075	-1.41802E-002	-2.14774E-002	6.59679E-004	...........
EOC	QUANT	-0.0141802	Open Circuit (V)
PSTATMODEL	IQUANT	4	Pstat Model
PSTATSECTION	LABEL	REF600-11020	Pstat Section
PSTATSERIALNO	LABEL	11020	Pstat Serial Number
CTRLMODE	IQUANT	1	Control Mode
IESTAB	IQUANT	0	I/E Stability
CASPEED	IQUANT	1	Control Amp Speed
CONVENTION	IQUANT	1	Current Convention
ICHRANGE	IQUANT	2	Ich Range
ICHRANGEMODE	TOGGLE	F	Ich Auto Range
ICHOFFSETENABLE	TOGGLE	T	Ich Offset Enable
ICHOFFSET	QUANT	0	Ich Offset (V)
ICHFILTER	IQUANT	3	Ich Filter
VCHRANGE	IQUANT	2	Vch Range
VCHRANGEMODE	TOGGLE	F	Vch Auto Range
VCHOFFSETENABLE	TOGGLE	T	Vch Offset Enable
VCHOFFSET	QUANT	0	Vch Offset (V)
VCHFILTER	IQUANT	3	Vch Filter
ACHRANGE	IQUANT	2	Ach Range
ACHOFFSETENABLE	TOGGLE	F	Ach Offset Enable
ACHOFFSET	QUANT	0	Ach Offset (V)
ACHFILTER	IQUANT	3	Ach Filter
IERANGELOWERLIMIT	IQUANT	1	I/E Range Lower Limit
IERANGEMODE	TOGGLE	F	I/E AutoRange
IERANGE	IQUANT	7	I/E Range
POSFEEDENABLE	TOGGLE	F	Positive Feedback IR Comp
POSFEEDRESISTANCE	QUANT	0	Positive Feedback Resistance (ohm)
ACHSELECT	IQUANT	0	Ach Select
CABLEID	IQUANT	14	Cable ID
DCCALDATE	LABEL	12/22/2019	DC Calibration Date
ACCALDATE	LABEL	12/22/2019	AC Calibration Date
THERMOSELECT	IQUANT	1	Thermo Select
FRAMEWORKVERSION	QUANT	6.33	Framework Version
INSTRUMENTVERSION	LABEL	3.50	Instrument Version
ZCURVE	TABLE
	Pt	Time	Freq	Zreal	Zimag	Zsig	Zmod	Zphz	Idc	Vdc	IERange
	#	s	Hz	ohm	ohm	V	ohm	°	A	V	#
	0	1	1000078	2091.629	-1994.373	1	2890.058	-43.63649	-4.575533E-006	-0.0109607	8
	1	1	794390.6	2518.525	-2061.672	1	3254.76	-39.30386	3.885692E-006	-0.012866	8
	2	2	630984.4	2934.806	-2061.695	1	3586.596	-35.08796	-3.637918E-008	-0.0127458	8
	3	2	501234.4	3329.614	-2007.934	1	3888.204	-31.09221	-8.610751E-007	-0.0123604	8
	4	2	398109.4	3708.397	-1894.806	1	4164.432	-27.06477	1.905007E-006	-0.013012	8
	5	2	316265.6	4025.469	-1753.433	1	4390.778	-23.5372	6.034769E-007	-0.0128463	8
	6	3	251203.1	4300.947	-1574.693	1	4580.153	-20.10905	1.744063E-006	-0.0130084	8
	7	3	199546.9	4505.283	-1425.424	1	4725.401	-17.55682	-2.618438E-006	-0.0121622	8
	8	3	158578.1	4687.525	-1253.808	1	4852.312	-14.97479	1.24016E-006	-0.0129621	8
	9	4	125953.1	4854.628	-1082.085	1	4973.764	-12.56568	-7.649803E-007	-0.0109096	7
	10	4	100078.1	4962.732	-953.746	1	5053.548	-10.87856	-6.262316E-009	-0.0126391	7
	11	4	79453.13	5055.843	-861.303	1	5128.683	-9.66798	-5.561455E-008	-0.0126018	7
	12	5	63140.62	5134.616	-786.6908	1	5194.532	-8.71073	-4.543504E-008	-0.0125942	7
	13	5	50203.12	5200.426	-733.6261	1	5251.917	-8.029752	-2.373989E-008	-0.012688	7
	14	5	39890.62	5260.967	-698.6085	1	5307.148	-7.564105	5.488334E-008	-0.0127068	7
	15	6	31640.63	5312.948	-683.4366	1	5356.725	-7.33005	-4.572413E-008	-0.0126035	7
	16	6	25171.88	5363.92	-688.9124	1	5407.979	-7.318688	-3.630567E-008	-0.012663	7
	17	6	20015.62	5415.048	-715.6698	1	5462.136	-7.528758	-2.425557E-008	-0.0126902	7
	18	7	15890.62	5467.676	-762.2924	1	5520.559	-7.936902	-6.61566E-009	-0.0126569	7
	19	7	12609.37	5522.704	-834.8578	1	5585.45	-8.596221	-2.99579E-008	-0.0126575	7
	20	7	10078.13	5580.674	-927.4832	1	5657.221	-9.436057	-8.073686E-009	-0.0126658	7
	21	8	8015.625	5646.608	-1050.353	1	5743.468	-10.53743	3.039563E-008	-0.0127276	7
	22	8	6328.125	5720.85	-1212.688	1	5847.969	-11.96822	-5.357052E-008	-0.0126206	7
	23	8	5015.625	5803.514	-1410.374	1	5972.431	-13.65927	-2.257878E-008	-0.012707	7
	24	8	3984.375	5897.283	-1653.366	1	6124.668	-15.6614	5.937181E-008	-0.0128075	7
	25	9	3170.956	6004.453	-1949.76	1	6313.083	-17.9896	-3.402812E-008	-0.0126759	7
	26	9	2527.573	6126.986	-2307.476	1	6547.091	-20.63681	3.02027E-008	-0.0127341	7
	27	9	1976.103	6285.889	-2783.667	1	6874.678	-23.88586	-6.348397E-009	-0.0126656	7
	28	10	1577.524	6452.207	-3326.194	1	7259.1	-27.27168	-8.796558E-009	-0.0126731	7
	29	10	1265.625	6651.095	-3937.206	1	7729.079	-30.62399	6.787437E-008	-0.0128202	7
	30	10	998.264	6898.865	-4751.808	1	8376.993	-34.55833	9.153476E-009	-0.0127778	7
	31	11	796.875	7178.984	-5690.259	1	9160.614	-38.40131	2.141554E-008	-0.0127281	7
	32	11	627.7902	7533.624	-6891.521	1	10210.22	-42.45129	4.0649E-009	-0.0126744	6
	33	11	505.5147	7910.652	-8208.001	1	11399.55	-46.05685	6.411433E-009	-0.012743	6
	34	12	397.9953	8402.009	-9971.8	1	13039.58	-49.88328	-1.601726E-009	-0.0126959	6
	35	12	315.5048	8970.201	-12058.66	1	15029.16	-53.35516	-2.420454E-009	-0.0126982	6
	36	12	252.4038	9616.65	-14495.92	1	17395.73	-56.43955	-2.192972E-009	-0.0127018	6
	37	13	198.6229	10450.43	-17684.81	1	20541.76	-59.42002	2.846957E-010	-0.0127031	6
	38	13	158.3615	11406.92	-21366.42	1	24220.69	-61.90353	6.102672E-010	-0.0127034	6
	39	13	125.558	12598.35	-25959.86	1	28855.38	-64.11265	5.395233E-010	-0.0127023	6
	40	14	100.4464	14013.24	-31306.31	1	34299.51	-65.88589	6.265634E-010	-0.0127057	6
	41	14	79.00281	15946.76	-38317.74	1	41503.59	-67.4043	7.094293E-010	-0.0127098	6
	42	14	63.3446	17887.35	-46356.09	1	49687.47	-68.89997	-7.957012E-010	-0.0127094	6
	43	15	49.86702	20828.22	-56551.95	1	60265.56	-69.78113	-2.209938E-009	-0.0127078	6
	44	15	39.72458	24440.41	-68355.73	1	72593.66	-70.32562	-2.991827E-010	-0.0127077	6
	45	15	31.6723	28857.88	-82607.36	1	87502.88	-70.74376	2.322389E-010	-0.012714	6
	46	16	24.93351	34536.17	-100694	1	106452	-71.06898	2.076915E-009	-0.0127158	5
	47	16	19.86229	41545.03	-121505.6	1	128411.8	-71.12348	-1.395657E-009	-0.0127078	5
	48	16	15.83615	50741.96	-146638.2	1	155169.3	-70.91258	-1.694576E-009	-0.0127083	5
	49	16	12.40079	63579.4	-180002.5	1	190901.1	-70.54607	-7.163089E-010	-0.0127104	5
	50	17	9.93114	78122.5	-214177.2	1	227980.3	-69.96024	2.615928E-010	-0.0127045	5
	51	17	7.944915	97576.5	-254793.5	1	272838.6	-69.04501	1.082547E-009	-0.0127057	5
	52	18	6.317385	124198.8	-306829.2	1	331012.9	-67.96281	-1.75704E-009	-0.012698	5
	53	19	5.008013	157116.1	-362328.5	1	394927.1	-66.55705	-2.440959E-010	-0.012716	5
	54	20	3.945707	201556.4	-426855.3	1	472049.2	-64.72384	1.101396E-009	-0.0127188	5
	55	21	3.158693	253258.7	-497033.6	1	557837.3	-62.99932	-5.946416E-010	-0.0127021	5
	56	23	2.504006	317004.4	-569483.8	1	651769.6	-60.8974	8.302414E-010	-0.0127071	5
	57	24	1.998082	391182.5	-651977.8	1	760328.1	-59.03651	2.302097E-010	-0.0127366	5
	58	25	1.584686	476727.1	-741515.8	1	881540.9	-57.26268	1.540144E-010	-0.0126914	5
	59	27	1.266892	579949.3	-825398.7	1	1008774	-54.907	2.200112E-010	-0.012632	4
	60	30	0.999041	689481.9	-947228.6	1	1171592	-53.94936	-1.01975E-010	-0.0126399	4
