EXPLAIN
TAG	EISPOT
TITLE	LABEL	Potentiostatic EIS	Test &Identifier
DATE	LABEL	1/28/2020	Date
TIME	LABEL	11:54:10	Time
NOTES	NOTES	6	&Notes...
	
	
	
	
	
	
PSTAT	PSTAT	REF600-11020	Potentiostat
VDC	POTEN	0.00000E+000	T	DC &Voltage (V)
FREQINIT	QUANT	1.00000E+006	Initial Fre&q. (Hz)
FREQFINAL	QUANT	1.00000E+000	Final Fre&q. (Hz)
PTSPERDEC	QUANT	1.00000E+001	Points/&decade
VAC	QUANT	2.50000E+001	AC &Voltage (mV rms)
AREA	QUANT	1.60000E-004	&Area (cm^2)
CONDIT	TWOPARAM	F	5.00000E+000	0.00000E+000	Conditionin&g	Time(s)	E(V)
DELAY	TWOPARAM	F	5.00000E+000	0.00000E+000	Init. De&lay	Time(s)	Stab.(mV/s)
SPEED	SELECTOR	0	&Optimize for:
ZGUESS	QUANT	1.00000E+003	E&stimated Z (ohms)
OCVCURVE	TABLE	39
	Pt	T	Vf	Vm	Ach	Over
	#	s	V vs. Ref.	V	V	bits
	0	0.258333	1.21382E-001	1.21382E-001	5.97304E-004	...........
	1	0.516667	1.21388E-001	1.21716E-001	5.89871E-004	...........
	2	0.775	1.21424E-001	1.21875E-001	5.92237E-004	...........
	3	1.03333	1.21515E-001	1.21949E-001	5.93304E-004	...........
	4	1.29167	1.21652E-001	1.22042E-001	5.94604E-004	...........
	5	1.55	1.21799E-001	1.22142E-001	5.92504E-004	...........
	6	1.80833	1.21927E-001	1.22210E-001	5.94904E-004	...........
	7	2.06667	1.22034E-001	1.22272E-001	5.94204E-004	...........
	8	2.325	1.22122E-001	1.22324E-001	5.94604E-004	...........
	9	2.58333	1.22197E-001	1.22374E-001	5.96104E-004	...........
	10	2.84167	1.22261E-001	1.22402E-001	5.95537E-004	...........
	11	3.1	1.22315E-001	1.22436E-001	5.96037E-004	...........
	12	3.35833	1.22361E-001	1.22458E-001	5.93271E-004	...........
	13	3.61667	1.22398E-001	1.22480E-001	5.93604E-004	...........
	14	3.875	1.22429E-001	1.22499E-001	5.91571E-004	...........
	15	4.13333	1.22455E-001	1.22515E-001	5.92637E-004	...........
	16	4.39167	1.22476E-001	1.22477E-001	5.90371E-004	...........
	17	4.65	1.22490E-001	1.22526E-001	5.97937E-004	...........
	18	4.90833	1.22512E-001	1.23193E-001	5.94437E-004	...........
	19	5.16667	1.22586E-001	1.23266E-001	5.90737E-004	...........
	20	5.425	1.22735E-001	1.22585E-001	5.90271E-004	...........
	21	5.68333	1.22866E-001	1.22101E-001	5.92737E-004	...........
	22	5.94167	1.22837E-001	1.21868E-001	5.95570E-004	...........
	23	6.2	1.22627E-001	1.22362E-001	5.97070E-004	...........
	24	6.45833	1.22378E-001	1.22477E-001	5.96437E-004	...........
	25	6.71667	1.22250E-001	1.22472E-001	5.93904E-004	...........
	26	6.975	1.22267E-001	1.22410E-001	5.97304E-004	...........
	27	7.23333	1.22345E-001	1.22373E-001	5.89171E-004	...........
	28	7.49167	1.22399E-001	1.22305E-001	5.96704E-004	...........
	29	7.75	1.22406E-001	1.22354E-001	5.94370E-004	...........
	30	8.00833	1.22383E-001	1.22345E-001	5.97237E-004	...........
	31	8.26667	1.22358E-001	1.22304E-001	5.98070E-004	...........
	32	8.525	1.22342E-001	1.22320E-001	5.98470E-004	...........
	33	8.78333	1.22332E-001	1.22380E-001	5.95570E-004	...........
	34	9.04167	1.22331E-001	1.22387E-001	5.90471E-004	...........
	35	9.3	1.22341E-001	1.22401E-001	5.96204E-004	...........
	36	9.5583	1.22360E-001	1.22381E-001	5.93037E-004	...........
	37	9.8167	1.22376E-001	1.22377E-001	5.96004E-004	...........
	38	10.075	1.22385E-001	1.22379E-001	5.92337E-004	...........
EOC	QUANT	0.1223847	Open Circuit (V)
PSTATMODEL	IQUANT	4	Pstat Model
PSTATSECTION	LABEL	REF600-11020	Pstat Section
PSTATSERIALNO	LABEL	11020	Pstat Serial Number
CTRLMODE	IQUANT	1	Control Mode
IESTAB	IQUANT	0	I/E Stability
CASPEED	IQUANT	1	Control Amp Speed
CONVENTION	IQUANT	1	Current Convention
ICHRANGE	IQUANT	2	Ich Range
ICHRANGEMODE	TOGGLE	F	Ich Auto Range
ICHOFFSETENABLE	TOGGLE	T	Ich Offset Enable
ICHOFFSET	QUANT	0	Ich Offset (V)
ICHFILTER	IQUANT	3	Ich Filter
VCHRANGE	IQUANT	2	Vch Range
VCHRANGEMODE	TOGGLE	F	Vch Auto Range
VCHOFFSETENABLE	TOGGLE	T	Vch Offset Enable
VCHOFFSET	QUANT	0	Vch Offset (V)
VCHFILTER	IQUANT	3	Vch Filter
ACHRANGE	IQUANT	2	Ach Range
ACHOFFSETENABLE	TOGGLE	F	Ach Offset Enable
ACHOFFSET	QUANT	0	Ach Offset (V)
ACHFILTER	IQUANT	3	Ach Filter
IERANGELOWERLIMIT	IQUANT	1	I/E Range Lower Limit
IERANGEMODE	TOGGLE	F	I/E AutoRange
IERANGE	IQUANT	8	I/E Range
POSFEEDENABLE	TOGGLE	F	Positive Feedback IR Comp
POSFEEDRESISTANCE	QUANT	0	Positive Feedback Resistance (ohm)
ACHSELECT	IQUANT	0	Ach Select
CABLEID	IQUANT	14	Cable ID
DCCALDATE	LABEL	1/27/2020	DC Calibration Date
ACCALDATE	LABEL	1/27/2020	AC Calibration Date
THERMOSELECT	IQUANT	1	Thermo Select
FRAMEWORKVERSION	QUANT	6.33	Framework Version
INSTRUMENTVERSION	LABEL	3.50	Instrument Version
ZCURVE	TABLE
	Pt	Time	Freq	Zreal	Zimag	Zsig	Zmod	Zphz	Idc	Vdc	IERange
	#	s	Hz	ohm	ohm	V	ohm	°	A	V	#
	0	1	1000078	1940.619	-1972.123	1	2766.816	-45.46132	2.338614E-006	0.1243209	8
	1	1	794390.6	2340.307	-2074.576	1	3127.443	-41.55553	1.531027E-006	0.1237861	8
	2	1	630984.4	2721.881	-2127.948	1	3454.967	-38.01805	1.717822E-006	0.1238903	8
	3	2	501234.4	3109.616	-2111.035	1	3758.481	-34.17153	-3.957762E-006	0.1249122	8
	4	2	398109.4	3474.901	-2070.707	1	4045.091	-30.79087	-3.184922E-006	0.1248134	8
	5	2	316265.6	3818.069	-1981.149	1	4301.465	-27.42424	4.462169E-006	0.1232768	8
	6	3	251203.1	4105.18	-1903.031	1	4524.824	-24.87094	-1.289423E-006	0.1242123	8
	7	3	199546.9	4411.012	-1817.066	1	4770.613	-22.38865	3.677278E-007	0.1240301	8
	8	3	158578.1	4585.61	-1786.934	1	4921.479	-21.29002	-4.443013E-006	0.1250229	8
	9	4	125953.1	4854.806	-1704.794	1	5145.431	-19.34903	-3.939532E-007	0.1249679	7
	10	4	100078.1	5046.922	-1687.827	1	5321.671	-18.49133	3.453204E-008	0.1239926	7
	11	4	79453.13	5235.425	-1713.302	1	5508.637	-18.12077	-2.420722E-008	0.1240142	7
	12	5	63140.62	5422.987	-1767.773	1	5703.842	-18.05482	-2.390719E-008	0.1240166	7
	13	5	50203.12	5612.428	-1849.598	1	5909.346	-18.23984	-2.170533E-008	0.1240005	7
	14	5	39890.62	5810.688	-1963.604	1	6133.5	-18.67164	-2.405424E-009	0.1239481	7
	15	6	31640.63	6024.187	-2113.177	1	6384.07	-19.32996	-3.615578E-008	0.1240542	7
	16	6	25171.88	6251.013	-2297.865	1	6659.981	-20.18336	-4.431456E-008	0.1240434	7
	17	6	20015.62	6492.693	-2526.2	1	6966.832	-21.26019	-4.341585E-008	0.124044	7
	18	7	15890.62	6769.134	-2797.003	1	7324.233	-22.45039	-3.861393E-008	0.1240314	7
	19	7	12609.37	7070.122	-3123.625	1	7729.402	-23.83615	-1.846166E-008	0.1239943	7
	20	7	10078.13	7395.919	-3492.526	1	8179.081	-25.27778	-4.245541E-008	0.1240392	7
	21	8	8015.625	7762.52	-3938.187	1	8704.368	-26.90021	-3.837004E-009	0.1240326	7
	22	8	6328.125	8184.298	-4477.303	1	9328.933	-28.68131	1.287872E-007	0.1238124	7
	23	8	5015.625	8673.584	-5058.99	1	10041.14	-30.25348	1.244713E-010	0.1238938	6
	24	8	3984.375	9191.91	-5782.617	1	10859.55	-32.17393	-6.905628E-009	0.1240693	6
	25	9	3170.956	9772.78	-6620.436	1	11804.13	-34.11513	-8.815072E-009	0.1240713	6
	26	9	2527.573	10427.05	-7587.636	1	12895.56	-36.04293	-3.25154E-009	0.1241217	6
	27	9	1976.103	11238.8	-8822.766	1	14288.17	-38.13289	1.366002E-008	0.1238465	6
	28	10	1577.524	12090.53	-10134.99	1	15776.53	-39.97171	-5.753865E-010	0.1239305	6
	29	10	1265.625	13059.56	-11652.64	1	17502.46	-41.74154	3.476062E-009	0.1239113	6
	30	10	998.264	14266.45	-13541.9	1	19670.15	-43.50749	6.533311E-009	0.1238062	6
	31	11	796.875	15595.58	-15638.98	1	22086.2	-45.07961	-3.279172E-009	0.1241247	6
	32	11	627.7902	17249.7	-18211.49	1	25084.07	-46.55362	-4.452111E-009	0.1239971	6
	33	11	505.5147	18991.22	-20906.63	1	28244.53	-47.74853	-6.747888E-009	0.1240604	6
	34	12	397.9953	21226.09	-24352.12	1	32304.38	-48.92354	1.033396E-009	0.1239969	6
	35	12	315.5048	23756.53	-28211.54	1	36881.75	-49.89975	4.233358E-010	0.1239998	6
	36	12	252.4038	26597.21	-32509.78	1	42003.54	-50.71238	5.39562E-010	0.1239928	6
	37	13	198.6229	30121.38	-37790.88	1	48326.48	-51.44326	7.93304E-010	0.1239924	6
	38	13	158.3615	33961.8	-43579.82	1	55250.38	-52.07068	3.147292E-010	0.1239956	6
	39	13	125.558	38532.58	-50398.63	1	63441.16	-52.60006	7.522848E-010	0.1239923	6
	40	14	100.4464	43548.92	-57688.78	1	72280.73	-52.95106	9.3546E-010	0.1239833	6
	41	14	79.00281	50278.21	-67008.8	1	83773.97	-53.11827	5.398748E-010	0.1239885	6
	42	14	63.3446	55196.98	-78779.33	1	96191.9	-54.98287	6.123528E-010	0.1239884	6
	43	15	49.86702	64004.97	-90518.82	1	110861.6	-54.73624	-5.099702E-010	0.1239803	5
	44	15	39.72458	74904.2	-103430.4	1	127704.7	-54.08798	-1.477889E-010	0.1239923	5
	45	15	31.6723	86097.41	-118179.8	1	146216.4	-53.92559	-3.099732E-010	0.1239873	5
	46	16	24.93351	98736.7	-136811.3	1	168719.4	-54.18201	2.171045E-010	0.1239852	5
	47	16	19.86229	112689.3	-156883.7	1	193161.5	-54.31038	1.914638E-010	0.1239833	5
	48	16	15.83615	129469	-177688.1	1	219852.9	-53.92177	8.569198E-010	0.1239768	5
	49	17	12.40079	146976.2	-205903.8	1	252979	-54.48038	-7.418239E-010	0.1239839	5
	50	17	9.93114	164291.5	-238833.3	1	289884.5	-55.47624	4.200101E-010	0.1239899	5
	51	18	7.944915	183937	-274824.1	1	330697.9	-56.206	6.25218E-010	0.123986	5
	52	18	6.317385	208648.3	-319843.9	1	381882.5	-56.88181	3.380805E-010	0.1239722	5
	53	19	5.008013	236302.3	-374467.5	1	442791.9	-57.74662	2.060086E-010	0.1239934	5
	54	20	3.945707	271060.8	-442435.4	1	518867	-58.50602	3.407181E-011	0.1239841	5
	55	21	3.158693	307319.8	-517920.3	1	602235	-59.31626	4.88112E-011	0.1239653	5
	56	23	2.504006	355443.8	-611383.4	1	707198.7	-59.8273	1.893284E-010	0.1239748	5
	57	24	1.998082	410875.3	-717531	1	826842.9	-60.20352	1.358178E-010	0.123976	5
	58	26	1.584686	485192.4	-845595.6	1	974907	-60.15332	6.208301E-011	0.1239325	5
	59	28	1.266892	571283	-991481	1	1144290	-60.04982	2.312771E-011	0.1238846	4
	60	30	0.999041	680960.3	-1165913	1	1350207	-59.7126	8.449201E-012	0.1239136	4
