EXPLAIN
TAG	EISPOT
TITLE	LABEL	Potentiostatic EIS	Test &Identifier
DATE	LABEL	3/12/2020	Date
TIME	LABEL	14:15:29	Time
NOTES	NOTES	1	&Notes...
	
PSTAT	PSTAT	REF600-11020	Potentiostat
VDC	POTEN	0.00000E+000	T	DC &Voltage (V)
FREQINIT	QUANT	1.00000E+006	Initial Fre&q. (Hz)
FREQFINAL	QUANT	1.00000E+000	Final Fre&q. (Hz)
PTSPERDEC	QUANT	1.00000E+001	Points/&decade
VAC	QUANT	2.50000E+001	AC &Voltage (mV rms)
AREA	QUANT	2.50000E-001	&Area (cm^2)
CONDIT	TWOPARAM	F	5.00000E+000	0.00000E+000	Conditionin&g	Time(s)	E(V)
DELAY	TWOPARAM	T	5.00000E+000	0.00000E+000	Init. De&lay	Time(s)	Stab.(mV/s)
SPEED	SELECTOR	1	&Optimize for:
ZGUESS	QUANT	5.00000E+003	E&stimated Z (ohms)
OCVCURVE	TABLE	19
	Pt	T	Vf	Vm	Ach	Over
	#	s	V vs. Ref.	V	V	bits
	0	0.258333	3.94039E-002	3.94039E-002	5.76463E-004	...........
	1	0.516667	3.94033E-002	3.93681E-002	5.80230E-004	...........
	2	0.775	3.93983E-002	3.92945E-002	5.79263E-004	...........
	3	1.03333	3.93842E-002	3.93552E-002	5.80630E-004	...........
	4	1.29167	3.93635E-002	3.93247E-002	5.77863E-004	...........
	5	1.55	3.93441E-002	3.92578E-002	5.79630E-004	...........
	6	1.80833	3.93264E-002	3.92347E-002	5.82263E-004	...........
	7	2.06667	3.93007E-002	3.90695E-002	5.82697E-004	...........
	8	2.325	3.92538E-002	3.88623E-002	5.82797E-004	...........
	9	2.58333	3.91769E-002	3.90063E-002	5.82597E-004	...........
	10	2.84167	3.90828E-002	3.88497E-002	5.78197E-004	...........
	11	3.1	3.89981E-002	3.88187E-002	5.78397E-004	...........
	12	3.35833	3.89349E-002	3.89312E-002	5.76730E-004	...........
	13	3.61667	3.88924E-002	3.87590E-002	5.76630E-004	...........
	14	3.875	3.88651E-002	3.87969E-002	5.76297E-004	...........
	15	4.13333	3.88386E-002	3.86037E-002	5.78530E-004	...........
	16	4.39167	3.88003E-002	3.87706E-002	5.76397E-004	...........
	17	4.65	3.87536E-002	3.85220E-002	5.73963E-004	...........
	18	4.90833	3.87096E-002	3.87685E-002	5.75097E-004	...........
EOC	QUANT	0.0387096	Open Circuit (V)
PSTATMODEL	IQUANT	4	Pstat Model
PSTATSECTION	LABEL	REF600-11020	Pstat Section
PSTATSERIALNO	LABEL	11020	Pstat Serial Number
CTRLMODE	IQUANT	1	Control Mode
IESTAB	IQUANT	0	I/E Stability
CASPEED	IQUANT	1	Control Amp Speed
CONVENTION	IQUANT	1	Current Convention
ICHRANGE	IQUANT	2	Ich Range
ICHRANGEMODE	TOGGLE	F	Ich Auto Range
ICHOFFSETENABLE	TOGGLE	T	Ich Offset Enable
ICHOFFSET	QUANT	0	Ich Offset (V)
ICHFILTER	IQUANT	3	Ich Filter
VCHRANGE	IQUANT	2	Vch Range
VCHRANGEMODE	TOGGLE	F	Vch Auto Range
VCHOFFSETENABLE	TOGGLE	T	Vch Offset Enable
VCHOFFSET	QUANT	0	Vch Offset (V)
VCHFILTER	IQUANT	3	Vch Filter
ACHRANGE	IQUANT	2	Ach Range
ACHOFFSETENABLE	TOGGLE	F	Ach Offset Enable
ACHOFFSET	QUANT	0	Ach Offset (V)
ACHFILTER	IQUANT	3	Ach Filter
IERANGELOWERLIMIT	IQUANT	1	I/E Range Lower Limit
IERANGEMODE	TOGGLE	F	I/E AutoRange
IERANGE	IQUANT	7	I/E Range
POSFEEDENABLE	TOGGLE	F	Positive Feedback IR Comp
POSFEEDRESISTANCE	QUANT	0	Positive Feedback Resistance (ohm)
ACHSELECT	IQUANT	0	Ach Select
CABLEID	IQUANT	14	Cable ID
DCCALDATE	LABEL	2/27/2020	DC Calibration Date
ACCALDATE	LABEL	2/27/2020	AC Calibration Date
THERMOSELECT	IQUANT	1	Thermo Select
FRAMEWORKVERSION	QUANT	6.33	Framework Version
INSTRUMENTVERSION	LABEL	3.50	Instrument Version
ZCURVE	TABLE
	Pt	Time	Freq	Zreal	Zimag	Zsig	Zmod	Zphz	Idc	Vdc	IERange
	#	s	Hz	ohm	ohm	V	ohm	°	A	V	#
	0	1	1000078	2044.539	-2413.976	1	3163.451	-49.73676	3.480904E-006	0.0404785	8
	1	3	794390.6	2440.029	-2628.66	1	3586.585	-47.13129	-4.481357E-006	0.041478	8
	2	4	630984.4	2943.691	-2780.626	1	4049.345	-43.36829	5.902795E-007	0.0406654	8
	3	5	501234.4	3445.515	-2894.162	1	4499.75	-40.02957	6.550274E-007	0.0403346	8
	4	7	398109.4	3944.461	-2949.852	1	4925.485	-36.79086	-5.307349E-007	0.0405568	8
	5	8	316265.6	4438.856	-2950.169	1	5329.816	-33.60896	1.935448E-006	0.0400187	8
	6	10	251203.1	4891.501	-2941.018	1	5707.571	-31.01641	-2.53263E-006	0.0409487	8
	7	11	199546.9	5334.925	-2930.3	1	6086.713	-28.77855	-2.953462E-007	0.0404519	8
	8	12	158578.1	5730.374	-2945.552	1	6443.094	-27.20427	-6.781137E-007	0.0405414	8
	9	14	125953.1	6160.978	-2909.482	1	6813.423	-25.27872	-1.565282E-007	0.0411156	7
	10	16	100078.1	6501.363	-2946.569	1	7137.926	-24.38114	-5.419492E-008	0.0404107	7
	11	17	79453.13	6858.415	-3042.19	1	7502.852	-23.92066	-5.374282E-008	0.0404042	7
	12	18	63140.62	7217.288	-3179.844	1	7886.739	-23.77767	1.33346E-008	0.0402959	7
	13	20	50203.12	7583.18	-3361.519	1	8294.843	-23.90705	1.651283E-008	0.0403484	7
	14	21	39890.62	7964.592	-3588.595	1	8735.717	-24.25483	3.458968E-008	0.0402561	7
	15	22	31640.63	8371.855	-3877.104	1	9226.044	-24.8494	7.465037E-009	0.0402773	7
	16	24	25171.88	8805.616	-4227.33	1	9767.76	-25.64436	-2.746363E-008	0.0403492	7
	17	25	20015.62	9277.609	-4642.838	1	10374.49	-26.58497	-3.307612E-008	0.0403255	7
	18	27	15890.62	9803.84	-5139.066	1	11069.12	-27.66303	7.531767E-009	0.0403013	7
	19	28	12609.37	10440.86	-5654.571	1	11873.74	-28.43913	-6.414429E-009	0.0404073	6
	20	29	10078.13	11050.22	-6327.022	1	12733.36	-29.79416	-2.266244E-009	0.0403513	6
	21	31	8015.625	11754.58	-7117.81	1	13741.67	-31.19636	-2.135615E-009	0.0404379	6
	22	32	6328.125	12570.91	-8062.113	1	14934.04	-32.67331	-6.276081E-010	0.0403177	6
	23	33	5015.625	13477.53	-9136.934	1	16282.73	-34.13485	-1.994817E-009	0.0404195	6
	24	35	3984.375	14503.63	-10363.52	1	17825.77	-35.54758	-9.757851E-010	0.0404276	6
	25	36	3170.956	15653.95	-11752.69	1	19574.78	-36.89852	-1.417564E-009	0.0403531	6
	26	38	2527.573	16949.14	-13342.18	1	21570.52	-38.20943	-7.442085E-009	0.0404197	6
	27	39	1976.103	18560.49	-15316.1	1	24063.97	-39.5294	1.051172E-009	0.0402865	6
	28	40	1577.524	20240.63	-17384.84	1	26681.74	-40.65955	3.741186E-009	0.04039	6
	29	42	1265.625	22121.77	-19676.4	1	29606.31	-41.65178	-1.045518E-009	0.0403338	6
	30	43	998.264	24439.68	-22490.22	1	33213.07	-42.62132	-1.262249E-009	0.0404317	6
	31	44	796.875	26926.7	-25534.91	1	37109.01	-43.48031	1.118369E-008	0.0401671	6
	32	46	627.7902	29958.92	-29227.48	1	41854.3	-44.29195	-5.85772E-010	0.0404324	6
	33	47	505.5147	33089.43	-32993.02	1	46727.39	-44.9164	-6.072565E-009	0.040445	6
	34	48	397.9953	37054.03	-37709.9	1	52868.11	-45.50262	5.366577E-010	0.0403705	6
	35	50	315.5048	41421.91	-42960.07	1	59676.98	-46.0443	5.994914E-010	0.0403711	6
	36	51	252.4038	46201.14	-48678.34	1	67112.78	-46.49559	6.780544E-010	0.040367	6
	37	53	198.6229	52109.93	-55661.15	1	76247.02	-46.8873	4.660163E-010	0.0403721	6
	38	54	158.3615	58443.46	-63197.4	1	86078.73	-47.23808	1.692073E-010	0.040369	6
	39	55	125.558	66050.77	-71896.41	1	97630.9	-47.42651	3.93132E-010	0.0403714	6
	40	57	100.4464	74585.49	-81081.56	1	110169	-47.3896	-5.089846E-010	0.0403732	5
	41	58	79.00281	85154.01	-93014.44	1	126106.7	-47.52613	4.626459E-010	0.0403697	5
	42	59	63.3446	93113.28	-105450.9	1	140676.9	-48.55547	1.840542E-010	0.0403683	5
	43	61	49.86702	110285.3	-117060.9	1	160829.4	-46.70708	2.280638E-010	0.0403712	5
	44	62	39.72458	124401.6	-133476.4	1	182460.2	-47.01541	-1.116758E-010	0.0403829	5
	45	64	31.6723	142796.7	-150108	1	207179.4	-46.42986	-1.832637E-010	0.040374	5
	46	65	24.93351	162634.3	-168038.2	1	233852	-45.93625	4.414226E-011	0.0403695	5
	47	67	19.86229	185041.8	-186734.6	1	262888.3	-45.26088	2.536111E-010	0.0403792	5
	48	68	15.83615	213374.1	-207842.5	1	297870.8	-44.24761	1.102237E-009	0.0403681	5
	49	69	12.40079	239187.9	-232041.2	1	333247.6	-44.13111	-1.401605E-011	0.040375	5
	50	71	9.93114	266854.4	-253773.5	1	368255.7	-43.56074	-1.406091E-010	0.0403722	5
	51	73	7.944915	299634.2	-277621.5	1	408478.1	-42.81618	1.630219E-010	0.0403696	5
	52	74	6.317385	333340.7	-308184.3	1	453975.3	-42.75439	-7.804191E-011	0.040364	5
	53	76	5.008013	372097.1	-340600.5	1	504445.2	-42.46955	-1.333694E-010	0.0403707	5
	54	79	3.945707	414404.7	-378782.9	1	561433.6	-42.4286	-4.100846E-011	0.0403744	5
	55	81	3.158693	456863.5	-417618.3	1	618974.4	-42.43039	9.835985E-011	0.0403697	5
	56	85	2.504006	504148.4	-464862.9	1	685757.4	-42.67839	-1.06454E-011	0.0403802	5
	57	88	1.998082	551308.4	-517613.7	1	756217.4	-43.19452	2.596885E-010	0.0403321	5
	58	91	1.584686	604473.3	-582880.1	1	839724.4	-43.95814	-3.833435E-011	0.0403476	5
	59	94	1.266892	658304.8	-655519.4	1	929016.1	-44.87853	1.607303E-010	0.0403286	5
	60	99	0.999041	720695.1	-751447.1	1	1041189	-46.19669	-1.020155E-011	0.040404	4
