EXPLAIN
TAG	EISPOT
TITLE	LABEL	Potentiostatic EIS	Test &Identifier
DATE	LABEL	1/7/2020	Date
TIME	LABEL	17:01:34	Time
NOTES	NOTES	5	&Notes...
	
	
	
	
	
PSTAT	PSTAT	REF600-11020	Potentiostat
VDC	POTEN	0.00000E+000	T	DC &Voltage (V)
FREQINIT	QUANT	1.00000E+006	Initial Fre&q. (Hz)
FREQFINAL	QUANT	1.00000E+000	Final Fre&q. (Hz)
PTSPERDEC	QUANT	1.00000E+001	Points/&decade
VAC	QUANT	2.50000E+001	AC &Voltage (mV rms)
AREA	QUANT	1.00000E-001	&Area (cm^2)
CONDIT	TWOPARAM	T	5.00000E+000	0.00000E+000	Conditionin&g	Time(s)	E(V)
DELAY	TWOPARAM	T	5.00000E+000	0.00000E+000	Init. De&lay	Time(s)	Stab.(mV/s)
SPEED	SELECTOR	0	&Optimize for:
ZGUESS	QUANT	1.00000E+003	E&stimated Z (ohms)
OCVCURVE	TABLE	19
	Pt	T	Vf	Vm	Ach	Over
	#	s	V vs. Ref.	V	V	bits
	0	0.258333	-1.26291E-003	-1.26291E-003	6.38880E-004	...........
	1	0.516667	-1.27312E-003	-1.79718E-003	6.36147E-004	...........
	2	0.775	-1.33533E-003	-2.27930E-003	6.31913E-004	...........
	3	1.03333	-1.50966E-003	-2.73602E-003	6.40846E-004	...........
	4	1.29167	-1.81873E-003	-3.20918E-003	6.40980E-004	...........
	5	1.55	-2.22737E-003	-3.60776E-003	6.37646E-004	...........
	6	1.80833	-2.67789E-003	-3.96703E-003	6.40313E-004	...........
	7	2.06667	-3.12393E-003	-4.32405E-003	6.42513E-004	...........
	8	2.325	-3.54225E-003	-4.70138E-003	6.36313E-004	...........
	9	2.58333	-3.93181E-003	-5.03930E-003	6.38480E-004	...........
	10	2.84167	-4.30112E-003	-5.33866E-003	6.34880E-004	...........
	11	3.1	-4.65485E-003	-5.66777E-003	6.36980E-004	...........
	12	3.35833	-4.99455E-003	-6.02513E-003	6.38880E-004	...........
	13	3.61667	-5.32563E-003	-6.33366E-003	6.36846E-004	...........
	14	3.875	-5.65195E-003	-6.51488E-003	6.41846E-004	...........
	15	4.13333	-5.96666E-003	-6.86508E-003	6.40180E-004	...........
	16	4.39167	-6.26698E-003	-7.34137E-003	6.43313E-004	...........
	17	4.65	-6.57263E-003	-7.67173E-003	6.40813E-004	...........
	18	4.90833	-6.90073E-003	-7.73404E-003	6.41713E-004	...........
EOC	QUANT	-0.0069007	Open Circuit (V)
PSTATMODEL	IQUANT	4	Pstat Model
PSTATSECTION	LABEL	REF600-11020	Pstat Section
PSTATSERIALNO	LABEL	11020	Pstat Serial Number
CTRLMODE	IQUANT	1	Control Mode
IESTAB	IQUANT	0	I/E Stability
CASPEED	IQUANT	1	Control Amp Speed
CONVENTION	IQUANT	1	Current Convention
ICHRANGE	IQUANT	2	Ich Range
ICHRANGEMODE	TOGGLE	F	Ich Auto Range
ICHOFFSETENABLE	TOGGLE	T	Ich Offset Enable
ICHOFFSET	QUANT	0	Ich Offset (V)
ICHFILTER	IQUANT	3	Ich Filter
VCHRANGE	IQUANT	2	Vch Range
VCHRANGEMODE	TOGGLE	F	Vch Auto Range
VCHOFFSETENABLE	TOGGLE	T	Vch Offset Enable
VCHOFFSET	QUANT	0	Vch Offset (V)
VCHFILTER	IQUANT	3	Vch Filter
ACHRANGE	IQUANT	2	Ach Range
ACHOFFSETENABLE	TOGGLE	F	Ach Offset Enable
ACHOFFSET	QUANT	0	Ach Offset (V)
ACHFILTER	IQUANT	3	Ach Filter
IERANGELOWERLIMIT	IQUANT	1	I/E Range Lower Limit
IERANGEMODE	TOGGLE	F	I/E AutoRange
IERANGE	IQUANT	7	I/E Range
POSFEEDENABLE	TOGGLE	F	Positive Feedback IR Comp
POSFEEDRESISTANCE	QUANT	0	Positive Feedback Resistance (ohm)
ACHSELECT	IQUANT	0	Ach Select
CABLEID	IQUANT	14	Cable ID
DCCALDATE	LABEL	12/22/2019	DC Calibration Date
ACCALDATE	LABEL	12/22/2019	AC Calibration Date
THERMOSELECT	IQUANT	1	Thermo Select
FRAMEWORKVERSION	QUANT	6.33	Framework Version
INSTRUMENTVERSION	LABEL	3.50	Instrument Version
ZCURVE	TABLE
	Pt	Time	Freq	Zreal	Zimag	Zsig	Zmod	Zphz	Idc	Vdc	IERange
	#	s	Hz	ohm	ohm	V	ohm	°	A	V	#
	0	1	1000078	2214.093	-1949.983	1	2950.363	-41.37082	-5.702536E-006	-0.004974	8
	1	1	794390.6	2643.911	-1969.652	1	3296.937	-36.68525	1.684136E-006	-0.0049918	8
	2	1	630984.4	3041.167	-1933.356	1	3603.687	-32.44528	-9.920037E-007	-0.0053544	8
	3	2	501234.4	3412.879	-1839.537	1	3877.066	-28.32461	-7.996213E-007	-0.0049224	8
	4	2	398109.4	3719.176	-1702.739	1	4090.427	-24.59959	-6.593617E-007	-0.0050719	8
	5	2	316265.6	4003.801	-1554.875	1	4295.12	-21.22367	-3.820207E-008	-0.0056138	8
	6	3	251203.1	4228.931	-1381.536	1	4448.876	-18.09153	-7.457909E-007	-0.0051029	8
	7	3	199546.9	4417.977	-1212.554	1	4581.354	-15.34743	-8.347372E-007	-0.0055819	8
	8	3	158578.1	4538.017	-1109.747	1	4671.738	-13.74168	6.461986E-006	-0.006709	8
	9	4	125953.1	4699.024	-878.621	1	4780.461	-10.59084	8.013799E-007	-0.0072724	7
	10	4	100078.1	4803.047	-777.7059	1	4865.603	-9.197467	-9.414793E-008	-0.0053724	7
	11	4	79453.13	4872.712	-704.485	1	4923.375	-8.226683	7.286546E-008	-0.0055799	7
	12	5	63140.62	4938.383	-644.5824	1	4980.272	-7.43649	1.114942E-007	-0.0056599	7
	13	5	50203.12	4995.712	-599.0809	1	5031.504	-6.838199	-7.211682E-008	-0.0054051	7
	14	5	39890.62	5047.068	-568.9793	1	5079.039	-6.432061	-4.999347E-008	-0.0054935	7
	15	6	31640.63	5096.58	-551.4479	1	5126.326	-6.175357	-1.329473E-008	-0.0055151	7
	16	6	25171.88	5141.461	-549.0441	1	5170.693	-6.095377	-7.200585E-008	-0.005409	7
	17	6	20015.62	5186.479	-560.3076	1	5216.657	-6.165886	-1.048072E-007	-0.0053167	7
	18	6	15890.62	5231.743	-587.963	1	5264.678	-6.41221	-1.29152E-009	-0.0054812	7
	19	7	12609.37	5278.253	-633.426	1	5316.125	-6.843154	-1.094596E-008	-0.0055259	7
	20	7	10078.13	5322.112	-691.6494	1	5366.866	-7.404529	-2.514788E-008	-0.0055385	7
	21	7	8015.625	5375.533	-776.8975	1	5431.383	-8.223716	-2.579488E-008	-0.0055327	7
	22	8	6328.125	5430.725	-883.7574	1	5502.163	-9.242886	-2.691377E-008	-0.0055346	7
	23	8	5015.625	5491.1	-1021.188	1	5585.249	-10.53503	-9.37041E-008	-0.0053862	7
	24	8	3984.375	5553.432	-1189.283	1	5679.349	-12.08747	1.816928E-007	-0.0057414	7
	25	9	3170.956	5627.626	-1394.814	1	5797.903	-13.92031	-2.743726E-008	-0.0055418	7
	26	9	2527.573	5709.116	-1650.259	1	5942.841	-16.1223	-1.072406E-008	-0.0055224	7
	27	9	1976.103	5806.445	-1988.333	1	6137.449	-18.90302	5.783501E-008	-0.0056729	7
	28	10	1577.524	5911.559	-2377.161	1	6371.611	-21.90609	-9.275722E-008	-0.0051945	7
	29	10	1265.625	6030.904	-2835.82	1	6664.359	-25.1836	1.929807E-008	-0.0053557	7
	30	10	998.264	6179.003	-3439.149	1	7071.621	-29.09972	5.759655E-008	-0.005677	7
	31	11	796.875	6344.737	-4145	1	7578.701	-33.15648	1.81911E-007	-0.0057415	7
	32	11	627.7902	6551.634	-5060.436	1	8278.4	-37.68225	-9.377982E-008	-0.0053942	7
	33	11	505.5147	6769.064	-6073.805	1	9094.577	-41.90127	-4.651639E-008	-0.0053793	7
	34	12	397.9953	7061.627	-7444.569	1	10261	-46.51217	1.189939E-009	-0.0054895	6
	35	12	315.5048	7395.367	-9091.68	1	11719.65	-50.87436	1.236884E-009	-0.0054957	6
	36	12	252.4038	7782.962	-11035.2	1	13503.71	-54.80526	6.755656E-010	-0.0054896	6
	37	13	198.6229	8292.357	-13606.17	1	15933.96	-58.63955	1.140468E-009	-0.0054865	6
	38	13	158.3615	8891.421	-16606.47	1	18836.99	-61.83456	1.521536E-009	-0.0054988	6
	39	13	125.558	9656.14	-20387.66	1	22558.76	-64.65652	1.230408E-009	-0.0054914	6
	40	13	100.4464	10602.56	-24817.9	1	26987.82	-66.86715	7.980153E-010	-0.0054932	6
	41	14	79.00281	11966.43	-30710.84	1	32959.84	-68.7117	1.006082E-009	-0.0054962	6
	42	14	63.3446	13276.78	-37503.37	1	39784.11	-70.50524	1.656789E-009	-0.005496	6
	43	15	49.86702	15573.23	-46162.8	1	48718.88	-71.35794	8.041078E-010	-0.0054994	6
	44	15	39.72458	18651.81	-56273.3	1	59283.84	-71.66219	1.236595E-009	-0.0054933	6
	45	15	31.6723	22506.29	-68363.38	1	71972.8	-71.77765	1.192631E-009	-0.0054969	6
	46	16	24.93351	27717.71	-83822.1	1	88285.99	-71.70234	1.337939E-009	-0.0054986	6
	47	16	19.86229	34628.55	-101266.4	1	107023.5	-71.12162	9.052153E-010	-0.0055072	5
	48	16	15.83615	43373.37	-122897.6	1	130326.7	-70.56089	1.836262E-009	-0.0054995	5
	49	16	12.40079	55761.42	-147126.7	1	157339.1	-69.24316	-7.402432E-010	-0.0054942	5
	50	17	9.93114	71203.47	-175697.3	1	189577.1	-67.93916	4.59939E-010	-0.0054888	5
	51	17	7.944915	90153.56	-206735.3	1	225537.4	-66.43884	1.369056E-009	-0.0055072	5
	52	18	6.317385	115483.1	-241914.3	1	268065	-64.4815	1.120377E-009	-0.0055072	5
	53	19	5.008013	146889.2	-281094.5	1	317160.1	-62.41015	7.416441E-010	-0.0055034	5
	54	20	3.945707	185930.5	-323581.3	1	373195.7	-60.11824	7.368662E-010	-0.0054896	5
	55	21	3.158693	227863.2	-366267.9	1	431362.8	-58.11336	4.322104E-010	-0.0054987	5
	56	23	2.504006	277008.3	-412226	1	496652.7	-56.09962	5.86683E-010	-0.0055082	5
	57	24	1.998082	328446.4	-459235.4	1	564600.9	-54.42754	9.674419E-010	-0.0054694	5
	58	26	1.584686	385465.2	-511385.6	1	640389.4	-52.99225	6.180586E-010	-0.0055041	5
	59	31	1.266892	443952.8	-567034	1	720153.9	-51.94124	6.018165E-010	-0.0055436	5
	60	33	0.999041	511870.2	-634471.5	1	815208.7	-51.10458	4.093902E-010	-0.0055513	5
