EXPLAIN
TAG	EISPOT
TITLE	LABEL	Potentiostatic EIS	Test &Identifier
DATE	LABEL	7/13/2020	Date
TIME	LABEL	20:22:06	Time
NOTES	NOTES	1	&Notes...
	
PSTAT	PSTAT	REF600-11020	Potentiostat
VDC	POTEN	0.00000E+000	T	DC &Voltage (V)
FREQINIT	QUANT	1.00000E+006	Initial Fre&q. (Hz)
FREQFINAL	QUANT	1.00000E+000	Final Fre&q. (Hz)
PTSPERDEC	QUANT	1.00000E+001	Points/&decade
VAC	QUANT	2.50000E+001	AC &Voltage (mV rms)
AREA	QUANT	4.00000E-004	&Area (cm^2)
CONDIT	TWOPARAM	F	5.00000E+000	0.00000E+000	Conditionin&g	Time(s)	E(V)
DELAY	TWOPARAM	F	3.00000E+000	0.00000E+000	Init. De&lay	Time(s)	Stab.(mV/s)
SPEED	SELECTOR	0	&Optimize for:
ZGUESS	QUANT	1.00000E+003	E&stimated Z (ohms)
OCVCURVE	TABLE	39
	Pt	T	Vf	Vm	Ach	Over
	#	s	V vs. Ref.	V	V	bits
	0	0.258333	1.18447E-001	1.18447E-001	4.97150E-004	...........
	1	0.516667	1.18447E-001	1.18439E-001	5.00450E-004	...........
	2	0.775	1.18446E-001	1.18430E-001	5.02017E-004	...........
	3	1.03333	1.18443E-001	1.18426E-001	5.03217E-004	...........
	4	1.29167	1.18438E-001	1.18416E-001	4.99417E-004	...........
	5	1.55	1.18432E-001	1.18410E-001	5.00150E-004	...........
	6	1.80833	1.18425E-001	1.18403E-001	5.00250E-004	...........
	7	2.06667	1.18418E-001	1.18397E-001	5.02750E-004	...........
	8	2.325	1.18411E-001	1.18393E-001	5.03450E-004	...........
	9	2.58333	1.18404E-001	1.18390E-001	5.08850E-004	...........
	10	2.84167	1.18398E-001	1.18381E-001	5.04350E-004	...........
	11	3.1	1.18393E-001	1.18377E-001	5.04884E-004	...........
	12	3.35833	1.18388E-001	1.18371E-001	5.04617E-004	...........
	13	3.61667	1.18383E-001	1.18368E-001	5.02017E-004	...........
	14	3.875	1.18377E-001	1.18361E-001	5.04550E-004	...........
	15	4.13333	1.18372E-001	1.18357E-001	4.97584E-004	...........
	16	4.39167	1.18368E-001	1.18366E-001	5.00684E-004	...........
	17	4.65	1.18364E-001	1.18356E-001	5.00250E-004	...........
	18	4.90833	1.18361E-001	1.18343E-001	4.98317E-004	...........
	19	5.16667	1.18358E-001	1.18337E-001	4.92950E-004	...........
	20	5.425	1.18353E-001	1.18336E-001	5.00117E-004	...........
	21	5.68333	1.18347E-001	1.18328E-001	5.00684E-004	...........
	22	5.94167	1.18340E-001	1.18318E-001	5.02784E-004	...........
	23	6.2	1.18334E-001	1.18316E-001	5.02750E-004	...........
	24	6.45833	1.18327E-001	1.18316E-001	5.00284E-004	...........
	25	6.71667	1.18322E-001	1.18307E-001	4.99984E-004	...........
	26	6.975	1.18317E-001	1.18309E-001	4.99584E-004	...........
	27	7.23333	1.18314E-001	1.18302E-001	4.96984E-004	...........
	28	7.49167	1.18310E-001	1.18298E-001	4.99584E-004	...........
	29	7.75	1.18306E-001	1.18295E-001	5.07050E-004	...........
	30	8.00833	1.18303E-001	1.18290E-001	4.99050E-004	...........
	31	8.26667	1.18299E-001	1.18294E-001	4.99617E-004	...........
	32	8.525	1.18296E-001	1.18291E-001	4.99884E-004	...........
	33	8.78333	1.18293E-001	1.18279E-001	5.01517E-004	...........
	34	9.04167	1.18291E-001	1.18282E-001	5.02717E-004	...........
	35	9.3	1.18288E-001	1.18276E-001	5.05617E-004	...........
	36	9.5583	1.18285E-001	1.18284E-001	5.01084E-004	...........
	37	9.8167	1.18282E-001	1.18280E-001	5.04784E-004	...........
	38	10.075	1.18280E-001	1.18265E-001	5.07683E-004	...........
EOC	QUANT	0.1182803	Open Circuit (V)
PSTATMODEL	IQUANT	4	Pstat Model
PSTATSECTION	LABEL	REF600-11020	Pstat Section
PSTATSERIALNO	LABEL	11020	Pstat Serial Number
CTRLMODE	IQUANT	1	Control Mode
IESTAB	IQUANT	0	I/E Stability
CASPEED	IQUANT	1	Control Amp Speed
CONVENTION	IQUANT	1	Current Convention
ICHRANGE	IQUANT	2	Ich Range
ICHRANGEMODE	TOGGLE	F	Ich Auto Range
ICHOFFSETENABLE	TOGGLE	T	Ich Offset Enable
ICHOFFSET	QUANT	0	Ich Offset (V)
ICHFILTER	IQUANT	3	Ich Filter
VCHRANGE	IQUANT	2	Vch Range
VCHRANGEMODE	TOGGLE	F	Vch Auto Range
VCHOFFSETENABLE	TOGGLE	T	Vch Offset Enable
VCHOFFSET	QUANT	0	Vch Offset (V)
VCHFILTER	IQUANT	3	Vch Filter
ACHRANGE	IQUANT	2	Ach Range
ACHOFFSETENABLE	TOGGLE	F	Ach Offset Enable
ACHOFFSET	QUANT	0	Ach Offset (V)
ACHFILTER	IQUANT	3	Ach Filter
IERANGELOWERLIMIT	IQUANT	1	I/E Range Lower Limit
IERANGEMODE	TOGGLE	F	I/E AutoRange
IERANGE	IQUANT	8	I/E Range
POSFEEDENABLE	TOGGLE	F	Positive Feedback IR Comp
POSFEEDRESISTANCE	QUANT	0	Positive Feedback Resistance (ohm)
ACHSELECT	IQUANT	0	Ach Select
CABLEID	IQUANT	14	Cable ID
DCCALDATE	LABEL	6/26/2020	DC Calibration Date
ACCALDATE	LABEL	6/26/2020	AC Calibration Date
THERMOSELECT	IQUANT	1	Thermo Select
FRAMEWORKVERSION	QUANT	6.33	Framework Version
INSTRUMENTVERSION	LABEL	3.50	Instrument Version
ZCURVE	TABLE
	Pt	Time	Freq	Zreal	Zimag	Zsig	Zmod	Zphz	Idc	Vdc	IERange
	#	s	Hz	ohm	ohm	V	ohm	°	A	V	#
	0	2	1000078	1698.268	-2152.829	1	2742.041	-51.7317	6.089973E-008	0.1205445	8
	1	2	794390.6	2071.197	-2362.449	1	3141.818	-48.75844	5.479468E-009	0.1202278	8
	2	2	630984.4	2491.725	-2539.957	1	3558.1	-45.54919	6.270904E-008	0.1201067	8
	3	3	501234.4	2946.532	-2681.156	1	3983.798	-42.30019	2.956211E-008	0.1200049	8
	4	3	398109.4	3415.693	-2782.669	1	4405.701	-39.16874	8.234975E-008	0.1199215	8
	5	3	316265.6	3887.875	-2843.217	1	4816.582	-36.17813	4.609482E-008	0.1199177	8
	6	3	251203.1	4349.141	-2877.357	1	5214.807	-33.48831	5.000776E-008	0.1199068	8
	7	4	199546.9	4801.928	-2902.055	1	5610.743	-31.14675	-7.60528E-011	0.1199066	8
	8	4	158578.1	5237.418	-2906.471	1	5989.835	-29.0278	-1.700077E-008	0.1199074	8
	9	4	125953.1	5721.131	-2851.517	1	6392.378	-26.49251	-1.182432E-008	0.1199106	7
	10	5	100078.1	6120.998	-2877.81	1	6763.757	-25.18074	-4.919877E-010	0.1198742	7
	11	5	79453.13	6503.433	-2918.274	1	7128.181	-24.16712	-1.137675E-008	0.1198892	7
	12	5	63140.62	6880.404	-2985.661	1	7500.275	-23.4578	8.869915E-009	0.1198689	7
	13	6	50203.12	7263.97	-3079.523	1	7889.786	-22.97427	9.991022E-009	0.11985	7
	14	6	39890.62	7655.164	-3200.02	1	8297.087	-22.68596	9.754736E-009	0.1198659	7
	15	6	31640.63	8065.423	-3353.389	1	8734.773	-22.57624	9.422501E-009	0.1198617	7
	16	7	25171.88	8491.475	-3542.665	1	9200.849	-22.64602	1.046951E-008	0.1198471	7
	17	7	20015.62	8943.155	-3765.436	1	9703.53	-22.83309	8.139668E-009	0.1198471	7
	18	7	15890.62	9426.46	-4019.756	1	10247.76	-23.09501	2.238537E-009	0.119867	7
	19	8	12609.37	10064.33	-4189.121	1	10901.35	-22.59875	-1.31541E-009	0.1198743	6
	20	8	10078.13	10590.57	-4529.453	1	11518.51	-23.15578	-2.0269E-009	0.1198791	6
	21	8	8015.625	11180.18	-4912.439	1	12211.82	-23.72013	-4.166673E-011	0.1198726	6
	22	9	6328.125	11834.76	-5351.038	1	12988.27	-24.32991	-1.438827E-010	0.1198321	6
	23	9	5015.625	12532.92	-5829.469	1	13822.33	-24.94467	-1.796139E-009	0.119878	6
	24	9	3984.375	13283.27	-6359.782	1	14727.26	-25.58422	1.890428E-009	0.1198323	6
	25	10	3170.956	14077.88	-6944.935	1	15697.74	-26.25815	-3.620512E-010	0.1198731	6
	26	10	2527.573	14926.86	-7599.708	1	16750.13	-26.98199	8.990385E-010	0.1198245	6
	27	10	1976.103	15935.24	-8412.213	1	18019.36	-27.82957	1.394115E-009	0.1198364	6
	28	10	1577.524	16931.94	-9260.773	1	19299.03	-28.67607	-1.294823E-009	0.1198726	6
	29	11	1265.625	18006.56	-10211.52	1	20700.52	-29.55757	1.727599E-009	0.1198201	6
	30	11	998.264	19281.16	-11374.61	1	22386.26	-30.53779	1.964825E-009	0.1198339	6
	31	11	796.875	20626.79	-12631.92	1	24187.38	-31.48345	-2.220864E-009	0.1198698	6
	32	12	627.7902	22226.26	-14142.7	1	26344.31	-32.46884	-8.66381E-011	0.1198301	6
	33	12	505.5147	23845.98	-15668.74	1	28533.14	-33.30814	5.52479E-010	0.1198495	6
	34	12	397.9953	25831.57	-17546.04	1	31227.13	-34.18622	2.263252E-010	0.1198645	6
	35	13	315.5048	27957.92	-19574.75	1	34129.4	-34.99781	1.439877E-010	0.1198686	6
	36	13	252.4038	30172.06	-21751.39	1	37195.11	-35.78827	2.456403E-010	0.1198657	6
	37	13	198.6229	32723.7	-24402.36	1	40820.54	-36.71223	1.030426E-010	0.1198662	6
	38	14	158.3615	35300.69	-27306.02	1	44629.11	-37.7229	1.831843E-010	0.1198681	6
	39	14	125.558	38123.33	-30804.2	1	49013.13	-38.93871	2.674668E-010	0.1198724	6
	40	14	100.4464	41059.51	-34803.04	1	53825.04	-40.28542	3.305125E-010	0.1198642	6
	41	15	79.00281	44569.85	-39983.45	1	59876.1	-41.89516	9.208828E-011	0.1198644	6
	42	15	63.3446	48221.18	-45702.47	1	66437.92	-43.4639	-1.05431E-010	0.1198617	6
	43	15	49.86702	52830.06	-53070.79	1	74883.41	-45.13025	-1.10448E-010	0.1198564	6
	44	16	39.72458	57999.75	-61360.06	1	84433.57	-46.61261	1.819307E-010	0.1198639	6
	45	16	31.6723	64089.62	-71019.98	1	95662.5	-47.93638	4.232223E-010	0.119858	6
	46	16	24.93351	71728.05	-82805.3	1	109552	-49.10006	-6.041793E-010	0.1198458	5
	47	17	19.86229	80324.84	-95979.1	1	125156.1	-50.07405	3.378839E-010	0.119847	5
	48	17	15.83615	90734.9	-110959.8	1	143334.9	-50.72619	-1.408195E-009	0.1198477	5
	49	17	12.40079	104111.5	-129501.4	1	166162	-51.20276	-1.703963E-009	0.1198515	5
	50	18	9.93114	118336.1	-148275.7	1	189708	-51.40727	-1.709888E-009	0.1198468	5
	51	18	7.944915	135513.6	-169849.3	1	217284.9	-51.41552	-9.822697E-011	0.1198467	5
	52	18	6.317385	155878.2	-193840	1	248740.7	-51.19518	-1.612646E-011	0.1198493	5
	53	19	5.008013	179498.1	-220424.2	1	284264.6	-50.84303	-4.331816E-010	0.1198309	5
	54	20	3.945707	207226.2	-250519	1	325119.2	-50.40287	-2.751898E-010	0.1198462	5
	55	21	3.158693	234734.1	-281286.5	1	366363.5	-50.15494	-2.106507E-010	0.1198289	5
	56	22	2.504006	266555.7	-317286.9	1	414394.6	-49.96607	2.290871E-010	0.1198315	5
	57	23	1.998082	297997	-357232.7	1	465206.9	-50.16575	1.01199E-010	0.119836	5
	58	25	1.584686	334307.7	-404749.7	1	524960.9	-50.44461	-6.999036E-011	0.1197926	5
	59	27	1.266892	370856.8	-460857.7	1	591544.3	-51.17601	-5.332358E-011	0.1197955	5
	60	29	0.999041	411769.3	-531075.6	1	672008.4	-52.2118	-4.561091E-011	0.1198141	5
