EXPLAIN
TAG	EISPOT
TITLE	LABEL	Potentiostatic EIS	Test &Identifier
DATE	LABEL	6/6/2020	Date
TIME	LABEL	18:48:48	Time
NOTES	NOTES	1	&Notes...
	
PSTAT	PSTAT	REF600-11020	Potentiostat
VDC	POTEN	0.00000E+000	T	DC &Voltage (V)
FREQINIT	QUANT	1.00000E+006	Initial Fre&q. (Hz)
FREQFINAL	QUANT	1.00000E+000	Final Fre&q. (Hz)
PTSPERDEC	QUANT	1.00000E+001	Points/&decade
VAC	QUANT	2.50000E+001	AC &Voltage (mV rms)
AREA	QUANT	4.00000E-004	&Area (cm^2)
CONDIT	TWOPARAM	F	5.00000E+000	0.00000E+000	Conditionin&g	Time(s)	E(V)
DELAY	TWOPARAM	T	3.00000E+000	0.00000E+000	Init. De&lay	Time(s)	Stab.(mV/s)
SPEED	SELECTOR	0	&Optimize for:
ZGUESS	QUANT	1.00000E+003	E&stimated Z (ohms)
OCVCURVE	TABLE	12
	Pt	T	Vf	Vm	Ach	Over
	#	s	V vs. Ref.	V	V	bits
	0	0.258333	1.31501E-001	1.31501E-001	6.24196E-004	...........
	1	0.516667	1.31502E-001	1.31559E-001	6.24296E-004	...........
	2	0.775	1.31509E-001	1.31616E-001	6.32762E-004	...........
	3	1.03333	1.31528E-001	1.31674E-001	6.25863E-004	...........
	4	1.29167	1.31564E-001	1.31723E-001	6.24029E-004	...........
	5	1.55	1.31611E-001	1.31779E-001	6.28163E-004	...........
	6	1.80833	1.31665E-001	1.31834E-001	6.32296E-004	...........
	7	2.06667	1.31719E-001	1.31890E-001	6.20229E-004	...........
	8	2.325	1.31775E-001	1.31943E-001	6.24363E-004	...........
	9	2.58333	1.31830E-001	1.31993E-001	6.25796E-004	...........
	10	2.84167	1.31884E-001	1.32049E-001	6.28996E-004	...........
	11	3.1	1.31938E-001	1.32104E-001	6.24396E-004	...........
EOC	QUANT	0.1319378	Open Circuit (V)
PSTATMODEL	IQUANT	4	Pstat Model
PSTATSECTION	LABEL	REF600-11020	Pstat Section
PSTATSERIALNO	LABEL	11020	Pstat Serial Number
CTRLMODE	IQUANT	1	Control Mode
IESTAB	IQUANT	0	I/E Stability
CASPEED	IQUANT	1	Control Amp Speed
CONVENTION	IQUANT	1	Current Convention
ICHRANGE	IQUANT	2	Ich Range
ICHRANGEMODE	TOGGLE	F	Ich Auto Range
ICHOFFSETENABLE	TOGGLE	T	Ich Offset Enable
ICHOFFSET	QUANT	0	Ich Offset (V)
ICHFILTER	IQUANT	3	Ich Filter
VCHRANGE	IQUANT	2	Vch Range
VCHRANGEMODE	TOGGLE	F	Vch Auto Range
VCHOFFSETENABLE	TOGGLE	T	Vch Offset Enable
VCHOFFSET	QUANT	0	Vch Offset (V)
VCHFILTER	IQUANT	3	Vch Filter
ACHRANGE	IQUANT	2	Ach Range
ACHOFFSETENABLE	TOGGLE	F	Ach Offset Enable
ACHOFFSET	QUANT	0	Ach Offset (V)
ACHFILTER	IQUANT	3	Ach Filter
IERANGELOWERLIMIT	IQUANT	1	I/E Range Lower Limit
IERANGEMODE	TOGGLE	F	I/E AutoRange
IERANGE	IQUANT	8	I/E Range
POSFEEDENABLE	TOGGLE	F	Positive Feedback IR Comp
POSFEEDRESISTANCE	QUANT	0	Positive Feedback Resistance (ohm)
ACHSELECT	IQUANT	0	Ach Select
CABLEID	IQUANT	14	Cable ID
DCCALDATE	LABEL	2/27/2020	DC Calibration Date
ACCALDATE	LABEL	2/27/2020	AC Calibration Date
THERMOSELECT	IQUANT	1	Thermo Select
FRAMEWORKVERSION	QUANT	6.33	Framework Version
INSTRUMENTVERSION	LABEL	3.50	Instrument Version
ZCURVE	TABLE
	Pt	Time	Freq	Zreal	Zimag	Zsig	Zmod	Zphz	Idc	Vdc	IERange
	#	s	Hz	ohm	ohm	V	ohm	°	A	V	#
	0	1	1000078	1876.542	-2495.847	1	3122.605	-53.06174	8.865153E-008	0.1343167	8
	1	1	794390.6	2298.711	-2793.339	1	3617.57	-50.54815	4.003114E-008	0.1339774	8
	2	2	630984.4	2794.216	-3071.281	1	4152.157	-47.70443	1.515082E-008	0.1338218	8
	3	2	501234.4	3378.423	-3310.581	1	4730.083	-44.41891	5.230575E-008	0.1337312	8
	4	2	398109.4	4017.606	-3482.531	1	5316.877	-40.91932	7.347393E-008	0.1336691	8
	5	3	316265.6	4715.129	-3567.207	1	5912.479	-37.10915	4.581725E-008	0.1336374	8
	6	3	251203.1	5416.445	-3544.912	1	6473.352	-33.20363	2.751066E-008	0.1336428	8
	7	3	199546.9	6092.257	-3424.743	1	6988.881	-29.34238	5.442327E-008	0.1336253	8
	8	4	158578.1	6714.368	-3225.452	1	7448.911	-25.65872	8.964223E-008	0.1336287	8
	9	4	125953.1	7308.189	-2901.349	1	7863.044	-21.65306	1.701691E-009	0.1335761	7
	10	4	100078.1	7734.69	-2624.469	1	8167.819	-18.74267	1.833969E-009	0.1335599	7
	11	5	79453.13	8103.015	-2355.724	1	8438.5	-16.21031	1.727557E-009	0.1335488	7
	12	5	63140.62	8398.268	-2099.44	1	8656.705	-14.03543	1.758158E-009	0.1335463	7
	13	5	50203.12	8640.098	-1871.87	1	8840.542	-12.22417	1.833958E-009	0.1335384	7
	14	6	39890.62	8831.526	-1675.65	1	8989.086	-10.74331	9.883693E-010	0.1335326	7
	15	6	31640.63	8993.315	-1517.931	1	9120.518	-9.58034	1.341549E-009	0.1335382	7
	16	6	25171.88	9130.594	-1399.692	1	9237.255	-8.715416	2.000077E-009	0.1335342	7
	17	7	20015.62	9246.902	-1316.333	1	9340.125	-8.101846	2.088054E-009	0.1335353	7
	18	7	15890.62	9353.786	-1268.333	1	9439.385	-7.721967	2.294649E-009	0.1335377	7
	19	7	12609.37	9489.929	-1168.222	1	9561.56	-7.017877	-4.909473E-011	0.1335902	6
	20	8	10078.13	9578.38	-1203.949	1	9653.75	-7.164192	-6.002648E-011	0.1335882	6
	21	8	8015.625	9670.94	-1273.501	1	9754.42	-7.501739	-8.722023E-011	0.1335895	6
	22	8	6328.125	9769.42	-1382.301	1	9866.73	-8.05347	1.051591E-010	0.1335931	6
	23	9	5015.625	9872.74	-1529.284	1	9990.48	-8.805119	-4.072528E-010	0.1335883	6
	24	9	3984.375	9983.56	-1719.474	1	10130.56	-9.77221	-1.137825E-010	0.1335869	6
	25	9	3170.956	10102.96	-1960.445	1	10291.41	-10.98158	-2.847452E-010	0.1335835	6
	26	9	2527.573	10226.93	-2259.92	1	10473.65	-12.46082	-3.447545E-010	0.1335844	6
	27	10	1976.103	10375.44	-2666.855	1	10712.7	-14.41499	-2.394265E-010	0.1335834	6
	28	10	1577.524	10530.28	-3132.874	1	10986.43	-16.56832	-1.512972E-010	0.133583	6
	29	10	1265.625	10696.62	-3691.346	1	11315.64	-19.03928	-2.266055E-010	0.1335799	6
	30	11	998.264	10900.33	-4436.284	1	11768.51	-22.14565	-2.507815E-010	0.133587	6
	31	11	796.875	11127.45	-5305.102	1	12327.38	-25.48985	-2.897456E-010	0.1335836	6
	32	11	627.7902	11410.11	-6441.285	1	13102.7	-29.44578	-1.981734E-010	0.1335781	6
	33	12	505.5147	11716.65	-7704.517	1	14022.82	-33.32773	-3.485068E-010	0.133579	6
	34	12	397.9953	12116.57	-9413.522	1	15343.58	-37.84411	3.888702E-010	0.1335934	6
	35	12	315.5048	12597.87	-11454.56	1	17026.84	-42.27855	4.574326E-010	0.1335924	6
	36	13	252.4038	13163.04	-13847.47	1	19105.45	-46.45152	2.799503E-010	0.1335882	6
	37	13	198.6229	13917.97	-16987.5	1	21960.99	-50.67201	3.610162E-010	0.1335945	6
	38	13	158.3615	14807.73	-20612.3	1	25379.84	-54.3068	4.066877E-010	0.1335914	6
	39	14	125.558	15945.88	-25127.94	1	29760.45	-57.60129	3.5523E-010	0.1335901	6
	40	14	100.4464	17302	-30385.6	1	34966.32	-60.34218	3.92412E-010	0.1335883	6
	41	14	79.00281	19125.87	-37265.16	1	41886.65	-62.83142	3.305699E-010	0.1335859	6
	42	15	63.3446	21215.98	-44938.07	1	49694.55	-64.72726	2.658652E-010	0.1335838	6
	43	15	49.86702	24051.04	-55019.82	1	60046.93	-66.38822	3.203966E-010	0.1335826	6
	44	15	39.72458	27449.73	-66654.63	1	72085.56	-67.61714	4.505837E-010	0.1335864	6
	45	16	31.6723	31748.11	-80666.52	1	86689.27	-68.51678	3.409927E-010	0.1335856	6
	46	16	24.93351	37623.89	-98570.8	1	105507.2	-69.10844	6.652565E-010	0.1335841	6
	47	16	19.86229	44950.55	-119025.4	1	127230.5	-69.3107	4.464736E-010	0.1335936	5
	48	17	15.83615	54410.05	-143411.2	1	153385.9	-69.22332	2.124761E-010	0.1335891	5
	49	17	12.40079	68001.74	-174591.6	1	187367.2	-68.71957	8.476822E-010	0.1335924	5
	50	17	9.93114	83856.05	-207525.5	1	223827.3	-67.99755	8.080456E-010	0.1335961	5
	51	18	7.944915	104236.7	-245999.5	1	267172.3	-67.0363	-1.71803E-010	0.1335891	5
	52	18	6.317385	130468.2	-290646	1	318586	-65.82514	3.942355E-011	0.1335861	5
	53	19	5.008013	163570.7	-341392.7	1	378555.6	-64.39963	2.120857E-010	0.1335926	5
	54	20	3.945707	205251.1	-399641.5	1	449267.6	-62.81551	1.347037E-010	0.133585	5
	55	21	3.158693	250173.6	-459040.5	1	522785.8	-61.40995	8.433022E-011	0.1336038	5
	56	22	2.504006	305109.4	-527938.2	1	609762.6	-59.97525	-1.240076E-010	0.1335839	5
	57	23	1.998082	363464.4	-600915.8	1	702286.4	-58.83232	-3.03893E-011	0.1335863	5
	58	25	1.584686	433662.9	-686304.4	1	811835.8	-57.71197	4.651862E-011	0.1336243	5
	59	26	1.266892	506919.1	-781646.3	1	931631.9	-57.03548	5.069542E-011	0.1336108	5
	60	29	0.999041	595324	-897004.8	1	1076582	-56.42857	1.639015E-011	0.1335888	4
