EXPLAIN
TAG	EISPOT
TITLE	LABEL	Potentiostatic EIS	Test &Identifier
DATE	LABEL	1/21/2020	Date
TIME	LABEL	18:18:56	Time
NOTES	NOTES	6	&Notes...
	
	
	
	
	
	
PSTAT	PSTAT	REF600-11020	Potentiostat
VDC	POTEN	0.00000E+000	T	DC &Voltage (V)
FREQINIT	QUANT	1.00000E+006	Initial Fre&q. (Hz)
FREQFINAL	QUANT	1.00000E+000	Final Fre&q. (Hz)
PTSPERDEC	QUANT	1.00000E+001	Points/&decade
VAC	QUANT	2.50000E+001	AC &Voltage (mV rms)
AREA	QUANT	1.00000E-001	&Area (cm^2)
CONDIT	TWOPARAM	F	5.00000E+000	0.00000E+000	Conditionin&g	Time(s)	E(V)
DELAY	TWOPARAM	F	5.00000E+000	0.00000E+000	Init. De&lay	Time(s)	Stab.(mV/s)
SPEED	SELECTOR	0	&Optimize for:
ZGUESS	QUANT	5.00000E+002	E&stimated Z (ohms)
OCVCURVE	TABLE	39
	Pt	T	Vf	Vm	Ach	Over
	#	s	V vs. Ref.	V	V	bits
	0	0.258333	-3.84095E-002	-3.84095E-002	6.68013E-004	...........
	1	0.516667	-3.84099E-002	-3.84311E-002	6.69713E-004	...........
	2	0.775	-3.84186E-002	-3.87764E-002	6.67879E-004	...........
	3	1.03333	-3.84526E-002	-3.85108E-002	6.68479E-004	...........
	4	1.29167	-3.85082E-002	-3.85017E-002	6.68813E-004	...........
	5	1.55	-3.85513E-002	-3.85952E-002	6.75079E-004	...........
	6	1.80833	-3.85661E-002	-3.86770E-002	6.69413E-004	...........
	7	2.06667	-3.85796E-002	-3.88634E-002	6.70713E-004	...........
	8	2.325	-3.86212E-002	-3.87734E-002	6.72179E-004	...........
	9	2.58333	-3.86891E-002	-3.89231E-002	6.68979E-004	...........
	10	2.84167	-3.87622E-002	-3.89403E-002	6.71079E-004	...........
	11	3.1	-3.88235E-002	-3.87452E-002	6.69079E-004	...........
	12	3.35833	-3.88551E-002	-3.86585E-002	6.74346E-004	...........
	13	3.61667	-3.88448E-002	-3.89421E-002	6.74813E-004	...........
	14	3.875	-3.88218E-002	-3.91265E-002	6.72279E-004	...........
	15	4.13333	-3.88393E-002	-3.90064E-002	6.75313E-004	...........
	16	4.39167	-3.88998E-002	-3.87521E-002	6.71746E-004	...........
	17	4.65	-3.89402E-002	-3.86081E-002	6.69913E-004	...........
	18	4.90833	-3.89090E-002	-3.87310E-002	6.70046E-004	...........
	19	5.16667	-3.88236E-002	-3.85583E-002	6.67913E-004	...........
	20	5.425	-3.87358E-002	-3.87035E-002	6.74079E-004	...........
	21	5.68333	-3.86780E-002	-3.86853E-002	6.71579E-004	...........
	22	5.94167	-3.86588E-002	-3.88073E-002	6.72146E-004	...........
	23	6.2	-3.86738E-002	-3.87423E-002	6.72779E-004	...........
	24	6.45833	-3.87050E-002	-3.86768E-002	6.69279E-004	...........
	25	6.71667	-3.87253E-002	-3.85989E-002	6.68013E-004	...........
	26	6.975	-3.87163E-002	-3.86034E-002	6.72479E-004	...........
	27	7.23333	-3.86819E-002	-3.85709E-002	6.75379E-004	...........
	28	7.49167	-3.86441E-002	-3.87557E-002	6.70413E-004	...........
	29	7.75	-3.86278E-002	-3.87042E-002	6.69446E-004	...........
	30	8.00833	-3.86409E-002	-3.86540E-002	6.68513E-004	...........
	31	8.26667	-3.86679E-002	-3.87980E-002	6.69979E-004	...........
	32	8.525	-3.86940E-002	-3.87874E-002	6.66913E-004	...........
	33	8.78333	-3.87212E-002	-3.87953E-002	6.71313E-004	...........
	34	9.04167	-3.87508E-002	-3.88066E-002	6.72846E-004	...........
	35	9.3	-3.87764E-002	-3.88298E-002	6.74146E-004	...........
	36	9.5583	-3.87956E-002	-3.88414E-002	6.74513E-004	...........
	37	9.8167	-3.88116E-002	-3.88720E-002	6.69146E-004	...........
	38	10.075	-3.88272E-002	-3.88497E-002	6.78913E-004	...........
EOC	QUANT	-0.0388272	Open Circuit (V)
PSTATMODEL	IQUANT	4	Pstat Model
PSTATSECTION	LABEL	REF600-11020	Pstat Section
PSTATSERIALNO	LABEL	11020	Pstat Serial Number
CTRLMODE	IQUANT	1	Control Mode
IESTAB	IQUANT	0	I/E Stability
CASPEED	IQUANT	1	Control Amp Speed
CONVENTION	IQUANT	1	Current Convention
ICHRANGE	IQUANT	2	Ich Range
ICHRANGEMODE	TOGGLE	F	Ich Auto Range
ICHOFFSETENABLE	TOGGLE	T	Ich Offset Enable
ICHOFFSET	QUANT	0	Ich Offset (V)
ICHFILTER	IQUANT	3	Ich Filter
VCHRANGE	IQUANT	2	Vch Range
VCHRANGEMODE	TOGGLE	F	Vch Auto Range
VCHOFFSETENABLE	TOGGLE	T	Vch Offset Enable
VCHOFFSET	QUANT	0	Vch Offset (V)
VCHFILTER	IQUANT	3	Vch Filter
ACHRANGE	IQUANT	2	Ach Range
ACHOFFSETENABLE	TOGGLE	F	Ach Offset Enable
ACHOFFSET	QUANT	0	Ach Offset (V)
ACHFILTER	IQUANT	3	Ach Filter
IERANGELOWERLIMIT	IQUANT	1	I/E Range Lower Limit
IERANGEMODE	TOGGLE	F	I/E AutoRange
IERANGE	IQUANT	8	I/E Range
POSFEEDENABLE	TOGGLE	F	Positive Feedback IR Comp
POSFEEDRESISTANCE	QUANT	0	Positive Feedback Resistance (ohm)
ACHSELECT	IQUANT	0	Ach Select
CABLEID	IQUANT	14	Cable ID
DCCALDATE	LABEL	12/22/2019	DC Calibration Date
ACCALDATE	LABEL	12/22/2019	AC Calibration Date
THERMOSELECT	IQUANT	1	Thermo Select
FRAMEWORKVERSION	QUANT	6.33	Framework Version
INSTRUMENTVERSION	LABEL	3.50	Instrument Version
ZCURVE	TABLE
	Pt	Time	Freq	Zreal	Zimag	Zsig	Zmod	Zphz	Idc	Vdc	IERange
	#	s	Hz	ohm	ohm	V	ohm	°	A	V	#
	0	1	1000078	3623.67	-4417.597	1	5713.681	-50.63863	-1.169021E-006	-0.0362064	8
	1	1	794390.6	4309.008	-4692.931	1	6371.119	-47.44213	-2.543362E-006	-0.0361892	8
	2	1	630984.4	5076.464	-5069.607	1	7174.357	-44.96128	-2.60936E-006	-0.0363797	8
	3	2	501234.4	5857.374	-5393.052	1	7962.024	-42.63666	-1.318096E-006	-0.0367492	8
	4	3	398109.4	6659.219	-5660.789	1	8740.121	-40.3668	-8.269957E-007	-0.0368682	8
	5	3	316265.6	7517.373	-5989.448	1	9611.68	-38.54599	2.668518E-006	-0.0376031	8
	6	3	251203.1	8420.51	-6230.677	1	10475.03	-36.49924	1.584923E-006	-0.0374307	8
	7	4	199546.9	9420.963	-6643.183	1	11527.64	-35.18954	-8.037526E-007	-0.0369273	8
	8	4	158578.1	10569.96	-7002.051	1	12678.83	-33.52241	-7.664583E-007	-0.0369493	8
	9	5	125953.1	11623.73	-7131.988	1	13637.32	-31.53209	1.286853E-007	-0.0373463	7
	10	5	100078.1	12701.05	-7448.271	1	14723.91	-30.38862	5.632998E-008	-0.037184	7
	11	5	79453.13	13901.02	-7669.933	1	15876.59	-28.88786	-2.778321E-008	-0.0371585	7
	12	6	63140.62	15142.14	-7851.406	1	17056.64	-27.40736	3.600689E-008	-0.0372862	7
	13	6	50203.12	16383.1	-7952.801	1	18211.34	-25.8932	-3.012243E-008	-0.0371639	7
	14	6	39890.62	17628.22	-8008.949	1	19362.27	-24.4335	1.703149E-008	-0.0372457	7
	15	7	31640.63	18833.93	-8037.5	1	20477.26	-23.11068	3.747881E-008	-0.0372899	7
	16	7	25171.88	19988.5	-8069.057	1	21555.74	-21.98319	6.200074E-008	-0.0372895	7
	17	7	20015.62	21096.88	-8105.252	1	22600.3	-21.01638	-1.372207E-008	-0.0371502	7
	18	8	15890.62	22199.17	-8204.917	1	23666.94	-20.28455	6.490067E-008	-0.0373139	7
	19	8	12609.37	23363.33	-8269.954	1	24783.81	-19.49252	-4.670435E-009	-0.0370451	6
	20	8	10078.13	24402.09	-8470.172	1	25830.33	-19.14232	2.334517E-009	-0.0371409	6
	21	9	8015.625	25498.36	-8767.503	1	26963.59	-18.97532	-6.550518E-009	-0.0371054	6
	22	9	6328.125	26670.05	-9154.113	1	28197.33	-18.94405	-5.554458E-009	-0.0370759	6
	23	9	5015.625	27841.96	-9611.14	1	29454.18	-19.04485	1.357079E-008	-0.0374152	6
	24	9	3984.375	29063	-10138.12	1	30780.5	-19.23043	-6.802585E-009	-0.0371115	6
	25	10	3170.956	30329.43	-10764.74	1	32183.13	-19.54115	-2.967877E-009	-0.037204	6
	26	10	2527.573	31637.62	-11491.64	1	33660.02	-19.9624	-4.11693E-009	-0.0370578	6
	27	10	1976.103	33138.68	-12430.5	1	35393.35	-20.56134	-3.70547E-009	-0.037182	6
	28	11	1577.524	34586.52	-13285.01	1	37050.21	-21.01225	-1.683964E-009	-0.0372635	6
	29	11	1265.625	36051.79	-14609.33	1	38899.41	-22.05936	-5.506951E-009	-0.0371041	6
	30	11	998.264	37791.02	-16072.47	1	41066.85	-23.03999	-8.206271E-010	-0.0370947	6
	31	12	796.875	39545.99	-17719.49	1	43334.35	-24.13586	-1.581764E-009	-0.0372627	6
	32	12	627.7902	41551.03	-19746.79	1	46004.61	-25.41902	1.319644E-008	-0.0373523	6
	33	12	505.5147	43520.13	-21941.6	1	48738.44	-26.75593	-5.576804E-009	-0.0371061	6
	34	13	397.9953	45925.28	-24759.97	1	52174.59	-28.33071	2.938469E-010	-0.0371809	6
	35	13	315.5048	48485.92	-28007.81	1	55993.95	-30.01281	9.065551E-010	-0.0371819	6
	36	13	252.4038	51192.87	-31696.35	1	60211.03	-31.76396	8.736591E-010	-0.0371841	6
	37	14	198.6229	54464.89	-36383.2	1	65499.32	-33.7434	5.134007E-010	-0.037181	6
	38	14	158.3615	57961.4	-41656.19	1	71377.6	-35.70436	6.063741E-010	-0.0371809	6
	39	14	125.558	62044.2	-47963.56	1	78421.84	-37.70599	6.926308E-010	-0.0371824	6
	40	15	100.4464	66684.56	-54960.32	1	86414.51	-39.49479	5.146645E-010	-0.037185	6
	41	15	79.00281	72207.08	-63856.08	1	96392.2	-41.48783	1.831282E-010	-0.0371875	6
	42	15	63.3446	78640.39	-74832.52	1	108555.1	-43.5787	2.525334E-010	-0.0371941	5
	43	16	49.86702	85627.41	-86791.95	1	121921.7	-45.38697	-2.90535E-010	-0.0371971	5
	44	16	39.72458	93984.89	-99508.7	1	136876.4	-46.63523	1.568413E-010	-0.0371946	5
	45	16	31.6723	103459.2	-115184.2	1	154826.4	-48.0696	3.695416E-010	-0.0371946	5
	46	17	24.93351	114949.9	-135092.2	1	177379.2	-49.60555	8.608472E-011	-0.0371909	5
	47	17	19.86229	128001.5	-156869.5	1	202465.9	-50.78642	1.369249E-011	-0.0371971	5
	48	17	15.83615	141581.2	-183190.4	1	231525.3	-52.30086	2.392795E-011	-0.0372001	5
	49	18	12.40079	163157.8	-214736.1	1	269688.8	-52.7722	8.703035E-011	-0.0371892	5
	50	18	9.93114	184647.4	-248688.3	1	309742.7	-53.40667	5.544577E-010	-0.0371903	5
	51	18	7.944915	211292.4	-286819.6	1	356244.2	-53.62191	2.973627E-010	-0.0371972	5
	52	19	6.317385	242896.5	-333226.9	1	412357.7	-53.91086	3.813549E-010	-0.0372032	5
	53	20	5.008013	281740.7	-386024.7	1	477904.7	-53.87611	1.932857E-010	-0.0372085	5
	54	21	3.945707	328815.1	-447653.6	1	555439.6	-53.70159	2.728106E-010	-0.0371878	5
	55	22	3.158693	382063.8	-511804.9	1	638683.8	-53.25856	5.673294E-011	-0.0371957	5
	56	24	2.504006	447047	-586037.8	1	737082.9	-52.66254	1.186201E-010	-0.0372048	5
	57	25	1.998082	521697.6	-665122.2	1	845314.1	-51.89066	2.551293E-010	-0.0371536	5
	58	27	1.584686	609142.3	-752523.4	1	968166	-51.011	1.712932E-010	-0.0371915	5
	59	29	1.266892	709669.4	-844412.9	1	1103025	-49.95532	1.282786E-010	-0.0371878	4
	60	31	0.999041	830964.5	-948934.2	1	1261340	-48.79195	8.150221E-011	-0.0372065	4
