EXPLAIN
TAG	EISPOT
TITLE	LABEL	Potentiostatic EIS	Test &Identifier
DATE	LABEL	1/7/2020	Date
TIME	LABEL	16:27:08	Time
NOTES	NOTES	5	&Notes...
	
	
	
	
	
PSTAT	PSTAT	REF600-11020	Potentiostat
VDC	POTEN	0.00000E+000	T	DC &Voltage (V)
FREQINIT	QUANT	1.00000E+006	Initial Fre&q. (Hz)
FREQFINAL	QUANT	1.00000E+000	Final Fre&q. (Hz)
PTSPERDEC	QUANT	1.00000E+001	Points/&decade
VAC	QUANT	2.50000E+001	AC &Voltage (mV rms)
AREA	QUANT	1.00000E-001	&Area (cm^2)
CONDIT	TWOPARAM	T	5.00000E+000	0.00000E+000	Conditionin&g	Time(s)	E(V)
DELAY	TWOPARAM	T	5.00000E+000	0.00000E+000	Init. De&lay	Time(s)	Stab.(mV/s)
SPEED	SELECTOR	0	&Optimize for:
ZGUESS	QUANT	1.00000E+003	E&stimated Z (ohms)
OCVCURVE	TABLE	19
	Pt	T	Vf	Vm	Ach	Over
	#	s	V vs. Ref.	V	V	bits
	0	0.258333	1.87900E-003	1.87900E-003	6.44813E-004	...........
	1	0.516667	1.87498E-003	1.66847E-003	6.45780E-004	...........
	2	0.775	1.85031E-003	1.47046E-003	6.46880E-004	...........
	3	1.03333	1.78070E-003	1.28419E-003	6.42513E-004	...........
	4	1.29167	1.65671E-003	1.10776E-003	6.49080E-004	...........
	5	1.55	1.49296E-003	9.45790E-004	6.40213E-004	...........
	6	1.80833	1.31342E-003	7.94159E-004	6.49046E-004	...........
	7	2.06667	1.13600E-003	6.55052E-004	6.44280E-004	...........
	8	2.325	9.69061E-004	5.17117E-004	6.44713E-004	...........
	9	2.58333	8.14101E-004	3.90626E-004	6.49980E-004	...........
	10	2.84167	6.69553E-004	2.68291E-004	6.45180E-004	...........
	11	3.1	5.33453E-004	1.50619E-004	6.45646E-004	...........
	12	3.35833	4.04212E-004	3.12337E-005	6.43113E-004	...........
	13	3.61667	2.79973E-004	-9.76317E-005	6.41413E-004	...........
	14	3.875	1.58433E-004	-2.03816E-004	6.39180E-004	...........
	15	4.13333	3.89433E-005	-2.85610E-004	6.44413E-004	...........
	16	4.39167	-7.63608E-005	-4.16543E-004	6.45580E-004	...........
	17	4.65	-1.87137E-004	-5.51898E-004	6.44213E-004	...........
	18	4.90833	-2.97801E-004	-6.44496E-004	6.38146E-004	...........
EOC	QUANT	-0.0002978	Open Circuit (V)
PSTATMODEL	IQUANT	4	Pstat Model
PSTATSECTION	LABEL	REF600-11020	Pstat Section
PSTATSERIALNO	LABEL	11020	Pstat Serial Number
CTRLMODE	IQUANT	1	Control Mode
IESTAB	IQUANT	0	I/E Stability
CASPEED	IQUANT	1	Control Amp Speed
CONVENTION	IQUANT	1	Current Convention
ICHRANGE	IQUANT	2	Ich Range
ICHRANGEMODE	TOGGLE	F	Ich Auto Range
ICHOFFSETENABLE	TOGGLE	T	Ich Offset Enable
ICHOFFSET	QUANT	0	Ich Offset (V)
ICHFILTER	IQUANT	3	Ich Filter
VCHRANGE	IQUANT	2	Vch Range
VCHRANGEMODE	TOGGLE	F	Vch Auto Range
VCHOFFSETENABLE	TOGGLE	T	Vch Offset Enable
VCHOFFSET	QUANT	0	Vch Offset (V)
VCHFILTER	IQUANT	3	Vch Filter
ACHRANGE	IQUANT	2	Ach Range
ACHOFFSETENABLE	TOGGLE	F	Ach Offset Enable
ACHOFFSET	QUANT	0	Ach Offset (V)
ACHFILTER	IQUANT	3	Ach Filter
IERANGELOWERLIMIT	IQUANT	1	I/E Range Lower Limit
IERANGEMODE	TOGGLE	F	I/E AutoRange
IERANGE	IQUANT	5	I/E Range
POSFEEDENABLE	TOGGLE	F	Positive Feedback IR Comp
POSFEEDRESISTANCE	QUANT	0	Positive Feedback Resistance (ohm)
ACHSELECT	IQUANT	0	Ach Select
CABLEID	IQUANT	14	Cable ID
DCCALDATE	LABEL	12/22/2019	DC Calibration Date
ACCALDATE	LABEL	12/22/2019	AC Calibration Date
THERMOSELECT	IQUANT	1	Thermo Select
FRAMEWORKVERSION	QUANT	6.33	Framework Version
INSTRUMENTVERSION	LABEL	3.50	Instrument Version
ZCURVE	TABLE
	Pt	Time	Freq	Zreal	Zimag	Zsig	Zmod	Zphz	Idc	Vdc	IERange
	#	s	Hz	ohm	ohm	V	ohm	°	A	V	#
	0	1	1000078	2028.45	-1140.707	1	2327.192	-29.35138	-8.108459E-006	0.0025535	8
	1	1	794390.6	2207.178	-1140.808	1	2484.568	-27.33275	3.011927E-006	0.001753	8
	2	2	630984.4	2380.431	-1101.901	1	2623.097	-24.83942	-4.31821E-006	0.0024319	8
	3	2	501234.4	2544.395	-1079.866	1	2764.065	-22.99684	1.540544E-006	0.0011701	8
	4	2	398109.4	2677.443	-1069.604	1	2883.184	-21.77607	5.209755E-006	0.000153	8
	5	3	316265.6	2839.683	-1026.516	1	3019.526	-19.8744	-3.312554E-006	0.0018573	8
	6	3	251203.1	2996.601	-1009.12	1	3161.952	-18.6112	1.149916E-006	0.0011796	8
	7	3	199546.9	3154.429	-984.448	1	3304.476	-17.33232	-6.114262E-007	0.0016254	8
	8	3	158578.1	3308.546	-966.964	1	3446.955	-16.29166	1.292971E-006	0.0010767	8
	9	4	125953.1	3495.465	-882.1561	1	3605.062	-14.16406	4.741608E-007	0.0011685	7
	10	4	100078.1	3634.344	-829.0752	1	3727.71	-12.85055	-7.165738E-008	0.0015366	7
	11	4	79453.13	3766.009	-785.1335	1	3846.98	-11.77629	-5.084359E-008	0.0013039	7
	12	5	63140.62	3884.125	-731.8005	1	3952.462	-10.66991	-7.106361E-009	0.001251	7
	13	5	50203.12	3985.572	-676.6495	1	4042.603	-9.6355	-7.838641E-008	0.0013759	7
	14	5	39890.62	4071.322	-622.9534	1	4118.705	-8.699363	1.241035E-008	0.0014091	7
	15	6	31640.63	4142.632	-577.2655	1	4182.659	-7.932942	1.069357E-007	0.0012338	7
	16	6	25171.88	4203.059	-540.9024	1	4237.721	-7.333234	1.132381E-007	0.0010929	7
	17	6	20015.62	4258.172	-515.3922	1	4289.249	-6.901284	-5.8187E-009	0.0012429	7
	18	7	15890.62	4301.156	-501.9961	1	4330.352	-6.656981	-6.185956E-009	0.0012463	7
	19	7	12609.37	4345.209	-501.8712	1	4374.096	-6.588462	1.143867E-007	0.0010902	7
	20	7	10078.13	4382.045	-516.346	1	4412.361	-6.7203	1.422464E-008	0.0014087	7
	21	8	8015.625	4418.773	-546.6591	1	4452.459	-7.052391	9.83205E-008	0.0010821	7
	22	8	6328.125	4459.366	-592.0857	1	4498.5	-7.563127	1.286979E-008	0.0014044	7
	23	8	5015.625	4501.492	-656.5733	1	4549.123	-8.298463	1.805799E-008	0.0011699	7
	24	9	3984.375	4541.84	-744.3367	1	4602.429	-9.307148	-3.201446E-008	0.0012486	7
	25	9	3170.956	4589.98	-853.8643	1	4668.726	-10.53815	-3.550088E-008	0.0012681	7
	26	9	2527.573	4636.823	-992.944	1	4741.947	-12.08695	-1.555627E-009	0.001326	7
	27	9	1976.103	4699.366	-1183.795	1	4846.175	-14.13894	-8.386995E-008	0.0014195	7
	28	10	1577.524	4770.033	-1398.485	1	4970.813	-16.34016	-3.871573E-009	0.0012411	7
	29	10	1265.625	4834.342	-1662.479	1	5112.21	-18.97755	1.077983E-007	0.0012212	7
	30	10	998.264	4926.394	-2004.752	1	5318.683	-22.14342	-8.237703E-008	0.0014156	7
	31	11	796.875	5025.651	-2406.707	1	5572.199	-25.58905	5.814E-008	0.0010907	7
	32	11	627.7902	5153.855	-2932.781	1	5929.875	-29.64187	5.644742E-008	0.0012059	7
	33	11	505.5147	5295.826	-3517.496	1	6357.558	-33.59217	-7.806521E-008	0.0013577	7
	34	12	397.9953	5486.491	-4308.337	1	6975.912	-38.14123	7.504054E-009	0.0012792	7
	35	12	315.5048	5719.389	-5253.58	1	7766.048	-42.56922	7.336589E-009	0.0012773	7
	36	12	252.4038	6002.526	-6361.118	1	8746.093	-46.66132	7.320793E-009	0.0012748	7
	37	13	198.6229	6394.795	-7812.437	1	10095.92	-50.69829	9.873207E-010	0.0012784	6
	38	13	158.3615	6872.191	-9484.516	1	11712.52	-54.07405	9.62314E-010	0.0012757	6
	39	13	125.558	7512.135	-11557.25	1	13784.13	-56.9764	6.523753E-010	0.001278	6
	40	14	100.4464	8312.164	-13958.84	1	16246.27	-59.22719	3.809078E-011	0.0012777	6
	41	14	79.00281	9429.099	-17039.9	1	19474.76	-61.04187	6.463899E-010	0.001277	6
	42	14	63.3446	10884.37	-20344.9	1	23073.45	-61.85355	2.584813E-010	0.0012744	6
	43	15	49.86702	12772.74	-24648.64	1	27761.45	-62.60715	3.958453E-010	0.0012741	6
	44	15	39.72458	15055.95	-29381.86	1	33014.77	-62.86835	5.986085E-010	0.0012782	6
	45	15	31.6723	17976.73	-34741.2	1	39116.67	-62.64082	4.948554E-010	0.0012777	6
	46	16	24.93351	21804.99	-41270.99	1	46677.1	-62.15085	2.124041E-009	0.001271	6
	47	16	19.86229	26201.91	-48264.6	1	54918.23	-61.50333	3.397806E-009	0.0012843	6
	48	16	15.83615	31488.05	-55962.4	1	64212.83	-60.63509	-1.612986E-009	0.0012754	6
	49	17	12.40079	38208.61	-65251.56	1	75615.24	-59.64853	6.075335E-010	0.0012781	6
	50	17	9.93114	45195.72	-74678.91	1	87290.28	-58.81765	2.416805E-012	0.0012826	6
	51	17	7.944915	53205.97	-84816.42	1	100123.4	-57.89965	-5.238712E-010	0.0012817	5
	52	18	6.317385	61565.33	-97494.4	1	115305.9	-57.72859	1.341502E-009	0.0012631	5
	53	18	5.008013	71185.38	-111894.7	1	132618.9	-57.53622	9.952662E-010	0.001284	5
	54	19	3.945707	81723.8	-128798.6	1	152538.1	-57.60454	4.852429E-010	0.0012719	5
	55	20	3.158693	92270.87	-148215.8	1	174590.5	-58.09592	6.942564E-010	0.0012802	5
	56	22	2.504006	104059.3	-172378.6	1	201352.3	-58.88199	6.584978E-010	0.0012788	5
	57	23	1.998082	116424.7	-200812	1	232121	-59.89615	2.300567E-010	0.0012322	5
	58	25	1.584686	130368.4	-235965.7	1	269584.3	-61.07984	4.437657E-010	0.0012634	5
	59	27	1.266892	146802.5	-278140.8	1	314504.8	-62.17495	4.974255E-010	0.0012958	5
	60	29	0.999041	167244.8	-333287	1	372895.5	-63.35231	5.185309E-010	0.0013078	5
