EXPLAIN
TAG	EISPOT
TITLE	LABEL	Potentiostatic EIS	Test &Identifier
DATE	LABEL	1/10/2020	Date
TIME	LABEL	13:04:44	Time
NOTES	NOTES	5	&Notes...
	
	
	
	
	
PSTAT	PSTAT	REF600-11020	Potentiostat
VDC	POTEN	0.00000E+000	T	DC &Voltage (V)
FREQINIT	QUANT	1.00000E+006	Initial Fre&q. (Hz)
FREQFINAL	QUANT	1.00000E+000	Final Fre&q. (Hz)
PTSPERDEC	QUANT	1.00000E+001	Points/&decade
VAC	QUANT	2.50000E+001	AC &Voltage (mV rms)
AREA	QUANT	1.00000E-001	&Area (cm^2)
CONDIT	TWOPARAM	T	5.00000E+000	0.00000E+000	Conditionin&g	Time(s)	E(V)
DELAY	TWOPARAM	T	5.00000E+000	0.00000E+000	Init. De&lay	Time(s)	Stab.(mV/s)
SPEED	SELECTOR	0	&Optimize for:
ZGUESS	QUANT	5.00000E+002	E&stimated Z (ohms)
OCVCURVE	TABLE	19
	Pt	T	Vf	Vm	Ach	Over
	#	s	V vs. Ref.	V	V	bits
	0	0.258333	1.15465E-002	1.15465E-002	6.46813E-004	...........
	1	0.516667	1.15527E-002	1.18695E-002	6.42846E-004	...........
	2	0.775	1.15912E-002	1.22068E-002	6.39080E-004	...........
	3	1.03333	1.17013E-002	1.24956E-002	6.41280E-004	...........
	4	1.29167	1.19003E-002	1.28188E-002	6.44646E-004	...........
	5	1.55	1.21669E-002	1.30824E-002	6.43480E-004	...........
	6	1.80833	1.24649E-002	1.33735E-002	6.41546E-004	...........
	7	2.06667	1.27664E-002	1.36297E-002	6.38580E-004	...........
	8	2.325	1.30585E-002	1.38981E-002	6.37546E-004	...........
	9	2.58333	1.33385E-002	1.41317E-002	6.38013E-004	...........
	10	2.84167	1.36067E-002	1.43744E-002	6.39413E-004	...........
	11	3.1	1.38636E-002	1.45926E-002	6.41513E-004	...........
	12	3.35833	1.41097E-002	1.48106E-002	6.43946E-004	...........
	13	3.61667	1.43451E-002	1.50153E-002	6.45780E-004	...........
	14	3.875	1.45704E-002	1.52088E-002	6.48713E-004	...........
	15	4.13333	1.47860E-002	1.54048E-002	6.47980E-004	...........
	16	4.39167	1.49928E-002	1.55941E-002	6.48846E-004	...........
	17	4.65	1.51922E-002	1.57691E-002	6.44346E-004	...........
	18	4.90833	1.53854E-002	1.59492E-002	6.43213E-004	...........
EOC	QUANT	0.0153854	Open Circuit (V)
PSTATMODEL	IQUANT	4	Pstat Model
PSTATSECTION	LABEL	REF600-11020	Pstat Section
PSTATSERIALNO	LABEL	11020	Pstat Serial Number
CTRLMODE	IQUANT	1	Control Mode
IESTAB	IQUANT	0	I/E Stability
CASPEED	IQUANT	1	Control Amp Speed
CONVENTION	IQUANT	1	Current Convention
ICHRANGE	IQUANT	2	Ich Range
ICHRANGEMODE	TOGGLE	F	Ich Auto Range
ICHOFFSETENABLE	TOGGLE	T	Ich Offset Enable
ICHOFFSET	QUANT	0	Ich Offset (V)
ICHFILTER	IQUANT	3	Ich Filter
VCHRANGE	IQUANT	2	Vch Range
VCHRANGEMODE	TOGGLE	F	Vch Auto Range
VCHOFFSETENABLE	TOGGLE	T	Vch Offset Enable
VCHOFFSET	QUANT	0	Vch Offset (V)
VCHFILTER	IQUANT	3	Vch Filter
ACHRANGE	IQUANT	2	Ach Range
ACHOFFSETENABLE	TOGGLE	F	Ach Offset Enable
ACHOFFSET	QUANT	0	Ach Offset (V)
ACHFILTER	IQUANT	3	Ach Filter
IERANGELOWERLIMIT	IQUANT	1	I/E Range Lower Limit
IERANGEMODE	TOGGLE	F	I/E AutoRange
IERANGE	IQUANT	7	I/E Range
POSFEEDENABLE	TOGGLE	F	Positive Feedback IR Comp
POSFEEDRESISTANCE	QUANT	0	Positive Feedback Resistance (ohm)
ACHSELECT	IQUANT	0	Ach Select
CABLEID	IQUANT	14	Cable ID
DCCALDATE	LABEL	12/22/2019	DC Calibration Date
ACCALDATE	LABEL	12/22/2019	AC Calibration Date
THERMOSELECT	IQUANT	1	Thermo Select
FRAMEWORKVERSION	QUANT	6.33	Framework Version
INSTRUMENTVERSION	LABEL	3.50	Instrument Version
ZCURVE	TABLE
	Pt	Time	Freq	Zreal	Zimag	Zsig	Zmod	Zphz	Idc	Vdc	IERange
	#	s	Hz	ohm	ohm	V	ohm	°	A	V	#
	0	1	1000078	2359.974	-2005.54	1	3097.042	-40.35836	1.827789E-007	0.0179024	8
	1	1	794390.6	2758.264	-2030.922	1	3425.298	-36.36438	2.168962E-006	0.0171433	8
	2	2	630984.4	3154.029	-1975.863	1	3721.819	-32.06537	-2.588521E-006	0.0177409	8
	3	2	501234.4	3541.268	-1865.772	1	4002.71	-27.7832	-4.898659E-008	0.0172266	8
	4	2	398109.4	3877.083	-1706.517	1	4236.033	-23.75693	3.186714E-006	0.0166567	8
	5	3	316265.6	4108.461	-1524.623	1	4382.229	-20.35956	-7.680816E-007	0.0173038	8
	6	3	251203.1	4330.161	-1358.045	1	4538.125	-17.4127	-6.301325E-008	0.017163	8
	7	3	199546.9	4498.762	-1186.364	1	4652.56	-14.77309	1.903545E-006	0.0167643	8
	8	4	158578.1	4651.873	-1041.162	1	4766.963	-12.61578	-1.092967E-007	0.0171504	8
	9	4	125953.1	4759.337	-886.184	1	4841.137	-10.54763	-4.011881E-007	0.0181446	7
	10	4	100078.1	4825.647	-789.4244	1	4889.792	-9.290685	7.533102E-009	0.0170155	7
	11	5	79453.13	4894.699	-716.8624	1	4946.916	-8.332125	-3.43476E-008	0.0171821	7
	12	5	63140.62	4955.331	-664.8523	1	4999.733	-7.641687	1.161932E-009	0.0170864	7
	13	5	50203.12	5010.246	-630.5201	1	5049.765	-7.172746	-3.368186E-008	0.0170916	7
	14	6	39890.62	5062.074	-612.6076	1	5099.008	-6.900327	4.206106E-009	0.0171186	7
	15	6	31640.63	5111.632	-613.0589	1	5148.264	-6.83905	8.619217E-009	0.0170036	7
	16	6	25171.88	5164.72	-626.517	1	5202.582	-6.916587	-3.362562E-008	0.0170949	7
	17	6	20015.62	5213.342	-657.0436	1	5254.583	-7.183182	5.304244E-008	0.0169638	7
	18	7	15890.62	5273.879	-705.9949	1	5320.923	-7.624647	-2.217874E-008	0.0171007	7
	19	7	12609.37	5335.068	-771.1738	1	5390.516	-8.225024	-1.069904E-008	0.0170412	7
	20	7	10078.13	5397.863	-853.2485	1	5464.884	-8.98251	8.208705E-008	0.0169382	7
	21	8	8015.625	5467.867	-958.113	1	5551.176	-9.93882	-3.164098E-008	0.0170914	7
	22	8	6328.125	5544.175	-1093.165	1	5650.919	-11.15413	-1.82204E-008	0.0170982	7
	23	8	5015.625	5628.272	-1256.101	1	5766.736	-12.58093	8.216204E-008	0.0169327	7
	24	9	3984.375	5718.441	-1453.912	1	5900.375	-14.26518	1.874543E-009	0.017112	7
	25	9	3170.956	5809.038	-1700.189	1	6052.732	-16.31369	2.896687E-008	0.0169667	7
	26	9	2527.573	5913.625	-1999.572	1	6242.536	-18.68192	-1.656903E-008	0.0170463	7
	27	10	1976.103	6040.935	-2401.678	1	6500.842	-21.68115	1.442189E-009	0.0171107	7
	28	10	1577.524	6167.701	-2870.373	1	6802.909	-24.9567	-1.754587E-008	0.017044	7
	29	10	1265.625	6326.32	-3394.946	1	7179.692	-28.21971	3.20515E-008	0.0170126	7
	30	11	998.264	6520.471	-4112.726	1	7709.154	-32.24129	-1.700201E-008	0.0170449	7
	31	11	796.875	6740.233	-4939.788	1	8356.569	-36.23697	-2.914541E-008	0.0170681	7
	32	11	627.7902	7017.438	-6010.506	1	9239.622	-40.58038	2.053035E-009	0.0171102	7
	33	12	505.5147	7324.701	-7192.504	1	10265.64	-44.47827	-5.896998E-009	0.0170976	6
	34	12	397.9953	7729.646	-8778.05	1	11696.22	-48.63398	3.6241E-010	0.0170524	6
	35	12	315.5048	8204.59	-10663.37	1	13454.47	-52.42467	4.084983E-010	0.0170538	6
	36	13	252.4038	8757.543	-12866.17	1	15563.83	-55.75827	-1.72008E-010	0.0170503	6
	37	13	198.6229	9474.234	-15749.93	1	18379.92	-58.97136	4.589338E-010	0.0170509	6
	38	13	158.3615	10324.39	-19102.75	1	21714.24	-61.61028	5.899466E-010	0.0170463	6
	39	14	125.558	11381.1	-23292.44	1	25924.26	-63.95904	4.167629E-010	0.0170495	6
	40	14	100.4464	12710.94	-28170.99	1	30905.87	-65.71478	1.000938E-009	0.0170499	6
	41	14	79.00281	14576.13	-34641.14	1	37582.87	-67.17986	1.520647E-010	0.0170487	6
	42	15	63.3446	16212.72	-41922.79	1	44948.56	-68.85712	7.315289E-011	0.0170485	6
	43	15	49.86702	19396.67	-51254.96	1	54802.39	-69.2716	-2.260942E-010	0.017046	6
	44	15	39.72458	23588.65	-62035.44	1	66368.82	-69.18095	4.515337E-010	0.017049	6
	45	16	31.6723	28780.83	-74714.17	1	80065.87	-68.93269	6.059707E-010	0.017047	6
	46	16	24.93351	35637.41	-90440.08	1	97208.2	-68.49335	2.329538E-010	0.0170476	6
	47	16	19.86229	44241.08	-108009.4	1	116718.9	-67.7258	6.391876E-010	0.0170484	5
	48	16	15.83615	55145.34	-127475.1	1	138891.8	-66.60685	-6.273485E-010	0.0170486	5
	49	17	12.40079	71565.32	-152158.8	1	168148.4	-64.81084	5.40065E-010	0.0170486	5
	50	17	9.93114	87590.54	-177581.3	1	198008.1	-63.74555	-8.487422E-010	0.0170483	5
	51	18	7.944915	107931.8	-205271	1	231916.9	-62.26455	-3.287409E-010	0.0170385	5
	52	18	6.317385	132625.4	-236333.2	1	271003.4	-60.69973	-2.903347E-010	0.0170466	5
	53	19	5.008013	161990.7	-270882.9	1	315624.1	-59.12015	-4.438392E-010	0.017034	5
	54	20	3.945707	196633	-310474.7	1	367503.8	-57.65268	-1.639757E-011	0.0170451	5
	55	22	3.158693	233008.2	-350563	1	420936.2	-56.38927	-3.259872E-010	0.0170487	5
	56	23	2.504006	275871.8	-397136.5	1	483552.1	-55.21414	-3.719337E-010	0.0170402	5
	57	25	1.998082	321626.1	-446053.5	1	549915.5	-54.20658	-8.313743E-011	0.017081	5
	58	26	1.584686	372155.5	-504649.8	1	627033.6	-53.59297	-5.531526E-011	0.0170821	5
	59	28	1.266892	425442.9	-567020.7	1	708882.3	-53.11863	-1.251553E-010	0.0170476	5
	60	31	0.999041	488609.4	-643038.3	1	807612.2	-52.7708	-9.581031E-011	0.0170192	5
