EXPLAIN
TAG	EISPOT
TITLE	LABEL	Potentiostatic EIS	Test &Identifier
DATE	LABEL	6/1/2020	Date
TIME	LABEL	14:03:49	Time
NOTES	NOTES	1	&Notes...
	
PSTAT	PSTAT	REF600-11020	Potentiostat
VDC	POTEN	0.00000E+000	T	DC &Voltage (V)
FREQINIT	QUANT	1.00000E+006	Initial Fre&q. (Hz)
FREQFINAL	QUANT	1.00000E+000	Final Fre&q. (Hz)
PTSPERDEC	QUANT	1.00000E+001	Points/&decade
VAC	QUANT	2.50000E+001	AC &Voltage (mV rms)
AREA	QUANT	4.00000E-004	&Area (cm^2)
CONDIT	TWOPARAM	F	5.00000E+000	0.00000E+000	Conditionin&g	Time(s)	E(V)
DELAY	TWOPARAM	T	3.00000E+000	0.00000E+000	Init. De&lay	Time(s)	Stab.(mV/s)
SPEED	SELECTOR	0	&Optimize for:
ZGUESS	QUANT	1.00000E+003	E&stimated Z (ohms)
OCVCURVE	TABLE	12
	Pt	T	Vf	Vm	Ach	Over
	#	s	V vs. Ref.	V	V	bits
	0	0.258333	9.18821E-002	9.18821E-002	5.93563E-004	...........
	1	0.516667	9.18821E-002	9.18813E-002	5.92996E-004	...........
	2	0.775	9.18820E-002	9.18799E-002	5.92596E-004	...........
	3	1.03333	9.18816E-002	9.18746E-002	5.91963E-004	...........
	4	1.29167	9.18804E-002	9.18682E-002	5.91396E-004	...........
	5	1.55	9.18778E-002	9.18580E-002	5.92230E-004	...........
	6	1.80833	9.18733E-002	9.18487E-002	5.90430E-004	...........
	7	2.06667	9.18668E-002	9.18384E-002	5.89163E-004	...........
	8	2.325	9.18586E-002	9.18290E-002	5.89796E-004	...........
	9	2.58333	9.18493E-002	9.18189E-002	5.89496E-004	...........
	10	2.84167	9.18395E-002	9.18064E-002	5.90963E-004	...........
	11	3.1	9.18293E-002	9.17961E-002	5.88696E-004	...........
EOC	QUANT	0.0918293	Open Circuit (V)
PSTATMODEL	IQUANT	4	Pstat Model
PSTATSECTION	LABEL	REF600-11020	Pstat Section
PSTATSERIALNO	LABEL	11020	Pstat Serial Number
CTRLMODE	IQUANT	1	Control Mode
IESTAB	IQUANT	0	I/E Stability
CASPEED	IQUANT	1	Control Amp Speed
CONVENTION	IQUANT	1	Current Convention
ICHRANGE	IQUANT	2	Ich Range
ICHRANGEMODE	TOGGLE	F	Ich Auto Range
ICHOFFSETENABLE	TOGGLE	T	Ich Offset Enable
ICHOFFSET	QUANT	0	Ich Offset (V)
ICHFILTER	IQUANT	3	Ich Filter
VCHRANGE	IQUANT	2	Vch Range
VCHRANGEMODE	TOGGLE	F	Vch Auto Range
VCHOFFSETENABLE	TOGGLE	T	Vch Offset Enable
VCHOFFSET	QUANT	0	Vch Offset (V)
VCHFILTER	IQUANT	3	Vch Filter
ACHRANGE	IQUANT	2	Ach Range
ACHOFFSETENABLE	TOGGLE	F	Ach Offset Enable
ACHOFFSET	QUANT	0	Ach Offset (V)
ACHFILTER	IQUANT	3	Ach Filter
IERANGELOWERLIMIT	IQUANT	1	I/E Range Lower Limit
IERANGEMODE	TOGGLE	F	I/E AutoRange
IERANGE	IQUANT	8	I/E Range
POSFEEDENABLE	TOGGLE	F	Positive Feedback IR Comp
POSFEEDRESISTANCE	QUANT	0	Positive Feedback Resistance (ohm)
ACHSELECT	IQUANT	0	Ach Select
CABLEID	IQUANT	14	Cable ID
DCCALDATE	LABEL	2/27/2020	DC Calibration Date
ACCALDATE	LABEL	2/27/2020	AC Calibration Date
THERMOSELECT	IQUANT	1	Thermo Select
FRAMEWORKVERSION	QUANT	6.33	Framework Version
INSTRUMENTVERSION	LABEL	3.50	Instrument Version
ZCURVE	TABLE
	Pt	Time	Freq	Zreal	Zimag	Zsig	Zmod	Zphz	Idc	Vdc	IERange
	#	s	Hz	ohm	ohm	V	ohm	°	A	V	#
	0	1	1000078	1732.775	-938.271	1	1970.498	-28.43486	1.0053E-007	0.0939497	8
	1	1	794390.6	1880.626	-930.9428	1	2098.43	-26.33621	1.338848E-008	0.0936939	8
	2	2	630984.4	2021.706	-918.0165	1	2220.372	-24.42185	4.790735E-008	0.0935861	8
	3	2	501234.4	2158.105	-905.4937	1	2340.371	-22.76186	2.160898E-008	0.0934828	8
	4	2	398109.4	2289.411	-892.225	1	2457.126	-21.29177	4.610195E-008	0.0934511	8
	5	3	316265.6	2415.581	-881.4574	1	2571.381	-20.04727	4.226668E-008	0.0934341	8
	6	3	251203.1	2543.623	-871.3876	1	2688.742	-18.9103	3.414953E-008	0.0934137	8
	7	3	199546.9	2661.67	-864.4654	1	2798.533	-17.99292	8.204124E-009	0.093446	8
	8	4	158578.1	2780.033	-857.7473	1	2909.349	-17.14701	3.049627E-008	0.0934218	8
	9	4	125953.1	2923.469	-811.3642	1	3033.972	-15.51118	1.597361E-009	0.0933666	7
	10	4	100078.1	3023.843	-817.7489	1	3132.465	-15.13273	2.932547E-009	0.0933455	7
	11	4	79453.13	3131.027	-841.2164	1	3242.063	-15.03859	2.607506E-009	0.0933477	7
	12	5	63140.62	3240.326	-869.5944	1	3354.982	-15.0223	9.385158E-010	0.0933428	7
	13	5	50203.12	3351.373	-903.5798	1	3471.046	-15.089	1.571424E-009	0.0933444	7
	14	5	39890.62	3465.223	-944.8913	1	3591.739	-15.25251	1.991816E-009	0.0933387	7
	15	6	31640.63	3584.121	-996.349	1	3720.032	-15.53538	1.777699E-009	0.0933451	7
	16	6	25171.88	3703.953	-1056.13	1	3851.582	-15.91475	1.868397E-009	0.0933442	7
	17	6	20015.62	3830.256	-1128.373	1	3993.005	-16.41469	2.382501E-009	0.0933462	7
	18	7	15890.62	3961.058	-1214.517	1	4143.071	-17.04629	2.562245E-009	0.0933368	7
	19	7	12609.37	4097.246	-1319.624	1	4304.513	-17.85249	3.057647E-009	0.0933406	7
	20	7	10078.13	4234.222	-1442.272	1	4473.118	-18.81001	2.874796E-009	0.0933396	7
	21	8	8015.625	4382.698	-1593.5	1	4663.398	-19.9807	2.080958E-009	0.0933293	7
	22	8	6328.125	4547.822	-1786.009	1	4885.95	-21.4408	2.97955E-009	0.0933321	7
	23	8	5015.625	4727.558	-2016.134	1	5139.514	-23.09651	3.279605E-009	0.0933422	7
	24	9	3984.375	4928.107	-2289.007	1	5433.765	-24.91392	1.981067E-009	0.093341	7
	25	9	3170.956	5153.813	-2608.249	1	5776.223	-26.84312	2.335794E-009	0.0933356	7
	26	9	2527.573	5414.102	-2984.844	1	6182.378	-28.86835	3.248423E-009	0.0933395	7
	27	10	1976.103	5738.295	-3455.623	1	6698.459	-31.05651	4.651211E-009	0.0933426	7
	28	10	1577.524	6079.478	-3958.967	1	7254.893	-33.07225	3.378391E-009	0.0933387	7
	29	10	1265.625	6453.659	-4511.378	1	7874.15	-34.95516	2.677824E-009	0.0933358	7
	30	10	998.264	6905.708	-5213.843	1	8652.916	-37.05298	3.174798E-009	0.0933332	7
	31	11	796.875	7369.335	-5970.308	1	9484.286	-39.01285	2.087119E-009	0.0933309	7
	32	11	627.7902	7904.949	-6923.157	1	10508.01	-41.21189	4.053777E-010	0.0933902	6
	33	11	505.5147	8419.994	-7959.248	1	11586.45	-43.3887	-9.800696E-011	0.093389	6
	34	12	397.9953	9028.958	-9340.799	1	12991.25	-45.97255	3.750049E-010	0.0934041	6
	35	12	315.5048	9686.08	-10995.66	1	14653.49	-48.62314	3.558533E-010	0.0934041	6
	36	12	252.4038	10391.1	-12940.92	1	16596.46	-51.23677	4.014396E-010	0.0934002	6
	37	13	198.6229	11282.63	-15513.72	1	19182.63	-53.97281	4.104292E-010	0.0934054	6
	38	13	158.3615	12304.18	-18501.38	1	22219.22	-56.37446	3.359059E-010	0.0933968	6
	39	13	125.558	13595.61	-22227.64	1	26055.88	-58.54781	4.465502E-010	0.0934007	6
	40	14	100.4464	15158.73	-26551.89	1	30574.33	-60.27754	4.169682E-010	0.0933979	6
	41	14	79.00281	17304.53	-32157.55	1	36517.87	-61.71454	2.896813E-010	0.0933955	6
	42	14	63.3446	19829.92	-38303.03	1	43131.75	-62.62887	3.680714E-010	0.0933948	6
	43	15	49.86702	23328.11	-46174.26	1	51732.61	-63.19623	1.129509E-010	0.0933942	6
	44	15	39.72458	27570.23	-54947.41	1	61476.3	-63.35448	1.553347E-010	0.0933975	6
	45	15	31.6723	32888.15	-65059.76	1	72899.95	-63.18309	1.119619E-011	0.093397	6
	46	16	24.93351	39909.91	-77304.28	1	86998.58	-62.69403	1.050596E-010	0.093391	6
	47	16	19.86229	48112.49	-90622.68	1	102602.5	-62.03572	-5.794488E-010	0.093394	6
	48	16	15.83615	58010.8	-105347.2	1	120263.4	-61.16005	1.363695E-009	0.0933924	5
	49	17	12.40079	70689.77	-123131.4	1	141980.2	-60.13985	6.30227E-010	0.0933917	5
	50	17	9.93114	84128.74	-140997.4	1	164188.7	-59.1768	1.006256E-009	0.0933915	5
	51	17	7.944915	98891.2	-161201.9	1	189117.8	-58.47247	8.550788E-010	0.0933922	5
	52	18	6.317385	116307.8	-184421.3	1	218033.8	-57.76186	4.60979E-011	0.0934003	5
	53	18	5.008013	135458.9	-211239.6	1	250940.8	-57.32968	2.915942E-010	0.0934037	5
	54	19	3.945707	157169.1	-243387.5	1	289723.3	-57.14737	2.366685E-010	0.0933898	5
	55	20	3.158693	178867.7	-278759.8	1	331210.9	-57.31353	2.337276E-010	0.0934108	5
	56	21	2.504006	204614.3	-322789.9	1	382178.4	-57.62967	-6.036132E-012	0.0934008	5
	57	23	1.998082	232090.4	-373890.6	1	440068.3	-58.1703	4.181551E-011	0.0933903	5
	58	24	1.584686	266704.3	-436382.2	1	511430	-58.56792	1.459455E-010	0.0934283	5
	59	26	1.266892	305730.3	-510022.9	1	594638	-59.05966	1.472682E-010	0.0934217	5
	60	29	0.999041	355063.1	-601324.9	1	698327.6	-59.43951	1.541973E-010	0.0934101	5
