EXPLAIN
TAG	EISPOT
TITLE	LABEL	Potentiostatic EIS	Test &Identifier
DATE	LABEL	9/11/2020	Date
TIME	LABEL	20:22:36	Time
NOTES	NOTES	1	&Notes...
	
PSTAT	PSTAT	REF600-11020	Potentiostat
VDC	POTEN	0.00000E+000	T	DC &Voltage (V)
FREQINIT	QUANT	1.00000E+006	Initial Fre&q. (Hz)
FREQFINAL	QUANT	1.00000E+000	Final Fre&q. (Hz)
PTSPERDEC	QUANT	1.00000E+001	Points/&decade
VAC	QUANT	2.50000E+001	AC &Voltage (mV rms)
AREA	QUANT	4.00000E-005	&Area (cm^2)
CONDIT	TWOPARAM	F	5.00000E+000	0.00000E+000	Conditionin&g	Time(s)	E(V)
DELAY	TWOPARAM	F	3.00000E+000	0.00000E+000	Init. De&lay	Time(s)	Stab.(mV/s)
SPEED	SELECTOR	0	&Optimize for:
ZGUESS	QUANT	1.00000E+003	E&stimated Z (ohms)
OCVCURVE	TABLE	39
	Pt	T	Vf	Vm	Ach	Over
	#	s	V vs. Ref.	V	V	bits
	0	0.258333	-1.34413E-001	-1.34413E-001	5.80058E-004	...........
	1	0.516667	-1.34411E-001	-1.34330E-001	5.74725E-004	...........
	2	0.775	-1.34402E-001	-1.34249E-001	5.75758E-004	...........
	3	1.03333	-1.34374E-001	-1.34167E-001	5.81825E-004	...........
	4	1.29167	-1.34323E-001	-1.34087E-001	5.81758E-004	...........
	5	1.55	-1.34255E-001	-1.34013E-001	5.74925E-004	...........
	6	1.80833	-1.34177E-001	-1.33951E-001	5.78058E-004	...........
	7	2.06667	-1.34100E-001	-1.33891E-001	5.83925E-004	...........
	8	2.325	-1.34027E-001	-1.33835E-001	5.79692E-004	...........
	9	2.58333	-1.33960E-001	-1.33776E-001	5.75092E-004	...........
	10	2.84167	-1.33898E-001	-1.33724E-001	5.77258E-004	...........
	11	3.1	-1.33839E-001	-1.33673E-001	5.82058E-004	...........
	12	3.35833	-1.33783E-001	-1.33622E-001	5.79125E-004	...........
	13	3.61667	-1.33730E-001	-1.33578E-001	5.75392E-004	...........
	14	3.875	-1.33678E-001	-1.33539E-001	5.79725E-004	...........
	15	4.13333	-1.33630E-001	-1.33506E-001	5.83858E-004	...........
	16	4.39167	-1.33586E-001	-1.33469E-001	5.77325E-004	...........
	17	4.65	-1.33545E-001	-1.33442E-001	5.77025E-004	...........
	18	4.90833	-1.33509E-001	-1.33413E-001	5.79092E-004	...........
	19	5.16667	-1.33475E-001	-1.33391E-001	5.79325E-004	...........
	20	5.425	-1.33445E-001	-1.33366E-001	5.80225E-004	...........
	21	5.68333	-1.33418E-001	-1.33337E-001	5.74525E-004	...........
	22	5.94167	-1.33392E-001	-1.33310E-001	5.74992E-004	...........
	23	6.2	-1.33366E-001	-1.33283E-001	5.75758E-004	...........
	24	6.45833	-1.33339E-001	-1.33259E-001	5.71192E-004	...........
	25	6.71667	-1.33313E-001	-1.33241E-001	5.75692E-004	...........
	26	6.975	-1.33288E-001	-1.33227E-001	5.82525E-004	...........
	27	7.23333	-1.33265E-001	-1.33206E-001	5.81292E-004	...........
	28	7.49167	-1.33244E-001	-1.33187E-001	5.75325E-004	...........
	29	7.75	-1.33226E-001	-1.33173E-001	5.74425E-004	...........
	30	8.00833	-1.33208E-001	-1.33162E-001	5.77692E-004	...........
	31	8.26667	-1.33191E-001	-1.33146E-001	5.79492E-004	...........
	32	8.525	-1.33176E-001	-1.33134E-001	5.69292E-004	...........
	33	8.78333	-1.33162E-001	-1.33128E-001	5.67525E-004	...........
	34	9.04167	-1.33149E-001	-1.33120E-001	5.77058E-004	...........
	35	9.3	-1.33138E-001	-1.33112E-001	5.73892E-004	...........
	36	9.5583	-1.33129E-001	-1.33103E-001	5.73192E-004	...........
	37	9.8167	-1.33120E-001	-1.33092E-001	5.73292E-004	...........
	38	10.075	-1.33112E-001	-1.33083E-001	5.77225E-004	...........
EOC	QUANT	-0.1331117	Open Circuit (V)
PSTATMODEL	IQUANT	4	Pstat Model
PSTATSECTION	LABEL	REF600-11020	Pstat Section
PSTATSERIALNO	LABEL	11020	Pstat Serial Number
CTRLMODE	IQUANT	1	Control Mode
IESTAB	IQUANT	0	I/E Stability
CASPEED	IQUANT	1	Control Amp Speed
CONVENTION	IQUANT	1	Current Convention
ICHRANGE	IQUANT	2	Ich Range
ICHRANGEMODE	TOGGLE	F	Ich Auto Range
ICHOFFSETENABLE	TOGGLE	T	Ich Offset Enable
ICHOFFSET	QUANT	0	Ich Offset (V)
ICHFILTER	IQUANT	3	Ich Filter
VCHRANGE	IQUANT	2	Vch Range
VCHRANGEMODE	TOGGLE	F	Vch Auto Range
VCHOFFSETENABLE	TOGGLE	T	Vch Offset Enable
VCHOFFSET	QUANT	0	Vch Offset (V)
VCHFILTER	IQUANT	3	Vch Filter
ACHRANGE	IQUANT	2	Ach Range
ACHOFFSETENABLE	TOGGLE	F	Ach Offset Enable
ACHOFFSET	QUANT	0	Ach Offset (V)
ACHFILTER	IQUANT	3	Ach Filter
IERANGELOWERLIMIT	IQUANT	1	I/E Range Lower Limit
IERANGEMODE	TOGGLE	F	I/E AutoRange
IERANGE	IQUANT	8	I/E Range
POSFEEDENABLE	TOGGLE	F	Positive Feedback IR Comp
POSFEEDRESISTANCE	QUANT	0	Positive Feedback Resistance (ohm)
ACHSELECT	IQUANT	0	Ach Select
CABLEID	IQUANT	14	Cable ID
DCCALDATE	LABEL	9/1/2020	DC Calibration Date
ACCALDATE	LABEL	9/1/2020	AC Calibration Date
THERMOSELECT	IQUANT	1	Thermo Select
FRAMEWORKVERSION	QUANT	6.33	Framework Version
INSTRUMENTVERSION	LABEL	3.50	Instrument Version
ZCURVE	TABLE
	Pt	Time	Freq	Zreal	Zimag	Zsig	Zmod	Zphz	Idc	Vdc	IERange
	#	s	Hz	ohm	ohm	V	ohm	°	A	V	#
	0	1	1000078	2265.626	-2317.603	1	3241.041	-45.64975	-6.939305E-009	-0.130702	8
	1	2	794390.6	2688.504	-2440.802	1	3631.193	-42.23524	1.126742E-007	-0.1310554	8
	2	2	630984.4	3125.305	-2521.338	1	4015.554	-38.89484	6.05583E-008	-0.1312512	8
	3	2	501234.4	3557.268	-2563.879	1	4384.932	-35.78195	6.834411E-008	-0.1313687	8
	4	3	398109.4	3970.062	-2584.554	1	4737.226	-33.06456	8.241627E-008	-0.1314161	8
	5	3	316265.6	4378.406	-2592.996	1	5088.622	-30.63502	6.657049E-008	-0.1314678	8
	6	3	251203.1	4768.064	-2589.692	1	5425.95	-28.50783	1.13047E-007	-0.1314985	8
	7	4	199546.9	5149.878	-2597.901	1	5768.044	-26.76906	5.909991E-008	-0.1314723	8
	8	4	158578.1	5526.556	-2610.906	1	6112.254	-25.28741	3.895807E-008	-0.1314619	8
	9	4	125953.1	5955.757	-2592.839	1	6495.68	-23.5259	2.245822E-008	-0.1314742	7
	10	5	100078.1	6336.717	-2605.547	1	6851.486	-22.3516	5.470788E-009	-0.1314799	7
	11	5	79453.13	6725.25	-2632.228	1	7222.023	-21.37512	6.680809E-009	-0.1314798	7
	12	5	63140.62	7120.352	-2651.451	1	7598	-20.42415	1.007207E-009	-0.1315027	7
	13	6	50203.12	7520.02	-2671.783	1	7980.546	-19.55959	4.51472E-009	-0.1315039	7
	14	6	39890.62	7923.622	-2679.548	1	8364.434	-18.6841	3.563324E-009	-0.1315006	7
	15	6	31640.63	8333.531	-2682.083	1	8754.502	-17.84037	4.82366E-009	-0.1315121	7
	16	6	25171.88	8734.421	-2673.419	1	9134.4	-17.01823	5.892394E-009	-0.1315048	7
	17	7	20015.62	9127.469	-2661.771	1	9507.67	-16.25785	4.624724E-009	-0.1315103	7
	18	7	15890.62	9514.54	-2642.071	1	9874.57	-15.51932	5.35765E-009	-0.1315147	7
	19	7	12609.37	9952.54	-2539.164	1	10271.33	-14.3124	3.16286E-010	-0.1315213	6
	20	8	10078.13	10285.1	-2538.735	1	10593.79	-13.86551	8.215095E-010	-0.1315031	6
	21	8	8015.625	10606.56	-2548.532	1	10908.44	-13.51084	3.030817E-011	-0.1315213	6
	22	8	6328.125	10922.33	-2584.434	1	11223.93	-13.31244	5.73355E-010	-0.1315226	6
	23	9	5015.625	11215.07	-2650.781	1	11524.08	-13.29831	-4.202023E-010	-0.1315045	6
	24	9	3984.375	11497.77	-2762.385	1	11824.95	-13.50949	-7.922844E-011	-0.1315239	6
	25	9	3170.956	11782.59	-2923.466	1	12139.86	-13.93468	1.422021E-010	-0.1315236	6
	26	10	2527.573	12061.57	-3139.268	1	12463.4	-14.58872	-2.331509E-010	-0.1315304	6
	27	10	1976.103	12377.37	-3452.863	1	12849.96	-15.58729	1.504873E-010	-0.1315227	6
	28	10	1577.524	12680.28	-3818.588	1	13242.78	-16.75935	3.353534E-010	-0.1315264	6
	29	11	1265.625	12995.23	-4264.139	1	13676.95	-18.16627	6.727366E-010	-0.1315371	6
	30	11	998.264	13360.97	-4858.597	1	14216.94	-19.98334	1.854367E-011	-0.1315286	6
	31	11	796.875	13755.76	-5547.226	1	14832.15	-21.96253	-4.934992E-010	-0.1315319	6
	32	12	627.7902	14209.71	-6439.164	1	15600.6	-24.37777	6.580312E-010	-0.131538	6
	33	12	505.5147	14672	-7419.309	1	16441.22	-26.82472	1.568895E-010	-0.1315339	6
	34	12	397.9953	15242.75	-8729.513	1	17565.48	-29.79973	4.716927E-010	-0.1315195	6
	35	13	315.5048	15868.17	-10284.22	1	18909.37	-32.94743	4.499326E-010	-0.1315225	6
	36	13	252.4038	16561.09	-12097.8	1	20509.18	-36.14796	4.213418E-010	-0.1315286	6
	37	13	198.6229	17430.55	-14464.75	1	22650.67	-39.6876	3.953649E-010	-0.1315234	6
	38	13	158.3615	18409.66	-17186.88	1	25185.4	-43.03261	5.530655E-010	-0.1315314	6
	39	14	125.558	19611.97	-20562.63	1	28415.69	-46.35556	5.357924E-010	-0.1315258	6
	40	14	100.4464	21020.57	-24480.34	1	32266.88	-49.34825	3.267152E-010	-0.1315274	6
	41	14	79.00281	22880.92	-29565.47	1	37385.2	-52.26347	4.323054E-010	-0.1315314	6
	42	15	63.3446	25000.53	-35198.79	1	43173.84	-54.61509	4.994994E-010	-0.1315366	6
	43	15	49.86702	27867.92	-42506.28	1	50827.2	-56.75039	6.690442E-010	-0.1315382	6
	44	16	39.72458	31294.71	-50818	1	59681.05	-58.37443	7.696369E-010	-0.131531	6
	45	16	31.6723	35603.91	-60621.6	1	70303.75	-59.57369	1.026825E-009	-0.1315345	6
	46	16	24.93351	41406.8	-72869.95	1	83812.6	-60.39351	-8.584175E-011	-0.1315379	6
	47	17	19.86229	48422.22	-86542.73	1	99168.3	-60.7722	6.131703E-010	-0.1315361	6
	48	17	15.83615	57346.54	-102178.1	1	117170.8	-60.69707	-1.109844E-009	-0.1315461	5
	49	17	12.40079	69504.44	-121698.7	1	140148	-60.2685	-1.662359E-009	-0.131533	5
	50	17	9.93114	83322.41	-141361.5	1	164090.5	-59.48371	-1.671266E-009	-0.1315418	5
	51	18	7.944915	99960.4	-163515.3	1	191649	-58.56166	-7.925144E-010	-0.1315362	5
	52	18	6.317385	120877.9	-188028.8	1	223531.5	-57.26429	-4.834807E-011	-0.1315379	5
	53	19	5.008013	145715.9	-214686.4	1	259467.5	-55.83375	-5.130974E-010	-0.1315503	5
	54	20	3.945707	175530.8	-243890.8	1	300489.3	-54.25704	-2.485278E-010	-0.1315375	5
	55	21	3.158693	205883.1	-272541.8	1	341565.3	-52.93193	-2.289406E-010	-0.1315578	5
	56	22	2.504006	241366.1	-304336.9	1	388430.9	-51.58248	2.867415E-010	-0.1315597	5
	57	23	1.998082	276715.6	-338141.7	1	436934	-50.70509	2.018838E-010	-0.1315528	5
	58	25	1.584686	317069.5	-376281.1	1	492057.5	-49.88117	-1.88359E-011	-0.1315915	5
	59	27	1.266892	357549.1	-420258.2	1	551777.4	-49.60938	-3.763947E-011	-0.1315913	5
	60	29	0.999041	402339.5	-474072.5	1	621789.2	-49.67914	-2.291909E-011	-0.1315735	5
