EXPLAIN
TAG	EISPOT
TITLE	LABEL	Potentiostatic EIS	Test &Identifier
DATE	LABEL	2/11/2020	Date
TIME	LABEL	12:53:45	Time
NOTES	NOTES	6	&Notes...
	
	
	
	
	
	
PSTAT	PSTAT	REF600-11020	Potentiostat
VDC	POTEN	0.00000E+000	T	DC &Voltage (V)
FREQINIT	QUANT	1.00000E+006	Initial Fre&q. (Hz)
FREQFINAL	QUANT	1.00000E+000	Final Fre&q. (Hz)
PTSPERDEC	QUANT	1.00000E+001	Points/&decade
VAC	QUANT	2.50000E+001	AC &Voltage (mV rms)
AREA	QUANT	4.00000E-005	&Area (cm^2)
CONDIT	TWOPARAM	F	5.00000E+000	0.00000E+000	Conditionin&g	Time(s)	E(V)
DELAY	TWOPARAM	F	5.00000E+000	0.00000E+000	Init. De&lay	Time(s)	Stab.(mV/s)
SPEED	SELECTOR	0	&Optimize for:
ZGUESS	QUANT	1.00000E+003	E&stimated Z (ohms)
OCVCURVE	TABLE	39
	Pt	T	Vf	Vm	Ach	Over
	#	s	V vs. Ref.	V	V	bits
	0	0.258333	6.34557E-002	6.34557E-002	6.39803E-004	...........
	1	0.516667	6.34568E-002	6.35132E-002	6.40836E-004	...........
	2	0.775	6.34620E-002	6.34839E-002	6.46336E-004	...........
	3	1.03333	6.34706E-002	6.34240E-002	6.41336E-004	...........
	4	1.29167	6.34728E-002	6.33520E-002	6.47570E-004	...........
	5	1.55	6.34562E-002	6.33039E-002	6.45770E-004	...........
	6	1.80833	6.34151E-002	6.30772E-002	6.49403E-004	...........
	7	2.06667	6.33328E-002	6.23038E-002	6.42670E-004	...........
	8	2.325	6.31208E-002	5.98146E-002	6.45403E-004	...........
	9	2.58333	6.25921E-002	5.84699E-002	6.44236E-004	...........
	10	2.84167	6.16365E-002	5.85534E-002	6.43136E-004	...........
	11	3.1	6.04644E-002	5.91049E-002	6.43270E-004	...........
	12	3.35833	5.95147E-002	5.96840E-002	6.40903E-004	...........
	13	3.61667	5.90854E-002	6.00566E-002	6.47336E-004	...........
	14	3.875	5.91510E-002	6.03149E-002	6.46370E-004	...........
	15	4.13333	5.94863E-002	6.04258E-002	6.43203E-004	...........
	16	4.39167	5.98674E-002	6.05175E-002	6.44836E-004	...........
	17	4.65	6.01738E-002	6.06884E-002	6.45603E-004	...........
	18	4.90833	6.03878E-002	6.08252E-002	6.41836E-004	...........
	19	5.16667	6.05447E-002	6.09634E-002	6.41603E-004	...........
	20	5.425	6.06813E-002	6.10835E-002	6.40470E-004	...........
	21	5.68333	6.08135E-002	6.11844E-002	6.40670E-004	...........
	22	5.94167	6.09410E-002	6.12545E-002	6.41503E-004	...........
	23	6.2	6.10574E-002	6.13152E-002	6.35703E-004	...........
	24	6.45833	6.11568E-002	6.13670E-002	6.40003E-004	...........
	25	6.71667	6.12381E-002	6.14051E-002	6.38103E-004	...........
	26	6.975	6.13043E-002	6.14945E-002	6.43436E-004	...........
	27	7.23333	6.13653E-002	6.16869E-002	6.40270E-004	...........
	28	7.49167	6.14355E-002	6.16747E-002	6.43270E-004	...........
	29	7.75	6.15204E-002	6.17916E-002	6.40503E-004	...........
	30	8.00833	6.16053E-002	6.16034E-002	6.37803E-004	...........
	31	8.26667	6.16656E-002	6.16852E-002	6.46936E-004	...........
	32	8.525	6.16894E-002	6.17157E-002	6.44770E-004	...........
	33	8.78333	6.16918E-002	6.17449E-002	6.38737E-004	...........
	34	9.04167	6.16961E-002	6.17406E-002	6.39870E-004	...........
	35	9.3	6.17097E-002	6.17454E-002	6.41870E-004	...........
	36	9.5583	6.17259E-002	6.17640E-002	6.43370E-004	...........
	37	9.8167	6.17391E-002	6.17495E-002	6.43603E-004	...........
	38	10.075	6.17479E-002	6.17545E-002	6.44736E-004	...........
EOC	QUANT	0.0617479	Open Circuit (V)
PSTATMODEL	IQUANT	4	Pstat Model
PSTATSECTION	LABEL	REF600-11020	Pstat Section
PSTATSERIALNO	LABEL	11020	Pstat Serial Number
CTRLMODE	IQUANT	1	Control Mode
IESTAB	IQUANT	0	I/E Stability
CASPEED	IQUANT	1	Control Amp Speed
CONVENTION	IQUANT	1	Current Convention
ICHRANGE	IQUANT	2	Ich Range
ICHRANGEMODE	TOGGLE	F	Ich Auto Range
ICHOFFSETENABLE	TOGGLE	T	Ich Offset Enable
ICHOFFSET	QUANT	0	Ich Offset (V)
ICHFILTER	IQUANT	3	Ich Filter
VCHRANGE	IQUANT	2	Vch Range
VCHRANGEMODE	TOGGLE	F	Vch Auto Range
VCHOFFSETENABLE	TOGGLE	T	Vch Offset Enable
VCHOFFSET	QUANT	0	Vch Offset (V)
VCHFILTER	IQUANT	3	Vch Filter
ACHRANGE	IQUANT	2	Ach Range
ACHOFFSETENABLE	TOGGLE	F	Ach Offset Enable
ACHOFFSET	QUANT	0	Ach Offset (V)
ACHFILTER	IQUANT	3	Ach Filter
IERANGELOWERLIMIT	IQUANT	1	I/E Range Lower Limit
IERANGEMODE	TOGGLE	F	I/E AutoRange
IERANGE	IQUANT	8	I/E Range
POSFEEDENABLE	TOGGLE	F	Positive Feedback IR Comp
POSFEEDRESISTANCE	QUANT	0	Positive Feedback Resistance (ohm)
ACHSELECT	IQUANT	0	Ach Select
CABLEID	IQUANT	14	Cable ID
DCCALDATE	LABEL	1/27/2020	DC Calibration Date
ACCALDATE	LABEL	1/27/2020	AC Calibration Date
THERMOSELECT	IQUANT	1	Thermo Select
FRAMEWORKVERSION	QUANT	6.33	Framework Version
INSTRUMENTVERSION	LABEL	3.50	Instrument Version
ZCURVE	TABLE
	Pt	Time	Freq	Zreal	Zimag	Zsig	Zmod	Zphz	Idc	Vdc	IERange
	#	s	Hz	ohm	ohm	V	ohm	°	A	V	#
	0	1	1000078	1854.746	-2197.34	1	2875.48	-49.83273	6.186737E-006	0.0633498	8
	1	2	794390.6	2188.934	-2433.826	1	3273.369	-48.03243	3.848884E-006	0.0626639	8
	2	2	630984.4	2572.56	-2641.773	1	3687.415	-45.76048	4.509255E-007	0.0632184	8
	3	2	501234.4	3029.572	-2856.778	1	4164.071	-43.31857	2.550579E-006	0.062911	8
	4	3	398109.4	3473.667	-3047.786	1	4621.186	-41.26363	-3.529527E-006	0.0640317	8
	5	3	316265.6	4004.021	-3238.76	1	5149.927	-38.96859	1.847848E-006	0.0630331	8
	6	3	251203.1	4525.881	-3415.696	1	5670.148	-37.04196	-3.490593E-006	0.0639815	8
	7	3	199546.9	5096.359	-3534.562	1	6202.097	-34.74311	-1.231063E-006	0.063637	8
	8	4	158578.1	5699.456	-3611.436	1	6747.315	-32.36022	1.787899E-006	0.0628742	8
	9	4	125953.1	6305.802	-3651.902	1	7286.942	-30.07658	-8.274411E-008	0.0631995	7
	10	5	100078.1	6895.172	-3710.289	1	7830.048	-28.28468	1.332849E-007	0.063101	7
	11	5	79453.13	7477.291	-3733.869	1	8357.73	-26.53576	8.092611E-008	0.0631199	7
	12	5	63140.62	8048.272	-3753.571	1	8880.539	-25.00351	-1.723398E-008	0.0633332	7
	13	6	50203.12	8600.375	-3756.995	1	9385.173	-23.59767	4.320206E-008	0.0631417	7
	14	6	39890.62	9132.564	-3757.858	1	9875.49	-22.36613	2.460842E-008	0.0631833	7
	15	6	31640.63	9670.49	-3774.857	1	10381.13	-21.3231	-1.19067E-008	0.0634036	7
	16	7	25171.88	10169.52	-3802.606	1	10857.21	-20.50187	-2.873587E-008	0.0633873	7
	17	7	20015.62	10663.18	-3850.405	1	11337.07	-19.85431	-2.553654E-008	0.0632764	7
	18	7	15890.62	11158.49	-3949.037	1	11836.68	-19.48908	-4.020062E-010	0.0633076	7
	19	7	12609.37	11690.54	-3990.013	1	12352.68	-18.84492	-4.251203E-009	0.0633437	6
	20	8	10078.13	12158.66	-4165.855	1	12852.52	-18.91272	-7.612558E-009	0.0633474	6
	21	8	8015.625	12658.3	-4400.207	1	13401.29	-19.16818	3.376672E-009	0.0633096	6
	22	8	6328.125	13196.67	-4706.402	1	14010.79	-19.62805	-4.787023E-009	0.0633423	6
	23	9	5015.625	13760.03	-5073.991	1	14665.74	-20.24137	-1.555665E-009	0.0632633	6
	24	9	3984.375	14368.15	-5504.048	1	15386.3	-20.96049	-9.000209E-009	0.0633865	6
	25	9	3170.956	15022.4	-6004.162	1	16177.83	-21.78564	-7.842717E-009	0.063343	6
	26	10	2527.573	15727.15	-6569.458	1	17044.09	-22.67099	-8.202448E-009	0.0633362	6
	27	10	1976.103	16568.91	-7282.666	1	18098.79	-23.72731	-8.726739E-009	0.0633773	6
	28	10	1577.524	17368.94	-8020.69	1	19131.43	-24.78671	5.948101E-009	0.063282	6
	29	11	1265.625	18226.26	-8854.021	1	20263.03	-25.90973	-2.029632E-009	0.0632088	6
	30	11	998.264	19207.42	-9911.96	1	21614.16	-27.29593	8.094971E-009	0.0630746	6
	31	11	796.875	20220.81	-11100.43	1	23067.31	-28.76506	-1.432836E-009	0.0632537	6
	32	12	627.7902	21407.76	-12611.58	1	24846.41	-30.50288	-1.029574E-008	0.0633498	6
	33	12	505.5147	22605.59	-14226.85	1	26709.85	-32.1843	2.493435E-009	0.0631768	6
	34	12	397.9953	24132.34	-16366.09	1	29158.51	-34.14436	6.427218E-010	0.0632751	6
	35	13	315.5048	25860.03	-18797.63	1	31970.17	-36.01337	1.072479E-009	0.0632731	6
	36	13	252.4038	27783.96	-21484.27	1	35121.53	-37.71341	1.155069E-009	0.0632752	6
	37	13	198.6229	30212.73	-24792.76	1	39083.12	-39.37251	9.21055E-010	0.0632727	6
	38	14	158.3615	32873.62	-28338.89	1	43402.39	-40.76317	1.096521E-009	0.063268	6
	39	14	125.558	35927.07	-32465.38	1	48422.67	-42.10244	9.130667E-010	0.0632714	6
	40	14	100.4464	39290.95	-37037.51	1	53995.89	-43.30895	1.464031E-010	0.0632651	6
	41	15	79.00281	42998.98	-42646	1	60560.66	-44.76386	3.813053E-011	0.0632663	6
	42	15	63.3446	46197.41	-48007.34	1	66625.1	-46.10067	9.506467E-010	0.0632612	6
	43	15	49.86702	51199.37	-55477	1	75492.2	-47.29628	1.149717E-009	0.0632591	6
	44	16	39.72458	56308.04	-64674.06	1	85751.55	-48.95576	9.592445E-010	0.0632648	6
	45	16	31.6723	61466.38	-74790.23	1	96807.5	-50.58491	1.163949E-009	0.0632651	6
	46	16	24.93351	67969.77	-87905.73	1	111118.4	-52.28837	1.190923E-011	0.0632563	5
	47	17	19.86229	74518	-102946.1	1	127085.9	-54.10093	-2.201154E-010	0.0632625	5
	48	17	15.83615	82444.62	-122516.2	1	147673.1	-56.06227	5.3382E-010	0.0632607	5
	49	17	12.40079	92008.46	-144314	1	171149.4	-57.48016	1.322417E-009	0.0632626	5
	50	18	9.93114	104515	-171215.8	1	200594.7	-58.59893	1.628112E-010	0.0632559	5
	51	18	7.944915	118871.2	-202565	1	234867.9	-59.5943	-4.453081E-010	0.063265	5
	52	19	6.317385	137009.4	-240569	1	276848.3	-60.33753	-3.743249E-010	0.0632727	5
	53	20	5.008013	160678	-285653.9	1	327743.2	-60.6426	-1.747662E-010	0.0632486	5
	54	21	3.945707	192204.6	-338377.3	1	389155.3	-60.40261	1.513525E-010	0.0632456	5
	55	22	3.158693	226468.5	-395246.1	1	455529.8	-60.18811	1.781806E-010	0.0632657	5
	56	24	2.504006	270781.1	-459941.8	1	533731.1	-59.51344	-2.09285E-012	0.0632586	5
	57	25	1.998082	319401	-530589.8	1	619308.1	-58.95317	1.426802E-011	0.0632358	5
	58	26	1.584686	377934.7	-610152.3	1	717718.9	-58.22549	1.400535E-010	0.0632798	5
	59	28	1.266892	440486.1	-699809.5	1	826898.6	-57.81217	1.440141E-010	0.0632873	5
	60	31	0.999041	512017.1	-808868.9	1	957304	-57.66604	1.467395E-010	0.0632785	5
