EXPLAIN
TAG	EISPOT
TITLE	LABEL	Potentiostatic EIS	Test &Identifier
DATE	LABEL	3/12/2020	Date
TIME	LABEL	14:31:54	Time
NOTES	NOTES	1	&Notes...
	
PSTAT	PSTAT	REF600-11020	Potentiostat
VDC	POTEN	0.00000E+000	T	DC &Voltage (V)
FREQINIT	QUANT	1.00000E+006	Initial Fre&q. (Hz)
FREQFINAL	QUANT	1.00000E+000	Final Fre&q. (Hz)
PTSPERDEC	QUANT	1.00000E+001	Points/&decade
VAC	QUANT	2.50000E+001	AC &Voltage (mV rms)
AREA	QUANT	2.50000E-001	&Area (cm^2)
CONDIT	TWOPARAM	F	5.00000E+000	0.00000E+000	Conditionin&g	Time(s)	E(V)
DELAY	TWOPARAM	T	5.00000E+000	0.00000E+000	Init. De&lay	Time(s)	Stab.(mV/s)
SPEED	SELECTOR	1	&Optimize for:
ZGUESS	QUANT	5.00000E+003	E&stimated Z (ohms)
OCVCURVE	TABLE	19
	Pt	T	Vf	Vm	Ach	Over
	#	s	V vs. Ref.	V	V	bits
	0	0.258333	8.33449E-002	8.33449E-002	5.70330E-004	...........
	1	0.516667	8.33449E-002	8.33459E-002	5.68563E-004	...........
	2	0.775	8.33445E-002	8.33190E-002	5.61364E-004	...........
	3	1.03333	8.33420E-002	8.33183E-002	5.68397E-004	...........
	4	1.29167	8.33345E-002	8.32231E-002	5.66963E-004	...........
	5	1.55	8.33176E-002	8.32199E-002	5.64763E-004	...........
	6	1.80833	8.32901E-002	8.32144E-002	5.65097E-004	...........
	7	2.06667	8.32583E-002	8.31761E-002	5.65164E-004	...........
	8	2.325	8.32290E-002	8.31315E-002	5.66297E-004	...........
	9	2.58333	8.32016E-002	8.31054E-002	5.64563E-004	...........
	10	2.84167	8.31722E-002	8.30739E-002	5.63297E-004	...........
	11	3.1	8.31407E-002	8.30486E-002	5.68997E-004	...........
	12	3.35833	8.31090E-002	8.30207E-002	5.64963E-004	...........
	13	3.61667	8.30790E-002	8.29972E-002	5.68663E-004	...........
	14	3.875	8.30509E-002	8.29740E-002	5.67897E-004	...........
	15	4.13333	8.30245E-002	8.29479E-002	5.71397E-004	...........
	16	4.39167	8.29994E-002	8.29257E-002	5.67530E-004	...........
	17	4.65	8.29749E-002	8.29010E-002	5.65230E-004	...........
	18	4.90833	8.29509E-002	8.28813E-002	5.64363E-004	...........
EOC	QUANT	0.0829509	Open Circuit (V)
PSTATMODEL	IQUANT	4	Pstat Model
PSTATSECTION	LABEL	REF600-11020	Pstat Section
PSTATSERIALNO	LABEL	11020	Pstat Serial Number
CTRLMODE	IQUANT	1	Control Mode
IESTAB	IQUANT	0	I/E Stability
CASPEED	IQUANT	1	Control Amp Speed
CONVENTION	IQUANT	1	Current Convention
ICHRANGE	IQUANT	2	Ich Range
ICHRANGEMODE	TOGGLE	F	Ich Auto Range
ICHOFFSETENABLE	TOGGLE	T	Ich Offset Enable
ICHOFFSET	QUANT	0	Ich Offset (V)
ICHFILTER	IQUANT	3	Ich Filter
VCHRANGE	IQUANT	2	Vch Range
VCHRANGEMODE	TOGGLE	F	Vch Auto Range
VCHOFFSETENABLE	TOGGLE	T	Vch Offset Enable
VCHOFFSET	QUANT	0	Vch Offset (V)
VCHFILTER	IQUANT	3	Vch Filter
ACHRANGE	IQUANT	2	Ach Range
ACHOFFSETENABLE	TOGGLE	F	Ach Offset Enable
ACHOFFSET	QUANT	0	Ach Offset (V)
ACHFILTER	IQUANT	3	Ach Filter
IERANGELOWERLIMIT	IQUANT	1	I/E Range Lower Limit
IERANGEMODE	TOGGLE	F	I/E AutoRange
IERANGE	IQUANT	7	I/E Range
POSFEEDENABLE	TOGGLE	F	Positive Feedback IR Comp
POSFEEDRESISTANCE	QUANT	0	Positive Feedback Resistance (ohm)
ACHSELECT	IQUANT	0	Ach Select
CABLEID	IQUANT	14	Cable ID
DCCALDATE	LABEL	2/27/2020	DC Calibration Date
ACCALDATE	LABEL	2/27/2020	AC Calibration Date
THERMOSELECT	IQUANT	1	Thermo Select
FRAMEWORKVERSION	QUANT	6.33	Framework Version
INSTRUMENTVERSION	LABEL	3.50	Instrument Version
ZCURVE	TABLE
	Pt	Time	Freq	Zreal	Zimag	Zsig	Zmod	Zphz	Idc	Vdc	IERange
	#	s	Hz	ohm	ohm	V	ohm	°	A	V	#
	0	2	1000078	2040.942	-2444.571	1	3184.552	-50.14192	4.879311E-007	0.0856259	8
	1	3	794390.6	2508	-2632.025	1	3635.605	-46.38224	1.310821E-006	0.0849453	8
	2	4	630984.4	3033.87	-2806.835	1	4133.122	-42.77397	8.628886E-007	0.0847181	8
	3	6	501234.4	3610.199	-2863.332	1	4607.842	-38.41875	1.821172E-006	0.0843237	8
	4	7	398109.4	4197.733	-2853.436	1	5075.733	-34.20616	8.805944E-007	0.0845401	8
	5	8	316265.6	4745.825	-2738.035	1	5479.023	-29.98218	-6.517653E-007	0.0848025	8
	6	10	251203.1	5227.947	-2559.145	1	5820.709	-26.08232	-1.744406E-006	0.0850357	8
	7	12	199546.9	5696.208	-2364.392	1	6167.425	-22.54245	1.176722E-006	0.0843942	8
	8	13	158578.1	6030.487	-2099.392	1	6385.47	-19.19452	2.463851E-006	0.0842985	8
	9	15	125953.1	6346.341	-1811.636	1	6599.854	-15.932	3.207178E-007	0.0836056	7
	10	16	100078.1	6553.024	-1579.764	1	6740.755	-13.5539	2.248459E-008	0.0845775	7
	11	18	79453.13	6729.122	-1392.608	1	6871.712	-11.69244	-2.470153E-008	0.0845813	7
	12	19	63140.62	6870.063	-1232.135	1	6979.68	-10.16781	7.616941E-008	0.0843866	7
	13	20	50203.12	6982.306	-1098.505	1	7068.19	-8.940886	-2.570121E-008	0.0845938	7
	14	22	39890.62	7076.94	-994.081	1	7146.417	-7.995884	-1.750399E-008	0.0845051	7
	15	23	31640.63	7159.362	-916.598	1	7217.799	-7.295768	-2.690935E-008	0.0845387	7
	16	25	25171.88	7230.992	-866.5045	1	7282.724	-6.833287	-3.825368E-008	0.0845763	7
	17	26	20015.62	7300.582	-839.9724	1	7348.745	-6.563337	3.881407E-009	0.0844922	7
	18	27	15890.62	7364.394	-836.3511	1	7411.732	-6.479142	2.351582E-008	0.0845627	7
	19	29	12609.37	7427.393	-854.1039	1	7476.34	-6.559844	-7.709991E-009	0.0845929	7
	20	30	10078.13	7489.327	-895.8687	1	7542.718	-6.821274	-1.617006E-008	0.084507	7
	21	31	8015.625	7553.514	-965.377	1	7614.954	-7.283201	1.405265E-008	0.0845472	7
	22	33	6328.125	7619.705	-1064.142	1	7693.653	-7.950312	7.483814E-008	0.0844422	7
	23	34	5015.625	7690.537	-1200.516	1	7783.675	-8.872438	7.478656E-008	0.0844399	7
	24	35	3984.375	7763.892	-1373.468	1	7884.442	-10.03209	7.803514E-008	0.084387	7
	25	37	3170.956	7843.956	-1589.804	1	8003.444	-11.45744	3.739843E-009	0.0845274	7
	26	38	2527.573	7925.512	-1867.377	1	8142.533	-13.25799	-7.372595E-009	0.0845866	7
	27	40	1976.103	8030.644	-2242.848	1	8337.962	-15.60431	2.32736E-008	0.0845483	7
	28	41	1577.524	8140.916	-2670.056	1	8567.597	-18.15844	1.95234E-008	0.0845444	7
	29	42	1265.625	8265.44	-3184.101	1	8857.539	-21.06821	3.456992E-009	0.0845225	7
	30	44	998.264	8423.282	-3863.15	1	9266.909	-24.6375	6.360836E-009	0.0845329	6
	31	45	796.875	8601.228	-4666.268	1	9785.46	-28.48035	3.514246E-011	0.0845058	6
	32	46	627.7902	8833.249	-5710.958	1	10518.62	-32.88387	-8.577993E-010	0.0846337	6
	33	48	505.5147	9088.7	-6871.781	1	11394.11	-37.09219	-7.273139E-009	0.0846152	6
	34	49	397.9953	9431.743	-8438.331	1	12655.56	-41.81816	5.286789E-010	0.0845905	6
	35	51	315.5048	9847.06	-10308.52	1	14255.88	-46.31155	4.944585E-010	0.0845857	6
	36	52	252.4038	10341.11	-12501.51	1	16224.25	-50.40282	6.780393E-010	0.0845835	6
	37	53	198.6229	11004.68	-15373.02	1	18905.89	-54.40325	8.89985E-010	0.0845867	6
	38	55	158.3615	11783.52	-18695.55	1	22099.21	-57.77739	4.560146E-010	0.0845848	6
	39	56	125.558	12787.15	-22828.24	1	26165.62	-60.7448	6.373725E-010	0.0845872	6
	40	57	100.4464	13973.21	-27671.67	1	30999.54	-63.20784	3.870537E-010	0.0845843	6
	41	59	79.00281	15558.15	-34000.45	1	37391	-65.4118	1.914917E-010	0.0845915	6
	42	60	63.3446	17195.41	-40950.88	1	44414.6	-67.22231	6.362296E-010	0.0845856	6
	43	62	49.86702	20258.9	-50261.83	1	54191.09	-68.04725	9.778998E-010	0.0845797	6
	44	63	39.72458	23235.99	-61140.94	1	65407.38	-69.19122	4.440435E-010	0.0845838	6
	45	64	31.6723	27177.76	-74181.53	1	79003.35	-69.87877	4.295513E-010	0.0845827	6
	46	66	24.93351	32784.95	-90594.73	1	96344.5	-70.10553	2.534541E-010	0.0845791	6
	47	67	19.86229	39751.93	-109407.4	1	116405.3	-70.03197	4.007297E-010	0.0845922	5
	48	69	15.83615	48238.67	-130886.6	1	139492.9	-69.76847	9.512937E-010	0.084581	5
	49	70	12.40079	62100.2	-160817.5	1	172391.2	-68.88577	-4.653619E-010	0.0845799	5
	50	71	9.93114	76916.47	-189495	1	204510.4	-67.90765	7.833449E-010	0.0845777	5
	51	73	7.944915	95907.1	-223524	1	243230.6	-66.77735	-2.641823E-010	0.0845779	5
	52	75	6.317385	120520.3	-263373.4	1	289638.9	-65.41106	2.568978E-010	0.0845748	5
	53	77	5.008013	151062.7	-308336.5	1	343353	-63.89847	1.120851E-010	0.0845831	5
	54	79	3.945707	187890.1	-359148.8	1	405327.7	-62.38351	2.176093E-011	0.0845822	5
	55	82	3.158693	228144	-411228.6	1	470275.1	-60.97908	2.300164E-010	0.0845786	5
	56	85	2.504006	275218.7	-471717.5	1	546134.3	-59.73902	-3.402797E-012	0.0845809	5
	57	88	1.998082	325679.1	-536534.2	1	627643.1	-58.74203	2.511613E-010	0.0845393	5
	58	91	1.584686	382289.1	-614410.6	1	723633.4	-58.10994	4.953432E-011	0.084568	5
	59	95	1.266892	445102.3	-698974.4	1	828662.3	-57.51129	1.538535E-010	0.0845379	5
	60	99	0.999041	518864.3	-806004.8	1	958574	-57.22866	1.423951E-010	0.0846223	5
