EXPLAIN
TAG	EISPOT
TITLE	LABEL	Potentiostatic EIS	Test &Identifier
DATE	LABEL	3/17/2020	Date
TIME	LABEL	15:43:57	Time
NOTES	NOTES	1	&Notes...
	
PSTAT	PSTAT	REF600-11020	Potentiostat
VDC	POTEN	0.00000E+000	T	DC &Voltage (V)
FREQINIT	QUANT	1.00000E+006	Initial Fre&q. (Hz)
FREQFINAL	QUANT	1.00000E+000	Final Fre&q. (Hz)
PTSPERDEC	QUANT	1.00000E+001	Points/&decade
VAC	QUANT	2.50000E+001	AC &Voltage (mV rms)
AREA	QUANT	4.00000E-004	&Area (cm^2)
CONDIT	TWOPARAM	F	5.00000E+000	0.00000E+000	Conditionin&g	Time(s)	E(V)
DELAY	TWOPARAM	T	3.00000E+000	0.00000E+000	Init. De&lay	Time(s)	Stab.(mV/s)
SPEED	SELECTOR	0	&Optimize for:
ZGUESS	QUANT	5.00000E+003	E&stimated Z (ohms)
OCVCURVE	TABLE	12
	Pt	T	Vf	Vm	Ach	Over
	#	s	V vs. Ref.	V	V	bits
	0	0.258333	-1.42563E-001	-1.42563E-001	5.80397E-004	...........
	1	0.516667	-1.42563E-001	-1.42564E-001	5.81530E-004	...........
	2	0.775	-1.42563E-001	-1.42571E-001	5.78363E-004	...........
	3	1.03333	-1.42564E-001	-1.42578E-001	5.81130E-004	...........
	4	1.29167	-1.42567E-001	-1.42582E-001	5.82463E-004	...........
	5	1.55	-1.42571E-001	-1.42589E-001	5.78530E-004	...........
	6	1.80833	-1.42577E-001	-1.42596E-001	5.80663E-004	...........
	7	2.06667	-1.42583E-001	-1.42608E-001	5.82597E-004	...........
	8	2.325	-1.42589E-001	-1.42616E-001	5.83897E-004	...........
	9	2.58333	-1.42597E-001	-1.42623E-001	5.89530E-004	...........
	10	2.84167	-1.42606E-001	-1.42633E-001	5.87830E-004	...........
	11	3.1	-1.42615E-001	-1.42643E-001	5.86230E-004	...........
EOC	QUANT	-0.1426147	Open Circuit (V)
PSTATMODEL	IQUANT	4	Pstat Model
PSTATSECTION	LABEL	REF600-11020	Pstat Section
PSTATSERIALNO	LABEL	11020	Pstat Serial Number
CTRLMODE	IQUANT	1	Control Mode
IESTAB	IQUANT	0	I/E Stability
CASPEED	IQUANT	1	Control Amp Speed
CONVENTION	IQUANT	1	Current Convention
ICHRANGE	IQUANT	2	Ich Range
ICHRANGEMODE	TOGGLE	F	Ich Auto Range
ICHOFFSETENABLE	TOGGLE	T	Ich Offset Enable
ICHOFFSET	QUANT	0	Ich Offset (V)
ICHFILTER	IQUANT	3	Ich Filter
VCHRANGE	IQUANT	2	Vch Range
VCHRANGEMODE	TOGGLE	F	Vch Auto Range
VCHOFFSETENABLE	TOGGLE	T	Vch Offset Enable
VCHOFFSET	QUANT	0	Vch Offset (V)
VCHFILTER	IQUANT	3	Vch Filter
ACHRANGE	IQUANT	2	Ach Range
ACHOFFSETENABLE	TOGGLE	F	Ach Offset Enable
ACHOFFSET	QUANT	0	Ach Offset (V)
ACHFILTER	IQUANT	3	Ach Filter
IERANGELOWERLIMIT	IQUANT	1	I/E Range Lower Limit
IERANGEMODE	TOGGLE	F	I/E AutoRange
IERANGE	IQUANT	7	I/E Range
POSFEEDENABLE	TOGGLE	F	Positive Feedback IR Comp
POSFEEDRESISTANCE	QUANT	0	Positive Feedback Resistance (ohm)
ACHSELECT	IQUANT	0	Ach Select
CABLEID	IQUANT	14	Cable ID
DCCALDATE	LABEL	2/27/2020	DC Calibration Date
ACCALDATE	LABEL	2/27/2020	AC Calibration Date
THERMOSELECT	IQUANT	1	Thermo Select
FRAMEWORKVERSION	QUANT	6.33	Framework Version
INSTRUMENTVERSION	LABEL	3.50	Instrument Version
ZCURVE	TABLE
	Pt	Time	Freq	Zreal	Zimag	Zsig	Zmod	Zphz	Idc	Vdc	IERange
	#	s	Hz	ohm	ohm	V	ohm	°	A	V	#
	0	2	1000078	1716.718	-2300.799	1	2870.679	-53.27191	8.393081E-009	-0.1399463	8
	1	2	794390.6	2037.179	-2596.728	1	3300.469	-51.8852	5.457429E-008	-0.140312	8
	2	2	630984.4	2412.883	-2916.724	1	3785.404	-50.40047	7.640809E-008	-0.1405728	8
	3	3	501234.4	2847.771	-3258.786	1	4327.757	-48.85061	2.666788E-008	-0.1406484	8
	4	3	398109.4	3359.298	-3599.293	1	4923.393	-46.97529	7.085559E-009	-0.1407069	8
	5	3	316265.6	3952.583	-3949.324	1	5587.493	-44.97637	2.798506E-008	-0.1407881	8
	6	4	251203.1	4628.873	-4272.221	1	6299.074	-42.70548	3.131518E-008	-0.1407914	8
	7	4	199546.9	5394.283	-4557.032	1	7061.503	-40.19076	3.284879E-008	-0.1407941	8
	8	4	158578.1	6239.172	-4767.803	1	7852.338	-37.38606	5.465598E-008	-0.1407944	8
	9	4	125953.1	7220.694	-4837.344	1	8691.278	-33.81923	3.498479E-010	-0.1408654	7
	10	5	100078.1	8100.38	-4834.772	1	9433.514	-30.83118	1.171051E-009	-0.1408813	7
	11	5	79453.13	8993.214	-4758.673	1	10174.62	-27.88513	1.344682E-009	-0.1408827	7
	12	5	63140.62	9840.57	-4583.108	1	10855.5	-24.97309	1.701437E-009	-0.1408873	7
	13	6	50203.12	10605.62	-4335.195	1	11457.45	-22.23297	3.266654E-009	-0.1408776	7
	14	6	39890.62	11280.04	-4036.71	1	11980.58	-19.69042	2.131353E-009	-0.1408883	7
	15	6	31640.63	11875.74	-3728.047	1	12447.15	-17.42818	2.084151E-009	-0.1408881	7
	16	7	25171.88	12375.02	-3449.894	1	12846.9	-15.57735	2.317142E-009	-0.1408939	7
	17	7	20015.62	12818.43	-3162.135	1	13202.7	-13.85743	3.508406E-009	-0.140887	7
	18	7	15890.62	13181.44	-2892.602	1	13495.09	-12.37709	2.733457E-009	-0.1408878	7
	19	8	12609.37	13561.84	-2590.483	1	13807.03	-10.81395	9.107443E-011	-0.140838	6
	20	8	10078.13	13828.85	-2428.522	1	14040.47	-9.96031	1.315647E-010	-0.1408395	6
	21	8	8015.625	14072.6	-2299.148	1	14259.18	-9.278866	1.379609E-010	-0.1408418	6
	22	9	6328.125	14280.98	-2263.321	1	14459.22	-9.005617	2.725126E-010	-0.1408361	6
	23	9	5015.625	14477.62	-2259.398	1	14652.87	-8.870109	2.740703E-010	-0.1408389	6
	24	9	3984.375	14658.64	-2312.034	1	14839.85	-8.96314	2.275022E-010	-0.1408432	6
	25	10	3170.956	14820.83	-2428.045	1	15018.41	-9.303919	1.337282E-010	-0.1408432	6
	26	10	2527.573	14978.94	-2621.352	1	15206.58	-9.92638	1.359213E-010	-0.1408386	6
	27	10	1976.103	15153.12	-2924.729	1	15432.79	-10.92442	2.381328E-010	-0.1408429	6
	28	11	1577.524	15318.51	-3303.654	1	15670.7	-12.17025	2.825022E-010	-0.1408507	6
	29	11	1265.625	15504.78	-3789.475	1	15961.15	-13.73423	1.20918E-010	-0.1408525	6
	30	11	998.264	15719.04	-4454.707	1	16338.07	-15.8225	1.435338E-010	-0.1408447	6
	31	11	796.875	15965.48	-5252.676	1	16807.35	-18.21132	-3.456656E-011	-0.1408538	6
	32	12	627.7902	16262.51	-6299.877	1	17440.12	-21.17569	7.685165E-011	-0.1408478	6
	33	12	505.5147	16596.12	-7467.225	1	18198.64	-24.22479	-1.49266E-010	-0.1408466	6
	34	12	397.9953	17034.78	-9041.231	1	19285.42	-27.95719	4.734387E-010	-0.1408366	6
	35	13	315.5048	17566.46	-10912.9	1	20680.23	-31.85001	2.547567E-010	-0.1408364	6
	36	13	252.4038	18202.55	-13091.8	1	22421.6	-35.72478	2.922591E-010	-0.140843	6
	37	13	198.6229	19042.45	-15931.34	1	24827.86	-39.91662	3.321233E-010	-0.1408419	6
	38	14	158.3615	20043.63	-19183.14	1	27744.19	-43.74334	3.131642E-010	-0.1408485	6
	39	14	125.558	21323.32	-23202.03	1	31512.19	-47.41612	2.239625E-010	-0.1408433	6
	40	14	100.4464	22868	-27832.96	1	36022.48	-50.59293	2.995391E-010	-0.1408446	6
	41	15	79.00281	24959.24	-33812.42	1	42026.7	-53.56645	2.245634E-010	-0.1408447	6
	42	15	63.3446	27368.84	-40374.45	1	48776.53	-55.86763	1.639776E-010	-0.1408439	6
	43	15	49.86702	30611.99	-48829.62	1	57631.81	-57.91581	1.922504E-010	-0.1408495	6
	44	16	39.72458	34430.64	-58388.23	1	67783.88	-59.47281	3.715721E-010	-0.1408416	6
	45	16	31.6723	39116.5	-69658.06	1	79889.59	-60.68361	5.708864E-010	-0.1408419	6
	46	16	24.93351	45292.26	-83811.34	1	95266.6	-61.61289	2.747059E-010	-0.1408506	6
	47	17	19.86229	52598.42	-99743.5	1	112762.4	-62.19566	1.062983E-009	-0.1408393	5
	48	17	15.83615	61807.84	-118450	1	133606.1	-62.4442	-9.917851E-010	-0.1408413	5
	49	17	12.40079	74413.8	-141895.7	1	160224.2	-62.32631	-3.100685E-010	-0.1408447	5
	50	18	9.93114	88930.35	-166448.4	1	188715.9	-61.88522	-7.526769E-010	-0.1408336	5
	51	18	7.944915	106451.1	-194428.3	1	221662.3	-61.29894	-6.740093E-010	-0.1408357	5
	52	18	6.317385	128874.8	-226428.6	1	260535.2	-60.35307	2.663843E-010	-0.140852	5
	53	19	5.008013	156280	-262505.8	1	305504	-59.23299	4.83821E-011	-0.1408452	5
	54	20	3.945707	189009	-303558.1	1	357591.8	-58.09175	-2.527747E-010	-0.1408464	5
	55	21	3.158693	224521.1	-344766.8	1	411429	-56.92678	6.062405E-011	-0.1408572	5
	56	22	2.504006	266103.3	-392902.6	1	474534.9	-55.89119	2.553674E-010	-0.1408492	5
	57	23	1.998082	310729.6	-443278.3	1	541339.6	-54.97029	1.957726E-011	-0.1408826	5
	58	25	1.584686	361810.4	-503970.6	1	620397.5	-54.32469	-3.034498E-011	-0.1408979	5
	59	27	1.266892	414496.7	-569144.3	1	704082.9	-53.93488	2.414913E-011	-0.1408644	5
	60	29	0.999041	477707.3	-648311.8	1	805302.8	-53.61543	5.853594E-011	-0.1408339	5
