EXPLAIN
TAG	EISPOT
TITLE	LABEL	Potentiostatic EIS	Test &Identifier
DATE	LABEL	6/6/2020	Date
TIME	LABEL	18:17:56	Time
NOTES	NOTES	1	&Notes...
	
PSTAT	PSTAT	REF600-11020	Potentiostat
VDC	POTEN	0.00000E+000	T	DC &Voltage (V)
FREQINIT	QUANT	1.00000E+006	Initial Fre&q. (Hz)
FREQFINAL	QUANT	1.00000E+000	Final Fre&q. (Hz)
PTSPERDEC	QUANT	1.00000E+001	Points/&decade
VAC	QUANT	2.50000E+001	AC &Voltage (mV rms)
AREA	QUANT	4.00000E-004	&Area (cm^2)
CONDIT	TWOPARAM	F	5.00000E+000	0.00000E+000	Conditionin&g	Time(s)	E(V)
DELAY	TWOPARAM	T	3.00000E+000	0.00000E+000	Init. De&lay	Time(s)	Stab.(mV/s)
SPEED	SELECTOR	0	&Optimize for:
ZGUESS	QUANT	1.00000E+003	E&stimated Z (ohms)
OCVCURVE	TABLE	12
	Pt	T	Vf	Vm	Ach	Over
	#	s	V vs. Ref.	V	V	bits
	0	0.258333	-5.78757E-002	-5.78757E-002	5.75197E-004	...........
	1	0.516667	-5.78758E-002	-5.78838E-002	5.77997E-004	...........
	2	0.775	-5.78768E-002	-5.78918E-002	5.78697E-004	...........
	3	1.03333	-5.78795E-002	-5.78976E-002	5.82030E-004	...........
	4	1.29167	-5.78843E-002	-5.79061E-002	5.78397E-004	...........
	5	1.55	-5.78906E-002	-5.79141E-002	5.80697E-004	...........
	6	1.80833	-5.78978E-002	-5.79208E-002	5.78530E-004	...........
	7	2.06667	-5.79054E-002	-5.79312E-002	5.80763E-004	...........
	8	2.325	-5.79132E-002	-5.79389E-002	5.78830E-004	...........
	9	2.58333	-5.79214E-002	-5.79480E-002	5.82530E-004	...........
	10	2.84167	-5.79298E-002	-5.79530E-002	5.76830E-004	...........
	11	3.1	-5.79381E-002	-5.79631E-002	5.78263E-004	...........
EOC	QUANT	-0.0579381	Open Circuit (V)
PSTATMODEL	IQUANT	4	Pstat Model
PSTATSECTION	LABEL	REF600-11020	Pstat Section
PSTATSERIALNO	LABEL	11020	Pstat Serial Number
CTRLMODE	IQUANT	1	Control Mode
IESTAB	IQUANT	0	I/E Stability
CASPEED	IQUANT	1	Control Amp Speed
CONVENTION	IQUANT	1	Current Convention
ICHRANGE	IQUANT	2	Ich Range
ICHRANGEMODE	TOGGLE	F	Ich Auto Range
ICHOFFSETENABLE	TOGGLE	T	Ich Offset Enable
ICHOFFSET	QUANT	0	Ich Offset (V)
ICHFILTER	IQUANT	3	Ich Filter
VCHRANGE	IQUANT	2	Vch Range
VCHRANGEMODE	TOGGLE	F	Vch Auto Range
VCHOFFSETENABLE	TOGGLE	T	Vch Offset Enable
VCHOFFSET	QUANT	0	Vch Offset (V)
VCHFILTER	IQUANT	3	Vch Filter
ACHRANGE	IQUANT	2	Ach Range
ACHOFFSETENABLE	TOGGLE	F	Ach Offset Enable
ACHOFFSET	QUANT	0	Ach Offset (V)
ACHFILTER	IQUANT	3	Ach Filter
IERANGELOWERLIMIT	IQUANT	1	I/E Range Lower Limit
IERANGEMODE	TOGGLE	F	I/E AutoRange
IERANGE	IQUANT	8	I/E Range
POSFEEDENABLE	TOGGLE	F	Positive Feedback IR Comp
POSFEEDRESISTANCE	QUANT	0	Positive Feedback Resistance (ohm)
ACHSELECT	IQUANT	0	Ach Select
CABLEID	IQUANT	14	Cable ID
DCCALDATE	LABEL	2/27/2020	DC Calibration Date
ACCALDATE	LABEL	2/27/2020	AC Calibration Date
THERMOSELECT	IQUANT	1	Thermo Select
FRAMEWORKVERSION	QUANT	6.33	Framework Version
INSTRUMENTVERSION	LABEL	3.50	Instrument Version
ZCURVE	TABLE
	Pt	Time	Freq	Zreal	Zimag	Zsig	Zmod	Zphz	Idc	Vdc	IERange
	#	s	Hz	ohm	ohm	V	ohm	°	A	V	#
	0	1	1000078	1921.013	-2269.292	1	2973.21	-49.75124	3.974542E-008	-0.0555849	8
	1	1	794390.6	2376.975	-2455.293	1	3417.378	-45.92852	7.240845E-008	-0.0559464	8
	2	1	630984.4	2884.945	-2569.183	1	3863.109	-41.68661	5.816294E-008	-0.0561068	8
	3	2	501234.4	3412.941	-2597.598	1	4289.019	-37.27485	3.504007E-008	-0.0562108	8
	4	2	398109.4	3927.458	-2533.666	1	4673.798	-32.8267	4.476836E-008	-0.056257	8
	5	2	316265.6	4403.055	-2404.141	1	5016.651	-28.63528	6.550908E-008	-0.0562952	8
	6	3	251203.1	4808.111	-2224.556	1	5297.791	-24.82844	2.716225E-008	-0.0562906	8
	7	3	199546.9	5149.204	-2029.179	1	5534.606	-21.50822	7.076544E-008	-0.0562989	8
	8	3	158578.1	5432.945	-1835.674	1	5734.684	-18.669	5.395658E-008	-0.0563115	8
	9	4	125953.1	5691.473	-1598.458	1	5911.677	-15.68747	-1.334331E-009	-0.0563463	7
	10	4	100078.1	5853.702	-1451.216	1	6030.908	-13.92372	3.11022E-009	-0.0563755	7
	11	4	79453.13	6006.879	-1340.912	1	6154.725	-12.58379	1.96896E-009	-0.0563868	7
	12	5	63140.62	6141.057	-1257.962	1	6268.577	-11.57658	1.15995E-009	-0.0563962	7
	13	5	50203.12	6260.147	-1202.377	1	6374.571	-10.87231	1.568775E-009	-0.0563941	7
	14	5	39890.62	6374.801	-1174.504	1	6482.095	-10.4392	2.542349E-009	-0.0563939	7
	15	6	31640.63	6484.767	-1172.855	1	6589.977	-10.25187	2.338392E-009	-0.0563917	7
	16	6	25171.88	6594.346	-1197.57	1	6702.206	-10.29305	2.415615E-009	-0.0563954	7
	17	6	20015.62	6706.349	-1248.78	1	6821.625	-10.54816	2.604072E-009	-0.0563934	7
	18	7	15890.62	6823.604	-1328.061	1	6951.642	-11.01365	1.957579E-009	-0.0563989	7
	19	7	12609.37	6950.162	-1438.613	1	7097.49	-11.6945	2.89065E-009	-0.0563961	7
	20	7	10078.13	7082.812	-1575.275	1	7255.875	-12.53896	2.141034E-009	-0.0564012	7
	21	8	8015.625	7232.192	-1753.71	1	7441.781	-13.63037	3.920804E-009	-0.0563958	7
	22	8	6328.125	7403.426	-1977.172	1	7662.893	-14.95255	2.986001E-009	-0.0564012	7
	23	8	5015.625	7592.372	-2241.402	1	7916.312	-16.44753	2.552331E-009	-0.0564065	7
	24	8	3984.375	7805.875	-2559.487	1	8214.783	-18.15392	2.023353E-009	-0.0564159	7
	25	9	3170.956	8044.668	-2929.38	1	8561.423	-20.00855	2.246361E-009	-0.0564174	7
	26	9	2527.573	8318.078	-3367.082	1	8973.721	-22.03765	2.811591E-009	-0.0564112	7
	27	9	1976.103	8666.365	-3915.019	1	9509.64	-24.31101	-2.809961E-010	-0.0563655	6
	28	10	1577.524	9022.87	-4521.72	1	10092.48	-26.61728	-1.489501E-010	-0.0563556	6
	29	10	1265.625	9421.242	-5213.635	1	10767.63	-28.95977	-5.456009E-011	-0.0563587	6
	30	10	998.264	9914.83	-6087.481	1	11634.48	-31.54899	-2.212679E-010	-0.0563684	6
	31	11	796.875	10445.49	-7066.144	1	12611.05	-34.07748	-2.986728E-011	-0.0563636	6
	32	11	627.7902	11092.1	-8284.51	1	13844.41	-36.75546	-5.793394E-012	-0.0563713	6
	33	11	505.5147	11757.49	-9589.19	1	15172.05	-39.20003	-4.072685E-010	-0.056367	6
	34	12	397.9953	12592.23	-11304.21	1	16921.86	-41.91475	4.656293E-010	-0.0563499	6
	35	12	315.5048	13532.42	-13294.25	1	18970.07	-44.49134	4.391514E-010	-0.0563486	6
	36	12	252.4038	14578.86	-15570.26	1	21330.17	-46.88338	4.086804E-010	-0.0563507	6
	37	13	198.6229	15899.03	-18491.13	1	24386.49	-49.31042	5.249157E-010	-0.0563523	6
	38	13	158.3615	17375.69	-21788.49	1	27868.49	-51.42867	4.317063E-010	-0.0563554	6
	39	13	125.558	19170.41	-25802.17	1	32144.31	-53.38852	3.877001E-010	-0.0563554	6
	40	14	100.4464	21222.18	-30365.93	1	37046.87	-55.05103	3.528937E-010	-0.0563532	6
	41	14	79.00281	23843.64	-36183.77	1	43333.41	-56.61673	5.376244E-010	-0.0563566	6
	42	14	63.3446	26686.16	-42513.6	1	50195.19	-57.88314	4.105684E-010	-0.0563551	6
	43	15	49.86702	30305.13	-50659.04	1	59031.68	-59.1114	8.403694E-011	-0.0563578	6
	44	15	39.72458	34375.09	-59896.72	1	69059.86	-60.14822	4.082746E-010	-0.0563496	6
	45	15	31.6723	39216.73	-70890.66	1	81015.05	-61.04862	2.161553E-010	-0.0563545	6
	46	16	24.93351	45461.3	-84811.47	1	96227.4	-61.80746	6.748823E-010	-0.0563552	6
	47	16	19.86229	52837.23	-100572.3	1	113607.1	-62.28412	1.467607E-009	-0.056343	5
	48	16	15.83615	62187.72	-119283.6	1	134521	-62.46502	-1.520677E-010	-0.0563511	5
	49	17	12.40079	75254.17	-142826.9	1	161439.5	-62.21566	1.33244E-009	-0.0563511	5
	50	17	9.93114	90051.74	-167453.5	1	190131.5	-61.72989	1.179349E-009	-0.0563449	5
	51	17	7.944915	109119.1	-195398.8	1	223802.7	-60.81912	-6.315078E-010	-0.0563511	5
	52	18	6.317385	132936.9	-227148.1	1	263189.1	-59.66198	2.750905E-010	-0.0563602	5
	53	18	5.008013	162182.3	-261896.5	1	308046.8	-58.23169	6.410346E-010	-0.0563512	5
	54	19	3.945707	198249.2	-299656.3	1	359300.3	-56.51184	2.589134E-010	-0.0563669	5
	55	20	3.158693	235127	-336667	1	410645.1	-55.06968	3.425648E-010	-0.0563408	5
	56	21	2.504006	278077	-377172.7	1	468600.1	-53.59986	-6.889421E-011	-0.056352	5
	57	23	1.998082	319967.8	-420078.6	1	528058.2	-52.704	7.089989E-012	-0.0563604	5
	58	24	1.584686	366489.7	-468967.9	1	595185.4	-51.99304	1.751959E-010	-0.0563172	5
	59	26	1.266892	411668.4	-526581.6	1	668400.3	-51.98259	1.765022E-010	-0.0563203	5
	60	29	0.999041	460273.9	-599552.9	1	755854.4	-52.48672	1.561177E-010	-0.0563392	5
