EXPLAIN
TAG	EISPOT
TITLE	LABEL	Potentiostatic EIS	Test &Identifier
DATE	LABEL	1/25/2020	Date
TIME	LABEL	11:53:37	Time
NOTES	NOTES	6	&Notes...
	
	
	
	
	
	
PSTAT	PSTAT	REF600-11020	Potentiostat
VDC	POTEN	0.00000E+000	T	DC &Voltage (V)
FREQINIT	QUANT	1.00000E+006	Initial Fre&q. (Hz)
FREQFINAL	QUANT	1.00000E+000	Final Fre&q. (Hz)
PTSPERDEC	QUANT	1.00000E+001	Points/&decade
VAC	QUANT	2.50000E+001	AC &Voltage (mV rms)
AREA	QUANT	1.00000E-001	&Area (cm^2)
CONDIT	TWOPARAM	F	5.00000E+000	0.00000E+000	Conditionin&g	Time(s)	E(V)
DELAY	TWOPARAM	F	5.00000E+000	0.00000E+000	Init. De&lay	Time(s)	Stab.(mV/s)
SPEED	SELECTOR	0	&Optimize for:
ZGUESS	QUANT	5.00000E+002	E&stimated Z (ohms)
OCVCURVE	TABLE	39
	Pt	T	Vf	Vm	Ach	Over
	#	s	V vs. Ref.	V	V	bits
	0	0.258333	-2.79290E-002	-2.79290E-002	6.58779E-004	...........
	1	0.516667	-2.79334E-002	-2.81611E-002	6.58313E-004	...........
	2	0.775	-2.79563E-002	-2.81520E-002	6.57346E-004	...........
	3	1.03333	-2.80039E-002	-2.80164E-002	6.51080E-004	...........
	4	1.29167	-2.80532E-002	-2.80285E-002	6.55346E-004	...........
	5	1.55	-2.80709E-002	-2.78684E-002	6.51613E-004	...........
	6	1.80833	-2.80456E-002	-2.78360E-002	6.56213E-004	...........
	7	2.06667	-2.79901E-002	-2.78825E-002	6.55479E-004	...........
	8	2.325	-2.79298E-002	-2.78606E-002	6.58879E-004	...........
	9	2.58333	-2.78861E-002	-2.77895E-002	6.62513E-004	...........
	10	2.84167	-2.78575E-002	-2.77056E-002	6.61979E-004	...........
	11	3.1	-2.78264E-002	-2.76699E-002	6.60746E-004	...........
	12	3.35833	-2.77887E-002	-2.79449E-002	6.63513E-004	...........
	13	3.61667	-2.77721E-002	-2.81034E-002	6.62613E-004	...........
	14	3.875	-2.78008E-002	-2.75517E-002	6.60113E-004	...........
	15	4.13333	-2.78382E-002	-2.76536E-002	6.62546E-004	...........
	16	4.39167	-2.78325E-002	-2.81084E-002	6.63179E-004	...........
	17	4.65	-2.78075E-002	-2.77643E-002	6.61246E-004	...........
	18	4.90833	-2.78074E-002	-2.76034E-002	6.61113E-004	...........
	19	5.16667	-2.78114E-002	-2.78479E-002	6.58413E-004	...........
	20	5.425	-2.77960E-002	-2.79244E-002	6.59413E-004	...........
	21	5.68333	-2.77881E-002	-2.77925E-002	6.61746E-004	...........
	22	5.94167	-2.78046E-002	-2.78391E-002	6.56313E-004	...........
	23	6.2	-2.78256E-002	-2.78389E-002	6.58679E-004	...........
	24	6.45833	-2.78361E-002	-2.78731E-002	6.58879E-004	...........
	25	6.71667	-2.78415E-002	-2.78590E-002	6.58946E-004	...........
	26	6.975	-2.78416E-002	-2.75224E-002	6.57246E-004	...........
	27	7.23333	-2.78162E-002	-2.75903E-002	6.58846E-004	...........
	28	7.49167	-2.77594E-002	-2.79349E-002	6.62579E-004	...........
	29	7.75	-2.77148E-002	-2.78612E-002	6.60046E-004	...........
	30	8.00833	-2.77227E-002	-2.76407E-002	6.59379E-004	...........
	31	8.26667	-2.77566E-002	-2.77734E-002	6.58946E-004	...........
	32	8.525	-2.77722E-002	-2.78368E-002	6.56546E-004	...........
	33	8.78333	-2.77712E-002	-2.77531E-002	6.61579E-004	...........
	34	9.04167	-2.77727E-002	-2.77616E-002	6.58346E-004	...........
	35	9.3	-2.77746E-002	-2.77141E-002	6.58079E-004	...........
	36	9.5583	-2.77637E-002	-2.75111E-002	6.56979E-004	...........
	37	9.8167	-2.77308E-002	-2.76694E-002	6.64879E-004	...........
	38	10.075	-2.76965E-002	-2.83011E-002	6.57080E-004	...........
EOC	QUANT	-0.0276965	Open Circuit (V)
PSTATMODEL	IQUANT	4	Pstat Model
PSTATSECTION	LABEL	REF600-11020	Pstat Section
PSTATSERIALNO	LABEL	11020	Pstat Serial Number
CTRLMODE	IQUANT	1	Control Mode
IESTAB	IQUANT	0	I/E Stability
CASPEED	IQUANT	1	Control Amp Speed
CONVENTION	IQUANT	1	Current Convention
ICHRANGE	IQUANT	2	Ich Range
ICHRANGEMODE	TOGGLE	F	Ich Auto Range
ICHOFFSETENABLE	TOGGLE	T	Ich Offset Enable
ICHOFFSET	QUANT	0	Ich Offset (V)
ICHFILTER	IQUANT	3	Ich Filter
VCHRANGE	IQUANT	2	Vch Range
VCHRANGEMODE	TOGGLE	F	Vch Auto Range
VCHOFFSETENABLE	TOGGLE	T	Vch Offset Enable
VCHOFFSET	QUANT	0	Vch Offset (V)
VCHFILTER	IQUANT	3	Vch Filter
ACHRANGE	IQUANT	2	Ach Range
ACHOFFSETENABLE	TOGGLE	F	Ach Offset Enable
ACHOFFSET	QUANT	0	Ach Offset (V)
ACHFILTER	IQUANT	3	Ach Filter
IERANGELOWERLIMIT	IQUANT	1	I/E Range Lower Limit
IERANGEMODE	TOGGLE	F	I/E AutoRange
IERANGE	IQUANT	8	I/E Range
POSFEEDENABLE	TOGGLE	F	Positive Feedback IR Comp
POSFEEDRESISTANCE	QUANT	0	Positive Feedback Resistance (ohm)
ACHSELECT	IQUANT	0	Ach Select
CABLEID	IQUANT	14	Cable ID
DCCALDATE	LABEL	12/22/2019	DC Calibration Date
ACCALDATE	LABEL	12/22/2019	AC Calibration Date
THERMOSELECT	IQUANT	1	Thermo Select
FRAMEWORKVERSION	QUANT	6.33	Framework Version
INSTRUMENTVERSION	LABEL	3.50	Instrument Version
ZCURVE	TABLE
	Pt	Time	Freq	Zreal	Zimag	Zsig	Zmod	Zphz	Idc	Vdc	IERange
	#	s	Hz	ohm	ohm	V	ohm	°	A	V	#
	0	2	1000078	2077.404	-1585.602	1	2613.377	-37.35309	-1.930708E-006	-0.0252515	8
	1	2	794390.6	2390.429	-1583.946	1	2867.583	-33.52925	5.048798E-006	-0.0265679	8
	2	2	630984.4	2696.584	-1530.029	1	3100.412	-29.57038	-2.239683E-006	-0.0257445	8
	3	2	501234.4	2988.324	-1450.781	1	3321.875	-25.8958	3.785018E-007	-0.0261193	8
	4	3	398109.4	3215.867	-1325.155	1	3478.195	-22.39498	-7.653151E-007	-0.0260297	8
	5	3	316265.6	3417.748	-1206.792	1	3624.548	-19.4479	-2.076951E-006	-0.0257259	8
	6	3	251203.1	3606.324	-1086.477	1	3766.432	-16.76598	1.48025E-007	-0.0261891	8
	7	4	199546.9	3730.017	-952.267	1	3849.655	-14.3216	1.53119E-006	-0.0264354	8
	8	4	158578.1	3834.242	-834.4008	1	3923.982	-12.27719	-7.932922E-007	-0.0259666	8
	9	4	125953.1	3935.124	-728.3217	1	4001.957	-10.48578	-8.138692E-007	-0.0245038	7
	10	5	100078.1	4001.908	-646.2834	1	4053.757	-9.173711	-3.564778E-008	-0.0261079	7
	11	5	79453.13	4061.891	-592.6035	1	4104.892	-8.300521	8.038523E-008	-0.0262966	7
	12	5	63140.62	4113.659	-552.6456	1	4150.616	-7.651533	-2.784984E-008	-0.0261461	7
	13	6	50203.12	4160.378	-526.0759	1	4193.507	-7.20675	1.3648E-008	-0.0262372	7
	14	6	39890.62	4203.826	-513.8989	1	4235.121	-6.969572	-2.696377E-008	-0.0261438	7
	15	6	31640.63	4247.67	-515.4911	1	4278.835	-6.919496	-2.010193E-008	-0.0261107	7
	16	7	25171.88	4290.239	-529.5333	1	4322.795	-7.036285	-3.103622E-008	-0.0261619	7
	17	7	20015.62	4334.412	-557.8428	1	4370.162	-7.333705	-4.885738E-009	-0.0261589	7
	18	7	15890.62	4380.44	-599.9041	1	4421.328	-7.798182	3.619169E-008	-0.0261844	7
	19	8	12609.37	4427.125	-658.7512	1	4475.868	-8.463447	-1.752186E-008	-0.0261149	7
	20	8	10078.13	4479.219	-732.8438	1	4538.773	-9.291821	1.65187E-008	-0.0262078	7
	21	8	8015.625	4531.732	-828.0694	1	4606.767	-10.35524	3.78935E-008	-0.0261874	7
	22	9	6328.125	4591.101	-953.486	1	4689.066	-11.73249	3.750437E-008	-0.0261897	7
	23	9	5015.625	4654.072	-1108.73	1	4784.314	-13.39969	-3.568996E-008	-0.0261394	7
	24	9	3984.375	4723.35	-1299.119	1	4898.749	-15.37848	3.243289E-010	-0.026173	7
	25	9	3170.956	4797.171	-1533.034	1	5036.173	-17.72234	-3.79028E-009	-0.0261678	7
	26	10	2527.573	4882.538	-1819.228	1	5210.447	-20.43533	-5.520225E-009	-0.0261713	7
	27	10	1976.103	4990.547	-2206.563	1	5456.6	-23.85255	-3.51227E-008	-0.0261262	7
	28	10	1577.524	5109.047	-2645.793	1	5753.485	-27.37802	-1.564504E-008	-0.0261955	7
	29	11	1265.625	5242.879	-3164.12	1	6123.678	-31.11132	-1.217581E-008	-0.0261072	7
	30	11	998.264	5418.055	-3844.492	1	6643.451	-35.35838	5.243333E-008	-0.026296	7
	31	11	796.875	5621.752	-4638.836	1	7288.546	-39.52803	-3.530063E-008	-0.0261477	7
	32	12	627.7902	5884.219	-5659.93	1	8164.486	-43.88695	5.354876E-008	-0.0262852	7
	33	12	505.5147	6170.628	-6784.54	1	9170.967	-47.71307	-2.423226E-008	-0.0261846	7
	34	12	397.9953	6557.492	-8303.912	1	10580.91	-51.7023	5.660823E-010	-0.0261835	6
	35	13	315.5048	7021.107	-10108.11	1	12307.31	-55.21611	9.255876E-010	-0.0261854	6
	36	13	252.4038	7573.605	-12219.08	1	14375.86	-58.20862	2.575415E-010	-0.0261848	6
	37	13	198.6229	8323.014	-14986.02	1	17142.15	-60.95285	1.794055E-010	-0.0261874	6
	38	14	158.3615	9232.192	-18175.65	1	20385.96	-63.07203	4.955222E-010	-0.0261869	6
	39	14	125.558	10435.96	-22140.02	1	24476.31	-64.7626	3.922817E-010	-0.0261871	6
	40	14	100.4464	11941.59	-26743.14	1	29288.17	-65.93786	6.633991E-010	-0.0261967	6
	41	15	79.00281	14054.24	-32686.41	1	35579.82	-66.73365	5.075805E-010	-0.026191	6
	42	15	63.3446	16712.7	-38918.93	1	42355.6	-66.76019	1.678523E-010	-0.0261926	6
	43	15	49.86702	20345.35	-47248.39	1	51442.62	-66.70309	4.759472E-010	-0.026195	6
	44	16	39.72458	24712.28	-56503.89	1	61671.6	-66.37758	6.263596E-010	-0.0261901	6
	45	16	31.6723	30270.77	-67062.21	1	73577.58	-65.70638	4.724274E-010	-0.0261946	6
	46	16	24.93351	37766.3	-79598.61	1	88103.53	-64.61756	1.088375E-009	-0.0261967	6
	47	17	19.86229	46281.39	-92985.89	1	103866.9	-63.53933	1.690634E-009	-0.0261941	5
	48	17	15.83615	56785.92	-108641.7	1	122587.4	-62.40439	-5.896806E-010	-0.0261944	5
	49	17	12.40079	70337.17	-127284.3	1	145425.6	-61.075	8.412482E-010	-0.0261903	5
	50	17	9.93114	83953.01	-145635.2	1	168100.3	-60.03822	9.909162E-010	-0.0261905	5
	51	18	7.944915	99393.2	-166196.6	1	193650	-59.11863	-1.657356E-009	-0.0261894	5
	52	18	6.317385	120383.1	-190109.2	1	225019.1	-57.65672	6.947897E-010	-0.026206	5
	53	19	5.008013	143195.7	-216910.2	1	259913.5	-56.56876	5.066252E-010	-0.026191	5
	54	20	3.945707	170041.2	-247156.5	1	300000.6	-55.47242	-1.368947E-010	-0.0261962	5
	55	21	3.158693	197031.3	-279692.9	1	342124.9	-54.837	-8.461132E-011	-0.0262118	5
	56	23	2.504006	226988.8	-317269.3	1	390107.3	-54.41836	2.712989E-010	-0.0262055	5
	57	24	1.998082	259758.8	-359278	1	443345.5	-54.13299	2.243926E-010	-0.0261947	5
	58	26	1.584686	298977.3	-407080.6	1	505076.2	-53.70486	-6.021587E-010	-0.0262442	5
	59	28	1.266892	334842	-463052.2	1	571433.7	-54.12858	-8.224594E-010	-0.0262544	5
	60	30	0.999041	383762.3	-529956.5	1	654314.4	-54.09023	9.077113E-010	-0.0262353	5
