EXPLAIN
TAG	EISPOT
TITLE	LABEL	Potentiostatic EIS	Test &Identifier
DATE	LABEL	2/18/2020	Date
TIME	LABEL	15:24:05	Time
NOTES	NOTES	1	&Notes...
	
PSTAT	PSTAT	REF600-11020	Potentiostat
VDC	POTEN	0.00000E+000	T	DC &Voltage (V)
FREQINIT	QUANT	1.00000E+006	Initial Fre&q. (Hz)
FREQFINAL	QUANT	1.00000E+000	Final Fre&q. (Hz)
PTSPERDEC	QUANT	1.00000E+001	Points/&decade
VAC	QUANT	2.50000E+001	AC &Voltage (mV rms)
AREA	QUANT	1.60000E-004	&Area (cm^2)
CONDIT	TWOPARAM	F	1.50000E+001	0.00000E+000	Conditionin&g	Time(s)	E(V)
DELAY	TWOPARAM	F	1.00000E+002	0.00000E+000	Init. De&lay	Time(s)	Stab.(mV/s)
SPEED	SELECTOR	1	&Optimize for:
ZGUESS	QUANT	1.00000E+003	E&stimated Z (ohms)
OCVCURVE	TABLE	39
	Pt	T	Vf	Vm	Ach	Over
	#	s	V vs. Ref.	V	V	bits
	0	0.258333	-6.73256E-002	-6.73256E-002	5.40871E-004	...........
	1	0.516667	-6.73291E-002	-6.75109E-002	5.39605E-004	...........
	2	0.775	-6.73468E-002	-6.74726E-002	5.36605E-004	...........
	3	1.03333	-6.73839E-002	-6.74769E-002	5.37471E-004	...........
	4	1.29167	-6.74246E-002	-6.73296E-002	5.36438E-004	...........
	5	1.55	-6.74390E-002	-6.71899E-002	5.40471E-004	...........
	6	1.80833	-6.74220E-002	-6.79270E-002	5.39205E-004	...........
	7	2.06667	-6.74411E-002	-6.86218E-002	5.36471E-004	...........
	8	2.325	-6.75995E-002	-6.85589E-002	5.34205E-004	...........
	9	2.58333	-6.79115E-002	-6.91020E-002	5.41671E-004	...........
	10	2.84167	-6.82772E-002	-6.86781E-002	5.40271E-004	...........
	11	3.1	-6.85738E-002	-6.85992E-002	5.39205E-004	...........
	12	3.35833	-6.87200E-002	-6.82818E-002	5.42071E-004	...........
	13	3.61667	-6.87040E-002	-6.83207E-002	5.37438E-004	...........
	14	3.875	-6.85842E-002	-6.82095E-002	5.34071E-004	...........
	15	4.13333	-6.84412E-002	-6.81970E-002	5.36471E-004	...........
	16	4.39167	-6.83249E-002	-6.81314E-002	5.31005E-004	...........
	17	4.65	-6.82445E-002	-6.81338E-002	5.34971E-004	...........
	18	4.90833	-6.81910E-002	-6.81032E-002	5.38171E-004	...........
	19	5.16667	-6.81544E-002	-6.80781E-002	5.37371E-004	...........
	20	5.425	-6.81274E-002	-6.80729E-002	5.36038E-004	...........
	21	5.68333	-6.81056E-002	-6.80551E-002	5.32338E-004	...........
	22	5.94167	-6.80872E-002	-6.80491E-002	5.37205E-004	...........
	23	6.2	-6.80721E-002	-6.80381E-002	5.38905E-004	...........
	24	6.45833	-6.80599E-002	-6.80423E-002	5.36538E-004	...........
	25	6.71667	-6.80503E-002	-6.80229E-002	5.34638E-004	...........
	26	6.975	-6.80429E-002	-6.80384E-002	5.33538E-004	...........
	27	7.23333	-6.80375E-002	-6.80336E-002	5.39371E-004	...........
	28	7.49167	-6.80346E-002	-6.80438E-002	5.39371E-004	...........
	29	7.75	-6.80345E-002	-6.80343E-002	5.41105E-004	...........
	30	8.00833	-6.80358E-002	-6.80330E-002	5.40371E-004	...........
	31	8.26667	-6.80375E-002	-6.80823E-002	5.43805E-004	...........
	32	8.525	-6.80414E-002	-6.80659E-002	5.47571E-004	...........
	33	8.78333	-6.80495E-002	-6.80696E-002	5.41005E-004	...........
	34	9.04167	-6.80590E-002	-6.80758E-002	5.42105E-004	...........
	35	9.3	-6.80667E-002	-6.80897E-002	5.38405E-004	...........
	36	9.5583	-6.80730E-002	-6.81107E-002	5.36605E-004	...........
	37	9.8167	-6.80808E-002	-6.81069E-002	5.37771E-004	...........
	38	10.075	-6.80906E-002	-6.81195E-002	5.38238E-004	...........
EOC	QUANT	-0.0680906	Open Circuit (V)
PSTATMODEL	IQUANT	4	Pstat Model
PSTATSECTION	LABEL	REF600-11020	Pstat Section
PSTATSERIALNO	LABEL	11020	Pstat Serial Number
CTRLMODE	IQUANT	1	Control Mode
IESTAB	IQUANT	0	I/E Stability
CASPEED	IQUANT	1	Control Amp Speed
CONVENTION	IQUANT	1	Current Convention
ICHRANGE	IQUANT	2	Ich Range
ICHRANGEMODE	TOGGLE	F	Ich Auto Range
ICHOFFSETENABLE	TOGGLE	T	Ich Offset Enable
ICHOFFSET	QUANT	0	Ich Offset (V)
ICHFILTER	IQUANT	3	Ich Filter
VCHRANGE	IQUANT	2	Vch Range
VCHRANGEMODE	TOGGLE	F	Vch Auto Range
VCHOFFSETENABLE	TOGGLE	T	Vch Offset Enable
VCHOFFSET	QUANT	0	Vch Offset (V)
VCHFILTER	IQUANT	3	Vch Filter
ACHRANGE	IQUANT	2	Ach Range
ACHOFFSETENABLE	TOGGLE	F	Ach Offset Enable
ACHOFFSET	QUANT	0	Ach Offset (V)
ACHFILTER	IQUANT	3	Ach Filter
IERANGELOWERLIMIT	IQUANT	1	I/E Range Lower Limit
IERANGEMODE	TOGGLE	F	I/E AutoRange
IERANGE	IQUANT	8	I/E Range
POSFEEDENABLE	TOGGLE	F	Positive Feedback IR Comp
POSFEEDRESISTANCE	QUANT	0	Positive Feedback Resistance (ohm)
ACHSELECT	IQUANT	0	Ach Select
CABLEID	IQUANT	14	Cable ID
DCCALDATE	LABEL	1/27/2020	DC Calibration Date
ACCALDATE	LABEL	1/27/2020	AC Calibration Date
THERMOSELECT	IQUANT	1	Thermo Select
FRAMEWORKVERSION	QUANT	6.33	Framework Version
INSTRUMENTVERSION	LABEL	3.50	Instrument Version
ZCURVE	TABLE
	Pt	Time	Freq	Zreal	Zimag	Zsig	Zmod	Zphz	Idc	Vdc	IERange
	#	s	Hz	ohm	ohm	V	ohm	°	A	V	#
	0	1	1000078	1629.112	-2137.538	1	2687.577	-52.68738	-9.560561E-007	-0.0657674	8
	1	3	794390.6	1980.741	-2370.675	1	3089.245	-50.12065	2.554958E-006	-0.0665938	8
	2	4	630984.4	2399.448	-2590.669	1	3531.135	-47.1945	2.364972E-007	-0.0665239	8
	3	5	501234.4	2861.641	-2789.335	1	3996.171	-44.26692	-1.467849E-006	-0.0660748	8
	4	7	398109.4	3384.171	-2942.227	1	4484.341	-41.00397	1.685813E-006	-0.0667998	8
	5	8	316265.6	3952.361	-3044.259	1	4988.854	-37.60483	3.187238E-007	-0.0665332	8
	6	9	251203.1	4527.67	-3078.02	1	5474.852	-34.20881	7.041239E-007	-0.0666306	8
	7	11	199546.9	5074.168	-3029.365	1	5909.672	-30.83792	-6.284558E-007	-0.0663938	8
	8	12	158578.1	5639.142	-2966.48	1	6371.807	-27.74669	1.422849E-006	-0.0666245	8
	9	14	125953.1	6162.22	-2774.497	1	6758.017	-24.23933	-5.706615E-007	-0.0652957	7
	10	15	100078.1	6608.183	-2591.308	1	7098.095	-21.41194	-7.291227E-009	-0.0665048	7
	11	17	79453.13	7010.029	-2390.074	1	7406.278	-18.82684	-2.198464E-008	-0.0665339	7
	12	18	63140.62	7353.291	-2175.353	1	7668.314	-16.48001	-1.015818E-008	-0.066569	7
	13	19	50203.12	7643.716	-1967.736	1	7892.932	-14.4363	-1.274244E-008	-0.066536	7
	14	21	39890.62	7881.293	-1773.061	1	8078.275	-12.67879	-9.377968E-009	-0.0665502	7
	15	23	31640.63	8079.565	-1599.317	1	8236.333	-11.19673	1.357834E-008	-0.0665768	7
	16	24	25171.88	8238.856	-1459.084	1	8367.06	-10.04284	4.951767E-008	-0.0666149	7
	17	26	20015.62	8371.641	-1352.955	1	8480.263	-9.180295	2.52754E-008	-0.0665709	7
	18	27	15890.62	8481.723	-1278.953	1	8577.606	-8.574986	1.415858E-008	-0.0665809	7
	19	29	12609.37	8586.801	-1245.895	1	8676.716	-8.255671	9.076231E-009	-0.0665411	7
	20	30	10078.13	8675.938	-1243.488	1	8764.597	-8.15643	6.21158E-008	-0.0666701	7
	21	32	8015.625	8762.28	-1282.852	1	8855.691	-8.329281	1.478891E-008	-0.0665806	7
	22	34	6328.125	8856.02	-1353.125	1	8958.796	-8.687129	6.239929E-009	-0.0667099	6
	23	35	5015.625	8947.391	-1478.541	1	9068.731	-9.383235	9.186317E-010	-0.0665353	6
	24	37	3984.375	9042.598	-1650.858	1	9192.057	-10.34624	-3.236581E-009	-0.0665085	6
	25	38	3170.956	9143.738	-1876.585	1	9334.319	-11.59786	-3.114285E-009	-0.0665734	6
	26	40	2527.573	9256.357	-2163.371	1	9505.8	-13.15489	-5.454923E-009	-0.0665055	6
	27	41	1976.103	9390.848	-2559.735	1	9733.46	-15.24714	-1.0435E-009	-0.0665914	6
	28	43	1577.524	9535.53	-3009.072	1	9999.05	-17.51382	4.234983E-010	-0.0666119	6
	29	45	1265.625	9701.48	-3547.821	1	10329.85	-20.08742	-3.472235E-009	-0.0665403	6
	30	46	998.264	9905.65	-4260.222	1	10782.93	-23.27156	1.750687E-009	-0.0665482	6
	31	47	796.875	10137.63	-5084.55	1	11341.26	-26.63614	-5.530902E-010	-0.0665323	6
	32	49	627.7902	10423.87	-6149.739	1	12102.74	-30.53919	-1.893328E-009	-0.0665704	6
	33	50	505.5147	10723.58	-7326.922	1	12987.65	-34.34298	-4.858712E-010	-0.0665369	6
	34	51	397.9953	11111.96	-8905.696	1	14240.33	-38.71049	1.379793E-009	-0.0665665	6
	35	53	315.5048	11560.01	-10791.68	1	15814.36	-43.03127	1.23766E-009	-0.0665655	6
	36	54	252.4038	12064.23	-13007.59	1	17741	-47.15479	1.121864E-009	-0.0665693	6
	37	55	198.6229	12708.54	-15934.44	1	20381.69	-51.42582	1.294148E-009	-0.0665718	6
	38	57	158.3615	13445.57	-19340.56	1	23555.05	-55.19294	1.313962E-009	-0.0665688	6
	39	58	125.558	14367.67	-23626.83	1	27652.44	-58.69588	1.202342E-009	-0.0665697	6
	40	59	100.4464	15480.79	-28659.56	1	32573.38	-61.62379	1.098088E-009	-0.0665723	6
	41	61	79.00281	16932	-35374.61	1	39218.05	-64.42197	7.71035E-010	-0.0665728	6
	42	62	63.3446	18774.65	-43115.06	1	47025.48	-66.46906	6.275792E-010	-0.066568	6
	43	64	49.86702	21058.83	-52711.36	1	56762.32	-68.22269	8.132271E-010	-0.0665756	6
	44	65	39.72458	24257.41	-64304.91	1	68728.05	-69.33228	1.338684E-009	-0.0665712	6
	45	66	31.6723	28289.75	-78333.38	1	83285.23	-70.14304	7.807308E-010	-0.0665715	6
	46	68	24.93351	33680.97	-95998.5	1	101735.5	-70.66663	1.110353E-009	-0.0665735	6
	47	69	19.86229	40472.25	-116144.1	1	122993.7	-70.7883	6.569866E-010	-0.0665687	5
	48	70	15.83615	50101.39	-140471	1	149138.4	-70.37035	-1.434324E-010	-0.066572	5
	49	72	12.40079	61557.2	-172320.3	1	182985.2	-70.34198	8.502897E-010	-0.0665619	5
	50	73	9.93114	76593.96	-204676.8	1	218538.9	-69.4832	1.392106E-010	-0.0665681	5
	51	75	7.944915	95427	-243700.4	1	261717.8	-68.61592	5.356362E-010	-0.0665755	5
	52	76	6.317385	120740.2	-289490.2	1	313660.3	-67.36002	7.402107E-010	-0.0665726	5
	53	79	5.008013	153067	-342908	1	375520.2	-65.94501	4.054226E-010	-0.0665656	5
	54	81	3.945707	194774.1	-405014.9	1	449415.2	-64.31682	8.765288E-011	-0.0665846	5
	55	84	3.158693	243329.6	-469041.6	1	528402.6	-62.5806	3.271049E-010	-0.066569	5
	56	87	2.504006	303829.8	-541027.2	1	620502.2	-60.68233	6.353195E-011	-0.066564	5
	57	90	1.998082	371708.4	-614839.2	1	718466.7	-58.84444	4.337641E-010	-0.0666047	5
	58	93	1.584686	453673.8	-699223.5	1	833506.7	-57.02348	1.424872E-010	-0.06661	5
	59	96	1.266892	541025.2	-781627.4	1	950605	-55.30988	3.782541E-010	-0.0666026	5
	60	101	0.999041	644662.6	-881393.5	1	1091991	-53.81778	-7.135821E-011	-0.0666066	4
