EXPLAIN
TAG	EISPOT
TITLE	LABEL	Potentiostatic EIS	Test &Identifier
DATE	LABEL	1/7/2020	Date
TIME	LABEL	17:13:05	Time
NOTES	NOTES	5	&Notes...
	
	
	
	
	
PSTAT	PSTAT	REF600-11020	Potentiostat
VDC	POTEN	0.00000E+000	T	DC &Voltage (V)
FREQINIT	QUANT	1.00000E+006	Initial Fre&q. (Hz)
FREQFINAL	QUANT	1.00000E+000	Final Fre&q. (Hz)
PTSPERDEC	QUANT	1.00000E+001	Points/&decade
VAC	QUANT	2.50000E+001	AC &Voltage (mV rms)
AREA	QUANT	1.00000E-001	&Area (cm^2)
CONDIT	TWOPARAM	T	5.00000E+000	0.00000E+000	Conditionin&g	Time(s)	E(V)
DELAY	TWOPARAM	T	5.00000E+000	0.00000E+000	Init. De&lay	Time(s)	Stab.(mV/s)
SPEED	SELECTOR	0	&Optimize for:
ZGUESS	QUANT	1.00000E+003	E&stimated Z (ohms)
OCVCURVE	TABLE	19
	Pt	T	Vf	Vm	Ach	Over
	#	s	V vs. Ref.	V	V	bits
	0	0.258333	1.23840E-003	1.23840E-003	6.60279E-004	...........
	1	0.516667	1.23201E-003	9.04114E-004	6.63313E-004	...........
	2	0.775	1.19310E-003	6.03109E-004	6.59079E-004	...........
	3	1.03333	1.08420E-003	3.23239E-004	6.61913E-004	...........
	4	1.29167	8.91792E-004	4.00722E-005	6.58679E-004	...........
	5	1.55	6.38503E-004	-2.28773E-004	6.61213E-004	...........
	6	1.80833	3.59116E-004	-4.63644E-004	6.55913E-004	...........
	7	2.06667	7.98384E-005	-6.81032E-004	6.55213E-004	...........
	8	2.325	-1.85161E-004	-9.09378E-004	6.62313E-004	...........
	9	2.58333	-4.32042E-004	-1.11602E-003	6.55446E-004	...........
	10	2.84167	-6.63421E-004	-1.31009E-003	6.53613E-004	...........
	11	3.1	-8.82506E-004	-1.49505E-003	6.60179E-004	...........
	12	3.35833	-1.09138E-003	-1.72221E-003	6.59479E-004	...........
	13	3.61667	-1.29472E-003	-1.95772E-003	6.57746E-004	...........
	14	3.875	-1.50038E-003	-2.16885E-003	6.64646E-004	...........
	15	4.13333	-1.71345E-003	-2.40220E-003	6.58713E-004	...........
	16	4.39167	-1.93233E-003	-2.57885E-003	6.56646E-004	...........
	17	4.65	-2.15046E-003	-2.76039E-003	6.57579E-004	...........
	18	4.90833	-2.36008E-003	-2.93258E-003	6.67179E-004	...........
EOC	QUANT	-0.0023601	Open Circuit (V)
PSTATMODEL	IQUANT	4	Pstat Model
PSTATSECTION	LABEL	REF600-11020	Pstat Section
PSTATSERIALNO	LABEL	11020	Pstat Serial Number
CTRLMODE	IQUANT	1	Control Mode
IESTAB	IQUANT	0	I/E Stability
CASPEED	IQUANT	1	Control Amp Speed
CONVENTION	IQUANT	1	Current Convention
ICHRANGE	IQUANT	2	Ich Range
ICHRANGEMODE	TOGGLE	F	Ich Auto Range
ICHOFFSETENABLE	TOGGLE	T	Ich Offset Enable
ICHOFFSET	QUANT	0	Ich Offset (V)
ICHFILTER	IQUANT	3	Ich Filter
VCHRANGE	IQUANT	2	Vch Range
VCHRANGEMODE	TOGGLE	F	Vch Auto Range
VCHOFFSETENABLE	TOGGLE	T	Vch Offset Enable
VCHOFFSET	QUANT	0	Vch Offset (V)
VCHFILTER	IQUANT	3	Vch Filter
ACHRANGE	IQUANT	2	Ach Range
ACHOFFSETENABLE	TOGGLE	F	Ach Offset Enable
ACHOFFSET	QUANT	0	Ach Offset (V)
ACHFILTER	IQUANT	3	Ach Filter
IERANGELOWERLIMIT	IQUANT	1	I/E Range Lower Limit
IERANGEMODE	TOGGLE	F	I/E AutoRange
IERANGE	IQUANT	6	I/E Range
POSFEEDENABLE	TOGGLE	F	Positive Feedback IR Comp
POSFEEDRESISTANCE	QUANT	0	Positive Feedback Resistance (ohm)
ACHSELECT	IQUANT	0	Ach Select
CABLEID	IQUANT	14	Cable ID
DCCALDATE	LABEL	12/22/2019	DC Calibration Date
ACCALDATE	LABEL	12/22/2019	AC Calibration Date
THERMOSELECT	IQUANT	1	Thermo Select
FRAMEWORKVERSION	QUANT	6.33	Framework Version
INSTRUMENTVERSION	LABEL	3.50	Instrument Version
ZCURVE	TABLE
	Pt	Time	Freq	Zreal	Zimag	Zsig	Zmod	Zphz	Idc	Vdc	IERange
	#	s	Hz	ohm	ohm	V	ohm	°	A	V	#
	0	1	1000078	2236.336	-1599.257	1	2749.331	-35.56946	6.509424E-007	-0.0003775	8
	1	1	794390.6	2535.077	-1549.594	1	2971.171	-31.43581	-5.304048E-008	-0.0003395	8
	2	1	630984.4	2831.608	-1469.497	1	3190.207	-27.4276	1.230076E-006	-0.0007972	8
	3	2	501234.4	3068.124	-1365.087	1	3358.101	-23.9855	-4.233671E-006	0.0004714	8
	4	2	398109.4	3341.168	-1234.897	1	3562.075	-20.28433	-3.420888E-006	0.0003475	8
	5	2	316265.6	3460.539	-1130.781	1	3640.603	-18.09555	5.746621E-006	-0.001952	8
	6	3	251203.1	3614.957	-981.554	1	3745.846	-15.19102	-1.643733E-006	-0.0001133	8
	7	3	199546.9	3738.793	-884.798	1	3842.062	-13.31429	1.044842E-006	-0.0008197	8
	8	3	158578.1	3834.416	-788.5176	1	3914.653	-11.62043	9.921926E-007	-0.000818	8
	9	3	125953.1	3931.438	-657.0803	1	3985.97	-9.48842	1.930772E-006	-0.0048605	7
	10	4	100078.1	3998.146	-602.9669	1	4043.358	-8.576239	-9.559032E-008	-0.0005891	7
	11	4	79453.13	4056.144	-579.2577	1	4097.297	-8.127453	-4.004212E-008	-0.0007297	7
	12	4	63140.62	4112.397	-562.9081	1	4150.744	-7.794253	1.241645E-009	-0.0006571	7
	13	5	50203.12	4170.434	-556.3428	1	4207.379	-7.598489	-4.092661E-008	-0.0007317	7
	14	5	39890.62	4227.383	-561.488	1	4264.509	-7.565836	-8.623591E-008	-0.0004184	7
	15	5	31640.63	4286.859	-574.146	1	4325.136	-7.628322	1.856917E-007	-0.0009727	7
	16	6	25171.88	4346.473	-596.7577	1	4387.249	-7.81766	-4.389732E-008	-0.0007255	7
	17	6	20015.62	4408.024	-629.7251	1	4452.778	-8.130196	2.465891E-008	-0.0005824	7
	18	6	15890.62	4471.666	-672.4039	1	4521.938	-8.551491	1.361163E-007	-0.000805	7
	19	7	12609.37	4540.965	-729.3407	1	4599.164	-9.124552	1.15329E-007	-0.0009523	7
	20	7	10078.13	4604.639	-796.8311	1	4673.076	-9.81778	7.525044E-010	-0.0007769	7
	21	7	8015.625	4675.159	-889.81	1	4759.083	-10.77606	-4.274562E-008	-0.0007258	7
	22	8	6328.125	4749.022	-1001.335	1	4853.44	-11.90646	1.532317E-009	-0.0007774	7
	23	8	5015.625	4826.884	-1141.337	1	4959.986	-13.30349	2.332395E-009	-0.0006649	7
	24	8	3984.375	4909.604	-1314.779	1	5082.604	-14.99189	2.628879E-008	-0.0005857	7
	25	9	3170.956	4996.435	-1525.063	1	5224	-16.97378	-3.949203E-008	-0.0007415	7
	26	9	2527.573	5089.941	-1784.76	1	5393.781	-19.32294	2.6331E-008	-0.0005917	7
	27	9	1976.103	5203.963	-2135.475	1	5625.076	-22.31107	-5.969947E-008	-0.0007106	7
	28	9	1577.524	5314.896	-2529.902	1	5886.3	-25.45455	-8.462943E-008	-0.000435	7
	29	10	1265.625	5447.455	-3013.3	1	6225.331	-28.9495	1.996427E-009	-0.0007834	7
	30	10	998.264	5612.961	-3657.722	1	6699.572	-33.09053	-1.60661E-008	-0.0006837	7
	31	10	796.875	5803.165	-4402.713	1	7284.271	-37.18666	-3.804977E-008	-0.0007487	7
	32	11	627.7902	6053.875	-5378.236	1	8097.828	-41.61775	6.100725E-008	-0.0009244	7
	33	11	505.5147	6341.067	-6461.197	1	9052.967	-45.53762	-5.102607E-008	-0.0005824	7
	34	11	397.9953	6753.925	-7904.934	1	10397.28	-49.48964	6.237188E-010	-0.0007111	6
	35	12	315.5048	7264.275	-9620.93	1	12055.37	-52.94539	3.969269E-010	-0.0007128	6
	36	12	252.4038	7894.543	-11602.12	1	14033.28	-55.76707	8.921924E-010	-0.0007156	6
	37	12	198.6229	8763.747	-14156.48	1	16649.6	-58.23991	8.236232E-010	-0.0007215	6
	38	13	158.3615	9820.71	-17044.16	1	19671.04	-60.04979	2.916961E-010	-0.0007203	6
	39	13	125.558	11200.32	-20550.9	1	23404.84	-61.40944	8.728974E-010	-0.0007163	6
	40	13	100.4464	12866.29	-24547.08	1	27714.63	-62.33884	3.897022E-010	-0.0007211	6
	41	14	79.00281	15120.48	-29605.91	1	33243.62	-62.94547	1.265489E-009	-0.0007252	6
	42	14	63.3446	17919.85	-34689.95	1	39045.02	-62.6804	8.194933E-010	-0.0007185	6
	43	14	49.86702	21434.48	-41607.98	1	46804.49	-62.7446	5.837657E-010	-0.0007242	6
	44	15	39.72458	25478.87	-49205.22	1	55410.52	-62.62451	7.572376E-010	-0.000721	6
	45	15	31.6723	30506.91	-57743.34	1	65306.7	-62.15165	6.982424E-010	-0.0007215	6
	46	15	24.93351	37185.45	-68118.98	1	77607.69	-61.37032	1.524556E-009	-0.0007247	6
	47	16	19.86229	44762.55	-79306.36	1	91066.92	-60.5585	2.978381E-009	-0.0007231	6
	48	16	15.83615	54451.06	-90698.95	1	105788.5	-59.02152	-1.627849E-009	-0.0007236	5
	49	16	12.40079	65976.7	-105408.6	1	124353.9	-57.95698	-1.637038E-009	-0.0007177	5
	50	17	9.93114	77669.72	-120390.7	1	143270.7	-57.17202	1.118068E-009	-0.0007239	5
	51	17	7.944915	91102.94	-136495.9	1	164106.3	-56.27923	6.086037E-010	-0.0007207	5
	52	18	6.317385	106072.7	-154521.5	1	187425.5	-55.532	6.132456E-010	-0.0007269	5
	53	19	5.008013	122592	-175431	1	214020.6	-55.05397	7.095211E-010	-0.0007192	5
	54	20	3.945707	141210.4	-200889	1	245554	-54.89557	4.411425E-011	-0.0007265	5
	55	21	3.158693	158787.4	-227809.2	1	277687.7	-55.12276	4.008494E-010	-0.0007458	5
	56	22	2.504006	179534.3	-262409.6	1	317948.6	-55.62101	6.300841E-010	-0.0007334	5
	57	24	1.998082	200647.6	-301409.9	1	362087.5	-56.34843	4.679758E-010	-0.0007562	5
	58	25	1.584686	227677	-352441.8	1	419585.5	-57.13758	5.388602E-010	-0.0007785	5
	59	27	1.266892	250509.2	-406891	1	477823.3	-58.38078	7.799436E-010	-0.0007586	5
	60	30	0.999041	286612.5	-481529.5	1	560372.6	-59.23835	5.012865E-010	-0.0007171	5
