EXPLAIN
TAG	EISPOT
TITLE	LABEL	Potentiostatic EIS	Test &Identifier
DATE	LABEL	7/30/2020	Date
TIME	LABEL	23:00:56	Time
NOTES	NOTES	1	&Notes...
	
PSTAT	PSTAT	REF600-11020	Potentiostat
VDC	POTEN	0.00000E+000	T	DC &Voltage (V)
FREQINIT	QUANT	1.00000E+006	Initial Fre&q. (Hz)
FREQFINAL	QUANT	1.00000E+000	Final Fre&q. (Hz)
PTSPERDEC	QUANT	1.00000E+001	Points/&decade
VAC	QUANT	2.50000E+001	AC &Voltage (mV rms)
AREA	QUANT	4.00000E-005	&Area (cm^2)
CONDIT	TWOPARAM	F	5.00000E+000	0.00000E+000	Conditionin&g	Time(s)	E(V)
DELAY	TWOPARAM	F	3.00000E+000	0.00000E+000	Init. De&lay	Time(s)	Stab.(mV/s)
SPEED	SELECTOR	0	&Optimize for:
ZGUESS	QUANT	1.00000E+003	E&stimated Z (ohms)
OCVCURVE	TABLE	39
	Pt	T	Vf	Vm	Ach	Over
	#	s	V vs. Ref.	V	V	bits
	0	0.258333	-2.40000E-002	-2.40000E-002	5.15050E-004	...........
	1	0.516667	-2.39999E-002	-2.39937E-002	5.15917E-004	...........
	2	0.775	-2.39991E-002	-2.39839E-002	5.21283E-004	...........
	3	1.03333	-2.39966E-002	-2.39772E-002	5.15283E-004	...........
	4	1.29167	-2.39919E-002	-2.39708E-002	5.15183E-004	...........
	5	1.55	-2.39855E-002	-2.39632E-002	5.13750E-004	...........
	6	1.80833	-2.39783E-002	-2.39549E-002	5.21050E-004	...........
	7	2.06667	-2.39710E-002	-2.39490E-002	5.15317E-004	...........
	8	2.325	-2.39636E-002	-2.39405E-002	5.13617E-004	...........
	9	2.58333	-2.39562E-002	-2.39311E-002	5.09917E-004	...........
	10	2.84167	-2.39485E-002	-2.39222E-002	5.09017E-004	...........
	11	3.1	-2.39404E-002	-2.39144E-002	5.13683E-004	...........
	12	3.35833	-2.39320E-002	-2.39064E-002	5.08017E-004	...........
	13	3.61667	-2.39235E-002	-2.38981E-002	5.12517E-004	...........
	14	3.875	-2.39151E-002	-2.38886E-002	5.11617E-004	...........
	15	4.13333	-2.39067E-002	-2.38802E-002	5.13650E-004	...........
	16	4.39167	-2.38983E-002	-2.38727E-002	5.18617E-004	...........
	17	4.65	-2.38897E-002	-2.38631E-002	5.16517E-004	...........
	18	4.90833	-2.38812E-002	-2.38559E-002	5.16583E-004	...........
	19	5.16667	-2.38728E-002	-2.38467E-002	5.14817E-004	...........
	20	5.425	-2.38644E-002	-2.38379E-002	5.18183E-004	...........
	21	5.68333	-2.38559E-002	-2.38278E-002	5.16217E-004	...........
	22	5.94167	-2.38471E-002	-2.38163E-002	5.12417E-004	...........
	23	6.2	-2.38379E-002	-2.38104E-002	5.13450E-004	...........
	24	6.45833	-2.38285E-002	-2.38014E-002	5.14050E-004	...........
	25	6.71667	-2.38192E-002	-2.37933E-002	5.06184E-004	...........
	26	6.975	-2.38105E-002	-2.37830E-002	5.13383E-004	...........
	27	7.23333	-2.38019E-002	-2.37743E-002	5.13650E-004	...........
	28	7.49167	-2.37931E-002	-2.37674E-002	5.17083E-004	...........
	29	7.75	-2.37843E-002	-2.37563E-002	5.15950E-004	...........
	30	8.00833	-2.37756E-002	-2.37499E-002	5.13817E-004	...........
	31	8.26667	-2.37669E-002	-2.37384E-002	5.17117E-004	...........
	32	8.525	-2.37580E-002	-2.37270E-002	5.21250E-004	...........
	33	8.78333	-2.37488E-002	-2.37195E-002	5.19717E-004	...........
	34	9.04167	-2.37391E-002	-2.37092E-002	5.16217E-004	...........
	35	9.3	-2.37293E-002	-2.36994E-002	5.18650E-004	...........
	36	9.5583	-2.37196E-002	-2.36920E-002	5.20450E-004	...........
	37	9.8167	-2.37101E-002	-2.36811E-002	5.20983E-004	...........
	38	10.075	-2.37007E-002	-2.36667E-002	5.17617E-004	...........
EOC	QUANT	-0.0237007	Open Circuit (V)
PSTATMODEL	IQUANT	4	Pstat Model
PSTATSECTION	LABEL	REF600-11020	Pstat Section
PSTATSERIALNO	LABEL	11020	Pstat Serial Number
CTRLMODE	IQUANT	1	Control Mode
IESTAB	IQUANT	0	I/E Stability
CASPEED	IQUANT	1	Control Amp Speed
CONVENTION	IQUANT	1	Current Convention
ICHRANGE	IQUANT	2	Ich Range
ICHRANGEMODE	TOGGLE	F	Ich Auto Range
ICHOFFSETENABLE	TOGGLE	T	Ich Offset Enable
ICHOFFSET	QUANT	0	Ich Offset (V)
ICHFILTER	IQUANT	3	Ich Filter
VCHRANGE	IQUANT	2	Vch Range
VCHRANGEMODE	TOGGLE	F	Vch Auto Range
VCHOFFSETENABLE	TOGGLE	T	Vch Offset Enable
VCHOFFSET	QUANT	0	Vch Offset (V)
VCHFILTER	IQUANT	3	Vch Filter
ACHRANGE	IQUANT	2	Ach Range
ACHOFFSETENABLE	TOGGLE	F	Ach Offset Enable
ACHOFFSET	QUANT	0	Ach Offset (V)
ACHFILTER	IQUANT	3	Ach Filter
IERANGELOWERLIMIT	IQUANT	1	I/E Range Lower Limit
IERANGEMODE	TOGGLE	F	I/E AutoRange
IERANGE	IQUANT	7	I/E Range
POSFEEDENABLE	TOGGLE	F	Positive Feedback IR Comp
POSFEEDRESISTANCE	QUANT	0	Positive Feedback Resistance (ohm)
ACHSELECT	IQUANT	0	Ach Select
CABLEID	IQUANT	14	Cable ID
DCCALDATE	LABEL	6/26/2020	DC Calibration Date
ACCALDATE	LABEL	6/26/2020	AC Calibration Date
THERMOSELECT	IQUANT	1	Thermo Select
FRAMEWORKVERSION	QUANT	6.33	Framework Version
INSTRUMENTVERSION	LABEL	3.50	Instrument Version
ZCURVE	TABLE
	Pt	Time	Freq	Zreal	Zimag	Zsig	Zmod	Zphz	Idc	Vdc	IERange
	#	s	Hz	ohm	ohm	V	ohm	°	A	V	#
	0	1	1000078	1574.37	-1560.931	1	2217.013	-44.75441	-1.476222E-009	-0.0215592	8
	1	1	794390.6	1820.502	-1668.461	1	2469.41	-42.50476	2.703826E-008	-0.0218615	8
	2	2	630984.4	2075.857	-1769.434	1	2727.651	-40.44385	4.332701E-008	-0.0219895	8
	3	2	501234.4	2333.769	-1868.691	1	2989.729	-38.68489	7.892717E-008	-0.0220766	8
	4	2	398109.4	2597.422	-1970.878	1	3260.515	-37.19058	4.789771E-008	-0.0221251	8
	5	2	316265.6	2855.719	-2084.673	1	3535.674	-36.12941	3.401983E-008	-0.0221456	8
	6	3	251203.1	3122.685	-2208.676	1	3824.841	-35.27178	3.916786E-008	-0.0221473	8
	7	3	199546.9	3393.336	-2376.149	1	4142.562	-35.00124	3.741552E-008	-0.0221492	8
	8	3	158578.1	3677.423	-2554.657	1	4477.69	-34.78719	8.871927E-008	-0.0221678	8
	9	4	125953.1	4021.914	-2762.282	1	4879.139	-34.48159	1.90166E-009	-0.0221445	7
	10	4	100078.1	4360.374	-3040.866	1	5315.988	-34.89141	1.751031E-009	-0.0221691	7
	11	4	79453.13	4731.511	-3365.848	1	5806.56	-35.42685	2.058887E-009	-0.0221804	7
	12	5	63140.62	5145.128	-3732.803	1	6356.584	-35.96098	2.022962E-009	-0.0221742	7
	13	5	50203.12	5621.034	-4143.019	1	6982.881	-36.3923	7.735074E-010	-0.0221806	7
	14	5	39890.62	6160.027	-4600.316	1	7688.227	-36.75242	1.170125E-009	-0.0221791	7
	15	6	31640.63	6778.953	-5113.399	1	8491.233	-37.02744	1.863951E-009	-0.0221827	7
	16	6	25171.88	7466.261	-5654.387	1	9365.743	-37.13756	1.647685E-009	-0.022183	7
	17	6	20015.62	8234.948	-6237.044	1	10330.3	-37.13982	1.51938E-009	-0.0221957	7
	18	7	15890.62	9093.614	-6858.228	1	11389.87	-37.02289	2.111797E-009	-0.0221888	7
	19	7	12609.37	10131.07	-7478.075	1	12592.07	-36.43225	1.556657E-009	-0.0222008	6
	20	7	10078.13	11140.93	-8180.322	1	13821.65	-36.28829	1.256739E-009	-0.0221924	6
	21	8	8015.625	12284.54	-8941.79	1	15194.26	-36.05049	1.049853E-009	-0.0221986	6
	22	8	6328.125	13576.45	-9776.59	1	16730.26	-35.75819	1.250651E-009	-0.0221899	6
	23	8	5015.625	14972.37	-10645.14	1	18370.92	-35.41228	8.993602E-010	-0.0221978	6
	24	8	3984.375	16479.59	-11546.11	1	20121.86	-35.01628	9.934438E-010	-0.022204	6
	25	9	3170.956	18093.32	-12497.87	1	21990.12	-34.63459	1.020014E-009	-0.0222058	6
	26	9	2527.573	19818.3	-13496.67	1	23977.59	-34.25566	6.713813E-010	-0.0222031	6
	27	9	1976.103	21845.07	-14643.55	1	26299.06	-33.83539	8.186E-010	-0.0222007	6
	28	10	1577.524	23833.92	-15774.9	1	28581.52	-33.49929	8.904931E-010	-0.0222066	6
	29	10	1265.625	25938.02	-16934.84	1	30976.92	-33.14037	8.758061E-010	-0.0221996	6
	30	10	998.264	28330.11	-18250.52	1	33699.8	-32.79	1.031913E-009	-0.0222018	6
	31	11	796.875	30707.93	-19556.81	1	36406.67	-32.49163	4.466798E-010	-0.0222091	6
	32	11	627.7902	33297.69	-21055.15	1	39396.14	-32.30643	6.664143E-010	-0.0222055	6
	33	11	505.5147	35680.52	-22585.93	1	42228.23	-32.334	7.548424E-010	-0.0222035	6
	34	12	397.9953	38275.6	-24620.25	1	45510.2	-32.75059	6.353985E-010	-0.0221723	6
	35	12	315.5048	40844.44	-27036.57	1	48982.09	-33.50217	7.373355E-010	-0.0221761	6
	36	12	252.4038	43425.27	-29956.4	1	52755.47	-34.59939	6.831828E-010	-0.0221792	6
	37	13	198.6229	46414.25	-33837.21	1	57439	-36.09303	5.827765E-010	-0.022177	6
	38	13	158.3615	49600.13	-38367.79	1	62707.73	-37.72346	7.202914E-010	-0.0221842	6
	39	13	125.558	53329.91	-43943.91	1	69102.44	-39.48857	5.645427E-010	-0.0221811	6
	40	14	100.4464	57588.97	-50451.67	1	76562.79	-41.22046	3.305789E-010	-0.0221857	6
	41	14	79.00281	63003.6	-58673.21	1	86092.97	-42.96175	4.170921E-010	-0.0221921	6
	42	14	63.3446	68942.87	-67430.54	1	96436.5	-44.36464	3.455607E-010	-0.0221927	6
	43	15	49.86702	76789.47	-78389.2	1	109733.7	-45.59064	6.350051E-011	-0.0222021	5
	44	15	39.72458	85838.3	-90321.72	1	124604.3	-46.45791	1.905748E-010	-0.0221978	5
	45	15	31.6723	96734.8	-103599.5	1	141740.9	-46.96255	-5.750922E-011	-0.0221975	5
	46	16	24.93351	110555.2	-118981.6	1	162416.3	-47.10241	4.860461E-010	-0.0222029	5
	47	16	19.86229	125857	-134813.1	1	184430.4	-46.9678	1.61129E-009	-0.0221941	5
	48	16	15.83615	144645.4	-152628.9	1	210280.4	-46.53835	-8.580986E-010	-0.0222021	5
	49	17	12.40079	166879.3	-171361.6	1	239193.4	-45.75922	-1.483864E-010	-0.0221961	5
	50	17	9.93114	190169.9	-189985.5	1	268810.5	-44.9722	-6.257881E-010	-0.0221929	5
	51	17	7.944915	214783.5	-209395.9	1	299964.3	-44.27231	-1.349277E-009	-0.0221953	5
	52	18	6.317385	241868.4	-229356.1	1	333323.5	-43.479	1.852848E-010	-0.0222096	5
	53	18	5.008013	272650.8	-252237.8	1	371432.8	-42.77288	-8.914037E-013	-0.0222051	5
	54	19	3.945707	306429.5	-279249.4	1	414583.2	-42.34293	-5.656409E-010	-0.0222019	5
	55	20	3.158693	339517	-304922.7	1	456343.8	-41.92724	-1.711653E-011	-0.0222131	5
	56	21	2.504006	377071.5	-336756.9	1	505557.2	-41.76757	1.967967E-010	-0.0222076	5
	57	22	1.998082	416810	-370620.3	1	557754.4	-41.64295	-9.641057E-011	-0.0222432	5
	58	24	1.584686	460953.5	-411600.8	1	617975.2	-41.76273	-2.378932E-010	-0.0222507	5
	59	26	1.266892	505254.3	-455865.8	1	680511.2	-42.05836	-1.571574E-010	-0.0222166	5
	60	29	0.999041	555173.9	-508773	1	753039.3	-42.5028	-1.029954E-010	-0.0221945	5
