EXPLAIN
TAG	EISPOT
TITLE	LABEL	Potentiostatic EIS	Test &Identifier
DATE	LABEL	1/28/2020	Date
TIME	LABEL	12:32:05	Time
NOTES	NOTES	6	&Notes...
	
	
	
	
	
	
PSTAT	PSTAT	REF600-11020	Potentiostat
VDC	POTEN	0.00000E+000	T	DC &Voltage (V)
FREQINIT	QUANT	1.00000E+006	Initial Fre&q. (Hz)
FREQFINAL	QUANT	1.00000E+000	Final Fre&q. (Hz)
PTSPERDEC	QUANT	1.00000E+001	Points/&decade
VAC	QUANT	2.50000E+001	AC &Voltage (mV rms)
AREA	QUANT	1.60000E-004	&Area (cm^2)
CONDIT	TWOPARAM	F	5.00000E+000	0.00000E+000	Conditionin&g	Time(s)	E(V)
DELAY	TWOPARAM	F	5.00000E+000	0.00000E+000	Init. De&lay	Time(s)	Stab.(mV/s)
SPEED	SELECTOR	0	&Optimize for:
ZGUESS	QUANT	1.00000E+003	E&stimated Z (ohms)
OCVCURVE	TABLE	39
	Pt	T	Vf	Vm	Ach	Over
	#	s	V vs. Ref.	V	V	bits
	0	0.258333	5.56927E-002	5.56927E-002	5.36005E-004	...........
	1	0.516667	5.56949E-002	5.58081E-002	5.33638E-004	...........
	2	0.775	5.57102E-002	5.60102E-002	5.43471E-004	...........
	3	1.03333	5.57557E-002	5.60065E-002	5.40938E-004	...........
	4	1.29167	5.58332E-002	5.60734E-002	5.37538E-004	...........
	5	1.55	5.59216E-002	5.61079E-002	5.35605E-004	...........
	6	1.80833	5.59982E-002	5.61211E-002	5.37671E-004	...........
	7	2.06667	5.60547E-002	5.61293E-002	5.36538E-004	...........
	8	2.325	5.60921E-002	5.61323E-002	5.37538E-004	...........
	9	2.58333	5.61143E-002	5.61336E-002	5.43238E-004	...........
	10	2.84167	5.61260E-002	5.61334E-002	5.42605E-004	...........
	11	3.1	5.61313E-002	5.61331E-002	5.39671E-004	...........
	12	3.35833	5.61332E-002	5.61311E-002	5.39538E-004	...........
	13	3.61667	5.61330E-002	5.61086E-002	5.39738E-004	...........
	14	3.875	5.61306E-002	5.61335E-002	5.38438E-004	...........
	15	4.13333	5.61274E-002	5.61334E-002	5.40705E-004	...........
	16	4.39167	5.61263E-002	5.61460E-002	5.38571E-004	...........
	17	4.65	5.61288E-002	5.61315E-002	5.32605E-004	...........
	18	4.90833	5.61320E-002	5.60865E-002	5.31005E-004	...........
	19	5.16667	5.61295E-002	5.60680E-002	5.36705E-004	...........
	20	5.425	5.61179E-002	5.60898E-002	5.34505E-004	...........
	21	5.68333	5.61021E-002	5.60939E-002	5.35771E-004	...........
	22	5.94167	5.60911E-002	5.61038E-002	5.41105E-004	...........
	23	6.2	5.60908E-002	5.62072E-002	5.36805E-004	...........
	24	6.45833	5.61060E-002	5.62693E-002	5.36638E-004	...........
	25	6.71667	5.61399E-002	5.62547E-002	5.36938E-004	...........
	26	6.975	5.61845E-002	5.62429E-002	5.44238E-004	...........
	27	7.23333	5.62216E-002	5.62051E-002	5.35571E-004	...........
	28	7.49167	5.62377E-002	5.61778E-002	5.36405E-004	...........
	29	7.75	5.62322E-002	5.61764E-002	5.42005E-004	...........
	30	8.00833	5.62125E-002	5.60803E-002	5.41271E-004	...........
	31	8.26667	5.61847E-002	5.60979E-002	5.30405E-004	...........
	32	8.525	5.61509E-002	5.60012E-002	5.33671E-004	...........
	33	8.78333	5.61154E-002	5.61418E-002	5.35238E-004	...........
	34	9.04167	5.60889E-002	5.60997E-002	5.40538E-004	...........
	35	9.3	5.60784E-002	5.59573E-002	5.30838E-004	...........
	36	9.5583	5.60720E-002	5.60268E-002	5.29505E-004	...........
	37	9.8167	5.60547E-002	5.59648E-002	5.37371E-004	...........
	38	10.075	5.60280E-002	5.59384E-002	5.37038E-004	...........
EOC	QUANT	0.056028	Open Circuit (V)
PSTATMODEL	IQUANT	4	Pstat Model
PSTATSECTION	LABEL	REF600-11020	Pstat Section
PSTATSERIALNO	LABEL	11020	Pstat Serial Number
CTRLMODE	IQUANT	1	Control Mode
IESTAB	IQUANT	0	I/E Stability
CASPEED	IQUANT	1	Control Amp Speed
CONVENTION	IQUANT	1	Current Convention
ICHRANGE	IQUANT	2	Ich Range
ICHRANGEMODE	TOGGLE	F	Ich Auto Range
ICHOFFSETENABLE	TOGGLE	T	Ich Offset Enable
ICHOFFSET	QUANT	0	Ich Offset (V)
ICHFILTER	IQUANT	3	Ich Filter
VCHRANGE	IQUANT	2	Vch Range
VCHRANGEMODE	TOGGLE	F	Vch Auto Range
VCHOFFSETENABLE	TOGGLE	T	Vch Offset Enable
VCHOFFSET	QUANT	0	Vch Offset (V)
VCHFILTER	IQUANT	3	Vch Filter
ACHRANGE	IQUANT	2	Ach Range
ACHOFFSETENABLE	TOGGLE	F	Ach Offset Enable
ACHOFFSET	QUANT	0	Ach Offset (V)
ACHFILTER	IQUANT	3	Ach Filter
IERANGELOWERLIMIT	IQUANT	1	I/E Range Lower Limit
IERANGEMODE	TOGGLE	F	I/E AutoRange
IERANGE	IQUANT	8	I/E Range
POSFEEDENABLE	TOGGLE	F	Positive Feedback IR Comp
POSFEEDRESISTANCE	QUANT	0	Positive Feedback Resistance (ohm)
ACHSELECT	IQUANT	0	Ach Select
CABLEID	IQUANT	14	Cable ID
DCCALDATE	LABEL	1/27/2020	DC Calibration Date
ACCALDATE	LABEL	1/27/2020	AC Calibration Date
THERMOSELECT	IQUANT	1	Thermo Select
FRAMEWORKVERSION	QUANT	6.33	Framework Version
INSTRUMENTVERSION	LABEL	3.50	Instrument Version
ZCURVE	TABLE
	Pt	Time	Freq	Zreal	Zimag	Zsig	Zmod	Zphz	Idc	Vdc	IERange
	#	s	Hz	ohm	ohm	V	ohm	°	A	V	#
	0	1	1000078	2360.711	-1813.738	1	2977.013	-37.53513	-3.919511E-007	0.0585373	8
	1	2	794390.6	2745.917	-1793.236	1	3279.597	-33.14677	5.350962E-007	0.0578844	8
	2	2	630984.4	3062.509	-1716.736	1	3510.861	-29.27348	1.786053E-006	0.0574073	8
	3	2	501234.4	3373.811	-1624.316	1	3744.463	-25.70842	1.773823E-007	0.0575064	8
	4	3	398109.4	3650.179	-1489.347	1	3942.329	-22.19646	-3.351184E-006	0.0583825	8
	5	3	316265.6	3869.915	-1375.244	1	4107.011	-19.56358	4.003704E-006	0.0569658	8
	6	3	251203.1	4053.404	-1214.782	1	4231.522	-16.68317	-1.594951E-007	0.0577712	8
	7	4	199546.9	4219.41	-1086.976	1	4357.17	-14.44605	-9.926322E-007	0.0579239	8
	8	4	158578.1	4335.931	-967.319	1	4442.522	-12.57638	2.779556E-007	0.0575466	8
	9	4	125953.1	4464.193	-802.0822	1	4535.676	-10.18567	-2.770552E-007	0.0578469	7
	10	4	100078.1	4548.158	-707.6179	1	4602.875	-8.843373	-4.60236E-010	0.0575891	7
	11	5	79453.13	4614.06	-638.6846	1	4658.054	-7.880883	-7.243441E-010	0.0575796	7
	12	5	63140.62	4669.26	-583.7936	1	4705.614	-7.126661	-3.305842E-008	0.0575708	7
	13	5	50203.12	4717.166	-542.6923	1	4748.281	-6.562812	-2.444163E-008	0.0575493	7
	14	6	39890.62	4758.327	-517.6403	1	4786.4	-6.208575	-2.481981E-008	0.0575472	7
	15	6	31640.63	4797.944	-507.1564	1	4824.673	-6.033922	-3.038774E-008	0.0575548	7
	16	6	25171.88	4836.644	-510.7971	1	4863.542	-6.028649	1.107924E-007	0.0573818	7
	17	7	20015.62	4872.866	-529.4675	1	4901.547	-6.201218	3.093155E-008	0.0575083	7
	18	7	15890.62	4909.366	-564.8713	1	4941.756	-6.563585	1.910338E-008	0.0574676	7
	19	7	12609.37	4948.256	-618.7407	1	4986.791	-7.127396	3.148475E-008	0.0575061	7
	20	8	10078.13	4991.918	-682.0685	1	5038.299	-7.780405	-4.474909E-008	0.0575997	7
	21	8	8015.625	5033.706	-778.462	1	5093.544	-8.791142	-9.327069E-009	0.0575804	7
	22	8	6328.125	5081.536	-905.9573	1	5161.663	-10.10872	4.185803E-008	0.0574081	7
	23	9	5015.625	5135.499	-1060.873	1	5243.93	-11.67178	-3.720055E-009	0.057627	7
	24	9	3984.375	5197.306	-1254.709	1	5346.614	-13.57238	-2.386342E-008	0.0575361	7
	25	9	3170.956	5266.503	-1487.079	1	5472.428	-15.76785	-2.619032E-008	0.05754	7
	26	10	2527.573	5345.119	-1774.771	1	5632.061	-18.36802	-2.820934E-008	0.0576359	7
	27	10	1976.103	5448.728	-2157.711	1	5860.406	-21.6037	-2.347588E-008	0.0575278	7
	28	10	1577.524	5561.085	-2594.118	1	6136.376	-25.00796	-1.43225E-009	0.0575502	7
	29	10	1265.625	5685.682	-3103.94	1	6477.764	-28.63111	3.193754E-008	0.0574945	7
	30	11	998.264	5852.917	-3784.428	1	6969.83	-32.88625	-2.880544E-008	0.0576312	7
	31	11	796.875	6040.835	-4570.624	1	7575.11	-37.11192	-3.87238E-008	0.0576015	7
	32	11	627.7902	6284.497	-5587.843	1	8409.453	-41.64181	-1.443025E-009	0.0575488	7
	33	12	505.5147	6556.9	-6718.068	1	9387.512	-45.69558	1.113818E-007	0.0573686	7
	34	12	397.9953	6919.669	-8227.087	1	10750.2	-49.93335	6.376861E-010	0.0575306	6
	35	12	315.5048	7354.625	-10032.64	1	12439.63	-53.75598	1.638173E-009	0.0575315	6
	36	13	252.4038	7870.725	-12144.38	1	14471.85	-57.05289	4.243161E-010	0.0575266	6
	37	13	198.6229	8565.63	-14912.73	1	17197.66	-60.12764	1.138273E-009	0.0575282	6
	38	13	158.3615	9397.658	-18110.04	1	20403.18	-62.57431	5.794906E-010	0.0575279	6
	39	14	125.558	10479.03	-22078.63	1	24439.23	-64.60989	9.882513E-010	0.0575284	6
	40	14	100.4464	11846.16	-26693.73	1	29204.22	-66.06928	1.292084E-009	0.0575307	6
	41	14	79.00281	13686.71	-32767.51	1	35511.07	-67.33012	1.489617E-009	0.0575271	6
	42	15	63.3446	15608.93	-39044.13	1	42048.57	-68.20963	7.082145E-010	0.0575213	6
	43	15	49.86702	18798.32	-47739.66	1	51307.43	-68.5071	4.948286E-010	0.0575238	6
	44	15	39.72458	22555.14	-57785.66	1	62031.58	-68.67809	1.186713E-009	0.0575263	6
	45	16	31.6723	27204.69	-69481.48	1	74617.5	-68.61774	1.194109E-009	0.0575272	6
	46	16	24.93351	33828.55	-83795.91	1	90366.61	-68.01599	8.437568E-010	0.0575244	6
	47	16	19.86229	41669.53	-99684	1	108042.8	-67.31429	1.337286E-009	0.0575269	5
	48	17	15.83615	52006.79	-119091.7	1	129952	-66.40932	-9.931138E-010	0.0575211	5
	49	17	12.40079	64616.95	-141567.7	1	155617.3	-65.46622	-6.928668E-010	0.0575218	5
	50	17	9.93114	81669.07	-165714.7	1	184746.3	-63.76456	-6.148755E-010	0.057527	5
	51	18	7.944915	101007.5	-192080.1	1	217019.1	-62.26186	-2.758985E-011	0.0575198	5
	52	19	6.317385	125292.6	-221379.1	1	254375.6	-60.4917	1.17758E-010	0.0575215	5
	53	19	5.008013	154775	-253827.7	1	297294.1	-58.62666	-2.238129E-010	0.057519	5
	54	20	3.945707	190089.4	-288207	1	345249.6	-56.59282	3.064614E-010	0.0575299	5
	55	22	3.158693	228156.6	-322732.9	1	395236.6	-54.74153	-3.145646E-011	0.0575362	5
	56	23	2.504006	270794.3	-360177.5	1	450618.9	-53.06285	-1.31299E-010	0.0575276	5
	57	25	1.998082	315469.2	-397674.5	1	507608	-51.57556	2.388583E-010	0.0575633	5
	58	26	1.584686	362603.4	-441801	1	571550	-50.62293	2.519734E-010	0.0575601	5
	59	28	1.266892	409318	-487864.1	1	636830.1	-50.00335	1.494753E-010	0.0575197	5
	60	31	0.999041	461543.9	-545066.4	1	714227	-49.74319	7.033551E-011	0.0574886	5
