EXPLAIN
TAG	EISPOT
TITLE	LABEL	Potentiostatic EIS	Test &Identifier
DATE	LABEL	6/1/2020	Date
TIME	LABEL	13:29:53	Time
NOTES	NOTES	1	&Notes...
	
PSTAT	PSTAT	REF600-11020	Potentiostat
VDC	POTEN	0.00000E+000	T	DC &Voltage (V)
FREQINIT	QUANT	1.00000E+006	Initial Fre&q. (Hz)
FREQFINAL	QUANT	1.00000E+000	Final Fre&q. (Hz)
PTSPERDEC	QUANT	1.00000E+001	Points/&decade
VAC	QUANT	2.50000E+001	AC &Voltage (mV rms)
AREA	QUANT	4.00000E-004	&Area (cm^2)
CONDIT	TWOPARAM	F	5.00000E+000	0.00000E+000	Conditionin&g	Time(s)	E(V)
DELAY	TWOPARAM	T	3.00000E+000	0.00000E+000	Init. De&lay	Time(s)	Stab.(mV/s)
SPEED	SELECTOR	0	&Optimize for:
ZGUESS	QUANT	1.00000E+003	E&stimated Z (ohms)
OCVCURVE	TABLE	12
	Pt	T	Vf	Vm	Ach	Over
	#	s	V vs. Ref.	V	V	bits
	0	0.258333	-9.09559E-003	-9.09559E-003	5.76297E-004	...........
	1	0.516667	-9.09567E-003	-9.09999E-003	5.77830E-004	...........
	2	0.775	-9.09621E-003	-9.10511E-003	5.78297E-004	...........
	3	1.03333	-9.09774E-003	-9.10804E-003	5.78397E-004	...........
	4	1.29167	-9.10054E-003	-9.11620E-003	5.72197E-004	...........
	5	1.55	-9.10443E-003	-9.11787E-003	5.79730E-004	...........
	6	1.80833	-9.10906E-003	-9.12653E-003	5.82097E-004	...........
	7	2.06667	-9.11417E-003	-9.13411E-003	5.80230E-004	...........
	8	2.325	-9.11980E-003	-9.13805E-003	5.80963E-004	...........
	9	2.58333	-9.12588E-003	-9.14347E-003	5.78063E-004	...........
	10	2.84167	-9.13205E-003	-9.15359E-003	5.78030E-004	...........
	11	3.1	-9.13822E-003	-9.15606E-003	5.79063E-004	...........
EOC	QUANT	-0.0091382	Open Circuit (V)
PSTATMODEL	IQUANT	4	Pstat Model
PSTATSECTION	LABEL	REF600-11020	Pstat Section
PSTATSERIALNO	LABEL	11020	Pstat Serial Number
CTRLMODE	IQUANT	1	Control Mode
IESTAB	IQUANT	0	I/E Stability
CASPEED	IQUANT	1	Control Amp Speed
CONVENTION	IQUANT	1	Current Convention
ICHRANGE	IQUANT	2	Ich Range
ICHRANGEMODE	TOGGLE	F	Ich Auto Range
ICHOFFSETENABLE	TOGGLE	T	Ich Offset Enable
ICHOFFSET	QUANT	0	Ich Offset (V)
ICHFILTER	IQUANT	3	Ich Filter
VCHRANGE	IQUANT	2	Vch Range
VCHRANGEMODE	TOGGLE	F	Vch Auto Range
VCHOFFSETENABLE	TOGGLE	T	Vch Offset Enable
VCHOFFSET	QUANT	0	Vch Offset (V)
VCHFILTER	IQUANT	3	Vch Filter
ACHRANGE	IQUANT	2	Ach Range
ACHOFFSETENABLE	TOGGLE	F	Ach Offset Enable
ACHOFFSET	QUANT	0	Ach Offset (V)
ACHFILTER	IQUANT	3	Ach Filter
IERANGELOWERLIMIT	IQUANT	1	I/E Range Lower Limit
IERANGEMODE	TOGGLE	F	I/E AutoRange
IERANGE	IQUANT	7	I/E Range
POSFEEDENABLE	TOGGLE	F	Positive Feedback IR Comp
POSFEEDRESISTANCE	QUANT	0	Positive Feedback Resistance (ohm)
ACHSELECT	IQUANT	0	Ach Select
CABLEID	IQUANT	14	Cable ID
DCCALDATE	LABEL	2/27/2020	DC Calibration Date
ACCALDATE	LABEL	2/27/2020	AC Calibration Date
THERMOSELECT	IQUANT	1	Thermo Select
FRAMEWORKVERSION	QUANT	6.33	Framework Version
INSTRUMENTVERSION	LABEL	3.50	Instrument Version
ZCURVE	TABLE
	Pt	Time	Freq	Zreal	Zimag	Zsig	Zmod	Zphz	Idc	Vdc	IERange
	#	s	Hz	ohm	ohm	V	ohm	°	A	V	#
	0	1	1000078	1986.813	-1565.267	1	2529.326	-38.23202	5.057505E-008	-0.0068785	8
	1	2	794390.6	2294.772	-1570.353	1	2780.645	-34.38452	5.859631E-008	-0.0071939	8
	2	2	630984.4	2591.039	-1530.675	1	3009.394	-30.57277	6.691311E-008	-0.0073492	8
	3	2	501234.4	2859.387	-1462.985	1	3211.918	-27.09623	4.445903E-008	-0.007464	8
	4	3	398109.4	3096.24	-1372.699	1	3386.887	-23.90981	3.542648E-008	-0.0075177	8
	5	3	316265.6	3300.829	-1279.278	1	3540.06	-21.18447	3.633215E-008	-0.007546	8
	6	3	251203.1	3476.203	-1186.992	1	3673.273	-18.8531	8.9254E-008	-0.0075798	8
	7	3	199546.9	3630.435	-1106.139	1	3795.207	-16.94519	4.434783E-008	-0.0075581	8
	8	4	158578.1	3765.409	-1036.51	1	3905.465	-15.39071	5.515315E-008	-0.0075589	8
	9	4	125953.1	3928.081	-910.4192	1	4032.205	-13.04916	9.844956E-010	-0.0075915	7
	10	4	100078.1	4024.576	-872.8965	1	4118.15	-12.23743	3.549873E-009	-0.0076224	7
	11	5	79453.13	4128.731	-855.5275	1	4216.438	-11.70677	3.081052E-009	-0.0076348	7
	12	5	63140.62	4231.11	-845.832	1	4314.826	-11.30486	3.518636E-009	-0.0076332	7
	13	5	50203.12	4331.637	-844.5125	1	4413.194	-11.03221	3.537373E-009	-0.0076349	7
	14	6	39890.62	4431.979	-852.9703	1	4513.313	-10.89384	2.526301E-009	-0.0076366	7
	15	6	31640.63	4532.441	-871.1467	1	4615.4	-10.87972	2.977951E-009	-0.0076355	7
	16	6	25171.88	4632.602	-899.8796	1	4719.193	-10.99277	3.082662E-009	-0.00764	7
	17	7	20015.62	4735.869	-941.3995	1	4828.529	-11.24274	3.188946E-009	-0.0076397	7
	18	7	15890.62	4841.505	-995.747	1	4942.841	-11.6219	2.124758E-009	-0.0076478	7
	19	7	12609.37	4952.656	-1065.611	1	5065.997	-12.14262	2.351338E-009	-0.0076483	7
	20	8	10078.13	5064.615	-1149.523	1	5193.432	-12.78785	2.63421E-009	-0.0076513	7
	21	8	8015.625	5184.467	-1253.253	1	5333.792	-13.58955	1.941942E-009	-0.0076578	7
	22	8	6328.125	5315.286	-1385.016	1	5492.771	-14.60492	2.635832E-009	-0.0076521	7
	23	9	5015.625	5450.391	-1541.538	1	5664.194	-15.79253	3.36563E-009	-0.0076516	7
	24	9	3984.375	5590.922	-1729.657	1	5852.36	-17.19044	2.592089E-009	-0.007658	7
	25	9	3170.956	5736.168	-1954.669	1	6060.063	-18.81717	1.781023E-009	-0.0076576	7
	26	10	2527.573	5889.15	-2230.625	1	6297.442	-20.74512	4.282735E-009	-0.0076519	7
	27	10	1976.103	6066.609	-2598.623	1	6599.742	-23.1878	3.738935E-009	-0.0076569	7
	28	10	1577.524	6240.905	-3013.528	1	6930.386	-25.77437	2.897072E-009	-0.0076607	7
	29	10	1265.625	6429.557	-3513.532	1	7326.944	-28.65509	3.668116E-009	-0.0076625	7
	30	11	998.264	6653.267	-4173.542	1	7853.942	-32.09973	4.316783E-009	-0.0076535	7
	31	11	796.875	6896.841	-4944.974	1	8486.412	-35.64019	3.863137E-009	-0.0076585	7
	32	11	627.7902	7191.318	-5945.54	1	9330.836	-39.5828	4.480875E-009	-0.0076542	7
	33	12	505.5147	7511.09	-7049.802	1	10301.27	-43.18548	-3.17713E-010	-0.0076047	6
	34	12	397.9953	7906.632	-8546.612	1	11643	-47.2275	6.385995E-010	-0.0075909	6
	35	12	315.5048	8365.63	-10338.19	1	13298.95	-51.02034	6.323103E-010	-0.0075925	6
	36	13	252.4038	8891.828	-12442.18	1	15292.89	-54.44843	5.965829E-010	-0.0075931	6
	37	13	198.6229	9579.76	-15215.83	1	17980.36	-57.80582	6.659357E-010	-0.0075871	6
	38	13	158.3615	10383.04	-18433.55	1	21156.64	-60.60881	5.741058E-010	-0.0075907	6
	39	14	125.558	11413	-22464.15	1	25197.12	-63.06698	6.830326E-010	-0.0075915	6
	40	14	100.4464	12666.28	-27176.67	1	29983.43	-65.0111	5.761412E-010	-0.0075947	6
	41	14	79.00281	14398.66	-33355.69	1	36330.75	-66.65157	3.951595E-010	-0.007596	6
	42	15	63.3446	16459.63	-40247.12	1	43482.75	-67.75719	2.461817E-010	-0.0076016	6
	43	15	49.86702	19345.64	-49246.63	1	52910.15	-68.55352	5.274551E-010	-0.0075994	6
	44	15	39.72458	22917.42	-59538.48	1	63796.86	-68.9474	2.477268E-010	-0.0075919	6
	45	16	31.6723	27516.67	-71762.66	1	76857.31	-69.02118	5.479418E-011	-0.0075967	6
	46	16	24.93351	33846.21	-87100.03	1	93445.07	-68.76437	5.208012E-010	-0.0076017	6
	47	16	19.86229	41707.67	-104322	1	112350.4	-68.20859	8.255707E-012	-0.0075951	5
	48	17	15.83615	51749.51	-124388	1	134723.4	-67.41108	1.256658E-009	-0.007603	5
	49	17	12.40079	65852.21	-149436.4	1	163302.7	-66.21833	8.993511E-010	-0.0076023	5
	50	17	9.93114	82378.97	-175207.8	1	193608	-64.81809	1.19935E-009	-0.0076027	5
	51	18	7.944915	102491.9	-204076.2	1	228367.5	-63.33311	1.041367E-009	-0.007601	5
	52	18	6.317385	128584.7	-236577.1	1	269263.3	-61.47498	-1.173233E-010	-0.007582	5
	53	19	5.008013	160442.3	-271757.2	1	315584.7	-59.44288	1.188622E-010	-0.0075857	5
	54	20	3.945707	198148.8	-310057.9	1	367965.8	-57.41856	4.639562E-010	-0.0075938	5
	55	21	3.158693	238158.7	-346676.1	1	420599.4	-55.51181	8.330939E-011	-0.0075796	5
	56	22	2.504006	283543.4	-387846.6	1	480439.2	-53.83054	-1.152585E-010	-0.0075995	5
	57	23	1.998082	329938.2	-429334.8	1	541468	-52.45819	1.437903E-010	-0.0075705	5
	58	25	1.584686	380877.4	-479263.6	1	612177.4	-51.52535	2.247641E-010	-0.0075595	5
	59	27	1.266892	430821.5	-533536.1	1	685760.9	-51.0797	1.784289E-010	-0.007591	5
	60	29	0.999041	488391.5	-600662.1	1	774158.4	-50.88583	1.389879E-010	-0.0076205	5
