EXPLAIN
TAG	EISPOT
TITLE	LABEL	Potentiostatic EIS	Test &Identifier
DATE	LABEL	5/26/2020	Date
TIME	LABEL	18:32:34	Time
NOTES	NOTES	1	&Notes...
	
PSTAT	PSTAT	REF600-11020	Potentiostat
VDC	POTEN	0.00000E+000	T	DC &Voltage (V)
FREQINIT	QUANT	1.00000E+006	Initial Fre&q. (Hz)
FREQFINAL	QUANT	1.00000E+000	Final Fre&q. (Hz)
PTSPERDEC	QUANT	1.00000E+001	Points/&decade
VAC	QUANT	2.50000E+001	AC &Voltage (mV rms)
AREA	QUANT	5.00000E-004	&Area (cm^2)
CONDIT	TWOPARAM	F	5.00000E+000	0.00000E+000	Conditionin&g	Time(s)	E(V)
DELAY	TWOPARAM	T	3.00000E+000	0.00000E+000	Init. De&lay	Time(s)	Stab.(mV/s)
SPEED	SELECTOR	0	&Optimize for:
ZGUESS	QUANT	1.00000E+003	E&stimated Z (ohms)
OCVCURVE	TABLE	12
	Pt	T	Vf	Vm	Ach	Over
	#	s	V vs. Ref.	V	V	bits
	0	0.258333	1.04780E-001	1.04780E-001	5.91530E-004	...........
	1	0.516667	1.04781E-001	1.04801E-001	5.93063E-004	...........
	2	0.775	1.04783E-001	1.04813E-001	5.96630E-004	...........
	3	1.03333	1.04789E-001	1.04822E-001	5.89930E-004	...........
	4	1.29167	1.04799E-001	1.04834E-001	5.86530E-004	...........
	5	1.55	1.04810E-001	1.04834E-001	5.92863E-004	...........
	6	1.80833	1.04820E-001	1.04840E-001	5.89330E-004	...........
	7	2.06667	1.04828E-001	1.04842E-001	5.89996E-004	...........
	8	2.325	1.04834E-001	1.04849E-001	5.85330E-004	...........
	9	2.58333	1.04839E-001	1.04851E-001	5.87530E-004	...........
	10	2.84167	1.04843E-001	1.04853E-001	5.90763E-004	...........
	11	3.1	1.04847E-001	1.04859E-001	5.87263E-004	...........
EOC	QUANT	0.104847	Open Circuit (V)
PSTATMODEL	IQUANT	4	Pstat Model
PSTATSECTION	LABEL	REF600-11020	Pstat Section
PSTATSERIALNO	LABEL	11020	Pstat Serial Number
CTRLMODE	IQUANT	1	Control Mode
IESTAB	IQUANT	0	I/E Stability
CASPEED	IQUANT	1	Control Amp Speed
CONVENTION	IQUANT	1	Current Convention
ICHRANGE	IQUANT	2	Ich Range
ICHRANGEMODE	TOGGLE	F	Ich Auto Range
ICHOFFSETENABLE	TOGGLE	T	Ich Offset Enable
ICHOFFSET	QUANT	0	Ich Offset (V)
ICHFILTER	IQUANT	3	Ich Filter
VCHRANGE	IQUANT	2	Vch Range
VCHRANGEMODE	TOGGLE	F	Vch Auto Range
VCHOFFSETENABLE	TOGGLE	T	Vch Offset Enable
VCHOFFSET	QUANT	0	Vch Offset (V)
VCHFILTER	IQUANT	3	Vch Filter
ACHRANGE	IQUANT	2	Ach Range
ACHOFFSETENABLE	TOGGLE	F	Ach Offset Enable
ACHOFFSET	QUANT	0	Ach Offset (V)
ACHFILTER	IQUANT	3	Ach Filter
IERANGELOWERLIMIT	IQUANT	1	I/E Range Lower Limit
IERANGEMODE	TOGGLE	F	I/E AutoRange
IERANGE	IQUANT	8	I/E Range
POSFEEDENABLE	TOGGLE	F	Positive Feedback IR Comp
POSFEEDRESISTANCE	QUANT	0	Positive Feedback Resistance (ohm)
ACHSELECT	IQUANT	0	Ach Select
CABLEID	IQUANT	14	Cable ID
DCCALDATE	LABEL	2/27/2020	DC Calibration Date
ACCALDATE	LABEL	2/27/2020	AC Calibration Date
THERMOSELECT	IQUANT	1	Thermo Select
FRAMEWORKVERSION	QUANT	6.33	Framework Version
INSTRUMENTVERSION	LABEL	3.50	Instrument Version
ZCURVE	TABLE
	Pt	Time	Freq	Zreal	Zimag	Zsig	Zmod	Zphz	Idc	Vdc	IERange
	#	s	Hz	ohm	ohm	V	ohm	°	A	V	#
	0	1	1000078	1871.673	-2715.232	1	3297.824	-55.42059	6.599692E-008	0.1071088	8
	1	2	794390.6	2261.918	-3070.638	1	3813.802	-53.6236	6.432486E-008	0.1067848	8
	2	2	630984.4	2706.672	-3437.034	1	4374.846	-51.77949	7.335728E-008	0.1066139	8
	3	2	501234.4	3215.453	-3809.06	1	4984.785	-49.83031	1.04178E-007	0.1064901	8
	4	3	398109.4	3772.744	-4189.302	1	5637.717	-47.99487	5.894716E-008	0.1064699	8
	5	3	316265.6	4374.874	-4572.005	1	6327.935	-46.26222	6.388441E-008	0.1064495	8
	6	3	251203.1	5037.487	-4977.544	1	7081.823	-44.65707	5.517221E-008	0.106415	8
	7	4	199546.9	5753.312	-5410.813	1	7897.942	-43.2428	6.604045E-008	0.1064246	8
	8	4	158578.1	6504.522	-5848.031	1	8746.901	-41.95781	8.956918E-008	0.1063926	8
	9	4	125953.1	7460.89	-6243.837	1	9728.84	-39.92514	1.615271E-009	0.1063642	7
	10	5	100078.1	8316.06	-6762.338	1	10718.49	-39.11684	2.662836E-009	0.1063467	7
	11	5	79453.13	9263.988	-7333.332	1	11815.21	-38.36498	2.788627E-009	0.1063483	7
	12	5	63140.62	10312.27	-7945.745	1	13018.36	-37.61475	3.697799E-009	0.1063416	7
	13	6	50203.12	11445.36	-8582.316	1	14305.68	-36.86444	4.022848E-009	0.1063412	7
	14	6	39890.62	12674.88	-9240.328	1	15685.54	-36.09306	2.952245E-009	0.1063377	7
	15	6	31640.63	14022.4	-9920.5	1	17176.85	-35.27848	2.809245E-009	0.1063294	7
	16	7	25171.88	15447.31	-10649.19	1	18762.32	-34.58192	4.151464E-009	0.106345	7
	17	7	20015.62	16970.79	-11380.18	1	20433.22	-33.8448	3.862674E-009	0.1063267	7
	18	7	15890.62	18598.12	-12162.38	1	22221.92	-33.18298	4.555734E-009	0.1063371	7
	19	7	12609.37	20566.77	-12707.13	1	24175.67	-31.70975	4.687554E-010	0.1063868	6
	20	8	10078.13	22273.37	-13565.22	1	26079.08	-31.34279	4.560833E-010	0.1063764	6
	21	8	8015.625	24125.73	-14514.77	1	28155.45	-31.03239	2.726167E-010	0.1063764	6
	22	8	6328.125	26148.34	-15587.34	1	30441.76	-30.79968	5.490558E-010	0.1063827	6
	23	9	5015.625	28238.22	-16745.63	1	32830.07	-30.66849	3.735695E-010	0.1063764	6
	24	9	3984.375	30450.66	-18030.75	1	35388.57	-30.63104	4.713934E-010	0.1063788	6
	25	9	3170.956	32773.96	-19449.67	1	38110.66	-30.68696	1.788562E-010	0.1063795	6
	26	10	2527.573	35240.78	-21046.37	1	41047.07	-30.84634	2.272987E-010	0.1063747	6
	27	10	1976.103	38109.57	-22995.7	1	44510.02	-31.1072	2.449576E-010	0.1063767	6
	28	10	1577.524	40958.43	-25032.82	1	48002.45	-31.43228	3.116851E-010	0.1063781	6
	29	11	1265.625	43947.87	-27288.3	1	51730.71	-31.83715	4.645176E-010	0.106379	6
	30	11	998.264	47475.56	-29992.04	1	56155.6	-32.2821	4.746076E-010	0.1063734	6
	31	11	796.875	51098.91	-32922.89	1	60786.64	-32.79357	2.602739E-010	0.1063645	6
	32	12	627.7902	55280.86	-36458.8	1	66220.98	-33.40563	5.863144E-010	0.1063716	6
	33	12	505.5147	59404.43	-40101.92	1	71673.21	-34.02195	5.912605E-010	0.1063762	6
	34	12	397.9953	64423.54	-44623.23	1	78368.52	-34.70857	4.184824E-010	0.1063928	6
	35	13	315.5048	69777.98	-49667.3	1	85649.34	-35.4429	4.264299E-010	0.1063934	6
	36	13	252.4038	75445.36	-55205.4	1	93486.03	-36.19394	4.058523E-010	0.106389	6
	37	13	198.6229	82356.93	-61712.73	1	102913.2	-36.84542	-6.377573E-011	0.1063912	5
	38	13	158.3615	89433.52	-69142.09	1	113044.2	-37.70802	2.389399E-011	0.1063876	5
	39	14	125.558	97545.1	-77856.52	1	124806.6	-38.59544	1.024317E-011	0.1063837	5
	40	14	100.4464	106311.8	-87449.46	1	137657.6	-39.43987	3.873148E-011	0.1063803	5
	41	14	79.00281	117026.8	-99262.5	1	153454.6	-40.30471	6.158605E-011	0.1063823	5
	42	15	63.3446	128275.4	-111660.2	1	170066.4	-41.03867	-3.564096E-011	0.1063833	5
	43	15	49.86702	142244	-126888.6	1	190615	-41.73454	-6.788514E-011	0.1063836	5
	44	16	39.72458	157548	-143189	1	212895.4	-42.26642	2.250862E-011	0.1063873	5
	45	16	31.6723	175078.6	-161243.2	1	238016.6	-42.64433	2.026439E-010	0.1063877	5
	46	16	24.93351	196188.7	-182333	1	267834.5	-42.90364	-2.245242E-010	0.1063844	5
	47	17	19.86229	218675.3	-204696.1	1	299531.9	-43.10885	-9.276439E-010	0.1063815	5
	48	17	15.83615	244590.8	-228902.3	1	334993.9	-43.10228	6.051476E-010	0.1063849	5
	49	17	12.40079	275194.8	-257334.4	1	376766.7	-43.07909	8.812346E-011	0.1063855	5
	50	17	9.93114	306407.2	-286228.3	1	419299.4	-43.04987	2.992772E-010	0.1063817	5
	51	18	7.944915	339663.1	-318554.2	1	465669.2	-43.16317	7.790445E-010	0.106382	5
	52	18	6.317385	379870.7	-355754	1	520444.7	-43.12229	-6.560473E-012	0.1063935	5
	53	19	5.008013	424216.3	-397452.7	1	581315.8	-43.13441	1.542977E-010	0.1063912	5
	54	20	3.945707	475414.2	-446228	1	652026.1	-43.18619	2.530466E-010	0.1063855	5
	55	21	3.158693	527477.4	-495486.6	1	723698.4	-43.20879	8.163519E-011	0.1063954	5
	56	22	2.504006	588573.6	-554243.8	1	808458.4	-43.27937	-7.286219E-011	0.1063802	5
	57	23	1.998082	651306.9	-616526.9	1	896831.1	-43.42862	5.435446E-011	0.1063987	5
	58	25	1.584686	726328.3	-691703.7	1	1002999	-43.60126	1.207224E-010	0.1064236	4
	59	27	1.266892	801263.6	-775097.9	1	1114809	-44.04905	7.019555E-011	0.1063866	4
	60	29	0.999041	888395.9	-874341.6	1	1246483	-44.54319	3.31094E-011	0.1063588	4
