EXPLAIN
TAG	EISPOT
TITLE	LABEL	Potentiostatic EIS	Test &Identifier
DATE	LABEL	3/17/2020	Date
TIME	LABEL	15:50:52	Time
NOTES	NOTES	1	&Notes...
	
PSTAT	PSTAT	REF600-11020	Potentiostat
VDC	POTEN	0.00000E+000	T	DC &Voltage (V)
FREQINIT	QUANT	1.00000E+006	Initial Fre&q. (Hz)
FREQFINAL	QUANT	1.00000E+000	Final Fre&q. (Hz)
PTSPERDEC	QUANT	1.00000E+001	Points/&decade
VAC	QUANT	2.50000E+001	AC &Voltage (mV rms)
AREA	QUANT	4.00000E-004	&Area (cm^2)
CONDIT	TWOPARAM	F	5.00000E+000	0.00000E+000	Conditionin&g	Time(s)	E(V)
DELAY	TWOPARAM	T	3.00000E+000	0.00000E+000	Init. De&lay	Time(s)	Stab.(mV/s)
SPEED	SELECTOR	0	&Optimize for:
ZGUESS	QUANT	5.00000E+003	E&stimated Z (ohms)
OCVCURVE	TABLE	12
	Pt	T	Vf	Vm	Ach	Over
	#	s	V vs. Ref.	V	V	bits
	0	0.258333	3.71876E-002	3.71876E-002	5.73797E-004	...........
	1	0.516667	3.71884E-002	3.72295E-002	5.74230E-004	...........
	2	0.775	3.71932E-002	3.72668E-002	5.77630E-004	...........
	3	1.03333	3.72068E-002	3.73002E-002	5.80797E-004	...........
	4	1.29167	3.72306E-002	3.73286E-002	5.78230E-004	...........
	5	1.55	3.72610E-002	3.73562E-002	5.79030E-004	...........
	6	1.80833	3.72932E-002	3.73778E-002	5.81730E-004	...........
	7	2.06667	3.73236E-002	3.74024E-002	5.81163E-004	...........
	8	2.325	3.73511E-002	3.74218E-002	5.83263E-004	...........
	9	2.58333	3.73760E-002	3.74410E-002	5.76097E-004	...........
	10	2.84167	3.73986E-002	3.74576E-002	5.77863E-004	...........
	11	3.1	3.74193E-002	3.74748E-002	5.78063E-004	...........
EOC	QUANT	0.0374193	Open Circuit (V)
PSTATMODEL	IQUANT	4	Pstat Model
PSTATSECTION	LABEL	REF600-11020	Pstat Section
PSTATSERIALNO	LABEL	11020	Pstat Serial Number
CTRLMODE	IQUANT	1	Control Mode
IESTAB	IQUANT	0	I/E Stability
CASPEED	IQUANT	1	Control Amp Speed
CONVENTION	IQUANT	1	Current Convention
ICHRANGE	IQUANT	2	Ich Range
ICHRANGEMODE	TOGGLE	F	Ich Auto Range
ICHOFFSETENABLE	TOGGLE	T	Ich Offset Enable
ICHOFFSET	QUANT	0	Ich Offset (V)
ICHFILTER	IQUANT	3	Ich Filter
VCHRANGE	IQUANT	2	Vch Range
VCHRANGEMODE	TOGGLE	F	Vch Auto Range
VCHOFFSETENABLE	TOGGLE	T	Vch Offset Enable
VCHOFFSET	QUANT	0	Vch Offset (V)
VCHFILTER	IQUANT	3	Vch Filter
ACHRANGE	IQUANT	2	Ach Range
ACHOFFSETENABLE	TOGGLE	F	Ach Offset Enable
ACHOFFSET	QUANT	0	Ach Offset (V)
ACHFILTER	IQUANT	3	Ach Filter
IERANGELOWERLIMIT	IQUANT	1	I/E Range Lower Limit
IERANGEMODE	TOGGLE	F	I/E AutoRange
IERANGE	IQUANT	7	I/E Range
POSFEEDENABLE	TOGGLE	F	Positive Feedback IR Comp
POSFEEDRESISTANCE	QUANT	0	Positive Feedback Resistance (ohm)
ACHSELECT	IQUANT	0	Ach Select
CABLEID	IQUANT	14	Cable ID
DCCALDATE	LABEL	2/27/2020	DC Calibration Date
ACCALDATE	LABEL	2/27/2020	AC Calibration Date
THERMOSELECT	IQUANT	1	Thermo Select
FRAMEWORKVERSION	QUANT	6.33	Framework Version
INSTRUMENTVERSION	LABEL	3.50	Instrument Version
ZCURVE	TABLE
	Pt	Time	Freq	Zreal	Zimag	Zsig	Zmod	Zphz	Idc	Vdc	IERange
	#	s	Hz	ohm	ohm	V	ohm	°	A	V	#
	0	1	1000078	1744.872	-1780.594	1	2493.009	-45.58053	3.430139E-008	0.0397741	8
	1	1	794390.6	2009.525	-1909.239	1	2771.892	-43.53405	3.012431E-008	0.0394798	8
	2	1	630984.4	2287.31	-2036.19	1	3062.328	-41.67585	4.543482E-008	0.0393458	8
	3	2	501234.4	2548.025	-2185.922	1	3357.184	-40.62592	3.909554E-008	0.0392355	8
	4	2	398109.4	2817.958	-2351.497	1	3670.207	-39.84393	3.543331E-008	0.0391872	8
	5	2	316265.6	3114.121	-2556.958	1	4029.365	-39.3889	4.763957E-008	0.0391619	8
	6	3	251203.1	3414.08	-2806.539	1	4419.57	-39.42186	4.288978E-008	0.0391692	8
	7	3	199546.9	3775.167	-3107.233	1	4889.456	-39.45683	4.322695E-008	0.039168	8
	8	3	158578.1	4196.133	-3437.832	1	5424.594	-39.32727	2.96627E-008	0.0391436	8
	9	4	125953.1	4757.357	-3786.595	1	6080.358	-38.51786	-3.863682E-010	0.0390963	7
	10	4	100078.1	5337.462	-4176.91	1	6777.542	-38.04549	2.200406E-009	0.0390852	7
	11	4	79453.13	6048.16	-4575.389	1	7583.827	-37.10724	1.347332E-009	0.0390849	7
	12	4	63140.62	6876.332	-4930.639	1	8461.392	-35.64222	2.975062E-009	0.0390785	7
	13	5	50203.12	7800.208	-5190.748	1	9369.478	-33.64229	1.555472E-009	0.0390814	7
	14	5	39890.62	8804.081	-5337.238	1	10295.53	-31.22522	1.850688E-009	0.0390768	7
	15	5	31640.63	9843.88	-5354.688	1	11206.01	-28.54447	1.9546E-009	0.0390689	7
	16	6	25171.88	10839.49	-5226.306	1	12033.65	-25.74124	1.681119E-009	0.0390701	7
	17	6	20015.62	11769.38	-4986.682	1	12782.22	-22.96236	2.179636E-009	0.0390762	7
	18	6	15890.62	12590.3	-4654.372	1	13423.07	-20.2883	1.854742E-009	0.0390754	7
	19	7	12609.37	13386.85	-4177.165	1	14023.43	-17.32974	5.783309E-010	0.0391278	6
	20	7	10078.13	13935.3	-3834.608	1	14453.26	-15.38543	4.989414E-010	0.0391227	6
	21	7	8015.625	14385.95	-3519.964	1	14810.32	-13.74904	5.247327E-010	0.0391171	6
	22	8	6328.125	14774.49	-3260.255	1	15129.93	-12.44391	4.459701E-010	0.0391168	6
	23	8	5015.625	15077.4	-3076.948	1	15388.17	-11.53436	4.569009E-010	0.0391201	6
	24	8	3984.375	15359.13	-2967.929	1	15643.26	-10.93678	5.305029E-010	0.0391159	6
	25	9	3170.956	15632.45	-2935.122	1	15905.61	-10.63395	3.023449E-010	0.0391206	6
	26	9	2527.573	15856.6	-2974.719	1	16133.22	-10.62526	1.210735E-010	0.039111	6
	27	9	1976.103	16139.16	-3111.282	1	16436.32	-10.91154	2.245239E-010	0.0391188	6
	28	10	1577.524	16378.75	-3312.471	1	16710.36	-11.43339	3.389277E-010	0.039121	6
	29	10	1265.625	16620.15	-3588.452	1	17003.13	-12.18369	3.448482E-010	0.0391149	6
	30	10	998.264	16908.67	-3989.827	1	17373.02	-13.27684	1.926635E-010	0.0391123	6
	31	11	796.875	17191.22	-4483.524	1	17766.26	-14.61731	4.043592E-011	0.0391131	6
	32	11	627.7902	17536.57	-5148.632	1	18276.76	-16.36192	4.038637E-011	0.0391106	6
	33	11	505.5147	17842.85	-5896.059	1	18791.78	-18.28581	-1.480249E-010	0.0391119	6
	34	12	397.9953	18222.48	-6922.352	1	19493.02	-20.80077	5.192817E-010	0.0391181	6
	35	12	315.5048	18665.43	-8160.846	1	20371.49	-23.61578	2.655378E-010	0.0391254	6
	36	12	252.4038	19125.18	-9614.52	1	21405.87	-26.68937	3.065169E-010	0.0391203	6
	37	12	198.6229	19717.25	-11533.55	1	22842.78	-30.32538	3.660991E-010	0.0391196	6
	38	13	158.3615	20377.21	-13762.7	1	24589.48	-34.03495	2.57109E-010	0.0391124	6
	39	13	125.558	21168.97	-16552.41	1	26872.06	-38.02251	1.19083E-010	0.0391247	6
	40	13	100.4464	22086.44	-19824.68	1	29678.76	-41.911	4.817392E-011	0.0391179	6
	41	14	79.00281	23304.43	-24136.25	1	33550.79	-46.00451	8.132325E-011	0.0391209	6
	42	14	63.3446	24684.17	-28974.75	1	38063.69	-49.57166	1.01793E-010	0.0391175	6
	43	14	49.86702	26590.45	-35355.92	1	44239.04	-53.05394	3.637741E-010	0.0391154	6
	44	15	39.72458	28927.94	-42731.66	1	51602.52	-55.90329	-1.83569E-010	0.0391228	6
	45	15	31.6723	31897.41	-51583.09	1	60648.66	-58.26862	-1.409376E-010	0.0391269	6
	46	16	24.93351	36028.21	-62813.72	1	72412.68	-60.16261	6.627378E-011	0.0391204	6
	47	16	19.86229	41171.21	-75631.7	1	86111.68	-61.43769	-8.391687E-010	0.0391222	6
	48	16	15.83615	47777.79	-90593.38	1	102420.1	-62.19341	1.292509E-009	0.0391206	6
	49	16	12.40079	57124.32	-109483.4	1	123490.1	-62.44615	4.984025E-010	0.0391253	5
	50	17	9.93114	68147.27	-129384.2	1	146233.8	-62.22401	6.502667E-010	0.0391225	5
	51	17	7.944915	81786.09	-151873.7	1	172495.2	-61.69693	1.329753E-009	0.0391217	5
	52	17	6.317385	99755.2	-178163.8	1	204189.7	-60.75522	-3.909053E-010	0.0391398	5
	53	18	5.008013	122127.9	-207527.2	1	240796.1	-59.52357	-3.052502E-010	0.039128	5
	54	19	3.945707	149371.6	-239984.4	1	282673.6	-58.10095	4.204394E-010	0.0391264	5
	55	20	3.158693	179923.1	-272583.3	1	326609.8	-56.57253	-2.057253E-010	0.0391289	5
	56	21	2.504006	215417.4	-308808.1	1	376519.7	-55.10126	-2.079318E-010	0.0391236	5
	57	22	1.998082	254347.2	-345683.7	1	429173.3	-53.65511	1.96882E-010	0.0391589	5
	58	24	1.584686	296554.4	-387791.5	1	488187.2	-52.59389	1.698339E-010	0.0391443	5
	59	26	1.266892	340862.4	-431172.6	1	549633.5	-51.67196	6.237431E-011	0.0391057	5
	60	28	0.999041	392052.2	-484022.7	1	622882.7	-50.99297	-4.027323E-012	0.0390818	5
