EXPLAIN
TAG	EISPOT
TITLE	LABEL	Potentiostatic EIS	Test &Identifier
DATE	LABEL	6/26/2020	Date
TIME	LABEL	12:40:28	Time
NOTES	NOTES	1	&Notes...
	
PSTAT	PSTAT	REF600-11020	Potentiostat
VDC	POTEN	0.00000E+000	T	DC &Voltage (V)
FREQINIT	QUANT	1.00000E+006	Initial Fre&q. (Hz)
FREQFINAL	QUANT	1.00000E+000	Final Fre&q. (Hz)
PTSPERDEC	QUANT	1.00000E+001	Points/&decade
VAC	QUANT	2.50000E+001	AC &Voltage (mV rms)
AREA	QUANT	4.00000E-004	&Area (cm^2)
CONDIT	TWOPARAM	F	5.00000E+000	0.00000E+000	Conditionin&g	Time(s)	E(V)
DELAY	TWOPARAM	F	3.00000E+000	0.00000E+000	Init. De&lay	Time(s)	Stab.(mV/s)
SPEED	SELECTOR	0	&Optimize for:
ZGUESS	QUANT	1.00000E+003	E&stimated Z (ohms)
OCVCURVE	TABLE	39
	Pt	T	Vf	Vm	Ach	Over
	#	s	V vs. Ref.	V	V	bits
	0	0.258333	5.67594E-002	5.67594E-002	5.05484E-004	...........
	1	0.516667	5.67594E-002	5.67553E-002	5.10850E-004	...........
	2	0.775	5.67591E-002	5.67644E-002	5.20017E-004	...........
	3	1.03333	5.67591E-002	5.67623E-002	5.13383E-004	...........
	4	1.29167	5.67595E-002	5.67529E-002	5.15417E-004	...........
	5	1.55	5.67585E-002	5.66887E-002	5.10050E-004	...........
	6	1.80833	5.67521E-002	5.67441E-002	5.08617E-004	...........
	7	2.06667	5.67412E-002	5.67410E-002	5.18917E-004	...........
	8	2.325	5.67333E-002	5.67419E-002	5.16383E-004	...........
	9	2.58333	5.67327E-002	5.67483E-002	5.16317E-004	...........
	10	2.84167	5.67366E-002	5.67384E-002	5.16317E-004	...........
	11	3.1	5.67406E-002	5.67466E-002	5.08917E-004	...........
	12	3.35833	5.67428E-002	5.67402E-002	5.10917E-004	...........
	13	3.61667	5.67434E-002	5.67415E-002	5.05317E-004	...........
	14	3.875	5.67429E-002	5.67392E-002	5.09684E-004	...........
	15	4.13333	5.67422E-002	5.67466E-002	5.14117E-004	...........
	16	4.39167	5.67415E-002	5.67258E-002	5.11550E-004	...........
	17	4.65	5.67402E-002	5.67312E-002	5.07150E-004	...........
	18	4.90833	5.67375E-002	5.67252E-002	5.11450E-004	...........
	19	5.16667	5.67339E-002	5.67333E-002	5.11117E-004	...........
	20	5.425	5.67308E-002	5.67215E-002	5.09450E-004	...........
	21	5.68333	5.67289E-002	5.67295E-002	5.08650E-004	...........
	22	5.94167	5.67277E-002	5.67202E-002	5.11483E-004	...........
	23	6.2	5.67264E-002	5.67228E-002	5.09817E-004	...........
	24	6.45833	5.67249E-002	5.67163E-002	5.08750E-004	...........
	25	6.71667	5.67231E-002	5.67196E-002	5.12183E-004	...........
	26	6.975	5.67210E-002	5.67138E-002	5.10250E-004	...........
	27	7.23333	5.67193E-002	5.67211E-002	5.17250E-004	...........
	28	7.49167	5.67180E-002	5.67151E-002	5.17017E-004	...........
	29	7.75	5.67175E-002	5.67202E-002	5.16717E-004	...........
	30	8.00833	5.67174E-002	5.67108E-002	5.10450E-004	...........
	31	8.26667	5.67171E-002	5.67166E-002	5.10717E-004	...........
	32	8.525	5.67162E-002	5.67087E-002	5.10850E-004	...........
	33	8.78333	5.67148E-002	5.67048E-002	5.09084E-004	...........
	34	9.04167	5.67125E-002	5.67004E-002	5.10884E-004	...........
	35	9.3	5.67096E-002	5.67134E-002	5.17283E-004	...........
	36	9.5583	5.67074E-002	5.67130E-002	5.16350E-004	...........
	37	9.8167	5.67072E-002	5.67046E-002	5.12750E-004	...........
	38	10.075	5.67080E-002	5.66992E-002	5.16117E-004	...........
EOC	QUANT	0.056708	Open Circuit (V)
PSTATMODEL	IQUANT	4	Pstat Model
PSTATSECTION	LABEL	REF600-11020	Pstat Section
PSTATSERIALNO	LABEL	11020	Pstat Serial Number
CTRLMODE	IQUANT	1	Control Mode
IESTAB	IQUANT	0	I/E Stability
CASPEED	IQUANT	1	Control Amp Speed
CONVENTION	IQUANT	1	Current Convention
ICHRANGE	IQUANT	2	Ich Range
ICHRANGEMODE	TOGGLE	F	Ich Auto Range
ICHOFFSETENABLE	TOGGLE	T	Ich Offset Enable
ICHOFFSET	QUANT	0	Ich Offset (V)
ICHFILTER	IQUANT	3	Ich Filter
VCHRANGE	IQUANT	2	Vch Range
VCHRANGEMODE	TOGGLE	F	Vch Auto Range
VCHOFFSETENABLE	TOGGLE	T	Vch Offset Enable
VCHOFFSET	QUANT	0	Vch Offset (V)
VCHFILTER	IQUANT	3	Vch Filter
ACHRANGE	IQUANT	2	Ach Range
ACHOFFSETENABLE	TOGGLE	F	Ach Offset Enable
ACHOFFSET	QUANT	0	Ach Offset (V)
ACHFILTER	IQUANT	3	Ach Filter
IERANGELOWERLIMIT	IQUANT	1	I/E Range Lower Limit
IERANGEMODE	TOGGLE	F	I/E AutoRange
IERANGE	IQUANT	8	I/E Range
POSFEEDENABLE	TOGGLE	F	Positive Feedback IR Comp
POSFEEDRESISTANCE	QUANT	0	Positive Feedback Resistance (ohm)
ACHSELECT	IQUANT	0	Ach Select
CABLEID	IQUANT	14	Cable ID
DCCALDATE	LABEL	6/26/2020	DC Calibration Date
ACCALDATE	LABEL	6/26/2020	AC Calibration Date
THERMOSELECT	IQUANT	1	Thermo Select
FRAMEWORKVERSION	QUANT	6.33	Framework Version
INSTRUMENTVERSION	LABEL	3.50	Instrument Version
ZCURVE	TABLE
	Pt	Time	Freq	Zreal	Zimag	Zsig	Zmod	Zphz	Idc	Vdc	IERange
	#	s	Hz	ohm	ohm	V	ohm	°	A	V	#
	0	1	1000078	1468.582	-2878.551	1	3231.53	-62.97018	1.70891E-007	0.059204	8
	1	1	794390.6	1736.271	-3390.815	1	3809.497	-62.88523	-3.730369E-008	0.0588128	8
	2	1	630984.4	2059.04	-3988.347	1	4488.492	-62.69433	3.774995E-009	0.0586757	8
	3	2	501234.4	2443.365	-4684.264	1	5283.215	-62.45295	-1.971978E-008	0.0585871	8
	4	2	398109.4	2917.131	-5484.28	1	6211.842	-61.99115	1.047091E-007	0.0585314	8
	5	2	316265.6	3462.27	-6434.176	1	7306.568	-61.71503	1.760802E-008	0.0584747	8
	6	3	251203.1	4129.482	-7519.649	1	8578.913	-61.22622	6.649631E-008	0.0584725	8
	7	3	199546.9	4964.188	-8783.388	1	10089.16	-60.52577	7.318229E-008	0.0584471	8
	8	3	158578.1	5935.185	-10234.36	1	11830.83	-59.8894	-2.919941E-008	0.058472	8
	9	4	125953.1	7314.533	-11822.53	1	13902.33	-58.25516	2.483518E-008	0.0584893	7
	10	4	100078.1	8765.402	-13703.57	1	16267.14	-57.39523	-2.124996E-008	0.0584669	7
	11	4	79453.13	10506.87	-15741.15	1	18925.6	-56.27776	-1.825159E-008	0.0584641	7
	12	5	63140.62	12558.85	-17970.26	1	21923.84	-55.0515	2.001472E-008	0.0584033	7
	13	5	50203.12	15023.11	-20360.94	1	25303.39	-53.57863	7.420938E-010	0.0584476	7
	14	5	39890.62	17894.31	-22924.24	1	29081.38	-52.02494	7.858683E-009	0.0584389	7
	15	6	31640.63	21192.94	-25685.07	1	33299.6	-50.47371	1.65008E-008	0.0583992	7
	16	6	25171.88	24975.42	-28494.42	1	37890.68	-48.76537	-2.20057E-008	0.058447	7
	17	6	20015.62	29197.34	-31321.55	1	42819.67	-47.01026	2.060198E-008	0.0583939	7
	18	6	15890.62	33968.18	-34288.36	1	48265.19	-45.26876	-2.034844E-008	0.0584274	7
	19	7	12609.37	39696.77	-36779.18	1	54116	-42.8152	1.815587E-009	0.0583678	6
	20	7	10078.13	45102.22	-39564.62	1	59996.41	-41.25792	3.743492E-009	0.0583544	6
	21	7	8015.625	51018.81	-42348.79	1	66304.9	-39.69479	-1.279282E-009	0.0584598	6
	22	8	6328.125	57515.08	-45258.57	1	73186.9	-38.19918	4.559602E-009	0.0583709	6
	23	8	5015.625	64214.92	-48140.19	1	80256.05	-36.8579	-3.542555E-009	0.0584422	6
	24	8	3984.375	71172.41	-51051.07	1	87588.38	-35.65139	-1.867027E-009	0.0584057	6
	25	9	3170.956	78330.66	-54052.55	1	95170.2	-34.60786	2.727514E-009	0.0583452	6
	26	9	2527.573	85601.23	-57263.31	1	102988.6	-33.78072	-2.445535E-009	0.0584616	6
	27	9	1976.103	93934.28	-61177.27	1	112099.5	-33.07529	-3.329056E-009	0.0584549	6
	28	10	1577.524	101955.5	-65159.19	1	120998.6	-32.58241	-5.872019E-011	0.0584402	6
	29	10	1265.625	111619	-67869.94	1	130633.6	-31.30169	-3.883143E-010	0.0584436	5
	30	10	998.264	120883.4	-73481.87	1	141465.1	-31.29432	3.360726E-010	0.0583261	5
	31	11	796.875	130428.4	-79393.46	1	152692.1	-31.32942	3.313217E-010	0.0583848	5
	32	11	627.7902	141419.2	-86418.06	1	165733.1	-31.42815	1.567068E-010	0.0583419	5
	33	11	505.5147	152206.8	-93310.82	1	178532.4	-31.5105	4.903428E-010	0.0583457	5
	34	12	397.9953	164865.4	-101633.6	1	193674.9	-31.65234	1.952225E-010	0.0584141	5
	35	12	315.5048	178149.8	-110556.2	1	209666.4	-31.8229	1.789711E-010	0.0584105	5
	36	12	252.4038	191757.6	-119993.3	1	226206.5	-32.0365	2.019011E-010	0.0584079	5
	37	13	198.6229	207199.1	-131218.6	1	245254.5	-32.34598	2.070961E-010	0.0584105	5
	38	13	158.3615	222798.2	-143169.9	1	264833.2	-32.72476	2.061792E-010	0.0584062	5
	39	13	125.558	239407.1	-157080.6	1	286339.1	-33.26981	2.090552E-010	0.0584066	5
	40	14	100.4464	255880.7	-172380.3	1	308528.6	-33.96715	2.200852E-010	0.0584052	5
	41	14	79.00281	273706.6	-191940.6	1	334300	-35.0406	2.112084E-010	0.058402	5
	42	14	63.3446	289922.1	-212808.4	1	359641.8	-36.27938	1.909679E-010	0.0583993	5
	43	15	49.86702	308093.5	-242391.9	1	392014.6	-38.19382	1.901009E-010	0.0583979	5
	44	15	39.72458	325633.4	-277873.3	1	428077.9	-40.47517	2.074258E-010	0.058403	5
	45	15	31.6723	344639.2	-322356.3	1	471900.2	-43.08658	1.894814E-010	0.0583982	5
	46	16	24.93351	367938.2	-380321.5	1	529171.9	-45.94814	2.356261E-010	0.0583999	5
	47	16	19.86229	393577.2	-449275.1	1	597286.4	-48.78076	2.786587E-010	0.0584079	5
	48	16	15.83615	424124.9	-532198.6	1	680527.2	-51.44762	1.978648E-010	0.0584002	5
	49	16	12.40079	465650.5	-641882.9	1	792996.9	-54.0412	2.077558E-010	0.0584016	5
	50	17	9.93114	511654.2	-761788.1	1	917666.2	-56.11275	1.602032E-010	0.0584042	5
	51	17	7.944915	567929.6	-907704.2	1	1070734	-57.96673	8.082799E-011	0.0584035	4
	52	18	6.317385	639893.5	-1088006	1	1262229	-59.53876	1.645541E-010	0.0583856	4
	53	18	5.008013	734212.1	-1306829	1	1498956	-60.67154	1.762905E-010	0.0583973	4
	54	19	3.945707	857393.5	-1579944	1	1797594	-61.51249	1.134181E-010	0.0583907	4
	55	20	3.158693	1014643	-1876828	1	2133537	-61.60364	1.293986E-010	0.0583898	4
	56	21	2.504006	1228324	-2245986	1	2559929	-61.32587	1.296876E-010	0.0583885	4
	57	22	1.998082	1507194	-2660303	1	3057588	-60.46629	9.980448E-011	0.0583362	4
	58	24	1.584686	1887887	-3101313	1	3630738	-58.66954	8.166137E-011	0.058364	4
	59	26	1.266892	2364330	-3570590	1	4282426	-56.48875	7.569505E-011	0.0583953	4
	60	28	0.999041	3008023	-4050247	1	5045067	-53.3996	7.553182E-011	0.0584156	4
