EXPLAIN
TAG	EISPOT
TITLE	LABEL	Potentiostatic EIS	Test &Identifier
DATE	LABEL	2/28/2020	Date
TIME	LABEL	16:39:25	Time
NOTES	NOTES	1	&Notes...
	
PSTAT	PSTAT	REF600-11020	Potentiostat
VDC	POTEN	0.00000E+000	T	DC &Voltage (V)
FREQINIT	QUANT	1.00000E+006	Initial Fre&q. (Hz)
FREQFINAL	QUANT	1.00000E+000	Final Fre&q. (Hz)
PTSPERDEC	QUANT	1.00000E+001	Points/&decade
VAC	QUANT	2.50000E+001	AC &Voltage (mV rms)
AREA	QUANT	1.60000E-004	&Area (cm^2)
CONDIT	TWOPARAM	F	1.50000E+001	0.00000E+000	Conditionin&g	Time(s)	E(V)
DELAY	TWOPARAM	F	1.00000E+002	0.00000E+000	Init. De&lay	Time(s)	Stab.(mV/s)
SPEED	SELECTOR	1	&Optimize for:
ZGUESS	QUANT	1.00000E+003	E&stimated Z (ohms)
OCVCURVE	TABLE	39
	Pt	T	Vf	Vm	Ach	Over
	#	s	V vs. Ref.	V	V	bits
	0	0.258333	4.13454E-002	4.13454E-002	5.72463E-004	...........
	1	0.516667	4.03594E-002	-1.02673E-002	5.76597E-004	...........
	2	0.775	3.48111E-002	-3.26874E-002	5.75530E-004	.........v.
	3	1.03333	2.04790E-002	-7.09165E-002	5.68263E-004	...........
	4	1.29167	-3.48879E-003	-1.17609E-001	5.68130E-004	...........
	5	1.55	-3.40034E-002	-1.01255E-001	5.72197E-004	...........
	6	1.80833	-6.46066E-002	-1.01553E-001	5.69697E-004	...........
	7	2.06667	-8.72642E-002	-8.70391E-002	5.69763E-004	...........
	8	2.325	-9.73823E-002	-6.85402E-002	5.74863E-004	...........
	9	2.58333	-9.59751E-002	-6.56405E-002	5.70330E-004	...........
	10	2.84167	-8.75935E-002	-6.61178E-002	5.70630E-004	...........
	11	3.1	-7.77158E-002	-6.03244E-002	5.71297E-004	...........
	12	3.35833	-7.01223E-002	-6.78752E-002	5.63563E-004	...........
	13	3.61667	-6.62285E-002	-8.19288E-002	5.67463E-004	...........
	14	3.875	-6.64633E-002	-8.07650E-002	5.71297E-004	...........
	15	4.13333	-7.00931E-002	-7.79470E-002	5.73697E-004	...........
	16	4.39167	-7.44281E-002	-6.81969E-002	5.71763E-004	...........
	17	4.65	-7.65315E-002	-7.17166E-002	5.67330E-004	...........
	18	4.90833	-7.56730E-002	-6.71909E-002	5.75197E-004	...........
	19	5.16667	-7.32032E-002	-6.61786E-002	5.68230E-004	...........
	20	5.425	-7.07122E-002	-7.29153E-002	5.74997E-004	...........
	21	5.68333	-6.93104E-002	-7.46591E-002	5.73397E-004	...........
	22	5.94167	-6.95534E-002	-7.27982E-002	5.68997E-004	...........
	23	6.2	-7.08942E-002	-7.11912E-002	5.65197E-004	...........
	24	6.45833	-7.21752E-002	-7.68937E-002	5.67930E-004	...........
	25	6.71667	-7.30034E-002	-7.48058E-002	5.74230E-004	...........
	26	6.975	-7.36403E-002	-7.05217E-002	5.68230E-004	...........
	27	7.23333	-7.40179E-002	-7.69595E-002	5.65864E-004	...........
	28	7.49167	-7.45777E-002	-1.00883E-001	5.67830E-004	...........
	29	7.75	-7.70446E-002	-8.79268E-002	5.68630E-004	...........
	30	8.00833	-8.16996E-002	-8.07838E-002	5.68330E-004	...........
	31	8.26667	-8.57026E-002	-8.35630E-002	5.67630E-004	...........
	32	8.525	-8.67084E-002	-8.29802E-002	5.75997E-004	...........
	33	8.78333	-8.54275E-002	-7.68883E-002	5.65997E-004	...........
	34	9.04167	-8.32252E-002	-6.80375E-002	5.67363E-004	...........
	35	9.3	-8.04000E-002	-8.05935E-002	5.73330E-004	...........
	36	9.5583	-7.74470E-002	-6.79364E-002	5.64464E-004	...........
	37	9.8167	-7.35936E-002	1.03225E-002	5.71197E-004	...........
	38	10.075	-6.42949E-002	-1.37574E-002	5.75063E-004	...........
EOC	QUANT	-0.0642949	Open Circuit (V)
PSTATMODEL	IQUANT	4	Pstat Model
PSTATSECTION	LABEL	REF600-11020	Pstat Section
PSTATSERIALNO	LABEL	11020	Pstat Serial Number
CTRLMODE	IQUANT	1	Control Mode
IESTAB	IQUANT	0	I/E Stability
CASPEED	IQUANT	1	Control Amp Speed
CONVENTION	IQUANT	1	Current Convention
ICHRANGE	IQUANT	2	Ich Range
ICHRANGEMODE	TOGGLE	F	Ich Auto Range
ICHOFFSETENABLE	TOGGLE	T	Ich Offset Enable
ICHOFFSET	QUANT	0	Ich Offset (V)
ICHFILTER	IQUANT	3	Ich Filter
VCHRANGE	IQUANT	2	Vch Range
VCHRANGEMODE	TOGGLE	F	Vch Auto Range
VCHOFFSETENABLE	TOGGLE	T	Vch Offset Enable
VCHOFFSET	QUANT	0	Vch Offset (V)
VCHFILTER	IQUANT	3	Vch Filter
ACHRANGE	IQUANT	2	Ach Range
ACHOFFSETENABLE	TOGGLE	F	Ach Offset Enable
ACHOFFSET	QUANT	0	Ach Offset (V)
ACHFILTER	IQUANT	3	Ach Filter
IERANGELOWERLIMIT	IQUANT	1	I/E Range Lower Limit
IERANGEMODE	TOGGLE	F	I/E AutoRange
IERANGE	IQUANT	8	I/E Range
POSFEEDENABLE	TOGGLE	F	Positive Feedback IR Comp
POSFEEDRESISTANCE	QUANT	0	Positive Feedback Resistance (ohm)
ACHSELECT	IQUANT	0	Ach Select
CABLEID	IQUANT	14	Cable ID
DCCALDATE	LABEL	2/27/2020	DC Calibration Date
ACCALDATE	LABEL	2/27/2020	AC Calibration Date
THERMOSELECT	IQUANT	1	Thermo Select
FRAMEWORKVERSION	QUANT	6.33	Framework Version
INSTRUMENTVERSION	LABEL	3.50	Instrument Version
ZCURVE	TABLE
	Pt	Time	Freq	Zreal	Zimag	Zsig	Zmod	Zphz	Idc	Vdc	IERange
	#	s	Hz	ohm	ohm	V	ohm	°	A	V	#
	0	2	1000078	776.962	-7370.076	1	7410.917	-83.98204	-2.765548E-006	-0.0612478	8
	1	3	794390.6	1013.617	-9361.96	1	9416.672	-83.82067	-2.402611E-007	-0.0624633	8
	2	5	630984.4	1137.379	-11732.27	1	11787.27	-84.46279	2.492189E-006	-0.0627996	8
	3	7	501234.4	1354.992	-14469.61	1	14532.92	-84.65019	1.424062E-006	-0.0629161	8
	4	9	398109.4	1817.21	-17961.18	1	18052.88	-84.2228	1.582694E-006	-0.0629855	8
	5	11	316265.6	1961.748	-22801.75	1	22885.99	-85.08266	4.091261E-008	-0.0627572	8
	6	12	251203.1	2503.143	-27803.09	1	27915.55	-84.85547	-8.103931E-007	-0.0624794	8
	7	14	199546.9	1628.06	-35136.91	1	35174.61	-87.34711	-7.849815E-007	-0.0626518	8
	8	15	158578.1	3017.18	-43169.3	1	43274.61	-86.002	1.129321E-007	-0.0626888	8
	9	17	125953.1	4468.681	-55010.78	1	55191.98	-85.3559	9.986074E-007	-0.0643467	7
	10	18	100078.1	5598.705	-67819.76	1	68050.46	-85.28078	-3.804392E-008	-0.0627302	7
	11	20	79453.13	6613.544	-84819.63	1	85077.08	-85.54156	2.715615E-008	-0.0628802	7
	12	22	63140.62	7795.805	-105769.1	1	106056	-85.78459	7.595592E-008	-0.0629089	7
	13	24	50203.12	9312.1	-130889.1	1	131220	-85.93055	-5.070047E-008	-0.0626882	7
	14	26	39890.62	13121.82	-163498.4	1	164024.1	-85.41148	-4.317347E-008	-0.0626676	7
	15	28	31640.63	17125.3	-203741.6	1	204460.1	-85.19535	-3.688061E-008	-0.0627455	7
	16	29	25171.88	19105.07	-255632	1	256345	-85.72585	2.787117E-008	-0.062895	7
	17	31	20015.62	22275.37	-315370.2	1	316155.9	-85.95977	2.789137E-008	-0.0628915	7
	18	32	15890.62	29865.15	-394419.6	1	395548.7	-85.66987	2.772109E-008	-0.0628946	7
	19	34	12609.37	37945.41	-491978.5	1	493439.7	-85.58961	9.395572E-009	-0.0627494	6
	20	36	10078.13	51104.55	-609927.3	1	612064.6	-85.21049	-1.300682E-008	-0.0626029	6
	21	37	8015.625	60674.41	-767982.3	1	770375.4	-85.48273	9.437374E-009	-0.0627464	6
	22	39	6328.125	63084.2	-938526.6	1	940644.4	-86.15458	6.901255E-009	-0.0627113	6
	23	41	5015.625	92201.84	-1181135	1	1184728	-85.53642	-2.761263E-009	-0.0626091	6
	24	42	3984.375	138814	-1502112	1	1508513	-84.72015	-1.106176E-008	-0.0625984	6
	25	44	3170.956	24645.22	-1776295	1	1776466	-89.2051	1.616586E-008	-0.0629705	6
	26	46	2527.573	176751	-2286405	1	2293226	-85.57953	-4.960841E-009	-0.0627159	6
	27	48	1976.103	98157.9	-2706453	1	2708232	-87.9229	8.8831E-009	-0.0627528	6
	28	49	1577.524	18160.26	-3914116	1	3914158	-89.73417	1.577391E-008	-0.0630474	6
	29	51	1265.625	389987	-4316126	1	4333708	-84.83701	-6.785183E-010	-0.0625646	5
	30	53	998.264	482308.8	-5656415	1	5676941	-85.12632	-1.564589E-009	-0.0627891	5
	31	54	796.875	718918.8	-7070683	1	7107137	-84.19434	-1.007653E-009	-0.0627146	5
	32	55	627.7902	627559.6	-8384131	1	8407585	-85.71935	-7.0663E-010	-0.0627176	5
	33	57	505.5147	1052759	-1.011849E+007	1	1.01731E+007	-84.06013	2.993898E-010	-0.0628968	5
	34	58	397.9953	1380987	-1.359572E+007	1	1.366568E+007	-84.20007	1.449239E-010	-0.0627157	5
	35	60	315.5048	1950059	-1.622024E+007	1	1.633704E+007	-83.14458	2.222697E-010	-0.0627152	5
	36	61	252.4038	2075037	-1.889874E+007	1	1.901232E+007	-83.73416	3.350493E-010	-0.062718	5
	37	63	198.6229	1979466	-2.498644E+007	1	2.506472E+007	-85.4704	6.654211E-012	-0.0627187	5
	38	64	158.3615	5970844	-3.235256E+007	1	3.289892E+007	-79.5434	-1.405106E-010	-0.0627197	5
	39	66	125.558	3094030	-3.55107E+007	1	3.564524E+007	-85.02042	2.444164E-010	-0.0627203	4
	40	68	100.4464	357569.5	-5.450747E+007	1	5.450864E+007	-89.62415	3.030226E-011	-0.062719	4
	41	69	79.00281	-1.473307E+008	-5.071417E+007	1	1.558148E+008	-161.0055	3.981433E-011	-0.0627225	4
	42	71	63.3446	-5193836	-8658785	1	1.009705E+007	-120.9568	3.669995E-010	-0.0627253	4
	43	73	49.86702	6.63303E+007	-3.181043E+007	1	7.356366E+007	-25.62127	-6.836758E-011	-0.0627284	4
	44	75	39.72458	1.199454E+007	-5.808969E+007	1	5.93151E+007	-78.33334	1.248969E-010	-0.0627199	5
	45	76	31.6723	1.221368E+007	-6.837246E+007	1	6.945479E+007	-79.87183	-9.693306E-011	-0.0627192	5
	46	78	24.93351	9247572	-3.012915E+008	1	3.014334E+008	-88.24197	5.795263E-011	-0.0627203	5
	47	80	19.86229	-1.763825E+008	-8.739941E+007	1	1.968488E+008	-153.6411	1.290873E-010	-0.0627136	4
	48	82	15.83615	-44040.68	-2.767142E+007	1	2.767146E+007	-90.09119	5.050783E-010	-0.0627253	4
	49	84	12.40079	-5.878178E+007	-8.541884E+007	1	1.036903E+008	-124.5342	1.053858E-010	-0.0627164	4
	50	85	9.93114	1.681772E+008	-3.888467E+008	1	4.23657E+008	-66.61139	6.400408E-011	-0.0627144	4
	51	87	7.944915	2.654047E+007	-1.27442E+008	1	1.301763E+008	-78.236	-1.053785E-011	-0.0627259	4
	52	90	6.317385	3.056067E+008	-3.109496E+008	1	4.359875E+008	-45.4965	-8.155064E-011	-0.0627239	4
	53	92	5.008013	1.592624E+008	-3.363398E+008	1	3.721411E+008	-64.66167	3.473678E-011	-0.0627262	4
	54	96	3.945707	2.633682E+008	-1.791752E+008	1	3.185382E+008	-34.22832	7.393932E-011	-0.0627281	4
	55	99	3.158693	3.646158E+008	-4.190395E+008	1	5.554627E+008	-48.97273	3.729949E-011	-0.0627267	4
	56	103	2.504006	2.640641E+008	-7.45086E+008	1	7.904954E+008	-70.48529	-7.090879E-011	-0.0627261	3
	57	107	1.998082	6.105497E+008	8.005602E+008	1	1.006811E+009	52.66893	-1.231862E-011	-0.0627011	3
	58	113	1.584686	4.820052E+008	-2.357496E+008	1	5.365695E+008	-26.06333	-2.097502E-013	-0.0627154	3
	59	123	1.266892	7.375869E+008	4.998986E+007	1	7.39279E+008	3.877285	2.47526E-011	-0.0627898	2
	60	130	0.999041	7.884679E+008	-3.141477E+008	1	8.487464E+008	-21.72372	-8.68578E-012	-0.0626905	3
