EXPLAIN
TAG	EISPOT
TITLE	LABEL	Potentiostatic EIS	Test &Identifier
DATE	LABEL	3/3/2020	Date
TIME	LABEL	19:08:42	Time
NOTES	NOTES	1	&Notes...
	
PSTAT	PSTAT	REF600-11020	Potentiostat
VDC	POTEN	0.00000E+000	T	DC &Voltage (V)
FREQINIT	QUANT	1.00000E+006	Initial Fre&q. (Hz)
FREQFINAL	QUANT	1.00000E+000	Final Fre&q. (Hz)
PTSPERDEC	QUANT	1.00000E+001	Points/&decade
VAC	QUANT	2.50000E+001	AC &Voltage (mV rms)
AREA	QUANT	1.60000E-004	&Area (cm^2)
CONDIT	TWOPARAM	F	1.50000E+001	0.00000E+000	Conditionin&g	Time(s)	E(V)
DELAY	TWOPARAM	F	1.00000E+002	0.00000E+000	Init. De&lay	Time(s)	Stab.(mV/s)
SPEED	SELECTOR	1	&Optimize for:
ZGUESS	QUANT	1.00000E+004	E&stimated Z (ohms)
OCVCURVE	TABLE	39
	Pt	T	Vf	Vm	Ach	Over
	#	s	V vs. Ref.	V	V	bits
	0	0.258333	7.95706E-002	7.95706E-002	5.64997E-004	...........
	1	0.516667	7.95704E-002	7.95610E-002	5.63297E-004	...........
	2	0.775	7.95690E-002	7.95385E-002	5.60097E-004	...........
	3	1.03333	7.95643E-002	7.95204E-002	5.64330E-004	...........
	4	1.29167	7.95548E-002	7.95157E-002	5.71197E-004	...........
	5	1.55	7.95414E-002	7.94871E-002	5.67697E-004	...........
	6	1.80833	7.95262E-002	7.94826E-002	5.71763E-004	...........
	7	2.06667	7.95106E-002	7.94663E-002	5.62897E-004	...........
	8	2.325	7.94957E-002	7.94636E-002	5.67030E-004	...........
	9	2.58333	7.94823E-002	7.94397E-002	5.69297E-004	...........
	10	2.84167	7.94700E-002	7.94300E-002	5.66063E-004	...........
	11	3.1	7.94575E-002	7.94175E-002	5.68797E-004	...........
	12	3.35833	7.94441E-002	7.93840E-002	5.70563E-004	...........
	13	3.61667	7.94295E-002	7.94041E-002	5.68663E-004	...........
	14	3.875	7.94148E-002	7.93689E-002	5.69297E-004	...........
	15	4.13333	7.94014E-002	7.93602E-002	5.67730E-004	...........
	16	4.39167	7.93885E-002	7.93395E-002	5.61997E-004	...........
	17	4.65	7.93746E-002	7.93327E-002	5.61730E-004	...........
	18	4.90833	7.93602E-002	7.93397E-002	5.70063E-004	...........
	19	5.16667	7.93481E-002	7.93301E-002	5.66530E-004	...........
	20	5.425	7.93398E-002	7.93231E-002	5.66797E-004	...........
	21	5.68333	7.93342E-002	7.93112E-002	5.65164E-004	...........
	22	5.94167	7.93285E-002	7.93009E-002	5.68030E-004	...........
	23	6.2	7.93212E-002	7.92938E-002	5.66663E-004	...........
	24	6.45833	7.93125E-002	7.92857E-002	5.65597E-004	...........
	25	6.71667	7.93034E-002	7.92778E-002	5.63797E-004	...........
	26	6.975	7.92946E-002	7.92644E-002	5.70097E-004	...........
	27	7.23333	7.92858E-002	7.92571E-002	5.65597E-004	...........
	28	7.49167	7.92768E-002	7.92598E-002	5.68297E-004	...........
	29	7.75	7.92684E-002	7.92421E-002	5.63230E-004	...........
	30	8.00833	7.92608E-002	7.92374E-002	5.66464E-004	...........
	31	8.26667	7.92537E-002	7.92426E-002	5.69030E-004	...........
	32	8.525	7.92468E-002	7.92053E-002	5.66197E-004	...........
	33	8.78333	7.92390E-002	7.92075E-002	5.60697E-004	...........
	34	9.04167	7.92293E-002	7.91976E-002	5.65364E-004	...........
	35	9.3	7.92183E-002	7.91942E-002	5.68330E-004	...........
	36	9.5583	7.92086E-002	7.92045E-002	5.59464E-004	...........
	37	9.8167	7.92010E-002	7.91322E-002	5.65097E-004	...........
	38	10.075	7.91895E-002	7.90180E-002	5.65530E-004	...........
EOC	QUANT	0.0791895	Open Circuit (V)
PSTATMODEL	IQUANT	4	Pstat Model
PSTATSECTION	LABEL	REF600-11020	Pstat Section
PSTATSERIALNO	LABEL	11020	Pstat Serial Number
CTRLMODE	IQUANT	1	Control Mode
IESTAB	IQUANT	0	I/E Stability
CASPEED	IQUANT	1	Control Amp Speed
CONVENTION	IQUANT	1	Current Convention
ICHRANGE	IQUANT	2	Ich Range
ICHRANGEMODE	TOGGLE	F	Ich Auto Range
ICHOFFSETENABLE	TOGGLE	T	Ich Offset Enable
ICHOFFSET	QUANT	0	Ich Offset (V)
ICHFILTER	IQUANT	3	Ich Filter
VCHRANGE	IQUANT	2	Vch Range
VCHRANGEMODE	TOGGLE	F	Vch Auto Range
VCHOFFSETENABLE	TOGGLE	T	Vch Offset Enable
VCHOFFSET	QUANT	0	Vch Offset (V)
VCHFILTER	IQUANT	3	Vch Filter
ACHRANGE	IQUANT	2	Ach Range
ACHOFFSETENABLE	TOGGLE	F	Ach Offset Enable
ACHOFFSET	QUANT	0	Ach Offset (V)
ACHFILTER	IQUANT	3	Ach Filter
IERANGELOWERLIMIT	IQUANT	1	I/E Range Lower Limit
IERANGEMODE	TOGGLE	F	I/E AutoRange
IERANGE	IQUANT	7	I/E Range
POSFEEDENABLE	TOGGLE	F	Positive Feedback IR Comp
POSFEEDRESISTANCE	QUANT	0	Positive Feedback Resistance (ohm)
ACHSELECT	IQUANT	0	Ach Select
CABLEID	IQUANT	14	Cable ID
DCCALDATE	LABEL	2/27/2020	DC Calibration Date
ACCALDATE	LABEL	2/27/2020	AC Calibration Date
THERMOSELECT	IQUANT	1	Thermo Select
FRAMEWORKVERSION	QUANT	6.33	Framework Version
INSTRUMENTVERSION	LABEL	3.50	Instrument Version
ZCURVE	TABLE
	Pt	Time	Freq	Zreal	Zimag	Zsig	Zmod	Zphz	Idc	Vdc	IERange
	#	s	Hz	ohm	ohm	V	ohm	°	A	V	#
	0	2	1000078	1865.719	-2274.836	1	2942.072	-50.64292	-4.684576E-006	0.081826	8
	1	3	794390.6	2302.445	-2456.225	1	3366.644	-46.85091	7.818026E-007	0.0812922	8
	2	5	630984.4	2803.58	-2603.368	1	3825.91	-42.87938	-1.864723E-006	0.081454	8
	3	6	501234.4	3337.926	-2636.815	1	4253.768	-38.30719	-6.287721E-007	0.0810693	8
	4	7	398109.4	3866.573	-2597.175	1	4657.865	-33.88924	-1.430805E-007	0.0808895	8
	5	9	316265.6	4365.151	-2488.227	1	5024.521	-29.68404	-7.230739E-007	0.0811518	8
	6	10	251203.1	4816.898	-2317.421	1	5345.367	-25.69231	-7.900512E-007	0.0809497	8
	7	12	199546.9	5166.725	-2153.932	1	5597.72	-22.63055	-1.373909E-006	0.0812202	8
	8	13	158578.1	5506.721	-1923.651	1	5833.045	-19.25573	2.692954E-008	0.0807785	8
	9	14	125953.1	5782.744	-1678.919	1	6021.536	-16.18973	7.359969E-007	0.0796884	7
	10	16	100078.1	5975.857	-1481.999	1	6156.881	-13.92822	3.37089E-010	0.0806962	7
	11	17	79453.13	6148.064	-1318.452	1	6287.846	-12.10375	-3.638353E-008	0.0807457	7
	12	19	63140.62	6286.202	-1173.958	1	6394.881	-10.57823	-1.390975E-008	0.0808331	7
	13	20	50203.12	6403.146	-1057.162	1	6489.828	-9.374987	9.431578E-008	0.0806419	7
	14	22	39890.62	6493.319	-956.636	1	6563.409	-8.380878	-3.430112E-008	0.0807397	7
	15	23	31640.63	6579.142	-887.3977	1	6638.719	-7.681721	-1.425808E-008	0.0808333	7
	16	25	25171.88	6648.91	-838.919	1	6701.626	-7.191232	7.635845E-009	0.0808131	7
	17	26	20015.62	6715.17	-815.0016	1	6764.446	-6.919985	8.03695E-008	0.0805619	7
	18	27	15890.62	6776.075	-815.3124	1	6824.949	-6.860973	9.747378E-009	0.0808139	7
	19	29	12609.37	6834.502	-845.7286	1	6886.63	-7.054149	7.156471E-008	0.0805493	7
	20	30	10078.13	6892.566	-889.7727	1	6949.76	-7.355726	-3.233992E-008	0.0808463	7
	21	31	8015.625	6953.628	-964.722	1	7020.23	-7.898598	6.217721E-008	0.0807449	7
	22	33	6328.125	7017.378	-1074.029	1	7099.094	-8.701747	-2.022186E-009	0.0806729	7
	23	34	5015.625	7088.153	-1215.103	1	7191.55	-9.72751	-1.655292E-008	0.0806842	7
	24	35	3984.375	7162.255	-1402.615	1	7298.303	-11.08025	1.097123E-007	0.0805256	7
	25	37	3170.956	7248.067	-1628.706	1	7428.806	-12.66452	-1.648946E-008	0.080693	7
	26	38	2527.573	7339.941	-1913.872	1	7585.357	-14.61433	-4.430842E-008	0.0807603	7
	27	40	1976.103	7454.372	-2303.278	1	7802.099	-17.17028	-7.37443E-008	0.0808522	7
	28	41	1577.524	7585.267	-2736.385	1	8063.751	-19.83691	-4.909471E-008	0.0807652	7
	29	42	1265.625	7720.413	-3256.671	1	8379.182	-22.87128	-7.333924E-008	0.0808421	7
	30	44	998.264	7904.197	-3946.141	1	8834.498	-26.53049	-3.353697E-009	0.0806651	7
	31	45	796.875	8111.145	-4739.51	1	9394.34	-30.29863	1.018159E-008	0.0807579	6
	32	46	627.7902	8370.968	-5770.278	1	10167.06	-34.57928	1.497339E-008	0.0806313	6
	33	48	505.5147	8654.648	-6915.097	1	11077.97	-38.62499	7.223547E-009	0.0808109	6
	34	49	397.9953	9030.188	-8446.528	1	12364.79	-43.08724	9.790895E-010	0.0807912	6
	35	51	315.5048	9473.579	-10272.79	1	13974.22	-47.31772	6.261949E-010	0.0807932	6
	36	52	252.4038	9990.37	-12405.46	1	15928.05	-51.15479	1.075947E-009	0.0807884	6
	37	53	198.6229	10664.07	-15208.55	1	18574.78	-54.96227	4.743045E-010	0.0807927	6
	38	55	158.3615	11451.67	-18451.36	1	21716.2	-58.17458	2.457173E-010	0.0807843	6
	39	56	125.558	12451.92	-22499.47	1	25715.29	-61.03846	9.928521E-011	0.0807906	6
	40	57	100.4464	13661.7	-27219.32	1	30455.43	-63.34737	7.024972E-010	0.0807852	6
	41	59	79.00281	15235.15	-33454.38	1	36760.11	-65.51544	6.616035E-010	0.0807823	6
	42	60	63.3446	16920.44	-40441.57	1	43838.58	-67.29594	2.564954E-010	0.0807848	6
	43	62	49.86702	20117.5	-49512.65	1	53443.58	-67.88759	1.065022E-009	0.0807837	6
	44	63	39.72458	23324.84	-60184.52	1	64546.3	-68.81589	8.591353E-010	0.08079	6
	45	64	31.6723	27463.1	-72910.61	1	77911.35	-69.36021	-2.20865E-010	0.0807865	6
	46	66	24.93351	33783.5	-88971.59	1	95169.7	-69.20767	-1.953206E-010	0.0807853	6
	47	67	19.86229	41645.66	-106921.6	1	114745.8	-68.71922	6.215208E-010	0.0807902	5
	48	69	15.83615	52015.22	-127387.6	1	137597.9	-67.7887	6.363224E-010	0.0807895	5
	49	70	12.40079	65945.46	-154254	1	167759	-66.8527	6.013198E-010	0.0807865	5
	50	71	9.93114	83466.22	-181952.3	1	200183.1	-65.35786	7.567541E-010	0.0807852	5
	51	73	7.944915	104149.6	-212546.2	1	236691.8	-63.89471	6.98104E-010	0.0807856	5
	52	75	6.317385	132223.5	-246569.5	1	279784.8	-61.79744	3.817852E-010	0.0808054	5
	53	77	5.008013	165987.4	-283321.3	1	328363.8	-59.63556	4.254452E-010	0.0807957	5
	54	79	3.945707	206656.3	-323218.4	1	383636.5	-57.40635	3.379741E-010	0.0807951	5
	55	82	3.158693	250311.9	-361098.5	1	439372.4	-55.27047	6.272749E-011	0.0807974	5
	56	85	2.504006	299756.5	-402018.7	1	501470.8	-53.29075	4.381348E-010	0.080783	5
	57	88	1.998082	350196.2	-443247.3	1	564894.3	-51.68882	-7.571001E-011	0.0808277	5
	58	91	1.584686	404416.2	-490109.3	1	635420.8	-50.47208	2.906844E-010	0.0807964	5
	59	95	1.266892	460181.3	-539215.1	1	708886.3	-49.52163	7.484541E-011	0.0808269	5
	60	99	0.999041	519742.3	-600426.6	1	794131.1	-49.11982	7.526226E-011	0.0807472	5
