EXPLAIN
TAG	EISPOT
TITLE	LABEL	Potentiostatic EIS	Test &Identifier
DATE	LABEL	9/11/2020	Date
TIME	LABEL	20:33:55	Time
NOTES	NOTES	1	&Notes...
	
PSTAT	PSTAT	REF600-11020	Potentiostat
VDC	POTEN	0.00000E+000	T	DC &Voltage (V)
FREQINIT	QUANT	1.00000E+006	Initial Fre&q. (Hz)
FREQFINAL	QUANT	1.00000E+000	Final Fre&q. (Hz)
PTSPERDEC	QUANT	1.00000E+001	Points/&decade
VAC	QUANT	2.50000E+001	AC &Voltage (mV rms)
AREA	QUANT	4.00000E-005	&Area (cm^2)
CONDIT	TWOPARAM	F	5.00000E+000	0.00000E+000	Conditionin&g	Time(s)	E(V)
DELAY	TWOPARAM	F	3.00000E+000	0.00000E+000	Init. De&lay	Time(s)	Stab.(mV/s)
SPEED	SELECTOR	0	&Optimize for:
ZGUESS	QUANT	1.00000E+003	E&stimated Z (ohms)
OCVCURVE	TABLE	39
	Pt	T	Vf	Vm	Ach	Over
	#	s	V vs. Ref.	V	V	bits
	0	0.258333	-1.59374E-001	-1.59374E-001	5.58225E-004	...........
	1	0.516667	-1.59375E-001	-1.59384E-001	5.55525E-004	...........
	2	0.775	-1.59376E-001	-1.59394E-001	5.41126E-004	...........
	3	1.03333	-1.59379E-001	-1.59402E-001	5.45925E-004	...........
	4	1.29167	-1.59385E-001	-1.59409E-001	5.59459E-004	...........
	5	1.55	-1.59392E-001	-1.59414E-001	5.60192E-004	...........
	6	1.80833	-1.59400E-001	-1.59421E-001	5.41492E-004	...........
	7	2.06667	-1.59407E-001	-1.59429E-001	5.43292E-004	...........
	8	2.325	-1.59414E-001	-1.59437E-001	5.55159E-004	...........
	9	2.58333	-1.59421E-001	-1.59445E-001	5.54659E-004	...........
	10	2.84167	-1.59429E-001	-1.59453E-001	5.35059E-004	...........
	11	3.1	-1.59436E-001	-1.59459E-001	5.36259E-004	...........
	12	3.35833	-1.59444E-001	-1.59469E-001	5.54525E-004	...........
	13	3.61667	-1.59452E-001	-1.59474E-001	5.51759E-004	...........
	14	3.875	-1.59460E-001	-1.59484E-001	5.37959E-004	...........
	15	4.13333	-1.59467E-001	-1.59491E-001	5.43692E-004	...........
	16	4.39167	-1.59475E-001	-1.59497E-001	5.55992E-004	...........
	17	4.65	-1.59482E-001	-1.59503E-001	5.47225E-004	...........
	18	4.90833	-1.59490E-001	-1.59511E-001	5.38426E-004	...........
	19	5.16667	-1.59497E-001	-1.59518E-001	5.42359E-004	...........
	20	5.425	-1.59503E-001	-1.59523E-001	5.48659E-004	...........
	21	5.68333	-1.59510E-001	-1.59533E-001	5.36792E-004	...........
	22	5.94167	-1.59517E-001	-1.59535E-001	5.42625E-004	...........
	23	6.2	-1.59524E-001	-1.59544E-001	5.55092E-004	...........
	24	6.45833	-1.59530E-001	-1.59552E-001	5.53959E-004	...........
	25	6.71667	-1.59537E-001	-1.59557E-001	5.40426E-004	...........
	26	6.975	-1.59544E-001	-1.59564E-001	5.39792E-004	...........
	27	7.23333	-1.59550E-001	-1.59569E-001	5.51792E-004	...........
	28	7.49167	-1.59557E-001	-1.59576E-001	5.48692E-004	...........
	29	7.75	-1.59563E-001	-1.59583E-001	5.39226E-004	...........
	30	8.00833	-1.59569E-001	-1.59588E-001	5.36292E-004	...........
	31	8.26667	-1.59576E-001	-1.59592E-001	5.53059E-004	...........
	32	8.525	-1.59582E-001	-1.59600E-001	5.44625E-004	...........
	33	8.78333	-1.59587E-001	-1.59604E-001	5.31259E-004	...........
	34	9.04167	-1.59593E-001	-1.59607E-001	5.36759E-004	...........
	35	9.3	-1.59598E-001	-1.59613E-001	5.50825E-004	...........
	36	9.5583	-1.59603E-001	-1.59619E-001	5.44092E-004	...........
	37	9.8167	-1.59608E-001	-1.59622E-001	5.32759E-004	...........
	38	10.075	-1.59613E-001	-1.59630E-001	5.36259E-004	...........
EOC	QUANT	-0.1596128	Open Circuit (V)
PSTATMODEL	IQUANT	4	Pstat Model
PSTATSECTION	LABEL	REF600-11020	Pstat Section
PSTATSERIALNO	LABEL	11020	Pstat Serial Number
CTRLMODE	IQUANT	1	Control Mode
IESTAB	IQUANT	0	I/E Stability
CASPEED	IQUANT	1	Control Amp Speed
CONVENTION	IQUANT	1	Current Convention
ICHRANGE	IQUANT	2	Ich Range
ICHRANGEMODE	TOGGLE	F	Ich Auto Range
ICHOFFSETENABLE	TOGGLE	T	Ich Offset Enable
ICHOFFSET	QUANT	0	Ich Offset (V)
ICHFILTER	IQUANT	3	Ich Filter
VCHRANGE	IQUANT	2	Vch Range
VCHRANGEMODE	TOGGLE	F	Vch Auto Range
VCHOFFSETENABLE	TOGGLE	T	Vch Offset Enable
VCHOFFSET	QUANT	0	Vch Offset (V)
VCHFILTER	IQUANT	3	Vch Filter
ACHRANGE	IQUANT	2	Ach Range
ACHOFFSETENABLE	TOGGLE	F	Ach Offset Enable
ACHOFFSET	QUANT	0	Ach Offset (V)
ACHFILTER	IQUANT	3	Ach Filter
IERANGELOWERLIMIT	IQUANT	1	I/E Range Lower Limit
IERANGEMODE	TOGGLE	F	I/E AutoRange
IERANGE	IQUANT	8	I/E Range
POSFEEDENABLE	TOGGLE	F	Positive Feedback IR Comp
POSFEEDRESISTANCE	QUANT	0	Positive Feedback Resistance (ohm)
ACHSELECT	IQUANT	0	Ach Select
CABLEID	IQUANT	14	Cable ID
DCCALDATE	LABEL	9/1/2020	DC Calibration Date
ACCALDATE	LABEL	9/1/2020	AC Calibration Date
THERMOSELECT	IQUANT	1	Thermo Select
FRAMEWORKVERSION	QUANT	6.33	Framework Version
INSTRUMENTVERSION	LABEL	3.50	Instrument Version
ZCURVE	TABLE
	Pt	Time	Freq	Zreal	Zimag	Zsig	Zmod	Zphz	Idc	Vdc	IERange
	#	s	Hz	ohm	ohm	V	ohm	°	A	V	#
	0	1	1000078	1872.741	-1128.282	1	2186.362	-31.06796	5.33547E-008	-0.1573381	8
	1	1	794390.6	2051.816	-1112.954	1	2334.227	-28.47646	7.920116E-008	-0.1576589	8
	2	2	630984.4	2215.885	-1092.95	1	2470.766	-26.2541	5.057855E-008	-0.1578351	8
	3	2	501234.4	2364.572	-1076.624	1	2598.138	-24.48046	8.285283E-008	-0.1579129	8
	4	2	398109.4	2500.609	-1067.742	1	2719.029	-23.12214	5.543351E-008	-0.1579704	8
	5	3	316265.6	2628.855	-1072.584	1	2839.245	-22.19567	7.687974E-008	-0.1579933	8
	6	3	251203.1	2755.194	-1095.065	1	2964.838	-21.67558	7.318877E-008	-0.1580034	8
	7	3	199546.9	2880.021	-1132.9	1	3094.831	-21.47294	7.553915E-008	-0.1579977	8
	8	4	158578.1	3008.958	-1183.544	1	3233.358	-21.47171	7.508175E-008	-0.1580096	8
	9	4	125953.1	3163.172	-1242.597	1	3398.485	-21.44652	3.091971E-009	-0.1580211	7
	10	4	100078.1	3306.386	-1334.373	1	3565.493	-21.97775	2.607396E-009	-0.1580271	7
	11	4	79453.13	3461.561	-1461.981	1	3757.631	-22.89664	5.727125E-010	-0.1580381	7
	12	5	63140.62	3638.487	-1612.165	1	3979.657	-23.8975	6.615723E-009	-0.1580323	7
	13	5	50203.12	3837.762	-1780.59	1	4230.711	-24.88968	3.451233E-009	-0.1580362	7
	14	5	39890.62	4065.182	-1969.174	1	4517.007	-25.84555	3.898178E-009	-0.1580508	7
	15	6	31640.63	4323.288	-2181.107	1	4842.318	-26.77103	6.553224E-009	-0.1580428	7
	16	6	25171.88	4609.741	-2405.155	1	5199.469	-27.55353	4.449806E-009	-0.1580535	7
	17	6	20015.62	4928.097	-2647.124	1	5594.051	-28.24244	8.852673E-010	-0.1580528	7
	18	7	15890.62	5279.831	-2913.868	1	6030.526	-28.89372	6.237586E-009	-0.1580438	7
	19	7	12609.37	5660.509	-3193.015	1	6498.977	-29.42675	2.336623E-009	-0.1580453	7
	20	7	10078.13	6054.276	-3487.42	1	6986.871	-29.94306	1.844976E-009	-0.1580498	7
	21	8	8015.625	6479.779	-3821.382	1	7522.666	-30.52953	2.140013E-009	-0.1580598	7
	22	8	6328.125	6938.889	-4208.636	1	8115.466	-31.23802	4.497508E-009	-0.1580506	7
	23	8	5015.625	7405.671	-4651.78	1	8745.457	-32.13447	8.941262E-009	-0.1580532	7
	24	9	3984.375	7903.75	-5132.182	1	9423.829	-32.99708	9.620007E-010	-0.1580702	6
	25	9	3170.956	8380.725	-5743.26	1	10159.8	-34.42261	1.644577E-009	-0.1580664	6
	26	9	2527.573	8871.779	-6484.426	1	10988.92	-36.16325	1.757561E-009	-0.1580671	6
	27	10	1976.103	9421.955	-7469.926	1	12023.85	-38.40813	6.308665E-010	-0.1580616	6
	28	10	1577.524	9956.2	-8596.734	1	13154.08	-40.80915	6.463264E-010	-0.1580688	6
	29	10	1265.625	10519.62	-9949.54	1	14479.49	-43.40467	6.086734E-010	-0.1580681	6
	30	11	998.264	11196.54	-11754.16	1	16233.38	-46.3918	8.717784E-010	-0.1580753	6
	31	11	796.875	11913.43	-13867.47	1	18282.13	-49.3344	1.314858E-009	-0.1580688	6
	32	11	627.7902	12805.93	-16639.1	1	20996.46	-52.41708	1.641492E-009	-0.1580686	6
	33	11	505.5147	13755.53	-19707.11	1	24032.99	-55.08503	1.229216E-009	-0.1580678	6
	34	12	397.9953	15034.45	-23858.79	1	28200.65	-57.7832	1.11434E-009	-0.1580527	6
	35	12	315.5048	16576.14	-28810.96	1	33239.13	-60.0864	1.147869E-009	-0.1580598	6
	36	12	252.4038	18448.72	-34612.3	1	39222.02	-61.94191	1.098012E-009	-0.1580613	6
	37	13	198.6229	21046.72	-42184.02	1	47142.93	-63.48417	1.043116E-009	-0.1580596	6
	38	13	158.3615	24277.78	-50822.95	1	56323.91	-64.46651	8.885931E-010	-0.1580592	6
	39	13	125.558	28621.43	-61407.99	1	67750.48	-65.01041	8.569958E-010	-0.1580607	6
	40	14	100.4464	34152.5	-73362.55	1	80922.53	-65.03659	8.584573E-010	-0.1580656	6
	41	14	79.00281	41984.27	-88456.77	1	97914.7	-64.60957	7.824638E-010	-0.1580667	6
	42	14	63.3446	51496.89	-104319	1	116337.4	-63.72684	2.37613E-010	-0.1580756	5
	43	15	49.86702	64691.8	-123601.6	1	139507.7	-62.37291	4.769396E-010	-0.1580795	5
	44	15	39.72458	80567.63	-143984.5	1	164993	-60.77048	3.608419E-010	-0.1580716	5
	45	15	31.6723	100105.2	-165877.3	1	193742.9	-58.88946	2.36506E-010	-0.1580736	5
	46	16	24.93351	125201.6	-190029.5	1	227566.8	-56.62097	6.979796E-010	-0.158076	5
	47	16	19.86229	152919.5	-213100.4	1	262290.3	-54.33701	1.053368E-009	-0.1580704	5
	48	16	15.83615	185017.4	-237792.8	1	301292	-52.11489	7.504969E-011	-0.1580753	5
	49	17	12.40079	223648.8	-261565.4	1	344144.2	-49.46824	9.235712E-010	-0.158077	5
	50	17	9.93114	261362.6	-284280.2	1	386167.9	-47.40508	6.070227E-010	-0.1580671	5
	51	17	7.944915	303152.2	-307421.8	1	431751.6	-45.40065	-6.455085E-010	-0.1580727	5
	52	18	6.317385	348365.3	-330163	1	479964.6	-43.46334	2.992877E-010	-0.158096	5
	53	19	5.008013	397185.2	-354409.6	1	532317.8	-41.74263	3.038082E-010	-0.1580724	5
	54	19	3.945707	448157.1	-379785.9	1	587436.9	-40.27925	-2.599206E-010	-0.1580784	5
	55	20	3.158693	498596.9	-403577.9	1	641462.4	-38.98765	1.896966E-010	-0.1580806	5
	56	21	2.504006	550696.1	-431353.3	1	699522.6	-38.07115	2.372879E-010	-0.1580702	5
	57	23	1.998082	605122.8	-461953.1	1	761297.7	-37.35826	-2.686777E-011	-0.1581217	5
	58	24	1.584686	661378.9	-498861.3	1	828422.9	-37.02632	-1.494654E-010	-0.1581034	5
	59	26	1.266892	712986.1	-537496.4	1	892889.4	-37.01143	-1.576831E-011	-0.1580684	5
	60	29	0.999041	775308.1	-588043.1	1	973086	-37.179	2.992378E-011	-0.1580484	4
