EXPLAIN
TAG	EISPOT
TITLE	LABEL	Potentiostatic EIS	Test &Identifier
DATE	LABEL	1/18/2020	Date
TIME	LABEL	22:11:25	Time
NOTES	NOTES	6	&Notes...
	
	
	
	
	
	
PSTAT	PSTAT	REF600-11020	Potentiostat
VDC	POTEN	0.00000E+000	T	DC &Voltage (V)
FREQINIT	QUANT	1.00000E+006	Initial Fre&q. (Hz)
FREQFINAL	QUANT	1.00000E+000	Final Fre&q. (Hz)
PTSPERDEC	QUANT	1.00000E+001	Points/&decade
VAC	QUANT	2.50000E+001	AC &Voltage (mV rms)
AREA	QUANT	1.00000E-001	&Area (cm^2)
CONDIT	TWOPARAM	F	5.00000E+000	0.00000E+000	Conditionin&g	Time(s)	E(V)
DELAY	TWOPARAM	F	5.00000E+000	0.00000E+000	Init. De&lay	Time(s)	Stab.(mV/s)
SPEED	SELECTOR	0	&Optimize for:
ZGUESS	QUANT	5.00000E+002	E&stimated Z (ohms)
OCVCURVE	TABLE	39
	Pt	T	Vf	Vm	Ach	Over
	#	s	V vs. Ref.	V	V	bits
	0	0.258333	-5.95340E-002	-5.95340E-002	6.63979E-004	...........
	1	0.516667	-5.95337E-002	-5.95154E-002	6.56646E-004	...........
	2	0.775	-5.95296E-002	-5.93980E-002	6.60846E-004	...........
	3	1.03333	-5.95120E-002	-5.93014E-002	6.59679E-004	...........
	4	1.29167	-5.94710E-002	-5.92816E-002	6.58146E-004	...........
	5	1.55	-5.94088E-002	-5.91679E-002	6.64579E-004	...........
	6	1.80833	-5.93369E-002	-5.91236E-002	6.65079E-004	...........
	7	2.06667	-5.92638E-002	-5.90480E-002	6.66213E-004	...........
	8	2.325	-5.91924E-002	-5.89883E-002	6.63446E-004	...........
	9	2.58333	-5.91238E-002	-5.89344E-002	6.63113E-004	...........
	10	2.84167	-5.90596E-002	-5.89337E-002	6.60879E-004	...........
	11	3.1	-5.90042E-002	-5.89048E-002	6.57446E-004	...........
	12	3.35833	-5.89612E-002	-5.88774E-002	6.58113E-004	...........
	13	3.61667	-5.89296E-002	-5.88579E-002	6.60879E-004	...........
	14	3.875	-5.89042E-002	-5.88375E-002	6.63913E-004	...........
	15	4.13333	-5.88813E-002	-5.88096E-002	6.60979E-004	...........
	16	4.39167	-5.88592E-002	-5.87980E-002	6.56246E-004	...........
	17	4.65	-5.88377E-002	-5.87838E-002	6.60513E-004	...........
	18	4.90833	-5.88178E-002	-5.87695E-002	6.65213E-004	...........
	19	5.16667	-5.88003E-002	-5.87585E-002	6.59479E-004	...........
	20	5.425	-5.87850E-002	-5.87371E-002	6.62346E-004	...........
	21	5.68333	-5.87706E-002	-5.87266E-002	6.60413E-004	...........
	22	5.94167	-5.87562E-002	-5.87130E-002	6.65113E-004	...........
	23	6.2	-5.87417E-002	-5.86976E-002	6.55946E-004	...........
	24	6.45833	-5.87274E-002	-5.86842E-002	6.60279E-004	...........
	25	6.71667	-5.87134E-002	-5.86786E-002	6.62246E-004	...........
	26	6.975	-5.87023E-002	-5.87732E-002	6.60113E-004	...........
	27	7.23333	-5.87064E-002	-5.90453E-002	6.62079E-004	...........
	28	7.49167	-5.87462E-002	-5.89867E-002	6.57413E-004	...........
	29	7.75	-5.88213E-002	-5.88855E-002	6.63613E-004	...........
	30	8.00833	-5.88929E-002	-5.88382E-002	6.64413E-004	...........
	31	8.26667	-5.89212E-002	-5.88059E-002	6.56846E-004	...........
	32	8.525	-5.89032E-002	-5.87753E-002	6.64413E-004	...........
	33	8.78333	-5.88623E-002	-5.87510E-002	6.63079E-004	...........
	34	9.04167	-5.88198E-002	-5.87424E-002	6.66346E-004	...........
	35	9.3	-5.87853E-002	-5.87229E-002	6.61746E-004	...........
	36	9.5583	-5.87593E-002	-5.86822E-002	6.59946E-004	...........
	37	9.8167	-5.87379E-002	-5.86846E-002	6.60246E-004	...........
	38	10.075	-5.87175E-002	-5.86613E-002	6.59646E-004	...........
EOC	QUANT	-0.0587175	Open Circuit (V)
PSTATMODEL	IQUANT	4	Pstat Model
PSTATSECTION	LABEL	REF600-11020	Pstat Section
PSTATSERIALNO	LABEL	11020	Pstat Serial Number
CTRLMODE	IQUANT	1	Control Mode
IESTAB	IQUANT	0	I/E Stability
CASPEED	IQUANT	1	Control Amp Speed
CONVENTION	IQUANT	1	Current Convention
ICHRANGE	IQUANT	2	Ich Range
ICHRANGEMODE	TOGGLE	F	Ich Auto Range
ICHOFFSETENABLE	TOGGLE	T	Ich Offset Enable
ICHOFFSET	QUANT	0	Ich Offset (V)
ICHFILTER	IQUANT	3	Ich Filter
VCHRANGE	IQUANT	2	Vch Range
VCHRANGEMODE	TOGGLE	F	Vch Auto Range
VCHOFFSETENABLE	TOGGLE	T	Vch Offset Enable
VCHOFFSET	QUANT	0	Vch Offset (V)
VCHFILTER	IQUANT	3	Vch Filter
ACHRANGE	IQUANT	2	Ach Range
ACHOFFSETENABLE	TOGGLE	F	Ach Offset Enable
ACHOFFSET	QUANT	0	Ach Offset (V)
ACHFILTER	IQUANT	3	Ach Filter
IERANGELOWERLIMIT	IQUANT	1	I/E Range Lower Limit
IERANGEMODE	TOGGLE	F	I/E AutoRange
IERANGE	IQUANT	8	I/E Range
POSFEEDENABLE	TOGGLE	F	Positive Feedback IR Comp
POSFEEDRESISTANCE	QUANT	0	Positive Feedback Resistance (ohm)
ACHSELECT	IQUANT	0	Ach Select
CABLEID	IQUANT	14	Cable ID
DCCALDATE	LABEL	12/22/2019	DC Calibration Date
ACCALDATE	LABEL	12/22/2019	AC Calibration Date
THERMOSELECT	IQUANT	1	Thermo Select
FRAMEWORKVERSION	QUANT	6.33	Framework Version
INSTRUMENTVERSION	LABEL	3.50	Instrument Version
ZCURVE	TABLE
	Pt	Time	Freq	Zreal	Zimag	Zsig	Zmod	Zphz	Idc	Vdc	IERange
	#	s	Hz	ohm	ohm	V	ohm	°	A	V	#
	0	1	1000078	2276.492	-2031.29	1	3050.993	-41.7422	-7.743481E-007	-0.0560555	8
	1	1	794390.6	2691.693	-2062.074	1	3390.776	-37.45529	-3.674271E-006	-0.0559728	8
	2	2	630984.4	3097.225	-2020.141	1	3697.806	-33.11409	4.958472E-006	-0.0577109	8
	3	2	501234.4	3496.733	-1934.449	1	3996.152	-28.95208	-1.46882E-006	-0.0569167	8
	4	2	398109.4	3833.019	-1799.517	1	4234.418	-25.149	1.690305E-006	-0.0575092	8
	5	3	316265.6	4110.192	-1667.965	1	4435.74	-22.0879	1.83573E-006	-0.0575062	8
	6	3	251203.1	4369.427	-1514.203	1	4624.36	-19.1135	1.44806E-006	-0.0574115	8
	7	3	199546.9	4571.842	-1348.538	1	4766.581	-16.43427	-6.823254E-007	-0.057037	8
	8	4	158578.1	4726.82	-1206.184	1	4878.289	-14.31517	-8.4058E-007	-0.0568421	8
	9	4	125953.1	4885.669	-1025.307	1	4992.096	-11.8521	9.225727E-007	-0.05908	7
	10	4	100078.1	4989.154	-916.3881	1	5072.615	-10.40785	-3.700733E-008	-0.0571459	7
	11	5	79453.13	5085.411	-829.3611	1	5152.596	-9.262614	-1.332596E-008	-0.0571431	7
	12	5	63140.62	5164.98	-755.8677	1	5219.996	-8.325834	-3.838251E-008	-0.0571549	7
	13	5	50203.12	5232.449	-699.5931	1	5279.01	-7.615442	5.851507E-008	-0.0571942	7
	14	6	39890.62	5291	-660.4116	1	5332.056	-7.114744	2.978771E-008	-0.0572169	7
	15	6	31640.63	5343.004	-640.6815	1	5381.279	-6.837709	3.985317E-008	-0.057309	7
	16	6	25171.88	5390.42	-638.6283	1	5428.119	-6.756604	-3.277079E-008	-0.0570741	7
	17	6	20015.62	5437.567	-655.1472	1	5476.893	-6.870186	-2.804208E-009	-0.0571668	7
	18	7	15890.62	5481.697	-692.799	1	5525.303	-7.203082	-3.282239E-008	-0.0570824	7
	19	7	12609.37	5531.573	-751.0659	1	5582.329	-7.732222	-3.844997E-009	-0.0572424	7
	20	7	10078.13	5578.215	-836.3616	1	5640.566	-8.527042	-1.864233E-008	-0.057194	7
	21	8	8015.625	5628.259	-940.6893	1	5706.33	-9.488529	-5.13202E-008	-0.0570945	7
	22	8	6328.125	5689.862	-1087.306	1	5792.82	-10.81852	-2.188513E-009	-0.0571702	7
	23	8	5015.625	5753.898	-1268.878	1	5892.147	-12.4361	-7.562693E-009	-0.057157	7
	24	9	3984.375	5828.36	-1494.413	1	6016.897	-14.38104	3.025345E-008	-0.057224	7
	25	9	3170.956	5909.707	-1772.384	1	6169.764	-16.69455	3.127358E-008	-0.0572242	7
	26	9	2527.573	6004.731	-2111.187	1	6365.054	-19.37102	2.103643E-008	-0.0572773	7
	27	10	1976.103	6127.404	-2569.337	1	6644.289	-22.74923	7.077193E-008	-0.0573208	7
	28	10	1577.524	6258.865	-3084.873	1	6977.81	-26.23779	-1.121282E-008	-0.0571577	7
	29	10	1265.625	6412.083	-3689.522	1	7397.796	-29.91619	-3.271106E-008	-0.0571614	7
	30	11	998.264	6615.493	-4499.294	1	8000.524	-34.2202	7.190058E-008	-0.0573253	7
	31	11	796.875	6841.913	-5429.894	1	8734.73	-38.43629	-1.861053E-008	-0.0572063	7
	32	11	627.7902	7134.512	-6646.344	1	9750.65	-42.97122	-3.202383E-008	-0.0570909	7
	33	12	505.5147	7467.579	-7976.531	1	10926.56	-46.88747	-9.411667E-009	-0.0571194	6
	34	12	397.9953	7908.65	-9775.15	1	12573.79	-51.02517	7.070683E-010	-0.0571904	6
	35	12	315.5048	8447.381	-11916.06	1	14606.53	-54.6669	9.699729E-010	-0.057187	6
	36	13	252.4038	9092.443	-14416.21	1	17044.05	-57.75997	8.962933E-010	-0.0571968	6
	37	13	198.6229	9969.46	-17683.82	1	20300.43	-60.58736	5.536698E-010	-0.0571948	6
	38	13	158.3615	11021.45	-21442.19	1	24108.92	-62.7965	6.042411E-010	-0.0571945	6
	39	14	125.558	12406.1	-26096.82	1	28895.6	-64.57418	5.824162E-010	-0.0571954	6
	40	14	100.4464	14109.06	-31457.93	1	34477.04	-65.8435	1.219498E-009	-0.057202	6
	41	14	79.00281	16507.53	-38392.41	1	41790.86	-66.73381	5.247695E-010	-0.0571999	6
	42	15	63.3446	19089.57	-46417.72	1	50189.8	-67.64479	2.716204E-010	-0.0572005	6
	43	15	49.86702	22956.71	-56212.86	1	60719.81	-67.78544	-4.01298E-011	-0.0572024	6
	44	15	39.72458	27814.31	-67143.77	1	72676.84	-67.49822	4.918544E-010	-0.0571978	6
	45	16	31.6723	33859.71	-80057.2	1	86923.15	-67.07436	8.906277E-010	-0.0572042	6
	46	16	24.93351	41686.41	-96113	1	104763.9	-66.55252	-5.071027E-011	-0.0572013	6
	47	16	19.86229	51320.34	-113804.5	1	124840.9	-65.72692	-2.597542E-010	-0.0572017	5
	48	16	15.83615	63448.39	-132836.5	1	147211.5	-64.46886	-1.147524E-009	-0.0572067	5
	49	17	12.40079	79567.16	-159279.4	1	178047.4	-63.45583	-5.164061E-010	-0.0572018	5
	50	17	9.93114	96263.4	-183929.7	1	207597.6	-62.37376	-5.728534E-010	-0.0572017	5
	51	18	7.944915	116787.1	-212243	1	242252.6	-61.17813	-1.022595E-009	-0.0571959	5
	52	18	6.317385	142739.5	-244689.4	1	283279.9	-59.74286	-6.529596E-010	-0.0571844	5
	53	19	5.008013	173729.8	-281141.1	1	330488	-58.28621	-2.809117E-010	-0.0572031	5
	54	20	3.945707	210750.4	-321663.7	1	384555.9	-56.76764	-4.556115E-011	-0.0572069	5
	55	21	3.158693	250417	-363047.6	1	441035.4	-55.4035	1.620078E-010	-0.0572019	5
	56	23	2.504006	297859.5	-408940.5	1	505917.6	-53.93158	-7.809701E-012	-0.0572011	5
	57	24	1.998082	347938.2	-457590.7	1	574848.1	-52.75173	-1.16325E-010	-0.0572353	5
	58	26	1.584686	402924	-510062.2	1	650008.6	-51.693	3.40549E-011	-0.0571846	5
	59	28	1.266892	461536.9	-568038.4	1	731904.3	-50.9058	1.018662E-010	-0.0571736	5
	60	30	0.999041	526732.9	-641435.4	1	829992.1	-50.6079	2.290639E-010	-0.057175	5
