EXPLAIN
TAG	EISPOT
TITLE	LABEL	Potentiostatic EIS	Test &Identifier
DATE	LABEL	3/9/2020	Date
TIME	LABEL	21:09:39	Time
NOTES	NOTES	1	&Notes...
	
PSTAT	PSTAT	REF600-11020	Potentiostat
VDC	POTEN	0.00000E+000	T	DC &Voltage (V)
FREQINIT	QUANT	1.00000E+006	Initial Fre&q. (Hz)
FREQFINAL	QUANT	1.00000E+000	Final Fre&q. (Hz)
PTSPERDEC	QUANT	1.00000E+001	Points/&decade
VAC	QUANT	2.50000E+001	AC &Voltage (mV rms)
AREA	QUANT	4.00000E-005	&Area (cm^2)
CONDIT	TWOPARAM	F	5.00000E+000	0.00000E+000	Conditionin&g	Time(s)	E(V)
DELAY	TWOPARAM	T	3.00000E+000	0.00000E+000	Init. De&lay	Time(s)	Stab.(mV/s)
SPEED	SELECTOR	0	&Optimize for:
ZGUESS	QUANT	1.00000E+003	E&stimated Z (ohms)
OCVCURVE	TABLE	12
	Pt	T	Vf	Vm	Ach	Over
	#	s	V vs. Ref.	V	V	bits
	0	0.258333	4.49714E-002	4.49714E-002	5.87263E-004	...........
	1	0.516667	4.49711E-002	4.49559E-002	5.84263E-004	...........
	2	0.775	4.49693E-002	4.49412E-002	5.82430E-004	...........
	3	1.03333	4.49641E-002	4.49261E-002	5.82063E-004	...........
	4	1.29167	4.49548E-002	4.49102E-002	5.79897E-004	...........
	5	1.55	4.49420E-002	4.48960E-002	5.81997E-004	...........
	6	1.80833	4.49275E-002	4.48839E-002	5.85863E-004	...........
	7	2.06667	4.49126E-002	4.48671E-002	5.82530E-004	...........
	8	2.325	4.48980E-002	4.48542E-002	5.79563E-004	...........
	9	2.58333	4.48836E-002	4.48427E-002	5.84197E-004	...........
	10	2.84167	4.48696E-002	4.48301E-002	5.83730E-004	...........
	11	3.1	4.48562E-002	4.48158E-002	5.81130E-004	...........
EOC	QUANT	0.0448562	Open Circuit (V)
PSTATMODEL	IQUANT	4	Pstat Model
PSTATSECTION	LABEL	REF600-11020	Pstat Section
PSTATSERIALNO	LABEL	11020	Pstat Serial Number
CTRLMODE	IQUANT	1	Control Mode
IESTAB	IQUANT	0	I/E Stability
CASPEED	IQUANT	1	Control Amp Speed
CONVENTION	IQUANT	1	Current Convention
ICHRANGE	IQUANT	2	Ich Range
ICHRANGEMODE	TOGGLE	F	Ich Auto Range
ICHOFFSETENABLE	TOGGLE	T	Ich Offset Enable
ICHOFFSET	QUANT	0	Ich Offset (V)
ICHFILTER	IQUANT	3	Ich Filter
VCHRANGE	IQUANT	2	Vch Range
VCHRANGEMODE	TOGGLE	F	Vch Auto Range
VCHOFFSETENABLE	TOGGLE	T	Vch Offset Enable
VCHOFFSET	QUANT	0	Vch Offset (V)
VCHFILTER	IQUANT	3	Vch Filter
ACHRANGE	IQUANT	2	Ach Range
ACHOFFSETENABLE	TOGGLE	F	Ach Offset Enable
ACHOFFSET	QUANT	0	Ach Offset (V)
ACHFILTER	IQUANT	3	Ach Filter
IERANGELOWERLIMIT	IQUANT	1	I/E Range Lower Limit
IERANGEMODE	TOGGLE	F	I/E AutoRange
IERANGE	IQUANT	7	I/E Range
POSFEEDENABLE	TOGGLE	F	Positive Feedback IR Comp
POSFEEDRESISTANCE	QUANT	0	Positive Feedback Resistance (ohm)
ACHSELECT	IQUANT	0	Ach Select
CABLEID	IQUANT	14	Cable ID
DCCALDATE	LABEL	2/27/2020	DC Calibration Date
ACCALDATE	LABEL	2/27/2020	AC Calibration Date
THERMOSELECT	IQUANT	1	Thermo Select
FRAMEWORKVERSION	QUANT	6.33	Framework Version
INSTRUMENTVERSION	LABEL	3.50	Instrument Version
ZCURVE	TABLE
	Pt	Time	Freq	Zreal	Zimag	Zsig	Zmod	Zphz	Idc	Vdc	IERange
	#	s	Hz	ohm	ohm	V	ohm	°	A	V	#
	0	2	1000078	1834.911	-1307.458	1	2253.074	-35.47162	1.497485E-008	0.0470197	8
	1	2	794390.6	2056.936	-1317.284	1	2442.585	-32.63594	5.965358E-008	0.0467123	8
	2	2	630984.4	2267.395	-1313.798	1	2620.523	-30.08931	4.586956E-008	0.0465656	8
	3	2	501234.4	2462.413	-1304.653	1	2786.682	-27.91585	4.941602E-008	0.0464759	8
	4	3	398109.4	2644.115	-1298.449	1	2945.728	-26.15433	8.511179E-008	0.0464078	8
	5	3	316265.6	2814.503	-1304.278	1	3102.026	-24.86363	3.874313E-008	0.0463973	8
	6	3	251203.1	2986.046	-1321.314	1	3265.324	-23.86922	3.362989E-008	0.0463845	8
	7	4	199546.9	3157.806	-1356.797	1	3436.952	-23.25147	4.66645E-008	0.046387	8
	8	4	158578.1	3333.68	-1406.225	1	3618.134	-22.87116	3.52404E-008	0.0463842	8
	9	4	125953.1	3575.066	-1407.483	1	3842.149	-21.48928	2.511109E-009	0.0463255	7
	10	5	100078.1	3770.801	-1481.642	1	4051.445	-21.4511	1.421458E-009	0.0463207	7
	11	5	79453.13	3999.426	-1568.062	1	4295.838	-21.40875	1.410505E-009	0.0463221	7
	12	5	63140.62	4249.19	-1646.263	1	4556.95	-21.17785	2.491966E-009	0.0463197	7
	13	6	50203.12	4515.973	-1709.364	1	4828.658	-20.73241	1.662153E-009	0.0463182	7
	14	6	39890.62	4794.062	-1758.247	1	5106.316	-20.14077	3.760846E-010	0.0463163	7
	15	6	31640.63	5079.036	-1791.448	1	5385.712	-19.42846	1.532542E-009	0.0463089	7
	16	7	25171.88	5357.258	-1811.516	1	5655.246	-18.68257	6.99625E-010	0.0463096	7
	17	7	20015.62	5629.006	-1823.546	1	5917.012	-17.95	1.638833E-009	0.046309	7
	18	7	15890.62	5894.419	-1835.261	1	6173.521	-17.29427	3.379483E-009	0.0463079	7
	19	8	12609.37	6148.902	-1848.361	1	6420.703	-16.73079	3.677487E-009	0.0463156	7
	20	8	10078.13	6387.722	-1870.445	1	6655.941	-16.32102	3.756888E-009	0.0463116	7
	21	8	8015.625	6626.619	-1904.26	1	6894.801	-16.03281	2.604525E-009	0.0463062	7
	22	9	6328.125	6867.57	-1958.394	1	7141.346	-15.91632	2.750957E-009	0.0463064	7
	23	9	5015.625	7101.287	-2030.126	1	7385.776	-15.95425	3.339012E-009	0.046303	7
	24	9	3984.375	7326.133	-2125.198	1	7628.151	-16.17663	3.69843E-009	0.0462991	7
	25	9	3170.956	7544.2	-2250.588	1	7872.744	-16.61091	3.460437E-009	0.0463034	7
	26	10	2527.573	7749.064	-2409.706	1	8115.09	-17.27399	2.566728E-009	0.0463	7
	27	10	1976.103	7965.164	-2652.662	1	8395.264	-18.41946	3.32949E-009	0.0463104	7
	28	10	1577.524	8154.606	-2943.454	1	8669.575	-19.84735	3.900495E-009	0.0463079	7
	29	11	1265.625	8328.779	-3312.343	1	8963.269	-21.68764	2.25339E-009	0.0463004	7
	30	11	998.264	8531.71	-3819	1	9347.451	-24.11445	-5.926656E-010	0.0463507	6
	31	11	796.875	8726.722	-4457.485	1	9799.23	-27.0573	7.421133E-011	0.0463571	6
	32	12	627.7902	8961.105	-5313.012	1	10417.75	-30.66357	-1.446586E-011	0.0463564	6
	33	12	505.5147	9207.88	-6286.762	1	11149.37	-34.32365	-4.397597E-010	0.0463547	6
	34	12	397.9953	9533.53	-7621.146	1	12205.33	-38.639	3.868398E-010	0.046367	6
	35	13	315.5048	9921.38	-9231.404	1	13551.85	-42.93682	4.013263E-010	0.0463652	6
	36	13	252.4038	10383.04	-11130.25	1	15221.36	-46.98923	4.27219E-010	0.0463623	6
	37	13	198.6229	11012.28	-13637.62	1	17528.69	-51.07937	4.014447E-010	0.0463613	6
	38	14	158.3615	11769.69	-16537.06	1	20297.79	-54.55993	2.698216E-010	0.0463609	6
	39	14	125.558	12767.11	-20151.43	1	23855.38	-57.64335	4.045212E-010	0.0463598	6
	40	14	100.4464	13999.32	-24356.99	1	28093.49	-60.11162	4.571561E-010	0.0463633	6
	41	15	79.00281	15726.92	-29840.85	1	33731.48	-62.20958	1.073654E-010	0.0463669	6
	42	15	63.3446	17782.62	-35899.11	1	40062.05	-63.6485	3.040058E-010	0.0463558	6
	43	15	49.86702	20674.63	-43739.04	1	48379.17	-64.70078	4.85659E-010	0.0463543	6
	44	16	39.72458	24262.64	-52623.73	1	57947.67	-65.24752	4.178678E-010	0.0463605	6
	45	16	31.6723	28863.94	-63035.91	1	69330.03	-65.39711	1.267316E-010	0.0463591	6
	46	16	24.93351	35121.66	-75852.3	1	83588.89	-65.15459	9.737959E-010	0.0463585	6
	47	17	19.86229	42671.63	-89930.59	1	99540.8	-64.61588	1.492924E-009	0.0463665	6
	48	17	15.83615	52134.53	-106022.3	1	118147.1	-63.81519	-2.124557E-010	0.0463625	5
	49	17	12.40079	65029.76	-125589.1	1	141426.6	-62.62497	1.59943E-009	0.0463609	5
	50	18	9.93114	79003.76	-145333.7	1	165419.1	-61.47139	1.573152E-009	0.0463657	5
	51	18	7.944915	96012.8	-167684.3	1	193226.5	-60.20538	-2.724007E-010	0.0463639	5
	52	18	6.317385	116322.8	-192616.2	1	225015.5	-58.87181	2.305912E-010	0.0463628	5
	53	19	5.008013	140154.9	-220298.5	1	261103.1	-57.5353	6.585614E-010	0.0463707	5
	54	20	3.945707	168699.4	-251583.9	1	302909.2	-56.1562	2.589697E-010	0.0463566	5
	55	21	3.158693	198000	-283685.4	1	345950	-55.08664	4.040801E-010	0.0463713	5
	56	22	2.504006	233072.2	-320283.5	1	396111.3	-53.9564	-9.116084E-011	0.0463683	5
	57	23	1.998082	269327	-359867.7	1	449490.5	-53.18861	-7.022691E-011	0.0463523	5
	58	25	1.584686	311355.8	-403794.4	1	509894.5	-52.36507	1.533596E-010	0.0463973	5
	59	27	1.266892	355143.3	-453572.2	1	576068.1	-51.93934	1.933316E-010	0.0463975	5
	60	29	0.999041	403197.6	-513564.4	1	652929.4	-51.86467	2.032155E-010	0.0463832	5
