EXPLAIN
TAG	EISPOT
TITLE	LABEL	Potentiostatic EIS	Test &Identifier
DATE	LABEL	3/9/2020	Date
TIME	LABEL	20:42:46	Time
NOTES	NOTES	1	&Notes...
	
PSTAT	PSTAT	REF600-11020	Potentiostat
VDC	POTEN	0.00000E+000	T	DC &Voltage (V)
FREQINIT	QUANT	1.00000E+006	Initial Fre&q. (Hz)
FREQFINAL	QUANT	1.00000E+000	Final Fre&q. (Hz)
PTSPERDEC	QUANT	1.00000E+001	Points/&decade
VAC	QUANT	2.50000E+001	AC &Voltage (mV rms)
AREA	QUANT	4.00000E-005	&Area (cm^2)
CONDIT	TWOPARAM	F	5.00000E+000	0.00000E+000	Conditionin&g	Time(s)	E(V)
DELAY	TWOPARAM	T	3.00000E+000	0.00000E+000	Init. De&lay	Time(s)	Stab.(mV/s)
SPEED	SELECTOR	0	&Optimize for:
ZGUESS	QUANT	1.00000E+003	E&stimated Z (ohms)
OCVCURVE	TABLE	12
	Pt	T	Vf	Vm	Ach	Over
	#	s	V vs. Ref.	V	V	bits
	0	0.258333	5.14266E-002	5.14266E-002	5.77997E-004	...........
	1	0.516667	5.14265E-002	5.14202E-002	5.78563E-004	...........
	2	0.775	5.14257E-002	5.14095E-002	5.76163E-004	...........
	3	1.03333	5.14231E-002	5.14031E-002	5.73063E-004	...........
	4	1.29167	5.14181E-002	5.13925E-002	5.76963E-004	...........
	5	1.55	5.14111E-002	5.13859E-002	5.80097E-004	...........
	6	1.80833	5.14030E-002	5.13789E-002	5.75697E-004	...........
	7	2.06667	5.13947E-002	5.13703E-002	5.71163E-004	...........
	8	2.325	5.13868E-002	5.13673E-002	5.76830E-004	...........
	9	2.58333	5.13794E-002	5.13600E-002	5.72597E-004	...........
	10	2.84167	5.13726E-002	5.13486E-002	5.73797E-004	...........
	11	3.1	5.13659E-002	5.13429E-002	5.71397E-004	...........
EOC	QUANT	0.0513659	Open Circuit (V)
PSTATMODEL	IQUANT	4	Pstat Model
PSTATSECTION	LABEL	REF600-11020	Pstat Section
PSTATSERIALNO	LABEL	11020	Pstat Serial Number
CTRLMODE	IQUANT	1	Control Mode
IESTAB	IQUANT	0	I/E Stability
CASPEED	IQUANT	1	Control Amp Speed
CONVENTION	IQUANT	1	Current Convention
ICHRANGE	IQUANT	2	Ich Range
ICHRANGEMODE	TOGGLE	F	Ich Auto Range
ICHOFFSETENABLE	TOGGLE	T	Ich Offset Enable
ICHOFFSET	QUANT	0	Ich Offset (V)
ICHFILTER	IQUANT	3	Ich Filter
VCHRANGE	IQUANT	2	Vch Range
VCHRANGEMODE	TOGGLE	F	Vch Auto Range
VCHOFFSETENABLE	TOGGLE	T	Vch Offset Enable
VCHOFFSET	QUANT	0	Vch Offset (V)
VCHFILTER	IQUANT	3	Vch Filter
ACHRANGE	IQUANT	2	Ach Range
ACHOFFSETENABLE	TOGGLE	F	Ach Offset Enable
ACHOFFSET	QUANT	0	Ach Offset (V)
ACHFILTER	IQUANT	3	Ach Filter
IERANGELOWERLIMIT	IQUANT	1	I/E Range Lower Limit
IERANGEMODE	TOGGLE	F	I/E AutoRange
IERANGE	IQUANT	7	I/E Range
POSFEEDENABLE	TOGGLE	F	Positive Feedback IR Comp
POSFEEDRESISTANCE	QUANT	0	Positive Feedback Resistance (ohm)
ACHSELECT	IQUANT	0	Ach Select
CABLEID	IQUANT	14	Cable ID
DCCALDATE	LABEL	2/27/2020	DC Calibration Date
ACCALDATE	LABEL	2/27/2020	AC Calibration Date
THERMOSELECT	IQUANT	1	Thermo Select
FRAMEWORKVERSION	QUANT	6.33	Framework Version
INSTRUMENTVERSION	LABEL	3.50	Instrument Version
ZCURVE	TABLE
	Pt	Time	Freq	Zreal	Zimag	Zsig	Zmod	Zphz	Idc	Vdc	IERange
	#	s	Hz	ohm	ohm	V	ohm	°	A	V	#
	0	2	1000078	1650.721	-1190.017	1	2034.95	-35.78812	-2.234483E-008	0.0537534	8
	1	2	794390.6	1830.282	-1240.661	1	2211.147	-34.13148	1.545775E-008	0.053357	8
	2	2	630984.4	2008.803	-1295.071	1	2390.084	-32.80979	-3.175275E-009	0.0532169	8
	3	3	501234.4	2193.187	-1355.653	1	2578.345	-31.72104	5.279601E-008	0.0530745	8
	4	3	398109.4	2384.019	-1419.327	1	2774.533	-30.76747	4.222025E-008	0.0530298	8
	5	3	316265.6	2588.707	-1489.347	1	2986.563	-29.91287	1.885243E-008	0.05297	8
	6	4	251203.1	2793.099	-1570.75	1	3204.475	-29.35201	8.991121E-009	0.0529928	8
	7	4	199546.9	3017.816	-1662.13	1	3445.27	-28.84476	4.044722E-008	0.0529658	8
	8	4	158578.1	3257.189	-1761.929	1	3703.198	-28.41053	1.083015E-009	0.0529664	8
	9	4	125953.1	3571.877	-1800.874	1	4000.182	-26.75639	7.561447E-009	0.0529018	7
	10	5	100078.1	3832.675	-1912.755	1	4283.46	-26.52219	1.232363E-009	0.0528948	7
	11	5	79453.13	4133.904	-2043.478	1	4611.395	-26.30418	7.291789E-010	0.0528908	7
	12	5	63140.62	4464.724	-2166.38	1	4962.556	-25.88366	1.132404E-009	0.052894	7
	13	6	50203.12	4829.026	-2272.315	1	5336.938	-25.19949	1.165269E-009	0.0528875	7
	14	6	39890.62	5225.306	-2355.576	1	5731.716	-24.26593	1.145025E-009	0.0528872	7
	15	6	31640.63	5646.659	-2405.214	1	6137.574	-23.07175	2.132649E-009	0.0528868	7
	16	7	25171.88	6068.901	-2410.75	1	6530.182	-21.66446	9.782171E-010	0.0528785	7
	17	7	20015.62	6484.318	-2377.579	1	6906.465	-20.13627	1.284819E-009	0.0528773	7
	18	7	15890.62	6887.606	-2306.545	1	7263.558	-18.51484	1.168558E-009	0.0528751	7
	19	8	12609.37	7262.774	-2206.152	1	7590.454	-16.89677	1.313112E-009	0.0528767	7
	20	8	10078.13	7581.334	-2091.148	1	7864.447	-15.42038	2.511712E-009	0.0528771	7
	21	8	8015.625	7875.706	-1976.437	1	8119.917	-14.08766	1.948049E-009	0.0528773	7
	22	9	6328.125	8133.762	-1862.635	1	8344.309	-12.89836	1.578475E-009	0.0528709	7
	23	9	5015.625	8343.518	-1769.1	1	8529.01	-11.97129	1.783172E-009	0.0528712	7
	24	9	3984.375	8526.856	-1708.382	1	8696.313	-11.32938	2.233863E-009	0.052876	7
	25	10	3170.956	8687.711	-1686.798	1	8849.949	-10.98778	2.84191E-009	0.052876	7
	26	10	2527.573	8828.115	-1665.283	1	8983.807	-10.68241	-2.930219E-010	0.052924	6
	27	10	1976.103	8953.71	-1745.296	1	9122.225	-11.03003	-1.84577E-010	0.0529187	6
	28	11	1577.524	9069.492	-1876.276	1	9261.539	-11.68834	1.55304E-010	0.0529193	6
	29	11	1265.625	9170.343	-2063.265	1	9399.588	-12.68001	-6.544751E-010	0.0529141	6
	30	11	998.264	9295.538	-2342.047	1	9586.04	-14.14156	-4.900697E-011	0.0529226	6
	31	11	796.875	9416.739	-2690.052	1	9793.43	-15.9429	1.042197E-010	0.052918	6
	32	12	627.7902	9574.31	-3167.188	1	10084.57	-18.30425	-2.808084E-010	0.0529174	6
	33	12	505.5147	9729.75	-3709.815	1	10413.01	-20.87114	-2.609813E-010	0.0529226	6
	34	12	397.9953	9932.88	-4456.211	1	10886.69	-24.16255	5.168985E-010	0.0529311	6
	35	13	315.5048	10167.31	-5356.991	1	11492.24	-27.78403	5.542157E-010	0.0529317	6
	36	13	252.4038	10459.79	-6419.206	1	12272.46	-31.53758	5.491564E-010	0.0529263	6
	37	13	198.6229	10845.09	-7818.016	1	13369.27	-35.78711	5.338906E-010	0.0529299	6
	38	14	158.3615	11310.56	-9435.727	1	14729.62	-39.83624	3.399222E-010	0.05292	6
	39	14	125.558	11904	-11449.31	1	16516.41	-43.88459	1.195755E-010	0.0529263	6
	40	14	100.4464	12627.04	-13786.29	1	18695.03	-47.51302	3.027971E-011	0.0529245	6
	41	15	79.00281	13637.52	-16822.66	1	21656.04	-50.96958	3.216968E-010	0.0529225	6
	42	15	63.3446	14835.94	-20175.12	1	25042.78	-53.6708	1.127189E-010	0.052922	6
	43	15	49.86702	16508.53	-24506.05	1	29547.9	-56.03377	2.97366E-010	0.0529191	6
	44	16	39.72458	18564.92	-29390.35	1	34762.75	-57.72074	6.655726E-010	0.052924	6
	45	16	31.6723	21186.42	-35093.29	1	40992.72	-58.87989	5.835006E-010	0.0529218	6
	46	16	24.93351	24733.77	-42082.21	1	48812.62	-59.55516	1.199736E-009	0.0529176	6
	47	17	19.86229	28909.3	-49722.13	1	57515.55	-59.82555	3.640348E-009	0.0529265	6
	48	17	15.83615	34224.94	-58445.11	1	67728.7	-59.64714	-1.901762E-009	0.0529197	6
	49	17	12.40079	41067.84	-68804.95	1	80129.2	-59.16815	-4.185436E-011	0.0529236	6
	50	18	9.93114	48499.21	-79358.45	1	93005.04	-58.56918	-1.125886E-009	0.0529269	6
	51	18	7.944915	56705.15	-91044.02	1	107259	-58.08402	-1.562036E-009	0.0529355	5
	52	18	6.317385	66384.68	-104475.1	1	123781.9	-57.56765	9.407343E-010	0.0529152	5
	53	19	5.008013	77328.47	-120036.1	1	142787.8	-57.20997	4.726511E-010	0.0529308	5
	54	20	3.945707	89198.41	-138342.7	1	164605.8	-57.18752	-3.321383E-010	0.0529246	5
	55	21	3.158693	101382.9	-158306.4	1	187987.8	-57.3636	2.939358E-010	0.0529182	5
	56	22	2.504006	114710.1	-183115.5	1	216078	-57.93551	2.50963E-010	0.0529252	5
	57	23	1.998082	128985.6	-211870.2	1	248044.9	-58.66712	-1.133223E-010	0.0528858	5
	58	25	1.584686	144118.7	-248009	1	286842.5	-59.83901	1.629793E-011	0.0528982	5
	59	27	1.266892	160926.1	-289695.7	1	331392.2	-60.9478	1.243533E-010	0.0529378	5
	60	29	0.999041	181589.7	-344630.4	1	389544.5	-62.21474	1.548323E-010	0.0529579	5
