EXPLAIN
TAG	EISPOT
TITLE	LABEL	Potentiostatic EIS	Test &Identifier
DATE	LABEL	5/26/2020	Date
TIME	LABEL	18:44:59	Time
NOTES	NOTES	1	&Notes...
	
PSTAT	PSTAT	REF600-11020	Potentiostat
VDC	POTEN	0.00000E+000	T	DC &Voltage (V)
FREQINIT	QUANT	1.00000E+006	Initial Fre&q. (Hz)
FREQFINAL	QUANT	1.00000E+000	Final Fre&q. (Hz)
PTSPERDEC	QUANT	1.00000E+001	Points/&decade
VAC	QUANT	2.50000E+001	AC &Voltage (mV rms)
AREA	QUANT	5.00000E-004	&Area (cm^2)
CONDIT	TWOPARAM	F	5.00000E+000	0.00000E+000	Conditionin&g	Time(s)	E(V)
DELAY	TWOPARAM	T	3.00000E+000	0.00000E+000	Init. De&lay	Time(s)	Stab.(mV/s)
SPEED	SELECTOR	0	&Optimize for:
ZGUESS	QUANT	1.00000E+003	E&stimated Z (ohms)
OCVCURVE	TABLE	12
	Pt	T	Vf	Vm	Ach	Over
	#	s	V vs. Ref.	V	V	bits
	0	0.258333	1.10658E-001	1.10658E-001	5.78097E-004	...........
	1	0.516667	1.10657E-001	1.10632E-001	5.85563E-004	...........
	2	0.775	1.10654E-001	1.10611E-001	5.81663E-004	...........
	3	1.03333	1.10646E-001	1.10594E-001	5.75497E-004	...........
	4	1.29167	1.10633E-001	1.10579E-001	5.83197E-004	...........
	5	1.55	1.10615E-001	1.10562E-001	5.82197E-004	...........
	6	1.80833	1.10598E-001	1.10546E-001	5.81630E-004	...........
	7	2.06667	1.10580E-001	1.10529E-001	5.74697E-004	...........
	8	2.325	1.10563E-001	1.10514E-001	5.78530E-004	...........
	9	2.58333	1.10547E-001	1.10501E-001	5.76130E-004	...........
	10	2.84167	1.10531E-001	1.10491E-001	5.79797E-004	...........
	11	3.1	1.10517E-001	1.10482E-001	5.83297E-004	...........
EOC	QUANT	0.1105166	Open Circuit (V)
PSTATMODEL	IQUANT	4	Pstat Model
PSTATSECTION	LABEL	REF600-11020	Pstat Section
PSTATSERIALNO	LABEL	11020	Pstat Serial Number
CTRLMODE	IQUANT	1	Control Mode
IESTAB	IQUANT	0	I/E Stability
CASPEED	IQUANT	1	Control Amp Speed
CONVENTION	IQUANT	1	Current Convention
ICHRANGE	IQUANT	2	Ich Range
ICHRANGEMODE	TOGGLE	F	Ich Auto Range
ICHOFFSETENABLE	TOGGLE	T	Ich Offset Enable
ICHOFFSET	QUANT	0	Ich Offset (V)
ICHFILTER	IQUANT	3	Ich Filter
VCHRANGE	IQUANT	2	Vch Range
VCHRANGEMODE	TOGGLE	F	Vch Auto Range
VCHOFFSETENABLE	TOGGLE	T	Vch Offset Enable
VCHOFFSET	QUANT	0	Vch Offset (V)
VCHFILTER	IQUANT	3	Vch Filter
ACHRANGE	IQUANT	2	Ach Range
ACHOFFSETENABLE	TOGGLE	F	Ach Offset Enable
ACHOFFSET	QUANT	0	Ach Offset (V)
ACHFILTER	IQUANT	3	Ach Filter
IERANGELOWERLIMIT	IQUANT	1	I/E Range Lower Limit
IERANGEMODE	TOGGLE	F	I/E AutoRange
IERANGE	IQUANT	8	I/E Range
POSFEEDENABLE	TOGGLE	F	Positive Feedback IR Comp
POSFEEDRESISTANCE	QUANT	0	Positive Feedback Resistance (ohm)
ACHSELECT	IQUANT	0	Ach Select
CABLEID	IQUANT	14	Cable ID
DCCALDATE	LABEL	2/27/2020	DC Calibration Date
ACCALDATE	LABEL	2/27/2020	AC Calibration Date
THERMOSELECT	IQUANT	1	Thermo Select
FRAMEWORKVERSION	QUANT	6.33	Framework Version
INSTRUMENTVERSION	LABEL	3.50	Instrument Version
ZCURVE	TABLE
	Pt	Time	Freq	Zreal	Zimag	Zsig	Zmod	Zphz	Idc	Vdc	IERange
	#	s	Hz	ohm	ohm	V	ohm	°	A	V	#
	0	1	1000078	1823.337	-1615.293	1	2435.925	-41.53773	7.224268E-008	0.1129171	8
	1	1	794390.6	2073.075	-1705.284	1	2684.332	-39.44026	-1.253783E-008	0.1125792	8
	2	1	630984.4	2322.435	-1795.976	1	2935.854	-37.71536	5.782664E-008	0.1123898	8
	3	2	501234.4	2574.285	-1888.321	1	3192.601	-36.26125	8.460213E-008	0.1122648	8
	4	2	398109.4	2826.909	-1998.531	1	3462.014	-35.25904	4.616401E-008	0.1122115	8
	5	2	316265.6	3088.623	-2117.725	1	3744.91	-34.43662	4.28464E-008	0.1122012	8
	6	3	251203.1	3355.189	-2269.841	1	4050.861	-34.079	4.35001E-008	0.1121898	8
	7	3	199546.9	3654.299	-2443.162	1	4395.787	-33.76557	4.188932E-008	0.1121843	8
	8	3	158578.1	3974.831	-2648.577	1	4776.426	-33.67699	4.2996E-008	0.1121889	8
	9	4	125953.1	4396.314	-2826.397	1	5226.48	-32.73702	-7.427964E-011	0.112127	7
	10	4	100078.1	4780.616	-3076.77	1	5685.139	-32.76503	2.02014E-009	0.1121047	7
	11	4	79453.13	5227.33	-3357.32	1	6212.614	-32.71113	2.174853E-009	0.1120983	7
	12	4	63140.62	5732.282	-3650.869	1	6796.168	-32.4929	4.008779E-009	0.1120964	7
	13	5	50203.12	6293.948	-3940.158	1	7425.539	-32.04752	3.439171E-009	0.1120913	7
	14	5	39890.62	6918.105	-4214.745	1	8100.88	-31.35119	2.335579E-009	0.1120842	7
	15	5	31640.63	7602.951	-4481.123	1	8825.267	-30.51478	3.891107E-009	0.1120943	7
	16	6	25171.88	8315.301	-4703.736	1	9553.5	-29.49564	4.035981E-009	0.1120927	7
	17	6	20015.62	9059.362	-4896.54	1	10297.97	-28.391	2.983646E-009	0.1120802	7
	18	6	15890.62	9822.26	-5066.349	1	11051.91	-27.2848	3.573571E-009	0.1120824	7
	19	7	12609.37	10697.6	-5101.075	1	11851.57	-25.4938	1.0423E-009	0.1121367	6
	20	7	10078.13	11426.42	-5259.045	1	12578.58	-24.7144	1.034948E-009	0.1121336	6
	21	7	8015.625	12176.59	-5432.566	1	13333.5	-24.04396	9.741559E-010	0.1121278	6
	22	8	6328.125	12956.11	-5620.177	1	14122.58	-23.45051	7.050616E-010	0.1121313	6
	23	8	5015.625	13727.74	-5828.96	1	14914	-23.00665	8.042927E-010	0.1121306	6
	24	8	3984.375	14504.72	-6067.148	1	15722.5	-22.69897	6.694265E-010	0.1121325	6
	25	9	3170.956	15285.49	-6342.29	1	16549.04	-22.53465	7.352147E-010	0.112128	6
	26	9	2527.573	16072.36	-6667.419	1	17400.44	-22.53051	5.99269E-010	0.1121303	6
	27	9	1976.103	16929.85	-7092.735	1	18355.56	-22.73118	6.577032E-010	0.1121345	6
	28	10	1577.524	17713.69	-7567.732	1	19262.54	-23.13339	5.112795E-010	0.1121276	6
	29	10	1265.625	18491.35	-8143.479	1	20205.11	-23.7684	6.037877E-010	0.1121252	6
	30	10	998.264	19381.2	-8941.96	1	21344.54	-24.76732	5.138778E-010	0.1121265	6
	31	10	796.875	20272.13	-9881.18	1	22552.1	-25.98584	4.63448E-010	0.1121285	6
	32	11	627.7902	21329.94	-11095.14	1	24043.05	-27.48199	1.862228E-010	0.1121257	6
	33	11	505.5147	22399.38	-12412.52	1	25608.65	-28.99284	2.212685E-011	0.1121264	6
	34	11	397.9953	23797.23	-14137.75	1	27680.04	-30.71422	6.946821E-010	0.1121451	6
	35	12	315.5048	25339.15	-16043.88	1	29991.31	-32.3406	6.515535E-010	0.1121447	6
	36	12	252.4038	27025.91	-18116.22	1	32536.09	-33.83506	6.323675E-010	0.1121392	6
	37	12	198.6229	29013.51	-20617.6	1	35593.11	-35.39838	5.546193E-010	0.1121426	6
	38	13	158.3615	31004.73	-23294.79	1	38780.67	-36.91865	5.752419E-010	0.1121373	6
	39	13	125.558	33122.11	-26497.81	1	42417.07	-38.65993	6.193209E-010	0.1121371	6
	40	13	100.4464	35187.71	-30184.05	1	46360.03	-40.62302	4.837077E-010	0.112138	6
	41	14	79.00281	37468.02	-35074.32	1	51323.1	-43.11009	4.659901E-010	0.1121355	6
	42	14	63.3446	39692.76	-40674.82	1	56832.7	-45.7001	4.077473E-010	0.1121363	6
	43	14	49.86702	42316.63	-48247.56	1	64175.73	-48.74688	4.610382E-010	0.1121325	6
	44	15	39.72458	45215.7	-57231.05	1	72937.32	-51.68931	3.814349E-010	0.112138	6
	45	15	31.6723	48690.22	-68275.7	1	83858.87	-54.50577	4.517872E-010	0.1121321	6
	46	15	24.93351	53340.07	-82661.51	1	98377.3	-57.16653	2.198865E-010	0.1121304	6
	47	16	19.86229	58977.07	-99282.3	1	115478.4	-59.28824	-1.808144E-010	0.1121354	5
	48	16	15.83615	66130.38	-119334.2	1	136432.7	-61.00649	4.704557E-010	0.1121369	5
	49	16	12.40079	76254.74	-145421.6	1	164201.8	-62.32883	1.848979E-010	0.1121368	5
	50	17	9.93114	88176.48	-173660.2	1	194763.9	-63.08069	2.016947E-010	0.1121351	5
	51	17	7.944915	103669.5	-206910	1	231428.4	-63.38745	1.115508E-010	0.1121311	5
	52	17	6.317385	124159.9	-246538.9	1	276038.2	-63.26963	1.380857E-011	0.1121338	5
	53	18	5.008013	150824.2	-292852.2	1	329409.1	-62.75071	2.309321E-010	0.1121504	5
	54	19	3.945707	186040.4	-347064.8	1	393783	-61.80694	2.06127E-010	0.1121318	5
	55	20	3.158693	226517.2	-403064.4	1	462353.7	-60.66456	1.62793E-010	0.112154	5
	56	21	2.504006	278962.2	-467223	1	544166.6	-59.16008	-9.604675E-011	0.1121414	5
	57	22	1.998082	337982.4	-533312.8	1	631391	-57.63587	-9.523218E-012	0.1121344	5
	58	24	1.584686	411353.3	-605660.5	1	732144.9	-55.81638	1.249133E-010	0.1121768	5
	59	26	1.266892	490089.7	-681140.8	1	839130.9	-54.26449	1.359248E-010	0.1121614	5
	60	28	0.999041	582399.8	-764387.2	1	960977	-52.6956	1.525295E-010	0.1121456	5
