EXPLAIN
TAG	EISPOT
TITLE	LABEL	Potentiostatic EIS	Test &Identifier
DATE	LABEL	2/6/2020	Date
TIME	LABEL	18:06:50	Time
NOTES	NOTES	6	&Notes...
	
	
	
	
	
	
PSTAT	PSTAT	REF600-11020	Potentiostat
VDC	POTEN	0.00000E+000	T	DC &Voltage (V)
FREQINIT	QUANT	1.00000E+006	Initial Fre&q. (Hz)
FREQFINAL	QUANT	1.00000E+000	Final Fre&q. (Hz)
PTSPERDEC	QUANT	1.00000E+001	Points/&decade
VAC	QUANT	2.50000E+001	AC &Voltage (mV rms)
AREA	QUANT	1.60000E-004	&Area (cm^2)
CONDIT	TWOPARAM	F	5.00000E+000	0.00000E+000	Conditionin&g	Time(s)	E(V)
DELAY	TWOPARAM	F	5.00000E+000	0.00000E+000	Init. De&lay	Time(s)	Stab.(mV/s)
SPEED	SELECTOR	0	&Optimize for:
ZGUESS	QUANT	1.00000E+003	E&stimated Z (ohms)
OCVCURVE	TABLE	39
	Pt	T	Vf	Vm	Ach	Over
	#	s	V vs. Ref.	V	V	bits
	0	0.258333	-4.09387E-002	-4.09387E-002	5.68071E-004	...........
	1	0.516667	-4.09379E-002	-4.08987E-002	5.66438E-004	...........
	2	0.775	-4.09326E-002	-4.08293E-002	5.63371E-004	...........
	3	1.03333	-4.09165E-002	-4.08068E-002	5.66971E-004	...........
	4	1.29167	-4.08875E-002	-4.07903E-002	5.67538E-004	...........
	5	1.55	-4.08494E-002	-4.06144E-002	5.67738E-004	...........
	6	1.80833	-4.07986E-002	-4.04563E-002	5.71204E-004	...........
	7	2.06667	-4.07239E-002	-4.04330E-002	5.64671E-004	...........
	8	2.325	-4.06269E-002	-4.03664E-002	5.68338E-004	...........
	9	2.58333	-4.05281E-002	-4.03364E-002	5.66271E-004	...........
	10	2.84167	-4.04483E-002	-4.04158E-002	5.72871E-004	...........
	11	3.1	-4.03998E-002	-4.04391E-002	5.67804E-004	...........
	12	3.35833	-4.03858E-002	-4.04349E-002	5.70338E-004	...........
	13	3.61667	-4.03966E-002	-4.04266E-002	5.70571E-004	...........
	14	3.875	-4.04140E-002	-4.04268E-002	5.70871E-004	...........
	15	4.13333	-4.04267E-002	-4.04947E-002	5.71571E-004	...........
	16	4.39167	-4.04385E-002	-4.05644E-002	5.68138E-004	...........
	17	4.65	-4.04589E-002	-4.04965E-002	5.68704E-004	...........
	18	4.90833	-4.04835E-002	-4.04036E-002	5.73404E-004	...........
	19	5.16667	-4.04931E-002	-4.04031E-002	5.72171E-004	...........
	20	5.425	-4.04771E-002	-4.03950E-002	5.70504E-004	...........
	21	5.68333	-4.04471E-002	-4.04189E-002	5.72738E-004	...........
	22	5.94167	-4.04223E-002	-4.04360E-002	5.70304E-004	...........
	23	6.2	-4.04128E-002	-4.04388E-002	5.69271E-004	...........
	24	6.45833	-4.04168E-002	-4.04560E-002	5.73771E-004	...........
	25	6.71667	-4.04276E-002	-4.04610E-002	5.73404E-004	...........
	26	6.975	-4.04397E-002	-4.04640E-002	5.70338E-004	...........
	27	7.23333	-4.04502E-002	-4.04698E-002	5.75971E-004	...........
	28	7.49167	-4.04583E-002	-4.04765E-002	5.74071E-004	...........
	29	7.75	-4.04645E-002	-4.04749E-002	5.72704E-004	...........
	30	8.00833	-4.04695E-002	-4.04821E-002	5.71271E-004	...........
	31	8.26667	-4.04737E-002	-4.04895E-002	5.72704E-004	...........
	32	8.525	-4.04780E-002	-4.05004E-002	5.71338E-004	...........
	33	8.78333	-4.04834E-002	-4.05046E-002	5.70138E-004	...........
	34	9.04167	-4.04901E-002	-4.05134E-002	5.73638E-004	...........
	35	9.3	-4.04976E-002	-4.05244E-002	5.72338E-004	...........
	36	9.5583	-4.05054E-002	-4.05269E-002	5.73371E-004	...........
	37	9.8167	-4.05133E-002	-4.05367E-002	5.67304E-004	...........
	38	10.075	-4.05209E-002	-4.05396E-002	5.71138E-004	...........
EOC	QUANT	-0.0405209	Open Circuit (V)
PSTATMODEL	IQUANT	4	Pstat Model
PSTATSECTION	LABEL	REF600-11020	Pstat Section
PSTATSERIALNO	LABEL	11020	Pstat Serial Number
CTRLMODE	IQUANT	1	Control Mode
IESTAB	IQUANT	0	I/E Stability
CASPEED	IQUANT	1	Control Amp Speed
CONVENTION	IQUANT	1	Current Convention
ICHRANGE	IQUANT	2	Ich Range
ICHRANGEMODE	TOGGLE	F	Ich Auto Range
ICHOFFSETENABLE	TOGGLE	T	Ich Offset Enable
ICHOFFSET	QUANT	0	Ich Offset (V)
ICHFILTER	IQUANT	3	Ich Filter
VCHRANGE	IQUANT	2	Vch Range
VCHRANGEMODE	TOGGLE	F	Vch Auto Range
VCHOFFSETENABLE	TOGGLE	T	Vch Offset Enable
VCHOFFSET	QUANT	0	Vch Offset (V)
VCHFILTER	IQUANT	3	Vch Filter
ACHRANGE	IQUANT	2	Ach Range
ACHOFFSETENABLE	TOGGLE	F	Ach Offset Enable
ACHOFFSET	QUANT	0	Ach Offset (V)
ACHFILTER	IQUANT	3	Ach Filter
IERANGELOWERLIMIT	IQUANT	1	I/E Range Lower Limit
IERANGEMODE	TOGGLE	F	I/E AutoRange
IERANGE	IQUANT	7	I/E Range
POSFEEDENABLE	TOGGLE	F	Positive Feedback IR Comp
POSFEEDRESISTANCE	QUANT	0	Positive Feedback Resistance (ohm)
ACHSELECT	IQUANT	0	Ach Select
CABLEID	IQUANT	14	Cable ID
DCCALDATE	LABEL	1/27/2020	DC Calibration Date
ACCALDATE	LABEL	1/27/2020	AC Calibration Date
THERMOSELECT	IQUANT	1	Thermo Select
FRAMEWORKVERSION	QUANT	6.33	Framework Version
INSTRUMENTVERSION	LABEL	3.50	Instrument Version
ZCURVE	TABLE
	Pt	Time	Freq	Zreal	Zimag	Zsig	Zmod	Zphz	Idc	Vdc	IERange
	#	s	Hz	ohm	ohm	V	ohm	°	A	V	#
	0	1	1000078	1788.786	-783.0635	1	1952.676	-23.642	-8.040625E-007	-0.0384126	8
	1	1	794390.6	1903.636	-744.9857	1	2044.22	-21.37283	2.107519E-006	-0.0389535	8
	2	1	630984.4	2014.327	-699.3043	1	2132.262	-19.14522	-2.196715E-007	-0.0388425	8
	3	2	501234.4	2097.942	-655.2656	1	2197.893	-17.34553	1.571107E-006	-0.039164	8
	4	2	398109.4	2186.128	-620.9174	1	2272.596	-15.85593	-3.317769E-006	-0.0381825	8
	5	2	316265.6	2264.673	-594.6266	1	2341.436	-14.71186	3.607566E-006	-0.0393964	8
	6	3	251203.1	2334.343	-568.4393	1	2402.557	-13.68582	-1.065321E-006	-0.0387626	8
	7	3	199546.9	2404.96	-559.3868	1	2469.159	-13.09401	1.591707E-006	-0.0391887	8
	8	3	158578.1	2470.49	-558.8581	1	2532.912	-12.74654	2.55431E-007	-0.0388622	8
	9	4	125953.1	2544.438	-528.8547	1	2598.817	-11.7416	6.653551E-007	-0.040186	7
	10	4	100078.1	2617.959	-530.4533	1	2671.159	-11.45425	-1.821119E-008	-0.0388755	7
	11	4	79453.13	2683.321	-546.9071	1	2738.489	-11.52008	-2.961909E-008	-0.0389149	7
	12	5	63140.62	2751.687	-568.8627	1	2809.873	-11.68035	-1.104451E-008	-0.0388672	7
	13	5	50203.12	2823.37	-594.8079	1	2885.345	-11.8967	3.549701E-009	-0.0389387	7
	14	5	39890.62	2897.544	-624.5208	1	2964.083	-12.16315	1.954877E-008	-0.0389738	7
	15	6	31640.63	2975.074	-660.9187	1	3047.603	-12.52497	5.387843E-008	-0.0390644	7
	16	6	25171.88	3055.106	-702.3206	1	3134.793	-12.94646	4.319572E-008	-0.0389714	7
	17	6	20015.62	3136.39	-752.8925	1	3225.49	-13.49848	-9.112973E-009	-0.0388722	7
	18	6	15890.62	3221.993	-813.3993	1	3323.079	-14.16841	-1.758913E-008	-0.0388861	7
	19	7	12609.37	3310.066	-885.5085	1	3426.465	-14.97705	3.693454E-009	-0.0389489	7
	20	7	10078.13	3398.943	-972.028	1	3535.202	-15.95945	-2.275858E-008	-0.0389521	7
	21	7	8015.625	3494.786	-1079.935	1	3657.84	-17.17184	-1.767666E-008	-0.0388888	7
	22	8	6328.125	3601.211	-1215.802	1	3800.907	-18.65515	8.989426E-008	-0.0390977	7
	23	8	5015.625	3713.705	-1378.127	1	3961.166	-20.3595	3.64504E-009	-0.0390087	7
	24	8	3984.375	3838.597	-1573.353	1	4148.525	-22.2876	5.811026E-008	-0.0390691	7
	25	9	3170.956	3977.107	-1803.111	1	4366.759	-24.38823	-2.195067E-008	-0.0389575	7
	26	9	2527.573	4132.329	-2078.085	1	4625.428	-26.69712	-1.14039E-008	-0.0389695	7
	27	9	1976.103	4320.654	-2428.293	1	4956.275	-29.33685	-4.316995E-009	-0.0389483	7
	28	10	1577.524	4509.636	-2812.894	1	5314.997	-31.95393	-9.933401E-009	-0.0388883	7
	29	10	1265.625	4712.088	-3258.111	1	5728.792	-34.66141	-4.546728E-009	-0.0389506	7
	30	10	998.264	5945.711	-3835.784	1	6258.857	-37.79637	5.91675E-008	-0.0390708	7
	31	11	796.875	5183.823	-4504.7	1	6867.63	-40.99037	-1.215533E-008	-0.0389735	7
	32	11	627.7902	5460.341	-5380.135	1	7665.584	-44.57609	-3.000109E-008	-0.0389016	7
	33	11	505.5147	5743.614	-6347.838	1	8560.616	-47.86076	2.141347E-008	-0.038987	7
	34	12	397.9953	6092.553	-7673.771	1	9798.26	-51.55235	6.573224E-009	-0.0389582	7
	35	12	315.5048	6501.026	-9263.968	1	11317.44	-54.94059	4.659948E-010	-0.0389618	6
	36	12	252.4038	6968.057	-11139.39	1	13139.25	-57.97265	6.94075E-010	-0.0389647	6
	37	13	198.6229	7576.661	-13612.98	1	15579.44	-60.90073	7.011073E-010	-0.0389579	6
	38	13	158.3615	8290.917	-16478.92	1	18447.06	-63.292	1.201002E-009	-0.0389645	6
	39	13	125.558	9197.664	-20065.05	1	22072.68	-65.37364	8.031569E-010	-0.0389604	6
	40	14	100.4464	10300.64	-24277.96	1	26372.76	-67.00949	5.426612E-010	-0.0389659	6
	41	14	79.00281	11770	-29802.61	1	32042.61	-68.44936	1.228129E-009	-0.0389669	6
	42	14	63.3446	13389.71	-35637.34	1	38069.73	-69.40774	5.203785E-010	-0.0389672	6
	43	15	49.86702	15854.82	-43754.07	1	46538.09	-70.08141	2.096341E-010	-0.0389705	6
	44	15	39.72458	18794.19	-53203.25	1	56425.23	-70.5441	1.166204E-009	-0.0389664	6
	45	15	31.6723	22536.18	-64394.09	1	68223.73	-70.71134	1.279137E-009	-0.0389685	6
	46	16	24.93351	27782.3	-78190.09	1	82979.19	-70.43899	4.752401E-010	-0.0389661	6
	47	16	19.86229	34148.71	-93972.5	1	99984.8	-70.02934	1.188084E-009	-0.0389661	6
	48	16	15.83615	41502.37	-112597.5	1	120002.7	-69.76659	4.588949E-010	-0.0389672	5
	49	16	12.40079	52187.65	-136038.8	1	145705.6	-69.01203	1.445336E-010	-0.0389626	5
	50	17	9.93114	65276.06	-159716.4	1	172540.7	-67.77018	6.21324E-010	-0.0389672	5
	51	17	7.944915	80472.35	-188067.7	1	204561.2	-66.83439	4.278173E-010	-0.0389656	5
	52	18	6.317385	98677.6	-221034.2	1	242060.7	-65.94231	3.728008E-010	-0.0389729	5
	53	19	5.008013	121162.1	-259702.3	1	286575.6	-64.98895	3.798503E-010	-0.03896	5
	54	20	3.945707	148850.8	-305334.8	1	339685	-64.01076	1.003654E-011	-0.0389683	5
	55	21	3.158693	178389.5	-353682.4	1	396123.8	-63.23465	3.863261E-011	-0.0389863	5
	56	23	2.504006	214654.8	-411532.9	1	464150.8	-62.45354	2.442534E-010	-0.0389795	5
	57	24	1.998082	254125.6	-475787.9	1	539401.5	-61.89265	1.150495E-010	-0.0389876	5
	58	26	1.584686	302544.2	-553493.7	1	630783.8	-61.33862	3.427105E-011	-0.0390245	5
	59	28	1.266892	354092.3	-640822.8	1	732144.3	-61.07677	5.205916E-011	-0.0390075	5
	60	30	0.999041	417885.4	-748061.4	1	856868.8	-60.81121	6.124033E-011	-0.0389883	5
