EXPLAIN
TAG	EISPOT
TITLE	LABEL	Potentiostatic EIS	Test &Identifier
DATE	LABEL	7/30/2020	Date
TIME	LABEL	23:09:29	Time
NOTES	NOTES	1	&Notes...
	
PSTAT	PSTAT	REF600-11020	Potentiostat
VDC	POTEN	0.00000E+000	T	DC &Voltage (V)
FREQINIT	QUANT	1.00000E+006	Initial Fre&q. (Hz)
FREQFINAL	QUANT	1.00000E+000	Final Fre&q. (Hz)
PTSPERDEC	QUANT	1.00000E+001	Points/&decade
VAC	QUANT	2.50000E+001	AC &Voltage (mV rms)
AREA	QUANT	4.00000E-005	&Area (cm^2)
CONDIT	TWOPARAM	F	5.00000E+000	0.00000E+000	Conditionin&g	Time(s)	E(V)
DELAY	TWOPARAM	F	3.00000E+000	0.00000E+000	Init. De&lay	Time(s)	Stab.(mV/s)
SPEED	SELECTOR	0	&Optimize for:
ZGUESS	QUANT	1.00000E+003	E&stimated Z (ohms)
OCVCURVE	TABLE	39
	Pt	T	Vf	Vm	Ach	Over
	#	s	V vs. Ref.	V	V	bits
	0	0.258333	1.31688E-002	1.31688E-002	5.10017E-004	...........
	1	0.516667	1.31691E-002	1.31815E-002	5.09084E-004	...........
	2	0.775	1.31706E-002	1.31959E-002	5.13383E-004	...........
	3	1.03333	1.31751E-002	1.32084E-002	5.10250E-004	...........
	4	1.29167	1.31832E-002	1.32167E-002	5.16417E-004	...........
	5	1.55	1.31937E-002	1.32207E-002	5.13650E-004	...........
	6	1.80833	1.32041E-002	1.32227E-002	5.12050E-004	...........
	7	2.06667	1.32126E-002	1.32236E-002	5.09150E-004	...........
	8	2.325	1.32184E-002	1.32272E-002	5.09850E-004	...........
	9	2.58333	1.32221E-002	1.32293E-002	5.07450E-004	...........
	10	2.84167	1.32246E-002	1.32303E-002	5.03984E-004	...........
	11	3.1	1.32267E-002	1.32294E-002	5.08117E-004	...........
	12	3.35833	1.32283E-002	1.32319E-002	5.10817E-004	...........
	13	3.61667	1.32296E-002	1.32366E-002	5.01284E-004	...........
	14	3.875	1.32310E-002	1.32372E-002	5.07550E-004	...........
	15	4.13333	1.32328E-002	1.32417E-002	5.09750E-004	...........
	16	4.39167	1.32353E-002	1.32485E-002	5.09784E-004	...........
	17	4.65	1.32386E-002	1.32569E-002	5.03617E-004	...........
	18	4.90833	1.32432E-002	1.32690E-002	5.05650E-004	...........
	19	5.16667	1.32497E-002	1.32827E-002	5.03817E-004	...........
	20	5.425	1.32584E-002	1.32934E-002	5.09084E-004	...........
	21	5.68333	1.32690E-002	1.33080E-002	5.06950E-004	...........
	22	5.94167	1.32808E-002	1.33180E-002	5.07250E-004	...........
	23	6.2	1.32932E-002	1.33312E-002	5.09850E-004	...........
	24	6.45833	1.33057E-002	1.33464E-002	5.06717E-004	...........
	25	6.71667	1.33183E-002	1.33614E-002	5.05417E-004	...........
	26	6.975	1.33315E-002	1.33721E-002	5.05884E-004	...........
	27	7.23333	1.33450E-002	1.33828E-002	5.04950E-004	...........
	28	7.49167	1.33582E-002	1.33948E-002	5.05750E-004	...........
	29	7.75	1.33707E-002	1.34082E-002	5.09450E-004	...........
	30	8.00833	1.33827E-002	1.34236E-002	5.07083E-004	...........
	31	8.26667	1.33951E-002	1.34375E-002	5.09384E-004	...........
	32	8.525	1.34082E-002	1.34500E-002	5.13317E-004	...........
	33	8.78333	1.34219E-002	1.34656E-002	5.10817E-004	...........
	34	9.04167	1.34358E-002	1.34777E-002	5.05350E-004	...........
	35	9.3	1.34498E-002	1.34949E-002	5.05484E-004	...........
	36	9.5583	1.34639E-002	1.35085E-002	5.06117E-004	...........
	37	9.8167	1.34782E-002	1.35229E-002	5.05150E-004	...........
	38	10.075	1.34928E-002	1.35394E-002	5.13150E-004	...........
EOC	QUANT	0.0134928	Open Circuit (V)
PSTATMODEL	IQUANT	4	Pstat Model
PSTATSECTION	LABEL	REF600-11020	Pstat Section
PSTATSERIALNO	LABEL	11020	Pstat Serial Number
CTRLMODE	IQUANT	1	Control Mode
IESTAB	IQUANT	0	I/E Stability
CASPEED	IQUANT	1	Control Amp Speed
CONVENTION	IQUANT	1	Current Convention
ICHRANGE	IQUANT	2	Ich Range
ICHRANGEMODE	TOGGLE	F	Ich Auto Range
ICHOFFSETENABLE	TOGGLE	T	Ich Offset Enable
ICHOFFSET	QUANT	0	Ich Offset (V)
ICHFILTER	IQUANT	3	Ich Filter
VCHRANGE	IQUANT	2	Vch Range
VCHRANGEMODE	TOGGLE	F	Vch Auto Range
VCHOFFSETENABLE	TOGGLE	T	Vch Offset Enable
VCHOFFSET	QUANT	0	Vch Offset (V)
VCHFILTER	IQUANT	3	Vch Filter
ACHRANGE	IQUANT	2	Ach Range
ACHOFFSETENABLE	TOGGLE	F	Ach Offset Enable
ACHOFFSET	QUANT	0	Ach Offset (V)
ACHFILTER	IQUANT	3	Ach Filter
IERANGELOWERLIMIT	IQUANT	1	I/E Range Lower Limit
IERANGEMODE	TOGGLE	F	I/E AutoRange
IERANGE	IQUANT	7	I/E Range
POSFEEDENABLE	TOGGLE	F	Positive Feedback IR Comp
POSFEEDRESISTANCE	QUANT	0	Positive Feedback Resistance (ohm)
ACHSELECT	IQUANT	0	Ach Select
CABLEID	IQUANT	14	Cable ID
DCCALDATE	LABEL	6/26/2020	DC Calibration Date
ACCALDATE	LABEL	6/26/2020	AC Calibration Date
THERMOSELECT	IQUANT	1	Thermo Select
FRAMEWORKVERSION	QUANT	6.33	Framework Version
INSTRUMENTVERSION	LABEL	3.50	Instrument Version
ZCURVE	TABLE
	Pt	Time	Freq	Zreal	Zimag	Zsig	Zmod	Zphz	Idc	Vdc	IERange
	#	s	Hz	ohm	ohm	V	ohm	°	A	V	#
	0	1	1000078	1456.611	-1021.424	1	1779.051	-35.03942	3.661598E-008	0.0157772	8
	1	1	794390.6	1615.852	-1053.236	1	1928.804	-33.09689	6.148466E-008	0.0154764	8
	2	1	630984.4	1771.774	-1083.08	1	2076.595	-31.43731	4.870564E-008	0.0153331	8
	3	2	501234.4	1927.566	-1113.76	1	2226.202	-30.0196	6.391137E-008	0.0152323	8
	4	2	398109.4	2084.869	-1149.608	1	2380.814	-28.87258	5.970762E-008	0.0151671	8
	5	2	316265.6	2243.124	-1186.542	1	2537.614	-27.87744	4.725701E-008	0.0151624	8
	6	3	251203.1	2401.549	-1234.047	1	2700.058	-27.19658	6.422785E-008	0.0151428	8
	7	3	199546.9	2563.899	-1289.542	1	2869.93	-26.70064	4.675365E-008	0.0151411	8
	8	3	158578.1	2729.737	-1361.119	1	3050.264	-26.50206	9.504036E-008	0.015124	8
	9	4	125953.1	2923.986	-1420.823	1	3250.913	-25.91605	8.5561E-009	0.0151359	7
	10	4	100078.1	3111.538	-1515.379	1	3460.931	-25.96697	4.427995E-009	0.0151142	7
	11	4	79453.13	3300.045	-1633.058	1	3682.007	-26.32894	4.33576E-009	0.0151164	7
	12	4	63140.62	3505.237	-1768.35	1	3926.035	-26.7704	3.238754E-009	0.015114	7
	13	5	50203.12	3729.332	-1922.95	1	4195.909	-27.27693	2.263604E-009	0.0151042	7
	14	5	39890.62	3976.594	-2101.161	1	4497.574	-27.85117	2.412072E-009	0.0151045	7
	15	5	31640.63	4255.102	-2301.954	1	4837.859	-28.4128	2.671467E-009	0.0151034	7
	16	6	25171.88	4564.291	-2523.779	1	5215.574	-28.93996	3.037156E-009	0.0151047	7
	17	6	20015.62	4913.616	-2766.546	1	5638.918	-29.38111	3.069956E-009	0.0151	7
	18	6	15890.62	5309.544	-3021.403	1	6109.021	-29.64209	1.904175E-009	0.0150948	7
	19	7	12609.37	5750.157	-3290.8	1	6625.229	-29.78239	3.512309E-009	0.0150972	7
	20	7	10078.13	6220.594	-3550.768	1	7162.663	-29.71809	2.422317E-009	0.0150961	7
	21	7	8015.625	6740.797	-3822.517	1	7749.193	-29.55636	3.876902E-009	0.0150997	7
	22	8	6328.125	7313.945	-4100.633	1	8385.045	-29.27758	3.090845E-009	0.0150977	7
	23	8	5015.625	7901.162	-4372.741	1	9030.461	-28.96146	3.662646E-009	0.0151025	7
	24	8	3984.375	8504.882	-4630.104	1	9683.54	-28.56412	8.627049E-010	0.0150804	6
	25	9	3170.956	9098.551	-4936.894	1	10351.64	-28.48436	6.095493E-010	0.0150826	6
	26	9	2527.573	9685.39	-5278.993	1	11030.62	-28.59247	5.102972E-010	0.015083	6
	27	9	1976.103	10317.13	-5722.086	1	11797.69	-29.01362	6.524927E-010	0.015086	6
	28	10	1577.524	10897.03	-6223.302	1	12548.89	-29.73072	2.894714E-010	0.0150796	6
	29	10	1265.625	11460.89	-6832.496	1	13342.97	-30.80161	5.601087E-010	0.0150839	6
	30	10	998.264	12095.33	-7665.724	1	14319.93	-32.36552	5.448286E-010	0.0150801	6
	31	10	796.875	12739.93	-8662.864	1	15406.2	-34.21481	4.768033E-010	0.0150771	6
	32	11	627.7902	13498.29	-9987.52	1	16791.5	-36.49812	4.727812E-010	0.0150807	6
	33	11	505.5147	14307.26	-11457.27	1	18329.39	-38.68779	4.339932E-010	0.0150837	6
	34	11	397.9953	15357.01	-13422.54	1	20396.14	-41.15456	7.935561E-010	0.0151113	6
	35	12	315.5048	16610.18	-15708.2	1	22861.44	-43.40133	7.355992E-010	0.0151079	6
	36	12	252.4038	18056.34	-18252.13	1	25674.34	-45.30896	5.75166E-010	0.0151044	6
	37	12	198.6229	19943.95	-21449.24	1	29288.75	-47.08269	5.919806E-010	0.0151054	6
	38	13	158.3615	22056.8	-24912.41	1	33273.57	-48.47915	5.236348E-010	0.0151057	6
	39	13	125.558	24578.67	-28980.08	1	37999.43	-49.69796	3.747785E-010	0.0151044	6
	40	13	100.4464	27397.28	-33522.43	1	43293.93	-50.74149	4.209717E-011	0.0151025	6
	41	14	79.00281	30831.8	-39149.23	1	49832.34	-51.77796	4.905868E-010	0.0151009	6
	42	14	63.3446	34519.52	-45254.04	1	56916.83	-52.66381	1.833489E-010	0.0151008	6
	43	14	49.86702	39193.2	-53018.74	1	65932.5	-53.52697	2.257011E-010	0.0150993	6
	44	15	39.72458	44480.02	-61638.81	1	76011.94	-54.18489	3.378882E-010	0.0151043	6
	45	15	31.6723	50954.67	-71702.59	1	87963.85	-54.60091	4.774044E-010	0.0150997	6
	46	15	24.93351	59450.43	-83854.98	1	102791.1	-54.66461	-2.851687E-010	0.015092	5
	47	16	19.86229	69180.34	-96785.6	1	118967.9	-54.44359	1.43488E-009	0.0150997	5
	48	16	15.83615	81185.23	-111372.4	1	137821.8	-53.90971	-1.528748E-009	0.0150898	5
	49	16	12.40079	96347.6	-127731.3	1	159994.2	-52.97278	1.519399E-010	0.0150929	5
	50	17	9.93114	112250.2	-143942.9	1	182536.8	-52.05202	-4.957799E-010	0.0150946	5
	51	17	7.944915	129635.1	-160981.2	1	206688.7	-51.15617	-1.621346E-009	0.0150983	5
	52	17	6.317385	149193.9	-179934.1	1	233741.5	-50.33588	3.207608E-010	0.0150769	5
	53	18	5.008013	170427.3	-201348.4	1	263792.8	-49.75443	2.372081E-010	0.0150897	5
	54	19	3.945707	192737.6	-226214.1	1	297187.8	-49.56853	-3.629914E-010	0.0150804	5
	55	20	3.158693	214927.3	-253245.4	1	332155	-49.67901	1.391733E-011	0.0150752	5
	56	21	2.504006	238836.2	-287341.3	1	373641.2	-50.26687	8.921167E-011	0.0150875	5
	57	22	1.998082	264024.4	-326618.8	1	419986.5	-51.04943	-1.481404E-010	0.0150496	5
	58	24	1.584686	292473.9	-377418	1	477478.1	-52.22669	-1.890135E-010	0.0150418	5
	59	26	1.266892	322641.8	-435520.4	1	542010.8	-53.46825	-1.086358E-010	0.0150693	5
	60	28	0.999041	360800.1	-510002.6	1	624723.4	-54.7226	-5.555718E-011	0.0150969	5
