EXPLAIN
TAG	EISPOT
TITLE	LABEL	Potentiostatic EIS	Test &Identifier
DATE	LABEL	3/3/2020	Date
TIME	LABEL	18:46:55	Time
NOTES	NOTES	1	&Notes...
	
PSTAT	PSTAT	REF600-11020	Potentiostat
VDC	POTEN	0.00000E+000	T	DC &Voltage (V)
FREQINIT	QUANT	1.00000E+006	Initial Fre&q. (Hz)
FREQFINAL	QUANT	1.00000E+000	Final Fre&q. (Hz)
PTSPERDEC	QUANT	1.00000E+001	Points/&decade
VAC	QUANT	2.50000E+001	AC &Voltage (mV rms)
AREA	QUANT	1.60000E-004	&Area (cm^2)
CONDIT	TWOPARAM	F	1.50000E+001	0.00000E+000	Conditionin&g	Time(s)	E(V)
DELAY	TWOPARAM	F	1.00000E+002	0.00000E+000	Init. De&lay	Time(s)	Stab.(mV/s)
SPEED	SELECTOR	1	&Optimize for:
ZGUESS	QUANT	1.00000E+004	E&stimated Z (ohms)
OCVCURVE	TABLE	39
	Pt	T	Vf	Vm	Ach	Over
	#	s	V vs. Ref.	V	V	bits
	0	0.258333	7.52143E-002	7.52143E-002	5.12264E-004	...........
	1	0.516667	7.52058E-002	7.47707E-002	5.12798E-004	...........
	2	0.775	7.51708E-002	7.52393E-002	5.12364E-004	...........
	3	1.03333	7.51202E-002	7.52741E-002	5.15631E-004	...........
	4	1.29167	7.50950E-002	7.48214E-002	5.15364E-004	...........
	5	1.55	7.50837E-002	7.45553E-002	5.17464E-004	...........
	6	1.80833	7.50230E-002	7.48218E-002	5.20298E-004	...........
	7	2.06667	7.49116E-002	7.48831E-002	5.20031E-004	...........
	8	2.325	7.48254E-002	7.49887E-002	5.16931E-004	...........
	9	2.58333	7.48176E-002	7.51158E-002	5.20331E-004	...........
	10	2.84167	7.48855E-002	7.55149E-002	5.16364E-004	...........
	11	3.1	7.50067E-002	7.51894E-002	5.18631E-004	...........
	12	3.35833	7.51402E-002	7.51947E-002	5.20997E-004	...........
	13	3.61667	7.52268E-002	7.51111E-002	5.15098E-004	...........
	14	3.875	7.52455E-002	7.54137E-002	5.15031E-004	...........
	15	4.13333	7.52673E-002	7.68405E-002	5.14798E-004	...........
	16	4.39167	7.54109E-002	7.57918E-002	5.12898E-004	...........
	17	4.65	7.56524E-002	7.46506E-002	5.12831E-004	...........
	18	4.90833	7.57570E-002	7.46305E-002	5.15164E-004	...........
	19	5.16667	7.55674E-002	7.48247E-002	5.12031E-004	...........
	20	5.425	7.52201E-002	7.49415E-002	5.15531E-004	...........
	21	5.68333	7.49504E-002	7.49098E-002	5.18764E-004	...........
	22	5.94167	7.48470E-002	7.50012E-002	5.22531E-004	...........
	23	6.2	7.48608E-002	7.51242E-002	5.10698E-004	...........
	24	6.45833	7.49184E-002	7.48187E-002	5.14798E-004	...........
	25	6.71667	7.49617E-002	7.47518E-002	5.15098E-004	...........
	26	6.975	7.49518E-002	7.47797E-002	5.13764E-004	...........
	27	7.23333	7.48960E-002	7.48202E-002	5.16431E-004	...........
	28	7.49167	7.48368E-002	7.47794E-002	5.20331E-004	...........
	29	7.75	7.48023E-002	7.47708E-002	5.21164E-004	...........
	30	8.00833	7.47878E-002	7.47437E-002	5.21931E-004	...........
	31	8.26667	7.47785E-002	7.47465E-002	5.19297E-004	...........
	32	8.525	7.47685E-002	7.47846E-002	5.17564E-004	...........
	33	8.78333	7.47616E-002	7.47763E-002	5.21198E-004	...........
	34	9.04167	7.47618E-002	7.47633E-002	5.18164E-004	...........
	35	9.3	7.47663E-002	7.47792E-002	5.15798E-004	...........
	36	9.5583	7.47704E-002	7.47797E-002	5.21397E-004	...........
	37	9.8167	7.47722E-002	7.47285E-002	5.17731E-004	...........
	38	10.075	7.47682E-002	7.46520E-002	5.18664E-004	...........
EOC	QUANT	0.0747682	Open Circuit (V)
PSTATMODEL	IQUANT	4	Pstat Model
PSTATSECTION	LABEL	REF600-11020	Pstat Section
PSTATSERIALNO	LABEL	11020	Pstat Serial Number
CTRLMODE	IQUANT	1	Control Mode
IESTAB	IQUANT	0	I/E Stability
CASPEED	IQUANT	1	Control Amp Speed
CONVENTION	IQUANT	1	Current Convention
ICHRANGE	IQUANT	2	Ich Range
ICHRANGEMODE	TOGGLE	F	Ich Auto Range
ICHOFFSETENABLE	TOGGLE	T	Ich Offset Enable
ICHOFFSET	QUANT	0	Ich Offset (V)
ICHFILTER	IQUANT	3	Ich Filter
VCHRANGE	IQUANT	2	Vch Range
VCHRANGEMODE	TOGGLE	F	Vch Auto Range
VCHOFFSETENABLE	TOGGLE	T	Vch Offset Enable
VCHOFFSET	QUANT	0	Vch Offset (V)
VCHFILTER	IQUANT	3	Vch Filter
ACHRANGE	IQUANT	2	Ach Range
ACHOFFSETENABLE	TOGGLE	F	Ach Offset Enable
ACHOFFSET	QUANT	0	Ach Offset (V)
ACHFILTER	IQUANT	3	Ach Filter
IERANGELOWERLIMIT	IQUANT	1	I/E Range Lower Limit
IERANGEMODE	TOGGLE	F	I/E AutoRange
IERANGE	IQUANT	7	I/E Range
POSFEEDENABLE	TOGGLE	F	Positive Feedback IR Comp
POSFEEDRESISTANCE	QUANT	0	Positive Feedback Resistance (ohm)
ACHSELECT	IQUANT	0	Ach Select
CABLEID	IQUANT	14	Cable ID
DCCALDATE	LABEL	2/27/2020	DC Calibration Date
ACCALDATE	LABEL	2/27/2020	AC Calibration Date
THERMOSELECT	IQUANT	1	Thermo Select
FRAMEWORKVERSION	QUANT	6.33	Framework Version
INSTRUMENTVERSION	LABEL	3.50	Instrument Version
ZCURVE	TABLE
	Pt	Time	Freq	Zreal	Zimag	Zsig	Zmod	Zphz	Idc	Vdc	IERange
	#	s	Hz	ohm	ohm	V	ohm	°	A	V	#
	0	1	1000078	2722.125	-6261.37	1	6827.497	-66.50304	1.125223E-006	0.0775047	8
	1	3	794390.6	3450.486	-7564.958	1	8314.712	-65.48159	1.230087E-007	0.0767467	8
	2	5	630984.4	4657.542	-8821.739	1	9975.76	-62.16766	1.728849E-007	0.0766369	8
	3	7	501234.4	6422.06	-10299.79	1	12137.9	-58.0559	2.061046E-006	0.076269	8
	4	8	398109.4	8150.297	-11128.21	1	13793.63	-53.78095	2.222431E-007	0.0763894	8
	5	10	316265.6	10359.58	-12069.66	1	15905.9	-49.35999	-4.730005E-007	0.0765069	8
	6	12	251203.1	12844.06	-12881.86	1	18190.99	-45.08418	7.816475E-007	0.0762492	8
	7	13	199546.9	14606.06	-11769.29	1	18757.75	-38.86123	-1.63077E-006	0.076544	8
	8	15	158578.1	17910	-12415.93	1	21792.74	-34.73124	-5.40657E-008	0.0764817	8
	9	16	125953.1	20024.99	-11614.45	1	23149.42	-30.11364	5.112279E-007	0.0746858	7
	10	18	100078.1	22243.77	-11078.6	1	24849.96	-26.47578	-1.044613E-007	0.0763192	7
	11	19	79453.13	23704.94	-10304.23	1	25847.66	-23.49395	1.508529E-008	0.0761499	7
	12	21	63140.62	25640.46	-9322.411	1	27282.6	-19.98036	-6.940574E-008	0.0765579	7
	13	22	50203.12	27103.33	-8492.508	1	28402.7	-17.39776	-1.715097E-007	0.0764676	7
	14	23	39890.62	27843.13	-7445.754	1	28821.51	-14.9716	-1.040527E-007	0.0763012	7
	15	25	31640.63	28729.63	-6521.704	1	29460.55	-12.78955	2.745714E-008	0.0764008	7
	16	26	25171.88	29908.97	-5842.975	1	30474.36	-11.054	1.553591E-007	0.0761413	7
	17	27	20015.62	30497.74	-5099.389	1	30921.13	-9.492356	1.080063E-007	0.076284	7
	18	29	15890.62	30914.13	-4449	1	31232.63	-8.18948	-9.744019E-008	0.0765141	7
	19	30	12609.37	31619.23	-3769.566	1	31843.13	-6.798573	2.98806E-008	0.0760931	6
	20	32	10078.13	31337.66	-3364.561	1	31517.76	-6.128074	-2.212523E-008	0.0763966	6
	21	33	8015.625	31484.42	-3080.881	1	31634.8	-5.588836	1.475571E-008	0.0764742	6
	22	35	6328.125	31733.23	-2871.793	1	31862.91	-5.171065	-1.402546E-008	0.0762391	6
	23	36	5015.625	32007.01	-2799.257	1	32129.19	-4.998236	2.818961E-008	0.0760593	6
	24	37	3984.375	32249.74	-2799.785	1	32371.04	-4.961735	2.635953E-008	0.0759029	6
	25	39	3170.956	32680.91	-2881.064	1	32807.65	-5.038023	3.006422E-008	0.0760838	6
	26	40	2527.573	32947.57	-3045.222	1	33088	-5.280634	3.020283E-008	0.0760808	6
	27	42	1976.103	33187.6	-3333.075	1	33354.55	-5.73506	1.457217E-008	0.0764577	6
	28	43	1577.524	33931.15	-3671.587	1	34129.22	-6.175774	2.6608E-008	0.0761987	6
	29	45	1265.625	34371.63	-4113.183	1	34616.86	-6.824018	2.589729E-008	0.0758939	6
	30	46	998.264	34465.24	-4719.91	1	34786.93	-7.797975	2.706184E-008	0.0761988	6
	31	47	796.875	34695.64	-5452.506	1	35121.46	-8.931128	9.327037E-010	0.0765839	6
	32	49	627.7902	35270.95	-6427.661	1	35851.85	-10.32806	-9.021916E-009	0.0767101	6
	33	50	505.5147	35733.99	-7443.125	1	36500.94	-11.76605	3.059221E-009	0.0760072	6
	34	52	397.9953	36306.05	-8852.467	1	37369.72	-13.70299	3.170291E-010	0.0763544	6
	35	53	315.5048	37165.3	-10517.58	1	38624.86	-15.80123	2.046197E-010	0.0763475	6
	36	54	252.4038	37840.73	-12434.16	1	39831.26	-18.19011	2.774367E-010	0.0763481	6
	37	56	198.6229	38224.51	-14914.96	1	41031.32	-21.31542	3.288106E-010	0.0763502	6
	38	57	158.3615	39221.19	-17767.72	1	43058.03	-24.37116	8.54458E-011	0.0763514	6
	39	58	125.558	40314.65	-21293.72	1	45592.7	-27.84249	5.106243E-010	0.0763512	6
	40	60	100.4464	41606.36	-25450.43	1	48773.09	-31.45394	8.797401E-010	0.076352	6
	41	61	79.00281	43392.99	-30691.21	1	53149.81	-35.2712	5.930876E-010	0.0763521	6
	42	63	63.3446	46089.11	-37108.84	1	59171.55	-38.83942	5.727698E-010	0.0763489	6
	43	64	49.86702	48188.48	-44471.35	1	65573.09	-42.70276	7.972102E-010	0.0763526	6
	44	65	39.72458	51652.95	-53416.73	1	74305.95	-45.96172	4.617201E-010	0.076356	6
	45	67	31.6723	56163.35	-63707.78	1	84929.4	-48.60132	4.849385E-010	0.0763489	6
	46	68	24.93351	61851.06	-76738.13	1	98561.1	-51.13113	5.602107E-010	0.0763437	6
	47	70	19.86229	68578.18	-91069.21	1	114002.5	-53.01902	4.956558E-010	0.0763481	5
	48	71	15.83615	77350.45	-108184.8	1	132992.7	-54.43583	6.076485E-010	0.0763492	5
	49	72	12.40079	89104.36	-129261.9	1	156997.5	-55.42027	1.017116E-009	0.0763555	5
	50	74	9.93114	101499.1	-151163.1	1	182077.9	-56.12044	-2.662917E-010	0.0763593	5
	51	75	7.944915	117446	-176692.9	1	212164.9	-56.3884	5.314735E-010	0.0763507	5
	52	77	6.317385	137188.6	-206465.4	1	247888.4	-56.39742	4.295997E-010	0.0763626	5
	53	79	5.008013	162053.4	-240483.7	1	289989.1	-56.02537	3.567701E-010	0.076356	5
	54	82	3.945707	192162.5	-279238.3	1	338969.7	-55.46554	1.234206E-010	0.076352	5
	55	84	3.158693	225988.2	-318663.6	1	390662.5	-54.6567	1.040204E-010	0.0763599	5
	56	88	2.504006	266692.4	-363402	1	450761.4	-53.72591	2.053017E-010	0.0763394	5
	57	90	1.998082	310599.8	-409672.3	1	514104.8	-52.83181	-2.154854E-010	0.0763786	5
	58	93	1.584686	362226.6	-462665	1	587594.3	-51.94213	2.552936E-010	0.0763844	5
	59	97	1.266892	415484.6	-515955.3	1	662447.9	-51.15647	-8.591106E-011	0.0763895	5
	60	101	0.999041	475808.9	-580887.3	1	750882.3	-50.67885	2.504954E-010	0.0763264	5
