EXPLAIN
TAG	EISPOT
TITLE	LABEL	Potentiostatic EIS	Test &Identifier
DATE	LABEL	7/13/2020	Date
TIME	LABEL	20:23:08	Time
NOTES	NOTES	1	&Notes...
	
PSTAT	PSTAT	REF600-11020	Potentiostat
VDC	POTEN	0.00000E+000	T	DC &Voltage (V)
FREQINIT	QUANT	1.00000E+006	Initial Fre&q. (Hz)
FREQFINAL	QUANT	1.00000E+000	Final Fre&q. (Hz)
PTSPERDEC	QUANT	1.00000E+001	Points/&decade
VAC	QUANT	2.50000E+001	AC &Voltage (mV rms)
AREA	QUANT	4.00000E-004	&Area (cm^2)
CONDIT	TWOPARAM	F	5.00000E+000	0.00000E+000	Conditionin&g	Time(s)	E(V)
DELAY	TWOPARAM	F	3.00000E+000	0.00000E+000	Init. De&lay	Time(s)	Stab.(mV/s)
SPEED	SELECTOR	0	&Optimize for:
ZGUESS	QUANT	1.00000E+003	E&stimated Z (ohms)
OCVCURVE	TABLE	39
	Pt	T	Vf	Vm	Ach	Over
	#	s	V vs. Ref.	V	V	bits
	0	0.258333	1.08277E-001	1.08277E-001	5.19317E-004	...........
	1	0.516667	1.08277E-001	1.08259E-001	5.22050E-004	...........
	2	0.775	1.08275E-001	1.08246E-001	5.22350E-004	...........
	3	1.03333	1.08269E-001	1.08230E-001	5.21217E-004	...........
	4	1.29167	1.08259E-001	1.08213E-001	5.22017E-004	...........
	5	1.55	1.08246E-001	1.08201E-001	5.18817E-004	...........
	6	1.80833	1.08232E-001	1.08188E-001	5.17083E-004	...........
	7	2.06667	1.08217E-001	1.08177E-001	5.26017E-004	...........
	8	2.325	1.08203E-001	1.08166E-001	5.20083E-004	...........
	9	2.58333	1.08190E-001	1.08159E-001	5.22550E-004	...........
	10	2.84167	1.08178E-001	1.08147E-001	5.17017E-004	...........
	11	3.1	1.08168E-001	1.08140E-001	5.22617E-004	...........
	12	3.35833	1.08158E-001	1.08131E-001	5.21450E-004	...........
	13	3.61667	1.08149E-001	1.08125E-001	5.21817E-004	...........
	14	3.875	1.08140E-001	1.08116E-001	5.23783E-004	...........
	15	4.13333	1.08132E-001	1.08109E-001	5.20550E-004	...........
	16	4.39167	1.08124E-001	1.08100E-001	5.21017E-004	...........
	17	4.65	1.08117E-001	1.08096E-001	5.22650E-004	...........
	18	4.90833	1.08109E-001	1.08088E-001	5.21483E-004	...........
	19	5.16667	1.08102E-001	1.08085E-001	5.28183E-004	...........
	20	5.425	1.08096E-001	1.08080E-001	5.24417E-004	...........
	21	5.68333	1.08090E-001	1.08074E-001	5.22317E-004	...........
	22	5.94167	1.08085E-001	1.08076E-001	5.22883E-004	...........
	23	6.2	1.08081E-001	1.08068E-001	5.21917E-004	...........
	24	6.45833	1.08077E-001	1.08054E-001	5.21750E-004	...........
	25	6.71667	1.08072E-001	1.08059E-001	5.25483E-004	...........
	26	6.975	1.08067E-001	1.08053E-001	5.21250E-004	...........
	27	7.23333	1.08061E-001	1.08045E-001	5.21617E-004	...........
	28	7.49167	1.08056E-001	1.08040E-001	5.23450E-004	...........
	29	7.75	1.08051E-001	1.08034E-001	5.22150E-004	...........
	30	8.00833	1.08046E-001	1.08032E-001	5.24050E-004	...........
	31	8.26667	1.08041E-001	1.08028E-001	5.20150E-004	...........
	32	8.525	1.08036E-001	1.08027E-001	5.21317E-004	...........
	33	8.78333	1.08032E-001	1.08021E-001	5.21383E-004	...........
	34	9.04167	1.08029E-001	1.08017E-001	5.18483E-004	...........
	35	9.3	1.08026E-001	1.08015E-001	5.27150E-004	...........
	36	9.5583	1.08022E-001	1.08011E-001	5.25983E-004	...........
	37	9.8167	1.08018E-001	1.08003E-001	5.27117E-004	...........
	38	10.075	1.08014E-001	1.08003E-001	5.26250E-004	...........
EOC	QUANT	0.1080141	Open Circuit (V)
PSTATMODEL	IQUANT	4	Pstat Model
PSTATSECTION	LABEL	REF600-11020	Pstat Section
PSTATSERIALNO	LABEL	11020	Pstat Serial Number
CTRLMODE	IQUANT	1	Control Mode
IESTAB	IQUANT	0	I/E Stability
CASPEED	IQUANT	1	Control Amp Speed
CONVENTION	IQUANT	1	Current Convention
ICHRANGE	IQUANT	2	Ich Range
ICHRANGEMODE	TOGGLE	F	Ich Auto Range
ICHOFFSETENABLE	TOGGLE	T	Ich Offset Enable
ICHOFFSET	QUANT	0	Ich Offset (V)
ICHFILTER	IQUANT	3	Ich Filter
VCHRANGE	IQUANT	2	Vch Range
VCHRANGEMODE	TOGGLE	F	Vch Auto Range
VCHOFFSETENABLE	TOGGLE	T	Vch Offset Enable
VCHOFFSET	QUANT	0	Vch Offset (V)
VCHFILTER	IQUANT	3	Vch Filter
ACHRANGE	IQUANT	2	Ach Range
ACHOFFSETENABLE	TOGGLE	F	Ach Offset Enable
ACHOFFSET	QUANT	0	Ach Offset (V)
ACHFILTER	IQUANT	3	Ach Filter
IERANGELOWERLIMIT	IQUANT	1	I/E Range Lower Limit
IERANGEMODE	TOGGLE	F	I/E AutoRange
IERANGE	IQUANT	8	I/E Range
POSFEEDENABLE	TOGGLE	F	Positive Feedback IR Comp
POSFEEDRESISTANCE	QUANT	0	Positive Feedback Resistance (ohm)
ACHSELECT	IQUANT	0	Ach Select
CABLEID	IQUANT	14	Cable ID
DCCALDATE	LABEL	6/26/2020	DC Calibration Date
ACCALDATE	LABEL	6/26/2020	AC Calibration Date
THERMOSELECT	IQUANT	1	Thermo Select
FRAMEWORKVERSION	QUANT	6.33	Framework Version
INSTRUMENTVERSION	LABEL	3.50	Instrument Version
ZCURVE	TABLE
	Pt	Time	Freq	Zreal	Zimag	Zsig	Zmod	Zphz	Idc	Vdc	IERange
	#	s	Hz	ohm	ohm	V	ohm	°	A	V	#
	0	1	1000078	1514.548	-1683.672	1	2264.643	-48.02702	3.491123E-008	0.1103282	8
	1	1	794390.6	1779.261	-1825.474	1	2549.142	-45.73449	3.87142E-008	0.1100052	8
	2	2	630984.4	2055.854	-1962.203	1	2841.967	-43.66483	6.211626E-008	0.1098415	8
	3	2	501234.4	2345.846	-2096.103	1	3145.893	-41.782	1.681242E-007	0.1097408	8
	4	2	398109.4	2639.87	-2239.264	1	3461.678	-40.3062	-3.689355E-008	0.1096758	8
	5	3	316265.6	2943.221	-2386.11	1	3788.941	-39.03216	1.417922E-008	0.1096422	8
	6	3	251203.1	3262.465	-2548.031	1	4139.582	-37.99034	4.426274E-008	0.1096527	8
	7	3	199546.9	3596.233	-2745.94	1	4524.718	-37.36391	4.109118E-008	0.1096319	8
	8	4	158578.1	3929.87	-2967.132	1	4924.201	-37.05355	1.420714E-007	0.1096407	8
	9	4	125953.1	4388.61	-3181.188	1	5420.319	-35.93736	-2.908563E-008	0.1096583	7
	10	4	100078.1	4804.738	-3477.653	1	5931.237	-35.89689	-5.356179E-009	0.1096281	7
	11	5	79453.13	5259.723	-3818.335	1	6499.566	-35.97805	-1.32156E-008	0.1096252	7
	12	5	63140.62	5768.72	-4194.142	1	7132.248	-36.01899	8.088871E-009	0.1095967	7
	13	5	50203.12	6338.052	-4598.724	1	7830.656	-35.96365	1.231414E-008	0.1096006	7
	14	6	39890.62	6981.633	-5037.334	1	8609.178	-35.81091	-4.301568E-009	0.1096013	7
	15	6	31640.63	7696.94	-5501.9	1	9461.173	-35.55781	9.799107E-009	0.1095855	7
	16	6	25171.88	8478.261	-5975.908	1	10372.67	-35.17812	-1.326326E-008	0.1096157	7
	17	6	20015.62	9324.648	-6474.708	1	11352.13	-34.77476	8.584561E-009	0.1096103	7
	18	7	15890.62	10257.93	-7011.504	1	12425.23	-34.35341	-5.103082E-009	0.1095964	7
	19	7	12609.37	11428.06	-7421.231	1	13626.27	-32.99916	1.490682E-009	0.1095669	6
	20	7	10078.13	12438.91	-7990.565	1	14784.31	-32.71606	-4.248261E-011	0.1095864	6
	21	8	8015.625	13545.62	-8602.782	1	16046.55	-32.41951	7.488744E-010	0.1096119	6
	22	8	6328.125	14765.14	-9293.51	1	17446.45	-32.18723	-3.403097E-011	0.1095852	6
	23	8	5015.625	16048.88	-10028.09	1	18924.3	-31.99907	2.653339E-009	0.1095623	6
	24	9	3984.375	17406.59	-10819.34	1	20495.06	-31.86368	1.411152E-009	0.1095923	6
	25	9	3170.956	18863.58	-11691.86	1	22193.11	-31.7911	-9.508685E-010	0.1096107	6
	26	9	2527.573	20436.34	-12662.07	1	24041.05	-31.78179	2.350347E-009	0.1095557	6
	27	10	1976.103	22307.02	-13803.5	1	26232.42	-31.74907	1.258538E-010	0.1095684	6
	28	10	1577.524	24203.13	-14926.43	1	28435.71	-31.66274	-1.381359E-009	0.1096064	6
	29	10	1265.625	26245.02	-16081.95	1	30780.36	-31.49838	2.545388E-009	0.109554	6
	30	11	998.264	28628.2	-17350.46	1	33475.55	-31.21846	2.95664E-009	0.1095802	6
	31	11	796.875	31008.66	-18538.38	1	36127.67	-30.87289	1.350079E-009	0.1095888	6
	32	11	627.7902	33655.48	-19853.19	1	39074.81	-30.53613	1.70266E-009	0.1095553	6
	33	12	505.5147	36051.44	-21084.27	1	41764.25	-30.32074	-2.005976E-009	0.1095942	6
	34	12	397.9953	38686.37	-22688.31	1	44848.57	-30.39025	6.392199E-010	0.109604	6
	35	12	315.5048	41221.78	-24544.44	1	47975.67	-30.77059	6.271673E-010	0.1096025	6
	36	13	252.4038	43709.84	-26779.64	1	51261.09	-31.49449	6.429474E-010	0.1095982	6
	37	13	198.6229	46500.89	-29761.63	1	55209.48	-32.62017	7.040796E-010	0.1095948	6
	38	13	158.3615	49364.11	-33261.94	1	59524.55	-33.97241	5.294204E-010	0.1095934	6
	39	13	125.558	52629.32	-37631.95	1	64699.37	-35.5662	5.184261E-010	0.1095955	6
	40	14	100.4464	56148.3	-42669.76	1	70521.91	-37.23293	4.07128E-010	0.109594	6
	41	14	79.00281	60496.38	-49195.8	1	77974.6	-39.1181	3.193453E-010	0.1095897	6
	42	14	63.3446	65050.38	-56295.07	1	86027.25	-40.87315	2.137947E-010	0.1095885	6
	43	15	49.86702	70848.94	-65439.24	1	96446.2	-42.72695	2.777239E-010	0.1095916	6
	44	15	39.72458	77472.19	-75580.88	1	108233.1	-44.29202	2.409863E-010	0.1095838	5
	45	16	31.6723	85431.53	-87524.94	1	122307.6	-45.69345	-1.048549E-010	0.1095811	5
	46	16	24.93351	95450.8	-101784.3	1	139538.2	-46.83923	5.340171E-010	0.1095778	5
	47	16	19.86229	106877.4	-117244.8	1	158647.8	-47.64851	1.649105E-009	0.1095801	5
	48	16	15.83615	121649.4	-135118.8	1	181812.2	-48.00282	-1.057793E-009	0.1095751	5
	49	17	12.40079	139802.9	-155506.7	1	209110.5	-48.04396	-1.014198E-009	0.1095797	5
	50	17	9.93114	158695.7	-175541.6	1	236641.5	-47.88532	-1.262334E-009	0.1095767	5
	51	17	7.944915	180103.8	-196679	1	266683.4	-47.51889	3.062545E-010	0.1095799	5
	52	18	6.317385	205183.2	-221372.5	1	301837.6	-47.17353	-3.330601E-010	0.1095845	5
	53	19	5.008013	233197.2	-248716.2	1	340940.9	-46.84445	-6.356806E-010	0.1095718	5
	54	20	3.945707	265031.9	-278641.5	1	384555.5	-46.43397	-1.861031E-010	0.1095814	5
	55	20	3.158693	297562.2	-310990.8	1	430416.7	-46.26411	-4.106136E-010	0.1095669	5
	56	21	2.504006	335065.3	-347064.8	1	482413.5	-46.0078	5.984376E-011	0.1095636	5
	57	23	1.998082	374963	-387968.7	1	539552.6	-45.97663	1.898806E-010	0.1095879	5
	58	24	1.584686	420443.5	-433048.5	1	603575.8	-45.84612	-3.282094E-011	0.1095362	5
	59	26	1.266892	469323.2	-483600.8	1	673894.6	-45.8584	-1.19243E-010	0.1095215	5
	60	29	0.999041	523841.1	-545301.6	1	756150.3	-46.14993	-1.613268E-010	0.1095246	5
