EXPLAIN
TAG	EISPOT
TITLE	LABEL	Potentiostatic EIS	Test &Identifier
DATE	LABEL	3/12/2020	Date
TIME	LABEL	12:56:33	Time
NOTES	NOTES	1	&Notes...
	
PSTAT	PSTAT	REF600-11020	Potentiostat
VDC	POTEN	0.00000E+000	T	DC &Voltage (V)
FREQINIT	QUANT	1.00000E+006	Initial Fre&q. (Hz)
FREQFINAL	QUANT	1.00000E+000	Final Fre&q. (Hz)
PTSPERDEC	QUANT	1.00000E+001	Points/&decade
VAC	QUANT	2.50000E+001	AC &Voltage (mV rms)
AREA	QUANT	2.50000E-001	&Area (cm^2)
CONDIT	TWOPARAM	F	5.00000E+000	0.00000E+000	Conditionin&g	Time(s)	E(V)
DELAY	TWOPARAM	T	5.00000E+000	0.00000E+000	Init. De&lay	Time(s)	Stab.(mV/s)
SPEED	SELECTOR	1	&Optimize for:
ZGUESS	QUANT	5.00000E+003	E&stimated Z (ohms)
OCVCURVE	TABLE	19
	Pt	T	Vf	Vm	Ach	Over
	#	s	V vs. Ref.	V	V	bits
	0	0.258333	3.97148E-002	3.97148E-002	5.80763E-004	...........
	1	0.516667	3.97144E-002	3.96946E-002	5.84430E-004	...........
	2	0.775	3.97108E-002	3.96100E-002	5.83497E-004	...........
	3	1.03333	3.96972E-002	3.95731E-002	5.82830E-004	...........
	4	1.29167	3.96687E-002	3.95384E-002	5.79063E-004	...........
	5	1.55	3.96274E-002	3.94485E-002	5.76730E-004	...........
	6	1.80833	3.95772E-002	3.93481E-002	5.81197E-004	...........
	7	2.06667	3.95176E-002	3.93085E-002	5.74663E-004	...........
	8	2.325	3.94497E-002	3.92637E-002	5.79830E-004	...........
	9	2.58333	3.93812E-002	3.92100E-002	5.75963E-004	...........
	10	2.84167	3.93195E-002	3.91657E-002	5.78497E-004	...........
	11	3.1	3.92652E-002	3.91172E-002	5.83630E-004	...........
	12	3.35833	3.92157E-002	3.90745E-002	5.76263E-004	...........
	13	3.61667	3.91684E-002	3.90273E-002	5.76363E-004	...........
	14	3.875	3.91224E-002	3.89852E-002	5.79530E-004	...........
	15	4.13333	3.90771E-002	3.89404E-002	5.83363E-004	...........
	16	4.39167	3.90324E-002	3.88997E-002	5.81997E-004	...........
	17	4.65	3.89884E-002	3.88546E-002	5.80463E-004	...........
	18	4.90833	3.89449E-002	3.88140E-002	5.81530E-004	...........
EOC	QUANT	0.0389449	Open Circuit (V)
PSTATMODEL	IQUANT	4	Pstat Model
PSTATSECTION	LABEL	REF600-11020	Pstat Section
PSTATSERIALNO	LABEL	11020	Pstat Serial Number
CTRLMODE	IQUANT	1	Control Mode
IESTAB	IQUANT	0	I/E Stability
CASPEED	IQUANT	1	Control Amp Speed
CONVENTION	IQUANT	1	Current Convention
ICHRANGE	IQUANT	2	Ich Range
ICHRANGEMODE	TOGGLE	F	Ich Auto Range
ICHOFFSETENABLE	TOGGLE	T	Ich Offset Enable
ICHOFFSET	QUANT	0	Ich Offset (V)
ICHFILTER	IQUANT	3	Ich Filter
VCHRANGE	IQUANT	2	Vch Range
VCHRANGEMODE	TOGGLE	F	Vch Auto Range
VCHOFFSETENABLE	TOGGLE	T	Vch Offset Enable
VCHOFFSET	QUANT	0	Vch Offset (V)
VCHFILTER	IQUANT	3	Vch Filter
ACHRANGE	IQUANT	2	Ach Range
ACHOFFSETENABLE	TOGGLE	F	Ach Offset Enable
ACHOFFSET	QUANT	0	Ach Offset (V)
ACHFILTER	IQUANT	3	Ach Filter
IERANGELOWERLIMIT	IQUANT	1	I/E Range Lower Limit
IERANGEMODE	TOGGLE	F	I/E AutoRange
IERANGE	IQUANT	7	I/E Range
POSFEEDENABLE	TOGGLE	F	Positive Feedback IR Comp
POSFEEDRESISTANCE	QUANT	0	Positive Feedback Resistance (ohm)
ACHSELECT	IQUANT	0	Ach Select
CABLEID	IQUANT	14	Cable ID
DCCALDATE	LABEL	2/27/2020	DC Calibration Date
ACCALDATE	LABEL	2/27/2020	AC Calibration Date
THERMOSELECT	IQUANT	1	Thermo Select
FRAMEWORKVERSION	QUANT	6.33	Framework Version
INSTRUMENTVERSION	LABEL	3.50	Instrument Version
ZCURVE	TABLE
	Pt	Time	Freq	Zreal	Zimag	Zsig	Zmod	Zphz	Idc	Vdc	IERange
	#	s	Hz	ohm	ohm	V	ohm	°	A	V	#
	0	2	1000078	1712.4	-1877.425	1	2541.07	-47.63206	2.53863E-006	0.0408794	8
	1	3	794390.6	2102.056	-1964.257	1	2876.968	-43.0591	-2.367448E-006	0.0412458	8
	2	5	630984.4	2515.769	-1999.901	1	3213.83	-38.48281	1.04627E-007	0.0408743	8
	3	6	501234.4	2936.833	-1946.338	1	3523.24	-33.53378	2.819383E-006	0.0400758	8
	4	8	398109.4	3317.661	-1839.78	1	3793.635	-29.01018	8.461575E-007	0.0404872	8
	5	9	316265.6	3641.795	-1672.841	1	4007.626	-24.67146	-5.262595E-007	0.0408057	8
	6	10	251203.1	3888.461	-1488.997	1	4163.801	-20.9532	-2.919676E-006	0.0411546	8
	7	12	199546.9	4109.412	-1327.844	1	4318.615	-17.90682	1.108559E-006	0.0404427	8
	8	13	158578.1	4277.121	-1152.867	1	4429.771	-15.08515	-2.884099E-006	0.041138	8
	9	15	125953.1	4441.911	-910.2102	1	4534.209	-11.5804	1.027759E-006	0.0383191	7
	10	16	100078.1	4510.52	-797.8601	1	4580.542	-10.03121	-5.598007E-008	0.0406194	7
	11	17	79453.13	4582.44	-712.8922	1	4637.561	-8.842648	-4.041392E-008	0.0405926	7
	12	19	63140.62	4642.67	-648.7532	1	4687.778	-7.954836	1.357429E-007	0.0403527	7
	13	20	50203.12	4694.245	-600.6558	1	4732.518	-7.291703	-5.609886E-008	0.0406184	7
	14	21	39890.62	4740.629	-571.2521	1	4774.924	-6.871087	-5.351099E-008	0.040603	7
	15	23	31640.63	4787.203	-555.1667	1	4819.287	-6.61498	2.150887E-010	0.0405677	7
	16	24	25171.88	4831.168	-554.8392	1	4862.924	-6.551475	-1.275856E-008	0.0406669	7
	17	26	20015.62	4875.862	-571.8727	1	4909.284	-6.689458	-8.740805E-009	0.0406027	7
	18	27	15890.62	4922.734	-599.0745	1	4959.053	-6.938518	1.375541E-007	0.0403419	7
	19	28	12609.37	4971.134	-643.9155	1	5012.664	-7.380481	8.991794E-008	0.0404837	7
	20	30	10078.13	5020.003	-703.9286	1	5069.117	-7.982239	-4.554892E-008	0.0406497	7
	21	31	8015.625	5073.313	-783.6752	1	5133.484	-8.781082	-4.109204E-008	0.040575	7
	22	32	6328.125	5132.515	-887.7095	1	5208.718	-9.81268	8.517517E-008	0.0403924	7
	23	34	5015.625	5194.717	-1021.229	1	5294.147	-11.12194	3.047241E-008	0.0406076	7
	24	35	3984.375	5258.45	-1185.334	1	5390.391	-12.70301	2.901911E-008	0.0404204	7
	25	36	3170.956	5328.7	-1387.927	1	5506.485	-14.59904	-1.067065E-008	0.0404913	7
	26	38	2527.573	5406.645	-1635.509	1	5648.601	-16.83055	-4.758349E-008	0.0405656	7
	27	39	1976.103	5503.322	-1974.184	1	5846.705	-19.73423	2.632717E-009	0.0405556	7
	28	40	1577.524	5601.971	-2354.935	1	6076.824	-22.80072	8.391252E-008	0.0404004	7
	29	42	1265.625	5714.987	-2812.706	1	6369.646	-26.20471	-1.127674E-008	0.0404967	7
	30	43	998.264	5864.012	-3416.652	1	6786.763	-30.22711	-5.618016E-008	0.0406188	7
	31	44	796.875	6030.229	-4126.376	1	7306.891	-34.38313	2.915923E-008	0.0406101	7
	32	46	627.7902	6239.398	-5043.166	1	8022.693	-38.94783	-7.672342E-009	0.0404914	7
	33	47	505.5147	6476.268	-6058.76	1	8868.518	-43.09234	-6.125433E-008	0.0406174	7
	34	48	397.9953	6797.512	-7433.629	1	10072.98	-47.55936	1.572769E-009	0.0406084	6
	35	50	315.5048	7179.425	-9071.974	1	11569.13	-51.64243	3.205803E-010	0.0406114	6
	36	51	252.4038	7633.418	-10988.3	1	13379.53	-55.21283	4.707955E-010	0.0406098	6
	37	53	198.6229	8238.854	-13497.85	1	15813.63	-58.60084	1.115196E-009	0.0406029	6
	38	54	158.3615	8948.995	-16392.34	1	18676.01	-61.36874	8.147533E-010	0.0406029	6
	39	55	125.558	9874.57	-20003.31	1	22307.83	-63.7269	5.21891E-010	0.040608	6
	40	57	100.4464	10987.46	-24168.46	1	26548.8	-65.55251	-1.14131E-010	0.0406075	6
	41	58	79.00281	12464.62	-29751.73	1	32257.28	-67.26853	1.714868E-009	0.0406028	6
	42	59	63.3446	14515.83	-36122.86	1	38930.33	-68.10746	1.223811E-009	0.0405987	6
	43	61	49.86702	16304.6	-43689.3	1	46632.55	-69.53471	-3.706981E-010	0.0406051	6
	44	62	39.72458	19567.64	-52927.95	1	56429.25	-69.71048	6.07543E-010	0.0406072	6
	45	63	31.6723	23142.52	-63988.84	1	68045.2	-70.11672	2.457205E-010	0.0406022	6
	46	65	24.93351	28443.68	-77916.01	1	82945.45	-69.9451	1.117938E-009	0.0405984	6
	47	66	19.86229	34606.74	-93885.76	1	100060.8	-69.76587	1.468509E-009	0.0406071	6
	48	68	15.83615	43149.77	-112167.8	1	120181.2	-68.95879	9.052E-010	0.0406014	5
	49	69	12.40079	54945.3	-134513.5	1	145302.7	-67.78125	2.128043E-009	0.0406005	5
	50	70	9.93114	67246.09	-160244.6	1	173782.5	-67.23481	9.496399E-010	0.0406021	5
	51	72	7.944915	81930.51	-187932.6	1	205015.3	-66.44487	-4.402712E-010	0.0406066	5
	52	74	6.317385	103472.3	-221129.2	1	244140.6	-64.92383	7.696976E-011	0.040603	5
	53	76	5.008013	128662.9	-258470.7	1	288723.5	-63.53656	7.608026E-011	0.0406007	5
	54	78	3.945707	158743.6	-301109.1	1	340391.3	-62.20197	4.688626E-010	0.0406142	5
	55	81	3.158693	191594.8	-345993.3	1	395499.6	-61.02439	6.688729E-011	0.0406015	5
	56	84	2.504006	230976.5	-398212.5	1	460351.3	-59.88485	5.888375E-010	0.040611	5
	57	87	1.998082	274280.1	-454765.9	1	531075.9	-58.90483	2.330597E-010	0.0406537	5
	58	90	1.584686	322538.6	-520833.4	1	612616.2	-58.23114	3.194155E-010	0.0406194	5
	59	94	1.266892	377697.9	-593959.1	1	703877.2	-57.54776	1.92776E-010	0.040654	5
	60	98	0.999041	440986.2	-682678	1	812722.6	-57.13895	2.046719E-010	0.0405704	5
