EXPLAIN
TAG	EISPOT
TITLE	LABEL	Potentiostatic EIS	Test &Identifier
DATE	LABEL	1/7/2020	Date
TIME	LABEL	16:23:16	Time
NOTES	NOTES	5	&Notes...
	
	
	
	
	
PSTAT	PSTAT	REF600-11020	Potentiostat
VDC	POTEN	0.00000E+000	T	DC &Voltage (V)
FREQINIT	QUANT	1.00000E+006	Initial Fre&q. (Hz)
FREQFINAL	QUANT	1.00000E+000	Final Fre&q. (Hz)
PTSPERDEC	QUANT	1.00000E+001	Points/&decade
VAC	QUANT	2.50000E+001	AC &Voltage (mV rms)
AREA	QUANT	1.00000E-001	&Area (cm^2)
CONDIT	TWOPARAM	T	5.00000E+000	0.00000E+000	Conditionin&g	Time(s)	E(V)
DELAY	TWOPARAM	T	5.00000E+000	0.00000E+000	Init. De&lay	Time(s)	Stab.(mV/s)
SPEED	SELECTOR	0	&Optimize for:
ZGUESS	QUANT	1.00000E+003	E&stimated Z (ohms)
OCVCURVE	TABLE	19
	Pt	T	Vf	Vm	Ach	Over
	#	s	V vs. Ref.	V	V	bits
	0	0.258333	3.92169E-003	3.92169E-003	6.55213E-004	...........
	1	0.516667	3.91690E-003	3.67116E-003	6.59979E-004	...........
	2	0.775	3.88849E-003	3.48493E-003	6.52380E-004	...........
	3	1.03333	3.81225E-003	3.35195E-003	6.53213E-004	...........
	4	1.29167	3.68606E-003	3.22994E-003	6.52046E-004	...........
	5	1.55	3.53437E-003	3.09792E-003	6.55380E-004	...........
	6	1.80833	3.38330E-003	2.99541E-003	6.51713E-004	...........
	7	2.06667	3.24516E-003	2.91283E-003	6.57113E-004	...........
	8	2.325	3.12270E-003	2.81607E-003	6.57313E-004	...........
	9	2.58333	3.01475E-003	2.73645E-003	6.56246E-004	...........
	10	2.84167	2.91809E-003	2.66663E-003	6.54946E-004	...........
	11	3.1	2.82985E-003	2.59240E-003	6.53246E-004	...........
	12	3.35833	2.74754E-003	2.47804E-003	6.52580E-004	...........
	13	3.61667	2.66419E-003	2.26867E-003	6.55413E-004	...........
	14	3.875	2.56913E-003	2.27823E-003	6.54713E-004	...........
	15	4.13333	2.46073E-003	2.09873E-003	6.51746E-004	...........
	16	4.39167	2.34847E-003	2.02867E-003	6.51546E-004	...........
	17	4.65	2.24012E-003	1.97114E-003	6.50046E-004	...........
	18	4.90833	2.14015E-003	1.91684E-003	6.50680E-004	...........
EOC	QUANT	0.0021401	Open Circuit (V)
PSTATMODEL	IQUANT	4	Pstat Model
PSTATSECTION	LABEL	REF600-11020	Pstat Section
PSTATSERIALNO	LABEL	11020	Pstat Serial Number
CTRLMODE	IQUANT	1	Control Mode
IESTAB	IQUANT	0	I/E Stability
CASPEED	IQUANT	1	Control Amp Speed
CONVENTION	IQUANT	1	Current Convention
ICHRANGE	IQUANT	2	Ich Range
ICHRANGEMODE	TOGGLE	F	Ich Auto Range
ICHOFFSETENABLE	TOGGLE	T	Ich Offset Enable
ICHOFFSET	QUANT	0	Ich Offset (V)
ICHFILTER	IQUANT	3	Ich Filter
VCHRANGE	IQUANT	2	Vch Range
VCHRANGEMODE	TOGGLE	F	Vch Auto Range
VCHOFFSETENABLE	TOGGLE	T	Vch Offset Enable
VCHOFFSET	QUANT	0	Vch Offset (V)
VCHFILTER	IQUANT	3	Vch Filter
ACHRANGE	IQUANT	2	Ach Range
ACHOFFSETENABLE	TOGGLE	F	Ach Offset Enable
ACHOFFSET	QUANT	0	Ach Offset (V)
ACHFILTER	IQUANT	3	Ach Filter
IERANGELOWERLIMIT	IQUANT	1	I/E Range Lower Limit
IERANGEMODE	TOGGLE	F	I/E AutoRange
IERANGE	IQUANT	6	I/E Range
POSFEEDENABLE	TOGGLE	F	Positive Feedback IR Comp
POSFEEDRESISTANCE	QUANT	0	Positive Feedback Resistance (ohm)
ACHSELECT	IQUANT	0	Ach Select
CABLEID	IQUANT	14	Cable ID
DCCALDATE	LABEL	12/22/2019	DC Calibration Date
ACCALDATE	LABEL	12/22/2019	AC Calibration Date
THERMOSELECT	IQUANT	1	Thermo Select
FRAMEWORKVERSION	QUANT	6.33	Framework Version
INSTRUMENTVERSION	LABEL	3.50	Instrument Version
ZCURVE	TABLE
	Pt	Time	Freq	Zreal	Zimag	Zsig	Zmod	Zphz	Idc	Vdc	IERange
	#	s	Hz	ohm	ohm	V	ohm	°	A	V	#
	0	1	1000078	2237.639	-2140.729	1	3096.732	-43.73204	5.363608E-006	0.0034385	8
	1	2	794390.6	2667.041	-2148.613	1	3424.857	-38.8555	4.934424E-006	0.0027053	8
	2	2	630984.4	3106.547	-2145.624	1	3775.492	-34.63198	-2.094162E-006	0.0042701	8
	3	2	501234.4	3512.365	-2056.464	1	4070.104	-30.34866	5.046164E-006	0.003165	8
	4	3	398109.4	3880.063	-1931.332	1	4334.158	-26.46219	6.819647E-006	0.0024594	8
	5	3	316265.6	4215.812	-1777.768	1	4575.318	-22.86469	5.229103E-007	0.0036294	8
	6	3	251203.1	4488.044	-1604.077	1	4766.089	-19.66745	-3.589524E-006	0.004474	8
	7	4	199546.9	4705.906	-1418.533	1	4915.058	-16.77474	-7.205287E-007	0.0043353	8
	8	4	158578.1	4917.411	-1255.018	1	5075.037	-14.31735	1.619593E-007	0.0036314	8
	9	4	125953.1	5080.887	-1013.546	1	5180.993	-11.2814	-9.295325E-007	0.0056642	7
	10	5	100078.1	5175.279	-889.7797	1	5251.211	-9.75542	1.55139E-008	0.0039531	7
	11	5	79453.13	5263.78	-803.4654	1	5324.748	-8.678662	-5.854152E-008	0.0038249	7
	12	5	63140.62	5335.314	-722.5886	1	5384.024	-7.712926	-5.852746E-008	0.003929	7
	13	6	50203.12	5396.428	-662.2804	1	5436.916	-6.996677	1.097455E-007	0.0035915	7
	14	6	39890.62	5451.695	-619.8132	1	5486.815	-6.486212	6.08654E-008	0.003619	7
	15	6	31640.63	5500.773	-594.2112	1	5532.774	-6.165367	2.505889E-009	0.0038595	7
	16	7	25171.88	5549.336	-582.5193	1	5579.826	-5.99245	-4.763378E-008	0.0039381	7
	17	7	20015.62	5593.309	-589.298	1	5624.267	-6.014362	-3.452573E-008	0.0037895	7
	18	7	15890.62	5639.181	-610.0497	1	5672.083	-6.174278	-3.729954E-008	0.0037879	7
	19	8	12609.37	5684.366	-647.8109	1	5721.161	-6.501584	-3.524303E-008	0.0037867	7
	20	8	10078.13	5725.129	-701.2491	1	5767.916	-6.983157	-9.433386E-008	0.0039545	7
	21	8	8015.625	5771.11	-784.2051	1	5824.147	-7.73822	-8.837994E-008	0.0039017	7
	22	8	6328.125	5819.531	-895.6697	1	5888.053	-8.749599	3.743464E-010	0.0037543	7
	23	9	5015.625	5869.447	-1036.578	1	5960.277	-10.01549	-8.855027E-008	0.0039046	7
	24	9	3984.375	5926.643	-1213.142	1	6049.529	-11.56824	-4.906079E-008	0.00394	7
	25	9	3170.956	5985.842	-1436.193	1	6155.726	-13.49203	6.867169E-008	0.0037258	7
	26	10	2527.573	6056.168	-1712.121	1	6293.531	-15.78596	-8.924955E-008	0.0038963	7
	27	10	1976.103	6145.021	-2085.329	1	6489.213	-18.74478	-8.909984E-008	0.0038955	7
	28	10	1577.524	6242.128	-2513.618	1	6729.223	-21.93396	-3.761236E-008	0.0037721	7
	29	11	1265.625	6352.031	-3014.094	1	7030.864	-25.38474	-8.800594E-008	0.0038921	7
	30	11	998.264	6494.674	-3680.338	1	7464.964	-29.53893	-8.016426E-008	0.0040631	7
	31	11	796.875	6659.22	-4458.122	1	8013.742	-33.80096	2.415908E-009	0.0038465	7
	32	12	627.7902	6872.927	-5473.624	1	8786.222	-38.53394	1.170486E-007	0.0036054	7
	33	12	505.5147	7103.189	-6602.882	1	9698.11	-42.90948	1.82526E-008	0.0036727	7
	34	12	397.9953	7416.261	-8117.853	1	10995.47	-47.58598	1.259395E-009	0.0038066	6
	35	13	315.5048	7786.657	-9944.13	1	12630.04	-51.93762	9.745128E-010	0.0038044	6
	36	13	252.4038	8227.447	-12095.56	1	14628.51	-55.7763	9.150335E-010	0.0037978	6
	37	13	198.6229	8821.954	-14937.32	1	17347.92	-59.43398	9.728655E-010	0.0038032	6
	38	14	158.3615	9539.33	-18238.38	1	20582.45	-62.38882	5.044483E-010	0.0037971	6
	39	14	125.558	10493.6	-22392.29	1	24729.13	-64.89101	8.567556E-010	0.0037978	6
	40	14	100.4464	11698.92	-27235.56	1	29641.87	-66.75426	3.698231E-011	0.0037975	6
	41	15	79.00281	13441.85	-33661.67	1	36246.26	-68.23209	1.286226E-010	0.0037952	6
	42	15	63.3446	15164.86	-40693.04	1	43426.91	-69.56135	7.294867E-010	0.0037964	6
	43	15	49.86702	18294.13	-49923.26	1	53169.61	-69.87489	7.78723E-010	0.0037946	6
	44	16	39.72458	22270.11	-60640.48	1	64600.51	-69.83433	6.224542E-010	0.0038013	6
	45	16	31.6723	27244.67	-73209.7	1	78114.87	-69.58747	6.882352E-010	0.0037981	6
	46	16	24.93351	34338.82	-88534.05	1	94960.16	-68.80072	1.084155E-009	0.0037979	6
	47	17	19.86229	42977.54	-105338.7	1	113768.7	-67.80485	7.411445E-010	0.003803	5
	48	17	15.83615	52966.95	-124414.9	1	135220.5	-66.93917	-9.990638E-011	0.0037951	5
	49	17	12.40079	69108.13	-147994.9	1	163335.3	-64.96916	-1.000071E-009	0.0037998	5
	50	18	9.93114	83994.07	-172343.1	1	191721.6	-64.017	7.021363E-010	0.0037963	5
	51	18	7.944915	102756.9	-199185.3	1	224128.9	-62.71143	3.359087E-010	0.0038022	5
	52	19	6.317385	125068.2	-230044.9	1	261844.8	-61.46847	2.383455E-010	0.0037974	5
	53	19	5.008013	151321.6	-265216.6	1	305349.1	-60.29271	3.378131E-010	0.0038086	5
	54	21	3.945707	182299	-306985.1	1	357033.3	-59.29661	-9.44968E-011	0.0037915	5
	55	22	3.158693	215218.9	-349912.3	1	410801.4	-58.40577	2.501725E-010	0.0037771	5
	56	24	2.504006	254731.4	-402057.9	1	475960.8	-57.64292	3.84215E-010	0.0037914	5
	57	25	1.998082	298210.2	-457033.6	1	545718.8	-56.87592	2.271802E-010	0.0037563	5
	58	26	1.584686	351655.8	-525030.2	1	631916.5	-56.18653	1.08775E-010	0.0037445	5
	59	28	1.266892	408935.7	-596335.2	1	723079.6	-55.55969	7.170718E-011	0.0037819	5
	60	31	0.999041	478104.4	-682884.2	1	833615.4	-55.00317	-1.005334E-011	0.003806	5
