EXPLAIN
TAG	EISPOT
TITLE	LABEL	Potentiostatic EIS	Test &Identifier
DATE	LABEL	7/5/2020	Date
TIME	LABEL	16:59:48	Time
NOTES	NOTES	1	&Notes...
	
PSTAT	PSTAT	REF600-11020	Potentiostat
VDC	POTEN	0.00000E+000	T	DC &Voltage (V)
FREQINIT	QUANT	1.00000E+006	Initial Fre&q. (Hz)
FREQFINAL	QUANT	1.00000E+000	Final Fre&q. (Hz)
PTSPERDEC	QUANT	1.00000E+001	Points/&decade
VAC	QUANT	2.50000E+001	AC &Voltage (mV rms)
AREA	QUANT	4.00000E-004	&Area (cm^2)
CONDIT	TWOPARAM	F	5.00000E+000	0.00000E+000	Conditionin&g	Time(s)	E(V)
DELAY	TWOPARAM	F	3.00000E+000	0.00000E+000	Init. De&lay	Time(s)	Stab.(mV/s)
SPEED	SELECTOR	0	&Optimize for:
ZGUESS	QUANT	1.00000E+003	E&stimated Z (ohms)
OCVCURVE	TABLE	39
	Pt	T	Vf	Vm	Ach	Over
	#	s	V vs. Ref.	V	V	bits
	0	0.258333	4.26291E-002	4.26291E-002	5.16883E-004	...........
	1	0.516667	4.26290E-002	4.26217E-002	5.12017E-004	...........
	2	0.775	4.26280E-002	4.26077E-002	5.17383E-004	...........
	3	1.03333	4.26248E-002	4.26022E-002	5.11550E-004	...........
	4	1.29167	4.26190E-002	4.25945E-002	5.12050E-004	...........
	5	1.55	4.26114E-002	4.25889E-002	5.19117E-004	...........
	6	1.80833	4.26034E-002	4.25790E-002	5.15650E-004	...........
	7	2.06667	4.25957E-002	4.25738E-002	5.14583E-004	...........
	8	2.325	4.25883E-002	4.25692E-002	5.16850E-004	...........
	9	2.58333	4.25813E-002	4.25610E-002	5.13583E-004	...........
	10	2.84167	4.25747E-002	4.25524E-002	5.20583E-004	...........
	11	3.1	4.25681E-002	4.25494E-002	5.15917E-004	...........
	12	3.35833	4.25615E-002	4.25451E-002	5.10317E-004	...........
	13	3.61667	4.25552E-002	4.25332E-002	5.15350E-004	...........
	14	3.875	4.25491E-002	4.25255E-002	5.17150E-004	...........
	15	4.13333	4.25423E-002	4.25167E-002	5.23350E-004	...........
	16	4.39167	4.25347E-002	4.25140E-002	5.20450E-004	...........
	17	4.65	4.25269E-002	4.25088E-002	5.19417E-004	...........
	18	4.90833	4.25199E-002	4.25004E-002	5.18650E-004	...........
	19	5.16667	4.25138E-002	4.24971E-002	5.19217E-004	...........
	20	5.425	4.25080E-002	4.24907E-002	5.15650E-004	...........
	21	5.68333	4.25022E-002	4.24794E-002	5.10784E-004	...........
	22	5.94167	4.24961E-002	4.24754E-002	5.15783E-004	...........
	23	6.2	4.24894E-002	4.24680E-002	5.11450E-004	...........
	24	6.45833	4.24824E-002	4.24640E-002	5.13483E-004	...........
	25	6.71667	4.24757E-002	4.24544E-002	5.10950E-004	...........
	26	6.975	4.24692E-002	4.24487E-002	5.11884E-004	...........
	27	7.23333	4.24627E-002	4.24430E-002	5.12883E-004	...........
	28	7.49167	4.24561E-002	4.24393E-002	5.15350E-004	...........
	29	7.75	4.24498E-002	4.24305E-002	5.16250E-004	...........
	30	8.00833	4.24440E-002	4.24301E-002	5.13917E-004	...........
	31	8.26667	4.24385E-002	4.24241E-002	5.18650E-004	...........
	32	8.525	4.24335E-002	4.24151E-002	5.14517E-004	...........
	33	8.78333	4.24284E-002	4.24069E-002	5.12484E-004	...........
	34	9.04167	4.24226E-002	4.24054E-002	5.10350E-004	...........
	35	9.3	4.24163E-002	4.23989E-002	5.09850E-004	...........
	36	9.5583	4.24103E-002	4.23984E-002	5.13383E-004	...........
	37	9.8167	4.24053E-002	4.23990E-002	5.14917E-004	...........
	38	10.075	4.24018E-002	4.24021E-002	5.17383E-004	...........
EOC	QUANT	0.0424018	Open Circuit (V)
PSTATMODEL	IQUANT	4	Pstat Model
PSTATSECTION	LABEL	REF600-11020	Pstat Section
PSTATSERIALNO	LABEL	11020	Pstat Serial Number
CTRLMODE	IQUANT	1	Control Mode
IESTAB	IQUANT	0	I/E Stability
CASPEED	IQUANT	1	Control Amp Speed
CONVENTION	IQUANT	1	Current Convention
ICHRANGE	IQUANT	2	Ich Range
ICHRANGEMODE	TOGGLE	F	Ich Auto Range
ICHOFFSETENABLE	TOGGLE	T	Ich Offset Enable
ICHOFFSET	QUANT	0	Ich Offset (V)
ICHFILTER	IQUANT	3	Ich Filter
VCHRANGE	IQUANT	2	Vch Range
VCHRANGEMODE	TOGGLE	F	Vch Auto Range
VCHOFFSETENABLE	TOGGLE	T	Vch Offset Enable
VCHOFFSET	QUANT	0	Vch Offset (V)
VCHFILTER	IQUANT	3	Vch Filter
ACHRANGE	IQUANT	2	Ach Range
ACHOFFSETENABLE	TOGGLE	F	Ach Offset Enable
ACHOFFSET	QUANT	0	Ach Offset (V)
ACHFILTER	IQUANT	3	Ach Filter
IERANGELOWERLIMIT	IQUANT	1	I/E Range Lower Limit
IERANGEMODE	TOGGLE	F	I/E AutoRange
IERANGE	IQUANT	7	I/E Range
POSFEEDENABLE	TOGGLE	F	Positive Feedback IR Comp
POSFEEDRESISTANCE	QUANT	0	Positive Feedback Resistance (ohm)
ACHSELECT	IQUANT	0	Ach Select
CABLEID	IQUANT	14	Cable ID
DCCALDATE	LABEL	6/26/2020	DC Calibration Date
ACCALDATE	LABEL	6/26/2020	AC Calibration Date
THERMOSELECT	IQUANT	1	Thermo Select
FRAMEWORKVERSION	QUANT	6.33	Framework Version
INSTRUMENTVERSION	LABEL	3.50	Instrument Version
ZCURVE	TABLE
	Pt	Time	Freq	Zreal	Zimag	Zsig	Zmod	Zphz	Idc	Vdc	IERange
	#	s	Hz	ohm	ohm	V	ohm	°	A	V	#
	0	1	1000078	1433.529	-1087.988	1	1799.646	-37.19696	1.017946E-005	0.0430786	8
	1	2	794390.6	1599.39	-1126.621	1	1956.355	-35.16113	-8.961661E-006	0.0452908	8
	2	2	630984.4	1773.143	-1160.428	1	2119.111	-33.20261	1.643598E-006	0.0449636	8
	3	2	501234.4	1928.631	-1198.384	1	2270.625	-31.85538	-3.354698E-007	0.0438583	8
	4	3	398109.4	2100.908	-1241.468	1	2440.299	-30.57968	-1.261677E-006	0.0439393	8
	5	3	316265.6	2270.153	-1294.756	1	2613.424	-29.69779	-2.632425E-007	0.0446831	8
	6	3	251203.1	2440.98	-1354.99	1	2791.842	-29.0347	-6.684089E-006	0.0450028	8
	7	4	199546.9	2623.224	-1420.179	1	2982.987	-28.43052	4.51374E-006	0.0432172	8
	8	4	158578.1	2821.141	-1515.189	1	3202.286	-28.23952	-9.166811E-007	0.0438263	8
	9	4	125953.1	3032.53	-1594.841	1	3426.333	-27.74038	-3.314957E-006	0.0471238	7
	10	5	100078.1	3269.023	-1690.657	1	3680.331	-27.34687	2.996892E-008	0.0426947	7
	11	5	79453.13	3505.956	-1800.312	1	3941.174	-27.18054	4.6415E-007	0.042295	7
	12	5	63140.62	3756.558	-1922.209	1	4219.789	-27.09856	1.202393E-006	0.0431763	7
	13	6	50203.12	4027.951	-2036.532	1	4513.519	-26.82116	3.005801E-008	0.0426758	7
	14	6	39890.62	4318.192	-2172.176	1	4833.749	-26.70373	7.919853E-007	0.0441908	7
	15	6	31640.63	4625.372	-2300.144	1	5165.726	-26.44063	-9.085855E-007	0.0440713	7
	16	7	25171.88	4952.92	-2447.582	1	5524.679	-26.29718	-1.423765E-006	0.045456	7
	17	7	20015.62	5308.229	-2600.254	1	5910.89	-26.09808	-9.853226E-007	0.0460582	7
	18	7	15890.62	5686.772	-2759.921	1	6321.119	-25.88837	-6.384916E-007	0.0459113	7
	19	7	12609.37	6094.722	-2928.799	1	6761.916	-25.66646	1.647811E-007	0.0451244	7
	20	8	10078.13	6514.345	-3095.154	1	7212.258	-25.41375	1.079137E-006	0.0421425	7
	21	8	8015.625	6954.382	-3271.26	1	7685.348	-25.19174	1.204764E-006	0.0431681	7
	22	9	6328.125	7431.121	-3452.83	1	8194.119	-24.92168	1.204261E-006	0.0431661	7
	23	9	5015.625	7887.59	-3629.218	1	8682.471	-24.70798	-6.44112E-007	0.0459083	7
	24	9	3984.375	8380.951	-3840.393	1	9218.945	-24.61861	8.15178E-007	0.0421147	7
	25	10	3170.956	8870.806	-4077.444	1	9763.03	-24.68576	1.23583E-006	0.0423397	7
	26	10	2527.573	9335.392	-4326.495	1	10289.22	-24.8654	5.426151E-007	0.044582	7
	27	10	1976.103	9866.8	-4664.129	1	10913.65	-25.30054	7.909796E-008	0.0449511	6
	28	11	1577.524	10346.81	-5049.338	1	11513.14	-26.0128	1.933534E-008	0.0457933	6
	29	11	1265.625	10798.67	-5501.343	1	12119.24	-26.9964	-2.064334E-007	0.0458714	6
	30	11	998.264	11313.69	-6129.724	1	12867.52	-28.44871	-2.030496E-007	0.0471908	6
	31	11	796.875	11843.22	-6886.333	1	13699.76	-30.17619	1.555487E-007	0.0412327	6
	32	12	627.7902	12410.18	-7870.615	1	14695.55	-32.38313	-2.025742E-007	0.0471889	6
	33	12	505.5147	13022.92	-9023.586	1	15843.66	-34.71811	7.883146E-008	0.0449522	6
	34	12	397.9953	13740.26	-10520.32	1	17305.25	-37.43971	5.752065E-011	0.0441183	6
	35	13	315.5048	14569.99	-12309.33	1	19073.65	-40.19251	4.227372E-010	0.0441181	6
	36	13	252.4038	15502.79	-14378.73	1	21144.37	-42.84571	7.900178E-010	0.0441114	6
	37	13	198.6229	16665.04	-17033.67	1	23830.01	-45.62674	1.872163E-010	0.044114	6
	38	14	158.3615	17957.95	-20065.64	1	26928.01	-48.17271	2.068516E-010	0.0441024	6
	39	14	125.558	19529.23	-23801.66	1	30788.14	-50.63117	6.331498E-010	0.044112	6
	40	14	100.4464	21297.42	-28114.64	1	35270.57	-52.85532	5.272052E-010	0.0441169	6
	41	15	79.00281	23649.34	-33716.01	1	41183.26	-54.95311	-1.891839E-010	0.0441146	6
	42	15	63.3446	26102.97	-39904.05	1	47683.31	-56.80956	6.005988E-010	0.044108	6
	43	15	49.86702	29852.4	-47847.18	1	56396.09	-58.0395	4.167382E-010	0.0441026	6
	44	16	39.72458	34431.82	-56927.47	1	66530.34	-58.83291	-2.687097E-011	0.0441101	6
	45	16	31.6723	40255.73	-67327.5	1	78444.35	-59.12441	3.26761E-010	0.0441119	6
	46	16	24.93351	47914.59	-79862.44	1	93133.33	-59.03776	-3.883135E-010	0.0441049	6
	47	17	19.86229	56972.82	-93167.4	1	109206.5	-58.55379	-1.710941E-009	0.0440991	5
	48	17	15.83615	68328	-107468.3	1	127350.5	-57.55194	-6.042601E-010	0.0440996	5
	49	17	12.40079	82980.34	-125104.3	1	150122.7	-56.4441	-1.639637E-009	0.0441094	5
	50	18	9.93114	97657.9	-141611.6	1	172020.1	-55.40915	-1.354366E-009	0.0440991	5
	51	18	7.944915	113385.8	-159314.9	1	195544.3	-54.56021	1.144227E-009	0.0441035	5
	52	18	6.317385	132931.4	-179783.7	1	223591	-53.52092	-3.908728E-010	0.0441167	5
	53	19	5.008013	152859.7	-202786.2	1	253945.5	-52.99112	-4.832686E-010	0.044087	5
	54	20	3.945707	174511.6	-229631.6	1	288418.1	-52.76649	3.191648E-011	0.0441013	5
	55	21	3.158693	195852.5	-259473.7	1	325092	-52.95425	-2.451384E-010	0.0440906	5
	56	23	2.504006	219195.9	-296246.2	1	368522.2	-53.50185	3.356324E-011	0.0440844	5
	57	24	1.998082	243365.4	-340211.5	1	418294.8	-54.42251	1.112474E-010	0.0441152	5
	58	25	1.584686	270964.1	-393914.4	1	478111	-55.47687	-3.150545E-011	0.0440657	5
	59	27	1.266892	302421.2	-458685.8	1	549409.8	-56.60229	-4.727358E-011	0.0440429	5
	60	30	0.999041	340314	-542579.1	1	640473	-57.90343	-5.466371E-011	0.0440427	5
