EXPLAIN
TAG	EISPOT
TITLE	LABEL	Potentiostatic EIS	Test &Identifier
DATE	LABEL	3/3/2020	Date
TIME	LABEL	16:22:12	Time
NOTES	NOTES	1	&Notes...
	
PSTAT	PSTAT	REF600-11020	Potentiostat
VDC	POTEN	0.00000E+000	T	DC &Voltage (V)
FREQINIT	QUANT	1.00000E+006	Initial Fre&q. (Hz)
FREQFINAL	QUANT	1.00000E+000	Final Fre&q. (Hz)
PTSPERDEC	QUANT	1.00000E+001	Points/&decade
VAC	QUANT	2.50000E+001	AC &Voltage (mV rms)
AREA	QUANT	1.60000E-004	&Area (cm^2)
CONDIT	TWOPARAM	F	1.50000E+001	0.00000E+000	Conditionin&g	Time(s)	E(V)
DELAY	TWOPARAM	F	1.00000E+002	0.00000E+000	Init. De&lay	Time(s)	Stab.(mV/s)
SPEED	SELECTOR	1	&Optimize for:
ZGUESS	QUANT	1.00000E+004	E&stimated Z (ohms)
OCVCURVE	TABLE	39
	Pt	T	Vf	Vm	Ach	Over
	#	s	V vs. Ref.	V	V	bits
	0	0.258333	1.78267E-001	1.78267E-001	5.80230E-004	...........
	1	0.516667	1.78264E-001	1.78128E-001	5.75730E-004	...........
	2	0.775	1.78249E-001	1.78022E-001	5.79297E-004	...........
	3	1.03333	1.78227E-001	1.79068E-001	5.79663E-004	...........
	4	1.29167	1.78278E-001	1.79556E-001	5.75663E-004	...........
	5	1.55	1.78560E-001	1.82866E-001	5.73663E-004	...........
	6	1.80833	1.79224E-001	1.81731E-001	5.78997E-004	...........
	7	2.06667	1.80180E-001	1.81131E-001	5.70630E-004	...........
	8	2.325	1.81002E-001	1.80090E-001	5.76130E-004	...........
	9	2.58333	1.81295E-001	1.80016E-001	5.70597E-004	...........
	10	2.84167	1.81069E-001	1.79977E-001	5.74630E-004	...........
	11	3.1	1.80632E-001	1.80031E-001	5.73730E-004	...........
	12	3.35833	1.80263E-001	1.79876E-001	5.75363E-004	...........
	13	3.61667	1.80049E-001	1.79706E-001	5.71897E-004	...........
	14	3.875	1.79936E-001	1.79806E-001	5.77930E-004	...........
	15	4.13333	1.79854E-001	1.79305E-001	5.73663E-004	...........
	16	4.39167	1.79764E-001	1.79661E-001	5.74930E-004	...........
	17	4.65	1.79676E-001	1.80043E-001	5.81297E-004	...........
	18	4.90833	1.79638E-001	1.79323E-001	5.74463E-004	...........
	19	5.16667	1.79646E-001	1.79474E-001	5.78063E-004	...........
	20	5.425	1.79444E-001	1.69710E-001	5.79963E-004	...........
	21	5.68333	1.78833E-001	1.91437E-001	5.70630E-004	...........
	22	5.94167	1.78629E-001	1.83765E-001	5.74230E-004	...........
	23	6.2	1.79837E-001	1.79824E-001	5.70663E-004	...........
	24	6.45833	1.81582E-001	1.78956E-001	5.68997E-004	...........
	25	6.71667	1.82160E-001	1.78850E-001	5.74597E-004	...........
	26	6.975	1.81370E-001	1.78749E-001	5.76930E-004	...........
	27	7.23333	1.80165E-001	1.78368E-001	5.77430E-004	...........
	28	7.49167	1.79246E-001	1.78531E-001	5.75030E-004	...........
	29	7.75	1.78744E-001	1.78570E-001	5.71297E-004	...........
	30	8.00833	1.78541E-001	1.78572E-001	5.75097E-004	...........
	31	8.26667	1.78501E-001	1.78656E-001	5.74663E-004	...........
	32	8.525	1.78537E-001	1.79017E-001	5.73097E-004	...........
	33	8.78333	1.78618E-001	1.78916E-001	5.82463E-004	...........
	34	9.04167	1.78719E-001	1.78469E-001	5.76497E-004	...........
	35	9.3	1.78784E-001	1.78743E-001	5.77530E-004	...........
	36	9.5583	1.78764E-001	1.78096E-001	5.76230E-004	...........
	37	9.8167	1.78657E-001	1.77898E-001	5.78030E-004	...........
	38	10.075	1.78473E-001	1.77810E-001	5.79763E-004	...........
EOC	QUANT	0.1784725	Open Circuit (V)
PSTATMODEL	IQUANT	4	Pstat Model
PSTATSECTION	LABEL	REF600-11020	Pstat Section
PSTATSERIALNO	LABEL	11020	Pstat Serial Number
CTRLMODE	IQUANT	1	Control Mode
IESTAB	IQUANT	0	I/E Stability
CASPEED	IQUANT	1	Control Amp Speed
CONVENTION	IQUANT	1	Current Convention
ICHRANGE	IQUANT	2	Ich Range
ICHRANGEMODE	TOGGLE	F	Ich Auto Range
ICHOFFSETENABLE	TOGGLE	T	Ich Offset Enable
ICHOFFSET	QUANT	0	Ich Offset (V)
ICHFILTER	IQUANT	3	Ich Filter
VCHRANGE	IQUANT	2	Vch Range
VCHRANGEMODE	TOGGLE	F	Vch Auto Range
VCHOFFSETENABLE	TOGGLE	T	Vch Offset Enable
VCHOFFSET	QUANT	0	Vch Offset (V)
VCHFILTER	IQUANT	3	Vch Filter
ACHRANGE	IQUANT	2	Ach Range
ACHOFFSETENABLE	TOGGLE	F	Ach Offset Enable
ACHOFFSET	QUANT	0	Ach Offset (V)
ACHFILTER	IQUANT	3	Ach Filter
IERANGELOWERLIMIT	IQUANT	1	I/E Range Lower Limit
IERANGEMODE	TOGGLE	F	I/E AutoRange
IERANGE	IQUANT	7	I/E Range
POSFEEDENABLE	TOGGLE	F	Positive Feedback IR Comp
POSFEEDRESISTANCE	QUANT	0	Positive Feedback Resistance (ohm)
ACHSELECT	IQUANT	0	Ach Select
CABLEID	IQUANT	14	Cable ID
DCCALDATE	LABEL	2/27/2020	DC Calibration Date
ACCALDATE	LABEL	2/27/2020	AC Calibration Date
THERMOSELECT	IQUANT	1	Thermo Select
FRAMEWORKVERSION	QUANT	6.33	Framework Version
INSTRUMENTVERSION	LABEL	3.50	Instrument Version
ZCURVE	TABLE
	Pt	Time	Freq	Zreal	Zimag	Zsig	Zmod	Zphz	Idc	Vdc	IERange
	#	s	Hz	ohm	ohm	V	ohm	°	A	V	#
	0	1	1000078	1220.139	-8213.799	1	8303.929	-81.55064	-1.560976E-006	0.1813731	8
	1	3	794390.6	1486.304	-10200.55	1	10308.27	-81.70988	8.441842E-007	0.1804646	8
	2	5	630984.4	1948.87	-12393.07	1	12545.37	-81.06315	-7.545381E-007	0.1804469	8
	3	6	501234.4	2222.778	-15541.94	1	15700.09	-81.86086	-1.201345E-006	0.1805678	8
	4	8	398109.4	2859.078	-19200.12	1	19411.83	-81.53036	6.968277E-007	0.1799936	8
	5	9	316265.6	3351.674	-23625.58	1	23862.14	-81.92554	-1.207854E-006	0.1804354	8
	6	11	251203.1	4326.063	-29118.45	1	29438.05	-81.54951	-4.0852E-007	0.1801948	8
	7	12	199546.9	4987.252	-35984.08	1	36328.04	-82.1093	3.970048E-007	0.1800191	8
	8	14	158578.1	6792.849	-44658.81	1	45172.47	-81.35129	-3.839245E-007	0.180117	8
	9	16	125953.1	9878.33	-54848.19	1	55730.65	-79.7903	9.770717E-008	0.1796172	7
	10	17	100078.1	11449.87	-67102.16	1	68072.02	-80.31668	-5.523578E-008	0.1801193	7
	11	19	79453.13	16973.04	-83719.38	1	85422.59	-78.53934	-3.581485E-008	0.1800118	7
	12	20	63140.62	19761.1	-102396	1	104285.4	-79.07693	3.542966E-008	0.1798791	7
	13	22	50203.12	26190.27	-125335.4	1	128042.6	-78.19723	1.288849E-008	0.1800796	7
	14	24	39890.62	35959.79	-153709.9	1	157860.2	-76.8327	3.381003E-008	0.1799568	7
	15	25	31640.63	48608.89	-187943	1	194127.2	-75.49899	-7.241265E-009	0.179933	7
	16	27	25171.88	65525.87	-227403.5	1	236655.8	-73.92577	-5.403362E-008	0.1800627	7
	17	28	20015.62	86500.28	-276270.7	1	289495.8	-72.61468	9.673657E-008	0.1798481	7
	18	30	15890.62	116373.8	-327252.6	1	347328.5	-70.42418	7.587361E-008	0.1799871	7
	19	31	12609.37	156492.3	-382336.7	1	413123.7	-67.74046	-1.447827E-008	0.1802354	6
	20	33	10078.13	210684	-452148.5	1	498824.6	-65.01627	-3.906174E-009	0.1802319	6
	21	35	8015.625	272739.5	-533372.9	1	599060.6	-62.91713	1.154788E-008	0.1800467	6
	22	36	6328.125	358259	-611475.1	1	708696.9	-59.63426	-8.992999E-010	0.1802138	6
	23	38	5015.625	460852.4	-704008.8	1	841435.3	-56.79077	6.964177E-009	0.1801246	6
	24	40	3984.375	585438.7	-778282.1	1	973890	-53.04882	1.764127E-008	0.1798115	6
	25	41	3170.956	736874	-829086.1	1	1109219	-48.36999	-1.7727E-009	0.1799867	6
	26	43	2527.573	902207.4	-863352	1	1248741	-43.73927	-1.342907E-008	0.1802059	6
	27	45	1976.103	1091494	-878455.5	1	1401086	-38.82779	-8.886558E-009	0.1802762	6
	28	46	1577.524	1234512	-834154.9	1	1489911	-34.04675	-8.486148E-009	0.1801492	6
	29	48	1265.625	1408013	-851241.4	1	1645331	-31.15586	1.509374E-009	0.1799272	5
	30	50	998.264	1558240	-801930.5	1	1752485	-27.2321	-1.376506E-009	0.1802267	5
	31	51	796.875	1687786	-767553.9	1	1854119	-24.45461	-8.891701E-010	0.1802737	5
	32	53	627.7902	1794393	-709226.4	1	1929469	-21.5662	7.910179E-010	0.1798212	5
	33	54	505.5147	1878148	-660934.3	1	1991049	-19.38735	-8.96772E-010	0.1800398	5
	34	55	397.9953	1966349	-626006.8	1	2063592	-17.6594	-1.768916E-010	0.1800788	5
	35	57	315.5048	2046862	-582992.2	1	2128268	-15.89814	3.220438E-010	0.1800835	5
	36	58	252.4038	2092542	-555896.1	1	2165122	-14.87733	5.290808E-011	0.1800837	5
	37	59	198.6229	2193517	-557256.2	1	2263195	-14.25427	1.545662E-010	0.1800827	5
	38	61	158.3615	2256729	-522800.9	1	2316494	-13.04324	2.287701E-010	0.1800783	5
	39	62	125.558	2312902	-519878.1	1	2370610	-12.66801	-1.008991E-010	0.1800801	4
	40	64	100.4464	2383397	-526171.1	1	2440786	-12.44923	-2.118193E-011	0.1800731	4
	41	65	79.00281	2419998	-460493.1	1	2463421	-10.77381	1.272069E-010	0.180076	4
	42	67	63.3446	2571813	16829.24	1	2571868	0.3749225	3.135845E-011	0.1800732	4
	43	69	49.86702	2642986	-542596.1	1	2698108	-11.60143	2.693628E-012	0.180073	4
	44	70	39.72458	2667696	-566820.5	1	2727250	-11.99556	1.00049E-010	0.1800749	4
	45	72	31.6723	2725499	-581083.6	1	2786755	-12.03541	9.814188E-011	0.1800703	4
	46	73	24.93351	2800032	-702187.2	1	2886737	-14.0782	-3.937545E-011	0.1800707	4
	47	75	19.86229	2860874	-790661.8	1	2968122	-15.44924	-1.290749E-010	0.1800746	4
	48	76	15.83615	2866816	-766551.9	1	2967530	-14.96999	-1.636506E-010	0.1800673	4
	49	78	12.40079	3149973	-624105.3	1	3211205	-11.20689	-4.699904E-010	0.1800743	4
	50	79	9.93114	3219051	-977011	1	3364050	-16.88352	9.766412E-011	0.1800662	4
	51	81	7.944915	3422135	-981313	1	3560054	-16.00049	8.276983E-011	0.1800684	4
	52	82	6.317385	3496827	-1135015	1	3676419	-17.98261	1.077616E-011	0.1800576	4
	53	85	5.008013	3638866	-1233458	1	3842234	-18.725	2.335781E-011	0.1800816	4
	54	87	3.945707	3827870	-1342945	1	4056611	-19.33258	-2.845588E-012	0.1800638	4
	55	90	3.158693	4032900	-1469747	1	4292370	-20.02373	6.608085E-011	0.1800867	4
	56	93	2.504006	4237623	-1594776	1	4527776	-20.62319	-3.90999E-011	0.1800705	4
	57	96	1.998082	4463557	-1719166	1	4783187	-21.06449	-1.38129E-011	0.180048	4
	58	99	1.584686	4707594	-1853569	1	5059363	-21.49155	1.281999E-011	0.1801207	4
	59	103	1.266892	4979100	-1995561	1	5364112	-21.84029	-2.987051E-011	0.1800555	4
	60	107	0.999041	5297411	-2141668	1	5713957	-22.01278	8.989803E-011	0.1801009	4
