EXPLAIN
TAG	EISPOT
TITLE	LABEL	Potentiostatic EIS	Test &Identifier
DATE	LABEL	5/26/2020	Date
TIME	LABEL	18:42:11	Time
NOTES	NOTES	1	&Notes...
	
PSTAT	PSTAT	REF600-11020	Potentiostat
VDC	POTEN	0.00000E+000	T	DC &Voltage (V)
FREQINIT	QUANT	1.00000E+006	Initial Fre&q. (Hz)
FREQFINAL	QUANT	1.00000E+000	Final Fre&q. (Hz)
PTSPERDEC	QUANT	1.00000E+001	Points/&decade
VAC	QUANT	2.50000E+001	AC &Voltage (mV rms)
AREA	QUANT	5.00000E-004	&Area (cm^2)
CONDIT	TWOPARAM	F	5.00000E+000	0.00000E+000	Conditionin&g	Time(s)	E(V)
DELAY	TWOPARAM	T	3.00000E+000	0.00000E+000	Init. De&lay	Time(s)	Stab.(mV/s)
SPEED	SELECTOR	0	&Optimize for:
ZGUESS	QUANT	1.00000E+003	E&stimated Z (ohms)
OCVCURVE	TABLE	12
	Pt	T	Vf	Vm	Ach	Over
	#	s	V vs. Ref.	V	V	bits
	0	0.258333	1.18665E-001	1.18665E-001	5.82463E-004	...........
	1	0.516667	1.18671E-001	1.19018E-001	5.79830E-004	...........
	2	0.775	1.18708E-001	1.19102E-001	5.83963E-004	...........
	3	1.03333	1.18796E-001	1.19191E-001	5.82097E-004	...........
	4	1.29167	1.18923E-001	1.19281E-001	5.85930E-004	...........
	5	1.55	1.19055E-001	1.19354E-001	5.81530E-004	...........
	6	1.80833	1.19170E-001	1.19423E-001	5.79563E-004	...........
	7	2.06667	1.19265E-001	1.19480E-001	5.83697E-004	...........
	8	2.325	1.19344E-001	1.19529E-001	5.81597E-004	...........
	9	2.58333	1.19411E-001	1.19578E-001	5.78697E-004	...........
	10	2.84167	1.19471E-001	1.19618E-001	5.83263E-004	...........
	11	3.1	1.19523E-001	1.19660E-001	5.81597E-004	...........
EOC	QUANT	0.1195231	Open Circuit (V)
PSTATMODEL	IQUANT	4	Pstat Model
PSTATSECTION	LABEL	REF600-11020	Pstat Section
PSTATSERIALNO	LABEL	11020	Pstat Serial Number
CTRLMODE	IQUANT	1	Control Mode
IESTAB	IQUANT	0	I/E Stability
CASPEED	IQUANT	1	Control Amp Speed
CONVENTION	IQUANT	1	Current Convention
ICHRANGE	IQUANT	2	Ich Range
ICHRANGEMODE	TOGGLE	F	Ich Auto Range
ICHOFFSETENABLE	TOGGLE	T	Ich Offset Enable
ICHOFFSET	QUANT	0	Ich Offset (V)
ICHFILTER	IQUANT	3	Ich Filter
VCHRANGE	IQUANT	2	Vch Range
VCHRANGEMODE	TOGGLE	F	Vch Auto Range
VCHOFFSETENABLE	TOGGLE	T	Vch Offset Enable
VCHOFFSET	QUANT	0	Vch Offset (V)
VCHFILTER	IQUANT	3	Vch Filter
ACHRANGE	IQUANT	2	Ach Range
ACHOFFSETENABLE	TOGGLE	F	Ach Offset Enable
ACHOFFSET	QUANT	0	Ach Offset (V)
ACHFILTER	IQUANT	3	Ach Filter
IERANGELOWERLIMIT	IQUANT	1	I/E Range Lower Limit
IERANGEMODE	TOGGLE	F	I/E AutoRange
IERANGE	IQUANT	8	I/E Range
POSFEEDENABLE	TOGGLE	F	Positive Feedback IR Comp
POSFEEDRESISTANCE	QUANT	0	Positive Feedback Resistance (ohm)
ACHSELECT	IQUANT	0	Ach Select
CABLEID	IQUANT	14	Cable ID
DCCALDATE	LABEL	2/27/2020	DC Calibration Date
ACCALDATE	LABEL	2/27/2020	AC Calibration Date
THERMOSELECT	IQUANT	1	Thermo Select
FRAMEWORKVERSION	QUANT	6.33	Framework Version
INSTRUMENTVERSION	LABEL	3.50	Instrument Version
ZCURVE	TABLE
	Pt	Time	Freq	Zreal	Zimag	Zsig	Zmod	Zphz	Idc	Vdc	IERange
	#	s	Hz	ohm	ohm	V	ohm	°	A	V	#
	0	1	1000078	1845.69	-2668.25	1	3244.4	-55.3275	4.329727E-008	0.121847	8
	1	1	794390.6	2253.764	-3027.044	1	3773.917	-53.33074	4.47114E-008	0.1215278	8
	2	1	630984.4	2753.674	-3393.438	1	4370.142	-50.94169	1.910114E-008	0.1214005	8
	3	2	501234.4	3343.911	-3754.168	1	5027.477	-48.30792	4.599132E-008	0.1212966	8
	4	2	398109.4	4037.322	-4070.748	1	5733.32	-45.2362	5.2819E-008	0.1212363	8
	5	2	316265.6	4825.209	-4311.473	1	6470.815	-41.78177	4.582989E-008	0.1212065	8
	6	2	251203.1	5665.359	-4449.987	1	7204.073	-38.14868	7.858591E-008	0.1212033	8
	7	3	199546.9	6546.555	-4482.274	1	7933.987	-34.39854	3.83554E-008	0.1211852	8
	8	3	158578.1	7408.297	-4357.332	1	8594.72	-30.46273	4.213154E-008	0.1211845	8
	9	3	125953.1	8307.061	-4042.513	1	9238.461	-25.94921	-5.316414E-012	0.1211478	7
	10	4	100078.1	8975.885	-3746.609	1	9726.44	-22.65606	2.259331E-009	0.1211162	7
	11	4	79453.13	9570.12	-3431.244	1	10166.64	-19.72465	2.489673E-009	0.1211079	7
	12	4	63140.62	10065.42	-3096.085	1	10530.83	-17.0977	3.161796E-009	0.1211146	7
	13	5	50203.12	10467.72	-2771.323	1	10828.36	-14.82882	3.295421E-009	0.1211073	7
	14	5	39890.62	10789.16	-2476.637	1	11069.77	-12.9282	2.664862E-009	0.1211048	7
	15	5	31640.63	11061.37	-2222.666	1	11282.47	-11.36168	2.987087E-009	0.121099	7
	16	6	25171.88	11271.19	-2013.668	1	11449.66	-10.12938	2.802065E-009	0.1210975	7
	17	6	20015.62	11459.44	-1855.802	1	11608.74	-9.198913	3.457148E-009	0.1211017	7
	18	6	15890.62	11615.43	-1740.766	1	11745.15	-8.523293	3.16163E-009	0.1210943	7
	19	7	12609.37	11822.5	-1513.754	1	11919.02	-7.296453	4.48271E-011	0.1211466	6
	20	7	10078.13	11940.01	-1519.157	1	12036.27	-7.250923	2.023493E-010	0.1211535	6
	21	7	8015.625	12056.04	-1566.074	1	12157.33	-7.401251	2.190673E-010	0.1211478	6
	22	8	6328.125	12182.23	-1659.397	1	12294.73	-7.756783	1.671939E-010	0.1211449	6
	23	8	5015.625	12307.19	-1798.63	1	12437.93	-8.314612	1.682767E-010	0.1211455	6
	24	8	3984.375	12438.95	-1987.182	1	12596.68	-9.076578	1.188932E-010	0.1211482	6
	25	8	3170.956	12583.88	-2231.336	1	12780.17	-10.05501	2.076304E-011	0.1211469	6
	26	9	2527.573	12737.1	-2539.094	1	12987.71	-11.27392	-1.320715E-010	0.121142	6
	27	9	1976.103	12913.05	-2961.297	1	13248.25	-12.91608	1.145154E-010	0.1211456	6
	28	9	1577.524	13097.83	-3444.202	1	13543.11	-14.73294	1.60621E-010	0.1211412	6
	29	10	1265.625	13291.93	-4023.915	1	13887.67	-16.84283	-1.914575E-010	0.1211418	6
	30	10	998.264	13528.57	-4797.354	1	14353.98	-19.52497	1.430174E-010	0.1211523	6
	31	10	796.875	13792.09	-5698.993	1	14923.14	-22.45078	-1.916231E-010	0.1211415	6
	32	11	627.7902	14104.47	-6874.903	1	15690.78	-25.98586	1.256464E-010	0.1211489	6
	33	11	505.5147	14444.27	-8184.604	1	16601.95	-29.53733	-1.424699E-011	0.1211459	6
	34	11	397.9953	14890.88	-9950.19	1	17909.35	-33.75113	5.493177E-010	0.121161	6
	35	12	315.5048	15412.93	-12060.41	1	19570.69	-38.04271	5.315091E-010	0.1211554	6
	36	12	252.4038	16017.69	-14532.48	1	21627.75	-42.21673	5.07328E-010	0.1211536	6
	37	12	198.6229	16811.38	-17777.87	1	24467.84	-46.60054	5.651587E-010	0.1211516	6
	38	13	158.3615	17741.38	-21526.21	1	27895.05	-50.50548	4.671978E-010	0.1211499	6
	39	13	125.558	18911.17	-26199.55	1	32311.74	-54.17776	3.925616E-010	0.1211525	6
	40	13	100.4464	20300.04	-31648.36	1	37599.34	-57.32289	5.011296E-010	0.1211479	6
	41	14	79.00281	22148.06	-38788.93	1	44666.74	-60.2741	4.032317E-010	0.121154	6
	42	14	63.3446	24250.72	-46764.13	1	52678.09	-62.58986	3.1993E-010	0.1211489	6
	43	14	49.86702	27084.13	-57273.56	1	63354.64	-64.69097	4.219679E-010	0.121144	6
	44	15	39.72458	30461.9	-69432.4	1	75820.75	-66.31161	4.682613E-010	0.1211541	6
	45	15	31.6723	34711.89	-84123.16	1	91003.41	-67.5774	3.243595E-010	0.1211519	6
	46	15	24.93351	40532.91	-102883.9	1	110580.4	-68.49718	1.667154E-010	0.1211544	5
	47	16	19.86229	47653.46	-124629.5	1	133429.2	-69.07509	-3.608253E-010	0.1211508	5
	48	16	15.83615	57024.17	-150489.7	1	160931.3	-69.24709	6.9351E-010	0.1211498	5
	49	16	12.40079	70324.05	-183891.7	1	196879.8	-69.07211	6.454353E-010	0.1211463	5
	50	16	9.93114	86314.8	-219567.9	1	235924.4	-68.53961	7.994517E-010	0.1211529	5
	51	17	7.944915	106414.2	-261277.4	1	282116.8	-67.83969	5.198478E-010	0.1211494	5
	52	17	6.317385	133249.9	-310505.3	1	337889.2	-66.77395	1.389811E-010	0.1211572	5
	53	18	5.008013	167486.1	-367068.4	1	403473.5	-65.47372	3.022024E-010	0.1211573	5
	54	19	3.945707	211421.4	-432422.7	1	481340.2	-63.94493	2.010774E-010	0.1211472	5
	55	20	3.158693	259897.6	-499698.6	1	563245.4	-62.52066	2.039887E-010	0.1211683	5
	56	21	2.504006	320234.1	-576992.6	1	659901.8	-60.96948	2.305521E-011	0.1211531	5
	57	22	1.998082	385407	-659223.4	1	763619	-59.68782	5.732312E-011	0.1211361	5
	58	24	1.584686	464385.1	-752656.3	1	884389.6	-58.32562	1.298464E-010	0.1211816	5
	59	26	1.266892	549718.4	-857814.3	1	1018840	-57.34678	8.320963E-011	0.1211726	4
	60	28	0.999041	649187.4	-982730	1	1177796	-56.55141	9.883416E-011	0.1211506	4
