EXPLAIN
TAG	EISPOT
TITLE	LABEL	Potentiostatic EIS	Test &Identifier
DATE	LABEL	9/1/2020	Date
TIME	LABEL	21:57:30	Time
NOTES	NOTES	1	&Notes...
	
PSTAT	PSTAT	REF600-11020	Potentiostat
VDC	POTEN	0.00000E+000	T	DC &Voltage (V)
FREQINIT	QUANT	1.00000E+006	Initial Fre&q. (Hz)
FREQFINAL	QUANT	1.00000E+000	Final Fre&q. (Hz)
PTSPERDEC	QUANT	1.00000E+001	Points/&decade
VAC	QUANT	2.50000E+001	AC &Voltage (mV rms)
AREA	QUANT	4.00000E-005	&Area (cm^2)
CONDIT	TWOPARAM	F	5.00000E+000	0.00000E+000	Conditionin&g	Time(s)	E(V)
DELAY	TWOPARAM	F	3.00000E+000	0.00000E+000	Init. De&lay	Time(s)	Stab.(mV/s)
SPEED	SELECTOR	0	&Optimize for:
ZGUESS	QUANT	1.00000E+003	E&stimated Z (ohms)
OCVCURVE	TABLE	39
	Pt	T	Vf	Vm	Ach	Over
	#	s	V vs. Ref.	V	V	bits
	0	0.258333	2.22151E-001	2.22151E-001	5.69892E-004	...........
	1	0.516667	2.22150E-001	2.22131E-001	5.64825E-004	...........
	2	0.775	2.22148E-001	2.22112E-001	5.72092E-004	...........
	3	1.03333	2.22141E-001	2.22092E-001	5.65225E-004	...........
	4	1.29167	2.22129E-001	2.22073E-001	5.73192E-004	...........
	5	1.55	2.22113E-001	2.22060E-001	5.70792E-004	...........
	6	1.80833	2.22095E-001	2.22043E-001	5.68892E-004	...........
	7	2.06667	2.22077E-001	2.22028E-001	5.73758E-004	...........
	8	2.325	2.22061E-001	2.22013E-001	5.72092E-004	...........
	9	2.58333	2.22045E-001	2.21996E-001	5.69425E-004	...........
	10	2.84167	2.22029E-001	2.21981E-001	5.72692E-004	...........
	11	3.1	2.22013E-001	2.21969E-001	5.72925E-004	...........
	12	3.35833	2.21998E-001	2.21958E-001	5.69225E-004	...........
	13	3.61667	2.21984E-001	2.21943E-001	5.72992E-004	...........
	14	3.875	2.21970E-001	2.21930E-001	5.74425E-004	...........
	15	4.13333	2.21957E-001	2.21917E-001	5.75625E-004	...........
	16	4.39167	2.21944E-001	2.21905E-001	5.73292E-004	...........
	17	4.65	2.21931E-001	2.21895E-001	5.77792E-004	...........
	18	4.90833	2.21919E-001	2.21879E-001	5.74025E-004	...........
	19	5.16667	2.21906E-001	2.21868E-001	5.73892E-004	...........
	20	5.425	2.21894E-001	2.21856E-001	5.72858E-004	...........
	21	5.68333	2.21881E-001	2.21842E-001	5.75558E-004	...........
	22	5.94167	2.21869E-001	2.21830E-001	5.72158E-004	...........
	23	6.2	2.21856E-001	2.21821E-001	5.75325E-004	...........
	24	6.45833	2.21844E-001	2.21810E-001	5.74058E-004	...........
	25	6.71667	2.21832E-001	2.21800E-001	5.66425E-004	...........
	26	6.975	2.21821E-001	2.21789E-001	5.69692E-004	...........
	27	7.23333	2.21811E-001	2.21780E-001	5.67325E-004	...........
	28	7.49167	2.21801E-001	2.21765E-001	5.70892E-004	...........
	29	7.75	2.21790E-001	2.21751E-001	5.67092E-004	...........
	30	8.00833	2.21779E-001	2.21740E-001	5.68758E-004	...........
	31	8.26667	2.21766E-001	2.21730E-001	5.66159E-004	...........
	32	8.525	2.21754E-001	2.21721E-001	5.70892E-004	...........
	33	8.78333	2.21742E-001	2.21710E-001	5.80892E-004	...........
	34	9.04167	2.21731E-001	2.21704E-001	5.83358E-004	...........
	35	9.3	2.21722E-001	2.21697E-001	5.76525E-004	...........
	36	9.5583	2.21713E-001	2.21690E-001	5.69158E-004	...........
	37	9.8167	2.21705E-001	2.21679E-001	5.76192E-004	...........
	38	10.075	2.21697E-001	2.21673E-001	5.70192E-004	...........
EOC	QUANT	0.221697	Open Circuit (V)
PSTATMODEL	IQUANT	4	Pstat Model
PSTATSECTION	LABEL	REF600-11020	Pstat Section
PSTATSERIALNO	LABEL	11020	Pstat Serial Number
CTRLMODE	IQUANT	1	Control Mode
IESTAB	IQUANT	0	I/E Stability
CASPEED	IQUANT	1	Control Amp Speed
CONVENTION	IQUANT	1	Current Convention
ICHRANGE	IQUANT	2	Ich Range
ICHRANGEMODE	TOGGLE	F	Ich Auto Range
ICHOFFSETENABLE	TOGGLE	T	Ich Offset Enable
ICHOFFSET	QUANT	0	Ich Offset (V)
ICHFILTER	IQUANT	3	Ich Filter
VCHRANGE	IQUANT	2	Vch Range
VCHRANGEMODE	TOGGLE	F	Vch Auto Range
VCHOFFSETENABLE	TOGGLE	T	Vch Offset Enable
VCHOFFSET	QUANT	0	Vch Offset (V)
VCHFILTER	IQUANT	3	Vch Filter
ACHRANGE	IQUANT	2	Ach Range
ACHOFFSETENABLE	TOGGLE	F	Ach Offset Enable
ACHOFFSET	QUANT	0	Ach Offset (V)
ACHFILTER	IQUANT	3	Ach Filter
IERANGELOWERLIMIT	IQUANT	1	I/E Range Lower Limit
IERANGEMODE	TOGGLE	F	I/E AutoRange
IERANGE	IQUANT	8	I/E Range
POSFEEDENABLE	TOGGLE	F	Positive Feedback IR Comp
POSFEEDRESISTANCE	QUANT	0	Positive Feedback Resistance (ohm)
ACHSELECT	IQUANT	0	Ach Select
CABLEID	IQUANT	14	Cable ID
DCCALDATE	LABEL	9/1/2020	DC Calibration Date
ACCALDATE	LABEL	9/1/2020	AC Calibration Date
THERMOSELECT	IQUANT	1	Thermo Select
FRAMEWORKVERSION	QUANT	6.33	Framework Version
INSTRUMENTVERSION	LABEL	3.50	Instrument Version
ZCURVE	TABLE
	Pt	Time	Freq	Zreal	Zimag	Zsig	Zmod	Zphz	Idc	Vdc	IERange
	#	s	Hz	ohm	ohm	V	ohm	°	A	V	#
	0	2	1000078	1647.061	-2530.488	1	3019.301	-56.94043	5.597933E-008	0.2239731	8
	1	2	794390.6	2032.148	-2877.636	1	3522.842	-54.77077	7.918416E-008	0.2236275	8
	2	2	630984.4	2488.435	-3214.693	1	4065.288	-52.2572	7.680696E-008	0.2234749	8
	3	2	501234.4	2999.515	-3536.931	1	4637.561	-49.7002	6.737713E-008	0.2233705	8
	4	3	398109.4	3563.841	-3838.28	1	5237.686	-47.12331	6.402897E-008	0.2233134	8
	5	3	316265.6	4148.571	-4113.205	1	5842.011	-44.75473	1.874885E-008	0.2232897	8
	6	3	251203.1	4754.731	-4396.545	1	6475.884	-42.75856	7.25258E-008	0.2232651	8
	7	4	199546.9	5386.867	-4679.176	1	7135.336	-40.97845	5.739008E-008	0.2232592	8
	8	4	158578.1	6012.143	-4993.389	1	7815.356	-39.71135	6.83342E-008	0.2232509	8
	9	4	125953.1	6734.189	-5308.438	1	8574.895	-38.24807	1.232757E-009	0.2232528	7
	10	5	100078.1	7416.962	-5719.779	1	9366.28	-37.63853	2.663203E-009	0.2232288	7
	11	5	79453.13	8154.518	-6204.633	1	10246.64	-37.26688	2.754623E-009	0.2232268	7
	12	5	63140.62	8962.834	-6765.766	1	11229.78	-37.04802	2.2605E-009	0.2232142	7
	13	6	50203.12	9847.52	-7409.631	1	12323.81	-36.95913	3.198437E-009	0.2232174	7
	14	6	39890.62	10857.39	-8140.141	1	13570	-36.86009	2.500063E-009	0.2232074	7
	15	6	31640.63	12033.35	-8949.882	1	14996.73	-36.64025	2.603045E-009	0.2232095	7
	16	7	25171.88	13373.38	-9794.2	1	16576.29	-36.21775	4.019012E-009	0.2232147	7
	17	7	20015.62	14926.24	-10734.84	1	18385.58	-35.72341	3.445029E-009	0.2232145	7
	18	7	15890.62	16784.74	-11611.42	1	20409.62	-34.67486	2.600535E-009	0.2232084	7
	19	8	12609.37	19073.21	-12070.98	1	22572.02	-32.32876	8.840153E-010	0.2232119	6
	20	8	10078.13	21311.11	-12579.57	1	24746.89	-30.5526	5.406963E-010	0.2232113	6
	21	8	8015.625	23715.49	-12768.51	1	26934.35	-28.2982	6.366406E-010	0.2232133	6
	22	8	6328.125	26261.86	-12699.77	1	29171.38	-25.80758	9.666823E-010	0.2232032	6
	23	9	5015.625	28459.09	-12050.18	1	30905.12	-22.94883	5.483504E-010	0.2232035	6
	24	9	3984.375	30352.01	-11237.13	1	32365.38	-20.3159	5.205358E-010	0.2232053	6
	25	9	3170.956	32140.13	-10532.64	1	33821.96	-18.14449	9.618423E-010	0.2232065	6
	26	10	2527.573	33352.77	-9674.53	1	34727.56	-16.17568	1.337662E-010	0.2231999	6
	27	10	1976.103	34698.67	-9091.914	1	35870.05	-14.68283	3.081632E-010	0.2232021	6
	28	10	1577.524	35236.36	-8536.442	1	36255.65	-13.61823	5.680394E-010	0.2232069	6
	29	11	1265.625	35864.73	-8343.977	1	36822.56	-13.09696	6.169519E-010	0.2232051	6
	30	11	998.264	36509.88	-8436.871	1	37472.02	-13.01177	6.042102E-010	0.2232101	6
	31	11	796.875	37089.78	-8827.278	1	38125.75	-13.3872	5.311594E-010	0.2232032	6
	32	12	627.7902	37701.45	-9572.92	1	38897.82	-14.24711	6.47442E-010	0.2232054	6
	33	12	505.5147	38369.42	-10588.61	1	39803.65	-15.42763	8.351065E-010	0.2232048	6
	34	12	397.9953	38724.48	-12064.29	1	40560.23	-17.30399	5.988172E-010	0.2232219	6
	35	13	315.5048	39761.93	-14017.46	1	42160.41	-19.41932	5.813839E-010	0.2232202	6
	36	13	252.4038	40771.96	-16352.69	1	43929.07	-21.85458	5.950175E-010	0.223216	6
	37	13	198.6229	41586.11	-19445.86	1	45908.02	-25.06101	5.028182E-010	0.2232177	6
	38	14	158.3615	43065.09	-23072.15	1	48856.18	-28.18021	5.876729E-010	0.2232094	6
	39	14	125.558	45280.96	-27548.12	1	53002.49	-31.31558	4.333308E-010	0.223217	6
	40	14	100.4464	47057.23	-32706.2	1	57306.88	-34.80047	7.256268E-010	0.2232108	6
	41	15	79.00281	50382.11	-39314.65	1	63906.17	-37.96597	5.099011E-010	0.2232169	6
	42	15	63.3446	54138.66	-46461.32	1	71341.77	-40.6359	7.27199E-010	0.2232128	6
	43	15	49.86702	58652.61	-55514.27	1	80758.67	-43.42539	5.381982E-010	0.2232081	6
	44	16	39.72458	64462.7	-65482.01	1	91887.62	-45.44943	6.179176E-010	0.2232103	6
	45	16	31.6723	71455.3	-76748.17	1	104862.5	-47.04537	3.789827E-010	0.2232028	5
	46	16	24.93351	80703.21	-90296.46	1	121105.2	-48.21098	5.588755E-010	0.2232019	5
	47	17	19.86229	91654.24	-104750.1	1	139187.2	-48.81473	1.997622E-009	0.2232086	5
	48	17	15.83615	104849.8	-120443	1	159687.2	-48.95931	-1.0939E-009	0.2232	5
	49	17	12.40079	121718.8	-138506.9	1	184389.9	-48.69125	-4.096557E-010	0.2232008	5
	50	17	9.93114	139445.6	-155860	1	209134.9	-48.18148	-1.050266E-009	0.2232035	5
	51	18	7.944915	158984.5	-174857.2	1	236328.4	-47.7221	-7.856388E-010	0.2232081	5
	52	18	6.317385	181588.1	-195349.8	1	266713	-47.09089	1.061559E-010	0.2232015	5
	53	19	5.008013	206663.7	-217963.3	1	300363	-46.52432	-3.715905E-010	0.2231957	5
	54	20	3.945707	234686	-244089.8	1	338611	-46.12522	-4.016303E-010	0.223204	5
	55	21	3.158693	262739.5	-271057.3	1	377497.2	-45.89273	-2.361227E-010	0.223184	5
	56	22	2.504006	295228.8	-303272.4	1	423242.5	-45.76998	1.809913E-010	0.223187	5
	57	23	1.998082	328616.9	-338636	1	471872.2	-45.86025	-1.953392E-011	0.2231803	5
	58	25	1.584686	368713.4	-380524	1	529856.6	-45.9031	-2.052079E-010	0.2231396	5
	59	27	1.266892	410134.3	-427871.7	1	592692.4	-46.21255	-2.619384E-010	0.2231581	5
	60	29	0.999041	458206.3	-484449.6	1	666816.6	-46.59468	-3.022761E-010	0.2231806	5
