EXPLAIN
TAG	EISPOT
TITLE	LABEL	Potentiostatic EIS	Test &Identifier
DATE	LABEL	2/18/2020	Date
TIME	LABEL	17:04:45	Time
NOTES	NOTES	1	&Notes...
	
PSTAT	PSTAT	REF600-11020	Potentiostat
VDC	POTEN	0.00000E+000	T	DC &Voltage (V)
FREQINIT	QUANT	1.00000E+006	Initial Fre&q. (Hz)
FREQFINAL	QUANT	1.00000E+000	Final Fre&q. (Hz)
PTSPERDEC	QUANT	1.00000E+001	Points/&decade
VAC	QUANT	2.50000E+001	AC &Voltage (mV rms)
AREA	QUANT	1.60000E-004	&Area (cm^2)
CONDIT	TWOPARAM	F	1.50000E+001	0.00000E+000	Conditionin&g	Time(s)	E(V)
DELAY	TWOPARAM	F	1.00000E+002	0.00000E+000	Init. De&lay	Time(s)	Stab.(mV/s)
SPEED	SELECTOR	1	&Optimize for:
ZGUESS	QUANT	1.00000E+003	E&stimated Z (ohms)
OCVCURVE	TABLE	39
	Pt	T	Vf	Vm	Ach	Over
	#	s	V vs. Ref.	V	V	bits
	0	0.258333	2.25877E-002	2.25877E-002	5.71204E-004	...........
	1	0.516667	2.25863E-002	2.25127E-002	5.67971E-004	...........
	2	0.775	2.25704E-002	2.20727E-002	5.68138E-004	...........
	3	1.03333	2.24770E-002	2.03327E-002	5.67971E-004	...........
	4	1.29167	2.22280E-002	2.25011E-002	5.60738E-004	...........
	5	1.55	2.19339E-002	2.31993E-002	5.68771E-004	...........
	6	1.80833	2.18861E-002	2.29894E-002	5.67604E-004	...........
	7	2.06667	2.21748E-002	2.29353E-002	5.71371E-004	...........
	8	2.325	2.25676E-002	2.28038E-002	5.71871E-004	...........
	9	2.58333	2.28252E-002	2.27428E-002	5.70304E-004	...........
	10	2.84167	2.28965E-002	2.25570E-002	5.65671E-004	...........
	11	3.1	2.28406E-002	2.23620E-002	5.67571E-004	...........
	12	3.35833	2.27083E-002	2.16984E-002	5.67004E-004	...........
	13	3.61667	2.25228E-002	2.26013E-002	5.66438E-004	...........
	14	3.875	2.23478E-002	2.24281E-002	5.66771E-004	...........
	15	4.13333	2.22744E-002	2.24536E-002	5.68671E-004	...........
	16	4.39167	2.23088E-002	2.24124E-002	5.69538E-004	...........
	17	4.65	2.23746E-002	2.24045E-002	5.68604E-004	...........
	18	4.90833	2.24144E-002	2.23949E-002	5.66704E-004	...........
	19	5.16667	2.24222E-002	2.23848E-002	5.70104E-004	...........
	20	5.425	2.24129E-002	2.23727E-002	5.65704E-004	...........
	21	5.68333	2.23989E-002	2.23523E-002	5.65804E-004	...........
	22	5.94167	2.23847E-002	2.23374E-002	5.64471E-004	...........
	23	6.2	2.23703E-002	2.23302E-002	5.67304E-004	...........
	24	6.45833	2.23561E-002	2.23291E-002	5.71771E-004	...........
	25	6.71667	2.23437E-002	2.23207E-002	5.69204E-004	...........
	26	6.975	2.23342E-002	2.23076E-002	5.70804E-004	...........
	27	7.23333	2.23264E-002	2.23034E-002	5.72538E-004	...........
	28	7.49167	2.23190E-002	2.23020E-002	5.69171E-004	...........
	29	7.75	2.23119E-002	2.22948E-002	5.63504E-004	...........
	30	8.00833	2.23055E-002	2.22776E-002	5.67771E-004	...........
	31	8.26667	2.22991E-002	2.22802E-002	5.64204E-004	...........
	32	8.525	2.22921E-002	2.22761E-002	5.67971E-004	...........
	33	8.78333	2.22853E-002	2.22644E-002	5.68804E-004	...........
	34	9.04167	2.22792E-002	2.22585E-002	5.65371E-004	...........
	35	9.3	2.22728E-002	2.22400E-002	5.64504E-004	...........
	36	9.5583	2.22651E-002	2.22442E-002	5.69404E-004	...........
	37	9.8167	2.22566E-002	2.22353E-002	5.64538E-004	...........
	38	10.075	2.22483E-002	2.22125E-002	5.65438E-004	...........
EOC	QUANT	0.0222483	Open Circuit (V)
PSTATMODEL	IQUANT	4	Pstat Model
PSTATSECTION	LABEL	REF600-11020	Pstat Section
PSTATSERIALNO	LABEL	11020	Pstat Serial Number
CTRLMODE	IQUANT	1	Control Mode
IESTAB	IQUANT	0	I/E Stability
CASPEED	IQUANT	1	Control Amp Speed
CONVENTION	IQUANT	1	Current Convention
ICHRANGE	IQUANT	2	Ich Range
ICHRANGEMODE	TOGGLE	F	Ich Auto Range
ICHOFFSETENABLE	TOGGLE	T	Ich Offset Enable
ICHOFFSET	QUANT	0	Ich Offset (V)
ICHFILTER	IQUANT	3	Ich Filter
VCHRANGE	IQUANT	2	Vch Range
VCHRANGEMODE	TOGGLE	F	Vch Auto Range
VCHOFFSETENABLE	TOGGLE	T	Vch Offset Enable
VCHOFFSET	QUANT	0	Vch Offset (V)
VCHFILTER	IQUANT	3	Vch Filter
ACHRANGE	IQUANT	2	Ach Range
ACHOFFSETENABLE	TOGGLE	F	Ach Offset Enable
ACHOFFSET	QUANT	0	Ach Offset (V)
ACHFILTER	IQUANT	3	Ach Filter
IERANGELOWERLIMIT	IQUANT	1	I/E Range Lower Limit
IERANGEMODE	TOGGLE	F	I/E AutoRange
IERANGE	IQUANT	7	I/E Range
POSFEEDENABLE	TOGGLE	F	Positive Feedback IR Comp
POSFEEDRESISTANCE	QUANT	0	Positive Feedback Resistance (ohm)
ACHSELECT	IQUANT	0	Ach Select
CABLEID	IQUANT	14	Cable ID
DCCALDATE	LABEL	1/27/2020	DC Calibration Date
ACCALDATE	LABEL	1/27/2020	AC Calibration Date
THERMOSELECT	IQUANT	1	Thermo Select
FRAMEWORKVERSION	QUANT	6.33	Framework Version
INSTRUMENTVERSION	LABEL	3.50	Instrument Version
ZCURVE	TABLE
	Pt	Time	Freq	Zreal	Zimag	Zsig	Zmod	Zphz	Idc	Vdc	IERange
	#	s	Hz	ohm	ohm	V	ohm	°	A	V	#
	0	1	1000078	1998.475	-1853.983	1	2726.014	-42.85204	2.994084E-007	0.0245664	8
	1	2	794390.6	2380.999	-1908.048	1	3051.197	-38.70745	-3.48138E-006	0.024852	8
	2	4	630984.4	2758.109	-1897.703	1	3347.901	-34.52971	2.741651E-006	0.023634	8
	3	5	501234.4	3123.478	-1827.84	1	3618.994	-30.33591	2.640256E-007	0.0237297	8
	4	6	398109.4	3450.744	-1720.466	1	3855.857	-26.49985	-1.267825E-006	0.0241676	8
	5	8	316265.6	3723.845	-1564.338	1	4039.082	-22.78663	-6.955405E-007	0.0239669	8
	6	9	251203.1	3994.786	-1417.097	1	4238.689	-19.53146	-1.049643E-006	0.0241185	8
	7	10	199546.9	4190.116	-1270.069	1	4378.373	-16.86262	3.737115E-007	0.0237885	8
	8	12	158578.1	4353.45	-1096.598	1	4489.438	-14.13821	-8.654578E-007	0.0241419	8
	9	13	125953.1	4483.593	-937.3104	1	4580.52	-11.80782	-6.44707E-007	0.0255602	7
	10	14	100078.1	4581.746	-827.8829	1	4655.941	-10.24235	-2.885942E-008	0.0238277	7
	11	16	79453.13	4659.862	-736.7115	1	4717.739	-8.983948	-8.206596E-009	0.0238398	7
	12	17	63140.62	4722.453	-660.7777	1	4768.458	-7.965259	2.251635E-008	0.023727	7
	13	19	50203.12	4775.276	-605.0447	1	4813.455	-7.221103	3.72695E-010	0.0237497	7
	14	20	39890.62	4820.736	-564.8871	1	4853.719	-6.683361	6.762092E-008	0.0236597	7
	15	21	31640.63	4862.785	-543.1044	1	4893.019	-6.37272	2.176465E-008	0.0237109	7
	16	23	25171.88	4900.996	-536.8271	1	4930.309	-6.250934	1.055611E-009	0.023746	7
	17	24	20015.62	4938.213	-547.7721	1	4968.501	-6.329668	-1.09351E-008	0.023897	7
	18	25	15890.62	4975.224	-575.308	1	5008.376	-6.596078	1.022647E-007	0.0236526	7
	19	27	12609.37	5012.287	-621.8383	1	5050.713	-7.072137	1.031992E-007	0.0236496	7
	20	28	10078.13	5051.418	-686.5476	1	5097.859	-7.739752	2.476855E-010	0.0238138	7
	21	30	8015.625	5094.356	-775.0765	1	5152.98	-8.650876	1.036821E-007	0.0236453	7
	22	31	6328.125	5140.717	-895.4164	1	5218.117	-9.88072	6.323489E-009	0.0238056	7
	23	32	5015.625	5191.016	-1044.692	1	5295.095	-11.37878	6.644265E-008	0.0236534	7
	24	34	3984.375	5247.766	-1232.957	1	5390.662	-13.22178	-8.908249E-009	0.0238877	7
	25	35	3170.956	5314.1	-1464.461	1	5512.196	-15.40716	-2.085832E-008	0.0238732	7
	26	36	2527.573	5388.484	-1749.785	1	5665.466	-17.99	-2.054266E-008	0.0238724	7
	27	38	1976.103	5485.569	-2129.686	1	5884.474	-21.21792	-2.277108E-008	0.0238109	7
	28	39	1577.524	5590.049	-2558.938	1	6147.911	-24.59672	-2.698103E-008	0.0237951	7
	29	40	1265.625	5716.065	-3076.779	1	6491.531	-28.29219	5.610084E-008	0.0237636	7
	30	42	998.264	5875.304	-3753.348	1	6971.859	-32.57185	-8.817883E-011	0.0238048	7
	31	43	796.875	6061.956	-4536.568	1	7571.509	-36.80997	2.388068E-008	0.0237044	7
	32	45	627.7902	6301.931	-5557.033	1	8402.08	-41.4058	-8.800983E-009	0.0237697	7
	33	46	505.5147	6566.989	-6684.082	1	9370.288	-45.50628	3.861893E-008	0.023677	7
	34	47	397.9953	6927.896	-8197.308	1	10732.73	-49.79742	1.239845E-009	0.0237923	6
	35	49	315.5048	7363.458	-10001.14	1	12419.48	-53.63721	1.164669E-009	0.0237966	6
	36	50	252.4038	7881.403	-12109.38	1	14448.31	-56.94188	1.344551E-009	0.0237903	6
	37	51	198.6229	8577.487	-14872.05	1	17168.32	-60.0257	1.51508E-009	0.0237936	6
	38	53	158.3615	9412.266	-18062.87	1	20368.06	-62.47672	1.332046E-009	0.0237895	6
	39	54	125.558	10507.04	-22023.99	1	24401.93	-64.49547	1.499598E-009	0.0237958	6
	40	56	100.4464	11823.8	-26640.19	1	29146.21	-66.06676	9.989612E-010	0.0237925	6
	41	57	79.00281	13720.68	-32589.11	1	35359.68	-67.16791	8.73131E-010	0.0237917	6
	42	58	63.3446	16156.78	-39248.13	1	42443.58	-67.62512	9.535578E-010	0.023789	6
	43	60	49.86702	18846.15	-47976	1	51544.87	-68.55389	1.139442E-009	0.0237822	6
	44	61	39.72458	22753.83	-57630.6	1	61959.85	-68.4548	1.118344E-009	0.0237884	6
	45	63	31.6723	27610.48	-68983.52	1	74303.87	-68.18637	8.438188E-010	0.0237895	6
	46	64	24.93351	34164.59	-83298.9	1	90032.91	-67.69928	1.28922E-009	0.0237855	6
	47	65	19.86229	42116.21	-99155.7	1	107729.4	-66.98672	-2.529687E-010	0.0237835	5
	48	67	15.83615	53056.53	-117589.1	1	129004.6	-65.71497	-6.330991E-010	0.0237843	5
	49	68	12.40079	66415.42	-140713.3	1	155599.6	-64.7331	-6.839869E-010	0.0237912	5
	50	70	9.93114	82160.61	-163055.5	1	182585.5	-63.25732	9.36349E-010	0.0237869	5
	51	71	7.944915	101617.9	-189342.3	1	214887.7	-61.77805	-4.015339E-011	0.0237835	5
	52	73	6.317385	125900.9	-217611.7	1	251407.8	-59.94815	5.680927E-010	0.0237785	5
	53	75	5.008013	155277.8	-248700	1	293194.3	-58.02107	2.946397E-010	0.0237962	5
	54	77	3.945707	190154.5	-282304.3	1	340374	-56.03658	-2.146398E-010	0.0237833	5
	55	80	3.158693	226638.3	-315140.7	1	388173.4	-54.27762	4.681525E-010	0.0238011	5
	56	83	2.504006	268521.2	-351321.8	1	442188.4	-52.6087	-3.491427E-010	0.0237883	5
	57	86	1.998082	311602	-388124.9	1	497731.6	-51.24113	-9.770711E-011	0.0237624	5
	58	89	1.584686	357463.6	-428685.4	1	558167.9	-50.17662	7.87184E-011	0.0238301	5
	59	93	1.266892	403023.3	-475952.6	1	623665.5	-49.743	-1.070842E-010	0.0237758	5
	60	97	0.999041	453667.8	-533635.9	1	700415.4	-49.63064	4.480254E-010	0.0238153	5
