EXPLAIN
TAG	EISPOT
TITLE	LABEL	Potentiostatic EIS	Test &Identifier
DATE	LABEL	3/20/2020	Date
TIME	LABEL	15:20:29	Time
NOTES	NOTES	1	&Notes...
	
PSTAT	PSTAT	REF600-11020	Potentiostat
VDC	POTEN	0.00000E+000	T	DC &Voltage (V)
FREQINIT	QUANT	1.00000E+006	Initial Fre&q. (Hz)
FREQFINAL	QUANT	1.00000E+000	Final Fre&q. (Hz)
PTSPERDEC	QUANT	1.00000E+001	Points/&decade
VAC	QUANT	2.50000E+001	AC &Voltage (mV rms)
AREA	QUANT	4.00000E-004	&Area (cm^2)
CONDIT	TWOPARAM	F	5.00000E+000	0.00000E+000	Conditionin&g	Time(s)	E(V)
DELAY	TWOPARAM	T	3.00000E+000	0.00000E+000	Init. De&lay	Time(s)	Stab.(mV/s)
SPEED	SELECTOR	0	&Optimize for:
ZGUESS	QUANT	1.00000E+003	E&stimated Z (ohms)
OCVCURVE	TABLE	12
	Pt	T	Vf	Vm	Ach	Over
	#	s	V vs. Ref.	V	V	bits
	0	0.258333	1.48708E-001	1.48708E-001	5.18464E-004	...........
	1	0.516667	1.48709E-001	1.48768E-001	5.25264E-004	...........
	2	0.775	1.48717E-001	1.48868E-001	5.28064E-004	...........
	3	1.03333	1.48742E-001	1.48972E-001	5.24131E-004	...........
	4	1.29167	1.48794E-001	1.49114E-001	5.24864E-004	...........
	5	1.55	1.48874E-001	1.49203E-001	5.31397E-004	...........
	6	1.80833	1.48975E-001	1.49334E-001	5.28431E-004	...........
	7	2.06667	1.49087E-001	1.49412E-001	5.21397E-004	...........
	8	2.325	1.49200E-001	1.49535E-001	5.20498E-004	...........
	9	2.58333	1.49309E-001	1.49600E-001	5.32997E-004	...........
	10	2.84167	1.49412E-001	1.49682E-001	5.29131E-004	...........
	11	3.1	1.49507E-001	1.49767E-001	5.20264E-004	...........
EOC	QUANT	0.1495068	Open Circuit (V)
PSTATMODEL	IQUANT	4	Pstat Model
PSTATSECTION	LABEL	REF600-11020	Pstat Section
PSTATSERIALNO	LABEL	11020	Pstat Serial Number
CTRLMODE	IQUANT	1	Control Mode
IESTAB	IQUANT	0	I/E Stability
CASPEED	IQUANT	1	Control Amp Speed
CONVENTION	IQUANT	1	Current Convention
ICHRANGE	IQUANT	2	Ich Range
ICHRANGEMODE	TOGGLE	F	Ich Auto Range
ICHOFFSETENABLE	TOGGLE	T	Ich Offset Enable
ICHOFFSET	QUANT	0	Ich Offset (V)
ICHFILTER	IQUANT	3	Ich Filter
VCHRANGE	IQUANT	2	Vch Range
VCHRANGEMODE	TOGGLE	F	Vch Auto Range
VCHOFFSETENABLE	TOGGLE	T	Vch Offset Enable
VCHOFFSET	QUANT	0	Vch Offset (V)
VCHFILTER	IQUANT	3	Vch Filter
ACHRANGE	IQUANT	2	Ach Range
ACHOFFSETENABLE	TOGGLE	F	Ach Offset Enable
ACHOFFSET	QUANT	0	Ach Offset (V)
ACHFILTER	IQUANT	3	Ach Filter
IERANGELOWERLIMIT	IQUANT	1	I/E Range Lower Limit
IERANGEMODE	TOGGLE	F	I/E AutoRange
IERANGE	IQUANT	8	I/E Range
POSFEEDENABLE	TOGGLE	F	Positive Feedback IR Comp
POSFEEDRESISTANCE	QUANT	0	Positive Feedback Resistance (ohm)
ACHSELECT	IQUANT	0	Ach Select
CABLEID	IQUANT	14	Cable ID
DCCALDATE	LABEL	2/27/2020	DC Calibration Date
ACCALDATE	LABEL	2/27/2020	AC Calibration Date
THERMOSELECT	IQUANT	1	Thermo Select
FRAMEWORKVERSION	QUANT	6.33	Framework Version
INSTRUMENTVERSION	LABEL	3.50	Instrument Version
ZCURVE	TABLE
	Pt	Time	Freq	Zreal	Zimag	Zsig	Zmod	Zphz	Idc	Vdc	IERange
	#	s	Hz	ohm	ohm	V	ohm	°	A	V	#
	0	2	1000078	1698.671	-2331.031	1	2884.3	-53.91839	4.045431E-007	0.1516777	8
	1	2	794390.6	2044.674	-2598.378	1	3306.397	-51.80066	-3.276082E-007	0.1514791	8
	2	2	630984.4	2432.004	-2872.274	1	3763.589	-49.74483	6.515139E-007	0.1512147	8
	3	2	501234.4	2858.553	-3154.781	1	4257.226	-47.82022	5.168154E-007	0.1511624	8
	4	3	398109.4	3327.597	-3450.032	1	4793.289	-46.03491	2.580087E-007	0.1511297	8
	5	3	316265.6	3853.168	-3759.979	1	5383.711	-44.29871	-1.347886E-007	0.1511537	8
	6	3	251203.1	4435.696	-4075.113	1	6023.45	-42.57396	4.912312E-007	0.1510609	8
	7	4	199546.9	5106.312	-4391.753	1	6735.125	-40.69763	4.73763E-007	0.1510628	8
	8	4	158578.1	5853.272	-4689.909	1	7500.403	-38.7033	-2.928875E-007	0.1511761	8
	9	4	125953.1	6763.197	-4857.165	1	8326.637	-35.68499	-9.501674E-009	0.1510971	7
	10	5	100078.1	7626.357	-5025.208	1	9133.128	-33.38194	-5.256695E-009	0.1510777	7
	11	5	79453.13	8559.297	-5113.404	1	9970.38	-30.85449	3.375886E-009	0.1510684	7
	12	5	63140.62	9487.023	-5084.623	1	10763.69	-28.18933	2.800338E-009	0.1510459	7
	13	6	50203.12	10390.8	-4972.683	1	11519.39	-25.57419	-3.670383E-009	0.1510596	7
	14	6	39890.62	11240.25	-4761.203	1	12207.06	-22.95679	1.079127E-008	0.151024	7
	15	6	31640.63	12017.52	-4503.718	1	12833.71	-20.54413	-2.990131E-009	0.1510631	7
	16	7	25171.88	12699.27	-4207.875	1	13378.26	-18.33249	1.150669E-008	0.1510186	7
	17	7	20015.62	13293.29	-3907.196	1	13855.6	-16.37925	5.325839E-009	0.1510262	7
	18	7	15890.62	13813.49	-3617.352	1	14279.28	-14.67458	-7.107698E-010	0.1510345	7
	19	8	12609.37	14337.12	-3220.976	1	14694.48	-12.66183	1.188919E-010	0.1510791	6
	20	8	10078.13	14696.79	-3021.613	1	15004.2	-11.61794	-1.528635E-010	0.1511158	6
	21	8	8015.625	15014.93	-2864.116	1	15285.66	-10.7995	1.984361E-010	0.1510946	6
	22	8	6328.125	15309.02	-2755.842	1	15555.09	-10.20476	-5.159645E-011	0.1511057	6
	23	9	5015.625	15553.63	-2711.605	1	15788.23	-9.8895	-3.552359E-010	0.1510913	6
	24	9	3984.375	15774.5	-2736.678	1	16010.13	-9.84214	-1.119704E-009	0.1511061	6
	25	9	3170.956	15964.26	-2840.958	1	16215.08	-10.09057	8.369507E-010	0.1510952	6
	26	10	2527.573	16155.71	-3033.3	1	16438	-10.63371	-1.042817E-009	0.1511118	6
	27	10	1976.103	16352.89	-3357.327	1	16693.97	-11.60188	-3.886793E-010	0.1511001	6
	28	10	1577.524	16543.63	-3775.076	1	16968.88	-12.85419	-1.063914E-009	0.1510988	6
	29	11	1265.625	16734.79	-4310.542	1	17281.03	-14.44424	2.94999E-011	0.1510651	6
	30	11	998.264	16976.54	-5056.005	1	17713.45	-16.58474	-6.124755E-010	0.1510821	6
	31	11	796.875	17233.38	-5952.75	1	18232.52	-19.05592	-4.716569E-010	0.1510808	6
	32	12	627.7902	17556.06	-7142.269	1	18953.29	-22.13779	-4.393626E-010	0.1510818	6
	33	12	505.5147	17911.81	-8474.122	1	19815.24	-25.31894	-8.909347E-010	0.1510944	6
	34	12	397.9953	18377.79	-10283.4	1	21059.24	-29.22944	9.318899E-011	0.1510997	6
	35	13	315.5048	18941.42	-12443.19	1	22662.97	-33.30211	-2.886765E-011	0.1510989	6
	36	13	252.4038	19614.93	-14968.89	1	24674.14	-37.3486	2.152914E-011	0.1510957	6
	37	13	198.6229	20510.83	-18275.46	1	27471.56	-41.70152	-3.451258E-011	0.1511034	6
	38	14	158.3615	21567.06	-22081.33	1	30866.22	-45.67503	-1.68594E-010	0.1510934	6
	39	14	125.558	22921.92	-26809.6	1	35272.78	-49.46991	-4.620979E-011	0.1510962	6
	40	14	100.4464	24553.13	-32301.95	1	40574.27	-52.76106	-7.640122E-011	0.151094	6
	41	15	79.00281	26775.33	-39459.35	1	47686.04	-55.84096	-8.172967E-011	0.1510922	6
	42	15	63.3446	29436.54	-47411.96	1	55806.84	-58.16521	-1.563866E-010	0.1510883	6
	43	15	49.86702	33040.77	-57804.07	1	66580.8	-60.24774	8.442576E-011	0.151086	6
	44	16	39.72458	37466.02	-69646.66	1	79084.51	-61.72223	9.628254E-011	0.1510859	6
	45	16	31.6723	43236.02	-83727.39	1	94231.78	-62.68861	-2.886189E-010	0.1510884	6
	46	16	24.93351	51254.66	-101263.6	1	113496.1	-63.15371	-9.663845E-011	0.1510855	5
	47	17	19.86229	61173.07	-120947.5	1	135537.6	-63.17053	-7.543558E-010	0.151085	5
	48	17	15.83615	74163.19	-143350.4	1	161398.7	-62.64495	6.933536E-010	0.1510881	5
	49	17	12.40079	92283.5	-170844.7	1	194175.6	-61.62385	8.098168E-010	0.1510873	5
	50	17	9.93114	112994.3	-198420.1	1	228338	-60.33979	1.055007E-009	0.1510862	5
	51	18	7.944915	138162.9	-228688.9	1	267184.6	-58.86164	-1.695392E-011	0.1510871	5
	52	18	6.317385	170056.7	-261857.8	1	312232	-56.99934	3.719119E-011	0.1510776	5
	53	19	5.008013	207852.4	-296740.3	1	362294.7	-54.99059	2.563673E-010	0.1510934	5
	54	20	3.945707	252626	-332750.8	1	417783.4	-52.79406	-2.973933E-010	0.1510829	5
	55	21	3.158693	298913.2	-367870	1	474001.5	-50.90437	9.474371E-011	0.151093	5
	56	22	2.504006	351311.7	-404132.2	1	535483.6	-48.9996	-2.195017E-010	0.1510923	5
	57	23	1.998082	405748.7	-441817.8	1	599862.5	-47.43682	-4.574376E-010	0.1510521	5
	58	25	1.584686	463120.4	-481156.8	1	667826.6	-46.09426	-2.926985E-010	0.1510887	5
	59	27	1.266892	523267.5	-522998.3	1	739821.7	-44.98526	-1.58948E-010	0.1511153	5
	60	29	0.999041	589414.5	-574617.1	1	823161.1	-44.27168	-3.897824E-011	0.151121	5
