EXPLAIN
TAG	EISPOT
TITLE	LABEL	Potentiostatic EIS	Test &Identifier
DATE	LABEL	7/5/2020	Date
TIME	LABEL	16:28:31	Time
NOTES	NOTES	1	&Notes...
	
PSTAT	PSTAT	REF600-11020	Potentiostat
VDC	POTEN	0.00000E+000	T	DC &Voltage (V)
FREQINIT	QUANT	1.00000E+006	Initial Fre&q. (Hz)
FREQFINAL	QUANT	1.00000E+000	Final Fre&q. (Hz)
PTSPERDEC	QUANT	1.00000E+001	Points/&decade
VAC	QUANT	2.50000E+001	AC &Voltage (mV rms)
AREA	QUANT	4.00000E-004	&Area (cm^2)
CONDIT	TWOPARAM	F	5.00000E+000	0.00000E+000	Conditionin&g	Time(s)	E(V)
DELAY	TWOPARAM	F	3.00000E+000	0.00000E+000	Init. De&lay	Time(s)	Stab.(mV/s)
SPEED	SELECTOR	0	&Optimize for:
ZGUESS	QUANT	1.00000E+003	E&stimated Z (ohms)
OCVCURVE	TABLE	39
	Pt	T	Vf	Vm	Ach	Over
	#	s	V vs. Ref.	V	V	bits
	0	0.258333	-3.23420E-002	-3.23420E-002	5.14417E-004	...........
	1	0.516667	-3.23418E-002	-3.23285E-002	5.11284E-004	...........
	2	0.775	-3.23401E-002	-3.23122E-002	5.05917E-004	...........
	3	1.03333	-3.23353E-002	-3.22977E-002	5.07550E-004	...........
	4	1.29167	-3.23260E-002	-3.22708E-002	5.10917E-004	...........
	5	1.55	-3.23123E-002	-3.22586E-002	5.08750E-004	...........
	6	1.80833	-3.22956E-002	-3.22461E-002	5.09917E-004	...........
	7	2.06667	-3.22782E-002	-3.22378E-002	5.10550E-004	...........
	8	2.325	-3.22627E-002	-3.22418E-002	5.13217E-004	...........
	9	2.58333	-3.22510E-002	-3.22357E-002	5.12517E-004	...........
	10	2.84167	-3.22433E-002	-3.22199E-002	5.13383E-004	...........
	11	3.1	-3.22375E-002	-3.22174E-002	5.12584E-004	...........
	12	3.35833	-3.22319E-002	-3.22318E-002	5.12150E-004	...........
	13	3.61667	-3.22273E-002	-3.22337E-002	5.13017E-004	...........
	14	3.875	-3.22260E-002	-3.22332E-002	5.15183E-004	...........
	15	4.13333	-3.22281E-002	-3.22477E-002	5.18283E-004	...........
	16	4.39167	-3.22322E-002	-3.22503E-002	5.14050E-004	...........
	17	4.65	-3.22376E-002	-3.22511E-002	5.12484E-004	...........
	18	4.90833	-3.22432E-002	-3.22572E-002	5.10484E-004	...........
	19	5.16667	-3.22480E-002	-3.22503E-002	5.13917E-004	...........
	20	5.425	-3.22513E-002	-3.22542E-002	5.08950E-004	...........
	21	5.68333	-3.22529E-002	-3.22536E-002	5.13550E-004	...........
	22	5.94167	-3.22536E-002	-3.22662E-002	5.08117E-004	...........
	23	6.2	-3.22549E-002	-3.22617E-002	5.13383E-004	...........
	24	6.45833	-3.22572E-002	-3.22547E-002	5.10984E-004	...........
	25	6.71667	-3.22591E-002	-3.22609E-002	5.11784E-004	...........
	26	6.975	-3.22597E-002	-3.22561E-002	5.13483E-004	...........
	27	7.23333	-3.22589E-002	-3.22410E-002	5.14583E-004	...........
	28	7.49167	-3.22565E-002	-3.22434E-002	5.13817E-004	...........
	29	7.75	-3.22523E-002	-3.22344E-002	5.17417E-004	...........
	30	8.00833	-3.22471E-002	-3.22334E-002	5.15283E-004	...........
	31	8.26667	-3.22417E-002	-3.22221E-002	5.03150E-004	...........
	32	8.525	-3.22362E-002	-3.22126E-002	5.03750E-004	...........
	33	8.78333	-3.22299E-002	-3.22032E-002	5.12817E-004	...........
	34	9.04167	-3.22223E-002	-3.21935E-002	5.07083E-004	...........
	35	9.3	-3.22134E-002	-3.21799E-002	5.09050E-004	...........
	36	9.5583	-3.22035E-002	-3.21693E-002	5.07384E-004	...........
	37	9.8167	-3.21929E-002	-3.21616E-002	5.15883E-004	...........
	38	10.075	-3.21820E-002	-3.21452E-002	5.12183E-004	...........
EOC	QUANT	-0.032182	Open Circuit (V)
PSTATMODEL	IQUANT	4	Pstat Model
PSTATSECTION	LABEL	REF600-11020	Pstat Section
PSTATSERIALNO	LABEL	11020	Pstat Serial Number
CTRLMODE	IQUANT	1	Control Mode
IESTAB	IQUANT	0	I/E Stability
CASPEED	IQUANT	1	Control Amp Speed
CONVENTION	IQUANT	1	Current Convention
ICHRANGE	IQUANT	2	Ich Range
ICHRANGEMODE	TOGGLE	F	Ich Auto Range
ICHOFFSETENABLE	TOGGLE	T	Ich Offset Enable
ICHOFFSET	QUANT	0	Ich Offset (V)
ICHFILTER	IQUANT	3	Ich Filter
VCHRANGE	IQUANT	2	Vch Range
VCHRANGEMODE	TOGGLE	F	Vch Auto Range
VCHOFFSETENABLE	TOGGLE	T	Vch Offset Enable
VCHOFFSET	QUANT	0	Vch Offset (V)
VCHFILTER	IQUANT	3	Vch Filter
ACHRANGE	IQUANT	2	Ach Range
ACHOFFSETENABLE	TOGGLE	F	Ach Offset Enable
ACHOFFSET	QUANT	0	Ach Offset (V)
ACHFILTER	IQUANT	3	Ach Filter
IERANGELOWERLIMIT	IQUANT	1	I/E Range Lower Limit
IERANGEMODE	TOGGLE	F	I/E AutoRange
IERANGE	IQUANT	7	I/E Range
POSFEEDENABLE	TOGGLE	F	Positive Feedback IR Comp
POSFEEDRESISTANCE	QUANT	0	Positive Feedback Resistance (ohm)
ACHSELECT	IQUANT	0	Ach Select
CABLEID	IQUANT	14	Cable ID
DCCALDATE	LABEL	6/26/2020	DC Calibration Date
ACCALDATE	LABEL	6/26/2020	AC Calibration Date
THERMOSELECT	IQUANT	1	Thermo Select
FRAMEWORKVERSION	QUANT	6.33	Framework Version
INSTRUMENTVERSION	LABEL	3.50	Instrument Version
ZCURVE	TABLE
	Pt	Time	Freq	Zreal	Zimag	Zsig	Zmod	Zphz	Idc	Vdc	IERange
	#	s	Hz	ohm	ohm	V	ohm	°	A	V	#
	0	1	1000078	1679.304	-1542.593	1	2280.275	-42.57029	5.763048E-006	-0.0300198	8
	1	1	794390.6	1921.423	-1628.391	1	2518.635	-40.28101	-6.95432E-006	-0.0296218	8
	2	2	630984.4	2174.731	-1723.8	1	2775.057	-38.4021	1.413824E-006	-0.0307669	8
	3	2	501234.4	2443.273	-1800.338	1	3034.93	-36.38482	2.230419E-007	-0.0301841	8
	4	2	398109.4	2730.639	-1892.161	1	3322.147	-34.71952	-1.682121E-007	-0.0308416	8
	5	3	316265.6	3040.56	-1973.85	1	3625.064	-32.99055	-3.848224E-006	-0.030033	8
	6	3	251203.1	3398.578	-2054.333	1	3971.223	-31.15163	6.955013E-006	-0.0313512	8
	7	3	199546.9	3734.519	-2079.81	1	4274.604	-29.11409	6.32479E-006	-0.0312568	8
	8	4	158578.1	4120.854	-2048.885	1	4602.105	-26.43652	6.603483E-006	-0.0313371	8
	9	4	125953.1	4478.648	-2045.663	1	4923.721	-24.54898	-1.874499E-006	-0.0265628	7
	10	4	100078.1	4877.986	-1986.61	1	5267.008	-22.15912	7.605341E-007	-0.0307242	7
	11	4	79453.13	5197.444	-1874.207	1	5525.041	-19.82938	3.394064E-007	-0.0300678	7
	12	5	63140.62	5460.365	-1726.785	1	5726.899	-17.54903	-9.706783E-007	-0.0289562	7
	13	5	50203.12	5687.56	-1581.915	1	5903.456	-15.54316	-1.20376E-006	-0.0297202	7
	14	5	39890.62	5925.222	-1477.188	1	6106.582	-13.99876	5.735884E-007	-0.0304067	7
	15	6	31640.63	6092.981	-1375.799	1	6246.378	-12.72404	5.747135E-007	-0.0304094	7
	16	6	25171.88	6231.768	-1299.826	1	6365.884	-11.78187	7.656524E-007	-0.0307372	7
	17	7	20015.62	6344.354	-1246.896	1	6465.723	-11.11899	8.651734E-007	-0.0325052	7
	18	7	15890.62	6462.549	-1234.351	1	6579.374	-10.81329	1.053786E-006	-0.0323949	7
	19	7	12609.37	6572.899	-1254.168	1	6691.483	-10.8027	1.053766E-006	-0.0323981	7
	20	8	10078.13	6681.83	-1306.953	1	6808.449	-11.06721	1.057239E-006	-0.0323981	7
	21	8	8015.625	6780.742	-1385.409	1	6920.825	-11.54747	8.660032E-007	-0.0325054	7
	22	8	6328.125	6921.598	-1515.455	1	7085.558	-12.3498	1.128551E-006	-0.0317613	7
	23	9	5015.625	7050.136	-1674.341	1	7246.229	-13.35971	9.848874E-007	-0.0312585	7
	24	9	3984.375	7187.499	-1871.853	1	7427.245	-14.59738	7.66015E-007	-0.0307512	7
	25	9	3170.956	7296.487	-2110.273	1	7595.523	-16.1308	-9.700329E-007	-0.0289704	7
	26	10	2527.573	7495.865	-2425.206	1	7878.427	-17.92843	1.149154E-006	-0.0321558	7
	27	10	1976.103	7682.207	-2831.234	1	8187.319	-20.23108	1.149267E-006	-0.0321584	7
	28	11	1577.524	7817.282	-3276.635	1	8476.216	-22.74113	-6.564507E-007	-0.0310104	7
	29	11	1265.625	8051.267	-3835.998	1	8918.396	-25.4753	-3.599988E-007	-0.0292755	7
	30	11	998.264	8295.477	-4559.415	1	9465.896	-28.79437	-6.917106E-007	-0.0290533	7
	31	12	796.875	8555.774	-5398.467	1	10116.56	-32.25084	-1.208181E-006	-0.0297402	7
	32	12	627.7902	8970.986	-6554.253	1	11110.21	-36.15207	1.128037E-006	-0.0317706	7
	33	12	505.5147	9368.105	-7771.077	1	12171.73	-39.67655	1.124966E-006	-0.0317686	7
	34	12	397.9953	9863.56	-9399.424	1	13624.94	-43.61975	1.71764E-010	-0.0306837	6
	35	13	315.5048	10520.4	-11344.98	1	15472.15	-47.1597	8.520105E-010	-0.0306858	6
	36	13	252.4038	11320.25	-13597.85	1	17693.21	-50.2225	3.001015E-010	-0.030691	6
	37	13	198.6229	12420.74	-16508.2	1	20659.03	-53.04226	2.766725E-010	-0.0306943	6
	38	14	158.3615	13766.25	-19804.71	1	24119.2	-55.19685	1.089986E-009	-0.0306992	6
	39	14	125.558	15556.29	-23808.27	1	28439.97	-56.83945	8.779729E-010	-0.0306928	6
	40	14	100.4464	17775.07	-28312.55	1	33429.83	-57.87875	1.102503E-009	-0.0307038	6
	41	15	79.00281	20885.99	-33918.79	1	39833.51	-58.37671	1.577372E-010	-0.030697	6
	42	15	63.3446	24702.68	-39947.64	1	46968.46	-58.26834	5.924744E-010	-0.0307043	6
	43	15	49.86702	29716.86	-47082.57	1	55676.38	-57.74132	6.015289E-010	-0.0307075	6
	44	16	39.72458	35606.78	-54368.07	1	64990.23	-56.77838	7.390453E-010	-0.0307088	6
	45	16	31.6723	42658.12	-62215.04	1	75434.91	-55.56327	2.614176E-011	-0.0307063	6
	46	16	24.93351	51523.56	-70964.88	1	87696.59	-54.01873	1.461484E-009	-0.0307046	6
	47	17	19.86229	60904.18	-79481.73	1	100133.2	-52.53827	1.057053E-009	-0.0307056	5
	48	17	15.83615	71103.02	-88642.75	1	113636.2	-51.26585	7.572764E-010	-0.0307191	5
	49	17	12.40079	82974.15	-98334.4	1	128663.7	-49.84246	2.517707E-009	-0.0307198	5
	50	18	9.93114	93902.26	-108874	1	143774.7	-49.22269	1.540937E-009	-0.0307117	5
	51	18	7.944915	104762.5	-120935.1	1	160001.6	-49.09859	-1.232143E-009	-0.0307116	5
	52	18	6.317385	117392.9	-135127.3	1	178998.6	-49.01725	5.315293E-010	-0.03072	5
	53	19	5.008013	130158.7	-152844.9	1	200755.7	-49.58316	6.090388E-010	-0.0307138	5
	54	20	3.945707	143951.4	-174406.2	1	226140.5	-50.46441	-5.495947E-011	-0.0307203	5
	55	21	3.158693	158044.1	-200086.9	1	254975.9	-51.69561	3.320045E-010	-0.0307189	5
	56	22	2.504006	174033	-232004.4	1	290023.3	-53.12541	8.616112E-011	-0.0307102	5
	57	23	1.998082	191830.8	-270031.1	1	331233.8	-54.60992	-1.428037E-010	-0.0307564	5
	58	25	1.584686	212061.7	-316888.1	1	381298.1	-56.20954	-1.389353E-011	-0.0307236	5
	59	27	1.266892	236332.7	-371751	1	440513.3	-57.55472	6.180041E-011	-0.0306919	5
	60	29	0.999041	266629.3	-443027	1	517072.6	-58.95899	1.009675E-010	-0.0306781	5
