EXPLAIN
TAG	EISPOT
TITLE	LABEL	Potentiostatic EIS	Test &Identifier
DATE	LABEL	6/19/2020	Date
TIME	LABEL	15:40:02	Time
NOTES	NOTES	1	&Notes...
	
PSTAT	PSTAT	REF600-10037	Potentiostat
VDC	POTEN	0.00000E+000	T	DC &Voltage (V)
FREQINIT	QUANT	1.00000E+006	Initial Fre&q. (Hz)
FREQFINAL	QUANT	1.00000E+000	Final Fre&q. (Hz)
PTSPERDEC	QUANT	1.00000E+001	Points/&decade
VAC	QUANT	1.00000E+002	AC &Voltage (mV rms)
AREA	QUANT	2.50000E-001	&Area (cm^2)
CONDIT	TWOPARAM	F	5.00000E+000	0.00000E+000	Conditionin&g	Time(s)	E(V)
DELAY	TWOPARAM	F	5.00000E+000	0.00000E+000	Init. De&lay	Time(s)	Stab.(mV/s)
SPEED	SELECTOR	0	&Optimize for:
ZGUESS	QUANT	1.00000E+003	E&stimated Z (ohms)
OCVCURVE	TABLE	39
	Pt	T	Vf	Vm	Ach	Over
	#	s	V vs. Ref.	V	V	bits
	0	0.258333	7.09335E-002	7.09335E-002	5.35454E-004	...........
	1	0.516667	7.09334E-002	7.09291E-002	5.28187E-004	...........
	2	0.775	7.09329E-002	7.09293E-002	5.31254E-004	...........
	3	1.03333	7.09320E-002	7.09286E-002	5.28887E-004	...........
	4	1.29167	7.09308E-002	7.09292E-002	5.29387E-004	...........
	5	1.55	7.09298E-002	7.09301E-002	5.28121E-004	...........
	6	1.80833	7.09293E-002	7.09271E-002	5.34554E-004	...........
	7	2.06667	7.09290E-002	7.09240E-002	5.31921E-004	...........
	8	2.325	7.09283E-002	7.09260E-002	5.32321E-004	...........
	9	2.58333	7.09273E-002	7.09275E-002	5.34854E-004	...........
	10	2.84167	7.09263E-002	7.09194E-002	5.30054E-004	...........
	11	3.1	7.09254E-002	7.09228E-002	5.31487E-004	...........
	12	3.35833	7.09243E-002	7.09172E-002	5.30887E-004	...........
	13	3.61667	7.09227E-002	7.09190E-002	5.31387E-004	...........
	14	3.875	7.09210E-002	7.09205E-002	5.33821E-004	...........
	15	4.13333	7.09200E-002	7.09224E-002	5.38221E-004	...........
	16	4.39167	7.09196E-002	7.09113E-002	5.39187E-004	...........
	17	4.65	7.09192E-002	7.09154E-002	5.35521E-004	...........
	18	4.90833	7.09180E-002	7.09117E-002	5.35187E-004	...........
	19	5.16667	7.09158E-002	7.08948E-002	5.32521E-004	...........
	20	5.425	7.09125E-002	7.09051E-002	5.34721E-004	...........
	21	5.68333	7.09085E-002	7.09098E-002	5.29354E-004	...........
	22	5.94167	7.09057E-002	7.09062E-002	5.35421E-004	...........
	23	6.2	7.09052E-002	7.09115E-002	5.32754E-004	...........
	24	6.45833	7.09064E-002	7.09120E-002	5.37121E-004	...........
	25	6.71667	7.09082E-002	7.09127E-002	5.35254E-004	...........
	26	6.975	7.09100E-002	7.09177E-002	5.35287E-004	...........
	27	7.23333	7.09120E-002	7.09198E-002	5.32487E-004	...........
	28	7.49167	7.09142E-002	7.09237E-002	5.39021E-004	...........
	29	7.75	7.09169E-002	7.09274E-002	5.39054E-004	...........
	30	8.00833	7.09200E-002	7.09295E-002	5.37254E-004	...........
	31	8.26667	7.09232E-002	7.09291E-002	5.35654E-004	...........
	32	8.525	7.09260E-002	7.09309E-002	5.40054E-004	...........
	33	8.78333	7.09283E-002	7.09366E-002	5.32187E-004	...........
	34	9.04167	7.09302E-002	7.09359E-002	5.36054E-004	...........
	35	9.3	7.09322E-002	7.09396E-002	5.37721E-004	...........
	36	9.5583	7.09344E-002	7.09393E-002	5.39554E-004	...........
	37	9.8167	7.09365E-002	7.09399E-002	5.37287E-004	...........
	38	10.075	7.09381E-002	7.09415E-002	5.31187E-004	...........
EOC	QUANT	0.0709381	Open Circuit (V)
PSTATMODEL	IQUANT	4	Pstat Model
PSTATSECTION	LABEL	REF600-10037	Pstat Section
PSTATSERIALNO	LABEL	10037	Pstat Serial Number
CTRLMODE	IQUANT	1	Control Mode
IESTAB	IQUANT	0	I/E Stability
CASPEED	IQUANT	1	Control Amp Speed
CONVENTION	IQUANT	1	Current Convention
ICHRANGE	IQUANT	2	Ich Range
ICHRANGEMODE	TOGGLE	F	Ich Auto Range
ICHOFFSETENABLE	TOGGLE	T	Ich Offset Enable
ICHOFFSET	QUANT	0	Ich Offset (V)
ICHFILTER	IQUANT	3	Ich Filter
VCHRANGE	IQUANT	2	Vch Range
VCHRANGEMODE	TOGGLE	F	Vch Auto Range
VCHOFFSETENABLE	TOGGLE	T	Vch Offset Enable
VCHOFFSET	QUANT	0	Vch Offset (V)
VCHFILTER	IQUANT	3	Vch Filter
ACHRANGE	IQUANT	2	Ach Range
ACHOFFSETENABLE	TOGGLE	F	Ach Offset Enable
ACHOFFSET	QUANT	0	Ach Offset (V)
ACHFILTER	IQUANT	3	Ach Filter
IERANGELOWERLIMIT	IQUANT	1	I/E Range Lower Limit
IERANGEMODE	TOGGLE	F	I/E AutoRange
IERANGE	IQUANT	8	I/E Range
POSFEEDENABLE	TOGGLE	F	Positive Feedback IR Comp
POSFEEDRESISTANCE	QUANT	0	Positive Feedback Resistance (ohm)
ACHSELECT	IQUANT	0	Ach Select
CABLEID	IQUANT	14	Cable ID
DCCALDATE	LABEL	6/8/2020	DC Calibration Date
ACCALDATE	LABEL	6/8/2020	AC Calibration Date
THERMOSELECT	IQUANT	1	Thermo Select
FRAMEWORKVERSION	QUANT	6.33	Framework Version
INSTRUMENTVERSION	LABEL	3.50	Instrument Version
ZCURVE	TABLE
	Pt	Time	Freq	Zreal	Zimag	Zsig	Zmod	Zphz	Idc	Vdc	IERange
	#	s	Hz	ohm	ohm	V	ohm	°	A	V	#
	0	2	1000078	2102.52	-2022.414	1	2917.318	-43.88747	8.442287E-008	0.0798683	8
	1	2	794390.6	2480.524	-2126.342	1	3267.16	-40.60367	1.117506E-007	0.0795895	8
	2	2	630984.4	2877.112	-2191.97	1	3616.975	-37.3025	2.478807E-008	0.0794424	8
	3	3	501234.4	3286.369	-2207.82	1	3959.127	-33.89365	1.163816E-007	0.0793625	8
	4	3	398109.4	3688.747	-2187.589	1	4288.636	-30.6698	2.713738E-008	0.0793141	8
	5	3	316265.6	4076.033	-2119.026	1	4593.943	-27.46878	1.149362E-007	0.0793241	8
	6	4	251203.1	4440.173	-2019.585	1	4877.896	-24.45812	4.808432E-008	0.0793239	8
	7	4	199546.9	4766.666	-1898.568	1	5130.854	-21.71745	7.286259E-008	0.0793558	8
	8	4	158578.1	5043.531	-1749.277	1	5338.275	-19.12838	1.882463E-007	0.0793966	8
	9	5	125953.1	5339.222	-1566.064	1	5564.158	-16.34711	-2.547786E-008	0.0793778	7
	10	5	100078.1	5545.278	-1414	1	5722.718	-14.30511	2.704271E-008	0.0793634	7
	11	5	79453.13	5723.766	-1319.41	1	5873.869	-12.98075	3.195119E-008	0.079355	7
	12	6	63140.62	5848.196	-1224.378	1	5974.99	-11.82465	3.292315E-008	0.07934	7
	13	6	50203.12	5973.697	-1165.014	1	6086.24	-11.03553	-1.814473E-008	0.0793143	7
	14	6	39890.62	6106.308	-1137.062	1	6211.272	-10.54829	-1.681014E-008	0.0793046	7
	15	7	31640.63	6191.023	-1118.015	1	6291.163	-10.23652	-1.595377E-008	0.0793082	7
	16	7	25171.88	6291.444	-1132.407	1	6392.544	-10.20351	-2.162333E-008	0.0793068	7
	17	7	20015.62	6393.44	-1174.056	1	6500.345	-10.40555	-2.03997E-008	0.0792983	7
	18	8	15890.62	6497.564	-1242.415	1	6615.28	-10.825	7.332179E-009	0.0793155	7
	19	8	12609.37	6612.776	-1344.226	1	6748.019	-11.49036	-1.553814E-008	0.0793068	7
	20	8	10078.13	6730.744	-1470.005	1	6889.4	-12.32004	-1.583969E-008	0.0793119	7
	21	8	8015.625	6864.442	-1633.339	1	7056.087	-13.38418	-1.510052E-008	0.0793163	7
	22	9	6328.125	7039.686	-1841.881	1	7276.655	-14.66233	3.55532E-008	0.0792965	7
	23	9	5015.625	7184.07	-2086.304	1	7480.878	-16.19367	2.078245E-008	0.0793126	7
	24	9	3984.375	7375.566	-2382.925	1	7750.956	-17.90479	-6.083753E-009	0.0792935	7
	25	10	3170.956	7584.176	-2721.866	1	8057.809	-19.74243	6.69462E-009	0.0793139	7
	26	10	2527.573	7819.284	-3123.282	1	8419.981	-21.77341	2.110441E-008	0.0793077	7
	27	10	1976.103	8106.542	-3644.843	1	8888.245	-24.20952	3.491559E-008	0.0793035	7
	28	11	1577.524	8399.513	-4214.479	1	9397.534	-26.64534	1.592395E-008	0.0792937	7
	29	11	1265.625	8715.412	-4867.545	1	9982.55	-29.1833	5.386602E-009	0.0792902	7
	30	11	998.264	9087.506	-5710.063	1	10732.55	-32.14288	5.688126E-009	0.0792917	7
	31	12	796.875	9482.729	-6636.016	1	11574.06	-34.98434	2.360469E-008	0.0793055	7
	32	12	627.7902	9940.36	-7913.859	1	12705.9	-38.5245	-2.161072E-008	0.0793018	7
	33	12	505.5147	10411.78	-9284.986	1	13950.49	-41.72583	-2.095609E-008	0.0793043	7
	34	13	397.9953	11007.12	-11121.97	1	15647.84	-45.29736	7.827388E-009	0.0793299	7
	35	13	315.5048	11693.88	-13325.56	1	17729	-48.73134	8.416044E-009	0.0793258	7
	36	13	252.4038	12489.87	-15906.48	1	20224.07	-51.86077	8.414093E-009	0.0793245	7
	37	14	198.6229	13541.4	-19291.35	1	23569.6	-54.93339	7.609275E-009	0.0793275	7
	38	14	158.3615	14791.72	-23191.75	1	27507.31	-57.47022	9.510965E-009	0.0793269	7
	39	14	125.558	16414.03	-28020.47	1	32474.1	-59.63877	1.002386E-008	0.0793293	7
	40	15	100.4464	18374.86	-33373.87	1	38097.91	-61.16386	1.020748E-008	0.0793131	7
	41	15	79.00281	21144.67	-40792.29	1	45946.79	-62.60005	1.529219E-009	0.0793246	6
	42	15	63.3446	24389.54	-48655.78	1	54426.41	-63.3769	7.058997E-010	0.0793168	6
	43	16	49.86702	28877.57	-58718.44	1	65435.23	-63.81216	1.090709E-009	0.0793178	6
	44	16	39.72458	34362.14	-69967.52	1	77950.05	-63.84362	1.689036E-009	0.0793272	6
	45	16	31.6723	41331.17	-82982.95	1	92706.17	-63.52356	2.304996E-009	0.0793283	6
	46	17	24.93351	50728.57	-98750.9	1	111018.6	-62.81033	1.738255E-009	0.0793259	6
	47	17	19.86229	62414.18	-116129.4	1	131839.2	-61.74403	-8.963257E-009	0.0707565	6
	48	17	15.83615	76691.23	-135036.8	1	155294.9	-60.40654	-6.789552E-009	0.0707489	6
	49	18	12.40079	94901.74	-156904.7	1	183372.4	-58.83291	-5.614147E-009	0.0707575	6
	50	18	9.93114	114630	-178133.9	1	211829.5	-57.23853	-4.619369E-009	0.0707546	6
	51	18	7.944915	137185.8	-200585	1	243010.9	-55.63067	-3.904046E-009	0.0707557	6
	52	19	6.317385	162567.5	-224643.5	1	277295.7	-54.10792	-1.833726E-009	0.0707603	6
	53	20	5.008013	190207.2	-251009.6	1	314935.9	-52.84629	-1.186872E-009	0.0707625	6
	54	21	3.945707	220073.7	-281043.8	1	356956.6	-51.93699	-6.990514E-010	0.0707571	6
	55	22	3.158693	248640.7	-312736.3	1	399532.5	-51.51358	-9.547498E-010	0.0707601	5
	56	23	2.504006	281254.9	-352029.2	1	450587.3	-51.37678	-7.335239E-010	0.0707599	5
	57	25	1.998082	312912.6	-397302.7	1	505730.8	-51.7763	-5.254391E-010	0.0707571	5
	58	27	1.584686	348509.4	-454371.1	1	572635.9	-52.51126	-3.34686E-010	0.0707581	5
	59	30	1.266892	386158.8	-521265.9	1	648719.3	-53.46859	-2.408326E-010	0.0707622	5
	60	33	0.999041	431183.9	-607910.4	1	745301.8	-54.65236	-2.869335E-010	0.0707557	5
