EXPLAIN
TAG	EISPOT
TITLE	LABEL	Potentiostatic EIS	Test &Identifier
DATE	LABEL	1/14/2020	Date
TIME	LABEL	15:48:27	Time
NOTES	NOTES	5	&Notes...
	
	
	
	
	
PSTAT	PSTAT	REF600-11020	Potentiostat
VDC	POTEN	0.00000E+000	T	DC &Voltage (V)
FREQINIT	QUANT	1.00000E+006	Initial Fre&q. (Hz)
FREQFINAL	QUANT	1.00000E+000	Final Fre&q. (Hz)
PTSPERDEC	QUANT	1.00000E+001	Points/&decade
VAC	QUANT	2.50000E+001	AC &Voltage (mV rms)
AREA	QUANT	1.00000E-001	&Area (cm^2)
CONDIT	TWOPARAM	T	5.00000E+000	0.00000E+000	Conditionin&g	Time(s)	E(V)
DELAY	TWOPARAM	T	5.00000E+000	0.00000E+000	Init. De&lay	Time(s)	Stab.(mV/s)
SPEED	SELECTOR	0	&Optimize for:
ZGUESS	QUANT	5.00000E+002	E&stimated Z (ohms)
OCVCURVE	TABLE	19
	Pt	T	Vf	Vm	Ach	Over
	#	s	V vs. Ref.	V	V	bits
	0	0.258333	2.65567E-003	2.65567E-003	6.85246E-004	...........
	1	0.516667	2.64875E-003	2.29333E-003	6.85012E-004	...........
	2	0.775	2.60681E-003	1.97918E-003	6.84846E-004	...........
	3	1.03333	2.49045E-003	1.70106E-003	6.79412E-004	...........
	4	1.29167	2.28822E-003	1.45446E-003	6.78679E-004	...........
	5	1.55	2.02966E-003	1.21933E-003	6.75979E-004	...........
	6	1.80833	1.75657E-003	1.02460E-003	6.82546E-004	...........
	7	2.06667	1.49717E-003	8.45598E-004	6.87546E-004	...........
	8	2.325	1.26291E-003	6.73444E-004	6.80979E-004	...........
	9	2.58333	1.05434E-003	5.19011E-004	6.87846E-004	...........
	10	2.84167	8.66969E-004	3.71765E-004	6.82979E-004	...........
	11	3.1	6.95936E-004	2.39335E-004	6.81112E-004	...........
	12	3.35833	5.38049E-004	1.10660E-004	6.83079E-004	...........
	13	3.61667	3.91448E-004	-6.56275E-006	6.75046E-004	...........
	14	3.875	2.54764E-004	-1.21515E-004	6.74246E-004	...........
	15	4.13333	1.26658E-004	-2.31173E-004	6.73646E-004	...........
	16	4.39167	5.84424E-006	-3.29364E-004	6.77812E-004	...........
	17	4.65	-1.08450E-004	-4.25249E-004	6.83679E-004	...........
	18	4.90833	-2.16341E-004	-5.13151E-004	6.73146E-004	...........
EOC	QUANT	-0.0002163	Open Circuit (V)
PSTATMODEL	IQUANT	4	Pstat Model
PSTATSECTION	LABEL	REF600-11020	Pstat Section
PSTATSERIALNO	LABEL	11020	Pstat Serial Number
CTRLMODE	IQUANT	1	Control Mode
IESTAB	IQUANT	0	I/E Stability
CASPEED	IQUANT	1	Control Amp Speed
CONVENTION	IQUANT	1	Current Convention
ICHRANGE	IQUANT	2	Ich Range
ICHRANGEMODE	TOGGLE	F	Ich Auto Range
ICHOFFSETENABLE	TOGGLE	T	Ich Offset Enable
ICHOFFSET	QUANT	0	Ich Offset (V)
ICHFILTER	IQUANT	3	Ich Filter
VCHRANGE	IQUANT	2	Vch Range
VCHRANGEMODE	TOGGLE	F	Vch Auto Range
VCHOFFSETENABLE	TOGGLE	T	Vch Offset Enable
VCHOFFSET	QUANT	0	Vch Offset (V)
VCHFILTER	IQUANT	3	Vch Filter
ACHRANGE	IQUANT	2	Ach Range
ACHOFFSETENABLE	TOGGLE	F	Ach Offset Enable
ACHOFFSET	QUANT	0	Ach Offset (V)
ACHFILTER	IQUANT	3	Ach Filter
IERANGELOWERLIMIT	IQUANT	1	I/E Range Lower Limit
IERANGEMODE	TOGGLE	F	I/E AutoRange
IERANGE	IQUANT	5	I/E Range
POSFEEDENABLE	TOGGLE	F	Positive Feedback IR Comp
POSFEEDRESISTANCE	QUANT	0	Positive Feedback Resistance (ohm)
ACHSELECT	IQUANT	0	Ach Select
CABLEID	IQUANT	14	Cable ID
DCCALDATE	LABEL	12/22/2019	DC Calibration Date
ACCALDATE	LABEL	12/22/2019	AC Calibration Date
THERMOSELECT	IQUANT	1	Thermo Select
FRAMEWORKVERSION	QUANT	6.33	Framework Version
INSTRUMENTVERSION	LABEL	3.50	Instrument Version
ZCURVE	TABLE
	Pt	Time	Freq	Zreal	Zimag	Zsig	Zmod	Zphz	Idc	Vdc	IERange
	#	s	Hz	ohm	ohm	V	ohm	°	A	V	#
	0	1	1000078	2275.421	-1976.917	1	3014.257	-40.98455	1.206438E-006	0.0016713	8
	1	2	794390.6	2695.909	-1978.83	1	3344.203	-36.27912	2.4836E-007	0.0015832	8
	2	2	630984.4	3084.884	-1939.071	1	3643.694	-32.15231	3.132382E-006	0.0009871	8
	3	2	501234.4	3468.588	-1812.527	1	3913.612	-27.58953	-1.687593E-006	0.0016294	8
	4	3	398109.4	3769.724	-1666.835	1	4121.791	-23.85328	1.740562E-006	0.0011012	8
	5	3	316265.6	4029.768	-1493.861	1	4297.75	-20.34007	-8.559433E-007	0.0015536	8
	6	3	251203.1	4243.187	-1323.406	1	4444.776	-17.32215	-2.322932E-006	0.0018392	8
	7	4	199546.9	4395.228	-1165.865	1	4547.227	-14.85598	6.923173E-007	0.0012031	8
	8	4	158578.1	4531.536	-999.284	1	4640.408	-12.43571	2.611269E-006	0.0008741	8
	9	4	125953.1	4650.831	-868.751	1	4731.274	-10.58062	-3.133978E-007	0.0019889	7
	10	4	100078.1	4708.8	-776.0352	1	4772.319	-9.358524	2.951267E-008	0.0012341	7
	11	5	79453.13	4785.972	-697.7898	1	4836.573	-8.295217	-4.137356E-008	0.0013835	7
	12	5	63140.62	4843.645	-648.0291	1	4886.803	-7.620324	3.020339E-008	0.0012239	7
	13	5	50203.12	4896.265	-613.0863	1	4934.499	-7.137151	8.943487E-008	0.0011813	7
	14	6	39890.62	4944.955	-595.1028	1	4980.635	-6.862285	-2.783576E-008	0.0013361	7
	15	6	31640.63	4993.786	-594.755	1	5029.079	-6.791878	-6.612572E-009	0.0013359	7
	16	6	25171.88	5041.012	-609.4969	1	5077.725	-6.894035	-2.638573E-009	0.0012747	7
	17	7	20015.62	5093.47	-639.5472	1	5133.465	-7.156729	4.801363E-008	0.0012969	7
	18	7	15890.62	5147.298	-686.271	1	5192.846	-7.594255	-2.219905E-008	0.0013363	7
	19	7	12609.37	5206.405	-750.5334	1	5260.224	-8.203007	-3.54964E-009	0.0013381	7
	20	8	10078.13	5265.353	-832.3563	1	5330.737	-8.983082	-3.057395E-009	0.0013339	7
	21	8	8015.625	5328.15	-936.1779	1	5409.77	-9.96539	4.853247E-008	0.0012903	7
	22	8	6328.125	5411.966	-1068.059	1	5516.351	-11.16394	2.610128E-008	0.0012796	7
	23	9	5015.625	5495.451	-1231.037	1	5631.646	-12.62639	4.825431E-008	0.0012828	7
	24	9	3984.375	5597.646	-1429.733	1	5777.351	-14.32797	-1.046309E-008	0.0012926	7
	25	9	3170.956	5688.375	-1662.166	1	5926.247	-16.28857	-2.439467E-008	0.0013886	7
	26	10	2527.573	5799.7	-1943.471	1	6116.666	-18.52593	1.762564E-008	0.0012377	7
	27	10	1976.103	5937.419	-2320.28	1	6374.688	-21.34503	-5.035414E-009	0.001329	7
	28	10	1577.524	6062.672	-2742.505	1	6654.121	-24.34005	5.871421E-008	0.0011894	7
	29	10	1265.625	6231.938	-3240.385	1	7024.041	-27.47282	-3.338038E-008	0.0013774	7
	30	11	998.264	6417.622	-3893.453	1	7506.321	-31.24442	-2.123504E-008	0.0013288	7
	31	11	796.875	6616.377	-4651.461	1	8087.801	-35.10807	2.546327E-008	0.0012753	7
	32	11	627.7902	6856.912	-5638.694	1	8877.618	-39.43174	3.14336E-008	0.0012075	7
	33	12	505.5147	7107.02	-6744.409	1	9797.79	-43.50042	4.528691E-010	0.0013732	6
	34	12	397.9953	7432.581	-8242.452	1	11098.71	-47.95763	9.735939E-010	0.0013092	6
	35	12	315.5048	7807.641	-10042.85	1	12720.77	-52.13732	8.015215E-010	0.0013097	6
	36	13	252.4038	8239.735	-12168.11	1	14695.45	-55.89579	9.521548E-010	0.0013069	6
	37	13	198.6229	8811.022	-14982.94	1	17381.67	-59.54147	9.453255E-010	0.001307	6
	38	13	158.3615	9482.825	-18264.74	1	20579.71	-62.56222	7.627401E-010	0.0013028	6
	39	14	125.558	10345.37	-22389.44	1	24664.01	-65.20002	9.517237E-010	0.0013048	6
	40	14	100.4464	11391.55	-27232.58	1	29519.16	-67.30015	1.043582E-009	0.0013066	6
	41	14	79.00281	12848.41	-33597.48	1	35970.44	-69.07205	8.255892E-010	0.0013037	6
	42	15	63.3446	14611.55	-40956.06	1	43484.44	-70.36555	5.328981E-010	0.0013044	6
	43	15	49.86702	16974.8	-50375.7	1	53158.77	-71.37803	8.90064E-010	0.0013028	6
	44	15	39.72458	19998.16	-61196.47	1	64381.17	-71.90333	7.984515E-010	0.0013098	6
	45	16	31.6723	23824.16	-74239.17	1	77968.23	-72.208	6.72229E-010	0.0013038	6
	46	16	24.93351	29101.41	-90993.91	1	95534.2	-72.26484	1.021865E-009	0.001305	6
	47	16	19.86229	35630.47	-109989.7	1	115616.9	-72.0506	8.033342E-010	0.0013086	5
	48	17	15.83615	43332.43	-132942.9	1	139826.7	-71.94674	7.259922E-011	0.0013024	5
	49	17	12.40079	55663.83	-161517.3	1	170840	-70.98447	1.060788E-009	0.0012978	5
	50	17	9.93114	69317.41	-192543.1	1	204640.5	-70.20062	1.098498E-009	0.0013072	5
	51	18	7.944915	87268.44	-230568.8	1	246531.5	-69.26875	6.414512E-010	0.0013024	5
	52	18	6.317385	108698.6	-272613.8	1	293485.3	-68.26147	4.13264E-010	0.0012968	5
	53	19	5.008013	137148.9	-323440.1	1	351316.5	-67.02151	4.261113E-010	0.0013072	5
	54	20	3.945707	174479.8	-383207.5	1	421059.6	-65.51955	1.195356E-010	0.0013018	5
	55	21	3.158693	215862.8	-446790.1	1	496203.8	-64.21289	1.318082E-010	0.0012854	5
	56	23	2.504006	267885.8	-522951.1	1	587571.8	-62.87585	1.389481E-010	0.0012929	5
	57	24	1.998082	330242.6	-598114	1	683228	-61.09516	7.474437E-010	0.0013036	5
	58	25	1.584686	404736.5	-685612.2	1	796163.1	-59.44543	1.967818E-010	0.0012568	5
	59	27	1.266892	490268.7	-780798.9	1	921960.1	-57.87502	-3.011392E-010	0.0012533	5
	60	30	0.999041	584015.9	-886612.8	1	1061676	-56.62692	2.278747E-010	0.0013034	4
