EXPLAIN
TAG	EISPOT
TITLE	LABEL	Potentiostatic EIS	Test &Identifier
DATE	LABEL	7/13/2020	Date
TIME	LABEL	20:58:09	Time
NOTES	NOTES	1	&Notes...
	
PSTAT	PSTAT	REF600-11020	Potentiostat
VDC	POTEN	0.00000E+000	T	DC &Voltage (V)
FREQINIT	QUANT	1.00000E+006	Initial Fre&q. (Hz)
FREQFINAL	QUANT	1.00000E+000	Final Fre&q. (Hz)
PTSPERDEC	QUANT	1.00000E+001	Points/&decade
VAC	QUANT	2.50000E+001	AC &Voltage (mV rms)
AREA	QUANT	4.00000E-004	&Area (cm^2)
CONDIT	TWOPARAM	F	5.00000E+000	0.00000E+000	Conditionin&g	Time(s)	E(V)
DELAY	TWOPARAM	F	3.00000E+000	0.00000E+000	Init. De&lay	Time(s)	Stab.(mV/s)
SPEED	SELECTOR	0	&Optimize for:
ZGUESS	QUANT	1.00000E+003	E&stimated Z (ohms)
OCVCURVE	TABLE	39
	Pt	T	Vf	Vm	Ach	Over
	#	s	V vs. Ref.	V	V	bits
	0	0.258333	1.66479E-001	1.66479E-001	5.17950E-004	...........
	1	0.516667	1.66479E-001	1.66469E-001	5.17450E-004	...........
	2	0.775	1.66478E-001	1.66464E-001	5.16883E-004	...........
	3	1.03333	1.66475E-001	1.66458E-001	5.15650E-004	...........
	4	1.29167	1.66470E-001	1.66455E-001	5.16783E-004	...........
	5	1.55	1.66465E-001	1.66451E-001	5.19150E-004	...........
	6	1.80833	1.66460E-001	1.66445E-001	5.20583E-004	...........
	7	2.06667	1.66455E-001	1.66439E-001	5.19983E-004	...........
	8	2.325	1.66450E-001	1.66437E-001	5.13250E-004	...........
	9	2.58333	1.66445E-001	1.66428E-001	5.19083E-004	...........
	10	2.84167	1.66441E-001	1.66424E-001	5.18450E-004	...........
	11	3.1	1.66435E-001	1.66416E-001	5.18350E-004	...........
	12	3.35833	1.66430E-001	1.66406E-001	5.22083E-004	...........
	13	3.61667	1.66423E-001	1.66401E-001	5.20050E-004	...........
	14	3.875	1.66416E-001	1.66395E-001	5.18250E-004	...........
	15	4.13333	1.66409E-001	1.66392E-001	5.14550E-004	...........
	16	4.39167	1.66402E-001	1.66386E-001	5.14917E-004	...........
	17	4.65	1.66397E-001	1.66381E-001	5.18350E-004	...........
	18	4.90833	1.66392E-001	1.66377E-001	5.19983E-004	...........
	19	5.16667	1.66387E-001	1.66370E-001	5.14250E-004	...........
	20	5.425	1.66382E-001	1.66367E-001	5.17483E-004	...........
	21	5.68333	1.66377E-001	1.66364E-001	5.20417E-004	...........
	22	5.94167	1.66372E-001	1.66358E-001	5.16983E-004	...........
	23	6.2	1.66368E-001	1.66353E-001	5.17150E-004	...........
	24	6.45833	1.66363E-001	1.66344E-001	5.14683E-004	...........
	25	6.71667	1.66358E-001	1.66338E-001	5.19183E-004	...........
	26	6.975	1.66352E-001	1.66334E-001	5.16850E-004	...........
	27	7.23333	1.66346E-001	1.66329E-001	5.13850E-004	...........
	28	7.49167	1.66340E-001	1.66329E-001	5.17117E-004	...........
	29	7.75	1.66335E-001	1.66324E-001	5.20583E-004	...........
	30	8.00833	1.66331E-001	1.66321E-001	5.19017E-004	...........
	31	8.26667	1.66328E-001	1.66317E-001	5.19183E-004	...........
	32	8.525	1.66324E-001	1.66312E-001	5.20283E-004	...........
	33	8.78333	1.66321E-001	1.66308E-001	5.18517E-004	...........
	34	9.04167	1.66317E-001	1.66301E-001	5.20183E-004	...........
	35	9.3	1.66313E-001	1.66301E-001	5.22183E-004	...........
	36	9.5583	1.66308E-001	1.66295E-001	5.22717E-004	...........
	37	9.8167	1.66304E-001	1.66292E-001	5.19817E-004	...........
	38	10.075	1.66299E-001	1.66286E-001	5.18750E-004	...........
EOC	QUANT	0.1662994	Open Circuit (V)
PSTATMODEL	IQUANT	4	Pstat Model
PSTATSECTION	LABEL	REF600-11020	Pstat Section
PSTATSERIALNO	LABEL	11020	Pstat Serial Number
CTRLMODE	IQUANT	1	Control Mode
IESTAB	IQUANT	0	I/E Stability
CASPEED	IQUANT	1	Control Amp Speed
CONVENTION	IQUANT	1	Current Convention
ICHRANGE	IQUANT	2	Ich Range
ICHRANGEMODE	TOGGLE	F	Ich Auto Range
ICHOFFSETENABLE	TOGGLE	T	Ich Offset Enable
ICHOFFSET	QUANT	0	Ich Offset (V)
ICHFILTER	IQUANT	3	Ich Filter
VCHRANGE	IQUANT	2	Vch Range
VCHRANGEMODE	TOGGLE	F	Vch Auto Range
VCHOFFSETENABLE	TOGGLE	T	Vch Offset Enable
VCHOFFSET	QUANT	0	Vch Offset (V)
VCHFILTER	IQUANT	3	Vch Filter
ACHRANGE	IQUANT	2	Ach Range
ACHOFFSETENABLE	TOGGLE	F	Ach Offset Enable
ACHOFFSET	QUANT	0	Ach Offset (V)
ACHFILTER	IQUANT	3	Ach Filter
IERANGELOWERLIMIT	IQUANT	1	I/E Range Lower Limit
IERANGEMODE	TOGGLE	F	I/E AutoRange
IERANGE	IQUANT	8	I/E Range
POSFEEDENABLE	TOGGLE	F	Positive Feedback IR Comp
POSFEEDRESISTANCE	QUANT	0	Positive Feedback Resistance (ohm)
ACHSELECT	IQUANT	0	Ach Select
CABLEID	IQUANT	14	Cable ID
DCCALDATE	LABEL	6/26/2020	DC Calibration Date
ACCALDATE	LABEL	6/26/2020	AC Calibration Date
THERMOSELECT	IQUANT	1	Thermo Select
FRAMEWORKVERSION	QUANT	6.33	Framework Version
INSTRUMENTVERSION	LABEL	3.50	Instrument Version
ZCURVE	TABLE
	Pt	Time	Freq	Zreal	Zimag	Zsig	Zmod	Zphz	Idc	Vdc	IERange
	#	s	Hz	ohm	ohm	V	ohm	°	A	V	#
	0	1	1000078	1543.94	-1834.397	1	2397.657	-49.91399	-3.184198E-008	0.1685255	8
	1	1	794390.6	1865.645	-2008.333	1	2741.174	-47.10938	7.319633E-008	0.1682334	8
	2	1	630984.4	2227.219	-2158.699	1	3101.691	-44.10497	-1.505444E-008	0.168076	8
	3	2	501234.4	2624.642	-2276.274	1	3474.215	-40.93412	5.2209E-008	0.1680112	8
	4	2	398109.4	3055.116	-2355.58	1	3857.783	-37.63323	4.286193E-008	0.1679674	8
	5	2	316265.6	3493.458	-2384.121	1	4229.454	-34.3117	7.804376E-009	0.1679278	8
	6	3	251203.1	3939.321	-2369.692	1	4597.14	-31.02894	-4.636901E-008	0.1679143	8
	7	3	199546.9	4366.26	-2300.588	1	4935.274	-27.7848	3.949029E-008	0.1679361	8
	8	3	158578.1	4772.268	-2186.32	1	5249.241	-24.61395	1.732817E-009	0.1679181	8
	9	4	125953.1	5193.554	-1959.415	1	5550.884	-20.6704	-3.010344E-009	0.1679744	7
	10	4	100078.1	5504.328	-1805.475	1	5792.872	-18.16002	-1.088819E-008	0.1678953	7
	11	4	79453.13	5760.105	-1646.495	1	5990.806	-15.9523	-1.979253E-008	0.1678995	7
	12	4	63140.62	5969.966	-1491.364	1	6153.427	-14.02605	-1.84585E-008	0.167909	7
	13	5	50203.12	6147.65	-1354.246	1	6295.044	-12.42309	-4.823524E-009	0.1678695	7
	14	5	39890.62	6296.694	-1234.223	1	6416.515	-11.09002	-2.186334E-008	0.1678982	7
	15	5	31640.63	6426.52	-1136.882	1	6526.305	-10.03211	-1.70255E-008	0.1678884	7
	16	6	25171.88	6537.861	-1062.612	1	6623.652	-9.231676	1.965867E-009	0.1678582	7
	17	6	20015.62	6635.955	-1010.192	1	6712.405	-8.655684	8.893038E-009	0.1678826	7
	18	6	15890.62	6727.994	-980.084	1	6799.004	-8.288127	-1.652809E-008	0.1678856	7
	19	7	12609.37	6811.831	-974.832	1	6881.23	-8.144227	8.469711E-009	0.1678817	7
	20	7	10078.13	6891.939	-992.466	1	6963.032	-8.194485	1.710526E-008	0.1678602	7
	21	7	8015.625	6968.852	-1036.96	1	7045.579	-8.463472	-1.711362E-008	0.1678988	7
	22	8	6328.125	7052.071	-1112.145	1	7139.228	-8.962006	-2.012075E-008	0.1678819	7
	23	8	5015.625	7132.102	-1219.517	1	7235.613	-9.70315	-8.589652E-009	0.1678889	7
	24	8	3984.375	7217.682	-1363.087	1	7345.267	-10.69457	1.654597E-008	0.1678519	7
	25	9	3170.956	7304.885	-1550.169	1	7467.554	-11.981	-2.067801E-008	0.1678891	7
	26	9	2527.573	7400.542	-1787.532	1	7613.362	-13.57917	2.354955E-009	0.1678476	7
	27	9	1976.103	7515.243	-2109.685	1	7805.745	-15.68053	-2.001012E-008	0.167883	7
	28	10	1577.524	7633.846	-2485.366	1	8028.241	-18.0338	9.198716E-009	0.1678404	7
	29	10	1265.625	7768.017	-2935.141	1	8304.043	-20.69905	-9.687924E-009	0.1678608	7
	30	10	998.264	7938.036	-3532.847	1	8688.694	-23.9916	-2.037485E-008	0.1678817	7
	31	11	796.875	8136.884	-4228.693	1	9170.1	-27.46065	4.213356E-009	0.1678677	7
	32	11	627.7902	8399.62	-5129.614	1	9842.08	-31.41224	-1.373746E-009	0.1678344	6
	33	11	505.5147	8691.954	-6135.006	1	10639	-35.21543	1.126477E-009	0.1678078	6
	34	11	397.9953	9096.079	-7481.121	1	11777.34	-39.43578	1.195511E-010	0.1678822	6
	35	12	315.5048	9598.77	-9068.65	1	13205.18	-43.37334	1.867864E-010	0.1678745	6
	36	12	252.4038	10212.91	-10900.31	1	14937.21	-46.86476	4.968911E-011	0.1678718	6
	37	12	198.6229	11059.36	-13261.06	1	17267.46	-50.1728	1.483312E-010	0.1678761	6
	38	13	158.3615	12084.36	-15921.91	1	19988.47	-52.80236	3.751521E-010	0.1678649	6
	39	13	125.558	13421.73	-19148.91	1	23384.26	-54.97287	2.162324E-010	0.1678702	6
	40	13	100.4464	15047.05	-22789.47	1	27308.86	-56.56468	3.12454E-010	0.1678694	6
	41	14	79.00281	17251.81	-27371.72	1	32354.84	-57.77765	1.598259E-010	0.1678676	6
	42	14	63.3446	19782.48	-32274.07	1	37854.49	-58.49367	1.824289E-010	0.1678651	6
	43	14	49.86702	23166.71	-38392.65	1	44840.74	-58.89258	-3.724135E-010	0.167864	6
	44	15	39.72458	27107.98	-45072.36	1	52596.2	-58.97594	1.169016E-010	0.1678684	6
	45	15	31.6723	31859.68	-52666.87	1	61553.54	-58.82907	2.057171E-010	0.1678683	6
	46	15	24.93351	37915.95	-61793.22	1	72498.43	-58.46697	-8.77406E-010	0.1678683	6
	47	16	19.86229	44781.48	-71717.2	1	84550.2	-58.01862	-2.649679E-009	0.1678668	6
	48	16	15.83615	53204.52	-82741.23	1	98370.9	-57.25805	2.189528E-009	0.1678684	6
	49	16	12.40079	63868.78	-95754.9	1	115100.9	-56.2966	1.306203E-009	0.1678556	5
	50	17	9.93114	75227.1	-108593.9	1	132105	-55.28818	1.942241E-009	0.1678579	5
	51	17	7.944915	87499.84	-122804.9	1	150788.8	-54.5297	1.792314E-009	0.1678492	5
	52	17	6.317385	102101.7	-138672	1	172205.4	-53.63645	-3.415821E-010	0.1678727	5
	53	18	5.008013	117951.2	-156379.1	1	195874.8	-52.97404	-7.79915E-011	0.1678591	5
	54	19	3.945707	134618.7	-177161	1	222504.4	-52.77002	4.995437E-010	0.1678585	5
	55	20	3.158693	151166.8	-199605.7	1	250387.4	-52.86237	-5.318793E-011	0.1678645	5
	56	21	2.504006	168879.1	-228066.6	1	283786.1	-53.48074	-1.465216E-010	0.1678507	5
	57	22	1.998082	187364.5	-261000.4	1	321289.1	-54.32656	2.037072E-010	0.1678876	5
	58	24	1.584686	207711.6	-303788.2	1	368010	-55.63809	1.654287E-010	0.1678863	5
	59	26	1.266892	229727.2	-353047.2	1	421208.9	-56.94801	5.27591E-011	0.1678455	5
	60	28	0.999041	257985.4	-417035.6	1	490382.7	-58.25835	8.912983E-012	0.1678212	5
