EXPLAIN
TAG	EISPOT
TITLE	LABEL	Potentiostatic EIS	Test &Identifier
DATE	LABEL	7/5/2020	Date
TIME	LABEL	16:38:07	Time
NOTES	NOTES	1	&Notes...
	
PSTAT	PSTAT	REF600-11020	Potentiostat
VDC	POTEN	0.00000E+000	T	DC &Voltage (V)
FREQINIT	QUANT	1.00000E+006	Initial Fre&q. (Hz)
FREQFINAL	QUANT	1.00000E+000	Final Fre&q. (Hz)
PTSPERDEC	QUANT	1.00000E+001	Points/&decade
VAC	QUANT	2.50000E+001	AC &Voltage (mV rms)
AREA	QUANT	4.00000E-004	&Area (cm^2)
CONDIT	TWOPARAM	F	5.00000E+000	0.00000E+000	Conditionin&g	Time(s)	E(V)
DELAY	TWOPARAM	F	3.00000E+000	0.00000E+000	Init. De&lay	Time(s)	Stab.(mV/s)
SPEED	SELECTOR	0	&Optimize for:
ZGUESS	QUANT	1.00000E+003	E&stimated Z (ohms)
OCVCURVE	TABLE	39
	Pt	T	Vf	Vm	Ach	Over
	#	s	V vs. Ref.	V	V	bits
	0	0.258333	6.80632E-002	6.80632E-002	5.04784E-004	...........
	1	0.516667	6.80627E-002	6.80376E-002	5.02750E-004	...........
	2	0.775	6.80599E-002	6.80258E-002	5.03350E-004	...........
	3	1.03333	6.80528E-002	6.80103E-002	5.02550E-004	...........
	4	1.29167	6.80414E-002	6.80003E-002	4.98250E-004	...........
	5	1.55	6.80279E-002	6.79974E-002	5.00384E-004	...........
	6	1.80833	6.80154E-002	6.79986E-002	5.02750E-004	...........
	7	2.06667	6.80062E-002	6.80068E-002	5.06784E-004	...........
	8	2.325	6.80062E-002	6.82398E-002	5.00584E-004	...........
	9	2.58333	6.80287E-002	6.82289E-002	5.00484E-004	...........
	10	2.84167	6.80755E-002	6.79490E-002	5.05384E-004	...........
	11	3.1	6.81116E-002	6.79289E-002	4.99184E-004	...........
	12	3.35833	6.80981E-002	6.79253E-002	4.98884E-004	...........
	13	3.61667	6.80418E-002	6.79135E-002	5.04217E-004	...........
	14	3.875	6.79803E-002	6.78966E-002	5.01384E-004	...........
	15	4.13333	6.79372E-002	6.78914E-002	5.01884E-004	...........
	16	4.39167	6.79128E-002	6.78813E-002	5.09384E-004	...........
	17	4.65	6.78992E-002	6.78750E-002	5.04750E-004	...........
	18	4.90833	6.78900E-002	6.78611E-002	5.08083E-004	...........
	19	5.16667	6.78819E-002	6.78648E-002	5.11650E-004	...........
	20	5.425	6.78744E-002	6.78613E-002	5.05150E-004	...........
	21	5.68333	6.78683E-002	6.78582E-002	5.03417E-004	...........
	22	5.94167	6.78638E-002	6.78436E-002	5.00517E-004	...........
	23	6.2	6.78597E-002	6.78466E-002	5.07050E-004	...........
	24	6.45833	6.78549E-002	6.78416E-002	5.07817E-004	...........
	25	6.71667	6.78501E-002	6.78419E-002	5.02617E-004	...........
	26	6.975	6.78458E-002	6.78258E-002	5.02284E-004	...........
	27	7.23333	6.78470E-002	6.81023E-002	5.00817E-004	...........
	28	7.49167	6.78662E-002	6.79245E-002	5.03217E-004	...........
	29	7.75	6.79024E-002	6.78106E-002	5.00717E-004	...........
	30	8.00833	6.79249E-002	6.78037E-002	5.00050E-004	...........
	31	8.26667	6.79096E-002	6.78019E-002	5.02717E-004	...........
	32	8.525	6.78694E-002	6.77954E-002	4.97284E-004	...........
	33	8.78333	6.78312E-002	6.77867E-002	5.01284E-004	...........
	34	9.04167	6.78067E-002	6.77744E-002	5.01084E-004	...........
	35	9.3	6.77932E-002	6.77728E-002	4.99850E-004	...........
	36	9.5583	6.77849E-002	6.77725E-002	5.05584E-004	...........
	37	9.8167	6.77788E-002	6.77627E-002	4.99884E-004	...........
	38	10.075	6.77739E-002	6.77615E-002	4.98717E-004	...........
EOC	QUANT	0.0677739	Open Circuit (V)
PSTATMODEL	IQUANT	4	Pstat Model
PSTATSECTION	LABEL	REF600-11020	Pstat Section
PSTATSERIALNO	LABEL	11020	Pstat Serial Number
CTRLMODE	IQUANT	1	Control Mode
IESTAB	IQUANT	0	I/E Stability
CASPEED	IQUANT	1	Control Amp Speed
CONVENTION	IQUANT	1	Current Convention
ICHRANGE	IQUANT	2	Ich Range
ICHRANGEMODE	TOGGLE	F	Ich Auto Range
ICHOFFSETENABLE	TOGGLE	T	Ich Offset Enable
ICHOFFSET	QUANT	0	Ich Offset (V)
ICHFILTER	IQUANT	3	Ich Filter
VCHRANGE	IQUANT	2	Vch Range
VCHRANGEMODE	TOGGLE	F	Vch Auto Range
VCHOFFSETENABLE	TOGGLE	T	Vch Offset Enable
VCHOFFSET	QUANT	0	Vch Offset (V)
VCHFILTER	IQUANT	3	Vch Filter
ACHRANGE	IQUANT	2	Ach Range
ACHOFFSETENABLE	TOGGLE	F	Ach Offset Enable
ACHOFFSET	QUANT	0	Ach Offset (V)
ACHFILTER	IQUANT	3	Ach Filter
IERANGELOWERLIMIT	IQUANT	1	I/E Range Lower Limit
IERANGEMODE	TOGGLE	F	I/E AutoRange
IERANGE	IQUANT	8	I/E Range
POSFEEDENABLE	TOGGLE	F	Positive Feedback IR Comp
POSFEEDRESISTANCE	QUANT	0	Positive Feedback Resistance (ohm)
ACHSELECT	IQUANT	0	Ach Select
CABLEID	IQUANT	14	Cable ID
DCCALDATE	LABEL	6/26/2020	DC Calibration Date
ACCALDATE	LABEL	6/26/2020	AC Calibration Date
THERMOSELECT	IQUANT	1	Thermo Select
FRAMEWORKVERSION	QUANT	6.33	Framework Version
INSTRUMENTVERSION	LABEL	3.50	Instrument Version
ZCURVE	TABLE
	Pt	Time	Freq	Zreal	Zimag	Zsig	Zmod	Zphz	Idc	Vdc	IERange
	#	s	Hz	ohm	ohm	V	ohm	°	A	V	#
	0	1	1000078	1234.609	-1765.79	1	2154.594	-55.03944	7.127189E-006	0.0692043	8
	1	2	794390.6	1380.755	-2025.896	1	2451.681	-55.72352	-4.309446E-006	0.0698001	8
	2	2	630984.4	1541.219	-2336.616	1	2799.131	-56.59137	-2.31224E-006	0.0695684	8
	3	2	501234.4	1718.304	-2712.682	1	3211.108	-57.64845	8.187797E-006	0.0687665	8
	4	3	398109.4	1900.08	-3206.982	1	3727.605	-59.35402	-1.947213E-006	0.0699774	8
	5	3	316265.6	2120.209	-3800.2	1	4351.644	-60.84196	7.833582E-006	0.0687737	8
	6	3	251203.1	2389.078	-4556.647	1	5144.971	-62.3317	-1.379029E-006	0.0691133	8
	7	3	199546.9	2758.311	-5447.186	1	6105.745	-63.14355	-3.685431E-006	0.0699067	8
	8	4	158578.1	3188.775	-6544.403	1	7279.938	-64.02224	-5.079274E-007	0.0691027	8
	9	4	125953.1	3823.545	-7896.084	1	8773.12	-64.1622	1.918902E-006	0.0707935	7
	10	5	100078.1	4639.915	-9468.617	1	10544.36	-63.89372	5.951806E-007	0.0672039	7
	11	5	79453.13	5759.117	-11246.45	1	12635.27	-62.88379	9.268446E-008	0.0676379	7
	12	5	63140.62	7184.924	-13252.41	1	15074.8	-61.53524	1.389072E-006	0.0683703	7
	13	6	50203.12	9058.242	-15471.99	1	17928.59	-59.65271	1.309938E-006	0.0670646	7
	14	6	39890.62	11587.84	-17390.78	1	20897.78	-56.32366	-1.646095E-006	0.0713568	7
	15	6	31640.63	14465.79	-19908.77	1	24609.31	-53.9977	9.075281E-008	0.0676215	7
	16	7	25171.88	17928.99	-21775.37	1	28206.65	-50.53329	-1.003932E-006	0.0692157	7
	17	7	20015.62	21690.68	-24008.35	1	32355.63	-47.90333	5.965039E-007	0.0671771	7
	18	7	15890.62	25706.05	-25152.23	1	35964.37	-44.3761	5.514482E-007	0.070064	7
	19	7	12609.37	30166.77	-26244.89	1	39985.35	-41.02305	-1.137066E-007	0.0684869	6
	20	8	10078.13	34694.45	-27331.21	1	44166.73	-38.22995	2.214332E-007	0.0664096	6
	21	8	8015.625	39114.98	-27956.82	1	48078.74	-35.5547	7.06095E-008	0.070831	6
	22	8	6328.125	43866.82	-28341.89	1	52226.05	-32.86608	1.991348E-007	0.0659665	6
	23	9	5015.625	48187.75	-28347.57	1	55907.46	-30.46716	-2.050018E-007	0.0730979	6
	24	9	3984.375	53136.48	-28895.17	1	60484.85	-28.53697	2.230642E-007	0.067565	6
	25	9	3170.956	57639	-28826.39	1	64445.45	-26.57053	2.197799E-007	0.0663976	6
	26	10	2527.573	62325.75	-28638.78	1	68590.66	-24.67885	1.928041E-007	0.0685814	6
	27	10	1976.103	67302.37	-28271.58	1	72999.25	-22.78572	1.93171E-007	0.0686208	6
	28	10	1577.524	71617.52	-27303.31	1	76645.55	-20.86874	2.005571E-007	0.065972	6
	29	11	1265.625	74628.25	-25897.25	1	78993.95	-19.13763	-1.786419E-007	0.0696683	6
	30	11	998.264	78993.57	-25129.18	1	82894.27	-17.64674	-1.596402E-007	0.0731526	6
	31	12	796.875	82105.62	-23819.05	1	85490.82	-16.17758	-2.540064E-007	0.0729084	6
	32	12	627.7902	85483.47	-22744.54	1	88457.55	-14.89947	-4.087986E-008	0.0674118	6
	33	12	505.5147	87861.59	-21823.57	1	90531.36	-13.94916	-2.535569E-007	0.0729176	6
	34	13	397.9953	91002.91	-21593.45	1	93529.7	-13.34845	1.170182E-009	0.0693694	6
	35	13	315.5048	93074.65	-21258.4	1	95471.5	-12.86576	4.952985E-010	0.0693576	5
	36	13	252.4038	94842.8	-21471.01	1	97242.8	-12.75591	3.791379E-010	0.0693627	5
	37	14	198.6229	96733.4	-22424.69	1	99298.6	-13.05174	2.488975E-010	0.0693688	5
	38	14	158.3615	98463.5	-23963.43	1	101337.6	-13.67836	2.929732E-010	0.0693566	5
	39	14	125.558	100190.8	-26273.97	1	103578.6	-14.69433	1.201702E-010	0.0693614	5
	40	15	100.4464	101720.6	-29475.17	1	105905	-16.15978	3.855002E-010	0.0693688	5
	41	15	79.00281	103586.2	-33846.98	1	108975.7	-18.0949	1.562385E-010	0.069356	5
	42	15	63.3446	105656	-38131.82	1	112326.4	-19.84479	2.297254E-010	0.0693528	5
	43	16	49.86702	108655.1	-45515	1	117803	-22.72853	-5.526399E-012	0.0693637	5
	44	16	39.72458	112213.5	-54234.43	1	124632.5	-25.79515	-5.285147E-011	0.0693647	5
	45	16	31.6723	116314.1	-64125.12	1	132819.5	-28.86838	-3.532336E-010	0.0693659	5
	46	17	24.93351	122166.4	-76722.55	1	144260.1	-32.12951	9.475168E-011	0.0693588	5
	47	17	19.86229	129006.1	-90888.59	1	157807.8	-35.16582	1.072756E-009	0.0693566	5
	48	17	15.83615	138208.7	-106711.1	1	174610.7	-37.67178	-1.286942E-009	0.0693581	5
	49	18	12.40079	150513.9	-126770.9	1	196787.4	-40.1059	-1.632451E-009	0.0693562	5
	50	18	9.93114	164047.1	-147989.2	1	220935	-42.05407	-1.560431E-009	0.0693691	5
	51	18	7.944915	181298.6	-172696.2	1	250386	-43.60793	-9.702612E-010	0.0693703	5
	52	19	6.317385	199981	-198235.3	1	281584.2	-44.74883	-2.857372E-010	0.0693636	5
	53	19	5.008013	224012.4	-228089.5	1	319697.4	-45.51669	-4.978633E-010	0.0693544	5
	54	21	3.945707	252701.6	-261890.8	1	363929.8	-46.02304	1.585621E-010	0.0693569	5
	55	21	3.158693	282296.9	-296449.5	1	409357.8	-46.40083	2.755302E-013	0.0693663	5
	56	23	2.504006	317927.2	-337347.8	1	463552.8	-46.69759	-2.657978E-010	0.0693592	5
	57	24	1.998082	355125.4	-380707.3	1	520626.6	-46.99114	-2.943801E-011	0.0693782	5
	58	26	1.584686	399677.7	-432417.1	1	588835.2	-47.25318	1.33066E-010	0.0694052	5
	59	28	1.266892	445720.7	-489627.8	1	662119.5	-47.6876	1.145971E-010	0.0693768	5
	60	30	0.999041	500950.7	-557454.9	1	749471.6	-48.0559	1.009123E-010	0.0693487	5
