EXPLAIN
TAG	EISPOT
TITLE	LABEL	Potentiostatic EIS	Test &Identifier
DATE	LABEL	7/5/2020	Date
TIME	LABEL	16:42:27	Time
NOTES	NOTES	1	&Notes...
	
PSTAT	PSTAT	REF600-11020	Potentiostat
VDC	POTEN	0.00000E+000	T	DC &Voltage (V)
FREQINIT	QUANT	1.00000E+006	Initial Fre&q. (Hz)
FREQFINAL	QUANT	1.00000E+000	Final Fre&q. (Hz)
PTSPERDEC	QUANT	1.00000E+001	Points/&decade
VAC	QUANT	2.50000E+001	AC &Voltage (mV rms)
AREA	QUANT	4.00000E-004	&Area (cm^2)
CONDIT	TWOPARAM	F	5.00000E+000	0.00000E+000	Conditionin&g	Time(s)	E(V)
DELAY	TWOPARAM	F	3.00000E+000	0.00000E+000	Init. De&lay	Time(s)	Stab.(mV/s)
SPEED	SELECTOR	0	&Optimize for:
ZGUESS	QUANT	1.00000E+003	E&stimated Z (ohms)
OCVCURVE	TABLE	39
	Pt	T	Vf	Vm	Ach	Over
	#	s	V vs. Ref.	V	V	bits
	0	0.258333	4.16603E-002	4.16603E-002	5.09084E-004	...........
	1	0.516667	4.16610E-002	4.16989E-002	5.07050E-004	...........
	2	0.775	4.16638E-002	4.16421E-002	5.13717E-004	...........
	3	1.03333	4.16658E-002	4.15975E-002	5.13850E-004	...........
	4	1.29167	4.16596E-002	4.15990E-002	5.08117E-004	...........
	5	1.55	4.16427E-002	4.15945E-002	5.09684E-004	...........
	6	1.80833	4.16222E-002	4.15935E-002	5.09517E-004	...........
	7	2.06667	4.16061E-002	4.15811E-002	5.16650E-004	...........
	8	2.325	4.15963E-002	4.15977E-002	5.14550E-004	...........
	9	2.58333	4.15914E-002	4.15824E-002	5.09717E-004	...........
	10	2.84167	4.15892E-002	4.15836E-002	5.09884E-004	...........
	11	3.1	4.15878E-002	4.15782E-002	5.15450E-004	...........
	12	3.35833	4.15857E-002	4.15786E-002	5.17050E-004	...........
	13	3.61667	4.15834E-002	4.15964E-002	5.14217E-004	...........
	14	3.875	4.15828E-002	4.15951E-002	5.10817E-004	...........
	15	4.13333	4.15849E-002	4.15789E-002	5.17417E-004	...........
	16	4.39167	4.15873E-002	4.15785E-002	5.18717E-004	...........
	17	4.65	4.15871E-002	4.15764E-002	5.12050E-004	...........
	18	4.90833	4.15841E-002	4.15745E-002	5.08984E-004	...........
	19	5.16667	4.15804E-002	4.15741E-002	5.07517E-004	...........
	20	5.425	4.15774E-002	4.15751E-002	5.09484E-004	...........
	21	5.68333	4.15757E-002	4.15834E-002	5.10184E-004	...........
	22	5.94167	4.15756E-002	4.15727E-002	5.14017E-004	...........
	23	6.2	4.15763E-002	4.15709E-002	5.16850E-004	...........
	24	6.45833	4.15762E-002	4.15709E-002	5.13617E-004	...........
	25	6.71667	4.15748E-002	4.15689E-002	5.10917E-004	...........
	26	6.975	4.15727E-002	4.15669E-002	5.13483E-004	...........
	27	7.23333	4.15707E-002	4.15670E-002	5.09317E-004	...........
	28	7.49167	4.15691E-002	4.15644E-002	5.05384E-004	...........
	29	7.75	4.15676E-002	4.15633E-002	5.11884E-004	...........
	30	8.00833	4.15662E-002	4.15589E-002	5.05250E-004	...........
	31	8.26667	4.15646E-002	4.15623E-002	5.07217E-004	...........
	32	8.525	4.15630E-002	4.15605E-002	5.03717E-004	...........
	33	8.78333	4.15618E-002	4.15605E-002	5.10617E-004	...........
	34	9.04167	4.15610E-002	4.15567E-002	5.14550E-004	...........
	35	9.3	4.15602E-002	4.15529E-002	5.14583E-004	...........
	36	9.5583	4.15589E-002	4.15526E-002	5.13250E-004	...........
	37	9.8167	4.15569E-002	4.15566E-002	5.16550E-004	...........
	38	10.075	4.15553E-002	4.15542E-002	5.15550E-004	...........
EOC	QUANT	0.0415553	Open Circuit (V)
PSTATMODEL	IQUANT	4	Pstat Model
PSTATSECTION	LABEL	REF600-11020	Pstat Section
PSTATSERIALNO	LABEL	11020	Pstat Serial Number
CTRLMODE	IQUANT	1	Control Mode
IESTAB	IQUANT	0	I/E Stability
CASPEED	IQUANT	1	Control Amp Speed
CONVENTION	IQUANT	1	Current Convention
ICHRANGE	IQUANT	2	Ich Range
ICHRANGEMODE	TOGGLE	F	Ich Auto Range
ICHOFFSETENABLE	TOGGLE	T	Ich Offset Enable
ICHOFFSET	QUANT	0	Ich Offset (V)
ICHFILTER	IQUANT	3	Ich Filter
VCHRANGE	IQUANT	2	Vch Range
VCHRANGEMODE	TOGGLE	F	Vch Auto Range
VCHOFFSETENABLE	TOGGLE	T	Vch Offset Enable
VCHOFFSET	QUANT	0	Vch Offset (V)
VCHFILTER	IQUANT	3	Vch Filter
ACHRANGE	IQUANT	2	Ach Range
ACHOFFSETENABLE	TOGGLE	F	Ach Offset Enable
ACHOFFSET	QUANT	0	Ach Offset (V)
ACHFILTER	IQUANT	3	Ach Filter
IERANGELOWERLIMIT	IQUANT	1	I/E Range Lower Limit
IERANGEMODE	TOGGLE	F	I/E AutoRange
IERANGE	IQUANT	7	I/E Range
POSFEEDENABLE	TOGGLE	F	Positive Feedback IR Comp
POSFEEDRESISTANCE	QUANT	0	Positive Feedback Resistance (ohm)
ACHSELECT	IQUANT	0	Ach Select
CABLEID	IQUANT	14	Cable ID
DCCALDATE	LABEL	6/26/2020	DC Calibration Date
ACCALDATE	LABEL	6/26/2020	AC Calibration Date
THERMOSELECT	IQUANT	1	Thermo Select
FRAMEWORKVERSION	QUANT	6.33	Framework Version
INSTRUMENTVERSION	LABEL	3.50	Instrument Version
ZCURVE	TABLE
	Pt	Time	Freq	Zreal	Zimag	Zsig	Zmod	Zphz	Idc	Vdc	IERange
	#	s	Hz	ohm	ohm	V	ohm	°	A	V	#
	0	1	1000078	1534.598	-1503.987	1	2148.713	-44.42282	-3.241244E-006	0.0437532	8
	1	1	794390.6	1767.618	-1612.18	1	2392.404	-42.3668	3.919536E-007	0.043084	8
	2	1	630984.4	2024.232	-1718.229	1	2655.151	-40.3256	-1.468792E-006	0.0430605	8
	3	2	501234.4	2296.682	-1825.202	1	2933.618	-38.47461	-1.567492E-006	0.0430138	8
	4	2	398109.4	2599.332	-1938.722	1	3242.71	-36.71756	-6.415446E-006	0.0440309	8
	5	2	316265.6	2926.294	-2015.424	1	3553.186	-34.55632	-2.447727E-006	0.0431443	8
	6	3	251203.1	3278.868	-2081.71	1	3883.876	-32.41093	-1.84831E-006	0.043638	8
	7	3	199546.9	3648.459	-2108.793	1	4214.055	-30.02772	6.478563E-007	0.0435818	8
	8	3	158578.1	4032.775	-2091.263	1	4542.759	-27.40976	-1.077149E-006	0.0436378	8
	9	4	125953.1	4429.531	-2131.158	1	4915.545	-25.69337	2.405398E-006	0.043063	7
	10	4	100078.1	4760.238	-1994.355	1	5161.135	-22.73179	-1.044402E-006	0.0450957	7
	11	4	79453.13	5114.455	-1883.078	1	5450.104	-20.21308	5.630869E-007	0.0412564	7
	12	5	63140.62	5382.714	-1769.978	1	5666.254	-18.20222	-1.044781E-006	0.0450856	7
	13	5	50203.12	5682.776	-1661.12	1	5920.58	-16.29405	9.382443E-007	0.0429178	7
	14	5	39890.62	5848.87	-1500.418	1	6038.256	-14.3879	-8.179341E-007	0.0429446	7
	15	6	31640.63	6068.645	-1396.875	1	6227.335	-12.96251	5.647543E-007	0.041248	7
	16	6	25171.88	6238.316	-1298.477	1	6372.02	-11.75797	9.005579E-007	0.0411247	7
	17	6	20015.62	6336.025	-1209.782	1	6450.488	-10.80978	-8.165714E-007	0.0429386	7
	18	7	15890.62	6507.424	-1167.419	1	6611.311	-10.17056	9.022285E-007	0.0411255	7
	19	7	12609.37	6560.983	-1126.516	1	6656.992	-9.74265	-1.385275E-006	0.0443489	7
	20	8	10078.13	6658.373	-1118.887	1	6751.728	-9.53898	-1.183631E-006	0.0437001	7
	21	8	8015.625	6757.285	-1146.816	1	6853.91	-9.6322	-8.157369E-007	0.0429384	7
	22	9	6328.125	6873.37	-1206.348	1	6978.431	-9.95462	1.413107E-007	0.0415849	7
	23	9	5015.625	7009.576	-1311.35	1	7131.185	-10.5964	7.071914E-007	0.043367	7
	24	10	3984.375	7082.594	-1421.034	1	7223.744	-11.34505	5.585159E-007	0.0412345	7
	25	10	3170.956	7156.214	-1584.204	1	7329.468	-12.48252	-3.45988E-007	0.0421654	7
	26	10	2527.573	7256.112	-1794.585	1	7474.737	-13.89165	-1.180382E-006	0.0436888	7
	27	11	1976.103	7388.839	-2080.749	1	7676.227	-15.72759	-8.138992E-007	0.0429268	7
	28	11	1577.524	7533.653	-2427.594	1	7915.121	-17.86067	1.369839E-007	0.0415755	7
	29	11	1265.625	7659.865	-2827.756	1	8165.154	-20.26239	-3.463019E-007	0.0421558	7
	30	12	998.264	7867.772	-3385.56	1	8565.271	-23.28256	8.990467E-007	0.0411069	7
	31	12	796.875	8022.955	-4005.421	1	8967.229	-26.53044	1.347958E-007	0.0415747	7
	32	12	627.7902	8313.128	-4862.788	1	9630.93	-30.32562	1.1618E-006	0.0423378	7
	33	13	505.5147	8550.143	-5787.437	1	10324.7	-34.09336	6.63809E-008	0.0442553	7
	34	13	397.9953	8866.75	-7030.523	1	11315.81	-38.41121	2.100089E-010	0.0431443	6
	35	13	315.5048	9282.686	-8522.195	1	12601.43	-42.55424	2.400826E-010	0.0431515	6
	36	14	252.4038	9784.48	-10263.27	1	14179.94	-46.36812	-3.079495E-011	0.0431454	6
	37	14	198.6229	10469.79	-12533.13	1	16330.83	-50.12565	6.142106E-010	0.0431443	6
	38	14	158.3615	11296.15	-15135.9	1	18886.46	-53.26545	1.161822E-010	0.0431381	6
	39	15	125.558	12383.99	-18351.43	1	22139.06	-55.98758	4.596672E-010	0.0431406	6
	40	15	100.4464	13733.34	-22057.54	1	25983.45	-58.09301	-3.231313E-010	0.0431375	6
	41	15	79.00281	15625.51	-26826.32	1	31045.26	-59.78051	1.41855E-010	0.043139	6
	42	16	63.3446	17810.87	-32140.95	1	36745.99	-61.00702	-2.479378E-010	0.0431386	6
	43	16	49.86702	21011.31	-38759.12	1	44087.91	-61.53789	1.667197E-010	0.0431325	6
	44	16	39.72458	25090.04	-46081.25	1	52468.95	-61.43286	4.542497E-010	0.0431298	6
	45	17	31.6723	30267.67	-54373.84	1	62230.59	-60.89712	2.342421E-012	0.0431402	6
	46	17	24.93351	37130.11	-64175.58	1	74142.77	-59.94759	7.714593E-010	0.0431289	6
	47	17	19.86229	45273.66	-74407.5	1	87098.68	-58.68135	-2.185478E-009	0.0431281	6
	48	17	15.83615	55203.66	-85185.24	1	101508.5	-57.05505	8.4006E-010	0.0431384	6
	49	18	12.40079	67680.33	-97108.6	1	118366.9	-55.12525	2.601146E-009	0.0431253	5
	50	18	9.93114	79608.09	-108145.3	1	134286.4	-53.6424	2.145843E-009	0.0431195	5
	51	18	7.944915	92963.75	-119834.4	1	151665.9	-52.19682	-1.444338E-009	0.04313	5
	52	19	6.317385	107750.4	-133212	1	171334.7	-51.03186	3.770603E-010	0.0431088	5
	53	20	5.008013	122729	-148173.6	1	192400.2	-50.36578	8.076151E-010	0.0431265	5
	54	21	3.945707	138806.4	-165423.9	1	215945.1	-50.00014	1.999726E-010	0.0431167	5
	55	21	3.158693	153464.5	-185690.6	1	240899.1	-50.42788	4.301011E-010	0.043138	5
	56	22	2.504006	169475.4	-210618.4	1	270336.8	-51.17788	-2.03491E-011	0.0431288	5
	57	24	1.998082	185431.5	-241104.9	1	304165.1	-52.43645	-1.089708E-010	0.0430945	5
	58	25	1.584686	203314.3	-278909.6	1	345148.1	-53.9094	8.917917E-011	0.0431377	5
	59	27	1.266892	223330.2	-325227.3	1	394524	-55.52302	1.140916E-010	0.0431571	5
	60	30	0.999041	246967.5	-386095.3	1	458325.7	-57.39481	1.166108E-010	0.0431545	5
