EXPLAIN
TAG	EISPOT
TITLE	LABEL	Potentiostatic EIS	Test &Identifier
DATE	LABEL	2/11/2020	Date
TIME	LABEL	12:52:19	Time
NOTES	NOTES	6	&Notes...
	
	
	
	
	
	
PSTAT	PSTAT	REF600-11020	Potentiostat
VDC	POTEN	0.00000E+000	T	DC &Voltage (V)
FREQINIT	QUANT	1.00000E+006	Initial Fre&q. (Hz)
FREQFINAL	QUANT	1.00000E+000	Final Fre&q. (Hz)
PTSPERDEC	QUANT	1.00000E+001	Points/&decade
VAC	QUANT	2.50000E+001	AC &Voltage (mV rms)
AREA	QUANT	4.00000E-005	&Area (cm^2)
CONDIT	TWOPARAM	F	5.00000E+000	0.00000E+000	Conditionin&g	Time(s)	E(V)
DELAY	TWOPARAM	F	5.00000E+000	0.00000E+000	Init. De&lay	Time(s)	Stab.(mV/s)
SPEED	SELECTOR	0	&Optimize for:
ZGUESS	QUANT	1.00000E+003	E&stimated Z (ohms)
OCVCURVE	TABLE	39
	Pt	T	Vf	Vm	Ach	Over
	#	s	V vs. Ref.	V	V	bits
	0	0.258333	-5.28522E-002	-5.28522E-002	5.65938E-004	...........
	1	0.516667	-5.28521E-002	-5.28476E-002	5.62504E-004	...........
	2	0.775	-5.28510E-002	-5.28156E-002	5.61838E-004	...........
	3	1.03333	-5.28465E-002	-5.27959E-002	5.61638E-004	...........
	4	1.29167	-5.28362E-002	-5.27944E-002	5.63604E-004	...........
	5	1.55	-5.28217E-002	-5.27926E-002	5.61338E-004	...........
	6	1.80833	-5.28084E-002	-5.28096E-002	5.65371E-004	...........
	7	2.06667	-5.28002E-002	-5.27822E-002	5.64638E-004	...........
	8	2.325	-5.27960E-002	-5.27509E-002	5.58638E-004	...........
	9	2.58333	-5.27902E-002	-5.27690E-002	5.66904E-004	...........
	10	2.84167	-5.27808E-002	-5.27513E-002	5.66638E-004	...........
	11	3.1	-5.27707E-002	-5.27659E-002	5.66171E-004	...........
	12	3.35833	-5.27636E-002	-5.27519E-002	5.63138E-004	...........
	13	3.61667	-5.27597E-002	-5.27533E-002	5.63671E-004	...........
	14	3.875	-5.27573E-002	-5.27414E-002	5.63771E-004	...........
	15	4.13333	-5.27533E-002	-5.26915E-002	5.64104E-004	...........
	16	4.39167	-5.27447E-002	-5.27077E-002	5.65538E-004	...........
	17	4.65	-5.27311E-002	-5.27001E-002	5.65004E-004	...........
	18	4.90833	-5.27179E-002	-5.27450E-002	5.62838E-004	...........
	19	5.16667	-5.27125E-002	-5.27441E-002	5.68038E-004	...........
	20	5.425	-5.27176E-002	-5.27606E-002	5.61471E-004	...........
	21	5.68333	-5.27296E-002	-5.27606E-002	5.69538E-004	...........
	22	5.94167	-5.27426E-002	-5.27605E-002	5.71238E-004	...........
	23	6.2	-5.27525E-002	-5.27635E-002	5.73371E-004	...........
	24	6.45833	-5.27585E-002	-5.27650E-002	5.62471E-004	...........
	25	6.71667	-5.27616E-002	-5.27626E-002	5.64438E-004	...........
	26	6.975	-5.27632E-002	-5.27716E-002	5.71138E-004	...........
	27	7.23333	-5.27648E-002	-5.27834E-002	5.64238E-004	...........
	28	7.49167	-5.27678E-002	-5.27832E-002	5.66171E-004	...........
	29	7.75	-5.27727E-002	-5.27899E-002	5.66704E-004	...........
	30	8.00833	-5.27786E-002	-5.28052E-002	5.61838E-004	...........
	31	8.26667	-5.27850E-002	-5.27943E-002	5.66271E-004	...........
	32	8.525	-5.27910E-002	-5.28027E-002	5.66371E-004	...........
	33	8.78333	-5.27957E-002	-5.27994E-002	5.66271E-004	...........
	34	9.04167	-5.27987E-002	-5.28126E-002	5.69871E-004	...........
	35	9.3	-5.28014E-002	-5.28226E-002	5.64804E-004	...........
	36	9.5583	-5.28032E-002	-5.26986E-002	5.65304E-004	...........
	37	9.8167	-5.27975E-002	-5.27430E-002	5.64538E-004	...........
	38	10.075	-5.27816E-002	-5.28223E-002	5.64704E-004	...........
EOC	QUANT	-0.0527816	Open Circuit (V)
PSTATMODEL	IQUANT	4	Pstat Model
PSTATSECTION	LABEL	REF600-11020	Pstat Section
PSTATSERIALNO	LABEL	11020	Pstat Serial Number
CTRLMODE	IQUANT	1	Control Mode
IESTAB	IQUANT	0	I/E Stability
CASPEED	IQUANT	1	Control Amp Speed
CONVENTION	IQUANT	1	Current Convention
ICHRANGE	IQUANT	2	Ich Range
ICHRANGEMODE	TOGGLE	F	Ich Auto Range
ICHOFFSETENABLE	TOGGLE	T	Ich Offset Enable
ICHOFFSET	QUANT	0	Ich Offset (V)
ICHFILTER	IQUANT	3	Ich Filter
VCHRANGE	IQUANT	2	Vch Range
VCHRANGEMODE	TOGGLE	F	Vch Auto Range
VCHOFFSETENABLE	TOGGLE	T	Vch Offset Enable
VCHOFFSET	QUANT	0	Vch Offset (V)
VCHFILTER	IQUANT	3	Vch Filter
ACHRANGE	IQUANT	2	Ach Range
ACHOFFSETENABLE	TOGGLE	F	Ach Offset Enable
ACHOFFSET	QUANT	0	Ach Offset (V)
ACHFILTER	IQUANT	3	Ach Filter
IERANGELOWERLIMIT	IQUANT	1	I/E Range Lower Limit
IERANGEMODE	TOGGLE	F	I/E AutoRange
IERANGE	IQUANT	7	I/E Range
POSFEEDENABLE	TOGGLE	F	Positive Feedback IR Comp
POSFEEDRESISTANCE	QUANT	0	Positive Feedback Resistance (ohm)
ACHSELECT	IQUANT	0	Ach Select
CABLEID	IQUANT	14	Cable ID
DCCALDATE	LABEL	1/27/2020	DC Calibration Date
ACCALDATE	LABEL	1/27/2020	AC Calibration Date
THERMOSELECT	IQUANT	1	Thermo Select
FRAMEWORKVERSION	QUANT	6.33	Framework Version
INSTRUMENTVERSION	LABEL	3.50	Instrument Version
ZCURVE	TABLE
	Pt	Time	Freq	Zreal	Zimag	Zsig	Zmod	Zphz	Idc	Vdc	IERange
	#	s	Hz	ohm	ohm	V	ohm	°	A	V	#
	0	1	1000078	1990.079	-1987.212	1	2812.37	-44.95869	-7.608846E-006	-0.0490621	8
	1	2	794390.6	2311.33	-2096.596	1	3120.571	-42.21103	1.195676E-006	-0.0503229	8
	2	2	630984.4	2596.611	-2223.721	1	3418.673	-40.57654	2.401974E-006	-0.051517	8
	3	2	501234.4	2879.863	-2362.302	1	3724.793	-39.36144	-1.684043E-006	-0.050757	8
	4	3	398109.4	3146.563	-2497.596	1	4017.317	-38.44092	3.774007E-007	-0.0509525	8
	5	3	316265.6	3420.979	-2710.556	1	4364.654	-38.39096	4.555443E-006	-0.0519539	8
	6	3	251203.1	3701.123	-2977.578	1	4750.188	-38.81691	9.091274E-007	-0.0514373	8
	7	4	199546.9	3979.49	-3313.968	1	5178.68	-39.78625	1.456189E-006	-0.0514559	8
	8	4	158578.1	4314.294	-3732.358	1	5704.703	-40.86356	1.531713E-006	-0.0514667	8
	9	4	125953.1	4750.963	-4255.337	1	6378.051	-41.85013	-8.939048E-008	-0.0513159	7
	10	4	100078.1	5220.002	-4901.547	1	7160.558	-43.19789	7.69232E-008	-0.0513469	7
	11	5	79453.13	5817.401	-5688.584	1	8136.47	-44.35856	-2.388411E-008	-0.0512125	7
	12	5	63140.62	6592.693	-6574.182	1	9310.396	-44.91945	-2.336968E-008	-0.0512216	7
	13	5	50203.12	7618.425	-7527.875	1	10710.24	-44.65747	-5.253765E-009	-0.0512796	7
	14	6	39890.62	8925.625	-8536.84	1	12350.89	-43.72458	6.915357E-008	-0.0512462	7
	15	6	31640.63	10580.73	-9413.392	1	14162.05	-41.65863	3.543443E-008	-0.0512573	7
	16	6	25171.88	12505.2	-10066.24	1	16053.32	-38.83282	-4.381296E-009	-0.0512792	7
	17	7	20015.62	14642.54	-10404.31	1	17962.56	-35.39582	-4.064312E-008	-0.0512032	7
	18	7	15890.62	16839.8	-10341.82	1	19761.88	-31.55531	-3.485872E-009	-0.0511959	7
	19	7	12609.37	19048.35	-9742.35	1	21395.16	-27.08764	2.513755E-009	-0.0513152	6
	20	8	10078.13	20776.15	-9007.753	1	22644.82	-23.43974	6.741324E-009	-0.0512111	6
	21	8	8015.625	22221.75	-8105.556	1	23653.89	-20.03983	5.152531E-009	-0.0514177	6
	22	8	6328.125	23400.48	-7153.407	1	24469.45	-16.99812	4.627459E-009	-0.051226	6
	23	9	5015.625	24240.66	-6284.288	1	25042	-14.53373	-9.620131E-009	-0.0511429	6
	24	9	3984.375	24871.33	-5550.922	1	25483.25	-12.5814	2.600328E-009	-0.0513185	6
	25	9	3170.956	25321.37	-4977.592	1	25805.97	-11.12122	-2.252478E-009	-0.0511044	6
	26	10	2527.573	25683.04	-4574.701	1	26087.28	-10.09969	-4.996108E-009	-0.0512166	6
	27	10	1976.103	25997.83	-4314.752	1	26353.45	-9.42325	-5.663692E-009	-0.0510952	6
	28	10	1577.524	26188.95	-4248.214	1	26531.27	-9.213923	-3.033355E-009	-0.0511041	6
	29	11	1265.625	26411.55	-4343.259	1	26766.29	-9.338449	-4.871556E-009	-0.0512245	6
	30	11	998.264	26595.84	-4626.197	1	26995.2	-9.86755	3.503933E-009	-0.0513233	6
	31	11	796.875	26769.24	-5077.052	1	27246.44	-10.73916	2.101516E-009	-0.0513233	6
	32	11	627.7902	26992.65	-5796.162	1	27607.94	-12.11915	-3.662258E-009	-0.0511787	6
	33	12	505.5147	27225.47	-6663.831	1	28029.14	-13.75358	-3.988481E-009	-0.0511826	6
	34	12	397.9953	27494.32	-7908.607	1	28609.16	-16.04762	1.143301E-009	-0.0512327	6
	35	12	315.5048	27803.26	-9456.174	1	29367.33	-18.7837	1.489251E-009	-0.0512331	6
	36	13	252.4038	28189.76	-11332.74	1	30382.45	-21.90093	1.431867E-009	-0.051235	6
	37	13	198.6229	28678.52	-13844.01	1	31845.15	-25.76805	9.450816E-010	-0.0512351	6
	38	13	158.3615	29264.93	-16798.84	1	33743.7	-29.85696	1.029995E-009	-0.0512369	6
	39	14	125.558	30056.56	-20507.07	1	36385.95	-34.30504	8.430933E-010	-0.0512414	6
	40	14	100.4464	31059.2	-24926.28	1	39824.53	-38.74847	2.2725E-011	-0.0512378	6
	41	14	79.00281	32407.27	-30805.28	1	44712.38	-43.54827	5.100655E-010	-0.0512358	6
	42	15	63.3446	33489.7	-37309.77	1	50135.6	-48.08847	5.625697E-010	-0.0512374	6
	43	15	49.86702	35991.51	-45677.79	1	58153.67	-51.76389	9.343377E-010	-0.0512409	6
	44	15	39.72458	39265.28	-55508.16	1	67992.05	-54.72523	1.063847E-009	-0.0512389	6
	45	16	31.6723	42979.09	-67393.55	1	79931.8	-57.473	3.330844E-010	-0.05124	6
	46	16	24.93351	48618.62	-82165.27	1	95472	-59.38646	1.528562E-010	-0.051245	6
	47	16	19.86229	55346.82	-98850.5	1	113290.3	-60.75536	-6.116933E-010	-0.051245	5
	48	17	15.83615	64960.2	-118516.7	1	135151.9	-61.27242	-1.551258E-009	-0.0512385	5
	49	17	12.40079	75571.3	-142544.7	1	161338.2	-62.06931	1.349917E-009	-0.0512444	5
	50	17	9.93114	91187.53	-169711.2	1	192657.9	-61.75042	1.301729E-010	-0.0512458	5
	51	18	7.944915	109343.8	-199992.6	1	227932.3	-61.33284	-8.363544E-010	-0.0512299	5
	52	19	6.317385	133382.3	-234224.8	1	269540.5	-60.3401	-6.414441E-010	-0.0512338	5
	53	19	5.008013	163531.3	-272446.1	1	317756.7	-59.0264	-1.737635E-010	-0.0512455	5
	54	20	3.945707	201165.3	-314399.1	1	373248.3	-57.38723	-4.661991E-011	-0.051253	5
	55	22	3.158693	242402	-356354	1	430983.7	-55.77536	2.543605E-010	-0.0512365	5
	56	23	2.504006	291700.8	-400834.1	1	495739.2	-53.95532	-2.221952E-011	-0.0512394	5
	57	25	1.998082	343942.7	-447057.8	1	564054.3	-52.42721	-1.04568E-010	-0.0512737	5
	58	26	1.584686	401848.2	-494565.1	1	637241.4	-50.90516	6.91593E-011	-0.0512228	5
	59	28	1.266892	462241.8	-545646.3	1	715120.5	-49.73055	1.626528E-010	-0.051207	5
	60	31	0.999041	527588.9	-607144.3	1	804347.1	-49.01041	2.029684E-010	-0.0512156	5
