EXPLAIN
TAG	EISPOT
TITLE	LABEL	Potentiostatic EIS	Test &Identifier
DATE	LABEL	3/17/2020	Date
TIME	LABEL	16:47:56	Time
NOTES	NOTES	1	&Notes...
	
PSTAT	PSTAT	REF600-11020	Potentiostat
VDC	POTEN	0.00000E+000	T	DC &Voltage (V)
FREQINIT	QUANT	1.00000E+006	Initial Fre&q. (Hz)
FREQFINAL	QUANT	1.00000E+000	Final Fre&q. (Hz)
PTSPERDEC	QUANT	1.00000E+001	Points/&decade
VAC	QUANT	2.50000E+001	AC &Voltage (mV rms)
AREA	QUANT	4.00000E-004	&Area (cm^2)
CONDIT	TWOPARAM	F	5.00000E+000	0.00000E+000	Conditionin&g	Time(s)	E(V)
DELAY	TWOPARAM	T	3.00000E+000	0.00000E+000	Init. De&lay	Time(s)	Stab.(mV/s)
SPEED	SELECTOR	0	&Optimize for:
ZGUESS	QUANT	5.00000E+003	E&stimated Z (ohms)
OCVCURVE	TABLE	12
	Pt	T	Vf	Vm	Ach	Over
	#	s	V vs. Ref.	V	V	bits
	0	0.258333	1.67779E-002	1.67779E-002	5.70863E-004	...........
	1	0.516667	1.67779E-002	1.67820E-002	5.75930E-004	...........
	2	0.775	1.67784E-002	1.67836E-002	5.70663E-004	...........
	3	1.03333	1.67795E-002	1.67849E-002	5.75530E-004	...........
	4	1.29167	1.67810E-002	1.67824E-002	5.73697E-004	...........
	5	1.55	1.67825E-002	1.67849E-002	5.76163E-004	...........
	6	1.80833	1.67834E-002	1.67844E-002	5.65997E-004	...........
	7	2.06667	1.67839E-002	1.67831E-002	5.68063E-004	...........
	8	2.325	1.67841E-002	1.67856E-002	5.69630E-004	...........
	9	2.58333	1.67842E-002	1.67866E-002	5.67230E-004	...........
	10	2.84167	1.67846E-002	1.67869E-002	5.72497E-004	...........
	11	3.1	1.67852E-002	1.67854E-002	5.73430E-004	...........
EOC	QUANT	0.0167852	Open Circuit (V)
PSTATMODEL	IQUANT	4	Pstat Model
PSTATSECTION	LABEL	REF600-11020	Pstat Section
PSTATSERIALNO	LABEL	11020	Pstat Serial Number
CTRLMODE	IQUANT	1	Control Mode
IESTAB	IQUANT	0	I/E Stability
CASPEED	IQUANT	1	Control Amp Speed
CONVENTION	IQUANT	1	Current Convention
ICHRANGE	IQUANT	2	Ich Range
ICHRANGEMODE	TOGGLE	F	Ich Auto Range
ICHOFFSETENABLE	TOGGLE	T	Ich Offset Enable
ICHOFFSET	QUANT	0	Ich Offset (V)
ICHFILTER	IQUANT	3	Ich Filter
VCHRANGE	IQUANT	2	Vch Range
VCHRANGEMODE	TOGGLE	F	Vch Auto Range
VCHOFFSETENABLE	TOGGLE	T	Vch Offset Enable
VCHOFFSET	QUANT	0	Vch Offset (V)
VCHFILTER	IQUANT	3	Vch Filter
ACHRANGE	IQUANT	2	Ach Range
ACHOFFSETENABLE	TOGGLE	F	Ach Offset Enable
ACHOFFSET	QUANT	0	Ach Offset (V)
ACHFILTER	IQUANT	3	Ach Filter
IERANGELOWERLIMIT	IQUANT	1	I/E Range Lower Limit
IERANGEMODE	TOGGLE	F	I/E AutoRange
IERANGE	IQUANT	6	I/E Range
POSFEEDENABLE	TOGGLE	F	Positive Feedback IR Comp
POSFEEDRESISTANCE	QUANT	0	Positive Feedback Resistance (ohm)
ACHSELECT	IQUANT	0	Ach Select
CABLEID	IQUANT	14	Cable ID
DCCALDATE	LABEL	2/27/2020	DC Calibration Date
ACCALDATE	LABEL	2/27/2020	AC Calibration Date
THERMOSELECT	IQUANT	1	Thermo Select
FRAMEWORKVERSION	QUANT	6.33	Framework Version
INSTRUMENTVERSION	LABEL	3.50	Instrument Version
ZCURVE	TABLE
	Pt	Time	Freq	Zreal	Zimag	Zsig	Zmod	Zphz	Idc	Vdc	IERange
	#	s	Hz	ohm	ohm	V	ohm	°	A	V	#
	0	1	1000078	1727.553	-1232.741	1	2122.284	-35.51076	-4.300306E-010	0.019121	8
	1	2	794390.6	1929.948	-1267.464	1	2308.931	-33.29429	7.787166E-008	0.0188155	8
	2	2	630984.4	2134.581	-1295.598	1	2497.001	-31.25594	2.453908E-008	0.0186371	8
	3	2	501234.4	2338.653	-1316.202	1	2683.595	-29.37096	5.743481E-008	0.0185495	8
	4	3	398109.4	2545.666	-1334.29	1	2874.151	-27.66091	4.763386E-008	0.0184773	8
	5	3	316265.6	2752.342	-1344.228	1	3063.06	-26.03061	5.428097E-008	0.0184539	8
	6	3	251203.1	2952.769	-1352.235	1	3247.673	-24.60565	8.079355E-008	0.0184484	8
	7	4	199546.9	3157.855	-1354.452	1	3436.072	-23.21522	3.557093E-008	0.0184544	8
	8	4	158578.1	3361.941	-1362.31	1	3627.47	-22.05855	2.25792E-008	0.0184404	8
	9	4	125953.1	3597.337	-1309.656	1	3828.32	-20.00468	-1.166588E-010	0.0183838	7
	10	5	100078.1	3781.593	-1316.484	1	4004.194	-19.19452	2.790362E-009	0.0183774	7
	11	5	79453.13	3975.84	-1333.218	1	4193.42	-18.53784	1.707414E-009	0.0183679	7
	12	5	63140.62	4172.163	-1347.331	1	4384.318	-17.89701	2.074672E-009	0.0183653	7
	13	6	50203.12	4368.564	-1360.88	1	4575.625	-17.30268	1.130812E-009	0.0183605	7
	14	6	39890.62	4566.894	-1374.292	1	4769.192	-16.74785	1.549646E-009	0.01836	7
	15	6	31640.63	4766.716	-1388.435	1	4964.81	-16.23963	2.788873E-009	0.0183617	7
	16	7	25171.88	4963.33	-1402.101	1	5157.57	-15.77456	2.027867E-009	0.0183556	7
	17	7	20015.62	5161.625	-1419.166	1	5353.167	-15.37335	1.920083E-009	0.0183547	7
	18	7	15890.62	5359.689	-1438.101	1	5549.271	-15.01971	1.885742E-009	0.018355	7
	19	8	12609.37	5558.345	-1464.642	1	5748.076	-14.76207	2.912441E-009	0.0183606	7
	20	8	10078.13	5745.933	-1492.613	1	5936.635	-14.5618	2.232653E-009	0.0183529	7
	21	8	8015.625	5938.08	-1534.212	1	6133.074	-14.48661	3.306505E-009	0.0183573	7
	22	8	6328.125	6134.721	-1589.179	1	6337.215	-14.52304	4.037693E-009	0.018356	7
	23	9	5015.625	6327.275	-1657.969	1	6540.893	-14.68339	2.953325E-009	0.0183562	7
	24	9	3984.375	6517.184	-1745.536	1	6746.895	-14.99395	2.128695E-009	0.018343	7
	25	9	3170.956	6711.313	-1859.165	1	6964.065	-15.48377	3.279461E-009	0.0183477	7
	26	10	2527.573	6897.392	-1996.085	1	7180.416	-16.14029	2.261052E-009	0.0183396	7
	27	10	1976.103	7107.899	-2186.251	1	7436.526	-17.09687	2.289022E-009	0.0183385	7
	28	10	1577.524	7304.03	-2408.108	1	7690.763	-18.24717	1.958494E-009	0.0183365	7
	29	11	1265.625	7499.693	-2680.496	1	7964.324	-19.6676	2.551085E-009	0.0183452	7
	30	11	998.264	7712.802	-3044.269	1	8291.856	-21.53932	3.32535E-009	0.0183487	7
	31	11	796.875	7932.075	-3478.128	1	8661.131	-23.67693	2.970847E-009	0.0183452	7
	32	12	627.7902	8173.645	-4050.672	1	9122.304	-26.36197	3.431958E-009	0.0183453	7
	33	12	505.5147	8420.065	-4683.273	1	9634.86	-29.08298	-4.22261E-010	0.0183994	6
	34	12	397.9953	8709.128	-5558.596	1	10331.84	-32.54803	5.669082E-010	0.0184068	6
	35	13	315.5048	9032.802	-6618.092	1	11197.8	-36.22924	5.943778E-010	0.0184039	6
	36	13	252.4038	9387.891	-7871.566	1	12251.29	-39.97919	5.669331E-010	0.0184035	6
	37	13	198.6229	9845.75	-9536.08	1	13706.78	-44.08464	3.909025E-010	0.0184038	6
	38	14	158.3615	10375.88	-11476.08	1	15471.24	-47.88227	5.305626E-010	0.0184013	6
	39	14	125.558	11061.65	-13912.5	1	17774.07	-51.51224	3.680424E-010	0.0184009	6
	40	14	100.4464	11899.95	-16763.61	1	20557.9	-54.63029	1.968258E-010	0.0183987	6
	41	15	79.00281	13068.92	-20489.92	1	24302.95	-57.46938	2.185673E-010	0.0184025	6
	42	15	63.3446	14472.18	-24623.71	1	28561.71	-59.55582	5.397797E-011	0.0184008	6
	43	15	49.86702	16451.96	-29981.05	1	34198.4	-61.24443	3.672947E-010	0.0183997	6
	44	16	39.72458	18911.77	-36043.8	1	40703.94	-62.31452	-1.889065E-011	0.0184026	6
	45	16	31.6723	22066.22	-43132.14	1	48448.95	-62.90591	-3.179581E-010	0.0183975	6
	46	16	24.93351	26338.5	-51828.17	1	58136.7	-63.06083	1.093147E-009	0.0183965	6
	47	17	19.86229	31470.01	-61374.04	1	68971.98	-62.85316	1.784644E-009	0.0184029	6
	48	17	15.83615	37828.9	-72330.55	1	81625.58	-62.39042	-2.955854E-010	0.0183975	6
	49	17	12.40079	46337.64	-85557.05	1	97299.5	-61.56005	1.545692E-009	0.0183981	6
	50	17	9.93114	55619.29	-99215	1	113741.4	-60.72529	1.565032E-010	0.0184062	5
	51	18	7.944915	66660.66	-114258.9	1	132282.8	-59.73995	-1.883897E-009	0.0184064	5
	52	18	6.317385	79936.48	-131523.9	1	153910.3	-58.70995	6.814453E-010	0.0183828	5
	53	19	5.008013	95527.8	-150979.8	1	178663	-57.67768	6.45105E-010	0.0184049	5
	54	20	3.945707	113409.9	-172664.6	1	206579	-56.70219	-2.871799E-010	0.0183971	5
	55	21	3.158693	132004.8	-195457.6	1	235857.9	-55.96636	3.715286E-010	0.0183972	5
	56	22	2.504006	152520.5	-221994.7	1	269340.2	-55.50916	1.449059E-010	0.0184061	5
	57	23	1.998082	174084	-251958	1	306248.4	-55.35845	-1.646606E-010	0.0183604	5
	58	25	1.584686	196447.5	-288021.5	1	348637.3	-55.70372	-2.712792E-011	0.0183832	5
	59	27	1.266892	220596	-329364.5	1	396413.4	-56.1873	8.538696E-011	0.0184197	5
	60	29	0.999041	248669.1	-383828.8	1	457341.1	-57.06223	1.241827E-010	0.018434	5
