EXPLAIN
TAG	EISPOT
TITLE	LABEL	Potentiostatic EIS	Test &Identifier
DATE	LABEL	3/20/2020	Date
TIME	LABEL	15:27:09	Time
NOTES	NOTES	1	&Notes...
	
PSTAT	PSTAT	REF600-11020	Potentiostat
VDC	POTEN	0.00000E+000	T	DC &Voltage (V)
FREQINIT	QUANT	1.00000E+006	Initial Fre&q. (Hz)
FREQFINAL	QUANT	1.00000E+000	Final Fre&q. (Hz)
PTSPERDEC	QUANT	1.00000E+001	Points/&decade
VAC	QUANT	2.50000E+001	AC &Voltage (mV rms)
AREA	QUANT	4.00000E-004	&Area (cm^2)
CONDIT	TWOPARAM	F	5.00000E+000	0.00000E+000	Conditionin&g	Time(s)	E(V)
DELAY	TWOPARAM	T	3.00000E+000	0.00000E+000	Init. De&lay	Time(s)	Stab.(mV/s)
SPEED	SELECTOR	0	&Optimize for:
ZGUESS	QUANT	1.00000E+003	E&stimated Z (ohms)
OCVCURVE	TABLE	12
	Pt	T	Vf	Vm	Ach	Over
	#	s	V vs. Ref.	V	V	bits
	0	0.258333	1.93190E-001	1.93190E-001	5.90130E-004	...........
	1	0.516667	1.93191E-001	1.93211E-001	5.86563E-004	...........
	2	0.775	1.93193E-001	1.93225E-001	5.82497E-004	...........
	3	1.03333	1.93199E-001	1.93212E-001	5.85830E-004	...........
	4	1.29167	1.93207E-001	1.93224E-001	5.88396E-004	...........
	5	1.55	1.93214E-001	1.93238E-001	5.84463E-004	...........
	6	1.80833	1.93219E-001	1.93217E-001	5.83430E-004	...........
	7	2.06667	1.93223E-001	1.93226E-001	5.85263E-004	...........
	8	2.325	1.93226E-001	1.93231E-001	5.85330E-004	...........
	9	2.58333	1.93227E-001	1.93243E-001	5.82963E-004	...........
	10	2.84167	1.93229E-001	1.93249E-001	5.81730E-004	...........
	11	3.1	1.93234E-001	1.93249E-001	5.88730E-004	...........
EOC	QUANT	0.1932335	Open Circuit (V)
PSTATMODEL	IQUANT	4	Pstat Model
PSTATSECTION	LABEL	REF600-11020	Pstat Section
PSTATSERIALNO	LABEL	11020	Pstat Serial Number
CTRLMODE	IQUANT	1	Control Mode
IESTAB	IQUANT	0	I/E Stability
CASPEED	IQUANT	1	Control Amp Speed
CONVENTION	IQUANT	1	Current Convention
ICHRANGE	IQUANT	2	Ich Range
ICHRANGEMODE	TOGGLE	F	Ich Auto Range
ICHOFFSETENABLE	TOGGLE	T	Ich Offset Enable
ICHOFFSET	QUANT	0	Ich Offset (V)
ICHFILTER	IQUANT	3	Ich Filter
VCHRANGE	IQUANT	2	Vch Range
VCHRANGEMODE	TOGGLE	F	Vch Auto Range
VCHOFFSETENABLE	TOGGLE	T	Vch Offset Enable
VCHOFFSET	QUANT	0	Vch Offset (V)
VCHFILTER	IQUANT	3	Vch Filter
ACHRANGE	IQUANT	2	Ach Range
ACHOFFSETENABLE	TOGGLE	F	Ach Offset Enable
ACHOFFSET	QUANT	0	Ach Offset (V)
ACHFILTER	IQUANT	3	Ach Filter
IERANGELOWERLIMIT	IQUANT	1	I/E Range Lower Limit
IERANGEMODE	TOGGLE	F	I/E AutoRange
IERANGE	IQUANT	8	I/E Range
POSFEEDENABLE	TOGGLE	F	Positive Feedback IR Comp
POSFEEDRESISTANCE	QUANT	0	Positive Feedback Resistance (ohm)
ACHSELECT	IQUANT	0	Ach Select
CABLEID	IQUANT	14	Cable ID
DCCALDATE	LABEL	2/27/2020	DC Calibration Date
ACCALDATE	LABEL	2/27/2020	AC Calibration Date
THERMOSELECT	IQUANT	1	Thermo Select
FRAMEWORKVERSION	QUANT	6.33	Framework Version
INSTRUMENTVERSION	LABEL	3.50	Instrument Version
ZCURVE	TABLE
	Pt	Time	Freq	Zreal	Zimag	Zsig	Zmod	Zphz	Idc	Vdc	IERange
	#	s	Hz	ohm	ohm	V	ohm	°	A	V	#
	0	1	1000078	1816.059	-2213.824	1	2863.405	-50.63706	3.730662E-007	0.1955025	8
	1	2	794390.6	2218.882	-2417.027	1	3281.075	-47.44741	-2.500874E-007	0.1952689	8
	2	2	630984.4	2675.008	-2584.437	1	3719.54	-44.01343	3.177302E-008	0.1950794	8
	3	2	501234.4	3162.593	-2690.652	1	4152.301	-40.39027	1.320408E-008	0.1949819	8
	4	2	398109.4	3675.853	-2744.516	1	4587.403	-36.74626	2.326428E-007	0.1948785	8
	5	3	316265.6	4180.932	-2736.337	1	4996.772	-33.20395	-2.853089E-009	0.1948745	8
	6	3	251203.1	4676.755	-2685.37	1	5392.889	-29.86423	2.184316E-007	0.194846	8
	7	3	199546.9	5135.896	-2571.754	1	5743.81	-26.59901	-1.564074E-007	0.1949436	8
	8	4	158578.1	5558.986	-2448.693	1	6074.408	-23.77315	1.975294E-007	0.1948214	8
	9	4	125953.1	5985.402	-2236.281	1	6389.521	-20.48682	-1.058091E-007	0.1950673	7
	10	4	100078.1	6296.765	-2075.406	1	6629.974	-18.24216	2.404661E-009	0.1947948	7
	11	5	79453.13	6593.063	-1929.177	1	6869.513	-16.30985	-3.153132E-009	0.1948061	7
	12	5	63140.62	6848.891	-1782.044	1	7076.933	-14.58465	1.347489E-009	0.194786	7
	13	5	50203.12	7070.299	-1648.82	1	7260.009	-13.12698	-1.162696E-009	0.1947957	7
	14	6	39890.62	7262.552	-1532.526	1	7422.486	-11.91561	3.655939E-009	0.1947756	7
	15	6	31640.63	7433.449	-1439.608	1	7571.568	-10.96057	4.301971E-009	0.1947839	7
	16	6	25171.88	7582.886	-1371.89	1	7705.988	-10.25498	-1.725273E-009	0.1947926	7
	17	7	20015.62	7721.495	-1331.457	1	7835.449	-9.7836	-2.461308E-009	0.1947937	7
	18	7	15890.62	7852.538	-1315.92	1	7962.035	-9.51317	6.57511E-011	0.1947739	7
	19	7	12609.37	7980.643	-1330.741	1	8090.83	-9.466749	-2.858866E-009	0.1947909	7
	20	7	10078.13	8105.261	-1372.042	1	8220.569	-9.60783	-1.12487E-009	0.1947813	7
	21	8	8015.625	8240.105	-1444.276	1	8365.72	-9.94148	4.817178E-009	0.1947902	7
	22	8	6328.125	8385.288	-1549.888	1	8527.321	-10.47203	3.707193E-009	0.1947892	7
	23	8	5015.625	8537.228	-1685.537	1	8702.028	-11.16849	-2.091881E-009	0.1947902	7
	24	9	3984.375	8698.106	-1854.841	1	8893.677	-12.03782	5.093475E-009	0.1947646	7
	25	9	3170.956	8882.836	-2038.636	1	9113.771	-12.9257	-4.719487E-010	0.194842	6
	26	9	2527.573	9071.686	-2289.932	1	9356.242	-14.16701	-5.175786E-010	0.1948196	6
	27	10	1976.103	9287.039	-2617.67	1	9648.9	-15.74117	-7.527657E-010	0.1948383	6
	28	10	1577.524	9502.21	-2980.195	1	9958.59	-17.41308	-3.063769E-011	0.1948138	6
	29	10	1265.625	9724.7	-3406.648	1	10304.13	-19.30581	-4.371092E-010	0.194827	6
	30	11	998.264	9980.93	-3968.294	1	10740.87	-21.68216	-1.029006E-009	0.1948348	6
	31	11	796.875	10246.32	-4622.923	1	11240.93	-24.28388	-1.050625E-009	0.1948247	6
	32	11	627.7902	10553.58	-5475.517	1	11889.46	-27.42166	-6.959768E-010	0.1948386	6
	33	12	505.5147	10872.2	-6424.338	1	12628.42	-30.57866	-8.540391E-010	0.1948338	6
	34	12	397.9953	11268.84	-7709.784	1	13653.85	-34.37869	3.494601E-010	0.1948403	6
	35	12	315.5048	11725.92	-9248.588	1	14934.31	-38.2639	3.439738E-010	0.1948363	6
	36	13	252.4038	12247.79	-11054.28	1	16498.65	-42.06794	3.397204E-010	0.1948365	6
	37	13	198.6229	12928.63	-13425.25	1	18638.32	-46.07957	4.184432E-010	0.1948356	6
	38	13	158.3615	13720.65	-16161.1	1	21199.94	-49.669	3.928349E-010	0.1948326	6
	39	14	125.558	14724.95	-19558.42	1	24481.75	-53.025	4.911684E-010	0.1948371	6
	40	14	100.4464	15924	-23498.18	1	28385.53	-55.87571	5.341762E-010	0.1948332	6
	41	14	79.00281	17523.75	-28611.03	1	33551.05	-58.51327	5.115845E-010	0.194829	6
	42	15	63.3446	19348.23	-34241.21	1	39329.56	-60.53108	3.83389E-010	0.1948293	6
	43	15	49.86702	21773.82	-41596.3	1	46950.52	-62.36994	1.21552E-010	0.1948223	6
	44	15	39.72458	24573.99	-49999.14	1	55711.71	-63.82643	3.149239E-010	0.1948294	6
	45	16	31.6723	27993.86	-60045.96	1	66250.84	-65.00473	1.829881E-010	0.1948285	6
	46	16	24.93351	32493.45	-72858.63	1	79775.96	-65.96411	7.569247E-010	0.194828	6
	47	16	19.86229	37829.2	-87545.79	1	95369.4	-66.63046	1.412525E-009	0.1948409	6
	48	16	15.83615	44697.36	-105087.5	1	114198.2	-66.95826	-5.283269E-010	0.1948313	5
	49	17	12.40079	54305.63	-127595.7	1	138671.4	-66.94505	5.135564E-010	0.1948306	5
	50	17	9.93114	65570.47	-151874.9	1	165425.1	-66.64821	3.473647E-010	0.1948358	5
	51	17	7.944915	80212.63	-179957.4	1	197024.7	-65.97598	-7.398242E-010	0.1948319	5
	52	18	6.317385	98980	-213231.3	1	235084.3	-65.09971	1.68915E-010	0.1948171	5
	53	19	5.008013	123076.9	-251491	1	279992.2	-63.92339	2.263057E-010	0.1948286	5
	54	20	3.945707	153304.7	-295016.7	1	332471.4	-62.54146	-2.460988E-010	0.1948225	5
	55	20	3.158693	187785.8	-340360.7	1	388727.3	-61.11334	1.409398E-010	0.1948215	5
	56	21	2.504006	229315.9	-392104.7	1	454237.7	-59.67947	1.036429E-010	0.1948255	5
	57	23	1.998082	276626.8	-446799.2	1	525501.6	-58.23711	-1.617378E-010	0.194777	5
	58	24	1.584686	330176.8	-509410.6	1	607055.1	-57.05053	-1.261971E-010	0.1947981	5
	59	26	1.266892	389628.6	-574509.9	1	694170.1	-55.85515	-4.931398E-011	0.194831	5
	60	29	0.999041	461384.9	-652768.2	1	799363.8	-54.74684	1.078961E-011	0.194854	5
