EXPLAIN
TAG	EISPOT
TITLE	LABEL	Potentiostatic EIS	Test &Identifier
DATE	LABEL	2/25/2020	Date
TIME	LABEL	15:45:14	Time
NOTES	NOTES	1	&Notes...
	
PSTAT	PSTAT	REF600-11020	Potentiostat
VDC	POTEN	0.00000E+000	T	DC &Voltage (V)
FREQINIT	QUANT	1.00000E+006	Initial Fre&q. (Hz)
FREQFINAL	QUANT	1.00000E+000	Final Fre&q. (Hz)
PTSPERDEC	QUANT	1.00000E+001	Points/&decade
VAC	QUANT	2.50000E+001	AC &Voltage (mV rms)
AREA	QUANT	1.60000E-004	&Area (cm^2)
CONDIT	TWOPARAM	F	1.50000E+001	0.00000E+000	Conditionin&g	Time(s)	E(V)
DELAY	TWOPARAM	F	1.00000E+002	0.00000E+000	Init. De&lay	Time(s)	Stab.(mV/s)
SPEED	SELECTOR	1	&Optimize for:
ZGUESS	QUANT	1.00000E+003	E&stimated Z (ohms)
OCVCURVE	TABLE	39
	Pt	T	Vf	Vm	Ach	Over
	#	s	V vs. Ref.	V	V	bits
	0	0.258333	7.94044E-002	7.94044E-002	5.31938E-004	...........
	1	0.516667	7.93897E-002	7.86385E-002	5.30872E-004	...........
	2	0.775	7.93066E-002	7.82641E-002	5.30672E-004	...........
	3	1.03333	7.91120E-002	7.88589E-002	5.28338E-004	...........
	4	1.29167	7.88734E-002	7.87408E-002	5.35105E-004	...........
	5	1.55	7.87133E-002	7.85167E-002	5.43671E-004	...........
	6	1.80833	7.86586E-002	7.87970E-002	5.40305E-004	...........
	7	2.06667	7.86531E-002	7.85403E-002	5.32905E-004	...........
	8	2.325	7.86525E-002	7.85524E-002	5.33138E-004	...........
	9	2.58333	7.86370E-002	7.85081E-002	5.35271E-004	...........
	10	2.84167	7.86028E-002	7.84978E-002	5.36771E-004	...........
	11	3.1	7.85609E-002	7.84328E-002	5.37138E-004	...........
	12	3.35833	7.85209E-002	7.84062E-002	5.31638E-004	...........
	13	3.61667	7.84833E-002	7.83900E-002	5.32838E-004	...........
	14	3.875	7.84480E-002	7.83593E-002	5.38471E-004	...........
	15	4.13333	7.84164E-002	7.83442E-002	5.40305E-004	...........
	16	4.39167	7.83891E-002	7.83132E-002	5.37971E-004	...........
	17	4.65	7.83649E-002	7.83080E-002	5.36305E-004	...........
	18	4.90833	7.83427E-002	7.82778E-002	5.37605E-004	...........
	19	5.16667	7.83221E-002	7.82587E-002	5.32571E-004	...........
	20	5.425	7.83020E-002	7.82439E-002	5.36171E-004	...........
	21	5.68333	7.82822E-002	7.82266E-002	5.32805E-004	...........
	22	5.94167	7.82633E-002	7.82223E-002	5.34171E-004	...........
	23	6.2	7.82464E-002	7.81989E-002	5.33038E-004	...........
	24	6.45833	7.82315E-002	7.81924E-002	5.37105E-004	...........
	25	6.71667	7.82175E-002	7.81672E-002	5.35971E-004	...........
	26	6.975	7.82033E-002	7.81550E-002	5.35705E-004	...........
	27	7.23333	7.81882E-002	7.81497E-002	5.34205E-004	...........
	28	7.49167	7.81734E-002	7.81378E-002	5.31905E-004	...........
	29	7.75	7.81604E-002	7.81380E-002	5.36138E-004	...........
	30	8.00833	7.81497E-002	7.81123E-002	5.33171E-004	...........
	31	8.26667	7.81400E-002	7.80995E-002	5.36071E-004	...........
	32	8.525	7.81291E-002	7.80859E-002	5.37571E-004	...........
	33	8.78333	7.81160E-002	7.80737E-002	5.35205E-004	...........
	34	9.04167	7.81020E-002	7.80656E-002	5.39605E-004	...........
	35	9.3	7.80886E-002	7.80538E-002	5.37805E-004	...........
	36	9.5583	7.80765E-002	7.80440E-002	5.32272E-004	...........
	37	9.8167	7.80655E-002	7.80371E-002	5.36271E-004	...........
	38	10.075	7.80553E-002	7.80231E-002	5.31072E-004	...........
EOC	QUANT	0.0780553	Open Circuit (V)
PSTATMODEL	IQUANT	4	Pstat Model
PSTATSECTION	LABEL	REF600-11020	Pstat Section
PSTATSERIALNO	LABEL	11020	Pstat Serial Number
CTRLMODE	IQUANT	1	Control Mode
IESTAB	IQUANT	0	I/E Stability
CASPEED	IQUANT	1	Control Amp Speed
CONVENTION	IQUANT	1	Current Convention
ICHRANGE	IQUANT	2	Ich Range
ICHRANGEMODE	TOGGLE	F	Ich Auto Range
ICHOFFSETENABLE	TOGGLE	T	Ich Offset Enable
ICHOFFSET	QUANT	0	Ich Offset (V)
ICHFILTER	IQUANT	3	Ich Filter
VCHRANGE	IQUANT	2	Vch Range
VCHRANGEMODE	TOGGLE	F	Vch Auto Range
VCHOFFSETENABLE	TOGGLE	T	Vch Offset Enable
VCHOFFSET	QUANT	0	Vch Offset (V)
VCHFILTER	IQUANT	3	Vch Filter
ACHRANGE	IQUANT	2	Ach Range
ACHOFFSETENABLE	TOGGLE	F	Ach Offset Enable
ACHOFFSET	QUANT	0	Ach Offset (V)
ACHFILTER	IQUANT	3	Ach Filter
IERANGELOWERLIMIT	IQUANT	1	I/E Range Lower Limit
IERANGEMODE	TOGGLE	F	I/E AutoRange
IERANGE	IQUANT	8	I/E Range
POSFEEDENABLE	TOGGLE	F	Positive Feedback IR Comp
POSFEEDRESISTANCE	QUANT	0	Positive Feedback Resistance (ohm)
ACHSELECT	IQUANT	0	Ach Select
CABLEID	IQUANT	14	Cable ID
DCCALDATE	LABEL	1/27/2020	DC Calibration Date
ACCALDATE	LABEL	1/27/2020	AC Calibration Date
THERMOSELECT	IQUANT	1	Thermo Select
FRAMEWORKVERSION	QUANT	6.33	Framework Version
INSTRUMENTVERSION	LABEL	3.50	Instrument Version
ZCURVE	TABLE
	Pt	Time	Freq	Zreal	Zimag	Zsig	Zmod	Zphz	Idc	Vdc	IERange
	#	s	Hz	ohm	ohm	V	ohm	°	A	V	#
	0	1	1000078	1467.13	-2060.419	1	2529.386	-54.54707	-2.297304E-006	0.0804753	8
	1	2	794390.6	1865.947	-2299.916	1	2961.65	-50.94721	2.85768E-006	0.0793611	8
	2	4	630984.4	2298.635	-2480.469	1	3381.782	-47.17892	-7.260298E-007	0.0796447	8
	3	5	501234.4	2795.21	-2597.346	1	3815.679	-42.89864	2.767024E-006	0.0792274	8
	4	7	398109.4	3294.147	-2664.722	1	4236.997	-38.9703	-2.623717E-006	0.0800588	8
	5	8	316265.6	3775.073	-2645.766	1	4609.908	-35.02476	2.705164E-006	0.0791468	8
	6	9	251203.1	4246.713	-2575.59	1	4966.713	-31.23641	9.026117E-008	0.0794646	8
	7	11	199546.9	4661.191	-2491.147	1	5285.123	-28.12202	-2.242823E-006	0.0799882	8
	8	12	158578.1	5007.6	-2369.232	1	5539.793	-25.32011	1.102662E-006	0.079256	8
	9	13	125953.1	5369.893	-2272.997	1	5831.146	-22.94223	3.661452E-008	0.079246	7
	10	15	100078.1	5652.494	-2207.34	1	6068.199	-21.33101	-1.075694E-008	0.0794375	7
	11	16	79453.13	5913.208	-2170.245	1	6298.888	-20.15397	-1.826109E-009	0.0794856	7
	12	17	63140.62	6159.047	-2165.476	1	6528.64	-19.3713	1.236848E-008	0.0794232	7
	13	19	50203.12	6394.774	-2201.573	1	6763.14	-18.9974	-2.334576E-008	0.0794943	7
	14	20	39890.62	6631.625	-2270.056	1	7009.394	-18.89647	7.06508E-008	0.079351	7
	15	22	31640.63	6871.317	-2385.441	1	7273.605	-19.14492	6.207824E-010	0.0794703	7
	16	23	25171.88	7122.316	-2538.337	1	7561.121	-19.61567	-2.867852E-008	0.0794633	7
	17	24	20015.62	7389.567	-2741.817	1	7881.831	-20.35682	4.785502E-008	0.0793096	7
	18	26	15890.62	7677.953	-2996.82	1	8242.081	-21.32145	4.07075E-008	0.0793576	7
	19	27	12609.37	7993.504	-3312.038	1	8652.497	-22.50624	1.623666E-008	0.0794409	7
	20	28	10078.13	8329.571	-3675.617	1	9104.5	-23.81058	2.065836E-008	0.0793503	7
	21	30	8015.625	8723.14	-4092.288	1	9635.35	-25.13269	-8.984758E-010	0.0794878	6
	22	31	6328.125	9163.351	-4642.711	1	10272.38	-26.86955	1.479501E-009	0.0793209	6
	23	32	5015.625	9627.42	-5277.494	1	10979.04	-28.73037	3.482413E-009	0.0794433	6
	24	34	3984.375	10159.4	-6022.257	1	11810.2	-30.65849	-5.677775E-011	0.0793926	6
	25	35	3170.956	10746.99	-6886.07	1	12763.85	-32.64947	-9.107782E-010	0.0794908	6
	26	37	2527.573	11406.72	-7894.062	1	13871.9	-34.68531	-9.759049E-010	0.0794597	6
	27	38	1976.103	12231.59	-9181.856	1	15294.39	-36.89436	2.594398E-009	0.0793308	6
	28	39	1577.524	13093.56	-10587.38	1	16838.47	-38.95881	-3.711101E-009	0.0794958	6
	29	41	1265.625	14058.53	-12181.16	1	18601.7	-40.90763	-4.531921E-010	0.0793918	6
	30	42	998.264	15260.96	-14211.37	1	20853.29	-42.96042	1.64727E-009	0.0793186	6
	31	43	796.875	16588.84	-16453.37	1	23364.56	-44.76509	7.263263E-009	0.0792722	6
	32	45	627.7902	18233.01	-19255.09	1	26517.94	-46.56173	-5.644641E-010	0.0793883	6
	33	46	505.5147	19987.64	-22222.38	1	29888.8	-48.0306	-5.069442E-010	0.0793828	6
	34	47	397.9953	22248.04	-26018.87	1	34233.86	-49.46713	5.458344E-010	0.0794282	6
	35	49	315.5048	24852.81	-30338.05	1	39218.1	-50.6758	8.416688E-010	0.0794276	6
	36	50	252.4038	27767.74	-35134.67	1	44782.72	-51.67987	5.295991E-010	0.0794235	6
	37	52	198.6229	31463.84	-41117.36	1	51774.61	-52.57605	5.878079E-010	0.0794267	6
	38	53	158.3615	35552.54	-47666.41	1	59464.86	-53.28216	3.542416E-010	0.0794198	6
	39	54	125.558	40502.48	-55430.71	1	68651.41	-53.8449	7.370526E-010	0.0794224	6
	40	56	100.4464	45843.45	-64020.19	1	78741.39	-54.39438	1.106711E-009	0.0794224	6
	41	57	79.00281	53223.35	-74492.16	1	91552.21	-54.45486	1.012277E-009	0.0794228	6
	42	58	63.3446	60991.32	-87743.41	1	106859	-55.19645	2.552932E-010	0.0794164	5
	43	60	49.86702	68683.17	-99372.4	1	120798.4	-55.34894	5.701485E-010	0.079417	5
	44	61	39.72458	80198.87	-115438.9	1	140563.1	-55.21113	1.919099E-011	0.0794206	5
	45	63	31.6723	92396.02	-132565.3	1	161587.7	-55.12409	2.999153E-010	0.0794146	5
	46	64	24.93351	107954	-153903.1	1	187990	-54.95259	-1.705025E-010	0.0794155	5
	47	66	19.86229	124525.4	-176556.3	1	216052.5	-54.80463	-1.651142E-011	0.0794277	5
	48	67	15.83615	142751.1	-204708.5	1	249566.5	-55.11044	-7.031766E-010	0.0794205	5
	49	68	12.40079	167133.3	-230964.4	1	285093.1	-54.10929	9.053214E-010	0.0794161	5
	50	70	9.93114	189789.8	-266567.9	1	327228.7	-54.55007	3.936625E-010	0.0794148	5
	51	71	7.944915	215517.7	-304546.8	1	373090.7	-54.71423	-3.305257E-010	0.0794125	5
	52	73	6.317385	246059.8	-351709.2	1	429237.4	-55.02292	1.956586E-010	0.0794056	5
	53	75	5.008013	281415	-406543.1	1	494440.8	-55.30846	9.140896E-011	0.0794229	5
	54	78	3.945707	323620.9	-473119.4	1	573212.4	-55.62727	-3.201362E-011	0.0794142	5
	55	80	3.158693	370153.1	-545796.5	1	659474.9	-55.85532	1.665538E-010	0.0794278	5
	56	84	2.504006	427448.3	-633376.4	1	764118.9	-55.98567	-4.061745E-011	0.0794226	5
	57	86	1.998082	492687.5	-731106.1	1	881621.9	-56.02423	1.128747E-010	0.0793725	5
	58	90	1.584686	571421.3	-848022.5	1	1022577	-56.02681	-3.051034E-011	0.0793758	4
	59	93	1.266892	664409.8	-977475	1	1181904	-55.79525	6.246031E-012	0.0793235	4
	60	98	0.999041	779680	-1131113	1	1373796	-55.42136	8.843115E-011	0.079412	4
