EXPLAIN
TAG	EISPOT
TITLE	LABEL	Potentiostatic EIS	Test &Identifier
DATE	LABEL	7/30/2020	Date
TIME	LABEL	23:15:25	Time
NOTES	NOTES	1	&Notes...
	
PSTAT	PSTAT	REF600-11020	Potentiostat
VDC	POTEN	0.00000E+000	T	DC &Voltage (V)
FREQINIT	QUANT	1.00000E+006	Initial Fre&q. (Hz)
FREQFINAL	QUANT	1.00000E+000	Final Fre&q. (Hz)
PTSPERDEC	QUANT	1.00000E+001	Points/&decade
VAC	QUANT	2.50000E+001	AC &Voltage (mV rms)
AREA	QUANT	4.00000E-005	&Area (cm^2)
CONDIT	TWOPARAM	F	5.00000E+000	0.00000E+000	Conditionin&g	Time(s)	E(V)
DELAY	TWOPARAM	F	3.00000E+000	0.00000E+000	Init. De&lay	Time(s)	Stab.(mV/s)
SPEED	SELECTOR	0	&Optimize for:
ZGUESS	QUANT	1.00000E+003	E&stimated Z (ohms)
OCVCURVE	TABLE	39
	Pt	T	Vf	Vm	Ach	Over
	#	s	V vs. Ref.	V	V	bits
	0	0.258333	-1.88336E-002	-1.88336E-002	5.24017E-004	...........
	1	0.516667	-1.88340E-002	-1.88563E-002	5.20283E-004	...........
	2	0.775	-1.88366E-002	-1.88757E-002	5.24583E-004	...........
	3	1.03333	-1.88439E-002	-1.88936E-002	5.26883E-004	...........
	4	1.29167	-1.88566E-002	-1.89115E-002	5.28817E-004	...........
	5	1.55	-1.88732E-002	-1.89323E-002	5.30183E-004	...........
	6	1.80833	-1.88916E-002	-1.89486E-002	5.25450E-004	...........
	7	2.06667	-1.89105E-002	-1.89661E-002	5.23717E-004	...........
	8	2.325	-1.89290E-002	-1.89808E-002	5.23083E-004	...........
	9	2.58333	-1.89468E-002	-1.89965E-002	5.24283E-004	...........
	10	2.84167	-1.89636E-002	-1.90104E-002	5.27050E-004	...........
	11	3.1	-1.89796E-002	-1.90298E-002	5.23017E-004	...........
	12	3.35833	-1.89953E-002	-1.90453E-002	5.24683E-004	...........
	13	3.61667	-1.90112E-002	-1.90644E-002	5.26117E-004	...........
	14	3.875	-1.90277E-002	-1.90758E-002	5.26217E-004	...........
	15	4.13333	-1.90442E-002	-1.90903E-002	5.25717E-004	...........
	16	4.39167	-1.90602E-002	-1.91077E-002	5.24550E-004	...........
	17	4.65	-1.90754E-002	-1.91188E-002	5.26017E-004	...........
	18	4.90833	-1.90901E-002	-1.91315E-002	5.26050E-004	...........
	19	5.16667	-1.91043E-002	-1.91480E-002	5.30383E-004	...........
	20	5.425	-1.91182E-002	-1.91613E-002	5.26483E-004	...........
	21	5.68333	-1.91320E-002	-1.91748E-002	5.27217E-004	...........
	22	5.94167	-1.91459E-002	-1.91865E-002	5.26383E-004	...........
	23	6.2	-1.91597E-002	-1.91998E-002	5.31917E-004	...........
	24	6.45833	-1.91730E-002	-1.92128E-002	5.27183E-004	...........
	25	6.71667	-1.91860E-002	-1.92270E-002	5.30083E-004	...........
	26	6.975	-1.91990E-002	-1.92389E-002	5.25083E-004	...........
	27	7.23333	-1.92121E-002	-1.92507E-002	5.31283E-004	...........
	28	7.49167	-1.92250E-002	-1.92639E-002	5.30750E-004	...........
	29	7.75	-1.92377E-002	-1.92755E-002	5.32050E-004	...........
	30	8.00833	-1.92502E-002	-1.92881E-002	5.36716E-004	...........
	31	8.26667	-1.92625E-002	-1.93006E-002	5.38416E-004	...........
	32	8.525	-1.92748E-002	-1.93137E-002	5.33250E-004	...........
	33	8.78333	-1.92872E-002	-1.93248E-002	5.36950E-004	...........
	34	9.04167	-1.92997E-002	-1.93402E-002	5.36783E-004	...........
	35	9.3	-1.93123E-002	-1.93518E-002	5.32417E-004	...........
	36	9.5583	-1.93251E-002	-1.93623E-002	5.35150E-004	...........
	37	9.8167	-1.93378E-002	-1.93747E-002	5.37150E-004	...........
	38	10.075	-1.93501E-002	-1.93870E-002	5.33583E-004	...........
EOC	QUANT	-0.0193501	Open Circuit (V)
PSTATMODEL	IQUANT	4	Pstat Model
PSTATSECTION	LABEL	REF600-11020	Pstat Section
PSTATSERIALNO	LABEL	11020	Pstat Serial Number
CTRLMODE	IQUANT	1	Control Mode
IESTAB	IQUANT	0	I/E Stability
CASPEED	IQUANT	1	Control Amp Speed
CONVENTION	IQUANT	1	Current Convention
ICHRANGE	IQUANT	2	Ich Range
ICHRANGEMODE	TOGGLE	F	Ich Auto Range
ICHOFFSETENABLE	TOGGLE	T	Ich Offset Enable
ICHOFFSET	QUANT	0	Ich Offset (V)
ICHFILTER	IQUANT	3	Ich Filter
VCHRANGE	IQUANT	2	Vch Range
VCHRANGEMODE	TOGGLE	F	Vch Auto Range
VCHOFFSETENABLE	TOGGLE	T	Vch Offset Enable
VCHOFFSET	QUANT	0	Vch Offset (V)
VCHFILTER	IQUANT	3	Vch Filter
ACHRANGE	IQUANT	2	Ach Range
ACHOFFSETENABLE	TOGGLE	F	Ach Offset Enable
ACHOFFSET	QUANT	0	Ach Offset (V)
ACHFILTER	IQUANT	3	Ach Filter
IERANGELOWERLIMIT	IQUANT	1	I/E Range Lower Limit
IERANGEMODE	TOGGLE	F	I/E AutoRange
IERANGE	IQUANT	7	I/E Range
POSFEEDENABLE	TOGGLE	F	Positive Feedback IR Comp
POSFEEDRESISTANCE	QUANT	0	Positive Feedback Resistance (ohm)
ACHSELECT	IQUANT	0	Ach Select
CABLEID	IQUANT	14	Cable ID
DCCALDATE	LABEL	6/26/2020	DC Calibration Date
ACCALDATE	LABEL	6/26/2020	AC Calibration Date
THERMOSELECT	IQUANT	1	Thermo Select
FRAMEWORKVERSION	QUANT	6.33	Framework Version
INSTRUMENTVERSION	LABEL	3.50	Instrument Version
ZCURVE	TABLE
	Pt	Time	Freq	Zreal	Zimag	Zsig	Zmod	Zphz	Idc	Vdc	IERange
	#	s	Hz	ohm	ohm	V	ohm	°	A	V	#
	0	1	1000078	1011.44	-413.7758	1	1092.804	-22.24926	1.952587E-008	-0.0169885	8
	1	1	794390.6	1066.044	-417.3495	1	1144.827	-21.38004	-2.4762E-008	-0.0172838	8
	2	1	630984.4	1117.599	-425.3661	1	1195.811	-20.83718	6.539972E-008	-0.0174639	8
	3	2	501234.4	1168.045	-438.0667	1	1247.49	-20.55819	7.227062E-008	-0.0175334	8
	4	2	398109.4	1219.199	-458.488	1	1302.558	-20.6091	4.759109E-008	-0.0175944	8
	5	2	316265.6	1271.61	-485.6542	1	1361.195	-20.90289	9.53996E-008	-0.0176248	8
	6	3	251203.1	1328.32	-518.2047	1	1425.823	-21.31177	4.085067E-008	-0.0176328	8
	7	3	199546.9	1387.27	-561.0949	1	1496.444	-22.02135	6.202338E-008	-0.0176262	8
	8	3	158578.1	1450.35	-614.4016	1	1575.12	-22.95863	7.050493E-008	-0.0176121	8
	9	3	125953.1	1531.533	-661.9717	1	1668.472	-23.37537	-2.367634E-009	-0.0176313	7
	10	4	100078.1	1615.778	-733.9595	1	1774.665	-24.4297	5.758247E-009	-0.0176561	7
	11	4	79453.13	1700.799	-822.0345	1	1889.036	-25.79552	5.001934E-009	-0.0176668	7
	12	4	63140.62	1798.523	-924.1093	1	2022.044	-27.19481	4.158028E-009	-0.0176565	7
	13	5	50203.12	1912.026	-1039.263	1	2176.215	-28.52586	2.928076E-009	-0.0176614	7
	14	5	39890.62	2045.242	-1168.073	1	2355.294	-29.73144	1.521545E-009	-0.017665	7
	15	5	31640.63	2200.557	-1311.36	1	2561.663	-30.79164	3.568607E-009	-0.0176651	7
	16	6	25171.88	2379.832	-1465.664	1	2794.954	-31.62762	3.952901E-009	-0.0176685	7
	17	6	20015.62	2587.438	-1629.342	1	3057.71	-32.19914	3.385632E-009	-0.0176713	7
	18	6	15890.62	2826.38	-1801.011	1	3351.428	-32.50589	2.333935E-009	-0.0176719	7
	19	7	12609.37	3097.792	-1976.902	1	3674.841	-32.54459	5.228078E-009	-0.0176744	7
	20	7	10078.13	3387.306	-2143.422	1	4008.503	-32.32484	3.841976E-009	-0.0176688	7
	21	7	8015.625	3703.381	-2307.573	1	4363.477	-31.927	5.109295E-009	-0.0176748	7
	22	8	6328.125	4045.068	-2474.029	1	4741.665	-31.45063	4.267018E-009	-0.0176715	7
	23	8	5015.625	4382.213	-2638.378	1	5115.157	-31.05069	2.554256E-009	-0.0176697	7
	24	8	3984.375	4717.758	-2818.97	1	5495.801	-30.8593	3.166857E-009	-0.0176692	7
	25	9	3170.956	5046.685	-3028.473	1	5885.633	-30.96762	3.788815E-009	-0.0176672	7
	26	9	2527.573	5372.572	-3279.321	1	6294.321	-31.39914	3.223126E-009	-0.0176793	7
	27	9	1976.103	5738.521	-3631.412	1	6791.007	-32.32617	4.280066E-009	-0.0176677	7
	28	9	1577.524	6099.367	-4023.969	1	7307.162	-33.41425	3.336817E-009	-0.017676	7
	29	10	1265.625	6487.881	-4499.336	1	7895.354	-34.74125	3.742347E-009	-0.0176811	7
	30	10	998.264	6962.422	-5087.769	1	8623.266	-36.15735	3.597513E-009	-0.0176802	7
	31	10	796.875	7468.607	-5742.605	1	9421.125	-37.55665	2.855209E-009	-0.017686	7
	32	11	627.7902	8076.512	-6564.902	1	10408.07	-39.10555	1.59596E-010	-0.0176899	6
	33	11	505.5147	8681.982	-7416.071	1	11418.18	-40.50365	4.63416E-010	-0.0176938	6
	34	11	397.9953	9385.864	-8506.68	1	12667.2	-42.18692	5.803513E-010	-0.0176639	6
	35	12	315.5048	10117.68	-9772.2	1	14066.39	-44.00488	4.60243E-010	-0.0176623	6
	36	12	252.4038	10862.93	-11239.82	1	15631.27	-45.97691	3.848758E-010	-0.0176713	6
	37	12	198.6229	11737.62	-13172.05	1	17642.98	-48.29576	3.463986E-010	-0.0176662	6
	38	13	158.3615	12670.85	-15425.03	1	19962.01	-50.59869	3.22685E-010	-0.0176731	6
	39	13	125.558	13790	-18259.17	1	22881.46	-52.93855	3.263129E-010	-0.0176713	6
	40	13	100.4464	15078.92	-21579.2	1	26325.57	-55.05527	4.108917E-010	-0.0176737	6
	41	14	79.00281	16805.21	-25925.11	1	30895.41	-57.04782	2.225953E-010	-0.0176779	6
	42	14	63.3446	18800.12	-30737.28	1	36030.89	-58.54841	4.415268E-010	-0.0176796	6
	43	14	49.86702	21540.47	-36948.68	1	42769.11	-59.75853	1.987569E-010	-0.0176793	6
	44	15	39.72458	24854.09	-43925.32	1	50469.39	-60.49768	3.106791E-010	-0.0176753	6
	45	15	31.6723	29026.42	-52015.75	1	59566.53	-60.83711	3.285026E-010	-0.0176805	6
	46	15	24.93351	34527.18	-61860.21	1	70843.58	-60.832	5.965005E-010	-0.0176756	6
	47	16	19.86229	41053.51	-72609.08	1	83411.45	-60.51598	1.670861E-010	-0.0176774	6
	48	16	15.83615	48872.39	-84635.89	1	97733	-59.99602	5.566646E-010	-0.01768	6
	49	16	12.40079	59117.89	-99142.9	1	115430.7	-59.19282	1.552253E-009	-0.0176932	5
	50	16	9.93114	70018.7	-114201.2	1	133957.2	-58.48684	1.947939E-010	-0.0176842	5
	51	17	7.944915	82633.5	-130877.5	1	154781.2	-57.73249	-5.613054E-010	-0.0176812	5
	52	17	6.317385	97711.5	-149838.3	1	178882.8	-56.89111	4.727886E-010	-0.0176886	5
	53	18	5.008013	115158.6	-171370.6	1	206468.8	-56.09945	8.06773E-011	-0.0176919	5
	54	19	3.945707	135146	-196552.4	1	238531.5	-55.48827	-1.966269E-010	-0.0176824	5
	55	20	3.158693	155853.2	-222658.8	1	271785.2	-55.00935	8.131348E-011	-0.017704	5
	56	21	2.504006	179985.5	-254329.8	1	311574.1	-54.71352	4.279488E-010	-0.0176913	5
	57	22	1.998082	205533.3	-289313.7	1	354889.3	-54.60938	1.896473E-010	-0.0177141	5
	58	24	1.584686	236170.8	-332545.6	1	407876.5	-54.61798	7.651968E-011	-0.0177459	5
	59	26	1.266892	268609.4	-381415.3	1	466506.8	-54.8451	1.244779E-010	-0.0177257	5
	60	28	0.999041	308873.3	-441227.7	1	538595.1	-55.00677	1.449225E-010	-0.017696	5
