EXPLAIN
TAG	EISPOT
TITLE	LABEL	Potentiostatic EIS	Test &Identifier
DATE	LABEL	5/26/2020	Date
TIME	LABEL	18:16:52	Time
NOTES	NOTES	1	&Notes...
	
PSTAT	PSTAT	REF600-11020	Potentiostat
VDC	POTEN	0.00000E+000	T	DC &Voltage (V)
FREQINIT	QUANT	1.00000E+006	Initial Fre&q. (Hz)
FREQFINAL	QUANT	1.00000E+000	Final Fre&q. (Hz)
PTSPERDEC	QUANT	1.00000E+001	Points/&decade
VAC	QUANT	2.50000E+001	AC &Voltage (mV rms)
AREA	QUANT	5.00000E-004	&Area (cm^2)
CONDIT	TWOPARAM	F	5.00000E+000	0.00000E+000	Conditionin&g	Time(s)	E(V)
DELAY	TWOPARAM	T	3.00000E+000	0.00000E+000	Init. De&lay	Time(s)	Stab.(mV/s)
SPEED	SELECTOR	0	&Optimize for:
ZGUESS	QUANT	1.00000E+003	E&stimated Z (ohms)
OCVCURVE	TABLE	12
	Pt	T	Vf	Vm	Ach	Over
	#	s	V vs. Ref.	V	V	bits
	0	0.258333	1.04234E-001	1.04234E-001	5.86930E-004	...........
	1	0.516667	1.04234E-001	1.04210E-001	5.89363E-004	...........
	2	0.775	1.04231E-001	1.04188E-001	5.94163E-004	...........
	3	1.03333	1.04223E-001	1.04171E-001	5.88663E-004	...........
	4	1.29167	1.04209E-001	1.04152E-001	5.93996E-004	...........
	5	1.55	1.04192E-001	1.04136E-001	5.89430E-004	...........
	6	1.80833	1.04173E-001	1.04127E-001	5.84397E-004	...........
	7	2.06667	1.04156E-001	1.04113E-001	5.83763E-004	...........
	8	2.325	1.04141E-001	1.04102E-001	5.88330E-004	...........
	9	2.58333	1.04127E-001	1.04091E-001	5.91363E-004	...........
	10	2.84167	1.04115E-001	1.04077E-001	5.82663E-004	...........
	11	3.1	1.04103E-001	1.04069E-001	5.92130E-004	...........
EOC	QUANT	0.1041027	Open Circuit (V)
PSTATMODEL	IQUANT	4	Pstat Model
PSTATSECTION	LABEL	REF600-11020	Pstat Section
PSTATSERIALNO	LABEL	11020	Pstat Serial Number
CTRLMODE	IQUANT	1	Control Mode
IESTAB	IQUANT	0	I/E Stability
CASPEED	IQUANT	1	Control Amp Speed
CONVENTION	IQUANT	1	Current Convention
ICHRANGE	IQUANT	2	Ich Range
ICHRANGEMODE	TOGGLE	F	Ich Auto Range
ICHOFFSETENABLE	TOGGLE	T	Ich Offset Enable
ICHOFFSET	QUANT	0	Ich Offset (V)
ICHFILTER	IQUANT	3	Ich Filter
VCHRANGE	IQUANT	2	Vch Range
VCHRANGEMODE	TOGGLE	F	Vch Auto Range
VCHOFFSETENABLE	TOGGLE	T	Vch Offset Enable
VCHOFFSET	QUANT	0	Vch Offset (V)
VCHFILTER	IQUANT	3	Vch Filter
ACHRANGE	IQUANT	2	Ach Range
ACHOFFSETENABLE	TOGGLE	F	Ach Offset Enable
ACHOFFSET	QUANT	0	Ach Offset (V)
ACHFILTER	IQUANT	3	Ach Filter
IERANGELOWERLIMIT	IQUANT	1	I/E Range Lower Limit
IERANGEMODE	TOGGLE	F	I/E AutoRange
IERANGE	IQUANT	8	I/E Range
POSFEEDENABLE	TOGGLE	F	Positive Feedback IR Comp
POSFEEDRESISTANCE	QUANT	0	Positive Feedback Resistance (ohm)
ACHSELECT	IQUANT	0	Ach Select
CABLEID	IQUANT	14	Cable ID
DCCALDATE	LABEL	2/27/2020	DC Calibration Date
ACCALDATE	LABEL	2/27/2020	AC Calibration Date
THERMOSELECT	IQUANT	1	Thermo Select
FRAMEWORKVERSION	QUANT	6.33	Framework Version
INSTRUMENTVERSION	LABEL	3.50	Instrument Version
ZCURVE	TABLE
	Pt	Time	Freq	Zreal	Zimag	Zsig	Zmod	Zphz	Idc	Vdc	IERange
	#	s	Hz	ohm	ohm	V	ohm	°	A	V	#
	0	1	1000078	2109.326	-1763.908	1	2749.66	-39.90379	7.129972E-008	0.106381	8
	1	2	794390.6	2449.993	-1800.617	1	3040.508	-36.31394	4.148922E-008	0.1060237	8
	2	2	630984.4	2785.07	-1793.581	1	3312.634	-32.78148	2.78937E-008	0.1058666	8
	3	2	501234.4	3104.655	-1749.27	1	3563.542	-29.39842	5.533173E-008	0.1057681	8
	4	3	398109.4	3396.288	-1678.058	1	3788.225	-26.29333	1.805643E-008	0.1057328	8
	5	3	316265.6	3657.549	-1594.76	1	3990.103	-23.55811	6.073844E-008	0.1056844	8
	6	3	251203.1	3886.805	-1507.825	1	4169.027	-21.20298	5.765838E-008	0.1056741	8
	7	4	199546.9	4088.677	-1430.005	1	4331.535	-19.27716	3.916804E-008	0.1056729	8
	8	4	158578.1	4264.832	-1364.431	1	4477.774	-17.74083	2.586021E-008	0.1056922	8
	9	4	125953.1	4469.184	-1248.43	1	4640.278	-15.60727	1.662045E-009	0.1056185	7
	10	5	100078.1	4600.144	-1221.312	1	4759.509	-14.86869	1.565282E-009	0.1055956	7
	11	5	79453.13	4741.062	-1222.869	1	4896.231	-14.46315	2.004386E-009	0.1055905	7
	12	5	63140.62	4880.048	-1239.557	1	5035.014	-14.25202	2.35602E-009	0.1055869	7
	13	5	50203.12	5019.225	-1274.521	1	5178.516	-14.24786	2.484194E-009	0.105591	7
	14	6	39890.62	5161.142	-1327.604	1	5329.157	-14.4255	2.631105E-009	0.1055876	7
	15	6	31640.63	5310.642	-1402.795	1	5492.791	-14.7966	2.46864E-009	0.1055856	7
	16	6	25171.88	5465.159	-1499.814	1	5667.222	-15.34599	2.862432E-009	0.1055851	7
	17	7	20015.62	5629.73	-1620.754	1	5858.387	-16.06068	2.509261E-009	0.1055889	7
	18	7	15890.62	5806.88	-1768.592	1	6070.236	-16.93908	2.388938E-009	0.1055797	7
	19	7	12609.37	5998.723	-1949.022	1	6307.405	-17.9993	2.945841E-009	0.105586	7
	20	8	10078.13	6201.438	-2156.627	1	6565.734	-19.17575	3.569507E-009	0.1055873	7
	21	8	8015.625	6429.95	-2409.493	1	6866.579	-20.54247	3.151503E-009	0.1055808	7
	22	8	6328.125	6694.792	-2718.763	1	7225.78	-22.10213	3.476996E-009	0.1055816	7
	23	9	5015.625	6984.549	-3073.196	1	7630.758	-23.74946	3.40933E-009	0.1055768	7
	24	9	3984.375	7310.693	-3487.032	1	8099.73	-25.50006	5.331475E-009	0.1055854	7
	25	9	3170.956	7674.206	-3956.067	1	8633.881	-27.27119	4.101299E-009	0.1055723	7
	26	10	2527.573	8079.73	-4498.144	1	9247.45	-29.10554	3.986134E-009	0.1055769	7
	27	10	1976.103	8585.483	-5154.373	1	10013.89	-30.97888	1.140604E-010	0.1056263	6
	28	10	1577.524	9080.479	-5881.619	1	10818.9	-32.93198	4.747296E-010	0.1056297	6
	29	11	1265.625	9613.73	-6704.67	1	11720.77	-34.89213	2.875102E-010	0.1056268	6
	30	11	998.264	10240.29	-7751.355	1	12843.17	-37.12378	3.645719E-010	0.1056256	6
	31	11	796.875	10895.54	-8936.881	1	14091.86	-39.35974	2.73237E-011	0.1056221	6
	32	11	627.7902	11665.86	-10441.4	1	15656.15	-41.82978	4.02239E-010	0.1056247	6
	33	12	505.5147	12460.13	-12085.4	1	17358.33	-44.12534	1.191977E-010	0.1056212	6
	34	12	397.9953	13445.36	-14258.49	1	19598.02	-46.6812	4.987959E-010	0.1056418	6
	35	12	315.5048	14567.58	-16815.84	1	22248.29	-49.09758	5.066643E-010	0.105644	6
	36	13	252.4038	15831.08	-19758.59	1	25318.47	-51.29741	4.221745E-010	0.1056454	6
	37	13	198.6229	17437.05	-23544.6	1	29298.45	-53.47648	3.917174E-010	0.1056441	6
	38	13	158.3615	19246.11	-27824.24	1	33831.95	-55.32827	3.812546E-010	0.1056416	6
	39	14	125.558	21446.37	-33038.63	1	39389.06	-57.01119	4.307571E-010	0.105642	6
	40	14	100.4464	23949.87	-38983.86	1	45753	-58.43536	3.868211E-010	0.105639	6
	41	14	79.00281	27130.96	-46587.92	1	53912.18	-59.78518	3.383679E-010	0.1056447	6
	42	15	63.3446	30573.15	-54909.75	1	62847.43	-60.89141	3.574301E-010	0.1056427	6
	43	15	49.86702	34945.47	-65639.59	1	74362.23	-61.96988	3.35824E-010	0.105639	6
	44	15	39.72458	39864.39	-77878.16	1	87488.16	-62.89293	4.281217E-010	0.1056475	6
	45	16	31.6723	45668.33	-92348.61	1	103023.6	-63.68664	2.1408E-010	0.1056377	5
	46	16	24.93351	52997.74	-110828.7	1	122848.5	-64.44309	-8.67338E-011	0.1056365	5
	47	16	19.86229	61478.55	-131950	1	145569.3	-65.0181	-1.572243E-010	0.105633	5
	48	17	15.83615	71760.07	-157131.4	1	172742	-65.45438	2.086483E-010	0.1056414	5
	49	17	12.40079	85637.83	-189678.3	1	208114.6	-65.70131	-1.673553E-010	0.1056441	5
	50	17	9.93114	101330.5	-225079.8	1	246837.6	-65.76283	1.140701E-012	0.1056343	5
	51	18	7.944915	121064.9	-266680.1	1	292873.7	-65.58336	4.47907E-010	0.1056393	5
	52	18	6.317385	147098.2	-317143.5	1	349596.8	-65.11708	-6.887318E-011	0.1056566	5
	53	19	5.008013	180811	-376692.4	1	417839.5	-64.35916	-4.94602E-011	0.1056495	5
	54	20	3.945707	224495.4	-446546.6	1	499802	-63.30964	2.240399E-010	0.1056386	5
	55	21	3.158693	276659.7	-519715.3	1	588765.3	-61.97232	-1.763785E-011	0.1056592	5
	56	22	2.504006	343062.3	-604318.5	1	694904.8	-60.41709	-6.190485E-011	0.1056396	5
	57	23	1.998082	421784.2	-691810.3	1	810248.9	-58.63009	1.062539E-010	0.1056741	5
	58	24	1.584686	516302.8	-790486.3	1	944159.5	-56.84961	1.406305E-010	0.1056706	5
	59	26	1.266892	624137.3	-888463.6	1	1085779	-54.91232	7.830392E-011	0.1056267	4
	60	29	0.999041	755668.6	-995132	1	1249529	-52.78824	3.531666E-011	0.1056006	4
