EXPLAIN
TAG	EISPOT
TITLE	LABEL	Potentiostatic EIS	Test &Identifier
DATE	LABEL	1/18/2020	Date
TIME	LABEL	21:44:41	Time
NOTES	NOTES	6	&Notes...
	
	
	
	
	
	
PSTAT	PSTAT	REF600-11020	Potentiostat
VDC	POTEN	0.00000E+000	T	DC &Voltage (V)
FREQINIT	QUANT	1.00000E+006	Initial Fre&q. (Hz)
FREQFINAL	QUANT	1.00000E+000	Final Fre&q. (Hz)
PTSPERDEC	QUANT	1.00000E+001	Points/&decade
VAC	QUANT	2.50000E+001	AC &Voltage (mV rms)
AREA	QUANT	1.00000E-001	&Area (cm^2)
CONDIT	TWOPARAM	F	5.00000E+000	0.00000E+000	Conditionin&g	Time(s)	E(V)
DELAY	TWOPARAM	F	5.00000E+000	0.00000E+000	Init. De&lay	Time(s)	Stab.(mV/s)
SPEED	SELECTOR	0	&Optimize for:
ZGUESS	QUANT	5.00000E+002	E&stimated Z (ohms)
OCVCURVE	TABLE	39
	Pt	T	Vf	Vm	Ach	Over
	#	s	V vs. Ref.	V	V	bits
	0	0.258333	1.41329E-002	1.41329E-002	6.61413E-004	...........
	1	0.516667	1.41306E-002	1.40090E-002	6.60713E-004	...........
	2	0.775	1.41154E-002	1.38603E-002	6.62246E-004	...........
	3	1.03333	1.40707E-002	1.37200E-002	6.64079E-004	...........
	4	1.29167	1.39871E-002	1.35909E-002	6.61579E-004	...........
	5	1.55	1.38719E-002	1.34626E-002	6.64379E-004	...........
	6	1.80833	1.37409E-002	1.33349E-002	6.57746E-004	...........
	7	2.06667	1.36068E-002	1.32091E-002	6.58513E-004	...........
	8	2.325	1.34749E-002	1.30825E-002	6.61579E-004	...........
	9	2.58333	1.33459E-002	1.29593E-002	6.58846E-004	...........
	10	2.84167	1.32169E-002	1.27248E-002	6.63813E-004	...........
	11	3.1	1.30810E-002	1.26286E-002	6.59146E-004	...........
	12	3.35833	1.29339E-002	1.24602E-002	6.58446E-004	...........
	13	3.61667	1.27808E-002	1.23361E-002	6.61113E-004	...........
	14	3.875	1.26289E-002	1.21481E-002	6.55113E-004	...........
	15	4.13333	1.24799E-002	1.20720E-002	6.60379E-004	...........
	16	4.39167	1.23363E-002	1.20065E-002	6.57480E-004	...........
	17	4.65	1.22071E-002	1.19426E-002	6.52313E-004	...........
	18	4.90833	1.20973E-002	1.16919E-002	6.56879E-004	...........
	19	5.16667	1.19940E-002	1.16057E-002	6.61313E-004	...........
	20	5.425	1.18793E-002	1.14989E-002	6.54446E-004	...........
	21	5.68333	1.17564E-002	1.15759E-002	6.56213E-004	...........
	22	5.94167	1.16531E-002	1.16703E-002	6.58113E-004	...........
	23	6.2	1.15969E-002	1.15994E-002	6.56046E-004	...........
	24	6.45833	1.15846E-002	1.14536E-002	6.58546E-004	...........
	25	6.71667	1.15785E-002	1.13474E-002	6.52446E-004	...........
	26	6.975	1.15420E-002	1.12911E-002	6.52480E-004	...........
	27	7.23333	1.14710E-002	1.12109E-002	6.57746E-004	...........
	28	7.49167	1.13842E-002	1.11199E-002	6.61879E-004	...........
	29	7.75	1.12969E-002	1.10467E-002	6.57713E-004	...........
	30	8.00833	1.12131E-002	1.09789E-002	6.60913E-004	...........
	31	8.26667	1.11331E-002	1.09084E-002	6.58979E-004	...........
	32	8.525	1.10572E-002	1.08514E-002	6.59646E-004	...........
	33	8.78333	1.09862E-002	1.08036E-002	6.57679E-004	...........
	34	9.04167	1.09206E-002	1.07375E-002	6.60713E-004	...........
	35	9.3	1.08591E-002	1.06484E-002	6.62313E-004	...........
	36	9.5583	1.07977E-002	1.05955E-002	6.62413E-004	...........
	37	9.8167	1.07330E-002	1.05297E-002	6.59646E-004	...........
	38	10.075	1.06664E-002	1.04754E-002	6.67413E-004	...........
EOC	QUANT	0.0106664	Open Circuit (V)
PSTATMODEL	IQUANT	4	Pstat Model
PSTATSECTION	LABEL	REF600-11020	Pstat Section
PSTATSERIALNO	LABEL	11020	Pstat Serial Number
CTRLMODE	IQUANT	1	Control Mode
IESTAB	IQUANT	0	I/E Stability
CASPEED	IQUANT	1	Control Amp Speed
CONVENTION	IQUANT	1	Current Convention
ICHRANGE	IQUANT	2	Ich Range
ICHRANGEMODE	TOGGLE	F	Ich Auto Range
ICHOFFSETENABLE	TOGGLE	T	Ich Offset Enable
ICHOFFSET	QUANT	0	Ich Offset (V)
ICHFILTER	IQUANT	3	Ich Filter
VCHRANGE	IQUANT	2	Vch Range
VCHRANGEMODE	TOGGLE	F	Vch Auto Range
VCHOFFSETENABLE	TOGGLE	T	Vch Offset Enable
VCHOFFSET	QUANT	0	Vch Offset (V)
VCHFILTER	IQUANT	3	Vch Filter
ACHRANGE	IQUANT	2	Ach Range
ACHOFFSETENABLE	TOGGLE	F	Ach Offset Enable
ACHOFFSET	QUANT	0	Ach Offset (V)
ACHFILTER	IQUANT	3	Ach Filter
IERANGELOWERLIMIT	IQUANT	1	I/E Range Lower Limit
IERANGEMODE	TOGGLE	F	I/E AutoRange
IERANGE	IQUANT	7	I/E Range
POSFEEDENABLE	TOGGLE	F	Positive Feedback IR Comp
POSFEEDRESISTANCE	QUANT	0	Positive Feedback Resistance (ohm)
ACHSELECT	IQUANT	0	Ach Select
CABLEID	IQUANT	14	Cable ID
DCCALDATE	LABEL	12/22/2019	DC Calibration Date
ACCALDATE	LABEL	12/22/2019	AC Calibration Date
THERMOSELECT	IQUANT	1	Thermo Select
FRAMEWORKVERSION	QUANT	6.33	Framework Version
INSTRUMENTVERSION	LABEL	3.50	Instrument Version
ZCURVE	TABLE
	Pt	Time	Freq	Zreal	Zimag	Zsig	Zmod	Zphz	Idc	Vdc	IERange
	#	s	Hz	ohm	ohm	V	ohm	°	A	V	#
	0	1	1000078	2279.354	-1718.179	1	2854.399	-37.00902	1.021072E-008	0.0131923	8
	1	2	794390.6	2610.769	-1673.586	1	3101.13	-32.66116	2.807308E-007	0.0127091	8
	2	2	630984.4	2922.115	-1595.55	1	3329.344	-28.63568	2.838885E-007	0.0124477	8
	3	2	501234.4	3200.598	-1475.526	1	3524.345	-24.75045	-2.434059E-008	0.0125963	8
	4	3	398109.4	3436.735	-1342.602	1	3689.678	-21.3387	-1.89374E-006	0.0127611	8
	5	3	316265.6	3620.959	-1215.989	1	3819.682	-18.56306	4.043476E-007	0.0123569	8
	6	3	251203.1	3769.635	-1086.327	1	3923.042	-16.07583	-1.79784E-006	0.0127113	8
	7	4	199546.9	3885.831	-987.279	1	4009.289	-14.25559	-1.624226E-006	0.012702	8
	8	4	158578.1	4003.08	-891.9329	1	4101.243	-12.56099	1.71765E-006	0.0119839	8
	9	4	125953.1	4093.207	-799.8254	1	4170.62	-11.05646	7.302043E-007	0.0110236	7
	10	5	100078.1	4159.353	-744.7756	1	4225.507	-10.15182	-2.14818E-008	0.012391	7
	11	5	79453.13	4233.9	-723.0395	1	4295.194	-9.69113	6.234681E-008	0.0123101	7
	12	5	63140.62	4301.462	-715.4557	1	4360.557	-9.443468	1.122893E-008	0.0122774	7
	13	6	50203.12	4369.527	-722.4655	1	4428.851	-9.388449	-3.671198E-008	0.0123853	7
	14	6	39890.62	4439.106	-745.0206	1	4501.191	-9.52723	-4.045782E-008	0.0123809	7
	15	6	31640.63	4512.757	-783.4929	1	4580.266	-9.84936	8.689079E-008	0.0122169	7
	16	7	25171.88	4589.042	-838.1873	1	4664.962	-10.35096	5.860413E-008	0.0122368	7
	17	7	20015.62	4672.752	-910.1006	1	4760.557	-11.02138	5.932453E-008	0.0122399	7
	18	7	15890.62	4764.61	-1001.499	1	4868.728	-11.8705	-2.661843E-008	0.0124118	7
	19	8	12609.37	4866.73	-1112.781	1	4992.329	-12.87932	6.204369E-008	0.0122925	7
	20	8	10078.13	4976.61	-1244.309	1	5129.81	-14.03794	6.618937E-009	0.0123439	7
	21	8	8015.625	5101.013	-1398.932	1	5289.361	-15.33607	-3.948267E-008	0.0123747	7
	22	8	6328.125	5246.471	-1592.351	1	5482.795	-16.88351	-3.909512E-008	0.0123792	7
	23	9	5015.625	5408.584	-1815.448	1	5705.142	-18.55487	-2.957192E-008	0.0123466	7
	24	9	3984.375	5589.679	-2075.282	1	5962.492	-20.36847	-3.566964E-008	0.0123897	7
	25	9	3170.956	5791.972	-2377.483	1	6260.94	-22.31712	1.293029E-008	0.0122634	7
	26	10	2527.573	6022.291	-2727.646	1	6611.206	-24.36696	7.956501E-009	0.0122896	7
	27	10	1976.103	6308.132	-3177.178	1	7063.072	-26.73275	1.7693E-008	0.0123832	7
	28	10	1577.524	6612.659	-3654.352	1	7555.233	-28.92634	-3.630248E-008	0.012384	7
	29	11	1265.625	6944.15	-4197.843	1	8114.377	-31.15359	7.185319E-009	0.012288	7
	30	11	998.264	7355.559	-4885.58	1	8830.24	-33.59221	-2.01158E-008	0.0123651	7
	31	11	796.875	7799.735	-5638.034	1	9624.1	-35.86126	7.734742E-009	0.0122985	6
	32	12	627.7902	8330.426	-6579.183	1	10615.16	-38.30088	1.195514E-008	0.0121841	6
	33	12	505.5147	8874.28	-7581.169	1	11671.63	-40.50679	-5.941998E-009	0.0124315	6
	34	12	397.9953	9544.87	-8882.848	1	13038.77	-42.94252	7.579395E-010	0.0123366	6
	35	13	315.5048	10271.54	-10388.12	1	14608.82	-45.32333	1.018102E-009	0.0123349	6
	36	13	252.4038	11050.55	-12108.93	1	16393.32	-47.61658	7.751761E-010	0.0123295	6
	37	13	198.6229	11981.23	-14332.43	1	18680.7	-50.10598	6.730196E-010	0.0123296	6
	38	14	158.3615	12967.45	-16871.88	1	21279.46	-52.45471	4.354647E-010	0.0123269	6
	39	14	125.558	14105.35	-20033.79	1	24501.3	-54.85147	6.666203E-010	0.0123293	6
	40	14	100.4464	15347.53	-23745.67	1	28273.73	-57.12422	9.424492E-010	0.0123285	6
	41	15	79.00281	16898.46	-28636.27	1	33250.47	-59.45484	4.398605E-010	0.0123224	6
	42	15	63.3446	18729.59	-33926.48	1	38753.11	-61.09849	5.982165E-010	0.0123223	6
	43	15	49.86702	21054.34	-41289.32	1	46347.53	-62.98196	1.544143E-010	0.0123201	6
	44	16	39.72458	23660.03	-49783.88	1	55120.16	-64.58038	5.683458E-010	0.0123233	6
	45	16	31.6723	27092.28	-60031.32	1	65861.61	-65.71023	2.903796E-010	0.0123217	6
	46	16	24.93351	31972.82	-72933.03	1	79633.46	-66.32803	3.417502E-010	0.0123215	6
	47	17	19.86229	37887.05	-87630.96	1	95470.5	-66.61887	-4.907336E-010	0.0123212	6
	48	17	15.83615	44920.19	-104942.1	1	114152	-66.82678	2.615169E-010	0.0123182	5
	49	17	12.40079	56623.62	-126954.3	1	139009.4	-65.96237	6.583244E-010	0.0123191	5
	50	17	9.93114	69097.48	-149846.4	1	165010.3	-65.24453	4.864822E-010	0.0123125	5
	51	18	7.944915	84211.06	-175613.6	1	194760.5	-64.38113	1.673051E-009	0.0123112	5
	52	18	6.317385	105216.9	-205577	1	230938.3	-62.89607	-2.156465E-011	0.0123335	5
	53	19	5.008013	130222.4	-239287	1	272426.4	-61.44453	1.187636E-010	0.0123167	5
	54	20	3.945707	161321.7	-276863.8	1	320434.4	-59.7717	3.80208E-010	0.0123134	5
	55	21	3.158693	193852.1	-315987.1	1	370710.8	-58.47167	4.515549E-010	0.0123326	5
	56	23	2.504006	233966.6	-359886.8	1	429253.8	-56.97163	2.067258E-010	0.0123212	5
	57	24	1.998082	276604.6	-406930.5	1	492039.1	-55.79471	1.511486E-010	0.0122918	5
	58	26	1.584686	326605.8	-458781.8	1	563162.5	-54.55302	3.219565E-010	0.0123408	5
	59	28	1.266892	381087.7	-516578.6	1	641935.5	-53.58326	3.692891E-010	0.0123562	5
	60	30	0.999041	443942.4	-585255	1	734580.4	-52.81804	3.984466E-010	0.0123459	5
