EXPLAIN
TAG	EISPOT
TITLE	LABEL	Potentiostatic EIS	Test &Identifier
DATE	LABEL	1/28/2020	Date
TIME	LABEL	12:40:29	Time
NOTES	NOTES	6	&Notes...
	
	
	
	
	
	
PSTAT	PSTAT	REF600-11020	Potentiostat
VDC	POTEN	0.00000E+000	T	DC &Voltage (V)
FREQINIT	QUANT	1.00000E+006	Initial Fre&q. (Hz)
FREQFINAL	QUANT	1.00000E+000	Final Fre&q. (Hz)
PTSPERDEC	QUANT	1.00000E+001	Points/&decade
VAC	QUANT	2.50000E+001	AC &Voltage (mV rms)
AREA	QUANT	1.60000E-004	&Area (cm^2)
CONDIT	TWOPARAM	F	5.00000E+000	0.00000E+000	Conditionin&g	Time(s)	E(V)
DELAY	TWOPARAM	F	5.00000E+000	0.00000E+000	Init. De&lay	Time(s)	Stab.(mV/s)
SPEED	SELECTOR	0	&Optimize for:
ZGUESS	QUANT	1.00000E+003	E&stimated Z (ohms)
OCVCURVE	TABLE	39
	Pt	T	Vf	Vm	Ach	Over
	#	s	V vs. Ref.	V	V	bits
	0	0.258333	3.08116E-002	3.08116E-002	5.77304E-004	...........
	1	0.516667	3.08128E-002	3.08735E-002	5.69004E-004	...........
	2	0.775	3.08186E-002	3.08557E-002	5.68904E-004	...........
	3	1.03333	3.08304E-002	3.08547E-002	5.68771E-004	...........
	4	1.29167	3.08438E-002	3.08641E-002	5.68104E-004	...........
	5	1.55	3.08536E-002	3.08734E-002	5.75271E-004	...........
	6	1.80833	3.08584E-002	3.07970E-002	5.75338E-004	...........
	7	2.06667	3.08294E-002	2.94177E-002	5.69538E-004	...........
	8	2.325	3.07064E-002	3.08041E-002	5.70238E-004	...........
	9	2.58333	3.05542E-002	3.25169E-002	5.72238E-004	...........
	10	2.84167	3.05988E-002	3.08459E-002	5.77771E-004	...........
	11	3.1	3.08733E-002	3.05704E-002	5.77104E-004	...........
	12	3.35833	3.10880E-002	3.03625E-002	5.76537E-004	...........
	13	3.61667	3.10312E-002	3.02475E-002	5.73638E-004	...........
	14	3.875	3.07845E-002	3.02059E-002	5.74671E-004	...........
	15	4.13333	3.05211E-002	3.01554E-002	5.76338E-004	...........
	16	4.39167	3.03314E-002	3.01260E-002	5.70071E-004	...........
	17	4.65	3.02208E-002	3.00957E-002	5.71604E-004	...........
	18	4.90833	3.01607E-002	3.00676E-002	5.69638E-004	...........
	19	5.16667	3.01240E-002	3.00320E-002	5.68538E-004	...........
	20	5.425	3.00952E-002	3.00300E-002	5.70504E-004	...........
	21	5.68333	3.00894E-002	3.10638E-002	5.75571E-004	...........
	22	5.94167	3.01345E-002	2.91211E-002	5.71738E-004	...........
	23	6.2	3.01545E-002	2.89857E-002	5.72604E-004	...........
	24	6.45833	3.00003E-002	2.92996E-002	5.74371E-004	...........
	25	6.71667	2.96986E-002	2.96870E-002	5.74771E-004	...........
	26	6.975	2.94645E-002	2.99037E-002	5.71704E-004	...........
	27	7.23333	2.94403E-002	3.00698E-002	5.75037E-004	...........
	28	7.49167	2.95886E-002	3.01383E-002	5.65371E-004	...........
	29	7.75	2.97969E-002	3.02513E-002	5.72104E-004	...........
	30	8.00833	2.99835E-002	3.03072E-002	5.74238E-004	...........
	31	8.26667	3.01240E-002	3.03863E-002	5.76104E-004	...........
	32	8.525	3.02269E-002	3.04508E-002	5.78137E-004	...........
	33	8.78333	3.03068E-002	3.04576E-002	5.72938E-004	...........
	34	9.04167	3.03704E-002	3.04374E-002	5.79271E-004	...........
	35	9.3	3.04160E-002	3.05014E-002	5.77171E-004	...........
	36	9.5583	3.04466E-002	3.05823E-002	5.73737E-004	...........
	37	9.8167	3.04750E-002	3.05885E-002	5.79304E-004	...........
	38	10.075	3.05099E-002	3.05890E-002	5.75004E-004	...........
EOC	QUANT	0.0305099	Open Circuit (V)
PSTATMODEL	IQUANT	4	Pstat Model
PSTATSECTION	LABEL	REF600-11020	Pstat Section
PSTATSERIALNO	LABEL	11020	Pstat Serial Number
CTRLMODE	IQUANT	1	Control Mode
IESTAB	IQUANT	0	I/E Stability
CASPEED	IQUANT	1	Control Amp Speed
CONVENTION	IQUANT	1	Current Convention
ICHRANGE	IQUANT	2	Ich Range
ICHRANGEMODE	TOGGLE	F	Ich Auto Range
ICHOFFSETENABLE	TOGGLE	T	Ich Offset Enable
ICHOFFSET	QUANT	0	Ich Offset (V)
ICHFILTER	IQUANT	3	Ich Filter
VCHRANGE	IQUANT	2	Vch Range
VCHRANGEMODE	TOGGLE	F	Vch Auto Range
VCHOFFSETENABLE	TOGGLE	T	Vch Offset Enable
VCHOFFSET	QUANT	0	Vch Offset (V)
VCHFILTER	IQUANT	3	Vch Filter
ACHRANGE	IQUANT	2	Ach Range
ACHOFFSETENABLE	TOGGLE	F	Ach Offset Enable
ACHOFFSET	QUANT	0	Ach Offset (V)
ACHFILTER	IQUANT	3	Ach Filter
IERANGELOWERLIMIT	IQUANT	1	I/E Range Lower Limit
IERANGEMODE	TOGGLE	F	I/E AutoRange
IERANGE	IQUANT	7	I/E Range
POSFEEDENABLE	TOGGLE	F	Positive Feedback IR Comp
POSFEEDRESISTANCE	QUANT	0	Positive Feedback Resistance (ohm)
ACHSELECT	IQUANT	0	Ach Select
CABLEID	IQUANT	14	Cable ID
DCCALDATE	LABEL	1/27/2020	DC Calibration Date
ACCALDATE	LABEL	1/27/2020	AC Calibration Date
THERMOSELECT	IQUANT	1	Thermo Select
FRAMEWORKVERSION	QUANT	6.33	Framework Version
INSTRUMENTVERSION	LABEL	3.50	Instrument Version
ZCURVE	TABLE
	Pt	Time	Freq	Zreal	Zimag	Zsig	Zmod	Zphz	Idc	Vdc	IERange
	#	s	Hz	ohm	ohm	V	ohm	°	A	V	#
	0	1	1000078	2031.487	-1831.245	1	2735.031	-42.03248	-3.868381E-006	0.0334491	8
	1	2	794390.6	2310.166	-1910.836	1	2998.026	-39.5956	1.852614E-007	0.0328514	8
	2	2	630984.4	2581.43	-1998.712	1	3264.756	-37.74939	-2.38293E-007	0.032343	8
	3	2	501234.4	2836.551	-2099.106	1	3528.777	-36.5022	1.553915E-006	0.0319066	8
	4	3	398109.4	3094.335	-2228.635	1	3813.361	-35.7626	1.303267E-006	0.031861	8
	5	3	316265.6	3355.297	-2403.237	1	4127.174	-35.61219	-2.234477E-007	0.0321241	8
	6	3	251203.1	3620.396	-2607.384	1	4461.583	-35.76117	-2.393524E-006	0.0326343	8
	7	4	199546.9	3939.134	-2892.116	1	4886.831	-36.28615	1.593338E-007	0.0320528	8
	8	4	158578.1	4282.64	-3230.537	1	5364.455	-37.02846	1.900792E-006	0.0316195	8
	9	4	125953.1	4760.804	-3567.425	1	5949.099	-36.84541	2.5314E-008	0.0319375	7
	10	5	100078.1	5308.093	-4010.699	1	6652.936	-37.07403	7.222101E-008	0.0319218	7
	11	5	79453.13	5989.112	-4464.924	1	7470.275	-36.70478	1.053801E-007	0.0318964	7
	12	5	63140.62	6813.841	-4870.835	1	8375.767	-35.55886	-4.251057E-008	0.0320977	7
	13	6	50203.12	7785.588	-5172.337	1	9347.109	-33.59798	-1.451971E-008	0.0320888	7
	14	6	39890.62	8851.694	-5325.779	1	10330.36	-31.03396	6.536992E-008	0.0319994	7
	15	6	31640.63	9949.18	-5273.723	1	11260.48	-27.92654	-3.401597E-008	0.0320528	7
	16	7	25171.88	10985.12	-5046.734	1	12088.94	-24.67478	-2.480706E-008	0.0320225	7
	17	7	20015.62	11890.56	-4668.625	1	12774.25	-21.4366	4.056856E-008	0.0319106	7
	18	7	15890.62	12649.43	-4217.946	1	13334.13	-18.44094	-3.081053E-008	0.0320419	7
	19	8	12609.37	13310.19	-3672.642	1	13807.59	-15.42562	3.519817E-009	0.0320841	6
	20	8	10078.13	13733.38	-3265.315	1	14116.23	-13.37458	-1.875271E-010	0.0319446	6
	21	8	8015.625	14069.76	-2906.221	1	14366.77	-11.67077	7.512043E-009	0.0318649	6
	22	8	6328.125	14323.12	-2611.763	1	14559.3	-10.33411	-2.478913E-009	0.0320027	6
	23	9	5015.625	14522.48	-2414.311	1	14721.8	-9.438894	-3.542169E-009	0.0321395	6
	24	9	3984.375	14701.04	-2297.237	1	14879.45	-8.881417	-5.274583E-009	0.0320989	6
	25	9	3170.956	14817.77	-2274.109	1	14991.26	-8.725203	-5.221289E-009	0.0320951	6
	26	10	2527.573	14934.3	-2329.93	1	15114.96	-8.867349	-1.416286E-009	0.0321094	6
	27	10	1976.103	15057.25	-2483.922	1	15260.76	-9.36744	-1.611454E-009	0.0321031	6
	28	10	1577.524	15161.28	-2727.743	1	15404.71	-10.19926	-7.473766E-009	0.032077	6
	29	11	1265.625	15275.38	-3073.894	1	15581.59	-11.37779	1.369862E-008	0.0317802	6
	30	11	998.264	15426.48	-3566.879	1	15833.47	-13.01902	2.170603E-009	0.0320935	6
	31	11	796.875	15573.34	-4181.461	1	16124.94	-15.0295	-4.204284E-009	0.0321349	6
	32	12	627.7902	15752.79	-5003.768	1	16528.4	-17.6221	-6.2072E-009	0.0320926	6
	33	12	505.5147	15956.53	-5939.389	1	17026.08	-20.41642	-1.225E-009	0.0319294	6
	34	12	397.9953	16211.8	-7233.92	1	17752.52	-24.04706	1.146261E-009	0.0320282	6
	35	13	315.5048	16494.48	-8798.11	1	18694.24	-28.07533	7.016491E-010	0.0320273	6
	36	13	252.4038	16849.79	-10655.38	1	19936.21	-32.30822	3.608232E-010	0.0320248	6
	37	13	198.6229	17334.18	-13119.37	1	21739.17	-37.12025	9.667626E-010	0.032026	6
	38	14	158.3615	17924.12	-15986.87	1	24017.79	-41.7304	1.148317E-009	0.0320188	6
	39	14	125.558	18680.13	-19608.75	1	27082.29	-46.38931	6.880378E-010	0.0320261	6
	40	14	100.4464	19588.07	-23826.99	1	30845.06	-50.57653	1.563772E-009	0.0320223	6
	41	14	79.00281	20981.29	-29458.44	1	36166.48	-54.54025	1.367724E-009	0.0320223	6
	42	15	63.3446	22137.75	-35731.07	1	42033.19	-58.21906	4.1943E-010	0.032019	6
	43	15	49.86702	24461.46	-43868.91	1	50227.93	-60.85581	2.686285E-010	0.0320176	6
	44	16	39.72458	27558.9	-53554.96	1	60229.79	-62.77006	4.278282E-010	0.0320209	6
	45	16	31.6723	31240.85	-65010.34	1	72127.22	-64.33329	6.560041E-010	0.0320177	6
	46	16	24.93351	36415.25	-79255.27	1	87220.8	-65.32274	1.020155E-009	0.0320193	6
	47	17	19.86229	42714.76	-95472.1	1	104592	-65.89599	1.796051E-009	0.0320235	6
	48	17	15.83615	51341.59	-114823.2	1	125778.9	-65.90886	-6.648154E-014	0.0320136	5
	49	17	12.40079	61583.46	-138824.5	1	151870.9	-66.07761	-1.095591E-009	0.0320155	5
	50	18	9.93114	76516.38	-164596.9	1	181512.8	-65.06763	-7.092346E-010	0.032019	5
	51	18	7.944915	93923.43	-193897.7	1	215448.2	-64.1546	2.557337E-010	0.0320104	5
	52	19	6.317385	116326.1	-227886.8	1	255859.6	-62.9577	2.84182E-010	0.0320105	5
	53	19	5.008013	144721.1	-266060.9	1	302873.9	-61.45647	-1.408674E-010	0.032011	5
	54	21	3.945707	180356.1	-307876.9	1	356814.4	-59.63797	1.952217E-010	0.0320217	5
	55	22	3.158693	219972.5	-350730.8	1	414004.8	-57.90476	-7.481212E-011	0.0320207	5
	56	24	2.504006	266845.9	-397059.8	1	478396.5	-56.09674	-1.219538E-010	0.0320076	5
	57	25	1.998082	318031	-443658.7	1	545872.5	-54.36564	2.015409E-010	0.032052	5
	58	26	1.584686	373235.7	-496063.3	1	620792.8	-53.04237	1.721104E-010	0.0320398	5
	59	28	1.266892	430338.6	-549081.3	1	697625.7	-51.91268	8.898483E-011	0.0319959	5
	60	31	0.999041	494910.6	-613373.2	1	788139	-51.10109	2.672554E-011	0.0319654	5
