EXPLAIN
TAG	EISPOT
TITLE	LABEL	Potentiostatic EIS	Test &Identifier
DATE	LABEL	1/27/2020	Date
TIME	LABEL	17:04:27	Time
NOTES	NOTES	6	&Notes...
	
	
	
	
	
	
PSTAT	PSTAT	REF600-11020	Potentiostat
VDC	POTEN	0.00000E+000	T	DC &Voltage (V)
FREQINIT	QUANT	1.00000E+006	Initial Fre&q. (Hz)
FREQFINAL	QUANT	1.00000E+000	Final Fre&q. (Hz)
PTSPERDEC	QUANT	1.00000E+001	Points/&decade
VAC	QUANT	2.50000E+001	AC &Voltage (mV rms)
AREA	QUANT	1.60000E-004	&Area (cm^2)
CONDIT	TWOPARAM	F	5.00000E+000	0.00000E+000	Conditionin&g	Time(s)	E(V)
DELAY	TWOPARAM	F	5.00000E+000	0.00000E+000	Init. De&lay	Time(s)	Stab.(mV/s)
SPEED	SELECTOR	1	&Optimize for:
ZGUESS	QUANT	1.00000E+003	E&stimated Z (ohms)
OCVCURVE	TABLE	39
	Pt	T	Vf	Vm	Ach	Over
	#	s	V vs. Ref.	V	V	bits
	0	0.258333	3.17233E-002	3.17233E-002	5.71571E-004	...........
	1	0.516667	3.17164E-002	3.13623E-002	5.71504E-004	...........
	2	0.775	3.16767E-002	3.11577E-002	5.72771E-004	...........
	3	1.03333	3.15719E-002	3.09002E-002	5.71638E-004	...........
	4	1.29167	3.13986E-002	3.07766E-002	5.73038E-004	...........
	5	1.55	3.11914E-002	3.07453E-002	5.69904E-004	...........
	6	1.80833	3.09975E-002	3.06285E-002	5.73638E-004	...........
	7	2.06667	3.08409E-002	3.03412E-002	5.72471E-004	...........
	8	2.325	3.07039E-002	3.01343E-002	5.74671E-004	...........
	9	2.58333	3.05493E-002	2.98523E-002	5.69438E-004	...........
	10	2.84167	3.03356E-002	2.84935E-002	5.75104E-004	...........
	11	3.1	3.00156E-002	2.91226E-002	5.76437E-004	...........
	12	3.35833	2.96280E-002	2.97548E-002	5.73438E-004	...........
	13	3.61667	2.93334E-002	2.87997E-002	5.74371E-004	...........
	14	3.875	2.92103E-002	2.90760E-002	5.71938E-004	...........
	15	4.13333	2.91740E-002	2.94832E-002	5.71871E-004	...........
	16	4.39167	2.91579E-002	2.88852E-002	5.75204E-004	...........
	17	4.65	2.91617E-002	2.94505E-002	5.70271E-004	...........
	18	4.90833	2.91779E-002	2.91234E-002	5.76471E-004	...........
	19	5.16667	2.91960E-002	2.92026E-002	5.74071E-004	...........
	20	5.425	2.92152E-002	2.95584E-002	5.79637E-004	...........
	21	5.68333	2.92484E-002	2.94124E-002	5.72304E-004	...........
	22	5.94167	2.93041E-002	2.92309E-002	5.68004E-004	...........
	23	6.2	2.93463E-002	2.90327E-002	5.73238E-004	...........
	24	6.45833	2.93210E-002	2.88085E-002	5.72471E-004	...........
	25	6.71667	2.92173E-002	2.88768E-002	5.71171E-004	...........
	26	6.975	2.90777E-002	2.89013E-002	5.68004E-004	...........
	27	7.23333	2.89616E-002	2.88560E-002	5.60404E-004	...........
	28	7.49167	2.88945E-002	2.87407E-002	5.72371E-004	...........
	29	7.75	2.88576E-002	2.87657E-002	5.71038E-004	...........
	30	8.00833	2.88234E-002	2.86477E-002	5.65304E-004	...........
	31	8.26667	2.87794E-002	2.85375E-002	5.71371E-004	...........
	32	8.525	2.87206E-002	2.84639E-002	5.74937E-004	...........
	33	8.78333	2.86453E-002	2.83662E-002	5.75338E-004	...........
	34	9.04167	2.85605E-002	2.83745E-002	5.71304E-004	...........
	35	9.3	2.84795E-002	2.83112E-002	5.77304E-004	...........
	36	9.5583	2.84128E-002	2.82639E-002	5.72138E-004	...........
	37	9.8167	2.83596E-002	2.82143E-002	5.71238E-004	...........
	38	10.075	2.83191E-002	2.85158E-002	5.76938E-004	...........
EOC	QUANT	0.0283191	Open Circuit (V)
PSTATMODEL	IQUANT	4	Pstat Model
PSTATSECTION	LABEL	REF600-11020	Pstat Section
PSTATSERIALNO	LABEL	11020	Pstat Serial Number
CTRLMODE	IQUANT	1	Control Mode
IESTAB	IQUANT	0	I/E Stability
CASPEED	IQUANT	1	Control Amp Speed
CONVENTION	IQUANT	1	Current Convention
ICHRANGE	IQUANT	2	Ich Range
ICHRANGEMODE	TOGGLE	F	Ich Auto Range
ICHOFFSETENABLE	TOGGLE	T	Ich Offset Enable
ICHOFFSET	QUANT	0	Ich Offset (V)
ICHFILTER	IQUANT	3	Ich Filter
VCHRANGE	IQUANT	2	Vch Range
VCHRANGEMODE	TOGGLE	F	Vch Auto Range
VCHOFFSETENABLE	TOGGLE	T	Vch Offset Enable
VCHOFFSET	QUANT	0	Vch Offset (V)
VCHFILTER	IQUANT	3	Vch Filter
ACHRANGE	IQUANT	2	Ach Range
ACHOFFSETENABLE	TOGGLE	F	Ach Offset Enable
ACHOFFSET	QUANT	0	Ach Offset (V)
ACHFILTER	IQUANT	3	Ach Filter
IERANGELOWERLIMIT	IQUANT	1	I/E Range Lower Limit
IERANGEMODE	TOGGLE	F	I/E AutoRange
IERANGE	IQUANT	7	I/E Range
POSFEEDENABLE	TOGGLE	F	Positive Feedback IR Comp
POSFEEDRESISTANCE	QUANT	0	Positive Feedback Resistance (ohm)
ACHSELECT	IQUANT	0	Ach Select
CABLEID	IQUANT	14	Cable ID
DCCALDATE	LABEL	1/27/2020	DC Calibration Date
ACCALDATE	LABEL	1/27/2020	AC Calibration Date
THERMOSELECT	IQUANT	1	Thermo Select
FRAMEWORKVERSION	QUANT	6.33	Framework Version
INSTRUMENTVERSION	LABEL	3.50	Instrument Version
ZCURVE	TABLE
	Pt	Time	Freq	Zreal	Zimag	Zsig	Zmod	Zphz	Idc	Vdc	IERange
	#	s	Hz	ohm	ohm	V	ohm	°	A	V	#
	0	2	1000078	1938.467	-2432.798	1	3110.653	-51.45196	4.077852E-007	0.0305172	8
	1	3	794390.6	2244.916	-2725.63	1	3531.105	-50.52404	4.419968E-006	0.0293714	8
	2	4	630984.4	2565.524	-3074.234	1	4004.101	-50.15417	-3.770085E-006	0.0305486	8
	3	6	501234.4	2918.62	-3454.577	1	4522.438	-49.807	-2.031492E-006	0.0304188	8
	4	7	398109.4	3293.401	-3890.581	1	5097.363	-49.75188	8.18215E-007	0.0296993	8
	5	9	316265.6	3735.041	-4397.705	1	5769.778	-49.65822	1.055252E-006	0.0296327	8
	6	10	251203.1	4229.726	-4999.915	1	6549.025	-49.77013	-4.198765E-007	0.0298622	8
	7	11	199546.9	4766.953	-5692.931	1	7425.181	-50.05901	-3.261103E-007	0.0300127	8
	8	13	158578.1	5444.446	-6549.685	1	8517.063	-50.26484	3.425882E-006	0.0292524	8
	9	14	125953.1	6317.656	-7405.292	1	9734.02	-49.5316	3.572659E-007	0.0295685	7
	10	16	100078.1	7267.186	-8481.347	1	11168.94	-49.4086	9.061776E-009	0.0298147	7
	11	17	79453.13	8443.908	-9655.95	1	12827.19	-48.83103	-1.218455E-008	0.0297565	7
	12	19	63140.62	9841.82	-10916.51	1	14698.01	-47.96364	-2.171774E-008	0.0298325	7
	13	20	50203.12	11525.73	-12208.87	1	16789.85	-46.64867	2.294758E-008	0.0298385	7
	14	21	39890.62	13486.67	-13496.1	1	19079.7	-45.02003	8.656188E-008	0.029705	7
	15	23	31640.63	15731.07	-14714.42	1	21540.21	-43.08746	6.739566E-008	0.0296675	7
	16	24	25171.88	18210.79	-15808.34	1	24115.07	-40.96046	8.639356E-008	0.0297081	7
	17	25	20015.62	20881.37	-16680.93	1	26726.11	-38.61936	-3.115792E-008	0.0297997	7
	18	27	15890.62	23675.75	-17481.07	1	29430.07	-36.44044	-2.127189E-008	0.0298154	7
	19	28	12609.37	26782.7	-17917.12	1	32223.23	-33.78178	1.519095E-009	0.0298227	6
	20	29	10078.13	29625.02	-18315.39	1	34829.52	-31.72604	2.632672E-009	0.0298192	6
	21	31	8015.625	32440.54	-18588.69	1	37388.88	-29.81305	1.094451E-008	0.0296924	6
	22	32	6328.125	35234.84	-18795.06	1	39934.3	-28.07647	4.549324E-009	0.0297639	6
	23	33	5015.625	37863.74	-19019.6	1	42372.25	-26.67115	1.602813E-008	0.0295503	6
	24	35	3984.375	40395.15	-19353.93	1	44792.22	-25.59979	1.617299E-008	0.0295528	6
	25	36	3170.956	42763.09	-19882.2	1	47159.13	-24.93552	-5.375689E-009	0.0298413	6
	26	38	2527.573	45057.32	-20627.51	1	49554.58	-24.59859	-3.736416E-009	0.0297738	6
	27	39	1976.103	47551.37	-21770.51	1	52298.07	-24.59979	-4.876096E-009	0.0298077	6
	28	40	1577.524	49742.7	-23197.2	1	54885.75	-25.0017	-6.438168E-009	0.0298948	6
	29	42	1265.625	52269.48	-24927.55	1	57909.25	-25.49668	-5.90638E-009	0.0298963	6
	30	43	998.264	55068.66	-27217.48	1	61427.59	-26.30071	-7.795251E-009	0.0298453	6
	31	44	796.875	57832.86	-29939.69	1	65123.15	-27.3703	-6.000164E-009	0.0298918	6
	32	46	627.7902	60827.52	-33309.33	1	69350.55	-28.70524	-2.241402E-009	0.0296813	6
	33	47	505.5147	63731.17	-37128.54	1	73757.65	-30.22425	3.299862E-009	0.0296062	6
	34	48	397.9953	67218.65	-42312.88	1	79427.49	-32.18964	1.474021E-009	0.0297672	6
	35	50	315.5048	70866.58	-48541.79	1	85897.48	-34.41014	4.018724E-010	0.0297599	6
	36	51	252.4038	75017.52	-55942.62	1	93579.94	-36.71291	1.128074E-009	0.0297564	6
	37	52	198.6229	80295.88	-65390.76	1	103553.8	-39.15842	3.925045E-010	0.0297507	5
	38	54	158.3615	86305.2	-76391.87	1	115257.6	-41.51321	6.955334E-010	0.0297523	5
	39	55	125.558	94289.54	-89663.41	1	130115.5	-43.5594	5.566683E-011	0.0297555	5
	40	56	100.4464	102887.3	-104346	1	146539.7	-45.4033	-1.171093E-010	0.0297578	5
	41	58	79.00281	115459.2	-121045.8	1	167280.9	-46.35316	-3.195975E-010	0.0297529	5
	42	59	63.3446	123064.3	-138886.5	1	185564.7	-48.45655	3.177024E-010	0.0297549	5
	43	61	49.86702	146962.8	-161856.9	1	218622.3	-47.7612	2.862337E-010	0.0297494	5
	44	62	39.72458	166465.9	-185149.6	1	248980.5	-48.04166	3.489132E-010	0.0297533	5
	45	64	31.6723	188934.1	-213417.8	1	285032	-48.48223	6.585823E-010	0.0297556	5
	46	65	24.93351	215943.7	-241399.9	1	323891.3	-48.18585	1.122929E-010	0.0297457	5
	47	67	19.86229	246833.6	-273922.8	1	368728.3	-47.97779	2.590093E-010	0.0297502	5
	48	68	15.83615	288487.4	-305944.4	1	420508	-46.68216	1.211193E-009	0.0297464	5
	49	69	12.40079	326819.4	-361520.1	1	487347.6	-47.88596	-1.525818E-010	0.0297527	5
	50	71	9.93114	369639.5	-393203.3	1	539668.6	-46.76928	6.476434E-010	0.0297465	5
	51	72	7.944915	429306.5	-437490.9	1	612945.6	-45.54098	3.416344E-010	0.0297469	5
	52	74	6.317385	486601.8	-488836.6	1	689740.9	-45.13127	6.84208E-010	0.0297565	6
	53	76	5.008013	557245.2	-539978.5	1	775950.4	-44.09843	7.273974E-010	0.0297518	6
	54	79	3.945707	642648.9	-593411.1	1	874719.6	-42.71886	9.050793E-010	0.0297445	6
	55	82	3.158693	722005	-644188.3	1	967610	-41.74002	2.01845E-010	0.0297568	5
	56	86	2.504006	817121.2	-699397.2	1	1075567	-40.56115	-1.396281E-010	0.0297006	4
	57	89	1.998082	908031.3	-751597	1	1178736	-39.61529	2.734629E-010	0.0296543	4
	58	92	1.584686	1011375	-811928.9	1	1296961	-38.7574	-1.801268E-011	0.0296611	4
	59	96	1.266892	1105959	-871652.8	1	1408163	-38.24314	2.642656E-010	0.0296574	4
	60	100	0.999041	1212886	-949219.2	1	1540165	-38.04717	-7.777144E-011	0.029716	4
