EXPLAIN
TAG	EISPOT
TITLE	LABEL	Potentiostatic EIS	Test &Identifier
DATE	LABEL	6/1/2020	Date
TIME	LABEL	13:46:34	Time
NOTES	NOTES	1	&Notes...
	
PSTAT	PSTAT	REF600-11020	Potentiostat
VDC	POTEN	0.00000E+000	T	DC &Voltage (V)
FREQINIT	QUANT	1.00000E+006	Initial Fre&q. (Hz)
FREQFINAL	QUANT	1.00000E+000	Final Fre&q. (Hz)
PTSPERDEC	QUANT	1.00000E+001	Points/&decade
VAC	QUANT	2.50000E+001	AC &Voltage (mV rms)
AREA	QUANT	4.00000E-004	&Area (cm^2)
CONDIT	TWOPARAM	F	5.00000E+000	0.00000E+000	Conditionin&g	Time(s)	E(V)
DELAY	TWOPARAM	T	3.00000E+000	0.00000E+000	Init. De&lay	Time(s)	Stab.(mV/s)
SPEED	SELECTOR	0	&Optimize for:
ZGUESS	QUANT	1.00000E+003	E&stimated Z (ohms)
OCVCURVE	TABLE	12
	Pt	T	Vf	Vm	Ach	Over
	#	s	V vs. Ref.	V	V	bits
	0	0.258333	-1.09298E-001	-1.09298E-001	5.68497E-004	...........
	1	0.516667	-1.09303E-001	-1.09578E-001	5.64230E-004	...........
	2	0.775	-1.09336E-001	-1.09832E-001	5.70197E-004	...........
	3	1.03333	-1.09427E-001	-1.10058E-001	5.66997E-004	...........
	4	1.29167	-1.09587E-001	-1.10264E-001	5.69930E-004	...........
	5	1.55	-1.09794E-001	-1.10454E-001	5.68763E-004	...........
	6	1.80833	-1.10016E-001	-1.10624E-001	5.67530E-004	...........
	7	2.06667	-1.10228E-001	-1.10782E-001	5.66630E-004	...........
	8	2.325	-1.10423E-001	-1.10932E-001	5.66763E-004	...........
	9	2.58333	-1.10601E-001	-1.11070E-001	5.68630E-004	...........
	10	2.84167	-1.10763E-001	-1.11198E-001	5.64430E-004	...........
	11	3.1	-1.10913E-001	-1.11314E-001	5.67797E-004	...........
EOC	QUANT	-0.1109128	Open Circuit (V)
PSTATMODEL	IQUANT	4	Pstat Model
PSTATSECTION	LABEL	REF600-11020	Pstat Section
PSTATSERIALNO	LABEL	11020	Pstat Serial Number
CTRLMODE	IQUANT	1	Control Mode
IESTAB	IQUANT	0	I/E Stability
CASPEED	IQUANT	1	Control Amp Speed
CONVENTION	IQUANT	1	Current Convention
ICHRANGE	IQUANT	2	Ich Range
ICHRANGEMODE	TOGGLE	F	Ich Auto Range
ICHOFFSETENABLE	TOGGLE	T	Ich Offset Enable
ICHOFFSET	QUANT	0	Ich Offset (V)
ICHFILTER	IQUANT	3	Ich Filter
VCHRANGE	IQUANT	2	Vch Range
VCHRANGEMODE	TOGGLE	F	Vch Auto Range
VCHOFFSETENABLE	TOGGLE	T	Vch Offset Enable
VCHOFFSET	QUANT	0	Vch Offset (V)
VCHFILTER	IQUANT	3	Vch Filter
ACHRANGE	IQUANT	2	Ach Range
ACHOFFSETENABLE	TOGGLE	F	Ach Offset Enable
ACHOFFSET	QUANT	0	Ach Offset (V)
ACHFILTER	IQUANT	3	Ach Filter
IERANGELOWERLIMIT	IQUANT	1	I/E Range Lower Limit
IERANGEMODE	TOGGLE	F	I/E AutoRange
IERANGE	IQUANT	8	I/E Range
POSFEEDENABLE	TOGGLE	F	Positive Feedback IR Comp
POSFEEDRESISTANCE	QUANT	0	Positive Feedback Resistance (ohm)
ACHSELECT	IQUANT	0	Ach Select
CABLEID	IQUANT	14	Cable ID
DCCALDATE	LABEL	2/27/2020	DC Calibration Date
ACCALDATE	LABEL	2/27/2020	AC Calibration Date
THERMOSELECT	IQUANT	1	Thermo Select
FRAMEWORKVERSION	QUANT	6.33	Framework Version
INSTRUMENTVERSION	LABEL	3.50	Instrument Version
ZCURVE	TABLE
	Pt	Time	Freq	Zreal	Zimag	Zsig	Zmod	Zphz	Idc	Vdc	IERange
	#	s	Hz	ohm	ohm	V	ohm	°	A	V	#
	0	1	1000078	1855.999	-1554.014	1	2420.681	-39.93919	3.695646E-008	-0.1086602	8
	1	2	794390.6	2141.636	-1606.193	1	2677.025	-36.86931	4.846559E-008	-0.108973	8
	2	2	630984.4	2429.013	-1627.477	1	2923.83	-33.82271	5.14426E-008	-0.1091189	8
	3	2	501234.4	2714.758	-1622.353	1	3162.584	-30.86275	6.334877E-008	-0.1091966	8
	4	3	398109.4	2982.679	-1596.152	1	3382.909	-28.15304	6.240811E-008	-0.1092348	8
	5	3	316265.6	3238.746	-1559.729	1	3594.75	-25.71473	4.917124E-008	-0.1092858	8
	6	3	251203.1	3476.896	-1513.865	1	3792.175	-23.52865	5.799699E-008	-0.1092799	8
	7	4	199546.9	3692.945	-1461.717	1	3971.708	-21.59431	8.92195E-008	-0.1093064	8
	8	4	158578.1	3893.948	-1419.185	1	4144.504	-20.02474	8.713758E-008	-0.1093081	8
	9	4	125953.1	4118.354	-1334.907	1	4329.297	-17.95938	4.078042E-009	-0.1093367	7
	10	5	100078.1	4282.018	-1312.769	1	4478.732	-17.04434	2.309079E-009	-0.1093519	7
	11	5	79453.13	4453.807	-1311.21	1	4642.809	-16.40454	1.563673E-009	-0.1093636	7
	12	5	63140.62	4622.102	-1317.436	1	4806.19	-15.90912	1.285535E-009	-0.1093666	7
	13	6	50203.12	4790.279	-1334.883	1	4972.795	-15.57129	1.985649E-009	-0.1093778	7
	14	6	39890.62	4959.795	-1362.952	1	5143.657	-15.3656	1.670007E-009	-0.1093751	7
	15	6	31640.63	5134.505	-1404.346	1	5323.094	-15.29693	8.292939E-010	-0.1093706	7
	16	7	25171.88	5313.114	-1459.536	1	5509.939	-15.3605	3.423472E-009	-0.1093727	7
	17	7	20015.62	5499.34	-1526.813	1	5707.354	-15.51655	2.048263E-009	-0.109369	7
	18	7	15890.62	5694.781	-1606.008	1	5916.908	-15.74919	2.004495E-009	-0.1093744	7
	19	7	12609.37	5900.778	-1701.046	1	6141.07	-16.08094	4.007072E-009	-0.1093765	7
	20	8	10078.13	6109.138	-1805.164	1	6370.258	-16.46167	2.335267E-009	-0.1093819	7
	21	8	8015.625	6334.608	-1929.624	1	6621.987	-16.94158	3.195702E-009	-0.1093756	7
	22	8	6328.125	6571.994	-2073.51	1	6891.339	-17.51085	2.448885E-009	-0.1093825	7
	23	9	5015.625	6814.842	-2242.818	1	7174.42	-18.21678	3.095529E-009	-0.1093762	7
	24	9	3984.375	7061.012	-2440.55	1	7470.888	-19.06707	3.768754E-009	-0.1093832	7
	25	9	3170.956	7311.86	-2674.94	1	7785.795	-20.09433	2.285107E-009	-0.1093855	7
	26	10	2527.573	7568.943	-2957.903	1	8126.383	-21.34529	2.410601E-009	-0.1093849	7
	27	10	1976.103	7852.743	-3327.123	1	8528.5	-22.96185	4.339147E-009	-0.1093775	7
	28	10	1577.524	8131.081	-3752.817	1	8955.34	-24.7752	3.126328E-009	-0.1093787	7
	29	11	1265.625	8412.246	-4241.063	1	9420.854	-26.75511	-1.436373E-010	-0.109327	6
	30	11	998.264	8717.79	-4909.076	1	10004.94	-29.3843	-1.932438E-011	-0.109328	6
	31	11	796.875	9030.818	-5699.183	1	10678.78	-32.25527	-1.677037E-010	-0.1093296	6
	32	12	627.7902	9383.977	-6738.444	1	11552.73	-35.68137	1.562103E-010	-0.1093285	6
	33	12	505.5147	9731.25	-7900.594	1	12534.62	-39.0724	7.733427E-011	-0.1093376	6
	34	12	397.9953	10167.38	-9490.836	1	13908.69	-43.02893	5.078098E-010	-0.1093127	6
	35	13	315.5048	10650.62	-11408	1	15606.99	-46.96645	5.282138E-010	-0.1093143	6
	36	13	252.4038	11186.83	-13675.96	1	17668.54	-50.71711	4.661091E-010	-0.1093179	6
	37	13	198.6229	11867.58	-16683.06	1	20473.49	-54.57365	4.870079E-010	-0.1093176	6
	38	14	158.3615	12643.76	-20193.92	1	23825.6	-57.9486	3.843569E-010	-0.1093182	6
	39	14	125.558	13613.61	-24617.37	1	28130.86	-61.05705	5.20014E-010	-0.109324	6
	40	14	100.4464	14761.44	-29828.1	1	33280.86	-63.66993	4.580439E-010	-0.109321	6
	41	15	79.00281	16313.54	-36726.52	1	40186.67	-66.04971	4.271956E-010	-0.1093251	6
	42	15	63.3446	18120.94	-44501.89	1	48049.84	-67.84411	2.418005E-010	-0.1093232	6
	43	15	49.86702	20630.7	-54794.75	1	58549.9	-69.36821	3.215668E-010	-0.1093273	6
	44	16	39.72458	23713.38	-66745.13	1	70832.46	-70.44077	4.190402E-010	-0.1093197	6
	45	16	31.6723	27693.78	-81174.32	1	85768.38	-71.16219	3.702813E-010	-0.1093245	6
	46	16	24.93351	33229.25	-99688	1	105080.3	-71.56509	6.729145E-010	-0.1093269	6
	47	17	19.86229	40155.96	-120877.1	1	127372.6	-71.62327	5.826499E-010	-0.1093192	5
	48	17	15.83615	49138.96	-146239.7	1	154274.7	-71.4268	3.535747E-010	-0.1093232	5
	49	17	12.40079	62096.18	-178977.7	1	189443.8	-70.86582	7.927328E-010	-0.1093247	5
	50	17	9.93114	77351.63	-214121.3	1	227664.6	-70.13767	6.415946E-010	-0.1093206	5
	51	18	7.944915	97393.3	-255291.8	1	273238.6	-69.11826	-1.668967E-010	-0.1093222	5
	52	18	6.317385	123840.8	-304159.3	1	328404.3	-67.84593	3.857873E-010	-0.1093307	5
	53	19	5.008013	158423.1	-360776.5	1	394027.4	-66.29292	5.260651E-010	-0.1093156	5
	54	20	3.945707	203815.9	-425644.8	1	471926.2	-64.41302	1.985771E-010	-0.1093292	5
	55	21	3.158693	256216.7	-492872.5	1	555491	-62.53262	4.115412E-010	-0.109315	5
	56	22	2.504006	322525.3	-567388.5	1	652650.2	-60.38444	2.598954E-010	-0.1093231	5
	57	23	1.998082	398227.7	-644873.3	1	757922.8	-58.30349	1.323325E-010	-0.1093583	5
	58	25	1.584686	487345.4	-725643.5	1	874107.6	-56.11451	2.048667E-010	-0.1093142	5
	59	27	1.266892	586703.7	-807937.9	1	998491	-54.01381	2.555324E-010	-0.1092973	5
	60	29	0.999041	702396.8	-901795.3	1	1143064	-52.08543	2.620372E-010	-0.1092966	4
