EXPLAIN
TAG	EISPOT
TITLE	LABEL	Potentiostatic EIS	Test &Identifier
DATE	LABEL	1/25/2020	Date
TIME	LABEL	12:05:57	Time
NOTES	NOTES	6	&Notes...
	
	
	
	
	
	
PSTAT	PSTAT	REF600-11020	Potentiostat
VDC	POTEN	0.00000E+000	T	DC &Voltage (V)
FREQINIT	QUANT	1.00000E+006	Initial Fre&q. (Hz)
FREQFINAL	QUANT	1.00000E+000	Final Fre&q. (Hz)
PTSPERDEC	QUANT	1.00000E+001	Points/&decade
VAC	QUANT	2.50000E+001	AC &Voltage (mV rms)
AREA	QUANT	1.00000E-001	&Area (cm^2)
CONDIT	TWOPARAM	F	5.00000E+000	0.00000E+000	Conditionin&g	Time(s)	E(V)
DELAY	TWOPARAM	F	5.00000E+000	0.00000E+000	Init. De&lay	Time(s)	Stab.(mV/s)
SPEED	SELECTOR	0	&Optimize for:
ZGUESS	QUANT	5.00000E+002	E&stimated Z (ohms)
OCVCURVE	TABLE	39
	Pt	T	Vf	Vm	Ach	Over
	#	s	V vs. Ref.	V	V	bits
	0	0.258333	3.14284E-002	3.14284E-002	6.67579E-004	...........
	1	0.516667	3.14266E-002	3.13338E-002	6.65446E-004	...........
	2	0.775	3.14149E-002	3.12127E-002	6.66479E-004	...........
	3	1.03333	3.13779E-002	3.09962E-002	6.64879E-004	...........
	4	1.29167	3.12990E-002	3.07622E-002	6.68479E-004	...........
	5	1.55	3.11702E-002	3.06022E-002	6.69946E-004	...........
	6	1.80833	3.10008E-002	3.04345E-002	6.65279E-004	...........
	7	2.06667	3.08139E-002	3.02965E-002	6.62213E-004	...........
	8	2.325	3.06317E-002	3.01625E-002	6.66413E-004	...........
	9	2.58333	3.04651E-002	3.00472E-002	6.59579E-004	...........
	10	2.84167	3.03160E-002	2.99270E-002	6.70079E-004	...........
	11	3.1	3.01816E-002	2.98307E-002	6.66046E-004	...........
	12	3.35833	3.00588E-002	2.97264E-002	6.67179E-004	...........
	13	3.61667	2.99454E-002	2.96394E-002	6.65813E-004	...........
	14	3.875	2.98398E-002	2.95489E-002	6.59746E-004	...........
	15	4.13333	2.97410E-002	2.94681E-002	6.62413E-004	...........
	16	4.39167	2.96481E-002	2.93909E-002	6.60879E-004	...........
	17	4.65	2.95603E-002	2.93094E-002	6.58746E-004	...........
	18	4.90833	2.94767E-002	2.92321E-002	6.61046E-004	...........
	19	5.16667	2.93960E-002	2.91567E-002	6.58413E-004	...........
	20	5.425	2.93171E-002	2.90860E-002	6.59513E-004	...........
	21	5.68333	2.92401E-002	2.90185E-002	6.65079E-004	...........
	22	5.94167	2.91657E-002	2.89566E-002	6.66946E-004	...........
	23	6.2	2.90943E-002	2.88826E-002	6.64913E-004	...........
	24	6.45833	2.90253E-002	2.88109E-002	6.62013E-004	...........
	25	6.71667	2.89571E-002	2.87564E-002	6.66646E-004	...........
	26	6.975	2.88896E-002	2.87041E-002	6.63546E-004	...........
	27	7.23333	2.88247E-002	2.86375E-002	6.66813E-004	...........
	28	7.49167	2.87631E-002	2.85822E-002	6.67246E-004	...........
	29	7.75	2.87036E-002	2.85282E-002	6.62146E-004	...........
	30	8.00833	2.86454E-002	2.84747E-002	6.67046E-004	...........
	31	8.26667	2.85885E-002	2.84170E-002	6.60746E-004	...........
	32	8.525	2.85325E-002	2.83533E-002	6.64146E-004	...........
	33	8.78333	2.84762E-002	2.82933E-002	6.56913E-004	...........
	34	9.04167	2.84184E-002	2.82400E-002	6.61913E-004	...........
	35	9.3	2.83598E-002	2.81865E-002	6.62713E-004	...........
	36	9.5583	2.83018E-002	2.81337E-002	6.55546E-004	...........
	37	9.8167	2.82457E-002	2.80866E-002	6.58213E-004	...........
	38	10.075	2.81918E-002	2.80337E-002	6.64413E-004	...........
EOC	QUANT	0.0281918	Open Circuit (V)
PSTATMODEL	IQUANT	4	Pstat Model
PSTATSECTION	LABEL	REF600-11020	Pstat Section
PSTATSERIALNO	LABEL	11020	Pstat Serial Number
CTRLMODE	IQUANT	1	Control Mode
IESTAB	IQUANT	0	I/E Stability
CASPEED	IQUANT	1	Control Amp Speed
CONVENTION	IQUANT	1	Current Convention
ICHRANGE	IQUANT	2	Ich Range
ICHRANGEMODE	TOGGLE	F	Ich Auto Range
ICHOFFSETENABLE	TOGGLE	T	Ich Offset Enable
ICHOFFSET	QUANT	0	Ich Offset (V)
ICHFILTER	IQUANT	3	Ich Filter
VCHRANGE	IQUANT	2	Vch Range
VCHRANGEMODE	TOGGLE	F	Vch Auto Range
VCHOFFSETENABLE	TOGGLE	T	Vch Offset Enable
VCHOFFSET	QUANT	0	Vch Offset (V)
VCHFILTER	IQUANT	3	Vch Filter
ACHRANGE	IQUANT	2	Ach Range
ACHOFFSETENABLE	TOGGLE	F	Ach Offset Enable
ACHOFFSET	QUANT	0	Ach Offset (V)
ACHFILTER	IQUANT	3	Ach Filter
IERANGELOWERLIMIT	IQUANT	1	I/E Range Lower Limit
IERANGEMODE	TOGGLE	F	I/E AutoRange
IERANGE	IQUANT	8	I/E Range
POSFEEDENABLE	TOGGLE	F	Positive Feedback IR Comp
POSFEEDRESISTANCE	QUANT	0	Positive Feedback Resistance (ohm)
ACHSELECT	IQUANT	0	Ach Select
CABLEID	IQUANT	14	Cable ID
DCCALDATE	LABEL	12/22/2019	DC Calibration Date
ACCALDATE	LABEL	12/22/2019	AC Calibration Date
THERMOSELECT	IQUANT	1	Thermo Select
FRAMEWORKVERSION	QUANT	6.33	Framework Version
INSTRUMENTVERSION	LABEL	3.50	Instrument Version
ZCURVE	TABLE
	Pt	Time	Freq	Zreal	Zimag	Zsig	Zmod	Zphz	Idc	Vdc	IERange
	#	s	Hz	ohm	ohm	V	ohm	°	A	V	#
	0	1	1000078	1978.647	-1614.436	1	2553.713	-39.21201	-1.369407E-006	0.0309238	8
	1	1	794390.6	2288.173	-1647.486	1	2819.565	-35.7539	-2.06971E-007	0.0305122	8
	2	1	630984.4	2614.047	-1628.982	1	3080.069	-31.9297	-2.248123E-006	0.0305532	8
	3	2	501234.4	2917.119	-1570.411	1	3312.97	-28.29551	-4.658706E-007	0.030085	8
	4	2	398109.4	3188.298	-1468.566	1	3510.261	-24.73133	9.106363E-007	0.0297181	8
	5	2	316265.6	3456.131	-1351.101	1	3710.838	-21.35196	-7.694272E-008	0.0298547	8
	6	3	251203.1	3645.919	-1208.307	1	3840.928	-18.33589	-8.105514E-007	0.030026	8
	7	3	199546.9	3820.274	-1063.457	1	3965.53	-15.5557	1.20955E-006	0.0296305	8
	8	3	158578.1	3946.711	-951.66	1	4059.826	-13.55679	3.019651E-006	0.0293858	8
	9	4	125953.1	4084.883	-797.5596	1	4162.015	-11.04782	-1.378911E-007	0.0296584	7
	10	4	100078.1	4154.64	-695.8481	1	4212.51	-9.50805	-1.915059E-009	0.0298356	7
	11	4	79453.13	4223.238	-612.7791	1	4267.462	-8.25583	3.930679E-010	0.0297703	7
	12	5	63140.62	4281.282	-543.376	1	4315.627	-7.233249	7.96945E-008	0.0296983	7
	13	5	50203.12	4326.283	-486.5403	1	4353.556	-6.416608	2.883287E-008	0.0297247	7
	14	5	39890.62	4364.819	-442.325	1	4387.174	-5.786525	1.977386E-008	0.0297843	7
	15	6	31640.63	4397.375	-412.2613	1	4416.658	-5.35592	-3.390225E-008	0.0298703	7
	16	6	25171.88	4425.4	-394.936	1	4442.988	-5.099737	-3.71844E-009	0.0298291	7
	17	6	20015.62	4451.047	-390.2466	1	4468.122	-5.010608	4.871217E-008	0.0297208	7
	18	7	15890.62	4474.603	-398.3495	1	4492.299	-5.08732	-1.866858E-010	0.029824	7
	19	7	12609.37	4496.192	-420.7812	1	4515.839	-5.346517	-3.234733E-008	0.0298691	7
	20	7	10078.13	4518.735	-458.7517	1	4541.962	-5.796929	-2.42931E-008	0.0298315	7
	21	8	8015.625	4543.556	-510.2605	1	4572.119	-6.407709	-9.758725E-010	0.0297599	7
	22	8	6328.125	4567.508	-585.3898	1	4604.869	-7.303437	8.063525E-008	0.0296805	7
	23	8	5015.625	4593.858	-683.4785	1	4644.424	-8.462442	-2.508539E-008	0.0298292	7
	24	8	3984.375	4623.854	-810.1147	1	4694.286	-9.93755	7.952105E-008	0.0296836	7
	25	9	3170.956	4657.405	-968.081	1	4756.953	-11.74221	-1.3337E-009	0.0298159	7
	26	9	2527.573	4695.891	-1163.692	1	4837.93	-13.91813	-2.356332E-008	0.0298165	7
	27	9	1976.103	4746.129	-1430.481	1	4957.017	-16.77278	4.871531E-008	0.029707	7
	28	10	1577.524	4802.552	-1733.015	1	5105.668	-19.84213	2.947204E-008	0.0297064	7
	29	10	1265.625	4868.78	-2103.222	1	5303.637	-23.36345	8.272462E-008	0.0296753	7
	30	10	998.264	4957.32	-2592.739	1	5594.4	-27.61011	-7.392865E-009	0.0298215	7
	31	11	796.875	5066.104	-3164.999	1	5973.494	-31.99468	2.120687E-008	0.0297682	7
	32	11	627.7902	5210.431	-3911.941	1	6515.51	-36.89887	5.109201E-008	0.0296842	7
	33	11	505.5147	5380.222	-4739.717	1	7170.196	-41.37851	-3.799098E-010	0.0297485	7
	34	12	397.9953	5621.675	-5863.797	1	8123.26	-46.20766	5.31991E-009	0.029799	7
	35	12	315.5048	5929.086	-7201.374	1	9328.121	-50.53445	5.974391E-009	0.0297972	7
	36	12	252.4038	6313.919	-8762.848	1	10800.61	-54.22601	1.024819E-009	0.0297986	6
	37	13	198.6229	6851.801	-10802.36	1	12792.11	-57.61356	8.552635E-010	0.0297966	6
	38	13	158.3615	7518.87	-13139.61	1	15138.78	-60.22055	9.886545E-010	0.0297948	6
	39	13	125.558	8406.717	-16026.65	1	18097.69	-62.32092	6.923109E-010	0.0297977	6
	40	14	100.4464	9527.09	-19338.96	1	21558.31	-63.77343	6.279E-010	0.0297976	6
	41	14	79.00281	11097.31	-23623.91	1	26100.57	-64.83825	2.554601E-010	0.0297961	6
	42	14	63.3446	12832.86	-28268.05	1	31044.57	-65.58336	7.113558E-010	0.0297941	6
	43	15	49.86702	15464.98	-34182.07	1	37517.73	-65.6566	4.06393E-010	0.0297887	6
	44	15	39.72458	18693.42	-40817.59	1	44894.54	-65.39342	9.619369E-010	0.029791	6
	45	15	31.6723	22723.09	-48391.04	1	53460.56	-64.84655	1.254342E-009	0.029788	6
	46	16	24.93351	27918.79	-57488.56	1	63909.26	-64.0969	6.097702E-011	0.0297819	6
	47	16	19.86229	33960.14	-67294.09	1	75377.62	-63.22208	4.548572E-010	0.0297852	6
	48	16	15.83615	41292.77	-78443.06	1	88647.66	-62.23749	6.289412E-010	0.0297865	6
	49	17	12.40079	50490.58	-91789.23	1	104759.5	-61.18609	-7.108871E-010	0.0297882	5
	50	17	9.93114	59938.09	-104881.6	1	120800.3	-60.25275	-1.154161E-009	0.0297861	5
	51	17	7.944915	70694.76	-120723.3	1	139899.5	-59.64705	-3.786519E-010	0.0297872	5
	52	18	6.317385	82289.66	-138054.1	1	160718.8	-59.20218	7.266661E-011	0.0297894	5
	53	18	5.008013	95633.4	-159385.5	1	185875	-59.03569	-2.31977E-010	0.0297784	5
	54	19	3.945707	110831.8	-185303.3	1	215919	-59.11592	2.350134E-011	0.0297902	5
	55	20	3.158693	127022.7	-214031.1	1	248885.7	-59.31181	-1.81112E-012	0.0297719	5
	56	22	2.504006	146703	-249889.6	1	289769.9	-59.58404	3.609817E-010	0.0297738	5
	57	23	1.998082	168244.2	-290925.9	1	336071.4	-59.95895	2.376377E-010	0.029775	5
	58	25	1.584686	196079.2	-341328.4	1	393639.6	-60.12439	9.21545E-011	0.0297338	5
	59	27	1.266892	227196.7	-399319.4	1	459428.3	-60.36186	1.159614E-010	0.029737	5
	60	29	0.999041	266828.8	-470267.1	1	540692.9	-60.42949	1.199035E-010	0.029761	5
