EXPLAIN
TAG	EISPOT
TITLE	LABEL	Potentiostatic EIS	Test &Identifier
DATE	LABEL	1/14/2020	Date
TIME	LABEL	18:45:24	Time
NOTES	NOTES	5	&Notes...
	
	
	
	
	
PSTAT	PSTAT	REF600-11020	Potentiostat
VDC	POTEN	0.00000E+000	T	DC &Voltage (V)
FREQINIT	QUANT	1.00000E+006	Initial Fre&q. (Hz)
FREQFINAL	QUANT	1.00000E+000	Final Fre&q. (Hz)
PTSPERDEC	QUANT	1.00000E+001	Points/&decade
VAC	QUANT	2.50000E+001	AC &Voltage (mV rms)
AREA	QUANT	1.00000E-001	&Area (cm^2)
CONDIT	TWOPARAM	T	5.00000E+000	0.00000E+000	Conditionin&g	Time(s)	E(V)
DELAY	TWOPARAM	T	5.00000E+000	0.00000E+000	Init. De&lay	Time(s)	Stab.(mV/s)
SPEED	SELECTOR	0	&Optimize for:
ZGUESS	QUANT	5.00000E+002	E&stimated Z (ohms)
OCVCURVE	TABLE	19
	Pt	T	Vf	Vm	Ach	Over
	#	s	V vs. Ref.	V	V	bits
	0	0.258333	4.93082E-003	4.93082E-003	6.45913E-004	...........
	1	0.516667	4.92878E-003	4.82408E-003	6.46546E-004	...........
	2	0.775	4.91808E-003	4.81852E-003	6.48746E-004	...........
	3	1.03333	4.89411E-003	4.82430E-003	6.48646E-004	...........
	4	1.29167	4.86409E-003	4.83953E-003	6.42046E-004	...........
	5	1.55	4.84265E-003	4.90145E-003	6.43246E-004	...........
	6	1.80833	4.83952E-003	4.90218E-003	6.45613E-004	...........
	7	2.06667	4.85388E-003	4.92644E-003	6.49146E-004	...........
	8	2.325	4.87669E-003	4.91625E-003	6.47780E-004	...........
	9	2.58333	4.89861E-003	4.96683E-003	6.45780E-004	...........
	10	2.84167	4.91691E-003	4.95990E-003	6.55446E-004	...........
	11	3.1	4.93398E-003	5.00700E-003	6.51780E-004	...........
	12	3.35833	4.95191E-003	4.98934E-003	6.49713E-004	...........
	13	3.61667	4.97013E-003	5.02889E-003	6.43746E-004	...........
	14	3.875	4.98763E-003	5.04949E-003	6.48246E-004	...........
	15	4.13333	5.00558E-003	5.07689E-003	6.45846E-004	...........
	16	4.39167	5.02558E-003	5.07998E-003	6.42646E-004	...........
	17	4.65	5.04665E-003	5.10844E-003	6.46946E-004	...........
	18	4.90833	5.06662E-003	5.11343E-003	6.48646E-004	...........
EOC	QUANT	0.0050666	Open Circuit (V)
PSTATMODEL	IQUANT	4	Pstat Model
PSTATSECTION	LABEL	REF600-11020	Pstat Section
PSTATSERIALNO	LABEL	11020	Pstat Serial Number
CTRLMODE	IQUANT	1	Control Mode
IESTAB	IQUANT	0	I/E Stability
CASPEED	IQUANT	1	Control Amp Speed
CONVENTION	IQUANT	1	Current Convention
ICHRANGE	IQUANT	2	Ich Range
ICHRANGEMODE	TOGGLE	F	Ich Auto Range
ICHOFFSETENABLE	TOGGLE	T	Ich Offset Enable
ICHOFFSET	QUANT	0	Ich Offset (V)
ICHFILTER	IQUANT	3	Ich Filter
VCHRANGE	IQUANT	2	Vch Range
VCHRANGEMODE	TOGGLE	F	Vch Auto Range
VCHOFFSETENABLE	TOGGLE	T	Vch Offset Enable
VCHOFFSET	QUANT	0	Vch Offset (V)
VCHFILTER	IQUANT	3	Vch Filter
ACHRANGE	IQUANT	2	Ach Range
ACHOFFSETENABLE	TOGGLE	F	Ach Offset Enable
ACHOFFSET	QUANT	0	Ach Offset (V)
ACHFILTER	IQUANT	3	Ach Filter
IERANGELOWERLIMIT	IQUANT	1	I/E Range Lower Limit
IERANGEMODE	TOGGLE	F	I/E AutoRange
IERANGE	IQUANT	7	I/E Range
POSFEEDENABLE	TOGGLE	F	Positive Feedback IR Comp
POSFEEDRESISTANCE	QUANT	0	Positive Feedback Resistance (ohm)
ACHSELECT	IQUANT	0	Ach Select
CABLEID	IQUANT	14	Cable ID
DCCALDATE	LABEL	12/22/2019	DC Calibration Date
ACCALDATE	LABEL	12/22/2019	AC Calibration Date
THERMOSELECT	IQUANT	1	Thermo Select
FRAMEWORKVERSION	QUANT	6.33	Framework Version
INSTRUMENTVERSION	LABEL	3.50	Instrument Version
ZCURVE	TABLE
	Pt	Time	Freq	Zreal	Zimag	Zsig	Zmod	Zphz	Idc	Vdc	IERange
	#	s	Hz	ohm	ohm	V	ohm	°	A	V	#
	0	1	1000078	2089.822	-1521.761	1	2585.171	-36.06125	-1.840967E-006	0.0072915	8
	1	1	794390.6	2308.604	-1562.675	1	2787.76	-34.09375	2.489415E-006	0.0064741	8
	2	2	630984.4	2526.814	-1618.514	1	3000.73	-32.64101	-1.404112E-006	0.0068251	8
	3	2	501234.4	2736.008	-1670.945	1	3205.9	-31.4134	5.528541E-007	0.00654	8
	4	2	398109.4	2942.865	-1734.944	1	3416.209	-30.52116	9.063596E-007	0.0063143	8
	5	3	316265.6	3156.834	-1849.736	1	3658.842	-30.36802	2.800276E-007	0.00649	8
	6	3	251203.1	3368.49	-1962.171	1	3898.313	-30.22112	1.342405E-006	0.0062636	8
	7	3	199546.9	3601.423	-2138.774	1	4188.627	-30.70477	1.326894E-006	0.006305	8
	8	4	158578.1	3861.264	-2317.03	1	4503.108	-30.96672	7.433026E-007	0.0064446	8
	9	4	125953.1	4181.619	-2498.773	1	4871.325	-30.8609	-7.393022E-007	0.0082399	7
	10	4	100078.1	4481.677	-2757.17	1	5261.883	-31.60022	-1.878142E-008	0.0065629	7
	11	5	79453.13	4841.848	-3049.986	1	5722.404	-32.20772	-2.204279E-008	0.0065652	7
	12	5	63140.62	5246.052	-3368.972	1	6234.664	-32.70824	-3.526177E-008	0.0065982	7
	13	5	50203.12	5697.461	-3713.468	1	6800.802	-33.09534	5.237443E-008	0.0064388	7
	14	5	39890.62	6201.109	-4088.199	1	7427.458	-33.39562	-2.376203E-008	0.0065619	7
	15	6	31640.63	6768.096	-4489.511	1	8121.75	-33.55769	-1.822501E-008	0.0065388	7
	16	6	25171.88	7381.943	-4912.649	1	8867.198	-33.64358	-2.000182E-008	0.0065418	7
	17	6	20015.62	8048.831	-5357.143	1	9668.64	-33.64695	7.337986E-009	0.006488	7
	18	7	15890.62	8774.364	-5835.658	1	10537.76	-33.6271	3.183071E-008	0.0064491	7
	19	7	12609.37	9589.43	-6324.594	1	11487.28	-33.40637	-3.584989E-009	0.0065904	6
	20	7	10078.13	10384.24	-6876.023	1	12454.4	-33.51093	1.945563E-009	0.0065878	6
	21	8	8015.625	11240.46	-7532.056	1	13530.7	-33.82543	6.249182E-012	0.0065954	6
	22	8	6328.125	12205.56	-8308.704	1	14765.17	-34.24433	-9.280824E-010	0.0065274	6
	23	8	5015.625	13238.11	-9178.7	1	16108.89	-34.73566	-7.828797E-011	0.006592	6
	24	9	3984.375	14388.83	-10155.91	1	17611.96	-35.21518	-3.597959E-009	0.0065814	6
	25	9	3170.956	15675.78	-11250.77	1	19295.33	-35.66764	2.648786E-010	0.0065258	6
	26	9	2527.573	17110.38	-12440.17	1	21154.73	-36.01917	3.71188E-009	0.0064152	6
	27	10	1976.103	18830.36	-13834.41	1	23366.07	-36.30422	1.075074E-008	0.0064143	6
	28	10	1577.524	20517.94	-15241.62	1	25559.59	-36.60658	-2.356236E-009	0.0066188	6
	29	10	1265.625	22295.08	-16693.54	1	27852.19	-36.82419	-1.325636E-009	0.0065212	6
	30	10	998.264	24296.38	-18511.02	1	30544.58	-37.30319	1.758177E-009	0.0065544	6
	31	11	796.875	26279.04	-20521.4	1	33342.4	-37.9864	-1.477845E-009	0.0065179	6
	32	11	627.7902	28501.93	-23115.64	1	36697.31	-39.04275	-1.001552E-009	0.0065222	6
	33	11	505.5147	30795.69	-25966.1	1	40281.67	-40.13668	1.934622E-009	0.0066043	6
	34	12	397.9953	33644.86	-29740.81	1	44905.37	-41.47549	8.545049E-010	0.0065436	6
	35	12	315.5048	37008.02	-34106.21	1	50327.21	-42.66335	1.117822E-009	0.006547	6
	36	12	252.4038	40954.62	-39034.34	1	56577.04	-43.62478	8.191595E-010	0.00654	6
	37	13	198.6229	46156.9	-44914.32	1	64403.07	-44.21831	1.088138E-009	0.0065376	6
	38	13	158.3615	52170.61	-50956.31	1	72926.8	-44.32539	7.94208E-010	0.0065314	6
	39	13	125.558	59558.81	-57529.39	1	82806.29	-44.00703	9.845595E-010	0.0065327	6
	40	14	100.4464	67914.63	-63921.59	1	93265.03	-43.26516	1.242903E-009	0.0065293	6
	41	14	79.00281	78200.17	-70725.78	1	105439.1	-42.12681	-1.685067E-011	0.0065276	5
	42	14	63.3446	89513.45	-77896.08	1	118661.1	-41.03033	-2.200788E-010	0.0065241	5
	43	15	49.86702	101126	-84344.98	1	131683.5	-39.83008	-6.412245E-011	0.0065222	5
	44	15	39.72458	113143.3	-89725.65	1	144402.6	-38.41535	4.984362E-010	0.0065276	5
	45	15	31.6723	125953.4	-95478.8	1	158052.1	-37.16389	3.81752E-010	0.006524	5
	46	16	24.93351	139860.3	-102237.3	1	173243.6	-36.16665	-3.529003E-010	0.0065289	5
	47	16	19.86229	153681.6	-108494.4	1	188119.8	-35.22089	-1.037832E-009	0.0065314	5
	48	16	15.83615	165481.5	-115138.7	1	201596.3	-34.82941	2.564366E-010	0.0065281	5
	49	17	12.40079	179771.7	-124075.8	1	218432.3	-34.61288	-1.132573E-009	0.0065303	5
	50	17	9.93114	192923.8	-133803.3	1	234782.7	-34.74345	-5.634371E-010	0.0065311	5
	51	18	7.944915	204789.5	-146349.5	1	251708	-35.55088	2.052286E-011	0.0065213	5
	52	18	6.317385	217355.3	-162879.8	1	271612.1	-36.84683	-8.941135E-011	0.0065233	5
	53	19	5.008013	230346.5	-184588.6	1	295182.1	-38.707	-3.816754E-010	0.0065186	5
	54	20	3.945707	245001.5	-212611.1	1	324390.5	-40.95129	3.426208E-011	0.0065291	5
	55	21	3.158693	261672.7	-245264.4	1	358646.3	-43.14612	-1.804577E-010	0.0065375	5
	56	23	2.504006	281848.5	-287617.6	1	402694	-45.58043	-2.961872E-010	0.0065285	5
	57	24	1.998082	305412.6	-335788.1	1	453905.8	-47.71224	3.532316E-011	0.00657	5
	58	26	1.584686	335309.1	-396831.7	1	519526.3	-49.80334	5.881706E-011	0.0065655	5
	59	28	1.266892	369899.5	-464501.8	1	593790.9	-51.46843	-5.488403E-012	0.0065285	5
	60	30	0.999041	416253.1	-547888	1	688075.5	-52.77456	-6.046998E-011	0.0065042	5
