EXPLAIN
TAG	EISPOT
TITLE	LABEL	Potentiostatic EIS	Test &Identifier
DATE	LABEL	3/12/2020	Date
TIME	LABEL	13:23:25	Time
NOTES	NOTES	1	&Notes...
	
PSTAT	PSTAT	REF600-11020	Potentiostat
VDC	POTEN	0.00000E+000	T	DC &Voltage (V)
FREQINIT	QUANT	1.00000E+006	Initial Fre&q. (Hz)
FREQFINAL	QUANT	1.00000E+000	Final Fre&q. (Hz)
PTSPERDEC	QUANT	1.00000E+001	Points/&decade
VAC	QUANT	2.50000E+001	AC &Voltage (mV rms)
AREA	QUANT	2.50000E-001	&Area (cm^2)
CONDIT	TWOPARAM	F	5.00000E+000	0.00000E+000	Conditionin&g	Time(s)	E(V)
DELAY	TWOPARAM	T	5.00000E+000	0.00000E+000	Init. De&lay	Time(s)	Stab.(mV/s)
SPEED	SELECTOR	1	&Optimize for:
ZGUESS	QUANT	5.00000E+003	E&stimated Z (ohms)
OCVCURVE	TABLE	19
	Pt	T	Vf	Vm	Ach	Over
	#	s	V vs. Ref.	V	V	bits
	0	0.258333	1.40654E-002	1.40654E-002	5.63264E-004	...........
	1	0.516667	1.40664E-002	1.41209E-002	5.67164E-004	...........
	2	0.775	1.40719E-002	1.41204E-002	5.67763E-004	...........
	3	1.03333	1.40866E-002	1.42492E-002	5.75363E-004	...........
	4	1.29167	1.41189E-002	1.44706E-002	5.74330E-004	...........
	5	1.55	1.41818E-002	1.44830E-002	5.72530E-004	...........
	6	1.80833	1.42760E-002	1.45742E-002	5.67997E-004	...........
	7	2.06667	1.43809E-002	1.45970E-002	5.69963E-004	...........
	8	2.325	1.44739E-002	1.46827E-002	5.75097E-004	...........
	9	2.58333	1.45482E-002	1.47005E-002	5.70163E-004	...........
	10	2.84167	1.46085E-002	1.47664E-002	5.64763E-004	...........
	11	3.1	1.46609E-002	1.48015E-002	5.65264E-004	...........
	12	3.35833	1.47090E-002	1.48463E-002	5.70830E-004	...........
	13	3.61667	1.47548E-002	1.48783E-002	5.73763E-004	...........
	14	3.875	1.47981E-002	1.49169E-002	5.65763E-004	...........
	15	4.13333	1.48385E-002	1.49460E-002	5.70530E-004	...........
	16	4.39167	1.48763E-002	1.49951E-002	5.69563E-004	...........
	17	4.65	1.49140E-002	1.50845E-002	5.71197E-004	...........
	18	4.90833	1.49575E-002	1.51694E-002	5.67663E-004	...........
EOC	QUANT	0.0149575	Open Circuit (V)
PSTATMODEL	IQUANT	4	Pstat Model
PSTATSECTION	LABEL	REF600-11020	Pstat Section
PSTATSERIALNO	LABEL	11020	Pstat Serial Number
CTRLMODE	IQUANT	1	Control Mode
IESTAB	IQUANT	0	I/E Stability
CASPEED	IQUANT	1	Control Amp Speed
CONVENTION	IQUANT	1	Current Convention
ICHRANGE	IQUANT	2	Ich Range
ICHRANGEMODE	TOGGLE	F	Ich Auto Range
ICHOFFSETENABLE	TOGGLE	T	Ich Offset Enable
ICHOFFSET	QUANT	0	Ich Offset (V)
ICHFILTER	IQUANT	3	Ich Filter
VCHRANGE	IQUANT	2	Vch Range
VCHRANGEMODE	TOGGLE	F	Vch Auto Range
VCHOFFSETENABLE	TOGGLE	T	Vch Offset Enable
VCHOFFSET	QUANT	0	Vch Offset (V)
VCHFILTER	IQUANT	3	Vch Filter
ACHRANGE	IQUANT	2	Ach Range
ACHOFFSETENABLE	TOGGLE	F	Ach Offset Enable
ACHOFFSET	QUANT	0	Ach Offset (V)
ACHFILTER	IQUANT	3	Ach Filter
IERANGELOWERLIMIT	IQUANT	1	I/E Range Lower Limit
IERANGEMODE	TOGGLE	F	I/E AutoRange
IERANGE	IQUANT	6	I/E Range
POSFEEDENABLE	TOGGLE	F	Positive Feedback IR Comp
POSFEEDRESISTANCE	QUANT	0	Positive Feedback Resistance (ohm)
ACHSELECT	IQUANT	0	Ach Select
CABLEID	IQUANT	14	Cable ID
DCCALDATE	LABEL	2/27/2020	DC Calibration Date
ACCALDATE	LABEL	2/27/2020	AC Calibration Date
THERMOSELECT	IQUANT	1	Thermo Select
FRAMEWORKVERSION	QUANT	6.33	Framework Version
INSTRUMENTVERSION	LABEL	3.50	Instrument Version
ZCURVE	TABLE
	Pt	Time	Freq	Zreal	Zimag	Zsig	Zmod	Zphz	Idc	Vdc	IERange
	#	s	Hz	ohm	ohm	V	ohm	°	A	V	#
	0	2	1000078	1546.354	-1860.771	1	2419.438	-50.27244	1.966024E-007	0.0173907	8
	1	3	794390.6	1809.318	-2059.659	1	2741.5	-48.70215	-8.786833E-008	0.0170258	8
	2	5	630984.4	2101.441	-2212.163	1	3051.183	-46.47036	-3.649119E-007	0.0168278	8
	3	6	501234.4	2376.288	-2409.356	1	3384.042	-45.3959	6.727435E-006	0.0155213	8
	4	8	398109.4	2704.533	-2623.375	1	3767.837	-44.1273	-1.557354E-006	0.0169094	8
	5	9	316265.6	2968.773	-2860.598	1	4122.698	-43.93689	-5.478092E-007	0.0167893	8
	6	11	251203.1	3276.261	-3145.02	1	4541.479	-43.82913	6.129369E-006	0.0155022	8
	7	12	199546.9	3623.256	-3513.395	1	5046.972	-44.11806	-1.007078E-006	0.0168444	8
	8	14	158578.1	4019.807	-4005.212	1	5674.555	-44.89579	6.831078E-007	0.0163725	8
	9	15	125953.1	4573.62	-4471.98	1	6396.609	-44.35623	2.003517E-007	0.0159352	7
	10	16	100078.1	5100.03	-5116.247	1	7224.007	-45.09095	-6.793194E-008	0.0166455	7
	11	18	79453.13	5776.035	-5888.239	1	8248.269	-45.55114	2.921128E-008	0.0166192	7
	12	19	63140.62	6634.356	-6712.421	1	9437.758	-45.33512	-5.023282E-008	0.0165666	7
	13	21	50203.12	7712.708	-7611.278	1	10835.93	-44.62076	9.910698E-008	0.0163631	7
	14	22	39890.62	9037.999	-8460.609	1	12380.12	-43.11013	-5.055818E-008	0.0165916	7
	15	24	31640.63	10648.5	-9257.552	1	14110.02	-41.00292	-1.554114E-008	0.0166187	7
	16	25	25171.88	12490.78	-9827.47	1	15893.36	-38.19489	8.962591E-008	0.0164998	7
	17	27	20015.62	14487.75	-10100.27	1	17660.98	-34.88264	-5.578359E-008	0.0166433	7
	18	28	15890.62	16581.46	-10070.59	1	19400.04	-31.27199	-1.836149E-009	0.01664	7
	19	30	12609.37	18860.47	-9296.834	1	21027.32	-26.23993	-4.426701E-009	0.0167179	6
	20	32	10078.13	20504.22	-8668.227	1	22261.2	-22.91637	-2.629838E-009	0.0165193	6
	21	33	8015.625	21915.5	-7881.219	1	23289.54	-19.77952	3.510706E-009	0.0164374	6
	22	35	6328.125	23076.7	-7014.554	1	24119.25	-16.90754	7.556669E-010	0.016714	6
	23	36	5015.625	23923.97	-6194.959	1	24713.04	-14.51751	1.048799E-008	0.0163701	6
	24	38	3984.375	24557.89	-5507.815	1	25167.96	-12.64105	-1.135612E-008	0.0167447	6
	25	40	3170.956	25064.68	-4976.829	1	25554	-11.23055	-2.227064E-009	0.0165726	6
	26	41	2527.573	25412.01	-4587.583	1	25822.78	-10.23328	1.604995E-008	0.0163997	6
	27	43	1976.103	25673.96	-4340.423	1	26038.27	-9.59566	2.833501E-009	0.0164367	6
	28	44	1577.524	25944.68	-4299.273	1	26298.48	-9.408941	-1.912494E-009	0.0165764	6
	29	46	1265.625	26145.72	-4416.563	1	26516.13	-9.58795	8.401865E-009	0.0166017	6
	30	47	998.264	26350.65	-4710.195	1	26768.32	-10.13462	1.679839E-008	0.0164073	6
	31	49	796.875	26575.05	-5186.076	1	27076.35	-11.04239	1.616574E-008	0.0163956	6
	32	50	627.7902	26847.55	-5908.043	1	27489.93	-12.41064	5.669023E-009	0.0166302	6
	33	52	505.5147	27126.59	-6777.564	1	27960.46	-14.02813	8.845773E-010	0.0167108	6
	34	53	397.9953	27417.57	-7984.999	1	28556.67	-16.23749	1.444775E-009	0.0165996	6
	35	54	315.5048	27817.28	-9484.883	1	29389.87	-18.82788	9.269004E-010	0.0165961	6
	36	56	252.4038	28285	-11255.33	1	30442.13	-21.69888	1.376412E-009	0.0165926	6
	37	57	198.6229	28877.92	-13631.9	1	31933.72	-25.26978	1.670588E-009	0.0165973	6
	38	58	158.3615	29572.33	-16364.57	1	33798.26	-28.95902	1.090713E-009	0.0165955	6
	39	60	125.558	30436.09	-19827.08	1	36324.49	-33.08155	1.565101E-009	0.0165917	6
	40	61	100.4464	31381.49	-23890.62	1	39440.58	-37.2819	1.010233E-009	0.0165916	6
	41	63	79.00281	32714.03	-29324.5	1	43933.29	-41.8727	4.876162E-010	0.0165924	6
	42	65	63.3446	33753.62	-35402.34	1	48914.54	-46.36571	5.452754E-010	0.0165927	6
	43	66	49.86702	36541.18	-43314.56	1	56669.29	-49.84824	2.871881E-010	0.0165899	6
	44	68	39.72458	39433.84	-52695.66	1	65816.87	-53.19132	4.049741E-010	0.0165932	6
	45	69	31.6723	42990.98	-63564.69	1	76737.83	-55.92816	2.191232E-010	0.0165925	6
	46	71	24.93351	48508.38	-77743.02	1	91635.37	-58.03757	5.269579E-010	0.0165873	6
	47	72	19.86229	55399.89	-93444.88	1	108632.8	-59.33792	7.937547E-010	0.0166032	5
	48	74	15.83615	62603.73	-112356.9	1	128620.7	-60.87404	-8.5885E-010	0.0165997	5
	49	75	12.40079	77110.94	-135470.7	1	155879.5	-60.35115	1.255381E-009	0.016599	5
	50	77	9.93114	91012.06	-158934.3	1	183148.3	-60.20284	-2.440498E-010	0.0166004	5
	51	78	7.944915	109242.7	-186208.7	1	215888	-59.6012	7.584711E-010	0.0165954	5
	52	80	6.317385	134017.2	-215400.4	1	253688.7	-58.11107	6.677504E-010	0.0166069	5
	53	82	5.008013	163131.8	-247732.3	1	296619.8	-56.63508	4.492421E-010	0.016608	5
	54	84	3.945707	198823.9	-282341.2	1	345322.3	-54.8469	-3.379419E-011	0.0165989	5
	55	87	3.158693	234999	-315900.8	1	393723.1	-53.3544	1.605069E-010	0.0166151	5
	56	91	2.504006	277042.8	-352475	1	448320.6	-51.83291	5.281317E-011	0.0165895	5
	57	93	1.998082	319440.3	-390282	1	504343.3	-50.70015	-2.925602E-010	0.0166233	5
	58	97	1.584686	366230.9	-433195.8	1	567259.8	-49.78826	1.870473E-010	0.0166371	5
	59	100	1.266892	411322.9	-479036.1	1	631397	-49.34906	-1.532786E-010	0.0166333	5
	60	104	0.999041	461815.3	-537954	1	708990.8	-49.35502	2.208361E-010	0.0165744	5
