EXPLAIN
TAG	EISPOT
TITLE	LABEL	Potentiostatic EIS	Test &Identifier
DATE	LABEL	5/26/2020	Date
TIME	LABEL	17:59:09	Time
NOTES	NOTES	1	&Notes...
	
PSTAT	PSTAT	REF600-11020	Potentiostat
VDC	POTEN	0.00000E+000	T	DC &Voltage (V)
FREQINIT	QUANT	1.00000E+006	Initial Fre&q. (Hz)
FREQFINAL	QUANT	1.00000E+000	Final Fre&q. (Hz)
PTSPERDEC	QUANT	1.00000E+001	Points/&decade
VAC	QUANT	2.50000E+001	AC &Voltage (mV rms)
AREA	QUANT	5.00000E-004	&Area (cm^2)
CONDIT	TWOPARAM	F	5.00000E+000	0.00000E+000	Conditionin&g	Time(s)	E(V)
DELAY	TWOPARAM	T	3.00000E+000	0.00000E+000	Init. De&lay	Time(s)	Stab.(mV/s)
SPEED	SELECTOR	0	&Optimize for:
ZGUESS	QUANT	1.00000E+003	E&stimated Z (ohms)
OCVCURVE	TABLE	12
	Pt	T	Vf	Vm	Ach	Over
	#	s	V vs. Ref.	V	V	bits
	0	0.258333	1.11486E-002	1.11486E-002	5.84597E-004	...........
	1	0.516667	1.12288E-002	1.53476E-002	5.83263E-004	...........
	2	0.775	1.17146E-002	1.89743E-002	5.84097E-004	...........
	3	1.03333	1.30589E-002	2.20525E-002	5.82597E-004	...........
	4	1.29167	1.53804E-002	2.46708E-002	5.82897E-004	...........
	5	1.55	1.83074E-002	2.68829E-002	5.88530E-004	...........
	6	1.80833	2.13182E-002	2.87760E-002	5.82830E-004	...........
	7	2.06667	2.40666E-002	3.04274E-002	5.90496E-004	...........
	8	2.325	2.64335E-002	3.18257E-002	5.86430E-004	...........
	9	2.58333	2.84360E-002	3.30482E-002	5.83663E-004	...........
	10	2.84167	3.01337E-002	3.40588E-002	5.85197E-004	...........
	11	3.1	3.15816E-002	3.49478E-002	5.81030E-004	...........
EOC	QUANT	0.0315816	Open Circuit (V)
PSTATMODEL	IQUANT	4	Pstat Model
PSTATSECTION	LABEL	REF600-11020	Pstat Section
PSTATSERIALNO	LABEL	11020	Pstat Serial Number
CTRLMODE	IQUANT	1	Control Mode
IESTAB	IQUANT	0	I/E Stability
CASPEED	IQUANT	1	Control Amp Speed
CONVENTION	IQUANT	1	Current Convention
ICHRANGE	IQUANT	2	Ich Range
ICHRANGEMODE	TOGGLE	F	Ich Auto Range
ICHOFFSETENABLE	TOGGLE	T	Ich Offset Enable
ICHOFFSET	QUANT	0	Ich Offset (V)
ICHFILTER	IQUANT	3	Ich Filter
VCHRANGE	IQUANT	2	Vch Range
VCHRANGEMODE	TOGGLE	F	Vch Auto Range
VCHOFFSETENABLE	TOGGLE	T	Vch Offset Enable
VCHOFFSET	QUANT	0	Vch Offset (V)
VCHFILTER	IQUANT	3	Vch Filter
ACHRANGE	IQUANT	2	Ach Range
ACHOFFSETENABLE	TOGGLE	F	Ach Offset Enable
ACHOFFSET	QUANT	0	Ach Offset (V)
ACHFILTER	IQUANT	3	Ach Filter
IERANGELOWERLIMIT	IQUANT	1	I/E Range Lower Limit
IERANGEMODE	TOGGLE	F	I/E AutoRange
IERANGE	IQUANT	7	I/E Range
POSFEEDENABLE	TOGGLE	F	Positive Feedback IR Comp
POSFEEDRESISTANCE	QUANT	0	Positive Feedback Resistance (ohm)
ACHSELECT	IQUANT	0	Ach Select
CABLEID	IQUANT	14	Cable ID
DCCALDATE	LABEL	2/27/2020	DC Calibration Date
ACCALDATE	LABEL	2/27/2020	AC Calibration Date
THERMOSELECT	IQUANT	1	Thermo Select
FRAMEWORKVERSION	QUANT	6.33	Framework Version
INSTRUMENTVERSION	LABEL	3.50	Instrument Version
ZCURVE	TABLE
	Pt	Time	Freq	Zreal	Zimag	Zsig	Zmod	Zphz	Idc	Vdc	IERange
	#	s	Hz	ohm	ohm	V	ohm	°	A	V	#
	0	1	1000078	974.884	-8019.098	1	8078.139	-83.06855	4.014108E-008	0.0338964	8
	1	1	794390.6	1091.813	-9974.48	1	10034.06	-83.75323	4.11714E-008	0.0335568	8
	2	1	630984.4	1235.847	-12426.56	1	12487.86	-84.3205	3.94231E-008	0.0334026	8
	3	2	501234.4	1428.93	-15491.61	1	15557.37	-84.73001	2.051833E-008	0.033309	8
	4	2	398109.4	1686.075	-19285.53	1	19359.09	-85.00351	5.432094E-008	0.0332631	8
	5	2	316265.6	1923.099	-24120.54	1	24197.08	-85.44153	2.325624E-008	0.0332271	8
	6	3	251203.1	2317.209	-29995.88	1	30085.25	-85.58263	5.159443E-008	0.0332204	8
	7	3	199546.9	2826.718	-37472.38	1	37578.85	-85.68608	4.162613E-008	0.0331992	8
	8	3	158578.1	3344.26	-46629.69	1	46749.46	-85.8978	4.040577E-008	0.0332169	8
	9	3	125953.1	5125.482	-58478.38	1	58702.56	-84.99097	4.1268E-009	0.0331349	7
	10	4	100078.1	5785.47	-72816.55	1	73046.02	-85.45724	2.657502E-009	0.0331366	7
	11	4	79453.13	6991.261	-90810.38	1	91079.1	-85.59763	2.48131E-009	0.0331327	7
	12	4	63140.62	8073.958	-113203.4	1	113491	-85.92043	3.351444E-009	0.0331336	7
	13	5	50203.12	9695	-141473.6	1	141805.4	-86.07973	3.118303E-009	0.0331245	7
	14	5	39890.62	12005.69	-176107.2	1	176516	-86.10003	2.608311E-009	0.0331275	7
	15	5	31640.63	14028.9	-220660.4	1	221105.9	-86.36221	3.106473E-009	0.0331221	7
	16	6	25171.88	17166.25	-274690.5	1	275226.4	-86.42406	3.082719E-009	0.0331182	7
	17	6	20015.62	22336.71	-342232.5	1	342960.7	-86.26573	2.995348E-009	0.033117	7
	18	6	15890.62	27592.97	-427911.5	1	428800.2	-86.31051	2.972423E-009	0.0331205	7
	19	7	12609.37	39438.5	-536077.6	1	537526.3	-85.7924	6.650241E-010	0.0331741	6
	20	7	10078.13	48411.2	-664267.8	1	666029.5	-85.83171	5.982657E-010	0.0331674	6
	21	7	8015.625	55076.7	-827903.1	1	829733.1	-86.19398	6.857694E-010	0.0331626	6
	22	8	6328.125	67961.77	-1040110	1	1042328	-86.26156	6.093738E-010	0.0331565	6
	23	8	5015.625	83099.96	-1301821	1	1304471	-86.34756	6.357568E-010	0.033159	6
	24	8	3984.375	102320.5	-1623566	1	1626787	-86.39387	5.296105E-010	0.0331645	6
	25	9	3170.956	119714.2	-2022214	1	2025754	-86.61207	5.954001E-010	0.0331641	6
	26	9	2527.573	146190.8	-2522396	1	2526629	-86.68301	6.200735E-010	0.0331602	6
	27	9	1976.103	214844	-3196775	1	3203986	-86.15514	5.294402E-010	0.0331596	6
	28	10	1577.524	288800.3	-3955197	1	3965727	-85.82379	4.954327E-010	0.0331568	6
	29	10	1265.625	403233.6	-4910343	1	4926872	-85.30545	3.873948E-011	0.0331625	5
	30	10	998.264	457663.5	-6177766	1	6194695	-85.76313	4.866383E-011	0.0331663	5
	31	10	796.875	557768.4	-7672774	1	7693020	-85.84222	4.91444E-011	0.0331628	5
	32	11	627.7902	685375.9	-9.64809E+006	1	9.672403E+006	-85.93668	4.002543E-011	0.0331621	5
	33	11	505.5147	797479	-1.188191E+007	1	1.190864E+007	-86.16023	5.02185E-011	0.0331586	5
	34	11	397.9953	1039550	-1.495376E+007	1	1.498985E+007	-86.02333	3.399781E-011	0.0331765	5
	35	12	315.5048	1299661	-1.86988E+007	1	1.874391E+007	-86.02405	3.293723E-011	0.033174	5
	36	12	252.4038	1634410	-2.316438E+007	1	2.322196E+007	-85.96407	3.332736E-011	0.0331759	5
	37	12	198.6229	2118194	-2.91667E+007	1	2.924351E+007	-85.84626	3.41979E-011	0.0331742	5
	38	13	158.3615	2603785	-3.621832E+007	1	3.631179E+007	-85.888	3.134344E-011	0.0331743	5
	39	13	125.558	4097859	-4.537351E+007	1	4.555818E+007	-84.83939	-2.636178E-012	0.0331751	4
	40	13	100.4464	5069087	-5.618016E+007	1	5.640838E+007	-84.84422	-2.311736E-012	0.033173	4
	41	14	79.00281	6408791	-7.065869E+007	1	7.094874E+007	-84.81741	-3.011539E-012	0.0331674	4
	42	14	63.3446	7955064	-8.69426E+007	1	8.730578E+007	-84.77212	-3.172317E-012	0.033165	4
	43	14	49.86702	1.056008E+007	-1.091811E+008	1	1.096906E+008	-84.47549	-3.221422E-012	0.0331678	4
	44	15	39.72458	1.341082E+007	-1.360076E+008	1	1.366672E+008	-84.36864	-3.108194E-012	0.0331677	4
	45	15	31.6723	1.767894E+007	-1.683456E+008	1	1.692713E+008	-84.00501	-3.40188E-012	0.0331637	4
	46	15	24.93351	2.377724E+007	-2.111371E+008	1	2.124718E+008	-83.5747	-3.483454E-012	0.0331623	4
	47	16	19.86229	3.301281E+007	-2.645902E+008	1	2.666417E+008	-82.88799	-3.006451E-012	0.0331639	4
	48	16	15.83615	4.346059E+007	-3.251489E+008	1	3.280405E+008	-82.38676	-2.695502E-012	0.0331663	4
	49	16	12.40079	6.620239E+007	-4.073463E+008	1	4.126909E+008	-80.76894	-3.457378E-012	0.0331769	3
	50	17	9.93114	8.621293E+007	-4.974193E+008	1	5.048352E+008	-80.16715	-3.838004E-012	0.0331732	3
	51	17	7.944915	1.190193E+008	-6.134723E+008	1	6.24911E+008	-79.02049	-3.873946E-012	0.0331733	3
	52	17	6.317385	1.682858E+008	-7.468035E+008	1	7.655295E+008	-77.30099	-3.698307E-012	0.0331659	3
	53	18	5.008013	2.364329E+008	-9.172788E+008	1	9.472597E+008	-75.54635	-3.577111E-012	0.0331675	3
	54	19	3.945707	3.288E+008	-1.130492E+009	1	1.177336E+009	-73.7831	-3.685092E-012	0.0331715	3
	55	20	3.158693	4.565468E+008	-1.349776E+009	1	1.424897E+009	-71.31246	-3.616487E-012	0.0331638	3
	56	22	2.504006	6.391279E+008	-1.614755E+009	1	1.73664E+009	-68.4061	-3.466932E-012	0.03317	3
	57	23	1.998082	8.743715E+008	-1.893754E+009	1	2.085865E+009	-65.21661	-3.441818E-012	0.0331233	3
	58	24	1.584686	1.198746E+009	-2.19766E+009	1	2.503338E+009	-61.3891	-3.411993E-012	0.0331401	3
	59	26	1.266892	1.61124E+009	-2.43558E+009	1	2.920298E+009	-56.51368	-3.066917E-012	0.0331774	2
	60	29	0.999041	2.115063E+009	-2.679357E+009	1	3.413568E+009	-51.71273	-3.100773E-012	0.0332039	2
