EXPLAIN
TAG	EISPOT
TITLE	LABEL	Potentiostatic EIS	Test &Identifier
DATE	LABEL	6/14/2020	Date
TIME	LABEL	21:03:07	Time
NOTES	NOTES	1	&Notes...
	
PSTAT	PSTAT	REF600-10037	Potentiostat
VDC	POTEN	0.00000E+000	T	DC &Voltage (V)
FREQINIT	QUANT	1.00000E+006	Initial Fre&q. (Hz)
FREQFINAL	QUANT	1.00000E+000	Final Fre&q. (Hz)
PTSPERDEC	QUANT	1.00000E+001	Points/&decade
VAC	QUANT	2.50000E+001	AC &Voltage (mV rms)
AREA	QUANT	2.50000E-001	&Area (cm^2)
CONDIT	TWOPARAM	F	5.00000E+000	0.00000E+000	Conditionin&g	Time(s)	E(V)
DELAY	TWOPARAM	F	3.00000E+000	0.00000E+000	Init. De&lay	Time(s)	Stab.(mV/s)
SPEED	SELECTOR	0	&Optimize for:
ZGUESS	QUANT	1.00000E+003	E&stimated Z (ohms)
OCVCURVE	TABLE	39
	Pt	T	Vf	Vm	Ach	Over
	#	s	V vs. Ref.	V	V	bits
	0	0.258333	-1.45669E-001	-1.45669E-001	5.50720E-004	...........
	1	0.516667	-1.45668E-001	-1.45622E-001	5.54220E-004	...........
	2	0.775	-1.45662E-001	-1.45569E-001	5.47687E-004	...........
	3	1.03333	-1.45646E-001	-1.45525E-001	5.46787E-004	...........
	4	1.29167	-1.45616E-001	-1.45483E-001	5.51487E-004	...........
	5	1.55	-1.45576E-001	-1.45439E-001	5.43687E-004	...........
	6	1.80833	-1.45532E-001	-1.45392E-001	5.45154E-004	...........
	7	2.06667	-1.45487E-001	-1.45351E-001	5.53220E-004	...........
	8	2.325	-1.45442E-001	-1.45311E-001	5.47854E-004	...........
	9	2.58333	-1.45398E-001	-1.45270E-001	5.51787E-004	...........
	10	2.84167	-1.45355E-001	-1.45225E-001	5.49654E-004	...........
	11	3.1	-1.45314E-001	-1.45188E-001	5.51120E-004	...........
	12	3.35833	-1.45272E-001	-1.45148E-001	5.50887E-004	...........
	13	3.61667	-1.45231E-001	-1.45109E-001	5.45221E-004	...........
	14	3.875	-1.45191E-001	-1.45063E-001	5.50587E-004	...........
	15	4.13333	-1.45150E-001	-1.45026E-001	5.49987E-004	...........
	16	4.39167	-1.45110E-001	-1.44987E-001	5.45287E-004	...........
	17	4.65	-1.45069E-001	-1.44945E-001	5.47654E-004	...........
	18	4.90833	-1.45029E-001	-1.44907E-001	5.42620E-004	...........
	19	5.16667	-1.44989E-001	-1.44866E-001	5.47020E-004	...........
	20	5.425	-1.44949E-001	-1.44828E-001	5.43254E-004	...........
	21	5.68333	-1.44910E-001	-1.44790E-001	5.48954E-004	...........
	22	5.94167	-1.44870E-001	-1.44747E-001	5.46454E-004	...........
	23	6.2	-1.44831E-001	-1.44715E-001	5.50820E-004	...........
	24	6.45833	-1.44792E-001	-1.44677E-001	5.48420E-004	...........
	25	6.71667	-1.44754E-001	-1.44641E-001	5.46354E-004	...........
	26	6.975	-1.44717E-001	-1.44589E-001	5.49420E-004	...........
	27	7.23333	-1.44679E-001	-1.44562E-001	5.49154E-004	...........
	28	7.49167	-1.44640E-001	-1.44526E-001	5.40854E-004	...........
	29	7.75	-1.44601E-001	-1.44493E-001	5.46687E-004	...........
	30	8.00833	-1.44564E-001	-1.44456E-001	5.48687E-004	...........
	31	8.26667	-1.44529E-001	-1.44414E-001	5.45820E-004	...........
	32	8.525	-1.44493E-001	-1.44384E-001	5.46487E-004	...........
	33	8.78333	-1.44458E-001	-1.44352E-001	5.42921E-004	...........
	34	9.04167	-1.44422E-001	-1.44314E-001	5.45021E-004	...........
	35	9.3	-1.44387E-001	-1.44262E-001	5.48354E-004	...........
	36	9.5583	-1.44350E-001	-1.44237E-001	5.46554E-004	...........
	37	9.8167	-1.44313E-001	-1.44200E-001	5.45021E-004	...........
	38	10.075	-1.44275E-001	-1.44170E-001	5.43820E-004	...........
EOC	QUANT	-0.1442748	Open Circuit (V)
PSTATMODEL	IQUANT	4	Pstat Model
PSTATSECTION	LABEL	REF600-10037	Pstat Section
PSTATSERIALNO	LABEL	10037	Pstat Serial Number
CTRLMODE	IQUANT	1	Control Mode
IESTAB	IQUANT	0	I/E Stability
CASPEED	IQUANT	1	Control Amp Speed
CONVENTION	IQUANT	1	Current Convention
ICHRANGE	IQUANT	2	Ich Range
ICHRANGEMODE	TOGGLE	F	Ich Auto Range
ICHOFFSETENABLE	TOGGLE	T	Ich Offset Enable
ICHOFFSET	QUANT	0	Ich Offset (V)
ICHFILTER	IQUANT	3	Ich Filter
VCHRANGE	IQUANT	2	Vch Range
VCHRANGEMODE	TOGGLE	F	Vch Auto Range
VCHOFFSETENABLE	TOGGLE	T	Vch Offset Enable
VCHOFFSET	QUANT	0	Vch Offset (V)
VCHFILTER	IQUANT	3	Vch Filter
ACHRANGE	IQUANT	2	Ach Range
ACHOFFSETENABLE	TOGGLE	F	Ach Offset Enable
ACHOFFSET	QUANT	0	Ach Offset (V)
ACHFILTER	IQUANT	3	Ach Filter
IERANGELOWERLIMIT	IQUANT	1	I/E Range Lower Limit
IERANGEMODE	TOGGLE	F	I/E AutoRange
IERANGE	IQUANT	8	I/E Range
POSFEEDENABLE	TOGGLE	F	Positive Feedback IR Comp
POSFEEDRESISTANCE	QUANT	0	Positive Feedback Resistance (ohm)
ACHSELECT	IQUANT	0	Ach Select
CABLEID	IQUANT	14	Cable ID
DCCALDATE	LABEL	6/8/2020	DC Calibration Date
ACCALDATE	LABEL	6/8/2020	AC Calibration Date
THERMOSELECT	IQUANT	1	Thermo Select
FRAMEWORKVERSION	QUANT	6.33	Framework Version
INSTRUMENTVERSION	LABEL	3.50	Instrument Version
ZCURVE	TABLE
	Pt	Time	Freq	Zreal	Zimag	Zsig	Zmod	Zphz	Idc	Vdc	IERange
	#	s	Hz	ohm	ohm	V	ohm	°	A	V	#
	0	1	1000078	2060.422	-1675.776	1	2655.854	-39.12205	7.634943E-008	-0.1350927	8
	1	1	794390.6	2410.314	-1685.788	1	2941.343	-34.96917	4.232661E-007	-0.1353905	8
	2	2	630984.4	2752.114	-1638.787	1	3203.085	-30.77231	3.088049E-008	-0.1354351	8
	3	2	501234.4	3057.75	-1540.344	1	3423.813	-26.73671	4.031379E-007	-0.1356228	8
	4	2	398109.4	3327.788	-1413.673	1	3615.612	-23.01621	-3.13554E-007	-0.1355793	8
	5	3	316265.6	3543.214	-1268.262	1	3763.357	-19.69437	1.757233E-007	-0.1356182	8
	6	3	251203.1	3717.281	-1126.957	1	3884.354	-16.86557	4.060579E-007	-0.1356868	8
	7	3	199546.9	3855.32	-994.622	1	3981.553	-14.46612	4.892484E-007	-0.1356532	8
	8	4	158578.1	3965.992	-879.1827	1	4062.272	-12.49922	-1.407672E-007	-0.1355904	8
	9	4	125953.1	4117.585	-637.6996	1	4166.673	-8.803584	-6.3354E-008	-0.1356674	7
	10	4	100078.1	4172.933	-582.1882	1	4213.349	-7.942374	7.285348E-008	-0.1356764	7
	11	5	79453.13	4220.731	-545.8998	1	4255.887	-7.369596	-4.616581E-008	-0.1356366	7
	12	5	63140.62	4266.633	-524.4553	1	4298.746	-7.007655	6.127072E-008	-0.1356544	7
	13	5	50203.12	4310.668	-515.6611	1	4341.401	-6.821558	-7.821864E-008	-0.1355733	7
	14	6	39890.62	4355.195	-519.4023	1	4386.058	-6.800995	5.481983E-008	-0.1357523	7
	15	6	31640.63	4401.247	-535.784	1	4433.739	-6.940727	-4.573609E-008	-0.1356484	7
	16	6	25171.88	4448.916	-564.2655	1	4484.557	-7.228352	7.791357E-008	-0.1357177	7
	17	7	20015.62	4499.868	-606.7304	1	4540.587	-7.679047	-7.853121E-008	-0.1355767	7
	18	7	15890.62	4554.995	-662.1473	1	4602.87	-8.270998	-4.652528E-008	-0.1356444	7
	19	7	12609.37	4614.049	-732.715	1	4671.865	-9.023273	-7.133178E-008	-0.1355438	7
	20	7	10078.13	4677.597	-819.3353	1	4748.813	-9.93523	9.368256E-009	-0.1355877	7
	21	8	8015.625	4747.233	-926.6852	1	4836.835	-11.04554	-7.881566E-008	-0.1355474	7
	22	8	6328.125	4828.999	-1063.363	1	4944.691	-12.41854	5.630744E-008	-0.13575	7
	23	8	5015.625	4915.854	-1224.438	1	5066.051	-13.98659	-3.843049E-008	-0.1355449	7
	24	9	3984.375	5011.021	-1419.442	1	5208.18	-15.81552	-1.559299E-008	-0.1355662	7
	25	9	3170.956	5116.798	-1654.324	1	5377.584	-17.91667	-5.819417E-008	-0.1355406	7
	26	9	2527.573	5235.266	-1935.76	1	5581.682	-20.29208	-1.62666E-008	-0.135572	7
	27	10	1976.103	5379.471	-2308.03	1	5853.692	-23.22147	5.500875E-008	-0.1357575	7
	28	10	1577.524	5528.823	-2721.207	1	6162.211	-26.20575	-7.084277E-008	-0.1355401	7
	29	10	1265.625	5698.586	-3212.524	1	6541.727	-29.41172	3.731101E-008	-0.135742	7
	30	11	998.264	5906.154	-3851.85	1	7051.199	-33.11141	7.771674E-008	-0.1357306	7
	31	11	796.875	6137.536	-4587.236	1	7662.381	-36.77469	-5.620145E-008	-0.1355427	7
	32	11	627.7902	6421.085	-5544.458	1	8483.593	-40.80985	5.591203E-008	-0.1357554	7
	33	12	505.5147	6736.801	-6597.003	1	9428.941	-44.3993	4.924809E-008	-0.1356389	7
	34	12	397.9953	7133.416	-7988.171	1	10709.64	-48.23523	3.388885E-010	-0.1356285	6
	35	12	315.5048	7601.693	-9661.96	1	12293.87	-51.80557	2.450953E-010	-0.1356301	6
	36	13	252.4038	8145.902	-11612.66	1	14184.84	-54.95159	2.566193E-010	-0.1356372	6
	37	13	198.6229	8861.451	-14160.36	1	16704.52	-57.96196	2.068096E-010	-0.1356308	6
	38	13	158.3615	9694.45	-17086.82	1	19645.4	-60.43096	2.451288E-010	-0.1356323	6
	39	14	125.558	10752.65	-20713.28	1	23337.94	-62.56533	2.157477E-010	-0.1356356	6
	40	14	100.4464	12014.43	-24912.06	1	27657.86	-64.25321	3.157112E-010	-0.1356369	6
	41	14	79.00281	13690.84	-30362.48	1	33306.45	-65.72875	2.514519E-010	-0.1356388	6
	42	15	63.3446	15591.15	-36349.59	1	39552.2	-66.78443	1.16794E-010	-0.1356341	6
	43	15	49.86702	18139.29	-44183.73	1	47762.28	-67.67978	7.420586E-011	-0.1356384	6
	44	15	39.72458	21109.57	-53150.09	1	57188.69	-68.33855	2.851587E-010	-0.1356302	6
	45	16	31.6723	24723.87	-63814.47	1	68436.51	-68.82196	3.831084E-010	-0.1356358	6
	46	16	24.93351	29458.81	-77320.59	1	82742.34	-69.14337	-7.857785E-011	-0.1356351	6
	47	16	19.86229	34825.14	-92170	1	98529.7	-69.30163	-4.333385E-009	-0.1442758	6
	48	17	15.83615	41182.8	-109867.5	1	117332.4	-69.45197	-3.20287E-009	-0.1442704	5
	49	17	12.40079	50440.46	-133746.9	1	142942.2	-69.33685	-2.635921E-009	-0.1442646	5
	50	17	9.93114	60615.87	-159422	1	170556.9	-69.18205	-2.067123E-009	-0.1442662	5
	51	18	7.944915	73558.75	-190097.7	1	203833.3	-68.84593	-1.825411E-009	-0.1442677	5
	52	18	6.317385	89958.2	-227010.8	1	244185.1	-68.38292	-1.290308E-009	-0.1442644	5
	53	19	5.008013	111075	-271190.5	1	293056.2	-67.72682	-9.899469E-010	-0.1442636	5
	54	20	3.945707	138567	-324218.7	1	352588.4	-66.85875	-7.983395E-010	-0.1442647	5
	55	21	3.158693	170514.4	-381093.4	1	417501.3	-65.8946	-6.45518E-010	-0.1442655	5
	56	23	2.504006	212886.8	-449489.1	1	497354.2	-64.65685	-4.916564E-010	-0.1442719	5
	57	24	1.998082	261999	-523770.5	1	585644.1	-63.425	-4.305898E-010	-0.144269	5
	58	26	1.584686	322734.9	-608942.9	1	689180.2	-62.07677	-3.183869E-010	-0.144271	5
	59	29	1.266892	392031.6	-700387.2	1	802640	-60.76271	-2.508452E-010	-0.1442691	5
	60	32	0.999041	477523.3	-807853.4	1	938432.6	-59.41261	-2.337752E-010	-0.1442679	5
