EXPLAIN
TAG	EISPOT
TITLE	LABEL	Potentiostatic EIS	Test &Identifier
DATE	LABEL	3/9/2020	Date
TIME	LABEL	20:50:55	Time
NOTES	NOTES	1	&Notes...
	
PSTAT	PSTAT	REF600-11020	Potentiostat
VDC	POTEN	0.00000E+000	T	DC &Voltage (V)
FREQINIT	QUANT	1.00000E+006	Initial Fre&q. (Hz)
FREQFINAL	QUANT	1.00000E+000	Final Fre&q. (Hz)
PTSPERDEC	QUANT	1.00000E+001	Points/&decade
VAC	QUANT	2.50000E+001	AC &Voltage (mV rms)
AREA	QUANT	4.00000E-005	&Area (cm^2)
CONDIT	TWOPARAM	F	5.00000E+000	0.00000E+000	Conditionin&g	Time(s)	E(V)
DELAY	TWOPARAM	T	3.00000E+000	0.00000E+000	Init. De&lay	Time(s)	Stab.(mV/s)
SPEED	SELECTOR	0	&Optimize for:
ZGUESS	QUANT	1.00000E+003	E&stimated Z (ohms)
OCVCURVE	TABLE	12
	Pt	T	Vf	Vm	Ach	Over
	#	s	V vs. Ref.	V	V	bits
	0	0.258333	1.47515E-002	1.47515E-002	4.88598E-004	...........
	1	0.516667	1.47527E-002	1.48165E-002	4.93298E-004	...........
	2	0.775	1.47602E-002	1.48683E-002	4.76565E-004	...........
	3	1.03333	1.47805E-002	1.49161E-002	4.84631E-004	...........
	4	1.29167	1.48155E-002	1.49566E-002	4.84365E-004	...........
	5	1.55	1.48597E-002	1.49940E-002	4.88731E-004	...........
	6	1.80833	1.49057E-002	1.50219E-002	4.79531E-004	...........
	7	2.06667	1.49484E-002	1.50536E-002	4.82031E-004	...........
	8	2.325	1.49861E-002	1.50780E-002	4.79231E-004	...........
	9	2.58333	1.50191E-002	1.51006E-002	4.80465E-004	...........
	10	2.84167	1.50482E-002	1.51195E-002	4.84265E-004	...........
	11	3.1	1.50736E-002	1.51182E-002	4.85098E-004	...........
EOC	QUANT	0.0150736	Open Circuit (V)
PSTATMODEL	IQUANT	4	Pstat Model
PSTATSECTION	LABEL	REF600-11020	Pstat Section
PSTATSERIALNO	LABEL	11020	Pstat Serial Number
CTRLMODE	IQUANT	1	Control Mode
IESTAB	IQUANT	0	I/E Stability
CASPEED	IQUANT	1	Control Amp Speed
CONVENTION	IQUANT	1	Current Convention
ICHRANGE	IQUANT	2	Ich Range
ICHRANGEMODE	TOGGLE	F	Ich Auto Range
ICHOFFSETENABLE	TOGGLE	T	Ich Offset Enable
ICHOFFSET	QUANT	0	Ich Offset (V)
ICHFILTER	IQUANT	3	Ich Filter
VCHRANGE	IQUANT	2	Vch Range
VCHRANGEMODE	TOGGLE	F	Vch Auto Range
VCHOFFSETENABLE	TOGGLE	T	Vch Offset Enable
VCHOFFSET	QUANT	0	Vch Offset (V)
VCHFILTER	IQUANT	3	Vch Filter
ACHRANGE	IQUANT	2	Ach Range
ACHOFFSETENABLE	TOGGLE	F	Ach Offset Enable
ACHOFFSET	QUANT	0	Ach Offset (V)
ACHFILTER	IQUANT	3	Ach Filter
IERANGELOWERLIMIT	IQUANT	1	I/E Range Lower Limit
IERANGEMODE	TOGGLE	F	I/E AutoRange
IERANGE	IQUANT	7	I/E Range
POSFEEDENABLE	TOGGLE	F	Positive Feedback IR Comp
POSFEEDRESISTANCE	QUANT	0	Positive Feedback Resistance (ohm)
ACHSELECT	IQUANT	0	Ach Select
CABLEID	IQUANT	14	Cable ID
DCCALDATE	LABEL	2/27/2020	DC Calibration Date
ACCALDATE	LABEL	2/27/2020	AC Calibration Date
THERMOSELECT	IQUANT	1	Thermo Select
FRAMEWORKVERSION	QUANT	6.33	Framework Version
INSTRUMENTVERSION	LABEL	3.50	Instrument Version
ZCURVE	TABLE
	Pt	Time	Freq	Zreal	Zimag	Zsig	Zmod	Zphz	Idc	Vdc	IERange
	#	s	Hz	ohm	ohm	V	ohm	°	A	V	#
	0	1	1000078	1781.319	-1946.666	1	2638.675	-47.53957	5.009808E-008	0.0172722	8
	1	1	794390.6	2142.617	-2110.621	1	3007.579	-44.56899	3.318269E-008	0.0169261	8
	2	2	630984.4	2563.552	-2221.541	1	3392.203	-40.91177	5.37929E-008	0.0168323	8
	3	2	501234.4	3019.387	-2274.962	1	3780.496	-36.99625	3.765368E-008	0.01673	8
	4	2	398109.4	3478.213	-2252.053	1	4143.635	-32.92202	3.900726E-008	0.0166784	8
	5	3	316265.6	3913.498	-2152.885	1	4466.585	-28.81598	-8.132697E-009	0.0166748	8
	6	3	251203.1	4301.487	-2005.836	1	4746.174	-25.00022	-4.386895E-009	0.0166685	8
	7	3	199546.9	4635.843	-1825.688	1	4982.387	-21.49551	5.137034E-008	0.0166481	8
	8	4	158578.1	4905.037	-1628.377	1	5168.269	-18.36517	3.947488E-008	0.0166491	8
	9	4	125953.1	5175.724	-1346.187	1	5347.928	-14.57938	1.211709E-009	0.0165954	7
	10	4	100078.1	5318.642	-1185.356	1	5449.13	-12.56408	1.082515E-009	0.0165879	7
	11	5	79453.13	5446.665	-1053.19	1	5547.555	-10.94389	1.821612E-009	0.0165879	7
	12	5	63140.62	5549.006	-942.3502	1	5628.454	-9.6382	2.085744E-009	0.0165785	7
	13	5	50203.12	5634.102	-853.0549	1	5698.316	-8.609715	1.627873E-009	0.0165797	7
	14	6	39890.62	5705.868	-786.1589	1	5759.772	-7.844865	1.249711E-009	0.0165728	7
	15	6	31640.63	5772.056	-740.4143	1	5819.351	-7.309736	2.168599E-009	0.0165752	7
	16	6	25171.88	5831.301	-715.7391	1	5875.063	-6.997535	1.649743E-009	0.0165759	7
	17	7	20015.62	5888.702	-710.3767	1	5931.395	-6.878572	1.893554E-009	0.0165775	7
	18	7	15890.62	5943.417	-722.8689	1	5987.215	-6.934548	2.677503E-009	0.0165778	7
	19	7	12609.37	5998.627	-756.0067	1	6046.08	-7.183112	2.103214E-009	0.0165672	7
	20	7	10078.13	6052.659	-808.0942	1	6106.365	-7.604622	1.847692E-009	0.0165681	7
	21	8	8015.625	6110.177	-883.625	1	6173.739	-8.228798	1.159475E-009	0.0165705	7
	22	8	6328.125	6170.137	-990.847	1	6249.189	-9.123096	2.287933E-009	0.0165766	7
	23	8	5015.625	6233.765	-1129.143	1	6335.202	-10.26686	2.229023E-009	0.0165772	7
	24	9	3984.375	6299.688	-1303.952	1	6433.224	-11.69433	1.748795E-009	0.0165696	7
	25	9	3170.956	6372.011	-1524.852	1	6551.923	-13.45805	2.436702E-009	0.0165678	7
	26	9	2527.573	6450.992	-1799.127	1	6697.175	-15.58333	2.928326E-009	0.0165754	7
	27	10	1976.103	6549.761	-2171.639	1	6900.391	-18.34346	2.664851E-009	0.0165705	7
	28	10	1577.524	6654.472	-2596.438	1	7143.073	-21.3147	2.012099E-009	0.0165664	7
	29	10	1265.625	6776.563	-3110.319	1	7456.265	-24.65426	2.43014E-009	0.0165636	7
	30	11	998.264	6931.978	-3785.135	1	7898.073	-28.63629	2.082989E-009	0.0165635	7
	31	11	796.875	7115.226	-4577.169	1	8460.313	-32.75286	2.442474E-009	0.0165601	7
	32	11	627.7902	7353.755	-5604.525	1	9245.995	-37.31215	3.247549E-009	0.0165688	7
	33	12	505.5147	7628.544	-6740.058	1	10179.54	-41.46161	-6.750922E-010	0.0166134	6
	34	12	397.9953	7995.89	-8271.763	1	11504.62	-45.97155	4.286869E-010	0.0166337	6
	35	12	315.5048	8444.146	-10087.42	1	13155.21	-50.0674	4.847885E-010	0.0166292	6
	36	13	252.4038	8980.241	-12201.42	1	15149.89	-53.64693	3.817158E-010	0.0166268	6
	37	13	198.6229	9695.33	-14955.97	1	17823.6	-57.04634	3.557406E-010	0.016626	6
	38	13	158.3615	10532.95	-18114.38	1	20954.09	-59.82332	3.613539E-010	0.0166299	6
	39	14	125.558	11593.43	-22029.19	1	24893.63	-62.24325	4.151173E-010	0.0166312	6
	40	14	100.4464	12844.77	-26570.95	1	29512.77	-64.20023	4.084888E-010	0.0166298	6
	41	14	79.00281	14508.92	-32504.32	1	35595.5	-65.9455	2.758742E-010	0.0166232	6
	42	15	63.3446	16401.65	-39115.54	1	42415.08	-67.25106	1.339817E-010	0.0166241	6
	43	15	49.86702	18963.78	-47797.81	1	51422.32	-68.3593	1.34832E-010	0.0166228	6
	44	15	39.72458	22040.55	-57820.5	1	61878.88	-69.1337	4.7061E-010	0.0166241	6
	45	16	31.6723	25931.04	-69843.14	1	74501.56	-69.63128	4.372537E-010	0.0166217	6
	46	16	24.93351	31252.9	-85181.79	1	90734.13	-69.85209	3.810016E-010	0.0166168	6
	47	16	19.86229	37862.56	-102655.5	1	109415.4	-69.75446	9.25713E-010	0.0166291	5
	48	17	15.83615	46380.4	-123424	1	131850.7	-69.40472	-7.184942E-010	0.016622	5
	49	17	12.40079	58494.55	-149787.2	1	160803.7	-68.66848	-6.052796E-011	0.0166248	5
	50	17	9.93114	72759.27	-177862.3	1	192169	-67.75169	-3.714123E-010	0.0166295	5
	51	17	7.944915	90742.33	-209932.6	1	228704.7	-66.62382	-7.844825E-010	0.0166216	5
	52	18	6.317385	114395	-247280.8	1	272459.2	-65.17419	3.292333E-010	0.0166153	5
	53	19	5.008013	144372.5	-289869.3	1	323832.7	-63.52391	2.654647E-010	0.0166254	5
	54	20	3.945707	181535.8	-337748.5	1	383444	-61.74249	-2.309421E-010	0.0166207	5
	55	20	3.158693	223674.2	-385842.7	1	445987.3	-59.899	2.012154E-010	0.0166148	5
	56	22	2.504006	273558.1	-439846.3	1	517975.7	-58.12085	2.157831E-010	0.0166255	5
	57	23	1.998082	329263.8	-495488.2	1	594914.4	-56.39501	-4.695007E-011	0.0165821	5
	58	24	1.584686	390934.6	-558215.9	1	681494.6	-54.99535	-5.555203E-011	0.0165885	5
	59	26	1.266892	456506.8	-622044.4	1	771581.3	-53.72575	2.153518E-011	0.016623	5
	60	29	0.999041	532956.3	-698019.1	1	878221.5	-52.63729	8.40076E-011	0.0166494	5
