EXPLAIN
TAG	EISPOT
TITLE	LABEL	Potentiostatic EIS	Test &Identifier
DATE	LABEL	1/18/2020	Date
TIME	LABEL	21:49:14	Time
NOTES	NOTES	6	&Notes...
	
	
	
	
	
	
PSTAT	PSTAT	REF600-11020	Potentiostat
VDC	POTEN	0.00000E+000	T	DC &Voltage (V)
FREQINIT	QUANT	1.00000E+006	Initial Fre&q. (Hz)
FREQFINAL	QUANT	1.00000E+000	Final Fre&q. (Hz)
PTSPERDEC	QUANT	1.00000E+001	Points/&decade
VAC	QUANT	2.50000E+001	AC &Voltage (mV rms)
AREA	QUANT	1.00000E-001	&Area (cm^2)
CONDIT	TWOPARAM	F	5.00000E+000	0.00000E+000	Conditionin&g	Time(s)	E(V)
DELAY	TWOPARAM	F	5.00000E+000	0.00000E+000	Init. De&lay	Time(s)	Stab.(mV/s)
SPEED	SELECTOR	0	&Optimize for:
ZGUESS	QUANT	5.00000E+002	E&stimated Z (ohms)
OCVCURVE	TABLE	39
	Pt	T	Vf	Vm	Ach	Over
	#	s	V vs. Ref.	V	V	bits
	0	0.258333	3.97281E-002	3.97281E-002	6.19247E-004	...........
	1	0.516667	3.97286E-002	3.97531E-002	6.18547E-004	...........
	2	0.775	3.97285E-002	3.96169E-002	6.21080E-004	...........
	3	1.03333	3.97190E-002	3.95394E-002	6.15747E-004	...........
	4	1.29167	3.96859E-002	3.94195E-002	6.15180E-004	...........
	5	1.55	3.96240E-002	3.93825E-002	6.13980E-004	...........
	6	1.80833	3.95445E-002	3.93598E-002	6.13547E-004	...........
	7	2.06667	3.94668E-002	3.93017E-002	6.18313E-004	...........
	8	2.325	3.94004E-002	3.91250E-002	6.20913E-004	...........
	9	2.58333	3.93358E-002	3.90887E-002	6.17047E-004	...........
	10	2.84167	3.92574E-002	3.88278E-002	6.15213E-004	...........
	11	3.1	3.91607E-002	3.90079E-002	6.20413E-004	...........
	12	3.35833	3.90689E-002	3.92477E-002	6.24813E-004	...........
	13	3.61667	3.90487E-002	4.03061E-002	6.22513E-004	...........
	14	3.875	3.91735E-002	3.96300E-002	6.19347E-004	...........
	15	4.13333	3.94183E-002	3.99210E-002	6.22180E-004	...........
	16	4.39167	3.96585E-002	3.99855E-002	6.19547E-004	...........
	17	4.65	3.98159E-002	4.00646E-002	6.22280E-004	...........
	18	4.90833	3.99113E-002	4.01249E-002	6.22480E-004	...........
	19	5.16667	3.99846E-002	4.01855E-002	6.19847E-004	...........
	20	5.425	4.00522E-002	4.02343E-002	6.12213E-004	...........
	21	5.68333	4.01156E-002	4.02627E-002	6.16647E-004	...........
	22	5.94167	4.01752E-002	4.04590E-002	6.18113E-004	...........
	23	6.2	4.02534E-002	4.12424E-002	6.22180E-004	...........
	24	6.45833	4.03864E-002	4.03797E-002	6.20247E-004	...........
	25	6.71667	4.05304E-002	3.97467E-002	6.25247E-004	...........
	26	6.975	4.05486E-002	3.99799E-002	6.21980E-004	...........
	27	7.23333	4.03947E-002	4.01088E-002	6.18080E-004	...........
	28	7.49167	4.01940E-002	4.01231E-002	6.17547E-004	...........
	29	7.75	4.00746E-002	4.00019E-002	6.22147E-004	...........
	30	8.00833	4.00472E-002	4.02547E-002	6.22713E-004	...........
	31	8.26667	4.00714E-002	4.03696E-002	6.20413E-004	...........
	32	8.525	4.01320E-002	4.04608E-002	6.23380E-004	...........
	33	8.78333	4.02252E-002	4.05552E-002	6.26280E-004	...........
	34	9.04167	4.03311E-002	4.04668E-002	6.18913E-004	...........
	35	9.3	4.04204E-002	4.04843E-002	6.21247E-004	...........
	36	9.5583	4.04755E-002	4.06189E-002	6.22913E-004	...........
	37	9.8167	4.05077E-002	4.06549E-002	6.30746E-004	...........
	38	10.075	4.05412E-002	4.06460E-002	6.24313E-004	...........
EOC	QUANT	0.0405412	Open Circuit (V)
PSTATMODEL	IQUANT	4	Pstat Model
PSTATSECTION	LABEL	REF600-11020	Pstat Section
PSTATSERIALNO	LABEL	11020	Pstat Serial Number
CTRLMODE	IQUANT	1	Control Mode
IESTAB	IQUANT	0	I/E Stability
CASPEED	IQUANT	1	Control Amp Speed
CONVENTION	IQUANT	1	Current Convention
ICHRANGE	IQUANT	2	Ich Range
ICHRANGEMODE	TOGGLE	F	Ich Auto Range
ICHOFFSETENABLE	TOGGLE	T	Ich Offset Enable
ICHOFFSET	QUANT	0	Ich Offset (V)
ICHFILTER	IQUANT	3	Ich Filter
VCHRANGE	IQUANT	2	Vch Range
VCHRANGEMODE	TOGGLE	F	Vch Auto Range
VCHOFFSETENABLE	TOGGLE	T	Vch Offset Enable
VCHOFFSET	QUANT	0	Vch Offset (V)
VCHFILTER	IQUANT	3	Vch Filter
ACHRANGE	IQUANT	2	Ach Range
ACHOFFSETENABLE	TOGGLE	F	Ach Offset Enable
ACHOFFSET	QUANT	0	Ach Offset (V)
ACHFILTER	IQUANT	3	Ach Filter
IERANGELOWERLIMIT	IQUANT	1	I/E Range Lower Limit
IERANGEMODE	TOGGLE	F	I/E AutoRange
IERANGE	IQUANT	8	I/E Range
POSFEEDENABLE	TOGGLE	F	Positive Feedback IR Comp
POSFEEDRESISTANCE	QUANT	0	Positive Feedback Resistance (ohm)
ACHSELECT	IQUANT	0	Ach Select
CABLEID	IQUANT	14	Cable ID
DCCALDATE	LABEL	12/22/2019	DC Calibration Date
ACCALDATE	LABEL	12/22/2019	AC Calibration Date
THERMOSELECT	IQUANT	1	Thermo Select
FRAMEWORKVERSION	QUANT	6.33	Framework Version
INSTRUMENTVERSION	LABEL	3.50	Instrument Version
ZCURVE	TABLE
	Pt	Time	Freq	Zreal	Zimag	Zsig	Zmod	Zphz	Idc	Vdc	IERange
	#	s	Hz	ohm	ohm	V	ohm	°	A	V	#
	0	1	1000078	2393.281	-1707.962	1	2940.226	-35.5135	6.163785E-006	0.0417363	8
	1	1	794390.6	2715.86	-1624.229	1	3164.493	-30.88166	-1.838472E-006	0.0423794	8
	2	2	630984.4	3020.16	-1489.852	1	3367.644	-26.25723	8.202065E-007	0.0421371	8
	3	2	501234.4	3283.582	-1347.081	1	3549.16	-22.30577	1.458802E-006	0.0417756	8
	4	2	398109.4	3472.375	-1185.606	1	3669.203	-18.85193	1.383344E-006	0.0417642	8
	5	3	316265.6	3638.566	-1036.54	1	3783.329	-15.90098	1.745882E-006	0.041753	8
	6	3	251203.1	3745.753	-909.0062	1	3854.472	-13.64065	-9.116401E-007	0.0423947	8
	7	3	199546.9	3842.089	-801.56	1	3924.811	-11.78436	-2.615628E-006	0.0426349	8
	8	4	158578.1	3908.24	-705.7027	1	3971.442	-10.23549	-9.959484E-007	0.042351	8
	9	4	125953.1	3981.337	-594.2903	1	4025.448	-8.4898	3.892982E-007	0.0411667	7
	10	4	100078.1	4014.327	-543.9066	1	4051.007	-7.716095	-3.287075E-008	0.0421108	7
	11	5	79453.13	4057.659	-514.5843	1	4090.158	-7.227555	2.59872E-008	0.0420396	7
	12	5	63140.62	4099.268	-500.1467	1	4129.667	-6.956207	6.552538E-008	0.0419452	7
	13	5	50203.12	4139.88	-496.4535	1	4169.541	-6.838243	-3.365373E-008	0.042103	7
	14	6	39890.62	4181.676	-508.1531	1	4212.438	-6.928555	5.035145E-008	0.0420442	7
	15	6	31640.63	4224.782	-531.2896	1	4258.057	-7.167634	-3.019702E-008	0.0421622	7
	16	6	25171.88	4269.553	-568.8362	1	4307.279	-7.588874	2.785615E-009	0.0420037	7
	17	6	20015.62	4317.885	-620.1617	1	4362.194	-8.173284	6.415492E-008	0.041927	7
	18	7	15890.62	4370.173	-687.7914	1	4423.965	-8.944024	3.914991E-008	0.0419445	7
	19	7	12609.37	4430.711	-773.0438	1	4497.644	-9.897	-3.4732E-008	0.0421038	7
	20	7	10078.13	4491.576	-875.0812	1	4576.027	-11.02467	-3.300834E-008	0.0420729	7
	21	8	8015.625	4562.899	-1002.55	1	4671.74	-12.39199	6.688496E-008	0.0419343	7
	22	8	6328.125	4645.62	-1163.762	1	4789.167	-14.06361	2.593562E-008	0.0420246	7
	23	8	5015.625	4737.143	-1356.333	1	4927.49	-15.97741	-3.139561E-008	0.0420747	7
	24	9	3984.375	4839.051	-1587.99	1	5092.949	-18.16784	-1.733756E-009	0.0420762	7
	25	9	3170.956	4956.152	-1864.27	1	5295.182	-20.61392	-1.349475E-008	0.0420896	7
	26	9	2527.573	5089.985	-2193.656	1	5542.569	-23.31483	5.145315E-008	0.0420353	7
	27	10	1976.103	5257.639	-2628.402	1	5878.032	-26.56141	-1.454009E-009	0.0421288	7
	28	10	1577.524	5435.964	-3107.712	1	6261.596	-29.75638	-3.371623E-008	0.0421072	7
	29	10	1265.625	5635.177	-3668.179	1	6723.895	-33.06184	-3.38895E-008	0.0421075	7
	30	11	998.264	5889.372	-4392.883	1	7347.253	-36.71926	-2.335685E-008	0.0420501	7
	31	11	796.875	6163.658	-5227.29	1	8081.784	-40.30069	-2.223635E-008	0.0420437	7
	32	11	627.7902	6502.699	-6295.617	1	9050.96	-44.07301	-8.70746E-009	0.0420808	7
	33	12	505.5147	6866.693	-7465.377	1	10143.14	-47.39199	-7.299991E-009	0.0421176	6
	34	12	397.9953	7326.567	-9027.855	1	11626.73	-50.9389	4.603342E-010	0.0420552	6
	35	12	315.5048	7854.065	-10884.9	1	13422.65	-54.18744	2.886285E-010	0.0420508	6
	36	13	252.4038	8451.53	-13051.8	1	15549.2	-57.07542	2.778564E-010	0.0420469	6
	37	13	198.6229	9218.438	-15885.45	1	18366.46	-59.8731	6.196971E-010	0.0420487	6
	38	13	158.3615	10090.18	-19151.45	1	21646.93	-62.21693	8.232412E-010	0.0420449	6
	39	14	125.558	11166.59	-23226.33	1	25771.2	-64.32301	5.405674E-010	0.0420454	6
	40	14	100.4464	12417.7	-27951.25	1	30585.48	-66.0462	3.428226E-010	0.0420417	6
	41	14	79.00281	14091.87	-34163.66	1	36955.87	-67.58478	2.148294E-010	0.0420423	6
	42	15	63.3446	15854.84	-41390.48	1	44323.21	-69.04041	6.429147E-010	0.0420375	6
	43	15	49.86702	18280.56	-50495.25	1	53702.41	-70.09846	4.728263E-010	0.0420402	6
	44	15	39.72458	21349.94	-61022.83	1	64649.87	-70.71669	6.19523E-010	0.0420466	6
	45	16	31.6723	24995.08	-73823.63	1	77940.24	-71.29501	5.14329E-010	0.0420413	6
	46	16	24.93351	29980.22	-90485.44	1	95322.8	-71.6686	1.118428E-010	0.042043	6
	47	16	19.86229	36153.2	-109577	1	115387.1	-71.74052	-3.757724E-010	0.0420374	5
	48	16	15.83615	44435.27	-131804.7	1	139093.4	-71.36952	-7.043045E-010	0.0420439	5
	49	17	12.40079	56121.38	-161095.7	1	170591.4	-70.79305	-1.21961E-009	0.042048	5
	50	17	9.93114	69690.2	-193588.3	1	205750.3	-70.20155	-4.34547E-010	0.0420384	5
	51	18	7.944915	87637.14	-230859.3	1	246933.8	-69.2126	-4.084469E-010	0.0420454	5
	52	18	6.317385	110491.8	-274517.7	1	295919.6	-68.0755	-3.935184E-010	0.0420545	5
	53	19	5.008013	140532.7	-325438	1	354484.6	-66.64405	-2.476334E-010	0.0420352	5
	54	20	3.945707	179349.7	-383879.6	1	423709.7	-64.95789	8.005499E-011	0.0420295	5
	55	21	3.158693	222852.7	-444669.6	1	497387.6	-63.38159	1.000637E-010	0.0420517	5
	56	23	2.504006	278194	-514786.8	1	585147.3	-61.61294	-7.464907E-011	0.0420408	5
	57	24	1.998082	338665.3	-588065.3	1	678612.5	-60.06247	-1.185759E-011	0.0420335	5
	58	26	1.584686	412998.2	-670083.2	1	787133.4	-58.35286	7.083265E-011	0.0420738	5
	59	28	1.266892	488701.3	-753842.8	1	898391.8	-57.04546	-6.347373E-011	0.042067	5
	60	30	0.999041	589777.1	-867387.2	1	1048903	-55.78638	1.467231E-010	0.0420883	4
