EXPLAIN
TAG	EISPOT
TITLE	LABEL	Potentiostatic EIS	Test &Identifier
DATE	LABEL	3/9/2020	Date
TIME	LABEL	20:55:19	Time
NOTES	NOTES	1	&Notes...
	
PSTAT	PSTAT	REF600-11020	Potentiostat
VDC	POTEN	0.00000E+000	T	DC &Voltage (V)
FREQINIT	QUANT	1.00000E+006	Initial Fre&q. (Hz)
FREQFINAL	QUANT	1.00000E+000	Final Fre&q. (Hz)
PTSPERDEC	QUANT	1.00000E+001	Points/&decade
VAC	QUANT	2.50000E+001	AC &Voltage (mV rms)
AREA	QUANT	4.00000E-005	&Area (cm^2)
CONDIT	TWOPARAM	F	5.00000E+000	0.00000E+000	Conditionin&g	Time(s)	E(V)
DELAY	TWOPARAM	T	3.00000E+000	0.00000E+000	Init. De&lay	Time(s)	Stab.(mV/s)
SPEED	SELECTOR	0	&Optimize for:
ZGUESS	QUANT	1.00000E+003	E&stimated Z (ohms)
OCVCURVE	TABLE	12
	Pt	T	Vf	Vm	Ach	Over
	#	s	V vs. Ref.	V	V	bits
	0	0.258333	5.65429E-002	5.65429E-002	5.74363E-004	...........
	1	0.516667	5.65427E-002	5.65355E-002	5.80730E-004	...........
	2	0.775	5.65419E-002	5.65312E-002	5.75063E-004	...........
	3	1.03333	5.65398E-002	5.65241E-002	5.77197E-004	...........
	4	1.29167	5.65360E-002	5.65198E-002	5.74497E-004	...........
	5	1.55	5.65310E-002	5.65124E-002	5.69363E-004	...........
	6	1.80833	5.65253E-002	5.65031E-002	5.64330E-004	...........
	7	2.06667	5.65190E-002	5.64991E-002	5.67663E-004	...........
	8	2.325	5.65124E-002	5.64936E-002	5.71430E-004	...........
	9	2.58333	5.65057E-002	5.64871E-002	5.70063E-004	...........
	10	2.84167	5.64995E-002	5.64808E-002	5.67297E-004	...........
	11	3.1	5.64935E-002	5.64738E-002	5.72163E-004	...........
EOC	QUANT	0.0564935	Open Circuit (V)
PSTATMODEL	IQUANT	4	Pstat Model
PSTATSECTION	LABEL	REF600-11020	Pstat Section
PSTATSERIALNO	LABEL	11020	Pstat Serial Number
CTRLMODE	IQUANT	1	Control Mode
IESTAB	IQUANT	0	I/E Stability
CASPEED	IQUANT	1	Control Amp Speed
CONVENTION	IQUANT	1	Current Convention
ICHRANGE	IQUANT	2	Ich Range
ICHRANGEMODE	TOGGLE	F	Ich Auto Range
ICHOFFSETENABLE	TOGGLE	T	Ich Offset Enable
ICHOFFSET	QUANT	0	Ich Offset (V)
ICHFILTER	IQUANT	3	Ich Filter
VCHRANGE	IQUANT	2	Vch Range
VCHRANGEMODE	TOGGLE	F	Vch Auto Range
VCHOFFSETENABLE	TOGGLE	T	Vch Offset Enable
VCHOFFSET	QUANT	0	Vch Offset (V)
VCHFILTER	IQUANT	3	Vch Filter
ACHRANGE	IQUANT	2	Ach Range
ACHOFFSETENABLE	TOGGLE	F	Ach Offset Enable
ACHOFFSET	QUANT	0	Ach Offset (V)
ACHFILTER	IQUANT	3	Ach Filter
IERANGELOWERLIMIT	IQUANT	1	I/E Range Lower Limit
IERANGEMODE	TOGGLE	F	I/E AutoRange
IERANGE	IQUANT	8	I/E Range
POSFEEDENABLE	TOGGLE	F	Positive Feedback IR Comp
POSFEEDRESISTANCE	QUANT	0	Positive Feedback Resistance (ohm)
ACHSELECT	IQUANT	0	Ach Select
CABLEID	IQUANT	14	Cable ID
DCCALDATE	LABEL	2/27/2020	DC Calibration Date
ACCALDATE	LABEL	2/27/2020	AC Calibration Date
THERMOSELECT	IQUANT	1	Thermo Select
FRAMEWORKVERSION	QUANT	6.33	Framework Version
INSTRUMENTVERSION	LABEL	3.50	Instrument Version
ZCURVE	TABLE
	Pt	Time	Freq	Zreal	Zimag	Zsig	Zmod	Zphz	Idc	Vdc	IERange
	#	s	Hz	ohm	ohm	V	ohm	°	A	V	#
	0	1	1000078	1819.315	-1703.037	1	2492.035	-43.10927	3.328659E-008	0.0588355	8
	1	1	794390.6	2144.868	-1780.955	1	2787.877	-39.70398	4.243228E-008	0.0585068	8
	2	1	630984.4	2482.142	-1819.784	1	3077.766	-36.24704	3.993611E-008	0.0583358	8
	3	2	501234.4	2818.295	-1820.07	1	3354.913	-32.85459	1.821708E-008	0.0582125	8
	4	2	398109.4	3143.317	-1782.478	1	3613.54	-29.55623	3.787587E-008	0.0581824	8
	5	2	316265.6	3452.035	-1722.799	1	3858.054	-26.5223	-3.086836E-010	0.0581405	8
	6	3	251203.1	3732.765	-1636.347	1	4075.68	-23.67139	8.195348E-008	0.058101	8
	7	3	199546.9	3982.908	-1539.163	1	4269.963	-21.12863	-5.272179E-009	0.0581558	8
	8	3	158578.1	4211.445	-1443.822	1	4452.066	-18.9234	5.38327E-008	0.0581261	8
	9	4	125953.1	4454.328	-1272.698	1	4632.58	-15.94579	-3.964581E-009	0.0580902	7
	10	4	100078.1	4608.498	-1189.42	1	4759.514	-14.47182	1.259008E-009	0.0580558	7
	11	4	79453.13	4759.424	-1124.719	1	4890.513	-13.29588	1.51004E-010	0.0580402	7
	12	5	63140.62	4897.43	-1070.864	1	5013.14	-12.33407	8.980067E-010	0.0580495	7
	13	5	50203.12	5023.805	-1027.015	1	5127.707	-11.55376	1.765336E-009	0.0580539	7
	14	5	39890.62	5141.116	-995.772	1	5236.663	-10.96177	-1.239856E-010	0.0580386	7
	15	6	31640.63	5255.003	-979.574	1	5345.524	-10.5592	1.738829E-009	0.058047	7
	16	6	25171.88	5362.293	-977.25	1	5450.615	-10.32851	1.170015E-009	0.0580417	7
	17	6	20015.62	5468.371	-990.082	1	5557.278	-10.26257	2.770238E-009	0.0580406	7
	18	7	15890.62	5573.18	-1017.685	1	5665.335	-10.34843	7.48082E-010	0.0580427	7
	19	7	12609.37	5680.909	-1064.286	1	5779.743	-10.61103	9.637421E-010	0.058036	7
	20	7	10078.13	5785.856	-1127.489	1	5894.689	-11.02703	2.365498E-009	0.0580436	7
	21	8	8015.625	5895.915	-1213.775	1	6019.556	-11.63279	2.921446E-009	0.0580409	7
	22	8	6328.125	6013.224	-1329.085	1	6158.354	-12.46354	2.889574E-009	0.0580377	7
	23	8	5015.625	6132.191	-1472.704	1	6306.554	-13.50438	3.044907E-009	0.058039	7
	24	8	3984.375	6257.461	-1648.391	1	6470.936	-14.75803	1.996333E-009	0.0580322	7
	25	9	3170.956	6388.753	-1866.219	1	6655.745	-16.28361	1.52892E-009	0.0580343	7
	26	9	2527.573	6527.917	-2133.285	1	6867.648	-18.09709	2.962086E-009	0.058045	7
	27	9	1976.103	6687.589	-2491.56	1	7136.646	-20.43362	1.719724E-009	0.0580384	7
	28	10	1577.524	6848.089	-2902.072	1	7437.63	-22.96618	2.947093E-009	0.058041	7
	29	10	1265.625	7016.587	-3393.839	1	7794.269	-25.81249	2.795319E-009	0.0580363	7
	30	10	998.264	7221.354	-4050.167	1	8279.602	-29.28631	2.599721E-009	0.0580393	7
	31	11	796.875	7447.373	-4822.432	1	8872.385	-32.92446	3.624972E-009	0.0580395	7
	32	11	627.7902	7741.813	-5822.361	1	9686.88	-36.94561	-2.948763E-010	0.0580858	6
	33	11	505.5147	8058.662	-6942.049	1	10636.45	-40.7429	-7.029105E-010	0.0580851	6
	34	12	397.9953	8493.881	-8454.147	1	11984.1	-44.86567	5.146252E-010	0.0581002	6
	35	12	315.5048	9030.994	-10244.61	1	13656.9	-48.60266	5.377438E-010	0.0580979	6
	36	12	252.4038	9681.48	-12322.01	1	15670.45	-51.84306	4.379675E-010	0.0580988	6
	37	13	198.6229	10566.73	-15011.61	1	18357.67	-54.85814	4.9931E-010	0.0580977	6
	38	13	158.3615	11634.66	-18066.79	1	21488.93	-57.21926	2.707156E-010	0.0580993	6
	39	13	125.558	13020.09	-21799.62	1	25391.85	-59.15173	2.675314E-010	0.0580971	6
	40	14	100.4464	14694.04	-26049.83	1	29908.33	-60.57378	4.430947E-010	0.0580925	6
	41	14	79.00281	16960.34	-31473.21	1	35752.15	-61.68058	2.235246E-010	0.0580907	6
	42	14	63.3446	19563.59	-37354.23	1	42167.2	-62.35753	4.077646E-010	0.0580946	6
	43	15	49.86702	23086.35	-44844.52	1	50438.18	-62.7602	3.301666E-010	0.0580908	6
	44	15	39.72458	27291.94	-53191.35	1	59784.36	-62.8381	1.68813E-010	0.0581027	6
	45	15	31.6723	32519.86	-62830.48	1	70747.51	-62.63478	2.467273E-012	0.058096	6
	46	16	24.93351	39438.2	-74522.15	1	84314.43	-62.11156	3.648433E-010	0.0580946	6
	47	16	19.86229	47523.69	-87218.66	1	99325.7	-61.41492	-5.811682E-010	0.0580955	6
	48	16	15.83615	57391.95	-101104	1	116257.7	-60.41848	1.165174E-009	0.0580979	5
	49	17	12.40079	69941.04	-117950.8	1	137128.2	-59.33342	1.386869E-009	0.058093	5
	50	17	9.93114	83225.91	-134578	1	158233.4	-58.26648	1.456585E-009	0.0580981	5
	51	17	7.944915	97893.3	-153410.3	1	181983	-57.45747	1.039148E-009	0.0580957	5
	52	18	6.317385	115197.2	-175009.3	1	209520.1	-56.64569	-1.931966E-010	0.0581125	5
	53	18	5.008013	134607.3	-199684.9	1	240817.8	-56.01614	2.267785E-011	0.0581036	5
	54	19	3.945707	156289.9	-228987.3	1	277239.4	-55.68543	4.802992E-010	0.0581037	5
	55	20	3.158693	179292.2	-260441.4	1	316188.9	-55.45583	-1.12035E-011	0.058112	5
	56	21	2.504006	205777.6	-299124.4	1	363070	-55.47463	-1.532597E-010	0.0581001	5
	57	23	1.998082	234878.6	-341913.4	1	414816.5	-55.51275	1.712225E-010	0.0581352	5
	58	24	1.584686	268299.4	-395114.1	1	477597.9	-55.82182	1.906833E-010	0.058142	5
	59	26	1.266892	304635.4	-453456.8	1	546283.6	-56.10652	1.145811E-010	0.0580985	5
	60	29	0.999041	349886.3	-525805	1	631578.4	-56.35903	5.506804E-011	0.0580765	5
