EXPLAIN
TAG	EISPOT
TITLE	LABEL	Potentiostatic EIS	Test &Identifier
DATE	LABEL	1/14/2020	Date
TIME	LABEL	18:08:42	Time
NOTES	NOTES	5	&Notes...
	
	
	
	
	
PSTAT	PSTAT	REF600-11020	Potentiostat
VDC	POTEN	0.00000E+000	T	DC &Voltage (V)
FREQINIT	QUANT	1.00000E+006	Initial Fre&q. (Hz)
FREQFINAL	QUANT	1.00000E+000	Final Fre&q. (Hz)
PTSPERDEC	QUANT	1.00000E+001	Points/&decade
VAC	QUANT	2.50000E+001	AC &Voltage (mV rms)
AREA	QUANT	1.00000E-001	&Area (cm^2)
CONDIT	TWOPARAM	T	5.00000E+000	0.00000E+000	Conditionin&g	Time(s)	E(V)
DELAY	TWOPARAM	T	5.00000E+000	0.00000E+000	Init. De&lay	Time(s)	Stab.(mV/s)
SPEED	SELECTOR	1	&Optimize for:
ZGUESS	QUANT	5.00000E+002	E&stimated Z (ohms)
OCVCURVE	TABLE	19
	Pt	T	Vf	Vm	Ach	Over
	#	s	V vs. Ref.	V	V	bits
	0	0.258333	7.68675E-003	7.68675E-003	6.48680E-004	...........
	1	0.516667	7.68978E-003	7.84583E-003	6.54980E-004	...........
	2	0.775	7.70666E-003	7.90338E-003	6.45980E-004	...........
	3	1.03333	7.74930E-003	8.00055E-003	6.49746E-004	...........
	4	1.29167	7.81992E-003	8.21458E-003	6.51146E-004	...........
	5	1.55	7.91629E-003	8.32772E-003	6.55113E-004	...........
	6	1.80833	8.03906E-003	8.59493E-003	6.50980E-004	...........
	7	2.06667	8.19514E-003	9.09046E-003	6.49180E-004	...........
	8	2.325	8.40016E-003	9.21415E-003	6.55246E-004	...........
	9	2.58333	8.65347E-003	9.33582E-003	6.58913E-004	...........
	10	2.84167	8.91673E-003	9.53163E-003	6.54479E-004	...........
	11	3.1	9.14923E-003	9.70782E-003	6.53946E-004	...........
	12	3.35833	9.34614E-003	9.90125E-003	6.54313E-004	...........
	13	3.61667	9.52446E-003	1.00097E-002	6.58079E-004	...........
	14	3.875	9.69363E-003	1.01198E-002	6.57980E-004	...........
	15	4.13333	9.84991E-003	1.02392E-002	6.55013E-004	...........
	16	4.39167	9.98895E-003	1.03548E-002	6.50113E-004	...........
	17	4.65	1.01138E-002	1.04667E-002	6.52613E-004	...........
	18	4.90833	1.02311E-002	1.05787E-002	6.57746E-004	...........
EOC	QUANT	0.0102311	Open Circuit (V)
PSTATMODEL	IQUANT	4	Pstat Model
PSTATSECTION	LABEL	REF600-11020	Pstat Section
PSTATSERIALNO	LABEL	11020	Pstat Serial Number
CTRLMODE	IQUANT	1	Control Mode
IESTAB	IQUANT	0	I/E Stability
CASPEED	IQUANT	1	Control Amp Speed
CONVENTION	IQUANT	1	Current Convention
ICHRANGE	IQUANT	2	Ich Range
ICHRANGEMODE	TOGGLE	F	Ich Auto Range
ICHOFFSETENABLE	TOGGLE	T	Ich Offset Enable
ICHOFFSET	QUANT	0	Ich Offset (V)
ICHFILTER	IQUANT	3	Ich Filter
VCHRANGE	IQUANT	2	Vch Range
VCHRANGEMODE	TOGGLE	F	Vch Auto Range
VCHOFFSETENABLE	TOGGLE	T	Vch Offset Enable
VCHOFFSET	QUANT	0	Vch Offset (V)
VCHFILTER	IQUANT	3	Vch Filter
ACHRANGE	IQUANT	2	Ach Range
ACHOFFSETENABLE	TOGGLE	F	Ach Offset Enable
ACHOFFSET	QUANT	0	Ach Offset (V)
ACHFILTER	IQUANT	3	Ach Filter
IERANGELOWERLIMIT	IQUANT	1	I/E Range Lower Limit
IERANGEMODE	TOGGLE	F	I/E AutoRange
IERANGE	IQUANT	7	I/E Range
POSFEEDENABLE	TOGGLE	F	Positive Feedback IR Comp
POSFEEDRESISTANCE	QUANT	0	Positive Feedback Resistance (ohm)
ACHSELECT	IQUANT	0	Ach Select
CABLEID	IQUANT	14	Cable ID
DCCALDATE	LABEL	12/22/2019	DC Calibration Date
ACCALDATE	LABEL	12/22/2019	AC Calibration Date
THERMOSELECT	IQUANT	1	Thermo Select
FRAMEWORKVERSION	QUANT	6.33	Framework Version
INSTRUMENTVERSION	LABEL	3.50	Instrument Version
ZCURVE	TABLE
	Pt	Time	Freq	Zreal	Zimag	Zsig	Zmod	Zphz	Idc	Vdc	IERange
	#	s	Hz	ohm	ohm	V	ohm	°	A	V	#
	0	2	1000078	2435.964	-1752.843	1	3001.063	-35.7376	-3.298593E-006	0.0130045	8
	1	3	794390.6	2766.881	-1719.866	1	3257.847	-31.86467	-1.111673E-007	0.0123106	8
	2	4	630984.4	3080.283	-1648.914	1	3493.861	-28.16069	-6.564063E-007	0.0120996	8
	3	6	501234.4	3347.84	-1542.943	1	3686.286	-24.74389	1.782785E-006	0.0115754	8
	4	7	398109.4	3601.637	-1424.708	1	3873.188	-21.58238	1.450315E-006	0.0115458	8
	5	9	316265.6	3813.162	-1318.535	1	4034.692	-19.07463	1.311724E-006	0.011473	8
	6	10	251203.1	4000.88	-1204.129	1	4178.154	-16.75001	-6.378622E-007	0.0120126	8
	7	11	199546.9	4151.419	-1111.031	1	4297.52	-14.98276	1.92804E-007	0.0117456	8
	8	13	158578.1	4300.563	-988.063	1	4412.609	-12.93927	5.905227E-007	0.0116722	8
	9	14	125953.1	4442.863	-882.8818	1	4529.737	-11.23935	-1.640438E-007	0.011702	7
	10	15	100078.1	4538.331	-789.65	1	4606.516	-9.8704	9.062881E-008	0.0116632	7
	11	17	79453.13	4625.232	-718.2773	1	4680.672	-8.827261	-2.00727E-009	0.0118082	7
	12	18	63140.62	4702.299	-660.0776	1	4748.401	-7.990592	-2.619828E-009	0.0117984	7
	13	19	50203.12	4767.15	-612.6749	1	4806.359	-7.323517	-1.827531E-009	0.0118046	7
	14	21	39890.62	4822.873	-579.4166	1	4857.554	-6.850642	4.870748E-008	0.0117655	7
	15	22	31640.63	4872.363	-559.986	1	4904.437	-6.5563	4.896531E-008	0.0117591	7
	16	23	25171.88	4917.977	-556.5916	1	4949.373	-6.45697	-3.950456E-008	0.0118352	7
	17	25	20015.62	4958.053	-569.2144	1	4990.621	-6.549227	-2.261981E-009	0.0118055	7
	18	26	15890.62	5002.943	-598.5318	1	5038.619	-6.822209	-9.539513E-009	0.0118725	7
	19	27	12609.37	5044.714	-648.5792	1	5086.236	-7.326105	9.657807E-008	0.0116388	7
	20	29	10078.13	5088.267	-711.3608	1	5137.752	-7.958603	3.582135E-008	0.0116787	7
	21	30	8015.625	5127.827	-808.4683	1	5191.168	-8.959668	-1.369789E-008	0.0117766	7
	22	32	6328.125	5186.104	-927.0891	1	5268.317	-10.13537	-2.342265E-008	0.0117939	7
	23	33	5015.625	5244.534	-1081.501	1	5354.884	-11.65192	-7.914578E-010	0.0117379	7
	24	34	3984.375	5310.71	-1272.788	1	5461.102	-13.47755	1.937379E-008	0.0117094	7
	25	36	3170.956	5380.142	-1509.193	1	5587.808	-15.66944	-2.108812E-009	0.0117922	7
	26	37	2527.573	5462.739	-1794.629	1	5749.975	-18.18648	1.888623E-008	0.0117071	7
	27	38	1976.103	5569.011	-2182.275	1	5981.321	-21.39824	-2.279599E-008	0.0118602	7
	28	40	1577.524	5693.197	-2640.791	1	6275.849	-24.88424	-2.469699E-008	0.0117874	7
	29	41	1265.625	5815.737	-3129.649	1	6604.354	-28.28623	3.509864E-008	0.0116752	7
	30	42	998.264	5984.232	-3809.344	1	7093.81	-32.47935	-1.873139E-008	0.0117906	7
	31	44	796.875	6177.444	-4600.513	1	7702.307	-36.67607	-3.17141E-009	0.0117802	7
	32	45	627.7902	6427.992	-5623.875	1	8540.904	-41.18281	-7.757161E-009	0.0118604	7
	33	47	505.5147	6696.606	-6749.304	1	9507.77	-45.22456	5.510403E-008	0.0116646	7
	34	48	397.9953	7070.891	-8267.947	1	10879.17	-49.46237	9.852372E-010	0.0117712	6
	35	49	315.5048	7511.772	-10077.4	1	12569.04	-53.29888	7.099303E-010	0.0117726	6
	36	51	252.4038	8035.227	-12193.45	1	14602.91	-56.61596	7.146262E-010	0.0117693	6
	37	52	198.6229	8737.89	-14967.98	1	17331.8	-59.72481	1.030681E-009	0.0117673	6
	38	54	158.3615	9578.8	-18167.34	1	20537.91	-62.19938	6.52462E-010	0.0117642	6
	39	55	125.558	10667.84	-22147.57	1	24582.87	-64.28124	9.046728E-010	0.0117713	6
	40	56	100.4464	11998.47	-26778.07	1	29343.28	-65.86424	4.444016E-010	0.011771	6
	41	58	79.00281	13824.53	-32773.82	1	35570.23	-67.1292	5.500295E-010	0.011772	6
	42	59	63.3446	15879	-39511.14	1	42582.54	-68.10546	7.916804E-010	0.0117715	6
	43	60	49.86702	19139.07	-48056.7	1	51727.66	-68.28458	4.454747E-010	0.0117717	6
	44	62	39.72458	22751.9	-57945.77	1	62252.4	-68.56298	9.742562E-010	0.0117705	6
	45	63	31.6723	27484.46	-69520.56	1	74756.3	-68.42899	9.337373E-010	0.0117711	6
	46	65	24.93351	33795.65	-84081.64	1	90619.36	-68.10291	1.05437E-009	0.0117633	6
	47	66	19.86229	41640.18	-100314.6	1	108613.6	-67.45686	-1.281445E-010	0.0117597	5
	48	67	15.83615	51661.27	-119152.2	1	129869.7	-66.55972	6.299056E-011	0.0117652	5
	49	69	12.40079	65397.21	-142877.7	1	157133.2	-65.40573	5.033964E-010	0.0117666	5
	50	70	9.93114	80998.16	-166695.9	1	185332.7	-64.08471	1.673181E-012	0.0117609	5
	51	72	7.944915	100209.2	-193207.5	1	217648.8	-62.58599	8.439116E-010	0.0117631	5
	52	73	6.317385	124548.8	-223541.7	1	255897	-60.87513	5.985151E-010	0.01176	5
	53	75	5.008013	154025	-256728	1	299387.7	-59.03817	2.737202E-010	0.0117749	5
	54	78	3.945707	189295.6	-293137.6	1	348944.8	-57.14737	-2.921943E-010	0.011757	5
	55	81	3.158693	226503.7	-329080	1	399496.6	-55.46061	2.330791E-010	0.0117866	5
	56	84	2.504006	270121.1	-370068.8	1	458166.3	-53.8735	-4.337382E-010	0.0117635	5
	57	87	1.998082	315892.1	-410760.3	1	518181.3	-52.43818	-3.287267E-010	0.011767	5
	58	90	1.584686	366907.4	-456386.8	1	585585.2	-51.20282	1.097258E-010	0.0118242	5
	59	93	1.266892	417385.7	-506137.4	1	656038.1	-50.48934	-3.528438E-010	0.0117929	5
	60	98	0.999041	472990.7	-567735.9	1	738948.1	-50.20173	3.484172E-010	0.0117695	5
