EXPLAIN
TAG	EISPOT
TITLE	LABEL	Potentiostatic EIS	Test &Identifier
DATE	LABEL	6/19/2020	Date
TIME	LABEL	16:47:56	Time
NOTES	NOTES	1	&Notes...
	
PSTAT	PSTAT	REF600-10037	Potentiostat
VDC	POTEN	0.00000E+000	T	DC &Voltage (V)
FREQINIT	QUANT	1.00000E+006	Initial Fre&q. (Hz)
FREQFINAL	QUANT	1.00000E+000	Final Fre&q. (Hz)
PTSPERDEC	QUANT	1.00000E+001	Points/&decade
VAC	QUANT	1.00000E+002	AC &Voltage (mV rms)
AREA	QUANT	2.50000E-001	&Area (cm^2)
CONDIT	TWOPARAM	F	5.00000E+000	0.00000E+000	Conditionin&g	Time(s)	E(V)
DELAY	TWOPARAM	F	5.00000E+000	0.00000E+000	Init. De&lay	Time(s)	Stab.(mV/s)
SPEED	SELECTOR	0	&Optimize for:
ZGUESS	QUANT	1.00000E+003	E&stimated Z (ohms)
OCVCURVE	TABLE	39
	Pt	T	Vf	Vm	Ach	Over
	#	s	V vs. Ref.	V	V	bits
	0	0.258333	7.71658E-002	7.71658E-002	5.17488E-004	...........
	1	0.516667	7.71663E-002	7.71913E-002	5.15054E-004	...........
	2	0.775	7.71694E-002	7.72192E-002	5.15188E-004	...........
	3	1.03333	7.71783E-002	7.72467E-002	5.18821E-004	...........
	4	1.29167	7.71947E-002	7.72689E-002	5.09654E-004	...........
	5	1.55	7.72169E-002	7.72948E-002	5.15888E-004	...........
	6	1.80833	7.72420E-002	7.73302E-002	5.19088E-004	...........
	7	2.06667	7.72685E-002	7.73510E-002	5.18121E-004	...........
	8	2.325	7.72956E-002	7.73701E-002	5.17388E-004	...........
	9	2.58333	7.73221E-002	7.73931E-002	5.12488E-004	...........
	10	2.84167	7.73468E-002	7.74206E-002	5.17454E-004	...........
	11	3.1	7.73703E-002	7.74418E-002	5.16654E-004	...........
	12	3.35833	7.73935E-002	7.74692E-002	5.16388E-004	...........
	13	3.61667	7.74173E-002	7.74908E-002	5.19988E-004	...........
	14	3.875	7.74414E-002	7.75154E-002	5.21454E-004	...........
	15	4.13333	7.74654E-002	7.75280E-002	5.18088E-004	...........
	16	4.39167	7.74883E-002	7.75538E-002	5.13288E-004	...........
	17	4.65	7.75098E-002	7.75702E-002	5.14421E-004	...........
	18	4.90833	7.75302E-002	7.75929E-002	5.18188E-004	...........
	19	5.16667	7.75503E-002	7.76123E-002	5.15221E-004	...........
	20	5.425	7.75707E-002	7.76500E-002	5.18421E-004	...........
	21	5.68333	7.75924E-002	7.76592E-002	5.17588E-004	...........
	22	5.94167	7.76155E-002	7.76845E-002	5.21888E-004	...........
	23	6.2	7.76385E-002	7.76964E-002	5.14221E-004	...........
	24	6.45833	7.76599E-002	7.77230E-002	5.11154E-004	...........
	25	6.71667	7.76799E-002	7.77385E-002	5.11788E-004	...........
	26	6.975	7.76993E-002	7.77588E-002	5.14354E-004	...........
	27	7.23333	7.77186E-002	7.77757E-002	5.14721E-004	...........
	28	7.49167	7.77377E-002	7.77966E-002	5.16321E-004	...........
	29	7.75	7.77566E-002	7.78141E-002	5.15821E-004	...........
	30	8.00833	7.77754E-002	7.78328E-002	5.14421E-004	...........
	31	8.26667	7.77941E-002	7.78464E-002	5.24021E-004	...........
	32	8.525	7.78122E-002	7.78631E-002	5.13088E-004	...........
	33	8.78333	7.78296E-002	7.78885E-002	5.19388E-004	...........
	34	9.04167	7.78470E-002	7.79030E-002	5.12554E-004	...........
	35	9.3	7.78650E-002	7.79199E-002	5.12921E-004	...........
	36	9.5583	7.78833E-002	7.79351E-002	5.15988E-004	...........
	37	9.8167	7.79011E-002	7.79546E-002	5.18321E-004	...........
	38	10.075	7.79183E-002	7.79707E-002	5.17488E-004	...........
EOC	QUANT	0.0779183	Open Circuit (V)
PSTATMODEL	IQUANT	4	Pstat Model
PSTATSECTION	LABEL	REF600-10037	Pstat Section
PSTATSERIALNO	LABEL	10037	Pstat Serial Number
CTRLMODE	IQUANT	1	Control Mode
IESTAB	IQUANT	0	I/E Stability
CASPEED	IQUANT	1	Control Amp Speed
CONVENTION	IQUANT	1	Current Convention
ICHRANGE	IQUANT	2	Ich Range
ICHRANGEMODE	TOGGLE	F	Ich Auto Range
ICHOFFSETENABLE	TOGGLE	T	Ich Offset Enable
ICHOFFSET	QUANT	0	Ich Offset (V)
ICHFILTER	IQUANT	3	Ich Filter
VCHRANGE	IQUANT	2	Vch Range
VCHRANGEMODE	TOGGLE	F	Vch Auto Range
VCHOFFSETENABLE	TOGGLE	T	Vch Offset Enable
VCHOFFSET	QUANT	0	Vch Offset (V)
VCHFILTER	IQUANT	3	Vch Filter
ACHRANGE	IQUANT	2	Ach Range
ACHOFFSETENABLE	TOGGLE	F	Ach Offset Enable
ACHOFFSET	QUANT	0	Ach Offset (V)
ACHFILTER	IQUANT	3	Ach Filter
IERANGELOWERLIMIT	IQUANT	1	I/E Range Lower Limit
IERANGEMODE	TOGGLE	F	I/E AutoRange
IERANGE	IQUANT	8	I/E Range
POSFEEDENABLE	TOGGLE	F	Positive Feedback IR Comp
POSFEEDRESISTANCE	QUANT	0	Positive Feedback Resistance (ohm)
ACHSELECT	IQUANT	0	Ach Select
CABLEID	IQUANT	14	Cable ID
DCCALDATE	LABEL	6/8/2020	DC Calibration Date
ACCALDATE	LABEL	6/8/2020	AC Calibration Date
THERMOSELECT	IQUANT	1	Thermo Select
FRAMEWORKVERSION	QUANT	6.33	Framework Version
INSTRUMENTVERSION	LABEL	3.50	Instrument Version
ZCURVE	TABLE
	Pt	Time	Freq	Zreal	Zimag	Zsig	Zmod	Zphz	Idc	Vdc	IERange
	#	s	Hz	ohm	ohm	V	ohm	°	A	V	#
	0	2	1000078	1756.932	-1471.481	1	2291.739	-39.94715	1.194539E-007	0.0869027	8
	1	2	794390.6	1986.261	-1546.477	1	2517.305	-37.90385	1.190274E-007	0.0866295	8
	2	3	630984.4	2202.256	-1637.462	1	2744.306	-36.63222	8.657273E-007	0.0865623	9
	3	3	501234.4	2444.547	-1694.839	1	2974.608	-34.73412	8.248164E-008	0.0864739	8
	4	3	398109.4	2674.964	-1785.326	1	3216.026	-33.71996	6.074089E-008	0.0863721	8
	5	4	316265.6	2911.905	-1883.201	1	3467.8	-32.89174	8.733477E-008	0.0864049	8
	6	4	251203.1	3157.829	-2001.84	1	3738.884	-32.37181	1.522732E-007	0.0864238	8
	7	4	199546.9	3419.119	-2140.48	1	4033.86	-32.04792	1.530503E-007	0.0864647	8
	8	5	158578.1	3696.985	-2300.884	1	4354.511	-31.8968	9.349005E-008	0.0865028	8
	9	5	125953.1	4087.511	-2408.491	1	4744.321	-30.50794	-2.473631E-008	0.0864664	7
	10	5	100078.1	4421.144	-2608.936	1	5133.523	-30.54503	1.2397E-008	0.0864364	7
	11	6	79453.13	4763.71	-2838.759	1	5545.403	-30.79128	2.447516E-008	0.0864127	7
	12	6	63140.62	5140.676	-3102.701	1	6004.44	-31.11345	1.381429E-008	0.0863993	7
	13	6	50203.12	5556.695	-3380.425	1	6504.163	-31.31431	3.619199E-009	0.0863807	7
	14	7	39890.62	6015.907	-3695.566	1	7060.336	-31.56236	1.322833E-008	0.0863783	7
	15	7	31640.63	6525.952	-4024.086	1	7666.897	-31.65915	2.84342E-010	0.0863708	7
	16	7	25171.88	7073.272	-4376.727	1	8317.867	-31.74797	2.048087E-008	0.0863815	7
	17	8	20015.62	7678.568	-4767.599	1	9038.274	-31.83602	1.843154E-010	0.0863517	7
	18	8	15890.62	8323.731	-5160.705	1	9793.74	-31.79887	4.030599E-010	0.0863715	7
	19	8	12609.37	9019.938	-5598.21	1	10615.99	-31.82574	4.577844E-010	0.0863702	7
	20	8	10078.13	9733.75	-6055.967	1	11463.88	-31.88831	1.768669E-008	0.0863688	7
	21	9	8015.625	10509.9	-6576.894	1	12398.13	-32.03754	3.62422E-010	0.0863704	7
	22	9	6328.125	11358.94	-7196.724	1	13446.87	-32.35726	1.783671E-008	0.0863675	7
	23	9	5015.625	12238.03	-7850.802	1	14539.75	-32.68053	3.129973E-009	0.0863669	7
	24	10	3984.375	13187.34	-8665.88	1	15779.84	-33.31036	2.48926E-009	0.0863621	7
	25	10	3170.956	14196.5	-9556.27	1	17113.24	-33.94617	2.728329E-009	0.0863667	7
	26	10	2527.573	15269.47	-10497.94	1	18530.07	-34.50898	1.555192E-008	0.0863735	7
	27	11	1976.103	16569.06	-11732.73	1	20302.48	-35.30273	2.034477E-008	0.086361	7
	28	11	1577.524	17851.76	-13085.84	1	22134.24	-36.24246	1.772554E-008	0.086368	7
	29	11	1265.625	19159.93	-14459.53	1	24003.77	-37.04097	-2.63506E-009	0.0863677	7
	30	12	998.264	20642.38	-16192.29	1	26235.44	-38.11134	1.874237E-008	0.0863718	7
	31	12	796.875	22041.64	-18289.4	1	28641.51	-39.68472	2.240581E-009	0.086359	7
	32	12	627.7902	23464.32	-20769.41	1	31335.96	-41.51361	1.844165E-008	0.086366	7
	33	13	505.5147	24731.51	-23638.5	1	34211.49	-43.70551	-2.948562E-009	0.0863686	7
	34	13	397.9953	26093.9	-27642.84	1	38013.4	-46.65107	7.022057E-009	0.0863826	7
	35	13	315.5048	27502.38	-32592.28	1	42645.49	-49.84128	2.018457E-009	0.0863808	6
	36	14	252.4038	28947.66	-38503.95	1	48171.79	-53.06378	3.326405E-009	0.0863677	6
	37	14	198.6229	30681.98	-46772.82	1	55938.18	-56.73597	1.585893E-009	0.0863835	6
	38	14	158.3615	32629.87	-56406.57	1	65164.48	-59.95163	1.695535E-009	0.086378	6
	39	14	125.558	35034.53	-68700.22	1	77117.7	-62.98013	1.759161E-009	0.0863792	6
	40	15	100.4464	37897.02	-83280.1	1	91497.32	-65.53186	1.755601E-009	0.0863785	6
	41	15	79.00281	41790.14	-102691.4	1	110869	-67.85619	1.662827E-009	0.0863805	6
	42	15	63.3446	46307.13	-124726.3	1	133045.1	-69.63155	1.754193E-009	0.0863801	6
	43	16	49.86702	52662.07	-154064.8	1	162816.6	-71.12866	1.745127E-009	0.0863747	6
	44	16	39.72458	60473.27	-188410.4	1	197877.5	-72.20515	1.747659E-009	0.0863805	6
	45	17	31.6723	70872.26	-230119	1	240785.5	-72.88217	1.633042E-009	0.0863722	6
	46	17	24.93351	86071.67	-282373	1	295199.6	-73.04797	2.838108E-009	0.0863584	6
	47	17	19.86229	103808.2	-348675.1	1	363800	-73.42058	-3.738965E-010	0.0778005	6
	48	18	15.83615	128400.3	-422362.9	1	441448.8	-73.09048	-6.900402E-010	0.077796	5
	49	18	12.40079	164796	-520235.7	1	545713.3	-72.42327	-4.817253E-010	0.0778065	5
	50	18	9.93114	210052.7	-626697.1	1	660962.4	-71.47018	-1.769746E-010	0.0778099	5
	51	19	7.944915	270456.7	-751790.2	1	798958.9	-70.2138	6.941014E-011	0.077809	5
	52	19	6.317385	356468	-896603.4	1	964866	-68.31842	9.388391E-011	0.0778152	5
	53	20	5.008013	467123.7	-1066451	1	1164269	-66.34576	3.268814E-010	0.0778124	5
	54	21	3.945707	618904.6	-1252225	1	1396821	-63.69939	1.009983E-010	0.0778075	5
	55	22	3.158693	798455.3	-1434701	1	1641919	-60.90271	1.969912E-010	0.0778077	5
	56	23	2.504006	1027824	-1632605	1	1929202	-57.80708	2.821098E-010	0.0778058	5
	57	25	1.998082	1286270	-1808355	1	2219153	-54.57602	5.711458E-010	0.077805	5
	58	27	1.584686	1584836	-2002936	1	2554106	-51.64697	2.289073E-010	0.077807	5
	59	30	1.266892	1914200	-2174426	1	2896945	-48.64176	2.149287E-010	0.0778068	5
	60	33	0.999041	2296778	-2356058	1	3290319	-45.72995	1.423002E-010	0.0778098	5
