EXPLAIN
TAG	EISPOT
TITLE	LABEL	Potentiostatic EIS	Test &Identifier
DATE	LABEL	7/30/2020	Date
TIME	LABEL	23:01:54	Time
NOTES	NOTES	1	&Notes...
	
PSTAT	PSTAT	REF600-11020	Potentiostat
VDC	POTEN	0.00000E+000	T	DC &Voltage (V)
FREQINIT	QUANT	1.00000E+006	Initial Fre&q. (Hz)
FREQFINAL	QUANT	1.00000E+000	Final Fre&q. (Hz)
PTSPERDEC	QUANT	1.00000E+001	Points/&decade
VAC	QUANT	2.50000E+001	AC &Voltage (mV rms)
AREA	QUANT	4.00000E-005	&Area (cm^2)
CONDIT	TWOPARAM	F	5.00000E+000	0.00000E+000	Conditionin&g	Time(s)	E(V)
DELAY	TWOPARAM	F	3.00000E+000	0.00000E+000	Init. De&lay	Time(s)	Stab.(mV/s)
SPEED	SELECTOR	0	&Optimize for:
ZGUESS	QUANT	1.00000E+003	E&stimated Z (ohms)
OCVCURVE	TABLE	39
	Pt	T	Vf	Vm	Ach	Over
	#	s	V vs. Ref.	V	V	bits
	0	0.258333	-1.45771E-002	-1.45771E-002	5.16050E-004	...........
	1	0.516667	-1.45766E-002	-1.45515E-002	5.17450E-004	...........
	2	0.775	-1.45736E-002	-1.45248E-002	5.12783E-004	...........
	3	1.03333	-1.45648E-002	-1.45011E-002	5.19917E-004	...........
	4	1.29167	-1.45490E-002	-1.44774E-002	5.15350E-004	...........
	5	1.55	-1.45279E-002	-1.44569E-002	5.15883E-004	...........
	6	1.80833	-1.45045E-002	-1.44311E-002	5.18750E-004	...........
	7	2.06667	-1.44808E-002	-1.44144E-002	5.21450E-004	...........
	8	2.325	-1.44578E-002	-1.43915E-002	5.17450E-004	...........
	9	2.58333	-1.44358E-002	-1.43731E-002	5.16450E-004	...........
	10	2.84167	-1.44147E-002	-1.43540E-002	5.18317E-004	...........
	11	3.1	-1.43945E-002	-1.43366E-002	5.18917E-004	...........
	12	3.35833	-1.43750E-002	-1.43188E-002	5.19317E-004	...........
	13	3.61667	-1.43562E-002	-1.43045E-002	5.18017E-004	...........
	14	3.875	-1.43383E-002	-1.42842E-002	5.13117E-004	...........
	15	4.13333	-1.43210E-002	-1.42688E-002	5.15217E-004	...........
	16	4.39167	-1.43040E-002	-1.42550E-002	5.17317E-004	...........
	17	4.65	-1.42872E-002	-1.42361E-002	5.18183E-004	...........
	18	4.90833	-1.42708E-002	-1.42204E-002	5.13717E-004	...........
	19	5.16667	-1.42545E-002	-1.42041E-002	5.11683E-004	...........
	20	5.425	-1.42382E-002	-1.41917E-002	5.13083E-004	...........
	21	5.68333	-1.42222E-002	-1.41747E-002	5.15617E-004	...........
	22	5.94167	-1.42066E-002	-1.41579E-002	5.18050E-004	...........
	23	6.2	-1.41912E-002	-1.41460E-002	5.12450E-004	...........
	24	6.45833	-1.41759E-002	-1.41279E-002	5.14250E-004	...........
	25	6.71667	-1.41606E-002	-1.41117E-002	5.16250E-004	...........
	26	6.975	-1.41451E-002	-1.40959E-002	5.14883E-004	...........
	27	7.23333	-1.41293E-002	-1.40804E-002	5.12584E-004	...........
	28	7.49167	-1.41133E-002	-1.40639E-002	5.10417E-004	...........
	29	7.75	-1.40974E-002	-1.40520E-002	5.15250E-004	...........
	30	8.00833	-1.40817E-002	-1.40349E-002	5.08217E-004	...........
	31	8.26667	-1.40665E-002	-1.40196E-002	5.08483E-004	...........
	32	8.525	-1.40515E-002	-1.40067E-002	5.11683E-004	...........
	33	8.78333	-1.40366E-002	-1.39965E-002	5.10917E-004	...........
	34	9.04167	-1.40224E-002	-1.39824E-002	5.16317E-004	...........
	35	9.3	-1.40090E-002	-1.39698E-002	5.16850E-004	...........
	36	9.5583	-1.39962E-002	-1.39601E-002	5.16717E-004	...........
	37	9.8167	-1.39839E-002	-1.39487E-002	5.18150E-004	...........
	38	10.075	-1.39720E-002	-1.39371E-002	5.20517E-004	...........
EOC	QUANT	-0.013972	Open Circuit (V)
PSTATMODEL	IQUANT	4	Pstat Model
PSTATSECTION	LABEL	REF600-11020	Pstat Section
PSTATSERIALNO	LABEL	11020	Pstat Serial Number
CTRLMODE	IQUANT	1	Control Mode
IESTAB	IQUANT	0	I/E Stability
CASPEED	IQUANT	1	Control Amp Speed
CONVENTION	IQUANT	1	Current Convention
ICHRANGE	IQUANT	2	Ich Range
ICHRANGEMODE	TOGGLE	F	Ich Auto Range
ICHOFFSETENABLE	TOGGLE	T	Ich Offset Enable
ICHOFFSET	QUANT	0	Ich Offset (V)
ICHFILTER	IQUANT	3	Ich Filter
VCHRANGE	IQUANT	2	Vch Range
VCHRANGEMODE	TOGGLE	F	Vch Auto Range
VCHOFFSETENABLE	TOGGLE	T	Vch Offset Enable
VCHOFFSET	QUANT	0	Vch Offset (V)
VCHFILTER	IQUANT	3	Vch Filter
ACHRANGE	IQUANT	2	Ach Range
ACHOFFSETENABLE	TOGGLE	F	Ach Offset Enable
ACHOFFSET	QUANT	0	Ach Offset (V)
ACHFILTER	IQUANT	3	Ach Filter
IERANGELOWERLIMIT	IQUANT	1	I/E Range Lower Limit
IERANGEMODE	TOGGLE	F	I/E AutoRange
IERANGE	IQUANT	7	I/E Range
POSFEEDENABLE	TOGGLE	F	Positive Feedback IR Comp
POSFEEDRESISTANCE	QUANT	0	Positive Feedback Resistance (ohm)
ACHSELECT	IQUANT	0	Ach Select
CABLEID	IQUANT	14	Cable ID
DCCALDATE	LABEL	6/26/2020	DC Calibration Date
ACCALDATE	LABEL	6/26/2020	AC Calibration Date
THERMOSELECT	IQUANT	1	Thermo Select
FRAMEWORKVERSION	QUANT	6.33	Framework Version
INSTRUMENTVERSION	LABEL	3.50	Instrument Version
ZCURVE	TABLE
	Pt	Time	Freq	Zreal	Zimag	Zsig	Zmod	Zphz	Idc	Vdc	IERange
	#	s	Hz	ohm	ohm	V	ohm	°	A	V	#
	0	1	1000078	1627.571	-1853.213	1	2466.452	-48.70902	2.08704E-008	-0.0117207	8
	1	1	794390.6	1949.24	-2022.887	1	2809.201	-46.06219	6.607227E-008	-0.0120491	8
	2	2	630984.4	2308.153	-2170.389	1	3168.305	-43.23809	5.798245E-008	-0.0121835	8
	3	2	501234.4	2699.552	-2284.254	1	3536.297	-40.23657	3.296836E-008	-0.0122986	8
	4	2	398109.4	3120.094	-2369.553	1	3917.878	-37.21482	5.827817E-008	-0.0123432	8
	5	3	316265.6	3557.076	-2407.595	1	4295.266	-34.09197	8.874552E-008	-0.0123929	8
	6	3	251203.1	3997.276	-2404.988	1	4664.995	-31.0335	2.36554E-008	-0.0123777	8
	7	3	199546.9	4427.032	-2350.111	1	5012.148	-27.96181	5.084105E-008	-0.0123765	8
	8	4	158578.1	4827.649	-2258.43	1	5329.793	-25.07073	6.399993E-009	-0.0123651	8
	9	4	125953.1	5233.991	-2093.369	1	5637.096	-21.79927	-1.53758E-009	-0.0123765	7
	10	4	100078.1	5563.458	-1953.839	1	5896.571	-19.35084	4.852364E-010	-0.0124048	7
	11	5	79453.13	5845.198	-1809.712	1	6118.937	-17.20287	5.079756E-011	-0.0124116	7
	12	5	63140.62	6083.586	-1671.505	1	6309.037	-15.36328	1.409535E-009	-0.0124086	7
	13	5	50203.12	6287.963	-1543.982	1	6474.748	-13.79579	1.154512E-010	-0.0124223	7
	14	6	39890.62	6466.322	-1436.26	1	6623.908	-12.52289	6.445664E-010	-0.0124215	7
	15	6	31640.63	6624.25	-1350.878	1	6760.589	-11.52623	5.716026E-010	-0.012425	7
	16	6	25171.88	6760.361	-1288.661	1	6882.088	-10.79226	1.510875E-011	-0.0124205	7
	17	7	20015.62	6884.894	-1253.996	1	6998.162	-10.32254	-8.926279E-011	-0.0124262	7
	18	7	15890.62	6999.349	-1246.105	1	7109.406	-10.09469	6.741083E-010	-0.0124224	7
	19	7	12609.37	7111.882	-1269.65	1	7224.326	-10.12211	2.095711E-009	-0.0124249	7
	20	7	10078.13	7219.071	-1322.393	1	7339.19	-10.38039	1.342503E-009	-0.0124257	7
	21	8	8015.625	7328.771	-1410.227	1	7463.218	-10.89192	8.732032E-010	-0.0124251	7
	22	8	6328.125	7450.367	-1539.823	1	7607.826	-11.67733	1.14451E-009	-0.0124309	7
	23	8	5015.625	7579.606	-1710.479	1	7770.21	-12.71684	1.980391E-009	-0.0124293	7
	24	9	3984.375	7716.949	-1923.927	1	7953.163	-13.99913	5.318991E-010	-0.0124344	7
	25	9	3170.956	7870.913	-2188.563	1	8169.521	-15.53896	6.280094E-010	-0.0124335	7
	26	9	2527.573	8037.682	-2508.759	1	8420.107	-17.33443	3.382882E-010	-0.0124376	7
	27	10	1976.103	8243.903	-2936.955	1	8751.437	-19.60884	6.870796E-010	-0.0124304	7
	28	10	1577.524	8458.818	-3405.946	1	9118.776	-21.9322	-3.121302E-010	-0.0124373	6
	29	10	1265.625	8688.88	-3970.562	1	9553.11	-24.559	-5.874816E-010	-0.0124492	6
	30	11	998.264	8965.806	-4706.996	1	10126.28	-27.69921	-3.75362E-010	-0.012445	6
	31	11	796.875	9266.819	-5561.38	1	10807.54	-30.96961	-4.959178E-010	-0.0124537	6
	32	11	627.7902	9629.95	-6661.774	1	11709.62	-34.67457	-5.832088E-011	-0.0124447	6
	33	12	505.5147	10013.45	-7880.927	1	12742.77	-38.20397	-5.382933E-010	-0.0124484	6
	34	12	397.9953	10519.72	-9519	1	14187.17	-42.14105	2.478137E-010	-0.0124219	6
	35	12	315.5048	11111.52	-11467.2	1	15967.54	-45.9025	2.725657E-010	-0.0124217	6
	36	13	252.4038	11803.88	-13741.4	1	18115.13	-49.33738	2.260727E-010	-0.0124234	6
	37	13	198.6229	12725.35	-16711.65	1	21005.09	-52.71196	5.808887E-011	-0.0124198	6
	38	13	158.3615	13822.44	-20122.57	1	24412.66	-55.51436	2.077311E-010	-0.0124244	6
	39	14	125.558	15243.14	-24343.85	1	28722.4	-57.94687	4.169772E-010	-0.012427	6
	40	14	100.4464	16981.03	-29214.91	1	33791.52	-59.83291	2.519502E-010	-0.0124279	6
	41	14	79.00281	19384.21	-35501.71	1	40448.97	-61.36512	2.056609E-010	-0.0124326	6
	42	15	63.3446	22233.57	-42389.79	1	47866.75	-62.32286	3.383814E-010	-0.0124287	6
	43	15	49.86702	26215.67	-51208.2	1	57528.62	-62.89015	-9.778108E-011	-0.0124319	6
	44	15	39.72458	31103.08	-61040.23	1	68507.75	-62.99886	9.736446E-011	-0.0124256	6
	45	16	31.6723	37320.54	-72344.83	1	81403.91	-62.71214	-3.945366E-010	-0.0124268	6
	46	16	24.93351	45764.56	-85983.57	1	97404.2	-61.97596	9.489497E-010	-0.012432	6
	47	16	19.86229	55704.56	-100437.1	1	114850.4	-60.98632	1.874739E-009	-0.012433	5
	48	16	15.83615	68083.2	-116565	1	134991.5	-59.71167	-8.002821E-010	-0.0124362	5
	49	17	12.40079	84290.34	-135103.8	1	159241.6	-58.04024	7.871204E-010	-0.0124322	5
	50	17	9.93114	101534.3	-153428.8	1	183982.6	-56.50468	-4.095845E-011	-0.0124309	5
	51	17	7.944915	120980	-172510.1	1	210703.4	-54.95831	-1.33721E-009	-0.0124254	5
	52	18	6.317385	143836.3	-193517.6	1	241118.1	-53.37759	4.952097E-010	-0.0124508	5
	53	19	5.008013	169365.3	-215969.8	1	274458.7	-51.89618	1.495913E-010	-0.0124392	5
	54	20	3.945707	196921.2	-241114.8	1	311310.6	-50.76109	-4.350185E-010	-0.0124356	5
	55	20	3.158693	224482.3	-266328.4	1	348314.7	-49.8732	6.757379E-011	-0.0124444	5
	56	21	2.504006	254119.3	-296911.8	1	390811	-49.44062	2.46327E-010	-0.0124402	5
	57	23	1.998082	283766.5	-330278.9	1	435439.5	-49.33174	-7.82364E-011	-0.0124746	5
	58	24	1.584686	315857.5	-373109.3	1	488852.2	-49.75025	-1.261019E-010	-0.0124885	5
	59	26	1.266892	347111.8	-422022.8	1	546433.8	-50.56286	-6.332389E-011	-0.0124499	5
	60	29	0.999041	383634.4	-484888.9	1	618298.2	-51.64966	-7.685193E-012	-0.012425	5
