EXPLAIN
TAG	EISPOT
TITLE	LABEL	Potentiostatic EIS	Test &Identifier
DATE	LABEL	3/9/2020	Date
TIME	LABEL	20:46:33	Time
NOTES	NOTES	1	&Notes...
	
PSTAT	PSTAT	REF600-11020	Potentiostat
VDC	POTEN	0.00000E+000	T	DC &Voltage (V)
FREQINIT	QUANT	1.00000E+006	Initial Fre&q. (Hz)
FREQFINAL	QUANT	1.00000E+000	Final Fre&q. (Hz)
PTSPERDEC	QUANT	1.00000E+001	Points/&decade
VAC	QUANT	2.50000E+001	AC &Voltage (mV rms)
AREA	QUANT	4.00000E-005	&Area (cm^2)
CONDIT	TWOPARAM	F	5.00000E+000	0.00000E+000	Conditionin&g	Time(s)	E(V)
DELAY	TWOPARAM	T	3.00000E+000	0.00000E+000	Init. De&lay	Time(s)	Stab.(mV/s)
SPEED	SELECTOR	0	&Optimize for:
ZGUESS	QUANT	1.00000E+003	E&stimated Z (ohms)
OCVCURVE	TABLE	12
	Pt	T	Vf	Vm	Ach	Over
	#	s	V vs. Ref.	V	V	bits
	0	0.258333	4.11946E-002	4.11946E-002	5.54864E-004	...........
	1	0.516667	4.11946E-002	4.11932E-002	5.59030E-004	...........
	2	0.775	4.11943E-002	4.11891E-002	5.51797E-004	...........
	3	1.03333	4.11936E-002	4.11897E-002	5.51030E-004	...........
	4	1.29167	4.11923E-002	4.11855E-002	5.51097E-004	...........
	5	1.55	4.11906E-002	4.11831E-002	5.51730E-004	...........
	6	1.80833	4.11884E-002	4.11796E-002	5.51564E-004	...........
	7	2.06667	4.11859E-002	4.11766E-002	5.52397E-004	...........
	8	2.325	4.11830E-002	4.11742E-002	5.60130E-004	...........
	9	2.58333	4.11800E-002	4.11694E-002	5.56264E-004	...........
	10	2.84167	4.11769E-002	4.11679E-002	5.51164E-004	...........
	11	3.1	4.11738E-002	4.11634E-002	5.62464E-004	...........
EOC	QUANT	0.0411738	Open Circuit (V)
PSTATMODEL	IQUANT	4	Pstat Model
PSTATSECTION	LABEL	REF600-11020	Pstat Section
PSTATSERIALNO	LABEL	11020	Pstat Serial Number
CTRLMODE	IQUANT	1	Control Mode
IESTAB	IQUANT	0	I/E Stability
CASPEED	IQUANT	1	Control Amp Speed
CONVENTION	IQUANT	1	Current Convention
ICHRANGE	IQUANT	2	Ich Range
ICHRANGEMODE	TOGGLE	F	Ich Auto Range
ICHOFFSETENABLE	TOGGLE	T	Ich Offset Enable
ICHOFFSET	QUANT	0	Ich Offset (V)
ICHFILTER	IQUANT	3	Ich Filter
VCHRANGE	IQUANT	2	Vch Range
VCHRANGEMODE	TOGGLE	F	Vch Auto Range
VCHOFFSETENABLE	TOGGLE	T	Vch Offset Enable
VCHOFFSET	QUANT	0	Vch Offset (V)
VCHFILTER	IQUANT	3	Vch Filter
ACHRANGE	IQUANT	2	Ach Range
ACHOFFSETENABLE	TOGGLE	F	Ach Offset Enable
ACHOFFSET	QUANT	0	Ach Offset (V)
ACHFILTER	IQUANT	3	Ach Filter
IERANGELOWERLIMIT	IQUANT	1	I/E Range Lower Limit
IERANGEMODE	TOGGLE	F	I/E AutoRange
IERANGE	IQUANT	7	I/E Range
POSFEEDENABLE	TOGGLE	F	Positive Feedback IR Comp
POSFEEDRESISTANCE	QUANT	0	Positive Feedback Resistance (ohm)
ACHSELECT	IQUANT	0	Ach Select
CABLEID	IQUANT	14	Cable ID
DCCALDATE	LABEL	2/27/2020	DC Calibration Date
ACCALDATE	LABEL	2/27/2020	AC Calibration Date
THERMOSELECT	IQUANT	1	Thermo Select
FRAMEWORKVERSION	QUANT	6.33	Framework Version
INSTRUMENTVERSION	LABEL	3.50	Instrument Version
ZCURVE	TABLE
	Pt	Time	Freq	Zreal	Zimag	Zsig	Zmod	Zphz	Idc	Vdc	IERange
	#	s	Hz	ohm	ohm	V	ohm	°	A	V	#
	0	2	1000078	2082.258	-1686.386	1	2679.495	-39.00343	2.425057E-008	0.0436132	8
	1	2	794390.6	2436.53	-1678.936	1	2958.97	-34.5695	3.18719E-008	0.0432446	8
	2	2	630984.4	2772.619	-1611.49	1	3206.917	-30.16584	2.1794E-008	0.0430804	8
	3	2	501234.4	3068.526	-1497.687	1	3414.516	-26.01609	-1.176859E-008	0.043026	8
	4	3	398109.4	3316.459	-1358.508	1	3583.914	-22.27528	3.560464E-008	0.0429448	8
	5	3	316265.6	3516.725	-1212.323	1	3719.823	-19.02064	1.120519E-008	0.0428941	8
	6	3	251203.1	3675.476	-1071.471	1	3828.469	-16.25241	3.014315E-008	0.042904	8
	7	4	199546.9	3795.641	-947.1319	1	3912.026	-14.01097	1.295859E-008	0.0428803	8
	8	4	158578.1	3889.348	-839.0262	1	3978.818	-12.17353	2.748397E-008	0.0428963	8
	9	4	125953.1	4004.853	-674.9915	1	4061.338	-9.56691	1.03522E-009	0.0428363	7
	10	5	100078.1	4049.576	-622.0323	1	4097.071	-8.732626	4.869383E-010	0.0428253	7
	11	5	79453.13	4102.286	-596.4515	1	4145.419	-8.272548	3.353853E-010	0.0428205	7
	12	5	63140.62	4153.319	-585.2435	1	4194.35	-8.020731	5.338336E-010	0.0428252	7
	13	6	50203.12	4203.439	-587.9646	1	4244.361	-7.962701	-4.741035E-010	0.0428132	7
	14	6	39890.62	4254.561	-605.2613	1	4297.398	-8.096668	1.712923E-010	0.0428214	7
	15	6	31640.63	4309.354	-637.6287	1	4356.271	-8.416637	3.010011E-010	0.042818	7
	16	7	25171.88	4366.587	-684.8299	1	4419.963	-8.913326	1.64027E-009	0.0428139	7
	17	7	20015.62	4429.109	-747.9717	1	4491.823	-9.58546	1.248017E-009	0.0428167	7
	18	7	15890.62	4498.253	-828.8499	1	4573.978	-10.44024	9.745557E-010	0.0428136	7
	19	8	12609.37	4575.311	-928.7984	1	4668.633	-11.47524	2.901021E-010	0.0428067	7
	20	8	10078.13	4657.354	-1047.115	1	4773.615	-12.67114	1.051132E-009	0.0428152	7
	21	8	8015.625	4751.203	-1192.144	1	4898.483	-14.08553	1.6528E-009	0.0428132	7
	22	9	6328.125	4859.869	-1372.739	1	5050.024	-15.77308	1.713688E-010	0.0428039	7
	23	9	5015.625	4980.991	-1585.795	1	5227.334	-17.65989	6.683504E-010	0.0428019	7
	24	9	3984.375	5116.566	-1839.358	1	5437.14	-19.77304	8.746499E-010	0.0428078	7
	25	9	3170.956	5268.102	-2138.882	1	5685.746	-22.09746	-2.389025E-011	0.042803	7
	26	10	2527.573	5438.661	-2493.099	1	5982.856	-24.62687	1.666946E-009	0.0428111	7
	27	10	1976.103	5650.725	-2954.976	1	6376.721	-27.60676	9.003971E-010	0.0428029	7
	28	10	1577.524	5873.15	-3462.076	1	6817.614	-30.51829	1.177615E-009	0.0428022	7
	29	11	1265.625	6123.611	-4054.343	1	7344.135	-33.50789	7.395877E-010	0.0428025	7
	30	11	998.264	6435.809	-4814.233	1	8037.193	-36.7979	1.90431E-009	0.0428041	7
	31	11	796.875	6776.498	-5684.927	1	8845.299	-39.9939	4.312756E-010	0.0427969	7
	32	12	627.7902	7204.999	-6793.526	1	9902.73	-43.31633	-1.2681E-010	0.0428562	6
	33	12	505.5147	7651.878	-8009.273	1	11076.99	-46.30729	-4.500707E-010	0.0428558	6
	34	12	397.9953	8234.325	-9626.52	1	12667.83	-49.457	4.038343E-010	0.0428632	6
	35	13	315.5048	8913.521	-11532.5	1	14575.65	-52.2994	3.406805E-010	0.042868	6
	36	13	252.4038	9702.46	-13741.25	1	16821.41	-54.77474	1.760267E-010	0.0428632	6
	37	13	198.6229	10745.32	-16605.54	1	19778.93	-57.09341	2.34436E-010	0.0428637	6
	38	14	158.3615	11976.27	-19867.41	1	23197.96	-58.91801	2.526456E-010	0.042858	6
	39	14	125.558	13565.38	-23867.55	1	27453.23	-60.38781	1.494733E-010	0.0428579	6
	40	14	100.4464	15494.55	-28424.14	1	32373.02	-61.40435	1.854669E-010	0.0428566	6
	41	15	79.00281	18125.83	-34209.04	1	38714.39	-62.08289	3.566141E-010	0.0428551	6
	42	15	63.3446	21172.66	-40423.19	1	45632.39	-62.35557	1.783583E-010	0.0428568	6
	43	15	49.86702	25281.17	-48207.41	1	54434.29	-62.32635	-1.183331E-010	0.0428512	6
	44	16	39.72458	30088.97	-56714.45	1	64201.83	-62.0525	2.201869E-010	0.0428606	6
	45	16	31.6723	35843.69	-66357.55	1	75419.46	-61.62386	3.374199E-010	0.0428617	6
	46	16	24.93351	43112.89	-77967.21	1	89093.25	-61.05908	-4.949862E-010	0.0428583	6
	47	17	19.86229	51234.01	-90473.98	1	103973.4	-60.47779	-1.239133E-009	0.0428618	5
	48	17	15.83615	60731.25	-104799.4	1	121124.7	-59.90771	-2.580811E-010	0.0428614	5
	49	17	12.40079	72813.02	-122493.9	1	142500.8	-59.27183	-1.388495E-009	0.0428662	5
	50	18	9.93114	85276.96	-140771.2	1	164586.4	-58.79318	-1.206757E-009	0.0428621	5
	51	18	7.944915	100082.6	-161795.6	1	190248.1	-58.26014	5.327545E-010	0.0428637	5
	52	18	6.317385	117443.9	-186475.5	1	220377.3	-57.79691	-6.664092E-011	0.0428599	5
	53	19	5.008013	137821.3	-214842.6	1	255249	-57.31988	-3.992562E-010	0.0428577	5
	54	20	3.945707	162260.7	-247952.5	1	296325.8	-56.79916	-1.150641E-010	0.0428623	5
	55	21	3.158693	187506.2	-283151.5	1	339607.6	-56.48702	-1.959874E-010	0.0428439	5
	56	22	2.504006	217860.8	-324743.5	1	391052	-56.14351	1.826338E-010	0.0428469	5
	57	23	1.998082	249457.8	-371099.6	1	447151.1	-56.09051	1.212848E-010	0.0428549	5
	58	25	1.584686	287332.1	-425771.3	1	513654.5	-55.98653	-3.335239E-011	0.042811	5
	59	27	1.266892	327072.9	-489109.9	1	588392.1	-56.22894	-2.537789E-011	0.0428095	5
	60	29	0.999041	372928.8	-567454.4	1	679029	-56.68724	-2.555986E-011	0.0428288	5
