EXPLAIN
TAG	EISPOT
TITLE	LABEL	Potentiostatic EIS	Test &Identifier
DATE	LABEL	2/25/2020	Date
TIME	LABEL	15:24:55	Time
NOTES	NOTES	1	&Notes...
	
PSTAT	PSTAT	REF600-11020	Potentiostat
VDC	POTEN	0.00000E+000	T	DC &Voltage (V)
FREQINIT	QUANT	1.00000E+006	Initial Fre&q. (Hz)
FREQFINAL	QUANT	1.00000E+000	Final Fre&q. (Hz)
PTSPERDEC	QUANT	1.00000E+001	Points/&decade
VAC	QUANT	2.50000E+001	AC &Voltage (mV rms)
AREA	QUANT	1.60000E-004	&Area (cm^2)
CONDIT	TWOPARAM	F	1.50000E+001	0.00000E+000	Conditionin&g	Time(s)	E(V)
DELAY	TWOPARAM	F	1.00000E+002	0.00000E+000	Init. De&lay	Time(s)	Stab.(mV/s)
SPEED	SELECTOR	1	&Optimize for:
ZGUESS	QUANT	1.00000E+003	E&stimated Z (ohms)
OCVCURVE	TABLE	39
	Pt	T	Vf	Vm	Ach	Over
	#	s	V vs. Ref.	V	V	bits
	0	0.258333	9.09252E-002	9.09252E-002	5.73071E-004	...........
	1	0.516667	9.09245E-002	9.08883E-002	5.73238E-004	...........
	2	0.775	9.09235E-002	9.10277E-002	5.72771E-004	...........
	3	1.03333	9.09320E-002	9.11764E-002	5.69338E-004	...........
	4	1.29167	9.09706E-002	9.13484E-002	5.70838E-004	...........
	5	1.55	9.10523E-002	9.14241E-002	5.76071E-004	...........
	6	1.80833	9.11713E-002	9.17152E-002	5.73604E-004	...........
	7	2.06667	9.13216E-002	9.21536E-002	5.73704E-004	...........
	8	2.325	9.15074E-002	9.18721E-002	5.75771E-004	...........
	9	2.58333	9.17059E-002	9.20534E-002	5.71471E-004	...........
	10	2.84167	9.18653E-002	9.20244E-002	5.74038E-004	...........
	11	3.1	9.19587E-002	9.19160E-002	5.75904E-004	...........
	12	3.35833	9.19932E-002	9.18802E-002	5.70671E-004	...........
	13	3.61667	9.19828E-002	9.18573E-002	5.71871E-004	...........
	14	3.875	9.19454E-002	9.18104E-002	5.72338E-004	...........
	15	4.13333	9.18997E-002	9.17589E-002	5.72071E-004	...........
	16	4.39167	9.18544E-002	9.17215E-002	5.75904E-004	...........
	17	4.65	9.18103E-002	9.16745E-002	5.71638E-004	...........
	18	4.90833	9.17664E-002	9.16286E-002	5.69271E-004	...........
	19	5.16667	9.17224E-002	9.15937E-002	5.68404E-004	...........
	20	5.425	9.16795E-002	9.15855E-002	5.74104E-004	...........
	21	5.68333	9.16406E-002	9.15542E-002	5.76138E-004	...........
	22	5.94167	9.16080E-002	9.15253E-002	5.75938E-004	...........
	23	6.2	9.15802E-002	9.14940E-002	5.69038E-004	...........
	24	6.45833	9.15536E-002	9.14652E-002	5.73238E-004	...........
	25	6.71667	9.15264E-002	9.14616E-002	5.80537E-004	...........
	26	6.975	9.15002E-002	9.14362E-002	5.76904E-004	...........
	27	7.23333	9.14768E-002	9.14042E-002	5.75404E-004	...........
	28	7.49167	9.14551E-002	9.13718E-002	5.76071E-004	...........
	29	7.75	9.14315E-002	9.13381E-002	5.75738E-004	...........
	30	8.00833	9.14043E-002	9.13063E-002	5.72938E-004	...........
	31	8.26667	9.13742E-002	9.12935E-002	5.72704E-004	...........
	32	8.525	9.13444E-002	9.12808E-002	5.76904E-004	...........
	33	8.78333	9.13183E-002	9.12620E-002	5.78204E-004	...........
	34	9.04167	9.12980E-002	9.12880E-002	5.79571E-004	...........
	35	9.3	9.12840E-002	9.12468E-002	5.76804E-004	...........
	36	9.5583	9.12744E-002	9.12256E-002	5.72338E-004	...........
	37	9.8167	9.12638E-002	9.12011E-002	5.72504E-004	...........
	38	10.075	9.12486E-002	9.12006E-002	5.74104E-004	...........
EOC	QUANT	0.0912486	Open Circuit (V)
PSTATMODEL	IQUANT	4	Pstat Model
PSTATSECTION	LABEL	REF600-11020	Pstat Section
PSTATSERIALNO	LABEL	11020	Pstat Serial Number
CTRLMODE	IQUANT	1	Control Mode
IESTAB	IQUANT	0	I/E Stability
CASPEED	IQUANT	1	Control Amp Speed
CONVENTION	IQUANT	1	Current Convention
ICHRANGE	IQUANT	2	Ich Range
ICHRANGEMODE	TOGGLE	F	Ich Auto Range
ICHOFFSETENABLE	TOGGLE	T	Ich Offset Enable
ICHOFFSET	QUANT	0	Ich Offset (V)
ICHFILTER	IQUANT	3	Ich Filter
VCHRANGE	IQUANT	2	Vch Range
VCHRANGEMODE	TOGGLE	F	Vch Auto Range
VCHOFFSETENABLE	TOGGLE	T	Vch Offset Enable
VCHOFFSET	QUANT	0	Vch Offset (V)
VCHFILTER	IQUANT	3	Vch Filter
ACHRANGE	IQUANT	2	Ach Range
ACHOFFSETENABLE	TOGGLE	F	Ach Offset Enable
ACHOFFSET	QUANT	0	Ach Offset (V)
ACHFILTER	IQUANT	3	Ach Filter
IERANGELOWERLIMIT	IQUANT	1	I/E Range Lower Limit
IERANGEMODE	TOGGLE	F	I/E AutoRange
IERANGE	IQUANT	8	I/E Range
POSFEEDENABLE	TOGGLE	F	Positive Feedback IR Comp
POSFEEDRESISTANCE	QUANT	0	Positive Feedback Resistance (ohm)
ACHSELECT	IQUANT	0	Ach Select
CABLEID	IQUANT	14	Cable ID
DCCALDATE	LABEL	1/27/2020	DC Calibration Date
ACCALDATE	LABEL	1/27/2020	AC Calibration Date
THERMOSELECT	IQUANT	1	Thermo Select
FRAMEWORKVERSION	QUANT	6.33	Framework Version
INSTRUMENTVERSION	LABEL	3.50	Instrument Version
ZCURVE	TABLE
	Pt	Time	Freq	Zreal	Zimag	Zsig	Zmod	Zphz	Idc	Vdc	IERange
	#	s	Hz	ohm	ohm	V	ohm	°	A	V	#
	0	2	1000078	1661.898	-1414.1	1	2182.106	-40.39429	-1.980356E-006	0.0941326	8
	1	3	794390.6	1907.285	-1479.383	1	2413.775	-37.7989	-2.13522E-007	0.093237	8
	2	4	630984.4	2141.525	-1509.4	1	2620.003	-35.17713	2.795961E-006	0.0926136	8
	3	6	501234.4	2378.956	-1554.997	1	2842.085	-33.17052	-3.318099E-007	0.0928159	8
	4	7	398109.4	2615.815	-1582.799	1	3057.407	-31.17764	1.522102E-006	0.0924858	8
	5	8	316265.6	2838.024	-1625.845	1	3270.742	-29.8075	1.482559E-006	0.0924601	8
	6	10	251203.1	3077.626	-1673.688	1	3503.286	-28.53843	1.3705E-006	0.0924703	8
	7	11	199546.9	3312.424	-1724.346	1	3734.371	-27.50009	-1.961031E-007	0.0928015	8
	8	13	158578.1	3561.061	-1765.607	1	3974.736	-26.37264	-2.065951E-007	0.0927981	8
	9	14	125953.1	3841.911	-1806.351	1	4245.373	-25.1815	1.29886E-007	0.0924064	7
	10	15	100078.1	4113.867	-1875.025	1	4521.02	-24.50263	-1.584358E-008	0.0927473	7
	11	17	79453.13	4404.312	-1949.391	1	4816.439	-23.87465	1.254153E-008	0.0926638	7
	12	18	63140.62	4715.684	-2013.858	1	5127.699	-23.12516	-1.647803E-008	0.0927261	7
	13	19	50203.12	5049.545	-2064.099	1	5455.127	-22.23323	1.273063E-008	0.092705	7
	14	21	39890.62	5398.773	-2095.084	1	5791.039	-21.20958	-1.305414E-008	0.0927597	7
	15	22	31640.63	5760.612	-2097.323	1	6130.531	-20.00555	-1.462621E-008	0.0927297	7
	16	24	25171.88	6112.171	-2067.852	1	6452.492	-18.69156	-2.054273E-008	0.0927331	7
	17	25	20015.62	6453.921	-2009.424	1	6759.503	-17.29394	-2.069086E-008	0.0927356	7
	18	26	15890.62	6778.97	-1932.79	1	7049.121	-15.91368	6.695756E-009	0.092741	7
	19	28	12609.37	7067.658	-1834.473	1	7301.854	-14.55054	2.735748E-011	0.092748	7
	20	29	10078.13	7314.329	-1739.791	1	7518.396	-13.37978	6.515256E-008	0.0926294	7
	21	31	8015.625	7532.852	-1645.204	1	7710.418	-12.32016	-2.908795E-008	0.0927519	7
	22	33	6328.125	7730.71	-1568.104	1	7888.145	-11.46636	-1.587779E-008	0.0927121	7
	23	34	5015.625	7901.819	-1516.406	1	8046.007	-10.86333	6.198852E-008	0.0926	7
	24	36	3984.375	8039.043	-1494.761	1	8176.829	-10.53316	3.674666E-008	0.09264	7
	25	37	3170.956	8169.512	-1510.339	1	8307.951	-10.4743	1.591811E-008	0.092728	7
	26	39	2527.573	8278.313	-1565.625	1	8425.062	-10.7095	-1.881053E-008	0.0927226	7
	27	40	1976.103	8389.233	-1679.46	1	8555.689	-11.32053	1.248413E-008	0.0926681	7
	28	42	1577.524	8498.913	-1843.093	1	8696.466	-12.23583	-1.176503E-008	0.0927194	7
	29	44	1265.625	8600.994	-2058.051	1	8843.793	-13.45675	5.334882E-008	0.0926067	7
	30	45	998.264	8721.132	-2366.009	1	9036.379	-15.17876	1.112235E-009	0.0927166	6
	31	47	796.875	8842.731	-2749.843	1	9260.429	-17.27424	3.109846E-009	0.0926998	6
	32	48	627.7902	9001.093	-3263.844	1	9574.57	-19.93091	-3.910636E-009	0.0927191	6
	33	49	505.5147	9155.771	-3843.739	1	9929.88	-22.77344	-2.133947E-010	0.092677	6
	34	51	397.9953	9371.175	-4635.42	1	10454.95	-26.31915	1.512282E-009	0.0927157	6
	35	52	315.5048	9627.13	-5585.492	1	11130.11	-30.12156	1.335638E-009	0.0927105	6
	36	53	252.4038	9932.29	-6701.477	1	11981.66	-34.00817	1.277542E-009	0.0927051	6
	37	55	198.6229	10325.83	-8168.887	1	13166.38	-38.34793	1.485976E-009	0.0927117	6
	38	56	158.3615	10802.03	-9865.91	1	14629.42	-42.40667	1.148536E-009	0.0927081	6
	39	58	125.558	11408.62	-11972.7	1	16537.9	-46.38202	1.201467E-009	0.0927058	6
	40	59	100.4464	12145.49	-14435.1	1	18864.92	-49.9232	6.17668E-010	0.0927033	6
	41	60	79.00281	13185.98	-17628.84	1	22014.67	-53.20433	1.295577E-009	0.0927054	6
	42	62	63.3446	14279.49	-21248.16	1	25600.55	-56.09754	1.084826E-009	0.0927068	6
	43	63	49.86702	16075.85	-25689.38	1	30304.74	-57.96257	5.839028E-010	0.0927038	6
	44	65	39.72458	18074.67	-30961.96	1	35851.59	-59.72489	1.562933E-009	0.0927155	6
	45	66	31.6723	20745.25	-37142.04	1	42542.87	-60.81496	1.156575E-009	0.0927069	6
	46	67	24.93351	24273.25	-44717.12	1	50880.37	-61.5061	1.703029E-009	0.0927075	6
	47	69	19.86229	28613.81	-53063.5	1	60286.7	-61.66481	7.491597E-010	0.0927052	6
	48	70	15.83615	33792.43	-62855.37	1	71363.34	-61.73655	2.828327E-009	0.0927033	6
	49	71	12.40079	41449.19	-74175.06	1	84970.44	-60.80344	-6.779101E-010	0.0927131	6
	50	73	9.93114	49210.72	-86205.05	1	99262.3	-60.27983	1.816736E-011	0.0927121	6
	51	74	7.944915	58437.49	-99213.5	1	115144.5	-59.50159	1.472697E-009	0.0927109	5
	52	76	6.317385	69359.04	-114458.9	1	133833.9	-58.78525	1.147921E-011	0.0927213	5
	53	78	5.008013	81839.06	-131610.4	1	154980.4	-58.12548	1.19263E-010	0.092701	5
	54	81	3.945707	95927.8	-151383.7	1	179218.2	-57.63864	6.39851E-010	0.0927091	5
	55	83	3.158693	110330.6	-172934.2	1	205131.9	-57.46247	-1.303924E-010	0.0926885	5
	56	87	2.504006	126546.4	-198741	1	235609.8	-57.51347	6.367759E-010	0.0927061	5
	57	89	1.998082	143475.6	-228422.8	1	269744.7	-57.86648	4.123236E-010	0.0927198	5
	58	93	1.584686	162997.1	-264304.1	1	310523.3	-58.33775	1.207423E-010	0.092662	5
	59	96	1.266892	182462.4	-306839.1	1	356991.2	-59.26209	3.16653E-010	0.0927095	5
	60	101	0.999041	206426	-361511.8	1	416296.1	-60.2733	-6.344736E-011	0.0926758	5
