EXPLAIN
TAG	EISPOT
TITLE	LABEL	Potentiostatic EIS	Test &Identifier
DATE	LABEL	6/1/2020	Date
TIME	LABEL	12:31:48	Time
NOTES	NOTES	1	&Notes...
	
PSTAT	PSTAT	REF600-11020	Potentiostat
VDC	POTEN	0.00000E+000	T	DC &Voltage (V)
FREQINIT	QUANT	1.00000E+006	Initial Fre&q. (Hz)
FREQFINAL	QUANT	1.00000E+000	Final Fre&q. (Hz)
PTSPERDEC	QUANT	1.00000E+001	Points/&decade
VAC	QUANT	2.50000E+001	AC &Voltage (mV rms)
AREA	QUANT	4.00000E-004	&Area (cm^2)
CONDIT	TWOPARAM	F	5.00000E+000	0.00000E+000	Conditionin&g	Time(s)	E(V)
DELAY	TWOPARAM	T	3.00000E+000	0.00000E+000	Init. De&lay	Time(s)	Stab.(mV/s)
SPEED	SELECTOR	0	&Optimize for:
ZGUESS	QUANT	1.00000E+003	E&stimated Z (ohms)
OCVCURVE	TABLE	12
	Pt	T	Vf	Vm	Ach	Over
	#	s	V vs. Ref.	V	V	bits
	0	0.258333	-4.59866E-002	-4.59866E-002	5.60764E-004	...........
	1	0.516667	-4.59883E-002	-4.60783E-002	5.56330E-004	...........
	2	0.775	-4.59990E-002	-4.61636E-002	5.59297E-004	...........
	3	1.03333	-4.60293E-002	-4.62479E-002	5.62130E-004	...........
	4	1.29167	-4.60839E-002	-4.63456E-002	5.61364E-004	...........
	5	1.55	-4.61584E-002	-4.64502E-002	5.59264E-004	...........
	6	1.80833	-4.62459E-002	-4.65494E-002	5.64930E-004	...........
	7	2.06667	-4.63407E-002	-4.66287E-002	5.59730E-004	...........
	8	2.325	-4.64373E-002	-4.67055E-002	5.57897E-004	...........
	9	2.58333	-4.65306E-002	-4.67845E-002	5.61230E-004	...........
	10	2.84167	-4.66178E-002	-4.68643E-002	5.61697E-004	...........
	11	3.1	-4.67000E-002	-4.69436E-002	5.61397E-004	...........
EOC	QUANT	-0.0467	Open Circuit (V)
PSTATMODEL	IQUANT	4	Pstat Model
PSTATSECTION	LABEL	REF600-11020	Pstat Section
PSTATSERIALNO	LABEL	11020	Pstat Serial Number
CTRLMODE	IQUANT	1	Control Mode
IESTAB	IQUANT	0	I/E Stability
CASPEED	IQUANT	1	Control Amp Speed
CONVENTION	IQUANT	1	Current Convention
ICHRANGE	IQUANT	2	Ich Range
ICHRANGEMODE	TOGGLE	F	Ich Auto Range
ICHOFFSETENABLE	TOGGLE	T	Ich Offset Enable
ICHOFFSET	QUANT	0	Ich Offset (V)
ICHFILTER	IQUANT	3	Ich Filter
VCHRANGE	IQUANT	2	Vch Range
VCHRANGEMODE	TOGGLE	F	Vch Auto Range
VCHOFFSETENABLE	TOGGLE	T	Vch Offset Enable
VCHOFFSET	QUANT	0	Vch Offset (V)
VCHFILTER	IQUANT	3	Vch Filter
ACHRANGE	IQUANT	2	Ach Range
ACHOFFSETENABLE	TOGGLE	F	Ach Offset Enable
ACHOFFSET	QUANT	0	Ach Offset (V)
ACHFILTER	IQUANT	3	Ach Filter
IERANGELOWERLIMIT	IQUANT	1	I/E Range Lower Limit
IERANGEMODE	TOGGLE	F	I/E AutoRange
IERANGE	IQUANT	7	I/E Range
POSFEEDENABLE	TOGGLE	F	Positive Feedback IR Comp
POSFEEDRESISTANCE	QUANT	0	Positive Feedback Resistance (ohm)
ACHSELECT	IQUANT	0	Ach Select
CABLEID	IQUANT	14	Cable ID
DCCALDATE	LABEL	2/27/2020	DC Calibration Date
ACCALDATE	LABEL	2/27/2020	AC Calibration Date
THERMOSELECT	IQUANT	1	Thermo Select
FRAMEWORKVERSION	QUANT	6.33	Framework Version
INSTRUMENTVERSION	LABEL	3.50	Instrument Version
ZCURVE	TABLE
	Pt	Time	Freq	Zreal	Zimag	Zsig	Zmod	Zphz	Idc	Vdc	IERange
	#	s	Hz	ohm	ohm	V	ohm	°	A	V	#
	0	1	1000078	1977.031	-2091.018	1	2877.674	-46.60502	4.899797E-009	-0.0442822	8
	1	1	794390.6	2272.388	-2263.569	1	3207.412	-44.88861	8.878715E-008	-0.0446376	8
	2	2	630984.4	2572.475	-2444.033	1	3548.369	-43.53333	3.351163E-008	-0.044815	8
	3	2	501234.4	2884.495	-2652.729	1	3918.837	-42.60323	5.5327E-008	-0.0449247	8
	4	2	398109.4	3210.272	-2896.029	1	4323.521	-42.05404	5.677644E-008	-0.0449851	8
	5	3	316265.6	3564.647	-3184.849	1	4780.164	-41.77933	6.221951E-008	-0.0450055	8
	6	3	251203.1	3950.37	-3540.243	1	5304.596	-41.86607	6.09285E-008	-0.0450342	8
	7	3	199546.9	4410.846	-3939.979	1	5914.304	-41.77275	5.528345E-008	-0.0450351	8
	8	4	158578.1	4925.193	-4393.133	1	6599.784	-41.73206	6.664837E-008	-0.04502	8
	9	4	125953.1	5626.364	-4856.978	1	7432.779	-40.80251	1.056502E-008	-0.0450863	7
	10	4	100078.1	6354.542	-5374.618	1	8322.663	-40.22426	3.961917E-009	-0.0451029	7
	11	4	79453.13	7251.564	-5929.475	1	9367.169	-39.27225	4.94065E-009	-0.0451119	7
	12	5	63140.62	8286.37	-6437.479	1	10493.1	-37.84276	5.224579E-009	-0.045115	7
	13	5	50203.12	9461.04	-6886.186	1	11701.75	-36.04887	5.265212E-009	-0.0451125	7
	14	5	39890.62	10760.2	-7188.985	1	12940.77	-33.74723	4.940631E-009	-0.0451195	7
	15	6	31640.63	12146.05	-7331.515	1	14187.23	-31.11573	4.353051E-009	-0.0451177	7
	16	6	25171.88	13528.87	-7280.272	1	15363.35	-28.28597	4.334766E-009	-0.0451243	7
	17	6	20015.62	14860.13	-7066.073	1	16454.57	-25.43134	3.977692E-009	-0.0451222	7
	18	7	15890.62	16058.16	-6665.688	1	17386.66	-22.54317	4.293351E-009	-0.0451256	7
	19	7	12609.37	17173.29	-6029.805	1	18201.11	-19.34696	1.13386E-009	-0.0450711	6
	20	7	10078.13	18084.5	-5616.745	1	18936.66	-17.25392	1.169176E-009	-0.0450687	6
	21	8	8015.625	18855.12	-5191.351	1	19556.72	-15.39375	9.394526E-010	-0.0450761	6
	22	8	6328.125	19467.38	-4785	1	20046.83	-13.8093	1.109632E-009	-0.0450755	6
	23	8	5015.625	19981.4	-4480.972	1	20477.68	-12.63987	1.106194E-009	-0.0450721	6
	24	9	3984.375	20385.21	-4273.081	1	20828.25	-11.83875	9.478907E-010	-0.0450849	6
	25	9	3170.956	20726.34	-4171.989	1	21142.06	-11.38094	9.221063E-010	-0.0450763	6
	26	9	2527.573	21066.87	-4191.791	1	21479.86	-11.25348	9.777337E-010	-0.0450759	6
	27	10	1976.103	21437.9	-4339.689	1	21872.73	-11.44378	8.417818E-010	-0.0450765	6
	28	10	1577.524	21803.08	-4594.792	1	22281.98	-11.9004	7.112914E-010	-0.0450866	6
	29	10	1265.625	22156.02	-4958.039	1	22703.99	-12.61375	8.602173E-010	-0.0450778	6
	30	11	998.264	22560.5	-5483.324	1	23217.3	-13.66084	8.686038E-010	-0.0450827	6
	31	11	796.875	22972.01	-6130.087	1	23775.86	-14.94124	8.899029E-010	-0.0450749	6
	32	11	627.7902	23456.48	-6986.67	1	24474.89	-16.58652	6.215209E-010	-0.0450872	6
	33	12	505.5147	23960.62	-7964.583	1	25249.67	-18.38697	5.965798E-010	-0.0450836	6
	34	12	397.9953	24521.29	-9289.378	1	26221.86	-20.74815	1.084827E-009	-0.0450686	6
	35	12	315.5048	25181.84	-10887.25	1	27434.61	-23.38102	1.070974E-009	-0.0450669	6
	36	12	252.4038	25885.79	-12772.19	1	28865.26	-26.26199	1.065045E-009	-0.0450691	6
	37	13	198.6229	26747.96	-15260.57	1	30795.1	-29.70614	9.830037E-010	-0.045068	6
	38	13	158.3615	27708.93	-18146.96	1	33122.46	-33.22135	9.940508E-010	-0.0450715	6
	39	13	125.558	28879.37	-21756.15	1	36157.27	-36.99239	9.994093E-010	-0.0450669	6
	40	14	100.4464	30277.59	-25958.03	1	39881.72	-40.60762	9.118942E-010	-0.0450706	6
	41	14	79.00281	32133.92	-31435.51	1	44953.09	-44.37054	9.663237E-010	-0.045072	6
	42	14	63.3446	34259.9	-37498.98	1	50792.86	-47.58448	9.012566E-010	-0.0450728	6
	43	15	49.86702	37129.13	-45376.96	1	58631.4	-50.70868	9.65005E-010	-0.045079	6
	44	15	39.72458	40541.36	-54325.59	1	67785.48	-53.26726	8.149888E-010	-0.0450743	6
	45	16	31.6723	44759.11	-64910.44	1	78846.33	-55.41172	9.139891E-010	-0.0450772	6
	46	16	24.93351	50346.28	-78212.47	1	93015.8	-57.23014	5.445537E-010	-0.0450777	6
	47	16	19.86229	56899.36	-93142.08	1	109146.6	-58.57975	-4.066821E-010	-0.0450783	5
	48	16	15.83615	65093.54	-110703.9	1	128423.3	-59.54462	6.774967E-010	-0.0450753	5
	49	17	12.40079	76222.44	-133024.1	1	153314.3	-60.18741	-1.731891E-010	-0.0450713	5
	50	17	9.93114	88747.28	-156619.8	1	180016.2	-60.46231	-3.276608E-010	-0.0450748	5
	51	17	7.944915	104385.7	-184058	1	211598	-60.44093	7.096984E-010	-0.0450686	5
	52	18	6.317385	124130.6	-216332.5	1	249415.6	-60.153	5.175772E-010	-0.0450647	5
	53	19	5.008013	149097.4	-253640.6	1	294216.9	-59.55174	3.091991E-010	-0.0450769	5
	54	20	3.945707	180923.2	-296761.3	1	347563.6	-58.63105	5.058542E-010	-0.0450649	5
	55	20	3.158693	216488.5	-341398.7	1	404252.8	-57.62031	4.480436E-010	-0.0450867	5
	56	21	2.504006	261769.5	-391938.4	1	471316.2	-56.26167	8.179358E-010	-0.0450859	5
	57	23	1.998082	312219.5	-444684.1	1	543346.1	-54.92672	7.995284E-010	-0.0450725	5
	58	24	1.584686	374543.6	-501532.7	1	625953.6	-53.2477	6.700824E-010	-0.0451222	5
	59	26	1.266892	442069.6	-561257.3	1	714447.6	-51.77456	6.522541E-010	-0.0451268	5
	60	29	0.999041	520793.2	-627230.6	1	815256.8	-50.29696	6.437031E-010	-0.0451075	5
