EXPLAIN
TAG	EISPOT
TITLE	LABEL	Potentiostatic EIS	Test &Identifier
DATE	LABEL	3/12/2020	Date
TIME	LABEL	13:07:05	Time
NOTES	NOTES	1	&Notes...
	
PSTAT	PSTAT	REF600-11020	Potentiostat
VDC	POTEN	0.00000E+000	T	DC &Voltage (V)
FREQINIT	QUANT	1.00000E+006	Initial Fre&q. (Hz)
FREQFINAL	QUANT	1.00000E+000	Final Fre&q. (Hz)
PTSPERDEC	QUANT	1.00000E+001	Points/&decade
VAC	QUANT	2.50000E+001	AC &Voltage (mV rms)
AREA	QUANT	2.50000E-001	&Area (cm^2)
CONDIT	TWOPARAM	F	5.00000E+000	0.00000E+000	Conditionin&g	Time(s)	E(V)
DELAY	TWOPARAM	T	5.00000E+000	0.00000E+000	Init. De&lay	Time(s)	Stab.(mV/s)
SPEED	SELECTOR	1	&Optimize for:
ZGUESS	QUANT	5.00000E+003	E&stimated Z (ohms)
OCVCURVE	TABLE	19
	Pt	T	Vf	Vm	Ach	Over
	#	s	V vs. Ref.	V	V	bits
	0	0.258333	1.08409E-001	1.08409E-001	5.47164E-004	...........
	1	0.516667	1.08408E-001	1.08362E-001	5.47064E-004	...........
	2	0.775	1.08402E-001	1.08314E-001	5.52330E-004	...........
	3	1.03333	1.08386E-001	1.08268E-001	5.54630E-004	...........
	4	1.29167	1.08357E-001	1.08229E-001	5.54464E-004	...........
	5	1.55	1.08319E-001	1.08178E-001	5.53897E-004	...........
	6	1.80833	1.08275E-001	1.08135E-001	5.57897E-004	...........
	7	2.06667	1.08230E-001	1.08092E-001	5.54330E-004	...........
	8	2.325	1.08184E-001	1.08048E-001	5.52697E-004	...........
	9	2.58333	1.08140E-001	1.08007E-001	5.51064E-004	...........
	10	2.84167	1.08095E-001	1.07952E-001	5.53964E-004	...........
	11	3.1	1.08051E-001	1.07914E-001	5.60497E-004	...........
	12	3.35833	1.08006E-001	1.07871E-001	5.54597E-004	...........
	13	3.61667	1.07961E-001	1.07826E-001	5.50797E-004	...........
	14	3.875	1.07917E-001	1.07792E-001	5.53264E-004	...........
	15	4.13333	1.07874E-001	1.07754E-001	5.55964E-004	...........
	16	4.39167	1.07833E-001	1.07712E-001	5.57297E-004	...........
	17	4.65	1.07794E-001	1.07665E-001	5.57797E-004	...........
	18	4.90833	1.07754E-001	1.07622E-001	5.55730E-004	...........
EOC	QUANT	0.107754	Open Circuit (V)
PSTATMODEL	IQUANT	4	Pstat Model
PSTATSECTION	LABEL	REF600-11020	Pstat Section
PSTATSERIALNO	LABEL	11020	Pstat Serial Number
CTRLMODE	IQUANT	1	Control Mode
IESTAB	IQUANT	0	I/E Stability
CASPEED	IQUANT	1	Control Amp Speed
CONVENTION	IQUANT	1	Current Convention
ICHRANGE	IQUANT	2	Ich Range
ICHRANGEMODE	TOGGLE	F	Ich Auto Range
ICHOFFSETENABLE	TOGGLE	T	Ich Offset Enable
ICHOFFSET	QUANT	0	Ich Offset (V)
ICHFILTER	IQUANT	3	Ich Filter
VCHRANGE	IQUANT	2	Vch Range
VCHRANGEMODE	TOGGLE	F	Vch Auto Range
VCHOFFSETENABLE	TOGGLE	T	Vch Offset Enable
VCHOFFSET	QUANT	0	Vch Offset (V)
VCHFILTER	IQUANT	3	Vch Filter
ACHRANGE	IQUANT	2	Ach Range
ACHOFFSETENABLE	TOGGLE	F	Ach Offset Enable
ACHOFFSET	QUANT	0	Ach Offset (V)
ACHFILTER	IQUANT	3	Ach Filter
IERANGELOWERLIMIT	IQUANT	1	I/E Range Lower Limit
IERANGEMODE	TOGGLE	F	I/E AutoRange
IERANGE	IQUANT	7	I/E Range
POSFEEDENABLE	TOGGLE	F	Positive Feedback IR Comp
POSFEEDRESISTANCE	QUANT	0	Positive Feedback Resistance (ohm)
ACHSELECT	IQUANT	0	Ach Select
CABLEID	IQUANT	14	Cable ID
DCCALDATE	LABEL	2/27/2020	DC Calibration Date
ACCALDATE	LABEL	2/27/2020	AC Calibration Date
THERMOSELECT	IQUANT	1	Thermo Select
FRAMEWORKVERSION	QUANT	6.33	Framework Version
INSTRUMENTVERSION	LABEL	3.50	Instrument Version
ZCURVE	TABLE
	Pt	Time	Freq	Zreal	Zimag	Zsig	Zmod	Zphz	Idc	Vdc	IERange
	#	s	Hz	ohm	ohm	V	ohm	°	A	V	#
	0	2	1000078	1848.528	-1644.678	1	2474.272	-41.66022	-7.222708E-007	0.110355	8
	1	3	794390.6	2099.612	-1722.07	1	2715.492	-39.35809	-3.318585E-006	0.1105024	8
	2	4	630984.4	2363.936	-1759.069	1	2946.611	-36.65395	-3.987541E-006	0.1106948	8
	3	6	501234.4	2581.139	-1821.464	1	3159.116	-35.20993	3.38471E-007	0.1098483	8
	4	7	398109.4	2796.312	-1896.869	1	3378.975	-34.15088	2.184575E-006	0.1089612	8
	5	8	316265.6	3025.765	-2005.334	1	3629.961	-33.53453	6.607786E-007	0.1092184	8
	6	10	251203.1	3236.963	-2132.327	1	3876.177	-33.37461	-6.584565E-007	0.1095083	8
	7	11	199546.9	3433.01	-2314.912	1	4140.576	-33.99217	2.084335E-006	0.1089445	8
	8	12	158578.1	3611.573	-2597.25	1	4448.501	-35.72167	-4.268099E-007	0.1094536	8
	9	14	125953.1	3938.45	-2814.012	1	4840.46	-35.54571	1.163494E-006	0.1067432	7
	10	15	100078.1	4156.873	-3217.646	1	5256.695	-37.74183	8.560335E-008	0.109229	7
	11	17	79453.13	4426.375	-3731.294	1	5789.244	-40.12983	3.049748E-008	0.1092167	7
	12	18	63140.62	4744.884	-4353.72	1	6439.627	-42.53828	-4.349389E-008	0.1093819	7
	13	19	50203.12	5135.179	-5103.042	1	7239.551	-44.82016	2.453568E-009	0.1092634	7
	14	21	39890.62	5610.516	-6002.834	1	8216.563	-46.93481	-1.08162E-008	0.1092042	7
	15	22	31640.63	6215.082	-7089.4	1	9427.981	-48.75985	-3.942651E-008	0.1093082	7
	16	23	25171.88	6973.154	-8344.68	1	10874.67	-50.11649	-6.051803E-009	0.1093222	7
	17	25	20015.62	7978.379	-9777.46	1	12619.56	-50.78564	-6.341899E-008	0.1093328	7
	18	26	15890.62	9258.473	-11449.58	1	14724.55	-51.03997	-6.362293E-008	0.1093376	7
	19	27	12609.37	11259.14	-13145.09	1	17307.85	-49.41902	1.765745E-008	0.1091209	6
	20	29	10078.13	13317.14	-15028.42	1	20079.83	-48.45486	2.207499E-009	0.1092285	6
	21	31	8015.625	15954.99	-16997.22	1	23312.38	-46.81158	-1.073154E-009	0.1093036	6
	22	32	6328.125	19335.84	-18782.14	1	26956.32	-44.16779	8.940049E-009	0.109301	6
	23	34	5015.625	23217.7	-20164.62	1	30751.8	-40.97438	8.210499E-009	0.1093023	6
	24	35	3984.375	27432.42	-20628.4	1	34323	-36.94212	3.164748E-011	0.1092766	6
	25	37	3170.956	31716.62	-20518.14	1	37774.84	-32.89967	6.576547E-009	0.1093262	6
	26	38	2527.573	35756.85	-19735.83	1	40841.83	-28.8963	-9.383922E-009	0.1093939	6
	27	40	1976.103	39588.03	-18249.47	1	43591.92	-24.74897	-9.605595E-009	0.1093929	6
	28	42	1577.524	42460.91	-16531.2	1	45565.44	-21.27234	-5.664076E-009	0.1094294	6
	29	43	1265.625	44545.03	-14719.84	1	46914.11	-18.28607	6.958234E-009	0.1093299	6
	30	45	998.264	46343.4	-13022.34	1	48138.26	-15.69519	2.694679E-009	0.1092222	6
	31	46	796.875	47529.77	-11664.66	1	48940.2	-13.78889	-5.113065E-009	0.1094307	6
	32	47	627.7902	48638.12	-10610.33	1	49781.98	-12.30619	-2.205423E-009	0.1093218	6
	33	49	505.5147	49053.52	-9972.51	1	50056.95	-11.49155	1.939646E-008	0.1089884	6
	34	50	397.9953	49795.52	-9613.64	1	50715.05	-10.92722	3.369487E-009	0.1093087	6
	35	51	315.5048	49988.11	-9699.46	1	50920.43	-10.98096	3.126069E-009	0.1093085	6
	36	53	252.4038	50402.97	-10192.99	1	51423.3	-11.43273	2.464619E-009	0.1093104	6
	37	54	198.6229	51085.86	-11225.56	1	52304.67	-12.39316	3.031291E-009	0.1093068	6
	38	56	158.3615	51550.3	-12622.42	1	53073.14	-13.75854	2.008335E-009	0.1093	6
	39	57	125.558	51641.39	-14540.14	1	53649.32	-15.72509	3.309236E-009	0.1092992	6
	40	58	100.4464	52824.49	-17076.07	1	55515.94	-17.91397	2.277009E-009	0.1092996	6
	41	60	79.00281	53991.29	-20432.5	1	57728.21	-20.72868	1.498933E-009	0.1092986	6
	42	62	63.3446	55733.29	-24654.19	1	60942.83	-23.86269	1.404909E-009	0.1093027	6
	43	63	49.86702	56176.06	-29500.77	1	63451.13	-27.70614	1.049782E-009	0.1092973	6
	44	65	39.72458	58699.2	-35452.4	1	68574.55	-31.1306	2.215907E-009	0.109307	6
	45	66	31.6723	61860.61	-42555.15	1	75084.45	-34.52486	8.720983E-010	0.1093015	6
	46	68	24.93351	65386.17	-51293.29	1	83104.46	-38.11301	1.640116E-009	0.1092989	6
	47	70	19.86229	69931.29	-61132.91	1	92884.97	-41.15948	1.097445E-009	0.1093056	6
	48	71	15.83615	76459.99	-72208.25	1	105167.3	-43.36185	2.136424E-009	0.1093041	5
	49	72	12.40079	84506.53	-86827.36	1	121162.5	-45.77606	1.674332E-009	0.1093006	5
	50	74	9.93114	94316.42	-100714.9	1	137982.2	-46.87906	6.666234E-010	0.1093077	5
	51	75	7.944915	105295.5	-116624.1	1	157125.2	-47.92233	1.005792E-009	0.1093032	5
	52	77	6.317385	119452.1	-134022.8	1	179529.8	-48.28997	1.28519E-009	0.1093072	5
	53	79	5.008013	136066.2	-153895.5	1	205421.1	-48.51859	6.045695E-010	0.1093253	5
	54	82	3.945707	155703.4	-175862.9	1	234885.7	-48.47935	-9.934616E-011	0.1093052	5
	55	84	3.158693	175736.2	-197753.3	1	264555.4	-48.37367	2.531696E-010	0.1092994	5
	56	87	2.504006	198193.1	-223243.1	1	298526.3	-48.40163	2.271069E-010	0.1093172	5
	57	90	1.998082	220887.3	-251160	1	334473.5	-48.66939	6.690484E-010	0.1092934	5
	58	93	1.584686	246577.3	-284107.7	1	376188.2	-49.04525	1.205355E-010	0.1092568	5
	59	97	1.266892	270465.6	-321660.5	1	420258.4	-49.94147	4.615567E-010	0.1092915	5
	60	101	0.999041	298258.8	-370928.3	1	475968.5	-51.19767	-3.903324E-011	0.1092933	5
