EXPLAIN
TAG	EISPOT
TITLE	LABEL	Potentiostatic EIS	Test &Identifier
DATE	LABEL	2/18/2020	Date
TIME	LABEL	16:55:41	Time
NOTES	NOTES	1	&Notes...
	
PSTAT	PSTAT	REF600-11020	Potentiostat
VDC	POTEN	0.00000E+000	T	DC &Voltage (V)
FREQINIT	QUANT	1.00000E+006	Initial Fre&q. (Hz)
FREQFINAL	QUANT	1.00000E+000	Final Fre&q. (Hz)
PTSPERDEC	QUANT	1.00000E+001	Points/&decade
VAC	QUANT	2.50000E+001	AC &Voltage (mV rms)
AREA	QUANT	1.60000E-004	&Area (cm^2)
CONDIT	TWOPARAM	F	1.50000E+001	0.00000E+000	Conditionin&g	Time(s)	E(V)
DELAY	TWOPARAM	F	1.00000E+002	0.00000E+000	Init. De&lay	Time(s)	Stab.(mV/s)
SPEED	SELECTOR	1	&Optimize for:
ZGUESS	QUANT	1.00000E+003	E&stimated Z (ohms)
OCVCURVE	TABLE	39
	Pt	T	Vf	Vm	Ach	Over
	#	s	V vs. Ref.	V	V	bits
	0	0.258333	3.15397E-002	3.15397E-002	5.69004E-004	...........
	1	0.516667	3.15397E-002	3.15402E-002	5.68604E-004	...........
	2	0.775	3.15393E-002	3.15166E-002	5.71804E-004	...........
	3	1.03333	3.15371E-002	3.15156E-002	5.69804E-004	...........
	4	1.29167	3.15314E-002	3.14882E-002	5.67704E-004	...........
	5	1.55	3.15222E-002	3.15016E-002	5.72838E-004	...........
	6	1.80833	3.15117E-002	3.14858E-002	5.68638E-004	...........
	7	2.06667	3.15022E-002	3.14763E-002	5.67138E-004	...........
	8	2.325	3.14940E-002	3.14598E-002	5.72371E-004	...........
	9	2.58333	3.14850E-002	3.14439E-002	5.71071E-004	...........
	10	2.84167	3.14740E-002	3.14362E-002	5.67571E-004	...........
	11	3.1	3.14615E-002	3.14306E-002	5.73104E-004	...........
	12	3.35833	3.14494E-002	3.14215E-002	5.69671E-004	...........
	13	3.61667	3.14390E-002	3.14145E-002	5.73071E-004	...........
	14	3.875	3.14301E-002	3.13988E-002	5.69638E-004	...........
	15	4.13333	3.14215E-002	3.13947E-002	5.72304E-004	...........
	16	4.39167	3.14126E-002	3.13907E-002	5.70004E-004	...........
	17	4.65	3.14040E-002	3.13828E-002	5.71838E-004	...........
	18	4.90833	3.13964E-002	3.13743E-002	5.74271E-004	...........
	19	5.16667	3.13894E-002	3.13643E-002	5.77538E-004	...........
	20	5.425	3.13822E-002	3.13560E-002	5.77304E-004	...........
	21	5.68333	3.13742E-002	3.13499E-002	5.74771E-004	...........
	22	5.94167	3.13659E-002	3.13438E-002	5.75438E-004	...........
	23	6.2	3.13581E-002	3.13396E-002	5.80304E-004	...........
	24	6.45833	3.13509E-002	3.13259E-002	5.77204E-004	...........
	25	6.71667	3.13441E-002	3.13210E-002	5.78304E-004	...........
	26	6.975	3.13366E-002	3.13041E-002	5.71871E-004	...........
	27	7.23333	3.13281E-002	3.13016E-002	5.76771E-004	...........
	28	7.49167	3.13189E-002	3.12938E-002	5.78871E-004	...........
	29	7.75	3.13098E-002	3.12871E-002	5.74537E-004	...........
	30	8.00833	3.13018E-002	3.12845E-002	5.77904E-004	...........
	31	8.26667	3.12948E-002	3.12758E-002	5.74004E-004	...........
	32	8.525	3.12887E-002	3.12674E-002	5.74104E-004	...........
	33	8.78333	3.12825E-002	3.12596E-002	5.72138E-004	...........
	34	9.04167	3.12757E-002	3.12503E-002	5.73804E-004	...........
	35	9.3	3.12682E-002	3.12488E-002	5.70604E-004	...........
	36	9.5583	3.12607E-002	3.12425E-002	5.73337E-004	...........
	37	9.8167	3.12539E-002	3.12344E-002	5.75938E-004	...........
	38	10.075	3.12478E-002	3.12282E-002	5.74738E-004	...........
EOC	QUANT	0.0312478	Open Circuit (V)
PSTATMODEL	IQUANT	4	Pstat Model
PSTATSECTION	LABEL	REF600-11020	Pstat Section
PSTATSERIALNO	LABEL	11020	Pstat Serial Number
CTRLMODE	IQUANT	1	Control Mode
IESTAB	IQUANT	0	I/E Stability
CASPEED	IQUANT	1	Control Amp Speed
CONVENTION	IQUANT	1	Current Convention
ICHRANGE	IQUANT	2	Ich Range
ICHRANGEMODE	TOGGLE	F	Ich Auto Range
ICHOFFSETENABLE	TOGGLE	T	Ich Offset Enable
ICHOFFSET	QUANT	0	Ich Offset (V)
ICHFILTER	IQUANT	3	Ich Filter
VCHRANGE	IQUANT	2	Vch Range
VCHRANGEMODE	TOGGLE	F	Vch Auto Range
VCHOFFSETENABLE	TOGGLE	T	Vch Offset Enable
VCHOFFSET	QUANT	0	Vch Offset (V)
VCHFILTER	IQUANT	3	Vch Filter
ACHRANGE	IQUANT	2	Ach Range
ACHOFFSETENABLE	TOGGLE	F	Ach Offset Enable
ACHOFFSET	QUANT	0	Ach Offset (V)
ACHFILTER	IQUANT	3	Ach Filter
IERANGELOWERLIMIT	IQUANT	1	I/E Range Lower Limit
IERANGEMODE	TOGGLE	F	I/E AutoRange
IERANGE	IQUANT	7	I/E Range
POSFEEDENABLE	TOGGLE	F	Positive Feedback IR Comp
POSFEEDRESISTANCE	QUANT	0	Positive Feedback Resistance (ohm)
ACHSELECT	IQUANT	0	Ach Select
CABLEID	IQUANT	14	Cable ID
DCCALDATE	LABEL	1/27/2020	DC Calibration Date
ACCALDATE	LABEL	1/27/2020	AC Calibration Date
THERMOSELECT	IQUANT	1	Thermo Select
FRAMEWORKVERSION	QUANT	6.33	Framework Version
INSTRUMENTVERSION	LABEL	3.50	Instrument Version
ZCURVE	TABLE
	Pt	Time	Freq	Zreal	Zimag	Zsig	Zmod	Zphz	Idc	Vdc	IERange
	#	s	Hz	ohm	ohm	V	ohm	°	A	V	#
	0	2	1000078	1858.427	-1477.28	1	2374.048	-38.4815	-3.7423E-007	0.0333925	8
	1	3	794390.6	2123.177	-1490.313	1	2594.014	-35.06601	-1.408396E-006	0.0334029	8
	2	4	630984.4	2374.499	-1488.442	1	2802.446	-32.08133	8.843529E-007	0.032808	8
	3	6	501234.4	2602.934	-1470.489	1	2989.582	-29.46363	-1.398472E-006	0.0331024	8
	4	7	398109.4	2836.156	-1446.771	1	3183.854	-27.02689	-1.457286E-006	0.0332185	8
	5	8	316265.6	3023.208	-1423.737	1	3341.678	-25.21742	-1.088874E-006	0.0329966	8
	6	10	251203.1	3233.684	-1420.103	1	3531.771	-23.70914	-2.550281E-006	0.0333085	8
	7	11	199546.9	3400.703	-1416.865	1	3684.058	-22.6185	3.361409E-007	0.0328589	8
	8	13	158578.1	3590.284	-1437.893	1	3867.515	-21.82589	1.048845E-006	0.0325623	8
	9	14	125953.1	3808.522	-1437.405	1	4070.746	-20.67742	3.013292E-007	0.0319886	7
	10	15	100078.1	4014.847	-1474.77	1	4277.143	-20.16975	2.913673E-009	0.032733	7
	11	17	79453.13	4230.866	-1516.622	1	4494.482	-19.72104	-1.095855E-008	0.0327035	7
	12	18	63140.62	4461.501	-1559.149	1	4726.091	-19.26286	-4.157367E-008	0.0327941	7
	13	19	50203.12	4701.901	-1594.099	1	4964.779	-18.72835	-3.986249E-008	0.0327924	7
	14	21	39890.62	4950.43	-1618.636	1	5208.334	-18.10612	-4.095326E-008	0.0327839	7
	15	22	31640.63	5202.361	-1634.192	1	5452.995	-17.43881	4.086726E-008	0.0326637	7
	16	23	25171.88	5448.578	-1641.345	1	5690.432	-16.76455	-1.605296E-008	0.032758	7
	17	25	20015.62	5689.177	-1641.325	1	5921.207	-16.09283	-1.717189E-008	0.0327578	7
	18	26	15890.62	5918.007	-1643.683	1	6142.027	-15.52224	1.148208E-009	0.0326858	7
	19	28	12609.37	6138.824	-1651.849	1	6357.182	-15.06056	-2.756212E-008	0.0327343	7
	20	29	10078.13	6350.668	-1662.979	1	6564.791	-14.67394	-3.997473E-008	0.0327633	7
	21	30	8015.625	6547.646	-1696.045	1	6763.744	-14.52221	3.361167E-009	0.0327121	7
	22	32	6328.125	6752.961	-1747.437	1	6975.387	-14.50797	2.147458E-008	0.0327597	7
	23	33	5015.625	6942.678	-1816.849	1	7176.47	-14.66503	-9.847366E-009	0.0326895	7
	24	34	3984.375	7128.603	-1921.573	1	7383.05	-15.08598	-3.375515E-008	0.0328426	7
	25	36	3170.956	7307.398	-2056.171	1	7591.173	-15.71565	1.983511E-008	0.0327589	7
	26	37	2527.573	7475.815	-2234.166	1	7802.52	-16.63891	-3.695669E-008	0.0327566	7
	27	38	1976.103	7653.008	-2492.634	1	8048.711	-18.04076	7.5994E-009	0.0326594	7
	28	40	1577.524	7815.744	-2809.82	1	8305.477	-19.7739	3.119135E-008	0.0326222	7
	29	41	1265.625	7972.163	-3200.745	1	8590.701	-21.87498	-2.685951E-008	0.0327394	7
	30	43	998.264	8146.311	-3757.04	1	8970.938	-24.75893	5.49136E-008	0.0326259	7
	31	44	796.875	8335.738	-4414.625	1	9432.574	-27.90579	-7.696971E-011	0.0327579	6
	32	45	627.7902	8556.303	-5299.92	1	10064.76	-31.77478	5.923787E-010	0.032774	6
	33	47	505.5147	8795.741	-6301.066	1	10819.82	-35.61694	4.937488E-010	0.0326936	6
	34	48	397.9953	9107.794	-7670.766	1	11907.67	-40.10475	1.571311E-009	0.032717	6
	35	49	315.5048	9486.16	-9320.683	1	13298.96	-44.49588	8.738579E-010	0.0327131	6
	36	51	252.4038	9940.87	-11262.5	1	15022.15	-48.56669	1.275595E-009	0.0327151	6
	37	52	198.6229	10556.59	-13828.74	1	17397.57	-52.64261	1.333019E-009	0.0327151	6
	38	54	158.3615	11300.41	-16794.96	1	20242.77	-56.06556	8.773035E-010	0.0327144	6
	39	55	125.558	12272.62	-20492.52	1	23886.41	-59.08334	1.161886E-009	0.0327136	6
	40	56	100.4464	13451.16	-24807.92	1	28219.97	-61.5329	8.083174E-010	0.0327059	6
	41	58	79.00281	15180.31	-30432.94	1	34008.9	-63.48944	8.950071E-010	0.0327113	6
	42	59	63.3446	17055.04	-36938.46	1	40685.68	-65.21652	7.957243E-010	0.0327128	6
	43	61	49.86702	19917.56	-44659.93	1	48900.09	-65.96395	1.241411E-009	0.0327128	6
	44	62	39.72458	23409.57	-54078.16	1	58927.54	-66.59299	9.472284E-010	0.0327192	6
	45	63	31.6723	27997.1	-65019.85	1	70791.37	-66.70362	1.27048E-009	0.0327149	6
	46	65	24.93351	34135.38	-78647.2	1	85735.68	-66.53763	7.162075E-010	0.0327133	6
	47	66	19.86229	41721.82	-93691.71	1	102561.4	-65.99612	1.241956E-009	0.0327191	6
	48	67	15.83615	51939.5	-111313.8	1	122835.1	-64.98603	1.457838E-009	0.0327121	5
	49	69	12.40079	65329.48	-131926.3	1	147215.8	-63.65554	1.626985E-009	0.0327079	5
	50	70	9.93114	79496.43	-153451.6	1	172821	-62.61335	5.73469E-010	0.0327096	5
	51	72	7.944915	97282.3	-176977.8	1	201952.9	-61.203	3.6969E-010	0.0327126	5
	52	74	6.317385	118483.3	-203653.2	1	235611.8	-59.8096	6.705121E-010	0.0327151	5
	53	76	5.008013	144146.2	-233359.1	1	274289.3	-58.29631	5.367889E-010	0.0327185	5
	54	78	3.945707	173932	-266972.6	1	318632.5	-56.91586	2.362091E-010	0.0327183	5
	55	81	3.158693	205528.3	-301419	1	364822.3	-55.71113	1.894439E-011	0.03272	5
	56	84	2.504006	242188.8	-340869.7	1	418147.8	-54.60611	5.254845E-010	0.0327123	5
	57	87	1.998082	281549.7	-383291.4	1	475586.5	-53.70057	-9.148758E-012	0.0327629	5
	58	90	1.584686	325471.4	-433100.1	1	541763.2	-53.07542	3.427927E-010	0.0327186	5
	59	94	1.266892	374429.7	-486016.4	1	613522.3	-52.38914	1.280512E-010	0.0327625	5
	60	98	0.999041	430413.9	-550329.9	1	698655.3	-51.97098	5.501753E-011	0.0326762	5
