EXPLAIN
TAG	EISPOT
TITLE	LABEL	Potentiostatic EIS	Test &Identifier
DATE	LABEL	1/21/2020	Date
TIME	LABEL	16:23:37	Time
NOTES	NOTES	6	&Notes...
	
	
	
	
	
	
PSTAT	PSTAT	REF600-11020	Potentiostat
VDC	POTEN	0.00000E+000	T	DC &Voltage (V)
FREQINIT	QUANT	1.00000E+006	Initial Fre&q. (Hz)
FREQFINAL	QUANT	1.00000E+000	Final Fre&q. (Hz)
PTSPERDEC	QUANT	1.00000E+001	Points/&decade
VAC	QUANT	2.50000E+001	AC &Voltage (mV rms)
AREA	QUANT	1.00000E-001	&Area (cm^2)
CONDIT	TWOPARAM	F	5.00000E+000	0.00000E+000	Conditionin&g	Time(s)	E(V)
DELAY	TWOPARAM	F	5.00000E+000	0.00000E+000	Init. De&lay	Time(s)	Stab.(mV/s)
SPEED	SELECTOR	0	&Optimize for:
ZGUESS	QUANT	5.00000E+002	E&stimated Z (ohms)
OCVCURVE	TABLE	39
	Pt	T	Vf	Vm	Ach	Over
	#	s	V vs. Ref.	V	V	bits
	0	0.258333	-4.55882E-002	-4.55882E-002	6.57779E-004	...........
	1	0.516667	-4.55888E-002	-4.56179E-002	6.53613E-004	...........
	2	0.775	-4.55922E-002	-4.56433E-002	6.58946E-004	...........
	3	1.03333	-4.56022E-002	-4.56924E-002	6.61279E-004	...........
	4	1.29167	-4.56208E-002	-4.56868E-002	6.58979E-004	...........
	5	1.55	-4.56449E-002	-4.56923E-002	6.61013E-004	...........
	6	1.80833	-4.56674E-002	-4.57063E-002	6.60946E-004	...........
	7	2.06667	-4.56840E-002	-4.57130E-002	6.60779E-004	...........
	8	2.325	-4.56954E-002	-4.57186E-002	6.59279E-004	...........
	9	2.58333	-4.57041E-002	-4.57255E-002	6.59979E-004	...........
	10	2.84167	-4.57117E-002	-4.57349E-002	6.61313E-004	...........
	11	3.1	-4.57188E-002	-4.57391E-002	6.55079E-004	...........
	12	3.35833	-4.57256E-002	-4.57359E-002	6.54713E-004	...........
	13	3.61667	-4.57314E-002	-4.57405E-002	6.56946E-004	...........
	14	3.875	-4.57367E-002	-4.58062E-002	6.58313E-004	...........
	15	4.13333	-4.57451E-002	-4.57786E-002	6.62813E-004	...........
	16	4.39167	-4.57583E-002	-4.57806E-002	6.66113E-004	...........
	17	4.65	-4.57715E-002	-4.57839E-002	6.61946E-004	...........
	18	4.90833	-4.57798E-002	-4.57884E-002	6.57880E-004	...........
	19	5.16667	-4.57836E-002	-4.57951E-002	6.52480E-004	...........
	20	5.425	-4.57862E-002	-4.57966E-002	6.55113E-004	...........
	21	5.68333	-4.57895E-002	-4.58133E-002	6.61346E-004	...........
	22	5.94167	-4.57942E-002	-4.58082E-002	6.57646E-004	...........
	23	6.2	-4.58001E-002	-4.58221E-002	6.54379E-004	...........
	24	6.45833	-4.58061E-002	-4.58075E-002	6.59379E-004	...........
	25	6.71667	-4.58106E-002	-4.58127E-002	6.60713E-004	...........
	26	6.975	-4.58128E-002	-4.58172E-002	6.56213E-004	...........
	27	7.23333	-4.58138E-002	-4.58313E-002	6.57746E-004	...........
	28	7.49167	-4.58159E-002	-4.58291E-002	6.61313E-004	...........
	29	7.75	-4.58199E-002	-4.58290E-002	6.57346E-004	...........
	30	8.00833	-4.58243E-002	-4.58288E-002	6.60446E-004	...........
	31	8.26667	-4.58275E-002	-4.58355E-002	6.61346E-004	...........
	32	8.525	-4.58297E-002	-4.58391E-002	6.56946E-004	...........
	33	8.78333	-4.58319E-002	-4.58430E-002	6.64179E-004	...........
	34	9.04167	-4.58348E-002	-4.58395E-002	6.62613E-004	...........
	35	9.3	-4.58378E-002	-4.58495E-002	6.60313E-004	...........
	36	9.5583	-4.58407E-002	-4.58493E-002	6.60379E-004	...........
	37	9.8167	-4.58436E-002	-4.58580E-002	6.57046E-004	...........
	38	10.075	-4.58471E-002	-4.58546E-002	6.55746E-004	...........
EOC	QUANT	-0.0458471	Open Circuit (V)
PSTATMODEL	IQUANT	4	Pstat Model
PSTATSECTION	LABEL	REF600-11020	Pstat Section
PSTATSERIALNO	LABEL	11020	Pstat Serial Number
CTRLMODE	IQUANT	1	Control Mode
IESTAB	IQUANT	0	I/E Stability
CASPEED	IQUANT	1	Control Amp Speed
CONVENTION	IQUANT	1	Current Convention
ICHRANGE	IQUANT	2	Ich Range
ICHRANGEMODE	TOGGLE	F	Ich Auto Range
ICHOFFSETENABLE	TOGGLE	T	Ich Offset Enable
ICHOFFSET	QUANT	0	Ich Offset (V)
ICHFILTER	IQUANT	3	Ich Filter
VCHRANGE	IQUANT	2	Vch Range
VCHRANGEMODE	TOGGLE	F	Vch Auto Range
VCHOFFSETENABLE	TOGGLE	T	Vch Offset Enable
VCHOFFSET	QUANT	0	Vch Offset (V)
VCHFILTER	IQUANT	3	Vch Filter
ACHRANGE	IQUANT	2	Ach Range
ACHOFFSETENABLE	TOGGLE	F	Ach Offset Enable
ACHOFFSET	QUANT	0	Ach Offset (V)
ACHFILTER	IQUANT	3	Ach Filter
IERANGELOWERLIMIT	IQUANT	1	I/E Range Lower Limit
IERANGEMODE	TOGGLE	F	I/E AutoRange
IERANGE	IQUANT	8	I/E Range
POSFEEDENABLE	TOGGLE	F	Positive Feedback IR Comp
POSFEEDRESISTANCE	QUANT	0	Positive Feedback Resistance (ohm)
ACHSELECT	IQUANT	0	Ach Select
CABLEID	IQUANT	14	Cable ID
DCCALDATE	LABEL	12/22/2019	DC Calibration Date
ACCALDATE	LABEL	12/22/2019	AC Calibration Date
THERMOSELECT	IQUANT	1	Thermo Select
FRAMEWORKVERSION	QUANT	6.33	Framework Version
INSTRUMENTVERSION	LABEL	3.50	Instrument Version
ZCURVE	TABLE
	Pt	Time	Freq	Zreal	Zimag	Zsig	Zmod	Zphz	Idc	Vdc	IERange
	#	s	Hz	ohm	ohm	V	ohm	°	A	V	#
	0	1	1000078	2050.99	-2038.649	1	2891.824	-44.8271	-3.457935E-006	-0.0424815	8
	1	1	794390.6	2486.413	-2146.922	1	3285.045	-40.80934	3.559946E-006	-0.0441902	8
	2	2	630984.4	2914.001	-2195.338	1	3648.412	-36.99349	-6.931672E-007	-0.0436873	8
	3	2	501234.4	3356.056	-2170.549	1	3996.798	-32.89301	1.421815E-007	-0.0438006	8
	4	2	398109.4	3758.239	-2056.733	1	4284.216	-28.69011	-2.801114E-006	-0.0434956	8
	5	3	316265.6	4136.848	-1940.416	1	4569.324	-25.12924	3.306312E-006	-0.0446882	8
	6	3	251203.1	4468.794	-1770.941	1	4806.907	-21.61796	-3.401171E-006	-0.043372	8
	7	3	199546.9	4708.193	-1589.123	1	4969.144	-18.65071	1.813508E-006	-0.0444782	8
	8	4	158578.1	4931.1	-1402.919	1	5126.786	-15.88128	2.967172E-006	-0.0446812	8
	9	4	125953.1	5124.233	-1204.279	1	5263.844	-13.22544	1.018761E-006	-0.0464839	7
	10	4	100078.1	5232.466	-1064.52	1	5339.654	-11.49961	-4.330996E-009	-0.0441393	7
	11	4	79453.13	5345.989	-950.009	1	5429.744	-10.07656	-3.175192E-008	-0.0440719	7
	12	5	63140.62	5433.69	-861.5704	1	5501.572	-9.009858	-1.425891E-008	-0.0440714	7
	13	5	50203.12	5507.515	-794.6803	1	5564.552	-8.21055	-3.264892E-008	-0.0440784	7
	14	5	39890.62	5573.504	-747.0398	1	5623.346	-7.634091	-3.232855E-008	-0.0440807	7
	15	6	31640.63	5634.58	-721.398	1	5680.572	-7.295915	-2.158646E-008	-0.0441933	7
	16	6	25171.88	5692.715	-715.6934	1	5737.527	-7.165683	6.488781E-008	-0.0443253	7
	17	6	20015.62	5750.918	-730.0398	1	5797.069	-7.234613	1.09122E-007	-0.0443354	7
	18	7	15890.62	5810.418	-762.5871	1	5860.247	-7.477037	1.075983E-007	-0.0443388	7
	19	7	12609.37	5876.251	-815.0512	1	5932.507	-7.896689	-6.25469E-009	-0.0441547	7
	20	7	10078.13	5937.175	-881.44	1	6002.249	-8.444518	6.625461E-008	-0.0443231	7
	21	8	8015.625	6008.607	-982.658	1	6088.43	-9.288031	-3.248432E-008	-0.0441481	7
	22	8	6328.125	6085.142	-1112.902	1	6186.073	-10.3642	-3.65294E-008	-0.0441621	7
	23	8	5015.625	6170.827	-1272.104	1	6300.583	-11.64824	-6.382323E-009	-0.0441609	7
	24	9	3984.375	6265.3	-1468.01	1	6434.986	-13.18697	-2.995757E-008	-0.0440855	7
	25	9	3170.956	6364.383	-1701.85	1	6587.994	-14.97075	-3.672582E-008	-0.0441684	7
	26	9	2527.573	6476.975	-1990.782	1	6776.018	-17.08549	6.634229E-008	-0.0443334	7
	27	10	1976.103	6615.679	-2374.301	1	7028.834	-19.74255	-5.346298E-010	-0.044251	7
	28	10	1577.524	6756.985	-2798.353	1	7313.523	-22.49652	5.757406E-008	-0.0442073	7
	29	10	1265.625	6912.246	-3309.826	1	7663.817	-25.58674	3.669668E-008	-0.0443152	7
	30	10	998.264	7103.623	-3976.863	1	8141.063	-29.24166	1.765446E-008	-0.0442676	7
	31	11	796.875	7308.837	-4757.789	1	8720.989	-33.06268	5.899472E-008	-0.0442114	7
	32	11	627.7902	7556.947	-5760.932	1	9502.41	-37.31957	-3.167067E-008	-0.0441587	7
	33	11	505.5147	7820.718	-6886.801	1	10420.73	-41.36664	4.84999E-009	-0.0441697	6
	34	12	397.9953	8155.059	-8412.981	1	11716.79	-45.89188	2.908857E-010	-0.0441855	6
	35	12	315.5048	8541.162	-10244.16	1	13337.7	-50.18004	5.971154E-010	-0.0441947	6
	36	12	252.4038	8987.564	-12406.8	1	15320.08	-54.08019	1.003917E-009	-0.0441957	6
	37	13	198.6229	9572.29	-15266.91	1	18019.64	-57.91247	4.243552E-010	-0.0441972	6
	38	13	158.3615	10256.65	-18597.21	1	21238.06	-61.1226	6.243073E-011	-0.0441934	6
	39	13	125.558	11131.29	-22792.7	1	25365.59	-63.97046	6.275605E-010	-0.044199	6
	40	14	100.4464	12232.23	-27724.38	1	30302.95	-66.19252	1.887877E-010	-0.0441972	6
	41	14	79.00281	13725	-34264.33	1	36910.97	-68.17083	7.91207E-010	-0.0441997	6
	42	14	63.3446	15113.42	-41341.91	1	44017.82	-69.91904	5.019566E-010	-0.044202	6
	43	15	49.86702	17669.36	-50913.14	1	53892.07	-70.86072	8.560744E-010	-0.0442047	6
	44	15	39.72458	20782.26	-62313.7	1	65687.9	-71.55593	8.603746E-010	-0.0442003	6
	45	15	31.6723	24803.24	-75844.72	1	79797.38	-71.89088	1.086634E-009	-0.0442052	6
	46	16	24.93351	30018.41	-92716.13	1	97454.5	-72.05977	1.332209E-010	-0.0442033	6
	47	16	19.86229	36560	-112146.6	1	117955.4	-71.94393	-2.712378E-010	-0.0442044	5
	48	16	15.83615	45491.38	-135381.4	1	142820.1	-71.42643	-4.859362E-010	-0.0442054	5
	49	17	12.40079	57027.58	-165469.4	1	175020.8	-70.98394	4.023253E-010	-0.0442066	5
	50	17	9.93114	70236.48	-197189.4	1	209324.7	-70.39472	-2.815728E-010	-0.0442024	5
	51	18	7.944915	87944.36	-234485.8	1	250435.3	-69.44135	-4.941685E-010	-0.0442032	5
	52	18	6.317385	111116.9	-279428.8	1	300711.5	-68.3144	-3.15402E-010	-0.0441858	5
	53	19	5.008013	140698.8	-332144	1	360715.7	-67.0421	-2.18826E-010	-0.0442068	5
	54	20	3.945707	177878.8	-392951.6	1	431337.2	-65.64499	-2.996012E-011	-0.0442116	5
	55	21	3.158693	222038.1	-457533.9	1	508564.8	-64.11301	1.219642E-010	-0.0441935	5
	56	23	2.504006	278331.1	-532552.4	1	600899.5	-62.40681	-2.164795E-011	-0.044201	5
	57	24	1.998082	341858.9	-612328	1	701293.9	-60.82565	-3.774124E-011	-0.0442224	5
	58	26	1.584686	421079.9	-699744.8	1	816670.8	-58.96207	6.045175E-011	-0.0441765	5
	59	28	1.266892	509334.3	-793726.6	1	943092.4	-57.31171	1.049989E-010	-0.0441699	5
	60	30	0.999041	614479.6	-902138.4	1	1091531	-55.73978	9.758613E-011	-0.044136	4
