EXPLAIN
TAG	EISPOT
TITLE	LABEL	Potentiostatic EIS	Test &Identifier
DATE	LABEL	3/12/2020	Date
TIME	LABEL	13:45:51	Time
NOTES	NOTES	1	&Notes...
	
PSTAT	PSTAT	REF600-11020	Potentiostat
VDC	POTEN	0.00000E+000	T	DC &Voltage (V)
FREQINIT	QUANT	1.00000E+006	Initial Fre&q. (Hz)
FREQFINAL	QUANT	1.00000E+000	Final Fre&q. (Hz)
PTSPERDEC	QUANT	1.00000E+001	Points/&decade
VAC	QUANT	2.50000E+001	AC &Voltage (mV rms)
AREA	QUANT	2.50000E-001	&Area (cm^2)
CONDIT	TWOPARAM	F	5.00000E+000	0.00000E+000	Conditionin&g	Time(s)	E(V)
DELAY	TWOPARAM	T	5.00000E+000	0.00000E+000	Init. De&lay	Time(s)	Stab.(mV/s)
SPEED	SELECTOR	1	&Optimize for:
ZGUESS	QUANT	5.00000E+003	E&stimated Z (ohms)
OCVCURVE	TABLE	19
	Pt	T	Vf	Vm	Ach	Over
	#	s	V vs. Ref.	V	V	bits
	0	0.258333	6.51153E-002	6.51153E-002	5.87063E-004	...........
	1	0.516667	6.51149E-002	6.50935E-002	5.89163E-004	...........
	2	0.775	6.51122E-002	6.50697E-002	5.86830E-004	...........
	3	1.03333	6.51047E-002	6.50483E-002	5.87296E-004	...........
	4	1.29167	6.50907E-002	6.50173E-002	5.85597E-004	...........
	5	1.55	6.50706E-002	6.49728E-002	5.79330E-004	...........
	6	1.80833	6.50446E-002	6.49338E-002	5.87530E-004	...........
	7	2.06667	6.50131E-002	6.48989E-002	5.84430E-004	...........
	8	2.325	6.49779E-002	6.48959E-002	5.83097E-004	...........
	9	2.58333	6.49435E-002	6.48553E-002	5.83130E-004	...........
	10	2.84167	6.49135E-002	6.48417E-002	5.86030E-004	...........
	11	3.1	6.48883E-002	6.48636E-002	5.82497E-004	...........
	12	3.35833	6.48696E-002	6.48653E-002	5.79030E-004	...........
	13	3.61667	6.48598E-002	6.48505E-002	5.76963E-004	...........
	14	3.875	6.48568E-002	6.48450E-002	5.86030E-004	...........
	15	4.13333	6.48550E-002	6.48243E-002	5.83497E-004	...........
	16	4.39167	6.48514E-002	6.48950E-002	5.84163E-004	...........
	17	4.65	6.48522E-002	6.49895E-002	5.85730E-004	...........
	18	4.90833	6.48708E-002	6.50918E-002	5.87063E-004	...........
EOC	QUANT	0.0648708	Open Circuit (V)
PSTATMODEL	IQUANT	4	Pstat Model
PSTATSECTION	LABEL	REF600-11020	Pstat Section
PSTATSERIALNO	LABEL	11020	Pstat Serial Number
CTRLMODE	IQUANT	1	Control Mode
IESTAB	IQUANT	0	I/E Stability
CASPEED	IQUANT	1	Control Amp Speed
CONVENTION	IQUANT	1	Current Convention
ICHRANGE	IQUANT	2	Ich Range
ICHRANGEMODE	TOGGLE	F	Ich Auto Range
ICHOFFSETENABLE	TOGGLE	T	Ich Offset Enable
ICHOFFSET	QUANT	0	Ich Offset (V)
ICHFILTER	IQUANT	3	Ich Filter
VCHRANGE	IQUANT	2	Vch Range
VCHRANGEMODE	TOGGLE	F	Vch Auto Range
VCHOFFSETENABLE	TOGGLE	T	Vch Offset Enable
VCHOFFSET	QUANT	0	Vch Offset (V)
VCHFILTER	IQUANT	3	Vch Filter
ACHRANGE	IQUANT	2	Ach Range
ACHOFFSETENABLE	TOGGLE	F	Ach Offset Enable
ACHOFFSET	QUANT	0	Ach Offset (V)
ACHFILTER	IQUANT	3	Ach Filter
IERANGELOWERLIMIT	IQUANT	1	I/E Range Lower Limit
IERANGEMODE	TOGGLE	F	I/E AutoRange
IERANGE	IQUANT	7	I/E Range
POSFEEDENABLE	TOGGLE	F	Positive Feedback IR Comp
POSFEEDRESISTANCE	QUANT	0	Positive Feedback Resistance (ohm)
ACHSELECT	IQUANT	0	Ach Select
CABLEID	IQUANT	14	Cable ID
DCCALDATE	LABEL	2/27/2020	DC Calibration Date
ACCALDATE	LABEL	2/27/2020	AC Calibration Date
THERMOSELECT	IQUANT	1	Thermo Select
FRAMEWORKVERSION	QUANT	6.33	Framework Version
INSTRUMENTVERSION	LABEL	3.50	Instrument Version
ZCURVE	TABLE
	Pt	Time	Freq	Zreal	Zimag	Zsig	Zmod	Zphz	Idc	Vdc	IERange
	#	s	Hz	ohm	ohm	V	ohm	°	A	V	#
	0	1	1000078	1914.176	-2047.925	1	2803.224	-46.93341	-1.283554E-006	0.0672364	8
	1	3	794390.6	2354.557	-2155.897	1	3192.465	-42.47808	1.972805E-006	0.0665493	8
	2	4	630984.4	2807.119	-2186.691	1	3558.304	-37.9179	6.678571E-007	0.0663563	8
	3	5	501234.4	3255.856	-2123.992	1	3887.408	-33.11885	1.759721E-007	0.0664088	8
	4	7	398109.4	3673.472	-1999.61	1	4182.443	-28.56113	6.448448E-008	0.0663936	8
	5	8	316265.6	4017.405	-1834.718	1	4416.53	-24.54581	2.802461E-007	0.0663479	8
	6	9	251203.1	4302.541	-1642.478	1	4605.387	-20.89415	1.045392E-007	0.0663634	8
	7	11	199546.9	4524.429	-1458.811	1	4753.797	-17.87087	2.603673E-006	0.0660131	8
	8	12	158578.1	4715.083	-1288.189	1	4887.886	-15.28065	-1.842543E-007	0.0663908	8
	9	14	125953.1	4858.127	-1097.479	1	4980.548	-12.72977	1.096774E-007	0.0659052	7
	10	15	100078.1	4955.445	-975.562	1	5050.561	-11.13721	5.253328E-009	0.0662849	7
	11	16	79453.13	5044.65	-885.8895	1	5121.845	-9.96014	-1.488255E-009	0.0663442	7
	12	18	63140.62	5121.464	-818.6373	1	5186.479	-9.081583	1.452331E-008	0.0662839	7
	13	19	50203.12	5189.366	-773.2524	1	5246.66	-8.475121	3.30946E-008	0.0662368	7
	14	20	39890.62	5252.959	-749.4399	1	5306.151	-8.119597	4.693884E-009	0.0663058	7
	15	22	31640.63	5315.064	-746.5987	1	5367.245	-7.995932	8.0975E-009	0.0663396	7
	16	23	25171.88	5374.753	-762.8421	1	5428.618	-8.078073	1.462224E-009	0.0662623	7
	17	24	20015.62	5438.8	-798.9919	1	5497.175	-8.35731	3.242584E-008	0.0662261	7
	18	26	15890.62	5507.469	-857.3865	1	5573.807	-8.848612	3.43761E-008	0.0663025	7
	19	27	12609.37	5579.729	-936.9211	1	5657.844	-9.53191	1.660729E-009	0.0662615	7
	20	29	10078.13	5656.345	-1038.576	1	5750.903	-10.40433	-2.306766E-008	0.0663203	7
	21	30	8015.625	5744.617	-1168.754	1	5862.304	-11.49998	-1.804667E-008	0.0663182	7
	22	31	6328.125	5844.623	-1334.692	1	5995.083	-12.86362	-2.407561E-008	0.0663179	7
	23	33	5015.625	5955.086	-1535.626	1	6149.894	-14.45974	-2.142484E-008	0.0663337	7
	24	34	3984.375	6080.373	-1775.524	1	6334.305	-16.27829	2.269335E-008	0.0662261	7
	25	35	3170.956	6222.443	-2063.217	1	6555.582	-18.34432	-1.809388E-008	0.0663277	7
	26	37	2527.573	6382.013	-2406.14	1	6820.527	-20.6574	2.651811E-008	0.0662194	7
	27	38	1976.103	6580.723	-2856.141	1	7173.803	-23.46163	2.552013E-009	0.0663421	7
	28	39	1577.524	6790.773	-3348.382	1	7571.411	-26.2469	-1.539073E-008	0.0662895	7
	29	41	1265.625	7025.584	-3925.923	1	8048.087	-29.19662	3.16913E-008	0.0662335	7
	30	42	998.264	7315.562	-4674.446	1	8681.468	-32.57748	1.341319E-008	0.0663287	7
	31	44	796.875	7638.861	-5524.797	1	9427.385	-35.87629	-3.018947E-008	0.0663339	7
	32	45	627.7902	8026.711	-6617.891	1	10403.1	-39.50502	4.959436E-009	0.0663297	6
	33	46	505.5147	8437.178	-7815.491	1	11500.78	-42.80943	6.123725E-009	0.0662848	6
	34	48	397.9953	8970.54	-9411.544	1	13001.84	-46.37432	1.075438E-009	0.0663599	6
	35	49	315.5048	9584.96	-11299.94	1	14817.56	-49.69436	1.084225E-009	0.0663553	6
	36	50	252.4038	10292.94	-13494.28	1	16971.75	-52.66495	4.35038E-010	0.066356	6
	37	52	198.6229	11212.81	-16355.11	1	19829.69	-55.56606	7.768869E-010	0.066361	6
	38	53	158.3615	12284.46	-19632.91	1	23159.43	-57.96546	9.395594E-010	0.0663575	6
	39	55	125.558	13648.87	-23696.23	1	27345.99	-60.05835	5.111572E-010	0.0663555	6
	40	56	100.4464	15295.78	-28360.29	1	32222.15	-61.66032	2.886015E-010	0.0663602	6
	41	57	79.00281	17560.89	-34455.37	1	38672.43	-62.9934	4.699116E-010	0.0663561	6
	42	59	63.3446	20200.44	-41318.06	1	45991.74	-63.94594	7.671828E-010	0.0663535	6
	43	60	49.86702	23458.94	-49529.63	1	54804.25	-64.65615	6.552051E-010	0.06636	6
	44	62	39.72458	27832.98	-59185.81	1	65403.63	-64.81406	6.708286E-010	0.0663569	6
	45	63	31.6723	33195.6	-70486.8	1	77912.38	-64.78201	3.203112E-012	0.0663577	6
	46	64	24.93351	40105.33	-84164.98	1	93231.88	-64.5218	-2.989481E-011	0.066355	6
	47	66	19.86229	48269.99	-99428.8	1	110526.4	-64.10469	7.335548E-010	0.0663653	5
	48	67	15.83615	58976.79	-116334.6	1	130430.1	-63.11689	5.336628E-010	0.0663574	5
	49	69	12.40079	72587.58	-138556.2	1	156418.6	-62.35061	1.189596E-009	0.0663523	5
	50	70	9.93114	86848.27	-160628.9	1	182604.1	-61.60095	-1.15438E-010	0.0663595	5
	51	72	7.944915	105302.8	-185596.8	1	213389	-60.43056	3.380595E-010	0.0663592	5
	52	73	6.317385	127092.5	-214155.9	1	249028.6	-59.31264	5.975802E-010	0.0663674	5
	53	75	5.008013	153532.2	-246358.5	1	290283.7	-58.06858	4.045004E-010	0.0663629	5
	54	78	3.945707	185063	-282665.9	1	337858.5	-56.78701	1.508361E-010	0.0663599	5
	55	80	3.158693	218917.8	-319656.5	1	387434.3	-55.59458	1.023698E-010	0.0663702	5
	56	84	2.504006	258428	-361894.6	1	444694	-54.46947	1.128587E-010	0.066352	5
	57	87	1.998082	300644.3	-406631.2	1	505703.4	-53.52249	-2.022287E-010	0.0663822	5
	58	90	1.584686	349886.2	-458238.2	1	576543.6	-52.63659	2.261867E-010	0.0663986	5
	59	93	1.266892	399568.5	-512073.8	1	649518.7	-52.03527	-8.85256E-011	0.0663878	5
	60	98	0.999041	456139.3	-578598.1	1	736776	-51.74943	2.876654E-010	0.0663394	5
