EXPLAIN
TAG	EISPOT
TITLE	LABEL	Potentiostatic EIS	Test &Identifier
DATE	LABEL	3/17/2020	Date
TIME	LABEL	16:49:33	Time
NOTES	NOTES	1	&Notes...
	
PSTAT	PSTAT	REF600-11020	Potentiostat
VDC	POTEN	0.00000E+000	T	DC &Voltage (V)
FREQINIT	QUANT	1.00000E+006	Initial Fre&q. (Hz)
FREQFINAL	QUANT	1.00000E+000	Final Fre&q. (Hz)
PTSPERDEC	QUANT	1.00000E+001	Points/&decade
VAC	QUANT	2.50000E+001	AC &Voltage (mV rms)
AREA	QUANT	4.00000E-004	&Area (cm^2)
CONDIT	TWOPARAM	F	5.00000E+000	0.00000E+000	Conditionin&g	Time(s)	E(V)
DELAY	TWOPARAM	T	3.00000E+000	0.00000E+000	Init. De&lay	Time(s)	Stab.(mV/s)
SPEED	SELECTOR	0	&Optimize for:
ZGUESS	QUANT	5.00000E+003	E&stimated Z (ohms)
OCVCURVE	TABLE	12
	Pt	T	Vf	Vm	Ach	Over
	#	s	V vs. Ref.	V	V	bits
	0	0.258333	2.70549E-002	2.70549E-002	5.70730E-004	...........
	1	0.516667	2.70551E-002	2.70615E-002	5.74863E-004	...........
	2	0.775	2.70558E-002	2.70682E-002	5.75530E-004	...........
	3	1.03333	2.70579E-002	2.70677E-002	5.84696E-004	...........
	4	1.29167	2.70613E-002	2.70712E-002	5.73830E-004	...........
	5	1.55	2.70648E-002	2.70719E-002	5.74997E-004	...........
	6	1.80833	2.70679E-002	2.70752E-002	5.74230E-004	...........
	7	2.06667	2.70704E-002	2.70803E-002	5.75063E-004	...........
	8	2.325	2.70729E-002	2.70802E-002	5.75130E-004	...........
	9	2.58333	2.70755E-002	2.70806E-002	5.72230E-004	...........
	10	2.84167	2.70779E-002	2.70833E-002	5.71130E-004	...........
	11	3.1	2.70798E-002	2.70841E-002	5.72630E-004	...........
EOC	QUANT	0.0270798	Open Circuit (V)
PSTATMODEL	IQUANT	4	Pstat Model
PSTATSECTION	LABEL	REF600-11020	Pstat Section
PSTATSERIALNO	LABEL	11020	Pstat Serial Number
CTRLMODE	IQUANT	1	Control Mode
IESTAB	IQUANT	0	I/E Stability
CASPEED	IQUANT	1	Control Amp Speed
CONVENTION	IQUANT	1	Current Convention
ICHRANGE	IQUANT	2	Ich Range
ICHRANGEMODE	TOGGLE	F	Ich Auto Range
ICHOFFSETENABLE	TOGGLE	T	Ich Offset Enable
ICHOFFSET	QUANT	0	Ich Offset (V)
ICHFILTER	IQUANT	3	Ich Filter
VCHRANGE	IQUANT	2	Vch Range
VCHRANGEMODE	TOGGLE	F	Vch Auto Range
VCHOFFSETENABLE	TOGGLE	T	Vch Offset Enable
VCHOFFSET	QUANT	0	Vch Offset (V)
VCHFILTER	IQUANT	3	Vch Filter
ACHRANGE	IQUANT	2	Ach Range
ACHOFFSETENABLE	TOGGLE	F	Ach Offset Enable
ACHOFFSET	QUANT	0	Ach Offset (V)
ACHFILTER	IQUANT	3	Ach Filter
IERANGELOWERLIMIT	IQUANT	1	I/E Range Lower Limit
IERANGEMODE	TOGGLE	F	I/E AutoRange
IERANGE	IQUANT	7	I/E Range
POSFEEDENABLE	TOGGLE	F	Positive Feedback IR Comp
POSFEEDRESISTANCE	QUANT	0	Positive Feedback Resistance (ohm)
ACHSELECT	IQUANT	0	Ach Select
CABLEID	IQUANT	14	Cable ID
DCCALDATE	LABEL	2/27/2020	DC Calibration Date
ACCALDATE	LABEL	2/27/2020	AC Calibration Date
THERMOSELECT	IQUANT	1	Thermo Select
FRAMEWORKVERSION	QUANT	6.33	Framework Version
INSTRUMENTVERSION	LABEL	3.50	Instrument Version
ZCURVE	TABLE
	Pt	Time	Freq	Zreal	Zimag	Zsig	Zmod	Zphz	Idc	Vdc	IERange
	#	s	Hz	ohm	ohm	V	ohm	°	A	V	#
	0	1	1000078	1627.027	-2037.399	1	2607.338	-51.38982	-4.032431E-008	0.0293033	8
	1	1	794390.6	1922.271	-2261.893	1	2968.381	-49.64043	7.901149E-008	0.0289705	8
	2	2	630984.4	2245.887	-2494.721	1	3356.731	-48.00469	6.913355E-008	0.0288387	8
	3	2	501234.4	2599.677	-2743.495	1	3779.562	-46.54182	7.911606E-008	0.028722	8
	4	2	398109.4	2990.524	-3014.47	1	4246.206	-45.22849	4.471437E-008	0.0287025	8
	5	3	316265.6	3424.568	-3305.818	1	4759.843	-43.98919	4.575166E-008	0.0286858	8
	6	3	251203.1	3929.028	-3619.008	1	5341.768	-42.64802	1.619959E-008	0.0286859	8
	7	3	199546.9	4509.927	-3957.846	1	6000.332	-41.26971	2.026168E-008	0.0286583	8
	8	4	158578.1	5185.382	-4253.341	1	6706.646	-39.36052	3.254982E-008	0.0286628	8
	9	4	125953.1	6055.422	-4443.507	1	7510.852	-36.27145	-3.581375E-010	0.0286096	7
	10	4	100078.1	6869.093	-4633.196	1	8285.587	-33.99962	2.827224E-009	0.028613	7
	11	5	79453.13	7758.907	-4727.01	1	9085.442	-31.3513	2.455447E-009	0.0286013	7
	12	5	63140.62	8661.216	-4719.011	1	9863.35	-28.58349	2.316213E-009	0.0285933	7
	13	5	50203.12	9524.99	-4578.413	1	10568.22	-25.67237	3.154144E-009	0.0285976	7
	14	6	39890.62	10330.57	-4350.056	1	11209.09	-22.83526	2.486854E-009	0.0285937	7
	15	6	31640.63	11062.78	-4052.706	1	11781.74	-20.11966	3.14805E-009	0.028597	7
	16	6	25171.88	11691.1	-3716.795	1	12267.7	-17.63632	2.547335E-009	0.0285836	7
	17	7	20015.62	12210.35	-3356.875	1	12663.39	-15.37201	2.891291E-009	0.0285831	7
	18	7	15890.62	12649.6	-3014.361	1	13003.8	-13.40343	3.09694E-009	0.0285907	7
	19	7	12609.37	13107.12	-2509.639	1	13345.21	-10.83932	6.826484E-011	0.028633	6
	20	8	10078.13	13339.44	-2271.469	1	13531.46	-9.66375	2.404723E-010	0.0286395	6
	21	8	8015.625	13520.38	-2085.879	1	13680.33	-8.770257	2.942618E-012	0.0286394	6
	22	8	6328.125	13685.21	-1962.542	1	13825.22	-8.160917	2.089038E-010	0.0286434	6
	23	8	5015.625	13799	-1898.724	1	13929.01	-7.834629	2.514044E-011	0.0286427	6
	24	9	3984.375	13919.9	-1910.363	1	14050.37	-7.81444	-1.276868E-012	0.0286409	6
	25	9	3170.956	14025.02	-1992.742	1	14165.88	-8.086732	-1.725544E-010	0.028638	6
	26	9	2527.573	14123.94	-2151.666	1	14286.89	-8.661942	1.05304E-010	0.0286429	6
	27	10	1976.103	14186.47	-2415.625	1	14390.66	-9.66345	-2.616239E-010	0.0286375	6
	28	10	1577.524	14326.67	-2766.148	1	14591.27	-10.92801	5.278988E-011	0.0286407	6
	29	10	1265.625	14438.45	-3207.434	1	14790.42	-12.5246	-3.303807E-010	0.0286281	6
	30	11	998.264	14555.66	-3821.435	1	15048.94	-14.71042	-1.445306E-010	0.0286307	6
	31	11	796.875	14747.31	-4563.881	1	15437.36	-17.19584	2.314704E-012	0.0286383	6
	32	11	627.7902	14958.78	-5541.392	1	15952.18	-20.32685	-4.90183E-011	0.0286276	6
	33	12	505.5147	15228.41	-6640.899	1	16613.43	-23.56135	-1.411472E-010	0.0286347	6
	34	12	397.9953	15556.47	-8131.683	1	17553.58	-27.59698	4.317633E-010	0.028641	6
	35	12	315.5048	15974	-9913.45	1	18800.14	-31.82369	4.042971E-010	0.0286425	6
	36	13	252.4038	16480.55	-12000.67	1	20386.87	-36.06105	3.090564E-010	0.0286373	6
	37	13	198.6229	17171.66	-14732.62	1	22625.56	-40.62832	3.707906E-010	0.0286385	6
	38	13	158.3615	17992.96	-17879.22	1	25365.59	-44.81834	2.318843E-010	0.0286358	6
	39	14	125.558	19036.04	-21790.66	1	28934.47	-48.85995	3.201596E-010	0.0286319	6
	40	14	100.4464	20326.07	-26330.72	1	33263.43	-52.33355	3.779028E-010	0.0286328	6
	41	14	79.00281	22065.31	-32248.41	1	39074.77	-55.61892	3.326542E-010	0.0286308	6
	42	15	63.3446	24124.88	-38822.7	1	45707.9	-58.1427	3.749457E-010	0.0286308	6
	43	15	49.86702	26975.91	-47390.96	1	54530.75	-60.35058	2.160846E-010	0.0286335	6
	44	15	39.72458	30445.49	-57202.02	1	64799.68	-61.97608	2.87967E-010	0.0286379	6
	45	16	31.6723	34851.64	-68856.44	1	77174.13	-63.15378	4.292614E-010	0.028633	6
	46	16	24.93351	40944.26	-83540.48	1	93034.63	-63.88993	-2.59299E-010	0.0286312	6
	47	16	19.86229	48430.85	-99968.7	1	111082.4	-64.15167	-1.335622E-009	0.0286302	5
	48	17	15.83615	58176.25	-119058.8	1	132512.2	-63.95827	4.574095E-010	0.0286339	5
	49	17	12.40079	71876.5	-142895.4	1	159954.1	-63.29757	-8.174833E-010	0.0286414	5
	50	17	9.93114	87394.67	-167457.3	1	188890.9	-62.44029	-4.587597E-010	0.028631	5
	51	17	7.944915	106943.7	-194435.4	1	221905.5	-61.18825	1.040742E-009	0.0286294	5
	52	18	6.317385	131493.4	-225590.5	1	261116	-59.76271	-3.341508E-010	0.0286516	5
	53	19	5.008013	161317	-259553.5	1	305599.8	-58.13834	-4.568882E-010	0.0286343	5
	54	20	3.945707	196785.8	-295882.6	1	355346.5	-56.37289	2.105165E-010	0.0286384	5
	55	20	3.158693	235027.9	-332720	1	407358.2	-54.76325	-2.836691E-010	0.0286381	5
	56	22	2.504006	278467.1	-372692.2	1	465234.7	-53.23376	-8.45802E-011	0.0286294	5
	57	23	1.998082	325034.5	-414873.6	1	527036.5	-51.92292	1.995905E-010	0.0286729	5
	58	24	1.584686	374861.1	-461943.9	1	594905.9	-50.94115	1.014677E-010	0.0286349	5
	59	26	1.266892	428292.8	-512007.4	1	667522.6	-50.08761	5.133887E-012	0.0285956	5
	60	29	0.999041	489167.1	-574086.9	1	754228.3	-49.5664	-5.620922E-011	0.0285841	5
