EXPLAIN
TAG	EISPOT
TITLE	LABEL	Potentiostatic EIS	Test &Identifier
DATE	LABEL	7/5/2020	Date
TIME	LABEL	16:23:45	Time
NOTES	NOTES	1	&Notes...
	
PSTAT	PSTAT	REF600-11020	Potentiostat
VDC	POTEN	0.00000E+000	T	DC &Voltage (V)
FREQINIT	QUANT	1.00000E+006	Initial Fre&q. (Hz)
FREQFINAL	QUANT	1.00000E+000	Final Fre&q. (Hz)
PTSPERDEC	QUANT	1.00000E+001	Points/&decade
VAC	QUANT	2.50000E+001	AC &Voltage (mV rms)
AREA	QUANT	4.00000E-004	&Area (cm^2)
CONDIT	TWOPARAM	F	5.00000E+000	0.00000E+000	Conditionin&g	Time(s)	E(V)
DELAY	TWOPARAM	F	3.00000E+000	0.00000E+000	Init. De&lay	Time(s)	Stab.(mV/s)
SPEED	SELECTOR	0	&Optimize for:
ZGUESS	QUANT	1.00000E+003	E&stimated Z (ohms)
OCVCURVE	TABLE	39
	Pt	T	Vf	Vm	Ach	Over
	#	s	V vs. Ref.	V	V	bits
	0	0.258333	1.38993E-002	1.38993E-002	5.75012E-004	...........
	1	0.516667	1.38990E-002	1.38828E-002	5.73179E-004	...........
	2	0.775	1.38973E-002	1.38781E-002	5.75612E-004	...........
	3	1.03333	1.38927E-002	1.38527E-002	5.75712E-004	...........
	4	1.29167	1.38831E-002	1.37783E-002	5.71679E-004	...........
	5	1.55	1.38655E-002	1.37991E-002	5.71579E-004	...........
	6	1.80833	1.38412E-002	1.38037E-002	5.73312E-004	...........
	7	2.06667	1.38193E-002	1.38421E-002	5.81746E-004	...........
	8	2.325	1.38086E-002	1.37757E-002	5.73679E-004	...........
	9	2.58333	1.38049E-002	1.37048E-002	5.78646E-004	...........
	10	2.84167	1.37945E-002	1.37184E-002	5.78112E-004	...........
	11	3.1	1.37710E-002	1.36912E-002	5.83746E-004	...........
	12	3.35833	1.37421E-002	1.36846E-002	5.79779E-004	...........
	13	3.61667	1.37166E-002	1.36514E-002	5.81746E-004	...........
	14	3.875	1.36959E-002	1.36407E-002	5.80412E-004	...........
	15	4.13333	1.36764E-002	1.35811E-002	5.83679E-004	...........
	16	4.39167	1.36524E-002	1.34764E-002	5.81512E-004	...........
	17	4.65	1.36129E-002	1.32541E-002	5.85946E-004	...........
	18	4.90833	1.35502E-002	1.35463E-002	5.84346E-004	...........
	19	5.16667	1.34830E-002	1.34270E-002	5.78879E-004	...........
	20	5.425	1.34253E-002	1.25191E-002	5.81212E-004	...........
	21	5.68333	1.33189E-002	1.21892E-002	5.80279E-004	...........
	22	5.94167	1.31035E-002	1.30838E-002	5.82879E-004	...........
	23	6.2	1.28568E-002	1.25884E-002	5.81379E-004	...........
	24	6.45833	1.27175E-002	1.30873E-002	5.86512E-004	...........
	25	6.71667	1.27189E-002	1.30257E-002	5.84079E-004	...........
	26	6.975	1.28116E-002	1.34063E-002	5.84079E-004	...........
	27	7.23333	1.29534E-002	1.34458E-002	5.86046E-004	...........
	28	7.49167	1.31163E-002	1.34243E-002	5.82312E-004	...........
	29	7.75	1.32640E-002	1.33709E-002	5.82246E-004	...........
	30	8.00833	1.33613E-002	1.34027E-002	5.81479E-004	...........
	31	8.26667	1.34024E-002	1.34310E-002	5.80112E-004	...........
	32	8.525	1.34095E-002	1.33086E-002	5.83079E-004	...........
	33	8.78333	1.33995E-002	1.32653E-002	5.82012E-004	...........
	34	9.04167	1.33736E-002	1.32665E-002	5.77112E-004	...........
	35	9.3	1.33363E-002	1.32875E-002	5.78112E-004	...........
	36	9.5583	1.33020E-002	1.32410E-002	5.80112E-004	...........
	37	9.8167	1.32794E-002	1.32489E-002	5.76412E-004	...........
	38	10.075	1.32651E-002	1.32172E-002	5.78779E-004	...........
EOC	QUANT	0.0132651	Open Circuit (V)
PSTATMODEL	IQUANT	4	Pstat Model
PSTATSECTION	LABEL	REF600-11020	Pstat Section
PSTATSERIALNO	LABEL	11020	Pstat Serial Number
CTRLMODE	IQUANT	1	Control Mode
IESTAB	IQUANT	0	I/E Stability
CASPEED	IQUANT	1	Control Amp Speed
CONVENTION	IQUANT	1	Current Convention
ICHRANGE	IQUANT	2	Ich Range
ICHRANGEMODE	TOGGLE	F	Ich Auto Range
ICHOFFSETENABLE	TOGGLE	T	Ich Offset Enable
ICHOFFSET	QUANT	0	Ich Offset (V)
ICHFILTER	IQUANT	3	Ich Filter
VCHRANGE	IQUANT	2	Vch Range
VCHRANGEMODE	TOGGLE	F	Vch Auto Range
VCHOFFSETENABLE	TOGGLE	T	Vch Offset Enable
VCHOFFSET	QUANT	0	Vch Offset (V)
VCHFILTER	IQUANT	3	Vch Filter
ACHRANGE	IQUANT	2	Ach Range
ACHOFFSETENABLE	TOGGLE	F	Ach Offset Enable
ACHOFFSET	QUANT	0	Ach Offset (V)
ACHFILTER	IQUANT	1	Ach Filter
IERANGELOWERLIMIT	IQUANT	1	I/E Range Lower Limit
IERANGEMODE	TOGGLE	F	I/E AutoRange
IERANGE	IQUANT	7	I/E Range
POSFEEDENABLE	TOGGLE	F	Positive Feedback IR Comp
POSFEEDRESISTANCE	QUANT	0	Positive Feedback Resistance (ohm)
ACHSELECT	IQUANT	0	Ach Select
CABLEID	IQUANT	14	Cable ID
DCCALDATE	LABEL	6/26/2020	DC Calibration Date
ACCALDATE	LABEL	6/26/2020	AC Calibration Date
THERMOSELECT	IQUANT	1	Thermo Select
FRAMEWORKVERSION	QUANT	6.33	Framework Version
INSTRUMENTVERSION	LABEL	3.50	Instrument Version
ZCURVE	TABLE
	Pt	Time	Freq	Zreal	Zimag	Zsig	Zmod	Zphz	Idc	Vdc	IERange
	#	s	Hz	ohm	ohm	V	ohm	°	A	V	#
	0	1	1000078	1330.477	-2255.423	1	2618.606	-59.46359	5.233207E-006	0.0135214	8
	1	2	794390.6	1582.527	-2621.178	1	3061.857	-58.87868	-1.595304E-006	0.0156612	8
	2	2	630984.4	1894.967	-3015.221	1	3561.244	-57.85199	-2.540711E-006	0.0151172	8
	3	2	501234.4	2260.99	-3461.601	1	4134.581	-56.8489	-3.911831E-007	0.0153622	8
	4	3	398109.4	2672.116	-3958.091	1	4775.635	-55.97662	-1.776535E-006	0.0153302	8
	5	3	316265.6	3172.347	-4509.972	1	5513.949	-54.87717	-6.096973E-007	0.015252	8
	6	3	251203.1	3694.436	-5095.461	1	6293.853	-54.05622	-6.557668E-007	0.0152215	8
	7	3	199546.9	4302.193	-5785.481	1	7209.761	-53.36481	5.418543E-006	0.0139677	8
	8	4	158578.1	4987.293	-6559.004	1	8239.759	-52.7516	-1.768988E-006	0.0145306	8
	9	4	125953.1	5810.695	-7424.684	1	9428.155	-51.95261	-1.085762E-006	0.0151549	7
	10	5	100078.1	6684.758	-8429.521	1	10758.38	-51.58497	-1.576842E-006	0.0159384	7
	11	5	79453.13	7706.071	-9603.91	1	12313.35	-51.25684	7.961887E-007	0.0123734	7
	12	5	63140.62	8937.99	-10893.13	1	14090.7	-50.63057	3.036542E-007	0.0127294	7
	13	6	50203.12	10414.51	-12242.2	1	16072.75	-49.61201	-1.68627E-006	0.0165852	7
	14	6	39890.62	12098.76	-13814.3	1	18363.42	-48.78767	-8.394188E-007	0.0142504	7
	15	6	31640.63	14096.54	-15509.55	1	20958.5	-47.73249	3.036187E-007	0.0127253	7
	16	7	25171.88	16348.39	-17181.94	1	23716.85	-46.42405	7.980898E-007	0.0123613	7
	17	7	20015.62	18957.18	-18682.63	1	26616.07	-44.58208	-8.397772E-007	0.0142482	7
	18	7	15890.62	21660.58	-20132.2	1	29571.71	-42.9056	-3.729074E-008	0.0161177	7
	19	8	12609.37	24657.84	-21924.57	1	32995.39	-41.64196	-1.23189E-007	0.0184379	6
	20	8	10078.13	27758.36	-23564.26	1	36411.55	-40.32815	-1.702188E-007	0.0145259	6
	21	8	8015.625	31057.79	-25188.75	1	39988.24	-39.04303	-2.338442E-007	0.0159389	6
	22	9	6328.125	34628	-27154.57	1	44005.33	-38.10283	-3.825887E-008	0.017652	6
	23	9	5015.625	38378.26	-29378.61	1	48332.11	-37.4341	2.2401E-007	0.0113124	6
	24	9	3984.375	42241.81	-31493.32	1	52689.65	-36.70632	-3.797166E-008	0.017652	6
	25	9	3170.956	46436.16	-34206.95	1	57675.23	-36.37702	1.937459E-007	0.0109302	6
	26	10	2527.573	50721.31	-36675.75	1	62592.02	-35.87008	-2.823804E-007	0.0182824	6
	27	10	1976.103	56179.54	-40620.64	1	69326.6	-35.86883	1.85654E-007	0.0143284	6
	28	11	1577.524	61453.73	-44056.9	1	75614.63	-35.63718	2.271228E-007	0.0132676	6
	29	11	1265.625	67102.85	-47675.4	1	82314.86	-35.39313	1.237271E-007	0.0155232	6
	30	11	998.264	73659.45	-51858.92	1	90083.63	-35.14693	4.775066E-008	0.0166598	6
	31	11	796.875	80538.98	-56592.97	1	98434.2	-35.09487	7.051354E-008	0.0113602	6
	32	12	627.7902	88105.94	-61175.57	1	107261.9	-34.77383	-1.234256E-007	0.018435	6
	33	12	505.5147	96481.3	-65988.41	1	116889.3	-34.3702	6.855952E-008	0.0113676	6
	34	13	397.9953	104658.9	-72282.36	1	127193.7	-34.63078	8.787601E-011	0.0147024	5
	35	13	315.5048	113798.8	-78814.3	1	138426.3	-34.70555	4.034497E-010	0.0146943	5
	36	13	252.4038	123144.8	-85825.8	1	150102.3	-34.87458	2.115711E-010	0.0146997	5
	37	14	198.6229	133778.5	-94454.04	1	163762.8	-35.22392	2.458887E-010	0.0147049	5
	38	14	158.3615	143998.4	-103520.2	1	177347	-35.7123	4.738712E-010	0.0146862	5
	39	14	125.558	154826.5	-114484.5	1	192556.3	-36.48059	2.535226E-010	0.0147021	5
	40	15	100.4464	165551.7	-127119.8	1	208726.6	-37.51907	3.46857E-010	0.0147031	5
	41	15	79.00281	175685.2	-143388.9	1	226772.3	-39.22026	4.328337E-010	0.0146873	5
	42	15	63.3446	189821.6	-167467.5	1	253135.5	-41.41991	2.1932E-011	0.0146945	5
	43	16	49.86702	199938.1	-193449.9	1	278205.1	-44.0551	6.57608E-011	0.014681	5
	44	16	39.72458	213121.5	-222476.1	1	308085	-46.23026	1.49045E-010	0.0146943	5
	45	16	31.6723	227837.3	-259964.2	1	345675.1	-48.76809	-5.923353E-011	0.0146986	5
	46	17	24.93351	247534.3	-312353.8	1	398545	-51.60387	2.0875E-010	0.0146805	5
	47	17	19.86229	270366.3	-371423.2	1	459405.2	-53.94839	2.425636E-010	0.0147023	5
	48	17	15.83615	301105.2	-439898.7	1	533080.9	-55.60884	-1.206531E-010	0.0146977	5
	49	18	12.40079	335627.9	-536319.8	1	632680.9	-57.96175	5.393379E-012	0.0146964	5
	50	18	9.93114	375016	-632342.6	1	735183.1	-59.32959	4.099559E-011	0.0146903	5
	51	19	7.944915	428130.3	-751773.7	1	865135.4	-60.33877	1.269216E-011	0.0146929	5
	52	19	6.317385	500163.6	-900745.9	1	1030295	-60.95759	5.796552E-011	0.0146957	5
	53	20	5.008013	595416.1	-1082872	1	1235772	-61.19586	3.016574E-011	0.0146777	4
	54	21	3.945707	725415	-1290798	1	1480671	-60.66447	6.534073E-011	0.0146936	4
	55	22	3.158693	889705.4	-1515676	1	1757512	-59.58696	1.011557E-010	0.0147083	4
	56	24	2.504006	1110321	-1769624	1	2089110	-57.89447	4.088194E-011	0.0146986	4
	57	25	1.998082	1377777	-2018948	1	2444263	-55.68946	8.005221E-011	0.0147085	4
	58	27	1.584686	1722029	-2273606	1	2852134	-52.85971	9.004605E-011	0.0147425	4
	59	29	1.266892	2100345	-2502960	1	3267454	-49.99849	8.142373E-011	0.0147232	4
	60	31	0.999041	2548960	-2719570	1	3727366	-46.85475	7.635689E-011	0.0147019	4
