EXPLAIN
TAG	EISPOT
TITLE	LABEL	Potentiostatic EIS	Test &Identifier
DATE	LABEL	7/30/2020	Date
TIME	LABEL	23:04:00	Time
NOTES	NOTES	1	&Notes...
	
PSTAT	PSTAT	REF600-11020	Potentiostat
VDC	POTEN	0.00000E+000	T	DC &Voltage (V)
FREQINIT	QUANT	1.00000E+006	Initial Fre&q. (Hz)
FREQFINAL	QUANT	1.00000E+000	Final Fre&q. (Hz)
PTSPERDEC	QUANT	1.00000E+001	Points/&decade
VAC	QUANT	2.50000E+001	AC &Voltage (mV rms)
AREA	QUANT	4.00000E-005	&Area (cm^2)
CONDIT	TWOPARAM	F	5.00000E+000	0.00000E+000	Conditionin&g	Time(s)	E(V)
DELAY	TWOPARAM	F	3.00000E+000	0.00000E+000	Init. De&lay	Time(s)	Stab.(mV/s)
SPEED	SELECTOR	0	&Optimize for:
ZGUESS	QUANT	1.00000E+003	E&stimated Z (ohms)
OCVCURVE	TABLE	39
	Pt	T	Vf	Vm	Ach	Over
	#	s	V vs. Ref.	V	V	bits
	0	0.258333	-1.42479E-001	-1.42479E-001	5.18850E-004	...........
	1	0.516667	-1.42479E-001	-1.42485E-001	5.16583E-004	...........
	2	0.775	-1.42480E-001	-1.42493E-001	5.17717E-004	...........
	3	1.03333	-1.42482E-001	-1.42503E-001	5.18883E-004	...........
	4	1.29167	-1.42487E-001	-1.42509E-001	5.16683E-004	...........
	5	1.55	-1.42493E-001	-1.42516E-001	5.17250E-004	...........
	6	1.80833	-1.42501E-001	-1.42521E-001	5.21650E-004	...........
	7	2.06667	-1.42508E-001	-1.42529E-001	5.16017E-004	...........
	8	2.325	-1.42515E-001	-1.42537E-001	5.13150E-004	...........
	9	2.58333	-1.42522E-001	-1.42539E-001	5.13683E-004	...........
	10	2.84167	-1.42528E-001	-1.42544E-001	5.14150E-004	...........
	11	3.1	-1.42534E-001	-1.42549E-001	5.13650E-004	...........
	12	3.35833	-1.42539E-001	-1.42554E-001	5.10517E-004	...........
	13	3.61667	-1.42544E-001	-1.42559E-001	5.11117E-004	...........
	14	3.875	-1.42549E-001	-1.42563E-001	5.17217E-004	...........
	15	4.13333	-1.42553E-001	-1.42568E-001	5.15183E-004	...........
	16	4.39167	-1.42558E-001	-1.42573E-001	5.13450E-004	...........
	17	4.65	-1.42563E-001	-1.42577E-001	5.11617E-004	...........
	18	4.90833	-1.42568E-001	-1.42584E-001	5.15317E-004	...........
	19	5.16667	-1.42572E-001	-1.42589E-001	5.10884E-004	...........
	20	5.425	-1.42577E-001	-1.42594E-001	5.16617E-004	...........
	21	5.68333	-1.42583E-001	-1.42595E-001	5.19783E-004	...........
	22	5.94167	-1.42588E-001	-1.42600E-001	5.19550E-004	...........
	23	6.2	-1.42592E-001	-1.42607E-001	5.15017E-004	...........
	24	6.45833	-1.42596E-001	-1.42613E-001	5.17750E-004	...........
	25	6.71667	-1.42601E-001	-1.42618E-001	5.20050E-004	...........
	26	6.975	-1.42606E-001	-1.42624E-001	5.19150E-004	...........
	27	7.23333	-1.42612E-001	-1.42629E-001	5.19550E-004	...........
	28	7.49167	-1.42618E-001	-1.42634E-001	5.21650E-004	...........
	29	7.75	-1.42623E-001	-1.42638E-001	5.23017E-004	...........
	30	8.00833	-1.42629E-001	-1.42643E-001	5.22750E-004	...........
	31	8.26667	-1.42633E-001	-1.42645E-001	5.22383E-004	...........
	32	8.525	-1.42638E-001	-1.42649E-001	5.22617E-004	...........
	33	8.78333	-1.42641E-001	-1.42651E-001	5.24350E-004	...........
	34	9.04167	-1.42645E-001	-1.42654E-001	5.20617E-004	...........
	35	9.3	-1.42648E-001	-1.42661E-001	5.19450E-004	...........
	36	9.5583	-1.42652E-001	-1.42663E-001	5.11117E-004	...........
	37	9.8167	-1.42656E-001	-1.42679E-001	5.15417E-004	...........
	38	10.075	-1.42661E-001	-1.42700E-001	5.11784E-004	...........
EOC	QUANT	-0.142661	Open Circuit (V)
PSTATMODEL	IQUANT	4	Pstat Model
PSTATSECTION	LABEL	REF600-11020	Pstat Section
PSTATSERIALNO	LABEL	11020	Pstat Serial Number
CTRLMODE	IQUANT	1	Control Mode
IESTAB	IQUANT	0	I/E Stability
CASPEED	IQUANT	1	Control Amp Speed
CONVENTION	IQUANT	1	Current Convention
ICHRANGE	IQUANT	2	Ich Range
ICHRANGEMODE	TOGGLE	F	Ich Auto Range
ICHOFFSETENABLE	TOGGLE	T	Ich Offset Enable
ICHOFFSET	QUANT	0	Ich Offset (V)
ICHFILTER	IQUANT	3	Ich Filter
VCHRANGE	IQUANT	2	Vch Range
VCHRANGEMODE	TOGGLE	F	Vch Auto Range
VCHOFFSETENABLE	TOGGLE	T	Vch Offset Enable
VCHOFFSET	QUANT	0	Vch Offset (V)
VCHFILTER	IQUANT	3	Vch Filter
ACHRANGE	IQUANT	2	Ach Range
ACHOFFSETENABLE	TOGGLE	F	Ach Offset Enable
ACHOFFSET	QUANT	0	Ach Offset (V)
ACHFILTER	IQUANT	3	Ach Filter
IERANGELOWERLIMIT	IQUANT	1	I/E Range Lower Limit
IERANGEMODE	TOGGLE	F	I/E AutoRange
IERANGE	IQUANT	8	I/E Range
POSFEEDENABLE	TOGGLE	F	Positive Feedback IR Comp
POSFEEDRESISTANCE	QUANT	0	Positive Feedback Resistance (ohm)
ACHSELECT	IQUANT	0	Ach Select
CABLEID	IQUANT	14	Cable ID
DCCALDATE	LABEL	6/26/2020	DC Calibration Date
ACCALDATE	LABEL	6/26/2020	AC Calibration Date
THERMOSELECT	IQUANT	1	Thermo Select
FRAMEWORKVERSION	QUANT	6.33	Framework Version
INSTRUMENTVERSION	LABEL	3.50	Instrument Version
ZCURVE	TABLE
	Pt	Time	Freq	Zreal	Zimag	Zsig	Zmod	Zphz	Idc	Vdc	IERange
	#	s	Hz	ohm	ohm	V	ohm	°	A	V	#
	0	1	1000078	1657.834	-2021.888	1	2614.66	-50.65018	5.987535E-008	-0.1403346	8
	1	1	794390.6	2015.29	-2224.033	1	3001.285	-47.81895	4.471837E-008	-0.1406888	8
	2	1	630984.4	2419.551	-2394.711	1	3404.242	-44.70438	-4.938471E-010	-0.1408395	8
	3	2	501234.4	2865.109	-2533.489	1	3824.581	-41.4849	4.559352E-008	-0.1409746	8
	4	2	398109.4	3335.576	-2617.106	1	4239.73	-38.11788	2.456979E-008	-0.1410216	8
	5	2	316265.6	3816.459	-2648.032	1	4645.151	-34.75466	4.707413E-008	-0.1410642	8
	6	3	251203.1	4287.092	-2626.223	1	5027.545	-31.49115	4.590234E-008	-0.1410722	8
	7	3	199546.9	4733.484	-2567.685	1	5385.061	-28.47768	-1.627648E-008	-0.1410569	8
	8	3	158578.1	5154.185	-2483.646	1	5721.374	-25.72802	-2.019231E-008	-0.1410384	8
	9	4	125953.1	5576.409	-2339.75	1	6047.376	-22.76195	-8.517442E-009	-0.1410345	7
	10	4	100078.1	5926.774	-2234.136	1	6333.878	-20.65426	-1.119299E-010	-0.1410973	7
	11	4	79453.13	6239.565	-2130.842	1	6593.38	-18.85529	5.039489E-010	-0.1410981	7
	12	5	63140.62	6522.596	-2035.603	1	6832.857	-17.33235	9.369581E-010	-0.1411017	7
	13	5	50203.12	6781.043	-1954.793	1	7057.178	-16.08085	1.119975E-009	-0.1411024	7
	14	5	39890.62	7020.394	-1890.528	1	7270.49	-15.0717	1.135435E-009	-0.1411186	7
	15	6	31640.63	7247.657	-1848.676	1	7479.714	-14.30943	2.234802E-009	-0.1411045	7
	16	6	25171.88	7459.045	-1829.021	1	7680.018	-13.77757	1.170596E-009	-0.1411113	7
	17	6	20015.62	7660.916	-1832.499	1	7877.035	-13.45244	1.152766E-009	-0.1411134	7
	18	6	15890.62	7862.904	-1864.844	1	8081.021	-13.34231	1.742135E-010	-0.1411204	7
	19	7	12609.37	8063.847	-1930.85	1	8291.791	-13.46568	1.283418E-009	-0.1411112	7
	20	7	10078.13	8259.149	-2026.465	1	8504.123	-13.78576	2.327325E-009	-0.1411102	7
	21	7	8015.625	8463.35	-2161.692	1	8735.056	-14.32804	2.121653E-009	-0.1411082	7
	22	8	6328.125	8694.877	-2312.714	1	8997.195	-14.89499	7.588159E-011	-0.1411207	6
	23	8	5015.625	8924.582	-2550.988	1	9282.01	-15.95197	8.886317E-011	-0.141126	6
	24	8	3984.375	9166.354	-2845.164	1	9597.76	-17.24393	5.494273E-011	-0.1411187	6
	25	9	3170.956	9433.735	-3199.674	1	9961.59	-18.73558	6.633376E-011	-0.1411212	6
	26	9	2527.573	9730.91	-3624.889	1	10384.14	-20.43101	-2.646423E-010	-0.141132	6
	27	9	1976.103	10099.39	-4182.491	1	10931.19	-22.49606	-2.066639E-010	-0.1411316	6
	28	10	1577.524	10482.25	-4790.17	1	11524.9	-24.5594	-2.227836E-010	-0.1411317	6
	29	10	1265.625	10912.85	-5491.049	1	12216.46	-26.71031	7.132159E-011	-0.1411333	6
	30	10	998.264	11449.67	-6379.834	1	13107.15	-29.12684	-2.151439E-010	-0.141133	6
	31	11	796.875	12037.4	-7369.584	1	14114.17	-31.47596	9.050148E-011	-0.1411293	6
	32	11	627.7902	12766.53	-8595.582	1	15390.53	-33.952	-1.385895E-010	-0.1411361	6
	33	11	505.5147	13526.72	-9894.46	1	16759.25	-36.18454	-1.223308E-010	-0.1411396	6
	34	12	397.9953	14482.06	-11559.16	1	18529.55	-38.59587	3.158816E-010	-0.1411058	6
	35	12	315.5048	15550.9	-13459.56	1	20566.73	-40.87673	3.428972E-010	-0.1411096	6
	36	12	252.4038	16716.2	-15599.72	1	22864.44	-43.02128	2.219857E-010	-0.1411133	6
	37	13	198.6229	18142.29	-18317.36	1	25781.17	-45.27512	2.858698E-010	-0.1411141	6
	38	13	158.3615	19685.18	-21372.59	1	29056.73	-47.35345	2.983832E-010	-0.1411201	6
	39	13	125.558	21504.74	-25099.31	1	33051.91	-49.41049	3.009885E-010	-0.1411177	6
	40	13	100.4464	23538.6	-29370.2	1	37638.73	-51.28975	2.066967E-011	-0.1411187	6
	41	14	79.00281	26124.15	-34870.08	1	43570.56	-53.16	1.561723E-010	-0.1411175	6
	42	14	63.3446	28965.14	-40913.88	1	50129.08	-54.70327	2.89623E-010	-0.1411176	6
	43	15	49.86702	32701.08	-48717.3	1	58674.83	-56.12885	9.834024E-011	-0.1411242	6
	44	15	39.72458	37065.71	-57531.63	1	68437.96	-57.20767	2.819561E-010	-0.1411191	6
	45	15	31.6723	42445.89	-67861.01	1	80042.3	-57.97473	8.036766E-012	-0.141124	6
	46	16	24.93351	49542.93	-80625.27	1	94630.52	-58.42995	8.434057E-010	-0.1411196	6
	47	16	19.86229	57932.32	-94720.56	1	111032.2	-58.5495	1.940212E-009	-0.1411257	5
	48	16	15.83615	68608.75	-110678.9	1	130219	-58.20564	-8.688012E-010	-0.1411342	5
	49	16	12.40079	82844.39	-130066.6	1	154209.3	-57.50538	-1.821832E-009	-0.1411303	5
	50	17	9.93114	98225.7	-149446.2	1	178836.4	-56.6845	-1.282723E-009	-0.141138	5
	51	17	7.944915	116997	-170489.3	1	206772.6	-55.54042	1.094536E-009	-0.1411338	5
	52	17	6.317385	139445.5	-193913.4	1	238846.1	-54.27962	-5.594616E-010	-0.1411193	5
	53	18	5.008013	165676.6	-219198.3	1	274766.5	-52.91693	-6.394834E-010	-0.1411376	5
	54	19	3.945707	195540.8	-245747.1	1	314050.7	-51.49075	2.58431E-010	-0.1411247	5
	55	20	3.158693	226361.7	-272628.9	1	354353.1	-50.29741	-3.170831E-010	-0.1411317	5
	56	21	2.504006	259579.9	-302200.6	1	398380.4	-49.33855	-7.817741E-011	-0.1411389	5
	57	22	1.998082	293837.8	-334318.5	1	445094.9	-48.68724	2.446421E-010	-0.1411009	5
	58	24	1.584686	328178.5	-372295.2	1	496291.1	-48.6038	1.063178E-010	-0.141128	5
	59	26	1.266892	363497.2	-414855.3	1	551575.1	-48.77507	-1.877818E-011	-0.1411626	5
	60	28	0.999041	402575.9	-471134.7	1	619705.8	-49.48672	-7.129823E-011	-0.1411799	5
