EXPLAIN
TAG	EISPOT
TITLE	LABEL	Potentiostatic EIS	Test &Identifier
DATE	LABEL	3/20/2020	Date
TIME	LABEL	13:41:59	Time
NOTES	NOTES	1	&Notes...
	
PSTAT	PSTAT	REF600-11020	Potentiostat
VDC	POTEN	0.00000E+000	T	DC &Voltage (V)
FREQINIT	QUANT	1.00000E+006	Initial Fre&q. (Hz)
FREQFINAL	QUANT	1.00000E+000	Final Fre&q. (Hz)
PTSPERDEC	QUANT	1.00000E+001	Points/&decade
VAC	QUANT	2.50000E+001	AC &Voltage (mV rms)
AREA	QUANT	4.00000E-004	&Area (cm^2)
CONDIT	TWOPARAM	F	5.00000E+000	0.00000E+000	Conditionin&g	Time(s)	E(V)
DELAY	TWOPARAM	T	3.00000E+000	0.00000E+000	Init. De&lay	Time(s)	Stab.(mV/s)
SPEED	SELECTOR	0	&Optimize for:
ZGUESS	QUANT	1.00000E+003	E&stimated Z (ohms)
OCVCURVE	TABLE	12
	Pt	T	Vf	Vm	Ach	Over
	#	s	V vs. Ref.	V	V	bits
	0	0.258333	8.50977E-002	8.50977E-002	5.31112E-004	...........
	1	0.516667	8.50984E-002	8.51344E-002	5.30279E-004	...........
	2	0.775	8.51028E-002	8.51749E-002	5.34079E-004	...........
	3	1.03333	8.51158E-002	8.52216E-002	5.35146E-004	...........
	4	1.29167	8.51405E-002	8.52667E-002	5.32846E-004	...........
	5	1.55	8.51753E-002	8.53005E-002	5.33412E-004	...........
	6	1.80833	8.52159E-002	8.53398E-002	5.23379E-004	...........
	7	2.06667	8.52574E-002	8.53757E-002	5.36312E-004	...........
	8	2.325	8.52975E-002	8.54143E-002	5.32146E-004	...........
	9	2.58333	8.53361E-002	8.54532E-002	5.26679E-004	...........
	10	2.84167	8.53739E-002	8.54893E-002	5.28046E-004	...........
	11	3.1	8.54117E-002	8.55330E-002	5.40912E-004	...........
EOC	QUANT	0.0854117	Open Circuit (V)
PSTATMODEL	IQUANT	4	Pstat Model
PSTATSECTION	LABEL	REF600-11020	Pstat Section
PSTATSERIALNO	LABEL	11020	Pstat Serial Number
CTRLMODE	IQUANT	1	Control Mode
IESTAB	IQUANT	0	I/E Stability
CASPEED	IQUANT	1	Control Amp Speed
CONVENTION	IQUANT	1	Current Convention
ICHRANGE	IQUANT	2	Ich Range
ICHRANGEMODE	TOGGLE	F	Ich Auto Range
ICHOFFSETENABLE	TOGGLE	T	Ich Offset Enable
ICHOFFSET	QUANT	0	Ich Offset (V)
ICHFILTER	IQUANT	3	Ich Filter
VCHRANGE	IQUANT	2	Vch Range
VCHRANGEMODE	TOGGLE	F	Vch Auto Range
VCHOFFSETENABLE	TOGGLE	T	Vch Offset Enable
VCHOFFSET	QUANT	0	Vch Offset (V)
VCHFILTER	IQUANT	3	Vch Filter
ACHRANGE	IQUANT	2	Ach Range
ACHOFFSETENABLE	TOGGLE	F	Ach Offset Enable
ACHOFFSET	QUANT	0	Ach Offset (V)
ACHFILTER	IQUANT	1	Ach Filter
IERANGELOWERLIMIT	IQUANT	1	I/E Range Lower Limit
IERANGEMODE	TOGGLE	F	I/E AutoRange
IERANGE	IQUANT	8	I/E Range
POSFEEDENABLE	TOGGLE	F	Positive Feedback IR Comp
POSFEEDRESISTANCE	QUANT	0	Positive Feedback Resistance (ohm)
ACHSELECT	IQUANT	0	Ach Select
CABLEID	IQUANT	14	Cable ID
DCCALDATE	LABEL	2/27/2020	DC Calibration Date
ACCALDATE	LABEL	2/27/2020	AC Calibration Date
THERMOSELECT	IQUANT	1	Thermo Select
FRAMEWORKVERSION	QUANT	6.33	Framework Version
INSTRUMENTVERSION	LABEL	3.50	Instrument Version
ZCURVE	TABLE
	Pt	Time	Freq	Zreal	Zimag	Zsig	Zmod	Zphz	Idc	Vdc	IERange
	#	s	Hz	ohm	ohm	V	ohm	°	A	V	#
	0	1	1000078	1594.871	-1767.311	1	2380.547	-47.93602	5.613267E-007	0.08769	8
	1	2	794390.6	1846.003	-1945.856	1	2682.179	-46.50845	2.502574E-007	0.0874003	8
	2	2	630984.4	2122.579	-2130.008	1	3007.037	-45.10009	-2.293442E-007	0.0873851	8
	3	2	501234.4	2418.662	-2329.159	1	3357.813	-43.92002	-1.204103E-007	0.0872613	8
	4	3	398109.4	2731.695	-2541.002	1	3730.798	-42.92874	-4.035974E-008	0.087201	8
	5	3	316265.6	3078.596	-2767.508	1	4139.668	-41.95399	-1.489688E-007	0.0872048	8
	6	3	251203.1	3448.823	-3019.781	1	4584.043	-41.20531	-2.524982E-007	0.0872382	8
	7	4	199546.9	3849.624	-3319.168	1	5082.96	-40.7681	1.491666E-007	0.0871323	8
	8	4	158578.1	4302.482	-3622.85	1	5624.624	-40.09862	-4.519715E-008	0.0871658	8
	9	4	125953.1	4879.472	-3926.532	1	6263.138	-38.82378	-4.668489E-008	0.0871818	7
	10	5	100078.1	5433.677	-4301.061	1	6929.933	-38.36359	-7.678255E-009	0.0870989	7
	11	5	79453.13	6086.623	-4699.616	1	7689.822	-37.67253	-1.458376E-009	0.0870798	7
	12	5	63140.62	6810.256	-5090.094	1	8502.272	-36.77503	-2.910135E-009	0.0870706	7
	13	6	50203.12	7617.297	-5476.558	1	9381.679	-35.71475	-1.631673E-009	0.087086	7
	14	6	39890.62	8484.387	-5822.772	1	10290.26	-34.46152	-7.26306E-009	0.087083	7
	15	6	31640.63	9408.849	-6139.271	1	11234.64	-33.12444	-9.854982E-009	0.0870865	7
	16	7	25171.88	10356.94	-6420.45	1	12185.58	-31.7955	1.080628E-008	0.0870573	7
	17	7	20015.62	11301.27	-6665.955	1	13120.73	-30.53386	-2.818718E-009	0.0870639	7
	18	7	15890.62	12263.24	-6934.187	1	14087.94	-29.48577	6.87684E-009	0.0870454	7
	19	8	12609.37	13308.62	-7082.188	1	15075.7	-28.0197	-4.696195E-010	0.0871386	6
	20	8	10078.13	14193.13	-7420.796	1	16016.03	-27.60255	-9.059274E-010	0.0871322	6
	21	8	8015.625	15092.63	-7842.533	1	17008.61	-27.4576	1.303732E-009	0.0870935	6
	22	9	6328.125	16053.38	-8396.285	1	18116.53	-27.61059	-1.01407E-009	0.0871289	6
	23	9	5015.625	17038.46	-9067.591	1	19301.05	-28.02117	-6.902806E-010	0.0871115	6
	24	9	3984.375	18088.62	-9887.79	1	20614.72	-28.66235	6.246562E-011	0.0871202	6
	25	9	3170.956	19229.35	-10846.74	1	22077.58	-29.42613	5.114265E-010	0.0871211	6
	26	10	2527.573	20491.85	-11965.11	1	23729.3	-30.2805	-1.070813E-009	0.0871348	6
	27	10	1976.103	22012.5	-13340.83	1	25739.62	-31.21825	-1.080665E-009	0.0871212	6
	28	10	1577.524	23542.31	-14762.99	1	27788.23	-32.09113	-4.84512E-010	0.0871095	6
	29	11	1265.625	25163.41	-16328.9	1	29997.17	-32.98012	-6.692233E-010	0.0871268	6
	30	11	998.264	27007.68	-18237.09	1	32588.43	-34.02942	-1.747828E-010	0.0871291	6
	31	11	796.875	28863.5	-20371.65	1	35328.54	-35.21416	-5.831171E-010	0.0871266	6
	32	12	627.7902	30904.66	-23057.46	1	38558.33	-36.72602	-7.286129E-011	0.0871105	6
	33	12	505.5147	32919.83	-26007.13	1	41953.38	-38.30924	-1.531831E-009	0.0871097	6
	34	12	397.9953	35358.41	-30060.8	1	46409.79	-40.37033	-5.27357E-010	0.0871295	6
	35	13	315.5048	38139.83	-34865.4	1	51674.39	-42.43189	-4.665744E-010	0.0871326	6
	36	13	252.4038	41354.21	-40411.94	1	57821.24	-44.33975	-5.271766E-010	0.0871279	6
	37	13	198.6229	45608.85	-47470.07	1	65829.89	-46.14554	-5.896822E-010	0.087123	6
	38	14	158.3615	50579.27	-55206.62	1	74873.45	-47.50467	-5.304803E-010	0.0871227	6
	39	14	125.558	56841.31	-64259.87	1	85791.99	-48.50551	-4.889598E-010	0.0871225	6
	40	14	100.4464	64119.57	-74007.24	1	97920.3	-49.09447	-5.642796E-010	0.0871221	6
	41	15	79.00281	73460.4	-85616.01	1	112811.9	-49.36969	-1.383643E-010	0.0871217	5
	42	15	63.3446	83279.66	-97349.9	1	128111.3	-49.4541	-2.071134E-010	0.087115	5
	43	15	49.86702	95911.1	-111655.8	1	147193.6	-49.33779	-3.319187E-010	0.0871127	5
	44	16	39.72458	109708.9	-126885.7	1	167738	-49.15239	-3.515094E-010	0.0871202	5
	45	16	31.6723	125515.4	-143557.3	1	190690.3	-48.83607	-5.170249E-010	0.0871192	5
	46	16	24.93351	144518.7	-162890.2	1	217758.7	-48.42007	-1.823037E-010	0.0871141	5
	47	17	19.86229	165208.5	-183270.6	1	246742.7	-47.96704	2.441964E-010	0.0871247	5
	48	17	15.83615	188621.4	-205707.9	1	279094.5	-47.4811	-7.534972E-010	0.0871145	5
	49	17	12.40079	218408.2	-231570.8	1	318319.3	-46.67551	-2.107424E-010	0.087119	5
	50	17	9.93114	248675.6	-257304.6	1	357834.1	-45.97702	-5.597784E-010	0.0871254	5
	51	18	7.944915	282080.1	-285108.1	1	401068.3	-45.30587	-1.117807E-009	0.0871234	5
	52	18	6.317385	321501.9	-315426.4	1	450396.8	-44.45349	-6.798016E-011	0.0871028	5
	53	19	5.008013	365958	-348201.3	1	505142.9	-43.5757	-3.954586E-013	0.0871169	5
	54	20	3.945707	415743.9	-384338	1	566179	-42.75211	-4.622215E-010	0.0871077	5
	55	21	3.158693	467776.4	-419410.4	1	628267.4	-41.87954	-5.987142E-011	0.0871105	5
	56	22	2.504006	525422.1	-458735	1	697500	-41.12353	-9.411474E-011	0.0871179	5
	57	23	1.998082	587113	-499213.9	1	770659.6	-40.37405	-3.813078E-010	0.0870712	5
	58	25	1.584686	653544.6	-545604.6	1	851354.8	-39.85645	-3.906586E-010	0.0870941	5
	59	27	1.266892	722276.9	-592325.5	1	934094.9	-39.35453	-3.265999E-010	0.0871241	5
	60	29	0.999041	802500.3	-648471.6	1	1031757	-38.94043	-1.83099E-010	0.0871415	4
