EXPLAIN
TAG	EISPOT
TITLE	LABEL	Potentiostatic EIS	Test &Identifier
DATE	LABEL	1/25/2020	Date
TIME	LABEL	12:53:07	Time
NOTES	NOTES	6	&Notes...
	
	
	
	
	
	
PSTAT	PSTAT	REF600-11020	Potentiostat
VDC	POTEN	0.00000E+000	T	DC &Voltage (V)
FREQINIT	QUANT	1.00000E+006	Initial Fre&q. (Hz)
FREQFINAL	QUANT	1.00000E+000	Final Fre&q. (Hz)
PTSPERDEC	QUANT	1.00000E+001	Points/&decade
VAC	QUANT	2.50000E+001	AC &Voltage (mV rms)
AREA	QUANT	1.00000E-001	&Area (cm^2)
CONDIT	TWOPARAM	F	5.00000E+000	0.00000E+000	Conditionin&g	Time(s)	E(V)
DELAY	TWOPARAM	F	5.00000E+000	0.00000E+000	Init. De&lay	Time(s)	Stab.(mV/s)
SPEED	SELECTOR	0	&Optimize for:
ZGUESS	QUANT	5.00000E+002	E&stimated Z (ohms)
OCVCURVE	TABLE	39
	Pt	T	Vf	Vm	Ach	Over
	#	s	V vs. Ref.	V	V	bits
	0	0.258333	-4.13125E-002	-4.13125E-002	7.05545E-004	...........
	1	0.516667	-4.13133E-002	-4.13582E-002	7.04812E-004	...........
	2	0.775	-4.13143E-002	-4.11716E-002	7.05679E-004	...........
	3	1.03333	-4.13075E-002	-4.12576E-002	7.01845E-004	...........
	4	1.29167	-4.12928E-002	-4.15299E-002	7.02645E-004	...........
	5	1.55	-4.13109E-002	-4.22467E-002	7.05645E-004	...........
	6	1.80833	-4.14417E-002	-4.28694E-002	7.02245E-004	...........
	7	2.06667	-4.17527E-002	-4.37636E-002	7.03412E-004	...........
	8	2.325	-4.22457E-002	-4.39961E-002	7.01312E-004	...........
	9	2.58333	-4.28274E-002	-4.36103E-002	7.02479E-004	...........
	10	2.84167	-4.33344E-002	-4.39153E-002	7.04945E-004	...........
	11	3.1	-4.36589E-002	-4.42060E-002	7.03612E-004	...........
	12	3.35833	-4.38443E-002	-4.44830E-002	7.01012E-004	...........
	13	3.61667	-4.40061E-002	-4.47578E-002	7.01312E-004	...........
	14	3.875	-4.42098E-002	-4.49995E-002	7.01679E-004	...........
	15	4.13333	-4.44534E-002	-4.52158E-002	7.00712E-004	...........
	16	4.39167	-4.47100E-002	-4.54303E-002	7.02512E-004	...........
	17	4.65	-4.49580E-002	-4.56199E-002	7.01245E-004	...........
	18	4.90833	-4.51884E-002	-4.58015E-002	7.00412E-004	...........
	19	5.16667	-4.54005E-002	-4.59696E-002	7.03079E-004	...........
	20	5.425	-4.55965E-002	-4.61235E-002	7.05679E-004	...........
	21	5.68333	-4.57784E-002	-4.62749E-002	7.02179E-004	...........
	22	5.94167	-4.59480E-002	-4.64165E-002	7.04145E-004	...........
	23	6.2	-4.61071E-002	-4.65467E-002	7.01212E-004	...........
	24	6.45833	-4.62571E-002	-4.66753E-002	7.04545E-004	...........
	25	6.71667	-4.63988E-002	-4.67965E-002	7.02512E-004	...........
	26	6.975	-4.65332E-002	-4.69121E-002	7.05279E-004	...........
	27	7.23333	-4.66610E-002	-4.70216E-002	7.10945E-004	...........
	28	7.49167	-4.67828E-002	-4.71265E-002	7.01479E-004	...........
	29	7.75	-4.68989E-002	-4.72314E-002	7.07912E-004	...........
	30	8.00833	-4.70099E-002	-4.73248E-002	7.01245E-004	...........
	31	8.26667	-4.71162E-002	-4.74159E-002	7.00312E-004	...........
	32	8.525	-4.72177E-002	-4.75034E-002	6.99612E-004	...........
	33	8.78333	-4.73143E-002	-4.75880E-002	7.00279E-004	...........
	34	9.04167	-4.74063E-002	-4.76710E-002	7.01312E-004	...........
	35	9.3	-4.74947E-002	-4.77497E-002	7.00645E-004	...........
	36	9.5583	-4.75798E-002	-4.78267E-002	7.08012E-004	...........
	37	9.8167	-4.76621E-002	-4.78977E-002	7.01179E-004	...........
	38	10.075	-4.77414E-002	-4.79679E-002	7.05779E-004	...........
EOC	QUANT	-0.0477414	Open Circuit (V)
PSTATMODEL	IQUANT	4	Pstat Model
PSTATSECTION	LABEL	REF600-11020	Pstat Section
PSTATSERIALNO	LABEL	11020	Pstat Serial Number
CTRLMODE	IQUANT	1	Control Mode
IESTAB	IQUANT	0	I/E Stability
CASPEED	IQUANT	1	Control Amp Speed
CONVENTION	IQUANT	1	Current Convention
ICHRANGE	IQUANT	2	Ich Range
ICHRANGEMODE	TOGGLE	F	Ich Auto Range
ICHOFFSETENABLE	TOGGLE	T	Ich Offset Enable
ICHOFFSET	QUANT	0	Ich Offset (V)
ICHFILTER	IQUANT	3	Ich Filter
VCHRANGE	IQUANT	2	Vch Range
VCHRANGEMODE	TOGGLE	F	Vch Auto Range
VCHOFFSETENABLE	TOGGLE	T	Vch Offset Enable
VCHOFFSET	QUANT	0	Vch Offset (V)
VCHFILTER	IQUANT	3	Vch Filter
ACHRANGE	IQUANT	2	Ach Range
ACHOFFSETENABLE	TOGGLE	F	Ach Offset Enable
ACHOFFSET	QUANT	0	Ach Offset (V)
ACHFILTER	IQUANT	3	Ach Filter
IERANGELOWERLIMIT	IQUANT	1	I/E Range Lower Limit
IERANGEMODE	TOGGLE	F	I/E AutoRange
IERANGE	IQUANT	8	I/E Range
POSFEEDENABLE	TOGGLE	F	Positive Feedback IR Comp
POSFEEDRESISTANCE	QUANT	0	Positive Feedback Resistance (ohm)
ACHSELECT	IQUANT	0	Ach Select
CABLEID	IQUANT	14	Cable ID
DCCALDATE	LABEL	12/22/2019	DC Calibration Date
ACCALDATE	LABEL	12/22/2019	AC Calibration Date
THERMOSELECT	IQUANT	1	Thermo Select
FRAMEWORKVERSION	QUANT	6.33	Framework Version
INSTRUMENTVERSION	LABEL	3.50	Instrument Version
ZCURVE	TABLE
	Pt	Time	Freq	Zreal	Zimag	Zsig	Zmod	Zphz	Idc	Vdc	IERange
	#	s	Hz	ohm	ohm	V	ohm	°	A	V	#
	0	1	1000078	2240.825	-1979.352	1	2989.838	-41.4546	-1.824949E-007	-0.0454813	8
	1	1	794390.6	2637.782	-1991.061	1	3304.878	-37.04637	-8.377442E-007	-0.0457875	8
	2	2	630984.4	3043.258	-1950.069	1	3614.442	-32.65107	5.455547E-007	-0.0461674	8
	3	2	501234.4	3421.859	-1838.153	1	3884.317	-28.24379	2.474949E-007	-0.0462276	8
	4	2	398109.4	3733.402	-1681.763	1	4094.706	-24.24984	2.737482E-006	-0.0466409	8
	5	3	316265.6	4014.354	-1489.042	1	4281.621	-20.3513	-1.005467E-006	-0.0459752	8
	6	3	251203.1	4208.797	-1334.768	1	4415.379	-17.59578	-5.005259E-008	-0.0460361	8
	7	3	199546.9	4400.619	-1162.033	1	4551.458	-14.79196	-2.826101E-006	-0.0455467	8
	8	4	158578.1	4513.415	-998.208	1	4622.481	-12.47105	3.490884E-007	-0.0462873	8
	9	4	125953.1	4628.871	-845.6811	1	4705.489	-10.35358	4.701715E-007	-0.046843	7
	10	4	100078.1	4692.376	-742.9926	1	4750.834	-8.997537	5.52443E-008	-0.0463027	7
	11	5	79453.13	4755.44	-667.2089	1	4802.019	-7.986712	-5.234245E-009	-0.046173	7
	12	5	63140.62	4808.788	-611.0795	1	4847.459	-7.242079	1.238507E-009	-0.0462489	7
	13	5	50203.12	4857.143	-571.2469	1	4890.62	-6.707723	4.046261E-008	-0.0462129	7
	14	6	39890.62	4900.509	-548.7439	1	4931.137	-6.389189	-3.66479E-008	-0.0461546	7
	15	6	31640.63	4944.835	-541.381	1	4974.383	-6.248094	2.060051E-008	-0.0462288	7
	16	6	25171.88	4986.987	-548.0742	1	5017.014	-6.271687	-5.084223E-009	-0.0461816	7
	17	6	20015.62	5029.781	-570.7798	1	5062.063	-6.474231	-3.651036E-008	-0.046144	7
	18	7	15890.62	5076.743	-607.2264	1	5112.929	-6.820712	3.952185E-008	-0.0462253	7
	19	7	12609.37	5126	-660.463	1	5168.374	-7.341865	-4.237241E-009	-0.0461867	7
	20	7	10078.13	5179.088	-733.71	1	5230.801	-8.06331	-1.903613E-008	-0.0461475	7
	21	8	8015.625	5231.844	-820.2225	1	5295.749	-8.910022	-2.578547E-008	-0.0461834	7
	22	8	6328.125	5292.754	-937.7808	1	5375.191	-10.04751	-3.806685E-008	-0.0461718	7
	23	8	5015.625	5358.881	-1081.572	1	5466.938	-11.4106	2.169904E-009	-0.0462618	7
	24	9	3984.375	5430.45	-1260.112	1	5574.735	-13.06403	2.119749E-008	-0.0462355	7
	25	9	3170.956	5509.138	-1476.427	1	5703.546	-15.0025	1.801891E-008	-0.0462816	7
	26	9	2527.573	5595.654	-1742.525	1	5860.694	-17.29694	-1.781094E-008	-0.0461476	7
	27	10	1976.103	5702.717	-2099.585	1	6076.943	-20.21233	-3.593997E-008	-0.0461685	7
	28	10	1577.524	5818.795	-2501.682	1	6333.781	-23.26438	-2.621954E-008	-0.0462014	7
	29	10	1265.625	5939.167	-2983.889	1	6646.601	-26.67535	-1.222703E-008	-0.0462301	7
	30	11	998.264	6099.735	-3620.291	1	7093.185	-30.68982	3.134075E-009	-0.0462073	7
	31	11	796.875	6279.323	-4360.401	1	7644.802	-34.77636	-1.817112E-008	-0.0461538	7
	32	11	627.7902	6506.706	-5319.09	1	8404.162	-39.26525	-1.725291E-008	-0.0461556	7
	33	12	505.5147	6761.128	-6377.592	1	9294.436	-43.32794	5.559911E-008	-0.0463367	7
	34	12	397.9953	7095.199	-7814.129	1	10554.74	-47.76067	9.989536E-010	-0.0462145	6
	35	12	315.5048	7494.389	-9522.08	1	12117.59	-51.79536	7.977634E-010	-0.0462161	6
	36	13	252.4038	7963.91	-11518.95	1	14003.93	-55.34101	1.107257E-009	-0.0462165	6
	37	13	198.6229	8583.641	-14137.67	1	16539.42	-58.7361	5.960627E-010	-0.046217	6
	38	13	158.3615	9308.209	-17162.93	1	19524.57	-61.52708	3.499615E-010	-0.0462199	6
	39	13	125.558	10224.09	-20931.8	1	23295.33	-63.96691	6.117565E-010	-0.0462171	6
	40	14	100.4464	11297.01	-25342.78	1	27746.69	-65.97421	2.082055E-010	-0.0462266	6
	41	14	79.00281	12740.46	-31109.87	1	33617.6	-67.72938	4.903848E-010	-0.0462254	6
	42	14	63.3446	14657.82	-37647.52	1	40400.33	-68.72688	4.050682E-010	-0.0462259	6
	43	15	49.86702	16953.7	-46211.01	1	49222.82	-69.85313	2.471478E-011	-0.0462274	6
	44	15	39.72458	19678.94	-56034.11	1	59389.24	-70.64894	6.582009E-010	-0.0462224	6
	45	16	31.6723	23202.79	-67930.69	1	71784.04	-71.14159	4.297221E-010	-0.0462245	6
	46	16	24.93351	28397.13	-83052.22	1	87772.82	-71.12347	2.035745E-010	-0.0462276	6
	47	16	19.86229	34707.26	-100138.2	1	105982.4	-70.88402	-6.846115E-010	-0.0462303	5
	48	16	15.83615	42665.17	-121261.2	1	128548	-70.61582	1.168112E-009	-0.046234	5
	49	17	12.40079	53965.99	-146257.5	1	155896	-69.74698	-5.27709E-010	-0.0462204	5
	50	17	9.93114	67008.91	-173624.4	1	186106.5	-68.89632	-2.440916E-010	-0.0462307	5
	51	17	7.944915	83701.34	-204960.4	1	221392.6	-67.78597	2.965155E-010	-0.0462294	5
	52	18	6.317385	104288.4	-242201.4	1	263699.8	-66.70399	3.724141E-010	-0.0462348	5
	53	19	5.008013	130129.2	-285201.5	1	313486	-65.47415	1.071405E-010	-0.0462321	5
	54	20	3.945707	162095.3	-334349.7	1	371570.4	-64.13554	1.813276E-010	-0.0462238	5
	55	21	3.158693	197358	-387898.1	1	435218.5	-63.03354	4.206441E-011	-0.0462215	5
	56	23	2.504006	240035.6	-450155.2	1	510153.7	-61.93219	2.795504E-011	-0.0462365	5
	57	24	1.998082	288256.3	-517539.8	1	592401.2	-60.88332	2.347957E-010	-0.0461915	5
	58	25	1.584686	342831.1	-597174.2	1	688585.6	-60.14034	1.802292E-010	-0.0462076	5
	59	27	1.266892	404265.4	-683172.9	1	793823.6	-59.38521	1.250817E-010	-0.0462421	5
	60	30	0.999041	479916.4	-789362.5	1	923803.5	-58.70124	9.713513E-011	-0.0462729	5
