EXPLAIN
TAG	EISPOT
TITLE	LABEL	Potentiostatic EIS	Test &Identifier
DATE	LABEL	2/25/2020	Date
TIME	LABEL	13:56:04	Time
NOTES	NOTES	1	&Notes...
	
PSTAT	PSTAT	REF600-11020	Potentiostat
VDC	POTEN	0.00000E+000	T	DC &Voltage (V)
FREQINIT	QUANT	1.00000E+006	Initial Fre&q. (Hz)
FREQFINAL	QUANT	1.00000E+000	Final Fre&q. (Hz)
PTSPERDEC	QUANT	1.00000E+001	Points/&decade
VAC	QUANT	2.50000E+001	AC &Voltage (mV rms)
AREA	QUANT	1.60000E-004	&Area (cm^2)
CONDIT	TWOPARAM	F	1.50000E+001	0.00000E+000	Conditionin&g	Time(s)	E(V)
DELAY	TWOPARAM	F	1.00000E+002	0.00000E+000	Init. De&lay	Time(s)	Stab.(mV/s)
SPEED	SELECTOR	1	&Optimize for:
ZGUESS	QUANT	1.00000E+003	E&stimated Z (ohms)
OCVCURVE	TABLE	39
	Pt	T	Vf	Vm	Ach	Over
	#	s	V vs. Ref.	V	V	bits
	0	0.258333	5.34885E-002	5.34885E-002	5.58423E-004	...........
	1	0.516667	5.34895E-002	5.35413E-002	5.67856E-004	...........
	2	0.775	5.34946E-002	5.35353E-002	5.66589E-004	...........
	3	1.03333	5.35055E-002	5.35270E-002	5.68056E-004	...........
	4	1.29167	5.35186E-002	5.35557E-002	5.62689E-004	...........
	5	1.55	5.35296E-002	5.35505E-002	5.62456E-004	...........
	6	1.80833	5.35382E-002	5.35459E-002	5.69256E-004	...........
	7	2.06667	5.35444E-002	5.35561E-002	5.71222E-004	...........
	8	2.325	5.35487E-002	5.35686E-002	5.67656E-004	...........
	9	2.58333	5.35533E-002	5.36055E-002	5.70556E-004	...........
	10	2.84167	5.35621E-002	5.36165E-002	5.67989E-004	...........
	11	3.1	5.35768E-002	5.36393E-002	5.64823E-004	...........
	12	3.35833	5.35961E-002	5.36701E-002	5.66223E-004	...........
	13	3.61667	5.36176E-002	5.36864E-002	5.74656E-004	...........
	14	3.875	5.36410E-002	5.37447E-002	5.68822E-004	...........
	15	4.13333	5.36689E-002	5.38425E-002	5.77256E-004	...........
	16	4.39167	5.37092E-002	5.39951E-002	5.67389E-004	...........
	17	4.65	5.37632E-002	5.36251E-002	5.70689E-004	...........
	18	4.90833	5.38023E-002	5.35538E-002	5.73589E-004	...........
	19	5.16667	5.37866E-002	5.36042E-002	5.62889E-004	...........
	20	5.425	5.37215E-002	5.36032E-002	5.67289E-004	...........
	21	5.68333	5.36537E-002	5.36430E-002	5.58389E-004	...........
	22	5.94167	5.36172E-002	5.36436E-002	5.74689E-004	...........
	23	6.2	5.36127E-002	5.36634E-002	5.66023E-004	...........
	24	6.45833	5.36257E-002	5.36963E-002	5.61189E-004	...........
	25	6.71667	5.36461E-002	5.37584E-002	5.67356E-004	...........
	26	6.975	5.36730E-002	5.38204E-002	5.66789E-004	...........
	27	7.23333	5.37117E-002	5.39582E-002	5.62356E-004	...........
	28	7.49167	5.37652E-002	5.38926E-002	5.63889E-004	...........
	29	7.75	5.38218E-002	5.37333E-002	5.66889E-004	...........
	30	8.00833	5.38525E-002	5.37261E-002	5.73189E-004	...........
	31	8.26667	5.38399E-002	5.37460E-002	5.65823E-004	...........
	32	8.525	5.38016E-002	5.37803E-002	5.74956E-004	...........
	33	8.78333	5.37707E-002	5.38323E-002	5.65356E-004	...........
	34	9.04167	5.37656E-002	5.38505E-002	5.62589E-004	...........
	35	9.3	5.37828E-002	5.38129E-002	5.65023E-004	...........
	36	9.5583	5.38120E-002	5.41375E-002	5.65389E-004	...........
	37	9.8167	5.38587E-002	5.41545E-002	5.72422E-004	...........
	38	10.075	5.39207E-002	5.34418E-002	5.71122E-004	...........
EOC	QUANT	0.0539207	Open Circuit (V)
PSTATMODEL	IQUANT	4	Pstat Model
PSTATSECTION	LABEL	REF600-11020	Pstat Section
PSTATSERIALNO	LABEL	11020	Pstat Serial Number
CTRLMODE	IQUANT	1	Control Mode
IESTAB	IQUANT	0	I/E Stability
CASPEED	IQUANT	1	Control Amp Speed
CONVENTION	IQUANT	1	Current Convention
ICHRANGE	IQUANT	2	Ich Range
ICHRANGEMODE	TOGGLE	F	Ich Auto Range
ICHOFFSETENABLE	TOGGLE	T	Ich Offset Enable
ICHOFFSET	QUANT	0	Ich Offset (V)
ICHFILTER	IQUANT	3	Ich Filter
VCHRANGE	IQUANT	2	Vch Range
VCHRANGEMODE	TOGGLE	F	Vch Auto Range
VCHOFFSETENABLE	TOGGLE	T	Vch Offset Enable
VCHOFFSET	QUANT	0	Vch Offset (V)
VCHFILTER	IQUANT	3	Vch Filter
ACHRANGE	IQUANT	2	Ach Range
ACHOFFSETENABLE	TOGGLE	F	Ach Offset Enable
ACHOFFSET	QUANT	0	Ach Offset (V)
ACHFILTER	IQUANT	1	Ach Filter
IERANGELOWERLIMIT	IQUANT	1	I/E Range Lower Limit
IERANGEMODE	TOGGLE	F	I/E AutoRange
IERANGE	IQUANT	8	I/E Range
POSFEEDENABLE	TOGGLE	F	Positive Feedback IR Comp
POSFEEDRESISTANCE	QUANT	0	Positive Feedback Resistance (ohm)
ACHSELECT	IQUANT	0	Ach Select
CABLEID	IQUANT	14	Cable ID
DCCALDATE	LABEL	1/27/2020	DC Calibration Date
ACCALDATE	LABEL	1/27/2020	AC Calibration Date
THERMOSELECT	IQUANT	1	Thermo Select
FRAMEWORKVERSION	QUANT	6.33	Framework Version
INSTRUMENTVERSION	LABEL	3.50	Instrument Version
ZCURVE	TABLE
	Pt	Time	Freq	Zreal	Zimag	Zsig	Zmod	Zphz	Idc	Vdc	IERange
	#	s	Hz	ohm	ohm	V	ohm	°	A	V	#
	0	1	1000078	1559.586	-2123.58	1	2634.749	-53.70594	-1.528955E-006	0.0566173	8
	1	3	794390.6	1887.832	-2378.725	1	3036.814	-51.56336	4.477222E-007	0.0559861	8
	2	4	630984.4	2219.477	-2623.679	1	3436.535	-49.77076	1.168101E-006	0.0555363	8
	3	5	501234.4	2591.359	-2884.628	1	3877.656	-48.06557	2.264707E-006	0.0553363	8
	4	7	398109.4	2994.04	-3167.145	1	4358.335	-46.60936	1.465189E-008	0.0555744	8
	5	8	316265.6	3423.055	-3460.809	1	4867.7	-45.31423	-8.680552E-009	0.0556058	8
	6	9	251203.1	3864.43	-3795.351	1	5416.503	-44.4833	-1.845961E-007	0.0556351	8
	7	11	199546.9	4377.735	-4147.663	1	6030.562	-43.45415	-1.7895E-007	0.0556339	8
	8	12	158578.1	4946.103	-4579.376	1	6740.521	-42.79523	1.042178E-006	0.0553614	8
	9	14	125953.1	5581.028	-5030.26	1	7513.414	-42.02879	5.31015E-007	0.0544159	7
	10	15	100078.1	6275.17	-5542.545	1	8372.429	-41.45256	-2.057383E-008	0.0555624	7
	11	17	79453.13	7081.678	-6100.352	1	9346.896	-40.74252	-2.822423E-008	0.0555856	7
	12	18	63140.62	7992.265	-6683.447	1	10418.48	-39.9037	1.922223E-008	0.0555101	7
	13	19	50203.12	9014.439	-7255.691	1	11571.74	-38.83047	-2.39024E-008	0.0555426	7
	14	21	39890.62	10149.21	-7827.824	1	12817.22	-37.64208	6.131375E-008	0.0554413	7
	15	22	31640.63	11379.16	-8333.973	1	14104.62	-36.21865	-1.700006E-008	0.0555176	7
	16	23	25171.88	12653.08	-8811.691	1	15419.03	-34.85361	-2.57042E-008	0.0555516	7
	17	25	20015.62	13980.35	-9284.188	1	16782.32	-33.58768	-1.004254E-008	0.0555851	7
	18	26	15890.62	15308.36	-9707.79	1	18126.96	-32.38081	1.951243E-008	0.0554503	7
	19	27	12609.37	16717.07	-10114.77	1	19538.92	-31.17631	1.248748E-009	0.0554375	6
	20	29	10078.13	17976.05	-10640.2	1	20889.05	-30.62169	2.845988E-009	0.0555408	6
	21	30	8015.625	19262.64	-11282.32	1	22323.54	-30.35794	-2.376883E-010	0.0554973	6
	22	31	6328.125	20616.12	-12105.39	1	23907.42	-30.42064	1.518312E-009	0.0555313	6
	23	33	5015.625	22005.1	-13128.5	1	25623.86	-30.8208	-4.375401E-009	0.0555638	6
	24	34	3984.375	23476.1	-14379.65	1	27530.01	-31.48842	-1.942125E-009	0.0555842	6
	25	35	3170.956	25078.58	-15874.17	1	29680.38	-32.33288	-5.191753E-009	0.0555418	6
	26	37	2527.573	26861.25	-17640.85	1	32136.06	-33.29449	-2.046672E-009	0.055501	6
	27	38	1976.103	29085.4	-19888.81	1	35235.29	-34.36461	-2.526419E-009	0.0555222	6
	28	40	1577.524	31408.39	-22167.11	1	38443.05	-35.21331	-1.658341E-009	0.0554985	6
	29	41	1265.625	33934.9	-24664.28	1	41951.21	-36.01009	-2.041513E-009	0.0555785	6
	30	42	998.264	36900	-27638.95	1	46103.38	-36.83406	2.714942E-009	0.0555241	6
	31	44	796.875	39912.54	-30745.97	1	50381.79	-37.60827	-1.842894E-009	0.0554613	6
	32	45	627.7902	43239.6	-34599.51	1	55378.6	-38.66613	7.774958E-009	0.0553568	6
	33	46	505.5147	46355.85	-38721.75	1	60400.65	-39.87252	3.715779E-009	0.055402	6
	34	48	397.9953	49972.29	-44294.42	1	66777.43	-41.55313	1.75609E-010	0.0555232	6
	35	49	315.5048	53858.98	-50968.36	1	74152.3	-43.42047	-2.599471E-010	0.0555312	6
	36	50	252.4038	58178.09	-58907.43	1	82793.56	-45.3569	1.037835E-010	0.0555236	6
	37	52	198.6229	63678.54	-69233.51	1	94065.05	-47.39325	-4.932153E-011	0.055527	6
	38	53	158.3615	70185.4	-80633.99	1	106901	-48.96305	-2.348384E-010	0.0555247	5
	39	54	125.558	78347.29	-94708.13	1	122914.3	-50.40075	1.775289E-010	0.0555264	5
	40	56	100.4464	87953.55	-109668	1	140580.6	-51.27044	4.581802E-010	0.0555178	5
	41	57	79.00281	100132.1	-129870.7	1	163990.4	-52.3673	5.71296E-010	0.0555158	5
	42	59	63.3446	117864.9	-152062.1	1	192392.9	-52.22037	-2.190984E-010	0.0555131	5
	43	60	49.86702	126876.6	-173842.2	1	215218	-53.87661	-3.096084E-010	0.0555189	5
	44	61	39.72458	148534.7	-199250.4	1	248522.2	-53.29667	1.24257E-010	0.0555223	5
	45	63	31.6723	172007.2	-229999.1	1	287203.8	-53.20864	-6.536172E-011	0.0555186	5
	46	64	24.93351	199241.9	-267775.7	1	333768.1	-53.34844	8.351807E-012	0.0555186	5
	47	66	19.86229	229159.2	-308246.3	1	384096	-53.37182	-2.122581E-010	0.0555201	5
	48	67	15.83615	270118.2	-355872.6	1	446776.4	-52.80039	1.266995E-010	0.0555125	5
	49	68	12.40079	315258.8	-405341.8	1	513507.6	-52.12564	-1.290914E-010	0.0555206	5
	50	70	9.93114	374217.3	-459486.6	1	592593	-50.83978	-5.842459E-011	0.0555259	5
	51	71	7.944915	437388.6	-514175.9	1	675044.9	-49.61354	6.455566E-010	0.0555222	6
	52	73	6.317385	520033.9	-574142	1	774644.6	-47.83102	2.965555E-011	0.0555333	6
	53	76	5.008013	610516	-631357.4	1	878260.8	-45.96146	4.039334E-010	0.0555334	6
	54	79	3.945707	714584.1	-683104.7	1	988566	-43.70978	-6.837552E-011	0.0555063	5
	55	82	3.158693	819013.1	-735781.6	1	1100980	-41.93576	1.536374E-010	0.0554726	4
	56	85	2.504006	933508.9	-783669.5	1	1218842	-40.01305	-2.390763E-010	0.0554684	4
	57	88	1.998082	1042084	-825730.5	1	1329575	-38.39274	1.285281E-010	0.0554182	4
	58	91	1.584686	1159554	-875922	1	1453205	-37.06725	-1.418369E-010	0.0554457	4
	59	94	1.266892	1267355	-921741.9	1	1567098	-36.02825	1.758305E-010	0.0554172	4
	60	99	0.999041	1384986	-986675	1	1700504	-35.46638	-1.539591E-010	0.0554871	4
