EXPLAIN
TAG	EISPOT
TITLE	LABEL	Potentiostatic EIS	Test &Identifier
DATE	LABEL	6/26/2020	Date
TIME	LABEL	13:26:00	Time
NOTES	NOTES	1	&Notes...
	
PSTAT	PSTAT	REF600-11020	Potentiostat
VDC	POTEN	0.00000E+000	T	DC &Voltage (V)
FREQINIT	QUANT	1.00000E+006	Initial Fre&q. (Hz)
FREQFINAL	QUANT	1.00000E+000	Final Fre&q. (Hz)
PTSPERDEC	QUANT	1.00000E+001	Points/&decade
VAC	QUANT	2.50000E+001	AC &Voltage (mV rms)
AREA	QUANT	4.00000E-004	&Area (cm^2)
CONDIT	TWOPARAM	F	5.00000E+000	0.00000E+000	Conditionin&g	Time(s)	E(V)
DELAY	TWOPARAM	F	3.00000E+000	0.00000E+000	Init. De&lay	Time(s)	Stab.(mV/s)
SPEED	SELECTOR	0	&Optimize for:
ZGUESS	QUANT	1.00000E+003	E&stimated Z (ohms)
OCVCURVE	TABLE	39
	Pt	T	Vf	Vm	Ach	Over
	#	s	V vs. Ref.	V	V	bits
	0	0.258333	4.69259E-002	4.69259E-002	5.13150E-004	...........
	1	0.516667	4.69297E-002	4.71252E-002	5.19550E-004	...........
	2	0.775	4.69450E-002	4.68896E-002	5.19417E-004	...........
	3	1.03333	4.69701E-002	4.71255E-002	5.16117E-004	...........
	4	1.29167	4.69923E-002	4.68870E-002	5.22817E-004	...........
	5	1.55	4.70041E-002	4.71125E-002	5.20783E-004	...........
	6	1.80833	4.70070E-002	4.69008E-002	5.17750E-004	...........
	7	2.06667	4.70054E-002	4.70700E-002	5.19050E-004	...........
	8	2.325	4.70028E-002	4.69824E-002	5.20150E-004	...........
	9	2.58333	4.70035E-002	4.70674E-002	5.15283E-004	...........
	10	2.84167	4.70090E-002	4.69598E-002	5.15450E-004	...........
	11	3.1	4.70145E-002	4.70548E-002	5.19683E-004	...........
	12	3.35833	4.70129E-002	4.68171E-002	5.14883E-004	...........
	13	3.61667	4.69985E-002	4.70318E-002	5.19217E-004	...........
	14	3.875	4.69775E-002	4.70187E-002	5.17883E-004	...........
	15	4.13333	4.69681E-002	4.69961E-002	5.19017E-004	...........
	16	4.39167	4.69776E-002	4.70366E-002	5.20217E-004	...........
	17	4.65	4.69934E-002	4.69404E-002	5.20283E-004	...........
	18	4.90833	4.70035E-002	4.71120E-002	5.15983E-004	...........
	19	5.16667	4.70121E-002	4.71313E-002	5.19383E-004	...........
	20	5.425	4.70344E-002	4.72007E-002	5.19017E-004	...........
	21	5.68333	4.70724E-002	4.70372E-002	5.13250E-004	...........
	22	5.94167	4.71074E-002	4.71801E-002	5.18283E-004	...........
	23	6.2	4.71224E-002	4.69972E-002	5.20183E-004	...........
	24	6.45833	4.71191E-002	4.72147E-002	5.19217E-004	...........
	25	6.71667	4.71095E-002	4.69721E-002	5.21817E-004	...........
	26	6.975	4.71012E-002	4.71789E-002	5.23450E-004	...........
	27	7.23333	4.70958E-002	4.70754E-002	5.18483E-004	...........
	28	7.49167	4.70957E-002	4.71326E-002	5.20517E-004	...........
	29	7.75	4.70964E-002	4.68691E-002	5.18550E-004	...........
	30	8.00833	4.70826E-002	4.70522E-002	5.21317E-004	...........
	31	8.26667	4.70470E-002	4.67946E-002	5.21017E-004	...........
	32	8.525	4.70005E-002	4.70321E-002	5.23950E-004	...........
	33	8.78333	4.69582E-002	4.67568E-002	5.25617E-004	...........
	34	9.04167	4.69273E-002	4.70292E-002	5.25150E-004	...........
	35	9.3	4.69078E-002	4.67515E-002	5.24883E-004	...........
	36	9.5583	4.68958E-002	4.69598E-002	5.27050E-004	...........
	37	9.8167	4.68874E-002	4.68618E-002	5.24150E-004	...........
	38	10.075	4.68845E-002	4.69536E-002	5.20817E-004	...........
EOC	QUANT	0.0468845	Open Circuit (V)
PSTATMODEL	IQUANT	4	Pstat Model
PSTATSECTION	LABEL	REF600-11020	Pstat Section
PSTATSERIALNO	LABEL	11020	Pstat Serial Number
CTRLMODE	IQUANT	1	Control Mode
IESTAB	IQUANT	0	I/E Stability
CASPEED	IQUANT	1	Control Amp Speed
CONVENTION	IQUANT	1	Current Convention
ICHRANGE	IQUANT	2	Ich Range
ICHRANGEMODE	TOGGLE	F	Ich Auto Range
ICHOFFSETENABLE	TOGGLE	T	Ich Offset Enable
ICHOFFSET	QUANT	0	Ich Offset (V)
ICHFILTER	IQUANT	3	Ich Filter
VCHRANGE	IQUANT	2	Vch Range
VCHRANGEMODE	TOGGLE	F	Vch Auto Range
VCHOFFSETENABLE	TOGGLE	T	Vch Offset Enable
VCHOFFSET	QUANT	0	Vch Offset (V)
VCHFILTER	IQUANT	3	Vch Filter
ACHRANGE	IQUANT	2	Ach Range
ACHOFFSETENABLE	TOGGLE	F	Ach Offset Enable
ACHOFFSET	QUANT	0	Ach Offset (V)
ACHFILTER	IQUANT	3	Ach Filter
IERANGELOWERLIMIT	IQUANT	1	I/E Range Lower Limit
IERANGEMODE	TOGGLE	F	I/E AutoRange
IERANGE	IQUANT	7	I/E Range
POSFEEDENABLE	TOGGLE	F	Positive Feedback IR Comp
POSFEEDRESISTANCE	QUANT	0	Positive Feedback Resistance (ohm)
ACHSELECT	IQUANT	0	Ach Select
CABLEID	IQUANT	14	Cable ID
DCCALDATE	LABEL	6/26/2020	DC Calibration Date
ACCALDATE	LABEL	6/26/2020	AC Calibration Date
THERMOSELECT	IQUANT	1	Thermo Select
FRAMEWORKVERSION	QUANT	6.33	Framework Version
INSTRUMENTVERSION	LABEL	3.50	Instrument Version
ZCURVE	TABLE
	Pt	Time	Freq	Zreal	Zimag	Zsig	Zmod	Zphz	Idc	Vdc	IERange
	#	s	Hz	ohm	ohm	V	ohm	°	A	V	#
	0	1	1000078	674.5621	-6491.865	1	6526.817	-84.06775	-2.106479E-007	0.0496097	8
	1	2	794390.6	763.3177	-8104.967	1	8140.832	-84.61981	2.159341E-007	0.049245	8
	2	2	630984.4	874.3515	-10113.8	1	10151.52	-85.05899	-7.528671E-008	0.049045	8
	3	2	501234.4	1086.38	-12602	1	12648.74	-85.07288	1.928526E-007	0.0488862	8
	4	3	398109.4	1189.739	-15732.37	1	15777.29	-85.67532	-1.106158E-007	0.0488583	8
	5	3	316265.6	1430.596	-19613.59	1	19665.69	-85.82829	-4.259068E-008	0.048798	8
	6	3	251203.1	1650.371	-24512.82	1	24568.32	-86.14827	5.038784E-008	0.0487786	8
	7	4	199546.9	2077.599	-30612.18	1	30682.6	-86.11738	4.517092E-008	0.0487862	8
	8	4	158578.1	2630.943	-38061.82	1	38152.64	-86.04584	2.653892E-007	0.048748	8
	9	4	125953.1	3394.381	-47793.88	1	47914.27	-85.93761	-9.984911E-008	0.0488671	7
	10	5	100078.1	4141.543	-59623.12	1	59766.79	-86.0265	2.610101E-008	0.0486756	7
	11	5	79453.13	4894.728	-74542.45	1	74702.98	-86.24314	-3.691379E-008	0.0487728	7
	12	5	63140.62	6082.844	-92990.14	1	93188.88	-86.25739	-1.122524E-009	0.048759	7
	13	5	50203.12	7038.854	-115812.8	1	116026.5	-86.52197	1.383128E-008	0.0486655	7
	14	6	39890.62	8668.693	-144878.2	1	145137.3	-86.57583	-3.107203E-008	0.048766	7
	15	6	31640.63	11270.8	-180856.4	1	181207.2	-86.43399	3.567629E-008	0.0486986	7
	16	6	25171.88	12618.16	-226303.5	1	226655	-86.80862	-3.655808E-008	0.0487589	7
	17	7	20015.62	17341.33	-281963.4	1	282496.2	-86.48062	4.190615E-008	0.0486693	7
	18	7	15890.62	18865.76	-354438.5	1	354940.2	-86.95319	-3.628406E-008	0.0487576	7
	19	7	12609.37	29972.06	-442122.4	1	443137.2	-86.12178	-7.049171E-009	0.0488249	6
	20	8	10078.13	36022.76	-548113.8	1	549296.3	-86.23985	-8.024324E-009	0.0487909	6
	21	8	8015.625	46308.17	-683501.6	1	685068.6	-86.12405	-1.332269E-010	0.0487849	6
	22	8	6328.125	59059.17	-858395.4	1	860424.8	-86.06415	-8.120272E-009	0.0487863	6
	23	9	5015.625	78355.07	-1073670	1	1076526	-85.82603	6.653964E-009	0.0486834	6
	24	9	3984.375	91341.8	-1345824	1	1348921	-86.11726	-8.144276E-009	0.0488119	6
	25	9	3170.956	119334.1	-1665834	1	1670103	-85.90254	2.205882E-009	0.0485973	6
	26	10	2527.573	179358.8	-2041164	1	2049029	-84.97827	7.704688E-009	0.0485868	6
	27	10	1976.103	264621.5	-2626750	1	2640046	-84.24738	6.69195E-009	0.0486842	6
	28	10	1577.524	304176.2	-3267250	1	3281379	-84.68118	-2.919272E-009	0.0488095	6
	29	11	1265.625	500963.4	-4040558	1	4071496	-82.93233	7.556072E-010	0.0486459	5
	30	11	998.264	690995.1	-5073502	1	5120342	-82.24422	-6.344861E-010	0.0488097	5
	31	11	796.875	903024.3	-6302883	1	6367243	-81.84663	-4.070425E-010	0.0486719	5
	32	11	627.7902	1310392	-7954061	1	8061279	-80.64484	-6.536187E-010	0.0488105	5
	33	12	505.5147	1847824	-8325585	1	8528178	-77.48631	-7.806877E-010	0.0487493	5
	34	13	397.9953	2622234	-1.192008E+007	1	1.22051E+007	-77.59342	2.912772E-011	0.0487132	5
	35	13	315.5048	3935517	-1.458557E+007	1	1.510719E+007	-74.8999	3.250265E-011	0.0487116	5
	36	13	252.4038	5457841	-1.761382E+007	1	1.844003E+007	-72.78382	5.152317E-011	0.0487077	5
	37	14	198.6229	8117527	-2.182164E+007	1	2.328257E+007	-69.59509	4.884613E-011	0.0487092	5
	38	14	158.3615	1.13405E+007	-2.487223E+007	1	2.733559E+007	-65.48938	6.95343E-011	0.0487048	5
	39	14	125.558	1.678008E+007	-2.891031E+007	1	3.34272E+007	-59.86833	7.544991E-012	0.0487038	4
	40	14	100.4464	2.292192E+007	-3.029969E+007	1	3.799323E+007	-52.89225	2.864694E-011	0.0487045	4
	41	15	79.00281	3.206431E+007	-3.900199E+007	1	5.049035E+007	-50.5757	1.662311E-011	0.0487039	4
	42	15	63.3446	3.728682E+007	-5.745639E+007	1	6.849485E+007	-57.0181	6.253446E-012	0.048704	4
	43	16	49.86702	4.20744E+007	-3.603534E+007	1	5.539676E+007	-40.57897	1.054912E-011	0.0487041	4
	44	17	39.72458	5.455165E+007	-3.216584E+007	1	6.33287E+007	-30.52531	2.445098E-012	0.0487093	4
	45	17	31.6723	5.494471E+007	-2.572238E+007	1	6.066763E+007	-25.08665	3.251629E-011	0.0487058	4
	46	17	24.93351	6.27995E+007	-2.792836E+007	1	6.872969E+007	-23.9758	1.269026E-011	0.0487004	4
	47	18	19.86229	6.479222E+007	-2.674936E+007	1	7.009678E+007	-22.4332	1.680855E-011	0.0487044	4
	48	18	15.83615	8.619716E+007	-3.090088E+007	1	9.156863E+007	-19.72228	5.461624E-011	0.0487023	4
	49	19	12.40079	7.00577E+007	-1.711306E+007	1	7.211753E+007	-13.72688	1.419569E-012	0.0487056	3
	50	19	9.93114	7.521799E+007	-1.519161E+007	1	7.673677E+007	-11.4183	1.137396E-011	0.0487032	4
	51	20	7.944915	7.67222E+007	-1.522067E+007	1	7.821742E+007	-11.22103	7.248955E-012	0.0487043	4
	52	21	6.317385	7.684984E+007	-1.322349E+007	1	7.797922E+007	-9.76323	1.054078E-011	0.0487055	4
	53	22	5.008013	7.88008E+007	-1.254278E+007	1	7.979278E+007	-9.043943	1.08462E-011	0.0486873	4
	54	23	3.945707	7.987637E+007	-1.118613E+007	1	8.065583E+007	-7.972029	1.287113E-011	0.0487011	4
	55	25	3.158693	8.039677E+007	-1.103117E+007	1	8.115003E+007	-7.812721	1.218746E-011	0.0487027	4
	56	27	2.504006	8.11638E+007	-1.024101E+007	1	8.180734E+007	-7.191408	1.036754E-011	0.0486873	3
	57	28	1.998082	8.153901E+007	-1.025059E+007	1	8.21808E+007	-7.165288	8.092743E-012	0.0486429	3
	58	30	1.584686	8.244251E+007	-1.033638E+007	1	8.308796E+007	-7.146273	7.614877E-012	0.0486665	3
	59	32	1.266892	8.40867E+007	-1.098019E+007	1	8.480057E+007	-7.439688	8.254807E-012	0.0486972	3
	60	35	0.999041	8.577651E+007	-1.174315E+007	1	8.657662E+007	-7.795563	9.16147E-012	0.0487104	3
