EXPLAIN
TAG	EISPOT
TITLE	LABEL	Potentiostatic EIS	Test &Identifier
DATE	LABEL	2/25/2020	Date
TIME	LABEL	14:49:28	Time
NOTES	NOTES	1	&Notes...
	
PSTAT	PSTAT	REF600-11020	Potentiostat
VDC	POTEN	0.00000E+000	T	DC &Voltage (V)
FREQINIT	QUANT	1.00000E+006	Initial Fre&q. (Hz)
FREQFINAL	QUANT	1.00000E+000	Final Fre&q. (Hz)
PTSPERDEC	QUANT	1.00000E+001	Points/&decade
VAC	QUANT	2.50000E+001	AC &Voltage (mV rms)
AREA	QUANT	1.60000E-004	&Area (cm^2)
CONDIT	TWOPARAM	F	1.50000E+001	0.00000E+000	Conditionin&g	Time(s)	E(V)
DELAY	TWOPARAM	F	1.00000E+002	0.00000E+000	Init. De&lay	Time(s)	Stab.(mV/s)
SPEED	SELECTOR	1	&Optimize for:
ZGUESS	QUANT	1.00000E+003	E&stimated Z (ohms)
OCVCURVE	TABLE	39
	Pt	T	Vf	Vm	Ach	Over
	#	s	V vs. Ref.	V	V	bits
	0	0.258333	8.12890E-002	8.12890E-002	5.68371E-004	...........
	1	0.516667	8.12758E-002	8.05946E-002	5.68471E-004	...........
	2	0.775	8.11970E-002	8.00769E-002	5.76338E-004	...........
	3	1.03333	8.09846E-002	7.96620E-002	5.71471E-004	...........
	4	1.29167	8.06245E-002	7.90387E-002	5.70704E-004	...........
	5	1.55	8.01533E-002	7.80563E-002	5.71238E-004	...........
	6	1.80833	7.95826E-002	7.69985E-002	5.68338E-004	...........
	7	2.06667	7.88913E-002	7.64527E-002	5.68771E-004	...........
	8	2.325	7.81160E-002	7.65466E-002	5.66571E-004	...........
	9	2.58333	7.74132E-002	7.73706E-002	5.71404E-004	...........
	10	2.84167	7.69955E-002	7.79933E-002	5.72804E-004	...........
	11	3.1	7.69745E-002	7.80676E-002	5.68938E-004	...........
	12	3.35833	7.72591E-002	7.81930E-002	5.72538E-004	...........
	13	3.61667	7.76304E-002	7.79485E-002	5.64038E-004	...........
	14	3.875	7.79026E-002	7.77820E-002	5.67104E-004	...........
	15	4.13333	7.80022E-002	7.75883E-002	5.73971E-004	...........
	16	4.39167	7.79498E-002	7.74461E-002	5.71638E-004	...........
	17	4.65	7.78131E-002	7.75152E-002	5.76271E-004	...........
	18	4.90833	7.76683E-002	7.75789E-002	5.70738E-004	...........
	19	5.16667	7.75736E-002	7.76803E-002	5.72304E-004	...........
	20	5.425	7.75499E-002	7.76850E-002	5.72704E-004	...........
	21	5.68333	7.75790E-002	7.76818E-002	5.70538E-004	...........
	22	5.94167	7.76244E-002	7.76658E-002	5.67071E-004	...........
	23	6.2	7.76589E-002	7.76978E-002	5.66171E-004	...........
	24	6.45833	7.76766E-002	7.77100E-002	5.73737E-004	...........
	25	6.71667	7.76845E-002	7.76322E-002	5.73838E-004	...........
	26	6.975	7.76847E-002	7.76140E-002	5.76537E-004	...........
	27	7.23333	7.76729E-002	7.75917E-002	5.71671E-004	...........
	28	7.49167	7.76498E-002	7.75675E-002	5.75404E-004	...........
	29	7.75	7.76217E-002	7.75208E-002	5.68738E-004	...........
	30	8.00833	7.75932E-002	7.75490E-002	5.66304E-004	...........
	31	8.26667	7.75680E-002	7.75284E-002	5.68638E-004	...........
	32	8.525	7.75495E-002	7.75210E-002	5.69938E-004	...........
	33	8.78333	7.75372E-002	7.74874E-002	5.68938E-004	...........
	34	9.04167	7.75262E-002	7.74774E-002	5.71738E-004	...........
	35	9.3	7.75122E-002	7.74521E-002	5.66104E-004	...........
	36	9.5583	7.74951E-002	7.74452E-002	5.68471E-004	...........
	37	9.8167	7.74771E-002	7.74304E-002	5.65138E-004	...........
	38	10.075	7.74609E-002	7.74555E-002	5.71471E-004	...........
EOC	QUANT	0.0774609	Open Circuit (V)
PSTATMODEL	IQUANT	4	Pstat Model
PSTATSECTION	LABEL	REF600-11020	Pstat Section
PSTATSERIALNO	LABEL	11020	Pstat Serial Number
CTRLMODE	IQUANT	1	Control Mode
IESTAB	IQUANT	0	I/E Stability
CASPEED	IQUANT	1	Control Amp Speed
CONVENTION	IQUANT	1	Current Convention
ICHRANGE	IQUANT	2	Ich Range
ICHRANGEMODE	TOGGLE	F	Ich Auto Range
ICHOFFSETENABLE	TOGGLE	T	Ich Offset Enable
ICHOFFSET	QUANT	0	Ich Offset (V)
ICHFILTER	IQUANT	3	Ich Filter
VCHRANGE	IQUANT	2	Vch Range
VCHRANGEMODE	TOGGLE	F	Vch Auto Range
VCHOFFSETENABLE	TOGGLE	T	Vch Offset Enable
VCHOFFSET	QUANT	0	Vch Offset (V)
VCHFILTER	IQUANT	3	Vch Filter
ACHRANGE	IQUANT	2	Ach Range
ACHOFFSETENABLE	TOGGLE	F	Ach Offset Enable
ACHOFFSET	QUANT	0	Ach Offset (V)
ACHFILTER	IQUANT	3	Ach Filter
IERANGELOWERLIMIT	IQUANT	1	I/E Range Lower Limit
IERANGEMODE	TOGGLE	F	I/E AutoRange
IERANGE	IQUANT	8	I/E Range
POSFEEDENABLE	TOGGLE	F	Positive Feedback IR Comp
POSFEEDRESISTANCE	QUANT	0	Positive Feedback Resistance (ohm)
ACHSELECT	IQUANT	0	Ach Select
CABLEID	IQUANT	14	Cable ID
DCCALDATE	LABEL	1/27/2020	DC Calibration Date
ACCALDATE	LABEL	1/27/2020	AC Calibration Date
THERMOSELECT	IQUANT	1	Thermo Select
FRAMEWORKVERSION	QUANT	6.33	Framework Version
INSTRUMENTVERSION	LABEL	3.50	Instrument Version
ZCURVE	TABLE
	Pt	Time	Freq	Zreal	Zimag	Zsig	Zmod	Zphz	Idc	Vdc	IERange
	#	s	Hz	ohm	ohm	V	ohm	°	A	V	#
	0	2	1000078	1716.657	-2226.786	1	2811.67	-52.37092	6.76823E-009	0.0797087	8
	1	3	794390.6	2160.595	-2421.575	1	3245.335	-48.25979	-8.223594E-008	0.0793055	8
	2	4	630984.4	2658.32	-2537.431	1	3674.945	-43.66715	4.368376E-008	0.0793131	8
	3	6	501234.4	3182.394	-2589.662	1	4102.923	-39.13685	-6.049593E-007	0.0791776	8
	4	7	398109.4	3693.051	-2546.114	1	4485.68	-34.58369	-4.741753E-008	0.0791036	8
	5	8	316265.6	4163.737	-2423.017	1	4817.439	-30.19655	1.364017E-006	0.0787359	8
	6	10	251203.1	4599.651	-2248.086	1	5119.637	-26.04714	8.774866E-007	0.0788357	8
	7	11	199546.9	4938.386	-2091.349	1	5362.965	-22.95209	-5.496643E-007	0.079088	8
	8	12	158578.1	5215.133	-1904.819	1	5552.112	-20.06464	-9.736463E-008	0.0790654	8
	9	14	125953.1	5474.572	-1710.753	1	5735.645	-17.35354	-4.375859E-007	0.0799683	7
	10	15	100078.1	5667.92	-1572.509	1	5882.016	-15.50615	2.598085E-008	0.0789335	7
	11	17	79453.13	5832.305	-1469.821	1	6014.661	-14.14478	-1.134766E-008	0.0789617	7
	12	18	63140.62	5976.711	-1397.291	1	6137.875	-13.15879	-3.798722E-009	0.0789826	7
	13	19	50203.12	6110.28	-1353.559	1	6258.406	-12.49055	1.073091E-008	0.078994	7
	14	21	39890.62	6236.514	-1344.793	1	6379.857	-12.16849	9.148834E-009	0.0789549	7
	15	22	31640.63	6361.556	-1363.602	1	6506.059	-12.0983	-1.450707E-008	0.0789614	7
	16	23	25171.88	6486.181	-1417.188	1	6639.199	-12.32506	4.147822E-009	0.0789079	7
	17	25	20015.62	6616.462	-1501.273	1	6784.644	-12.78394	4.391451E-008	0.0789257	7
	18	26	15890.62	6757.512	-1621.822	1	6949.408	-13.49588	-1.735619E-008	0.078986	7
	19	27	12609.37	6903.653	-1782.349	1	7130.021	-14.47622	4.546707E-008	0.0788758	7
	20	29	10078.13	7065.636	-1971.253	1	7335.465	-15.58865	-8.168385E-009	0.0789357	7
	21	30	8015.625	7246.14	-2218.945	1	7578.276	-17.02586	-1.734056E-008	0.0789888	7
	22	32	6328.125	7451.839	-2525.865	1	7868.284	-18.72453	-8.769089E-009	0.0789421	7
	23	33	5015.625	7683.916	-2889.252	1	8209.162	-20.60691	-1.366615E-008	0.0789501	7
	24	34	3984.375	7941.75	-3323.896	1	8609.278	-22.71099	2.416462E-008	0.0788806	7
	25	36	3170.956	8233.702	-3838.306	1	9084.406	-24.99352	4.674989E-008	0.0788713	7
	26	37	2527.573	8568.564	-4440.283	1	9650.72	-27.39347	2.401633E-009	0.0789589	6
	27	38	1976.103	8982.271	-5230.625	1	10394.26	-30.21343	2.40007E-009	0.0788482	6
	28	40	1577.524	9419.239	-6091.726	1	11217.45	-32.89205	8.571965E-009	0.0788458	6
	29	41	1265.625	9915.71	-7092.246	1	12191.03	-35.57438	8.952501E-009	0.0787889	6
	30	42	998.264	10539.52	-8369.008	1	13458.15	-38.45168	-3.140494E-009	0.0789941	6
	31	44	796.875	11236.16	-9807.37	1	14914.28	-41.11573	1.702869E-009	0.0788773	6
	32	45	627.7902	12107.97	-11612.76	1	16776.74	-43.80403	-4.286865E-010	0.0789915	6
	33	47	505.5147	13040.3	-13540.68	1	18798.92	-46.07845	1.927278E-009	0.0788732	6
	34	48	397.9953	14250.07	-16065.02	1	21474.39	-48.42619	1.096599E-009	0.0789539	6
	35	49	315.5048	15660.85	-18952.64	1	24585.86	-50.43258	7.986925E-010	0.07895	6
	36	51	252.4038	17252.04	-22210.3	1	28123.48	-52.16142	6.653607E-010	0.0789564	6
	37	52	198.6229	19266.1	-26325.38	1	32622.21	-53.80165	9.192995E-010	0.0789525	6
	38	53	158.3615	21515.01	-30901.77	1	37653.89	-55.15288	1.23136E-009	0.0789511	6
	39	55	125.558	24185.2	-36408.45	1	43709.25	-56.40493	9.97627E-010	0.078955	6
	40	56	100.4464	27187.7	-42670.46	1	50595.84	-57.49655	5.832902E-010	0.0789546	6
	41	58	79.00281	30772.84	-50657.27	1	59271.63	-58.72252	1.374236E-009	0.0789499	6
	42	59	63.3446	34502.04	-59868.41	1	69098.6	-60.04524	7.782794E-010	0.078956	6
	43	60	49.86702	39883.66	-69919.53	1	80495.01	-60.2986	6.417228E-010	0.0789495	6
	44	62	39.72458	45366.73	-83007.8	1	94596.17	-61.34182	9.881729E-010	0.0789572	6
	45	63	31.6723	52172.27	-97972.5	1	110998	-61.96382	2.64333E-010	0.0789519	5
	46	65	24.93351	60415.98	-117172.8	1	131831.6	-62.72372	2.969204E-010	0.0789513	5
	47	66	19.86229	70249.6	-139033	1	155772.9	-63.19378	4.41707E-010	0.0789569	5
	48	67	15.83615	82759.65	-164477.9	1	184125.3	-63.29002	-3.007424E-010	0.0789539	5
	49	69	12.40079	98153.1	-197065.9	1	220156.7	-63.52337	-1.774811E-010	0.0789551	5
	50	70	9.93114	115988.5	-232377.1	1	259716.1	-63.47442	2.529923E-010	0.0789553	5
	51	72	7.944915	137539.4	-273888.6	1	306483.4	-63.33545	-1.389248E-010	0.078957	5
	52	73	6.317385	168101.4	-322052.6	1	363284.9	-62.43684	-1.006082E-010	0.0789486	5
	53	76	5.008013	205070.7	-378211.2	1	430229.8	-61.53292	-1.134162E-010	0.0789517	5
	54	78	3.945707	252674.2	-442690.7	1	509724.8	-60.2836	7.789951E-011	0.0789545	5
	55	81	3.158693	306335.9	-508755.3	1	593863.3	-58.94667	2.070408E-011	0.0789457	5
	56	84	2.504006	372709.1	-583082.6	1	692024.1	-57.4131	5.287926E-011	0.0789641	5
	57	87	1.998082	446563.2	-660589.9	1	797369.3	-55.94104	3.346403E-010	0.0789244	5
	58	90	1.584686	534739.9	-748230.6	1	919671.5	-54.44765	-2.468971E-011	0.0789308	5
	59	94	1.266892	632556.4	-836615.4	1	1048834	-52.90744	1.268571E-010	0.0788559	4
	60	98	0.999041	745758.8	-937200.1	1	1197706	-51.48966	-7.416823E-011	0.0789377	4
