EXPLAIN
TAG	EISPOT
TITLE	LABEL	Potentiostatic EIS	Test &Identifier
DATE	LABEL	6/1/2020	Date
TIME	LABEL	13:59:02	Time
NOTES	NOTES	1	&Notes...
	
PSTAT	PSTAT	REF600-11020	Potentiostat
VDC	POTEN	0.00000E+000	T	DC &Voltage (V)
FREQINIT	QUANT	1.00000E+006	Initial Fre&q. (Hz)
FREQFINAL	QUANT	1.00000E+000	Final Fre&q. (Hz)
PTSPERDEC	QUANT	1.00000E+001	Points/&decade
VAC	QUANT	2.50000E+001	AC &Voltage (mV rms)
AREA	QUANT	4.00000E-004	&Area (cm^2)
CONDIT	TWOPARAM	F	5.00000E+000	0.00000E+000	Conditionin&g	Time(s)	E(V)
DELAY	TWOPARAM	T	3.00000E+000	0.00000E+000	Init. De&lay	Time(s)	Stab.(mV/s)
SPEED	SELECTOR	0	&Optimize for:
ZGUESS	QUANT	1.00000E+003	E&stimated Z (ohms)
OCVCURVE	TABLE	12
	Pt	T	Vf	Vm	Ach	Over
	#	s	V vs. Ref.	V	V	bits
	0	0.258333	1.72733E-002	1.72733E-002	5.86963E-004	...........
	1	0.516667	1.72732E-002	1.72704E-002	5.88663E-004	...........
	2	0.775	1.72729E-002	1.72669E-002	5.84163E-004	...........
	3	1.03333	1.72718E-002	1.72635E-002	5.85830E-004	...........
	4	1.29167	1.72699E-002	1.72599E-002	5.89563E-004	...........
	5	1.55	1.72671E-002	1.72561E-002	5.89663E-004	...........
	6	1.80833	1.72638E-002	1.72553E-002	5.85963E-004	...........
	7	2.06667	1.72606E-002	1.72549E-002	5.86763E-004	...........
	8	2.325	1.72578E-002	1.72524E-002	5.85130E-004	...........
	9	2.58333	1.72558E-002	1.72514E-002	5.83930E-004	...........
	10	2.84167	1.72543E-002	1.72514E-002	5.85630E-004	...........
	11	3.1	1.72530E-002	1.72485E-002	5.86863E-004	...........
EOC	QUANT	0.017253	Open Circuit (V)
PSTATMODEL	IQUANT	4	Pstat Model
PSTATSECTION	LABEL	REF600-11020	Pstat Section
PSTATSERIALNO	LABEL	11020	Pstat Serial Number
CTRLMODE	IQUANT	1	Control Mode
IESTAB	IQUANT	0	I/E Stability
CASPEED	IQUANT	1	Control Amp Speed
CONVENTION	IQUANT	1	Current Convention
ICHRANGE	IQUANT	2	Ich Range
ICHRANGEMODE	TOGGLE	F	Ich Auto Range
ICHOFFSETENABLE	TOGGLE	T	Ich Offset Enable
ICHOFFSET	QUANT	0	Ich Offset (V)
ICHFILTER	IQUANT	3	Ich Filter
VCHRANGE	IQUANT	2	Vch Range
VCHRANGEMODE	TOGGLE	F	Vch Auto Range
VCHOFFSETENABLE	TOGGLE	T	Vch Offset Enable
VCHOFFSET	QUANT	0	Vch Offset (V)
VCHFILTER	IQUANT	3	Vch Filter
ACHRANGE	IQUANT	2	Ach Range
ACHOFFSETENABLE	TOGGLE	F	Ach Offset Enable
ACHOFFSET	QUANT	0	Ach Offset (V)
ACHFILTER	IQUANT	3	Ach Filter
IERANGELOWERLIMIT	IQUANT	1	I/E Range Lower Limit
IERANGEMODE	TOGGLE	F	I/E AutoRange
IERANGE	IQUANT	7	I/E Range
POSFEEDENABLE	TOGGLE	F	Positive Feedback IR Comp
POSFEEDRESISTANCE	QUANT	0	Positive Feedback Resistance (ohm)
ACHSELECT	IQUANT	0	Ach Select
CABLEID	IQUANT	14	Cable ID
DCCALDATE	LABEL	2/27/2020	DC Calibration Date
ACCALDATE	LABEL	2/27/2020	AC Calibration Date
THERMOSELECT	IQUANT	1	Thermo Select
FRAMEWORKVERSION	QUANT	6.33	Framework Version
INSTRUMENTVERSION	LABEL	3.50	Instrument Version
ZCURVE	TABLE
	Pt	Time	Freq	Zreal	Zimag	Zsig	Zmod	Zphz	Idc	Vdc	IERange
	#	s	Hz	ohm	ohm	V	ohm	°	A	V	#
	0	1	1000078	2035.121	-1509.175	1	2533.639	-36.55935	6.533631E-008	0.0196935	8
	1	2	794390.6	2323.677	-1511.734	1	2772.15	-33.04715	2.33677E-008	0.0193898	8
	2	2	630984.4	2602.906	-1478.495	1	2993.504	-29.59732	6.999588E-008	0.0192092	8
	3	2	501234.4	2864.848	-1416.542	1	3195.927	-26.31039	2.432148E-008	0.019111	8
	4	3	398109.4	3100.749	-1334.177	1	3375.6	-23.28104	2.840793E-008	0.0190416	8
	5	3	316265.6	3307.367	-1240.648	1	3532.405	-20.5619	2.929709E-008	0.0189809	8
	6	3	251203.1	3487.076	-1144.792	1	3670.184	-18.17478	4.234287E-008	0.0189762	8
	7	4	199546.9	3636.685	-1050.908	1	3785.483	-16.11793	7.544184E-008	0.0189455	8
	8	4	158578.1	3768.91	-969.868	1	3891.699	-14.43103	2.519305E-008	0.0189767	8
	9	4	125953.1	3912.09	-838.7524	1	4000.994	-12.10102	6.547306E-009	0.0189111	7
	10	5	100078.1	3995.604	-788.3293	1	4072.63	-11.16106	1.949659E-009	0.018905	7
	11	5	79453.13	4083.76	-759.362	1	4153.761	-10.53366	1.102667E-009	0.0188971	7
	12	5	63140.62	4168.518	-740.9916	1	4233.864	-10.07956	7.135412E-010	0.0188903	7
	13	5	50203.12	4251.216	-732.0707	1	4313.788	-9.77066	9.370251E-010	0.0188873	7
	14	6	39890.62	4332.906	-734.7064	1	4394.755	-9.62378	1.313671E-009	0.0188884	7
	15	6	31640.63	4415.385	-747.2368	1	4478.168	-9.60543	2.866999E-009	0.0188884	7
	16	6	25171.88	4497.718	-770.947	1	4563.313	-9.72646	1.188627E-009	0.0188826	7
	17	7	20015.62	4581.831	-805.6679	1	4652.126	-9.97292	2.084085E-009	0.0188838	7
	18	7	15890.62	4669.791	-853.9131	1	4747.221	-10.36256	2.377877E-009	0.0188824	7
	19	7	12609.37	4760.624	-915.6267	1	4847.877	-10.88694	2.118497E-009	0.0188839	7
	20	8	10078.13	4853.733	-991.215	1	4953.911	-11.54207	1.729368E-009	0.0188801	7
	21	8	8015.625	4953.077	-1086.575	1	5070.859	-12.37319	2.09036E-009	0.0188728	7
	22	8	6328.125	5062.898	-1207.311	1	5204.857	-13.41241	2.462319E-009	0.0188849	7
	23	9	5015.625	5176.722	-1350.883	1	5350.078	-14.62537	2.224819E-009	0.0188801	7
	24	9	3984.375	5296.173	-1524.21	1	5511.14	-16.05553	2.259248E-009	0.0188712	7
	25	9	3170.956	5422.339	-1732.685	1	5692.447	-17.72106	1.760734E-009	0.0188745	7
	26	10	2527.573	5556.691	-1985.318	1	5900.704	-19.66101	2.267041E-009	0.0188779	7
	27	10	1976.103	5712.15	-2322.958	1	6166.425	-22.13008	2.105721E-009	0.0188779	7
	28	10	1577.524	5866.346	-2701.691	1	6458.571	-24.72799	2.573446E-009	0.0188726	7
	29	10	1265.625	6033.108	-3155.729	1	6808.599	-27.61265	2.954722E-009	0.0188693	7
	30	11	998.264	6234.743	-3759.476	1	7280.5	-31.08948	2.070308E-009	0.018871	7
	31	11	796.875	6456.101	-4462.909	1	7848.49	-34.65494	3.597798E-009	0.0188772	7
	32	11	627.7902	6730.598	-5375	1	8613.453	-38.61058	3.147371E-009	0.018868	7
	33	12	505.5147	7020.007	-6386.457	1	9490.381	-42.29438	2.763451E-009	0.0188732	7
	34	12	397.9953	7405.738	-7738.081	1	10710.88	-46.25719	5.538777E-010	0.018945	6
	35	12	315.5048	7852.641	-9355.69	1	12214.46	-49.99179	6.785831E-010	0.0189396	6
	36	13	252.4038	8372.781	-11246.83	1	14021.22	-53.33391	5.506774E-010	0.018938	6
	37	13	198.6229	9057.597	-13723.97	1	16443.46	-56.57583	5.483383E-010	0.0189387	6
	38	13	158.3615	9862.56	-16580.33	1	19291.91	-59.25433	4.595771E-010	0.018937	6
	39	14	125.558	10894.99	-20134.88	1	22893.54	-61.58216	4.234439E-010	0.0189385	6
	40	14	100.4464	12146.34	-24267.95	1	27137.92	-63.4116	1.3122E-010	0.0189339	6
	41	14	79.00281	13868.29	-29656.12	1	32738.58	-64.93748	2.422784E-010	0.0189361	6
	42	15	63.3446	15902.58	-35622.59	1	39011.04	-65.94314	1.08355E-010	0.0189348	6
	43	15	49.86702	18744.85	-43371.72	1	47249.08	-66.62646	2.844638E-010	0.0189312	6
	44	15	39.72458	22246.46	-52164.6	1	56710.23	-66.90337	5.620256E-010	0.0189337	6
	45	16	31.6723	26747.53	-62496.98	1	67980.16	-66.82999	4.852586E-010	0.0189323	6
	46	16	24.93351	32905.36	-75330.05	1	82203.28	-66.40353	-1.105916E-010	0.0189347	6
	47	16	19.86229	40329.4	-89492.08	1	98159.5	-65.7414	-1.461437E-009	0.0189284	6
	48	17	15.83615	49927.95	-105601.5	1	116809.6	-64.69542	1.122281E-009	0.0189338	5
	49	17	12.40079	62965.01	-125267.5	1	140201.8	-63.31386	1.562918E-009	0.0189374	5
	50	17	9.93114	77332.95	-145128.6	1	164446.7	-61.94872	1.461937E-009	0.0189462	5
	51	18	7.944915	95205.4	-167163	1	192373.5	-60.33691	-7.640132E-010	0.0189416	5
	52	18	6.317385	116632	-191498.6	1	224220.3	-58.65655	3.78319E-010	0.0189366	5
	53	19	5.008013	141835.8	-217938.8	1	260028.3	-56.9437	7.235809E-010	0.0189437	5
	54	20	3.945707	171572.2	-246160.1	1	300053.1	-55.12371	7.997879E-011	0.0189303	5
	55	21	3.158693	201536.2	-274823.6	1	340800.3	-53.74632	4.377361E-010	0.0189453	5
	56	22	2.504006	235401.9	-306275.2	1	386288.2	-52.45427	2.248932E-011	0.0189366	5
	57	23	1.998082	269481.1	-341087.1	1	434695.8	-51.68896	-1.063561E-010	0.0188974	5
	58	24	1.584686	305556.8	-380422.6	1	487940.9	-51.22844	6.998113E-011	0.0189411	5
	59	26	1.266892	343220.9	-426287	1	547285.3	-51.16106	1.441618E-010	0.0189647	5
	60	29	0.999041	384334.8	-485724.3	1	619387.9	-51.6468	1.600109E-010	0.0189683	5
