EXPLAIN
TAG	EISPOT
TITLE	LABEL	Potentiostatic EIS	Test &Identifier
DATE	LABEL	7/13/2020	Date
TIME	LABEL	20:50:20	Time
NOTES	NOTES	1	&Notes...
	
PSTAT	PSTAT	REF600-11020	Potentiostat
VDC	POTEN	0.00000E+000	T	DC &Voltage (V)
FREQINIT	QUANT	1.00000E+006	Initial Fre&q. (Hz)
FREQFINAL	QUANT	1.00000E+000	Final Fre&q. (Hz)
PTSPERDEC	QUANT	1.00000E+001	Points/&decade
VAC	QUANT	2.50000E+001	AC &Voltage (mV rms)
AREA	QUANT	4.00000E-004	&Area (cm^2)
CONDIT	TWOPARAM	F	5.00000E+000	0.00000E+000	Conditionin&g	Time(s)	E(V)
DELAY	TWOPARAM	F	3.00000E+000	0.00000E+000	Init. De&lay	Time(s)	Stab.(mV/s)
SPEED	SELECTOR	0	&Optimize for:
ZGUESS	QUANT	1.00000E+003	E&stimated Z (ohms)
OCVCURVE	TABLE	39
	Pt	T	Vf	Vm	Ach	Over
	#	s	V vs. Ref.	V	V	bits
	0	0.258333	2.02899E-001	2.02899E-001	5.18783E-004	...........
	1	0.516667	2.02899E-001	2.02900E-001	5.23150E-004	...........
	2	0.775	2.02899E-001	2.02897E-001	5.26317E-004	...........
	3	1.03333	2.02899E-001	2.02898E-001	5.25650E-004	...........
	4	1.29167	2.02898E-001	2.02898E-001	5.23350E-004	...........
	5	1.55	2.02898E-001	2.02899E-001	5.25850E-004	...........
	6	1.80833	2.02898E-001	2.02896E-001	5.29750E-004	...........
	7	2.06667	2.02898E-001	2.02900E-001	5.29150E-004	...........
	8	2.325	2.02898E-001	2.02898E-001	5.27350E-004	...........
	9	2.58333	2.02898E-001	2.02899E-001	5.28017E-004	...........
	10	2.84167	2.02898E-001	2.02899E-001	5.32150E-004	...........
	11	3.1	2.02898E-001	2.02898E-001	5.28817E-004	...........
	12	3.35833	2.02899E-001	2.02897E-001	5.26550E-004	...........
	13	3.61667	2.02898E-001	2.02899E-001	5.20083E-004	...........
	14	3.875	2.02898E-001	2.02898E-001	5.17017E-004	...........
	15	4.13333	2.02898E-001	2.02897E-001	5.22350E-004	...........
	16	4.39167	2.02898E-001	2.02897E-001	5.23483E-004	...........
	17	4.65	2.02898E-001	2.02896E-001	5.26083E-004	...........
	18	4.90833	2.02897E-001	2.02895E-001	5.19350E-004	...........
	19	5.16667	2.02897E-001	2.02896E-001	5.19550E-004	...........
	20	5.425	2.02896E-001	2.02894E-001	5.20050E-004	...........
	21	5.68333	2.02896E-001	2.02895E-001	5.20617E-004	...........
	22	5.94167	2.02895E-001	2.02892E-001	5.18650E-004	...........
	23	6.2	2.02895E-001	2.02892E-001	5.22117E-004	...........
	24	6.45833	2.02894E-001	2.02892E-001	5.21117E-004	...........
	25	6.71667	2.02893E-001	2.02892E-001	5.18417E-004	...........
	26	6.975	2.02893E-001	2.02892E-001	5.21983E-004	...........
	27	7.23333	2.02892E-001	2.02892E-001	5.19583E-004	...........
	28	7.49167	2.02892E-001	2.02892E-001	5.19550E-004	...........
	29	7.75	2.02892E-001	2.02892E-001	5.26650E-004	...........
	30	8.00833	2.02892E-001	2.02890E-001	5.25717E-004	...........
	31	8.26667	2.02892E-001	2.02888E-001	5.27017E-004	...........
	32	8.525	2.02891E-001	2.02891E-001	5.25183E-004	...........
	33	8.78333	2.02890E-001	2.02889E-001	5.23083E-004	...........
	34	9.04167	2.02890E-001	2.02888E-001	5.22117E-004	...........
	35	9.3	2.02890E-001	2.02887E-001	5.24517E-004	...........
	36	9.5583	2.02889E-001	2.02888E-001	5.20250E-004	...........
	37	9.8167	2.02889E-001	2.02887E-001	5.26950E-004	...........
	38	10.075	2.02888E-001	2.02889E-001	5.22783E-004	...........
EOC	QUANT	0.2028881	Open Circuit (V)
PSTATMODEL	IQUANT	4	Pstat Model
PSTATSECTION	LABEL	REF600-11020	Pstat Section
PSTATSERIALNO	LABEL	11020	Pstat Serial Number
CTRLMODE	IQUANT	1	Control Mode
IESTAB	IQUANT	0	I/E Stability
CASPEED	IQUANT	1	Control Amp Speed
CONVENTION	IQUANT	1	Current Convention
ICHRANGE	IQUANT	2	Ich Range
ICHRANGEMODE	TOGGLE	F	Ich Auto Range
ICHOFFSETENABLE	TOGGLE	T	Ich Offset Enable
ICHOFFSET	QUANT	0	Ich Offset (V)
ICHFILTER	IQUANT	3	Ich Filter
VCHRANGE	IQUANT	2	Vch Range
VCHRANGEMODE	TOGGLE	F	Vch Auto Range
VCHOFFSETENABLE	TOGGLE	T	Vch Offset Enable
VCHOFFSET	QUANT	0	Vch Offset (V)
VCHFILTER	IQUANT	3	Vch Filter
ACHRANGE	IQUANT	2	Ach Range
ACHOFFSETENABLE	TOGGLE	F	Ach Offset Enable
ACHOFFSET	QUANT	0	Ach Offset (V)
ACHFILTER	IQUANT	3	Ach Filter
IERANGELOWERLIMIT	IQUANT	1	I/E Range Lower Limit
IERANGEMODE	TOGGLE	F	I/E AutoRange
IERANGE	IQUANT	8	I/E Range
POSFEEDENABLE	TOGGLE	F	Positive Feedback IR Comp
POSFEEDRESISTANCE	QUANT	0	Positive Feedback Resistance (ohm)
ACHSELECT	IQUANT	0	Ach Select
CABLEID	IQUANT	14	Cable ID
DCCALDATE	LABEL	6/26/2020	DC Calibration Date
ACCALDATE	LABEL	6/26/2020	AC Calibration Date
THERMOSELECT	IQUANT	1	Thermo Select
FRAMEWORKVERSION	QUANT	6.33	Framework Version
INSTRUMENTVERSION	LABEL	3.50	Instrument Version
ZCURVE	TABLE
	Pt	Time	Freq	Zreal	Zimag	Zsig	Zmod	Zphz	Idc	Vdc	IERange
	#	s	Hz	ohm	ohm	V	ohm	°	A	V	#
	0	1	1000078	1708.157	-1762.833	1	2454.665	-45.90246	-2.615452E-008	0.2055201	8
	1	1	794390.6	1947.394	-1900.371	1	2720.984	-44.29984	2.245781E-007	0.20514	8
	2	2	630984.4	2197.062	-2045.086	1	3001.576	-42.94823	-3.214201E-008	0.2049399	8
	3	2	501234.4	2440.619	-2201.907	1	3287.099	-42.05653	5.785155E-008	0.2048121	8
	4	2	398109.4	2687.037	-2390.967	1	3596.789	-41.66319	1.719059E-008	0.2047467	8
	5	3	316265.6	2933.408	-2619.796	1	3932.965	-41.76771	6.111673E-008	0.2047115	8
	6	3	251203.1	3186.652	-2897.646	1	4307.099	-42.28048	4.526585E-008	0.2047066	8
	7	3	199546.9	3444.191	-3263.748	1	4744.945	-43.45912	6.511095E-008	0.2047088	8
	8	4	158578.1	3724.896	-3702.602	1	5252.058	-44.82802	6.398098E-008	0.2046956	8
	9	4	125953.1	4139.251	-4199.739	1	5896.711	-45.41559	5.077776E-008	0.2046057	7
	10	4	100078.1	4495.267	-4877.198	1	6632.833	-47.33353	-8.692004E-009	0.2046679	7
	11	5	79453.13	4892.595	-5687.736	1	7502.521	-49.29786	-4.122946E-009	0.2046496	7
	12	5	63140.62	5358.769	-6663.639	1	8551.052	-51.19444	4.860003E-009	0.2046398	7
	13	5	50203.12	5920.907	-7819.053	1	9807.89	-52.86551	-9.259113E-009	0.2046616	7
	14	6	39890.62	6584.52	-9213.893	1	11324.83	-54.44928	-1.070057E-008	0.2046514	7
	15	6	31640.63	7393.221	-10856.15	1	13134.52	-55.74448	5.336311E-009	0.2046555	7
	16	6	25171.88	8330.507	-12798.32	1	15270.7	-56.93964	1.474243E-008	0.204628	7
	17	7	20015.62	9473.058	-15084.57	1	17812.44	-57.87132	-8.188187E-009	0.2046558	7
	18	7	15890.62	10820.95	-17812.88	1	20842.06	-58.72221	5.268022E-009	0.2046351	7
	19	7	12609.37	12941.64	-20890.9	1	24574.7	-58.22232	3.530497E-009	0.204607	6
	20	8	10078.13	14864.48	-24541.4	1	28692.04	-58.79713	-9.791212E-010	0.2046519	6
	21	8	8015.625	17270.42	-28941.27	1	33702.59	-59.17378	-1.37451E-010	0.2046616	6
	22	8	6328.125	20372.88	-34294.36	1	39889.31	-59.28718	2.599768E-009	0.2046319	6
	23	8	5015.625	24267.31	-40385.39	1	47115.63	-58.99862	6.99363E-010	0.2046569	6
	24	9	3984.375	29184.52	-47349.26	1	55620.94	-58.35169	1.671038E-009	0.2046081	6
	25	9	3170.956	35429.27	-55112.17	1	65517.82	-57.26476	2.905572E-009	0.2046035	6
	26	9	2527.573	43302.72	-63480.55	1	76843.39	-55.70048	7.62244E-010	0.2046596	6
	27	10	1976.103	54087.95	-73148.92	1	90974.01	-53.51995	2.971699E-009	0.2046131	6
	28	10	1577.524	66356.52	-81811.9	1	105339.3	-50.95496	-1.724662E-010	0.204653	6
	29	10	1265.625	83363.7	-88171.63	1	121341.4	-46.60551	4.611559E-010	0.2046442	5
	30	11	998.264	100828.4	-95430.6	1	138828.5	-43.42459	4.246681E-010	0.2046227	5
	31	11	796.875	119371.9	-100143.6	1	155815.3	-39.99398	8.987024E-010	0.2045947	5
	32	11	627.7902	139929.4	-102030.5	1	173177.5	-36.09793	7.302184E-010	0.2045867	5
	33	12	505.5147	158331.8	-100485.3	1	187526.7	-32.40125	8.243394E-010	0.2045888	5
	34	12	397.9953	177807.5	-97101.1	1	202593.5	-28.63907	6.344744E-010	0.2046399	5
	35	12	315.5048	194496.3	-91339.67	1	214876.1	-25.15577	6.880516E-010	0.2046373	5
	36	13	252.4038	208437.5	-85085.24	1	225134.8	-22.20553	5.009738E-010	0.2046337	5
	37	13	198.6229	219868.4	-77458.4	1	233113.5	-19.40707	4.610119E-010	0.2046352	5
	38	13	158.3615	229147.5	-71389.72	1	240010.6	-17.30415	5.530909E-010	0.2046312	5
	39	14	125.558	236370	-66138.85	1	245448.8	-15.63219	5.923355E-010	0.2046303	5
	40	14	100.4464	242403.1	-62696.41	1	250379.9	-14.50148	7.195474E-010	0.2046287	5
	41	14	79.00281	249370.8	-61069.47	1	256739.7	-13.76059	5.610665E-010	0.2046271	5
	42	15	63.3446	253715.4	-60922.43	1	260927.3	-13.5023	4.488695E-010	0.2046189	5
	43	15	49.86702	258469.5	-62581.91	1	265938	-13.6108	2.878205E-010	0.2046209	5
	44	16	39.72458	262878.1	-66074.91	1	271054.9	-14.10912	4.049733E-010	0.2046271	5
	45	16	31.6723	268706.5	-71688.32	1	278105	-14.93804	4.493354E-010	0.2046219	5
	46	16	24.93351	275205.6	-79695.87	1	286512.8	-16.15031	7.809904E-010	0.2046239	5
	47	17	19.86229	279217.3	-89882.62	1	293327.7	-17.84385	2.13326E-009	0.2046294	5
	48	17	15.83615	293555	-100979.7	1	310437.5	-18.98266	-6.784079E-010	0.2046264	5
	49	17	12.40079	304107.9	-115096.2	1	325159.6	-20.73023	1.444379E-009	0.204625	5
	50	18	9.93114	313354.4	-130223.4	1	339336.3	-22.56672	1.932705E-009	0.2046287	5
	51	18	7.944915	331718.9	-148299.6	1	363359.6	-24.0877	1.83218E-010	0.2046243	5
	52	19	6.317385	350599.4	-167081.9	1	388376.5	-25.48064	-4.105195E-011	0.2046232	5
	53	19	5.008013	367416.4	-188276.7	1	412847.3	-27.13215	5.597026E-010	0.2046295	5
	54	20	3.945707	391305.1	-212799.8	1	445425	-28.53826	3.097185E-010	0.2046179	5
	55	21	3.158693	415096.1	-239110.8	1	479039.4	-29.94354	3.071029E-010	0.2046342	5
	56	22	2.504006	443018.5	-269122.8	1	518355.6	-31.27764	-1.975361E-010	0.2046304	5
	57	23	1.998082	470207.8	-303139.1	1	559453.9	-32.80954	-1.147645E-010	0.204619	5
	58	25	1.584686	500059.3	-340727.3	1	605106.9	-34.26949	1.263554E-010	0.2046588	5
	59	27	1.266892	533684.8	-385236.4	1	658199.5	-35.82335	1.816646E-010	0.2046572	5
	60	29	0.999041	569609.1	-441780.4	1	720849.8	-37.79663	1.868361E-010	0.2046385	5
