EXPLAIN
TAG	EISPOT
TITLE	LABEL	Potentiostatic EIS	Test &Identifier
DATE	LABEL	3/20/2020	Date
TIME	LABEL	14:43:16	Time
NOTES	NOTES	1	&Notes...
	
PSTAT	PSTAT	REF600-11020	Potentiostat
VDC	POTEN	0.00000E+000	T	DC &Voltage (V)
FREQINIT	QUANT	1.00000E+006	Initial Fre&q. (Hz)
FREQFINAL	QUANT	1.00000E+000	Final Fre&q. (Hz)
PTSPERDEC	QUANT	1.00000E+001	Points/&decade
VAC	QUANT	2.50000E+001	AC &Voltage (mV rms)
AREA	QUANT	4.00000E-004	&Area (cm^2)
CONDIT	TWOPARAM	F	5.00000E+000	0.00000E+000	Conditionin&g	Time(s)	E(V)
DELAY	TWOPARAM	T	3.00000E+000	0.00000E+000	Init. De&lay	Time(s)	Stab.(mV/s)
SPEED	SELECTOR	0	&Optimize for:
ZGUESS	QUANT	1.00000E+003	E&stimated Z (ohms)
OCVCURVE	TABLE	12
	Pt	T	Vf	Vm	Ach	Over
	#	s	V vs. Ref.	V	V	bits
	0	0.258333	1.27116E-001	1.27116E-001	5.63597E-004	...........
	1	0.516667	1.27116E-001	1.27104E-001	5.74463E-004	...........
	2	0.775	1.27114E-001	1.27092E-001	5.66697E-004	...........
	3	1.03333	1.27110E-001	1.27081E-001	5.66697E-004	...........
	4	1.29167	1.27103E-001	1.27064E-001	5.64963E-004	...........
	5	1.55	1.27092E-001	1.27049E-001	5.67597E-004	...........
	6	1.80833	1.27080E-001	1.27031E-001	5.67430E-004	...........
	7	2.06667	1.27065E-001	1.27006E-001	5.71630E-004	...........
	8	2.325	1.27048E-001	1.26966E-001	5.68130E-004	...........
	9	2.58333	1.27026E-001	1.26890E-001	5.73063E-004	...........
	10	2.84167	1.26997E-001	1.26939E-001	5.74997E-004	...........
	11	3.1	1.26966E-001	1.26942E-001	5.71497E-004	...........
EOC	QUANT	0.1269658	Open Circuit (V)
PSTATMODEL	IQUANT	4	Pstat Model
PSTATSECTION	LABEL	REF600-11020	Pstat Section
PSTATSERIALNO	LABEL	11020	Pstat Serial Number
CTRLMODE	IQUANT	1	Control Mode
IESTAB	IQUANT	0	I/E Stability
CASPEED	IQUANT	1	Control Amp Speed
CONVENTION	IQUANT	1	Current Convention
ICHRANGE	IQUANT	2	Ich Range
ICHRANGEMODE	TOGGLE	F	Ich Auto Range
ICHOFFSETENABLE	TOGGLE	T	Ich Offset Enable
ICHOFFSET	QUANT	0	Ich Offset (V)
ICHFILTER	IQUANT	3	Ich Filter
VCHRANGE	IQUANT	2	Vch Range
VCHRANGEMODE	TOGGLE	F	Vch Auto Range
VCHOFFSETENABLE	TOGGLE	T	Vch Offset Enable
VCHOFFSET	QUANT	0	Vch Offset (V)
VCHFILTER	IQUANT	3	Vch Filter
ACHRANGE	IQUANT	2	Ach Range
ACHOFFSETENABLE	TOGGLE	F	Ach Offset Enable
ACHOFFSET	QUANT	0	Ach Offset (V)
ACHFILTER	IQUANT	3	Ach Filter
IERANGELOWERLIMIT	IQUANT	1	I/E Range Lower Limit
IERANGEMODE	TOGGLE	F	I/E AutoRange
IERANGE	IQUANT	8	I/E Range
POSFEEDENABLE	TOGGLE	F	Positive Feedback IR Comp
POSFEEDRESISTANCE	QUANT	0	Positive Feedback Resistance (ohm)
ACHSELECT	IQUANT	0	Ach Select
CABLEID	IQUANT	14	Cable ID
DCCALDATE	LABEL	2/27/2020	DC Calibration Date
ACCALDATE	LABEL	2/27/2020	AC Calibration Date
THERMOSELECT	IQUANT	1	Thermo Select
FRAMEWORKVERSION	QUANT	6.33	Framework Version
INSTRUMENTVERSION	LABEL	3.50	Instrument Version
ZCURVE	TABLE
	Pt	Time	Freq	Zreal	Zimag	Zsig	Zmod	Zphz	Idc	Vdc	IERange
	#	s	Hz	ohm	ohm	V	ohm	°	A	V	#
	0	1	1000078	1751.326	-1423.69	1	2256.997	-39.10839	-5.001468E-007	0.1293893	8
	1	2	794390.6	1973.819	-1483.402	1	2469.097	-36.92629	4.454589E-008	0.1290566	8
	2	2	630984.4	2196.691	-1541.04	1	2683.329	-35.05074	5.012164E-007	0.1287726	8
	3	2	501234.4	2420.299	-1601.26	1	2902.047	-33.48847	-1.618161E-007	0.1287587	8
	4	3	398109.4	2651.062	-1668.175	1	3132.242	-32.18007	-3.951586E-007	0.1287714	8
	5	3	316265.6	2886.375	-1745.201	1	3372.964	-31.15859	-2.697714E-007	0.1286718	8
	6	3	251203.1	3135.875	-1826.6	1	3629.074	-30.22016	-1.107345E-007	0.1286406	8
	7	4	199546.9	3393.889	-1921.298	1	3899.983	-29.51443	-3.48286E-007	0.1286675	8
	8	4	158578.1	3666.498	-2014.803	1	4183.616	-28.78955	-8.404463E-008	0.1286363	8
	9	4	125953.1	4002.436	-2083.645	1	4512.325	-27.50122	-1.994431E-008	0.1286553	7
	10	4	100078.1	4302.808	-2190.401	1	4828.251	-26.97897	2.240359E-009	0.1285537	7
	11	5	79453.13	4641.948	-2312.411	1	5186.032	-26.48043	2.927966E-009	0.1285501	7
	12	5	63140.62	5007.778	-2427.409	1	5565.083	-25.86076	-3.786927E-009	0.1285437	7
	13	5	50203.12	5406.464	-2534.151	1	5970.911	-25.11372	4.632984E-009	0.1285387	7
	14	6	39890.62	5829.408	-2616.233	1	6389.576	-24.1705	-1.661215E-009	0.1285187	7
	15	6	31640.63	6284.242	-2674.502	1	6829.689	-23.05405	2.144485E-009	0.1285295	7
	16	6	25171.88	6745.638	-2695.184	1	7264.134	-21.77892	5.412561E-009	0.1285175	7
	17	7	20015.62	7206.293	-2670.676	1	7685.256	-20.33487	-7.554184E-009	0.1285401	7
	18	7	15890.62	7658.404	-2611.716	1	8091.49	-18.83072	-4.621294E-009	0.1285345	7
	19	7	12609.37	8088.007	-2521.811	1	8472.036	-17.31729	3.43496E-009	0.1285339	7
	20	8	10078.13	8469.117	-2411.727	1	8805.814	-15.89522	1.601894E-009	0.1285352	7
	21	8	8015.625	8834.863	-2228.963	1	9111.7	-14.15976	2.01352E-009	0.128534	6
	22	8	6328.125	9139.183	-2113.309	1	9380.338	-13.02001	1.254678E-009	0.1285728	6
	23	9	5015.625	9399.805	-2012.879	1	9612.91	-12.0868	1.267008E-009	0.1285711	6
	24	9	3984.375	9626.34	-1942.306	1	9820.33	-11.40741	2.19386E-009	0.1285389	6
	25	9	3170.956	9827.01	-1903.43	1	10009.66	-10.96208	-7.226092E-010	0.1285689	6
	26	10	2527.573	9994.1	-1901.762	1	10173.43	-10.77392	-6.293127E-010	0.128581	6
	27	10	1976.103	10159.39	-1952.97	1	10345.4	-10.8814	-6.409082E-011	0.1285618	6
	28	10	1577.524	10301.91	-2055.921	1	10505.05	-11.28608	1.821956E-010	0.1285583	6
	29	10	1265.625	10433.04	-2214.614	1	10665.5	-11.98425	1.522835E-009	0.1285301	6
	30	11	998.264	10593.11	-2462.584	1	10875.58	-13.08712	-9.401042E-010	0.128573	6
	31	11	796.875	10738.12	-2778.793	1	11091.84	-14.50863	-5.411711E-010	0.1285766	6
	32	11	627.7902	10913.93	-3214.359	1	11377.43	-16.4107	-9.614636E-010	0.1285789	6
	33	12	505.5147	11088.52	-3718.862	1	11695.53	-18.54039	1.699104E-009	0.128532	6
	34	12	397.9953	11305.6	-4417.287	1	12137.92	-21.34141	8.023356E-010	0.1285765	6
	35	12	315.5048	11547.32	-5264.668	1	12690.83	-24.50926	6.674865E-010	0.1285782	6
	36	13	252.4038	11834.62	-6270.235	1	13393.06	-27.9156	6.268711E-010	0.1285686	6
	37	13	198.6229	12209.64	-7600.973	1	14382.28	-31.90386	7.768745E-010	0.1285735	6
	38	13	158.3615	12645.91	-9147.18	1	15607.37	-35.87939	5.533294E-010	0.1285725	6
	39	14	125.558	13214.19	-11079.71	1	17244.56	-39.97885	4.357617E-010	0.1285747	6
	40	14	100.4464	13904.36	-13330.08	1	19261.94	-43.792	6.281272E-010	0.1285765	6
	41	14	79.00281	14866.47	-16266.67	1	22036.71	-47.57512	1.409384E-010	0.1285667	6
	42	15	63.3446	16018.89	-19503.98	1	25239.05	-50.60326	6.184094E-010	0.1285716	6
	43	15	49.86702	17622.63	-23715.11	1	29545.95	-53.38406	2.500989E-010	0.1285647	6
	44	15	39.72458	19591.29	-28455.85	1	34547.85	-55.45335	1.012301E-009	0.1285709	6
	45	16	31.6723	22124.28	-34002.36	1	40566.54	-56.9492	1.269526E-009	0.1285692	6
	46	16	24.93351	25578.13	-40824.03	1	48175.12	-57.93097	-5.370472E-010	0.1285664	6
	47	16	19.86229	29689.16	-48284.86	1	56682.22	-58.41367	-1.610321E-009	0.1285632	6
	48	17	15.83615	34773.22	-56715.7	1	66527.05	-58.48693	1.907313E-009	0.1285665	6
	49	17	12.40079	41561.88	-66974.16	1	78822.13	-58.17767	1.048701E-009	0.1285727	6
	50	17	9.93114	48904.55	-77165.97	1	91357.77	-57.6352	2.964869E-009	0.1285719	6
	51	18	7.944915	57535.82	-88809.65	1	105818.4	-57.06259	9.330728E-011	0.1285715	5
	52	18	6.317385	67509.89	-101874.9	1	122213.2	-56.46857	-1.065603E-010	0.128579	5
	53	19	5.008013	79035.79	-116659	1	140911.2	-55.88258	5.098741E-010	0.1285789	5
	54	20	3.945707	92186.07	-134029.6	1	162672.1	-55.47966	7.943523E-010	0.1285689	5
	55	21	3.158693	105685.6	-152244.7	1	185331.8	-55.23229	3.677838E-010	0.1285897	5
	56	22	2.504006	121391.6	-174489.9	1	212562.1	-55.17389	-8.781188E-011	0.1285775	5
	57	23	1.998082	137664.6	-199233.7	1	242168.6	-55.35667	2.749372E-010	0.1285894	5
	58	24	1.584686	157180.1	-229921.8	1	278513.3	-55.64254	4.111856E-010	0.1286174	5
	59	26	1.266892	177322.3	-265040	1	318887.8	-56.21592	3.334151E-010	0.1285972	5
	60	29	0.999041	201900.4	-308659.7	1	368828.6	-56.8105	2.678318E-010	0.1285652	5
