EXPLAIN
TAG	EISPOT
TITLE	LABEL	Potentiostatic EIS	Test &Identifier
DATE	LABEL	6/1/2020	Date
TIME	LABEL	13:39:29	Time
NOTES	NOTES	1	&Notes...
	
PSTAT	PSTAT	REF600-11020	Potentiostat
VDC	POTEN	0.00000E+000	T	DC &Voltage (V)
FREQINIT	QUANT	1.00000E+006	Initial Fre&q. (Hz)
FREQFINAL	QUANT	1.00000E+000	Final Fre&q. (Hz)
PTSPERDEC	QUANT	1.00000E+001	Points/&decade
VAC	QUANT	2.50000E+001	AC &Voltage (mV rms)
AREA	QUANT	4.00000E-004	&Area (cm^2)
CONDIT	TWOPARAM	F	5.00000E+000	0.00000E+000	Conditionin&g	Time(s)	E(V)
DELAY	TWOPARAM	T	3.00000E+000	0.00000E+000	Init. De&lay	Time(s)	Stab.(mV/s)
SPEED	SELECTOR	0	&Optimize for:
ZGUESS	QUANT	1.00000E+003	E&stimated Z (ohms)
OCVCURVE	TABLE	12
	Pt	T	Vf	Vm	Ach	Over
	#	s	V vs. Ref.	V	V	bits
	0	0.258333	2.05752E-002	2.05752E-002	5.50230E-004	...........
	1	0.516667	2.05752E-002	2.05744E-002	5.45864E-004	...........
	2	0.775	2.05751E-002	2.05720E-002	5.40597E-004	...........
	3	1.03333	2.05746E-002	2.05714E-002	5.51897E-004	...........
	4	1.29167	2.05738E-002	2.05713E-002	5.49397E-004	...........
	5	1.55	2.05728E-002	2.05693E-002	5.50264E-004	...........
	6	1.80833	2.05717E-002	2.05673E-002	5.52364E-004	...........
	7	2.06667	2.05706E-002	2.05661E-002	5.50030E-004	...........
	8	2.325	2.05693E-002	2.05678E-002	5.45364E-004	...........
	9	2.58333	2.05681E-002	2.05655E-002	5.46564E-004	...........
	10	2.84167	2.05672E-002	2.05634E-002	5.45264E-004	...........
	11	3.1	2.05663E-002	2.05618E-002	5.41564E-004	...........
EOC	QUANT	0.0205663	Open Circuit (V)
PSTATMODEL	IQUANT	4	Pstat Model
PSTATSECTION	LABEL	REF600-11020	Pstat Section
PSTATSERIALNO	LABEL	11020	Pstat Serial Number
CTRLMODE	IQUANT	1	Control Mode
IESTAB	IQUANT	0	I/E Stability
CASPEED	IQUANT	1	Control Amp Speed
CONVENTION	IQUANT	1	Current Convention
ICHRANGE	IQUANT	2	Ich Range
ICHRANGEMODE	TOGGLE	F	Ich Auto Range
ICHOFFSETENABLE	TOGGLE	T	Ich Offset Enable
ICHOFFSET	QUANT	0	Ich Offset (V)
ICHFILTER	IQUANT	3	Ich Filter
VCHRANGE	IQUANT	2	Vch Range
VCHRANGEMODE	TOGGLE	F	Vch Auto Range
VCHOFFSETENABLE	TOGGLE	T	Vch Offset Enable
VCHOFFSET	QUANT	0	Vch Offset (V)
VCHFILTER	IQUANT	3	Vch Filter
ACHRANGE	IQUANT	2	Ach Range
ACHOFFSETENABLE	TOGGLE	F	Ach Offset Enable
ACHOFFSET	QUANT	0	Ach Offset (V)
ACHFILTER	IQUANT	3	Ach Filter
IERANGELOWERLIMIT	IQUANT	1	I/E Range Lower Limit
IERANGEMODE	TOGGLE	F	I/E AutoRange
IERANGE	IQUANT	7	I/E Range
POSFEEDENABLE	TOGGLE	F	Positive Feedback IR Comp
POSFEEDRESISTANCE	QUANT	0	Positive Feedback Resistance (ohm)
ACHSELECT	IQUANT	0	Ach Select
CABLEID	IQUANT	14	Cable ID
DCCALDATE	LABEL	2/27/2020	DC Calibration Date
ACCALDATE	LABEL	2/27/2020	AC Calibration Date
THERMOSELECT	IQUANT	1	Thermo Select
FRAMEWORKVERSION	QUANT	6.33	Framework Version
INSTRUMENTVERSION	LABEL	3.50	Instrument Version
ZCURVE	TABLE
	Pt	Time	Freq	Zreal	Zimag	Zsig	Zmod	Zphz	Idc	Vdc	IERange
	#	s	Hz	ohm	ohm	V	ohm	°	A	V	#
	0	1	1000078	1541.028	-2389.903	1	2843.66	-57.18576	-1.409575E-009	0.0230504	8
	1	1	794390.6	1818.068	-2729.592	1	3279.641	-56.33406	5.212159E-008	0.0226635	8
	2	1	630984.4	2125.985	-3112.87	1	3769.585	-55.66824	2.32202E-008	0.0224573	8
	3	2	501234.4	2463.03	-3549.816	1	4320.615	-55.24526	3.706152E-008	0.0223492	8
	4	2	398109.4	2848.026	-4053.342	1	4953.87	-54.90672	3.347435E-008	0.0222757	8
	5	2	316265.6	3277.111	-4642.988	1	5683.027	-54.78481	7.962267E-008	0.0222214	8
	6	3	251203.1	3761.578	-5327.896	1	6521.958	-54.77731	3.389483E-008	0.0222484	8
	7	3	199546.9	4326.9	-6148.067	1	7518.031	-54.8628	4.029235E-008	0.0222252	8
	8	3	158578.1	5006.032	-7071.949	1	8664.457	-54.70641	4.597001E-008	0.0222271	8
	9	4	125953.1	5926.521	-8107.827	1	10042.93	-53.83458	3.866238E-009	0.0221615	7
	10	4	100078.1	6858.45	-9305.344	1	11559.75	-53.60814	2.260575E-009	0.0221472	7
	11	4	79453.13	8001.752	-10725.59	1	13381.56	-53.27547	2.590006E-009	0.022149	7
	12	5	63140.62	9376.726	-12293.47	1	15461.32	-52.66577	2.838307E-009	0.0221431	7
	13	5	50203.12	11037.74	-14061.95	1	17876.52	-51.87033	3.748128E-009	0.0221421	7
	14	5	39890.62	13058.32	-15901.14	1	20575.86	-50.60651	2.421068E-009	0.0221331	7
	15	6	31640.63	15492.52	-17904.19	1	23676.54	-49.13032	3.230396E-009	0.0221393	7
	16	6	25171.88	18350.85	-19831.75	1	27019.48	-47.22108	3.384484E-009	0.0221348	7
	17	6	20015.62	21654.63	-21791.58	1	30721.26	-45.18061	4.026445E-009	0.0221376	7
	18	7	15890.62	25399.41	-23510.69	1	34610.44	-42.78855	3.994096E-009	0.0221271	7
	19	7	12609.37	29821.87	-24627.55	1	38676.35	-39.55064	1.101318E-009	0.0221849	6
	20	7	10078.13	33967.89	-25728.74	1	42612.04	-37.14185	1.112568E-009	0.0221867	6
	21	8	8015.625	38340.28	-26568.88	1	46646.35	-34.72102	1.174608E-009	0.0221888	6
	22	8	6328.125	42913.58	-27132.51	1	50771.54	-32.3035	1.015684E-009	0.0221831	6
	23	8	5015.625	47393.27	-27478.68	1	54783.2	-30.10522	1.149137E-009	0.0221792	6
	24	8	3984.375	51728.63	-27605.89	1	58633.92	-28.08739	1.033497E-009	0.0221756	6
	25	9	3170.956	55972.63	-27647.53	1	62428.53	-26.28695	1.048343E-009	0.0221789	6
	26	9	2527.573	60120.35	-27656.63	1	66176.63	-24.70343	6.798951E-010	0.0221721	6
	27	9	1976.103	64587.84	-27560.88	1	70222.45	-23.10888	8.767495E-010	0.0221759	6
	28	10	1577.524	68639.52	-27466.22	1	73930.9	-21.8089	1.044927E-009	0.0221779	6
	29	10	1265.625	72553.38	-27330.97	1	77530.48	-20.64147	1.050458E-009	0.0221805	6
	30	10	998.264	76691.38	-27032.64	1	81316.23	-19.41684	1.119614E-009	0.0221796	6
	31	11	796.875	80417.52	-26693.02	1	84731.9	-18.36257	1.061273E-009	0.0221774	6
	32	11	627.7902	84169.56	-26447.72	1	88226.96	-17.44374	1.101036E-009	0.0221813	6
	33	11	505.5147	87590.35	-25651.86	1	91269.31	-16.32328	2.888489E-010	0.0221773	5
	34	12	397.9953	90988.71	-25796.31	1	94574.81	-15.82862	4.864445E-010	0.0221979	5
	35	12	315.5048	94194.68	-26252.34	1	97784.6	-15.57331	4.295086E-010	0.0221991	5
	36	12	252.4038	96897.9	-26933.27	1	100571.4	-15.53355	4.01456E-010	0.0221991	5
	37	13	198.6229	99793.6	-28162.04	1	103691.2	-15.75922	4.790364E-010	0.0221977	5
	38	13	158.3615	102481.9	-29876.98	1	106748.1	-16.25322	3.28436E-010	0.0221893	5
	39	13	125.558	105460.1	-32354.91	1	110311.7	-17.05589	4.062318E-010	0.0221928	5
	40	14	100.4464	108169.4	-35403.02	1	113815.6	-18.12288	5.042454E-010	0.022189	5
	41	14	79.00281	111549.5	-39711.25	1	118407.2	-19.59557	3.167053E-010	0.0221941	5
	42	14	63.3446	114875.1	-44669.81	1	123254.5	-21.24885	3.013119E-010	0.022188	5
	43	15	49.86702	118956.1	-51303.2	1	129547.6	-23.3295	3.64086E-010	0.0221882	5
	44	15	39.72458	123320.7	-58966.27	1	136693.2	-25.55497	3.287525E-010	0.0221916	5
	45	15	31.6723	128576.8	-68160.01	1	145525.8	-27.92857	3.313313E-010	0.0221874	5
	46	16	24.93351	135326.5	-79741.81	1	157073.3	-30.50893	1.73679E-010	0.0221871	5
	47	16	19.86229	142554.9	-92736.15	1	170064.4	-33.04519	1.040633E-009	0.0221913	5
	48	16	15.83615	152247.2	-107777.9	1	186535	-35.29522	-8.930331E-010	0.0221863	5
	49	16	12.40079	163834	-126552.1	1	207019.3	-37.68398	-1.327399E-009	0.0221948	5
	50	17	9.93114	176072.4	-146198.8	1	228857.1	-39.70398	-1.29047E-009	0.0221886	5
	51	17	7.944915	190708.7	-168739.5	1	254642.6	-41.50248	-4.933031E-011	0.0221915	5
	52	18	6.317385	208739.4	-195241	1	285816.7	-43.08626	-2.344372E-010	0.022188	5
	53	18	5.008013	229854	-225903.2	1	322281.1	-44.50334	-4.906225E-010	0.0221817	5
	54	19	3.945707	255376.4	-261632.4	1	365607.2	-45.69327	-2.888202E-010	0.0221894	5
	55	20	3.158693	281811.3	-300018.2	1	411616.9	-46.79234	-2.992274E-010	0.0221691	5
	56	21	2.504006	314146	-345500.7	1	466967.3	-47.72136	4.864103E-011	0.0221717	5
	57	23	1.998082	349595.4	-396688.5	1	528752.1	-48.61077	5.169119E-011	0.0221828	5
	58	24	1.584686	393647.9	-456696.7	1	602934.9	-49.24044	-8.38169E-011	0.0221306	5
	59	26	1.266892	442342.2	-525047.3	1	686543	-49.88651	-8.058008E-011	0.022129	5
	60	29	0.999041	502124.4	-607449.2	1	788113.9	-50.42247	-8.37909E-011	0.0221517	5
