EXPLAIN
TAG	EISPOT
TITLE	LABEL	Potentiostatic EIS	Test &Identifier
DATE	LABEL	1/18/2020	Date
TIME	LABEL	23:07:43	Time
NOTES	NOTES	6	&Notes...
	
	
	
	
	
	
PSTAT	PSTAT	REF600-11020	Potentiostat
VDC	POTEN	0.00000E+000	T	DC &Voltage (V)
FREQINIT	QUANT	1.00000E+006	Initial Fre&q. (Hz)
FREQFINAL	QUANT	1.00000E+000	Final Fre&q. (Hz)
PTSPERDEC	QUANT	1.00000E+001	Points/&decade
VAC	QUANT	2.50000E+001	AC &Voltage (mV rms)
AREA	QUANT	1.00000E-001	&Area (cm^2)
CONDIT	TWOPARAM	F	5.00000E+000	0.00000E+000	Conditionin&g	Time(s)	E(V)
DELAY	TWOPARAM	F	5.00000E+000	0.00000E+000	Init. De&lay	Time(s)	Stab.(mV/s)
SPEED	SELECTOR	0	&Optimize for:
ZGUESS	QUANT	5.00000E+002	E&stimated Z (ohms)
OCVCURVE	TABLE	39
	Pt	T	Vf	Vm	Ach	Over
	#	s	V vs. Ref.	V	V	bits
	0	0.258333	-1.02993E-002	-1.02993E-002	6.56346E-004	...........
	1	0.516667	-1.03032E-002	-1.05041E-002	6.65146E-004	...........
	2	0.775	-1.03239E-002	-1.05230E-002	6.62513E-004	...........
	3	1.03333	-1.03729E-002	-1.06279E-002	6.58446E-004	...........
	4	1.29167	-1.04463E-002	-1.07291E-002	6.59579E-004	...........
	5	1.55	-1.05314E-002	-1.07769E-002	6.53380E-004	...........
	6	1.80833	-1.06179E-002	-1.08315E-002	6.56613E-004	...........
	7	2.06667	-1.06960E-002	-1.07990E-002	6.57480E-004	...........
	8	2.325	-1.07559E-002	-1.08139E-002	6.60413E-004	...........
	9	2.58333	-1.08137E-002	-1.19425E-002	6.55846E-004	...........
	10	2.84167	-1.09988E-002	-1.49146E-002	6.59546E-004	...........
	11	3.1	-1.15712E-002	-1.61501E-002	6.57779E-004	...........
	12	3.35833	-1.26537E-002	-1.56391E-002	6.59646E-004	...........
	13	3.61667	-1.39385E-002	-1.48621E-002	6.61913E-004	...........
	14	3.875	-1.48869E-002	-1.45016E-002	6.59113E-004	...........
	15	4.13333	-1.52197E-002	-1.41935E-002	6.64713E-004	...........
	16	4.39167	-1.50646E-002	-1.40774E-002	6.61079E-004	...........
	17	4.65	-1.47123E-002	-1.39054E-002	6.60946E-004	...........
	18	4.90833	-1.43722E-002	-1.37704E-002	6.62713E-004	...........
	19	5.16667	-1.41148E-002	-1.36487E-002	6.59646E-004	...........
	20	5.425	-1.39288E-002	-1.35365E-002	6.58879E-004	...........
	21	5.68333	-1.37850E-002	-1.34612E-002	6.63079E-004	...........
	22	5.94167	-1.36641E-002	-1.33391E-002	6.61646E-004	...........
	23	6.2	-1.35560E-002	-1.32477E-002	6.62046E-004	...........
	24	6.45833	-1.34557E-002	-1.32404E-002	6.63113E-004	...........
	25	6.71667	-1.33654E-002	-1.31782E-002	6.60313E-004	...........
	26	6.975	-1.32925E-002	-1.32067E-002	6.62346E-004	...........
	27	7.23333	-1.32400E-002	-1.31128E-002	6.66513E-004	...........
	28	7.49167	-1.32013E-002	-1.30500E-002	6.62813E-004	...........
	29	7.75	-1.31631E-002	-1.30058E-002	6.58513E-004	...........
	30	8.00833	-1.31175E-002	-1.29816E-002	6.56879E-004	...........
	31	8.26667	-1.30684E-002	-1.29631E-002	6.60146E-004	...........
	32	8.525	-1.30248E-002	-1.29453E-002	6.58446E-004	...........
	33	8.78333	-1.29908E-002	-1.29182E-002	6.54146E-004	...........
	34	9.04167	-1.29646E-002	-1.28929E-002	6.59946E-004	...........
	35	9.3	-1.29412E-002	-1.28414E-002	6.60979E-004	...........
	36	9.5583	-1.29164E-002	-1.28525E-002	6.54879E-004	...........
	37	9.8167	-1.28901E-002	-1.28281E-002	6.55546E-004	...........
	38	10.075	-1.28663E-002	-1.28204E-002	6.55946E-004	...........
EOC	QUANT	-0.0128663	Open Circuit (V)
PSTATMODEL	IQUANT	4	Pstat Model
PSTATSECTION	LABEL	REF600-11020	Pstat Section
PSTATSERIALNO	LABEL	11020	Pstat Serial Number
CTRLMODE	IQUANT	1	Control Mode
IESTAB	IQUANT	0	I/E Stability
CASPEED	IQUANT	1	Control Amp Speed
CONVENTION	IQUANT	1	Current Convention
ICHRANGE	IQUANT	2	Ich Range
ICHRANGEMODE	TOGGLE	F	Ich Auto Range
ICHOFFSETENABLE	TOGGLE	T	Ich Offset Enable
ICHOFFSET	QUANT	0	Ich Offset (V)
ICHFILTER	IQUANT	3	Ich Filter
VCHRANGE	IQUANT	2	Vch Range
VCHRANGEMODE	TOGGLE	F	Vch Auto Range
VCHOFFSETENABLE	TOGGLE	T	Vch Offset Enable
VCHOFFSET	QUANT	0	Vch Offset (V)
VCHFILTER	IQUANT	3	Vch Filter
ACHRANGE	IQUANT	2	Ach Range
ACHOFFSETENABLE	TOGGLE	F	Ach Offset Enable
ACHOFFSET	QUANT	0	Ach Offset (V)
ACHFILTER	IQUANT	3	Ach Filter
IERANGELOWERLIMIT	IQUANT	1	I/E Range Lower Limit
IERANGEMODE	TOGGLE	F	I/E AutoRange
IERANGE	IQUANT	7	I/E Range
POSFEEDENABLE	TOGGLE	F	Positive Feedback IR Comp
POSFEEDRESISTANCE	QUANT	0	Positive Feedback Resistance (ohm)
ACHSELECT	IQUANT	0	Ach Select
CABLEID	IQUANT	14	Cable ID
DCCALDATE	LABEL	12/22/2019	DC Calibration Date
ACCALDATE	LABEL	12/22/2019	AC Calibration Date
THERMOSELECT	IQUANT	1	Thermo Select
FRAMEWORKVERSION	QUANT	6.33	Framework Version
INSTRUMENTVERSION	LABEL	3.50	Instrument Version
ZCURVE	TABLE
	Pt	Time	Freq	Zreal	Zimag	Zsig	Zmod	Zphz	Idc	Vdc	IERange
	#	s	Hz	ohm	ohm	V	ohm	°	A	V	#
	0	1	1000078	1723.721	-2213.324	1	2805.355	-52.08881	9.60555E-007	-0.0101334	8
	1	2	794390.6	1920.802	-2477.847	1	3135.156	-52.21752	-1.075359E-006	-0.0106972	8
	2	2	630984.4	2154.665	-2790.415	1	3525.478	-52.32589	-4.480824E-006	-0.009904	8
	3	2	501234.4	2370.219	-3209.484	1	3989.827	-53.55396	-5.800899E-007	-0.0107588	8
	4	3	398109.4	2598.132	-3710.127	1	4529.385	-54.99717	5.324219E-006	-0.0120657	8
	5	3	316265.6	2866.628	-4323.37	1	5187.396	-56.45348	-3.513175E-006	-0.0105253	8
	6	3	251203.1	3166.999	-5089.417	1	5994.334	-58.10717	1.96456E-006	-0.0115094	8
	7	4	199546.9	3506.355	-6039.517	1	6983.573	-59.86189	-1.195288E-006	-0.0108905	8
	8	4	158578.1	3945.986	-7183.928	1	8196.317	-61.2209	1.931252E-006	-0.0116631	8
	9	5	125953.1	4443.25	-8641.682	1	9717.05	-62.78936	7.528074E-007	-0.012257	7
	10	5	100078.1	5077.164	-10368.83	1	11545.14	-63.91103	3.900528E-008	-0.0112292	7
	11	5	79453.13	5891.973	-12517.22	1	13834.6	-64.7932	-1.365831E-008	-0.0111453	7
	12	6	63140.62	6985.657	-15126.62	1	16661.76	-65.21194	7.912433E-008	-0.0113366	7
	13	6	50203.12	8458.253	-18197.64	1	20067.29	-65.07101	2.294485E-009	-0.0111738	7
	14	6	39890.62	10475.75	-21809.59	1	24195.03	-64.34373	2.764389E-009	-0.0111761	7
	15	7	31640.63	13207.04	-26039.33	1	29197.13	-63.10608	7.291629E-008	-0.0112299	7
	16	7	25171.88	16976.73	-30556.41	1	34955.74	-60.94404	-4.646076E-008	-0.0111709	7
	17	7	20015.62	21902.57	-35576.67	1	41778.25	-58.38172	-1.290868E-008	-0.011161	7
	18	8	15890.62	28298.61	-40214.5	1	49173.34	-54.86626	-2.727456E-008	-0.0112076	7
	19	8	12609.37	36539.79	-44396.81	1	57499.85	-50.54469	7.712231E-009	-0.011386	6
	20	8	10078.13	45555.89	-47590.52	1	65880.16	-46.25133	2.366238E-009	-0.0112906	6
	21	9	8015.625	55715.02	-49603.38	1	74596.64	-41.67884	8.141309E-009	-0.0112032	6
	22	9	6328.125	66730.91	-49318.33	1	82977.78	-36.46673	-4.84439E-009	-0.0111778	6
	23	9	5015.625	76734.05	-46796.93	1	89878.07	-31.37729	-3.81951E-009	-0.0111335	6
	24	10	3984.375	85692.67	-43161	1	95948.5	-26.73312	1.580836E-008	-0.0113873	6
	25	10	3170.956	92627.09	-38364.82	1	100257.9	-22.49864	-2.807644E-009	-0.0111366	6
	26	10	2527.573	98211.3	-33612.77	1	103804	-18.89349	-3.89455E-009	-0.0111352	6
	27	10	1976.103	102810	-28693.3	1	106738.9	-15.59392	-3.851497E-009	-0.0111388	6
	28	11	1577.524	105587.7	-24227.78	1	108331.7	-12.92318	-7.495633E-009	-0.0111173	6
	29	11	1265.625	108294.9	-19890.6	1	110106.4	-10.40756	1.230381E-009	-0.0113883	5
	30	11	998.264	109984.1	-17066.54	1	111300.4	-8.820396	1.088182E-009	-0.0113877	5
	31	12	796.875	110188.2	-14880.86	1	111188.4	-7.691233	4.92354E-010	-0.0111057	5
	32	12	627.7902	111768.3	-13554.47	1	112587.2	-6.914661	-2.690219E-010	-0.011183	5
	33	12	505.5147	112842.3	-12812.98	1	113567.4	-6.478055	-9.462253E-011	-0.0110775	5
	34	13	397.9953	113093.1	-12460.79	1	113777.5	-6.287583	2.591824E-010	-0.0112101	5
	35	13	315.5048	113089.5	-12611.04	1	113790.5	-6.362982	8.867282E-010	-0.0112177	5
	36	13	252.4038	113755.6	-13314.41	1	114532.1	-6.675752	7.41515E-010	-0.0112214	5
	37	14	198.6229	114661.6	-14717.53	1	115602.3	-7.314278	4.455075E-010	-0.0112194	5
	38	14	158.3615	115264	-16559.4	1	116447.4	-8.175457	-3.636262E-011	-0.0112214	5
	39	14	125.558	116463.2	-19155.25	1	118028	-9.340079	1.891271E-010	-0.0112202	5
	40	15	100.4464	117229.2	-22553.18	1	119378.9	-10.88982	8.07686E-010	-0.0112197	5
	41	15	79.00281	119299	-27037.18	1	122324.4	-12.76945	4.717318E-010	-0.011228	5
	42	15	63.3446	121614.3	-28939.14	1	125010	-13.38508	3.640345E-010	-0.011226	5
	43	16	49.86702	123606.1	-35957.31	1	128729.9	-16.21984	-1.15414E-010	-0.0112299	5
	44	16	39.72458	127537.3	-43639.36	1	134796.7	-18.88938	5.890805E-011	-0.0112264	5
	45	16	31.6723	131489.4	-51514.62	1	141220.4	-21.39415	1.807628E-010	-0.0112258	5
	46	17	24.93351	136054.6	-60410.02	1	148863.1	-23.94185	-8.760952E-011	-0.0112248	5
	47	17	19.86229	141999.5	-70710.27	1	158631	-26.47153	-1.248152E-009	-0.0112266	5
	48	17	15.83615	148684.3	-82111.63	1	169850.9	-28.9099	9.308743E-010	-0.0112267	5
	49	18	12.40079	156063.2	-95986	1	183218.5	-31.59341	-8.704034E-010	-0.0112227	5
	50	18	9.93114	164274.3	-111426.6	1	198499.2	-34.14888	7.270591E-010	-0.0112242	5
	51	19	7.944915	172895	-130102.1	1	216377.5	-36.96115	3.987227E-010	-0.0112254	5
	52	19	6.317385	183624.1	-152625.3	1	238772.4	-39.73279	3.214061E-010	-0.0112297	5
	53	20	5.008013	195795.2	-180244.4	1	266127.4	-42.63193	3.114922E-010	-0.0112165	5
	54	21	3.945707	211204.7	-214533.6	1	301051.6	-45.44799	-1.724831E-010	-0.0112312	5
	55	22	3.158693	227786.6	-252261	1	339885.8	-47.9186	-1.683194E-011	-0.0112434	5
	56	24	2.504006	249572.7	-299602.4	1	389933.5	-50.20526	2.231415E-010	-0.0112344	5
	57	25	1.998082	275652.4	-353281.6	1	448098.3	-52.03642	3.282309E-011	-0.01127	5
	58	27	1.584686	308300.5	-419607.6	1	520691.6	-53.69397	-4.094156E-011	-0.0112896	5
	59	29	1.266892	344243	-493874	1	602008.9	-55.12251	-1.325056E-011	-0.0112598	5
	60	31	0.999041	389934.2	-584825	1	702900.4	-56.30648	8.469647E-011	-0.0112264	5
