EXPLAIN
TAG	EISPOT
TITLE	LABEL	Potentiostatic EIS	Test &Identifier
DATE	LABEL	2/25/2020	Date
TIME	LABEL	13:58:27	Time
NOTES	NOTES	1	&Notes...
	
PSTAT	PSTAT	REF600-11020	Potentiostat
VDC	POTEN	0.00000E+000	T	DC &Voltage (V)
FREQINIT	QUANT	1.00000E+006	Initial Fre&q. (Hz)
FREQFINAL	QUANT	1.00000E+000	Final Fre&q. (Hz)
PTSPERDEC	QUANT	1.00000E+001	Points/&decade
VAC	QUANT	2.50000E+001	AC &Voltage (mV rms)
AREA	QUANT	1.60000E-004	&Area (cm^2)
CONDIT	TWOPARAM	F	1.50000E+001	0.00000E+000	Conditionin&g	Time(s)	E(V)
DELAY	TWOPARAM	F	1.00000E+002	0.00000E+000	Init. De&lay	Time(s)	Stab.(mV/s)
SPEED	SELECTOR	1	&Optimize for:
ZGUESS	QUANT	1.00000E+003	E&stimated Z (ohms)
OCVCURVE	TABLE	39
	Pt	T	Vf	Vm	Ach	Over
	#	s	V vs. Ref.	V	V	bits
	0	0.258333	7.82873E-003	7.82873E-003	5.94171E-004	...........
	1	0.516667	7.82986E-003	7.88770E-003	5.93271E-004	...........
	2	0.775	7.83649E-003	7.92830E-003	5.91437E-004	...........
	3	1.03333	7.86094E-003	8.31697E-003	5.95970E-004	...........
	4	1.29167	7.91707E-003	7.91064E-003	5.92371E-004	...........
	5	1.55	7.98501E-003	7.81179E-003	5.95337E-004	...........
	6	1.80833	8.00927E-003	7.77889E-003	5.94837E-004	...........
	7	2.06667	7.96794E-003	7.89496E-003	6.01637E-004	...........
	8	2.325	7.90457E-003	7.95542E-003	5.91037E-004	...........
	9	2.58333	7.87024E-003	7.84543E-003	5.98371E-004	...........
	10	2.84167	7.87187E-003	7.96335E-003	5.95537E-004	...........
	11	3.1	7.88775E-003	7.89018E-003	6.00304E-004	...........
	12	3.35833	7.90067E-003	7.84102E-003	5.96137E-004	...........
	13	3.61667	7.89940E-003	7.73083E-003	6.03970E-004	...........
	14	3.875	7.87317E-003	7.64368E-003	5.99637E-004	...........
	15	4.13333	7.81951E-003	7.60676E-003	6.00604E-004	...........
	16	4.39167	7.74799E-003	7.50226E-003	6.03304E-004	...........
	17	4.65	7.66855E-003	7.31330E-003	6.02970E-004	...........
	18	4.90833	7.57718E-003	7.12858E-003	5.96237E-004	...........
	19	5.16667	7.46730E-003	7.29257E-003	6.06804E-004	...........
	20	5.425	7.35903E-003	7.32647E-003	6.09337E-004	...........
	21	5.68333	7.29024E-003	7.29019E-003	5.98637E-004	...........
	22	5.94167	7.27934E-003	7.69468E-003	5.99104E-004	...........
	23	6.2	7.32673E-003	7.68183E-003	5.97237E-004	...........
	24	6.45833	7.42196E-003	7.58479E-003	5.96237E-004	...........
	25	6.71667	7.52472E-003	7.54595E-003	6.04137E-004	...........
	26	6.975	7.58686E-003	7.57410E-003	5.97004E-004	...........
	27	7.23333	7.59827E-003	7.49934E-003	5.98737E-004	...........
	28	7.49167	7.57959E-003	7.47299E-003	5.91871E-004	...........
	29	7.75	7.55046E-003	7.52615E-003	6.00004E-004	...........
	30	8.00833	7.52485E-003	7.54730E-003	6.01270E-004	...........
	31	8.26667	7.51367E-003	7.52723E-003	5.95737E-004	...........
	32	8.525	7.51699E-003	7.53891E-003	5.92671E-004	...........
	33	8.78333	7.52463E-003	7.48983E-003	5.94037E-004	...........
	34	9.04167	7.52836E-003	7.58071E-003	5.96104E-004	...........
	35	9.3	7.52984E-003	7.54754E-003	5.98371E-004	...........
	36	9.5583	7.53422E-003	7.51719E-003	5.98904E-004	...........
	37	9.8167	7.53753E-003	7.44713E-003	5.94970E-004	...........
	38	10.075	7.52999E-003	7.49124E-003	5.99704E-004	...........
EOC	QUANT	0.00753	Open Circuit (V)
PSTATMODEL	IQUANT	4	Pstat Model
PSTATSECTION	LABEL	REF600-11020	Pstat Section
PSTATSERIALNO	LABEL	11020	Pstat Serial Number
CTRLMODE	IQUANT	1	Control Mode
IESTAB	IQUANT	0	I/E Stability
CASPEED	IQUANT	1	Control Amp Speed
CONVENTION	IQUANT	1	Current Convention
ICHRANGE	IQUANT	2	Ich Range
ICHRANGEMODE	TOGGLE	F	Ich Auto Range
ICHOFFSETENABLE	TOGGLE	T	Ich Offset Enable
ICHOFFSET	QUANT	0	Ich Offset (V)
ICHFILTER	IQUANT	3	Ich Filter
VCHRANGE	IQUANT	2	Vch Range
VCHRANGEMODE	TOGGLE	F	Vch Auto Range
VCHOFFSETENABLE	TOGGLE	T	Vch Offset Enable
VCHOFFSET	QUANT	0	Vch Offset (V)
VCHFILTER	IQUANT	3	Vch Filter
ACHRANGE	IQUANT	2	Ach Range
ACHOFFSETENABLE	TOGGLE	F	Ach Offset Enable
ACHOFFSET	QUANT	0	Ach Offset (V)
ACHFILTER	IQUANT	3	Ach Filter
IERANGELOWERLIMIT	IQUANT	1	I/E Range Lower Limit
IERANGEMODE	TOGGLE	F	I/E AutoRange
IERANGE	IQUANT	7	I/E Range
POSFEEDENABLE	TOGGLE	F	Positive Feedback IR Comp
POSFEEDRESISTANCE	QUANT	0	Positive Feedback Resistance (ohm)
ACHSELECT	IQUANT	0	Ach Select
CABLEID	IQUANT	14	Cable ID
DCCALDATE	LABEL	1/27/2020	DC Calibration Date
ACCALDATE	LABEL	1/27/2020	AC Calibration Date
THERMOSELECT	IQUANT	1	Thermo Select
FRAMEWORKVERSION	QUANT	6.33	Framework Version
INSTRUMENTVERSION	LABEL	3.50	Instrument Version
ZCURVE	TABLE
	Pt	Time	Freq	Zreal	Zimag	Zsig	Zmod	Zphz	Idc	Vdc	IERange
	#	s	Hz	ohm	ohm	V	ohm	°	A	V	#
	0	1	1000078	1701.111	-1881.312	1	2536.358	-47.87964	-2.023235E-006	0.0100433	8
	1	3	794390.6	1994.336	-2029.629	1	2845.482	-45.50251	6.989091E-007	0.0094283	8
	2	4	630984.4	2297.624	-2178.021	1	3165.888	-43.46925	-4.011379E-007	0.0093141	8
	3	5	501234.4	2624.2	-2321.904	1	3503.95	-41.50255	1.526801E-006	0.0088731	8
	4	7	398109.4	2967.854	-2482.683	1	3869.35	-39.91331	-1.655636E-006	0.0095051	8
	5	8	316265.6	3341.642	-2652.934	1	4266.688	-38.44611	1.052204E-006	0.0089423	8
	6	9	251203.1	3763.126	-2828.909	1	4707.85	-36.93381	-1.192166E-007	0.0091275	8
	7	11	199546.9	4240.439	-3010.657	1	5200.517	-35.37426	-2.589078E-007	0.0091307	8
	8	12	158578.1	4759.402	-3139.239	1	5701.467	-33.40831	-6.242705E-007	0.0091726	8
	9	13	125953.1	5345.443	-3227.051	1	6244.007	-31.11943	-1.908655E-007	0.0094451	7
	10	15	100078.1	5937.809	-3277.939	1	6782.511	-28.90068	-1.443642E-008	0.009045	7
	11	16	79453.13	6547.3	-3263.308	1	7315.485	-26.49261	-1.837987E-009	0.0090031	7
	12	17	63140.62	7136.674	-3177.751	1	7812.184	-24.002	3.312834E-008	0.0089574	7
	13	19	50203.12	7689.999	-3034.243	1	8266.965	-21.5327	6.183569E-008	0.0089383	7
	14	20	39890.62	8184.6	-2839.125	1	8663.043	-19.13096	-1.890742E-008	0.0090381	7
	15	22	31640.63	8624.979	-2620.222	1	9014.201	-16.8985	2.284945E-008	0.0089848	7
	16	23	25171.88	8993.501	-2401.137	1	9308.519	-14.94849	4.015431E-008	0.0089564	7
	17	25	20015.62	9301.032	-2188.42	1	9555.02	-13.24018	3.979567E-008	0.0089543	7
	18	26	15890.62	9557.1	-2000.994	1	9764.33	-11.82534	6.294593E-008	0.0089345	7
	19	28	12609.37	9777.36	-1810.335	1	9943.54	-10.48985	7.994223E-009	0.0088771	6
	20	30	10078.13	9947.37	-1705.51	1	10092.52	-9.72896	3.546549E-009	0.0089284	6
	21	31	8015.625	10104.9	-1642.334	1	10237.49	-9.231481	-3.60128E-011	0.0090622	6
	22	33	6328.125	10236.79	-1622.138	1	10364.52	-9.004312	1.85064E-009	0.0090306	6
	23	34	5015.625	10368.5	-1650.02	1	10498.97	-9.042095	-8.912785E-010	0.008969	6
	24	36	3984.375	10492.23	-1725.766	1	10633.21	-9.340403	-4.091593E-009	0.0090523	6
	25	37	3170.956	10617.14	-1852.738	1	10777.58	-9.8987	7.017775E-009	0.0089225	6
	26	39	2527.573	10740.46	-2034.127	1	10931.38	-10.72419	7.627865E-009	0.0088707	6
	27	40	1976.103	10879.17	-2304.513	1	11120.57	-11.96006	1.183299E-009	0.008932	6
	28	42	1577.524	11019.75	-2629.806	1	11329.2	-13.4223	-4.517631E-010	0.008997	6
	29	44	1265.625	11171.93	-3038.012	1	11577.63	-15.21273	-3.590775E-010	0.0090608	6
	30	45	998.264	11339.78	-3583.822	1	11892.62	-17.53862	7.155393E-009	0.0089252	6
	31	46	796.875	11530.57	-4236.908	1	12284.36	-20.17585	1.186831E-009	0.0089302	6
	32	48	627.7902	11772.9	-5096.281	1	12828.61	-23.40694	-1.059698E-009	0.0089676	6
	33	49	505.5147	12024.76	-6055.429	1	13463.4	-26.72892	3.299627E-009	0.0089207	6
	34	51	397.9953	12364.71	-7356.433	1	14387.6	-30.7507	9.78175E-010	0.0090216	6
	35	52	315.5048	12765.6	-8905.373	1	15564.9	-34.8999	8.219826E-010	0.0090295	6
	36	53	252.4038	13238.79	-10719.15	1	17034.25	-38.99631	4.079039E-010	0.0090247	6
	37	55	198.6229	13851.65	-13089.78	1	19058.08	-43.38017	6.878212E-010	0.0090244	6
	38	56	158.3615	14569.69	-15815.02	1	21503.27	-47.34699	8.549781E-010	0.009022	6
	39	57	125.558	15468.07	-19208.29	1	24662.11	-51.15616	7.031447E-010	0.0090216	6
	40	59	100.4464	16531.35	-23167.41	1	28460.75	-54.48984	1.100323E-009	0.0090216	6
	41	60	79.00281	17928.81	-28364.16	1	33555.44	-57.70328	7.376958E-010	0.0090247	6
	42	61	63.3446	19691.61	-34055.17	1	39338.46	-59.96235	9.716862E-010	0.0090221	6
	43	63	49.86702	21511.15	-41886.93	1	47087.62	-62.8171	9.429323E-010	0.009021	6
	44	64	39.72458	24058.32	-50491.87	1	55930.59	-64.52317	5.114302E-010	0.0090223	6
	45	65	31.6723	27080.17	-61118.82	1	66849.42	-66.10311	5.13859E-010	0.0090194	6
	46	67	24.93351	31501.17	-74795.7	1	81158.61	-67.16098	5.258094E-010	0.00902	6
	47	68	19.86229	36791.85	-90381.02	1	97582.6	-67.84999	3.732906E-010	0.0090216	6
	48	69	15.83615	42995.52	-109360.4	1	117508.8	-68.53751	-6.625164E-010	0.0090223	5
	49	71	12.40079	52736	-132630.7	1	142730.5	-68.31647	5.411891E-010	0.0090236	5
	50	72	9.93114	64465.97	-159055.7	1	171623.4	-67.93708	5.428828E-010	0.0090209	5
	51	74	7.944915	79045.14	-189440.9	1	205270.5	-67.35142	-3.861811E-010	0.0090241	5
	52	76	6.317385	98602	-225598.1	1	246204.9	-66.39135	-3.277827E-010	0.0090263	5
	53	78	5.008013	123924.8	-267339.2	1	294665.2	-65.12996	-1.047768E-010	0.0090168	5
	54	80	3.945707	156534.9	-315475.5	1	352176	-63.60999	3.145536E-010	0.0090239	5
	55	83	3.158693	194539.8	-365482.4	1	414032.8	-61.97441	-1.173646E-010	0.0090144	5
	56	86	2.504006	241966.3	-421090.6	1	485659.3	-60.11755	2.538224E-010	0.009012	5
	57	89	1.998082	294872.6	-478789	1	562306.6	-58.37226	-2.3788E-010	0.0090445	5
	58	92	1.584686	358109.5	-543171.9	1	650598.3	-56.60341	1.137057E-010	0.0090557	5
	59	96	1.266892	424268.8	-607748.9	1	741190.1	-55.08115	-2.397436E-010	0.0090399	5
	60	100	0.999041	500660.9	-683486.2	1	847239.5	-53.77682	2.710848E-010	0.0090138	5
