EXPLAIN
TAG	EISPOT
TITLE	LABEL	Potentiostatic EIS	Test &Identifier
DATE	LABEL	1/18/2020	Date
TIME	LABEL	23:02:53	Time
NOTES	NOTES	6	&Notes...
	
	
	
	
	
	
PSTAT	PSTAT	REF600-11020	Potentiostat
VDC	POTEN	0.00000E+000	T	DC &Voltage (V)
FREQINIT	QUANT	1.00000E+006	Initial Fre&q. (Hz)
FREQFINAL	QUANT	1.00000E+000	Final Fre&q. (Hz)
PTSPERDEC	QUANT	1.00000E+001	Points/&decade
VAC	QUANT	2.50000E+001	AC &Voltage (mV rms)
AREA	QUANT	1.00000E-001	&Area (cm^2)
CONDIT	TWOPARAM	F	5.00000E+000	0.00000E+000	Conditionin&g	Time(s)	E(V)
DELAY	TWOPARAM	F	5.00000E+000	0.00000E+000	Init. De&lay	Time(s)	Stab.(mV/s)
SPEED	SELECTOR	0	&Optimize for:
ZGUESS	QUANT	5.00000E+002	E&stimated Z (ohms)
OCVCURVE	TABLE	39
	Pt	T	Vf	Vm	Ach	Over
	#	s	V vs. Ref.	V	V	bits
	0	0.258333	6.21985E-003	6.21985E-003	6.55279E-004	...........
	1	0.516667	6.22893E-003	6.69521E-003	6.53813E-004	...........
	2	0.775	6.29686E-003	7.78294E-003	6.59246E-004	...........
	3	1.03333	6.53169E-003	8.94170E-003	6.66379E-004	...........
	4	1.29167	7.03988E-003	1.00600E-002	6.57313E-004	...........
	5	1.55	7.81634E-003	1.01427E-002	6.59979E-004	...........
	6	1.80833	8.67603E-003	9.19367E-003	6.62846E-004	...........
	7	2.06667	9.30558E-003	8.26721E-003	6.59713E-004	...........
	8	2.325	9.45237E-003	7.38991E-003	6.60346E-004	...........
	9	2.58333	9.10006E-003	7.01580E-003	6.61579E-004	...........
	10	2.84167	8.44059E-003	6.06867E-003	6.60646E-004	...........
	11	3.1	7.53090E-003	-2.60320E-003	6.59479E-004	...........
	12	3.35833	5.92141E-003	-6.44108E-003	6.58279E-004	...........
	13	3.61667	3.17061E-003	-3.81430E-003	6.61779E-004	...........
	14	3.875	-6.91433E-005	-9.05087E-004	6.60279E-004	...........
	15	4.13333	-2.30383E-003	7.65508E-004	6.58179E-004	...........
	16	4.39167	-2.68600E-003	2.29877E-003	6.58479E-004	...........
	17	4.65	-1.59747E-003	3.18206E-003	6.58046E-004	...........
	18	4.90833	5.76482E-005	3.49275E-003	6.53780E-004	...........
	19	5.16667	1.57360E-003	3.39113E-003	6.46613E-004	...........
	20	5.425	2.62491E-003	3.33492E-003	6.51746E-004	...........
	21	5.68333	3.19052E-003	3.76672E-003	6.56413E-004	...........
	22	5.94167	3.43261E-003	3.63332E-003	6.55213E-004	...........
	23	6.2	3.53850E-003	3.66959E-003	6.57913E-004	...........
	24	6.45833	3.59900E-003	3.45456E-003	6.53380E-004	...........
	25	6.71667	3.61143E-003	3.10104E-003	6.58413E-004	...........
	26	6.975	3.52781E-003	2.00835E-003	6.61879E-004	...........
	27	7.23333	3.29058E-003	2.11134E-003	6.57279E-004	...........
	28	7.49167	2.92532E-003	2.66834E-003	6.63013E-004	...........
	29	7.75	2.60324E-003	3.16227E-003	6.59746E-004	...........
	30	8.00833	2.51293E-003	3.51372E-003	6.59713E-004	...........
	31	8.26667	2.68623E-003	3.62164E-003	6.61213E-004	...........
	32	8.525	2.99891E-003	3.57890E-003	6.60646E-004	...........
	33	8.78333	3.29730E-003	3.69999E-003	6.58213E-004	...........
	34	9.04167	3.48087E-003	2.65468E-003	6.62613E-004	...........
	35	9.3	3.49132E-003	2.76356E-003	6.59513E-004	...........
	36	9.5583	3.33332E-003	3.10504E-003	6.62813E-004	...........
	37	9.8167	3.12665E-003	3.18772E-003	6.61746E-004	...........
	38	10.075	3.01002E-003	2.92294E-003	6.57113E-004	...........
EOC	QUANT	0.00301	Open Circuit (V)
PSTATMODEL	IQUANT	4	Pstat Model
PSTATSECTION	LABEL	REF600-11020	Pstat Section
PSTATSERIALNO	LABEL	11020	Pstat Serial Number
CTRLMODE	IQUANT	1	Control Mode
IESTAB	IQUANT	0	I/E Stability
CASPEED	IQUANT	1	Control Amp Speed
CONVENTION	IQUANT	1	Current Convention
ICHRANGE	IQUANT	2	Ich Range
ICHRANGEMODE	TOGGLE	F	Ich Auto Range
ICHOFFSETENABLE	TOGGLE	T	Ich Offset Enable
ICHOFFSET	QUANT	0	Ich Offset (V)
ICHFILTER	IQUANT	3	Ich Filter
VCHRANGE	IQUANT	2	Vch Range
VCHRANGEMODE	TOGGLE	F	Vch Auto Range
VCHOFFSETENABLE	TOGGLE	T	Vch Offset Enable
VCHOFFSET	QUANT	0	Vch Offset (V)
VCHFILTER	IQUANT	3	Vch Filter
ACHRANGE	IQUANT	2	Ach Range
ACHOFFSETENABLE	TOGGLE	F	Ach Offset Enable
ACHOFFSET	QUANT	0	Ach Offset (V)
ACHFILTER	IQUANT	3	Ach Filter
IERANGELOWERLIMIT	IQUANT	1	I/E Range Lower Limit
IERANGEMODE	TOGGLE	F	I/E AutoRange
IERANGE	IQUANT	7	I/E Range
POSFEEDENABLE	TOGGLE	F	Positive Feedback IR Comp
POSFEEDRESISTANCE	QUANT	0	Positive Feedback Resistance (ohm)
ACHSELECT	IQUANT	0	Ach Select
CABLEID	IQUANT	14	Cable ID
DCCALDATE	LABEL	12/22/2019	DC Calibration Date
ACCALDATE	LABEL	12/22/2019	AC Calibration Date
THERMOSELECT	IQUANT	1	Thermo Select
FRAMEWORKVERSION	QUANT	6.33	Framework Version
INSTRUMENTVERSION	LABEL	3.50	Instrument Version
ZCURVE	TABLE
	Pt	Time	Freq	Zreal	Zimag	Zsig	Zmod	Zphz	Idc	Vdc	IERange
	#	s	Hz	ohm	ohm	V	ohm	°	A	V	#
	0	1	1000078	4398.997	-3662.325	1	5723.967	-39.77862	-4.381668E-006	0.0059932	8
	1	2	794390.6	4954.609	-3754.747	1	6216.613	-37.15591	3.29469E-006	0.0045405	8
	2	2	630984.4	5561.46	-3825.572	1	6750.174	-34.52299	-2.439099E-006	0.0053728	8
	3	3	501234.4	6010.423	-3865.212	1	7145.981	-32.74446	-2.739454E-006	0.0053303	8
	4	3	398109.4	6556.778	-3970.421	1	7665.219	-31.19677	4.070496E-006	0.0039532	8
	5	4	316265.6	7159.044	-4129.467	1	8264.648	-29.97713	-1.297449E-008	0.0045645	8
	6	4	251203.1	7648.492	-4305.487	1	8777.053	-29.37602	1.370274E-007	0.0045457	8
	7	5	199546.9	8295.401	-4493.375	1	9434.199	-28.44311	-8.997519E-007	0.0048086	8
	8	5	158578.1	9056.789	-4836.524	1	10267.3	-28.1032	-1.030589E-006	0.004938	8
	9	6	125953.1	9778.27	-4919.383	1	10946	-26.70666	-5.248002E-007	0.0057599	7
	10	6	100078.1	10541.08	-5109.452	1	11714.13	-25.86032	5.052435E-008	0.0045438	7
	11	6	79453.13	11374.37	-5259.308	1	12531.42	-24.815	-6.325101E-008	0.0046753	7
	12	7	63140.62	12230.2	-5368.98	1	13356.78	-23.70117	2.013553E-008	0.0044983	7
	13	7	50203.12	13097.95	-5431.167	1	14179.35	-22.52172	4.962765E-008	0.0045286	7
	14	7	39890.62	13923.28	-5460.581	1	14955.79	-21.41465	4.44754E-008	0.0044576	7
	15	8	31640.63	14728.11	-5469.472	1	15710.9	-20.37312	-2.059753E-008	0.0045654	7
	16	8	25171.88	15494.65	-5498.232	1	16441.25	-19.53708	-4.294746E-008	0.0046866	7
	17	8	20015.62	16218.23	-5536.085	1	17137.07	-18.84732	6.995464E-008	0.0044734	7
	18	9	15890.62	16937.13	-5633.736	1	17849.52	-18.39848	-3.891347E-008	0.0045876	7
	19	9	12609.37	17694.6	-5679.05	1	18583.6	-17.79394	1.813653E-008	0.0043586	6
	20	9	10078.13	18383.73	-5916.169	1	19312.24	-17.83898	-9.645604E-009	0.0046454	6
	21	10	8015.625	19119.02	-6201.499	1	20099.64	-17.97114	-5.593996E-009	0.0047403	6
	22	10	6328.125	19916.45	-6573.215	1	20973.13	-18.26493	-8.670789E-009	0.0047052	6
	23	10	5015.625	20721.46	-7008.676	1	21874.66	-18.68722	1.884521E-008	0.0043469	6
	24	10	3984.375	21558.23	-7525.498	1	22833.97	-19.24296	-3.968473E-009	0.0045799	6
	25	11	3170.956	22458.97	-8115.725	1	23880.34	-19.86771	-9.215232E-009	0.0046214	6
	26	11	2527.573	23377.96	-8801.186	1	24979.79	-20.63003	4.972666E-009	0.0043844	6
	27	11	1976.103	24413.87	-9683.96	1	26264.35	-21.63615	5.188629E-009	0.0043836	6
	28	12	1577.524	25433.09	-10659.47	1	27576.55	-22.73944	-3.04992E-009	0.0045474	6
	29	12	1265.625	26476.03	-11789.47	1	28982.27	-24.00286	-8.607332E-010	0.0044714	6
	30	12	998.264	27677.06	-13245.96	1	30683.47	-25.5753	5.356551E-009	0.0044451	6
	31	13	796.875	28900.35	-14907.74	1	32518.78	-27.28615	7.047778E-010	0.004684	6
	32	13	627.7902	30316.15	-17051.01	1	34782.27	-29.35514	-9.768463E-009	0.0047688	6
	33	13	505.5147	31711.98	-19400.76	1	37175.79	-31.45746	-5.966071E-009	0.0047511	6
	34	14	397.9953	33429.18	-22503.91	1	40298.09	-33.94772	6.730522E-010	0.0045844	6
	35	14	315.5048	35339.78	-26176.6	1	43978.57	-36.5278	1.29987E-009	0.0045851	6
	36	14	252.4038	37429.2	-30390.39	1	48213.29	-39.07465	7.539094E-010	0.0045837	6
	37	15	198.6229	40065.75	-35831.3	1	53750.77	-41.80666	6.693352E-010	0.0045846	6
	38	15	158.3615	42924.1	-41955.59	1	60022.91	-44.34626	8.962611E-010	0.0045812	6
	39	15	125.558	46391	-49381.54	1	67754.42	-46.78851	8.327696E-010	0.0045834	6
	40	16	100.4464	50212.09	-57982.87	1	76702.46	-49.10804	3.490183E-010	0.0045792	6
	41	16	79.00281	54767.61	-68746.71	1	87895.4	-51.45715	6.989508E-010	0.0045784	6
	42	16	63.3446	61663.75	-80312.56	1	101254.8	-52.48306	4.819485E-010	0.0045752	5
	43	17	49.86702	67669.88	-96414.3	1	117791.9	-54.93629	4.26796E-010	0.0045778	5
	44	17	39.72458	74167.83	-113680.8	1	135735.7	-56.87868	4.331226E-010	0.0045765	5
	45	17	31.6723	82226.21	-134553.2	1	157688.6	-58.57066	5.870054E-010	0.0045783	5
	46	18	24.93351	93828.07	-161939.8	1	187158.2	-59.91196	2.906865E-010	0.0045715	5
	47	18	19.86229	107340.6	-192613.6	1	220504	-60.86974	2.486581E-011	0.0045799	5
	48	18	15.83615	119577	-229028.7	1	258365.7	-62.43072	-2.888169E-010	0.0045779	5
	49	19	12.40079	142525.8	-275492.5	1	310176.9	-62.64526	3.432129E-010	0.0045797	5
	50	19	9.93114	169288.8	-324355.2	1	365875.7	-62.43885	3.477511E-010	0.0045778	5
	51	20	7.944915	198267.6	-382861.2	1	431152.8	-62.62228	4.357119E-010	0.0045743	5
	52	20	6.317385	235781.2	-451844.9	1	509663.2	-62.44359	4.361782E-010	0.0045614	5
	53	21	5.008013	283958.3	-533484.9	1	604349.6	-61.97494	4.012668E-010	0.0045738	5
	54	22	3.945707	344861.9	-632352.3	1	720277.2	-61.39355	8.494632E-010	0.0045666	6
	55	24	3.158693	418392	-733909.8	1	844793.2	-60.31312	8.806836E-010	0.0045862	6
	56	26	2.504006	512863	-853906	1	996084	-59.01063	2.817678E-010	0.0045683	5
	57	27	1.998082	625008.4	-981024	1	1163204	-57.49886	2.93157E-010	0.004629	4
	58	29	1.584686	765305.7	-1123398	1	1359307	-55.73567	3.921795E-010	0.0046483	4
	59	31	1.266892	923207.8	-1265974	1	1566845	-53.89871	3.293098E-010	0.0046133	4
	60	33	0.999041	1124835	-1416847	1	1809063	-51.55395	3.224921E-010	0.0045844	4
