EXPLAIN
TAG	EISPOT
TITLE	LABEL	Potentiostatic EIS	Test &Identifier
DATE	LABEL	2/21/2020	Date
TIME	LABEL	17:33:58	Time
NOTES	NOTES	1	&Notes...
	
PSTAT	PSTAT	REF600-11020	Potentiostat
VDC	POTEN	0.00000E+000	T	DC &Voltage (V)
FREQINIT	QUANT	1.00000E+006	Initial Fre&q. (Hz)
FREQFINAL	QUANT	1.00000E+000	Final Fre&q. (Hz)
PTSPERDEC	QUANT	1.00000E+001	Points/&decade
VAC	QUANT	2.50000E+001	AC &Voltage (mV rms)
AREA	QUANT	2.08200E-005	&Area (cm^2)
CONDIT	TWOPARAM	F	1.50000E+001	0.00000E+000	Conditionin&g	Time(s)	E(V)
DELAY	TWOPARAM	F	1.00000E+002	0.00000E+000	Init. De&lay	Time(s)	Stab.(mV/s)
SPEED	SELECTOR	1	&Optimize for:
ZGUESS	QUANT	2.00000E+003	E&stimated Z (ohms)
OCVCURVE	TABLE	39
	Pt	T	Vf	Vm	Ach	Over
	#	s	V vs. Ref.	V	V	bits
	0	0.258333	-3.81461E-002	-3.81461E-002	5.78304E-004	...........
	1	0.516667	-3.81470E-002	-3.81944E-002	5.77971E-004	...........
	2	0.775	-3.81530E-002	-3.82559E-002	5.80504E-004	...........
	3	1.03333	-3.81693E-002	-3.82330E-002	5.78704E-004	...........
	4	1.29167	-3.81947E-002	-3.82689E-002	5.83271E-004	...........
	5	1.55	-3.82207E-002	-3.82476E-002	5.74404E-004	...........
	6	1.80833	-3.82400E-002	-3.82631E-002	5.75204E-004	...........
	7	2.06667	-3.82506E-002	-3.82248E-002	5.79771E-004	...........
	8	2.325	-3.82530E-002	-3.82485E-002	5.78937E-004	...........
	9	2.58333	-3.82500E-002	-3.82474E-002	5.77071E-004	...........
	10	2.84167	-3.82461E-002	-3.82425E-002	5.80204E-004	...........
	11	3.1	-3.82444E-002	-3.82446E-002	5.78604E-004	...........
	12	3.35833	-3.82442E-002	-3.82458E-002	5.76704E-004	...........
	13	3.61667	-3.82444E-002	-3.82471E-002	5.78537E-004	...........
	14	3.875	-3.82450E-002	-3.82478E-002	5.80437E-004	...........
	15	4.13333	-3.82458E-002	-3.82496E-002	5.77571E-004	...........
	16	4.39167	-3.82468E-002	-3.82484E-002	5.78304E-004	...........
	17	4.65	-3.82478E-002	-3.82526E-002	5.77071E-004	...........
	18	4.90833	-3.82490E-002	-3.82573E-002	5.74504E-004	...........
	19	5.16667	-3.82506E-002	-3.82615E-002	5.80904E-004	...........
	20	5.425	-3.82532E-002	-3.82596E-002	5.78204E-004	...........
	21	5.68333	-3.82562E-002	-3.82625E-002	5.76704E-004	...........
	22	5.94167	-3.82588E-002	-3.82656E-002	5.73271E-004	...........
	23	6.2	-3.82608E-002	-3.82654E-002	5.79271E-004	...........
	24	6.45833	-3.82627E-002	-3.82702E-002	5.77004E-004	...........
	25	6.71667	-3.82647E-002	-3.82741E-002	5.72838E-004	...........
	26	6.975	-3.82671E-002	-3.82757E-002	5.79471E-004	...........
	27	7.23333	-3.82699E-002	-3.82800E-002	5.77404E-004	...........
	28	7.49167	-3.82731E-002	-3.82859E-002	5.76304E-004	...........
	29	7.75	-3.82766E-002	-3.82917E-002	5.75504E-004	...........
	30	8.00833	-3.82808E-002	-3.82958E-002	5.74838E-004	...........
	31	8.26667	-3.82855E-002	-3.83004E-002	5.76271E-004	...........
	32	8.525	-3.82905E-002	-3.83054E-002	5.80137E-004	...........
	33	8.78333	-3.82963E-002	-3.83585E-002	5.75671E-004	...........
	34	9.04167	-3.83050E-002	-3.83134E-002	5.81771E-004	...........
	35	9.3	-3.83151E-002	-3.82983E-002	5.79804E-004	...........
	36	9.5583	-3.83201E-002	-3.82930E-002	5.78371E-004	...........
	37	9.8167	-3.83163E-002	-3.82891E-002	5.75304E-004	...........
	38	10.075	-3.83074E-002	-3.83037E-002	5.74604E-004	...........
EOC	QUANT	-0.0383074	Open Circuit (V)
PSTATMODEL	IQUANT	4	Pstat Model
PSTATSECTION	LABEL	REF600-11020	Pstat Section
PSTATSERIALNO	LABEL	11020	Pstat Serial Number
CTRLMODE	IQUANT	1	Control Mode
IESTAB	IQUANT	0	I/E Stability
CASPEED	IQUANT	1	Control Amp Speed
CONVENTION	IQUANT	1	Current Convention
ICHRANGE	IQUANT	2	Ich Range
ICHRANGEMODE	TOGGLE	F	Ich Auto Range
ICHOFFSETENABLE	TOGGLE	T	Ich Offset Enable
ICHOFFSET	QUANT	0	Ich Offset (V)
ICHFILTER	IQUANT	3	Ich Filter
VCHRANGE	IQUANT	2	Vch Range
VCHRANGEMODE	TOGGLE	F	Vch Auto Range
VCHOFFSETENABLE	TOGGLE	T	Vch Offset Enable
VCHOFFSET	QUANT	0	Vch Offset (V)
VCHFILTER	IQUANT	3	Vch Filter
ACHRANGE	IQUANT	2	Ach Range
ACHOFFSETENABLE	TOGGLE	F	Ach Offset Enable
ACHOFFSET	QUANT	0	Ach Offset (V)
ACHFILTER	IQUANT	3	Ach Filter
IERANGELOWERLIMIT	IQUANT	1	I/E Range Lower Limit
IERANGEMODE	TOGGLE	F	I/E AutoRange
IERANGE	IQUANT	7	I/E Range
POSFEEDENABLE	TOGGLE	F	Positive Feedback IR Comp
POSFEEDRESISTANCE	QUANT	0	Positive Feedback Resistance (ohm)
ACHSELECT	IQUANT	0	Ach Select
CABLEID	IQUANT	14	Cable ID
DCCALDATE	LABEL	1/27/2020	DC Calibration Date
ACCALDATE	LABEL	1/27/2020	AC Calibration Date
THERMOSELECT	IQUANT	1	Thermo Select
FRAMEWORKVERSION	QUANT	6.33	Framework Version
INSTRUMENTVERSION	LABEL	3.50	Instrument Version
ZCURVE	TABLE
	Pt	Time	Freq	Zreal	Zimag	Zsig	Zmod	Zphz	Idc	Vdc	IERange
	#	s	Hz	ohm	ohm	V	ohm	°	A	V	#
	0	1	1000078	1311.519	-1794.757	1	2222.889	-53.84252	-9.026688E-007	-0.0355136	8
	1	2	794390.6	1542.343	-2015.441	1	2537.878	-52.5745	-5.005857E-007	-0.0361849	8
	2	4	630984.4	1804.133	-2260.035	1	2891.825	-51.40046	3.221692E-007	-0.0365083	8
	3	5	501234.4	2095.484	-2525.507	1	3281.652	-50.31655	-7.115281E-007	-0.0364774	8
	4	7	398109.4	2416.602	-2827.254	1	3719.319	-49.47775	7.685467E-008	-0.0366535	8
	5	8	316265.6	2788.744	-3158.775	1	4213.662	-48.56013	-6.539652E-007	-0.0365426	8
	6	9	251203.1	3202.735	-3537.5	1	4771.94	-47.84335	4.653648E-007	-0.0367576	8
	7	11	199546.9	3676.114	-3952.67	1	5397.908	-47.07616	-6.144759E-007	-0.0366236	8
	8	12	158578.1	4246.323	-4381.225	1	6101.344	-45.89581	2.56081E-008	-0.0367121	8
	9	13	125953.1	4913.555	-4843.56	1	6899.5	-44.58898	-2.33977E-008	-0.0367915	7
	10	15	100078.1	5642.772	-5332.541	1	7763.817	-43.38089	-1.076889E-008	-0.0367289	7
	11	16	79453.13	6487.914	-5843.789	1	8731.718	-42.00998	2.198369E-008	-0.036733	7
	12	17	63140.62	7430.159	-6327.405	1	9759.27	-40.41719	-1.212746E-009	-0.0367078	7
	13	19	50203.12	8481.923	-6770.93	1	10853.04	-38.59959	-1.421749E-008	-0.0367271	7
	14	20	39890.62	9637.9	-7161.597	1	12007.39	-36.6148	-1.351177E-008	-0.0367314	7
	15	22	31640.63	10896.63	-7479.787	1	13216.79	-34.46693	1.685408E-008	-0.0367806	7
	16	23	25171.88	12198.94	-7705.918	1	14428.97	-32.2801	3.992949E-008	-0.0367874	7
	17	25	20015.62	13504.52	-7790.365	1	15590.44	-29.97939	8.907846E-009	-0.0367881	7
	18	26	15890.62	14833.94	-7803.848	1	16761.44	-27.74798	2.054513E-008	-0.0367795	7
	19	28	12609.37	16136.59	-7687.981	1	17874.41	-25.4746	5.47655E-009	-0.0368015	6
	20	29	10078.13	17294.1	-7555.895	1	18872.66	-23.60081	2.363499E-009	-0.036731	6
	21	31	8015.625	18401.6	-7397.642	1	19832.9	-21.90066	4.287887E-009	-0.0367769	6
	22	33	6328.125	19462.71	-7247.139	1	20768.2	-20.42333	9.129284E-010	-0.0367824	6
	23	34	5015.625	20451.83	-7136.938	1	21661.33	-19.23711	-1.267117E-009	-0.0367674	6
	24	36	3984.375	21389.01	-7078.727	1	22529.94	-18.31204	5.076272E-009	-0.036815	6
	25	37	3170.956	22305.39	-7077.914	1	23401.44	-17.6052	2.878412E-009	-0.0367534	6
	26	39	2527.573	23187.88	-7120.076	1	24256.41	-17.06964	5.582975E-009	-0.036843	6
	27	41	1976.103	24155.62	-7233.687	1	25215.48	-16.67095	7.686847E-010	-0.0367967	6
	28	42	1577.524	25023.16	-7407.581	1	26096.57	-16.49028	-6.593915E-010	-0.0367248	6
	29	44	1265.625	25861.07	-7634.285	1	26964.37	-16.4468	1.355482E-009	-0.0368017	6
	30	45	998.264	26747.39	-7986.31	1	27914.22	-16.62472	1.825419E-009	-0.0368109	6
	31	47	796.875	27621.61	-8441.34	1	28882.69	-16.99348	5.356774E-009	-0.0368659	6
	32	48	627.7902	28574.48	-9077.042	1	29981.55	-17.6231	5.758558E-009	-0.0368434	6
	33	49	505.5147	29458.52	-9798.9	1	31045.5	-18.39887	4.80684E-010	-0.0367371	6
	34	51	397.9953	30517.3	-10757.69	1	32357.89	-19.41813	1.839402E-009	-0.0367517	6
	35	52	315.5048	31657.18	-11898.5	1	33819.39	-20.59897	1.227032E-009	-0.0367537	6
	36	53	252.4038	32772.19	-13183.28	1	35324.43	-21.91346	1.756321E-009	-0.0367548	6
	37	55	198.6229	34066.09	-14836.29	1	37156.62	-23.53385	1.333213E-009	-0.0367518	6
	38	56	158.3615	35345.14	-16731.89	1	39105.44	-25.33222	1.440655E-009	-0.036756	6
	39	58	125.558	36671.68	-19062.16	1	41330.11	-27.46568	1.440216E-009	-0.0367489	6
	40	59	100.4464	37992.98	-21833.97	1	43819.96	-29.88531	1.192406E-009	-0.0367582	6
	41	61	79.00281	39428.52	-25560.34	1	46988.71	-32.95415	1.171998E-009	-0.0367572	6
	42	62	63.3446	40776.36	-29626.62	1	50402.85	-36.00079	1.141864E-009	-0.0367578	6
	43	64	49.86702	42651.21	-35509.43	1	55498.16	-39.77921	1.033963E-009	-0.0367608	6
	44	66	39.72458	44444.8	-42365.86	1	61402.01	-43.62814	1.012667E-009	-0.0367511	6
	45	67	31.6723	46699.55	-50724.47	1	68947.95	-47.36574	7.610971E-010	-0.0367569	6
	46	69	24.93351	49591.65	-61813.65	1	79248.09	-51.26074	9.102473E-010	-0.0367564	6
	47	70	19.86229	53049.39	-74651.58	1	91581.09	-54.60139	1.148351E-009	-0.036754	6
	48	72	15.83615	57806.87	-90404.8	1	107306.4	-57.40424	1.108841E-009	-0.0367568	5
	49	73	12.40079	64109.89	-110719	1	127940.5	-59.92778	1.078058E-009	-0.0367633	5
	50	74	9.93114	70842.82	-133067.8	1	150750.6	-61.96999	-4.201045E-011	-0.0367581	5
	51	76	7.944915	79943.37	-159916	1	178784.9	-63.43914	5.649462E-010	-0.036758	5
	52	78	6.317385	92050.92	-192880.7	1	213720.2	-64.48753	3.6266E-010	-0.036749	5
	53	80	5.008013	107502.2	-232797.7	1	256420.5	-65.21326	3.521467E-010	-0.0367544	5
	54	82	3.945707	127804.7	-281491.2	1	309146.2	-65.58065	3.179793E-010	-0.0367565	5
	55	85	3.158693	152124.9	-334985.2	1	367909.1	-65.57606	7.264422E-011	-0.0367557	5
	56	88	2.504006	184014.2	-399775.2	1	440092.5	-65.28366	3.341672E-010	-0.0367648	5
	57	91	1.998082	222764.5	-472367.4	1	522259.5	-64.75183	5.777346E-011	-0.036717	5
	58	94	1.584686	270998.3	-558786.3	1	621033.2	-64.1277	2.182805E-010	-0.03674	5
	59	98	1.266892	330465.7	-653903.8	1	732664.8	-63.18917	8.782593E-011	-0.0367212	5
	60	103	0.999041	407935.4	-767498.7	1	869175.2	-62.00879	2.798045E-013	-0.0368029	5
