EXPLAIN
TAG	EISPOT
TITLE	LABEL	Potentiostatic EIS	Test &Identifier
DATE	LABEL	3/19/2020	Date
TIME	LABEL	21:03:01	Time
NOTES	NOTES	1	&Notes...
	
PSTAT	PSTAT	REF600-11020	Potentiostat
VDC	POTEN	0.00000E+000	T	DC &Voltage (V)
FREQINIT	QUANT	1.00000E+006	Initial Fre&q. (Hz)
FREQFINAL	QUANT	1.00000E+000	Final Fre&q. (Hz)
PTSPERDEC	QUANT	1.00000E+001	Points/&decade
VAC	QUANT	2.50000E+001	AC &Voltage (mV rms)
AREA	QUANT	4.00000E-004	&Area (cm^2)
CONDIT	TWOPARAM	F	5.00000E+000	0.00000E+000	Conditionin&g	Time(s)	E(V)
DELAY	TWOPARAM	T	3.00000E+000	0.00000E+000	Init. De&lay	Time(s)	Stab.(mV/s)
SPEED	SELECTOR	0	&Optimize for:
ZGUESS	QUANT	1.00000E+003	E&stimated Z (ohms)
OCVCURVE	TABLE	12
	Pt	T	Vf	Vm	Ach	Over
	#	s	V vs. Ref.	V	V	bits
	0	0.258333	6.17447E-002	6.17447E-002	5.75497E-004	...........
	1	0.516667	6.17440E-002	6.17082E-002	5.70930E-004	...........
	2	0.775	6.17396E-002	6.16695E-002	5.75297E-004	...........
	3	1.03333	6.17269E-002	6.16262E-002	5.78897E-004	...........
	4	1.29167	6.17032E-002	6.15886E-002	5.73530E-004	...........
	5	1.55	6.16703E-002	6.15485E-002	5.71763E-004	...........
	6	1.80833	6.16324E-002	6.15216E-002	5.77163E-004	...........
	7	2.06667	6.15938E-002	6.14901E-002	5.81730E-004	...........
	8	2.325	6.15571E-002	6.14394E-002	5.76997E-004	...........
	9	2.58333	6.15211E-002	6.13865E-002	5.71430E-004	...........
	10	2.84167	6.14825E-002	6.13370E-002	5.72863E-004	...........
	11	3.1	6.14390E-002	6.12841E-002	5.73297E-004	...........
EOC	QUANT	0.061439	Open Circuit (V)
PSTATMODEL	IQUANT	4	Pstat Model
PSTATSECTION	LABEL	REF600-11020	Pstat Section
PSTATSERIALNO	LABEL	11020	Pstat Serial Number
CTRLMODE	IQUANT	1	Control Mode
IESTAB	IQUANT	0	I/E Stability
CASPEED	IQUANT	1	Control Amp Speed
CONVENTION	IQUANT	1	Current Convention
ICHRANGE	IQUANT	2	Ich Range
ICHRANGEMODE	TOGGLE	F	Ich Auto Range
ICHOFFSETENABLE	TOGGLE	T	Ich Offset Enable
ICHOFFSET	QUANT	0	Ich Offset (V)
ICHFILTER	IQUANT	3	Ich Filter
VCHRANGE	IQUANT	2	Vch Range
VCHRANGEMODE	TOGGLE	F	Vch Auto Range
VCHOFFSETENABLE	TOGGLE	T	Vch Offset Enable
VCHOFFSET	QUANT	0	Vch Offset (V)
VCHFILTER	IQUANT	3	Vch Filter
ACHRANGE	IQUANT	2	Ach Range
ACHOFFSETENABLE	TOGGLE	F	Ach Offset Enable
ACHOFFSET	QUANT	0	Ach Offset (V)
ACHFILTER	IQUANT	3	Ach Filter
IERANGELOWERLIMIT	IQUANT	1	I/E Range Lower Limit
IERANGEMODE	TOGGLE	F	I/E AutoRange
IERANGE	IQUANT	8	I/E Range
POSFEEDENABLE	TOGGLE	F	Positive Feedback IR Comp
POSFEEDRESISTANCE	QUANT	0	Positive Feedback Resistance (ohm)
ACHSELECT	IQUANT	0	Ach Select
CABLEID	IQUANT	14	Cable ID
DCCALDATE	LABEL	2/27/2020	DC Calibration Date
ACCALDATE	LABEL	2/27/2020	AC Calibration Date
THERMOSELECT	IQUANT	1	Thermo Select
FRAMEWORKVERSION	QUANT	6.33	Framework Version
INSTRUMENTVERSION	LABEL	3.50	Instrument Version
ZCURVE	TABLE
	Pt	Time	Freq	Zreal	Zimag	Zsig	Zmod	Zphz	Idc	Vdc	IERange
	#	s	Hz	ohm	ohm	V	ohm	°	A	V	#
	0	1	1000078	2062.458	-1740.856	1	2698.947	-40.16666	4.648532E-008	0.0637704	8
	1	2	794390.6	2405.567	-1765.036	1	2983.64	-36.26861	2.35374E-007	0.063426	8
	2	2	630984.4	2738.535	-1743.168	1	3246.261	-32.4781	1.763671E-007	0.0632844	8
	3	2	501234.4	3052.574	-1683.688	1	3486.118	-28.87952	1.32763E-007	0.0632158	8
	4	2	398109.4	3331.012	-1597.738	1	3694.376	-25.62496	-1.804027E-007	0.0632349	8
	5	3	316265.6	3580.872	-1499.943	1	3882.328	-22.72766	-1.602753E-008	0.063163	8
	6	3	251203.1	3796.339	-1396.778	1	4045.143	-20.19996	1.934383E-007	0.0631155	8
	7	3	199546.9	3978.583	-1308.55	1	4188.249	-18.20596	-4.950764E-009	0.0631708	8
	8	4	158578.1	4140.441	-1222.219	1	4317.067	-16.4461	-1.134656E-007	0.0631655	8
	9	4	125953.1	4330.005	-1082.5	1	4463.267	-14.03623	1.929779E-008	0.0630384	7
	10	4	100078.1	4441.304	-1041.878	1	4561.873	-13.20219	1.898125E-009	0.0630744	7
	11	5	79453.13	4560.803	-1024.337	1	4674.418	-12.65833	1.99186E-009	0.0630733	7
	12	5	63140.62	4676.397	-1019.775	1	4786.296	-12.30182	1.017112E-008	0.0630619	7
	13	5	50203.12	4789.92	-1029.505	1	4899.308	-12.13013	-1.355443E-009	0.0630789	7
	14	6	39890.62	4904.053	-1055.078	1	5016.266	-12.14177	-1.555435E-009	0.0630765	7
	15	6	31640.63	5021.987	-1097.548	1	5140.522	-12.32807	1.482491E-008	0.0630489	7
	16	6	25171.88	5141.673	-1155.794	1	5269.978	-12.6689	-1.986707E-009	0.0630837	7
	17	7	20015.62	5267.535	-1233.516	1	5410.035	-13.17965	-1.563178E-009	0.0630751	7
	18	7	15890.62	5400.723	-1332.236	1	5562.612	-13.85693	2.937439E-009	0.0630675	7
	19	7	12609.37	5542.995	-1453.352	1	5730.36	-14.69202	3.503151E-009	0.0630629	7
	20	8	10078.13	5691.446	-1598.8	1	5911.744	-15.69073	-3.510324E-009	0.0630743	7
	21	8	8015.625	5853.951	-1774.764	1	6117.068	-16.86593	2.636875E-009	0.0630575	7
	22	8	6328.125	6040.009	-1994.045	1	6360.654	-18.27009	6.240209E-009	0.0630466	7
	23	8	5015.625	6243.338	-2252.373	1	6637.203	-19.83763	7.031917E-010	0.0630536	7
	24	9	3984.375	6467.914	-2557.252	1	6955.103	-21.57261	1.567833E-008	0.0630451	7
	25	9	3170.956	6718.958	-2911.481	1	7322.644	-23.42821	-3.559914E-009	0.0630703	7
	26	9	2527.573	6997.044	-3323.184	1	7746.107	-25.40496	2.817856E-009	0.063057	7
	27	10	1976.103	7335.885	-3848.835	1	8284.246	-27.68413	3.140544E-009	0.0630496	7
	28	10	1577.524	7684.514	-4420.227	1	8865.108	-29.90804	3.798897E-009	0.0630517	7
	29	10	1265.625	8079.727	-5063.632	1	9535.32	-32.07571	-2.848949E-010	0.0631149	6
	30	11	998.264	8537.481	-5903.666	1	10379.88	-34.66385	-2.736965E-010	0.0631238	6
	31	11	796.875	9031.432	-6848.769	1	11334.57	-37.17399	5.620809E-010	0.0630914	6
	32	11	627.7902	9625.77	-8047.62	1	12546.7	-39.8973	1.096445E-009	0.0631119	6
	33	12	505.5147	10241.94	-9349.318	1	13867.49	-42.39127	3.34191E-011	0.0631211	6
	34	12	397.9953	11034.47	-11058.97	1	15622.43	-45.06353	7.173903E-010	0.0631237	6
	35	12	315.5048	11936.15	-13054.26	1	17688.57	-47.56178	6.794882E-010	0.0631215	6
	36	13	252.4038	12956.76	-15335.54	1	20076.26	-49.80605	7.544205E-010	0.0631142	6
	37	13	198.6229	14257.59	-18255.16	1	23163.11	-52.00956	7.686938E-010	0.0631172	6
	38	13	158.3615	15723.45	-21538.39	1	26667.01	-53.86982	7.36197E-010	0.0631144	6
	39	14	125.558	17505.07	-25525.94	1	30951.59	-55.55862	7.045801E-010	0.0631179	6
	40	14	100.4464	19536.09	-30048.18	1	35840.65	-56.96974	7.029404E-010	0.0631143	6
	41	14	79.00281	22137.19	-35818.08	1	42106.89	-58.28207	7.298382E-010	0.0631121	6
	42	15	63.3446	24965.53	-42150.23	1	48988.98	-59.3618	6.246618E-010	0.0631123	6
	43	15	49.86702	28589.01	-50215.27	1	57783.26	-60.34589	5.614402E-010	0.0631112	6
	44	15	39.72458	32728.5	-59291.49	1	67724.7	-61.1016	8.792554E-010	0.0631149	6
	45	16	31.6723	37602.05	-69990.09	1	79451.41	-61.75316	9.323614E-010	0.0631129	6
	46	16	24.93351	43738.38	-83430.42	1	94200.22	-62.33424	8.643759E-010	0.0631117	6
	47	16	19.86229	50798.48	-98492.9	1	110821.2	-62.71723	9.325875E-010	0.0631204	5
	48	16	15.83615	59126.92	-116423.3	1	130577.1	-63.07573	2.225575E-010	0.0631184	5
	49	17	12.40079	70326.21	-139387.7	1	156124	-63.22738	6.031951E-010	0.0631229	5
	50	17	9.93114	82957.69	-164164.7	1	183934.8	-63.19106	2.598219E-010	0.0631257	5
	51	17	7.944915	98500.4	-192911.6	1	216603.8	-62.95121	3.836166E-011	0.0631253	5
	52	18	6.317385	118466.2	-227592.6	1	256578.7	-62.50219	4.753214E-010	0.0631134	5
	53	19	5.008013	144009.4	-267863.8	1	304121.2	-61.73655	2.377556E-010	0.0631103	5
	54	20	3.945707	176785.7	-315085.4	1	361292.1	-60.70443	5.235688E-011	0.0631168	5
	55	20	3.158693	214169.2	-363404.1	1	421818.7	-59.48738	2.535945E-010	0.0630988	5
	56	21	2.504006	261912.6	-419376.4	1	494443.9	-58.01404	5.411725E-010	0.0631095	5
	57	23	1.998082	316132.8	-476567.5	1	571888.6	-56.44154	3.392394E-010	0.0630874	5
	58	24	1.584686	383290	-540483.4	1	662596.1	-54.6572	2.374371E-010	0.0630612	5
	59	26	1.266892	455201.9	-604830.2	1	756986.4	-53.03448	2.420655E-010	0.0630833	5
	60	29	0.999041	541366.4	-674428.7	1	864830.4	-51.24586	2.62995E-010	0.0631124	5
