EXPLAIN
TAG	EISPOT
TITLE	LABEL	Potentiostatic EIS	Test &Identifier
DATE	LABEL	2/13/2020	Date
TIME	LABEL	10:28:31	Time
NOTES	NOTES	1	&Notes...
	
PSTAT	PSTAT	REF600-11020	Potentiostat
VDC	POTEN	0.00000E+000	T	DC &Voltage (V)
FREQINIT	QUANT	1.00000E+006	Initial Fre&q. (Hz)
FREQFINAL	QUANT	1.00000E+000	Final Fre&q. (Hz)
PTSPERDEC	QUANT	1.00000E+001	Points/&decade
VAC	QUANT	2.50000E+001	AC &Voltage (mV rms)
AREA	QUANT	5.00000E-004	&Area (cm^2)
CONDIT	TWOPARAM	F	1.50000E+001	0.00000E+000	Conditionin&g	Time(s)	E(V)
DELAY	TWOPARAM	F	1.00000E+002	0.00000E+000	Init. De&lay	Time(s)	Stab.(mV/s)
SPEED	SELECTOR	0	&Optimize for:
ZGUESS	QUANT	1.00000E+003	E&stimated Z (ohms)
OCVCURVE	TABLE	39
	Pt	T	Vf	Vm	Ach	Over
	#	s	V vs. Ref.	V	V	bits
	0	0.258333	5.50875E-002	5.50875E-002	5.76671E-004	...........
	1	0.516667	5.50857E-002	5.49890E-002	5.78004E-004	...........
	2	0.775	5.50754E-002	5.49626E-002	5.81171E-004	...........
	3	1.03333	5.50488E-002	5.48430E-002	5.82204E-004	...........
	4	1.29167	5.50042E-002	5.48677E-002	5.83437E-004	...........
	5	1.55	5.49510E-002	5.48727E-002	5.78104E-004	...........
	6	1.80833	5.49035E-002	5.47526E-002	5.72304E-004	...........
	7	2.06667	5.48658E-002	5.47791E-002	5.69771E-004	...........
	8	2.325	5.48324E-002	5.47712E-002	5.76204E-004	...........
	9	2.58333	5.48012E-002	5.46643E-002	5.76838E-004	...........
	10	2.84167	5.47714E-002	5.46914E-002	5.75538E-004	...........
	11	3.1	5.47407E-002	5.46795E-002	5.76471E-004	...........
	12	3.35833	5.47109E-002	5.45964E-002	5.78671E-004	...........
	13	3.61667	5.46837E-002	5.46147E-002	5.77204E-004	...........
	14	3.875	5.46569E-002	5.45966E-002	5.80471E-004	...........
	15	4.13333	5.46314E-002	5.45484E-002	5.81471E-004	...........
	16	4.39167	5.46082E-002	5.45345E-002	5.78704E-004	...........
	17	4.65	5.45850E-002	5.45207E-002	5.79637E-004	...........
	18	4.90833	5.45615E-002	5.44943E-002	5.82104E-004	...........
	19	5.16667	5.45392E-002	5.44813E-002	5.73304E-004	...........
	20	5.425	5.45188E-002	5.44671E-002	5.73438E-004	...........
	21	5.68333	5.45000E-002	5.44402E-002	5.76004E-004	...........
	22	5.94167	5.44819E-002	5.44236E-002	5.78471E-004	...........
	23	6.2	5.44636E-002	5.44079E-002	5.75938E-004	...........
	24	6.45833	5.44449E-002	5.43898E-002	5.79371E-004	...........
	25	6.71667	5.44266E-002	5.43776E-002	5.76704E-004	...........
	26	6.975	5.44093E-002	5.43632E-002	5.78637E-004	...........
	27	7.23333	5.43933E-002	5.43497E-002	5.75538E-004	...........
	28	7.49167	5.43784E-002	5.43328E-002	5.76738E-004	...........
	29	7.75	5.43639E-002	5.43161E-002	5.77104E-004	...........
	30	8.00833	5.43492E-002	5.43054E-002	5.79137E-004	...........
	31	8.26667	5.43344E-002	5.42941E-002	5.80104E-004	...........
	32	8.525	5.43201E-002	5.42810E-002	5.79271E-004	...........
	33	8.78333	5.43068E-002	5.42676E-002	5.81471E-004	...........
	34	9.04167	5.42942E-002	5.42572E-002	5.75137E-004	...........
	35	9.3	5.42817E-002	5.42416E-002	5.74537E-004	...........
	36	9.5583	5.42693E-002	5.42323E-002	5.77771E-004	...........
	37	9.8167	5.42568E-002	5.42178E-002	5.73538E-004	...........
	38	10.075	5.42443E-002	5.42054E-002	5.77404E-004	...........
EOC	QUANT	0.0542443	Open Circuit (V)
PSTATMODEL	IQUANT	4	Pstat Model
PSTATSECTION	LABEL	REF600-11020	Pstat Section
PSTATSERIALNO	LABEL	11020	Pstat Serial Number
CTRLMODE	IQUANT	1	Control Mode
IESTAB	IQUANT	0	I/E Stability
CASPEED	IQUANT	1	Control Amp Speed
CONVENTION	IQUANT	1	Current Convention
ICHRANGE	IQUANT	2	Ich Range
ICHRANGEMODE	TOGGLE	F	Ich Auto Range
ICHOFFSETENABLE	TOGGLE	T	Ich Offset Enable
ICHOFFSET	QUANT	0	Ich Offset (V)
ICHFILTER	IQUANT	3	Ich Filter
VCHRANGE	IQUANT	2	Vch Range
VCHRANGEMODE	TOGGLE	F	Vch Auto Range
VCHOFFSETENABLE	TOGGLE	T	Vch Offset Enable
VCHOFFSET	QUANT	0	Vch Offset (V)
VCHFILTER	IQUANT	3	Vch Filter
ACHRANGE	IQUANT	2	Ach Range
ACHOFFSETENABLE	TOGGLE	F	Ach Offset Enable
ACHOFFSET	QUANT	0	Ach Offset (V)
ACHFILTER	IQUANT	3	Ach Filter
IERANGELOWERLIMIT	IQUANT	1	I/E Range Lower Limit
IERANGEMODE	TOGGLE	F	I/E AutoRange
IERANGE	IQUANT	8	I/E Range
POSFEEDENABLE	TOGGLE	F	Positive Feedback IR Comp
POSFEEDRESISTANCE	QUANT	0	Positive Feedback Resistance (ohm)
ACHSELECT	IQUANT	0	Ach Select
CABLEID	IQUANT	14	Cable ID
DCCALDATE	LABEL	1/27/2020	DC Calibration Date
ACCALDATE	LABEL	1/27/2020	AC Calibration Date
THERMOSELECT	IQUANT	1	Thermo Select
FRAMEWORKVERSION	QUANT	6.33	Framework Version
INSTRUMENTVERSION	LABEL	3.50	Instrument Version
ZCURVE	TABLE
	Pt	Time	Freq	Zreal	Zimag	Zsig	Zmod	Zphz	Idc	Vdc	IERange
	#	s	Hz	ohm	ohm	V	ohm	°	A	V	#
	0	1	1000078	2086.752	-1406.34	1	2516.412	-33.9775	5.097533E-006	0.0555265	8
	1	2	794390.6	2365.822	-1337.5	1	2717.724	-29.48133	-3.097201E-006	0.0562978	8
	2	2	630984.4	2604.579	-1224.99	1	2878.269	-25.18863	1.770155E-006	0.0558415	8
	3	2	501234.4	2811.618	-1103.215	1	3020.312	-21.42392	-1.808571E-006	0.0561372	8
	4	3	398109.4	2973.232	-968.128	1	3126.88	-18.03602	-2.665894E-006	0.0565289	8
	5	3	316265.6	3101.405	-848.0359	1	3215.257	-15.29291	1.768571E-006	0.0556015	8
	6	3	251203.1	3195.661	-747.1801	1	3281.848	-13.15997	1.10645E-006	0.055531	8
	7	4	199546.9	3279.697	-666.4265	1	3346.72	-11.48599	-9.754143E-007	0.0559721	8
	8	4	158578.1	3339.794	-580.4743	1	3389.864	-9.85982	-2.596255E-006	0.0564415	8
	9	4	125953.1	3389.711	-489.2487	1	3424.837	-8.21298	1.102582E-006	0.0536102	7
	10	5	100078.1	3428.611	-448.2115	1	3457.784	-7.447862	-4.756821E-008	0.055857	7
	11	5	79453.13	3463.167	-428.841	1	3489.618	-7.058952	-2.429942E-008	0.0558312	7
	12	5	63140.62	3495.998	-420.7965	1	3521.231	-6.8634	1.920025E-008	0.0558169	7
	13	5	50203.12	3530.825	-422.9224	1	3556.064	-6.830348	-2.510579E-008	0.055844	7
	14	6	39890.62	3565.099	-436.3215	1	3591.7	-6.977554	-1.93425E-008	0.0557747	7
	15	6	31640.63	3602.331	-461.2338	1	3631.739	-7.296315	7.051757E-009	0.0558262	7
	16	6	25171.88	3641.09	-497.698	1	3674.948	-7.783484	2.054108E-008	0.0558079	7
	17	7	20015.62	3683.59	-546.2823	1	3723.877	-8.435573	-2.693344E-009	0.0557282	7
	18	7	15890.62	3730.368	-609.4869	1	3779.831	-9.279292	-2.857472E-009	0.0557306	7
	19	7	12609.37	3781.687	-688.2382	1	3843.804	-10.31451	-2.315197E-009	0.0557291	7
	20	8	10078.13	3836.919	-783.1915	1	3916.036	-11.53672	-1.473094E-008	0.0557895	7
	21	8	8015.625	3901.541	-900.6124	1	4004.138	-12.9982	7.772139E-009	0.0557676	7
	22	8	6328.125	3974.742	-1046.985	1	4110.323	-14.75705	2.976889E-008	0.0557123	7
	23	9	5015.625	4057.059	-1223.617	1	4237.566	-16.78342	3.02002E-008	0.0557078	7
	24	9	3984.375	4149.028	-1434.791	1	4390.109	-19.07609	-1.184149E-008	0.055837	7
	25	9	3170.956	4253.947	-1685.531	1	4575.706	-21.61483	-2.991113E-008	0.0558069	7
	26	10	2527.573	4373.1	-1986.55	1	4803.164	-24.43068	-2.879065E-008	0.055809	7
	27	10	1976.103	4521.654	-2381.547	1	5110.491	-27.7757	-2.367748E-008	0.0558118	7
	28	10	1577.524	4679.862	-2820.557	1	5464.125	-31.07741	-5.129632E-009	0.0557566	7
	29	11	1265.625	4857.631	-3332.285	1	5890.73	-34.44973	-2.867657E-008	0.0558086	7
	30	11	998.264	5073.298	-4000.888	1	6461.072	-38.2599	7.663593E-009	0.0558074	7
	31	11	796.875	5320.148	-4765.54	1	7142.433	-41.8525	3.156548E-008	0.0557046	7
	32	12	627.7902	5617.135	-5756.766	1	8043.168	-45.70335	-2.189166E-008	0.0558062	7
	33	12	505.5147	5937.263	-6848.085	1	9063.519	-49.07484	7.710181E-009	0.0558015	7
	34	12	397.9953	6358.693	-8299.738	1	10455.55	-52.54313	1.080969E-009	0.0557791	6
	35	13	315.5048	6843.114	-10027.4	1	12139.89	-55.68874	1.477537E-009	0.0557815	6
	36	13	252.4038	7399.906	-12039.52	1	14131.83	-58.42366	1.51254E-009	0.0557733	6
	37	13	198.6229	8119.751	-14666.49	1	16764.14	-61.02994	8.636246E-010	0.0557761	6
	38	13	158.3615	8946.126	-17687.76	1	19821.45	-63.1706	1.044505E-009	0.0557732	6
	39	14	125.558	9960.18	-21456.27	1	23655.38	-65.09888	7.463823E-010	0.0557701	6
	40	14	100.4464	11165.44	-25813.12	1	28124.44	-66.60915	1.113044E-009	0.0557681	6
	41	14	79.00281	12674.06	-31611.85	1	34057.9	-68.15279	1.285686E-009	0.0557662	6
	42	15	63.3446	14204.8	-37903.19	1	40477.5	-69.45575	5.410066E-010	0.0557691	6
	43	15	49.86702	16788.35	-46393.25	1	49337.43	-70.1063	5.66319E-010	0.0557704	6
	44	15	39.72458	19890.49	-56365.82	1	59772.37	-70.56297	4.64356E-010	0.0557704	6
	45	16	31.6723	23838.36	-68063.69	1	72117.49	-70.6979	1.177455E-009	0.0557718	6
	46	16	24.93351	29072.65	-83246.86	1	88177.43	-70.74905	6.748289E-010	0.0557691	6
	47	16	19.86229	35532.29	-100331.6	1	106437.7	-70.49847	6.522606E-010	0.055761	5
	48	17	15.83615	43975.45	-120154.9	1	127949.4	-69.8979	6.985125E-010	0.0557672	5
	49	17	12.40079	55114	-145458.2	1	155549.5	-69.24834	-8.259701E-010	0.0557684	5
	50	17	9.93114	70417.97	-172787.7	1	186585.8	-67.82712	-9.784359E-011	0.0557681	5
	51	18	7.944915	87697.93	-203653.8	1	221733.7	-66.7022	-2.716463E-010	0.0557717	5
	52	18	6.317385	110066.8	-239291	1	263391.2	-65.29896	-7.118828E-011	0.0557673	5
	53	19	5.008013	137986.1	-279901.4	1	312065.6	-63.75757	2.262044E-010	0.055771	5
	54	20	3.945707	172771.6	-326345.1	1	369257.6	-62.10263	-3.274169E-011	0.0557688	5
	55	22	3.158693	210176.1	-373796.9	1	428833.5	-60.65211	-2.099251E-011	0.0557518	5
	56	23	2.504006	255776.6	-427828.9	1	498456.9	-59.127	1.383941E-010	0.0557563	5
	57	25	1.998082	304801.2	-486347.8	1	573966.9	-57.92404	1.811523E-010	0.0557844	5
	58	26	1.584686	361457.5	-551486.7	1	659385.4	-56.75821	8.128256E-011	0.0557476	5
	59	28	1.266892	423621.9	-623469.3	1	753770.1	-55.80549	3.565934E-011	0.0557187	5
	60	30	0.999041	494909.8	-711755.9	1	866909.6	-55.1877	1.351257E-012	0.0557155	5
