EXPLAIN
TAG	EISPOT
TITLE	LABEL	Potentiostatic EIS	Test &Identifier
DATE	LABEL	9/11/2020	Date
TIME	LABEL	20:29:29	Time
NOTES	NOTES	1	&Notes...
	
PSTAT	PSTAT	REF600-11020	Potentiostat
VDC	POTEN	0.00000E+000	T	DC &Voltage (V)
FREQINIT	QUANT	1.00000E+006	Initial Fre&q. (Hz)
FREQFINAL	QUANT	1.00000E+000	Final Fre&q. (Hz)
PTSPERDEC	QUANT	1.00000E+001	Points/&decade
VAC	QUANT	2.50000E+001	AC &Voltage (mV rms)
AREA	QUANT	4.00000E-005	&Area (cm^2)
CONDIT	TWOPARAM	F	5.00000E+000	0.00000E+000	Conditionin&g	Time(s)	E(V)
DELAY	TWOPARAM	F	3.00000E+000	0.00000E+000	Init. De&lay	Time(s)	Stab.(mV/s)
SPEED	SELECTOR	0	&Optimize for:
ZGUESS	QUANT	1.00000E+003	E&stimated Z (ohms)
OCVCURVE	TABLE	39
	Pt	T	Vf	Vm	Ach	Over
	#	s	V vs. Ref.	V	V	bits
	0	0.258333	-1.37745E-001	-1.37745E-001	6.17424E-004	...........
	1	0.516667	-1.37745E-001	-1.37752E-001	6.14791E-004	...........
	2	0.775	-1.37746E-001	-1.37759E-001	6.10858E-004	...........
	3	1.03333	-1.37748E-001	-1.37764E-001	6.14158E-004	...........
	4	1.29167	-1.37752E-001	-1.37773E-001	6.11658E-004	...........
	5	1.55	-1.37758E-001	-1.37781E-001	6.13724E-004	...........
	6	1.80833	-1.37765E-001	-1.37788E-001	6.14191E-004	...........
	7	2.06667	-1.37772E-001	-1.37795E-001	6.21091E-004	...........
	8	2.325	-1.37779E-001	-1.37801E-001	6.15258E-004	...........
	9	2.58333	-1.37787E-001	-1.37806E-001	6.05925E-004	...........
	10	2.84167	-1.37794E-001	-1.37815E-001	6.18658E-004	...........
	11	3.1	-1.37800E-001	-1.37821E-001	6.16024E-004	...........
	12	3.35833	-1.37807E-001	-1.37829E-001	6.14058E-004	...........
	13	3.61667	-1.37814E-001	-1.37838E-001	6.15858E-004	...........
	14	3.875	-1.37821E-001	-1.37841E-001	6.12858E-004	...........
	15	4.13333	-1.37828E-001	-1.37845E-001	6.10124E-004	...........
	16	4.39167	-1.37835E-001	-1.37853E-001	6.12758E-004	...........
	17	4.65	-1.37841E-001	-1.37862E-001	6.16658E-004	...........
	18	4.90833	-1.37847E-001	-1.37867E-001	6.16424E-004	...........
	19	5.16667	-1.37853E-001	-1.37876E-001	6.14291E-004	...........
	20	5.425	-1.37860E-001	-1.37882E-001	6.11158E-004	...........
	21	5.68333	-1.37867E-001	-1.37888E-001	6.16491E-004	...........
	22	5.94167	-1.37874E-001	-1.37893E-001	6.19991E-004	...........
	23	6.2	-1.37881E-001	-1.37901E-001	6.17891E-004	...........
	24	6.45833	-1.37887E-001	-1.37906E-001	6.20558E-004	...........
	25	6.71667	-1.37894E-001	-1.37911E-001	6.13091E-004	...........
	26	6.975	-1.37900E-001	-1.37920E-001	6.17524E-004	...........
	27	7.23333	-1.37906E-001	-1.37925E-001	6.13591E-004	...........
	28	7.49167	-1.37912E-001	-1.37934E-001	6.15524E-004	...........
	29	7.75	-1.37919E-001	-1.37938E-001	6.20791E-004	...........
	30	8.00833	-1.37925E-001	-1.37946E-001	6.17091E-004	...........
	31	8.26667	-1.37932E-001	-1.37954E-001	6.15358E-004	...........
	32	8.525	-1.37939E-001	-1.37961E-001	6.16691E-004	...........
	33	8.78333	-1.37946E-001	-1.37966E-001	6.14624E-004	...........
	34	9.04167	-1.37953E-001	-1.37972E-001	6.14091E-004	...........
	35	9.3	-1.37960E-001	-1.37980E-001	6.18624E-004	...........
	36	9.5583	-1.37966E-001	-1.37984E-001	6.21858E-004	...........
	37	9.8167	-1.37972E-001	-1.37991E-001	6.17958E-004	...........
	38	10.075	-1.37979E-001	-1.37998E-001	6.15824E-004	...........
EOC	QUANT	-0.1379785	Open Circuit (V)
PSTATMODEL	IQUANT	4	Pstat Model
PSTATSECTION	LABEL	REF600-11020	Pstat Section
PSTATSERIALNO	LABEL	11020	Pstat Serial Number
CTRLMODE	IQUANT	1	Control Mode
IESTAB	IQUANT	0	I/E Stability
CASPEED	IQUANT	1	Control Amp Speed
CONVENTION	IQUANT	1	Current Convention
ICHRANGE	IQUANT	2	Ich Range
ICHRANGEMODE	TOGGLE	F	Ich Auto Range
ICHOFFSETENABLE	TOGGLE	T	Ich Offset Enable
ICHOFFSET	QUANT	0	Ich Offset (V)
ICHFILTER	IQUANT	3	Ich Filter
VCHRANGE	IQUANT	2	Vch Range
VCHRANGEMODE	TOGGLE	F	Vch Auto Range
VCHOFFSETENABLE	TOGGLE	T	Vch Offset Enable
VCHOFFSET	QUANT	0	Vch Offset (V)
VCHFILTER	IQUANT	3	Vch Filter
ACHRANGE	IQUANT	2	Ach Range
ACHOFFSETENABLE	TOGGLE	F	Ach Offset Enable
ACHOFFSET	QUANT	0	Ach Offset (V)
ACHFILTER	IQUANT	3	Ach Filter
IERANGELOWERLIMIT	IQUANT	1	I/E Range Lower Limit
IERANGEMODE	TOGGLE	F	I/E AutoRange
IERANGE	IQUANT	8	I/E Range
POSFEEDENABLE	TOGGLE	F	Positive Feedback IR Comp
POSFEEDRESISTANCE	QUANT	0	Positive Feedback Resistance (ohm)
ACHSELECT	IQUANT	0	Ach Select
CABLEID	IQUANT	14	Cable ID
DCCALDATE	LABEL	9/1/2020	DC Calibration Date
ACCALDATE	LABEL	9/1/2020	AC Calibration Date
THERMOSELECT	IQUANT	1	Thermo Select
FRAMEWORKVERSION	QUANT	6.33	Framework Version
INSTRUMENTVERSION	LABEL	3.50	Instrument Version
ZCURVE	TABLE
	Pt	Time	Freq	Zreal	Zimag	Zsig	Zmod	Zphz	Idc	Vdc	IERange
	#	s	Hz	ohm	ohm	V	ohm	°	A	V	#
	0	1	1000078	1696.559	-2677.146	1	3169.452	-57.63678	4.618171E-008	-0.1358208	8
	1	1	794390.6	2112.059	-3041.682	1	3703.056	-55.22497	9.845404E-008	-0.1361575	8
	2	1	630984.4	2603.965	-3392.118	1	4276.342	-52.4883	7.553067E-008	-0.136277	8
	3	2	501234.4	3167.176	-3719.292	1	4885.093	-49.58384	4.167669E-008	-0.1363852	8
	4	2	398109.4	3768.746	-4017.171	1	5508.276	-46.82751	1.088523E-007	-0.1364682	8
	5	2	316265.6	4397.913	-4288.21	1	6142.506	-44.27641	7.529523E-008	-0.1364653	8
	6	3	251203.1	5063.612	-4551.232	1	6808.369	-41.94957	5.927386E-008	-0.1364857	8
	7	3	199546.9	5725.959	-4805.459	1	7475.229	-40.00475	1.476802E-007	-0.1364535	8
	8	3	158578.1	6415.838	-5089.589	1	8189.438	-38.42445	4.941776E-008	-0.1364913	8
	9	4	125953.1	7192.493	-5343.997	1	8960.483	-36.61222	-2.081382E-009	-0.1364984	7
	10	4	100078.1	7941.661	-5674.255	1	9760.49	-35.54551	-1.042766E-009	-0.1364976	7
	11	4	79453.13	8731.807	-6059.855	1	10628.56	-34.76056	2.470369E-009	-0.1365069	7
	12	5	63140.62	9578.77	-6467.124	1	11557.53	-34.02532	1.366307E-009	-0.1365047	7
	13	5	50203.12	10508.12	-6935.581	1	12590.59	-33.42564	4.722864E-009	-0.1365156	7
	14	5	39890.62	11536.23	-7424.543	1	13718.91	-32.76472	5.609237E-009	-0.136514	7
	15	6	31640.63	12674.31	-7947.482	1	14959.97	-32.08995	1.927482E-009	-0.1365156	7
	16	6	25171.88	13946.82	-8494.559	1	16330.07	-31.34425	5.822078E-009	-0.1365194	7
	17	6	20015.62	15356.65	-8923.045	1	17760.84	-30.15891	3.969553E-010	-0.1365158	7
	18	6	15890.62	16919.04	-9364.044	1	19337.5	-28.96286	9.543756E-010	-0.1365187	7
	19	7	12609.37	18759.26	-9455.181	1	21007.39	-26.74935	1.112485E-009	-0.136524	6
	20	7	10078.13	20417.22	-9576.44	1	22551.52	-25.12833	9.041755E-010	-0.1365288	6
	21	7	8015.625	22051.45	-9422.888	1	23980.35	-23.13768	5.103803E-010	-0.1365336	6
	22	8	6328.125	23658.71	-9141.261	1	25363.3	-21.12555	1.990909E-010	-0.136531	6
	23	8	5015.625	25208.21	-8859.625	1	26719.78	-19.36443	5.110369E-011	-0.1365282	6
	24	8	3984.375	26520.54	-8446.752	1	27833.2	-17.6666	6.3461E-010	-0.1365366	6
	25	9	3170.956	27647.55	-8033.46	1	28791.03	-16.20211	5.092844E-010	-0.1365349	6
	26	9	2527.573	28743.79	-7740.799	1	29767.86	-15.07236	6.818052E-010	-0.1365398	6
	27	9	1976.103	29565.91	-7390.058	1	30475.5	-14.03365	8.399479E-010	-0.1365405	6
	28	10	1577.524	30468.49	-7318.848	1	31335.2	-13.50713	8.383867E-010	-0.1365421	6
	29	10	1265.625	31100.47	-7296.705	1	31944.97	-13.20376	-2.489392E-010	-0.1365317	6
	30	10	998.264	31784.23	-7486.646	1	32654.06	-13.25419	5.833713E-010	-0.1365329	6
	31	11	796.875	32438.27	-7855.424	1	33375.87	-13.61298	6.48203E-010	-0.1365359	6
	32	11	627.7902	33061.46	-8484.733	1	34132.84	-14.39349	-6.046088E-011	-0.1365334	6
	33	11	505.5147	33494.17	-9248.908	1	34747.69	-15.43668	-7.594995E-011	-0.1365291	6
	34	12	397.9953	34401.62	-10478.27	1	35962	-16.94003	5.121782E-010	-0.1365169	6
	35	12	315.5048	34740.47	-11956.75	1	36740.5	-18.99211	5.034055E-010	-0.1365194	6
	36	12	252.4038	35611.55	-13792.85	1	38189.34	-21.17209	5.227451E-010	-0.1365195	6
	37	12	198.6229	36607.43	-16255.75	1	40054.38	-23.94391	5.090706E-010	-0.136517	6
	38	13	158.3615	37948.42	-19133.99	1	42499.32	-26.75772	5.50844E-010	-0.1365219	6
	39	13	125.558	39339.23	-22703.83	1	45420.69	-29.99051	6.151339E-010	-0.1365241	6
	40	13	100.4464	41060.24	-26818.7	1	49042.7	-33.15076	5.381123E-010	-0.1365215	6
	41	14	79.00281	43243.93	-32125.48	1	53871	-36.60828	4.364558E-010	-0.1365259	6
	42	14	63.3446	45806.2	-37916.08	1	59462.9	-39.61626	3.600884E-010	-0.1365297	6
	43	14	49.86702	48969.17	-45388.81	1	66769.18	-42.82699	1.855375E-010	-0.1365311	6
	44	15	39.72458	52961.87	-53768.16	1	75471.69	-45.43283	3.826706E-010	-0.1365278	6
	45	15	31.6723	57668.94	-63625.83	1	85871.73	-47.81158	2.871574E-010	-0.1365327	6
	46	15	24.93351	64090.66	-75813.11	1	99273.6	-49.78959	1.275318E-010	-0.1365308	6
	47	16	19.86229	71553.66	-89410.02	1	114516.7	-51.33018	-1.366962E-009	-0.1365429	5
	48	16	15.83615	80789.98	-104966.7	1	132457.7	-52.41551	1.363847E-009	-0.1365414	5
	49	16	12.40079	93133.49	-124122.3	1	155178	-53.11777	3.835506E-010	-0.1365442	5
	50	17	9.93114	107039.1	-143654.7	1	179148.1	-53.3097	9.675825E-010	-0.1365465	5
	51	17	7.944915	123024.5	-165696.5	1	206374.3	-53.40725	9.004872E-010	-0.1365545	5
	52	17	6.317385	143232.6	-190344.4	1	238215.4	-53.03885	1.722628E-010	-0.1365368	5
	53	18	5.008013	166312.7	-217778.9	1	274021.2	-52.63187	5.148316E-010	-0.1365318	5
	54	19	3.945707	193855.5	-248834.4	1	315433.8	-52.07947	3.302934E-010	-0.1365447	5
	55	20	3.158693	221781.6	-280910.7	1	357907.7	-51.70858	3.561312E-010	-0.136526	5
	56	21	2.504006	255354.2	-318093.5	1	407908.4	-51.24374	-4.573606E-011	-0.1365352	5
	57	22	1.998082	289256	-359204	1	461190.3	-51.15657	4.96088E-012	-0.1365487	5
	58	24	1.584686	329865.5	-406631.5	1	523603.3	-50.95053	1.917008E-010	-0.1365027	5
	59	26	1.266892	372733	-461281.3	1	593051.7	-51.06046	2.108771E-010	-0.1365099	5
	60	28	0.999041	422231.5	-527725.2	1	675850.1	-51.33679	2.099296E-010	-0.1365241	5
