EXPLAIN
TAG	EISPOT
TITLE	LABEL	Potentiostatic EIS	Test &Identifier
DATE	LABEL	2/21/2020	Date
TIME	LABEL	17:48:46	Time
NOTES	NOTES	1	&Notes...
	
PSTAT	PSTAT	REF600-11020	Potentiostat
VDC	POTEN	0.00000E+000	T	DC &Voltage (V)
FREQINIT	QUANT	1.00000E+006	Initial Fre&q. (Hz)
FREQFINAL	QUANT	1.00000E+000	Final Fre&q. (Hz)
PTSPERDEC	QUANT	1.00000E+001	Points/&decade
VAC	QUANT	2.50000E+001	AC &Voltage (mV rms)
AREA	QUANT	2.08200E-005	&Area (cm^2)
CONDIT	TWOPARAM	F	1.50000E+001	0.00000E+000	Conditionin&g	Time(s)	E(V)
DELAY	TWOPARAM	F	1.00000E+002	0.00000E+000	Init. De&lay	Time(s)	Stab.(mV/s)
SPEED	SELECTOR	1	&Optimize for:
ZGUESS	QUANT	2.00000E+003	E&stimated Z (ohms)
OCVCURVE	TABLE	39
	Pt	T	Vf	Vm	Ach	Over
	#	s	V vs. Ref.	V	V	bits
	0	0.258333	7.56477E-003	7.56477E-003	5.77037E-004	...........
	1	0.516667	7.57486E-003	8.09290E-003	5.79404E-004	...........
	2	0.775	7.62734E-003	8.09767E-003	5.74738E-004	...........
	3	1.03333	7.73760E-003	7.75008E-003	5.79204E-004	...........
	4	1.29167	7.85296E-003	7.85708E-003	5.82737E-004	...........
	5	1.55	7.90393E-003	7.73124E-003	5.76938E-004	...........
	6	1.80833	7.88265E-003	7.66546E-003	5.75238E-004	...........
	7	2.06667	7.82346E-003	7.63216E-003	5.75871E-004	...........
	8	2.325	7.75518E-003	7.60920E-003	5.77171E-004	...........
	9	2.58333	7.69424E-003	7.59368E-003	5.80337E-004	...........
	10	2.84167	7.64807E-003	7.56939E-003	5.82671E-004	...........
	11	3.1	7.61577E-003	7.55715E-003	5.78704E-004	...........
	12	3.35833	7.59235E-003	7.53486E-003	5.74637E-004	...........
	13	3.61667	7.57337E-003	7.53175E-003	5.79304E-004	...........
	14	3.875	7.55688E-003	7.51863E-003	5.78771E-004	...........
	15	4.13333	7.54277E-003	7.51260E-003	5.77237E-004	...........
	16	4.39167	7.53094E-003	7.49703E-003	5.76804E-004	...........
	17	4.65	7.52047E-003	7.48940E-003	5.78871E-004	...........
	18	4.90833	7.51016E-003	7.47273E-003	5.76404E-004	...........
	19	5.16667	7.49922E-003	7.45910E-003	5.73671E-004	...........
	20	5.425	7.48721E-003	7.44481E-003	5.76138E-004	...........
	21	5.68333	7.47421E-003	7.43712E-003	5.73204E-004	...........
	22	5.94167	7.46106E-003	7.42653E-003	5.72471E-004	...........
	23	6.2	7.44894E-003	7.42648E-003	5.75104E-004	...........
	24	6.45833	7.43877E-003	7.41618E-003	5.79137E-004	...........
	25	6.71667	7.43073E-003	7.41464E-003	5.76571E-004	...........
	26	6.975	7.42423E-003	7.40423E-003	5.74738E-004	...........
	27	7.23333	7.41843E-003	7.40404E-003	5.71471E-004	...........
	28	7.49167	7.41295E-003	7.39974E-003	5.75004E-004	...........
	29	7.75	7.40822E-003	7.40808E-003	5.76104E-004	...........
	30	8.00833	7.40516E-003	7.40540E-003	5.80604E-004	...........
	31	8.26667	7.40393E-003	7.39298E-003	5.75371E-004	...........
	32	8.525	7.40287E-003	7.38358E-003	5.77771E-004	...........
	33	8.78333	7.39973E-003	7.38094E-003	5.74204E-004	...........
	34	9.04167	7.39416E-003	7.37610E-003	5.75338E-004	...........
	35	9.3	7.38759E-003	7.36658E-003	5.83204E-004	...........
	36	9.5583	7.38105E-003	7.35815E-003	5.77704E-004	...........
	37	9.8167	7.37431E-003	7.35057E-003	5.75338E-004	...........
	38	10.075	7.36707E-003	7.34640E-003	5.73704E-004	...........
EOC	QUANT	0.0073671	Open Circuit (V)
PSTATMODEL	IQUANT	4	Pstat Model
PSTATSECTION	LABEL	REF600-11020	Pstat Section
PSTATSERIALNO	LABEL	11020	Pstat Serial Number
CTRLMODE	IQUANT	1	Control Mode
IESTAB	IQUANT	0	I/E Stability
CASPEED	IQUANT	1	Control Amp Speed
CONVENTION	IQUANT	1	Current Convention
ICHRANGE	IQUANT	2	Ich Range
ICHRANGEMODE	TOGGLE	F	Ich Auto Range
ICHOFFSETENABLE	TOGGLE	T	Ich Offset Enable
ICHOFFSET	QUANT	0	Ich Offset (V)
ICHFILTER	IQUANT	3	Ich Filter
VCHRANGE	IQUANT	2	Vch Range
VCHRANGEMODE	TOGGLE	F	Vch Auto Range
VCHOFFSETENABLE	TOGGLE	T	Vch Offset Enable
VCHOFFSET	QUANT	0	Vch Offset (V)
VCHFILTER	IQUANT	3	Vch Filter
ACHRANGE	IQUANT	2	Ach Range
ACHOFFSETENABLE	TOGGLE	F	Ach Offset Enable
ACHOFFSET	QUANT	0	Ach Offset (V)
ACHFILTER	IQUANT	3	Ach Filter
IERANGELOWERLIMIT	IQUANT	1	I/E Range Lower Limit
IERANGEMODE	TOGGLE	F	I/E AutoRange
IERANGE	IQUANT	6	I/E Range
POSFEEDENABLE	TOGGLE	F	Positive Feedback IR Comp
POSFEEDRESISTANCE	QUANT	0	Positive Feedback Resistance (ohm)
ACHSELECT	IQUANT	0	Ach Select
CABLEID	IQUANT	14	Cable ID
DCCALDATE	LABEL	1/27/2020	DC Calibration Date
ACCALDATE	LABEL	1/27/2020	AC Calibration Date
THERMOSELECT	IQUANT	1	Thermo Select
FRAMEWORKVERSION	QUANT	6.33	Framework Version
INSTRUMENTVERSION	LABEL	3.50	Instrument Version
ZCURVE	TABLE
	Pt	Time	Freq	Zreal	Zimag	Zsig	Zmod	Zphz	Idc	Vdc	IERange
	#	s	Hz	ohm	ohm	V	ohm	°	A	V	#
	0	2	1000078	1717.638	-2440.339	1	2984.214	-54.86011	-9.736341E-007	0.0096866	8
	1	3	794390.6	2159.345	-2697.508	1	3455.332	-51.32286	1.108492E-006	0.0091458	8
	2	4	630984.4	2647.41	-2928.715	1	3947.93	-47.88801	-1.420222E-006	0.0093168	8
	3	6	501234.4	3182.463	-3096.503	1	4440.315	-44.21566	-3.508698E-007	0.0090492	8
	4	7	398109.4	3759.646	-3215.676	1	4947.272	-40.54082	1.770219E-007	0.008836	8
	5	8	316265.6	4325.986	-3269.4	1	5422.465	-37.08047	1.235988E-007	0.0088346	8
	6	10	251203.1	4879.503	-3274.664	1	5876.477	-33.8658	-1.645158E-007	0.0088757	8
	7	11	199546.9	5374.877	-3255.279	1	6283.801	-31.20107	-9.965923E-007	0.008985	8
	8	12	158578.1	5887.132	-3206.225	1	6703.597	-28.57341	-9.969557E-007	0.0089786	8
	9	14	125953.1	6343.5	-3142.856	1	7079.375	-26.35589	-4.759211E-008	0.0088163	7
	10	15	100078.1	6757.437	-3118.07	1	7442.131	-24.76992	-2.025957E-008	0.0088251	7
	11	16	79453.13	7145.295	-3138.328	1	7804.124	-23.71185	-1.365007E-008	0.0088225	7
	12	18	63140.62	7516.122	-3196.791	1	8167.714	-23.04124	1.562346E-008	0.0088097	7
	13	19	50203.12	7882.48	-3299.889	1	8545.336	-22.71594	4.929851E-008	0.0087075	7
	14	21	39890.62	8254.246	-3458.799	1	8949.629	-22.73528	2.809374E-008	0.0087872	7
	15	22	31640.63	8639.725	-3672.53	1	9387.882	-23.02913	1.800721E-008	0.0087638	7
	16	23	25171.88	9045.092	-3951.05	1	9870.38	-23.59653	-4.308948E-009	0.0088296	7
	17	25	20015.62	9481.811	-4291.161	1	10407.63	-24.34997	5.267069E-008	0.0087187	7
	18	26	15890.62	9957.86	-4706.164	1	11013.94	-25.29579	-1.300873E-008	0.0087971	7
	19	27	12609.37	10505.93	-5168.729	1	11708.56	-26.19637	1.285277E-009	0.0087129	6
	20	29	10078.13	11067.04	-5744.909	1	12469.29	-27.43386	-4.189786E-009	0.0088344	6
	21	30	8015.625	11702.07	-6427.51	1	13351.08	-28.77835	-1.795239E-009	0.00882	6
	22	31	6328.125	12440.49	-7247.168	1	14397.48	-30.2228	1.108416E-009	0.0087084	6
	23	33	5015.625	13261.97	-8182.332	1	15583.02	-31.67364	1.304838E-010	0.0087379	6
	24	34	3984.375	14180.77	-9246.448	1	16929	-33.10601	-1.025149E-010	0.0088144	6
	25	35	3170.956	15211.94	-10459.12	1	18460.67	-34.51085	7.603934E-009	0.0086487	6
	26	37	2527.573	16376.32	-11842.05	1	20209.35	-35.87146	-8.019784E-010	0.0088141	6
	27	38	1976.103	17819.91	-13562.45	1	22393.96	-37.2742	7.440322E-009	0.0086481	6
	28	39	1577.524	19320.74	-15345.75	1	24673.53	-38.45882	7.377817E-009	0.0086458	6
	29	41	1265.625	21000.24	-17329.19	1	27227.02	-39.52911	1.736152E-010	0.0087303	6
	30	42	998.264	23037.98	-19757.98	1	30350.07	-40.61726	1.935503E-009	0.0087009	6
	31	44	796.875	25238.04	-22400.93	1	33745.52	-41.59181	3.653897E-009	0.008759	6
	32	45	627.7902	27893.58	-25561.79	1	37834.6	-42.50226	5.59847E-009	0.0086519	6
	33	46	505.5147	30636.77	-28838.39	1	42074.51	-43.26805	4.802091E-010	0.0088084	6
	34	48	397.9953	34020.54	-32943.57	1	47356.9	-44.0786	4.612729E-010	0.0087815	6
	35	49	315.5048	37794	-37516.55	1	53252.97	-44.78892	7.532215E-010	0.0087777	6
	36	50	252.4038	41927.11	-42529.91	1	59721.65	-45.40894	3.280104E-010	0.0087758	6
	37	52	198.6229	46982.04	-48643.37	1	67627.58	-45.99532	4.976609E-010	0.0087782	6
	38	53	158.3615	52405.52	-55296.78	1	76184.46	-46.53773	6.117359E-010	0.008777	6
	39	54	125.558	58860.36	-63032.91	1	86242.04	-46.96054	6.328723E-010	0.0087803	6
	40	56	100.4464	65983.67	-71398.59	1	97219.4	-47.25714	1.227455E-010	0.0087783	6
	41	57	79.00281	74653.07	-82067.3	1	110942	-47.70856	-6.409434E-011	0.0087711	5
	42	59	63.3446	82788.14	-92637.37	1	124239.9	-48.21349	-4.872765E-012	0.0087661	5
	43	60	49.86702	97626.6	-104602.8	1	143082.9	-46.97572	1.768527E-010	0.0087644	5
	44	61	39.72458	109687.2	-119064	1	161887.4	-47.34729	1.145851E-010	0.0087701	5
	45	63	31.6723	124903.2	-133357.5	1	182715.7	-46.87492	-2.713321E-010	0.0087686	5
	46	64	24.93351	142280	-150522.1	1	207124.4	-46.61238	-1.351879E-010	0.008767	5
	47	65	19.86229	161374.3	-168028.7	1	232970.6	-46.1573	-3.720718E-010	0.0087767	5
	48	67	15.83615	182457.4	-186799.7	1	261122.2	-45.67373	6.642968E-010	0.0087731	5
	49	68	12.40079	205861.8	-210593.6	1	294497.5	-45.65097	3.534114E-011	0.0087699	5
	50	70	9.93114	233107.2	-234231	1	330458.9	-45.13778	4.189501E-010	0.0087648	5
	51	71	7.944915	260556.8	-259604.3	1	367810.1	-44.89508	-6.132495E-010	0.0087662	5
	52	73	6.317385	293132.3	-289281.6	1	411837.8	-44.62119	-3.194104E-010	0.0087746	5
	53	75	5.008013	329042.1	-322295.1	1	460589.7	-44.40651	-1.404835E-010	0.0087622	5
	54	77	3.945707	369159.9	-360381.1	1	515900.7	-44.31057	2.712732E-010	0.0087787	5
	55	80	3.158693	410236.7	-399929.5	1	572920.4	-44.27111	-8.424604E-011	0.0087707	5
	56	83	2.504006	455300.6	-446069.3	1	637398.1	-44.41323	3.242737E-010	0.0087695	5
	57	86	1.998082	499554	-497522.5	1	705041	-44.88327	-4.662432E-011	0.0088087	5
	58	89	1.584686	549442.4	-562539.7	1	786344.6	-45.67482	1.902467E-010	0.0088062	5
	59	93	1.266892	599971.6	-634907.6	1	873540.9	-46.62053	-1.596864E-011	0.008815	5
	60	97	0.999041	659602.7	-732017	1	985355	-47.97876	1.275889E-010	0.008703	4
