EXPLAIN
TAG	EISPOT
TITLE	LABEL	Potentiostatic EIS	Test &Identifier
DATE	LABEL	9/11/2020	Date
TIME	LABEL	20:31:04	Time
NOTES	NOTES	1	&Notes...
	
PSTAT	PSTAT	REF600-11020	Potentiostat
VDC	POTEN	0.00000E+000	T	DC &Voltage (V)
FREQINIT	QUANT	1.00000E+006	Initial Fre&q. (Hz)
FREQFINAL	QUANT	1.00000E+000	Final Fre&q. (Hz)
PTSPERDEC	QUANT	1.00000E+001	Points/&decade
VAC	QUANT	2.50000E+001	AC &Voltage (mV rms)
AREA	QUANT	4.00000E-005	&Area (cm^2)
CONDIT	TWOPARAM	F	5.00000E+000	0.00000E+000	Conditionin&g	Time(s)	E(V)
DELAY	TWOPARAM	F	3.00000E+000	0.00000E+000	Init. De&lay	Time(s)	Stab.(mV/s)
SPEED	SELECTOR	0	&Optimize for:
ZGUESS	QUANT	1.00000E+003	E&stimated Z (ohms)
OCVCURVE	TABLE	39
	Pt	T	Vf	Vm	Ach	Over
	#	s	V vs. Ref.	V	V	bits
	0	0.258333	-1.31284E-001	-1.31284E-001	5.53925E-004	...........
	1	0.516667	-1.31284E-001	-1.31289E-001	5.53125E-004	...........
	2	0.775	-1.31285E-001	-1.31299E-001	5.53059E-004	...........
	3	1.03333	-1.31287E-001	-1.31308E-001	5.60225E-004	...........
	4	1.29167	-1.31292E-001	-1.31315E-001	5.60959E-004	...........
	5	1.55	-1.31298E-001	-1.31323E-001	5.54492E-004	...........
	6	1.80833	-1.31306E-001	-1.31330E-001	5.53792E-004	...........
	7	2.06667	-1.31314E-001	-1.31338E-001	5.53325E-004	...........
	8	2.325	-1.31322E-001	-1.31347E-001	5.53659E-004	...........
	9	2.58333	-1.31330E-001	-1.31357E-001	5.50792E-004	...........
	10	2.84167	-1.31338E-001	-1.31362E-001	5.52059E-004	...........
	11	3.1	-1.31346E-001	-1.31373E-001	5.48559E-004	...........
	12	3.35833	-1.31355E-001	-1.31381E-001	5.50259E-004	...........
	13	3.61667	-1.31363E-001	-1.31389E-001	5.55592E-004	...........
	14	3.875	-1.31371E-001	-1.31402E-001	5.51059E-004	...........
	15	4.13333	-1.31380E-001	-1.31409E-001	5.55592E-004	...........
	16	4.39167	-1.31390E-001	-1.31417E-001	5.51192E-004	...........
	17	4.65	-1.31399E-001	-1.31427E-001	5.48859E-004	...........
	18	4.90833	-1.31408E-001	-1.31438E-001	5.45725E-004	...........
	19	5.16667	-1.31418E-001	-1.31445E-001	5.49559E-004	...........
	20	5.425	-1.31427E-001	-1.31454E-001	5.44959E-004	...........
	21	5.68333	-1.31436E-001	-1.31461E-001	5.53625E-004	...........
	22	5.94167	-1.31445E-001	-1.31469E-001	5.52992E-004	...........
	23	6.2	-1.31453E-001	-1.31479E-001	5.50159E-004	...........
	24	6.45833	-1.31461E-001	-1.31486E-001	5.47892E-004	...........
	25	6.71667	-1.31469E-001	-1.31491E-001	5.49292E-004	...........
	26	6.975	-1.31477E-001	-1.31495E-001	5.49259E-004	...........
	27	7.23333	-1.31484E-001	-1.31503E-001	5.47792E-004	...........
	28	7.49167	-1.31490E-001	-1.31511E-001	5.52492E-004	...........
	29	7.75	-1.31496E-001	-1.31516E-001	5.49359E-004	...........
	30	8.00833	-1.31503E-001	-1.31524E-001	5.49725E-004	...........
	31	8.26667	-1.31510E-001	-1.31533E-001	5.56525E-004	...........
	32	8.525	-1.31516E-001	-1.31535E-001	5.56492E-004	...........
	33	8.78333	-1.31523E-001	-1.31544E-001	5.56159E-004	...........
	34	9.04167	-1.31530E-001	-1.31556E-001	5.53192E-004	...........
	35	9.3	-1.31537E-001	-1.31560E-001	5.51192E-004	...........
	36	9.5583	-1.31545E-001	-1.31564E-001	5.56759E-004	...........
	37	9.8167	-1.31552E-001	-1.31569E-001	5.57759E-004	...........
	38	10.075	-1.31558E-001	-1.31576E-001	5.56225E-004	...........
EOC	QUANT	-0.1315585	Open Circuit (V)
PSTATMODEL	IQUANT	4	Pstat Model
PSTATSECTION	LABEL	REF600-11020	Pstat Section
PSTATSERIALNO	LABEL	11020	Pstat Serial Number
CTRLMODE	IQUANT	1	Control Mode
IESTAB	IQUANT	0	I/E Stability
CASPEED	IQUANT	1	Control Amp Speed
CONVENTION	IQUANT	1	Current Convention
ICHRANGE	IQUANT	2	Ich Range
ICHRANGEMODE	TOGGLE	F	Ich Auto Range
ICHOFFSETENABLE	TOGGLE	T	Ich Offset Enable
ICHOFFSET	QUANT	0	Ich Offset (V)
ICHFILTER	IQUANT	3	Ich Filter
VCHRANGE	IQUANT	2	Vch Range
VCHRANGEMODE	TOGGLE	F	Vch Auto Range
VCHOFFSETENABLE	TOGGLE	T	Vch Offset Enable
VCHOFFSET	QUANT	0	Vch Offset (V)
VCHFILTER	IQUANT	3	Vch Filter
ACHRANGE	IQUANT	2	Ach Range
ACHOFFSETENABLE	TOGGLE	F	Ach Offset Enable
ACHOFFSET	QUANT	0	Ach Offset (V)
ACHFILTER	IQUANT	3	Ach Filter
IERANGELOWERLIMIT	IQUANT	1	I/E Range Lower Limit
IERANGEMODE	TOGGLE	F	I/E AutoRange
IERANGE	IQUANT	8	I/E Range
POSFEEDENABLE	TOGGLE	F	Positive Feedback IR Comp
POSFEEDRESISTANCE	QUANT	0	Positive Feedback Resistance (ohm)
ACHSELECT	IQUANT	0	Ach Select
CABLEID	IQUANT	14	Cable ID
DCCALDATE	LABEL	9/1/2020	DC Calibration Date
ACCALDATE	LABEL	9/1/2020	AC Calibration Date
THERMOSELECT	IQUANT	1	Thermo Select
FRAMEWORKVERSION	QUANT	6.33	Framework Version
INSTRUMENTVERSION	LABEL	3.50	Instrument Version
ZCURVE	TABLE
	Pt	Time	Freq	Zreal	Zimag	Zsig	Zmod	Zphz	Idc	Vdc	IERange
	#	s	Hz	ohm	ohm	V	ohm	°	A	V	#
	0	1	1000078	1950.145	-2649.453	1	3289.782	-53.64487	1.562518E-007	-0.1293356	8
	1	2	794390.6	2396.652	-2963.812	1	3811.577	-51.03967	1.016139E-007	-0.1295941	8
	2	2	630984.4	2920.616	-3256.707	1	4374.487	-48.11423	4.293653E-008	-0.1297905	8
	3	2	501234.4	3520.575	-3513.945	1	4974.159	-44.946	7.292267E-008	-0.1298795	8
	4	3	398109.4	4188.801	-3708.278	1	5594.406	-41.51795	2.076601E-008	-0.12996	8
	5	3	316265.6	4895.682	-3817.488	1	6208.133	-37.94591	7.679592E-008	-0.1299856	8
	6	3	251203.1	5620.041	-3832.758	1	6802.564	-34.29322	1.33189E-008	-0.1300123	8
	7	4	199546.9	6315.231	-3757.971	1	7348.775	-30.75538	9.471295E-008	-0.130014	8
	8	4	158578.1	6969.844	-3624.958	1	7856.147	-27.47857	4.50745E-008	-0.1299832	8
	9	4	125953.1	7639.353	-3400.748	1	8362.105	-23.9968	8.845268E-009	-0.1299538	7
	10	4	100078.1	8161.409	-3171.419	1	8755.94	-21.23549	6.765277E-010	-0.129999	7
	11	5	79453.13	8628.911	-2961.608	1	9123.006	-18.94321	1.332887E-009	-0.1300116	7
	12	5	63140.62	9031.056	-2754.989	1	9441.924	-16.96471	4.685828E-009	-0.1300106	7
	13	5	50203.12	9387.836	-2564.74	1	9731.87	-15.28023	3.919164E-009	-0.130021	7
	14	6	39890.62	9699.84	-2395.094	1	9991.16	-13.87008	3.616943E-009	-0.1300197	7
	15	6	31640.63	9976	-2251.659	1	10226.95	-12.71896	-2.798471E-010	-0.1300209	7
	16	6	25171.88	10228.43	-2149.018	1	10451.75	-11.8654	4.794129E-009	-0.1300162	7
	17	7	20015.62	10445.64	-2074.267	1	10649.6	-11.23153	3.596627E-009	-0.1300262	7
	18	7	15890.62	10654.51	-2038.39	1	10847.75	-10.83078	1.191321E-010	-0.1300282	7
	19	7	12609.37	10928.62	-1956	1	11102.29	-10.14733	-4.938183E-010	-0.1300276	6
	20	8	10078.13	11113.72	-2017.882	1	11295.42	-10.29091	2.46757E-010	-0.1300311	6
	21	8	8015.625	11296.58	-2125.218	1	11494.75	-10.65448	3.63482E-010	-0.1300295	6
	22	8	6328.125	11503.52	-2286.686	1	11728.6	-11.24278	-1.179833E-010	-0.1300327	6
	23	9	5015.625	11716.2	-2500.238	1	11980	-12.04624	4.092809E-010	-0.1300373	6
	24	9	3984.375	11940.87	-2770.015	1	12257.95	-13.06034	3.131634E-010	-0.1300359	6
	25	9	3170.956	12188.28	-3106.249	1	12577.87	-14.29777	1.282988E-010	-0.1300382	6
	26	10	2527.573	12445.48	-3510.421	1	12931.09	-15.75184	4.741208E-010	-0.1300418	6
	27	10	1976.103	12768.83	-4046.66	1	13394.72	-17.5843	5.931464E-012	-0.1300434	6
	28	10	1577.524	13101.48	-4644.309	1	13900.3	-19.51878	3.506748E-010	-0.1300464	6
	29	10	1265.625	13463.4	-5345.303	1	14485.7	-21.6543	1.37982E-010	-0.1300418	6
	30	11	998.264	13901.32	-6253.351	1	15243.07	-24.22005	1.140374E-010	-0.1300422	6
	31	11	796.875	14370.75	-7289.66	1	16113.89	-26.89671	4.25527E-010	-0.1300515	6
	32	11	627.7902	14927.1	-8615.489	1	17234.99	-29.99229	4.871704E-010	-0.1300447	6
	33	12	505.5147	15496.67	-10068.87	1	18480.5	-33.01356	-1.60333E-010	-0.1300443	6
	34	12	397.9953	16217.85	-12001.67	1	20175.69	-36.50248	5.668424E-010	-0.1300307	6
	35	12	315.5048	17031.26	-14287.43	1	22230.49	-39.99311	5.427694E-010	-0.1300302	6
	36	13	252.4038	17949.06	-16944.91	1	24683.97	-43.35164	5.397269E-010	-0.1300359	6
	37	13	198.6229	19099.81	-20411.11	1	27953.82	-46.90086	5.360338E-010	-0.1300334	6
	38	13	158.3615	20410.73	-24394.64	1	31807.18	-50.08115	5.608969E-010	-0.1300344	6
	39	14	125.558	22020.71	-29337.77	1	36682.64	-53.10838	6.021192E-010	-0.1300298	6
	40	14	100.4464	23916.62	-35075.76	1	42453.66	-55.71164	4.968175E-010	-0.1300365	6
	41	14	79.00281	26427.3	-42532.46	1	50074.07	-58.14548	4.992322E-010	-0.1300354	6
	42	15	63.3446	29288.08	-50789.08	1	58628.68	-60.02963	5.013587E-010	-0.1300392	6
	43	15	49.86702	33138.16	-61508.92	1	69867.63	-61.68627	3.588426E-010	-0.1300404	6
	44	15	39.72458	37679.03	-73720.59	1	82791.51	-62.92815	5.175318E-010	-0.1300315	6
	45	16	31.6723	43309.66	-88216.48	1	98274.5	-63.85139	5.88001E-010	-0.1300353	6
	46	16	24.93351	50757.21	-106398	1	117884.8	-64.4965	2.0008E-010	-0.1300431	5
	47	16	19.86229	59613.01	-127056.9	1	140346.6	-64.8648	8.218744E-010	-0.1300407	5
	48	17	15.83615	70754.08	-151454.7	1	167166.6	-64.95975	-3.853588E-010	-0.1300498	5
	49	17	12.40079	86041.76	-182358	1	201637.4	-64.74072	2.218266E-011	-0.130045	5
	50	17	9.93114	103750.3	-215196.6	1	238901	-64.26041	-2.730496E-010	-0.1300439	5
	51	18	7.944915	125787.1	-253034.8	1	282575.6	-63.5674	-8.167493E-011	-0.1300443	5
	52	18	6.317385	154284.4	-297007.8	1	334689.8	-62.54982	3.961315E-011	-0.13005	5
	53	19	5.008013	190146	-347199.8	1	395857.6	-61.29242	-1.494117E-010	-0.1300587	5
	54	20	3.945707	235849	-404017.1	1	467818.9	-59.72533	4.59225E-012	-0.1300416	5
	55	21	3.158693	285958.5	-461648.4	1	543039.1	-58.22471	-7.346058E-011	-0.1300582	5
	56	22	2.504006	348332.1	-525346.9	1	630336.9	-56.45356	1.973169E-010	-0.1300602	5
	57	23	1.998082	415439.8	-591489.1	1	722806.7	-54.91723	2.100393E-010	-0.1300493	5
	58	24	1.584686	495548.4	-662557.1	1	827375.4	-53.20596	8.666542E-011	-0.1300937	5
	59	26	1.266892	580812.3	-738993	1	939922.1	-51.83439	5.516938E-011	-0.1300988	5
	60	29	0.999041	679825.5	-827563.3	1	1070992	-50.59763	-2.034028E-011	-0.1300844	4
