EXPLAIN
TAG	EISPOT
TITLE	LABEL	Potentiostatic EIS	Test &Identifier
DATE	LABEL	2/25/2020	Date
TIME	LABEL	16:22:21	Time
NOTES	NOTES	1	&Notes...
	
PSTAT	PSTAT	REF600-11020	Potentiostat
VDC	POTEN	0.00000E+000	T	DC &Voltage (V)
FREQINIT	QUANT	1.00000E+006	Initial Fre&q. (Hz)
FREQFINAL	QUANT	1.00000E+000	Final Fre&q. (Hz)
PTSPERDEC	QUANT	1.00000E+001	Points/&decade
VAC	QUANT	2.50000E+001	AC &Voltage (mV rms)
AREA	QUANT	1.60000E-004	&Area (cm^2)
CONDIT	TWOPARAM	F	1.50000E+001	0.00000E+000	Conditionin&g	Time(s)	E(V)
DELAY	TWOPARAM	F	1.00000E+002	0.00000E+000	Init. De&lay	Time(s)	Stab.(mV/s)
SPEED	SELECTOR	1	&Optimize for:
ZGUESS	QUANT	1.00000E+003	E&stimated Z (ohms)
OCVCURVE	TABLE	39
	Pt	T	Vf	Vm	Ach	Over
	#	s	V vs. Ref.	V	V	bits
	0	0.258333	8.30593E-002	8.30593E-002	5.73538E-004	...........
	1	0.516667	8.30579E-002	8.29898E-002	5.76004E-004	...........
	2	0.775	8.30498E-002	8.29226E-002	5.72738E-004	...........
	3	1.03333	8.30273E-002	8.28949E-002	5.72804E-004	...........
	4	1.29167	8.29898E-002	8.28625E-002	5.72904E-004	...........
	5	1.55	8.29452E-002	8.28044E-002	5.71871E-004	...........
	6	1.80833	8.29008E-002	8.27893E-002	5.72104E-004	...........
	7	2.06667	8.28593E-002	8.27513E-002	5.72904E-004	...........
	8	2.325	8.28219E-002	8.27402E-002	5.76504E-004	...........
	9	2.58333	8.27897E-002	8.27254E-002	5.72604E-004	...........
	10	2.84167	8.27633E-002	8.26984E-002	5.73571E-004	...........
	11	3.1	8.27419E-002	8.27033E-002	5.73337E-004	...........
	12	3.35833	8.27242E-002	8.26813E-002	5.72871E-004	...........
	13	3.61667	8.27091E-002	8.26486E-002	5.74871E-004	...........
	14	3.875	8.26940E-002	8.26353E-002	5.71071E-004	...........
	15	4.13333	8.26765E-002	8.26204E-002	5.74238E-004	...........
	16	4.39167	8.26573E-002	8.25994E-002	5.69338E-004	...........
	17	4.65	8.26382E-002	8.25836E-002	5.70338E-004	...........
	18	4.90833	8.26197E-002	8.25588E-002	5.77671E-004	...........
	19	5.16667	8.26013E-002	8.25463E-002	5.71204E-004	...........
	20	5.425	8.25830E-002	8.25403E-002	5.76038E-004	...........
	21	5.68333	8.25658E-002	8.25209E-002	5.74271E-004	...........
	22	5.94167	8.25506E-002	8.25083E-002	5.74304E-004	...........
	23	6.2	8.25367E-002	8.24949E-002	5.74404E-004	...........
	24	6.45833	8.25233E-002	8.24898E-002	5.71071E-004	...........
	25	6.71667	8.25106E-002	8.24815E-002	5.69904E-004	...........
	26	6.975	8.24995E-002	8.24724E-002	5.72671E-004	...........
	27	7.23333	8.24899E-002	8.24588E-002	5.67538E-004	...........
	28	7.49167	8.24805E-002	8.24369E-002	5.66938E-004	...........
	29	7.75	8.24696E-002	8.24240E-002	5.67204E-004	...........
	30	8.00833	8.24563E-002	8.24096E-002	5.68804E-004	...........
	31	8.26667	8.24413E-002	8.23964E-002	5.73138E-004	...........
	32	8.525	8.24261E-002	8.23853E-002	5.78771E-004	...........
	33	8.78333	8.24119E-002	8.23810E-002	5.75671E-004	...........
	34	9.04167	8.23996E-002	8.23778E-002	5.73571E-004	...........
	35	9.3	8.23897E-002	8.23661E-002	5.72471E-004	...........
	36	9.5583	8.23817E-002	8.23466E-002	5.67304E-004	...........
	37	9.8167	8.23733E-002	8.23372E-002	5.76304E-004	...........
	38	10.075	8.23630E-002	8.23249E-002	5.76471E-004	...........
EOC	QUANT	0.082363	Open Circuit (V)
PSTATMODEL	IQUANT	4	Pstat Model
PSTATSECTION	LABEL	REF600-11020	Pstat Section
PSTATSERIALNO	LABEL	11020	Pstat Serial Number
CTRLMODE	IQUANT	1	Control Mode
IESTAB	IQUANT	0	I/E Stability
CASPEED	IQUANT	1	Control Amp Speed
CONVENTION	IQUANT	1	Current Convention
ICHRANGE	IQUANT	2	Ich Range
ICHRANGEMODE	TOGGLE	F	Ich Auto Range
ICHOFFSETENABLE	TOGGLE	T	Ich Offset Enable
ICHOFFSET	QUANT	0	Ich Offset (V)
ICHFILTER	IQUANT	3	Ich Filter
VCHRANGE	IQUANT	2	Vch Range
VCHRANGEMODE	TOGGLE	F	Vch Auto Range
VCHOFFSETENABLE	TOGGLE	T	Vch Offset Enable
VCHOFFSET	QUANT	0	Vch Offset (V)
VCHFILTER	IQUANT	3	Vch Filter
ACHRANGE	IQUANT	2	Ach Range
ACHOFFSETENABLE	TOGGLE	F	Ach Offset Enable
ACHOFFSET	QUANT	0	Ach Offset (V)
ACHFILTER	IQUANT	3	Ach Filter
IERANGELOWERLIMIT	IQUANT	1	I/E Range Lower Limit
IERANGEMODE	TOGGLE	F	I/E AutoRange
IERANGE	IQUANT	8	I/E Range
POSFEEDENABLE	TOGGLE	F	Positive Feedback IR Comp
POSFEEDRESISTANCE	QUANT	0	Positive Feedback Resistance (ohm)
ACHSELECT	IQUANT	0	Ach Select
CABLEID	IQUANT	14	Cable ID
DCCALDATE	LABEL	1/27/2020	DC Calibration Date
ACCALDATE	LABEL	1/27/2020	AC Calibration Date
THERMOSELECT	IQUANT	1	Thermo Select
FRAMEWORKVERSION	QUANT	6.33	Framework Version
INSTRUMENTVERSION	LABEL	3.50	Instrument Version
ZCURVE	TABLE
	Pt	Time	Freq	Zreal	Zimag	Zsig	Zmod	Zphz	Idc	Vdc	IERange
	#	s	Hz	ohm	ohm	V	ohm	°	A	V	#
	0	2	1000078	1636.726	-1387.482	1	2145.688	-40.28854	-2.973495E-006	0.084928	8
	1	3	794390.6	1883.491	-1429.541	1	2364.556	-37.19794	6.077819E-007	0.0840711	8
	2	4	630984.4	2131.111	-1446.342	1	2575.566	-34.16394	-6.734847E-007	0.08401	8
	3	6	501234.4	2372.621	-1452.196	1	2781.763	-31.46931	7.171497E-007	0.083704	8
	4	7	398109.4	2609.04	-1440.581	1	2980.329	-28.90529	2.128595E-007	0.0837523	8
	5	8	316265.6	2849.744	-1411.402	1	3180.109	-26.34799	-3.120205E-007	0.0838483	8
	6	10	251203.1	3062.274	-1396.746	1	3365.772	-24.51839	8.203345E-007	0.0836934	8
	7	11	199546.9	3272.918	-1358.948	1	3543.83	-22.54871	-1.105962E-006	0.0838973	8
	8	12	158578.1	3468.604	-1332.941	1	3715.904	-21.02115	-1.00815E-006	0.0839133	8
	9	14	125953.1	3672.516	-1281.135	1	3889.561	-19.23102	1.51296E-007	0.083417	7
	10	15	100078.1	3855.439	-1254.575	1	4054.426	-18.02509	-5.617162E-009	0.0837323	7
	11	16	79453.13	4030.826	-1233.678	1	4215.391	-17.0173	-2.993388E-009	0.0837626	7
	12	18	63140.62	4201.178	-1216.462	1	4373.749	-16.14851	-1.14133E-008	0.0837184	7
	13	19	50203.12	4369.961	-1203.671	1	4532.702	-15.3998	-3.027758E-009	0.0837508	7
	14	20	39890.62	4537.717	-1194.793	1	4692.378	-14.75132	1.33901E-008	0.0837263	7
	15	22	31640.63	4702.964	-1187.087	1	4850.469	-14.16627	6.010426E-008	0.0836145	7
	16	23	25171.88	4865.326	-1184.369	1	5007.407	-13.68143	4.028909E-008	0.0836222	7
	17	24	20015.62	5026.871	-1185.503	1	5164.77	-13.26979	1.729219E-008	0.0836902	7
	18	26	15890.62	5184.982	-1191.573	1	5320.14	-12.94256	-1.580716E-009	0.0837491	7
	19	27	12609.37	5339.695	-1202.206	1	5473.357	-12.68829	-3.301245E-009	0.0837202	7
	20	29	10078.13	5486.389	-1221.303	1	5620.68	-12.54976	3.965929E-008	0.083619	7
	21	30	8015.625	5634.802	-1253.062	1	5772.448	-12.53737	7.804948E-009	0.0837035	7
	22	31	6328.125	5784.194	-1300.499	1	5928.592	-12.67148	-2.860625E-008	0.0837607	7
	23	33	5015.625	5929.824	-1364.222	1	6084.728	-12.95609	-1.089984E-008	0.0837239	7
	24	34	3984.375	6074.847	-1447.774	1	6244.983	-13.40483	2.613816E-008	0.0836646	7
	25	35	3170.956	6220.443	-1556.967	1	6412.336	-14.05233	5.419169E-008	0.0836476	7
	26	37	2527.573	6364.289	-1693.334	1	6585.708	-14.89939	6.092464E-008	0.083606	7
	27	38	1976.103	6522.742	-1885.387	1	6789.76	-16.12185	-3.238011E-009	0.0837102	7
	28	39	1577.524	6668.687	-2106.083	1	6993.352	-17.52699	-4.510068E-009	0.083709	7
	29	41	1265.625	6812.041	-2377.053	1	7214.865	-19.23637	-5.298235E-010	0.0836755	7
	30	42	998.264	6977.921	-2743.126	1	7497.742	-21.46054	9.368686E-009	0.0836726	7
	31	43	796.875	7144.332	-3188.567	1	7823.582	-24.05155	1.645262E-008	0.0837161	7
	32	45	627.7902	7330.421	-3768.202	1	8242.233	-27.20542	-8.975475E-009	0.0837205	7
	33	46	505.5147	7522.924	-4420.476	1	8725.537	-30.43853	-2.91489E-008	0.0837519	7
	34	47	397.9953	7758.943	-5327.673	1	9411.976	-34.47541	9.578149E-009	0.0837153	7
	35	49	315.5048	8033.336	-6417.742	1	10282.12	-38.62096	1.430497E-009	0.0837138	6
	36	50	252.4038	8345.192	-7712.132	1	11363.06	-42.74228	1.593787E-009	0.0837144	6
	37	52	198.6229	8758.991	-9427.324	1	12868.35	-47.10463	1.596137E-009	0.0837094	6
	38	53	158.3615	9252.714	-11427.52	1	14703.77	-51.00336	1.443105E-009	0.0837121	6
	39	54	125.558	9893.72	-13933.76	1	17089.04	-54.6232	1.742861E-009	0.0837127	6
	40	56	100.4464	10685.59	-16871.25	1	19970.5	-57.65144	1.053438E-009	0.0837096	6
	41	57	79.00281	11796.47	-20701.96	1	23827.04	-60.32448	1.66724E-009	0.0837122	6
	42	59	63.3446	13139.34	-25069.14	1	28303.78	-62.33987	1.270477E-009	0.0837106	6
	43	60	49.86702	15059.94	-30431.35	1	33953.92	-63.67	7.557967E-010	0.0837069	6
	44	61	39.72458	17483.57	-36769.92	1	40714.89	-64.56958	6.471902E-010	0.0837136	6
	45	63	31.6723	20528.94	-44143.86	1	48683.86	-65.05939	8.804251E-010	0.0837119	6
	46	64	24.93351	24744.88	-53329.12	1	58790.34	-65.10855	1.107015E-009	0.0837062	6
	47	65	19.86229	29804.06	-63399.9	1	70055.9	-64.82196	2.136835E-009	0.0837204	6
	48	67	15.83615	36223.93	-74863.37	1	83166.68	-64.17918	1.709007E-009	0.0837105	6
	49	68	12.40079	44373.66	-89298.21	1	99715.6	-63.57651	1.688093E-009	0.0837051	6
	50	70	9.93114	54176.14	-103782.7	1	117072.2	-62.43475	1.26882E-009	0.0837036	5
	51	71	7.944915	65360.92	-120133.2	1	136762.7	-61.4507	-7.855587E-010	0.0837045	5
	52	73	6.317385	79096.23	-138973.3	1	159905.6	-60.35377	-2.909705E-010	0.0837068	5
	53	75	5.008013	95249.3	-160165.5	1	186347.5	-59.26035	7.449145E-011	0.0836962	5
	54	77	3.945707	113971.4	-183968.4	1	216411.3	-58.22112	6.311334E-010	0.0837121	5
	55	80	3.158693	133820.6	-209001.1	1	248172.2	-57.36912	1.679022E-011	0.0837106	5
	56	83	2.504006	155950.9	-237881.3	1	284443.7	-56.75183	4.5223E-010	0.0836964	5
	57	86	1.998082	178396.2	-269948.5	1	323569.8	-56.54117	1.621138E-012	0.0837322	5
	58	89	1.584686	203193.8	-309476.7	1	370221	-56.71221	2.484112E-010	0.0837462	5
	59	92	1.266892	227654.3	-353947.7	1	420839.1	-57.25143	-2.26218E-011	0.0837281	5
	60	97	0.999041	255348.2	-412443.8	1	485090.3	-58.23793	3.220105E-010	0.0837091	5
