EXPLAIN
TAG	EISPOT
TITLE	LABEL	Potentiostatic EIS	Test &Identifier
DATE	LABEL	9/11/2020	Date
TIME	LABEL	19:28:38	Time
NOTES	NOTES	1	&Notes...
	
PSTAT	PSTAT	REF600-11020	Potentiostat
VDC	POTEN	0.00000E+000	T	DC &Voltage (V)
FREQINIT	QUANT	1.00000E+006	Initial Fre&q. (Hz)
FREQFINAL	QUANT	1.00000E+000	Final Fre&q. (Hz)
PTSPERDEC	QUANT	1.00000E+001	Points/&decade
VAC	QUANT	2.50000E+001	AC &Voltage (mV rms)
AREA	QUANT	4.00000E-005	&Area (cm^2)
CONDIT	TWOPARAM	F	5.00000E+000	0.00000E+000	Conditionin&g	Time(s)	E(V)
DELAY	TWOPARAM	F	3.00000E+000	0.00000E+000	Init. De&lay	Time(s)	Stab.(mV/s)
SPEED	SELECTOR	0	&Optimize for:
ZGUESS	QUANT	1.00000E+003	E&stimated Z (ohms)
OCVCURVE	TABLE	39
	Pt	T	Vf	Vm	Ach	Over
	#	s	V vs. Ref.	V	V	bits
	0	0.258333	-1.28324E-001	-1.28324E-001	5.55225E-004	...........
	1	0.516667	-1.28324E-001	-1.28328E-001	5.52325E-004	...........
	2	0.775	-1.28325E-001	-1.28336E-001	5.55292E-004	...........
	3	1.03333	-1.28326E-001	-1.28335E-001	5.53859E-004	...........
	4	1.29167	-1.28329E-001	-1.28344E-001	5.53292E-004	...........
	5	1.55	-1.28334E-001	-1.28386E-001	5.56625E-004	...........
	6	1.80833	-1.28341E-001	-1.28364E-001	5.53925E-004	...........
	7	2.06667	-1.28352E-001	-1.28362E-001	5.54192E-004	...........
	8	2.325	-1.28361E-001	-1.28360E-001	5.52125E-004	...........
	9	2.58333	-1.28365E-001	-1.28357E-001	5.53125E-004	...........
	10	2.84167	-1.28364E-001	-1.28356E-001	5.50059E-004	...........
	11	3.1	-1.28361E-001	-1.28351E-001	5.54592E-004	...........
	12	3.35833	-1.28358E-001	-1.28345E-001	5.51892E-004	...........
	13	3.61667	-1.28354E-001	-1.28336E-001	5.54825E-004	...........
	14	3.875	-1.28350E-001	-1.28333E-001	5.57125E-004	...........
	15	4.13333	-1.28344E-001	-1.28330E-001	5.58659E-004	...........
	16	4.39167	-1.28339E-001	-1.28330E-001	5.61059E-004	...........
	17	4.65	-1.28335E-001	-1.28328E-001	5.51925E-004	...........
	18	4.90833	-1.28332E-001	-1.28333E-001	5.53392E-004	...........
	19	5.16667	-1.28330E-001	-1.28335E-001	5.57725E-004	...........
	20	5.425	-1.28331E-001	-1.28338E-001	5.56525E-004	...........
	21	5.68333	-1.28333E-001	-1.28345E-001	5.54892E-004	...........
	22	5.94167	-1.28336E-001	-1.28352E-001	5.48792E-004	...........
	23	6.2	-1.28340E-001	-1.28359E-001	5.52859E-004	...........
	24	6.45833	-1.28345E-001	-1.28367E-001	5.50559E-004	...........
	25	6.71667	-1.28352E-001	-1.28375E-001	5.51792E-004	...........
	26	6.975	-1.28359E-001	-1.28382E-001	5.55192E-004	...........
	27	7.23333	-1.28366E-001	-1.28387E-001	5.51559E-004	...........
	28	7.49167	-1.28374E-001	-1.28395E-001	5.49892E-004	...........
	29	7.75	-1.28381E-001	-1.28398E-001	5.49125E-004	...........
	30	8.00833	-1.28387E-001	-1.28402E-001	5.49692E-004	...........
	31	8.26667	-1.28392E-001	-1.28404E-001	5.49325E-004	...........
	32	8.525	-1.28397E-001	-1.28406E-001	5.51925E-004	...........
	33	8.78333	-1.28401E-001	-1.28403E-001	5.54992E-004	...........
	34	9.04167	-1.28403E-001	-1.28406E-001	5.57259E-004	...........
	35	9.3	-1.28404E-001	-1.28411E-001	5.58692E-004	...........
	36	9.5583	-1.28406E-001	-1.28419E-001	5.54025E-004	...........
	37	9.8167	-1.28408E-001	-1.28425E-001	5.55959E-004	...........
	38	10.075	-1.28412E-001	-1.28429E-001	5.54992E-004	...........
EOC	QUANT	-0.1284122	Open Circuit (V)
PSTATMODEL	IQUANT	4	Pstat Model
PSTATSECTION	LABEL	REF600-11020	Pstat Section
PSTATSERIALNO	LABEL	11020	Pstat Serial Number
CTRLMODE	IQUANT	1	Control Mode
IESTAB	IQUANT	0	I/E Stability
CASPEED	IQUANT	1	Control Amp Speed
CONVENTION	IQUANT	1	Current Convention
ICHRANGE	IQUANT	2	Ich Range
ICHRANGEMODE	TOGGLE	F	Ich Auto Range
ICHOFFSETENABLE	TOGGLE	T	Ich Offset Enable
ICHOFFSET	QUANT	0	Ich Offset (V)
ICHFILTER	IQUANT	3	Ich Filter
VCHRANGE	IQUANT	2	Vch Range
VCHRANGEMODE	TOGGLE	F	Vch Auto Range
VCHOFFSETENABLE	TOGGLE	T	Vch Offset Enable
VCHOFFSET	QUANT	0	Vch Offset (V)
VCHFILTER	IQUANT	3	Vch Filter
ACHRANGE	IQUANT	2	Ach Range
ACHOFFSETENABLE	TOGGLE	F	Ach Offset Enable
ACHOFFSET	QUANT	0	Ach Offset (V)
ACHFILTER	IQUANT	3	Ach Filter
IERANGELOWERLIMIT	IQUANT	1	I/E Range Lower Limit
IERANGEMODE	TOGGLE	F	I/E AutoRange
IERANGE	IQUANT	8	I/E Range
POSFEEDENABLE	TOGGLE	F	Positive Feedback IR Comp
POSFEEDRESISTANCE	QUANT	0	Positive Feedback Resistance (ohm)
ACHSELECT	IQUANT	0	Ach Select
CABLEID	IQUANT	14	Cable ID
DCCALDATE	LABEL	9/1/2020	DC Calibration Date
ACCALDATE	LABEL	9/1/2020	AC Calibration Date
THERMOSELECT	IQUANT	1	Thermo Select
FRAMEWORKVERSION	QUANT	6.33	Framework Version
INSTRUMENTVERSION	LABEL	3.50	Instrument Version
ZCURVE	TABLE
	Pt	Time	Freq	Zreal	Zimag	Zsig	Zmod	Zphz	Idc	Vdc	IERange
	#	s	Hz	ohm	ohm	V	ohm	°	A	V	#
	0	1	1000078	2529.795	-6768.276	1	7225.609	-69.50564	6.728819E-008	-0.1264085	8
	1	1	794390.6	3362.155	-8069.902	1	8742.276	-67.38198	1.906072E-007	-0.1266772	8
	2	1	630984.4	4461.016	-9506.66	1	10501.29	-64.8616	1.059839E-008	-0.1268281	8
	3	2	501234.4	5868.5	-11063.72	1	12523.78	-62.05729	7.786143E-008	-0.1269308	8
	4	2	398109.4	7669.555	-12652.78	1	14795.77	-58.77761	1.142989E-007	-0.1270015	8
	5	2	316265.6	9897.63	-14153.22	1	17270.69	-55.03413	1.602372E-007	-0.1269652	8
	6	3	251203.1	12519.57	-15549.2	1	19962.9	-51.16042	6.900213E-008	-0.1270137	8
	7	3	199546.9	15439.94	-16621.83	1	22686.5	-47.11113	9.613571E-008	-0.1270116	8
	8	3	158578.1	18577.94	-17400.15	1	25453.98	-43.12501	9.264171E-008	-0.1270125	8
	9	4	125953.1	21998.41	-17649.4	1	28203.4	-38.74019	-1.600686E-009	-0.1270015	7
	10	4	100078.1	25183.28	-17604.52	1	30726.48	-34.9557	3.274533E-009	-0.1270262	7
	11	4	79453.13	28163.83	-17296.93	1	33051.25	-31.55633	7.691386E-009	-0.127027	7
	12	4	63140.62	30885.97	-16792.13	1	35155.64	-28.53211	4.0387E-009	-0.1270269	7
	13	5	50203.12	33379.58	-16247.78	1	37123.94	-25.95487	3.588635E-009	-0.1270362	7
	14	5	39890.62	35539.94	-15731.33	1	38865.95	-23.876	3.762252E-009	-0.1270348	7
	15	5	31640.63	37577.56	-15403.98	1	40612.26	-22.28995	8.128317E-009	-0.1270372	7
	16	6	25171.88	39410.37	-15206.15	1	42242.21	-21.09867	3.439079E-009	-0.1270388	7
	17	6	20015.62	41156.45	-15268.32	1	43897.32	-20.35398	4.706905E-009	-0.1270425	7
	18	6	15890.62	42982.6	-15608.08	1	45728.72	-19.95725	7.050352E-009	-0.1270472	7
	19	7	12609.37	45114.36	-15929.41	1	47844.04	-19.4476	1.427836E-009	-0.1270493	6
	20	7	10078.13	47015.27	-16743.58	1	49907.75	-19.60238	6.719589E-010	-0.1270476	6
	21	7	8015.625	49175.36	-17783.71	1	52292.22	-19.88195	6.116376E-010	-0.1270395	6
	22	8	6328.125	51662.36	-19028.98	1	55055.44	-20.22045	1.359858E-009	-0.1270459	6
	23	8	5015.625	54396.7	-20376.82	1	58088	-20.53578	1.422052E-009	-0.127056	6
	24	8	3984.375	57428.63	-21713.05	1	61396.29	-20.71098	8.468241E-010	-0.127048	6
	25	9	3170.956	60673.8	-22989.89	1	64883.32	-20.75218	1.143838E-009	-0.1270519	6
	26	9	2527.573	64143.57	-24213.53	1	68561.59	-20.681	1.154089E-009	-0.1270467	6
	27	9	1976.103	68052.34	-25375.13	1	72629.33	-20.44931	6.566042E-010	-0.1270519	6
	28	10	1577.524	71774.54	-26451.61	1	76493.61	-20.23074	7.157521E-010	-0.1270618	6
	29	10	1265.625	75481.27	-27503.49	1	80335.95	-20.02048	1.135275E-009	-0.1270589	6
	30	10	998.264	79425.54	-28573.87	1	84409.02	-19.78653	1.368201E-009	-0.1270588	6
	31	11	796.875	83187.38	-29765.68	1	88352.34	-19.68796	8.237356E-010	-0.1270576	6
	32	11	627.7902	87536.76	-30394.5	1	92663.42	-19.14802	1.687487E-010	-0.12706	5
	33	11	505.5147	91038.16	-32098.19	1	96531	-19.42161	1.058693E-010	-0.1270631	5
	34	11	397.9953	94939.94	-34412.81	1	100984.3	-19.92403	3.305187E-010	-0.1270511	5
	35	12	315.5048	98785.1	-37174.71	1	105548.4	-20.62227	3.479129E-010	-0.1270453	5
	36	12	252.4038	102703.9	-40507.58	1	110403.6	-21.52483	2.904415E-010	-0.1270543	5
	37	12	198.6229	107117.2	-44864.55	1	116133.2	-22.7257	2.789977E-010	-0.1270517	5
	38	13	158.3615	111559	-49865.4	1	122196.4	-24.08402	3.431586E-010	-0.1270561	5
	39	13	125.558	116681.9	-56109.08	1	129471.6	-25.6816	2.480566E-010	-0.1270528	5
	40	13	100.4464	122113.7	-63258.61	1	137526	-27.38553	2.977809E-010	-0.1270525	5
	41	14	79.00281	128837.6	-72452.14	1	147812.2	-29.35133	3.036774E-010	-0.1270612	5
	42	14	63.3446	135803.4	-82399.3	1	158846.5	-31.24747	3.238399E-010	-0.1270609	5
	43	14	49.86702	144521.2	-95065.5	1	172985.1	-33.33677	1.593492E-010	-0.1270619	5
	44	15	39.72458	154376	-109238.6	1	189116.4	-35.28375	2.565798E-010	-0.1270555	5
	45	15	31.6723	165676.9	-125589.1	1	207897.7	-37.16346	2.332474E-010	-0.1270595	5
	46	15	24.93351	179785.1	-145646.2	1	231377.4	-39.01138	5.235973E-010	-0.1270613	5
	47	16	19.86229	195863.2	-167978.6	1	258029.5	-40.61745	1.030788E-009	-0.1270541	5
	48	16	15.83615	215096.2	-192841.5	1	288884.5	-41.87738	-1.628497E-010	-0.1270574	5
	49	16	12.40079	239623.3	-223481.7	1	327663.6	-43.00376	-2.478269E-010	-0.1270553	5
	50	17	9.93114	265515.4	-254330.2	1	367671.5	-43.7674	-4.209064E-010	-0.1270602	5
	51	17	7.944915	296655.7	-289673.6	1	414626.8	-44.31774	5.770547E-011	-0.1270541	5
	52	17	6.317385	334088.8	-328882.9	1	468806.3	-44.55009	1.892612E-010	-0.1270558	5
	53	18	5.008013	378230.1	-372646.8	1	530964.8	-44.57397	-2.791873E-012	-0.127069	5
	54	19	3.945707	431374.1	-420378.6	1	602330.3	-44.2604	2.290752E-010	-0.1270612	5
	55	20	3.158693	487597.4	-469116.3	1	676624.9	-43.89334	9.812642E-011	-0.1270777	5
	56	21	2.504006	554852.8	-521457.7	1	761432.7	-43.22284	3.147705E-010	-0.127078	5
	57	22	1.998082	627812.7	-576351.6	1	852249.9	-42.5529	3.988262E-010	-0.1270492	5
	58	24	1.584686	712070.1	-632485.7	1	952409	-41.61261	2.906922E-010	-0.1271023	5
	59	26	1.266892	806462.6	-690736.9	1	1061838	-40.58013	1.876257E-010	-0.1271172	4
	60	28	0.999041	912830.6	-754547.7	1	1184315	-39.57721	1.453022E-010	-0.127111	4
