EXPLAIN
TAG	EISPOT
TITLE	LABEL	Potentiostatic EIS	Test &Identifier
DATE	LABEL	2/21/2020	Date
TIME	LABEL	17:29:11	Time
NOTES	NOTES	1	&Notes...
	
PSTAT	PSTAT	REF600-11020	Potentiostat
VDC	POTEN	0.00000E+000	T	DC &Voltage (V)
FREQINIT	QUANT	1.00000E+006	Initial Fre&q. (Hz)
FREQFINAL	QUANT	1.00000E+000	Final Fre&q. (Hz)
PTSPERDEC	QUANT	1.00000E+001	Points/&decade
VAC	QUANT	2.50000E+001	AC &Voltage (mV rms)
AREA	QUANT	2.08200E-005	&Area (cm^2)
CONDIT	TWOPARAM	F	1.50000E+001	0.00000E+000	Conditionin&g	Time(s)	E(V)
DELAY	TWOPARAM	F	1.00000E+002	0.00000E+000	Init. De&lay	Time(s)	Stab.(mV/s)
SPEED	SELECTOR	1	&Optimize for:
ZGUESS	QUANT	2.00000E+003	E&stimated Z (ohms)
OCVCURVE	TABLE	39
	Pt	T	Vf	Vm	Ach	Over
	#	s	V vs. Ref.	V	V	bits
	0	0.258333	5.56258E-002	5.56258E-002	5.51105E-004	...........
	1	0.516667	5.56257E-002	5.56210E-002	5.52638E-004	...........
	2	0.775	5.56247E-002	5.55915E-002	5.55238E-004	...........
	3	1.03333	5.56206E-002	5.55825E-002	5.51971E-004	...........
	4	1.29167	5.56115E-002	5.55651E-002	5.51438E-004	...........
	5	1.55	5.55982E-002	5.55467E-002	5.52404E-004	...........
	6	1.80833	5.55824E-002	5.55269E-002	5.52138E-004	...........
	7	2.06667	5.55651E-002	5.54951E-002	5.51938E-004	...........
	8	2.325	5.55464E-002	5.55067E-002	5.50271E-004	...........
	9	2.58333	5.55284E-002	5.55111E-002	5.51571E-004	...........
	10	2.84167	5.55153E-002	5.55165E-002	5.55638E-004	...........
	11	3.1	5.55098E-002	5.55152E-002	5.54638E-004	...........
	12	3.35833	5.55100E-002	5.55177E-002	5.50305E-004	...........
	13	3.61667	5.55125E-002	5.55169E-002	5.54305E-004	...........
	14	3.875	5.55150E-002	5.55200E-002	5.56704E-004	...........
	15	4.13333	5.55167E-002	5.55204E-002	5.55504E-004	...........
	16	4.39167	5.55180E-002	5.55191E-002	5.53005E-004	...........
	17	4.65	5.55190E-002	5.55196E-002	5.53638E-004	...........
	18	4.90833	5.55196E-002	5.55260E-002	5.56738E-004	...........
	19	5.16667	5.55204E-002	5.55245E-002	5.52871E-004	...........
	20	5.425	5.55216E-002	5.55256E-002	5.58304E-004	...........
	21	5.68333	5.55232E-002	5.55266E-002	5.53371E-004	...........
	22	5.94167	5.55246E-002	5.55297E-002	5.59938E-004	...........
	23	6.2	5.55258E-002	5.55264E-002	5.54704E-004	...........
	24	6.45833	5.55268E-002	5.55283E-002	5.53638E-004	...........
	25	6.71667	5.55275E-002	5.55295E-002	5.51705E-004	...........
	26	6.975	5.55280E-002	5.55304E-002	5.51638E-004	...........
	27	7.23333	5.55285E-002	5.55281E-002	5.58671E-004	...........
	28	7.49167	5.55290E-002	5.55311E-002	5.57804E-004	...........
	29	7.75	5.55295E-002	5.55348E-002	5.60038E-004	...........
	30	8.00833	5.55302E-002	5.55337E-002	5.60704E-004	...........
	31	8.26667	5.55315E-002	5.55343E-002	5.50805E-004	...........
	32	8.525	5.55327E-002	5.55311E-002	5.58738E-004	...........
	33	8.78333	5.55333E-002	5.55313E-002	5.61104E-004	...........
	34	9.04167	5.55330E-002	5.55295E-002	5.51671E-004	...........
	35	9.3	5.55319E-002	5.55175E-002	5.54104E-004	...........
	36	9.5583	5.55298E-002	5.55206E-002	5.57071E-004	...........
	37	9.8167	5.55268E-002	5.55314E-002	5.56304E-004	...........
	38	10.075	5.55252E-002	5.55587E-002	5.56138E-004	...........
EOC	QUANT	0.0555252	Open Circuit (V)
PSTATMODEL	IQUANT	4	Pstat Model
PSTATSECTION	LABEL	REF600-11020	Pstat Section
PSTATSERIALNO	LABEL	11020	Pstat Serial Number
CTRLMODE	IQUANT	1	Control Mode
IESTAB	IQUANT	0	I/E Stability
CASPEED	IQUANT	1	Control Amp Speed
CONVENTION	IQUANT	1	Current Convention
ICHRANGE	IQUANT	2	Ich Range
ICHRANGEMODE	TOGGLE	F	Ich Auto Range
ICHOFFSETENABLE	TOGGLE	T	Ich Offset Enable
ICHOFFSET	QUANT	0	Ich Offset (V)
ICHFILTER	IQUANT	3	Ich Filter
VCHRANGE	IQUANT	2	Vch Range
VCHRANGEMODE	TOGGLE	F	Vch Auto Range
VCHOFFSETENABLE	TOGGLE	T	Vch Offset Enable
VCHOFFSET	QUANT	0	Vch Offset (V)
VCHFILTER	IQUANT	3	Vch Filter
ACHRANGE	IQUANT	2	Ach Range
ACHOFFSETENABLE	TOGGLE	F	Ach Offset Enable
ACHOFFSET	QUANT	0	Ach Offset (V)
ACHFILTER	IQUANT	3	Ach Filter
IERANGELOWERLIMIT	IQUANT	1	I/E Range Lower Limit
IERANGEMODE	TOGGLE	F	I/E AutoRange
IERANGE	IQUANT	7	I/E Range
POSFEEDENABLE	TOGGLE	F	Positive Feedback IR Comp
POSFEEDRESISTANCE	QUANT	0	Positive Feedback Resistance (ohm)
ACHSELECT	IQUANT	0	Ach Select
CABLEID	IQUANT	14	Cable ID
DCCALDATE	LABEL	1/27/2020	DC Calibration Date
ACCALDATE	LABEL	1/27/2020	AC Calibration Date
THERMOSELECT	IQUANT	1	Thermo Select
FRAMEWORKVERSION	QUANT	6.33	Framework Version
INSTRUMENTVERSION	LABEL	3.50	Instrument Version
ZCURVE	TABLE
	Pt	Time	Freq	Zreal	Zimag	Zsig	Zmod	Zphz	Idc	Vdc	IERange
	#	s	Hz	ohm	ohm	V	ohm	°	A	V	#
	0	1	1000078	1640.467	-1722.386	1	2378.602	-46.39546	1.033343E-006	0.0575081	8
	1	2	794390.6	1972.344	-1818.298	1	2682.601	-42.67287	1.333963E-006	0.0572454	8
	2	4	630984.4	2318.923	-1867.233	1	2977.241	-38.84155	-2.515823E-008	0.0571712	8
	3	5	501234.4	2678.556	-1876.161	1	3270.266	-35.00884	2.039527E-007	0.0571223	8
	4	6	398109.4	3009.496	-1842.12	1	3528.522	-31.47091	2.515407E-007	0.0571103	8
	5	8	316265.6	3333.553	-1775.583	1	3776.939	-28.04154	2.456702E-007	0.0570189	8
	6	9	251203.1	3623.742	-1691.364	1	3999.028	-25.02059	4.392824E-007	0.0570084	8
	7	10	199546.9	3879.258	-1596.61	1	4194.974	-22.3709	2.223775E-007	0.0570137	8
	8	12	158578.1	4105.539	-1492.486	1	4368.406	-19.97772	-6.721369E-007	0.0571974	8
	9	13	125953.1	4318.13	-1388.024	1	4535.731	-17.81954	-1.436E-008	0.0569792	7
	10	15	100078.1	4499.523	-1309.648	1	4686.244	-16.22836	3.708238E-008	0.0569964	7
	11	16	79453.13	4658.425	-1246.377	1	4822.28	-14.97883	3.951329E-009	0.056988	7
	12	17	63140.62	4805.284	-1198.284	1	4952.438	-14.00216	-6.925159E-009	0.0570123	7
	13	19	50203.12	4943.922	-1166.98	1	5079.785	-13.28119	-1.051628E-008	0.0570338	7
	14	20	39890.62	5079.691	-1152.151	1	5208.715	-12.77933	2.127399E-008	0.0570069	7
	15	21	31640.63	5212.762	-1151.754	1	5338.485	-12.45927	1.028186E-008	0.0569739	7
	16	23	25171.88	5347.276	-1168.464	1	5473.452	-12.32628	1.360885E-008	0.0569919	7
	17	24	20015.62	5482.93	-1198.645	1	5612.421	-12.33165	-1.705782E-008	0.057034	7
	18	25	15890.62	5626.436	-1242.596	1	5762.016	-12.45384	3.968474E-009	0.0569974	7
	19	27	12609.37	5776.547	-1303.333	1	5921.754	-12.71446	-9.553661E-009	0.0570291	7
	20	28	10078.13	5925.143	-1372.759	1	6082.087	-13.04435	-9.862681E-009	0.0570199	7
	21	30	8015.625	6081.731	-1464.162	1	6255.495	-13.53623	4.570316E-008	0.0569331	7
	22	31	6328.125	6248.972	-1573.073	1	6443.928	-14.12966	1.903265E-008	0.0569764	7
	23	32	5015.625	6419.023	-1707.415	1	6642.223	-14.89538	2.317137E-008	0.0570095	7
	24	34	3984.375	6588.942	-1870.595	1	6849.328	-15.8492	3.93422E-010	0.0570454	7
	25	35	3170.956	6759.767	-2068.041	1	7069.034	-17.01064	-5.493313E-009	0.0570286	7
	26	36	2527.573	6934.48	-2309.491	1	7308.951	-18.42006	2.665074E-008	0.0569486	7
	27	38	1976.103	7131.597	-2642.548	1	7605.441	-20.33173	-4.157679E-009	0.0570271	7
	28	39	1577.524	7320.456	-3017.881	1	7918.124	-22.40406	1.913909E-008	0.0569778	7
	29	40	1265.625	7517.045	-3481.915	1	8284.305	-24.8537	2.272348E-008	0.0570124	7
	30	42	998.264	7753.337	-4094.701	1	8768.17	-27.83948	5.072214E-010	0.0570437	7
	31	43	796.875	8005.129	-4803.644	1	9335.796	-30.96674	4.206707E-009	0.0569664	6
	32	45	627.7902	8306.916	-5740.868	1	10097.64	-34.64816	-2.126884E-009	0.0570427	6
	33	46	505.5147	8625.652	-6777.483	1	10969.78	-38.15799	-4.100891E-009	0.0570464	6
	34	47	397.9953	9030.7	-8172.426	1	12179.58	-42.14385	1.51922E-009	0.0570156	6
	35	49	315.5048	9498.249	-9833.57	1	13671.72	-45.99372	1.300165E-009	0.0570099	6
	36	50	252.4038	10028.06	-11772.06	1	15464.26	-49.57391	1.312113E-009	0.0570102	6
	37	51	198.6229	10698.56	-14312.13	1	17868.86	-53.22127	1.308608E-009	0.0570073	6
	38	53	158.3615	11449.66	-17245.96	1	20700.68	-56.41965	1.386736E-009	0.0570047	6
	39	54	125.558	12366.37	-20920.91	1	24302.5	-59.41264	1.136711E-009	0.0570091	6
	40	56	100.4464	13407.9	-25241.45	1	28581.51	-62.0234	1.245429E-009	0.0570029	6
	41	57	79.00281	14765.16	-30923.82	1	34267.95	-64.47697	9.973626E-010	0.0570025	6
	42	58	63.3446	16281.79	-37176.5	1	40585.57	-66.34854	8.376065E-010	0.0569985	6
	43	60	49.86702	18679.91	-45900.46	1	49555.94	-67.85537	6.436717E-010	0.0569962	6
	44	61	39.72458	21185.2	-55710.25	1	59602.39	-69.17946	1.305086E-009	0.0570059	6
	45	63	31.6723	24424.82	-67576.35	1	71854.96	-70.1281	7.734526E-010	0.057003	6
	46	64	24.93351	29148.94	-82987.03	1	87957.42	-70.64633	9.596154E-010	0.0570017	6
	47	65	19.86229	34839.21	-100455.6	1	106325.4	-70.87284	8.563297E-010	0.0570103	5
	48	67	15.83615	42932.38	-121287.9	1	128662.1	-70.50751	8.854338E-010	0.0570052	5
	49	68	12.40079	53121.04	-148216.4	1	157448.2	-70.28222	7.718485E-010	0.0569998	5
	50	70	9.93114	65791.77	-177648.6	1	189440.2	-69.67801	3.983464E-010	0.0569985	5
	51	71	7.944915	81991.86	-211352.3	1	226699	-68.79677	2.33044E-010	0.0569994	5
	52	73	6.317385	103415.5	-251541.1	1	271970	-67.65107	5.943057E-010	0.0570079	5
	53	75	5.008013	131121.7	-298379.1	1	325918.7	-66.27708	4.698636E-010	0.0570156	5
	54	77	3.945707	167568.1	-352605.1	1	390396.4	-64.58159	1.586186E-010	0.0570011	5
	55	80	3.158693	209027.1	-408048.4	1	458471.2	-62.87573	2.259065E-010	0.0570227	5
	56	83	2.504006	260926.1	-471267.6	1	538679.5	-61.02808	8.388564E-011	0.0570018	5
	57	86	1.998082	319312.1	-537161.7	1	624902.3	-59.27092	-1.22004E-010	0.0570207	5
	58	89	1.584686	389744	-610427.8	1	724239.2	-57.44271	2.14999E-010	0.057048	5
	59	93	1.266892	463438.2	-684829.3	1	826901.5	-55.91298	-8.183883E-011	0.0570268	5
	60	97	0.999041	549642	-772695.5	1	948242.9	-54.57459	3.490083E-010	0.0569933	5
