EXPLAIN
TAG	EISPOT
TITLE	LABEL	Potentiostatic EIS	Test &Identifier
DATE	LABEL	6/6/2020	Date
TIME	LABEL	18:45:45	Time
NOTES	NOTES	1	&Notes...
	
PSTAT	PSTAT	REF600-11020	Potentiostat
VDC	POTEN	0.00000E+000	T	DC &Voltage (V)
FREQINIT	QUANT	1.00000E+006	Initial Fre&q. (Hz)
FREQFINAL	QUANT	1.00000E+000	Final Fre&q. (Hz)
PTSPERDEC	QUANT	1.00000E+001	Points/&decade
VAC	QUANT	2.50000E+001	AC &Voltage (mV rms)
AREA	QUANT	4.00000E-004	&Area (cm^2)
CONDIT	TWOPARAM	F	5.00000E+000	0.00000E+000	Conditionin&g	Time(s)	E(V)
DELAY	TWOPARAM	T	3.00000E+000	0.00000E+000	Init. De&lay	Time(s)	Stab.(mV/s)
SPEED	SELECTOR	0	&Optimize for:
ZGUESS	QUANT	1.00000E+003	E&stimated Z (ohms)
OCVCURVE	TABLE	12
	Pt	T	Vf	Vm	Ach	Over
	#	s	V vs. Ref.	V	V	bits
	0	0.258333	6.62041E-002	6.62041E-002	5.66497E-004	...........
	1	0.516667	6.62061E-002	6.63104E-002	5.62330E-004	...........
	2	0.775	6.62188E-002	6.64193E-002	5.56464E-004	...........
	3	1.03333	6.62552E-002	6.65331E-002	5.62697E-004	...........
	4	1.29167	6.63220E-002	6.66389E-002	5.69097E-004	...........
	5	1.55	6.64136E-002	6.67411E-002	5.68197E-004	...........
	6	1.80833	6.65175E-002	6.68240E-002	5.65330E-004	...........
	7	2.06667	6.66231E-002	6.69303E-002	5.71763E-004	...........
	8	2.325	6.67257E-002	6.70594E-002	5.67663E-004	...........
	9	2.58333	6.68292E-002	6.72334E-002	5.64763E-004	...........
	10	2.84167	6.69428E-002	6.73946E-002	5.65797E-004	...........
	11	3.1	6.70741E-002	6.75676E-002	5.60864E-004	...........
EOC	QUANT	0.0670741	Open Circuit (V)
PSTATMODEL	IQUANT	4	Pstat Model
PSTATSECTION	LABEL	REF600-11020	Pstat Section
PSTATSERIALNO	LABEL	11020	Pstat Serial Number
CTRLMODE	IQUANT	1	Control Mode
IESTAB	IQUANT	0	I/E Stability
CASPEED	IQUANT	1	Control Amp Speed
CONVENTION	IQUANT	1	Current Convention
ICHRANGE	IQUANT	2	Ich Range
ICHRANGEMODE	TOGGLE	F	Ich Auto Range
ICHOFFSETENABLE	TOGGLE	T	Ich Offset Enable
ICHOFFSET	QUANT	0	Ich Offset (V)
ICHFILTER	IQUANT	3	Ich Filter
VCHRANGE	IQUANT	2	Vch Range
VCHRANGEMODE	TOGGLE	F	Vch Auto Range
VCHOFFSETENABLE	TOGGLE	T	Vch Offset Enable
VCHOFFSET	QUANT	0	Vch Offset (V)
VCHFILTER	IQUANT	3	Vch Filter
ACHRANGE	IQUANT	2	Ach Range
ACHOFFSETENABLE	TOGGLE	F	Ach Offset Enable
ACHOFFSET	QUANT	0	Ach Offset (V)
ACHFILTER	IQUANT	3	Ach Filter
IERANGELOWERLIMIT	IQUANT	1	I/E Range Lower Limit
IERANGEMODE	TOGGLE	F	I/E AutoRange
IERANGE	IQUANT	8	I/E Range
POSFEEDENABLE	TOGGLE	F	Positive Feedback IR Comp
POSFEEDRESISTANCE	QUANT	0	Positive Feedback Resistance (ohm)
ACHSELECT	IQUANT	0	Ach Select
CABLEID	IQUANT	14	Cable ID
DCCALDATE	LABEL	2/27/2020	DC Calibration Date
ACCALDATE	LABEL	2/27/2020	AC Calibration Date
THERMOSELECT	IQUANT	1	Thermo Select
FRAMEWORKVERSION	QUANT	6.33	Framework Version
INSTRUMENTVERSION	LABEL	3.50	Instrument Version
ZCURVE	TABLE
	Pt	Time	Freq	Zreal	Zimag	Zsig	Zmod	Zphz	Idc	Vdc	IERange
	#	s	Hz	ohm	ohm	V	ohm	°	A	V	#
	0	1	1000078	2067.672	-1674.541	1	2660.706	-39.0029	9.232502E-008	0.0693274	8
	1	1	794390.6	2404.074	-1686.114	1	2936.418	-35.04417	3.913428E-008	0.0690119	8
	2	1	630984.4	2730.127	-1646.967	1	3188.431	-31.10076	5.429818E-008	0.0688664	8
	3	2	501234.4	3031.852	-1565.638	1	3412.235	-27.31168	5.612922E-008	0.0687816	8
	4	2	398109.4	3295.445	-1460.754	1	3604.686	-23.90602	4.555055E-008	0.0687297	8
	5	2	316265.6	3522.94	-1337.284	1	3768.214	-20.78641	4.350872E-008	0.0686889	8
	6	3	251203.1	3713.81	-1219.757	1	3908.988	-18.18216	4.237823E-008	0.0686903	8
	7	3	199546.9	3873.161	-1104.249	1	4027.499	-15.913	4.762335E-008	0.0686917	8
	8	3	158578.1	4006.833	-1000.755	1	4129.918	-14.02341	3.831856E-008	0.0686968	8
	9	4	125953.1	4146.287	-868.6888	1	4236.309	-11.83289	2.174427E-009	0.0686299	7
	10	4	100078.1	4231.598	-797.5717	1	4306.105	-10.67389	9.057896E-010	0.0686262	7
	11	4	79453.13	4319.941	-748.1708	1	4384.25	-9.82559	1.205808E-009	0.0686185	7
	12	5	63140.62	4401.061	-709.3295	1	4457.856	-9.155762	1.174537E-009	0.0686174	7
	13	5	50203.12	4476.024	-681.2766	1	4527.574	-8.654325	1.348677E-011	0.0686076	7
	14	5	39890.62	4547.147	-664.4808	1	4595.442	-8.313864	-1.27178E-010	0.0686087	7
	15	5	31640.63	4615.753	-660.4266	1	4662.761	-8.142671	1.105818E-009	0.0686138	7
	16	6	25171.88	4682.373	-668.1299	1	4729.8	-8.120744	2.007502E-009	0.0686129	7
	17	6	20015.62	4748.636	-688.4258	1	4798.278	-8.248894	1.051154E-009	0.0686072	7
	18	6	15890.62	4815.872	-722.9465	1	4869.833	-8.537347	1.371504E-009	0.0686124	7
	19	7	12609.37	4884.011	-771.8702	1	4944.628	-8.98076	1.210574E-009	0.0686041	7
	20	7	10078.13	4952.343	-836.5931	1	5022.508	-9.58838	2.104349E-010	0.0686086	7
	21	7	8015.625	5025.392	-921.8079	1	5109.236	-10.39422	1.452795E-009	0.0686123	7
	22	8	6328.125	5104.223	-1034.51	1	5208.004	-11.45736	2.045076E-009	0.0686117	7
	23	8	5015.625	5185.77	-1173.748	1	5316.944	-12.75345	2.464119E-010	0.068606	7
	24	8	3984.375	5274.796	-1346.744	1	5444.005	-14.32259	2.435823E-009	0.068615	7
	25	9	3170.956	5369.699	-1558.991	1	5591.433	-16.18966	1.973245E-009	0.0686108	7
	26	9	2527.573	5474.051	-1818.347	1	5768.155	-18.37523	1.804476E-009	0.0686045	7
	27	9	1976.103	5604.803	-2168.822	1	6009.792	-21.15434	2.079505E-009	0.0686107	7
	28	10	1577.524	5742.622	-2561.021	1	6287.808	-24.03531	2.225264E-009	0.0686054	7
	29	10	1265.625	5899.583	-3026.083	1	6630.404	-27.15473	1.639091E-009	0.0686042	7
	30	10	998.264	6099.973	-3639.377	1	7103.149	-30.82123	1.840932E-009	0.0686041	7
	31	11	796.875	6328.951	-4345.037	1	7676.911	-34.4709	2.456544E-009	0.068609	7
	32	11	627.7902	6622.736	-5257.377	1	8455.806	-38.44387	3.744669E-009	0.0686116	7
	33	11	505.5147	6947.959	-6242.978	1	9340.712	-41.94077	1.194967E-009	0.0686027	7
	34	12	397.9953	7383.843	-7567.332	1	10572.87	-45.70313	-5.040578E-010	0.0686745	6
	35	12	315.5048	7904.055	-9120.452	1	12068.83	-49.08683	-6.901833E-010	0.0686738	6
	36	12	252.4038	8517.6	-10910.63	1	13841.65	-52.02191	-5.873644E-010	0.0686705	6
	37	13	198.6229	9330.026	-13220.1	1	16180.87	-54.78764	-6.440043E-010	0.0686717	6
	38	13	158.3615	10279.63	-15840.36	1	18883.54	-57.01837	-9.160486E-010	0.0686695	6
	39	13	125.558	11483.08	-19052	1	22244.99	-58.92167	-9.951402E-010	0.0686721	6
	40	14	100.4464	12914.76	-22730.68	1	26143.35	-60.39632	-9.660295E-010	0.068666	6
	41	14	79.00281	14839.16	-27456.86	1	31210.25	-61.61083	-6.580956E-010	0.0686664	6
	42	14	63.3446	17060.45	-32628.41	1	36819.45	-62.39624	-8.952094E-010	0.0686671	6
	43	15	49.86702	20098.02	-39255.67	1	44101.45	-62.88857	-1.281748E-009	0.0686676	6
	44	15	39.72458	23764.02	-46659.32	1	52362.4	-63.00984	-7.166443E-010	0.0686675	6
	45	15	31.6723	28384.72	-55243.09	1	62108.7	-62.80522	-8.814315E-010	0.0686682	6
	46	16	24.93351	34554.7	-65662.38	1	74199.57	-62.2445	-2.878957E-010	0.0686688	6
	47	16	19.86229	41819.29	-76891.05	1	87527.63	-61.45924	1.254848E-009	0.068674	6
	48	16	15.83615	50851.19	-89547.34	1	102978.5	-60.40909	-2.400036E-009	0.0686694	5
	49	16	12.40079	62924.19	-104408.3	1	121903.9	-58.92372	4.897575E-010	0.0686671	5
	50	17	9.93114	75712.5	-119156.7	1	141176.2	-57.56802	5.659661E-010	0.0686739	5
	51	17	7.944915	91096.01	-135259.5	1	163075.5	-56.04011	-2.189097E-009	0.0686742	5
	52	18	6.317385	108929.6	-152765.2	1	187624.3	-54.50916	-1.061656E-009	0.0686739	5
	53	18	5.008013	129233.7	-171503.4	1	214743.5	-53.00073	-5.164995E-010	0.0686851	5
	54	19	3.945707	152700.1	-191900.7	1	245241.1	-51.48987	-9.898404E-010	0.0686688	5
	55	20	3.158693	175543.9	-212374.5	1	275533.3	-50.42365	-9.081508E-010	0.0686892	5
	56	21	2.504006	201532.2	-235717	1	310125.4	-49.47038	-1.531498E-009	0.0686762	5
	57	22	1.998082	226638.7	-261562.2	1	346092.3	-49.09169	-1.393864E-009	0.0686642	5
	58	24	1.584686	254909.3	-291926.6	1	387556.3	-48.87265	-1.125986E-009	0.0687066	5
	59	26	1.266892	283058.4	-328375.7	1	433535	-49.23881	-1.174681E-009	0.0686966	5
	60	28	0.999041	314260.4	-374696.8	1	489037.1	-50.01324	-1.652204E-009	0.0686741	5
