EXPLAIN
TAG	EISPOT
TITLE	LABEL	Potentiostatic EIS	Test &Identifier
DATE	LABEL	6/14/2020	Date
TIME	LABEL	21:38:07	Time
NOTES	NOTES	1	&Notes...
	
PSTAT	PSTAT	REF600-10037	Potentiostat
VDC	POTEN	0.00000E+000	T	DC &Voltage (V)
FREQINIT	QUANT	1.00000E+006	Initial Fre&q. (Hz)
FREQFINAL	QUANT	1.00000E+000	Final Fre&q. (Hz)
PTSPERDEC	QUANT	1.00000E+001	Points/&decade
VAC	QUANT	2.50000E+001	AC &Voltage (mV rms)
AREA	QUANT	2.50000E-001	&Area (cm^2)
CONDIT	TWOPARAM	F	5.00000E+000	0.00000E+000	Conditionin&g	Time(s)	E(V)
DELAY	TWOPARAM	F	3.00000E+000	0.00000E+000	Init. De&lay	Time(s)	Stab.(mV/s)
SPEED	SELECTOR	0	&Optimize for:
ZGUESS	QUANT	1.00000E+003	E&stimated Z (ohms)
OCVCURVE	TABLE	39
	Pt	T	Vf	Vm	Ach	Over
	#	s	V vs. Ref.	V	V	bits
	0	0.258333	-8.25844E-002	-8.25844E-002	5.48587E-004	...........
	1	0.516667	-8.25835E-002	-8.25376E-002	5.52154E-004	...........
	2	0.775	-8.25777E-002	-8.24803E-002	5.49454E-004	...........
	3	1.03333	-8.25607E-002	-8.24252E-002	5.53054E-004	...........
	4	1.29167	-8.25289E-002	-8.23885E-002	5.52587E-004	...........
	5	1.55	-8.24856E-002	-8.23312E-002	5.50354E-004	...........
	6	1.80833	-8.24374E-002	-8.22965E-002	5.55587E-004	...........
	7	2.06667	-8.23889E-002	-8.22493E-002	5.42820E-004	...........
	8	2.325	-8.23422E-002	-8.22112E-002	5.42987E-004	...........
	9	2.58333	-8.22977E-002	-8.21667E-002	5.44887E-004	...........
	10	2.84167	-8.22549E-002	-8.21347E-002	5.48354E-004	...........
	11	3.1	-8.22137E-002	-8.20938E-002	5.45687E-004	...........
	12	3.35833	-8.21741E-002	-8.20632E-002	5.51087E-004	...........
	13	3.61667	-8.21361E-002	-8.20240E-002	5.47087E-004	...........
	14	3.875	-8.20997E-002	-8.19986E-002	5.45087E-004	...........
	15	4.13333	-8.20647E-002	-8.19697E-002	5.43787E-004	...........
	16	4.39167	-8.20318E-002	-8.19370E-002	5.48987E-004	...........
	17	4.65	-8.20006E-002	-8.19108E-002	5.53020E-004	...........
	18	4.90833	-8.19704E-002	-8.18697E-002	5.51287E-004	...........
	19	5.16667	-8.19400E-002	-8.18453E-002	5.50787E-004	...........
	20	5.425	-8.19090E-002	-8.18194E-002	5.60354E-004	...........
	21	5.68333	-8.18781E-002	-8.17832E-002	5.52787E-004	...........
	22	5.94167	-8.18480E-002	-8.17608E-002	5.53187E-004	...........
	23	6.2	-8.18187E-002	-8.17388E-002	5.50387E-004	...........
	24	6.45833	-8.17905E-002	-8.17059E-002	5.53487E-004	...........
	25	6.71667	-8.17635E-002	-8.16821E-002	5.48520E-004	...........
	26	6.975	-8.17370E-002	-8.16608E-002	5.50020E-004	...........
	27	7.23333	-8.17109E-002	-8.16317E-002	5.52154E-004	...........
	28	7.49167	-8.16854E-002	-8.16082E-002	5.50687E-004	...........
	29	7.75	-8.16602E-002	-8.15860E-002	5.54154E-004	...........
	30	8.00833	-8.16353E-002	-8.15557E-002	5.46987E-004	...........
	31	8.26667	-8.16104E-002	-8.15322E-002	5.50020E-004	...........
	32	8.525	-8.15853E-002	-8.15141E-002	5.49454E-004	...........
	33	8.78333	-8.15605E-002	-8.14915E-002	5.42587E-004	...........
	34	9.04167	-8.15369E-002	-8.14679E-002	5.40254E-004	...........
	35	9.3	-8.15145E-002	-8.14490E-002	5.47320E-004	...........
	36	9.5583	-8.14927E-002	-8.14304E-002	5.48620E-004	...........
	37	9.8167	-8.14715E-002	-8.14085E-002	5.48154E-004	...........
	38	10.075	-8.14508E-002	-8.13844E-002	5.42687E-004	...........
EOC	QUANT	-0.0814508	Open Circuit (V)
PSTATMODEL	IQUANT	4	Pstat Model
PSTATSECTION	LABEL	REF600-10037	Pstat Section
PSTATSERIALNO	LABEL	10037	Pstat Serial Number
CTRLMODE	IQUANT	1	Control Mode
IESTAB	IQUANT	0	I/E Stability
CASPEED	IQUANT	1	Control Amp Speed
CONVENTION	IQUANT	1	Current Convention
ICHRANGE	IQUANT	2	Ich Range
ICHRANGEMODE	TOGGLE	F	Ich Auto Range
ICHOFFSETENABLE	TOGGLE	T	Ich Offset Enable
ICHOFFSET	QUANT	0	Ich Offset (V)
ICHFILTER	IQUANT	3	Ich Filter
VCHRANGE	IQUANT	2	Vch Range
VCHRANGEMODE	TOGGLE	F	Vch Auto Range
VCHOFFSETENABLE	TOGGLE	T	Vch Offset Enable
VCHOFFSET	QUANT	0	Vch Offset (V)
VCHFILTER	IQUANT	3	Vch Filter
ACHRANGE	IQUANT	2	Ach Range
ACHOFFSETENABLE	TOGGLE	F	Ach Offset Enable
ACHOFFSET	QUANT	0	Ach Offset (V)
ACHFILTER	IQUANT	3	Ach Filter
IERANGELOWERLIMIT	IQUANT	1	I/E Range Lower Limit
IERANGEMODE	TOGGLE	F	I/E AutoRange
IERANGE	IQUANT	8	I/E Range
POSFEEDENABLE	TOGGLE	F	Positive Feedback IR Comp
POSFEEDRESISTANCE	QUANT	0	Positive Feedback Resistance (ohm)
ACHSELECT	IQUANT	0	Ach Select
CABLEID	IQUANT	14	Cable ID
DCCALDATE	LABEL	6/8/2020	DC Calibration Date
ACCALDATE	LABEL	6/8/2020	AC Calibration Date
THERMOSELECT	IQUANT	1	Thermo Select
FRAMEWORKVERSION	QUANT	6.33	Framework Version
INSTRUMENTVERSION	LABEL	3.50	Instrument Version
ZCURVE	TABLE
	Pt	Time	Freq	Zreal	Zimag	Zsig	Zmod	Zphz	Idc	Vdc	IERange
	#	s	Hz	ohm	ohm	V	ohm	°	A	V	#
	0	1	1000078	2153.916	-2335.733	1	3177.263	-47.31903	3.176509E-007	-0.0724138	8
	1	1	794390.6	2576.659	-2517.054	1	3602.046	-44.32958	3.646074E-007	-0.0726472	8
	2	1	630984.4	3022.706	-2655.443	1	4023.447	-41.29926	1.153151E-007	-0.0727902	8
	3	2	501234.4	3484.222	-2753.218	1	4440.722	-38.31564	3.712748E-007	-0.0728614	8
	4	2	398109.4	3943.998	-2823.525	1	4850.507	-35.59904	8.592347E-008	-0.0728961	8
	5	2	316265.6	4387.725	-2872.292	1	5244.253	-33.20956	-3.096621E-007	-0.0728897	8
	6	3	251203.1	4816.117	-2904.766	1	5624.291	-31.09562	2.882035E-007	-0.0729458	8
	7	3	199546.9	5242.24	-2941.913	1	6011.316	-29.30087	1.341613E-007	-0.0728873	8
	8	3	158578.1	5658.644	-2991.781	1	6400.859	-27.86585	-9.559949E-008	-0.0729228	8
	9	4	125953.1	6235.251	-2848.027	1	6854.897	-24.54913	1.221572E-008	-0.0727016	7
	10	4	100078.1	6609.629	-2957.233	1	7241.024	-24.10435	9.212925E-008	-0.0730014	7
	11	4	79453.13	7000.931	-3086.181	1	7650.984	-23.78906	8.903711E-008	-0.0730286	7
	12	5	63140.62	7406.156	-3232.024	1	8080.664	-23.57631	4.124682E-008	-0.0729052	7
	13	5	50203.12	7831.523	-3405.55	1	8539.937	-23.50189	-6.124181E-008	-0.0728189	7
	14	5	39890.62	8280.212	-3609.646	1	9032.799	-23.55414	4.086584E-008	-0.073046	7
	15	6	31640.63	8750.653	-3837.427	1	9555.09	-23.67891	-3.894895E-008	-0.072825	7
	16	6	25171.88	9246.299	-4099.428	1	10114.31	-23.91053	-3.886736E-008	-0.0728184	7
	17	6	20015.62	9775.32	-4398.725	1	10719.41	-24.22692	-6.124917E-008	-0.0728149	7
	18	7	15890.62	10340.33	-4734.396	1	11372.64	-24.60103	5.898253E-008	-0.0729286	7
	19	7	12609.37	11219.82	-4764.458	1	12189.52	-23.00834	-1.039728E-008	-0.0727243	6
	20	7	10078.13	11806.31	-5229.268	1	12912.56	-23.88957	7.459831E-009	-0.0729034	6
	21	8	8015.625	12460.54	-5758.277	1	13726.72	-24.80265	8.107103E-009	-0.0731212	6
	22	8	6328.125	13196.33	-6365.279	1	14651.28	-25.75043	-1.775877E-009	-0.0727905	6
	23	8	5015.625	13987.62	-7037.72	1	15658.32	-26.70876	1.422022E-008	-0.0730558	6
	24	8	3984.375	14843.62	-7789.087	1	16763.14	-27.68793	1.454745E-008	-0.073095	6
	25	9	3170.956	15760.78	-8633.64	1	17970.59	-28.7136	-6.290834E-009	-0.0727499	6
	26	9	2527.573	16762.27	-9593.39	1	19313.38	-29.78339	1.426521E-008	-0.0730959	6
	27	9	1976.103	17950.66	-10786.6	1	20942.23	-31.00178	-8.760843E-009	-0.0729348	6
	28	10	1577.524	19161.54	-12058.04	1	22639.8	-32.18153	-1.050357E-008	-0.0727241	6
	29	10	1265.625	20481.71	-13475.6	1	24517.18	-33.34226	-4.465936E-009	-0.0730037	6
	30	10	998.264	22074.28	-15224.13	1	26815.07	-34.59315	-1.586341E-008	-0.0727484	6
	31	11	796.875	23783.66	-17124	1	29306.89	-35.75351	7.282112E-009	-0.0729073	6
	32	11	627.7902	25813.7	-19420.31	1	32303.18	-36.95509	8.164126E-009	-0.0731186	6
	33	11	505.5147	27901.46	-21799.91	1	35408.01	-38.00115	4.14936E-009	-0.0731055	6
	34	12	397.9953	30340.97	-24681.49	1	39112.03	-39.12734	6.972504E-010	-0.0729235	6
	35	12	315.5048	32994.23	-27964.72	1	43250.95	-40.28341	6.190457E-010	-0.0729262	6
	36	12	252.4038	35767.7	-31613.71	1	47736.31	-41.47224	6.316989E-010	-0.0729279	6
	37	13	198.6229	39032.75	-36231.06	1	53256.41	-42.86816	6.691968E-010	-0.0729299	6
	38	13	158.3615	42430.51	-41420.34	1	59295.81	-44.30978	6.960947E-010	-0.0729286	6
	39	13	125.558	46364.61	-47764.03	1	66566.36	-45.85176	6.468407E-010	-0.0729298	6
	40	14	100.4464	50667.79	-54991.53	1	74774.95	-47.34332	7.574749E-010	-0.0729302	6
	41	14	79.00281	56042.45	-64216.44	1	85232.08	-48.88841	6.725904E-010	-0.0729312	6
	42	14	63.3446	62097.02	-74277.84	1	96815.5	-50.10404	7.089606E-010	-0.0729339	6
	43	15	49.86702	69511.16	-86671	1	111102	-51.26998	9.069139E-011	-0.0729311	5
	44	15	39.72458	77585.76	-100435.8	1	126913	-52.31423	1.404582E-010	-0.0729286	5
	45	15	31.6723	86905.39	-116323.7	1	145202.5	-53.23661	-9.719524E-011	-0.0729281	5
	46	16	24.93351	97827	-135879.1	1	167431.3	-54.24775	2.280095E-010	-0.0729296	5
	47	16	19.86229	109474.3	-158068.1	1	192276.2	-55.29442	-2.164548E-009	-0.0815693	5
	48	16	15.83615	121547.6	-183407.3	1	220027.4	-56.46677	-1.487023E-009	-0.0815729	5
	49	17	12.40079	137203.5	-216917.7	1	256667.3	-57.68606	-1.344674E-009	-0.0815738	5
	50	17	9.93114	152166.9	-253527.8	1	295687.5	-59.0279	-1.09025E-009	-0.0815695	5
	51	17	7.944915	169928.1	-298590.3	1	343557.4	-60.35574	-1.029631E-009	-0.0815719	5
	52	18	6.317385	189700	-354233.1	1	401829.8	-61.82992	-7.085898E-010	-0.08157	5
	53	19	5.008013	214568	-423675.9	1	474911.3	-63.14035	-5.74757E-010	-0.0815702	5
	54	20	3.945707	246332.4	-510884.4	1	567170.6	-64.25809	-4.884042E-010	-0.0815755	5
	55	21	3.158693	282945.6	-608965.7	1	671488.9	-65.07887	-3.995922E-010	-0.0815722	5
	56	22	2.504006	332919.8	-733001.6	1	805063.3	-65.57307	-2.854984E-010	-0.0815777	5
	57	24	1.998082	393634.4	-875553.1	1	959969	-65.79209	-2.343023E-010	-0.0815779	5
	58	26	1.584686	474947.9	-1049208	1	1151700	-65.64503	-1.81761E-010	-0.0815818	4
	59	29	1.266892	574553.3	-1245661	1	1371781	-65.23878	-1.432372E-010	-0.0815791	4
	60	32	0.999041	710971.9	-1488081	1	1649202	-64.46257	-1.217431E-010	-0.0815734	4
