EXPLAIN
TAG	EISPOT
TITLE	LABEL	Potentiostatic EIS	Test &Identifier
DATE	LABEL	1/14/2020	Date
TIME	LABEL	18:44:17	Time
NOTES	NOTES	5	&Notes...
	
	
	
	
	
PSTAT	PSTAT	REF600-11020	Potentiostat
VDC	POTEN	0.00000E+000	T	DC &Voltage (V)
FREQINIT	QUANT	1.00000E+006	Initial Fre&q. (Hz)
FREQFINAL	QUANT	1.00000E+000	Final Fre&q. (Hz)
PTSPERDEC	QUANT	1.00000E+001	Points/&decade
VAC	QUANT	2.50000E+001	AC &Voltage (mV rms)
AREA	QUANT	1.00000E-001	&Area (cm^2)
CONDIT	TWOPARAM	T	5.00000E+000	0.00000E+000	Conditionin&g	Time(s)	E(V)
DELAY	TWOPARAM	T	5.00000E+000	0.00000E+000	Init. De&lay	Time(s)	Stab.(mV/s)
SPEED	SELECTOR	0	&Optimize for:
ZGUESS	QUANT	5.00000E+002	E&stimated Z (ohms)
OCVCURVE	TABLE	19
	Pt	T	Vf	Vm	Ach	Over
	#	s	V vs. Ref.	V	V	bits
	0	0.258333	1.07770E-002	1.07770E-002	6.63213E-004	...........
	1	0.516667	1.07819E-002	1.10349E-002	6.61746E-004	...........
	2	0.775	1.08134E-002	1.13435E-002	6.62613E-004	...........
	3	1.03333	1.09076E-002	1.16972E-002	6.61113E-004	...........
	4	1.29167	1.10848E-002	1.18215E-002	6.54413E-004	...........
	5	1.55	1.13215E-002	1.19764E-002	6.66113E-004	...........
	6	1.80833	1.15664E-002	1.21556E-002	6.63346E-004	...........
	7	2.06667	1.17836E-002	1.23031E-002	6.64146E-004	...........
	8	2.325	1.19717E-002	1.25608E-002	6.68679E-004	...........
	9	2.58333	1.21490E-002	1.27492E-002	6.67913E-004	...........
	10	2.84167	1.23336E-002	1.29707E-002	6.61313E-004	...........
	11	3.1	1.25318E-002	1.31968E-002	6.66213E-004	...........
	12	3.35833	1.27408E-002	1.34111E-002	6.64179E-004	...........
	13	3.61667	1.29567E-002	1.36394E-002	6.64513E-004	...........
	14	3.875	1.31762E-002	1.38591E-002	6.61013E-004	...........
	15	4.13333	1.33971E-002	1.40587E-002	6.55579E-004	...........
	16	4.39167	1.36165E-002	1.42546E-002	6.59513E-004	...........
	17	4.65	1.38318E-002	1.45059E-002	6.59113E-004	...........
	18	4.90833	1.40442E-002	1.46999E-002	6.57713E-004	...........
EOC	QUANT	0.0140442	Open Circuit (V)
PSTATMODEL	IQUANT	4	Pstat Model
PSTATSECTION	LABEL	REF600-11020	Pstat Section
PSTATSERIALNO	LABEL	11020	Pstat Serial Number
CTRLMODE	IQUANT	1	Control Mode
IESTAB	IQUANT	0	I/E Stability
CASPEED	IQUANT	1	Control Amp Speed
CONVENTION	IQUANT	1	Current Convention
ICHRANGE	IQUANT	2	Ich Range
ICHRANGEMODE	TOGGLE	F	Ich Auto Range
ICHOFFSETENABLE	TOGGLE	T	Ich Offset Enable
ICHOFFSET	QUANT	0	Ich Offset (V)
ICHFILTER	IQUANT	3	Ich Filter
VCHRANGE	IQUANT	2	Vch Range
VCHRANGEMODE	TOGGLE	F	Vch Auto Range
VCHOFFSETENABLE	TOGGLE	T	Vch Offset Enable
VCHOFFSET	QUANT	0	Vch Offset (V)
VCHFILTER	IQUANT	3	Vch Filter
ACHRANGE	IQUANT	2	Ach Range
ACHOFFSETENABLE	TOGGLE	F	Ach Offset Enable
ACHOFFSET	QUANT	0	Ach Offset (V)
ACHFILTER	IQUANT	3	Ach Filter
IERANGELOWERLIMIT	IQUANT	1	I/E Range Lower Limit
IERANGEMODE	TOGGLE	F	I/E AutoRange
IERANGE	IQUANT	7	I/E Range
POSFEEDENABLE	TOGGLE	F	Positive Feedback IR Comp
POSFEEDRESISTANCE	QUANT	0	Positive Feedback Resistance (ohm)
ACHSELECT	IQUANT	0	Ach Select
CABLEID	IQUANT	14	Cable ID
DCCALDATE	LABEL	12/22/2019	DC Calibration Date
ACCALDATE	LABEL	12/22/2019	AC Calibration Date
THERMOSELECT	IQUANT	1	Thermo Select
FRAMEWORKVERSION	QUANT	6.33	Framework Version
INSTRUMENTVERSION	LABEL	3.50	Instrument Version
ZCURVE	TABLE
	Pt	Time	Freq	Zreal	Zimag	Zsig	Zmod	Zphz	Idc	Vdc	IERange
	#	s	Hz	ohm	ohm	V	ohm	°	A	V	#
	0	2	1000078	2406.875	-2103.45	1	3196.49	-41.15132	-1.25569E-006	0.0164278	8
	1	2	794390.6	2823.174	-2122.002	1	3531.743	-36.92987	2.757729E-006	0.0155076	8
	2	2	630984.4	3236.864	-2084.219	1	3849.839	-32.77751	-1.1091E-006	0.0159592	8
	3	2	501234.4	3595.898	-1985.232	1	4107.509	-28.90231	-1.849829E-006	0.0160402	8
	4	3	398109.4	3961.126	-1868.649	1	4379.768	-25.25544	2.648279E-007	0.0156734	8
	5	3	316265.6	4258.403	-1749.526	1	4603.786	-22.33486	1.776863E-006	0.0152835	8
	6	3	251203.1	4497.952	-1607.122	1	4776.443	-19.66185	-7.678712E-008	0.0155539	8
	7	4	199546.9	4712.632	-1452.756	1	4931.471	-17.13288	-1.172865E-006	0.0159043	8
	8	4	158578.1	4894.771	-1348.654	1	5077.169	-15.40445	-1.63013E-006	0.0159272	8
	9	4	125953.1	5073.899	-1219.55	1	5218.405	-13.5151	6.024014E-008	0.0152295	7
	10	5	100078.1	5196.873	-1133.524	1	5319.057	-12.30445	5.191417E-008	0.0154557	7
	11	5	79453.13	5320.409	-1082.441	1	5429.404	-11.49992	3.028779E-008	0.0154665	7
	12	5	63140.62	5430.474	-1045.675	1	5530.234	-10.89929	3.228805E-008	0.0155158	7
	13	6	50203.12	5534.828	-1029.623	1	5629.782	-10.53806	3.191769E-008	0.015513	7
	14	6	39890.62	5633.276	-1036.728	1	5727.879	-10.42783	-3.125342E-008	0.0155907	7
	15	6	31640.63	5733.471	-1065.621	1	5831.658	-10.52884	1.299485E-009	0.0155448	7
	16	7	25171.88	5832.676	-1119.068	1	5939.059	-10.86089	4.87528E-008	0.0154742	7
	17	7	20015.62	5936.553	-1204.013	1	6057.418	-11.46485	8.112915E-008	0.0154398	7
	18	7	15890.62	6045.385	-1301.499	1	6183.896	-12.14965	4.198499E-010	0.0155325	7
	19	8	12609.37	6166.723	-1440.152	1	6332.654	-13.14504	3.385395E-008	0.0155062	7
	20	8	10078.13	6287.995	-1604.953	1	6489.588	-14.31851	3.494456E-008	0.0155071	7
	21	8	8015.625	6438.698	-1810.677	1	6688.451	-15.70693	-2.993662E-008	0.0155863	7
	22	8	6328.125	6604.296	-2077.292	1	6923.285	-17.46026	5.209346E-008	0.0154416	7
	23	9	5015.625	6789.966	-2388.182	1	7197.711	-19.37791	-2.99171E-008	0.015583	7
	24	9	3984.375	6996.786	-2763.383	1	7522.718	-21.55156	-3.935198E-008	0.0156721	7
	25	9	3170.956	7232.93	-3200.996	1	7909.592	-23.8722	1.211645E-008	0.0154863	7
	26	10	2527.573	7501.466	-3723.006	1	8374.53	-26.39538	-3.9795E-008	0.0155911	7
	27	10	1976.103	7841.1	-4398.533	1	8990.547	-29.29062	8.112618E-008	0.0154353	7
	28	10	1577.524	8203.241	-5129.585	1	9675.01	-32.01824	-7.22936E-009	0.0156098	6
	29	11	1265.625	8624.242	-5991.79	1	10501.39	-34.79008	-3.47857E-010	0.015535	6
	30	11	998.264	9147.458	-7087.337	1	11571.79	-37.76808	4.552978E-009	0.0154338	6
	31	11	796.875	9737.51	-8316.33	1	12805.48	-40.49902	-5.932936E-009	0.0155638	6
	32	12	627.7902	10466.53	-9850.91	1	14373.19	-43.26447	2.961282E-009	0.015463	6
	33	12	505.5147	11244.3	-11493.68	1	16079.15	-45.62836	9.972212E-009	0.0153594	6
	34	12	397.9953	12255.31	-13625.9	1	18326.42	-48.03136	4.026927E-010	0.0155456	6
	35	13	315.5048	13396.95	-16077.63	1	20927.69	-50.19669	1.622143E-010	0.0155493	6
	36	13	252.4038	14664.4	-18852.4	1	23884.25	-52.12232	4.7241E-010	0.0155431	6
	37	13	198.6229	16235.44	-22385.34	1	27653.08	-54.04771	2.206264E-010	0.0155427	6
	38	14	158.3615	17939.43	-26367.82	1	31891.77	-55.77045	2.430343E-010	0.0155411	6
	39	14	125.558	19966.94	-31240.93	1	37076.6	-57.41624	3.085962E-010	0.0155416	6
	40	14	100.4464	22212.17	-36881.21	1	43053.5	-58.94103	4.54226E-010	0.0155383	6
	41	15	79.00281	24991.77	-44150.03	1	50732.77	-60.48734	4.724278E-010	0.0155343	6
	42	15	63.3446	28246.33	-51885.93	1	59076.26	-61.43645	3.591398E-010	0.0155327	6
	43	15	49.86702	32221.61	-62465.45	1	70286.3	-62.71392	2.790946E-010	0.0155348	6
	44	16	39.72458	36636.18	-74628.45	1	83136.13	-63.85292	3.228287E-010	0.0155387	6
	45	16	31.6723	42138.95	-88946.49	1	98423.4	-64.65046	8.384737E-011	0.0155404	6
	46	16	24.93351	49401.91	-107297.1	1	118123.7	-65.27763	-2.866441E-010	0.015536	5
	47	17	19.86229	58098.72	-128031.3	1	140596.8	-65.59215	1.638522E-010	0.0155431	5
	48	17	15.83615	68642.5	-153194.2	1	167869.7	-65.86404	-7.472745E-010	0.0155341	5
	49	17	12.40079	83345.09	-184183.5	1	202163.3	-65.65273	2.475817E-010	0.0155386	5
	50	17	9.93114	101584.3	-218503.9	1	240963.3	-65.06589	-2.509253E-010	0.0155405	5
	51	18	7.944915	124698.9	-257369.6	1	285987.6	-64.1492	-8.082576E-010	0.0155398	5
	52	18	6.317385	153670.2	-302821.5	1	339581.2	-63.09397	-8.320389E-010	0.0155537	5
	53	19	5.008013	191105.2	-354245.2	1	402505.8	-61.6544	-6.238753E-010	0.0155376	5
	54	20	3.945707	238685.4	-411056	1	475329.1	-59.85781	-4.169523E-010	0.0155308	5
	55	21	3.158693	290842.3	-469615.9	1	552384.3	-58.22926	-2.430074E-010	0.0155402	5
	56	23	2.504006	354910	-533121.1	1	640452.3	-56.34745	-4.005467E-010	0.0155385	5
	57	24	1.998082	424365.7	-599407.6	1	734422	-54.70246	-4.671889E-010	0.0155026	5
	58	26	1.584686	503354.7	-668881.4	1	837119.1	-53.03737	-3.747613E-010	0.0155406	5
	59	28	1.266892	589706.6	-743431.8	1	948917.6	-51.57777	-2.715159E-010	0.0155617	5
	60	30	0.999041	690244.6	-830743.8	1	1080080	-50.27764	-2.71686E-010	0.0156067	4
