EXPLAIN
TAG	EISPOT
TITLE	LABEL	Potentiostatic EIS	Test &Identifier
DATE	LABEL	2/11/2020	Date
TIME	LABEL	11:43:12	Time
NOTES	NOTES	6	&Notes...
	
	
	
	
	
	
PSTAT	PSTAT	REF600-11020	Potentiostat
VDC	POTEN	0.00000E+000	T	DC &Voltage (V)
FREQINIT	QUANT	1.00000E+006	Initial Fre&q. (Hz)
FREQFINAL	QUANT	1.00000E+000	Final Fre&q. (Hz)
PTSPERDEC	QUANT	1.00000E+001	Points/&decade
VAC	QUANT	2.50000E+001	AC &Voltage (mV rms)
AREA	QUANT	4.00000E-005	&Area (cm^2)
CONDIT	TWOPARAM	F	5.00000E+000	0.00000E+000	Conditionin&g	Time(s)	E(V)
DELAY	TWOPARAM	F	5.00000E+000	0.00000E+000	Init. De&lay	Time(s)	Stab.(mV/s)
SPEED	SELECTOR	1	&Optimize for:
ZGUESS	QUANT	1.00000E+003	E&stimated Z (ohms)
OCVCURVE	TABLE	39
	Pt	T	Vf	Vm	Ach	Over
	#	s	V vs. Ref.	V	V	bits
	0	0.258333	-2.53743E-002	-2.53743E-002	5.65238E-004	...........
	1	0.516667	-2.53703E-002	-2.51615E-002	5.68871E-004	...........
	2	0.775	-2.53492E-002	-2.51645E-002	5.74637E-004	...........
	3	1.03333	-2.53025E-002	-2.51568E-002	5.81271E-004	...........
	4	1.29167	-2.52406E-002	-2.50224E-002	5.65604E-004	...........
	5	1.55	-2.51725E-002	-2.46882E-002	5.67004E-004	...........
	6	1.80833	-2.50726E-002	-2.41820E-002	5.81537E-004	...........
	7	2.06667	-2.48984E-002	-2.40598E-002	5.74604E-004	...........
	8	2.325	-2.46508E-002	-2.41174E-002	5.67038E-004	...........
	9	2.58333	-2.44065E-002	-2.45369E-002	5.67138E-004	...........
	10	2.84167	-2.42596E-002	-2.41008E-002	5.78204E-004	...........
	11	3.1	-2.42269E-002	-2.44157E-002	5.74904E-004	...........
	12	3.35833	-2.42724E-002	-2.54215E-002	5.67738E-004	...........
	13	3.61667	-2.44042E-002	-2.48564E-002	5.72904E-004	...........
	14	3.875	-2.46204E-002	-2.50328E-002	5.80571E-004	...........
	15	4.13333	-2.48295E-002	-2.48828E-002	5.67771E-004	...........
	16	4.39167	-2.49414E-002	-2.47093E-002	5.57804E-004	...........
	17	4.65	-2.49369E-002	-2.42373E-002	5.73771E-004	...........
	18	4.90833	-2.48351E-002	-2.46758E-002	5.69804E-004	...........
	19	5.16667	-2.46961E-002	-2.47324E-002	5.63038E-004	...........
	20	5.425	-2.46083E-002	-2.46974E-002	5.63604E-004	...........
	21	5.68333	-2.46036E-002	-2.46372E-002	5.72004E-004	...........
	22	5.94167	-2.46372E-002	-2.46509E-002	5.72504E-004	...........
	23	6.2	-2.46613E-002	-2.46889E-002	5.59071E-004	...........
	24	6.45833	-2.46670E-002	-2.46268E-002	5.62371E-004	...........
	25	6.71667	-2.46621E-002	-2.45384E-002	5.73104E-004	...........
	26	6.975	-2.46460E-002	-2.45781E-002	5.73038E-004	...........
	27	7.23333	-2.46202E-002	-2.46196E-002	5.58871E-004	...........
	28	7.49167	-2.45987E-002	-2.46166E-002	5.60271E-004	...........
	29	7.75	-2.45934E-002	-2.46373E-002	5.70071E-004	...........
	30	8.00833	-2.46019E-002	-2.46237E-002	5.71871E-004	...........
	31	8.26667	-2.46131E-002	-2.45739E-002	5.68238E-004	...........
	32	8.525	-2.46167E-002	-2.45810E-002	5.70571E-004	...........
	33	8.78333	-2.46090E-002	-2.45495E-002	5.72738E-004	...........
	34	9.04167	-2.45938E-002	-2.45640E-002	5.64938E-004	...........
	35	9.3	-2.45803E-002	-2.46707E-002	5.60138E-004	...........
	36	9.5583	-2.45793E-002	-2.46291E-002	5.63604E-004	...........
	37	9.8167	-2.45935E-002	-2.45956E-002	5.68471E-004	...........
	38	10.075	-2.46102E-002	-2.46026E-002	5.56138E-004	...........
EOC	QUANT	-0.0246102	Open Circuit (V)
PSTATMODEL	IQUANT	4	Pstat Model
PSTATSECTION	LABEL	REF600-11020	Pstat Section
PSTATSERIALNO	LABEL	11020	Pstat Serial Number
CTRLMODE	IQUANT	1	Control Mode
IESTAB	IQUANT	0	I/E Stability
CASPEED	IQUANT	1	Control Amp Speed
CONVENTION	IQUANT	1	Current Convention
ICHRANGE	IQUANT	2	Ich Range
ICHRANGEMODE	TOGGLE	F	Ich Auto Range
ICHOFFSETENABLE	TOGGLE	T	Ich Offset Enable
ICHOFFSET	QUANT	0	Ich Offset (V)
ICHFILTER	IQUANT	3	Ich Filter
VCHRANGE	IQUANT	2	Vch Range
VCHRANGEMODE	TOGGLE	F	Vch Auto Range
VCHOFFSETENABLE	TOGGLE	T	Vch Offset Enable
VCHOFFSET	QUANT	0	Vch Offset (V)
VCHFILTER	IQUANT	3	Vch Filter
ACHRANGE	IQUANT	2	Ach Range
ACHOFFSETENABLE	TOGGLE	F	Ach Offset Enable
ACHOFFSET	QUANT	0	Ach Offset (V)
ACHFILTER	IQUANT	3	Ach Filter
IERANGELOWERLIMIT	IQUANT	1	I/E Range Lower Limit
IERANGEMODE	TOGGLE	F	I/E AutoRange
IERANGE	IQUANT	7	I/E Range
POSFEEDENABLE	TOGGLE	F	Positive Feedback IR Comp
POSFEEDRESISTANCE	QUANT	0	Positive Feedback Resistance (ohm)
ACHSELECT	IQUANT	0	Ach Select
CABLEID	IQUANT	14	Cable ID
DCCALDATE	LABEL	1/27/2020	DC Calibration Date
ACCALDATE	LABEL	1/27/2020	AC Calibration Date
THERMOSELECT	IQUANT	1	Thermo Select
FRAMEWORKVERSION	QUANT	6.33	Framework Version
INSTRUMENTVERSION	LABEL	3.50	Instrument Version
ZCURVE	TABLE
	Pt	Time	Freq	Zreal	Zimag	Zsig	Zmod	Zphz	Idc	Vdc	IERange
	#	s	Hz	ohm	ohm	V	ohm	°	A	V	#
	0	2	1000078	2063.872	-2000.476	1	2874.278	-44.10638	-3.255889E-006	-0.0216587	8
	1	3	794390.6	2450.723	-2119.478	1	3240.097	-40.85449	3.155561E-006	-0.0230447	8
	2	5	630984.4	2848.046	-2158.652	1	3573.673	-37.16	-2.464039E-006	-0.0224753	8
	3	6	501234.4	3247.201	-2172.93	1	3907.165	-33.78926	1.058184E-006	-0.0229304	8
	4	8	398109.4	3650.121	-2127.229	1	4224.747	-30.23291	1.03388E-006	-0.0231723	8
	5	9	316265.6	4050.054	-2052.633	1	4540.511	-26.87663	2.266014E-006	-0.0233982	8
	6	11	251203.1	4394.153	-1943.837	1	4804.902	-23.86312	2.168985E-006	-0.0233994	8
	7	12	199546.9	4736.989	-1783.101	1	5061.474	-20.62738	-1.06148E-006	-0.0225998	8
	8	14	158578.1	4959.487	-1635.293	1	5222.135	-18.24895	-5.135151E-007	-0.0228834	8
	9	15	125953.1	5231.247	-1436.76	1	5424.963	-15.35759	-7.227714E-007	-0.0210097	7
	10	17	100078.1	5419.267	-1290.046	1	5570.698	-13.38993	-2.729049E-008	-0.0228968	7
	11	18	79453.13	5568.081	-1153.501	1	5686.307	-11.70401	-2.171416E-009	-0.0229834	7
	12	19	63140.62	5691.362	-1040.495	1	5785.692	-10.3604	-8.672298E-009	-0.0228971	7
	13	21	50203.12	5794.684	-947.1796	1	5871.584	-9.28328	7.440935E-008	-0.0231452	7
	14	22	39890.62	5883.123	-872.6365	1	5947.489	-8.437096	7.468126E-008	-0.0231478	7
	15	23	31640.63	5959.02	-822.7146	1	6015.545	-7.860681	8.811355E-010	-0.0230826	7
	16	25	25171.88	6030.326	-792.4779	1	6082.175	-7.486649	6.975785E-008	-0.0230463	7
	17	26	20015.62	6096.363	-782.0721	1	6146.322	-7.310264	-5.080903E-008	-0.0229503	7
	18	28	15890.62	6160.788	-792.1513	1	6211.506	-7.326865	-2.918557E-010	-0.0229968	7
	19	29	12609.37	6224.514	-822.1872	1	6278.58	-7.524558	7.295596E-008	-0.0231486	7
	20	30	10078.13	6285.146	-873.8795	1	6345.607	-7.915591	4.583508E-008	-0.0231544	7
	21	32	8015.625	6356.515	-951.941	1	6427.4	-8.51722	-4.674287E-008	-0.0229255	7
	22	33	6328.125	6432.628	-1058.304	1	6519.104	-9.34268	-7.634636E-010	-0.0229994	7
	23	34	5015.625	6510.324	-1192.823	1	6618.696	-10.38259	2.907465E-008	-0.0231185	7
	24	36	3984.375	6596.71	-1363.236	1	6736.097	-11.67604	-2.434199E-008	-0.0229123	7
	25	37	3170.956	6690.12	-1575.121	1	6873.042	-13.24843	1.294693E-007	-0.0232103	7
	26	38	2527.573	6788.748	-1831.776	1	7031.536	-15.10025	-1.736384E-008	-0.023031	7
	27	40	1976.103	6913.232	-2178.097	1	7248.233	-17.48766	3.92331E-008	-0.023061	7
	28	41	1577.524	7044.787	-2574.763	1	7500.562	-20.07659	-2.541418E-008	-0.0229187	7
	29	43	1265.625	7185.892	-3037.192	1	7801.383	-22.91186	-7.836933E-009	-0.022991	7
	30	44	998.264	7363.034	-3656.861	1	8221.125	-26.41136	-7.707791E-009	-0.0229936	7
	31	45	796.875	7556.352	-4371.612	1	8729.802	-30.05087	-1.849447E-008	-0.0230409	7
	32	47	627.7902	7805.932	-5306.558	1	9438.862	-34.20829	1.296425E-007	-0.0232194	7
	33	48	505.5147	8073.343	-6335.75	1	10262.58	-38.12391	-4.833355E-009	-0.0229769	6
	34	49	397.9953	8426.489	-7727.454	1	11433.25	-42.52217	8.036766E-010	-0.0230243	6
	35	51	315.5048	8845.733	-9386.753	1	12897.99	-46.69966	1.419704E-009	-0.0230223	6
	36	52	252.4038	9343.257	-11321.6	1	14679.07	-50.46852	6.325399E-010	-0.0230228	6
	37	54	198.6229	9997.4	-13852.46	1	17083.28	-54.18179	1.369162E-009	-0.0230205	6
	38	55	158.3615	10762.82	-16766.37	1	19923.59	-57.30243	9.239574E-010	-0.0230244	6
	39	56	125.558	11729.66	-20374.01	1	23509.26	-60.07024	1.034262E-009	-0.0230294	6
	40	58	100.4464	12876.03	-24586.95	1	27754.46	-62.35924	2.057582E-009	-0.0230269	6
	41	59	79.00281	14344.99	-30008.86	1	33261.24	-64.45103	1.885499E-009	-0.0230273	6
	42	60	63.3446	15927.91	-35826.45	1	39207.56	-66.03077	4.906879E-010	-0.0230267	6
	43	62	49.86702	18676.67	-44116.73	1	47907.25	-67.0548	3.350425E-010	-0.0230316	6
	44	63	39.72458	21191.67	-53414.94	1	57465.14	-68.35995	8.017044E-010	-0.0230274	6
	45	65	31.6723	24670.67	-64611.66	1	69161.47	-69.10164	1.095853E-009	-0.0230235	6
	46	66	24.93351	29204.8	-78984.29	1	84210.68	-69.7079	1.106698E-009	-0.0230236	6
	47	67	19.86229	35119.3	-95475.6	1	101729.8	-69.80469	8.183063E-010	-0.0230198	6
	48	69	15.83615	43299.32	-114038.3	1	121981.9	-69.20868	1.248103E-009	-0.0230303	5
	49	70	12.40079	53899.48	-140177.2	1	150182.5	-68.96777	1.154676E-009	-0.0230232	5
	50	72	9.93114	66324.55	-167466.4	1	180122	-68.39411	2.24433E-010	-0.0230198	5
	51	73	7.944915	82528.61	-197145.3	1	213722.4	-67.28493	1.135683E-009	-0.0230247	5
	52	75	6.317385	104863	-234543.5	1	256918.1	-65.91087	-9.102784E-011	-0.0230149	5
	53	77	5.008013	133181.4	-276156.3	1	306593.6	-64.25346	5.298405E-011	-0.0230327	5
	54	80	3.945707	169128.3	-322319.3	1	363997.4	-62.31298	4.977047E-010	-0.0230201	5
	55	82	3.158693	209877.2	-369520.5	1	424963.4	-60.40465	-4.242645E-011	-0.0230365	5
	56	86	2.504006	259360.3	-421448.6	1	494860.3	-58.39178	4.942859E-010	-0.0230145	5
	57	88	1.998082	314320.5	-474745.4	1	569368.6	-56.49216	5.519751E-010	-0.0230161	5
	58	91	1.584686	378465.3	-530881	1	651974.4	-54.51491	1.574107E-010	-0.0230698	5
	59	95	1.266892	442827.5	-590385.4	1	738004.8	-53.12771	3.776486E-010	-0.0230252	5
	60	99	0.999041	518518.6	-659784.7	1	839152.8	-51.83652	-1.773573E-010	-0.0230382	5
