EXPLAIN
TAG	EISPOT
TITLE	LABEL	Potentiostatic EIS	Test &Identifier
DATE	LABEL	2/21/2020	Date
TIME	LABEL	18:13:52	Time
NOTES	NOTES	1	&Notes...
	
PSTAT	PSTAT	REF600-11020	Potentiostat
VDC	POTEN	0.00000E+000	T	DC &Voltage (V)
FREQINIT	QUANT	1.00000E+006	Initial Fre&q. (Hz)
FREQFINAL	QUANT	1.00000E+000	Final Fre&q. (Hz)
PTSPERDEC	QUANT	1.00000E+001	Points/&decade
VAC	QUANT	2.50000E+001	AC &Voltage (mV rms)
AREA	QUANT	2.08200E-005	&Area (cm^2)
CONDIT	TWOPARAM	F	1.50000E+001	0.00000E+000	Conditionin&g	Time(s)	E(V)
DELAY	TWOPARAM	F	1.00000E+002	0.00000E+000	Init. De&lay	Time(s)	Stab.(mV/s)
SPEED	SELECTOR	0	&Optimize for:
ZGUESS	QUANT	2.00000E+003	E&stimated Z (ohms)
OCVCURVE	TABLE	39
	Pt	T	Vf	Vm	Ach	Over
	#	s	V vs. Ref.	V	V	bits
	0	0.258333	7.87203E-002	7.87203E-002	5.72604E-004	...........
	1	0.516667	7.87226E-002	7.88405E-002	5.71104E-004	...........
	2	0.775	7.87337E-002	7.87975E-002	5.78204E-004	...........
	3	1.03333	7.87577E-002	7.88888E-002	5.73937E-004	...........
	4	1.29167	7.87920E-002	7.89582E-002	5.74371E-004	...........
	5	1.55	7.88361E-002	7.90705E-002	5.70871E-004	...........
	6	1.80833	7.88943E-002	7.91437E-002	5.77471E-004	...........
	7	2.06667	7.89665E-002	7.91680E-002	5.73937E-004	...........
	8	2.325	7.90423E-002	7.91974E-002	5.75371E-004	...........
	9	2.58333	7.91079E-002	7.92082E-002	5.76637E-004	...........
	10	2.84167	7.91559E-002	7.92281E-002	5.79037E-004	...........
	11	3.1	7.91881E-002	7.92542E-002	5.72271E-004	...........
	12	3.35833	7.92114E-002	7.92885E-002	5.75771E-004	...........
	13	3.61667	7.92328E-002	7.93024E-002	5.74604E-004	...........
	14	3.875	7.92557E-002	7.93324E-002	5.80037E-004	...........
	15	4.13333	7.92797E-002	7.93452E-002	5.72471E-004	...........
	16	4.39167	7.93034E-002	7.93759E-002	5.75804E-004	...........
	17	4.65	7.93259E-002	7.93770E-002	5.78204E-004	...........
	18	4.90833	7.93466E-002	7.94007E-002	5.79737E-004	...........
	19	5.16667	7.93646E-002	7.93873E-002	5.79071E-004	...........
	20	5.425	7.93789E-002	7.94185E-002	5.71738E-004	...........
	21	5.68333	7.93897E-002	7.93987E-002	5.69504E-004	...........
	22	5.94167	7.93981E-002	7.94350E-002	5.68471E-004	...........
	23	6.2	7.94054E-002	7.94091E-002	5.66271E-004	...........
	24	6.45833	7.94123E-002	7.94541E-002	5.72104E-004	...........
	25	6.71667	7.94193E-002	7.94204E-002	5.72004E-004	...........
	26	6.975	7.94263E-002	7.94633E-002	5.75738E-004	...........
	27	7.23333	7.94328E-002	7.94287E-002	5.74071E-004	...........
	28	7.49167	7.94385E-002	7.94712E-002	5.73638E-004	...........
	29	7.75	7.94435E-002	7.94426E-002	5.70038E-004	...........
	30	8.00833	7.94482E-002	7.94772E-002	5.75171E-004	...........
	31	8.26667	7.94531E-002	7.94576E-002	5.76004E-004	...........
	32	8.525	7.94581E-002	7.94852E-002	5.79004E-004	...........
	33	8.78333	7.94635E-002	7.94744E-002	5.72871E-004	...........
	34	9.04167	7.94691E-002	7.94903E-002	5.76838E-004	...........
	35	9.3	7.94748E-002	7.94865E-002	5.73471E-004	...........
	36	9.5583	7.94801E-002	7.94949E-002	5.75871E-004	...........
	37	9.8167	7.94849E-002	7.94981E-002	5.69638E-004	...........
	38	10.075	7.94892E-002	7.94967E-002	5.69771E-004	...........
EOC	QUANT	0.0794892	Open Circuit (V)
PSTATMODEL	IQUANT	4	Pstat Model
PSTATSECTION	LABEL	REF600-11020	Pstat Section
PSTATSERIALNO	LABEL	11020	Pstat Serial Number
CTRLMODE	IQUANT	1	Control Mode
IESTAB	IQUANT	0	I/E Stability
CASPEED	IQUANT	1	Control Amp Speed
CONVENTION	IQUANT	1	Current Convention
ICHRANGE	IQUANT	2	Ich Range
ICHRANGEMODE	TOGGLE	F	Ich Auto Range
ICHOFFSETENABLE	TOGGLE	T	Ich Offset Enable
ICHOFFSET	QUANT	0	Ich Offset (V)
ICHFILTER	IQUANT	3	Ich Filter
VCHRANGE	IQUANT	2	Vch Range
VCHRANGEMODE	TOGGLE	F	Vch Auto Range
VCHOFFSETENABLE	TOGGLE	T	Vch Offset Enable
VCHOFFSET	QUANT	0	Vch Offset (V)
VCHFILTER	IQUANT	3	Vch Filter
ACHRANGE	IQUANT	2	Ach Range
ACHOFFSETENABLE	TOGGLE	F	Ach Offset Enable
ACHOFFSET	QUANT	0	Ach Offset (V)
ACHFILTER	IQUANT	3	Ach Filter
IERANGELOWERLIMIT	IQUANT	1	I/E Range Lower Limit
IERANGEMODE	TOGGLE	F	I/E AutoRange
IERANGE	IQUANT	7	I/E Range
POSFEEDENABLE	TOGGLE	F	Positive Feedback IR Comp
POSFEEDRESISTANCE	QUANT	0	Positive Feedback Resistance (ohm)
ACHSELECT	IQUANT	0	Ach Select
CABLEID	IQUANT	14	Cable ID
DCCALDATE	LABEL	1/27/2020	DC Calibration Date
ACCALDATE	LABEL	1/27/2020	AC Calibration Date
THERMOSELECT	IQUANT	1	Thermo Select
FRAMEWORKVERSION	QUANT	6.33	Framework Version
INSTRUMENTVERSION	LABEL	3.50	Instrument Version
ZCURVE	TABLE
	Pt	Time	Freq	Zreal	Zimag	Zsig	Zmod	Zphz	Idc	Vdc	IERange
	#	s	Hz	ohm	ohm	V	ohm	°	A	V	#
	0	1	1000078	1440.76	-2144.937	1	2583.901	-56.11064	7.752725E-007	0.0815405	8
	1	1	794390.6	1749.748	-2432.949	1	2996.808	-54.27675	1.492846E-006	0.0811612	8
	2	1	630984.4	2101.784	-2728.67	1	3444.291	-52.3944	1.263245E-006	0.0810469	8
	3	2	501234.4	2516.125	-3031.168	1	3939.399	-50.30447	-1.383482E-006	0.0814224	8
	4	2	398109.4	2986.201	-3348.472	1	4486.609	-48.2731	3.015214E-007	0.0810144	8
	5	2	316265.6	3523.159	-3658.321	1	5078.972	-46.07823	1.495436E-007	0.0809837	8
	6	3	251203.1	4127.993	-3968.198	1	5725.986	-43.8693	-6.968415E-007	0.0811359	8
	7	3	199546.9	4763.906	-4228.891	1	6370.112	-41.59527	7.696204E-007	0.0809051	8
	8	3	158578.1	5460.708	-4450.123	1	7044.354	-39.1778	-5.448863E-007	0.0811135	8
	9	4	125953.1	6212.332	-4688.071	1	7782.743	-37.03965	8.767537E-008	0.0808373	7
	10	4	100078.1	6956.436	-4869.339	1	8491.316	-34.9911	1.913769E-008	0.0810128	7
	11	4	79453.13	7748.414	-5035.929	1	9241.131	-33.02106	1.209719E-008	0.0809851	7
	12	5	63140.62	8540.444	-5173.745	1	9985.33	-31.2072	6.621758E-009	0.0809593	7
	13	5	50203.12	9368.438	-5302.946	1	10765.17	-29.51176	4.278075E-008	0.0809505	7
	14	5	39890.62	10207.43	-5393.603	1	11544.81	-27.85196	2.354407E-008	0.0810031	7
	15	5	31640.63	11058	-5439.709	1	12323.55	-26.19373	4.342693E-008	0.0809479	7
	16	6	25171.88	11840.32	-5482.146	1	13047.88	-24.84445	-6.353922E-009	0.0810411	7
	17	6	20015.62	12664.77	-5487.777	1	13802.61	-23.42759	1.762154E-008	0.0809559	7
	18	6	15890.62	13440.67	-5517.496	1	14529.09	-22.31852	1.883889E-008	0.0809561	7
	19	7	12609.37	14215.78	-5501.916	1	15243.34	-21.15787	3.657682E-011	0.0810338	6
	20	7	10078.13	14933.97	-5565.934	1	15937.47	-20.44057	1.0381E-009	0.0810228	6
	21	7	8015.625	15633.17	-5681.284	1	16633.49	-19.97176	1.093263E-009	0.0810225	6
	22	8	6328.125	16337.31	-5857.667	1	17355.69	-19.72506	1.817425E-010	0.080957	6
	23	8	5015.625	17040.3	-6133.437	1	18110.52	-19.79568	-3.874562E-009	0.081041	6
	24	8	3984.375	17761.34	-6461.204	1	18900.06	-19.99033	5.282702E-009	0.0809513	6
	25	9	3170.956	18509.32	-6871.436	1	19743.65	-20.36704	-2.731291E-009	0.0809964	6
	26	9	2527.573	19315.46	-7389.563	1	20680.74	-20.93547	-3.069154E-010	0.08102	6
	27	9	1976.103	20211.33	-8075.784	1	21765.02	-21.78003	2.628618E-009	0.0810013	6
	28	10	1577.524	21133.81	-8797.393	1	22891.75	-22.60055	-5.44835E-009	0.0810357	6
	29	10	1265.625	22066.93	-9659.4	1	24088.45	-23.64053	-4.073489E-009	0.0810235	6
	30	10	998.264	23170.47	-10701.81	1	25522.53	-24.79092	-2.408453E-009	0.080976	6
	31	11	796.875	24196.21	-11930.51	1	26977.65	-26.24669	-2.035726E-009	0.0809743	6
	32	11	627.7902	25503.65	-13418.9	1	28818.45	-27.75138	-8.92074E-009	0.081028	6
	33	11	505.5147	26754.51	-15053.04	1	30698.5	-29.36365	-2.296076E-009	0.0810216	6
	34	11	397.9953	28314.76	-17230.56	1	33145.41	-31.32203	3.279255E-010	0.080992	6
	35	12	315.5048	30061.06	-19757.1	1	35972.36	-33.31421	9.149627E-010	0.0809879	6
	36	12	252.4038	32014.31	-22593.13	1	39183.74	-35.21137	6.800084E-010	0.0809888	6
	37	12	198.6229	34483.43	-26126.88	1	43263.39	-37.14992	4.594735E-010	0.0809856	6
	38	13	158.3615	37238.61	-30042.54	1	47846.3	-38.89513	3.294612E-010	0.0809852	6
	39	13	125.558	40453	-34513.62	1	53175.52	-40.47009	4.805473E-010	0.0809893	6
	40	13	100.4464	43907.36	-39462.99	1	59035.44	-41.94852	-8.219865E-011	0.0809853	6
	41	14	79.00281	48051.5	-45290.06	1	66031.32	-43.30544	3.137771E-010	0.0809862	6
	42	14	63.3446	53647.06	-51971.94	1	74693.3	-44.09137	6.014129E-010	0.0809854	6
	43	14	49.86702	58371.95	-59970.75	1	83688.56	-45.77401	8.399125E-010	0.0809857	6
	44	15	39.72458	63252.23	-68760.7	1	93428.47	-47.38938	4.838306E-010	0.0809883	6
	45	15	31.6723	69231.4	-79177.72	1	105176.5	-48.83421	-5.601619E-010	0.0809843	5
	46	15	24.93351	75762.16	-92778.02	1	119781.7	-50.76506	-7.887503E-011	0.0809858	5
	47	16	19.86229	83195.23	-108381.3	1	136630.7	-52.48958	-4.886407E-010	0.0809875	5
	48	16	15.83615	91913.46	-128161	1	157712.8	-54.35297	-8.365435E-010	0.0809853	5
	49	16	12.40079	103067.5	-150454	1	182371.4	-55.58718	5.559563E-010	0.0809837	5
	50	17	9.93114	113793.1	-178348	1	211558.2	-57.46051	-3.177139E-010	0.0809938	5
	51	17	7.944915	127476.1	-210867.4	1	246404.6	-58.8457	1.662778E-010	0.0809828	5
	52	18	6.317385	145252	-250045.1	1	289172.4	-59.84756	4.065822E-011	0.0809825	5
	53	19	5.008013	168273.8	-297596	1	341876.4	-60.51428	-8.597324E-011	0.0809761	5
	54	20	3.945707	197751.3	-354666.9	1	406071.7	-60.85731	1.377155E-010	0.080987	5
	55	21	3.158693	233378.8	-416824.4	1	477711.5	-60.75566	-1.403684E-011	0.0809905	5
	56	23	2.504006	277882.8	-489938.3	1	563256.9	-60.439	-6.459094E-011	0.0809775	5
	57	24	1.998082	330669.1	-568882.8	1	658004.3	-59.83225	1.238677E-010	0.0810147	5
	58	26	1.584686	392128.1	-661401.9	1	768906.3	-59.33739	1.127113E-010	0.0810106	5
	59	28	1.266892	461414.5	-759084.1	1	888319.8	-58.70639	5.726353E-011	0.0809722	5
	60	30	0.999041	546852.4	-877852.8	1	1034250	-58.07944	8.231704E-012	0.0809003	4
