EXPLAIN
TAG	EISPOT
TITLE	LABEL	Potentiostatic EIS	Test &Identifier
DATE	LABEL	2/6/2020	Date
TIME	LABEL	17:15:24	Time
NOTES	NOTES	6	&Notes...
	
	
	
	
	
	
PSTAT	PSTAT	REF600-11020	Potentiostat
VDC	POTEN	0.00000E+000	T	DC &Voltage (V)
FREQINIT	QUANT	1.00000E+006	Initial Fre&q. (Hz)
FREQFINAL	QUANT	1.00000E+000	Final Fre&q. (Hz)
PTSPERDEC	QUANT	1.00000E+001	Points/&decade
VAC	QUANT	2.50000E+001	AC &Voltage (mV rms)
AREA	QUANT	1.60000E-004	&Area (cm^2)
CONDIT	TWOPARAM	F	5.00000E+000	0.00000E+000	Conditionin&g	Time(s)	E(V)
DELAY	TWOPARAM	F	5.00000E+000	0.00000E+000	Init. De&lay	Time(s)	Stab.(mV/s)
SPEED	SELECTOR	0	&Optimize for:
ZGUESS	QUANT	1.00000E+003	E&stimated Z (ohms)
OCVCURVE	TABLE	39
	Pt	T	Vf	Vm	Ach	Over
	#	s	V vs. Ref.	V	V	bits
	0	0.258333	5.17593E-002	5.17593E-002	5.73904E-004	...........
	1	0.516667	5.16824E-002	4.77368E-002	5.71104E-004	...........
	2	0.775	5.14932E-002	5.87180E-002	5.68538E-004	...........
	3	1.03333	5.15853E-002	5.29330E-002	5.74604E-004	...........
	4	1.29167	5.22955E-002	5.19420E-002	5.74171E-004	...........
	5	1.55	5.30801E-002	5.22644E-002	5.78671E-004	...........
	6	1.80833	5.32515E-002	5.23095E-002	5.76004E-004	...........
	7	2.06667	5.29245E-002	5.24755E-002	5.75371E-004	...........
	8	2.325	5.25714E-002	5.25630E-002	5.75271E-004	...........
	9	2.58333	5.24134E-002	5.26147E-002	5.76404E-004	...........
	10	2.84167	5.24241E-002	5.27455E-002	5.76138E-004	...........
	11	3.1	5.25120E-002	5.28388E-002	5.74738E-004	...........
	12	3.35833	5.26183E-002	5.28784E-002	5.70371E-004	...........
	13	3.61667	5.27190E-002	5.29567E-002	5.73671E-004	...........
	14	3.875	5.28042E-002	5.28989E-002	5.75638E-004	...........
	15	4.13333	5.28665E-002	5.29132E-002	5.75971E-004	...........
	16	4.39167	5.29032E-002	5.29885E-002	5.69971E-004	...........
	17	4.65	5.29288E-002	5.32512E-002	5.66938E-004	...........
	18	4.90833	5.29673E-002	5.29531E-002	5.69504E-004	...........
	19	5.16667	5.30193E-002	5.31674E-002	5.78704E-004	...........
	20	5.425	5.30647E-002	5.32350E-002	5.77371E-004	...........
	21	5.68333	5.31032E-002	5.32343E-002	5.72971E-004	...........
	22	5.94167	5.31474E-002	5.33038E-002	5.74471E-004	...........
	23	6.2	5.31924E-002	5.30899E-002	5.75571E-004	...........
	24	6.45833	5.32153E-002	5.30641E-002	5.73271E-004	...........
	25	6.71667	5.32081E-002	5.35415E-002	5.76104E-004	...........
	26	6.975	5.32083E-002	5.34476E-002	5.73238E-004	...........
	27	7.23333	5.32551E-002	5.33080E-002	5.70871E-004	...........
	28	7.49167	5.33326E-002	5.37798E-002	5.76238E-004	...........
	29	7.75	5.34176E-002	5.38312E-002	5.78304E-004	...........
	30	8.00833	5.35253E-002	5.39939E-002	5.73838E-004	...........
	31	8.26667	5.36576E-002	5.37356E-002	5.74038E-004	...........
	32	8.525	5.37632E-002	5.33670E-002	5.77371E-004	...........
	33	8.78333	5.37776E-002	5.34723E-002	5.76571E-004	...........
	34	9.04167	5.37037E-002	5.38754E-002	5.74904E-004	...........
	35	9.3	5.36236E-002	5.34501E-002	5.75004E-004	...........
	36	9.5583	5.35939E-002	5.35861E-002	5.80737E-004	...........
	37	9.8167	5.35993E-002	5.39695E-002	5.80037E-004	...........
	38	10.075	5.36297E-002	5.38230E-002	5.75837E-004	...........
EOC	QUANT	0.0536297	Open Circuit (V)
PSTATMODEL	IQUANT	4	Pstat Model
PSTATSECTION	LABEL	REF600-11020	Pstat Section
PSTATSERIALNO	LABEL	11020	Pstat Serial Number
CTRLMODE	IQUANT	1	Control Mode
IESTAB	IQUANT	0	I/E Stability
CASPEED	IQUANT	1	Control Amp Speed
CONVENTION	IQUANT	1	Current Convention
ICHRANGE	IQUANT	2	Ich Range
ICHRANGEMODE	TOGGLE	F	Ich Auto Range
ICHOFFSETENABLE	TOGGLE	T	Ich Offset Enable
ICHOFFSET	QUANT	0	Ich Offset (V)
ICHFILTER	IQUANT	3	Ich Filter
VCHRANGE	IQUANT	2	Vch Range
VCHRANGEMODE	TOGGLE	F	Vch Auto Range
VCHOFFSETENABLE	TOGGLE	T	Vch Offset Enable
VCHOFFSET	QUANT	0	Vch Offset (V)
VCHFILTER	IQUANT	3	Vch Filter
ACHRANGE	IQUANT	2	Ach Range
ACHOFFSETENABLE	TOGGLE	F	Ach Offset Enable
ACHOFFSET	QUANT	0	Ach Offset (V)
ACHFILTER	IQUANT	3	Ach Filter
IERANGELOWERLIMIT	IQUANT	1	I/E Range Lower Limit
IERANGEMODE	TOGGLE	F	I/E AutoRange
IERANGE	IQUANT	8	I/E Range
POSFEEDENABLE	TOGGLE	F	Positive Feedback IR Comp
POSFEEDRESISTANCE	QUANT	0	Positive Feedback Resistance (ohm)
ACHSELECT	IQUANT	0	Ach Select
CABLEID	IQUANT	14	Cable ID
DCCALDATE	LABEL	1/27/2020	DC Calibration Date
ACCALDATE	LABEL	1/27/2020	AC Calibration Date
THERMOSELECT	IQUANT	1	Thermo Select
FRAMEWORKVERSION	QUANT	6.33	Framework Version
INSTRUMENTVERSION	LABEL	3.50	Instrument Version
ZCURVE	TABLE
	Pt	Time	Freq	Zreal	Zimag	Zsig	Zmod	Zphz	Idc	Vdc	IERange
	#	s	Hz	ohm	ohm	V	ohm	°	A	V	#
	0	1	1000078	1171.496	-9968.86	1	10037.46	-83.2976	1.560693E-006	0.0561977	8
	1	2	794390.6	1237.413	-11418.58	1	11485.43	-83.81509	3.378221E-008	0.0556257	8
	2	2	630984.4	1570.979	-14276.7	1	14362.87	-83.72055	2.674654E-006	0.0550889	8
	3	2	501234.4	1751.135	-17782.97	1	17868.98	-84.37607	2.076924E-007	0.055388	8
	4	2	398109.4	2240.563	-22014.19	1	22127.92	-84.18855	-1.437546E-007	0.0554254	8
	5	3	316265.6	2391.412	-27710.54	1	27813.53	-85.06761	3.255223E-007	0.0552681	8
	6	3	251203.1	3326.895	-34871.62	1	35029.96	-84.55024	-2.069295E-006	0.0557536	8
	7	3	199546.9	4571.202	-43280.91	1	43521.64	-83.97094	-1.106804E-007	0.0552589	8
	8	4	158578.1	6338.19	-51665.98	1	52053.3	-83.00611	-1.968209E-006	0.055746	8
	9	4	125953.1	8681.76	-66933.55	1	67494.24	-82.60959	4.948222E-007	0.0541356	7
	10	4	100078.1	10901	-82457.32	1	83174.77	-82.46906	7.657378E-008	0.0552663	7
	11	5	79453.13	13900.84	-101604.7	1	102551.2	-82.20956	5.042351E-008	0.0552553	7
	12	5	63140.62	18169.39	-125210.4	1	126521.8	-81.74339	-2.846093E-008	0.0553024	7
	13	5	50203.12	23847.72	-155256.1	1	157076.9	-81.26748	1.115529E-008	0.0552508	7
	14	6	39890.62	31248.83	-189888.2	1	192442.2	-80.65491	1.67775E-008	0.0553769	7
	15	6	31640.63	42886.78	-233972.5	1	237870.5	-79.61308	-2.556604E-008	0.055332	7
	16	6	25171.88	54782.82	-283995.3	1	289230.9	-79.08173	1.206381E-008	0.0552474	7
	17	7	20015.62	66788.96	-346030.6	1	352417.3	-79.07542	7.950598E-008	0.0552505	7
	18	7	15890.62	89392.59	-423609.5	1	432938.8	-78.08393	-4.528322E-008	0.055346	7
	19	7	12609.37	121427.7	-518253	1	532288.3	-76.81335	-6.745996E-009	0.0554226	6
	20	8	10078.13	149451.8	-619404.4	1	637179.5	-76.43478	2.668248E-009	0.0551307	6
	21	8	8015.625	183845.8	-741166.8	1	763627.9	-76.06901	-9.348172E-009	0.055361	6
	22	8	6328.125	212214.5	-921374.2	1	945497.4	-77.02961	-6.975965E-009	0.0554553	6
	23	9	5015.625	275130	-1118334	1	1151680	-76.1787	-5.661234E-009	0.0553305	6
	24	9	3984.375	347842.3	-1366363	1	1409944	-75.7173	3.000165E-009	0.0551242	6
	25	10	3170.956	397544.1	-1680139	1	1726530	-76.68785	-6.731558E-009	0.0554477	6
	26	10	2527.573	525957	-2008854	1	2076565	-75.32818	-4.251164E-009	0.0554458	6
	27	11	1976.103	583464.3	-2632244	1	2696134	-77.50187	7.097342E-009	0.0551312	6
	28	11	1577.524	632104.4	-3302173	1	3362128	-79.16349	-4.984851E-009	0.0552933	6
	29	11	1265.625	1155138	-3773963	1	3946789	-72.98165	1.7329E-009	0.0550103	5
	30	12	998.264	1462246	-4357651	1	4596443	-71.45039	3.400564E-010	0.055137	5
	31	12	796.875	2036995	-5465734	1	5832975	-69.56035	-5.09392E-010	0.055396	5
	32	12	627.7902	2458983	-6362100	1	6820770	-68.86824	-1.538145E-010	0.0551347	5
	33	13	505.5147	3300493	-7611904	1	8296646	-66.55862	-1.263425E-009	0.0553801	5
	34	13	397.9953	4592722	-8727322	1	9.86201E+006	-62.24457	3.817013E-010	0.0553021	5
	35	14	315.5048	6093491	-1.001144E+007	1	1.172005E+007	-58.6731	4.580435E-010	0.0552985	5
	36	14	252.4038	8081061	-1.111524E+007	1	1.374234E+007	-53.98189	4.084538E-010	0.0552992	5
	37	14	198.6229	1.05776E+007	-1.294141E+007	1	1.671424E+007	-50.73933	1.193922E-010	0.0552957	5
	38	15	158.3615	1.5783E+007	-1.375811E+007	1	2.093773E+007	-41.07881	2.803683E-010	0.0552915	5
	39	15	125.558	1.402628E+007	-1.593539E+007	1	2.122906E+007	-48.64587	-2.25342E-010	0.0552427	4
	40	16	100.4464	3.470994E+007	-3.337685E+007	1	4.815386E+007	-43.87833	-6.353235E-010	0.0552394	4
	41	16	79.00281	8715836	-9395222	1	1.281546E+007	-47.14828	-4.738594E-010	0.0552356	4
	42	17	63.3446	-2104544	-7086722	1	7392614	-106.5398	1.861306E-010	0.0552329	4
	43	17	49.86702	1.653204E+007	-9247575	1	1.89427E+007	-29.22146	-1.32461E-010	0.0552838	5
	44	18	39.72458	4.334384E+007	2416866	1	4.341118E+007	3.191525	6.689124E-011	0.0552354	4
	45	19	31.6723	1.302021E+007	-1.058346E+007	1	1.677902E+007	-39.10588	3.609446E-010	0.055232	4
	46	19	24.93351	3.842086E+007	-1.089636E+007	1	3.993611E+007	-15.83362	-1.109355E-010	0.055233	4
	47	19	19.86229	5.122508E+007	-1.559358E+007	1	5.354595E+007	-16.93093	8.394068E-011	0.0552388	4
	48	20	15.83615	2.178397E+007	-5706897	1	2.25191E+007	-14.68026	-1.889682E-010	0.0552338	4
	49	20	12.40079	1983481	-3.537376E+007	1	3.542932E+007	-86.79066	-6.386208E-010	0.0552355	4
	50	21	9.93114	4.393799E+007	-2.244474E+007	1	4.933876E+007	-27.05921	7.77628E-011	0.0552376	4
	51	22	7.944915	5.137378E+007	7580072	1	5.192998E+007	8.393291	-2.414421E-010	0.0552407	4
	52	23	6.317385	4.025336E+007	-4190920	1	4.047094E+007	-5.943851	-1.028594E-010	0.0552365	4
	53	24	5.008013	4.00151E+007	-3997779	1	4.021431E+007	-5.705304	-9.614304E-011	0.0552239	4
	54	25	3.945707	3.797372E+007	240863	1	3.797448E+007	0.3634158	-1.748767E-010	0.0552361	4
	55	27	3.158693	4.190548E+007	-2284835	1	4.196772E+007	-3.120878	-1.058948E-010	0.0552176	4
	56	29	2.504006	8.429763E+007	-6545385	1	8.455136E+007	-4.439887	-4.717634E-011	0.0552819	3
	57	31	1.998082	8.582171E+007	-6001284	1	8.603128E+007	-4.00003	-4.913476E-011	0.0552457	3
	58	34	1.584686	8.713873E+007	-5910855	1	8.733898E+007	-3.880582	-4.634702E-011	0.0552396	3
	59	37	1.266892	8.880738E+007	-5960699	1	8.900719E+007	-3.8399	-4.489133E-011	0.055275	3
	60	39	0.999041	8.947911E+007	-5534803	1	8.965013E+007	-3.539567	-4.473601E-011	0.0553036	3
