EXPLAIN
TAG	EISPOT
TITLE	LABEL	Potentiostatic EIS	Test &Identifier
DATE	LABEL	6/14/2020	Date
TIME	LABEL	21:19:41	Time
NOTES	NOTES	1	&Notes...
	
PSTAT	PSTAT	REF600-10037	Potentiostat
VDC	POTEN	0.00000E+000	T	DC &Voltage (V)
FREQINIT	QUANT	1.00000E+006	Initial Fre&q. (Hz)
FREQFINAL	QUANT	1.00000E+000	Final Fre&q. (Hz)
PTSPERDEC	QUANT	1.00000E+001	Points/&decade
VAC	QUANT	2.50000E+001	AC &Voltage (mV rms)
AREA	QUANT	2.50000E-001	&Area (cm^2)
CONDIT	TWOPARAM	F	5.00000E+000	0.00000E+000	Conditionin&g	Time(s)	E(V)
DELAY	TWOPARAM	F	3.00000E+000	0.00000E+000	Init. De&lay	Time(s)	Stab.(mV/s)
SPEED	SELECTOR	0	&Optimize for:
ZGUESS	QUANT	1.00000E+003	E&stimated Z (ohms)
OCVCURVE	TABLE	39
	Pt	T	Vf	Vm	Ach	Over
	#	s	V vs. Ref.	V	V	bits
	0	0.258333	-8.90459E-002	-8.90459E-002	5.48287E-004	...........
	1	0.516667	-8.90461E-002	-8.90575E-002	5.42654E-004	...........
	2	0.775	-8.90475E-002	-8.90701E-002	5.45587E-004	...........
	3	1.03333	-8.90515E-002	-8.90795E-002	5.47220E-004	...........
	4	1.29167	-8.90589E-002	-8.91035E-002	5.44654E-004	...........
	5	1.55	-8.90695E-002	-8.91075E-002	5.42587E-004	...........
	6	1.80833	-8.90822E-002	-8.91155E-002	5.41121E-004	...........
	7	2.06667	-8.90948E-002	-8.91235E-002	5.43454E-004	...........
	8	2.325	-8.91059E-002	-8.91359E-002	5.41021E-004	...........
	9	2.58333	-8.91155E-002	-8.91424E-002	5.45354E-004	...........
	10	2.84167	-8.91244E-002	-8.91454E-002	5.44154E-004	...........
	11	3.1	-8.91327E-002	-8.91539E-002	5.46887E-004	...........
	12	3.35833	-8.91401E-002	-8.91610E-002	5.45754E-004	...........
	13	3.61667	-8.91469E-002	-8.91712E-002	5.41887E-004	...........
	14	3.875	-8.91539E-002	-8.91778E-002	5.45954E-004	...........
	15	4.13333	-8.91615E-002	-8.91836E-002	5.47820E-004	...........
	16	4.39167	-8.91691E-002	-8.91900E-002	5.51187E-004	...........
	17	4.65	-8.91764E-002	-8.91958E-002	5.47520E-004	...........
	18	4.90833	-8.91831E-002	-8.92002E-002	5.51487E-004	...........
	19	5.16667	-8.91892E-002	-8.92052E-002	5.47454E-004	...........
	20	5.425	-8.91947E-002	-8.92092E-002	5.47220E-004	...........
	21	5.68333	-8.91998E-002	-8.92148E-002	5.45120E-004	...........
	22	5.94167	-8.92047E-002	-8.92224E-002	5.43487E-004	...........
	23	6.2	-8.92098E-002	-8.92289E-002	5.47187E-004	...........
	24	6.45833	-8.92155E-002	-8.92358E-002	5.45987E-004	...........
	25	6.71667	-8.92217E-002	-8.92394E-002	5.44954E-004	...........
	26	6.975	-8.92280E-002	-8.92468E-002	5.39121E-004	...........
	27	7.23333	-8.92342E-002	-8.92522E-002	5.38421E-004	...........
	28	7.49167	-8.92401E-002	-8.92600E-002	5.40087E-004	...........
	29	7.75	-8.92462E-002	-8.92649E-002	5.41687E-004	...........
	30	8.00833	-8.92524E-002	-8.92733E-002	5.38221E-004	...........
	31	8.26667	-8.92588E-002	-8.92764E-002	5.39154E-004	...........
	32	8.525	-8.92650E-002	-8.92791E-002	5.39721E-004	...........
	33	8.78333	-8.92706E-002	-8.92833E-002	5.44654E-004	...........
	34	9.04167	-8.92753E-002	-8.92864E-002	5.44987E-004	...........
	35	9.3	-8.92793E-002	-8.92932E-002	5.40621E-004	...........
	36	9.5583	-8.92832E-002	-8.92972E-002	5.41921E-004	...........
	37	9.8167	-8.92875E-002	-8.93012E-002	5.45587E-004	...........
	38	10.075	-8.92920E-002	-8.93059E-002	5.43620E-004	...........
EOC	QUANT	-0.089292	Open Circuit (V)
PSTATMODEL	IQUANT	4	Pstat Model
PSTATSECTION	LABEL	REF600-10037	Pstat Section
PSTATSERIALNO	LABEL	10037	Pstat Serial Number
CTRLMODE	IQUANT	1	Control Mode
IESTAB	IQUANT	0	I/E Stability
CASPEED	IQUANT	1	Control Amp Speed
CONVENTION	IQUANT	1	Current Convention
ICHRANGE	IQUANT	2	Ich Range
ICHRANGEMODE	TOGGLE	F	Ich Auto Range
ICHOFFSETENABLE	TOGGLE	T	Ich Offset Enable
ICHOFFSET	QUANT	0	Ich Offset (V)
ICHFILTER	IQUANT	3	Ich Filter
VCHRANGE	IQUANT	2	Vch Range
VCHRANGEMODE	TOGGLE	F	Vch Auto Range
VCHOFFSETENABLE	TOGGLE	T	Vch Offset Enable
VCHOFFSET	QUANT	0	Vch Offset (V)
VCHFILTER	IQUANT	3	Vch Filter
ACHRANGE	IQUANT	2	Ach Range
ACHOFFSETENABLE	TOGGLE	F	Ach Offset Enable
ACHOFFSET	QUANT	0	Ach Offset (V)
ACHFILTER	IQUANT	3	Ach Filter
IERANGELOWERLIMIT	IQUANT	1	I/E Range Lower Limit
IERANGEMODE	TOGGLE	F	I/E AutoRange
IERANGE	IQUANT	8	I/E Range
POSFEEDENABLE	TOGGLE	F	Positive Feedback IR Comp
POSFEEDRESISTANCE	QUANT	0	Positive Feedback Resistance (ohm)
ACHSELECT	IQUANT	0	Ach Select
CABLEID	IQUANT	14	Cable ID
DCCALDATE	LABEL	6/8/2020	DC Calibration Date
ACCALDATE	LABEL	6/8/2020	AC Calibration Date
THERMOSELECT	IQUANT	1	Thermo Select
FRAMEWORKVERSION	QUANT	6.33	Framework Version
INSTRUMENTVERSION	LABEL	3.50	Instrument Version
ZCURVE	TABLE
	Pt	Time	Freq	Zreal	Zimag	Zsig	Zmod	Zphz	Idc	Vdc	IERange
	#	s	Hz	ohm	ohm	V	ohm	°	A	V	#
	0	1	1000078	1735.084	-2198.203	1	2800.466	-51.71528	2.920995E-007	-0.0801404	8
	1	1	794390.6	2048.676	-2460.992	1	3202.117	-50.22399	4.474865E-007	-0.0804329	8
	2	1	630984.4	2393.45	-2746.972	1	3643.414	-48.9342	-1.680898E-007	-0.0804753	8
	3	2	501234.4	2788.738	-3049.477	1	4132.356	-47.55717	-1.452598E-008	-0.0805566	8
	4	2	398109.4	3227.766	-3377.31	1	4671.691	-46.297	7.091517E-008	-0.0805881	8
	5	2	316265.6	3745.567	-3733.001	1	5288.154	-44.90372	-1.540542E-007	-0.0806162	8
	6	3	251203.1	4346.373	-4081.34	1	5962.239	-43.19876	6.344651E-008	-0.0806332	8
	7	3	199546.9	5044.451	-4448.104	1	6725.482	-41.40525	-3.863541E-008	-0.0806436	8
	8	3	158578.1	5850.012	-4755.244	1	7538.898	-39.1063	-7.039223E-008	-0.0806251	8
	9	4	125953.1	6974.055	-4784.183	1	8457.295	-34.45002	-1.352696E-007	-0.0805986	7
	10	4	100078.1	7884.571	-4893.005	1	9279.438	-31.8229	-3.993188E-008	-0.0805187	7
	11	4	79453.13	8815.541	-4905.979	1	10088.73	-29.09658	7.844582E-008	-0.0806643	7
	12	5	63140.62	9736.53	-4793.485	1	10852.53	-26.21193	-6.321272E-008	-0.0805254	7
	13	5	50203.12	10580.75	-4581.832	1	11530.2	-23.41429	8.166517E-008	-0.0807788	7
	14	5	39890.62	11354.12	-4281.11	1	12134.41	-20.65913	-6.233103E-008	-0.0805313	7
	15	6	31640.63	12030.64	-3947.297	1	12661.66	-18.16485	-9.197851E-008	-0.0805391	7
	16	6	25171.88	12593.58	-3601.453	1	13098.43	-15.95922	6.436468E-008	-0.0807824	7
	17	6	20015.62	13051.79	-3259.969	1	13452.75	-14.02394	8.285751E-008	-0.0807835	7
	18	7	15890.62	13445.07	-2948.316	1	13764.54	-12.36839	1.047998E-008	-0.0807435	7
	19	7	12609.37	13944.25	-2219.9	1	14119.85	-9.045478	-1.006443E-008	-0.0806406	6
	20	7	10078.13	14140.04	-2093.952	1	14294.24	-8.423526	1.127547E-008	-0.0807051	6
	21	8	8015.625	14307.57	-2022.99	1	14449.88	-8.047873	-9.685905E-010	-0.0805222	6
	22	8	6328.125	14465.98	-2009.25	1	14604.85	-7.907498	1.289287E-008	-0.0808516	6
	23	8	5015.625	14617.67	-2060.229	1	14762.15	-8.022482	-9.908011E-009	-0.0804506	6
	24	8	3984.375	14762.8	-2171.883	1	14921.7	-8.369244	1.005625E-008	-0.0808464	6
	25	9	3170.956	14897.05	-2354.613	1	15081.99	-8.98181	-5.535573E-009	-0.0804775	6
	26	9	2527.573	15033.45	-2610.327	1	15258.39	-9.85032	-1.027188E-009	-0.0805264	6
	27	9	1976.103	15194.15	-2989.355	1	15485.42	-11.13043	-5.747171E-009	-0.0804821	6
	28	10	1577.524	15363.92	-3445.783	1	15745.58	-12.64098	1.327994E-008	-0.0807597	6
	29	10	1265.625	15540.79	-4009.438	1	16049.67	-14.46653	7.947554E-009	-0.0806436	6
	30	10	998.264	15755.91	-4772.424	1	16462.83	-16.85143	1.391959E-008	-0.0808223	6
	31	11	796.875	15998.19	-5678.642	1	16976.13	-19.54259	2.684059E-009	-0.0808145	6
	32	11	627.7902	16293.31	-6856.517	1	17677.21	-22.82223	7.92889E-009	-0.0806472	6
	33	11	505.5147	16621.22	-8180.59	1	18525.31	-26.20537	-1.315734E-008	-0.0805725	6
	34	12	397.9953	17070.95	-9964.27	1	19766.23	-30.27199	8.067876E-010	-0.0806468	6
	35	12	315.5048	17594.57	-12098.6	1	21352.87	-34.51368	8.360775E-010	-0.0806504	6
	36	12	252.4038	18226	-14601.52	1	23353.62	-38.69951	9.209834E-010	-0.0806503	6
	37	13	198.6229	19069.9	-17881.53	1	26142.12	-43.15799	9.065361E-010	-0.0806503	6
	38	13	158.3615	20082.27	-21664.86	1	29540.88	-47.17098	7.965775E-010	-0.0806484	6
	39	13	125.558	21388.98	-26367.05	1	33951.58	-50.951	7.965696E-010	-0.0806465	6
	40	14	100.4464	22993.17	-31823.53	1	39260.96	-54.1511	7.758088E-010	-0.0806496	6
	41	14	79.00281	25191.53	-38926.61	1	46366.95	-57.0909	8.81213E-010	-0.0806481	6
	42	14	63.3446	27827.75	-46748.55	1	54404.14	-59.23617	7.643605E-010	-0.0806517	6
	43	15	49.86702	31413.64	-56991.88	1	65076.05	-61.13667	9.489167E-010	-0.0806509	6
	44	15	39.72458	35763.55	-68671.05	1	77425.74	-62.48972	8.983158E-010	-0.0806438	6
	45	15	31.6723	41342.62	-82453.64	1	92237.82	-63.37061	1.100577E-009	-0.0806471	6
	46	16	24.93351	49091.34	-99607.6	1	111047.9	-63.76374	-4.250048E-011	-0.0806457	5
	47	16	19.86229	57780.31	-118187.2	1	131555.2	-63.94654	-4.874103E-009	-0.089277	5
	48	16	15.83615	69640.53	-140088.7	1	156443.7	-63.56723	-3.337483E-009	-0.0892864	5
	49	17	12.40079	86117.7	-167396	1	188249	-62.77623	-2.416537E-009	-0.0892847	5
	50	17	9.93114	105353.9	-195401.1	1	221993.3	-61.6679	-2.016419E-009	-0.0892833	5
	51	17	7.944915	128341.7	-225939.6	1	259846.7	-60.40189	-1.511337E-009	-0.0892845	5
	52	18	6.317385	157420.3	-260126	1	304050.5	-58.81895	-1.127969E-009	-0.0892813	5
	53	19	5.008013	191306.3	-297144	1	353401.6	-57.22588	-8.335697E-010	-0.0892847	5
	54	20	3.945707	230676.5	-337773.6	1	409026.4	-55.66956	-6.132188E-010	-0.0892814	5
	55	21	3.158693	271791.7	-378651.5	1	466098.4	-54.32965	-4.792333E-010	-0.0892884	5
	56	22	2.504006	319380.7	-425320.3	1	531884.8	-53.09645	-3.70658E-010	-0.0892897	5
	57	24	1.998082	368234.6	-475445.5	1	601369.4	-52.24206	-2.93E-010	-0.0892841	5
	58	26	1.584686	422298.7	-533561.1	1	680458.4	-51.63937	-1.718423E-010	-0.0892838	5
	59	29	1.266892	477980	-597778.5	1	765378.4	-51.35439	-1.102406E-010	-0.0892847	5
	60	32	0.999041	541491.8	-677678.8	1	867445.6	-51.37378	-1.082049E-010	-0.0892817	5
