EXPLAIN
TAG	EISPOT
TITLE	LABEL	Potentiostatic EIS	Test &Identifier
DATE	LABEL	1/14/2020	Date
TIME	LABEL	18:28:50	Time
NOTES	NOTES	5	&Notes...
	
	
	
	
	
PSTAT	PSTAT	REF600-11020	Potentiostat
VDC	POTEN	0.00000E+000	T	DC &Voltage (V)
FREQINIT	QUANT	1.00000E+006	Initial Fre&q. (Hz)
FREQFINAL	QUANT	1.00000E+000	Final Fre&q. (Hz)
PTSPERDEC	QUANT	1.00000E+001	Points/&decade
VAC	QUANT	2.50000E+001	AC &Voltage (mV rms)
AREA	QUANT	1.00000E-001	&Area (cm^2)
CONDIT	TWOPARAM	T	5.00000E+000	0.00000E+000	Conditionin&g	Time(s)	E(V)
DELAY	TWOPARAM	T	5.00000E+000	0.00000E+000	Init. De&lay	Time(s)	Stab.(mV/s)
SPEED	SELECTOR	1	&Optimize for:
ZGUESS	QUANT	5.00000E+002	E&stimated Z (ohms)
OCVCURVE	TABLE	19
	Pt	T	Vf	Vm	Ach	Over
	#	s	V vs. Ref.	V	V	bits
	0	0.258333	1.19707E-002	1.19707E-002	6.51180E-004	...........
	1	0.516667	1.19742E-002	1.21533E-002	6.54513E-004	...........
	2	0.775	1.19958E-002	1.23370E-002	6.51113E-004	...........
	3	1.03333	1.20578E-002	1.25205E-002	6.51146E-004	...........
	4	1.29167	1.21703E-002	1.26805E-002	6.51913E-004	...........
	5	1.55	1.23205E-002	1.27880E-002	6.55346E-004	...........
	6	1.80833	1.24838E-002	1.29494E-002	6.51580E-004	...........
	7	2.06667	1.26410E-002	1.30348E-002	6.48846E-004	...........
	8	2.325	1.27880E-002	1.33363E-002	6.56479E-004	...........
	9	2.58333	1.29401E-002	1.36868E-002	6.54246E-004	...........
	10	2.84167	1.31198E-002	1.36437E-002	6.53480E-004	...........
	11	3.1	1.33214E-002	1.37717E-002	6.55646E-004	...........
	12	3.35833	1.35099E-002	1.40076E-002	6.50680E-004	...........
	13	3.61667	1.36703E-002	1.41494E-002	6.48013E-004	...........
	14	3.875	1.38181E-002	1.42031E-002	6.57513E-004	...........
	15	4.13333	1.39544E-002	1.39486E-002	6.56446E-004	...........
	16	4.39167	1.40528E-002	1.42646E-002	6.48413E-004	...........
	17	4.65	1.41172E-002	1.48757E-002	6.54980E-004	...........
	18	4.90833	1.41969E-002	1.39227E-002	6.57180E-004	...........
EOC	QUANT	0.0141969	Open Circuit (V)
PSTATMODEL	IQUANT	4	Pstat Model
PSTATSECTION	LABEL	REF600-11020	Pstat Section
PSTATSERIALNO	LABEL	11020	Pstat Serial Number
CTRLMODE	IQUANT	1	Control Mode
IESTAB	IQUANT	0	I/E Stability
CASPEED	IQUANT	1	Control Amp Speed
CONVENTION	IQUANT	1	Current Convention
ICHRANGE	IQUANT	2	Ich Range
ICHRANGEMODE	TOGGLE	F	Ich Auto Range
ICHOFFSETENABLE	TOGGLE	T	Ich Offset Enable
ICHOFFSET	QUANT	0	Ich Offset (V)
ICHFILTER	IQUANT	3	Ich Filter
VCHRANGE	IQUANT	2	Vch Range
VCHRANGEMODE	TOGGLE	F	Vch Auto Range
VCHOFFSETENABLE	TOGGLE	T	Vch Offset Enable
VCHOFFSET	QUANT	0	Vch Offset (V)
VCHFILTER	IQUANT	3	Vch Filter
ACHRANGE	IQUANT	2	Ach Range
ACHOFFSETENABLE	TOGGLE	F	Ach Offset Enable
ACHOFFSET	QUANT	0	Ach Offset (V)
ACHFILTER	IQUANT	3	Ach Filter
IERANGELOWERLIMIT	IQUANT	1	I/E Range Lower Limit
IERANGEMODE	TOGGLE	F	I/E AutoRange
IERANGE	IQUANT	7	I/E Range
POSFEEDENABLE	TOGGLE	F	Positive Feedback IR Comp
POSFEEDRESISTANCE	QUANT	0	Positive Feedback Resistance (ohm)
ACHSELECT	IQUANT	0	Ach Select
CABLEID	IQUANT	14	Cable ID
DCCALDATE	LABEL	12/22/2019	DC Calibration Date
ACCALDATE	LABEL	12/22/2019	AC Calibration Date
THERMOSELECT	IQUANT	1	Thermo Select
FRAMEWORKVERSION	QUANT	6.33	Framework Version
INSTRUMENTVERSION	LABEL	3.50	Instrument Version
ZCURVE	TABLE
	Pt	Time	Freq	Zreal	Zimag	Zsig	Zmod	Zphz	Idc	Vdc	IERange
	#	s	Hz	ohm	ohm	V	ohm	°	A	V	#
	0	1	1000078	2023.875	-2142.627	1	2947.358	-46.63257	2.653895E-007	0.0166996	8
	1	3	794390.6	2379.139	-2312.556	1	3317.864	-44.18693	-7.659425E-007	0.016398	8
	2	4	630984.4	2775.914	-2467.394	1	3713.991	-41.63256	2.490354E-006	0.0156168	8
	3	5	501234.4	3189.968	-2604.126	1	4117.932	-39.22644	1.965663E-006	0.015571	8
	4	7	398109.4	3640.167	-2720.265	1	4544.299	-36.77045	-6.943285E-007	0.0159962	8
	5	8	316265.6	4113.236	-2783.793	1	4966.71	-34.08972	-1.411623E-006	0.0162541	8
	6	9	251203.1	4600.695	-2840.984	1	5407.179	-31.69582	1.371809E-006	0.0155555	8
	7	11	199546.9	5073.128	-2856.833	1	5822.209	-29.38519	-1.420771E-006	0.0162214	8
	8	12	158578.1	5509.016	-2836.62	1	6196.424	-27.24417	3.536315E-008	0.0157537	8
	9	13	125953.1	5982.727	-2751.585	1	6585.153	-24.69872	-1.010666E-007	0.0157963	7
	10	15	100078.1	6385.401	-2708.123	1	6935.941	-22.98236	3.48211E-008	0.0157686	7
	11	16	79453.13	6778.952	-2671.28	1	7286.283	-21.50717	5.944517E-009	0.0157574	7
	12	17	63140.62	7150.786	-2639.238	1	7622.291	-20.25827	-1.564311E-008	0.0157944	7
	13	19	50203.12	7506.998	-2621.616	1	7951.597	-19.25038	8.347914E-008	0.0156912	7
	14	20	39890.62	7844.88	-2617.363	1	8269.989	-18.45074	8.03105E-009	0.0157623	7
	15	21	31640.63	8186.839	-2637.435	1	8601.186	-17.85663	-2.643319E-008	0.0159162	7
	16	23	25171.88	8514.466	-2678.124	1	8925.72	-17.46035	-3.458068E-008	0.0158619	7
	17	24	20015.62	8840.146	-2749.759	1	9257.935	-17.27849	3.147987E-008	0.0157059	7
	18	25	15890.62	9188.978	-2850.113	1	9620.83	-17.23214	-2.574184E-008	0.0159145	7
	19	27	12609.37	9553.75	-2932.478	1	9993.68	-17.06361	5.537425E-009	0.0156782	6
	20	28	10078.13	9899.67	-3108.451	1	10376.21	-17.43206	2.255908E-009	0.015711	6
	21	29	8015.625	10271.08	-3326.399	1	10796.3	-17.9451	-6.340026E-009	0.015853	6
	22	31	6328.125	10671.33	-3593.263	1	11260.05	-18.60948	1.288753E-009	0.0158191	6
	23	32	5015.625	11101.33	-3914.708	1	11771.34	-19.4244	-6.174068E-009	0.015831	6
	24	33	3984.375	11570.89	-4268.537	1	12333.12	-20.24918	1.151912E-008	0.0156453	6
	25	35	3170.956	12068.85	-4709.15	1	12955.04	-21.31526	2.720354E-009	0.0156688	6
	26	36	2527.573	12618.21	-5194.328	1	13645.52	-22.37468	-1.240782E-009	0.0157277	6
	27	37	1976.103	13266.17	-5800.408	1	14478.81	-23.61655	-3.769387E-009	0.0158945	6
	28	39	1577.524	13917.07	-6451.052	1	15339.52	-24.86938	-6.230945E-009	0.0158997	6
	29	40	1265.625	14618.95	-7128.243	1	16264.24	-25.99401	-3.561859E-009	0.0157921	6
	30	41	998.264	15431.24	-8003.161	1	17383.14	-27.41278	2.681382E-009	0.0156615	6
	31	43	796.875	16258.45	-8981.94	1	18574.51	-28.91834	8.060423E-010	0.0158791	6
	32	44	627.7902	17233.65	-10191.82	1	20021.78	-30.59968	1.07048E-008	0.0155972	6
	33	45	505.5147	18219.2	-11493.19	1	21541.42	-32.24488	-6.338778E-009	0.0158143	6
	34	47	397.9953	19436.75	-13183.49	1	23485.99	-34.14813	5.890077E-010	0.015789	6
	35	48	315.5048	20797.37	-15107.45	1	25705.36	-35.99509	3.017639E-010	0.0157901	6
	36	50	252.4038	22288.54	-17244.12	1	28180.46	-37.72828	6.116881E-010	0.0157894	6
	37	51	198.6229	24110.63	-19897.67	1	31260.83	-39.53168	5.409767E-010	0.0157895	6
	38	52	158.3615	26045.69	-22785.61	1	34605.81	-41.18048	2.229419E-010	0.0157888	6
	39	54	125.558	28231.73	-26203.42	1	38518.18	-42.86609	3.836061E-010	0.0157905	6
	40	55	100.4464	30533.67	-30055.33	1	42844.23	-44.54766	6.823827E-010	0.015793	6
	41	56	79.00281	33173.49	-35009.18	1	48229.9	-46.54221	2.864661E-010	0.0157913	6
	42	58	63.3446	36035.89	-40279.43	1	54046.44	-48.18267	5.697915E-010	0.0157925	6
	43	59	49.86702	38837.67	-47665.55	1	61484.71	-50.82701	7.447348E-010	0.0157921	6
	44	60	39.72458	42286.71	-55784.77	1	70000.77	-52.83666	5.318799E-010	0.0157926	6
	45	62	31.6723	46088.67	-65812.88	1	80346.13	-54.9965	2.660833E-010	0.0157923	6
	46	63	24.93351	50803.81	-79001.14	1	93926.61	-57.25586	4.72412E-011	0.0157906	6
	47	64	19.86229	56237.41	-94215.38	1	109723.2	-59.16691	-4.871045E-010	0.0157876	5
	48	66	15.83615	63422.78	-112576.2	1	129212.4	-60.60412	6.498115E-010	0.0157892	5
	49	67	12.40079	72574.57	-136665.1	1	154739.9	-62.02994	-3.140819E-010	0.0157877	5
	50	69	9.93114	83609.18	-163057	1	183243.3	-62.85305	-4.166635E-010	0.0157947	5
	51	70	7.944915	97834.4	-193682.5	1	216989.5	-63.2004	-1.473033E-011	0.01578	5
	52	72	6.317385	116476.2	-230610.5	1	258356.2	-63.20269	9.767431E-011	0.0157735	5
	53	74	5.008013	140702.9	-273099.7	1	307214.5	-62.74216	-4.2738E-011	0.0157887	5
	54	76	3.945707	171057.1	-322460.9	1	365022.7	-62.05522	-3.548942E-011	0.015781	5
	55	79	3.158693	204871.2	-373740	1	426208.6	-61.26999	6.829604E-011	0.0158023	5
	56	82	2.504006	246303.9	-434205.7	1	499199.5	-60.43585	-2.802376E-010	0.0157887	5
	57	85	1.998082	291580.6	-498573.5	1	577576.7	-59.67963	-7.266736E-011	0.0157448	5
	58	88	1.584686	341351.5	-573703.1	1	667574.8	-59.24749	-8.640218E-011	0.0157875	5
	59	91	1.266892	396816.7	-657774.6	1	768199.8	-58.89861	-6.520879E-011	0.0157428	5
	60	96	0.999041	459706.3	-763350.8	1	891086	-58.94275	-2.468707E-011	0.0158169	5
