EXPLAIN
TAG	EISPOT
TITLE	LABEL	Potentiostatic EIS	Test &Identifier
DATE	LABEL	2/18/2020	Date
TIME	LABEL	16:03:44	Time
NOTES	NOTES	1	&Notes...
	
PSTAT	PSTAT	REF600-11020	Potentiostat
VDC	POTEN	0.00000E+000	T	DC &Voltage (V)
FREQINIT	QUANT	1.00000E+006	Initial Fre&q. (Hz)
FREQFINAL	QUANT	1.00000E+000	Final Fre&q. (Hz)
PTSPERDEC	QUANT	1.00000E+001	Points/&decade
VAC	QUANT	2.50000E+001	AC &Voltage (mV rms)
AREA	QUANT	1.60000E-004	&Area (cm^2)
CONDIT	TWOPARAM	F	1.50000E+001	0.00000E+000	Conditionin&g	Time(s)	E(V)
DELAY	TWOPARAM	F	1.00000E+002	0.00000E+000	Init. De&lay	Time(s)	Stab.(mV/s)
SPEED	SELECTOR	1	&Optimize for:
ZGUESS	QUANT	1.00000E+003	E&stimated Z (ohms)
OCVCURVE	TABLE	39
	Pt	T	Vf	Vm	Ach	Over
	#	s	V vs. Ref.	V	V	bits
	0	0.258333	-6.86102E-002	-6.86102E-002	5.67171E-004	...........
	1	0.516667	-6.86102E-002	-6.86083E-002	5.69271E-004	...........
	2	0.775	-6.86100E-002	-6.86111E-002	5.65704E-004	...........
	3	1.03333	-6.86097E-002	-6.85985E-002	5.64904E-004	...........
	4	1.29167	-6.86089E-002	-6.86208E-002	5.65171E-004	...........
	5	1.55	-6.86009E-002	-6.82114E-002	5.66438E-004	...........
	6	1.80833	-6.85678E-002	-6.85098E-002	5.69071E-004	...........
	7	2.06667	-6.85115E-002	-6.85462E-002	5.68838E-004	...........
	8	2.325	-6.84705E-002	-6.85395E-002	5.62471E-004	...........
	9	2.58333	-6.84716E-002	-6.85479E-002	5.65671E-004	...........
	10	2.84167	-6.84986E-002	-6.85378E-002	5.64671E-004	...........
	11	3.1	-6.85251E-002	-6.85747E-002	5.63504E-004	...........
	12	3.35833	-6.85427E-002	-6.85911E-002	5.66204E-004	...........
	13	3.61667	-6.85556E-002	-6.85727E-002	5.65104E-004	...........
	14	3.875	-6.85676E-002	-6.86183E-002	5.64804E-004	...........
	15	4.13333	-6.85780E-002	-6.85503E-002	5.68271E-004	...........
	16	4.39167	-6.85823E-002	-6.84923E-002	5.66204E-004	...........
	17	4.65	-6.85747E-002	-6.85576E-002	5.64204E-004	...........
	18	4.90833	-6.85586E-002	-6.85753E-002	5.67671E-004	...........
	19	5.16667	-6.85484E-002	-6.85868E-002	5.70404E-004	...........
	20	5.425	-6.85521E-002	-6.85907E-002	5.64971E-004	...........
	21	5.68333	-6.85649E-002	-6.86019E-002	5.63971E-004	...........
	22	5.94167	-6.85789E-002	-6.86050E-002	5.64538E-004	...........
	23	6.2	-6.85903E-002	-6.86092E-002	5.62804E-004	...........
	24	6.45833	-6.85983E-002	-6.86061E-002	5.68271E-004	...........
	25	6.71667	-6.86036E-002	-6.86132E-002	5.65338E-004	...........
	26	6.975	-6.86070E-002	-6.86191E-002	5.63571E-004	...........
	27	7.23333	-6.86097E-002	-6.86120E-002	5.66804E-004	...........
	28	7.49167	-6.86125E-002	-6.86292E-002	5.66738E-004	...........
	29	7.75	-6.86156E-002	-6.86301E-002	5.67904E-004	...........
	30	8.00833	-6.86198E-002	-6.86413E-002	5.68138E-004	...........
	31	8.26667	-6.86253E-002	-6.86479E-002	5.63438E-004	...........
	32	8.525	-6.86320E-002	-6.86480E-002	5.68438E-004	...........
	33	8.78333	-6.86386E-002	-6.86512E-002	5.64838E-004	...........
	34	9.04167	-6.86442E-002	-6.86625E-002	5.68504E-004	...........
	35	9.3	-6.86491E-002	-6.86644E-002	5.68071E-004	...........
	36	9.5583	-6.86540E-002	-6.86656E-002	5.63071E-004	...........
	37	9.8167	-6.86590E-002	-6.86813E-002	5.67871E-004	...........
	38	10.075	-6.86645E-002	-6.86980E-002	5.66238E-004	...........
EOC	QUANT	-0.0686645	Open Circuit (V)
PSTATMODEL	IQUANT	4	Pstat Model
PSTATSECTION	LABEL	REF600-11020	Pstat Section
PSTATSERIALNO	LABEL	11020	Pstat Serial Number
CTRLMODE	IQUANT	1	Control Mode
IESTAB	IQUANT	0	I/E Stability
CASPEED	IQUANT	1	Control Amp Speed
CONVENTION	IQUANT	1	Current Convention
ICHRANGE	IQUANT	2	Ich Range
ICHRANGEMODE	TOGGLE	F	Ich Auto Range
ICHOFFSETENABLE	TOGGLE	T	Ich Offset Enable
ICHOFFSET	QUANT	0	Ich Offset (V)
ICHFILTER	IQUANT	3	Ich Filter
VCHRANGE	IQUANT	2	Vch Range
VCHRANGEMODE	TOGGLE	F	Vch Auto Range
VCHOFFSETENABLE	TOGGLE	T	Vch Offset Enable
VCHOFFSET	QUANT	0	Vch Offset (V)
VCHFILTER	IQUANT	3	Vch Filter
ACHRANGE	IQUANT	2	Ach Range
ACHOFFSETENABLE	TOGGLE	F	Ach Offset Enable
ACHOFFSET	QUANT	0	Ach Offset (V)
ACHFILTER	IQUANT	3	Ach Filter
IERANGELOWERLIMIT	IQUANT	1	I/E Range Lower Limit
IERANGEMODE	TOGGLE	F	I/E AutoRange
IERANGE	IQUANT	8	I/E Range
POSFEEDENABLE	TOGGLE	F	Positive Feedback IR Comp
POSFEEDRESISTANCE	QUANT	0	Positive Feedback Resistance (ohm)
ACHSELECT	IQUANT	0	Ach Select
CABLEID	IQUANT	14	Cable ID
DCCALDATE	LABEL	1/27/2020	DC Calibration Date
ACCALDATE	LABEL	1/27/2020	AC Calibration Date
THERMOSELECT	IQUANT	1	Thermo Select
FRAMEWORKVERSION	QUANT	6.33	Framework Version
INSTRUMENTVERSION	LABEL	3.50	Instrument Version
ZCURVE	TABLE
	Pt	Time	Freq	Zreal	Zimag	Zsig	Zmod	Zphz	Idc	Vdc	IERange
	#	s	Hz	ohm	ohm	V	ohm	°	A	V	#
	0	1	1000078	1670.592	-2084.218	1	2671.113	-51.28629	-3.30058E-007	-0.0665751	8
	1	2	794390.6	2040.432	-2280.524	1	3060.091	-48.18034	-4.802063E-009	-0.0666827	8
	2	4	630984.4	2460.758	-2447.241	1	3470.492	-44.84221	-9.498136E-007	-0.0667457	8
	3	5	501234.4	2912.869	-2557.481	1	3876.276	-41.28294	-1.819697E-010	-0.0669842	8
	4	6	398109.4	3401.193	-2625.392	1	4296.603	-37.66466	2.149345E-006	-0.0675809	8
	5	8	316265.6	3875.11	-2635.171	1	4686.214	-34.21667	1.946076E-006	-0.0676008	8
	6	9	251203.1	4356.354	-2574.177	1	5060.06	-30.57891	5.303286E-008	-0.0673896	8
	7	10	199546.9	4818.872	-2504.03	1	5430.625	-27.45773	9.001438E-007	-0.0674367	8
	8	12	158578.1	5242.833	-2393.47	1	5763.333	-24.53776	-1.311498E-007	-0.0671016	8
	9	13	125953.1	5659.58	-2195.837	1	6070.63	-21.20555	4.008377E-007	-0.0679456	7
	10	15	100078.1	5987.278	-2055.661	1	6330.342	-18.9493	-2.108124E-008	-0.0672491	7
	11	16	79453.13	6292.645	-1887.523	1	6569.637	-16.69699	-2.473437E-008	-0.0672213	7
	12	17	63140.62	6551.054	-1711.308	1	6770.885	-14.64001	-3.816466E-008	-0.0672235	7
	13	19	50203.12	6766.387	-1541.809	1	6939.825	-12.83642	1.886897E-009	-0.0673337	7
	14	20	39890.62	6946.59	-1387.507	1	7083.805	-11.29557	7.416395E-009	-0.0672781	7
	15	21	31640.63	7093.899	-1256.542	1	7204.326	-10.04461	-2.664464E-008	-0.0671802	7
	16	23	25171.88	7211.026	-1151.006	1	7302.309	-9.068908	2.688719E-008	-0.0673744	7
	17	24	20015.62	7312.221	-1074.036	1	7390.679	-8.355986	5.37352E-008	-0.0673763	7
	18	26	15890.62	7395.606	-1028.425	1	7466.77	-7.916722	3.533304E-009	-0.0673385	7
	19	27	12609.37	7472.432	-1011.499	1	7540.582	-7.708935	5.405275E-008	-0.0673986	7
	20	29	10078.13	7541.625	-1029.166	1	7611.523	-7.770857	-9.302046E-009	-0.0672448	7
	21	31	8015.625	7609.156	-1073.487	1	7684.505	-8.030199	-2.582438E-008	-0.0671806	7
	22	32	6328.125	7677.915	-1159.03	1	7764.903	-8.584351	-2.897443E-008	-0.0672629	7
	23	34	5015.625	7749.402	-1283.006	1	7854.893	-9.400726	-1.467419E-008	-0.0673031	7
	24	35	3984.375	7825.214	-1452.776	1	7958.928	-10.5174	-3.665836E-008	-0.067232	7
	25	37	3170.956	7910.221	-1667.678	1	8084.104	-11.90509	2.756915E-008	-0.0673713	7
	26	38	2527.573	8003.198	-1944.033	1	8235.924	-13.65312	-3.603828E-008	-0.0672293	7
	27	40	1976.103	8118.789	-2319.414	1	8443.602	-15.94383	-3.604296E-008	-0.0672275	7
	28	41	1577.524	8246.812	-2749.763	1	8693.164	-18.44011	5.51765E-008	-0.0673805	7
	29	42	1265.625	8388.726	-3255.254	1	8998.188	-21.2088	-1.850621E-008	-0.067282	7
	30	44	998.264	8570.095	-3936.178	1	9430.802	-24.66895	7.512178E-009	-0.0673318	6
	31	45	796.875	8777.447	-4725.782	1	9968.78	-28.29805	-3.996988E-009	-0.0672134	6
	32	47	627.7902	9041.559	-5747.919	1	10713.93	-32.44503	1.531055E-009	-0.0672243	6
	33	48	505.5147	9323.056	-6874.771	1	11583.69	-36.40487	1.660776E-009	-0.0672552	6
	34	49	397.9953	9706.15	-8389.316	1	12829.27	-40.83783	1.540402E-009	-0.0672796	6
	35	51	315.5048	10157.09	-10190.73	1	14388.1	-45.09473	1.592861E-009	-0.0672858	6
	36	52	252.4038	10682.87	-12295.47	1	16288.1	-49.01437	8.757372E-010	-0.0672854	6
	37	53	198.6229	11378.44	-15055.18	1	18871.33	-52.91864	1.12987E-009	-0.0672869	6
	38	55	158.3615	12190.2	-18243.89	1	21941.76	-56.24995	8.060881E-010	-0.0672881	6
	39	56	125.558	13230.52	-22222.12	1	25862.51	-59.23145	1.220395E-009	-0.0672847	6
	40	58	100.4464	14485.74	-26841.12	1	30500.53	-61.64495	1.364413E-009	-0.0672869	6
	41	59	79.00281	16153.55	-32959.46	1	36705.08	-63.89036	1.192443E-009	-0.0672865	6
	42	60	63.3446	18065.48	-39519.79	1	43453.13	-65.43368	8.26667E-010	-0.0672923	6
	43	62	49.86702	21210.2	-48668.86	1	53089.84	-66.45213	6.374243E-010	-0.06729	6
	44	63	39.72458	24502.5	-58730.81	1	63637.1	-67.3541	9.767265E-010	-0.0672913	6
	45	65	31.6723	28823.9	-70871.19	1	76508.45	-67.86802	1.49638E-009	-0.0672913	6
	46	66	24.93351	34991.27	-85970.91	1	92819.11	-67.85304	1.322503E-009	-0.0672853	6
	47	67	19.86229	42452.29	-102961.7	1	111370.2	-67.59309	-1.176916E-010	-0.0672853	5
	48	69	15.83615	51682.97	-123037.1	1	133451.4	-67.21468	4.745591E-010	-0.067289	5
	49	70	12.40079	65106.72	-148185.3	1	161857.2	-66.28122	-1.864783E-011	-0.067289	5
	50	72	9.93114	80865.9	-173975.1	1	191850.5	-65.07038	4.338553E-011	-0.0672877	5
	51	73	7.944915	99868.2	-203306.8	1	226511.1	-63.83885	1.520737E-010	-0.0672892	5
	52	75	6.317385	123997.8	-237174	1	267632.1	-62.39882	1.04751E-010	-0.0673017	5
	53	77	5.008013	153844.2	-274952.3	1	315066.4	-60.77166	-6.483796E-011	-0.0672866	5
	54	79	3.945707	190685	-317121.5	1	370036.3	-58.98153	1.006843E-012	-0.0672872	5
	55	82	3.158693	230782.4	-359174.6	1	426927.3	-57.27781	1.686281E-010	-0.0672912	5
	56	85	2.504006	278112	-405883.2	1	492023.8	-55.58098	-1.178814E-010	-0.0672833	5
	57	88	1.998082	328312	-453588.8	1	559938.9	-54.10261	3.170455E-010	-0.067331	5
	58	91	1.584686	385116.9	-508810.7	1	638124.8	-52.87806	-4.308181E-011	-0.0673119	5
	59	95	1.266892	444467.4	-564881.7	1	718778.6	-51.80317	2.345274E-010	-0.0673278	5
	60	99	0.999041	511283.1	-634051.3	1	814513.1	-51.11816	3.671509E-012	-0.0672527	5
