EXPLAIN
TAG	EISPOT
TITLE	LABEL	Potentiostatic EIS	Test &Identifier
DATE	LABEL	2/6/2020	Date
TIME	LABEL	17:37:15	Time
NOTES	NOTES	6	&Notes...
	
	
	
	
	
	
PSTAT	PSTAT	REF600-11020	Potentiostat
VDC	POTEN	0.00000E+000	T	DC &Voltage (V)
FREQINIT	QUANT	1.00000E+006	Initial Fre&q. (Hz)
FREQFINAL	QUANT	1.00000E+000	Final Fre&q. (Hz)
PTSPERDEC	QUANT	1.00000E+001	Points/&decade
VAC	QUANT	2.50000E+001	AC &Voltage (mV rms)
AREA	QUANT	1.60000E-004	&Area (cm^2)
CONDIT	TWOPARAM	F	5.00000E+000	0.00000E+000	Conditionin&g	Time(s)	E(V)
DELAY	TWOPARAM	F	5.00000E+000	0.00000E+000	Init. De&lay	Time(s)	Stab.(mV/s)
SPEED	SELECTOR	0	&Optimize for:
ZGUESS	QUANT	1.00000E+003	E&stimated Z (ohms)
OCVCURVE	TABLE	39
	Pt	T	Vf	Vm	Ach	Over
	#	s	V vs. Ref.	V	V	bits
	0	0.258333	-4.44059E-002	-4.44059E-002	6.28537E-004	...........
	1	0.516667	-4.44060E-002	-4.44125E-002	6.29770E-004	...........
	2	0.775	-4.44048E-002	-4.43174E-002	6.24637E-004	...........
	3	1.03333	-4.43980E-002	-4.43765E-002	6.26270E-004	...........
	4	1.29167	-4.43843E-002	-4.43546E-002	6.25803E-004	...........
	5	1.55	-4.43695E-002	-4.43151E-002	6.29737E-004	...........
	6	1.80833	-4.43562E-002	-4.42897E-002	6.29303E-004	...........
	7	2.06667	-4.43403E-002	-4.42602E-002	6.27337E-004	...........
	8	2.325	-4.43189E-002	-4.42579E-002	6.26003E-004	...........
	9	2.58333	-4.42954E-002	-4.42461E-002	6.29137E-004	...........
	10	2.84167	-4.42746E-002	-4.42370E-002	6.27870E-004	...........
	11	3.1	-4.42583E-002	-4.41966E-002	6.25337E-004	...........
	12	3.35833	-4.42436E-002	-4.41984E-002	6.25903E-004	...........
	13	3.61667	-4.42287E-002	-4.42226E-002	6.29270E-004	...........
	14	3.875	-4.42169E-002	-4.42295E-002	6.22137E-004	...........
	15	4.13333	-4.42131E-002	-4.42267E-002	6.22170E-004	...........
	16	4.39167	-4.42164E-002	-4.42301E-002	6.20570E-004	...........
	17	4.65	-4.42219E-002	-4.42288E-002	6.20603E-004	...........
	18	4.90833	-4.42266E-002	-4.42480E-002	6.26803E-004	...........
	19	5.16667	-4.42303E-002	-4.42281E-002	6.31237E-004	...........
	20	5.425	-4.42333E-002	-4.42284E-002	6.22670E-004	...........
	21	5.68333	-4.42342E-002	-4.42274E-002	6.20070E-004	...........
	22	5.94167	-4.42326E-002	-4.42183E-002	6.23670E-004	...........
	23	6.2	-4.42289E-002	-4.41937E-002	6.22103E-004	...........
	24	6.45833	-4.42233E-002	-4.42315E-002	6.19770E-004	...........
	25	6.71667	-4.42182E-002	-4.42336E-002	6.25503E-004	...........
	26	6.975	-4.42172E-002	-4.42139E-002	6.23037E-004	...........
	27	7.23333	-4.42189E-002	-4.41797E-002	6.22170E-004	...........
	28	7.49167	-4.42171E-002	-4.41901E-002	6.33103E-004	...........
	29	7.75	-4.42096E-002	-4.42185E-002	6.25370E-004	...........
	30	8.00833	-4.42028E-002	-4.42299E-002	6.29770E-004	...........
	31	8.26667	-4.42039E-002	-4.42457E-002	6.32237E-004	...........
	32	8.525	-4.42129E-002	-4.42344E-002	6.29137E-004	...........
	33	8.78333	-4.42243E-002	-4.42315E-002	6.32470E-004	...........
	34	9.04167	-4.42320E-002	-4.42243E-002	6.29070E-004	...........
	35	9.3	-4.42339E-002	-4.42221E-002	6.26837E-004	...........
	36	9.5583	-4.42315E-002	-4.42204E-002	6.27103E-004	...........
	37	9.8167	-4.42274E-002	-4.42193E-002	6.27937E-004	...........
	38	10.075	-4.42237E-002	-4.42149E-002	6.23203E-004	...........
EOC	QUANT	-0.0442237	Open Circuit (V)
PSTATMODEL	IQUANT	4	Pstat Model
PSTATSECTION	LABEL	REF600-11020	Pstat Section
PSTATSERIALNO	LABEL	11020	Pstat Serial Number
CTRLMODE	IQUANT	1	Control Mode
IESTAB	IQUANT	0	I/E Stability
CASPEED	IQUANT	1	Control Amp Speed
CONVENTION	IQUANT	1	Current Convention
ICHRANGE	IQUANT	2	Ich Range
ICHRANGEMODE	TOGGLE	F	Ich Auto Range
ICHOFFSETENABLE	TOGGLE	T	Ich Offset Enable
ICHOFFSET	QUANT	0	Ich Offset (V)
ICHFILTER	IQUANT	3	Ich Filter
VCHRANGE	IQUANT	2	Vch Range
VCHRANGEMODE	TOGGLE	F	Vch Auto Range
VCHOFFSETENABLE	TOGGLE	T	Vch Offset Enable
VCHOFFSET	QUANT	0	Vch Offset (V)
VCHFILTER	IQUANT	3	Vch Filter
ACHRANGE	IQUANT	2	Ach Range
ACHOFFSETENABLE	TOGGLE	F	Ach Offset Enable
ACHOFFSET	QUANT	0	Ach Offset (V)
ACHFILTER	IQUANT	3	Ach Filter
IERANGELOWERLIMIT	IQUANT	1	I/E Range Lower Limit
IERANGEMODE	TOGGLE	F	I/E AutoRange
IERANGE	IQUANT	7	I/E Range
POSFEEDENABLE	TOGGLE	F	Positive Feedback IR Comp
POSFEEDRESISTANCE	QUANT	0	Positive Feedback Resistance (ohm)
ACHSELECT	IQUANT	0	Ach Select
CABLEID	IQUANT	14	Cable ID
DCCALDATE	LABEL	1/27/2020	DC Calibration Date
ACCALDATE	LABEL	1/27/2020	AC Calibration Date
THERMOSELECT	IQUANT	1	Thermo Select
FRAMEWORKVERSION	QUANT	6.33	Framework Version
INSTRUMENTVERSION	LABEL	3.50	Instrument Version
ZCURVE	TABLE
	Pt	Time	Freq	Zreal	Zimag	Zsig	Zmod	Zphz	Idc	Vdc	IERange
	#	s	Hz	ohm	ohm	V	ohm	°	A	V	#
	0	1	1000078	1969.708	-1867.06	1	2713.975	-43.46749	6.467654E-007	-0.0418059	8
	1	2	794390.6	2218.176	-1989.719	1	2979.813	-41.89232	-2.902534E-008	-0.0422468	8
	2	2	630984.4	2468.129	-2127.637	1	3258.604	-40.7628	-3.175513E-007	-0.0423824	8
	3	2	501234.4	2720.676	-2293.105	1	3558.146	-40.12566	-2.195696E-006	-0.0421044	8
	4	2	398109.4	2970.9	-2501.599	1	3883.844	-40.09852	2.519485E-007	-0.04256	8
	5	3	316265.6	3252.262	-2773.292	1	4274.15	-40.45512	-2.749986E-007	-0.0425955	8
	6	3	251203.1	3542.841	-3104.294	1	4710.453	-41.22536	6.740989E-007	-0.0427422	8
	7	3	199546.9	3922.253	-3528.319	1	5275.709	-41.97341	1.432889E-006	-0.0429766	8
	8	4	158578.1	4337.165	-3995.818	1	5897.25	-42.65429	-2.650648E-007	-0.0426172	8
	9	4	125953.1	4964.479	-4496.205	1	6697.903	-42.16635	-1.48677E-008	-0.042631	7
	10	4	100078.1	5651.658	-5104.79	1	7615.78	-42.08953	8.558725E-009	-0.0426802	7
	11	5	79453.13	6516.711	-5723.219	1	8673.105	-41.29081	2.208761E-008	-0.0426452	7
	12	5	63140.62	7573.61	-6287.091	1	9843.12	-39.69713	8.530458E-009	-0.0426914	7
	13	5	50203.12	8795.138	-6737.594	1	11079.24	-37.45424	-5.875719E-009	-0.0426823	7
	14	6	39890.62	10182.05	-7014.918	1	12364.6	-34.56488	2.231796E-008	-0.042655	7
	15	6	31640.63	11634.2	-7037.123	1	13596.9	-31.16828	6.261376E-008	-0.042801	7
	16	6	25171.88	13026.18	-6821.668	1	14704.3	-27.64056	-1.888203E-008	-0.0427175	7
	17	7	20015.62	14323.66	-6421.251	1	15697.12	-24.14655	-2.913499E-008	-0.042581	7
	18	7	15890.62	15431.98	-5859.095	1	16506.82	-20.79038	2.2618E-008	-0.0426563	7
	19	7	12609.37	16399.16	-5085.561	1	17169.6	-17.22924	1.247112E-008	-0.0429297	6
	20	8	10078.13	17061.75	-4498.386	1	17644.8	-14.7701	-3.142749E-009	-0.0427191	6
	21	8	8015.625	17551.29	-3957.441	1	17991.91	-12.70649	-2.768168E-009	-0.0427264	6
	22	8	6328.125	17943.51	-3485.667	1	18278.93	-10.99324	1.330216E-008	-0.0428862	6
	23	8	5015.625	18217.42	-3137.821	1	18485.68	-9.7729	-2.853963E-009	-0.042612	6
	24	9	3984.375	18425.24	-2892.287	1	18650.86	-8.921158	2.86442E-009	-0.0426994	6
	25	9	3170.956	18595.49	-2764.966	1	18799.93	-8.457354	8.577179E-009	-0.0427695	6
	26	9	2527.573	18730.74	-2747.626	1	18931.19	-8.345242	-1.609582E-009	-0.0427871	6
	27	10	1976.103	18886.67	-2854.23	1	19101.12	-8.593742	-7.357968E-009	-0.0426455	6
	28	10	1577.524	19035.21	-3065.738	1	19280.51	-9.149268	2.52579E-009	-0.0426996	6
	29	10	1265.625	19130.56	-3378.854	1	19426.66	-10.01632	-7.537989E-009	-0.0426401	6
	30	11	998.264	19281.05	-3863.524	1	19664.33	-11.33083	-5.354485E-009	-0.0426387	6
	31	11	796.875	19460.51	-4475.066	1	19968.42	-12.95038	1.096544E-009	-0.0426626	6
	32	11	627.7902	19677.32	-5304.45	1	20379.75	-15.0867	2.535924E-009	-0.0428117	6
	33	12	505.5147	19921.1	-6239.765	1	20875.46	-17.39181	-7.10325E-009	-0.0426728	6
	34	12	397.9953	20216.31	-7526.157	1	21571.79	-20.41937	6.019135E-010	-0.0427049	6
	35	12	315.5048	20578.72	-9071.652	1	22489.52	-23.78917	9.546511E-010	-0.0427084	6
	36	13	252.4038	21001.13	-10890.2	1	23656.79	-27.40914	1.114634E-009	-0.0427128	6
	37	13	198.6229	21533	-13288.24	1	25303.11	-31.67917	9.24377E-010	-0.0427101	6
	38	13	158.3615	22144.66	-16078.91	1	27366.35	-35.98285	1.037814E-009	-0.0427135	6
	39	14	125.558	22921.77	-19585.25	1	30149.46	-40.51186	5.958381E-010	-0.0427109	6
	40	14	100.4464	23840.47	-23748.05	1	33650.23	-44.88873	1.475814E-009	-0.0427144	6
	41	14	79.00281	25010.8	-29234.28	1	38473.15	-49.45203	1.132277E-009	-0.0427186	6
	42	15	63.3446	26802.75	-35098.69	1	44162.27	-52.63321	6.053871E-010	-0.0427183	6
	43	15	49.86702	28902.27	-43493.09	1	52220.59	-56.39495	1.475188E-010	-0.0427204	6
	44	15	39.72458	31206.74	-52926.53	1	61441.66	-59.47539	6.276574E-010	-0.0427148	6
	45	16	31.6723	34399.92	-64360.83	1	72977.2	-61.87615	5.273936E-010	-0.0427194	6
	46	16	24.93351	39316.68	-79022.52	1	88263.02	-63.54792	6.612341E-010	-0.0427232	6
	47	16	19.86229	45436.25	-95658.3	1	105900.7	-64.59299	2.750595E-010	-0.0427225	5
	48	17	15.83615	52285.53	-115806.9	1	127063.1	-65.70135	3.55569E-010	-0.0427262	5
	49	17	12.40079	65315.93	-141253.7	1	155623.8	-65.1841	-3.81839E-010	-0.0427228	5
	50	17	9.93114	78068.22	-166910.2	1	184265.2	-64.93329	2.694543E-010	-0.0427256	5
	51	18	7.944915	95540.3	-197391	1	219296.9	-64.1723	-4.827939E-010	-0.0427151	5
	52	18	6.317385	118118.6	-232764.7	1	261019.9	-63.09407	-4.417598E-010	-0.0427036	5
	53	19	5.008013	147100.6	-272537.3	1	309701.8	-61.64227	-8.833458E-011	-0.0427171	5
	54	20	3.945707	183335	-316418.8	1	365694.6	-59.91174	-8.069075E-011	-0.0427296	5
	55	22	3.158693	223680.4	-361385	1	425008.3	-58.24444	2.506218E-010	-0.0427228	5
	56	23	2.504006	271654.7	-409722.8	1	491598.5	-56.4548	9.84751E-011	-0.0427228	5
	57	25	1.998082	324491.9	-460463.8	1	563313.4	-54.8274	-1.091131E-010	-0.0427683	5
	58	26	1.584686	382300	-514602.3	1	641068.4	-53.3912	-1.233343E-011	-0.0427324	5
	59	28	1.266892	444319.1	-570835.9	1	723376.1	-52.10403	8.370904E-011	-0.0426974	5
	60	31	0.999041	514120.7	-639040.2	1	820178.3	-51.18262	1.520247E-010	-0.0426892	5
