EXPLAIN
TAG	EISPOT
TITLE	LABEL	Potentiostatic EIS	Test &Identifier
DATE	LABEL	3/17/2020	Date
TIME	LABEL	16:04:20	Time
NOTES	NOTES	1	&Notes...
	
PSTAT	PSTAT	REF600-11020	Potentiostat
VDC	POTEN	0.00000E+000	T	DC &Voltage (V)
FREQINIT	QUANT	1.00000E+006	Initial Fre&q. (Hz)
FREQFINAL	QUANT	1.00000E+000	Final Fre&q. (Hz)
PTSPERDEC	QUANT	1.00000E+001	Points/&decade
VAC	QUANT	2.50000E+001	AC &Voltage (mV rms)
AREA	QUANT	4.00000E-004	&Area (cm^2)
CONDIT	TWOPARAM	F	5.00000E+000	0.00000E+000	Conditionin&g	Time(s)	E(V)
DELAY	TWOPARAM	T	3.00000E+000	0.00000E+000	Init. De&lay	Time(s)	Stab.(mV/s)
SPEED	SELECTOR	0	&Optimize for:
ZGUESS	QUANT	5.00000E+003	E&stimated Z (ohms)
OCVCURVE	TABLE	12
	Pt	T	Vf	Vm	Ach	Over
	#	s	V vs. Ref.	V	V	bits
	0	0.258333	-5.92945E-002	-5.92945E-002	5.78497E-004	...........
	1	0.516667	-5.92945E-002	-5.92984E-002	5.84563E-004	...........
	2	0.775	-5.92950E-002	-5.93020E-002	5.80997E-004	...........
	3	1.03333	-5.92963E-002	-5.93076E-002	5.86530E-004	...........
	4	1.29167	-5.92989E-002	-5.93143E-002	5.86963E-004	...........
	5	1.55	-5.93028E-002	-5.93208E-002	5.84430E-004	...........
	6	1.80833	-5.93079E-002	-5.93290E-002	5.83197E-004	...........
	7	2.06667	-5.93140E-002	-5.93370E-002	5.85130E-004	...........
	8	2.325	-5.93209E-002	-5.93401E-002	5.85663E-004	...........
	9	2.58333	-5.93278E-002	-5.93447E-002	5.83630E-004	...........
	10	2.84167	-5.93342E-002	-5.93512E-002	5.81097E-004	...........
	11	3.1	-5.93399E-002	-5.93558E-002	5.84897E-004	...........
EOC	QUANT	-0.0593399	Open Circuit (V)
PSTATMODEL	IQUANT	4	Pstat Model
PSTATSECTION	LABEL	REF600-11020	Pstat Section
PSTATSERIALNO	LABEL	11020	Pstat Serial Number
CTRLMODE	IQUANT	1	Control Mode
IESTAB	IQUANT	0	I/E Stability
CASPEED	IQUANT	1	Control Amp Speed
CONVENTION	IQUANT	1	Current Convention
ICHRANGE	IQUANT	2	Ich Range
ICHRANGEMODE	TOGGLE	F	Ich Auto Range
ICHOFFSETENABLE	TOGGLE	T	Ich Offset Enable
ICHOFFSET	QUANT	0	Ich Offset (V)
ICHFILTER	IQUANT	3	Ich Filter
VCHRANGE	IQUANT	2	Vch Range
VCHRANGEMODE	TOGGLE	F	Vch Auto Range
VCHOFFSETENABLE	TOGGLE	T	Vch Offset Enable
VCHOFFSET	QUANT	0	Vch Offset (V)
VCHFILTER	IQUANT	3	Vch Filter
ACHRANGE	IQUANT	2	Ach Range
ACHOFFSETENABLE	TOGGLE	F	Ach Offset Enable
ACHOFFSET	QUANT	0	Ach Offset (V)
ACHFILTER	IQUANT	3	Ach Filter
IERANGELOWERLIMIT	IQUANT	1	I/E Range Lower Limit
IERANGEMODE	TOGGLE	F	I/E AutoRange
IERANGE	IQUANT	7	I/E Range
POSFEEDENABLE	TOGGLE	F	Positive Feedback IR Comp
POSFEEDRESISTANCE	QUANT	0	Positive Feedback Resistance (ohm)
ACHSELECT	IQUANT	0	Ach Select
CABLEID	IQUANT	14	Cable ID
DCCALDATE	LABEL	2/27/2020	DC Calibration Date
ACCALDATE	LABEL	2/27/2020	AC Calibration Date
THERMOSELECT	IQUANT	1	Thermo Select
FRAMEWORKVERSION	QUANT	6.33	Framework Version
INSTRUMENTVERSION	LABEL	3.50	Instrument Version
ZCURVE	TABLE
	Pt	Time	Freq	Zreal	Zimag	Zsig	Zmod	Zphz	Idc	Vdc	IERange
	#	s	Hz	ohm	ohm	V	ohm	°	A	V	#
	0	2	1000078	1809.541	-1783.862	1	2540.985	-44.59056	6.994997E-009	-0.0569242	8
	1	2	794390.6	2125.587	-1891.653	1	2845.43	-41.66729	7.723894E-008	-0.0572403	8
	2	2	630984.4	2455.506	-1977.04	1	3152.49	-38.83912	4.88785E-008	-0.0573881	8
	3	3	501234.4	2796.399	-2039.907	1	3461.368	-36.10987	1.466617E-008	-0.0574702	8
	4	3	398109.4	3140.889	-2080.262	1	3767.317	-33.51716	2.892748E-008	-0.0575581	8
	5	3	316265.6	3486.056	-2106.783	1	4073.219	-31.14649	2.331141E-008	-0.0575765	8
	6	3	251203.1	3825.694	-2106.082	1	4367.094	-28.83322	5.525171E-008	-0.0575849	8
	7	4	199546.9	4165.899	-2093.724	1	4662.445	-26.68348	2.985898E-008	-0.0575864	8
	8	4	158578.1	4496.496	-2071.827	1	4950.853	-24.73858	3.642197E-008	-0.0575931	8
	9	4	125953.1	4855.962	-1986.327	1	5246.51	-22.24697	-5.29137E-011	-0.0576491	7
	10	5	100078.1	5139.4	-1950.421	1	5497.052	-20.78194	1.06843E-009	-0.0576521	7
	11	5	79453.13	5430.229	-1921.182	1	5760.063	-19.48347	2.018563E-009	-0.0576582	7
	12	5	63140.62	5704.956	-1886.993	1	6008.932	-18.30235	6.46501E-010	-0.0576706	7
	13	6	50203.12	5966.455	-1857.082	1	6248.787	-17.28896	1.167921E-009	-0.0576667	7
	14	6	39890.62	6220.788	-1833.321	1	6485.312	-16.42071	2.459669E-009	-0.0576645	7
	15	6	31640.63	6465.152	-1818.26	1	6715.971	-15.70811	1.497031E-009	-0.0576669	7
	16	7	25171.88	6703.341	-1818.976	1	6945.751	-15.18184	2.604065E-009	-0.0576707	7
	17	7	20015.62	6936.431	-1828.571	1	7173.405	-14.76824	2.147294E-009	-0.0576737	7
	18	7	15890.62	7171.722	-1856.627	1	7408.148	-14.51418	2.199795E-009	-0.0576712	7
	19	8	12609.37	7404.156	-1898.516	1	7643.683	-14.3815	3.488247E-009	-0.0576686	7
	20	8	10078.13	7631.349	-1955.991	1	7878.032	-14.376	2.464518E-009	-0.0576703	7
	21	8	8015.625	7864.555	-2035.231	1	8123.631	-14.50901	2.197912E-009	-0.0576748	7
	22	9	6328.125	8114.76	-2144.334	1	8393.301	-14.80212	2.678924E-009	-0.0576788	7
	23	9	5015.625	8362.474	-2276.26	1	8666.736	-15.22696	2.417788E-009	-0.0576804	7
	24	9	3984.375	8618.309	-2440.14	1	8957.094	-15.80864	2.429517E-009	-0.0576816	7
	25	10	3170.956	8887.744	-2614.433	1	9264.3	-16.39186	2.701064E-011	-0.0576331	6
	26	10	2527.573	9152.778	-2855.953	1	9588	-17.32956	-5.611837E-011	-0.0576278	6
	27	10	1976.103	9450.259	-3176.518	1	9969.84	-18.57905	-1.952021E-010	-0.0576352	6
	28	10	1577.524	9727.72	-3536.07	1	10350.47	-19.97644	-4.377389E-011	-0.0576275	6
	29	11	1265.625	10010.96	-3968.12	1	10768.72	-21.62226	-1.037877E-010	-0.0576358	6
	30	11	998.264	10315.4	-4545.76	1	11272.59	-23.78199	-1.186454E-010	-0.0576334	6
	31	11	796.875	10622.95	-5233.021	1	11841.94	-26.22553	-2.440531E-011	-0.0576275	6
	32	12	627.7902	10976.5	-6148.273	1	12581.13	-29.25453	-7.853695E-011	-0.0576285	6
	33	12	505.5147	11346.7	-7180.586	1	13427.9	-32.32704	-2.37558E-010	-0.0576403	6
	34	12	397.9953	11815.31	-8592.529	1	14609.35	-36.02603	4.850646E-010	-0.0576167	6
	35	13	315.5048	12376.47	-10286.74	1	16093.29	-39.73177	4.664975E-010	-0.0576236	6
	36	13	252.4038	13050.86	-12269.9	1	17912.99	-43.2334	4.084771E-010	-0.057625	6
	37	13	198.6229	13966.5	-14850.55	1	20386.31	-46.75717	3.102298E-010	-0.0576231	6
	38	14	158.3615	15069.98	-17789.54	1	23314.63	-49.73121	2.437051E-010	-0.0576252	6
	39	14	125.558	16505.85	-21375.57	1	27006.63	-52.3253	1.76208E-010	-0.0576274	6
	40	14	100.4464	18249.35	-25447.66	1	31314.89	-54.35445	2.16494E-010	-0.057628	6
	41	15	79.00281	20616.75	-30613.12	1	36908.18	-56.04126	3.965058E-011	-0.0576271	6
	42	15	63.3446	23338.97	-36175.18	1	43050.57	-57.1713	2.793094E-010	-0.0576271	6
	43	15	49.86702	27017.73	-43190.46	1	50944.81	-57.97203	3.536131E-010	-0.0576298	6
	44	16	39.72458	31395.57	-50924.29	1	59824.45	-58.34556	2.039742E-010	-0.0576257	6
	45	16	31.6723	36789.41	-59738.11	1	70157.7	-58.37338	-6.318796E-011	-0.057631	6
	46	16	24.93351	43839.52	-70258.35	1	82813.88	-58.03683	8.214642E-010	-0.0576325	6
	47	17	19.86229	51999.39	-81450.48	1	96633.9	-57.44513	1.099281E-009	-0.0576276	6
	48	17	15.83615	61697.73	-93737.13	1	112219.7	-56.64711	-2.613629E-010	-0.0576242	5
	49	17	12.40079	74149.48	-108097.9	1	131085.1	-55.55193	1.893401E-009	-0.0576291	5
	50	18	9.93114	86619.26	-122336.8	1	149897.3	-54.7	1.674094E-009	-0.0576215	5
	51	18	7.944915	101096.1	-138298.4	1	171309.2	-53.8332	-5.051276E-010	-0.0576279	5
	52	18	6.317385	117206.4	-156365	1	195415.9	-53.1459	2.179459E-010	-0.0576293	5
	53	19	5.008013	135163.2	-176979.7	1	222690.1	-52.63025	6.181077E-010	-0.0576234	5
	54	20	3.945707	155966.3	-201106	1	254497.8	-52.20489	1.683133E-010	-0.0576394	5
	55	21	3.158693	176976.7	-227228.3	1	288016.4	-52.08677	3.162637E-010	-0.0576192	5
	56	22	2.504006	202003.3	-258369.6	1	327963.7	-51.98034	-1.507553E-010	-0.0576303	5
	57	23	1.998082	228463.4	-293719.2	1	372110.8	-52.12318	-1.919645E-010	-0.0576472	5
	58	25	1.584686	260238.9	-334758.8	1	424013.9	-52.13879	1.290898E-011	-0.0576007	5
	59	27	1.266892	295295.5	-382115.9	1	482920.3	-52.30349	6.278335E-011	-0.0575954	5
	60	29	0.999041	336809.6	-440023.7	1	554131.4	-52.56828	9.917996E-011	-0.0576067	5
