EXPLAIN
TAG	EISPOT
TITLE	LABEL	Potentiostatic EIS	Test &Identifier
DATE	LABEL	2/6/2020	Date
TIME	LABEL	18:07:45	Time
NOTES	NOTES	6	&Notes...
	
	
	
	
	
	
PSTAT	PSTAT	REF600-11020	Potentiostat
VDC	POTEN	0.00000E+000	T	DC &Voltage (V)
FREQINIT	QUANT	1.00000E+006	Initial Fre&q. (Hz)
FREQFINAL	QUANT	1.00000E+000	Final Fre&q. (Hz)
PTSPERDEC	QUANT	1.00000E+001	Points/&decade
VAC	QUANT	2.50000E+001	AC &Voltage (mV rms)
AREA	QUANT	1.60000E-004	&Area (cm^2)
CONDIT	TWOPARAM	F	5.00000E+000	0.00000E+000	Conditionin&g	Time(s)	E(V)
DELAY	TWOPARAM	F	5.00000E+000	0.00000E+000	Init. De&lay	Time(s)	Stab.(mV/s)
SPEED	SELECTOR	0	&Optimize for:
ZGUESS	QUANT	1.00000E+003	E&stimated Z (ohms)
OCVCURVE	TABLE	39
	Pt	T	Vf	Vm	Ach	Over
	#	s	V vs. Ref.	V	V	bits
	0	0.258333	5.69696E-003	5.69696E-003	5.42938E-004	...........
	1	0.516667	5.70138E-003	5.92787E-003	5.50338E-004	...........
	2	0.775	5.73431E-003	6.45271E-003	5.44938E-004	...........
	3	1.03333	5.83648E-003	6.41130E-003	5.44271E-004	...........
	4	1.29167	6.01698E-003	6.65981E-003	5.42005E-004	...........
	5	1.55	6.23258E-003	6.79734E-003	5.30838E-004	...........
	6	1.80833	6.43795E-003	6.95298E-003	5.39738E-004	...........
	7	2.06667	6.61768E-003	6.95808E-003	5.41571E-004	...........
	8	2.325	6.76588E-003	6.97477E-003	5.44671E-004	...........
	9	2.58333	6.87273E-003	6.94968E-003	5.39071E-004	...........
	10	2.84167	6.93431E-003	6.96529E-003	5.40238E-004	...........
	11	3.1	6.96059E-003	6.99986E-003	5.40838E-004	...........
	12	3.35833	6.97003E-003	6.99084E-003	5.40971E-004	...........
	13	3.61667	6.97580E-003	6.94506E-003	5.45271E-004	...........
	14	3.875	6.98077E-003	7.07916E-003	5.37605E-004	...........
	15	4.13333	6.98852E-003	7.05391E-003	5.44071E-004	...........
	16	4.39167	7.00368E-003	6.97983E-003	5.40205E-004	...........
	17	4.65	7.01968E-003	7.05368E-003	5.43205E-004	...........
	18	4.90833	7.02631E-003	6.97094E-003	5.40271E-004	...........
	19	5.16667	7.02244E-003	6.97857E-003	5.46705E-004	...........
	20	5.425	7.01259E-003	7.04561E-003	5.44038E-004	...........
	21	5.68333	7.00638E-003	7.10279E-003	5.48371E-004	...........
	22	5.94167	7.01561E-003	7.10133E-003	5.43971E-004	...........
	23	6.2	7.04270E-003	7.20475E-003	5.45738E-004	...........
	24	6.45833	7.08120E-003	7.19033E-003	5.48105E-004	...........
	25	6.71667	7.12296E-003	7.19298E-003	5.42338E-004	...........
	26	6.975	7.15768E-003	7.14358E-003	5.37271E-004	...........
	27	7.23333	7.17183E-003	6.95488E-003	5.45438E-004	...........
	28	7.49167	7.15509E-003	7.09475E-003	5.43471E-004	...........
	29	7.75	7.11606E-003	7.07467E-003	5.40605E-004	...........
	30	8.00833	7.07889E-003	6.94592E-003	5.45338E-004	...........
	31	8.26667	7.05314E-003	7.02009E-003	5.47671E-004	...........
	32	8.525	7.03312E-003	7.06692E-003	5.42138E-004	...........
	33	8.78333	7.02281E-003	7.09942E-003	5.44671E-004	...........
	34	9.04167	7.03221E-003	7.16712E-003	5.38838E-004	...........
	35	9.3	7.06322E-003	7.28010E-003	5.41038E-004	...........
	36	9.5583	7.11149E-003	7.22981E-003	5.47505E-004	...........
	37	9.8167	7.16666E-003	7.28698E-003	5.44071E-004	...........
	38	10.075	7.21302E-003	7.19667E-003	5.45305E-004	...........
EOC	QUANT	0.007213	Open Circuit (V)
PSTATMODEL	IQUANT	4	Pstat Model
PSTATSECTION	LABEL	REF600-11020	Pstat Section
PSTATSERIALNO	LABEL	11020	Pstat Serial Number
CTRLMODE	IQUANT	1	Control Mode
IESTAB	IQUANT	0	I/E Stability
CASPEED	IQUANT	1	Control Amp Speed
CONVENTION	IQUANT	1	Current Convention
ICHRANGE	IQUANT	2	Ich Range
ICHRANGEMODE	TOGGLE	F	Ich Auto Range
ICHOFFSETENABLE	TOGGLE	T	Ich Offset Enable
ICHOFFSET	QUANT	0	Ich Offset (V)
ICHFILTER	IQUANT	3	Ich Filter
VCHRANGE	IQUANT	2	Vch Range
VCHRANGEMODE	TOGGLE	F	Vch Auto Range
VCHOFFSETENABLE	TOGGLE	T	Vch Offset Enable
VCHOFFSET	QUANT	0	Vch Offset (V)
VCHFILTER	IQUANT	3	Vch Filter
ACHRANGE	IQUANT	2	Ach Range
ACHOFFSETENABLE	TOGGLE	F	Ach Offset Enable
ACHOFFSET	QUANT	0	Ach Offset (V)
ACHFILTER	IQUANT	3	Ach Filter
IERANGELOWERLIMIT	IQUANT	1	I/E Range Lower Limit
IERANGEMODE	TOGGLE	F	I/E AutoRange
IERANGE	IQUANT	7	I/E Range
POSFEEDENABLE	TOGGLE	F	Positive Feedback IR Comp
POSFEEDRESISTANCE	QUANT	0	Positive Feedback Resistance (ohm)
ACHSELECT	IQUANT	0	Ach Select
CABLEID	IQUANT	14	Cable ID
DCCALDATE	LABEL	1/27/2020	DC Calibration Date
ACCALDATE	LABEL	1/27/2020	AC Calibration Date
THERMOSELECT	IQUANT	1	Thermo Select
FRAMEWORKVERSION	QUANT	6.33	Framework Version
INSTRUMENTVERSION	LABEL	3.50	Instrument Version
ZCURVE	TABLE
	Pt	Time	Freq	Zreal	Zimag	Zsig	Zmod	Zphz	Idc	Vdc	IERange
	#	s	Hz	ohm	ohm	V	ohm	°	A	V	#
	0	1	1000078	1939.792	-2803.735	1	3409.358	-55.32219	1.519166E-006	0.00938	8
	1	2	794390.6	2325.887	-3195.727	1	3952.521	-53.95244	4.273649E-006	0.0085035	8
	2	2	630984.4	2783.192	-3593.099	1	4544.944	-52.23887	-2.831979E-007	0.0089156	8
	3	2	501234.4	3363.664	-4031.977	1	5250.816	-50.16355	-8.558146E-007	0.0091771	8
	4	3	398109.4	4002.556	-4499.355	1	6022.014	-48.34421	-7.921722E-007	0.0091148	8
	5	3	316265.6	4723.267	-4915.129	1	6816.725	-46.14038	-6.587492E-007	0.0091594	8
	6	4	251203.1	5589	-5202.712	1	7635.78	-42.94999	1.616164E-006	0.008567	8
	7	4	199546.9	6473.818	-5518.504	1	8506.716	-40.44541	4.103977E-007	0.0089157	8
	8	5	158578.1	7428.146	-5757.615	1	9398.27	-37.77955	6.88271E-008	0.0087942	8
	9	5	125953.1	8410.13	-5851.204	1	10245.33	-34.8276	4.195519E-007	0.00782	7
	10	5	100078.1	9379.608	-5967.177	1	11116.85	-32.46395	2.434474E-009	0.0088532	7
	11	6	79453.13	10278.46	-6066.899	1	11935.41	-30.55137	6.525241E-008	0.0087212	7
	12	6	63140.62	11155.92	-6158.695	1	12743	-28.90116	-4.508685E-008	0.0089109	7
	13	6	50203.12	11996.47	-6263.266	1	13533.06	-27.56873	2.012251E-008	0.0087357	7
	14	7	39890.62	12836.82	-6421.429	1	14353.35	-26.57583	6.399301E-008	0.0087104	7
	15	7	31640.63	13671.68	-6616.423	1	15188.55	-25.8247	2.87812E-009	0.0088344	7
	16	7	25171.88	14498.7	-6893.678	1	16054.13	-25.42963	3.791368E-008	0.0086992	7
	17	8	20015.62	15331.11	-7230.862	1	16950.76	-25.25073	3.788476E-008	0.0087794	7
	18	8	15890.62	16230.23	-7681.557	1	17956.24	-25.32759	1.153971E-007	0.008649	7
	19	8	12609.37	17264.47	-8059.472	1	19053.01	-25.0243	-8.908479E-009	0.008886	6
	20	9	10078.13	18218.5	-8689.283	1	20184.58	-25.49874	-1.622708E-009	0.0089233	6
	21	9	8015.625	19272.89	-9431.235	1	21456.76	-26.07493	7.436571E-009	0.0088009	6
	22	9	6328.125	20446.22	-10332.92	1	22908.89	-26.8107	-4.432757E-009	0.0089508	6
	23	9	5015.625	21693.29	-11345.58	1	24481.04	-27.60954	3.331984E-009	0.0088352	6
	24	10	3984.375	23070.47	-12500.78	1	26239.59	-28.45115	1.58814E-008	0.0085349	6
	25	10	3170.956	24563.06	-13807.36	1	28177.78	-29.34117	1.426103E-008	0.0086304	6
	26	10	2527.573	26192.45	-15281.61	1	30324.44	-30.26081	2.953499E-009	0.008714	6
	27	11	1976.103	28140.16	-17135.96	1	32947.07	-31.33933	7.490168E-009	0.0087946	6
	28	11	1577.524	30185.39	-19054.57	1	35696.42	-32.26222	2.65174E-009	0.0088336	6
	29	11	1265.625	32295.76	-21198.01	1	38631.22	-33.27974	-1.683655E-009	0.0089161	6
	30	12	998.264	34943.99	-23773.44	1	42264.16	-34.22863	-1.494853E-010	0.0087834	6
	31	12	796.875	37678.24	-26556.21	1	46096.44	-35.17678	6.276889E-009	0.0086508	6
	32	12	627.7902	40943.82	-29952.2	1	50729.98	-36.18711	6.634885E-009	0.0086477	6
	33	13	505.5147	44228.37	-33463.01	1	55460.99	-37.11101	-3.707977E-009	0.0088841	6
	34	13	397.9953	48307.14	-37765.05	1	61317.04	-38.01721	5.137115E-010	0.0088129	6
	35	13	315.5048	52737.96	-42579.86	1	67781.54	-38.9169	1.209944E-009	0.0088122	6
	36	14	252.4038	57545.55	-47811.74	1	74816.13	-39.72151	1.315442E-009	0.0088094	6
	37	14	198.6229	63341.32	-54270.2	1	83410.9	-40.58963	6.530334E-010	0.008811	6
	38	14	158.3615	69633.48	-61224.47	1	92721.39	-41.3232	2.124878E-010	0.0088088	6
	39	15	125.558	76865.63	-69245.5	1	103456.6	-42.01456	1.643167E-010	0.0088085	5
	40	15	100.4464	84956.46	-77727.22	1	115148.3	-42.4556	-4.340637E-010	0.0088109	5
	41	15	79.00281	95340.9	-88869.24	1	130336.6	-42.9879	-2.683204E-010	0.0088033	5
	42	16	63.3446	107225.7	-103547	1	149061.5	-44.00009	1.406328E-010	0.0088037	5
	43	16	49.86702	118362.6	-115684.1	1	165506.9	-44.34433	1.352733E-011	0.0088003	5
	44	16	39.72458	131393.6	-127317.1	1	182958.8	-44.09727	4.015375E-012	0.0088037	5
	45	17	31.6723	146875.2	-144015.5	1	205700.7	-44.43674	1.405585E-010	0.0088039	5
	46	17	24.93351	163417.7	-161406.7	1	229689.9	-44.64529	4.588208E-011	0.0087993	5
	47	17	19.86229	180792.8	-181424.9	1	256127	-45.09999	-4.674652E-010	0.0087983	5
	48	17	15.83615	199620.1	-208596.2	1	288722.3	-46.25965	-3.426544E-010	0.0088007	5
	49	18	12.40079	224616.3	-238120.8	1	327343.8	-46.67164	3.90225E-010	0.0088051	5
	50	18	9.93114	248777.1	-263457.2	1	362353	-46.64159	4.237811E-010	0.0088016	5
	51	19	7.944915	276912.1	-299776.9	1	408101.1	-47.2705	3.9821E-010	0.0087997	5
	52	19	6.317385	308400.1	-343110.1	1	461340.6	-48.04961	3.881266E-010	0.00879	5
	53	20	5.008013	347580.9	-394169.4	1	525530.3	-48.59396	3.597465E-010	0.0088058	5
	54	21	3.945707	393551.4	-453283.9	1	600290.8	-49.03474	1.229562E-010	0.0087957	5
	55	23	3.158693	446009.9	-514689.7	1	681050.9	-49.08908	7.795639E-010	0.0087874	6
	56	25	2.504006	506926.6	-584906.8	1	774009.4	-49.08521	1.768944E-010	0.0087887	5
	57	26	1.998082	574824.1	-661281.6	1	876194.1	-49.00095	-3.585033E-012	0.008744	5
	58	28	1.584686	651352.6	-750697.8	1	993885	-49.05304	-2.319135E-011	0.0087104	4
	59	30	1.266892	731471.5	-843040	1	1116139	-49.05315	3.261143E-011	0.0087448	4
	60	32	0.999041	826099.6	-955269	1	1262925	-49.14735	4.627396E-011	0.0087702	4
