EXPLAIN
TAG	EISPOT
TITLE	LABEL	Potentiostatic EIS	Test &Identifier
DATE	LABEL	2/13/2020	Date
TIME	LABEL	10:24:08	Time
NOTES	NOTES	1	&Notes...
	
PSTAT	PSTAT	REF600-11020	Potentiostat
VDC	POTEN	0.00000E+000	T	DC &Voltage (V)
FREQINIT	QUANT	1.00000E+006	Initial Fre&q. (Hz)
FREQFINAL	QUANT	1.00000E+000	Final Fre&q. (Hz)
PTSPERDEC	QUANT	1.00000E+001	Points/&decade
VAC	QUANT	2.50000E+001	AC &Voltage (mV rms)
AREA	QUANT	5.00000E-004	&Area (cm^2)
CONDIT	TWOPARAM	F	1.50000E+001	0.00000E+000	Conditionin&g	Time(s)	E(V)
DELAY	TWOPARAM	F	1.00000E+002	0.00000E+000	Init. De&lay	Time(s)	Stab.(mV/s)
SPEED	SELECTOR	0	&Optimize for:
ZGUESS	QUANT	1.00000E+003	E&stimated Z (ohms)
OCVCURVE	TABLE	39
	Pt	T	Vf	Vm	Ach	Over
	#	s	V vs. Ref.	V	V	bits
	0	0.258333	4.05665E-002	4.05665E-002	5.76271E-004	...........
	1	0.516667	4.05663E-002	4.05533E-002	5.69904E-004	...........
	2	0.775	4.05650E-002	4.05571E-002	5.71904E-004	...........
	3	1.03333	4.05624E-002	4.05542E-002	5.74404E-004	...........
	4	1.29167	4.05593E-002	4.05548E-002	5.72638E-004	...........
	5	1.55	4.05568E-002	4.05504E-002	5.76671E-004	...........
	6	1.80833	4.05550E-002	4.05560E-002	5.69638E-004	...........
	7	2.06667	4.05540E-002	4.05557E-002	5.72171E-004	...........
	8	2.325	4.05539E-002	4.05604E-002	5.70871E-004	...........
	9	2.58333	4.05548E-002	4.05572E-002	5.70771E-004	...........
	10	2.84167	4.05562E-002	4.05569E-002	5.73538E-004	...........
	11	3.1	4.05573E-002	4.05558E-002	5.72604E-004	...........
	12	3.35833	4.05575E-002	4.05561E-002	5.74204E-004	...........
	13	3.61667	4.05571E-002	4.05577E-002	5.74704E-004	...........
	14	3.875	4.05567E-002	4.05561E-002	5.72538E-004	...........
	15	4.13333	4.05566E-002	4.05566E-002	5.73071E-004	...........
	16	4.39167	4.05566E-002	4.05574E-002	5.75104E-004	...........
	17	4.65	4.05567E-002	4.05576E-002	5.72771E-004	...........
	18	4.90833	4.05569E-002	4.05582E-002	5.75104E-004	...........
	19	5.16667	4.05572E-002	4.05554E-002	5.74671E-004	...........
	20	5.425	4.05572E-002	4.05539E-002	5.71738E-004	...........
	21	5.68333	4.05568E-002	4.05556E-002	5.73904E-004	...........
	22	5.94167	4.05561E-002	4.05558E-002	5.78937E-004	...........
	23	6.2	4.05556E-002	4.05608E-002	5.76171E-004	...........
	24	6.45833	4.05561E-002	4.05656E-002	5.76504E-004	...........
	25	6.71667	4.05578E-002	4.05701E-002	5.75238E-004	...........
	26	6.975	4.05610E-002	4.05732E-002	5.75738E-004	...........
	27	7.23333	4.05649E-002	4.05772E-002	5.75704E-004	...........
	28	7.49167	4.05691E-002	4.05829E-002	5.74171E-004	...........
	29	7.75	4.05733E-002	4.05871E-002	5.74004E-004	...........
	30	8.00833	4.05776E-002	4.05918E-002	5.73104E-004	...........
	31	8.26667	4.05822E-002	4.05979E-002	5.73638E-004	...........
	32	8.525	4.05870E-002	4.06043E-002	5.72571E-004	...........
	33	8.78333	4.05922E-002	4.06107E-002	5.74038E-004	...........
	34	9.04167	4.05978E-002	4.06148E-002	5.72638E-004	...........
	35	9.3	4.06036E-002	4.06223E-002	5.70171E-004	...........
	36	9.5583	4.06095E-002	4.06284E-002	5.72238E-004	...........
	37	9.8167	4.06159E-002	4.06592E-002	5.73737E-004	...........
	38	10.075	4.06248E-002	4.06823E-002	5.68871E-004	...........
EOC	QUANT	0.0406248	Open Circuit (V)
PSTATMODEL	IQUANT	4	Pstat Model
PSTATSECTION	LABEL	REF600-11020	Pstat Section
PSTATSERIALNO	LABEL	11020	Pstat Serial Number
CTRLMODE	IQUANT	1	Control Mode
IESTAB	IQUANT	0	I/E Stability
CASPEED	IQUANT	1	Control Amp Speed
CONVENTION	IQUANT	1	Current Convention
ICHRANGE	IQUANT	2	Ich Range
ICHRANGEMODE	TOGGLE	F	Ich Auto Range
ICHOFFSETENABLE	TOGGLE	T	Ich Offset Enable
ICHOFFSET	QUANT	0	Ich Offset (V)
ICHFILTER	IQUANT	3	Ich Filter
VCHRANGE	IQUANT	2	Vch Range
VCHRANGEMODE	TOGGLE	F	Vch Auto Range
VCHOFFSETENABLE	TOGGLE	T	Vch Offset Enable
VCHOFFSET	QUANT	0	Vch Offset (V)
VCHFILTER	IQUANT	3	Vch Filter
ACHRANGE	IQUANT	2	Ach Range
ACHOFFSETENABLE	TOGGLE	F	Ach Offset Enable
ACHOFFSET	QUANT	0	Ach Offset (V)
ACHFILTER	IQUANT	3	Ach Filter
IERANGELOWERLIMIT	IQUANT	1	I/E Range Lower Limit
IERANGEMODE	TOGGLE	F	I/E AutoRange
IERANGE	IQUANT	7	I/E Range
POSFEEDENABLE	TOGGLE	F	Positive Feedback IR Comp
POSFEEDRESISTANCE	QUANT	0	Positive Feedback Resistance (ohm)
ACHSELECT	IQUANT	0	Ach Select
CABLEID	IQUANT	14	Cable ID
DCCALDATE	LABEL	1/27/2020	DC Calibration Date
ACCALDATE	LABEL	1/27/2020	AC Calibration Date
THERMOSELECT	IQUANT	1	Thermo Select
FRAMEWORKVERSION	QUANT	6.33	Framework Version
INSTRUMENTVERSION	LABEL	3.50	Instrument Version
ZCURVE	TABLE
	Pt	Time	Freq	Zreal	Zimag	Zsig	Zmod	Zphz	Idc	Vdc	IERange
	#	s	Hz	ohm	ohm	V	ohm	°	A	V	#
	0	1	1000078	1998.703	-1342.368	1	2407.647	-33.88609	-2.000744E-006	0.0428713	8
	1	1	794390.6	2258.802	-1291.031	1	2601.72	-29.75038	-1.100524E-006	0.0425407	8
	2	2	630984.4	2491.492	-1202.979	1	2766.711	-25.77287	-5.104318E-007	0.0423299	8
	3	2	501234.4	2700.682	-1097.384	1	2915.122	-22.11366	-5.928247E-007	0.0422217	8
	4	2	398109.4	2865.24	-990.145	1	3031.499	-19.06368	-5.706744E-007	0.0421724	8
	5	3	316265.6	2997.556	-888.1472	1	3126.363	-16.50405	1.0825E-006	0.0418939	8
	6	3	251203.1	3106.58	-793.8626	1	3206.409	-14.33472	2.905013E-006	0.0414485	8
	7	3	199546.9	3193.293	-696.7563	1	3268.423	-12.30867	-7.294847E-007	0.0421817	8
	8	4	158578.1	3259.946	-631.108	1	3320.474	-10.95661	-1.121741E-006	0.0422388	8
	9	4	125953.1	3340.441	-531.8126	1	3382.51	-9.045819	1.655104E-007	0.0416511	7
	10	4	100078.1	3391.218	-487.5728	1	3426.089	-8.181641	-4.421696E-009	0.0419718	7
	11	5	79453.13	3431.906	-464.2049	1	3463.158	-7.703164	-1.858302E-008	0.0420398	7
	12	5	63140.62	3472.689	-452.4644	1	3502.041	-7.423377	-1.83283E-008	0.0420415	7
	13	5	50203.12	3512.81	-450.265	1	3541.549	-7.304231	4.270347E-008	0.041899	7
	14	6	39890.62	3552.941	-458.8361	1	3582.446	-7.358599	1.704528E-008	0.0419369	7
	15	6	31640.63	3596.43	-478.9598	1	3628.183	-7.585812	-1.814699E-008	0.0420385	7
	16	6	25171.88	3639.762	-509.0667	1	3675.189	-7.961892	-1.43543E-008	0.042082	7
	17	7	20015.62	3687.308	-550.6154	1	3728.193	-8.49306	8.839468E-009	0.0420026	7
	18	7	15890.62	3738.073	-605.9921	1	3786.875	-9.208309	2.257886E-008	0.0420394	7
	19	7	12609.37	3794.03	-675.1804	1	3853.638	-10.09064	1.735159E-008	0.0419764	7
	20	7	10078.13	3854.503	-759.1992	1	3928.56	-11.14259	-3.139728E-008	0.0420507	7
	21	8	8015.625	3922.569	-859.1273	1	4015.551	-12.35394	2.804832E-008	0.0420127	7
	22	8	6328.125	4000.107	-984.653	1	4119.515	-13.8288	1.588263E-008	0.0419285	7
	23	8	5015.625	4086.172	-1135.228	1	4240.937	-15.52645	6.085978E-009	0.0420559	7
	24	9	3984.375	4180.214	-1313.209	1	4381.633	-17.44004	-1.834077E-008	0.0420292	7
	25	9	3170.956	4281.285	-1525.979	1	4545.109	-19.61759	-2.555114E-008	0.0420771	7
	26	9	2527.573	4393.942	-1778.599	1	4740.268	-22.03734	1.622955E-008	0.0419288	7
	27	10	1976.103	4529.46	-2115.928	1	4999.316	-25.03954	-2.510109E-008	0.0420717	7
	28	10	1577.524	4670.029	-2487.617	1	5291.257	-28.0432	2.780768E-008	0.0420061	7
	29	10	1265.625	4825.618	-2932.915	1	5646.997	-31.29041	-1.374954E-008	0.0420705	7
	30	11	998.264	5019.28	-3509.324	1	6124.42	-34.96004	-3.15522E-009	0.0419519	7
	31	11	796.875	5232.974	-4180.515	1	6697.814	-38.62063	2.766213E-008	0.0420006	7
	32	11	627.7902	5498.5	-5040.65	1	7459.333	-42.51247	-5.00441E-008	0.0420649	7
	33	12	505.5147	5773.643	-5994.803	1	8323.018	-46.07661	6.501751E-009	0.0420418	7
	34	12	397.9953	6149.887	-7274.289	1	9525.56	-49.78789	5.951443E-009	0.0420149	7
	35	12	315.5048	6591.691	-8791.305	1	10988.06	-53.13756	6.497637E-010	0.0420085	6
	36	13	252.4038	7104.62	-10566.94	1	12733.25	-56.08531	4.85461E-010	0.0420053	6
	37	13	198.6229	7787.589	-12887.81	1	15057.96	-58.85711	8.333419E-010	0.0420091	6
	38	13	158.3615	8596.59	-15563.19	1	17779.6	-61.08519	2.832508E-010	0.0420086	6
	39	14	125.558	9655.13	-18883.92	1	21209.05	-62.91985	4.918346E-010	0.0420053	6
	40	14	100.4464	10978.44	-22741.96	1	25253.18	-64.23156	2.629326E-010	0.0419976	6
	41	14	79.00281	12753.02	-27765.99	1	30554.7	-65.3305	1.014194E-010	0.0420006	6
	42	15	63.3446	15042.2	-32930.41	1	36203.31	-65.44968	5.45385E-010	0.0420016	6
	43	15	49.86702	18170.19	-40039.45	1	43969.45	-65.59111	7.440791E-010	0.0419979	6
	44	15	39.72458	21925.37	-48001.66	1	52771.98	-65.45085	6.567613E-010	0.0420003	6
	45	16	31.6723	26866.86	-57065.66	1	63073.9	-64.78866	2.747677E-010	0.041997	6
	46	16	24.93351	33682.58	-67761.98	1	75671.67	-63.56932	1.360822E-009	0.0419922	6
	47	16	19.86229	41718.77	-79162.41	1	89482.64	-62.21067	1.581727E-009	0.0420032	6
	48	17	15.83615	51608.83	-92347.63	1	105790.1	-60.80119	-4.682695E-011	0.0419923	5
	49	17	12.40079	64763.57	-106276.1	1	124454.5	-58.64228	2.304015E-009	0.0419931	5
	50	17	9.93114	78036.15	-120118.5	1	143241.4	-56.98984	-1.50903E-009	0.0419926	5
	51	18	7.944915	93805.66	-134808.6	1	164234.2	-55.16814	-1.082802E-009	0.0419959	5
	52	18	6.317385	111868.2	-150967.2	1	187897.8	-53.4612	-5.394668E-010	0.0420002	5
	53	19	5.008013	131750.5	-168077.5	1	213560.9	-51.90825	-5.083132E-010	0.0419922	5
	54	20	3.945707	153959.3	-187044.6	1	242258.5	-50.54168	4.917859E-010	0.041995	5
	55	22	3.158693	174965.3	-205989.1	1	270267.2	-49.65572	1.164308E-012	0.0420061	5
	56	23	2.504006	197903.2	-228894.7	1	302586.3	-49.15319	-2.979285E-010	0.0419933	5
	57	25	1.998082	219890.9	-254127	1	336054.4	-49.13102	1.234158E-010	0.0420146	5
	58	26	1.584686	243690.2	-286890.8	1	376418.9	-49.65482	2.133188E-010	0.0420294	5
	59	28	1.266892	266229.5	-325408.2	1	420438.6	-50.71202	9.845094E-011	0.0420092	5
	60	31	0.999041	291806.7	-375871.6	1	475847.3	-52.17614	7.347501E-011	0.0419912	5
