EXPLAIN
TAG	EISPOT
TITLE	LABEL	Potentiostatic EIS	Test &Identifier
DATE	LABEL	1/14/2020	Date
TIME	LABEL	15:06:06	Time
NOTES	NOTES	5	&Notes...
	
	
	
	
	
PSTAT	PSTAT	REF600-11020	Potentiostat
VDC	POTEN	0.00000E+000	T	DC &Voltage (V)
FREQINIT	QUANT	1.00000E+006	Initial Fre&q. (Hz)
FREQFINAL	QUANT	1.00000E+000	Final Fre&q. (Hz)
PTSPERDEC	QUANT	1.00000E+001	Points/&decade
VAC	QUANT	2.50000E+001	AC &Voltage (mV rms)
AREA	QUANT	1.00000E-001	&Area (cm^2)
CONDIT	TWOPARAM	T	5.00000E+000	0.00000E+000	Conditionin&g	Time(s)	E(V)
DELAY	TWOPARAM	T	5.00000E+000	0.00000E+000	Init. De&lay	Time(s)	Stab.(mV/s)
SPEED	SELECTOR	0	&Optimize for:
ZGUESS	QUANT	5.00000E+002	E&stimated Z (ohms)
OCVCURVE	TABLE	19
	Pt	T	Vf	Vm	Ach	Over
	#	s	V vs. Ref.	V	V	bits
	0	0.258333	1.66273E-003	1.66273E-003	6.53113E-004	...........
	1	0.516667	1.65422E-003	1.21738E-003	6.46046E-004	...........
	2	0.775	1.59847E-003	6.11400E-004	6.46113E-004	...........
	3	1.03333	1.43653E-003	4.20244E-004	6.47446E-004	...........
	4	1.29167	1.15441E-003	1.15124E-004	6.50980E-004	...........
	5	1.55	8.09327E-004	-1.32739E-004	6.45146E-004	...........
	6	1.80833	4.70865E-004	-3.28319E-004	6.44413E-004	...........
	7	2.06667	1.71986E-004	-5.36254E-004	6.46880E-004	...........
	8	2.325	-8.48172E-005	-7.19391E-004	6.45846E-004	...........
	9	2.58333	-3.08976E-004	-8.91835E-004	6.42713E-004	...........
	10	2.84167	-5.10870E-004	-1.05181E-003	6.38746E-004	...........
	11	3.1	-6.95114E-004	-1.10698E-003	6.38180E-004	...........
	12	3.35833	-8.57878E-004	-1.19409E-003	6.41546E-004	...........
	13	3.61667	-9.93223E-004	-1.31371E-003	6.40946E-004	...........
	14	3.875	-1.10520E-003	-1.43481E-003	6.36080E-004	...........
	15	4.13333	-1.20787E-003	-1.54498E-003	6.41713E-004	...........
	16	4.39167	-1.31346E-003	-1.69158E-003	6.44013E-004	...........
	17	4.65	-1.42760E-003	-1.85271E-003	6.41546E-004	...........
	18	4.90833	-1.55289E-003	-1.98802E-003	6.44813E-004	...........
EOC	QUANT	-0.0015529	Open Circuit (V)
PSTATMODEL	IQUANT	4	Pstat Model
PSTATSECTION	LABEL	REF600-11020	Pstat Section
PSTATSERIALNO	LABEL	11020	Pstat Serial Number
CTRLMODE	IQUANT	1	Control Mode
IESTAB	IQUANT	0	I/E Stability
CASPEED	IQUANT	1	Control Amp Speed
CONVENTION	IQUANT	1	Current Convention
ICHRANGE	IQUANT	2	Ich Range
ICHRANGEMODE	TOGGLE	F	Ich Auto Range
ICHOFFSETENABLE	TOGGLE	T	Ich Offset Enable
ICHOFFSET	QUANT	0	Ich Offset (V)
ICHFILTER	IQUANT	3	Ich Filter
VCHRANGE	IQUANT	2	Vch Range
VCHRANGEMODE	TOGGLE	F	Vch Auto Range
VCHOFFSETENABLE	TOGGLE	T	Vch Offset Enable
VCHOFFSET	QUANT	0	Vch Offset (V)
VCHFILTER	IQUANT	3	Vch Filter
ACHRANGE	IQUANT	2	Ach Range
ACHOFFSETENABLE	TOGGLE	F	Ach Offset Enable
ACHOFFSET	QUANT	0	Ach Offset (V)
ACHFILTER	IQUANT	3	Ach Filter
IERANGELOWERLIMIT	IQUANT	1	I/E Range Lower Limit
IERANGEMODE	TOGGLE	F	I/E AutoRange
IERANGE	IQUANT	6	I/E Range
POSFEEDENABLE	TOGGLE	F	Positive Feedback IR Comp
POSFEEDRESISTANCE	QUANT	0	Positive Feedback Resistance (ohm)
ACHSELECT	IQUANT	0	Ach Select
CABLEID	IQUANT	14	Cable ID
DCCALDATE	LABEL	12/22/2019	DC Calibration Date
ACCALDATE	LABEL	12/22/2019	AC Calibration Date
THERMOSELECT	IQUANT	1	Thermo Select
FRAMEWORKVERSION	QUANT	6.33	Framework Version
INSTRUMENTVERSION	LABEL	3.50	Instrument Version
ZCURVE	TABLE
	Pt	Time	Freq	Zreal	Zimag	Zsig	Zmod	Zphz	Idc	Vdc	IERange
	#	s	Hz	ohm	ohm	V	ohm	°	A	V	#
	0	1	1000078	2123.238	-1993.342	1	2912.311	-43.19267	1.719938E-006	-5.202365E-005	8
	1	1	794390.6	2498.926	-2058.9	1	3237.854	-39.48558	-2.9149E-006	0.0008656	8
	2	2	630984.4	2916.027	-2092.571	1	3589.16	-35.66361	3.940856E-007	0.0002215	8
	3	2	501234.4	3318.247	-2057.626	1	3904.432	-31.80282	-5.677407E-009	0.0001142	8
	4	2	398109.4	3714.854	-1955.721	1	4198.211	-27.765	2.799564E-006	-0.0004405	8
	5	3	316265.6	4060.784	-1837.715	1	4457.259	-24.34921	-1.983367E-006	0.0004434	8
	6	3	251203.1	4348.792	-1658.567	1	4654.335	-20.87614	-1.661352E-006	0.0004087	8
	7	3	199546.9	4605.147	-1494.08	1	4841.452	-17.97498	-6.719188E-007	0.0002342	8
	8	3	158578.1	4793.939	-1311.59	1	4970.123	-15.3013	1.396486E-007	0.0001088	8
	9	4	125953.1	4969.828	-1146.317	1	5100.316	-12.98841	-5.73191E-007	0.0013288	7
	10	4	100078.1	5078.965	-1013.514	1	5179.102	-11.2852	3.052812E-009	5.78721E-005	7
	11	4	79453.13	5183.116	-909.7123	1	5262.345	-9.95485	2.358977E-009	7.636396E-005	7
	12	5	63140.62	5266.392	-829.1813	1	5331.269	-8.947635	-3.694011E-008	9.41058E-005	7
	13	5	50203.12	5337.803	-766.3905	1	5392.541	-8.170568	-3.632129E-008	9.225454E-005	7
	14	5	39890.62	5403.374	-724.9291	1	5451.786	-7.641305	-2.95438E-008	7.770767E-005	7
	15	6	31640.63	5464.439	-700.6979	1	5509.181	-7.307088	1.111018E-008	-7.072108E-006	7
	16	6	25171.88	5522.535	-695.5023	1	5566.158	-7.17798	-2.819843E-009	3.279425E-005	7
	17	6	20015.62	5579.513	-709.0824	1	5624.39	-7.242711	-5.89683E-009	2.272414E-005	7
	18	7	15890.62	5638.029	-741.8465	1	5686.625	-7.495863	3.11534E-009	6.752816E-005	7
	19	7	12609.37	5699.294	-792.9007	1	5754.186	-7.9203	5.110926E-009	4.270031E-005	7
	20	7	10078.13	5758.042	-860.6615	1	5822.009	-8.501133	-3.586967E-008	8.996531E-005	7
	21	8	8015.625	5826.412	-955.741	1	5904.28	-9.315606	4.656345E-008	-4.55483E-005	7
	22	8	6328.125	5897.478	-1079.835	1	5995.522	-10.37599	-1.572421E-008	0.0000959	7
	23	8	5015.625	5975.333	-1233.184	1	6101.257	-11.66094	4.768865E-008	-4.523575E-005	7
	24	8	3984.375	6057.392	-1427.217	1	6223.258	-13.25798	-1.318325E-008	7.59655E-005	7
	25	9	3170.956	6149.122	-1664.728	1	6370.48	-15.14835	-3.608745E-008	8.259035E-005	7
	26	9	2527.573	6250.752	-1953.588	1	6548.925	-17.35593	2.887703E-008	-4.780596E-005	7
	27	9	1976.103	6377.879	-2340.681	1	6793.831	-20.15313	7.587937E-008	-6.653224E-005	7
	28	10	1577.524	6500.196	-2785.669	1	7071.951	-23.19763	4.677804E-008	-3.861089E-005	7
	29	10	1265.625	6657.769	-3308.848	1	7434.673	-26.42694	-1.277633E-008	7.441087E-005	7
	30	10	998.264	6848.803	-3996.042	1	7929.342	-30.2621	-2.142205E-008	3.15642E-005	7
	31	11	796.875	7064.6	-4798.172	1	8539.966	-34.18377	4.638579E-008	-3.385315E-005	7
	32	11	627.7902	7334.415	-5838.839	1	9374.736	-38.52288	5.990392E-009	3.765788E-005	7
	33	11	505.5147	7631.377	-6982.108	1	10343.49	-42.45605	4.463222E-009	5.330872E-005	6
	34	12	397.9953	8028.109	-8521.147	1	11707.28	-46.70646	1.630799E-009	5.242171E-005	6
	35	12	315.5048	8501.285	-10351.84	1	13395.24	-50.60598	1.430967E-009	4.62049E-005	6
	36	12	252.4038	9059.553	-12486.6	1	15426.95	-54.03754	9.994293E-010	4.194126E-005	6
	37	13	198.6229	9800.03	-15274.39	1	18147.93	-57.31581	9.609504E-010	4.574011E-005	6
	38	13	158.3615	10667.36	-18478.38	1	21336.42	-60.00265	1.221949E-009	4.141254E-005	6
	39	13	125.558	11772.04	-22454.2	1	25352.95	-62.33337	1.127272E-009	4.347234E-005	6
	40	14	100.4464	13073.88	-27055.32	1	30048.57	-64.20889	9.725878E-010	4.128982E-005	6
	41	14	79.00281	14833.63	-33035.22	1	36212.74	-65.81875	9.922742E-010	3.32468E-005	6
	42	14	63.3446	16897.33	-39863.13	1	43296.52	-67.0287	1.132036E-009	3.387707E-005	6
	43	15	49.86702	19554.24	-48560.99	1	52350.14	-68.06664	6.314343E-010	3.033014E-005	6
	44	15	39.72458	22782.84	-58446.9	1	62730.36	-68.70396	1.10357E-009	3.572085E-005	6
	45	15	31.6723	26817.03	-70405.04	1	75339.38	-69.14834	1.30318E-009	3.164708E-005	6
	46	16	24.93351	32184.66	-85710.27	1	91553.82	-69.41858	9.850798E-010	3.062711E-005	6
	47	16	19.86229	38748.71	-103043.3	1	110088.1	-69.39159	2.036248E-010	2.970562E-005	5
	48	16	15.83615	46615.94	-123928.6	1	132406	-69.38613	2.023141E-009	3.005735E-005	5
	49	16	12.40079	59081.71	-149991.1	1	161207.9	-68.50045	5.513942E-010	3.384633E-005	5
	50	17	9.93114	73001.91	-178011.5	1	192399	-67.70164	-4.394105E-010	3.185428E-005	5
	51	17	7.944915	90261.14	-210233.5	1	228790.7	-66.76433	4.969454E-010	2.714331E-005	5
	52	18	6.317385	112961.5	-248644.7	1	273101.6	-65.56728	2.288708E-010	4.015777E-005	5
	53	18	5.008013	141702.1	-292398.4	1	324925.1	-64.14425	1.135692E-010	2.213654E-005	5
	54	19	3.945707	177570.6	-341175.6	1	384619.4	-62.50452	2.526041E-010	2.729814E-005	5
	55	20	3.158693	217503.1	-392075.9	1	448365	-60.98079	1.116934E-010	1.66256E-005	5
	56	22	2.504006	276252.2	-459639.2	1	536268.1	-58.9933	1.118598E-010	1.698781E-005	5
	57	23	1.998082	331120.1	-501365.2	1	600839.1	-56.55775	3.569407E-009	5.651815E-005	5
	58	25	1.584686	386839.4	-578113.2	1	695600.1	-56.21189	1.64214E-009	1.705664E-005	5
	59	27	1.266892	455755.1	-648969.7	1	793016	-54.92059	7.0012E-010	-1.801308E-005	5
	60	29	0.999041	537627.9	-734637.8	1	910349.6	-53.80232	1.138133E-010	-1.688109E-005	5
