EXPLAIN
TAG	EISPOT
TITLE	LABEL	Potentiostatic EIS	Test &Identifier
DATE	LABEL	1/7/2020	Date
TIME	LABEL	17:49:42	Time
NOTES	NOTES	5	&Notes...
	
	
	
	
	
PSTAT	PSTAT	REF600-11020	Potentiostat
VDC	POTEN	0.00000E+000	T	DC &Voltage (V)
FREQINIT	QUANT	1.00000E+006	Initial Fre&q. (Hz)
FREQFINAL	QUANT	1.00000E+000	Final Fre&q. (Hz)
PTSPERDEC	QUANT	1.00000E+001	Points/&decade
VAC	QUANT	2.50000E+001	AC &Voltage (mV rms)
AREA	QUANT	1.00000E-001	&Area (cm^2)
CONDIT	TWOPARAM	T	5.00000E+000	0.00000E+000	Conditionin&g	Time(s)	E(V)
DELAY	TWOPARAM	T	5.00000E+000	0.00000E+000	Init. De&lay	Time(s)	Stab.(mV/s)
SPEED	SELECTOR	0	&Optimize for:
ZGUESS	QUANT	1.00000E+003	E&stimated Z (ohms)
OCVCURVE	TABLE	19
	Pt	T	Vf	Vm	Ach	Over
	#	s	V vs. Ref.	V	V	bits
	0	0.258333	-8.97261E-005	-8.97261E-005	6.46746E-004	...........
	1	0.516667	-9.82983E-005	-5.38447E-004	6.41980E-004	...........
	2	0.775	-1.50597E-004	-9.45999E-004	6.45046E-004	...........
	3	1.03333	-2.97091E-004	-1.32007E-003	6.47880E-004	...........
	4	1.29167	-5.55608E-004	-1.68049E-003	6.45680E-004	...........
	5	1.55	-8.93923E-004	-2.02306E-003	6.47780E-004	...........
	6	1.80833	-1.26332E-003	-2.34789E-003	6.47780E-004	...........
	7	2.06667	-1.63026E-003	-2.66826E-003	6.48280E-004	...........
	8	2.325	-1.98131E-003	-2.97123E-003	6.47180E-004	...........
	9	2.58333	-2.31503E-003	-3.26228E-003	6.40713E-004	...........
	10	2.84167	-2.63316E-003	-3.52356E-003	6.43180E-004	...........
	11	3.1	-2.93679E-003	-3.81454E-003	6.39946E-004	...........
	12	3.35833	-3.22782E-003	-4.08614E-003	6.40380E-004	...........
	13	3.61667	-3.51013E-003	-4.34606E-003	6.48413E-004	...........
	14	3.875	-3.78651E-003	-4.59966E-003	6.50813E-004	...........
	15	4.13333	-4.05676E-003	-4.84839E-003	6.46146E-004	...........
	16	4.39167	-4.31987E-003	-5.09219E-003	6.51613E-004	...........
	17	4.65	-4.57589E-003	-5.33258E-003	6.55980E-004	...........
	18	4.90833	-4.82578E-003	-5.56859E-003	6.50480E-004	...........
EOC	QUANT	-0.0048258	Open Circuit (V)
PSTATMODEL	IQUANT	4	Pstat Model
PSTATSECTION	LABEL	REF600-11020	Pstat Section
PSTATSERIALNO	LABEL	11020	Pstat Serial Number
CTRLMODE	IQUANT	1	Control Mode
IESTAB	IQUANT	0	I/E Stability
CASPEED	IQUANT	1	Control Amp Speed
CONVENTION	IQUANT	1	Current Convention
ICHRANGE	IQUANT	2	Ich Range
ICHRANGEMODE	TOGGLE	F	Ich Auto Range
ICHOFFSETENABLE	TOGGLE	T	Ich Offset Enable
ICHOFFSET	QUANT	0	Ich Offset (V)
ICHFILTER	IQUANT	3	Ich Filter
VCHRANGE	IQUANT	2	Vch Range
VCHRANGEMODE	TOGGLE	F	Vch Auto Range
VCHOFFSETENABLE	TOGGLE	T	Vch Offset Enable
VCHOFFSET	QUANT	0	Vch Offset (V)
VCHFILTER	IQUANT	3	Vch Filter
ACHRANGE	IQUANT	2	Ach Range
ACHOFFSETENABLE	TOGGLE	F	Ach Offset Enable
ACHOFFSET	QUANT	0	Ach Offset (V)
ACHFILTER	IQUANT	3	Ach Filter
IERANGELOWERLIMIT	IQUANT	1	I/E Range Lower Limit
IERANGEMODE	TOGGLE	F	I/E AutoRange
IERANGE	IQUANT	6	I/E Range
POSFEEDENABLE	TOGGLE	F	Positive Feedback IR Comp
POSFEEDRESISTANCE	QUANT	0	Positive Feedback Resistance (ohm)
ACHSELECT	IQUANT	0	Ach Select
CABLEID	IQUANT	14	Cable ID
DCCALDATE	LABEL	12/22/2019	DC Calibration Date
ACCALDATE	LABEL	12/22/2019	AC Calibration Date
THERMOSELECT	IQUANT	1	Thermo Select
FRAMEWORKVERSION	QUANT	6.33	Framework Version
INSTRUMENTVERSION	LABEL	3.50	Instrument Version
ZCURVE	TABLE
	Pt	Time	Freq	Zreal	Zimag	Zsig	Zmod	Zphz	Idc	Vdc	IERange
	#	s	Hz	ohm	ohm	V	ohm	°	A	V	#
	0	1	1000078	1958.899	-1083.221	1	2238.449	-28.94147	1.459885E-006	-0.0015779	8
	1	1	794390.6	2136.029	-1079.911	1	2393.497	-26.81976	3.493777E-006	-0.0036037	8
	2	2	630984.4	2300.939	-1019.432	1	2516.657	-23.89575	-9.365642E-006	-0.0012931	8
	3	2	501234.4	2454.071	-989.085	1	2645.894	-21.95133	-6.635709E-006	-0.001505	8
	4	2	398109.4	2614.085	-976.685	1	2790.583	-20.4869	3.501691E-006	-0.0036976	8
	5	2	316265.6	2750.328	-921.1954	1	2900.5	-18.51777	4.409711E-006	-0.0041552	8
	6	3	251203.1	2853.956	-900.2659	1	2992.581	-17.50762	-6.128959E-007	-0.0026623	8
	7	3	199546.9	3010.043	-855.2808	1	3129.196	-15.86209	7.506151E-006	-0.0045898	8
	8	3	158578.1	3106.469	-815.5291	1	3211.734	-14.7097	-1.11167E-006	-0.0030766	8
	9	4	125953.1	3269.828	-714.9231	1	3347.072	-12.33321	-2.132344E-006	0.0008608	7
	10	4	100078.1	3357.143	-698.4147	1	3429.022	-11.75209	-1.002003E-007	-0.0030268	7
	11	4	79453.13	3452.148	-689.6729	1	3520.365	-11.29786	-8.936915E-008	-0.003152	7
	12	5	63140.62	3544.929	-679.4371	1	3609.454	-10.84999	3.909366E-008	-0.0032622	7
	13	5	50203.12	3636.73	-670.4188	1	3698.008	-10.44502	-8.404034E-008	-0.0031252	7
	14	5	39890.62	3727.143	-665.7509	1	3786.135	-10.1275	5.365643E-009	-0.0032117	7
	15	6	31640.63	3815.547	-664.7112	1	3873.015	-9.88239	-1.016068E-007	-0.0030495	7
	16	6	25171.88	3900.366	-667.5015	1	3957.071	-9.71141	1.434954E-007	-0.0035038	7
	17	6	20015.62	3984.294	-674.5577	1	4040.993	-9.60929	1.333487E-007	-0.0035193	7
	18	7	15890.62	4067.658	-687.2334	1	4125.304	-9.5896	-3.942801E-008	-0.0032609	7
	19	7	12609.37	4146.485	-706.8522	1	4206.303	-9.67423	-3.605879E-008	-0.0030134	7
	20	7	10078.13	4224.613	-737.3203	1	4288.473	-9.9001	9.82142E-008	-0.0032418	7
	21	7	8015.625	4307.094	-779.342	1	4377.035	-10.25634	4.065323E-008	-0.0033964	7
	22	8	6328.125	4390.253	-834.0214	1	4468.771	-10.75637	-4.164195E-010	-0.0033662	7
	23	8	5015.625	4471.657	-904.6893	1	4562.256	-11.43749	-4.287688E-008	-0.0030919	7
	24	8	3984.375	4558.135	-991.936	1	4664.819	-12.27722	-3.939049E-008	-0.0032658	7
	25	9	3170.956	4641.219	-1101.692	1	4770.183	-13.35324	1.347473E-007	-0.0035262	7
	26	9	2527.573	4730.121	-1235.929	1	4888.923	-14.64337	3.082504E-009	-0.0033676	7
	27	9	1976.103	4824.938	-1423.633	1	5030.583	-16.43908	2.282366E-007	-0.0035766	7
	28	10	1577.524	4915.24	-1642.497	1	5182.411	-18.47779	8.503432E-008	-0.0035157	7
	29	10	1265.625	5006.207	-1893.425	1	5352.305	-20.7174	4.200502E-008	-0.0032717	7
	30	10	998.264	5110.639	-2249.781	1	5583.918	-23.75982	-3.071896E-008	-0.0031546	7
	31	11	796.875	5218.397	-2665.885	1	5859.916	-27.0608	-7.753783E-008	-0.0032016	7
	32	11	627.7902	5350.221	-3228.062	1	6248.62	-31.10472	-9.908069E-008	-0.0031257	7
	33	11	505.5147	5488.599	-3857.521	1	6708.591	-35.10048	1.457284E-007	-0.003525	7
	34	12	397.9953	5676.821	-4716.339	1	7380.39	-39.72002	6.687459E-009	-0.0032481	7
	35	12	315.5048	5905.866	-5754.161	1	8245.581	-44.25459	7.386149E-009	-0.0032496	7
	36	12	252.4038	6185.141	-6979.091	1	9325.432	-48.4514	7.183855E-009	-0.0032535	7
	37	13	198.6229	6574.024	-8592.374	1	10818.81	-52.5804	1.251803E-009	-0.0032471	6
	38	13	158.3615	7049.504	-10460.79	1	12614.42	-56.02405	1.344503E-009	-0.0032483	6
	39	13	125.558	7688.465	-12789.43	1	14922.53	-58.98749	1.208014E-009	-0.0032405	6
	40	14	100.4464	8478.368	-15495.25	1	17663.11	-61.31432	1.697454E-009	-0.0032506	6
	41	14	79.00281	9640.57	-18993.31	1	21299.91	-63.08869	1.49728E-009	-0.0032548	6
	42	14	63.3446	10906.25	-22934.47	1	25395.6	-64.56705	5.016396E-010	-0.0032536	6
	43	15	49.86702	12836.96	-27864.05	1	30678.87	-65.2645	8.564502E-010	-0.0032589	6
	44	15	39.72458	15333.47	-33423.32	1	36772.73	-65.35598	1.146138E-009	-0.0032488	6
	45	15	31.6723	18403.83	-39896.98	1	43937.11	-65.23689	1.291166E-009	-0.003256	6
	46	16	24.93351	22450.91	-47772.16	1	52784.68	-64.82845	1.206119E-009	-0.0032555	6
	47	16	19.86229	27272.74	-56449.7	1	62692.67	-64.21326	2.664122E-009	-0.0032527	6
	48	16	15.83615	33228.02	-66415.45	1	74263.8	-63.42094	-9.146046E-011	-0.003248	6
	49	16	12.40079	41063.14	-78319.26	1	88431.26	-62.33178	-7.439422E-010	-0.0032458	6
	50	17	9.93114	49476.26	-89886.35	1	102603.4	-61.17024	-1.62648E-009	-0.0032578	5
	51	17	7.944915	59343.62	-103401.1	1	119220.2	-60.14776	1.798659E-009	-0.003262	5
	52	18	6.317385	71183.42	-118712	1	138418.3	-59.05179	-1.386248E-010	-0.0032418	5
	53	18	5.008013	84723.7	-136009.6	1	160239.5	-58.08021	2.139721E-010	-0.0032579	5
	54	19	3.945707	99464.3	-155589.5	1	184665.2	-57.4103	6.185168E-010	-0.0032637	5
	55	20	3.158693	114524.9	-176483.8	1	210386.5	-57.01942	8.307489E-010	-0.0032451	5
	56	22	2.504006	131017	-201714.8	1	240529.2	-56.99563	6.12849E-010	-0.0032496	5
	57	23	1.998082	147089.1	-231089.8	1	273930.1	-57.52317	5.625925E-010	-0.0032824	5
	58	25	1.584686	164617.4	-267298.2	1	313922.3	-58.37288	9.186974E-010	-0.0032343	5
	59	27	1.266892	183535.7	-310873.5	1	361009.3	-59.44295	7.232485E-010	-0.0032132	5
	60	29	0.999041	204486.7	-368495.4	1	421430.5	-60.97309	7.78109E-010	-0.0032176	5
