EXPLAIN
TAG	EISPOT
TITLE	LABEL	Potentiostatic EIS	Test &Identifier
DATE	LABEL	2/28/2020	Date
TIME	LABEL	16:11:59	Time
NOTES	NOTES	1	&Notes...
	
PSTAT	PSTAT	REF600-11020	Potentiostat
VDC	POTEN	0.00000E+000	T	DC &Voltage (V)
FREQINIT	QUANT	1.00000E+006	Initial Fre&q. (Hz)
FREQFINAL	QUANT	1.00000E+000	Final Fre&q. (Hz)
PTSPERDEC	QUANT	1.00000E+001	Points/&decade
VAC	QUANT	2.50000E+001	AC &Voltage (mV rms)
AREA	QUANT	1.60000E-004	&Area (cm^2)
CONDIT	TWOPARAM	F	1.50000E+001	0.00000E+000	Conditionin&g	Time(s)	E(V)
DELAY	TWOPARAM	F	1.00000E+002	0.00000E+000	Init. De&lay	Time(s)	Stab.(mV/s)
SPEED	SELECTOR	1	&Optimize for:
ZGUESS	QUANT	1.00000E+003	E&stimated Z (ohms)
OCVCURVE	TABLE	39
	Pt	T	Vf	Vm	Ach	Over
	#	s	V vs. Ref.	V	V	bits
	0	0.258333	-9.04311E-002	-9.04311E-002	5.93096E-004	...........
	1	0.516667	-9.04322E-002	-9.04918E-002	5.92163E-004	...........
	2	0.775	-9.04399E-002	-9.05800E-002	5.90463E-004	...........
	3	1.03333	-9.04628E-002	-9.06154E-002	5.89430E-004	...........
	4	1.29167	-9.05034E-002	-9.06598E-002	5.85330E-004	...........
	5	1.55	-9.05545E-002	-9.06991E-002	5.89730E-004	...........
	6	1.80833	-9.06062E-002	-9.07554E-002	5.85996E-004	...........
	7	2.06667	-9.06515E-002	-9.06199E-002	5.88763E-004	...........
	8	2.325	-9.06786E-002	-9.05525E-002	5.89996E-004	...........
	9	2.58333	-9.06768E-002	-9.07162E-002	5.85896E-004	...........
	10	2.84167	-9.06617E-002	-9.08372E-002	5.90530E-004	...........
	11	3.1	-9.06692E-002	-9.08543E-002	5.92363E-004	...........
	12	3.35833	-9.07129E-002	-9.08190E-002	5.86363E-004	...........
	13	3.61667	-9.07691E-002	-9.08199E-002	5.88863E-004	...........
	14	3.875	-9.08094E-002	-9.08462E-002	5.81497E-004	...........
	15	4.13333	-9.08282E-002	-9.08570E-002	5.87463E-004	...........
	16	4.39167	-9.08365E-002	-9.08531E-002	5.85730E-004	...........
	17	4.65	-9.08431E-002	-9.08622E-002	5.88297E-004	...........
	18	4.90833	-9.08497E-002	-9.08655E-002	5.86663E-004	...........
	19	5.16667	-9.08556E-002	-9.08713E-002	5.91630E-004	...........
	20	5.425	-9.08607E-002	-9.08688E-002	5.87563E-004	...........
	21	5.68333	-9.08649E-002	-9.08734E-002	5.87196E-004	...........
	22	5.94167	-9.08681E-002	-9.08707E-002	5.86463E-004	...........
	23	6.2	-9.08702E-002	-9.08761E-002	5.87330E-004	...........
	24	6.45833	-9.08718E-002	-9.08807E-002	5.86330E-004	...........
	25	6.71667	-9.08737E-002	-9.08837E-002	5.87430E-004	...........
	26	6.975	-9.08762E-002	-9.08797E-002	5.89263E-004	...........
	27	7.23333	-9.08789E-002	-9.08847E-002	5.84863E-004	...........
	28	7.49167	-9.08813E-002	-9.09085E-002	5.90363E-004	...........
	29	7.75	-9.08854E-002	-9.09209E-002	5.88530E-004	...........
	30	8.00833	-9.08925E-002	-9.08992E-002	5.84696E-004	...........
	31	8.26667	-9.09003E-002	-9.08906E-002	5.82030E-004	...........
	32	8.525	-9.09038E-002	-9.08887E-002	5.87096E-004	...........
	33	8.78333	-9.09014E-002	-9.08824E-002	5.88830E-004	...........
	34	9.04167	-9.08956E-002	-9.08777E-002	5.91296E-004	...........
	35	9.3	-9.08895E-002	-9.08849E-002	5.91330E-004	...........
	36	9.5583	-9.08847E-002	-9.08719E-002	5.92363E-004	...........
	37	9.8167	-9.08813E-002	-9.08677E-002	5.87430E-004	...........
	38	10.075	-9.08779E-002	-9.08593E-002	5.87897E-004	...........
EOC	QUANT	-0.0908779	Open Circuit (V)
PSTATMODEL	IQUANT	4	Pstat Model
PSTATSECTION	LABEL	REF600-11020	Pstat Section
PSTATSERIALNO	LABEL	11020	Pstat Serial Number
CTRLMODE	IQUANT	1	Control Mode
IESTAB	IQUANT	0	I/E Stability
CASPEED	IQUANT	1	Control Amp Speed
CONVENTION	IQUANT	1	Current Convention
ICHRANGE	IQUANT	2	Ich Range
ICHRANGEMODE	TOGGLE	F	Ich Auto Range
ICHOFFSETENABLE	TOGGLE	T	Ich Offset Enable
ICHOFFSET	QUANT	0	Ich Offset (V)
ICHFILTER	IQUANT	3	Ich Filter
VCHRANGE	IQUANT	2	Vch Range
VCHRANGEMODE	TOGGLE	F	Vch Auto Range
VCHOFFSETENABLE	TOGGLE	T	Vch Offset Enable
VCHOFFSET	QUANT	0	Vch Offset (V)
VCHFILTER	IQUANT	3	Vch Filter
ACHRANGE	IQUANT	2	Ach Range
ACHOFFSETENABLE	TOGGLE	F	Ach Offset Enable
ACHOFFSET	QUANT	0	Ach Offset (V)
ACHFILTER	IQUANT	3	Ach Filter
IERANGELOWERLIMIT	IQUANT	1	I/E Range Lower Limit
IERANGEMODE	TOGGLE	F	I/E AutoRange
IERANGE	IQUANT	8	I/E Range
POSFEEDENABLE	TOGGLE	F	Positive Feedback IR Comp
POSFEEDRESISTANCE	QUANT	0	Positive Feedback Resistance (ohm)
ACHSELECT	IQUANT	0	Ach Select
CABLEID	IQUANT	14	Cable ID
DCCALDATE	LABEL	2/27/2020	DC Calibration Date
ACCALDATE	LABEL	2/27/2020	AC Calibration Date
THERMOSELECT	IQUANT	1	Thermo Select
FRAMEWORKVERSION	QUANT	6.33	Framework Version
INSTRUMENTVERSION	LABEL	3.50	Instrument Version
ZCURVE	TABLE
	Pt	Time	Freq	Zreal	Zimag	Zsig	Zmod	Zphz	Idc	Vdc	IERange
	#	s	Hz	ohm	ohm	V	ohm	°	A	V	#
	0	2	1000078	1896.427	-1639.631	1	2506.956	-40.84634	1.465608E-007	-0.0888995	8
	1	3	794390.6	2212.622	-1698.084	1	2789.119	-37.50456	1.016349E-006	-0.0893295	8
	2	4	630984.4	2525.938	-1694.016	1	3041.39	-33.84772	-1.023595E-006	-0.0890645	8
	3	6	501234.4	2837.313	-1680.525	1	3297.652	-30.63802	-6.66925E-007	-0.0891543	8
	4	7	398109.4	3122.615	-1622.517	1	3518.989	-27.45647	2.572616E-006	-0.0896942	8
	5	9	316265.6	3394.223	-1569.337	1	3739.461	-24.81371	1.329919E-006	-0.0897151	8
	6	10	251203.1	3641.398	-1483.236	1	3931.892	-22.16234	-2.054379E-006	-0.0890578	8
	7	11	199546.9	3854.238	-1390.062	1	4097.246	-19.83225	-1.924317E-006	-0.0890557	8
	8	13	158578.1	4038.395	-1306.092	1	4244.35	-17.92217	-2.080407E-006	-0.0888885	8
	9	14	125953.1	4235.764	-1195.863	1	4401.339	-15.76571	-5.825427E-007	-0.0880188	7
	10	15	100078.1	4376.868	-1140.258	1	4522.959	-14.60208	-3.061413E-008	-0.0894701	7
	11	17	79453.13	4516.649	-1102.032	1	4649.15	-13.71187	-1.886099E-008	-0.0894464	7
	12	18	63140.62	4647.891	-1071.742	1	4769.855	-12.98468	2.558259E-008	-0.0895495	7
	13	19	50203.12	4775.447	-1056.103	1	4890.833	-12.4704	-4.006022E-010	-0.0894287	7
	14	21	39890.62	4898.491	-1054.193	1	5010.643	-12.14526	-5.480647E-008	-0.089407	7
	15	22	31640.63	5024.164	-1066.518	1	5136.116	-11.98471	8.094801E-008	-0.0895995	7
	16	23	25171.88	5150.775	-1091.813	1	5265.22	-11.96788	-3.574442E-008	-0.0894565	7
	17	25	20015.62	5280.246	-1130.024	1	5399.811	-12.07964	2.487948E-008	-0.0894699	7
	18	26	15890.62	5416.472	-1181.333	1	5543.799	-12.30354	-5.353432E-008	-0.0894044	7
	19	27	12609.37	5558.391	-1248.384	1	5696.856	-12.65826	6.859795E-008	-0.0896112	7
	20	29	10078.13	5702.562	-1324.995	1	5854.47	-13.08063	1.595078E-009	-0.0894334	7
	21	30	8015.625	5853.194	-1414.47	1	6021.678	-13.58551	3.046835E-009	-0.0894898	7
	22	31	6328.125	6016.119	-1530.353	1	6207.71	-14.27195	2.462269E-008	-0.0894763	7
	23	33	5015.625	6180.552	-1668.049	1	6401.688	-15.10352	4.045972E-009	-0.0894325	7
	24	34	3984.375	6342.31	-1829.932	1	6601.026	-16.09431	-3.72881E-008	-0.0894316	7
	25	36	3170.956	6513.666	-2030.524	1	6822.82	-17.31397	-3.165185E-008	-0.0894881	7
	26	37	2527.573	6682.869	-2276.087	1	7059.838	-18.80809	-1.605394E-008	-0.0894599	7
	27	38	1976.103	6873.567	-2612.086	1	7353.157	-20.80774	-2.156172E-008	-0.0894354	7
	28	40	1577.524	7053.582	-2990.233	1	7661.234	-22.9736	-5.090839E-008	-0.0894054	7
	29	41	1265.625	7259.546	-3452.06	1	8038.516	-25.43202	-2.2783E-008	-0.0894348	7
	30	42	998.264	7483.093	-4063.036	1	8514.983	-28.50028	-2.962637E-008	-0.0894926	7
	31	44	796.875	7733.459	-4789.707	1	9096.575	-31.77195	-2.048362E-008	-0.0894561	7
	32	45	627.7902	8036.983	-5721.292	1	9865.41	-35.44595	-8.596638E-009	-0.0893152	6
	33	46	505.5147	8349.847	-6757.924	1	10741.95	-38.98488	-2.28968E-009	-0.0894426	6
	34	48	397.9953	8753.947	-8161.004	1	11968.02	-42.99235	3.331593E-011	-0.0894219	6
	35	49	315.5048	9220.541	-9826.8	1	13475.33	-46.82307	4.854008E-010	-0.0894258	6
	36	50	252.4038	9749.85	-11770.62	1	15284.21	-50.36435	1.006216E-010	-0.089427	6
	37	52	198.6229	10423.97	-14318.81	1	17711.22	-53.9457	1.486726E-010	-0.0894263	6
	38	53	158.3615	11184.39	-17258.04	1	20565.28	-57.05401	3.513043E-010	-0.0894255	6
	39	54	125.558	12105.26	-20936.47	1	24184.15	-59.96392	1.242779E-010	-0.0894249	6
	40	56	100.4464	13182.92	-25241.02	1	28476.28	-62.42277	3.763384E-010	-0.0894315	6
	41	57	79.00281	14586.41	-30974.68	1	34237.32	-64.78359	3.990805E-011	-0.089434	6
	42	59	63.3446	16246.32	-37499.33	1	40867.38	-66.57568	-7.792258E-011	-0.0894333	6
	43	60	49.86702	18281.66	-45770.64	1	49286.62	-68.22729	-1.116835E-010	-0.0894379	6
	44	61	39.72458	21072.18	-55673.18	1	59527.64	-69.26846	2.242903E-010	-0.0894255	6
	45	63	31.6723	24363.57	-67523.3	1	71784.26	-70.15968	-4.13905E-010	-0.0894263	6
	46	64	24.93351	29171.4	-82792.83	1	87781.68	-70.59049	1.417212E-010	-0.0894302	6
	47	65	19.86229	34978.15	-100197.4	1	106127.2	-70.75629	2.723292E-010	-0.0894165	5
	48	67	15.83615	42506.64	-121398	1	128624.6	-70.70266	-1.158704E-009	-0.0894254	5
	49	68	12.40079	53063.35	-147820	1	157055.7	-70.25325	-5.440879E-010	-0.0894236	5
	50	70	9.93114	66256.09	-176543.8	1	188567.2	-69.42912	-5.055452E-010	-0.08942	5
	51	71	7.944915	82560.42	-209980	1	225627.6	-68.53613	3.290278E-010	-0.0894269	5
	52	73	6.317385	104296	-249829.8	1	270726.1	-67.34101	-6.33988E-011	-0.0894208	5
	53	75	5.008013	132335.6	-295769.3	1	324024.9	-65.89491	2.580779E-010	-0.0894246	5
	54	77	3.945707	168502.6	-348361.8	1	386974.3	-64.18695	-1.884854E-010	-0.0894335	5
	55	80	3.158693	209754.1	-403058.3	1	454370.8	-62.50725	2.038883E-010	-0.0894224	5
	56	83	2.504006	261202.2	-464604.5	1	532995.3	-60.65516	-3.459964E-010	-0.0894387	5
	57	86	1.998082	319584.8	-528060.4	1	617237.6	-58.81746	3.454446E-013	-0.0894804	5
	58	89	1.584686	385274.3	-597939.6	1	711314.3	-57.20484	-1.025194E-010	-0.0894335	5
	59	93	1.266892	459007.6	-670958	1	812940.8	-55.62366	4.112075E-011	-0.0894735	5
	60	97	0.999041	541752.6	-754661.1	1	928982.9	-54.32637	5.044915E-011	-0.0893903	5
