EXPLAIN
TAG	EISPOT
TITLE	LABEL	Potentiostatic EIS	Test &Identifier
DATE	LABEL	6/14/2020	Date
TIME	LABEL	21:17:30	Time
NOTES	NOTES	1	&Notes...
	
PSTAT	PSTAT	REF600-10037	Potentiostat
VDC	POTEN	0.00000E+000	T	DC &Voltage (V)
FREQINIT	QUANT	1.00000E+006	Initial Fre&q. (Hz)
FREQFINAL	QUANT	1.00000E+000	Final Fre&q. (Hz)
PTSPERDEC	QUANT	1.00000E+001	Points/&decade
VAC	QUANT	2.50000E+001	AC &Voltage (mV rms)
AREA	QUANT	2.50000E-001	&Area (cm^2)
CONDIT	TWOPARAM	F	5.00000E+000	0.00000E+000	Conditionin&g	Time(s)	E(V)
DELAY	TWOPARAM	F	3.00000E+000	0.00000E+000	Init. De&lay	Time(s)	Stab.(mV/s)
SPEED	SELECTOR	0	&Optimize for:
ZGUESS	QUANT	1.00000E+003	E&stimated Z (ohms)
OCVCURVE	TABLE	39
	Pt	T	Vf	Vm	Ach	Over
	#	s	V vs. Ref.	V	V	bits
	0	0.258333	-5.35567E-002	-5.35567E-002	5.32721E-004	...........
	1	0.516667	-5.35569E-002	-5.35659E-002	5.31754E-004	...........
	2	0.775	-5.35581E-002	-5.35799E-002	5.29721E-004	...........
	3	1.03333	-5.35617E-002	-5.35881E-002	5.31121E-004	...........
	4	1.29167	-5.35683E-002	-5.35968E-002	5.35554E-004	...........
	5	1.55	-5.35770E-002	-5.36018E-002	5.32521E-004	...........
	6	1.80833	-5.35861E-002	-5.36108E-002	5.32121E-004	...........
	7	2.06667	-5.35946E-002	-5.36182E-002	5.32187E-004	...........
	8	2.325	-5.36024E-002	-5.36230E-002	5.35654E-004	...........
	9	2.58333	-5.36098E-002	-5.36316E-002	5.34421E-004	...........
	10	2.84167	-5.36168E-002	-5.36403E-002	5.39154E-004	...........
	11	3.1	-5.36240E-002	-5.36517E-002	5.37221E-004	...........
	12	3.35833	-5.36320E-002	-5.36640E-002	5.41854E-004	...........
	13	3.61667	-5.36410E-002	-5.36686E-002	5.39187E-004	...........
	14	3.875	-5.36506E-002	-5.36742E-002	5.39821E-004	...........
	15	4.13333	-5.36596E-002	-5.36790E-002	5.37421E-004	...........
	16	4.39167	-5.36673E-002	-5.36863E-002	5.32021E-004	...........
	17	4.65	-5.36738E-002	-5.36952E-002	5.35221E-004	...........
	18	4.90833	-5.36800E-002	-5.37023E-002	5.38621E-004	...........
	19	5.16667	-5.36868E-002	-5.37083E-002	5.37854E-004	...........
	20	5.425	-5.36940E-002	-5.37206E-002	5.36321E-004	...........
	21	5.68333	-5.37017E-002	-5.37300E-002	5.37954E-004	...........
	22	5.94167	-5.37102E-002	-5.37410E-002	5.36421E-004	...........
	23	6.2	-5.37195E-002	-5.37509E-002	5.38287E-004	...........
	24	6.45833	-5.37294E-002	-5.37564E-002	5.34854E-004	...........
	25	6.71667	-5.37392E-002	-5.37639E-002	5.42087E-004	...........
	26	6.975	-5.37481E-002	-5.37718E-002	5.42454E-004	...........
	27	7.23333	-5.37562E-002	-5.37778E-002	5.42387E-004	...........
	28	7.49167	-5.37635E-002	-5.37826E-002	5.42687E-004	...........
	29	7.75	-5.37704E-002	-5.37909E-002	5.35221E-004	...........
	30	8.00833	-5.37770E-002	-5.38015E-002	5.37787E-004	...........
	31	8.26667	-5.37839E-002	-5.38079E-002	5.34154E-004	...........
	32	8.525	-5.37915E-002	-5.38167E-002	5.36621E-004	...........
	33	8.78333	-5.37996E-002	-5.38287E-002	5.36321E-004	...........
	34	9.04167	-5.38081E-002	-5.38340E-002	5.38087E-004	...........
	35	9.3	-5.38169E-002	-5.38385E-002	5.37321E-004	...........
	36	9.5583	-5.38252E-002	-5.38475E-002	5.40254E-004	...........
	37	9.8167	-5.38327E-002	-5.38549E-002	5.40221E-004	...........
	38	10.075	-5.38397E-002	-5.38585E-002	5.40454E-004	...........
EOC	QUANT	-0.0538397	Open Circuit (V)
PSTATMODEL	IQUANT	4	Pstat Model
PSTATSECTION	LABEL	REF600-10037	Pstat Section
PSTATSERIALNO	LABEL	10037	Pstat Serial Number
CTRLMODE	IQUANT	1	Control Mode
IESTAB	IQUANT	0	I/E Stability
CASPEED	IQUANT	1	Control Amp Speed
CONVENTION	IQUANT	1	Current Convention
ICHRANGE	IQUANT	2	Ich Range
ICHRANGEMODE	TOGGLE	F	Ich Auto Range
ICHOFFSETENABLE	TOGGLE	T	Ich Offset Enable
ICHOFFSET	QUANT	0	Ich Offset (V)
ICHFILTER	IQUANT	3	Ich Filter
VCHRANGE	IQUANT	2	Vch Range
VCHRANGEMODE	TOGGLE	F	Vch Auto Range
VCHOFFSETENABLE	TOGGLE	T	Vch Offset Enable
VCHOFFSET	QUANT	0	Vch Offset (V)
VCHFILTER	IQUANT	3	Vch Filter
ACHRANGE	IQUANT	2	Ach Range
ACHOFFSETENABLE	TOGGLE	F	Ach Offset Enable
ACHOFFSET	QUANT	0	Ach Offset (V)
ACHFILTER	IQUANT	3	Ach Filter
IERANGELOWERLIMIT	IQUANT	1	I/E Range Lower Limit
IERANGEMODE	TOGGLE	F	I/E AutoRange
IERANGE	IQUANT	8	I/E Range
POSFEEDENABLE	TOGGLE	F	Positive Feedback IR Comp
POSFEEDRESISTANCE	QUANT	0	Positive Feedback Resistance (ohm)
ACHSELECT	IQUANT	0	Ach Select
CABLEID	IQUANT	14	Cable ID
DCCALDATE	LABEL	6/8/2020	DC Calibration Date
ACCALDATE	LABEL	6/8/2020	AC Calibration Date
THERMOSELECT	IQUANT	1	Thermo Select
FRAMEWORKVERSION	QUANT	6.33	Framework Version
INSTRUMENTVERSION	LABEL	3.50	Instrument Version
ZCURVE	TABLE
	Pt	Time	Freq	Zreal	Zimag	Zsig	Zmod	Zphz	Idc	Vdc	IERange
	#	s	Hz	ohm	ohm	V	ohm	°	A	V	#
	0	1	1000078	2114.574	-2087.543	1	2971.407	-44.63144	8.048996E-008	-0.0446463	8
	1	2	794390.6	2546.589	-2192.729	1	3360.532	-40.72994	-7.25848E-008	-0.0449098	8
	2	2	630984.4	3001.406	-2214.255	1	3729.794	-36.41765	7.271225E-008	-0.0450351	8
	3	2	501234.4	3449.445	-2166.519	1	4073.386	-32.132	-8.650038E-008	-0.0450932	8
	4	3	398109.4	3853.075	-2047.515	1	4363.313	-27.98607	5.111851E-007	-0.0451863	8
	5	3	316265.6	4205.713	-1896.137	1	4613.389	-24.26814	9.785239E-008	-0.0451758	8
	6	3	251203.1	4496.296	-1720.927	1	4814.382	-20.94401	4.1587E-008	-0.0451352	8
	7	4	199546.9	4740.072	-1552.151	1	4987.73	-18.13119	-2.387426E-007	-0.0451787	8
	8	4	158578.1	4926.7	-1395.102	1	5120.418	-15.81063	-1.135757E-007	-0.0451852	8
	9	4	125953.1	5170.002	-1084.185	1	5282.46	-11.8437	-7.045683E-008	-0.045226	7
	10	4	100078.1	5276.512	-999.986	1	5370.433	-10.73123	7.54459E-008	-0.0452894	7
	11	5	79453.13	5369.587	-942.1033	1	5451.608	-9.95136	-1.842621E-008	-0.0452304	7
	12	5	63140.62	5456.045	-906.3187	1	5530.808	-9.431441	6.175503E-008	-0.0453086	7
	13	5	50203.12	5539.569	-891.0538	1	5610.776	-9.137898	1.437047E-008	-0.0452686	7
	14	6	39890.62	5621.644	-895.8569	1	5692.578	-9.054437	-1.381936E-008	-0.045117	7
	15	6	31640.63	5706.667	-921.4763	1	5780.585	-9.172584	8.56629E-008	-0.0452726	7
	16	6	25171.88	5794.334	-965.491	1	5874.222	-9.4601	5.387107E-008	-0.0451896	7
	17	7	20015.62	5887.698	-1030.891	1	5977.268	-9.93138	5.33507E-008	-0.0451888	7
	18	7	15890.62	5991.236	-1120.068	1	6095.036	-10.58927	8.55649E-008	-0.0452725	7
	19	7	12609.37	6100.434	-1231.287	1	6223.452	-11.41104	-6.083223E-008	-0.0450844	7
	20	8	10078.13	6217.771	-1365.615	1	6365.97	-12.38725	-4.98148E-008	-0.0451961	7
	21	8	8015.625	6348.433	-1530.943	1	6530.42	-13.55818	5.406186E-008	-0.0451871	7
	22	8	6328.125	6501.841	-1738.303	1	6730.204	-14.96826	4.179177E-008	-0.0452959	7
	23	9	5015.625	6667.862	-1981.739	1	6956.125	-16.55235	7.125671E-008	-0.0452144	7
	24	9	3984.375	6858.838	-2268.807	1	7224.344	-18.30349	-8.168571E-008	-0.0451174	7
	25	9	3170.956	7071.126	-2606.842	1	7536.342	-20.23692	4.140873E-008	-0.0453001	7
	26	10	2527.573	7311.236	-2998.852	1	7902.359	-22.30198	-7.222238E-008	-0.0450815	7
	27	10	1976.103	7609.805	-3505.165	1	8378.264	-24.73135	8.563787E-008	-0.0452707	7
	28	10	1577.524	7921.845	-4048.812	1	8896.545	-27.07133	3.809485E-008	-0.0451662	7
	29	10	1265.625	8287.06	-4643.216	1	9499.2	-29.26179	-1.557419E-008	-0.0450243	6
	30	11	998.264	8713.035	-5442.055	1	10272.92	-31.98839	-6.978027E-009	-0.0450139	6
	31	11	796.875	9171.826	-6335.91	1	11147.47	-34.63677	1.076666E-008	-0.0453835	6
	32	11	627.7902	9724.46	-7454.165	1	12252.74	-37.47152	-7.394572E-009	-0.0450093	6
	33	12	505.5147	10296.64	-8665.832	1	13457.99	-40.08455	-1.423684E-008	-0.0449958	6
	34	12	397.9953	11018.97	-10257.34	1	15054.25	-42.94985	4.902375E-010	-0.0451799	6
	35	12	315.5048	11837.51	-12117.38	1	16939.82	-45.66938	6.441717E-010	-0.0451837	6
	36	13	252.4038	12758.48	-14253.27	1	19129.41	-48.16742	5.332252E-010	-0.0451849	6
	37	13	198.6229	13932.59	-17001.17	1	21980.84	-50.66512	7.117755E-010	-0.0451836	6
	38	13	158.3615	15264.72	-20105.33	1	25243.54	-52.79288	5.458571E-010	-0.0451869	6
	39	14	125.558	16899.07	-23885.14	1	29258.82	-54.72007	7.472641E-010	-0.0451887	6
	40	14	100.4464	18781.35	-28178.99	1	33864.36	-56.31647	6.802653E-010	-0.0451896	6
	41	14	79.00281	21198.66	-33649.49	1	39770.23	-57.7897	5.546091E-010	-0.0451912	6
	42	15	63.3446	23802.48	-39552.07	1	46161.94	-58.96042	6.106034E-010	-0.0451939	6
	43	15	49.86702	27161.15	-47180.8	1	54440.39	-60.07173	4.504164E-010	-0.0451939	6
	44	15	39.72458	30946.16	-55889.66	1	63885.2	-61.02666	6.617715E-010	-0.0451843	6
	45	16	31.6723	35446.21	-66221.07	1	75111.01	-61.84115	8.299634E-010	-0.0451891	6
	46	16	24.93351	41259.9	-79289.66	1	89382.49	-62.50892	-6.467026E-011	-0.0451891	6
	47	16	19.86229	47751.54	-93763.41	1	105222.6	-63.0113	-5.374669E-009	-0.0538186	5
	48	17	15.83615	56332.38	-111198.5	1	124653.3	-63.13356	-3.593509E-009	-0.0538271	5
	49	17	12.40079	68378.64	-133390.5	1	149895.5	-62.85942	-2.555918E-009	-0.0538227	5
	50	17	9.93114	82212.42	-156560.1	1	176833.1	-62.29527	-1.955439E-009	-0.0538193	5
	51	18	7.944915	99453	-182624.1	1	207948.2	-61.42828	-1.529056E-009	-0.0538242	5
	52	18	6.317385	121992.7	-212356.6	1	244903.1	-60.12388	-1.073247E-009	-0.0538203	5
	53	19	5.008013	149096.5	-244857.5	1	286679.2	-58.6623	-8.0843E-010	-0.0538196	5
	54	20	3.945707	181479.3	-280273.7	1	333898.3	-57.07664	-5.756823E-010	-0.0538271	5
	55	21	3.158693	215479.7	-315241.8	1	381849.3	-55.64591	-4.790611E-010	-0.0538212	5
	56	23	2.504006	254541	-354310.1	1	436264.6	-54.30604	-3.26446E-010	-0.0538308	5
	57	24	1.998082	293023.5	-395765.4	1	492435.8	-53.48387	-2.514869E-010	-0.0538282	5
	58	26	1.584686	333227.2	-444438.8	1	555487.4	-53.13852	-1.447167E-010	-0.0538274	5
	59	29	1.266892	372444.5	-500265.8	1	623683.3	-53.33257	-8.493602E-011	-0.053822	5
	60	32	0.999041	415206.8	-573125.1	1	707721.1	-54.07814	-6.471693E-011	-0.0538254	5
