EXPLAIN
TAG	EISPOT
TITLE	LABEL	Potentiostatic EIS	Test &Identifier
DATE	LABEL	1/28/2020	Date
TIME	LABEL	12:11:16	Time
NOTES	NOTES	6	&Notes...
	
	
	
	
	
	
PSTAT	PSTAT	REF600-11020	Potentiostat
VDC	POTEN	0.00000E+000	T	DC &Voltage (V)
FREQINIT	QUANT	1.00000E+006	Initial Fre&q. (Hz)
FREQFINAL	QUANT	1.00000E+000	Final Fre&q. (Hz)
PTSPERDEC	QUANT	1.00000E+001	Points/&decade
VAC	QUANT	2.50000E+001	AC &Voltage (mV rms)
AREA	QUANT	1.60000E-004	&Area (cm^2)
CONDIT	TWOPARAM	F	5.00000E+000	0.00000E+000	Conditionin&g	Time(s)	E(V)
DELAY	TWOPARAM	F	5.00000E+000	0.00000E+000	Init. De&lay	Time(s)	Stab.(mV/s)
SPEED	SELECTOR	0	&Optimize for:
ZGUESS	QUANT	1.00000E+003	E&stimated Z (ohms)
OCVCURVE	TABLE	39
	Pt	T	Vf	Vm	Ach	Over
	#	s	V vs. Ref.	V	V	bits
	0	0.258333	4.75713E-002	4.75713E-002	5.74038E-004	...........
	1	0.516667	4.75715E-002	4.75825E-002	5.69204E-004	...........
	2	0.775	4.75817E-002	4.80572E-002	5.67204E-004	...........
	3	1.03333	4.76403E-002	4.85309E-002	5.66838E-004	...........
	4	1.29167	4.77937E-002	4.84604E-002	5.72971E-004	...........
	5	1.55	4.80168E-002	4.80034E-002	5.71338E-004	...........
	6	1.80833	4.81927E-002	4.78794E-002	5.66138E-004	...........
	7	2.06667	4.82342E-002	4.83976E-002	5.68771E-004	...........
	8	2.325	4.81918E-002	4.82755E-002	5.67971E-004	...........
	9	2.58333	4.81786E-002	4.86109E-002	5.66904E-004	...........
	10	2.84167	4.82320E-002	4.80369E-002	5.71138E-004	...........
	11	3.1	4.82966E-002	4.83301E-002	5.64304E-004	...........
	12	3.35833	4.83185E-002	4.83930E-002	5.67204E-004	...........
	13	3.61667	4.83199E-002	4.87535E-002	5.74604E-004	...........
	14	3.875	4.83604E-002	4.85781E-002	5.72504E-004	...........
	15	4.13333	4.84499E-002	4.86442E-002	5.73771E-004	...........
	16	4.39167	4.85393E-002	4.84204E-002	5.74671E-004	...........
	17	4.65	4.85809E-002	4.85396E-002	5.70671E-004	...........
	18	4.90833	4.85715E-002	4.85068E-002	5.74871E-004	...........
	19	5.16667	4.85412E-002	4.84469E-002	5.74637E-004	...........
	20	5.425	4.85133E-002	4.84542E-002	5.70938E-004	...........
	21	5.68333	4.84890E-002	4.83681E-002	5.74604E-004	...........
	22	5.94167	4.84636E-002	4.84420E-002	5.67371E-004	...........
	23	6.2	4.84412E-002	4.85046E-002	5.69704E-004	...........
	24	6.45833	4.84336E-002	4.84655E-002	5.69004E-004	...........
	25	6.71667	4.84429E-002	4.84492E-002	5.70604E-004	...........
	26	6.975	4.84561E-002	4.84462E-002	5.66804E-004	...........
	27	7.23333	4.84619E-002	4.84957E-002	5.70504E-004	...........
	28	7.49167	4.84607E-002	4.83485E-002	5.66871E-004	...........
	29	7.75	4.84515E-002	4.83527E-002	5.71704E-004	...........
	30	8.00833	4.84304E-002	4.84103E-002	5.69371E-004	...........
	31	8.26667	4.84046E-002	4.83665E-002	5.66638E-004	...........
	32	8.525	4.83880E-002	4.84283E-002	5.68238E-004	...........
	33	8.78333	4.83850E-002	4.83905E-002	5.71104E-004	...........
	34	9.04167	4.83902E-002	4.83968E-002	5.69471E-004	...........
	35	9.3	4.83954E-002	4.83679E-002	5.70671E-004	...........
	36	9.5583	4.83938E-002	4.83038E-002	5.68571E-004	...........
	37	9.8167	4.83829E-002	4.84107E-002	5.70071E-004	...........
	38	10.075	4.83708E-002	4.84255E-002	5.67338E-004	...........
EOC	QUANT	0.0483708	Open Circuit (V)
PSTATMODEL	IQUANT	4	Pstat Model
PSTATSECTION	LABEL	REF600-11020	Pstat Section
PSTATSERIALNO	LABEL	11020	Pstat Serial Number
CTRLMODE	IQUANT	1	Control Mode
IESTAB	IQUANT	0	I/E Stability
CASPEED	IQUANT	1	Control Amp Speed
CONVENTION	IQUANT	1	Current Convention
ICHRANGE	IQUANT	2	Ich Range
ICHRANGEMODE	TOGGLE	F	Ich Auto Range
ICHOFFSETENABLE	TOGGLE	T	Ich Offset Enable
ICHOFFSET	QUANT	0	Ich Offset (V)
ICHFILTER	IQUANT	3	Ich Filter
VCHRANGE	IQUANT	2	Vch Range
VCHRANGEMODE	TOGGLE	F	Vch Auto Range
VCHOFFSETENABLE	TOGGLE	T	Vch Offset Enable
VCHOFFSET	QUANT	0	Vch Offset (V)
VCHFILTER	IQUANT	3	Vch Filter
ACHRANGE	IQUANT	2	Ach Range
ACHOFFSETENABLE	TOGGLE	F	Ach Offset Enable
ACHOFFSET	QUANT	0	Ach Offset (V)
ACHFILTER	IQUANT	3	Ach Filter
IERANGELOWERLIMIT	IQUANT	1	I/E Range Lower Limit
IERANGEMODE	TOGGLE	F	I/E AutoRange
IERANGE	IQUANT	7	I/E Range
POSFEEDENABLE	TOGGLE	F	Positive Feedback IR Comp
POSFEEDRESISTANCE	QUANT	0	Positive Feedback Resistance (ohm)
ACHSELECT	IQUANT	0	Ach Select
CABLEID	IQUANT	14	Cable ID
DCCALDATE	LABEL	1/27/2020	DC Calibration Date
ACCALDATE	LABEL	1/27/2020	AC Calibration Date
THERMOSELECT	IQUANT	1	Thermo Select
FRAMEWORKVERSION	QUANT	6.33	Framework Version
INSTRUMENTVERSION	LABEL	3.50	Instrument Version
ZCURVE	TABLE
	Pt	Time	Freq	Zreal	Zimag	Zsig	Zmod	Zphz	Idc	Vdc	IERange
	#	s	Hz	ohm	ohm	V	ohm	°	A	V	#
	0	1	1000078	2236.225	-1983.41	1	2989.083	-41.57128	-4.979514E-006	0.0511873	8
	1	1	794390.6	2635.651	-2017.502	1	3319.183	-37.43283	3.745596E-006	0.0496266	8
	2	2	630984.4	3053.988	-1983.91	1	3641.805	-33.00828	-4.677381E-006	0.0507582	8
	3	2	501234.4	3428.989	-1891.438	1	3916.057	-28.88122	3.013871E-006	0.0494781	8
	4	2	398109.4	3764.916	-1761.511	1	4156.623	-25.07373	-8.669115E-007	0.0498963	8
	5	3	316265.6	4046.627	-1581.077	1	4344.537	-21.34132	1.086166E-006	0.0496729	8
	6	3	251203.1	4279.73	-1421.447	1	4509.612	-18.37312	-5.299351E-007	0.0498463	8
	7	3	199546.9	4463.355	-1260.083	1	4637.817	-15.7653	5.597852E-007	0.0496555	8
	8	4	158578.1	4605.31	-1099.132	1	4734.657	-13.42346	3.158789E-006	0.0492917	8
	9	4	125953.1	4740.781	-925.9501	1	4830.361	-11.05165	3.445451E-007	0.0487962	7
	10	4	100078.1	4832.92	-822.1237	1	4902.347	-9.65412	4.46459E-008	0.0496936	7
	11	5	79453.13	4902.73	-741.5598	1	4958.496	-8.601046	6.626447E-008	0.0496817	7
	12	5	63140.62	4963.01	-683.2578	1	5009.822	-7.838638	6.636761E-008	0.0496811	7
	13	5	50203.12	5016.808	-644.8287	1	5058.079	-7.324278	-4.643995E-008	0.0499048	7
	14	5	39890.62	5065.377	-623.0266	1	5103.549	-7.011994	3.371532E-009	0.049748	7
	15	6	31640.63	5111.746	-622.5629	1	5149.518	-6.943892	-4.154083E-008	0.0498614	7
	16	6	25171.88	5158.856	-638.2623	1	5198.189	-7.052889	-4.595176E-009	0.0498352	7
	17	6	20015.62	5206.023	-672.7724	1	5249.314	-7.363502	-3.333659E-008	0.0498234	7
	18	7	15890.62	5255.96	-724.6302	1	5305.677	-7.849784	-3.321314E-008	0.0498205	7
	19	7	12609.37	5312.042	-802.0443	1	5372.25	-8.586011	-1.88643E-008	0.0498872	7
	20	7	10078.13	5366.04	-897.1814	1	5440.525	-9.491839	-4.784014E-008	0.0498938	7
	21	8	8015.625	5432.49	-1022.435	1	5527.868	-10.6588	-3.194577E-008	0.0498191	7
	22	8	6328.125	5506.542	-1183.517	1	5632.292	-12.13001	7.150737E-008	0.0496722	7
	23	8	5015.625	5589.366	-1381.901	1	5757.662	-13.88718	7.194808E-008	0.049676	7
	24	9	3984.375	5682.261	-1619.703	1	5908.598	-15.90997	-4.204404E-008	0.0498597	7
	25	9	3170.956	5785.845	-1913.204	1	6093.96	-18.29749	-1.809785E-008	0.0498003	7
	26	9	2527.573	5908.034	-2264.936	1	6327.306	-20.9751	-4.169107E-008	0.0498582	7
	27	10	1976.103	6063.271	-2732.394	1	6650.506	-24.25856	-1.792346E-008	0.0497917	7
	28	10	1577.524	6221.756	-3239.51	1	7014.604	-27.50485	-3.796196E-008	0.0498511	7
	29	10	1265.625	6421.022	-3869.824	1	7497.003	-31.07655	-3.364135E-009	0.0498324	7
	30	11	998.264	6661.268	-4668.917	1	8134.573	-35.02681	-4.638648E-008	0.0498934	7
	31	11	796.875	6937.373	-5593.879	1	8911.713	-38.88062	-1.918128E-008	0.0498803	7
	32	11	627.7902	7280.022	-6770.637	1	9941.84	-42.92374	-4.207716E-009	0.049923	6
	33	12	505.5147	7651.752	-8069.697	1	11120.67	-46.52282	-3.960506E-010	0.0496913	6
	34	12	397.9953	8125.821	-9808.05	1	12736.83	-50.35877	7.307493E-010	0.0498076	6
	35	12	315.5048	8678.288	-11870.27	1	14704.29	-53.82968	1.023098E-009	0.0498114	6
	36	13	252.4038	9306.177	-14270.69	1	17036.95	-56.8909	1.11522E-009	0.0498052	6
	37	13	198.6229	10119.14	-17421	1	20146.67	-59.84947	9.661802E-010	0.0498047	6
	38	13	158.3615	11055.37	-21059.13	1	23784.62	-62.30195	1.212836E-009	0.0498039	6
	39	14	125.558	12221.34	-25596.89	1	28364.8	-64.47766	4.913124E-010	0.0498047	6
	40	14	100.4464	13615.45	-30927.97	1	33792.31	-66.23942	1.425359E-009	0.0498007	6
	41	14	79.00281	15458.49	-37940.59	1	40968.93	-67.83208	3.980697E-010	0.0498001	6
	42	15	63.3446	17435.88	-45110.34	1	48362.72	-68.86767	5.106899E-010	0.0498002	6
	43	15	49.86702	20349.73	-55353.84	1	58975.92	-69.81506	8.047819E-012	0.0497955	6
	44	15	39.72458	23721.19	-67543.27	1	71587.62	-70.64874	3.900315E-010	0.0498008	6
	45	16	31.6723	28239.38	-81702.88	1	86445.48	-70.93305	8.668362E-010	0.0497966	6
	46	16	24.93351	33728.83	-99632.4	1	105186.7	-71.29736	2.966238E-010	0.0497964	6
	47	16	19.86229	40595.16	-120397.5	1	127057.2	-71.36712	-3.611359E-010	0.0497968	5
	48	16	15.83615	50051.84	-144222.2	1	152660.5	-70.86083	-7.600566E-010	0.0497923	5
	49	17	12.40079	62440.51	-177541.5	1	188201.5	-70.62347	1.729996E-010	0.0497914	5
	50	17	9.93114	76350.03	-212206.9	1	225524	-70.21175	7.417614E-011	0.0497884	5
	51	18	7.944915	95347	-252789.2	1	270172.9	-69.33453	-3.149899E-010	0.0497952	5
	52	18	6.317385	120895.4	-301370	1	324714.6	-68.14168	-2.404575E-010	0.04981	5
	53	19	5.008013	154158.1	-357978	1	389760.1	-66.70157	-7.38807E-011	0.0497911	5
	54	20	3.945707	196476	-423461.4	1	466821.5	-65.10983	-1.763813E-011	0.049782	5
	55	22	3.158693	246050.7	-491267.8	1	549440.6	-63.39607	1.872039E-010	0.0497948	5
	56	23	2.504006	308489.5	-568213.4	1	646554.2	-61.50196	8.3761E-011	0.0497943	5
	57	25	1.998082	379685.7	-650081.6	1	752839.5	-59.71257	-2.815484E-011	0.0497557	5
	58	26	1.584686	463220.2	-737408.7	1	870829.8	-57.86407	5.304005E-011	0.0497937	5
	59	28	1.266892	557456.8	-828716.1	1	998763	-56.07226	1.133594E-010	0.049821	5
	60	31	0.999041	667908.9	-937400.6	1	1151009	-54.52968	1.160397E-010	0.049769	4
