EXPLAIN
TAG	EISPOT
TITLE	LABEL	Potentiostatic EIS	Test &Identifier
DATE	LABEL	1/14/2020	Date
TIME	LABEL	18:31:38	Time
NOTES	NOTES	5	&Notes...
	
	
	
	
	
PSTAT	PSTAT	REF600-11020	Potentiostat
VDC	POTEN	0.00000E+000	T	DC &Voltage (V)
FREQINIT	QUANT	1.00000E+006	Initial Fre&q. (Hz)
FREQFINAL	QUANT	1.00000E+000	Final Fre&q. (Hz)
PTSPERDEC	QUANT	1.00000E+001	Points/&decade
VAC	QUANT	2.50000E+001	AC &Voltage (mV rms)
AREA	QUANT	1.00000E-001	&Area (cm^2)
CONDIT	TWOPARAM	T	5.00000E+000	0.00000E+000	Conditionin&g	Time(s)	E(V)
DELAY	TWOPARAM	T	5.00000E+000	0.00000E+000	Init. De&lay	Time(s)	Stab.(mV/s)
SPEED	SELECTOR	0	&Optimize for:
ZGUESS	QUANT	5.00000E+002	E&stimated Z (ohms)
OCVCURVE	TABLE	19
	Pt	T	Vf	Vm	Ach	Over
	#	s	V vs. Ref.	V	V	bits
	0	0.258333	1.10847E-002	1.10847E-002	6.56146E-004	...........
	1	0.516667	1.10851E-002	1.11070E-002	6.53280E-004	...........
	2	0.775	1.10885E-002	1.11677E-002	6.53046E-004	...........
	3	1.03333	1.11005E-002	1.12256E-002	6.50146E-004	...........
	4	1.29167	1.11270E-002	1.12881E-002	6.54246E-004	...........
	5	1.55	1.11698E-002	1.13880E-002	6.52680E-004	...........
	6	1.80833	1.12276E-002	1.14788E-002	6.59646E-004	...........
	7	2.06667	1.13020E-002	1.17230E-002	6.53346E-004	...........
	8	2.325	1.13983E-002	1.17514E-002	6.52846E-004	...........
	9	2.58333	1.15143E-002	1.18222E-002	6.48813E-004	...........
	10	2.84167	1.16309E-002	1.18401E-002	6.56879E-004	...........
	11	3.1	1.17281E-002	1.19467E-002	6.54146E-004	...........
	12	3.35833	1.18039E-002	1.20337E-002	6.55146E-004	...........
	13	3.61667	1.18715E-002	1.20824E-002	6.51480E-004	...........
	14	3.875	1.19418E-002	1.22027E-002	6.53246E-004	...........
	15	4.13333	1.20186E-002	1.23312E-002	6.57413E-004	...........
	16	4.39167	1.21061E-002	1.24658E-002	6.55879E-004	...........
	17	4.65	1.22080E-002	1.25474E-002	6.56213E-004	...........
	18	4.90833	1.23199E-002	1.26390E-002	6.53346E-004	...........
EOC	QUANT	0.0123199	Open Circuit (V)
PSTATMODEL	IQUANT	4	Pstat Model
PSTATSECTION	LABEL	REF600-11020	Pstat Section
PSTATSERIALNO	LABEL	11020	Pstat Serial Number
CTRLMODE	IQUANT	1	Control Mode
IESTAB	IQUANT	0	I/E Stability
CASPEED	IQUANT	1	Control Amp Speed
CONVENTION	IQUANT	1	Current Convention
ICHRANGE	IQUANT	2	Ich Range
ICHRANGEMODE	TOGGLE	F	Ich Auto Range
ICHOFFSETENABLE	TOGGLE	T	Ich Offset Enable
ICHOFFSET	QUANT	0	Ich Offset (V)
ICHFILTER	IQUANT	3	Ich Filter
VCHRANGE	IQUANT	2	Vch Range
VCHRANGEMODE	TOGGLE	F	Vch Auto Range
VCHOFFSETENABLE	TOGGLE	T	Vch Offset Enable
VCHOFFSET	QUANT	0	Vch Offset (V)
VCHFILTER	IQUANT	3	Vch Filter
ACHRANGE	IQUANT	2	Ach Range
ACHOFFSETENABLE	TOGGLE	F	Ach Offset Enable
ACHOFFSET	QUANT	0	Ach Offset (V)
ACHFILTER	IQUANT	3	Ach Filter
IERANGELOWERLIMIT	IQUANT	1	I/E Range Lower Limit
IERANGEMODE	TOGGLE	F	I/E AutoRange
IERANGE	IQUANT	7	I/E Range
POSFEEDENABLE	TOGGLE	F	Positive Feedback IR Comp
POSFEEDRESISTANCE	QUANT	0	Positive Feedback Resistance (ohm)
ACHSELECT	IQUANT	0	Ach Select
CABLEID	IQUANT	14	Cable ID
DCCALDATE	LABEL	12/22/2019	DC Calibration Date
ACCALDATE	LABEL	12/22/2019	AC Calibration Date
THERMOSELECT	IQUANT	1	Thermo Select
FRAMEWORKVERSION	QUANT	6.33	Framework Version
INSTRUMENTVERSION	LABEL	3.50	Instrument Version
ZCURVE	TABLE
	Pt	Time	Freq	Zreal	Zimag	Zsig	Zmod	Zphz	Idc	Vdc	IERange
	#	s	Hz	ohm	ohm	V	ohm	°	A	V	#
	0	1	1000078	2101.354	-2596.525	1	3340.304	-51.01693	-1.615891E-006	0.0143536	8
	1	1	794390.6	2549.223	-2880.198	1	3846.307	-48.4884	6.368691E-007	0.0140902	8
	2	2	630984.4	3080.669	-3089.16	1	4362.732	-45.07885	-1.639146E-006	0.0142662	8
	3	2	501234.4	3624.871	-3296.559	1	4899.693	-42.28425	-1.127338E-006	0.0141587	8
	4	2	398109.4	4184.358	-3415.319	1	5401.228	-39.22169	3.200214E-008	0.0139151	8
	5	3	316265.6	4802.616	-3499.91	1	5942.6	-36.08272	1.634887E-006	0.0135431	8
	6	3	251203.1	5414.201	-3545.753	1	6471.935	-33.22073	6.973059E-007	0.0137303	8
	7	3	199546.9	5971.67	-3564.905	1	6954.811	-30.83591	2.244218E-008	0.0138311	8
	8	4	158578.1	6574.295	-3538.302	1	7465.985	-28.28925	3.284087E-007	0.0137112	8
	9	4	125953.1	7108.557	-3473.354	1	7911.749	-26.04087	-3.92481E-007	0.0149767	7
	10	4	100078.1	7605.195	-3433.437	1	8344.309	-24.29725	-3.877095E-008	0.0139049	7
	11	5	79453.13	8089.018	-3394.361	1	8772.337	-22.76418	-2.253358E-008	0.0138391	7
	12	5	63140.62	8558.864	-3379.835	1	9202.034	-21.54871	-3.891676E-008	0.0138953	7
	13	5	50203.12	9009.874	-3384.717	1	9624.66	-20.58957	-3.8863E-008	0.0138931	7
	14	6	39890.62	9456.323	-3405.505	1	10050.85	-19.80547	-2.181067E-008	0.0138308	7
	15	6	31640.63	9892.12	-3458.486	1	10479.28	-19.27065	-2.660773E-008	0.0138545	7
	16	6	25171.88	10326.94	-3542.45	1	10917.63	-18.9335	3.213074E-008	0.0137373	7
	17	7	20015.62	10777.44	-3639.742	1	11375.45	-18.66079	-1.853726E-008	0.0138249	7
	18	7	15890.62	11217.62	-3825.018	1	11851.82	-18.82851	-3.81865E-008	0.0138839	7
	19	7	12609.37	11720.5	-3979.279	1	12377.59	-18.75309	7.428601E-009	0.0137882	6
	20	8	10078.13	12190.9	-4224.177	1	12902	-19.11133	2.410931E-009	0.0138889	6
	21	8	8015.625	12704.64	-4521.124	1	13485.12	-19.58881	-2.290291E-009	0.0138125	6
	22	8	6328.125	13248.67	-4909.78	1	14129.16	-20.33403	-3.760796E-009	0.013932	6
	23	8	5015.625	13832.38	-5351.995	1	14831.68	-21.15234	-6.759917E-009	0.013872	6
	24	9	3984.375	14456.55	-5872.95	1	15603.95	-22.10937	7.685352E-009	0.0137916	6
	25	9	3170.956	15126.29	-6459.101	1	16447.64	-23.12304	-3.563418E-009	0.0138284	6
	26	9	2527.573	15848.47	-7147.591	1	17385.69	-24.27516	-6.55474E-009	0.0138839	6
	27	10	1976.103	16727.99	-8018.56	1	18550.55	-25.61073	-3.73829E-009	0.0138227	6
	28	10	1577.524	17532.14	-9002.706	1	19708.49	-27.18037	-1.766164E-009	0.0137559	6
	29	10	1265.625	18545.73	-10009.45	1	21074.46	-28.3565	1.562386E-009	0.0138583	6
	30	11	998.264	19694.69	-11322.13	1	22717.21	-29.89383	1.921218E-009	0.0138719	6
	31	11	796.875	20925.93	-12772.92	1	24516.16	-31.39936	-5.287548E-009	0.0138901	6
	32	11	627.7902	22386.68	-14536.55	1	26692.23	-32.99724	-8.062087E-010	0.013893	6
	33	12	505.5147	23899.07	-16369.93	1	28967.92	-34.40963	-3.991289E-009	0.0139226	6
	34	12	397.9953	25779.72	-18690.95	1	31842.51	-35.94306	4.058257E-010	0.0138291	6
	35	12	315.5048	27859.7	-21286.61	1	35061.13	-37.38216	4.375654E-010	0.013829	6
	36	12	252.4038	30105.27	-24128.72	1	38581.37	-38.71143	8.296894E-010	0.0138252	6
	37	13	198.6229	32831.88	-27625.91	1	42908.31	-40.07845	6.105252E-010	0.0138279	6
	38	13	158.3615	35725.01	-31403.97	1	47565.59	-41.31699	8.292789E-010	0.0138253	6
	39	13	125.558	39006.45	-35842.21	1	52973.27	-42.57925	5.24435E-010	0.0138286	6
	40	14	100.4464	42451.04	-40748.65	1	58843.38	-43.8278	3.245369E-010	0.0138271	6
	41	14	79.00281	46481.12	-46899.67	1	66030.85	-45.25681	7.813298E-010	0.0138196	6
	42	14	63.3446	50327.16	-53233.42	1	73257.22	-46.60749	6.89138E-010	0.0138227	6
	43	15	49.86702	55413.26	-61875.8	1	83061.69	-48.15377	4.187598E-010	0.0138196	6
	44	15	39.72458	60411.43	-72004.68	1	93990.51	-50.00358	6.013979E-010	0.0138234	6
	45	15	31.6723	66034.81	-83823.67	1	106709.9	-51.76958	2.273533E-010	0.0138188	5
	46	16	24.93351	72610.76	-99196.1	1	122931.6	-53.79616	5.793046E-011	0.0138156	5
	47	16	19.86229	79962.24	-117036.7	1	141744.7	-55.65819	7.059046E-010	0.013823	5
	48	16	15.83615	89656.47	-137658.3	1	164280.5	-56.92392	-1.50285E-009	0.013814	5
	49	17	12.40079	100751	-167003.2	1	195040.6	-58.89792	-5.277612E-010	0.0138192	5
	50	17	9.93114	114004.5	-196653.6	1	227309.6	-59.89818	-5.917595E-010	0.0138075	5
	51	17	7.944915	129988.5	-234807.1	1	268386.6	-61.03123	5.91607E-010	0.0138122	5
	52	18	6.317385	151748.5	-276326.5	1	315252.2	-61.22601	-1.535758E-010	0.0138207	5
	53	18	5.008013	178754.5	-327527.9	1	373132.2	-61.37567	4.337148E-011	0.0138249	5
	54	19	3.945707	213092.2	-388059	1	442716.7	-61.22779	-2.044064E-010	0.0138142	5
	55	21	3.158693	251819.4	-451903.3	1	517329.3	-60.87162	-1.75636E-010	0.0138002	5
	56	22	2.504006	299852.9	-528080.8	1	607273.5	-60.41138	-3.526487E-012	0.0138111	5
	57	23	1.998082	351435.7	-611098.8	1	704945.9	-60.0973	-6.799927E-011	0.0138199	5
	58	25	1.584686	416104.1	-708001.5	1	821223.9	-59.55655	-5.240064E-011	0.0137777	5
	59	27	1.266892	484449.3	-818404.2	1	951040	-59.37685	-7.734113E-011	0.0137739	5
	60	29	0.999041	566744.8	-955626	1	1111045	-59.32946	-1.395625E-010	0.0138272	4
