EXPLAIN
TAG	EISPOT
TITLE	LABEL	Potentiostatic EIS	Test &Identifier
DATE	LABEL	6/1/2020	Date
TIME	LABEL	13:09:40	Time
NOTES	NOTES	1	&Notes...
	
PSTAT	PSTAT	REF600-11020	Potentiostat
VDC	POTEN	0.00000E+000	T	DC &Voltage (V)
FREQINIT	QUANT	1.00000E+006	Initial Fre&q. (Hz)
FREQFINAL	QUANT	1.00000E+000	Final Fre&q. (Hz)
PTSPERDEC	QUANT	1.00000E+001	Points/&decade
VAC	QUANT	2.50000E+001	AC &Voltage (mV rms)
AREA	QUANT	4.00000E-004	&Area (cm^2)
CONDIT	TWOPARAM	F	5.00000E+000	0.00000E+000	Conditionin&g	Time(s)	E(V)
DELAY	TWOPARAM	T	3.00000E+000	0.00000E+000	Init. De&lay	Time(s)	Stab.(mV/s)
SPEED	SELECTOR	0	&Optimize for:
ZGUESS	QUANT	1.00000E+003	E&stimated Z (ohms)
OCVCURVE	TABLE	12
	Pt	T	Vf	Vm	Ach	Over
	#	s	V vs. Ref.	V	V	bits
	0	0.258333	4.57221E-002	4.57221E-002	6.47896E-004	...........
	1	0.516667	4.57215E-002	4.56917E-002	6.48096E-004	...........
	2	0.775	4.57179E-002	4.56614E-002	6.53662E-004	...........
	3	1.03333	4.57076E-002	4.56277E-002	6.47529E-004	...........
	4	1.29167	4.56886E-002	4.56014E-002	6.53662E-004	...........
	5	1.55	4.56628E-002	4.55732E-002	6.50462E-004	...........
	6	1.80833	4.56338E-002	4.55418E-002	6.53895E-004	...........
	7	2.06667	4.56041E-002	4.55174E-002	6.51962E-004	...........
	8	2.325	4.55749E-002	4.54897E-002	6.49729E-004	...........
	9	2.58333	4.55465E-002	4.54610E-002	6.52029E-004	...........
	10	2.84167	4.55188E-002	4.54372E-002	6.50829E-004	...........
	11	3.1	4.54917E-002	4.54166E-002	6.49862E-004	...........
EOC	QUANT	0.0454917	Open Circuit (V)
PSTATMODEL	IQUANT	4	Pstat Model
PSTATSECTION	LABEL	REF600-11020	Pstat Section
PSTATSERIALNO	LABEL	11020	Pstat Serial Number
CTRLMODE	IQUANT	1	Control Mode
IESTAB	IQUANT	0	I/E Stability
CASPEED	IQUANT	1	Control Amp Speed
CONVENTION	IQUANT	1	Current Convention
ICHRANGE	IQUANT	2	Ich Range
ICHRANGEMODE	TOGGLE	F	Ich Auto Range
ICHOFFSETENABLE	TOGGLE	T	Ich Offset Enable
ICHOFFSET	QUANT	0	Ich Offset (V)
ICHFILTER	IQUANT	3	Ich Filter
VCHRANGE	IQUANT	2	Vch Range
VCHRANGEMODE	TOGGLE	F	Vch Auto Range
VCHOFFSETENABLE	TOGGLE	T	Vch Offset Enable
VCHOFFSET	QUANT	0	Vch Offset (V)
VCHFILTER	IQUANT	3	Vch Filter
ACHRANGE	IQUANT	2	Ach Range
ACHOFFSETENABLE	TOGGLE	F	Ach Offset Enable
ACHOFFSET	QUANT	0	Ach Offset (V)
ACHFILTER	IQUANT	3	Ach Filter
IERANGELOWERLIMIT	IQUANT	1	I/E Range Lower Limit
IERANGEMODE	TOGGLE	F	I/E AutoRange
IERANGE	IQUANT	7	I/E Range
POSFEEDENABLE	TOGGLE	F	Positive Feedback IR Comp
POSFEEDRESISTANCE	QUANT	0	Positive Feedback Resistance (ohm)
ACHSELECT	IQUANT	0	Ach Select
CABLEID	IQUANT	14	Cable ID
DCCALDATE	LABEL	2/27/2020	DC Calibration Date
ACCALDATE	LABEL	2/27/2020	AC Calibration Date
THERMOSELECT	IQUANT	1	Thermo Select
FRAMEWORKVERSION	QUANT	6.33	Framework Version
INSTRUMENTVERSION	LABEL	3.50	Instrument Version
ZCURVE	TABLE
	Pt	Time	Freq	Zreal	Zimag	Zsig	Zmod	Zphz	Idc	Vdc	IERange
	#	s	Hz	ohm	ohm	V	ohm	°	A	V	#
	0	1	1000078	1943.961	-2084.754	1	2850.47	-47.00152	2.600403E-008	0.0478458	8
	1	2	794390.6	2331.572	-2239.338	1	3232.78	-43.84401	1.065743E-007	0.0474889	8
	2	2	630984.4	2756.559	-2355.158	1	3625.656	-40.51002	3.32707E-008	0.0473843	8
	3	2	501234.4	3208.448	-2416.4	1	4016.607	-36.98474	5.780136E-008	0.0472963	8
	4	3	398109.4	3671.31	-2434.839	1	4405.333	-33.55262	4.922493E-008	0.0472393	8
	5	3	316265.6	4125.823	-2387.611	1	4766.875	-30.05794	5.557422E-008	0.047199	8
	6	3	251203.1	4556.728	-2278.486	1	5094.631	-26.56628	5.606221E-008	0.0472003	8
	7	4	199546.9	4953.277	-2134.479	1	5393.603	-23.3123	4.561324E-008	0.0471931	8
	8	4	158578.1	5285.264	-1962.234	1	5637.764	-20.3682	5.587593E-008	0.0472058	8
	9	4	125953.1	5615.202	-1720.423	1	5872.848	-17.03437	3.02025E-009	0.0471322	7
	10	5	100078.1	5824.511	-1549.468	1	6027.087	-14.89711	7.090103E-010	0.0471155	7
	11	5	79453.13	6012.873	-1405.586	1	6174.975	-13.15736	1.168849E-009	0.04711	7
	12	5	63140.62	6167.282	-1280.962	1	6298.907	-11.73366	1.162759E-009	0.0471061	7
	13	6	50203.12	6297.216	-1181.803	1	6407.152	-10.62911	2.354811E-009	0.0471099	7
	14	6	39890.62	6408.893	-1107.114	1	6503.814	-9.80092	8.933645E-010	0.0471053	7
	15	6	31640.63	6511.893	-1060.836	1	6597.736	-9.252631	2.482794E-009	0.0471108	7
	16	7	25171.88	6605.946	-1038.772	1	6687.12	-8.936472	1.827243E-009	0.047101	7
	17	7	20015.62	6699.068	-1044.199	1	6779.96	-8.85953	2.32902E-009	0.0471063	7
	18	7	15890.62	6793.749	-1073.785	1	6878.083	-8.981581	3.117577E-009	0.0471131	7
	19	7	12609.37	6889.237	-1129.053	1	6981.143	-9.307264	1.797075E-009	0.0471108	7
	20	8	10078.13	6985.674	-1207.583	1	7089.28	-9.80755	1.963823E-009	0.0471058	7
	21	8	8015.625	7093.479	-1317.967	1	7214.878	-10.52552	2.102744E-009	0.0471034	7
	22	8	6328.125	7213.454	-1463.763	1	7360.47	-11.47078	1.500771E-009	0.0470952	7
	23	9	5015.625	7341.443	-1644.776	1	7523.435	-12.62801	1.980686E-009	0.0470993	7
	24	9	3984.375	7484.998	-1868.706	1	7714.743	-14.01791	1.847399E-009	0.0470941	7
	25	9	3170.956	7642.111	-2136.574	1	7935.163	-15.61988	2.6658E-009	0.0470999	7
	26	10	2527.573	7816.397	-2457.398	1	8193.587	-17.45263	2.350612E-009	0.047099	7
	27	10	1976.103	8029.721	-2878.818	1	8530.182	-19.72379	2.930206E-009	0.0470972	7
	28	10	1577.524	8253.003	-3343.559	1	8904.574	-22.05446	2.675794E-009	0.0470889	7
	29	11	1265.625	8501.137	-3876.163	1	9343.124	-24.511	-3.005239E-010	0.0471526	6
	30	11	998.264	8803.194	-4580.286	1	9923.47	-27.48788	-2.905316E-011	0.0471487	6
	31	11	796.875	9122.457	-5384.274	1	10592.91	-30.55004	-4.397616E-010	0.0471449	6
	32	12	627.7902	9509.58	-6409.179	1	11467.77	-33.9788	1.746179E-010	0.0471484	6
	33	12	505.5147	9914.23	-7537.396	1	12454.09	-37.24429	-5.955674E-010	0.047143	6
	34	12	397.9953	10418.03	-9038.271	1	13792.24	-40.94361	5.114541E-010	0.0471618	6
	35	13	315.5048	10991.26	-10820.42	1	15423.66	-44.55125	3.986628E-010	0.047161	6
	36	13	252.4038	11635.29	-12900.32	1	17372.34	-47.95148	3.840575E-010	0.0471564	6
	37	13	198.6229	12458.63	-15624.58	1	19983.62	-51.43208	4.233295E-010	0.0471566	6
	38	14	158.3615	13401.69	-18767.79	1	23061.55	-54.47015	3.272027E-010	0.0471551	6
	39	14	125.558	14586.14	-22683.15	1	26968.14	-57.25741	3.705117E-010	0.0471541	6
	40	14	100.4464	15998.85	-27236	1	31587.38	-59.56936	2.033291E-010	0.0471538	6
	41	15	79.00281	17907.46	-33167.46	1	37692.94	-61.63493	3.662542E-010	0.0471501	6
	42	15	63.3446	20119.64	-39736.76	1	44539.98	-63.14585	3.405669E-010	0.0471507	6
	43	15	49.86702	23138.8	-48258.71	1	53519.23	-64.38349	1.844433E-010	0.0471487	6
	44	16	39.72458	26768.66	-57954.97	1	63838.39	-65.20839	2.692141E-010	0.0471533	6
	45	16	31.6723	31284.88	-69415.88	1	76140.05	-65.7395	1.61595E-010	0.0471511	6
	46	16	24.93351	37323.89	-83836.59	1	91769.52	-66.00146	1.940085E-010	0.0471518	6
	47	17	19.86229	44504.08	-100058.7	1	109509.6	-66.02148	-8.856055E-010	0.0471598	5
	48	17	15.83615	53568.69	-119044	1	130541.5	-65.77271	9.118808E-010	0.0471549	5
	49	17	12.40079	66183.28	-143117.5	1	157679.5	-65.18227	-8.442704E-012	0.0471571	5
	50	17	9.93114	80673.41	-168504.7	1	186820.9	-64.41674	2.871279E-010	0.0471531	5
	51	18	7.944915	98756.3	-197124.4	1	220478.7	-63.38983	1.207248E-009	0.0471594	5
	52	18	6.317385	122229	-230686.9	1	261067.8	-62.08321	-1.78297E-010	0.0471714	5
	53	19	5.008013	151478.1	-268192	1	308013.9	-60.54171	-2.232687E-010	0.0471523	5
	54	20	3.945707	187383.1	-309271.8	1	361609.5	-58.78896	3.659484E-010	0.0471605	5
	55	21	3.158693	227338	-350749.3	1	417980.4	-57.05072	-1.176417E-010	0.0471602	5
	56	22	2.504006	273898.9	-395969.3	1	481468.9	-55.32771	1.244606E-011	0.047151	5
	57	23	1.998082	324896.5	-442579.1	1	549030.1	-53.71767	2.957493E-010	0.0471874	5
	58	25	1.584686	379988.2	-494165.8	1	623370.6	-52.44156	2.167979E-010	0.0471645	5
	59	27	1.266892	438866.2	-547506.9	1	701688.9	-51.28531	1.386395E-010	0.0471131	5
	60	29	0.999041	506378.2	-612815.1	1	794959.8	-50.43258	7.622243E-011	0.0470959	5
