EXPLAIN
TAG	EISPOT
TITLE	LABEL	Potentiostatic EIS	Test &Identifier
DATE	LABEL	3/9/2020	Date
TIME	LABEL	20:40:03	Time
NOTES	NOTES	1	&Notes...
	
PSTAT	PSTAT	REF600-11020	Potentiostat
VDC	POTEN	0.00000E+000	T	DC &Voltage (V)
FREQINIT	QUANT	1.00000E+006	Initial Fre&q. (Hz)
FREQFINAL	QUANT	1.00000E+000	Final Fre&q. (Hz)
PTSPERDEC	QUANT	1.00000E+001	Points/&decade
VAC	QUANT	2.50000E+001	AC &Voltage (mV rms)
AREA	QUANT	4.00000E-005	&Area (cm^2)
CONDIT	TWOPARAM	F	5.00000E+000	0.00000E+000	Conditionin&g	Time(s)	E(V)
DELAY	TWOPARAM	T	3.00000E+000	0.00000E+000	Init. De&lay	Time(s)	Stab.(mV/s)
SPEED	SELECTOR	0	&Optimize for:
ZGUESS	QUANT	1.00000E+003	E&stimated Z (ohms)
OCVCURVE	TABLE	12
	Pt	T	Vf	Vm	Ach	Over
	#	s	V vs. Ref.	V	V	bits
	0	0.258333	3.43731E-002	3.43731E-002	5.74930E-004	...........
	1	0.516667	3.43721E-002	3.43232E-002	5.77363E-004	...........
	2	0.775	3.43662E-002	3.42753E-002	5.75797E-004	...........
	3	1.03333	3.43497E-002	3.42323E-002	5.74597E-004	...........
	4	1.29167	3.43202E-002	3.41927E-002	5.71997E-004	...........
	5	1.55	3.42816E-002	3.41523E-002	5.71197E-004	...........
	6	1.80833	3.42394E-002	3.41132E-002	5.75263E-004	...........
	7	2.06667	3.41972E-002	3.40749E-002	5.74530E-004	...........
	8	2.325	3.41564E-002	3.40383E-002	5.76263E-004	...........
	9	2.58333	3.41170E-002	3.40013E-002	5.73997E-004	...........
	10	2.84167	3.40787E-002	3.39683E-002	5.75163E-004	...........
	11	3.1	3.40417E-002	3.39346E-002	5.74430E-004	...........
EOC	QUANT	0.0340417	Open Circuit (V)
PSTATMODEL	IQUANT	4	Pstat Model
PSTATSECTION	LABEL	REF600-11020	Pstat Section
PSTATSERIALNO	LABEL	11020	Pstat Serial Number
CTRLMODE	IQUANT	1	Control Mode
IESTAB	IQUANT	0	I/E Stability
CASPEED	IQUANT	1	Control Amp Speed
CONVENTION	IQUANT	1	Current Convention
ICHRANGE	IQUANT	2	Ich Range
ICHRANGEMODE	TOGGLE	F	Ich Auto Range
ICHOFFSETENABLE	TOGGLE	T	Ich Offset Enable
ICHOFFSET	QUANT	0	Ich Offset (V)
ICHFILTER	IQUANT	3	Ich Filter
VCHRANGE	IQUANT	2	Vch Range
VCHRANGEMODE	TOGGLE	F	Vch Auto Range
VCHOFFSETENABLE	TOGGLE	T	Vch Offset Enable
VCHOFFSET	QUANT	0	Vch Offset (V)
VCHFILTER	IQUANT	3	Vch Filter
ACHRANGE	IQUANT	2	Ach Range
ACHOFFSETENABLE	TOGGLE	F	Ach Offset Enable
ACHOFFSET	QUANT	0	Ach Offset (V)
ACHFILTER	IQUANT	3	Ach Filter
IERANGELOWERLIMIT	IQUANT	1	I/E Range Lower Limit
IERANGEMODE	TOGGLE	F	I/E AutoRange
IERANGE	IQUANT	7	I/E Range
POSFEEDENABLE	TOGGLE	F	Positive Feedback IR Comp
POSFEEDRESISTANCE	QUANT	0	Positive Feedback Resistance (ohm)
ACHSELECT	IQUANT	0	Ach Select
CABLEID	IQUANT	14	Cable ID
DCCALDATE	LABEL	2/27/2020	DC Calibration Date
ACCALDATE	LABEL	2/27/2020	AC Calibration Date
THERMOSELECT	IQUANT	1	Thermo Select
FRAMEWORKVERSION	QUANT	6.33	Framework Version
INSTRUMENTVERSION	LABEL	3.50	Instrument Version
ZCURVE	TABLE
	Pt	Time	Freq	Zreal	Zimag	Zsig	Zmod	Zphz	Idc	Vdc	IERange
	#	s	Hz	ohm	ohm	V	ohm	°	A	V	#
	0	1	1000078	1837.538	-2004.897	1	2719.588	-47.49396	1.835386E-008	0.0362806	8
	1	2	794390.6	2216.037	-2165.547	1	3098.454	-44.33979	2.012055E-008	0.0359865	8
	2	2	630984.4	2639.635	-2287.696	1	3493.025	-40.91453	3.620944E-008	0.0358047	8
	3	2	501234.4	3091.519	-2344.416	1	3879.919	-37.17442	4.914292E-008	0.0357256	8
	4	3	398109.4	3558.304	-2339.334	1	4258.405	-33.3221	5.157209E-008	0.0356474	8
	5	3	316265.6	4004.287	-2269.975	1	4602.944	-29.5483	4.406094E-008	0.0356256	8
	6	3	251203.1	4413.58	-2142.382	1	4906.066	-25.89226	4.656461E-008	0.0356262	8
	7	3	199546.9	4771.456	-1977.929	1	5165.171	-22.51565	4.175988E-008	0.035622	8
	8	4	158578.1	5074.621	-1792.367	1	5381.854	-19.45333	7.172622E-008	0.0355864	8
	9	4	125953.1	5385.932	-1515.185	1	5595.002	-15.7125	6.579273E-010	0.035552	7
	10	4	100078.1	5563.051	-1352.8	1	5725.172	-13.66766	2.995846E-010	0.0355445	7
	11	5	79453.13	5725.649	-1216.751	1	5853.507	-11.99738	1.0247E-009	0.0355456	7
	12	5	63140.62	5855.351	-1094.885	1	5956.836	-10.59135	7.262332E-010	0.0355359	7
	13	5	50203.12	5962.879	-993.576	1	6045.091	-9.460105	8.849216E-010	0.0355307	7
	14	6	39890.62	6055.039	-915.7644	1	6123.897	-8.600239	1.701117E-009	0.0355407	7
	15	6	31640.63	6135.144	-859.6223	1	6195.074	-7.976042	9.439832E-010	0.0355344	7
	16	6	25171.88	6206.404	-826.6426	1	6261.213	-7.58668	4.404972E-010	0.0355334	7
	17	7	20015.62	6274.876	-815.9564	1	6327.706	-7.408909	1.909138E-009	0.0355399	7
	18	7	15890.62	6339.294	-826.4376	1	6392.938	-7.427614	1.042609E-009	0.0355268	7
	19	7	12609.37	6403.556	-860.376	1	6461.097	-7.652381	3.84866E-010	0.0355254	7
	20	8	10078.13	6467.731	-916.1149	1	6532.29	-8.06197	1.357178E-009	0.0355328	7
	21	8	8015.625	6537.018	-999.026	1	6612.916	-8.689052	1.635973E-009	0.035535	7
	22	8	6328.125	6610.891	-1113.895	1	6704.076	-9.56415	1.493921E-009	0.0355348	7
	23	9	5015.625	6690.887	-1260.315	1	6808.55	-10.66741	1.081514E-009	0.0355272	7
	24	9	3984.375	6777.324	-1447.478	1	6930.174	-12.05591	2.355437E-009	0.0355314	7
	25	9	3170.956	6869.952	-1677.096	1	7071.696	-13.71875	1.312017E-009	0.0355325	7
	26	10	2527.573	6974.514	-1959.028	1	7244.421	-15.68919	2.223697E-009	0.0355269	7
	27	10	1976.103	7102.279	-2338.508	1	7477.365	-18.22473	1.327015E-009	0.0355282	7
	28	10	1577.524	7236.971	-2766.85	1	7747.852	-20.92294	2.112597E-009	0.0355267	7
	29	10	1265.625	7385.318	-3274.677	1	8078.764	-23.91268	2.352618E-009	0.035525	7
	30	11	998.264	7572.984	-3942.708	1	8537.858	-27.50275	2.108503E-009	0.0355304	7
	31	11	796.875	7776.581	-4715.231	1	9094.428	-31.23	1.564697E-009	0.0355262	7
	32	11	627.7902	8033.791	-5715.843	1	9859.65	-35.43091	-3.375997E-010	0.0355802	6
	33	12	505.5147	8303.153	-6834.595	1	10754.26	-39.4589	-4.649251E-010	0.0355768	6
	34	12	397.9953	8640.954	-8344.862	1	12012.61	-44.00134	5.153122E-010	0.0355876	6
	35	12	315.5048	9033.623	-10156.21	1	13592.46	-48.34793	5.486874E-010	0.0355888	6
	36	13	252.4038	9487.387	-12292.71	1	15528.08	-52.33942	4.629744E-010	0.035587	6
	37	13	198.6229	10080.87	-15117.33	1	18170.23	-56.30299	4.448116E-010	0.0355861	6
	38	13	158.3615	10779.18	-18409.18	1	21332.81	-59.64962	3.249623E-010	0.0355872	6
	39	14	125.558	11675.62	-22549.54	1	25392.94	-62.62594	3.659804E-010	0.0355882	6
	40	14	100.4464	12772.43	-27414.54	1	30243.87	-65.01919	3.10483E-010	0.0355888	6
	41	14	79.00281	14291.75	-33829.93	1	36724.9	-67.09795	3.685984E-010	0.0355846	6
	42	15	63.3446	16103.72	-41029.09	1	44076.25	-68.57023	3.833865E-010	0.0355831	6
	43	15	49.86702	18660.75	-50509.95	1	53846.81	-69.7234	2.594505E-010	0.035584	6
	44	15	39.72458	21859.85	-61448.32	1	65220.77	-70.4173	2.983224E-010	0.0355865	6
	45	16	31.6723	26023.2	-74541.84	1	78953.74	-70.75546	4.468753E-010	0.0355823	6
	46	16	24.93351	31787.18	-91163.35	1	96546.3	-70.77717	-9.199621E-011	0.0355837	6
	47	16	19.86229	39026.39	-109981.4	1	116700.3	-70.46301	-7.872417E-010	0.035586	5
	48	17	15.83615	48388.27	-132138.4	1	140719.5	-69.88758	2.398207E-010	0.0355844	5
	49	17	12.40079	61683.46	-160383.8	1	171836.6	-68.9633	-6.213825E-010	0.0355904	5
	50	17	9.93114	77025.14	-190048.6	1	205064.2	-67.93769	-5.09621E-010	0.0355837	5
	51	18	7.944915	96790.4	-223829.3	1	243860.5	-66.61491	7.123232E-010	0.0355858	5
	52	18	6.317385	121980.4	-263686.1	1	290533.3	-65.17488	-1.431062E-010	0.0356022	5
	53	19	5.008013	153736.6	-308738.9	1	344898.1	-63.52898	-3.318756E-010	0.0355808	5
	54	20	3.945707	194040.8	-358903.5	1	407999.4	-61.60217	6.771315E-011	0.0355924	5
	55	21	3.158693	238241	-410506.4	1	474630.7	-59.87088	-1.842904E-010	0.0355753	5
	56	22	2.504006	292267.9	-466722.8	1	550682	-57.94467	1.297343E-010	0.0355748	5
	57	23	1.998082	350365.2	-525972	1	631982.9	-56.33126	2.242933E-010	0.0356011	5
	58	25	1.584686	417028.7	-588851.6	1	721567.1	-54.69361	8.563809E-011	0.0355528	5
	59	27	1.266892	488240.4	-657196.6	1	818710	-53.39083	2.881646E-011	0.0355309	5
	60	29	0.999041	567222.6	-738626.2	1	931294.8	-52.4778	-8.569007E-012	0.0355409	5
