EXPLAIN
TAG	EISPOT
TITLE	LABEL	Potentiostatic EIS	Test &Identifier
DATE	LABEL	1/7/2020	Date
TIME	LABEL	16:10:25	Time
NOTES	NOTES	5	&Notes...
	
	
	
	
	
PSTAT	PSTAT	REF600-11020	Potentiostat
VDC	POTEN	0.00000E+000	T	DC &Voltage (V)
FREQINIT	QUANT	1.00000E+006	Initial Fre&q. (Hz)
FREQFINAL	QUANT	1.00000E+000	Final Fre&q. (Hz)
PTSPERDEC	QUANT	1.00000E+001	Points/&decade
VAC	QUANT	2.50000E+001	AC &Voltage (mV rms)
AREA	QUANT	1.00000E-001	&Area (cm^2)
CONDIT	TWOPARAM	T	5.00000E+000	0.00000E+000	Conditionin&g	Time(s)	E(V)
DELAY	TWOPARAM	T	5.00000E+000	0.00000E+000	Init. De&lay	Time(s)	Stab.(mV/s)
SPEED	SELECTOR	0	&Optimize for:
ZGUESS	QUANT	1.00000E+003	E&stimated Z (ohms)
OCVCURVE	TABLE	19
	Pt	T	Vf	Vm	Ach	Over
	#	s	V vs. Ref.	V	V	bits
	0	0.258333	5.14323E-003	5.14323E-003	6.53446E-004	...........
	1	0.516667	5.14058E-003	5.00452E-003	6.63313E-004	...........
	2	0.775	5.12443E-003	4.87985E-003	6.57113E-004	...........
	3	1.03333	5.07934E-003	4.76742E-003	6.63413E-004	...........
	4	1.29167	5.00022E-003	4.66574E-003	6.58779E-004	...........
	5	1.55	4.89781E-003	4.56650E-003	6.61879E-004	...........
	6	1.80833	4.78763E-003	4.46723E-003	6.58913E-004	...........
	7	2.06667	4.67944E-003	4.37224E-003	6.66113E-004	...........
	8	2.325	4.57620E-003	4.28676E-003	6.64046E-004	...........
	9	2.58333	4.47797E-003	4.20126E-003	6.63679E-004	...........
	10	2.84167	4.38430E-003	4.10962E-003	6.64846E-004	...........
	11	3.1	4.29402E-003	4.02128E-003	6.60746E-004	...........
	12	3.35833	4.20540E-003	3.93674E-003	6.57279E-004	...........
	13	3.61667	4.11741E-003	3.85156E-003	6.51280E-004	...........
	14	3.875	4.03012E-003	3.76599E-003	6.54813E-004	...........
	15	4.13333	3.94373E-003	3.68170E-003	6.57313E-004	...........
	16	4.39167	3.85817E-003	3.60005E-003	6.54479E-004	...........
	17	4.65	3.77338E-003	3.51591E-003	6.51780E-004	...........
	18	4.90833	3.68927E-003	3.42990E-003	6.56613E-004	...........
EOC	QUANT	0.0036893	Open Circuit (V)
PSTATMODEL	IQUANT	4	Pstat Model
PSTATSECTION	LABEL	REF600-11020	Pstat Section
PSTATSERIALNO	LABEL	11020	Pstat Serial Number
CTRLMODE	IQUANT	1	Control Mode
IESTAB	IQUANT	0	I/E Stability
CASPEED	IQUANT	1	Control Amp Speed
CONVENTION	IQUANT	1	Current Convention
ICHRANGE	IQUANT	2	Ich Range
ICHRANGEMODE	TOGGLE	F	Ich Auto Range
ICHOFFSETENABLE	TOGGLE	T	Ich Offset Enable
ICHOFFSET	QUANT	0	Ich Offset (V)
ICHFILTER	IQUANT	3	Ich Filter
VCHRANGE	IQUANT	2	Vch Range
VCHRANGEMODE	TOGGLE	F	Vch Auto Range
VCHOFFSETENABLE	TOGGLE	T	Vch Offset Enable
VCHOFFSET	QUANT	0	Vch Offset (V)
VCHFILTER	IQUANT	3	Vch Filter
ACHRANGE	IQUANT	2	Ach Range
ACHOFFSETENABLE	TOGGLE	F	Ach Offset Enable
ACHOFFSET	QUANT	0	Ach Offset (V)
ACHFILTER	IQUANT	3	Ach Filter
IERANGELOWERLIMIT	IQUANT	1	I/E Range Lower Limit
IERANGEMODE	TOGGLE	F	I/E AutoRange
IERANGE	IQUANT	6	I/E Range
POSFEEDENABLE	TOGGLE	F	Positive Feedback IR Comp
POSFEEDRESISTANCE	QUANT	0	Positive Feedback Resistance (ohm)
ACHSELECT	IQUANT	0	Ach Select
CABLEID	IQUANT	14	Cable ID
DCCALDATE	LABEL	12/22/2019	DC Calibration Date
ACCALDATE	LABEL	12/22/2019	AC Calibration Date
THERMOSELECT	IQUANT	1	Thermo Select
FRAMEWORKVERSION	QUANT	6.33	Framework Version
INSTRUMENTVERSION	LABEL	3.50	Instrument Version
ZCURVE	TABLE
	Pt	Time	Freq	Zreal	Zimag	Zsig	Zmod	Zphz	Idc	Vdc	IERange
	#	s	Hz	ohm	ohm	V	ohm	°	A	V	#
	0	1	1000078	2106.923	-1827.109	1	2788.809	-40.93161	-1.88076E-006	0.0066156	8
	1	1	794390.6	2467.495	-1867.134	1	3094.305	-37.11451	1.794984E-006	0.0054072	8
	2	1	630984.4	2811.926	-1856.423	1	3369.456	-33.43264	5.558953E-006	0.0041955	8
	3	2	501234.4	3193.42	-1788.876	1	3660.329	-29.25649	1.567246E-007	0.0051782	8
	4	2	398109.4	3511.052	-1724.505	1	3911.7	-26.15865	5.434035E-006	0.0041527	8
	5	2	316265.6	3799.672	-1558.371	1	4106.827	-22.30015	-1.146632E-006	0.0057141	8
	6	3	251203.1	4053.04	-1420.268	1	4294.682	-19.3115	-2.708282E-006	0.0057809	8
	7	3	199546.9	4282.013	-1295.699	1	4473.754	-16.83534	-3.325685E-006	0.0061445	8
	8	3	158578.1	4429.493	-1123.264	1	4569.697	-14.22954	-3.294223E-006	0.0061297	8
	9	4	125953.1	4571.134	-939.1694	1	4666.616	-11.61023	-1.504846E-006	0.0085355	7
	10	4	100078.1	4659.309	-835.2649	1	4733.585	-10.16334	6.208427E-008	0.0052375	7
	11	4	79453.13	4744.741	-763.3727	1	4805.758	-9.139889	1.108644E-007	0.0052545	7
	12	5	63140.62	4818.443	-707.1597	1	4870.059	-8.349184	1.11539E-008	0.0054408	7
	13	5	50203.12	4884.499	-664.6273	1	4929.509	-7.748574	-5.991358E-008	0.0054192	7
	14	5	39890.62	4944.858	-637.1664	1	4985.74	-7.342352	2.305846E-009	0.0053452	7
	15	6	31640.63	5005.114	-624.2339	1	5043.891	-7.109176	-8.006788E-008	0.0054029	7
	16	6	25171.88	5063.224	-627.5947	1	5101.971	-7.065864	-1.849856E-008	0.0053508	7
	17	6	20015.62	5118.155	-643.4963	1	5158.449	-7.166093	-8.559676E-008	0.0053803	7
	18	6	15890.62	5178.086	-675.7402	1	5221.992	-7.435081	-5.503477E-008	0.0053027	7
	19	7	12609.37	5233.272	-723.8587	1	5283.096	-7.875102	1.748122E-007	0.0050574	7
	20	7	10078.13	5296.64	-787.9368	1	5354.926	-8.461362	-3.601187E-008	0.0052704	7
	21	7	8015.625	5364.02	-870.418	1	5434.182	-9.217031	-3.700576E-008	0.0052689	7
	22	8	6328.125	5433.229	-982.493	1	5521.346	-10.25006	-7.333257E-008	0.0055417	7
	23	8	5015.625	5508.517	-1118.285	1	5620.883	-11.47567	-5.330173E-008	0.0052976	7
	24	8	3984.375	5586.476	-1286.08	1	5732.601	-12.96436	3.385691E-009	0.0053387	7
	25	9	3170.956	5672.678	-1496.206	1	5866.678	-14.77563	1.106472E-007	0.0052446	7
	26	9	2527.573	5766.483	-1751.031	1	6026.479	-16.89126	1.243928E-007	0.0050915	7
	27	9	1976.103	5881.813	-2096.22	1	6244.186	-19.61557	-7.313469E-008	0.0055405	7
	28	10	1577.524	6003.324	-2486.531	1	6497.902	-22.49896	-5.847909E-008	0.00541	7
	29	10	1265.625	6139.291	-2952.815	1	6812.489	-25.68616	-5.718127E-008	0.0054089	7
	30	10	998.264	6315.096	-3562.149	1	7250.472	-29.42599	-3.500184E-008	0.0052601	7
	31	11	796.875	6510.346	-4267.022	1	7784.092	-33.24171	2.793777E-009	0.0053313	7
	32	11	627.7902	6760.99	-5174.296	1	8513.772	-37.42742	6.474283E-008	0.0052129	7
	33	11	505.5147	7022.137	-6181.559	1	9355.324	-41.35733	1.75369E-007	0.005046	7
	34	12	397.9953	7364.256	-7519.324	1	10524.85	-45.59693	1.353166E-009	0.0052926	6
	35	12	315.5048	7750.89	-9116.771	1	11966.28	-49.6295	6.069586E-010	0.0052926	6
	36	12	252.4038	8182.542	-10991.97	1	13703.19	-53.3356	5.399939E-010	0.0052857	6
	37	12	198.6229	8732.887	-13467.29	1	16050.89	-57.03854	9.074184E-010	0.0052844	6
	38	13	158.3615	9358.844	-16356.28	1	18844.52	-60.22239	1.392062E-009	0.0052795	6
	39	13	125.558	10154.04	-19991.51	1	22422.42	-63.07318	1.164253E-009	0.005284	6
	40	13	100.4464	11093.11	-24299.4	1	26711.75	-65.46246	4.948488E-010	0.0052828	6
	41	14	79.00281	12377.52	-29941.31	1	32398.85	-67.54015	4.58091E-010	0.0052797	6
	42	14	63.3446	14234.97	-36405.29	1	39089.38	-68.64381	1.046086E-009	0.0052815	6
	43	15	49.86702	16368.88	-44855.38	1	47748.77	-69.95167	6.306502E-010	0.0052796	6
	44	15	39.72458	19023.76	-54530.29	1	57753.4	-70.76785	1.382512E-009	0.005283	6
	45	15	31.6723	22634.31	-66087.34	1	69855.91	-71.09413	5.241151E-010	0.0052792	6
	46	16	24.93351	27700.78	-81137.52	1	85735.82	-71.14983	1.037369E-009	0.005278	6
	47	16	19.86229	34073.57	-98195.7	1	103939.4	-70.8634	2.077171E-009	0.0052835	6
	48	16	15.83615	42204.02	-118187	1	125496.4	-70.34859	-5.125763E-010	0.005275	5
	49	16	12.40079	53795.06	-142553.9	1	152366.4	-69.32518	1.065423E-009	0.005278	5
	50	17	9.93114	68553.5	-170218	1	183504.1	-68.06342	6.94791E-010	0.0052757	5
	51	17	7.944915	86273.52	-200473.2	1	218249	-66.71541	-8.401352E-011	0.0052832	5
	52	18	6.317385	109675.5	-235188.5	1	259504.1	-64.99893	1.270098E-011	0.005284	5
	53	19	5.008013	138882.6	-274624.9	1	307745.3	-63.17348	3.716729E-010	0.0052829	5
	54	20	3.945707	175321.9	-318133.3	1	363244.5	-61.14103	2.010394E-010	0.0052659	5
	55	21	3.158693	216051	-363497.4	1	422857.4	-59.27413	6.352898E-010	0.005272	5
	56	23	2.504006	260815.9	-411744.8	1	487400	-57.64816	5.232604E-010	0.0052734	5
	57	24	1.998082	315870.2	-465003.9	1	562141.1	-55.81232	1.59871E-010	0.0052297	5
	58	26	1.584686	373023.3	-519245.9	1	639345.5	-54.30676	2.225318E-010	0.0052625	5
	59	28	1.266892	435458.1	-577889.1	1	723588	-53.0008	3.215567E-010	0.0052931	5
	60	30	0.999041	507502.5	-649180.7	1	824011.1	-51.98318	3.883685E-010	0.0053126	5
