EXPLAIN
TAG	EISPOT
TITLE	LABEL	Potentiostatic EIS	Test &Identifier
DATE	LABEL	5/26/2020	Date
TIME	LABEL	18:29:21	Time
NOTES	NOTES	1	&Notes...
	
PSTAT	PSTAT	REF600-11020	Potentiostat
VDC	POTEN	0.00000E+000	T	DC &Voltage (V)
FREQINIT	QUANT	1.00000E+006	Initial Fre&q. (Hz)
FREQFINAL	QUANT	1.00000E+000	Final Fre&q. (Hz)
PTSPERDEC	QUANT	1.00000E+001	Points/&decade
VAC	QUANT	2.50000E+001	AC &Voltage (mV rms)
AREA	QUANT	5.00000E-004	&Area (cm^2)
CONDIT	TWOPARAM	F	5.00000E+000	0.00000E+000	Conditionin&g	Time(s)	E(V)
DELAY	TWOPARAM	T	3.00000E+000	0.00000E+000	Init. De&lay	Time(s)	Stab.(mV/s)
SPEED	SELECTOR	0	&Optimize for:
ZGUESS	QUANT	1.00000E+003	E&stimated Z (ohms)
OCVCURVE	TABLE	12
	Pt	T	Vf	Vm	Ach	Over
	#	s	V vs. Ref.	V	V	bits
	0	0.258333	7.85935E-002	7.85935E-002	5.82430E-004	...........
	1	0.516667	7.85933E-002	7.85858E-002	5.82563E-004	...........
	2	0.775	7.85925E-002	7.85793E-002	5.83063E-004	...........
	3	1.03333	7.85901E-002	7.85771E-002	5.87897E-004	...........
	4	1.29167	7.85862E-002	7.85710E-002	5.84263E-004	...........
	5	1.55	7.85815E-002	7.85667E-002	5.83997E-004	...........
	6	1.80833	7.85766E-002	7.85599E-002	5.84097E-004	...........
	7	2.06667	7.85717E-002	7.85610E-002	5.84763E-004	...........
	8	2.325	7.85671E-002	7.85595E-002	5.81263E-004	...........
	9	2.58333	7.85634E-002	7.85564E-002	5.80697E-004	...........
	10	2.84167	7.85608E-002	7.85539E-002	5.80930E-004	...........
	11	3.1	7.85587E-002	7.85544E-002	5.85363E-004	...........
EOC	QUANT	0.0785587	Open Circuit (V)
PSTATMODEL	IQUANT	4	Pstat Model
PSTATSECTION	LABEL	REF600-11020	Pstat Section
PSTATSERIALNO	LABEL	11020	Pstat Serial Number
CTRLMODE	IQUANT	1	Control Mode
IESTAB	IQUANT	0	I/E Stability
CASPEED	IQUANT	1	Control Amp Speed
CONVENTION	IQUANT	1	Current Convention
ICHRANGE	IQUANT	2	Ich Range
ICHRANGEMODE	TOGGLE	F	Ich Auto Range
ICHOFFSETENABLE	TOGGLE	T	Ich Offset Enable
ICHOFFSET	QUANT	0	Ich Offset (V)
ICHFILTER	IQUANT	3	Ich Filter
VCHRANGE	IQUANT	2	Vch Range
VCHRANGEMODE	TOGGLE	F	Vch Auto Range
VCHOFFSETENABLE	TOGGLE	T	Vch Offset Enable
VCHOFFSET	QUANT	0	Vch Offset (V)
VCHFILTER	IQUANT	3	Vch Filter
ACHRANGE	IQUANT	2	Ach Range
ACHOFFSETENABLE	TOGGLE	F	Ach Offset Enable
ACHOFFSET	QUANT	0	Ach Offset (V)
ACHFILTER	IQUANT	3	Ach Filter
IERANGELOWERLIMIT	IQUANT	1	I/E Range Lower Limit
IERANGEMODE	TOGGLE	F	I/E AutoRange
IERANGE	IQUANT	8	I/E Range
POSFEEDENABLE	TOGGLE	F	Positive Feedback IR Comp
POSFEEDRESISTANCE	QUANT	0	Positive Feedback Resistance (ohm)
ACHSELECT	IQUANT	0	Ach Select
CABLEID	IQUANT	14	Cable ID
DCCALDATE	LABEL	2/27/2020	DC Calibration Date
ACCALDATE	LABEL	2/27/2020	AC Calibration Date
THERMOSELECT	IQUANT	1	Thermo Select
FRAMEWORKVERSION	QUANT	6.33	Framework Version
INSTRUMENTVERSION	LABEL	3.50	Instrument Version
ZCURVE	TABLE
	Pt	Time	Freq	Zreal	Zimag	Zsig	Zmod	Zphz	Idc	Vdc	IERange
	#	s	Hz	ohm	ohm	V	ohm	°	A	V	#
	0	1	1000078	1481.202	-670.0821	1	1625.721	-24.34156	7.22064E-008	0.0809822	8
	1	1	794390.6	1584.632	-653.2148	1	1713.986	-22.40237	4.223842E-008	0.080604	8
	2	2	630984.4	1679.901	-634.5746	1	1795.76	-20.69382	7.57379E-008	0.0804523	8
	3	2	501234.4	1768.321	-618.8902	1	1873.495	-19.28941	6.860153E-008	0.0803335	8
	4	2	398109.4	1851.133	-604.6989	1	1947.397	-18.09036	6.59991E-008	0.0802775	8
	5	3	316265.6	1930.082	-595.5518	1	2019.875	-17.14829	6.518923E-008	0.0802419	8
	6	3	251203.1	2007.033	-593.9724	1	2093.081	-16.48588	4.096625E-008	0.0802113	8
	7	3	199546.9	2081.295	-595.9796	1	2164.944	-15.97908	2.747425E-008	0.0802295	8
	8	3	158578.1	2158.533	-604.2105	1	2241.503	-15.63785	4.694975E-008	0.0802045	8
	9	4	125953.1	2256.75	-579.6342	1	2329.999	-14.40475	1.882631E-009	0.0801748	7
	10	4	100078.1	2329.766	-596.0799	1	2404.812	-14.35148	6.453556E-009	0.0801324	7
	11	4	79453.13	2408.24	-626.1988	1	2488.322	-14.57547	4.951846E-009	0.0801308	7
	12	5	63140.62	2489.358	-659.4839	1	2575.233	-14.83801	4.701727E-009	0.0801214	7
	13	5	50203.12	2573.285	-696.2177	1	2665.805	-15.13926	3.692137E-009	0.0801207	7
	14	5	39890.62	2659.562	-738.4524	1	2760.177	-15.51782	2.902858E-009	0.0801234	7
	15	6	31640.63	2748.46	-788.5599	1	2859.346	-16.0087	3.427935E-009	0.0801191	7
	16	6	25171.88	2838.291	-848.0103	1	2962.265	-16.63483	3.093499E-009	0.0801192	7
	17	6	20015.62	2931.569	-920.4572	1	3072.676	-17.4313	3.018509E-009	0.0801179	7
	18	7	15890.62	3029.836	-1009.653	1	3193.635	-18.42996	4.707806E-009	0.0801181	7
	19	7	12609.37	3132.994	-1118.068	1	3326.519	-19.63991	4.215559E-009	0.0801206	7
	20	7	10078.13	3239.331	-1245.701	1	3470.596	-21.0345	4.776584E-009	0.0801181	7
	21	8	8015.625	3357.984	-1405.109	1	3640.108	-22.7063	4.088978E-009	0.0801156	7
	22	8	6328.125	3493.472	-1605.091	1	3844.563	-24.67662	4.584373E-009	0.0801124	7
	23	8	5015.625	3645.964	-1843.505	1	4085.531	-26.82249	3.552995E-009	0.0801136	7
	24	9	3984.375	3822.118	-2126.431	1	4373.82	-29.08933	4.614102E-009	0.0801052	7
	25	9	3170.956	4029.422	-2458.177	1	4720.05	-31.38556	4.396895E-009	0.0801075	7
	26	9	2527.573	4273.597	-2839.61	1	5130.985	-33.60222	3.232717E-009	0.0801085	7
	27	9	1976.103	4591.15	-3315.486	1	5663.136	-35.83482	3.14996E-009	0.0801131	7
	28	10	1577.524	4927.523	-3814.645	1	6231.533	-37.74527	2.970245E-009	0.0801144	7
	29	10	1265.625	5297.15	-4356.953	1	6858.778	-39.4376	6.678976E-009	0.0801176	7
	30	10	998.264	5737.923	-5014.406	1	7620.238	-41.15041	6.196928E-009	0.0801132	7
	31	11	796.875	6172.016	-5748.812	1	8434.608	-42.96679	5.213795E-009	0.0801098	7
	32	11	627.7902	6665.138	-6666.812	1	9427.111	-45.00719	6.014251E-009	0.0801107	7
	33	11	505.5147	7129.473	-7655.317	1	10461.04	-47.03696	-1.083187E-010	0.0801543	6
	34	12	397.9953	7661.125	-9006.383	1	11824.03	-49.61442	6.010913E-010	0.0801822	6
	35	12	315.5048	8221.721	-10635.15	1	13442.58	-52.29344	6.072937E-010	0.0801832	6
	36	12	252.4038	8818.789	-12565.83	1	15351.59	-54.93856	4.864095E-010	0.0801771	6
	37	13	198.6229	9553.6	-15130.96	1	17894.62	-57.73192	4.873967E-010	0.0801784	6
	38	13	158.3615	10371.39	-18125.08	1	20882.63	-60.22128	4.59799E-010	0.0801757	6
	39	13	125.558	11373.79	-21890.96	1	24669.36	-62.54516	4.666842E-010	0.0801768	6
	40	14	100.4464	12542.93	-26311.83	1	29148.55	-64.51272	5.317218E-010	0.0801754	6
	41	14	79.00281	14088.66	-32136.59	1	35089.18	-66.32738	4.337087E-010	0.0801739	6
	42	14	63.3446	15848.14	-38671.88	1	41793.27	-67.71567	3.674481E-010	0.0801716	6
	43	15	49.86702	18235.39	-47288.45	1	50682.61	-68.91235	2.539874E-010	0.0801707	6
	44	15	39.72458	21106.49	-57265.23	1	61031.06	-69.76741	2.026045E-010	0.0801737	6
	45	15	31.6723	24735.05	-69270.24	1	73553.98	-70.34935	3.905749E-010	0.0801717	6
	46	16	24.93351	29672.44	-84623.39	1	89674.81	-70.67724	4.76795E-010	0.0801698	6
	47	16	19.86229	35673.05	-102045.3	1	108100.9	-70.73136	9.543857E-010	0.0801814	5
	48	16	15.83615	43398.91	-122914.1	1	130350.8	-70.55273	-3.133225E-010	0.080176	5
	49	17	12.40079	54293.84	-149600.3	1	159147.9	-70.05285	3.898528E-010	0.0801729	5
	50	17	9.93114	66714.54	-178252.9	1	190328.5	-69.48068	1.651703E-010	0.0801752	5
	51	17	7.944915	82435.73	-211534.3	1	227029.5	-68.70895	-5.046593E-010	0.0801809	5
	52	18	6.317385	102675.8	-251212.2	1	271385.1	-67.76912	1.977781E-010	0.0801645	5
	53	18	5.008013	128071.5	-297706.2	1	324085.3	-66.7229	1.458251E-010	0.0801692	5
	54	19	3.945707	159464.9	-352389.2	1	386790.9	-65.65206	-1.185016E-010	0.0801666	5
	55	20	3.158693	195474.6	-410245.6	1	454435.6	-64.52304	1.13779E-010	0.0801567	5
	56	21	2.504006	239179.5	-479252.1	1	535620.6	-63.47768	1.93109E-010	0.0801619	5
	57	22	1.998082	289586.7	-554432.2	1	625504.2	-62.42139	1.642538E-011	0.0801165	5
	58	24	1.584686	348286.7	-644244.6	1	732362.4	-61.60378	2.242403E-011	0.0801268	5
	59	26	1.266892	414478.5	-740835.5	1	848899.1	-60.77411	5.755885E-011	0.080159	5
	60	29	0.999041	497674.3	-859012.8	1	992765	-59.91388	7.807826E-011	0.0801836	5
