EXPLAIN
TAG	EISPOT
TITLE	LABEL	Potentiostatic EIS	Test &Identifier
DATE	LABEL	3/12/2020	Date
TIME	LABEL	13:51:55	Time
NOTES	NOTES	1	&Notes...
	
PSTAT	PSTAT	REF600-11020	Potentiostat
VDC	POTEN	0.00000E+000	T	DC &Voltage (V)
FREQINIT	QUANT	1.00000E+006	Initial Fre&q. (Hz)
FREQFINAL	QUANT	1.00000E+000	Final Fre&q. (Hz)
PTSPERDEC	QUANT	1.00000E+001	Points/&decade
VAC	QUANT	2.50000E+001	AC &Voltage (mV rms)
AREA	QUANT	2.50000E-001	&Area (cm^2)
CONDIT	TWOPARAM	F	5.00000E+000	0.00000E+000	Conditionin&g	Time(s)	E(V)
DELAY	TWOPARAM	T	5.00000E+000	0.00000E+000	Init. De&lay	Time(s)	Stab.(mV/s)
SPEED	SELECTOR	1	&Optimize for:
ZGUESS	QUANT	5.00000E+003	E&stimated Z (ohms)
OCVCURVE	TABLE	19
	Pt	T	Vf	Vm	Ach	Over
	#	s	V vs. Ref.	V	V	bits
	0	0.258333	1.03545E-002	1.03545E-002	5.77263E-004	...........
	1	0.516667	1.03611E-002	1.06999E-002	5.72430E-004	...........
	2	0.775	1.03969E-002	1.07831E-002	5.74263E-004	...........
	3	1.03333	1.04784E-002	1.06306E-002	5.73463E-004	...........
	4	1.29167	1.05690E-002	1.01795E-002	5.78730E-004	...........
	5	1.55	1.05947E-002	1.03745E-002	5.75697E-004	...........
	6	1.80833	1.05358E-002	1.05221E-002	5.80597E-004	...........
	7	2.06667	1.04616E-002	1.06449E-002	5.76463E-004	...........
	8	2.325	1.04475E-002	1.06848E-002	5.74863E-004	...........
	9	2.58333	1.04993E-002	1.06283E-002	5.71497E-004	...........
	10	2.84167	1.05696E-002	1.05653E-002	5.69630E-004	...........
	11	3.1	1.06205E-002	1.09692E-002	5.70597E-004	...........
	12	3.35833	1.06594E-002	1.06797E-002	5.67797E-004	...........
	13	3.61667	1.06997E-002	1.05579E-002	5.73930E-004	...........
	14	3.875	1.07211E-002	1.07693E-002	5.69930E-004	...........
	15	4.13333	1.07106E-002	1.06008E-002	5.74497E-004	...........
	16	4.39167	1.06904E-002	1.07831E-002	5.73530E-004	...........
	17	4.65	1.06797E-002	1.05321E-002	5.70497E-004	...........
	18	4.90833	1.06749E-002	1.07492E-002	5.67963E-004	...........
EOC	QUANT	0.0106749	Open Circuit (V)
PSTATMODEL	IQUANT	4	Pstat Model
PSTATSECTION	LABEL	REF600-11020	Pstat Section
PSTATSERIALNO	LABEL	11020	Pstat Serial Number
CTRLMODE	IQUANT	1	Control Mode
IESTAB	IQUANT	0	I/E Stability
CASPEED	IQUANT	1	Control Amp Speed
CONVENTION	IQUANT	1	Current Convention
ICHRANGE	IQUANT	2	Ich Range
ICHRANGEMODE	TOGGLE	F	Ich Auto Range
ICHOFFSETENABLE	TOGGLE	T	Ich Offset Enable
ICHOFFSET	QUANT	0	Ich Offset (V)
ICHFILTER	IQUANT	3	Ich Filter
VCHRANGE	IQUANT	2	Vch Range
VCHRANGEMODE	TOGGLE	F	Vch Auto Range
VCHOFFSETENABLE	TOGGLE	T	Vch Offset Enable
VCHOFFSET	QUANT	0	Vch Offset (V)
VCHFILTER	IQUANT	3	Vch Filter
ACHRANGE	IQUANT	2	Ach Range
ACHOFFSETENABLE	TOGGLE	F	Ach Offset Enable
ACHOFFSET	QUANT	0	Ach Offset (V)
ACHFILTER	IQUANT	3	Ach Filter
IERANGELOWERLIMIT	IQUANT	1	I/E Range Lower Limit
IERANGEMODE	TOGGLE	F	I/E AutoRange
IERANGE	IQUANT	6	I/E Range
POSFEEDENABLE	TOGGLE	F	Positive Feedback IR Comp
POSFEEDRESISTANCE	QUANT	0	Positive Feedback Resistance (ohm)
ACHSELECT	IQUANT	0	Ach Select
CABLEID	IQUANT	14	Cable ID
DCCALDATE	LABEL	2/27/2020	DC Calibration Date
ACCALDATE	LABEL	2/27/2020	AC Calibration Date
THERMOSELECT	IQUANT	1	Thermo Select
FRAMEWORKVERSION	QUANT	6.33	Framework Version
INSTRUMENTVERSION	LABEL	3.50	Instrument Version
ZCURVE	TABLE
	Pt	Time	Freq	Zreal	Zimag	Zsig	Zmod	Zphz	Idc	Vdc	IERange
	#	s	Hz	ohm	ohm	V	ohm	°	A	V	#
	0	1	1000078	1636.45	-1572.343	1	2269.412	-43.85546	2.934388E-006	0.0125481	8
	1	3	794390.6	1919.59	-1650.063	1	2531.311	-40.68207	-9.976177E-007	0.0127539	8
	2	4	630984.4	2173.98	-1712.7	1	2767.585	-38.23167	-2.953219E-008	0.0127949	8
	3	5	501234.4	2429.818	-1770.4	1	3006.382	-36.07761	4.217581E-007	0.0124067	8
	4	7	398109.4	2684.005	-1829.474	1	3248.208	-34.27916	-1.400362E-008	0.0124463	8
	5	8	316265.6	2928.686	-1911.559	1	3497.322	-33.13256	1.12194E-006	0.0122669	8
	6	9	251203.1	3182.163	-2000.15	1	3758.558	-32.15143	1.76685E-006	0.0120401	8
	7	11	199546.9	3434.289	-2111.735	1	4031.596	-31.58724	9.029451E-007	0.012243	8
	8	12	158578.1	3697.418	-2239.194	1	4322.603	-31.19953	2.196352E-007	0.0123379	8
	9	14	125953.1	4020.718	-2381.171	1	4672.917	-30.63509	-3.218091E-007	0.0131888	7
	10	15	100078.1	4308.439	-2554.578	1	5008.844	-30.66473	-2.943205E-010	0.0123004	7
	11	16	79453.13	4646.125	-2773.586	1	5411.031	-30.83583	-3.735419E-009	0.0123566	7
	12	18	63140.62	5013.165	-3014.089	1	5849.492	-31.01575	-4.902684E-009	0.0123507	7
	13	19	50203.12	5414.051	-3271.026	1	6325.469	-31.13925	5.101792E-009	0.0122839	7
	14	20	39890.62	5854.466	-3559.189	1	6851.467	-31.29727	6.283916E-008	0.0122333	7
	15	22	31640.63	6335.892	-3868.771	1	7423.673	-31.40874	3.15166E-008	0.0122506	7
	16	23	25171.88	6854.979	-4204.209	1	8041.524	-31.5211	1.934242E-010	0.0123636	7
	17	24	20015.62	7407.886	-4562.505	1	8700.186	-31.62885	-1.645087E-008	0.0123641	7
	18	26	15890.62	7995.535	-4949.453	1	9403.492	-31.75863	-2.645474E-008	0.0123443	7
	19	27	12609.37	8660.49	-5356.007	1	10182.87	-31.73437	5.327084E-010	0.0123523	6
	20	28	10078.13	9294.633	-5845.745	1	10980.12	-32.16734	-2.805533E-009	0.0124279	6
	21	30	8015.625	9979.11	-6422.48	1	11867.22	-32.76502	3.032969E-010	0.0124268	6
	22	31	6328.125	10742.29	-7120.303	1	12887.8	-33.53759	-2.859287E-009	0.0124282	6
	23	33	5015.625	11559.04	-7930.183	1	14017.81	-34.45243	-2.237805E-009	0.0124214	6
	24	34	3984.375	12463.22	-8866.805	1	15295.5	-35.42947	1.772694E-009	0.0124167	6
	25	35	3170.956	13473.46	-9943	1	16745.06	-36.42619	1.359207E-010	0.0124039	6
	26	37	2527.573	14599.98	-11152.02	1	18371.9	-37.37397	-2.006538E-009	0.012415	6
	27	38	1976.103	15980.33	-12626.42	1	20366.57	-38.31305	4.287688E-009	0.0123724	6
	28	39	1577.524	17365.4	-14132.79	1	22389.57	-39.14034	6.067755E-009	0.0123533	6
	29	41	1265.625	18814.28	-15773.83	1	24551.8	-39.97635	9.030301E-010	0.012353	6
	30	42	998.264	20432.03	-17808.25	1	27103.54	-41.07492	6.70861E-011	0.0123985	6
	31	43	796.875	22021.78	-20053.88	1	29784.51	-42.3222	-2.8395E-009	0.0123908	6
	32	45	627.7902	23657.04	-22982.72	1	32982.74	-44.17167	2.149482E-012	0.0124012	6
	33	46	505.5147	25186.97	-26221.91	1	36358.93	-46.1533	-3.308932E-009	0.012397	6
	34	48	397.9953	26954.37	-30742.35	1	40885.57	-48.75626	1.654174E-009	0.0123773	6
	35	49	315.5048	28765.02	-36260.1	1	46284.13	-51.57515	1.549002E-009	0.0123719	6
	36	50	252.4038	30726.72	-42881.44	1	52753.66	-54.37648	2.114571E-009	0.0123688	6
	37	52	198.6229	33192.94	-51727.33	1	61461.27	-57.3121	2.058116E-009	0.0123665	6
	38	53	158.3615	36026.42	-62161.99	1	71847.17	-59.90526	2.057438E-009	0.0123689	6
	39	54	125.558	39627.37	-75378.81	1	85160.4	-62.26866	2.08642E-009	0.012364	6
	40	56	100.4464	44320.46	-91048.98	1	101263.1	-64.04429	2.12017E-009	0.0123606	6
	41	57	79.00281	50133.17	-111856.4	1	122577.3	-65.85845	1.444609E-009	0.0123645	5
	42	59	63.3446	55651.21	-135034.1	1	146052.3	-67.60212	1.62817E-009	0.0123671	5
	43	60	49.86702	70154.12	-162757.9	1	177233.6	-66.68233	1.114581E-009	0.0123655	5
	44	61	39.72458	84304.88	-198181.6	1	215367.7	-66.95548	1.829021E-009	0.0123671	5
	45	63	31.6723	104753.6	-238960.5	1	260912.7	-66.32869	1.527258E-009	0.0123673	5
	46	64	24.93351	133271.9	-288452.7	1	317752	-65.20196	1.625733E-009	0.0123632	5
	47	66	19.86229	171268.5	-340736.2	1	381358.2	-63.31394	1.561667E-009	0.0123724	5
	48	67	15.83615	220157.4	-391288	1	448971.7	-60.6358	1.93508E-009	0.0123686	5
	49	69	12.40079	292502.2	-462812.9	1	547497.3	-57.70672	8.939866E-010	0.0123728	5
	50	70	9.93114	366963.3	-516656.6	1	633716.1	-54.61514	1.527018E-009	0.0123654	5
	51	72	7.944915	457489	-570159.4	1	731011.6	-51.25686	1.234162E-009	0.0123656	6
	52	73	6.317385	560409.6	-616451	1	833109.1	-47.72633	9.270088E-010	0.0123599	5
	53	76	5.008013	669823.9	-637163.8	1	924468.4	-43.56855	9.353543E-010	0.0123774	5
	54	79	3.945707	785006.4	-664059.1	1	1028207	-40.22882	4.083894E-010	0.0123636	4
	55	81	3.158693	885709	-672108.3	1	1111850	-37.19255	4.895008E-010	0.0123845	4
	56	85	2.504006	986477	-684760.3	1	1200847	-34.76634	2.764612E-010	0.0123579	4
	57	89	1.998082	1069469	-696450.4	1	1276247	-33.07265	3.523322E-011	0.0123915	4
	58	93	1.584686	1145826	-711979.3	1	1349011	-31.85548	2.517803E-010	0.0124096	4
	59	99	1.266892	1225020	-748642.4	1	1435667	-31.43021	-3.648261E-011	0.012405	4
	60	106	0.999041	1306346	-798704.7	1	1531166	-31.44177	2.808652E-010	0.0123463	4
