EXPLAIN
TAG	EISPOT
TITLE	LABEL	Potentiostatic EIS	Test &Identifier
DATE	LABEL	3/17/2020	Date
TIME	LABEL	15:58:24	Time
NOTES	NOTES	1	&Notes...
	
PSTAT	PSTAT	REF600-11020	Potentiostat
VDC	POTEN	0.00000E+000	T	DC &Voltage (V)
FREQINIT	QUANT	1.00000E+006	Initial Fre&q. (Hz)
FREQFINAL	QUANT	1.00000E+000	Final Fre&q. (Hz)
PTSPERDEC	QUANT	1.00000E+001	Points/&decade
VAC	QUANT	2.50000E+001	AC &Voltage (mV rms)
AREA	QUANT	4.00000E-004	&Area (cm^2)
CONDIT	TWOPARAM	F	5.00000E+000	0.00000E+000	Conditionin&g	Time(s)	E(V)
DELAY	TWOPARAM	T	3.00000E+000	0.00000E+000	Init. De&lay	Time(s)	Stab.(mV/s)
SPEED	SELECTOR	0	&Optimize for:
ZGUESS	QUANT	5.00000E+003	E&stimated Z (ohms)
OCVCURVE	TABLE	12
	Pt	T	Vf	Vm	Ach	Over
	#	s	V vs. Ref.	V	V	bits
	0	0.258333	1.72648E-001	1.72648E-001	5.77097E-004	...........
	1	0.516667	1.72648E-001	1.72648E-001	5.81497E-004	...........
	2	0.775	1.72648E-001	1.72648E-001	5.73963E-004	...........
	3	1.03333	1.72648E-001	1.72649E-001	5.81663E-004	...........
	4	1.29167	1.72648E-001	1.72650E-001	5.83197E-004	...........
	5	1.55	1.72648E-001	1.72649E-001	5.84696E-004	...........
	6	1.80833	1.72649E-001	1.72649E-001	5.82163E-004	...........
	7	2.06667	1.72649E-001	1.72648E-001	5.80897E-004	...........
	8	2.325	1.72649E-001	1.72644E-001	5.79230E-004	...........
	9	2.58333	1.72648E-001	1.72644E-001	5.80630E-004	...........
	10	2.84167	1.72647E-001	1.72639E-001	5.77163E-004	...........
	11	3.1	1.72645E-001	1.72636E-001	5.82363E-004	...........
EOC	QUANT	0.172645	Open Circuit (V)
PSTATMODEL	IQUANT	4	Pstat Model
PSTATSECTION	LABEL	REF600-11020	Pstat Section
PSTATSERIALNO	LABEL	11020	Pstat Serial Number
CTRLMODE	IQUANT	1	Control Mode
IESTAB	IQUANT	0	I/E Stability
CASPEED	IQUANT	1	Control Amp Speed
CONVENTION	IQUANT	1	Current Convention
ICHRANGE	IQUANT	2	Ich Range
ICHRANGEMODE	TOGGLE	F	Ich Auto Range
ICHOFFSETENABLE	TOGGLE	T	Ich Offset Enable
ICHOFFSET	QUANT	0	Ich Offset (V)
ICHFILTER	IQUANT	3	Ich Filter
VCHRANGE	IQUANT	2	Vch Range
VCHRANGEMODE	TOGGLE	F	Vch Auto Range
VCHOFFSETENABLE	TOGGLE	T	Vch Offset Enable
VCHOFFSET	QUANT	0	Vch Offset (V)
VCHFILTER	IQUANT	3	Vch Filter
ACHRANGE	IQUANT	2	Ach Range
ACHOFFSETENABLE	TOGGLE	F	Ach Offset Enable
ACHOFFSET	QUANT	0	Ach Offset (V)
ACHFILTER	IQUANT	3	Ach Filter
IERANGELOWERLIMIT	IQUANT	1	I/E Range Lower Limit
IERANGEMODE	TOGGLE	F	I/E AutoRange
IERANGE	IQUANT	7	I/E Range
POSFEEDENABLE	TOGGLE	F	Positive Feedback IR Comp
POSFEEDRESISTANCE	QUANT	0	Positive Feedback Resistance (ohm)
ACHSELECT	IQUANT	0	Ach Select
CABLEID	IQUANT	14	Cable ID
DCCALDATE	LABEL	2/27/2020	DC Calibration Date
ACCALDATE	LABEL	2/27/2020	AC Calibration Date
THERMOSELECT	IQUANT	1	Thermo Select
FRAMEWORKVERSION	QUANT	6.33	Framework Version
INSTRUMENTVERSION	LABEL	3.50	Instrument Version
ZCURVE	TABLE
	Pt	Time	Freq	Zreal	Zimag	Zsig	Zmod	Zphz	Idc	Vdc	IERange
	#	s	Hz	ohm	ohm	V	ohm	°	A	V	#
	0	1	1000078	1978.162	-1933.209	1	2765.939	-44.34154	-1.154063E-009	0.1750445	8
	1	1	794390.6	2383.874	-1992.109	1	3106.663	-39.88417	5.3021E-008	0.1747222	8
	2	1	630984.4	2794.903	-1977.845	1	3423.938	-35.28558	3.314967E-008	0.1745765	8
	3	2	501234.4	3185.641	-1898.287	1	3708.342	-30.79023	2.021118E-008	0.1744768	8
	4	2	398109.4	3532.81	-1765.414	1	3949.359	-26.55219	4.625359E-008	0.174448	8
	5	2	316265.6	3827.128	-1602.396	1	4149.045	-22.71877	4.136316E-008	0.1744127	8
	6	3	251203.1	4068.125	-1431.177	1	4312.53	-19.38201	3.942702E-008	0.1744063	8
	7	3	199546.9	4262.479	-1263.721	1	4445.865	-16.51381	4.49449E-008	0.1744124	8
	8	3	158578.1	4413.618	-1110.142	1	4551.092	-14.11853	3.999709E-008	0.1743946	8
	9	3	125953.1	4559.496	-918.2166	1	4651.035	-11.38624	-3.872468E-010	0.1743376	7
	10	4	100078.1	4635.685	-810.1212	1	4705.94	-9.91277	4.04169E-010	0.1743195	7
	11	4	79453.13	4712.515	-729.496	1	4768.644	-8.799527	-5.959589E-010	0.1743185	7
	12	4	63140.62	4777.808	-665.4319	1	4823.924	-7.928898	6.651426E-010	0.1743104	7
	13	5	50203.12	4834.891	-617.8339	1	4874.206	-7.282163	4.369927E-010	0.1743077	7
	14	5	39890.62	4886.293	-586.2287	1	4921.334	-6.841311	1.352742E-009	0.1743188	7
	15	5	31640.63	4935.207	-568.8584	1	4967.883	-6.575202	8.527026E-010	0.1743171	7
	16	6	25171.88	4981.071	-566.9357	1	5013.231	-6.49335	-3.673506E-012	0.1743148	7
	17	6	20015.62	5026.638	-579.8135	1	5059.968	-6.579884	7.855269E-010	0.1743081	7
	18	6	15890.62	5073.196	-608.5344	1	5109.563	-6.839999	6.714375E-010	0.1743054	7
	19	7	12609.37	5121.48	-653.2894	1	5162.979	-7.269318	1.201205E-009	0.174311	7
	20	7	10078.13	5170.021	-714.4788	1	5219.157	-7.868237	1.213707E-009	0.1743109	7
	21	7	8015.625	5222.473	-796.5007	1	5282.863	-8.671591	4.40177E-010	0.1743024	7
	22	8	6328.125	5281.263	-906.989	1	5358.579	-9.74475	1.532542E-009	0.1743076	7
	23	8	5015.625	5343.868	-1043.85	1	5444.864	-11.05275	1.030931E-009	0.1743051	7
	24	8	3984.375	5411.572	-1213.831	1	5546.034	-12.64236	1.498196E-009	0.174307	7
	25	9	3170.956	5486.762	-1422.767	1	5668.229	-14.53713	1.121566E-009	0.174302	7
	26	9	2527.573	5571.021	-1678.067	1	5818.263	-16.76302	4.980418E-010	0.1742986	7
	27	9	1976.103	5677.722	-2023.01	1	6027.362	-19.61132	1.255959E-009	0.1743024	7
	28	10	1577.524	5790.047	-2411.357	1	6272.104	-22.61006	2.167132E-009	0.1743039	7
	29	10	1265.625	5920.935	-2870.397	1	6580.019	-25.86354	2.049606E-009	0.1743048	7
	30	10	998.264	6087.383	-3476.892	1	7010.351	-29.73344	1.423867E-009	0.1742969	7
	31	10	796.875	6277.873	-4177.745	1	7540.904	-33.64263	1.196704E-009	0.1742976	7
	32	11	627.7902	6524.385	-5083.882	1	8271.243	-37.92617	1.703942E-009	0.1743047	7
	33	11	505.5147	6790.232	-6086.868	1	9119.058	-41.87354	1.42858E-009	0.1742954	7
	34	11	397.9953	7149.626	-7425.072	1	10307.71	-46.0827	5.776815E-010	0.1743689	6
	35	12	315.5048	7575.92	-9016.261	1	11776.57	-49.96132	6.632715E-010	0.1743653	6
	36	12	252.4038	8078.431	-10870.44	1	13543.54	-53.38189	5.875936E-010	0.1743621	6
	37	12	198.6229	8747.332	-13293.17	1	15913.02	-56.6538	6.354589E-010	0.1743627	6
	38	13	158.3615	9538.45	-16079.85	1	18696.08	-59.32389	2.934814E-010	0.1743664	6
	39	13	125.558	10558.86	-19538.01	1	22208.63	-61.61203	3.315904E-010	0.1743623	6
	40	13	100.4464	11795.88	-23546.87	1	26336.24	-63.39127	1.450506E-010	0.1743615	6
	41	14	79.00281	13498.08	-28757.76	1	31768.02	-64.85597	3.071293E-010	0.1743588	6
	42	14	63.3446	15502.01	-34518.73	1	37839.86	-65.81564	1.839899E-010	0.1743583	6
	43	14	49.86702	18289.77	-41971.92	1	45783.82	-66.45426	4.934774E-010	0.1743557	6
	44	15	39.72458	21707.51	-50413.51	1	54888.41	-66.70382	4.858427E-010	0.1743592	6
	45	15	31.6723	26044.36	-60309.14	1	65692.48	-66.64302	3.245257E-010	0.174358	6
	46	15	24.93351	31919.68	-72547.59	1	79259.18	-66.25134	8.931618E-010	0.1743567	6
	47	16	19.86229	38979.55	-86120.3	1	94531.02	-65.64767	2.228332E-009	0.1743658	6
	48	16	15.83615	47977.5	-101742.1	1	112486.9	-64.75331	-9.397478E-010	0.1743634	5
	49	16	12.40079	60069.18	-120814.7	1	134924	-63.56339	-1.338959E-011	0.1743661	5
	50	17	9.93114	73728.99	-140431.3	1	158609.3	-62.29971	-2.691812E-010	0.1743669	5
	51	17	7.944915	90099.11	-162084.2	1	185443.1	-60.93126	-1.317252E-009	0.1743686	5
	52	17	6.317385	110542.4	-186476.8	1	216779.2	-59.34076	5.817085E-010	0.1743452	5
	53	18	5.008013	135133.6	-213499.7	1	252672.2	-57.66845	4.647777E-010	0.1743567	5
	54	19	3.945707	163910.1	-242996.1	1	293110.3	-55.99885	-2.997085E-010	0.174355	5
	55	20	3.158693	194870.5	-272169.9	1	334740.1	-54.39778	3.319009E-010	0.1743483	5
	56	21	2.504006	229785.2	-304889.4	1	381783.7	-52.99586	3.174957E-010	0.174359	5
	57	22	1.998082	267198.3	-338853.1	1	431528	-51.7429	-6.456778E-011	0.1743119	5
	58	24	1.584686	307106.3	-378486.8	1	487408	-50.94394	-6.345065E-011	0.1743267	5
	59	26	1.266892	348272.7	-420141.7	1	545722.4	-50.34327	5.534305E-011	0.174369	5
	60	28	0.999041	395813.9	-471834.4	1	615870.4	-50.00728	1.283419E-010	0.1743828	5
