EXPLAIN
TAG	EISPOT
TITLE	LABEL	Potentiostatic EIS	Test &Identifier
DATE	LABEL	1/14/2020	Date
TIME	LABEL	15:53:38	Time
NOTES	NOTES	5	&Notes...
	
	
	
	
	
PSTAT	PSTAT	REF600-11020	Potentiostat
VDC	POTEN	0.00000E+000	T	DC &Voltage (V)
FREQINIT	QUANT	1.00000E+006	Initial Fre&q. (Hz)
FREQFINAL	QUANT	1.00000E+000	Final Fre&q. (Hz)
PTSPERDEC	QUANT	1.00000E+001	Points/&decade
VAC	QUANT	2.50000E+001	AC &Voltage (mV rms)
AREA	QUANT	1.00000E-001	&Area (cm^2)
CONDIT	TWOPARAM	T	5.00000E+000	0.00000E+000	Conditionin&g	Time(s)	E(V)
DELAY	TWOPARAM	T	5.00000E+000	0.00000E+000	Init. De&lay	Time(s)	Stab.(mV/s)
SPEED	SELECTOR	0	&Optimize for:
ZGUESS	QUANT	5.00000E+002	E&stimated Z (ohms)
OCVCURVE	TABLE	19
	Pt	T	Vf	Vm	Ach	Over
	#	s	V vs. Ref.	V	V	bits
	0	0.258333	3.74791E-003	3.74791E-003	6.63746E-004	...........
	1	0.516667	3.74689E-003	3.69418E-003	6.64079E-004	...........
	2	0.775	3.74087E-003	3.65836E-003	6.70879E-004	...........
	3	1.03333	3.72503E-003	3.63543E-003	6.69179E-004	...........
	4	1.29167	3.69955E-003	3.61549E-003	6.70779E-004	...........
	5	1.55	3.67031E-003	3.60284E-003	6.67979E-004	...........
	6	1.80833	3.64335E-003	3.58257E-003	6.64646E-004	...........
	7	2.06667	3.62142E-003	3.59614E-003	6.65646E-004	...........
	8	2.325	3.60544E-003	3.58554E-003	6.62713E-004	...........
	9	2.58333	3.59469E-003	3.54177E-003	6.63879E-004	...........
	10	2.84167	3.58447E-003	3.50852E-003	6.65246E-004	...........
	11	3.1	3.56867E-003	3.49896E-003	6.68579E-004	...........
	12	3.35833	3.54723E-003	3.51812E-003	6.68679E-004	...........
	13	3.61667	3.52855E-003	3.57846E-003	6.63613E-004	...........
	14	3.875	3.52481E-003	3.66511E-003	6.68979E-004	...........
	15	4.13333	3.54476E-003	3.70898E-003	6.68379E-004	...........
	16	4.39167	3.58648E-003	3.71219E-003	6.63946E-004	...........
	17	4.65	3.63595E-003	3.71047E-003	6.64713E-004	...........
	18	4.90833	3.67581E-003	3.67161E-003	6.67913E-004	...........
EOC	QUANT	0.0036758	Open Circuit (V)
PSTATMODEL	IQUANT	4	Pstat Model
PSTATSECTION	LABEL	REF600-11020	Pstat Section
PSTATSERIALNO	LABEL	11020	Pstat Serial Number
CTRLMODE	IQUANT	1	Control Mode
IESTAB	IQUANT	0	I/E Stability
CASPEED	IQUANT	1	Control Amp Speed
CONVENTION	IQUANT	1	Current Convention
ICHRANGE	IQUANT	2	Ich Range
ICHRANGEMODE	TOGGLE	F	Ich Auto Range
ICHOFFSETENABLE	TOGGLE	T	Ich Offset Enable
ICHOFFSET	QUANT	0	Ich Offset (V)
ICHFILTER	IQUANT	3	Ich Filter
VCHRANGE	IQUANT	2	Vch Range
VCHRANGEMODE	TOGGLE	F	Vch Auto Range
VCHOFFSETENABLE	TOGGLE	T	Vch Offset Enable
VCHOFFSET	QUANT	0	Vch Offset (V)
VCHFILTER	IQUANT	3	Vch Filter
ACHRANGE	IQUANT	2	Ach Range
ACHOFFSETENABLE	TOGGLE	F	Ach Offset Enable
ACHOFFSET	QUANT	0	Ach Offset (V)
ACHFILTER	IQUANT	3	Ach Filter
IERANGELOWERLIMIT	IQUANT	1	I/E Range Lower Limit
IERANGEMODE	TOGGLE	F	I/E AutoRange
IERANGE	IQUANT	7	I/E Range
POSFEEDENABLE	TOGGLE	F	Positive Feedback IR Comp
POSFEEDRESISTANCE	QUANT	0	Positive Feedback Resistance (ohm)
ACHSELECT	IQUANT	0	Ach Select
CABLEID	IQUANT	14	Cable ID
DCCALDATE	LABEL	12/22/2019	DC Calibration Date
ACCALDATE	LABEL	12/22/2019	AC Calibration Date
THERMOSELECT	IQUANT	1	Thermo Select
FRAMEWORKVERSION	QUANT	6.33	Framework Version
INSTRUMENTVERSION	LABEL	3.50	Instrument Version
ZCURVE	TABLE
	Pt	Time	Freq	Zreal	Zimag	Zsig	Zmod	Zphz	Idc	Vdc	IERange
	#	s	Hz	ohm	ohm	V	ohm	°	A	V	#
	0	1	1000078	2043.463	-1211.038	1	2375.364	-30.65268	7.40002E-006	0.005263	8
	1	1	794390.6	2244.745	-1191.477	1	2541.357	-27.9587	-1.705838E-006	0.0055185	8
	2	1	630984.4	2423.122	-1168.698	1	2690.237	-25.74853	2.10068E-006	0.005257	8
	3	2	501234.4	2593.96	-1147.606	1	2836.482	-23.8653	1.070245E-006	0.0052098	8
	4	2	398109.4	2764.156	-1133.137	1	2987.4	-22.29067	1.432413E-006	0.0050258	8
	5	2	316265.6	2930.413	-1124.058	1	3138.603	-20.986	1.132749E-006	0.0050907	8
	6	3	251203.1	3101.983	-1100.205	1	3291.314	-19.52847	2.667603E-007	0.0052791	8
	7	3	199546.9	3274.007	-1090.033	1	3450.695	-18.41442	1.234072E-006	0.0051377	8
	8	3	158578.1	3414.865	-1067.157	1	3577.726	-17.3542	2.626274E-006	0.0048766	8
	9	4	125953.1	3627.391	-1010.733	1	3765.574	-15.56992	-8.978681E-007	0.0070653	7
	10	4	100078.1	3787.922	-972.137	1	3910.678	-14.39381	-5.373351E-009	0.0053532	7
	11	4	79453.13	3942.125	-926.5515	1	4049.549	-13.22665	8.752367E-008	0.0051959	7
	12	4	63140.62	4083.685	-870.5835	1	4175.452	-12.03449	-5.046739E-009	0.0053492	7
	13	5	50203.12	4210.451	-810.502	1	4287.751	-10.89602	-3.881229E-008	0.00538	7
	14	5	39890.62	4318.437	-748.0746	1	4382.751	-9.82771	-1.466211E-008	0.0053156	7
	15	5	31640.63	4412.542	-692.4043	1	4466.537	-8.917979	2.782441E-009	0.0053342	7
	16	6	25171.88	4489.211	-644.0948	1	4535.182	-8.164858	5.634911E-008	0.0052176	7
	17	6	20015.62	4555.427	-605.5721	1	4595.501	-7.572173	3.184267E-008	0.0052167	7
	18	6	15890.62	4610.439	-584.9627	1	4647.4	-7.230931	5.469579E-008	0.0052018	7
	19	7	12609.37	4660.399	-573.1715	1	4695.513	-7.011463	-1.899705E-008	0.0053882	7
	20	7	10078.13	4707.46	-580.9923	1	4743.178	-7.035835	2.121413E-009	0.0053302	7
	21	7	8015.625	4745.703	-605.0963	1	4784.124	-7.266235	4.108301E-008	0.0053042	7
	22	8	6328.125	4789.061	-647.5182	1	4832.637	-7.700139	1.562328E-008	0.0052575	7
	23	8	5015.625	4832.76	-713.1778	1	4885.099	-8.394638	5.591002E-008	0.0052106	7
	24	8	3984.375	4875.926	-802.4057	1	4941.509	-9.345109	8.906297E-008	0.0051834	7
	25	8	3170.956	4922.707	-916.7614	1	5007.344	-10.54941	8.840352E-008	0.00518	7
	26	9	2527.573	4972.728	-1064.138	1	5085.313	-12.07882	-2.663814E-010	0.0052661	7
	27	9	1976.103	5035.974	-1268.099	1	5193.179	-14.1337	-4.574773E-009	0.005327	7
	28	9	1577.524	5098.765	-1504.331	1	5316.053	-16.43807	-3.588704E-009	0.0053229	7
	29	10	1265.625	5180.723	-1780.242	1	5478.061	-18.96416	-5.520194E-009	0.0053231	7
	30	10	998.264	5277.885	-2149.947	1	5698.977	-22.16353	1.452083E-009	0.0052629	7
	31	10	796.875	5392.365	-2583.18	1	5979.166	-25.59648	-3.49586E-008	0.0053705	7
	32	11	627.7902	5536.451	-3139.136	1	6364.469	-29.55299	1.664653E-008	0.005243	7
	33	11	505.5147	5692.516	-3761.32	1	6822.922	-33.45466	-1.267833E-008	0.0052946	7
	34	11	397.9953	5909.042	-4595.493	1	7485.675	-37.87239	6.317093E-009	0.0053095	7
	35	12	315.5048	6168.869	-5589.576	1	8324.561	-42.17954	7.585374E-009	0.0053075	7
	36	12	252.4038	6480.241	-6752.654	1	9359.052	-46.17933	6.475958E-009	0.0053125	7
	37	12	198.6229	6905.717	-8275.141	1	10778.07	-50.15454	9.205E-010	0.0053145	6
	38	12	158.3615	7421.101	-10026.65	1	12474.23	-53.49345	1.32262E-009	0.0053086	6
	39	13	125.558	8106.744	-12195.71	1	14644.27	-56.38719	8.261886E-010	0.005317	6
	40	13	100.4464	8959.664	-14693.81	1	17209.99	-58.62693	1.088225E-009	0.0053085	6
	41	13	79.00281	10148.44	-17923.04	1	20596.75	-60.48045	3.625056E-010	0.0053088	6
	42	14	63.3446	11552.36	-21384.86	1	24305.75	-61.62154	6.647815E-010	0.0053144	6
	43	14	49.86702	13577.92	-25850.72	1	29199.65	-62.28959	3.243492E-010	0.0053056	6
	44	14	39.72458	15998.41	-30818.03	1	34723.19	-62.56505	1.404958E-009	0.0053094	6
	45	15	31.6723	19049.86	-36487.29	1	41160.89	-62.43113	8.364238E-011	0.0053042	6
	46	15	24.93351	22998.44	-43322.15	1	49048.31	-62.0375	1.503963E-009	0.0053071	6
	47	15	19.86229	27648.23	-50726.7	1	57772.16	-61.40772	2.371896E-009	0.0053096	6
	48	16	15.83615	33090.9	-58870.02	1	67532.86	-60.65961	1.034222E-009	0.0053103	6
	49	16	12.40079	40051.73	-68872.46	1	79671.55	-59.82051	-1.454276E-010	0.0053098	6
	50	16	9.93114	47493.07	-78863.65	1	92060.13	-58.94291	2.101199E-009	0.0053129	6
	51	17	7.944915	55455.47	-89964.33	1	105683	-58.34964	-3.148931E-010	0.0053097	5
	52	17	6.317385	65080	-103136.7	1	121953.2	-57.74777	4.118008E-010	0.0052969	5
	53	18	5.008013	75455.56	-118494.5	1	140479.5	-57.51162	7.234488E-010	0.0053124	5
	54	19	3.945707	86894.52	-136442.9	1	161763.2	-57.50872	-1.600221E-010	0.0053001	5
	55	19	3.158693	98620.8	-156570	1	185041.1	-57.79387	3.038253E-010	0.0052994	5
	56	21	2.504006	111798.8	-181630.3	1	213280.5	-58.38649	2.393203E-010	0.005301	5
	57	22	1.998082	125990.9	-210696.3	1	245492.6	-59.12167	-1.292464E-010	0.0052603	5
	58	23	1.584686	141555	-247441.4	1	285070.3	-60.22721	-1.770923E-011	0.0052641	5
	59	25	1.266892	159109.3	-289680.4	1	330500.4	-61.22185	8.312352E-011	0.0052984	5
	60	28	0.999041	181532.1	-344838.5	1	389701.8	-62.23649	1.035529E-010	0.0053229	5
