EXPLAIN
TAG	EISPOT
TITLE	LABEL	Potentiostatic EIS	Test &Identifier
DATE	LABEL	3/17/2020	Date
TIME	LABEL	15:56:30	Time
NOTES	NOTES	1	&Notes...
	
PSTAT	PSTAT	REF600-11020	Potentiostat
VDC	POTEN	0.00000E+000	T	DC &Voltage (V)
FREQINIT	QUANT	1.00000E+006	Initial Fre&q. (Hz)
FREQFINAL	QUANT	1.00000E+000	Final Fre&q. (Hz)
PTSPERDEC	QUANT	1.00000E+001	Points/&decade
VAC	QUANT	2.50000E+001	AC &Voltage (mV rms)
AREA	QUANT	4.00000E-004	&Area (cm^2)
CONDIT	TWOPARAM	F	5.00000E+000	0.00000E+000	Conditionin&g	Time(s)	E(V)
DELAY	TWOPARAM	T	3.00000E+000	0.00000E+000	Init. De&lay	Time(s)	Stab.(mV/s)
SPEED	SELECTOR	0	&Optimize for:
ZGUESS	QUANT	5.00000E+003	E&stimated Z (ohms)
OCVCURVE	TABLE	12
	Pt	T	Vf	Vm	Ach	Over
	#	s	V vs. Ref.	V	V	bits
	0	0.258333	8.81631E-002	8.81631E-002	5.75930E-004	...........
	1	0.516667	8.81632E-002	8.81644E-002	5.79163E-004	...........
	2	0.775	8.81633E-002	8.81657E-002	5.80997E-004	...........
	3	1.03333	8.81637E-002	8.81665E-002	5.77597E-004	...........
	4	1.29167	8.81645E-002	8.81687E-002	5.78930E-004	...........
	5	1.55	8.81656E-002	8.81712E-002	5.78930E-004	...........
	6	1.80833	8.81670E-002	8.81737E-002	5.80263E-004	...........
	7	2.06667	8.81688E-002	8.81713E-002	5.80597E-004	...........
	8	2.325	8.81705E-002	8.81726E-002	5.78497E-004	...........
	9	2.58333	8.81717E-002	8.81725E-002	5.79097E-004	...........
	10	2.84167	8.81722E-002	8.81727E-002	5.80363E-004	...........
	11	3.1	8.81724E-002	8.81714E-002	5.84497E-004	...........
EOC	QUANT	0.0881724	Open Circuit (V)
PSTATMODEL	IQUANT	4	Pstat Model
PSTATSECTION	LABEL	REF600-11020	Pstat Section
PSTATSERIALNO	LABEL	11020	Pstat Serial Number
CTRLMODE	IQUANT	1	Control Mode
IESTAB	IQUANT	0	I/E Stability
CASPEED	IQUANT	1	Control Amp Speed
CONVENTION	IQUANT	1	Current Convention
ICHRANGE	IQUANT	2	Ich Range
ICHRANGEMODE	TOGGLE	F	Ich Auto Range
ICHOFFSETENABLE	TOGGLE	T	Ich Offset Enable
ICHOFFSET	QUANT	0	Ich Offset (V)
ICHFILTER	IQUANT	3	Ich Filter
VCHRANGE	IQUANT	2	Vch Range
VCHRANGEMODE	TOGGLE	F	Vch Auto Range
VCHOFFSETENABLE	TOGGLE	T	Vch Offset Enable
VCHOFFSET	QUANT	0	Vch Offset (V)
VCHFILTER	IQUANT	3	Vch Filter
ACHRANGE	IQUANT	2	Ach Range
ACHOFFSETENABLE	TOGGLE	F	Ach Offset Enable
ACHOFFSET	QUANT	0	Ach Offset (V)
ACHFILTER	IQUANT	3	Ach Filter
IERANGELOWERLIMIT	IQUANT	1	I/E Range Lower Limit
IERANGEMODE	TOGGLE	F	I/E AutoRange
IERANGE	IQUANT	7	I/E Range
POSFEEDENABLE	TOGGLE	F	Positive Feedback IR Comp
POSFEEDRESISTANCE	QUANT	0	Positive Feedback Resistance (ohm)
ACHSELECT	IQUANT	0	Ach Select
CABLEID	IQUANT	14	Cable ID
DCCALDATE	LABEL	2/27/2020	DC Calibration Date
ACCALDATE	LABEL	2/27/2020	AC Calibration Date
THERMOSELECT	IQUANT	1	Thermo Select
FRAMEWORKVERSION	QUANT	6.33	Framework Version
INSTRUMENTVERSION	LABEL	3.50	Instrument Version
ZCURVE	TABLE
	Pt	Time	Freq	Zreal	Zimag	Zsig	Zmod	Zphz	Idc	Vdc	IERange
	#	s	Hz	ohm	ohm	V	ohm	°	A	V	#
	0	1	1000078	1902.601	-1948.495	1	2723.329	-45.68277	-8.972051E-010	0.0907233	8
	1	2	794390.6	2313.177	-2038.109	1	3082.966	-41.38284	3.828995E-008	0.0903169	8
	2	2	630984.4	2741.474	-2053.399	1	3425.219	-36.83367	4.523383E-008	0.0901534	8
	3	2	501234.4	3158.628	-1995.619	1	3736.231	-32.28466	3.852601E-008	0.0900271	8
	4	3	398109.4	3538.332	-1872.178	1	4003.104	-27.88391	3.808738E-008	0.0899525	8
	5	3	316265.6	3861.458	-1710.497	1	4223.347	-23.89174	1.666395E-008	0.0899077	8
	6	3	251203.1	4129.128	-1527.756	1	4402.696	-20.30422	2.005604E-008	0.0898903	8
	7	3	199546.9	4336.03	-1346.797	1	4540.376	-17.25511	2.543477E-008	0.0898894	8
	8	4	158578.1	4504.017	-1180.949	1	4656.265	-14.69217	1.209968E-008	0.0898919	8
	9	4	125953.1	4658.756	-978.636	1	4760.434	-11.86328	-7.65449E-010	0.0898605	7
	10	4	100078.1	4740.641	-859.1736	1	4817.868	-10.27254	2.744706E-010	0.0898241	7
	11	5	79453.13	4820.481	-770.3026	1	4881.639	-9.078984	1.01832E-009	0.0898222	7
	12	5	63140.62	4887.341	-699.962	1	4937.21	-8.150442	-1.037078E-010	0.0898118	7
	13	5	50203.12	4945.264	-648.2908	1	4987.576	-7.468502	1.662867E-011	0.0898151	7
	14	6	39890.62	4997.955	-614.1719	1	5035.549	-7.005649	3.792021E-010	0.0898177	7
	15	6	31640.63	5047.557	-596.2115	1	5082.646	-6.736497	1.9794E-010	0.089812	7
	16	6	25171.88	5095.777	-595.2767	1	5130.429	-6.66296	-1.33362E-010	0.0898127	7
	17	7	20015.62	5143.831	-609.5856	1	5179.825	-6.758492	1.921618E-009	0.0898135	7
	18	7	15890.62	5192.667	-639.7585	1	5231.93	-7.023686	-2.177118E-010	0.0898115	7
	19	7	12609.37	5244.875	-687.5205	1	5289.745	-7.467993	9.011925E-010	0.0898128	7
	20	8	10078.13	5297.527	-751.0643	1	5350.503	-8.069409	1.35438E-009	0.0898117	7
	21	8	8015.625	5353.976	-836.6306	1	5418.949	-8.88141	8.230725E-010	0.089811	7
	22	8	6328.125	5416.18	-949.2127	1	5498.728	-9.94042	1.4013E-009	0.089813	7
	23	9	5015.625	5482.209	-1089.055	1	5589.334	-11.23568	2.433339E-010	0.0898026	7
	24	9	3984.375	5553.225	-1263.665	1	5695.187	-12.81966	8.762477E-010	0.0898095	7
	25	9	3170.956	5629.949	-1479.021	1	5820.982	-14.71935	1.918546E-009	0.0898128	7
	26	10	2527.573	5714.412	-1741.804	1	5973.975	-16.95169	4.386511E-010	0.0898047	7
	27	10	1976.103	5817.586	-2098.205	1	6184.397	-19.83264	1.710504E-009	0.0898064	7
	28	10	1577.524	5927.079	-2501.646	1	6433.39	-22.88318	9.719773E-010	0.0897967	7
	29	10	1265.625	6051.473	-2984.714	1	6747.506	-26.25349	1.449863E-009	0.0898007	7
	30	11	998.264	6211.354	-3624.663	1	7191.6	-30.26589	1.138584E-009	0.0897968	7
	31	11	796.875	6392.296	-4368.4	1	7742.375	-34.34812	1.324683E-009	0.0897929	7
	32	11	627.7902	6623.451	-5342.078	1	8509.283	-38.88757	2.728379E-009	0.0898044	7
	33	12	505.5147	6882.553	-6408.599	1	9404.236	-42.95773	2.10556E-009	0.0897987	7
	34	12	397.9953	7232.738	-7853.445	1	10676.57	-47.35606	5.811519E-010	0.0898642	6
	35	12	315.5048	7653.006	-9572.45	1	12255.62	-51.35828	5.481005E-010	0.0898631	6
	36	13	252.4038	8153.051	-11580.47	1	14162.61	-54.85312	4.395361E-010	0.0898615	6
	37	13	198.6229	8824.805	-14207.31	1	16724.97	-58.1537	5.692437E-010	0.0898622	6
	38	13	158.3615	9622.9	-17231.52	1	19736.4	-60.81894	4.580134E-010	0.0898602	6
	39	14	125.558	10651.86	-20988.37	1	23536.65	-63.09164	5.179015E-010	0.0898628	6
	40	14	100.4464	11899.29	-25348.44	1	28002.44	-64.85328	4.727816E-010	0.0898631	6
	41	14	79.00281	13599.97	-31032.69	1	33881.96	-66.33472	2.730137E-010	0.0898596	6
	42	15	63.3446	15585.47	-37337	1	40459.34	-67.34302	9.679021E-011	0.0898625	6
	43	15	49.86702	18321.27	-45557.5	1	49103.51	-68.09213	7.388871E-011	0.0898587	6
	44	15	39.72458	21653.73	-54949.08	1	59061.71	-68.49213	4.299773E-010	0.0898627	6
	45	16	31.6723	25903.21	-66107.9	1	71001.63	-68.60315	5.870064E-010	0.0898556	6
	46	16	24.93351	31721.2	-80182.3	1	86228.98	-68.41558	-7.618157E-011	0.0898509	6
	47	16	19.86229	38937.31	-96044.8	1	103637.4	-67.93198	1.564273E-010	0.0898548	6
	48	17	15.83615	48182.76	-114462.9	1	124190.7	-67.17152	-9.614697E-010	0.0898571	5
	49	17	12.40079	61210.16	-137548.6	1	150553.3	-66.01057	-1.13786E-009	0.0898659	5
	50	17	9.93114	76417.19	-161163.7	1	178362.9	-64.63161	-1.409263E-009	0.0898635	5
	51	18	7.944915	95157.3	-187771.1	1	210506.3	-63.12534	-4.188437E-010	0.0898626	5
	52	18	6.317385	119052.9	-217398.5	1	247862.3	-61.29378	2.295753E-010	0.0898504	5
	53	19	5.008013	148433.9	-249707.2	1	290493.3	-59.2714	-1.287166E-010	0.0898497	5
	54	20	3.945707	183473.3	-285138.8	1	339067.3	-57.24064	-4.237899E-010	0.0898523	5
	55	21	3.158693	220775.2	-318581.4	1	387602.6	-55.27825	4.0902E-011	0.0898409	5
	56	22	2.504006	263392.6	-356082.8	1	442911.5	-53.50986	3.064718E-010	0.0898493	5
	57	23	1.998082	307624.2	-393460.3	1	499443.3	-51.98018	-3.233121E-011	0.0898159	5
	58	25	1.584686	355807.7	-437775	1	564133	-50.89704	-1.211836E-010	0.0898046	5
	59	27	1.266892	403169.8	-484547.2	1	630342.6	-50.23769	-3.027678E-011	0.0898343	5
	60	29	0.999041	457129.7	-541871.4	1	708937.3	-49.84859	2.127875E-011	0.0898649	5
