EXPLAIN
TAG	EISPOT
TITLE	LABEL	Potentiostatic EIS	Test &Identifier
DATE	LABEL	6/1/2020	Date
TIME	LABEL	13:51:56	Time
NOTES	NOTES	1	&Notes...
	
PSTAT	PSTAT	REF600-11020	Potentiostat
VDC	POTEN	0.00000E+000	T	DC &Voltage (V)
FREQINIT	QUANT	1.00000E+006	Initial Fre&q. (Hz)
FREQFINAL	QUANT	1.00000E+000	Final Fre&q. (Hz)
PTSPERDEC	QUANT	1.00000E+001	Points/&decade
VAC	QUANT	2.50000E+001	AC &Voltage (mV rms)
AREA	QUANT	4.00000E-004	&Area (cm^2)
CONDIT	TWOPARAM	F	5.00000E+000	0.00000E+000	Conditionin&g	Time(s)	E(V)
DELAY	TWOPARAM	T	3.00000E+000	0.00000E+000	Init. De&lay	Time(s)	Stab.(mV/s)
SPEED	SELECTOR	0	&Optimize for:
ZGUESS	QUANT	1.00000E+003	E&stimated Z (ohms)
OCVCURVE	TABLE	12
	Pt	T	Vf	Vm	Ach	Over
	#	s	V vs. Ref.	V	V	bits
	0	0.258333	-1.06999E-001	-1.06999E-001	5.33297E-004	...........
	1	0.516667	-1.06999E-001	-1.06999E-001	5.25164E-004	...........
	2	0.775	-1.06999E-001	-1.06997E-001	5.13431E-004	...........
	3	1.03333	-1.06999E-001	-1.06997E-001	5.16564E-004	...........
	4	1.29167	-1.06998E-001	-1.07002E-001	5.17964E-004	...........
	5	1.55	-1.06998E-001	-1.07004E-001	5.19198E-004	...........
	6	1.80833	-1.06999E-001	-1.07007E-001	5.17898E-004	...........
	7	2.06667	-1.07001E-001	-1.07008E-001	5.24597E-004	...........
	8	2.325	-1.07004E-001	-1.07010E-001	5.34631E-004	...........
	9	2.58333	-1.07006E-001	-1.07015E-001	5.22931E-004	...........
	10	2.84167	-1.07009E-001	-1.07016E-001	5.16998E-004	...........
	11	3.1	-1.07011E-001	-1.07017E-001	5.28631E-004	...........
EOC	QUANT	-0.1070111	Open Circuit (V)
PSTATMODEL	IQUANT	4	Pstat Model
PSTATSECTION	LABEL	REF600-11020	Pstat Section
PSTATSERIALNO	LABEL	11020	Pstat Serial Number
CTRLMODE	IQUANT	1	Control Mode
IESTAB	IQUANT	0	I/E Stability
CASPEED	IQUANT	1	Control Amp Speed
CONVENTION	IQUANT	1	Current Convention
ICHRANGE	IQUANT	2	Ich Range
ICHRANGEMODE	TOGGLE	F	Ich Auto Range
ICHOFFSETENABLE	TOGGLE	T	Ich Offset Enable
ICHOFFSET	QUANT	0	Ich Offset (V)
ICHFILTER	IQUANT	3	Ich Filter
VCHRANGE	IQUANT	2	Vch Range
VCHRANGEMODE	TOGGLE	F	Vch Auto Range
VCHOFFSETENABLE	TOGGLE	T	Vch Offset Enable
VCHOFFSET	QUANT	0	Vch Offset (V)
VCHFILTER	IQUANT	3	Vch Filter
ACHRANGE	IQUANT	2	Ach Range
ACHOFFSETENABLE	TOGGLE	F	Ach Offset Enable
ACHOFFSET	QUANT	0	Ach Offset (V)
ACHFILTER	IQUANT	3	Ach Filter
IERANGELOWERLIMIT	IQUANT	1	I/E Range Lower Limit
IERANGEMODE	TOGGLE	F	I/E AutoRange
IERANGE	IQUANT	8	I/E Range
POSFEEDENABLE	TOGGLE	F	Positive Feedback IR Comp
POSFEEDRESISTANCE	QUANT	0	Positive Feedback Resistance (ohm)
ACHSELECT	IQUANT	0	Ach Select
CABLEID	IQUANT	14	Cable ID
DCCALDATE	LABEL	2/27/2020	DC Calibration Date
ACCALDATE	LABEL	2/27/2020	AC Calibration Date
THERMOSELECT	IQUANT	1	Thermo Select
FRAMEWORKVERSION	QUANT	6.33	Framework Version
INSTRUMENTVERSION	LABEL	3.50	Instrument Version
ZCURVE	TABLE
	Pt	Time	Freq	Zreal	Zimag	Zsig	Zmod	Zphz	Idc	Vdc	IERange
	#	s	Hz	ohm	ohm	V	ohm	°	A	V	#
	0	1	1000078	1438.965	-682.7968	1	1592.744	-25.38459	1.050177E-008	-0.104426	8
	1	2	794390.6	1545.746	-671.228	1	1685.194	-23.47251	6.669423E-008	-0.1048417	8
	2	2	630984.4	1645.232	-656.3278	1	1771.314	-21.74841	3.372769E-008	-0.1050402	8
	3	2	501234.4	1738.514	-642.2375	1	1853.348	-20.27512	6.503167E-008	-0.1051347	8
	4	3	398109.4	1826.951	-630.8582	1	1932.804	-19.05013	3.255304E-008	-0.1052253	8
	5	3	316265.6	1909.76	-624.7228	1	2009.344	-18.11401	4.697057E-008	-0.1052498	8
	6	3	251203.1	1990.467	-619.7246	1	2084.71	-17.29379	3.232676E-008	-0.1052804	8
	7	4	199546.9	2071.352	-624.5416	1	2163.458	-16.77879	4.672845E-008	-0.1052826	8
	8	4	158578.1	2149.766	-631.8472	1	2240.697	-16.37882	4.879559E-008	-0.1052778	8
	9	4	125953.1	2248.317	-616.3442	1	2331.267	-15.33021	-1.245177E-009	-0.1053225	7
	10	5	100078.1	2324.397	-634.7084	1	2409.498	-15.27305	2.660847E-009	-0.1053556	7
	11	5	79453.13	2406.125	-668.0811	1	2497.153	-15.51777	3.034338E-009	-0.105359	7
	12	5	63140.62	2490.971	-706.0925	1	2589.113	-15.82595	2.8218E-009	-0.1053595	7
	13	6	50203.12	2579.243	-748.3828	1	2685.623	-16.1804	1.990347E-009	-0.1053668	7
	14	6	39890.62	2670.562	-797.7566	1	2787.17	-16.63206	3.201331E-009	-0.1053602	7
	15	6	31640.63	2765.093	-855.7053	1	2894.472	-17.19558	1.413563E-009	-0.1053698	7
	16	7	25171.88	2862.003	-925.2508	1	3007.848	-17.91539	2.248057E-009	-0.1053669	7
	17	7	20015.62	2962.703	-1008.474	1	3129.637	-18.79805	1.27762E-009	-0.1053699	7
	18	7	15890.62	3068.891	-1110.341	1	3263.579	-19.89039	2.959102E-009	-0.1053658	7
	19	8	12609.37	3180.891	-1233.802	1	3411.793	-21.20024	2.487177E-009	-0.1053704	7
	20	8	10078.13	3297.529	-1380.758	1	3574.939	-22.72028	3.137285E-009	-0.1053642	7
	21	8	8015.625	3426.592	-1561.737	1	3765.708	-24.50206	2.477869E-009	-0.1053708	7
	22	8	6328.125	3576.178	-1790.693	1	3999.454	-26.59842	8.776138E-010	-0.1053729	7
	23	9	5015.625	3746.724	-2065.055	1	4278.13	-28.86192	1.743402E-009	-0.1053719	7
	24	9	3984.375	3947.881	-2393.365	1	4616.705	-31.22593	2.260683E-009	-0.1053684	7
	25	9	3170.956	4187.64	-2775.344	1	5023.829	-33.53429	5.804932E-009	-0.1053592	7
	26	10	2527.573	4477.755	-3212.93	1	5511.189	-35.66063	5.15025E-009	-0.1053713	7
	27	10	1976.103	4864.099	-3750.516	1	6142.136	-37.63441	1.888869E-009	-0.1053802	7
	28	10	1577.524	5280.908	-4304.544	1	6813.009	-39.18397	4.665599E-009	-0.1053744	7
	29	11	1265.625	5745.174	-4882.106	1	7539.362	-40.35706	1.88897E-009	-0.1053889	7
	30	11	998.264	6299.729	-5582.42	1	8417.244	-41.54533	3.184526E-009	-0.1053865	7
	31	11	796.875	6864.398	-6314.701	1	9327.133	-42.61159	3.052564E-009	-0.1053804	7
	32	12	627.7902	7490.482	-7219.847	1	10403.53	-43.94601	6.147895E-010	-0.1053258	6
	33	12	505.5147	8060.986	-8186.551	1	11489.09	-45.44279	7.747792E-010	-0.1053286	6
	34	12	397.9953	8710.344	-9489.5	1	12881.02	-47.4514	3.710223E-010	-0.1053107	6
	35	13	315.5048	9374.965	-11058.67	1	14497.73	-49.71046	3.230325E-010	-0.1053131	6
	36	13	252.4038	10069.17	-12925.15	1	16384.38	-52.0801	2.445871E-010	-0.1053177	6
	37	13	198.6229	10914.42	-15413.21	1	18886.28	-54.6969	1.723204E-010	-0.1053169	6
	38	14	158.3615	11852.99	-18323.52	1	21823.03	-57.10226	2.524155E-010	-0.1053224	6
	39	14	125.558	13008.81	-21982.58	1	25543.36	-59.38388	2.295066E-010	-0.1053194	6
	40	14	100.4464	14366.8	-26263.47	1	29936.18	-61.32019	1.330082E-010	-0.1053225	6
	41	15	79.00281	16192.75	-31872.71	1	35750.18	-63.06741	7.74168E-011	-0.1053248	6
	42	15	63.3446	18295.98	-38111.72	1	42275.84	-64.35611	9.272769E-011	-0.1053241	6
	43	15	49.86702	21168.36	-46246.6	1	50861.06	-65.40511	3.1728E-010	-0.105327	6
	44	16	39.72458	24630.86	-55529.89	1	60747.41	-66.07982	3.887612E-010	-0.1053207	6
	45	16	31.6723	29002.53	-66542.84	1	72588.54	-66.45013	2.122478E-010	-0.1053285	6
	46	16	24.93351	34907.17	-80349.08	1	87604.13	-66.51775	7.220456E-010	-0.1053219	6
	47	17	19.86229	41974.78	-95707.8	1	104507.7	-66.31908	1.252837E-009	-0.1053152	5
	48	17	15.83615	50944.7	-113713	1	124603.4	-65.8671	-1.41517E-010	-0.1053238	5
	49	17	12.40079	63255.57	-136180.6	1	150154.7	-65.08524	1.072483E-009	-0.1053219	5
	50	17	9.93114	76863.24	-159592.5	1	177137.6	-64.28352	8.641415E-010	-0.1053153	5
	51	18	7.944915	93855.96	-186242.8	1	208555.4	-63.25446	-5.558173E-010	-0.1053246	5
	52	18	6.317385	114730.3	-217174.9	1	245617.6	-62.15316	3.244453E-010	-0.10533	5
	53	19	5.008013	140148.3	-252287.2	1	288600.8	-60.94734	5.29138E-010	-0.1053129	5
	54	20	3.945707	171442.4	-292074.2	1	338673.6	-59.58781	1.115284E-010	-0.1053209	5
	55	21	3.158693	204900.1	-333569.6	1	391475.1	-58.43906	3.353499E-010	-0.105312	5
	56	22	2.504006	245212	-380739.2	1	452870.1	-57.21677	6.371491E-011	-0.1053204	5
	57	23	1.998082	288578.2	-432315.3	1	519782.5	-56.27618	-8.233372E-012	-0.1053562	5
	58	25	1.584686	339115.3	-489794.8	1	595733.3	-55.30274	1.112844E-010	-0.1053062	5
	59	27	1.266892	394529.9	-554216.7	1	680301.4	-54.5541	1.529235E-010	-0.1052913	5
	60	29	0.999041	458858.7	-632781.3	1	781641.4	-54.05241	1.74387E-010	-0.1052943	5
