EXPLAIN
TAG	EISPOT
TITLE	LABEL	Potentiostatic EIS	Test &Identifier
DATE	LABEL	3/17/2020	Date
TIME	LABEL	15:39:09	Time
NOTES	NOTES	1	&Notes...
	
PSTAT	PSTAT	REF600-11020	Potentiostat
VDC	POTEN	0.00000E+000	T	DC &Voltage (V)
FREQINIT	QUANT	1.00000E+006	Initial Fre&q. (Hz)
FREQFINAL	QUANT	1.00000E+000	Final Fre&q. (Hz)
PTSPERDEC	QUANT	1.00000E+001	Points/&decade
VAC	QUANT	2.50000E+001	AC &Voltage (mV rms)
AREA	QUANT	4.00000E-004	&Area (cm^2)
CONDIT	TWOPARAM	F	5.00000E+000	0.00000E+000	Conditionin&g	Time(s)	E(V)
DELAY	TWOPARAM	T	3.00000E+000	0.00000E+000	Init. De&lay	Time(s)	Stab.(mV/s)
SPEED	SELECTOR	0	&Optimize for:
ZGUESS	QUANT	5.00000E+003	E&stimated Z (ohms)
OCVCURVE	TABLE	12
	Pt	T	Vf	Vm	Ach	Over
	#	s	V vs. Ref.	V	V	bits
	0	0.258333	9.21724E-002	9.21724E-002	5.96196E-004	...........
	1	0.516667	9.21725E-002	9.21749E-002	5.94530E-004	...........
	2	0.775	9.21728E-002	9.21800E-002	5.98796E-004	...........
	3	1.03333	9.21739E-002	9.21816E-002	5.99130E-004	...........
	4	1.29167	9.21759E-002	9.21833E-002	5.96496E-004	...........
	5	1.55	9.21784E-002	9.21856E-002	5.98230E-004	...........
	6	1.80833	9.21810E-002	9.21901E-002	6.00896E-004	...........
	7	2.06667	9.21835E-002	9.21890E-002	5.99796E-004	...........
	8	2.325	9.21858E-002	9.21892E-002	5.94430E-004	...........
	9	2.58333	9.21876E-002	9.21870E-002	5.95996E-004	...........
	10	2.84167	9.21885E-002	9.21873E-002	5.92863E-004	...........
	11	3.1	9.21885E-002	9.21883E-002	5.95796E-004	...........
EOC	QUANT	0.0921885	Open Circuit (V)
PSTATMODEL	IQUANT	4	Pstat Model
PSTATSECTION	LABEL	REF600-11020	Pstat Section
PSTATSERIALNO	LABEL	11020	Pstat Serial Number
CTRLMODE	IQUANT	1	Control Mode
IESTAB	IQUANT	0	I/E Stability
CASPEED	IQUANT	1	Control Amp Speed
CONVENTION	IQUANT	1	Current Convention
ICHRANGE	IQUANT	2	Ich Range
ICHRANGEMODE	TOGGLE	F	Ich Auto Range
ICHOFFSETENABLE	TOGGLE	T	Ich Offset Enable
ICHOFFSET	QUANT	0	Ich Offset (V)
ICHFILTER	IQUANT	3	Ich Filter
VCHRANGE	IQUANT	2	Vch Range
VCHRANGEMODE	TOGGLE	F	Vch Auto Range
VCHOFFSETENABLE	TOGGLE	T	Vch Offset Enable
VCHOFFSET	QUANT	0	Vch Offset (V)
VCHFILTER	IQUANT	3	Vch Filter
ACHRANGE	IQUANT	2	Ach Range
ACHOFFSETENABLE	TOGGLE	F	Ach Offset Enable
ACHOFFSET	QUANT	0	Ach Offset (V)
ACHFILTER	IQUANT	3	Ach Filter
IERANGELOWERLIMIT	IQUANT	1	I/E Range Lower Limit
IERANGEMODE	TOGGLE	F	I/E AutoRange
IERANGE	IQUANT	7	I/E Range
POSFEEDENABLE	TOGGLE	F	Positive Feedback IR Comp
POSFEEDRESISTANCE	QUANT	0	Positive Feedback Resistance (ohm)
ACHSELECT	IQUANT	0	Ach Select
CABLEID	IQUANT	14	Cable ID
DCCALDATE	LABEL	2/27/2020	DC Calibration Date
ACCALDATE	LABEL	2/27/2020	AC Calibration Date
THERMOSELECT	IQUANT	1	Thermo Select
FRAMEWORKVERSION	QUANT	6.33	Framework Version
INSTRUMENTVERSION	LABEL	3.50	Instrument Version
ZCURVE	TABLE
	Pt	Time	Freq	Zreal	Zimag	Zsig	Zmod	Zphz	Idc	Vdc	IERange
	#	s	Hz	ohm	ohm	V	ohm	°	A	V	#
	0	1	1000078	1711.287	-1674.939	1	2394.561	-44.385	1.766029E-008	0.094738	8
	1	1	794390.6	1932.207	-1827.782	1	2659.739	-43.40915	3.939932E-008	0.0943429	8
	2	1	630984.4	2168.408	-1998.84	1	2949.128	-42.66988	2.035859E-008	0.0941504	8
	3	2	501234.4	2422.996	-2198.97	1	3272.061	-42.22505	4.295278E-008	0.0940351	8
	4	2	398109.4	2706.676	-2426.914	1	3635.382	-41.88067	2.32688E-008	0.0939653	8
	5	2	316265.6	3031.292	-2676.164	1	4043.585	-41.43955	2.647108E-008	0.0939328	8
	6	3	251203.1	3400.901	-2966.018	1	4512.582	-41.09256	3.39523E-008	0.0939067	8
	7	3	199546.9	3821.115	-3263.008	1	5024.752	-40.49538	1.856412E-009	0.0939329	8
	8	3	158578.1	4310.853	-3580.993	1	5604.191	-39.71616	3.396115E-008	0.0939067	8
	9	3	125953.1	4943.529	-3835.218	1	6256.786	-37.80451	1.362355E-009	0.0938455	7
	10	4	100078.1	5525.614	-4136.761	1	6902.551	-36.82043	1.051202E-009	0.0938308	7
	11	4	79453.13	6178.478	-4440.801	1	7608.831	-35.70681	1.886621E-009	0.0938241	7
	12	4	63140.62	6868.103	-4710.5	1	8328.244	-34.44435	3.049915E-009	0.0938262	7
	13	5	50203.12	7582.473	-4967.278	1	9064.643	-33.22881	1.862869E-009	0.0938168	7
	14	5	39890.62	8309.635	-5218.92	1	9812.6	-32.13115	2.080238E-009	0.0938259	7
	15	5	31640.63	9056.834	-5487.546	1	10589.59	-31.21172	3.339172E-009	0.0938237	7
	16	6	25171.88	9790.77	-5762.043	1	11360.47	-30.47758	2.155094E-009	0.0938131	7
	17	6	20015.62	10546.62	-6100.589	1	12183.94	-30.04681	4.344138E-009	0.0938222	7
	18	6	15890.62	11318.26	-6483.335	1	13043.64	-29.80499	3.286188E-009	0.093818	7
	19	7	12609.37	12284.91	-6823.002	1	14052.49	-29.04766	8.55553E-010	0.093873	6
	20	7	10078.13	13127.08	-7389.048	1	15063.81	-29.37454	1.013064E-009	0.0938708	6
	21	7	8015.625	14042.27	-7998.19	1	16160.33	-29.66496	8.24914E-010	0.0938694	6
	22	8	6328.125	15120.91	-8766.395	1	17478.32	-30.10315	9.024189E-010	0.0938677	6
	23	8	5015.625	16310.74	-9595.17	1	18923.73	-30.46716	6.814556E-010	0.0938566	6
	24	8	3984.375	17635.56	-10520.66	1	20535.26	-30.81858	6.958308E-010	0.0938651	6
	25	9	3170.956	19072.52	-11469.86	1	22255.76	-31.02193	6.511279E-010	0.0938663	6
	26	9	2527.573	20632.2	-12487.82	1	24117.08	-31.18479	7.945812E-010	0.0938633	6
	27	9	1976.103	22439.35	-13640.34	1	26259.92	-31.29441	8.595769E-010	0.0938678	6
	28	10	1577.524	24190.07	-14745.87	1	28330.2	-31.3658	9.231638E-010	0.093862	6
	29	10	1265.625	25934.15	-15844.78	1	30391.4	-31.42335	5.231136E-010	0.093855	6
	30	10	998.264	27946.96	-17327.26	1	32882.62	-31.79912	8.753486E-010	0.0938657	6
	31	10	796.875	29811.25	-18780.64	1	35233.84	-32.21032	6.36257E-010	0.0938559	6
	32	11	627.7902	31893.52	-20699.27	1	38021.78	-32.98404	9.597348E-010	0.0938646	6
	33	11	505.5147	34011.03	-23116.17	1	41123.07	-34.20265	7.206416E-010	0.0938608	6
	34	11	397.9953	36349.3	-25783.39	1	44565.18	-35.34895	7.148164E-010	0.0938706	6
	35	12	315.5048	39223.01	-29650.18	1	49168.87	-37.08704	7.864009E-010	0.0938681	6
	36	12	252.4038	42432.87	-33998	1	54372.91	-38.70235	7.100922E-010	0.0938675	6
	37	12	198.6229	46417.18	-38652.34	1	60403.29	-39.7847	5.317516E-010	0.0938691	6
	38	13	158.3615	51381.32	-44478	1	67958.32	-40.88095	6.221212E-010	0.0938676	6
	39	13	125.558	57374.84	-50076.23	1	76154.45	-41.11415	4.554842E-010	0.0938637	6
	40	13	100.4464	64179.18	-55636.37	1	84937.46	-40.92173	5.45617E-010	0.0938628	6
	41	14	79.00281	73185.73	-62650.86	1	96339.4	-40.56528	4.41202E-010	0.0938604	6
	42	14	63.3446	82324.64	-68186.4	1	106895.9	-39.63367	2.947517E-010	0.0938631	5
	43	14	49.86702	92979.02	-74566.51	1	119185.8	-38.72861	1.915336E-011	0.0938617	5
	44	15	39.72458	102773.9	-79556.56	1	129968.2	-37.7432	4.598125E-010	0.0938669	5
	45	15	31.6723	113953.3	-86040.12	1	142787.5	-37.05453	3.883655E-010	0.0938646	5
	46	15	24.93351	125056.5	-92623.56	1	155622.2	-36.52563	5.050962E-010	0.093862	5
	47	16	19.86229	134970.1	-99113.3	1	167452.5	-36.29115	1.056336E-009	0.0938574	5
	48	16	15.83615	149227.6	-108943.9	1	184763.8	-36.13139	-3.318407E-010	0.0938569	5
	49	16	12.40079	159482.1	-119854.5	1	199498.5	-36.92572	-1.585168E-009	0.0938693	5
	50	17	9.93114	172379.8	-133317.9	1	217918.5	-37.71822	-1.369418E-009	0.0938654	5
	51	17	7.944915	183320.9	-147552.9	1	235326.1	-38.8302	-2.900582E-010	0.0938629	5
	52	17	6.317385	196439	-166196.5	1	257312.2	-40.23276	-1.376477E-010	0.0938597	5
	53	18	5.008013	213803.3	-190704.3	1	286496	-41.73173	-6.362875E-010	0.0938532	5
	54	19	3.945707	232918	-219638.6	1	320143.6	-43.31924	-1.362011E-010	0.0938683	5
	55	20	3.158693	252688.3	-253103.9	1	357649.3	-45.04708	-2.908789E-010	0.0938503	5
	56	21	2.504006	279195.9	-293581.1	1	405142.2	-46.43867	2.287341E-010	0.0938523	5
	57	22	1.998082	301657.1	-339706.3	1	454309.7	-48.39512	3.131238E-011	0.0938462	5
	58	24	1.584686	339386.3	-395245.3	1	520962.5	-49.34822	-2.145685E-010	0.0938093	5
	59	26	1.266892	373098.9	-459203.9	1	591668	-50.90646	-1.295265E-010	0.0938174	5
	60	28	0.999041	420841.8	-536810.4	1	682109.4	-51.90472	-1.401933E-010	0.0938433	5
