EXPLAIN
TAG	EISPOT
TITLE	LABEL	Potentiostatic EIS	Test &Identifier
DATE	LABEL	2/21/2020	Date
TIME	LABEL	18:16:27	Time
NOTES	NOTES	1	&Notes...
	
PSTAT	PSTAT	REF600-11020	Potentiostat
VDC	POTEN	0.00000E+000	T	DC &Voltage (V)
FREQINIT	QUANT	1.00000E+006	Initial Fre&q. (Hz)
FREQFINAL	QUANT	1.00000E+000	Final Fre&q. (Hz)
PTSPERDEC	QUANT	1.00000E+001	Points/&decade
VAC	QUANT	2.50000E+001	AC &Voltage (mV rms)
AREA	QUANT	2.08200E-005	&Area (cm^2)
CONDIT	TWOPARAM	F	1.50000E+001	0.00000E+000	Conditionin&g	Time(s)	E(V)
DELAY	TWOPARAM	F	1.00000E+002	0.00000E+000	Init. De&lay	Time(s)	Stab.(mV/s)
SPEED	SELECTOR	0	&Optimize for:
ZGUESS	QUANT	2.00000E+003	E&stimated Z (ohms)
OCVCURVE	TABLE	39
	Pt	T	Vf	Vm	Ach	Over
	#	s	V vs. Ref.	V	V	bits
	0	0.258333	1.30454E-001	1.30454E-001	5.57138E-004	...........
	1	0.516667	1.30453E-001	1.30414E-001	5.55871E-004	...........
	2	0.775	1.30449E-001	1.30383E-001	5.59004E-004	...........
	3	1.03333	1.30436E-001	1.30366E-001	5.63771E-004	...........
	4	1.29167	1.30417E-001	1.30363E-001	5.56471E-004	...........
	5	1.55	1.30395E-001	1.30348E-001	5.54038E-004	...........
	6	1.80833	1.30376E-001	1.30314E-001	5.57904E-004	...........
	7	2.06667	1.30359E-001	1.30311E-001	5.56771E-004	...........
	8	2.325	1.30342E-001	1.30293E-001	5.55304E-004	...........
	9	2.58333	1.30326E-001	1.30295E-001	5.55171E-004	...........
	10	2.84167	1.30311E-001	1.30282E-001	5.61971E-004	...........
	11	3.1	1.30300E-001	1.30264E-001	5.60404E-004	...........
	12	3.35833	1.30290E-001	1.30240E-001	5.55771E-004	...........
	13	3.61667	1.30278E-001	1.30241E-001	5.65371E-004	...........
	14	3.875	1.30264E-001	1.30236E-001	5.61938E-004	...........
	15	4.13333	1.30252E-001	1.30212E-001	5.56371E-004	...........
	16	4.39167	1.30241E-001	1.30219E-001	5.59704E-004	...........
	17	4.65	1.30231E-001	1.30195E-001	5.58638E-004	...........
	18	4.90833	1.30221E-001	1.30197E-001	5.50538E-004	...........
	19	5.16667	1.30212E-001	1.30178E-001	5.50005E-004	...........
	20	5.425	1.30202E-001	1.30190E-001	5.53605E-004	...........
	21	5.68333	1.30194E-001	1.30149E-001	5.58271E-004	...........
	22	5.94167	1.30185E-001	1.30178E-001	5.61538E-004	...........
	23	6.2	1.30177E-001	1.30139E-001	5.52938E-004	...........
	24	6.45833	1.30169E-001	1.30163E-001	5.56838E-004	...........
	25	6.71667	1.30162E-001	1.30124E-001	5.49738E-004	...........
	26	6.975	1.30155E-001	1.30144E-001	5.50271E-004	...........
	27	7.23333	1.30147E-001	1.30108E-001	5.52238E-004	...........
	28	7.49167	1.30140E-001	1.30142E-001	5.53371E-004	...........
	29	7.75	1.30133E-001	1.30118E-001	5.52805E-004	...........
	30	8.00833	1.30128E-001	1.30122E-001	5.55171E-004	...........
	31	8.26667	1.30126E-001	1.30120E-001	5.52038E-004	...........
	32	8.525	1.30124E-001	1.30136E-001	5.54405E-004	...........
	33	8.78333	1.30124E-001	1.30120E-001	5.60704E-004	...........
	34	9.04167	1.30124E-001	1.30104E-001	5.63304E-004	...........
	35	9.3	1.30123E-001	1.30104E-001	5.57171E-004	...........
	36	9.5583	1.30118E-001	1.30111E-001	5.56604E-004	...........
	37	9.8167	1.30113E-001	1.30105E-001	5.58238E-004	...........
	38	10.075	1.30108E-001	1.30080E-001	5.49505E-004	...........
EOC	QUANT	0.1301084	Open Circuit (V)
PSTATMODEL	IQUANT	4	Pstat Model
PSTATSECTION	LABEL	REF600-11020	Pstat Section
PSTATSERIALNO	LABEL	11020	Pstat Serial Number
CTRLMODE	IQUANT	1	Control Mode
IESTAB	IQUANT	0	I/E Stability
CASPEED	IQUANT	1	Control Amp Speed
CONVENTION	IQUANT	1	Current Convention
ICHRANGE	IQUANT	2	Ich Range
ICHRANGEMODE	TOGGLE	F	Ich Auto Range
ICHOFFSETENABLE	TOGGLE	T	Ich Offset Enable
ICHOFFSET	QUANT	0	Ich Offset (V)
ICHFILTER	IQUANT	3	Ich Filter
VCHRANGE	IQUANT	2	Vch Range
VCHRANGEMODE	TOGGLE	F	Vch Auto Range
VCHOFFSETENABLE	TOGGLE	T	Vch Offset Enable
VCHOFFSET	QUANT	0	Vch Offset (V)
VCHFILTER	IQUANT	3	Vch Filter
ACHRANGE	IQUANT	2	Ach Range
ACHOFFSETENABLE	TOGGLE	F	Ach Offset Enable
ACHOFFSET	QUANT	0	Ach Offset (V)
ACHFILTER	IQUANT	3	Ach Filter
IERANGELOWERLIMIT	IQUANT	1	I/E Range Lower Limit
IERANGEMODE	TOGGLE	F	I/E AutoRange
IERANGE	IQUANT	8	I/E Range
POSFEEDENABLE	TOGGLE	F	Positive Feedback IR Comp
POSFEEDRESISTANCE	QUANT	0	Positive Feedback Resistance (ohm)
ACHSELECT	IQUANT	0	Ach Select
CABLEID	IQUANT	14	Cable ID
DCCALDATE	LABEL	1/27/2020	DC Calibration Date
ACCALDATE	LABEL	1/27/2020	AC Calibration Date
THERMOSELECT	IQUANT	1	Thermo Select
FRAMEWORKVERSION	QUANT	6.33	Framework Version
INSTRUMENTVERSION	LABEL	3.50	Instrument Version
ZCURVE	TABLE
	Pt	Time	Freq	Zreal	Zimag	Zsig	Zmod	Zphz	Idc	Vdc	IERange
	#	s	Hz	ohm	ohm	V	ohm	°	A	V	#
	0	1	1000078	1467.908	-823.3796	1	1683.065	-29.28896	9.120077E-007	0.1320067	8
	1	2	794390.6	1604.234	-802.7596	1	1793.876	-26.5834	8.356299E-008	0.131778	8
	2	2	630984.4	1729.988	-777.5123	1	1896.677	-24.20069	1.011765E-006	0.1314721	8
	3	2	501234.4	1849.594	-747.7251	1	1995.016	-22.01174	-8.604547E-007	0.1316632	8
	4	2	398109.4	1951.729	-715.2267	1	2078.652	-20.12576	1.008568E-006	0.1313561	8
	5	3	316265.6	2046.069	-689.5398	1	2159.135	-18.62418	1.306056E-006	0.131366	8
	6	3	251203.1	2135.772	-666.8255	1	2237.449	-17.33928	-1.246571E-006	0.1317939	8
	7	3	199546.9	2222.76	-646.0707	1	2314.751	-16.20711	-6.428296E-007	0.1315894	8
	8	4	158578.1	2304.908	-637.5378	1	2391.455	-15.46145	-6.45011E-007	0.1315745	8
	9	4	125953.1	2387.042	-623.6986	1	2467.179	-14.64316	7.566153E-008	0.131281	7
	10	4	100078.1	2464.372	-626.2098	1	2542.689	-14.25741	-2.06223E-009	0.1314621	7
	11	5	79453.13	2538.72	-642.295	1	2618.71	-14.19788	-1.022584E-008	0.1314781	7
	12	5	63140.62	2614.136	-666.7236	1	2697.819	-14.308	-1.32824E-008	0.131477	7
	13	5	50203.12	2693.356	-697.7106	1	2782.259	-14.52316	-8.694178E-009	0.1314804	7
	14	6	39890.62	2773.59	-736.1508	1	2869.62	-14.86441	4.191428E-008	0.1313821	7
	15	6	31640.63	2858.656	-784.6206	1	2964.38	-15.34811	4.381769E-008	0.1313808	7
	16	6	25171.88	2942.672	-845.2535	1	3061.662	-16.02619	-2.53864E-009	0.131487	7
	17	7	20015.62	3033.268	-920.5129	1	3169.867	-16.88159	-2.833983E-009	0.1314462	7
	18	7	15890.62	3128.29	-1017.7	1	3289.667	-18.02082	4.105322E-008	0.131377	7
	19	7	12609.37	3232.742	-1134.643	1	3426.082	-19.34029	1.65882E-009	0.1314121	7
	20	8	10078.13	3350.188	-1273.253	1	3583.983	-20.8095	-3.538791E-009	0.1314828	7
	21	8	8015.625	3486.711	-1440.032	1	3772.379	-22.44092	-4.082624E-009	0.131442	7
	22	8	6328.125	3653.028	-1643.392	1	4005.665	-24.22161	-8.684809E-009	0.131448	7
	23	8	5015.625	3846.364	-1874.769	1	4278.934	-25.98522	-1.29182E-008	0.1314645	7
	24	9	3984.375	4075.206	-2126.269	1	4596.555	-27.55364	5.342118E-009	0.1314301	7
	25	9	3170.956	4339.44	-2404.657	1	4961.161	-28.99259	-2.25695E-008	0.1314724	7
	26	9	2527.573	4637.475	-2701.529	1	5366.976	-30.22264	-1.102887E-008	0.1314575	7
	27	10	1976.103	4999.435	-3042.252	1	5852.319	-31.32132	1.214306E-008	0.1314115	7
	28	10	1577.524	5351.024	-3376.517	1	6327.268	-32.25208	-2.227883E-008	0.1314666	7
	29	10	1265.625	5704.429	-3736.207	1	6819.073	-33.22344	9.814224E-009	0.1314154	7
	30	11	998.264	6088.39	-4181.85	1	7386.228	-34.48348	-7.876374E-009	0.1314291	7
	31	11	796.875	6450.869	-4698.179	1	7980.389	-36.06592	-3.791392E-009	0.1314473	7
	32	11	627.7902	6805.635	-5351.384	1	8657.597	-38.17856	4.746712E-009	0.1313971	7
	33	12	505.5147	7140.523	-6107.066	1	9395.921	-40.53934	2.52511E-009	0.1313985	7
	34	12	397.9953	7524.271	-7164.939	1	10389.95	-43.59869	1.077661E-009	0.1314468	6
	35	12	315.5048	7917.767	-8464.861	1	11590.72	-46.91267	9.274598E-010	0.1314474	6
	36	13	252.4038	8335.369	-10027.34	1	13039.4	-50.26445	1.117168E-009	0.1314444	6
	37	13	198.6229	8862.646	-12127.59	1	15020.82	-53.84127	8.423385E-010	0.1314459	6
	38	13	158.3615	9460.688	-14590.64	1	17389.4	-57.0403	9.259605E-010	0.1314433	6
	39	14	125.558	10226.87	-17707.15	1	20448.28	-59.99118	6.008739E-010	0.1314404	6
	40	14	100.4464	11147.83	-21404.08	1	24133.15	-62.48826	8.239442E-010	0.1314413	6
	41	14	79.00281	12333.66	-26224.55	1	28980.1	-64.81194	1.91014E-010	0.1314381	6
	42	15	63.3446	14088.91	-31631.36	1	34627.16	-65.99135	4.74123E-010	0.131438	6
	43	15	49.86702	16036.2	-38853.98	1	42033.22	-67.57259	1.166564E-010	0.1314358	6
	44	15	39.72458	18386.08	-46983.48	1	50452.9	-68.62807	6.591065E-010	0.131439	6
	45	16	31.6723	21457.03	-56773.82	1	60693.25	-69.29647	6.609747E-010	0.1314448	6
	46	16	24.93351	25836.86	-69267.51	1	73929.23	-69.54443	8.996383E-010	0.131437	6
	47	16	19.86229	31062.79	-83432.17	1	89027.1	-69.5791	1.189332E-009	0.131445	6
	48	16	15.83615	38279.4	-100147.9	1	107214.3	-69.0817	-1.011239E-009	0.1314403	5
	49	17	12.40079	47796.68	-121369.1	1	130441.5	-68.50485	-1.40365E-009	0.1314421	5
	50	17	9.93114	57676.89	-143960.2	1	155084.4	-68.16676	6.674759E-010	0.1314424	5
	51	18	7.944915	70967.5	-170164	1	184369.7	-67.36125	6.871538E-010	0.1314382	5
	52	18	6.317385	87886.38	-201665.7	1	219984.2	-66.45232	4.067179E-010	0.1314308	5
	53	19	5.008013	109071.7	-238107.4	1	261900.3	-65.38853	3.988041E-010	0.1314445	5
	54	20	3.945707	135501.8	-280463	1	311480.7	-64.21314	1.04987E-010	0.1314375	5
	55	21	3.158693	165366.2	-325265.4	1	364888.5	-63.05104	-7.934862E-011	0.1314275	5
	56	23	2.504006	202317	-377161.1	1	427998.4	-61.78997	1.914429E-010	0.1314274	5
	57	24	1.998082	242607.9	-433630.1	1	496884	-60.77381	1.380668E-010	0.1314426	5
	58	26	1.584686	292472.4	-498586.2	1	578038.3	-59.60397	-3.893392E-012	0.1313957	5
	59	28	1.266892	345809	-570759.1	1	667345.3	-58.78935	-1.905734E-011	0.1313911	5
	60	30	0.999041	408174.6	-656969.4	1	773443.8	-58.14735	-3.388755E-011	0.1314024	5
