EXPLAIN
TAG	EISPOT
TITLE	LABEL	Potentiostatic EIS	Test &Identifier
DATE	LABEL	1/28/2020	Date
TIME	LABEL	12:16:39	Time
NOTES	NOTES	6	&Notes...
	
	
	
	
	
	
PSTAT	PSTAT	REF600-11020	Potentiostat
VDC	POTEN	0.00000E+000	T	DC &Voltage (V)
FREQINIT	QUANT	1.00000E+006	Initial Fre&q. (Hz)
FREQFINAL	QUANT	1.00000E+000	Final Fre&q. (Hz)
PTSPERDEC	QUANT	1.00000E+001	Points/&decade
VAC	QUANT	2.50000E+001	AC &Voltage (mV rms)
AREA	QUANT	1.60000E-004	&Area (cm^2)
CONDIT	TWOPARAM	F	5.00000E+000	0.00000E+000	Conditionin&g	Time(s)	E(V)
DELAY	TWOPARAM	F	5.00000E+000	0.00000E+000	Init. De&lay	Time(s)	Stab.(mV/s)
SPEED	SELECTOR	0	&Optimize for:
ZGUESS	QUANT	1.00000E+003	E&stimated Z (ohms)
OCVCURVE	TABLE	39
	Pt	T	Vf	Vm	Ach	Over
	#	s	V vs. Ref.	V	V	bits
	0	0.258333	1.16717E-001	1.16717E-001	5.75471E-004	...........
	1	0.516667	1.16714E-001	1.16570E-001	5.78771E-004	...........
	2	0.775	1.16705E-001	1.16881E-001	5.79171E-004	...........
	3	1.03333	1.16723E-001	1.17876E-001	5.76104E-004	...........
	4	1.29167	1.16838E-001	1.17305E-001	5.78137E-004	...........
	5	1.55	1.17050E-001	1.17088E-001	5.74937E-004	...........
	6	1.80833	1.17232E-001	1.17107E-001	5.72904E-004	...........
	7	2.06667	1.17284E-001	1.17261E-001	5.72838E-004	...........
	8	2.325	1.17251E-001	1.17343E-001	5.78371E-004	...........
	9	2.58333	1.17227E-001	1.17401E-001	5.76804E-004	...........
	10	2.84167	1.17253E-001	1.17455E-001	5.80071E-004	...........
	11	3.1	1.17313E-001	1.17505E-001	5.75004E-004	...........
	12	3.35833	1.17386E-001	1.17781E-001	5.80637E-004	...........
	13	3.61667	1.17474E-001	1.18003E-001	5.75238E-004	...........
	14	3.875	1.17592E-001	1.17764E-001	5.76904E-004	...........
	15	4.13333	1.17721E-001	1.18112E-001	5.75671E-004	...........
	16	4.39167	1.17842E-001	1.18516E-001	5.76171E-004	...........
	17	4.65	1.17977E-001	1.18504E-001	5.78304E-004	...........
	18	4.90833	1.18145E-001	1.18425E-001	5.74637E-004	...........
	19	5.16667	1.18304E-001	1.18314E-001	5.71571E-004	...........
	20	5.425	1.18393E-001	1.18225E-001	5.80371E-004	...........
	21	5.68333	1.18395E-001	1.18190E-001	5.77371E-004	...........
	22	5.94167	1.18338E-001	1.18068E-001	5.77871E-004	...........
	23	6.2	1.18259E-001	1.17998E-001	5.75471E-004	...........
	24	6.45833	1.18172E-001	1.17857E-001	5.74004E-004	...........
	25	6.71667	1.18080E-001	1.17709E-001	5.75304E-004	...........
	26	6.975	1.17981E-001	1.17892E-001	5.78937E-004	...........
	27	7.23333	1.17896E-001	1.17921E-001	5.71471E-004	...........
	28	7.49167	1.17852E-001	1.17830E-001	5.72304E-004	...........
	29	7.75	1.17847E-001	1.17836E-001	5.73838E-004	...........
	30	8.00833	1.17862E-001	1.18272E-001	5.78871E-004	...........
	31	8.26667	1.17903E-001	1.18244E-001	5.73438E-004	...........
	32	8.525	1.17988E-001	1.18179E-001	5.80137E-004	...........
	33	8.78333	1.18092E-001	1.18266E-001	5.80171E-004	...........
	34	9.04167	1.18173E-001	1.18242E-001	5.80971E-004	...........
	35	9.3	1.18212E-001	1.17928E-001	5.80471E-004	...........
	36	9.5583	1.18201E-001	1.17934E-001	5.80437E-004	...........
	37	9.8167	1.18138E-001	1.17873E-001	5.79204E-004	...........
	38	10.075	1.18046E-001	1.17861E-001	5.80337E-004	...........
EOC	QUANT	0.1180459	Open Circuit (V)
PSTATMODEL	IQUANT	4	Pstat Model
PSTATSECTION	LABEL	REF600-11020	Pstat Section
PSTATSERIALNO	LABEL	11020	Pstat Serial Number
CTRLMODE	IQUANT	1	Control Mode
IESTAB	IQUANT	0	I/E Stability
CASPEED	IQUANT	1	Control Amp Speed
CONVENTION	IQUANT	1	Current Convention
ICHRANGE	IQUANT	2	Ich Range
ICHRANGEMODE	TOGGLE	F	Ich Auto Range
ICHOFFSETENABLE	TOGGLE	T	Ich Offset Enable
ICHOFFSET	QUANT	0	Ich Offset (V)
ICHFILTER	IQUANT	3	Ich Filter
VCHRANGE	IQUANT	2	Vch Range
VCHRANGEMODE	TOGGLE	F	Vch Auto Range
VCHOFFSETENABLE	TOGGLE	T	Vch Offset Enable
VCHOFFSET	QUANT	0	Vch Offset (V)
VCHFILTER	IQUANT	3	Vch Filter
ACHRANGE	IQUANT	2	Ach Range
ACHOFFSETENABLE	TOGGLE	F	Ach Offset Enable
ACHOFFSET	QUANT	0	Ach Offset (V)
ACHFILTER	IQUANT	3	Ach Filter
IERANGELOWERLIMIT	IQUANT	1	I/E Range Lower Limit
IERANGEMODE	TOGGLE	F	I/E AutoRange
IERANGE	IQUANT	8	I/E Range
POSFEEDENABLE	TOGGLE	F	Positive Feedback IR Comp
POSFEEDRESISTANCE	QUANT	0	Positive Feedback Resistance (ohm)
ACHSELECT	IQUANT	0	Ach Select
CABLEID	IQUANT	14	Cable ID
DCCALDATE	LABEL	1/27/2020	DC Calibration Date
ACCALDATE	LABEL	1/27/2020	AC Calibration Date
THERMOSELECT	IQUANT	1	Thermo Select
FRAMEWORKVERSION	QUANT	6.33	Framework Version
INSTRUMENTVERSION	LABEL	3.50	Instrument Version
ZCURVE	TABLE
	Pt	Time	Freq	Zreal	Zimag	Zsig	Zmod	Zphz	Idc	Vdc	IERange
	#	s	Hz	ohm	ohm	V	ohm	°	A	V	#
	0	1	1000078	1756.078	-1641.102	1	2403.544	-43.06159	7.311048E-006	0.1192939	8
	1	1	794390.6	2018.101	-1769.603	1	2684.069	-41.2464	1.553705E-007	0.1193601	8
	2	1	630984.4	2318.845	-1881.024	1	2985.848	-39.04862	1.612865E-006	0.1194636	8
	3	2	501234.4	2658.852	-1977.269	1	3313.47	-36.63654	-1.259476E-006	0.119765	8
	4	2	398109.4	2998.549	-2050.85	1	3632.806	-34.37007	-3.58886E-007	0.1196576	8
	5	2	316265.6	3376.791	-2069.811	1	3960.661	-31.5063	-1.183807E-006	0.1198525	8
	6	3	251203.1	3741.013	-2066.876	1	4274.009	-28.92026	3.425505E-007	0.11953	8
	7	3	199546.9	4100.898	-2036.798	1	4578.855	-26.41227	-8.492095E-007	0.1196828	8
	8	3	158578.1	4450.199	-1984.871	1	4872.78	-24.03775	3.969596E-006	0.1188892	8
	9	4	125953.1	4777.889	-1844.522	1	5121.571	-21.10927	4.243664E-007	0.1183397	7
	10	4	100078.1	5063.785	-1756.253	1	5359.696	-19.12789	1.260316E-009	0.1194821	7
	11	4	79453.13	5320.846	-1667.76	1	5576.094	-17.40301	-1.767352E-008	0.1196122	7
	12	5	63140.62	5546.699	-1576.787	1	5766.465	-15.86912	-2.039576E-008	0.1195321	7
	13	5	50203.12	5750.685	-1495.782	1	5942.032	-14.57985	1.222808E-009	0.1194685	7
	14	5	39890.62	5938.143	-1426.452	1	6107.07	-13.50757	6.61394E-008	0.1193838	7
	15	6	31640.63	6108.041	-1372.871	1	6260.427	-12.66754	4.105693E-008	0.1193974	7
	16	6	25171.88	6270.331	-1338.597	1	6411.621	-12.05067	6.788902E-008	0.1193901	7
	17	6	20015.62	6418.443	-1318.274	1	6552.423	-11.60648	-4.278714E-008	0.1196059	7
	18	6	15890.62	6568.033	-1326.005	1	6700.548	-11.41389	-1.095327E-008	0.1195503	7
	19	7	12609.37	6715.093	-1350.215	1	6849.493	-11.36897	2.640507E-008	0.1194882	7
	20	7	10078.13	6852.952	-1389.149	1	6992.33	-11.45905	-3.131216E-008	0.1195279	7
	21	7	8015.625	7008.578	-1463.048	1	7159.656	-11.79122	-3.654443E-008	0.1195417	7
	22	8	6328.125	7182.292	-1561.618	1	7350.1	-12.26668	5.310218E-008	0.1195019	7
	23	8	5015.625	7358.449	-1682.906	1	7548.44	-12.88222	5.315091E-008	0.1194986	7
	24	8	3984.375	7547.8	-1830.019	1	7766.482	-13.62878	5.3856E-008	0.1194952	7
	25	9	3170.956	7753.55	-1995.303	1	8006.171	-14.4314	-2.150817E-008	0.1195079	7
	26	9	2527.573	7977.7	-2193.924	1	8273.875	-15.37663	3.407577E-009	0.1195254	7
	27	9	1976.103	8234.734	-2435.861	1	8587.448	-16.47838	2.746475E-008	0.1194806	7
	28	10	1577.524	8463.741	-2672.261	1	8875.579	-17.5225	4.361619E-009	0.1195232	7
	29	10	1265.625	8743.78	-2984.095	1	9238.967	-18.84385	1.025497E-008	0.1193846	6
	30	10	998.264	9030.546	-3365.453	1	9637.27	-20.43913	-4.543863E-009	0.1195523	6
	31	11	796.875	9311.031	-3803.733	1	10058.02	-22.22095	1.35901E-009	0.1194314	6
	32	11	627.7902	9626.48	-4370.937	1	10572.33	-24.42059	-6.609748E-009	0.1195621	6
	33	11	505.5147	9926.09	-5004.176	1	11116.17	-26.75466	1.427773E-009	0.1195324	6
	34	12	397.9953	10281.43	-5863.979	1	11836.13	-29.69812	8.054201E-010	0.11951	6
	35	12	315.5048	10660.08	-6894.379	1	12695.27	-32.89265	1.075443E-009	0.1195115	6
	36	12	252.4038	11067.17	-8106.942	1	13718.77	-36.22358	1.054661E-009	0.1195046	6
	37	13	198.6229	11552.09	-9709.88	1	15090.82	-40.04807	8.003456E-010	0.1195063	6
	38	13	158.3615	12071	-11572.99	1	16722.53	-43.79336	3.779033E-010	0.1195063	6
	39	13	125.558	12673.03	-13923.99	1	18827.72	-47.69284	6.121652E-010	0.1195121	6
	40	14	100.4464	13348.09	-16682.08	1	21365.01	-51.33511	8.610015E-010	0.1195034	6
	41	14	79.00281	14186.17	-20415.66	1	24860.54	-55.20583	3.298339E-010	0.1195003	6
	42	14	63.3446	15068.39	-24419.34	1	28694.26	-58.3226	1.139209E-009	0.1194975	6
	43	15	49.86702	16378.68	-30020.86	1	34198.14	-61.38416	1.204686E-009	0.1194967	6
	44	15	39.72458	17841.01	-36682.75	1	40791.24	-64.06358	5.309646E-010	0.1195072	6
	45	15	31.6723	19781.58	-44655.7	1	48840.99	-66.10761	2.22976E-010	0.1194966	6
	46	16	24.93351	22283.77	-54774.69	1	59134.03	-67.86223	1.013567E-009	0.1194974	6
	47	16	19.86229	25270.07	-66545.17	1	71181.71	-69.20608	9.315644E-010	0.1195057	6
	48	16	15.83615	29034.54	-81157.05	1	86194.38	-70.31496	3.416452E-010	0.1194998	6
	49	16	12.40079	34961.34	-99256.9	1	105234.2	-70.59617	2.319006E-009	0.1194994	6
	50	17	9.93114	40454.89	-119657.9	1	126311.5	-71.32022	7.775776E-010	0.1194925	5
	51	17	7.944915	48162.01	-144269.1	1	152095.8	-71.53921	2.624976E-010	0.1195014	5
	52	18	6.317385	57865.56	-174748.4	1	184079.9	-71.67841	2.953842E-011	0.1195069	5
	53	19	5.008013	70727.99	-211824.3	1	223320.4	-71.53587	6.649566E-011	0.1195015	5
	54	20	3.945707	87030.27	-257674.6	1	271975.1	-71.33747	-5.333312E-011	0.1194836	5
	55	21	3.158693	107302.5	-308330.8	1	326468.6	-70.81155	2.32412E-010	0.1194882	5
	56	23	2.504006	133738.6	-370683.2	1	394071.1	-70.16109	1.916907E-010	0.1195008	5
	57	24	1.998082	166649.8	-442220.6	1	472579.3	-69.3512	3.174491E-011	0.1194486	5
	58	26	1.584686	208557.1	-526823.7	1	566603.3	-68.40255	9.135305E-011	0.1194779	5
	59	28	1.266892	261775.2	-621244.2	1	674144.4	-67.15078	1.345887E-010	0.1195105	5
	60	30	0.999041	331711.2	-736453.1	1	807710	-65.75237	1.517948E-010	0.1195295	5
