EXPLAIN
TAG	EISPOT
TITLE	LABEL	Potentiostatic EIS	Test &Identifier
DATE	LABEL	2/28/2020	Date
TIME	LABEL	17:10:01	Time
NOTES	NOTES	1	&Notes...
	
PSTAT	PSTAT	REF600-11020	Potentiostat
VDC	POTEN	0.00000E+000	T	DC &Voltage (V)
FREQINIT	QUANT	1.00000E+006	Initial Fre&q. (Hz)
FREQFINAL	QUANT	1.00000E+000	Final Fre&q. (Hz)
PTSPERDEC	QUANT	1.00000E+001	Points/&decade
VAC	QUANT	2.50000E+001	AC &Voltage (mV rms)
AREA	QUANT	1.60000E-004	&Area (cm^2)
CONDIT	TWOPARAM	F	1.50000E+001	0.00000E+000	Conditionin&g	Time(s)	E(V)
DELAY	TWOPARAM	F	1.00000E+002	0.00000E+000	Init. De&lay	Time(s)	Stab.(mV/s)
SPEED	SELECTOR	1	&Optimize for:
ZGUESS	QUANT	1.00000E+003	E&stimated Z (ohms)
OCVCURVE	TABLE	39
	Pt	T	Vf	Vm	Ach	Over
	#	s	V vs. Ref.	V	V	bits
	0	0.258333	-8.09380E-002	-8.09380E-002	6.08163E-004	...........
	1	0.516667	-8.09116E-002	-7.95543E-002	6.08329E-004	...........
	2	0.775	-8.07627E-002	-7.89480E-002	6.13196E-004	...........
	3	1.03333	-8.04124E-002	-7.97236E-002	6.16529E-004	...........
	4	1.29167	-7.99858E-002	-8.04912E-002	6.10729E-004	...........
	5	1.55	-7.97567E-002	-8.05696E-002	6.09163E-004	...........
	6	1.80833	-7.98561E-002	-8.11526E-002	6.16096E-004	...........
	7	2.06667	-8.01800E-002	-8.09732E-002	6.18863E-004	...........
	8	2.325	-8.05386E-002	-8.06969E-002	6.09563E-004	...........
	9	2.58333	-8.07789E-002	-8.05628E-002	6.15263E-004	...........
	10	2.84167	-8.08452E-002	-8.07273E-002	6.21429E-004	...........
	11	3.1	-8.08003E-002	-8.09392E-002	6.18896E-004	...........
	12	3.35833	-8.07548E-002	-8.07881E-002	6.07463E-004	...........
	13	3.61667	-8.07572E-002	-8.06821E-002	6.08396E-004	...........
	14	3.875	-8.07740E-002	-8.06777E-002	6.25696E-004	...........
	15	4.13333	-8.07653E-002	-8.06612E-002	6.17263E-004	...........
	16	4.39167	-8.07324E-002	-8.06629E-002	6.10196E-004	...........
	17	4.65	-8.06978E-002	-8.06596E-002	6.12296E-004	...........
	18	4.90833	-8.06740E-002	-8.06243E-002	6.18329E-004	...........
	19	5.16667	-8.06590E-002	-8.06085E-002	6.14029E-004	...........
	20	5.425	-8.06453E-002	-8.05853E-002	6.04696E-004	...........
	21	5.68333	-8.06302E-002	-8.06475E-002	6.15863E-004	...........
	22	5.94167	-8.06192E-002	-8.06450E-002	6.12029E-004	...........
	23	6.2	-8.06183E-002	-8.06295E-002	6.11029E-004	...........
	24	6.45833	-8.06260E-002	-8.06782E-002	6.09363E-004	...........
	25	6.71667	-8.06361E-002	-8.06362E-002	6.19763E-004	...........
	26	6.975	-8.06445E-002	-8.06370E-002	6.20229E-004	...........
	27	7.23333	-8.06473E-002	-8.06073E-002	6.07596E-004	...........
	28	7.49167	-8.06426E-002	-8.06171E-002	6.00896E-004	...........
	29	7.75	-8.06324E-002	-8.05880E-002	6.16129E-004	...........
	30	8.00833	-8.06202E-002	-8.05819E-002	6.23929E-004	...........
	31	8.26667	-8.06077E-002	-8.05807E-002	6.12329E-004	...........
	32	8.525	-8.05961E-002	-8.05675E-002	6.08829E-004	...........
	33	8.78333	-8.05859E-002	-8.05536E-002	6.22663E-004	...........
	34	9.04167	-8.05766E-002	-8.05472E-002	6.20529E-004	...........
	35	9.3	-8.05672E-002	-8.05427E-002	6.09896E-004	...........
	36	9.5583	-8.05575E-002	-8.05188E-002	6.12796E-004	...........
	37	9.8167	-8.05487E-002	-8.05658E-002	6.24063E-004	...........
	38	10.075	-8.05433E-002	-8.05656E-002	6.16963E-004	...........
EOC	QUANT	-0.0805433	Open Circuit (V)
PSTATMODEL	IQUANT	4	Pstat Model
PSTATSECTION	LABEL	REF600-11020	Pstat Section
PSTATSERIALNO	LABEL	11020	Pstat Serial Number
CTRLMODE	IQUANT	1	Control Mode
IESTAB	IQUANT	0	I/E Stability
CASPEED	IQUANT	1	Control Amp Speed
CONVENTION	IQUANT	1	Current Convention
ICHRANGE	IQUANT	2	Ich Range
ICHRANGEMODE	TOGGLE	F	Ich Auto Range
ICHOFFSETENABLE	TOGGLE	T	Ich Offset Enable
ICHOFFSET	QUANT	0	Ich Offset (V)
ICHFILTER	IQUANT	3	Ich Filter
VCHRANGE	IQUANT	2	Vch Range
VCHRANGEMODE	TOGGLE	F	Vch Auto Range
VCHOFFSETENABLE	TOGGLE	T	Vch Offset Enable
VCHOFFSET	QUANT	0	Vch Offset (V)
VCHFILTER	IQUANT	3	Vch Filter
ACHRANGE	IQUANT	2	Ach Range
ACHOFFSETENABLE	TOGGLE	F	Ach Offset Enable
ACHOFFSET	QUANT	0	Ach Offset (V)
ACHFILTER	IQUANT	3	Ach Filter
IERANGELOWERLIMIT	IQUANT	1	I/E Range Lower Limit
IERANGEMODE	TOGGLE	F	I/E AutoRange
IERANGE	IQUANT	8	I/E Range
POSFEEDENABLE	TOGGLE	F	Positive Feedback IR Comp
POSFEEDRESISTANCE	QUANT	0	Positive Feedback Resistance (ohm)
ACHSELECT	IQUANT	0	Ach Select
CABLEID	IQUANT	14	Cable ID
DCCALDATE	LABEL	2/27/2020	DC Calibration Date
ACCALDATE	LABEL	2/27/2020	AC Calibration Date
THERMOSELECT	IQUANT	1	Thermo Select
FRAMEWORKVERSION	QUANT	6.33	Framework Version
INSTRUMENTVERSION	LABEL	3.50	Instrument Version
ZCURVE	TABLE
	Pt	Time	Freq	Zreal	Zimag	Zsig	Zmod	Zphz	Idc	Vdc	IERange
	#	s	Hz	ohm	ohm	V	ohm	°	A	V	#
	0	2	1000078	1979.642	-2418.778	1	3125.615	-50.70149	2.491722E-007	-0.0782964	8
	1	3	794390.6	2432.251	-2613.958	1	3570.521	-47.06226	-7.880585E-008	-0.0783105	8
	2	4	630984.4	2912.067	-2780.381	1	4026.246	-43.67479	4.230686E-006	-0.0794052	8
	3	6	501234.4	3404.861	-2891.945	1	4467.261	-40.34317	-2.958061E-006	-0.0782733	8
	4	7	398109.4	3906.343	-2966.991	1	4905.36	-37.21782	-6.846329E-008	-0.0787969	8
	5	8	316265.6	4407.443	-2983.809	1	5322.468	-34.09773	-2.125498E-006	-0.0784231	8
	6	10	251203.1	4872.293	-2986.803	1	5714.914	-31.50905	-2.822166E-006	-0.0781994	8
	7	11	199546.9	5352.015	-2950.743	1	6111.542	-28.8694	3.191761E-007	-0.0789669	8
	8	13	158578.1	5711.523	-2963.509	1	6434.585	-27.42321	3.506818E-008	-0.078951	8
	9	14	125953.1	6177.032	-2890.974	1	6820.078	-25.08053	5.280195E-007	-0.0796685	7
	10	16	100078.1	6520.608	-2920.84	1	7144.903	-24.12951	-1.401945E-009	-0.0789088	7
	11	17	79453.13	6873.962	-3004.323	1	7501.821	-23.60814	1.086526E-007	-0.0791331	7
	12	18	63140.62	7226.829	-3124.592	1	7873.381	-23.38173	7.11192E-008	-0.0790174	7
	13	20	50203.12	7584.308	-3289.515	1	8266.961	-23.44765	4.983927E-008	-0.0790938	7
	14	21	39890.62	7958.413	-3510.57	1	8698.301	-23.80296	1.092042E-007	-0.0791371	7
	15	22	31640.63	8360.357	-3787.97	1	9178.469	-24.37467	-1.162679E-008	-0.0790148	7
	16	24	25171.88	8780.415	-4125.071	1	9701.13	-25.16431	2.561018E-008	-0.0789288	7
	17	25	20015.62	9247.105	-4520.801	1	10293.04	-26.05347	6.999919E-008	-0.0791017	7
	18	27	15890.62	9747.99	-4998.927	1	10955.03	-27.14948	5.094769E-008	-0.0791065	7
	19	28	12609.37	10392.04	-5465.339	1	11741.57	-27.7406	1.335121E-008	-0.0791057	6
	20	29	10078.13	10984.54	-6114.902	1	12571.88	-29.10393	-6.386614E-009	-0.0788178	6
	21	31	8015.625	11659.36	-6895.561	1	13545.83	-30.60084	3.282419E-009	-0.0789101	6
	22	32	6328.125	12451.95	-7807.719	1	14697.33	-32.08885	-4.412784E-009	-0.0788846	6
	23	33	5015.625	13331.46	-8848.204	1	16000.58	-33.57257	9.915448E-009	-0.0790047	6
	24	35	3984.375	14326.69	-10020.48	1	17483.25	-34.97	5.731478E-009	-0.0789203	6
	25	36	3170.956	15447.17	-11375.2	1	19183.59	-36.36771	-8.73318E-009	-0.0788311	6
	26	37	2527.573	16704.25	-12905.78	1	21109.03	-37.68984	-1.897316E-009	-0.0788176	6
	27	39	1976.103	18252.58	-14815.42	1	23508.58	-39.06586	9.430992E-009	-0.079003	6
	28	40	1577.524	19916.25	-16826.36	1	26072.65	-40.19299	9.410347E-009	-0.0790001	6
	29	41	1265.625	21754.91	-18998.63	1	28882.94	-41.13083	3.680956E-010	-0.0790499	6
	30	43	998.264	23993.7	-21711.35	1	32358.62	-42.14122	-2.486365E-009	-0.078936	6
	31	44	796.875	26462.47	-24635.44	1	36154.77	-42.95224	-4.400163E-009	-0.0789832	6
	32	46	627.7902	29314.13	-28143.62	1	40637.2	-43.83295	6.506694E-010	-0.0790512	6
	33	47	505.5147	32393.02	-31789.14	1	45385.64	-44.46093	-4.076997E-009	-0.0788424	6
	34	48	397.9953	36191.51	-36309.84	1	51266.26	-45.09351	1.239181E-009	-0.0789237	6
	35	50	315.5048	40423.69	-41342	1	57820.72	-45.64346	4.207187E-010	-0.0789276	6
	36	51	252.4038	45043.08	-46817.93	1	64967.66	-46.10688	4.266575E-010	-0.0789293	6
	37	52	198.6229	50706.76	-53486.18	1	73701.74	-46.52805	1.426363E-010	-0.0789282	6
	38	54	158.3615	56830.8	-60634.11	1	83103.76	-46.85449	1.3514E-010	-0.0789304	6
	39	55	125.558	64094.43	-69039.33	1	94204.7	-47.12712	1.968391E-010	-0.0789217	6
	40	56	100.4464	72197.49	-77780.05	1	106123.6	-47.13171	-4.502083E-010	-0.0789279	5
	41	58	79.00281	82061.63	-88448.64	1	120653.5	-47.1452	-1.253435E-010	-0.0789282	5
	42	59	63.3446	92232.85	-98257.1	1	134764.1	-46.81139	-1.470195E-010	-0.078938	5
	43	61	49.86702	107137.3	-114378.1	1	156718.7	-46.8722	1.863823E-010	-0.0789342	5
	44	62	39.72458	120311.6	-128186.8	1	175803.1	-46.81517	2.734556E-010	-0.0789294	5
	45	63	31.6723	137167.7	-142452.6	1	197756.7	-46.08278	-1.859646E-010	-0.0789285	5
	46	65	24.93351	156667	-160693.5	1	224425.8	-45.7269	-3.195275E-010	-0.0789302	5
	47	66	19.86229	177032.2	-178739.9	1	251571.8	-45.27501	-3.68521E-010	-0.07893	5
	48	67	15.83615	200916.6	-200146.3	1	283594.8	-44.88995	1.047665E-009	-0.0789339	5
	49	69	12.40079	228194.1	-220406.4	1	317256.2	-44.00545	1.103838E-009	-0.0789323	5
	50	70	9.93114	255000.9	-243800.1	1	352794.5	-43.71362	3.905172E-010	-0.0789371	5
	51	72	7.944915	282779.6	-268688.6	1	390074.1	-43.53631	-5.287434E-010	-0.0789301	5
	52	73	6.317385	317688	-299319.5	1	436483.5	-43.29479	5.27098E-010	-0.0789376	5
	53	75	5.008013	354358.2	-331857.1	1	485488.2	-43.12194	-2.123854E-010	-0.0789304	5
	54	78	3.945707	395976.1	-369523.9	1	541613.3	-43.0209	1.748211E-011	-0.0789228	5
	55	81	3.158693	436229.1	-409211.8	1	598122.2	-43.16965	-5.621856E-010	-0.0789404	5
	56	84	2.504006	483883.3	-458306.3	1	666474.1	-43.44501	3.942641E-010	-0.0789296	5
	57	87	1.998082	532123.1	-509920.7	1	737003.4	-43.77941	1.036008E-009	-0.0789072	5
	58	90	1.584686	581952.8	-571174.1	1	815419.5	-44.46445	7.975113E-011	-0.0789708	5
	59	93	1.266892	636762.4	-646083.9	1	907133.3	-45.41632	1.795389E-010	-0.0789037	5
	60	98	0.999041	699848.3	-740309.6	1	1018747	-46.60931	-1.43671E-010	-0.0789757	4
