EXPLAIN
TAG	EISPOT
TITLE	LABEL	Potentiostatic EIS	Test &Identifier
DATE	LABEL	3/3/2020	Date
TIME	LABEL	18:56:05	Time
NOTES	NOTES	1	&Notes...
	
PSTAT	PSTAT	REF600-11020	Potentiostat
VDC	POTEN	0.00000E+000	T	DC &Voltage (V)
FREQINIT	QUANT	1.00000E+006	Initial Fre&q. (Hz)
FREQFINAL	QUANT	1.00000E+000	Final Fre&q. (Hz)
PTSPERDEC	QUANT	1.00000E+001	Points/&decade
VAC	QUANT	2.50000E+001	AC &Voltage (mV rms)
AREA	QUANT	1.60000E-004	&Area (cm^2)
CONDIT	TWOPARAM	F	1.50000E+001	0.00000E+000	Conditionin&g	Time(s)	E(V)
DELAY	TWOPARAM	F	1.00000E+002	0.00000E+000	Init. De&lay	Time(s)	Stab.(mV/s)
SPEED	SELECTOR	1	&Optimize for:
ZGUESS	QUANT	1.00000E+004	E&stimated Z (ohms)
OCVCURVE	TABLE	39
	Pt	T	Vf	Vm	Ach	Over
	#	s	V vs. Ref.	V	V	bits
	0	0.258333	9.54857E-002	9.54857E-002	5.49230E-004	...........
	1	0.516667	9.54872E-002	9.55635E-002	5.53864E-004	...........
	2	0.775	9.54957E-002	9.56058E-002	5.61464E-004	...........
	3	1.03333	9.55178E-002	9.56433E-002	5.58064E-004	...........
	4	1.29167	9.55515E-002	9.55930E-002	5.57397E-004	...........
	5	1.55	9.55835E-002	9.55712E-002	5.53030E-004	...........
	6	1.80833	9.55986E-002	9.55205E-002	5.58530E-004	...........
	7	2.06667	9.55909E-002	9.54753E-002	5.55130E-004	...........
	8	2.325	9.55654E-002	9.55031E-002	5.53997E-004	...........
	9	2.58333	9.55345E-002	9.54998E-002	5.56330E-004	...........
	10	2.84167	9.55095E-002	9.54058E-002	5.59397E-004	...........
	11	3.1	9.54885E-002	9.53740E-002	5.56530E-004	...........
	12	3.35833	9.54619E-002	9.53694E-002	5.60230E-004	...........
	13	3.61667	9.54284E-002	9.53473E-002	5.56564E-004	...........
	14	3.875	9.53964E-002	9.53508E-002	5.55830E-004	...........
	15	4.13333	9.53726E-002	9.53526E-002	5.60364E-004	...........
	16	4.39167	9.53586E-002	9.53553E-002	5.54297E-004	...........
	17	4.65	9.53526E-002	9.53400E-002	5.54530E-004	...........
	18	4.90833	9.53501E-002	9.53340E-002	5.54564E-004	...........
	19	5.16667	9.53471E-002	9.53208E-002	5.55564E-004	...........
	20	5.425	9.53413E-002	9.53139E-002	5.60764E-004	...........
	21	5.68333	9.53331E-002	9.53048E-002	5.60497E-004	...........
	22	5.94167	9.53240E-002	9.53032E-002	5.62564E-004	...........
	23	6.2	9.53153E-002	9.52878E-002	5.61964E-004	...........
	24	6.45833	9.53076E-002	9.53010E-002	5.59197E-004	...........
	25	6.71667	9.53026E-002	9.53496E-002	5.58597E-004	...........
	26	6.975	9.53072E-002	9.55027E-002	5.60197E-004	...........
	27	7.23333	9.53343E-002	9.55823E-002	5.54464E-004	...........
	28	7.49167	9.53883E-002	9.54688E-002	5.60564E-004	...........
	29	7.75	9.54494E-002	9.54838E-002	5.57897E-004	...........
	30	8.00833	9.54884E-002	9.54715E-002	5.66397E-004	...........
	31	8.26667	9.54947E-002	9.53126E-002	5.60230E-004	...........
	32	8.525	9.54742E-002	9.54417E-002	5.59230E-004	...........
	33	8.78333	9.54459E-002	9.56351E-002	5.56397E-004	...........
	34	9.04167	9.54365E-002	9.52919E-002	5.54530E-004	...........
	35	9.3	9.54438E-002	9.53490E-002	5.58497E-004	...........
	36	9.5583	9.54352E-002	9.52865E-002	5.62264E-004	...........
	37	9.8167	9.53996E-002	9.53520E-002	5.58897E-004	...........
	38	10.075	9.53579E-002	9.52449E-002	5.64363E-004	...........
EOC	QUANT	0.0953579	Open Circuit (V)
PSTATMODEL	IQUANT	4	Pstat Model
PSTATSECTION	LABEL	REF600-11020	Pstat Section
PSTATSERIALNO	LABEL	11020	Pstat Serial Number
CTRLMODE	IQUANT	1	Control Mode
IESTAB	IQUANT	0	I/E Stability
CASPEED	IQUANT	1	Control Amp Speed
CONVENTION	IQUANT	1	Current Convention
ICHRANGE	IQUANT	2	Ich Range
ICHRANGEMODE	TOGGLE	F	Ich Auto Range
ICHOFFSETENABLE	TOGGLE	T	Ich Offset Enable
ICHOFFSET	QUANT	0	Ich Offset (V)
ICHFILTER	IQUANT	3	Ich Filter
VCHRANGE	IQUANT	2	Vch Range
VCHRANGEMODE	TOGGLE	F	Vch Auto Range
VCHOFFSETENABLE	TOGGLE	T	Vch Offset Enable
VCHOFFSET	QUANT	0	Vch Offset (V)
VCHFILTER	IQUANT	3	Vch Filter
ACHRANGE	IQUANT	2	Ach Range
ACHOFFSETENABLE	TOGGLE	F	Ach Offset Enable
ACHOFFSET	QUANT	0	Ach Offset (V)
ACHFILTER	IQUANT	3	Ach Filter
IERANGELOWERLIMIT	IQUANT	1	I/E Range Lower Limit
IERANGEMODE	TOGGLE	F	I/E AutoRange
IERANGE	IQUANT	7	I/E Range
POSFEEDENABLE	TOGGLE	F	Positive Feedback IR Comp
POSFEEDRESISTANCE	QUANT	0	Positive Feedback Resistance (ohm)
ACHSELECT	IQUANT	0	Ach Select
CABLEID	IQUANT	14	Cable ID
DCCALDATE	LABEL	2/27/2020	DC Calibration Date
ACCALDATE	LABEL	2/27/2020	AC Calibration Date
THERMOSELECT	IQUANT	1	Thermo Select
FRAMEWORKVERSION	QUANT	6.33	Framework Version
INSTRUMENTVERSION	LABEL	3.50	Instrument Version
ZCURVE	TABLE
	Pt	Time	Freq	Zreal	Zimag	Zsig	Zmod	Zphz	Idc	Vdc	IERange
	#	s	Hz	ohm	ohm	V	ohm	°	A	V	#
	0	2	1000078	1702.137	-2164.615	1	2753.694	-51.82038	-1.910456E-006	0.0976489	8
	1	3	794390.6	2102.073	-2374.185	1	3171.035	-48.47873	2.004721E-006	0.0969696	8
	2	5	630984.4	2560.468	-2544.191	1	3609.557	-44.8173	1.474825E-006	0.0967743	8
	3	6	501234.4	3053.543	-2624.903	1	4026.691	-40.68318	-1.533972E-006	0.0973716	8
	4	7	398109.4	3550.265	-2669.3	1	4441.794	-36.93801	4.90398E-008	0.0968539	8
	5	9	316265.6	4019.35	-2636.302	1	4806.793	-33.26098	-6.588068E-007	0.0969463	8
	6	10	251203.1	4481.272	-2562.78	1	5162.33	-29.76467	5.049144E-007	0.0967368	8
	7	11	199546.9	4872.106	-2479.928	1	5466.942	-26.97634	2.792038E-006	0.096548	8
	8	13	158578.1	5228.72	-2378.17	1	5744.145	-24.45739	-1.335245E-006	0.0971836	8
	9	14	125953.1	5570.71	-2268.426	1	6014.862	-22.15645	-2.245062E-007	0.0970984	7
	10	16	100078.1	5831.482	-2200.688	1	6232.914	-20.67554	-1.955957E-008	0.0968687	7
	11	17	79453.13	6083.154	-2169.851	1	6458.562	-19.63124	-2.812463E-009	0.0968607	7
	12	18	63140.62	6344.427	-2187.724	1	6711.027	-19.02553	9.294841E-008	0.0966899	7
	13	20	50203.12	6584.933	-2231.783	1	6952.855	-18.72269	9.781672E-008	0.0966556	7
	14	21	39890.62	6826.86	-2316.365	1	7209.131	-18.74216	2.255505E-008	0.096833	7
	15	22	31640.63	7077.156	-2438.892	1	7485.608	-19.0147	2.629839E-009	0.0967077	7
	16	24	25171.88	7337.286	-2607.968	1	7786.993	-19.56727	1.100368E-007	0.0965798	7
	17	25	20015.62	7606.614	-2821.893	1	8113.178	-20.35379	-7.198047E-008	0.0968784	7
	18	26	15890.62	7910.465	-3089.274	1	8492.295	-21.33214	1.084727E-007	0.0965645	7
	19	28	12609.37	8226.326	-3394.434	1	8899.136	-22.42254	-7.702477E-008	0.0968051	7
	20	29	10078.13	8602.172	-3762.984	1	9389.218	-23.62677	8.841568E-010	0.0966538	6
	21	30	8015.625	8988.98	-4229.268	1	9934.21	-25.19674	1.440338E-008	0.096697	6
	22	32	6328.125	9437.435	-4796.396	1	10586.34	-26.94108	8.895016E-009	0.0968196	6
	23	33	5015.625	9926.82	-5454.269	1	11326.55	-28.78649	1.360531E-008	0.0966958	6
	24	35	3984.375	10474.16	-6218.717	1	12181.15	-30.69845	-9.067115E-009	0.096836	6
	25	36	3170.956	11083.51	-7114.764	1	13170.58	-32.69735	2.89675E-009	0.0969087	6
	26	37	2527.573	11768.57	-8157.941	1	14319.61	-34.7296	2.564833E-009	0.0969054	6
	27	39	1976.103	12605.43	-9483.184	1	15774.27	-36.95449	-2.01653E-009	0.0969674	6
	28	40	1577.524	13494.51	-10920.63	1	17359.79	-38.98203	-9.379041E-009	0.096832	6
	29	41	1265.625	14490.76	-12579.45	1	19189.18	-40.96129	1.385423E-008	0.0965883	6
	30	43	998.264	15725.9	-14673.92	1	21508.79	-43.01807	9.112012E-009	0.0968135	6
	31	44	796.875	17103.64	-17006.4	1	24119.54	-44.83668	-9.496102E-009	0.0968252	6
	32	45	627.7902	18792.11	-19904.32	1	27373.81	-46.64633	5.564139E-009	0.0968591	6
	33	47	505.5147	20572.25	-22968.66	1	30834.67	-48.15026	-8.202524E-009	0.0967996	6
	34	48	397.9953	22916.93	-26933.45	1	35363.78	-49.60646	-1.479602E-010	0.0968203	6
	35	49	315.5048	25597.24	-31418	1	40525.41	-50.8292	2.250873E-010	0.0968228	6
	36	51	252.4038	28619.98	-36417.45	1	46317.75	-51.83667	2.276212E-010	0.0968228	6
	37	52	198.6229	32456.71	-42663.2	1	53605.84	-52.73735	7.954486E-011	0.096825	6
	38	53	158.3615	36683.79	-49501.52	1	61612.51	-53.45919	1.657987E-010	0.0968209	6
	39	55	125.558	41839.36	-57564.61	1	71163.31	-53.98943	2.343601E-010	0.0968245	6
	40	56	100.4464	47425.09	-66472.59	1	81656.27	-54.49392	1.83338E-010	0.0968247	6
	41	58	79.00281	55018.12	-77290.74	1	94872.82	-54.55548	-3.994263E-010	0.0968209	6
	42	59	63.3446	63387.43	-87649.3	1	108168.2	-54.12578	1.743101E-010	0.0968225	5
	43	60	49.86702	72886.65	-105039.7	1	127850.7	-55.24335	3.819388E-010	0.0968202	5
	44	62	39.72458	83416.65	-119694.4	1	145894.1	-55.12683	8.932881E-011	0.0968305	5
	45	63	31.6723	96911.5	-137970.5	1	168605.2	-54.91552	8.632229E-011	0.0968302	5
	46	64	24.93351	112250.2	-159604.6	1	195125	-54.88121	-1.414267E-010	0.0968239	5
	47	66	19.86229	129870.6	-182800.8	1	224237.7	-54.60816	2.289616E-010	0.0968286	5
	48	67	15.83615	151750.7	-211813.5	1	260563.3	-54.38084	-1.093588E-009	0.0968243	5
	49	69	12.40079	172197.5	-243182.4	1	297976	-54.69768	9.554543E-011	0.09683	5
	50	70	9.93114	198961.3	-275273.4	1	339648.4	-54.14146	-2.536206E-010	0.0968292	5
	51	72	7.944915	225785.3	-314206	1	386916.5	-54.29935	3.488626E-010	0.0968254	5
	52	73	6.317385	258799.7	-360446.3	1	443732.8	-54.32173	2.175719E-010	0.0968209	5
	53	75	5.008013	296532.8	-415716.8	1	510639	-54.49955	6.930304E-011	0.0968309	5
	54	78	3.945707	340781.5	-481592.6	1	589969	-54.71626	-7.286739E-011	0.0968203	5
	55	80	3.158693	389512.1	-553486.7	1	676806.6	-54.86432	1.804676E-010	0.0968383	6
	56	84	2.504006	448452.1	-640267.6	1	781698.1	-54.99208	-1.308789E-010	0.0968254	5
	57	87	1.998082	516077.4	-735508.8	1	898503.8	-54.94418	5.675262E-011	0.0967799	5
	58	90	1.584686	596303.2	-850484.9	1	1038702	-54.96443	-4.616161E-011	0.0968176	4
	59	94	1.266892	690180.6	-974642	1	1194268	-54.69626	5.580627E-011	0.0967748	4
	60	98	0.999041	803858.9	-1124871	1	1382579	-54.44952	-2.881229E-012	0.0968551	4
