EXPLAIN
TAG	EISPOT
TITLE	LABEL	Potentiostatic EIS	Test &Identifier
DATE	LABEL	2/11/2020	Date
TIME	LABEL	12:29:30	Time
NOTES	NOTES	6	&Notes...
	
	
	
	
	
	
PSTAT	PSTAT	REF600-11020	Potentiostat
VDC	POTEN	0.00000E+000	T	DC &Voltage (V)
FREQINIT	QUANT	1.00000E+006	Initial Fre&q. (Hz)
FREQFINAL	QUANT	1.00000E+000	Final Fre&q. (Hz)
PTSPERDEC	QUANT	1.00000E+001	Points/&decade
VAC	QUANT	2.50000E+001	AC &Voltage (mV rms)
AREA	QUANT	4.00000E-005	&Area (cm^2)
CONDIT	TWOPARAM	F	5.00000E+000	0.00000E+000	Conditionin&g	Time(s)	E(V)
DELAY	TWOPARAM	F	5.00000E+000	0.00000E+000	Init. De&lay	Time(s)	Stab.(mV/s)
SPEED	SELECTOR	0	&Optimize for:
ZGUESS	QUANT	1.00000E+003	E&stimated Z (ohms)
OCVCURVE	TABLE	39
	Pt	T	Vf	Vm	Ach	Over
	#	s	V vs. Ref.	V	V	bits
	0	0.258333	-4.67784E-002	-4.67784E-002	5.76971E-004	...........
	1	0.516667	-4.67769E-002	-4.67017E-002	5.76537E-004	...........
	2	0.775	-4.67682E-002	-4.66464E-002	5.78337E-004	...........
	3	1.03333	-4.67455E-002	-4.66293E-002	5.78571E-004	...........
	4	1.29167	-4.67102E-002	-4.66207E-002	5.77704E-004	...........
	5	1.55	-4.66729E-002	-4.66138E-002	5.77104E-004	...........
	6	1.80833	-4.66429E-002	-4.65596E-002	5.81537E-004	...........
	7	2.06667	-4.66179E-002	-4.64705E-002	5.78004E-004	...........
	8	2.325	-4.65884E-002	-4.64709E-002	5.81171E-004	...........
	9	2.58333	-4.65500E-002	-4.64516E-002	5.78837E-004	...........
	10	2.84167	-4.65109E-002	-4.64677E-002	5.76771E-004	...........
	11	3.1	-4.64810E-002	-4.64144E-002	5.80171E-004	...........
	12	3.35833	-4.64619E-002	-4.64631E-002	5.79671E-004	...........
	13	3.61667	-4.64503E-002	-4.64199E-002	5.77704E-004	...........
	14	3.875	-4.64440E-002	-4.64731E-002	5.76504E-004	...........
	15	4.13333	-4.64422E-002	-4.64245E-002	5.72971E-004	...........
	16	4.39167	-4.64431E-002	-4.64506E-002	5.78537E-004	...........
	17	4.65	-4.64436E-002	-4.64214E-002	5.76038E-004	...........
	18	4.90833	-4.64412E-002	-4.64124E-002	5.78671E-004	...........
	19	5.16667	-4.64351E-002	-4.63993E-002	5.79837E-004	...........
	20	5.425	-4.64255E-002	-4.63888E-002	5.77237E-004	...........
	21	5.68333	-4.64139E-002	-4.63801E-002	5.77704E-004	...........
	22	5.94167	-4.64022E-002	-4.63802E-002	5.76238E-004	...........
	23	6.2	-4.63928E-002	-4.64078E-002	5.81904E-004	...........
	24	6.45833	-4.63901E-002	-4.64849E-002	5.77237E-004	...........
	25	6.71667	-4.64009E-002	-4.65296E-002	5.73337E-004	...........
	26	6.975	-4.64282E-002	-4.65086E-002	5.77837E-004	...........
	27	7.23333	-4.64636E-002	-4.65258E-002	5.78604E-004	...........
	28	7.49167	-4.64908E-002	-4.63692E-002	5.74138E-004	...........
	29	7.75	-4.64916E-002	-4.62471E-002	5.75738E-004	...........
	30	8.00833	-4.64534E-002	-4.62107E-002	5.75137E-004	...........
	31	8.26667	-4.63835E-002	-4.62384E-002	5.76304E-004	...........
	32	8.525	-4.63105E-002	-4.62501E-002	5.79037E-004	...........
	33	8.78333	-4.62620E-002	-4.62871E-002	5.77637E-004	...........
	34	9.04167	-4.62462E-002	-4.63064E-002	5.79171E-004	...........
	35	9.3	-4.62547E-002	-4.62937E-002	5.73504E-004	...........
	36	9.5583	-4.62733E-002	-4.63463E-002	5.78504E-004	...........
	37	9.8167	-4.62928E-002	-4.63368E-002	5.76604E-004	...........
	38	10.075	-4.63092E-002	-4.62689E-002	5.76871E-004	...........
EOC	QUANT	-0.0463092	Open Circuit (V)
PSTATMODEL	IQUANT	4	Pstat Model
PSTATSECTION	LABEL	REF600-11020	Pstat Section
PSTATSERIALNO	LABEL	11020	Pstat Serial Number
CTRLMODE	IQUANT	1	Control Mode
IESTAB	IQUANT	0	I/E Stability
CASPEED	IQUANT	1	Control Amp Speed
CONVENTION	IQUANT	1	Current Convention
ICHRANGE	IQUANT	2	Ich Range
ICHRANGEMODE	TOGGLE	F	Ich Auto Range
ICHOFFSETENABLE	TOGGLE	T	Ich Offset Enable
ICHOFFSET	QUANT	0	Ich Offset (V)
ICHFILTER	IQUANT	3	Ich Filter
VCHRANGE	IQUANT	2	Vch Range
VCHRANGEMODE	TOGGLE	F	Vch Auto Range
VCHOFFSETENABLE	TOGGLE	T	Vch Offset Enable
VCHOFFSET	QUANT	0	Vch Offset (V)
VCHFILTER	IQUANT	3	Vch Filter
ACHRANGE	IQUANT	2	Ach Range
ACHOFFSETENABLE	TOGGLE	F	Ach Offset Enable
ACHOFFSET	QUANT	0	Ach Offset (V)
ACHFILTER	IQUANT	3	Ach Filter
IERANGELOWERLIMIT	IQUANT	1	I/E Range Lower Limit
IERANGEMODE	TOGGLE	F	I/E AutoRange
IERANGE	IQUANT	7	I/E Range
POSFEEDENABLE	TOGGLE	F	Positive Feedback IR Comp
POSFEEDRESISTANCE	QUANT	0	Positive Feedback Resistance (ohm)
ACHSELECT	IQUANT	0	Ach Select
CABLEID	IQUANT	14	Cable ID
DCCALDATE	LABEL	1/27/2020	DC Calibration Date
ACCALDATE	LABEL	1/27/2020	AC Calibration Date
THERMOSELECT	IQUANT	1	Thermo Select
FRAMEWORKVERSION	QUANT	6.33	Framework Version
INSTRUMENTVERSION	LABEL	3.50	Instrument Version
ZCURVE	TABLE
	Pt	Time	Freq	Zreal	Zimag	Zsig	Zmod	Zphz	Idc	Vdc	IERange
	#	s	Hz	ohm	ohm	V	ohm	°	A	V	#
	0	1	1000078	2150.071	-2255.562	1	3116.146	-46.37166	1.486434E-006	-0.0447403	8
	1	2	794390.6	2629.513	-2335.472	1	3516.926	-41.61073	7.96663E-007	-0.0446144	8
	2	2	630984.4	3120.082	-2348.208	1	3904.996	-36.96552	-5.114798E-006	-0.0433423	8
	3	2	501234.4	3595.463	-2273.268	1	4253.834	-32.30354	-2.939643E-006	-0.0438332	8
	4	3	398109.4	4062.177	-2159.621	1	4600.57	-27.99695	1.906649E-006	-0.0450483	8
	5	3	316265.6	4393.556	-1938.824	1	4802.33	-23.8113	2.376443E-007	-0.0445044	8
	6	3	251203.1	4658.733	-1716.286	1	4964.819	-20.22389	4.342624E-006	-0.0454049	8
	7	4	199546.9	4894.272	-1555.502	1	5135.512	-17.63135	4.231685E-006	-0.0454052	8
	8	4	158578.1	5082.869	-1344.612	1	5257.712	-14.81749	1.511349E-006	-0.0449494	8
	9	4	125953.1	5242.641	-1155.77	1	5368.527	-12.43232	7.931017E-007	-0.0463922	7
	10	4	100078.1	5366.888	-1041.595	1	5467.029	-10.98331	-5.951363E-008	-0.044615	7
	11	5	79453.13	5458.532	-951.821	1	5540.897	-9.89139	-5.902602E-008	-0.0446237	7
	12	5	63140.62	5540.933	-886.1678	1	5611.349	-9.086431	3.224422E-008	-0.0447397	7
	13	5	50203.12	5615.075	-844.2233	1	5678.185	-8.550344	-3.381009E-008	-0.0445952	7
	14	6	39890.62	5686.755	-828.085	1	5746.73	-8.284975	7.042755E-008	-0.0448354	7
	15	6	31640.63	5755.897	-827.9386	1	5815.139	-8.185383	-4.492042E-009	-0.0447731	7
	16	6	25171.88	5826.309	-853.3158	1	5888.465	-8.332247	-5.082761E-009	-0.0446814	7
	17	7	20015.62	5901.078	-897.7985	1	5968.983	-8.650723	-4.508351E-008	-0.0446796	7
	18	7	15890.62	5979.63	-962.629	1	6056.619	-9.145278	-4.100443E-008	-0.0446897	7
	19	7	12609.37	6064.951	-1053.72	1	6155.807	-9.85614	-2.32473E-008	-0.0447183	7
	20	8	10078.13	6154.668	-1163.993	1	6263.77	-10.70949	1.257055E-007	-0.0448999	7
	21	8	8015.625	6258.771	-1310.008	1	6394.399	-11.82178	-3.329304E-008	-0.0446778	7
	22	8	6328.125	6374.388	-1492.489	1	6546.781	-13.17776	3.32007E-008	-0.0447525	7
	23	9	5015.625	6504.829	-1710.249	1	6725.901	-14.73081	-1.267618E-008	-0.044594	7
	24	9	3984.375	6643.77	-1966.956	1	6928.824	-16.49193	-2.333122E-008	-0.0447213	7
	25	9	3170.956	6805.667	-2286.904	1	7179.626	-18.57386	-1.073483E-008	-0.0446009	7
	26	10	2527.573	6982.958	-2652.262	1	7469.686	-20.79774	-2.460312E-008	-0.0447247	7
	27	10	1976.103	7197.986	-3135.301	1	7851.186	-23.53699	4.221769E-008	-0.0448595	7
	28	10	1577.524	7431.432	-3676.946	1	8291.327	-26.32542	-5.124098E-008	-0.044625	7
	29	10	1265.625	7674.191	-4309.541	1	8801.44	-29.31695	-1.347425E-008	-0.0446018	7
	30	11	998.264	7989.846	-5123.9	1	9491.681	-32.67212	5.827412E-009	-0.0446949	6
	31	11	796.875	8325.914	-6065.329	1	10300.92	-36.07289	1.361988E-009	-0.0446438	6
	32	11	627.7902	8743.354	-7272.586	1	11372.63	-39.75315	7.689651E-009	-0.0448953	6
	33	12	505.5147	9181.013	-8603.733	1	12582.34	-43.14088	-5.89078E-009	-0.0447144	6
	34	12	397.9953	9747.02	-10377.19	1	14236.94	-46.79358	5.362816E-010	-0.0447132	6
	35	12	315.5048	10404.62	-12483.25	1	16250.77	-50.18925	1.389235E-009	-0.0447144	6
	36	13	252.4038	11167.7	-14934.16	1	18647.97	-53.21103	3.461759E-010	-0.0447201	6
	37	13	198.6229	12161.68	-18129.83	1	21831.11	-56.14588	9.24181E-010	-0.0447184	6
	38	13	158.3615	13320.71	-21804.1	1	25551.13	-58.57813	4.515773E-010	-0.0447218	6
	39	14	125.558	14813.4	-26329.84	1	30210.88	-60.63751	7.916958E-010	-0.0447219	6
	40	14	100.4464	16565.59	-31562.48	1	35645.61	-62.30724	1.704859E-009	-0.0447272	6
	41	14	79.00281	19048.29	-38266.85	1	42745.63	-63.53702	1.158847E-009	-0.0447245	6
	42	15	63.3446	22384.43	-46082.41	1	51231.35	-64.09193	5.641351E-010	-0.0447299	6
	43	15	49.86702	26046.34	-55677.74	1	61468.87	-64.92957	1.257817E-009	-0.0447311	6
	44	15	39.72458	30396.31	-66332.13	1	72964.97	-65.38065	6.045506E-010	-0.0447266	6
	45	16	31.6723	36151.75	-78769.65	1	86669.52	-65.34699	8.425473E-010	-0.0447281	6
	46	16	24.93351	43812.44	-94888.56	1	104514.9	-65.21604	3.459442E-010	-0.0447357	6
	47	16	19.86229	53362.73	-112302	1	124335.5	-64.58425	-7.120088E-010	-0.0447328	5
	48	17	15.83615	63768.93	-131212.8	1	145887.9	-64.08043	-6.289577E-010	-0.0447359	5
	49	17	12.40079	81024.27	-157596.2	1	177204.7	-62.79114	9.028819E-011	-0.0447336	5
	50	17	9.93114	98406.2	-181579.6	1	206530.7	-61.54475	1.101869E-009	-0.0447298	5
	51	18	7.944915	119932.3	-208802.9	1	240795.4	-60.12779	9.042109E-010	-0.044732	5
	52	19	6.317385	146389.3	-240263.9	1	281347.7	-58.64666	4.934756E-010	-0.0447406	5
	53	19	5.008013	177081.2	-274393.5	1	326572.4	-57.16362	4.794776E-010	-0.0447295	5
	54	20	3.945707	213967	-312885.8	1	379050.6	-55.63372	-1.84562E-010	-0.0447343	5
	55	22	3.158693	251223.8	-350780	1	431462.7	-54.39028	4.814163E-011	-0.0447502	5
	56	23	2.504006	295641.4	-394855.8	1	493269.7	-53.1766	3.399815E-010	-0.0447422	5
	57	25	1.998082	341852.8	-440535.7	1	557615.5	-52.18877	9.661482E-011	-0.0447613	5
	58	26	1.584686	395623.2	-493966.4	1	632866.9	-51.30838	-5.199569E-011	-0.0447848	5
	59	28	1.266892	448814.6	-551672.7	1	711180.3	-50.86984	-1.95918E-011	-0.0447635	5
	60	31	0.999041	508752.1	-620217.6	1	802183.6	-50.63866	7.951424E-012	-0.0447412	5
