EXPLAIN
TAG	EISPOT
TITLE	LABEL	Potentiostatic EIS	Test &Identifier
DATE	LABEL	3/3/2020	Date
TIME	LABEL	19:02:24	Time
NOTES	NOTES	1	&Notes...
	
PSTAT	PSTAT	REF600-11020	Potentiostat
VDC	POTEN	0.00000E+000	T	DC &Voltage (V)
FREQINIT	QUANT	1.00000E+006	Initial Fre&q. (Hz)
FREQFINAL	QUANT	1.00000E+000	Final Fre&q. (Hz)
PTSPERDEC	QUANT	1.00000E+001	Points/&decade
VAC	QUANT	2.50000E+001	AC &Voltage (mV rms)
AREA	QUANT	1.60000E-004	&Area (cm^2)
CONDIT	TWOPARAM	F	1.50000E+001	0.00000E+000	Conditionin&g	Time(s)	E(V)
DELAY	TWOPARAM	F	1.00000E+002	0.00000E+000	Init. De&lay	Time(s)	Stab.(mV/s)
SPEED	SELECTOR	1	&Optimize for:
ZGUESS	QUANT	1.00000E+004	E&stimated Z (ohms)
OCVCURVE	TABLE	39
	Pt	T	Vf	Vm	Ach	Over
	#	s	V vs. Ref.	V	V	bits
	0	0.258333	9.50416E-002	9.50416E-002	5.74963E-004	...........
	1	0.516667	9.50414E-002	9.50311E-002	5.77097E-004	...........
	2	0.775	9.50387E-002	9.49418E-002	5.75497E-004	...........
	3	1.03333	9.50266E-002	9.48919E-002	5.78697E-004	...........
	4	1.29167	9.49985E-002	9.48632E-002	5.79397E-004	...........
	5	1.55	9.49569E-002	9.48360E-002	5.83130E-004	...........
	6	1.80833	9.49124E-002	9.48162E-002	5.84497E-004	...........
	7	2.06667	9.48732E-002	9.47757E-002	5.78163E-004	...........
	8	2.325	9.48403E-002	9.47487E-002	5.75697E-004	...........
	9	2.58333	9.48106E-002	9.47339E-002	5.76597E-004	...........
	10	2.84167	9.47827E-002	9.47151E-002	5.73963E-004	...........
	11	3.1	9.47576E-002	9.46973E-002	5.73063E-004	...........
	12	3.35833	9.47358E-002	9.46792E-002	5.77930E-004	...........
	13	3.61667	9.47164E-002	9.46614E-002	5.82530E-004	...........
	14	3.875	9.46983E-002	9.46442E-002	5.76963E-004	...........
	15	4.13333	9.46807E-002	9.46364E-002	5.79130E-004	...........
	16	4.39167	9.46641E-002	9.46195E-002	5.74997E-004	...........
	17	4.65	9.46489E-002	9.46048E-002	5.76097E-004	...........
	18	4.90833	9.46344E-002	9.45816E-002	5.73997E-004	...........
	19	5.16667	9.46195E-002	9.45731E-002	5.79463E-004	...........
	20	5.425	9.46038E-002	9.45582E-002	5.78197E-004	...........
	21	5.68333	9.45883E-002	9.45497E-002	5.72097E-004	...........
	22	5.94167	9.45738E-002	9.45288E-002	5.76230E-004	...........
	23	6.2	9.45604E-002	9.45278E-002	5.76730E-004	...........
	24	6.45833	9.45478E-002	9.45171E-002	5.72297E-004	...........
	25	6.71667	9.45365E-002	9.45063E-002	5.75897E-004	...........
	26	6.975	9.45259E-002	9.44719E-002	5.73763E-004	...........
	27	7.23333	9.45143E-002	9.44845E-002	5.71663E-004	...........
	28	7.49167	9.45013E-002	9.44654E-002	5.69397E-004	...........
	29	7.75	9.44888E-002	9.44609E-002	5.75897E-004	...........
	30	8.00833	9.44782E-002	9.44533E-002	5.76363E-004	...........
	31	8.26667	9.44692E-002	9.44456E-002	5.81130E-004	...........
	32	8.525	9.44611E-002	9.44347E-002	5.76730E-004	...........
	33	8.78333	9.44533E-002	9.44305E-002	5.70763E-004	...........
	34	9.04167	9.44453E-002	9.44190E-002	5.73663E-004	...........
	35	9.3	9.44371E-002	9.44052E-002	5.80797E-004	...........
	36	9.5583	9.44282E-002	9.43940E-002	5.70063E-004	...........
	37	9.8167	9.44183E-002	9.43921E-002	5.76597E-004	...........
	38	10.075	9.44081E-002	9.43849E-002	5.76097E-004	...........
EOC	QUANT	0.0944081	Open Circuit (V)
PSTATMODEL	IQUANT	4	Pstat Model
PSTATSECTION	LABEL	REF600-11020	Pstat Section
PSTATSERIALNO	LABEL	11020	Pstat Serial Number
CTRLMODE	IQUANT	1	Control Mode
IESTAB	IQUANT	0	I/E Stability
CASPEED	IQUANT	1	Control Amp Speed
CONVENTION	IQUANT	1	Current Convention
ICHRANGE	IQUANT	2	Ich Range
ICHRANGEMODE	TOGGLE	F	Ich Auto Range
ICHOFFSETENABLE	TOGGLE	T	Ich Offset Enable
ICHOFFSET	QUANT	0	Ich Offset (V)
ICHFILTER	IQUANT	3	Ich Filter
VCHRANGE	IQUANT	2	Vch Range
VCHRANGEMODE	TOGGLE	F	Vch Auto Range
VCHOFFSETENABLE	TOGGLE	T	Vch Offset Enable
VCHOFFSET	QUANT	0	Vch Offset (V)
VCHFILTER	IQUANT	3	Vch Filter
ACHRANGE	IQUANT	2	Ach Range
ACHOFFSETENABLE	TOGGLE	F	Ach Offset Enable
ACHOFFSET	QUANT	0	Ach Offset (V)
ACHFILTER	IQUANT	3	Ach Filter
IERANGELOWERLIMIT	IQUANT	1	I/E Range Lower Limit
IERANGEMODE	TOGGLE	F	I/E AutoRange
IERANGE	IQUANT	7	I/E Range
POSFEEDENABLE	TOGGLE	F	Positive Feedback IR Comp
POSFEEDRESISTANCE	QUANT	0	Positive Feedback Resistance (ohm)
ACHSELECT	IQUANT	0	Ach Select
CABLEID	IQUANT	14	Cable ID
DCCALDATE	LABEL	2/27/2020	DC Calibration Date
ACCALDATE	LABEL	2/27/2020	AC Calibration Date
THERMOSELECT	IQUANT	1	Thermo Select
FRAMEWORKVERSION	QUANT	6.33	Framework Version
INSTRUMENTVERSION	LABEL	3.50	Instrument Version
ZCURVE	TABLE
	Pt	Time	Freq	Zreal	Zimag	Zsig	Zmod	Zphz	Idc	Vdc	IERange
	#	s	Hz	ohm	ohm	V	ohm	°	A	V	#
	0	1	1000078	1871.431	-2212.481	1	2897.814	-49.77373	4.80461E-006	0.0963825	8
	1	3	794390.6	2297.949	-2386.867	1	3313.261	-46.08734	1.194217E-006	0.0958714	8
	2	4	630984.4	2798.361	-2515.75	1	3762.954	-41.95581	1.185216E-006	0.0960671	8
	3	6	501234.4	3325.117	-2554.825	1	4193.273	-37.53656	2.910584E-006	0.0958832	8
	4	7	398109.4	3844.682	-2480.838	1	4575.603	-32.83273	-9.947898E-007	0.0962337	8
	5	8	316265.6	4317.312	-2348.963	1	4914.958	-28.54973	2.9583E-008	0.0960755	8
	6	10	251203.1	4756.519	-2147.309	1	5218.755	-24.29658	5.130383E-007	0.0959705	8
	7	11	199546.9	5080.251	-1918.052	1	5430.274	-20.68406	-6.462777E-007	0.0963757	8
	8	12	158578.1	5320.959	-1706.23	1	5587.829	-17.77908	-3.892281E-007	0.0961441	8
	9	14	125953.1	5573.109	-1439.57	1	5756.032	-14.48329	-3.156369E-007	0.0969115	7
	10	15	100078.1	5717.996	-1259.156	1	5854.993	-12.41886	7.212501E-008	0.0959912	7
	11	16	79453.13	5843.991	-1116.825	1	5949.75	-10.81914	9.432488E-008	0.0958924	7
	12	18	63140.62	5942.687	-987.936	1	6024.247	-9.438756	7.353771E-008	0.0958326	7
	13	19	50203.12	6022.82	-891.3497	1	6088.421	-8.418405	-9.19786E-008	0.0961157	7
	14	21	39890.62	6095.553	-819.3676	1	6150.376	-7.655839	-3.982904E-008	0.0960253	7
	15	22	31640.63	6159.115	-774.1866	1	6207.581	-7.164373	-7.137195E-008	0.0961122	7
	16	24	25171.88	6220.374	-748.957	1	6265.3	-6.865583	1.087569E-007	0.0958146	7
	17	25	20015.62	6277.718	-746.809	1	6321.983	-6.784129	4.151302E-009	0.0959428	7
	18	26	15890.62	6339.941	-759.9904	1	6385.33	-6.835623	2.128912E-008	0.0960629	7
	19	28	12609.37	6401.02	-803.2505	1	6451.222	-7.152539	-5.928499E-008	0.0961193	7
	20	29	10078.13	6454.672	-854.1005	1	6510.936	-7.53775	-9.043439E-008	0.0961077	7
	21	30	8015.625	6516.21	-938.3676	1	6583.428	-8.194551	-5.734106E-009	0.0959625	7
	22	32	6328.125	6587.935	-1049.109	1	6670.945	-9.048203	7.37133E-008	0.0958377	7
	23	33	5015.625	6659.609	-1190.912	1	6765.254	-10.13881	9.200814E-008	0.0959271	7
	24	34	3984.375	6734.094	-1373.919	1	6872.821	-11.53147	-1.860147E-008	0.0960959	7
	25	36	3170.956	6814.207	-1597.947	1	6999.061	-13.19752	9.104347E-008	0.0959226	7
	26	37	2527.573	6902.853	-1875.051	1	7152.985	-15.19681	-7.076532E-008	0.0961053	7
	27	38	1976.103	7009.582	-2258.239	1	7364.365	-17.85711	9.280964E-008	0.0959241	7
	28	40	1577.524	7120.655	-2686.299	1	7610.515	-20.66921	-7.483151E-008	0.0960368	7
	29	41	1265.625	7252.987	-3211.326	1	7932.115	-23.8818	1.096765E-007	0.0958054	7
	30	43	998.264	7415.698	-3898.864	1	8378.169	-27.73352	-6.937934E-008	0.0961086	7
	31	44	796.875	7612.753	-4704.722	1	8949.214	-31.71629	-4.090078E-008	0.0960193	7
	32	45	627.7902	7856.433	-5749.136	1	9735.3	-36.19571	8.758185E-009	0.0957853	6
	33	47	505.5147	8130.939	-6910.075	1	10670.58	-40.35953	6.636638E-010	0.0958759	6
	34	48	397.9953	8506.395	-8478.639	1	12010.25	-44.90637	4.043673E-010	0.0960643	6
	35	49	315.5048	8962.669	-10337.01	1	13681.5	-49.0732	3.009971E-010	0.0960615	6
	36	51	252.4038	9504.05	-12503.52	1	15705.57	-52.76116	7.889867E-010	0.0960623	6
	37	52	198.6229	10233.14	-15328.86	1	18430.71	-56.27397	5.756883E-010	0.0960586	6
	38	53	158.3615	11089.26	-18573.4	1	21631.99	-59.16067	8.922214E-010	0.0960633	6
	39	55	125.558	12178.47	-22599.42	1	25671.95	-61.68048	5.389223E-010	0.0960682	6
	40	56	100.4464	13483.66	-27242.72	1	30396.95	-63.6671	1.019499E-009	0.0960642	6
	41	57	79.00281	15194.46	-33288.23	1	36592.05	-65.46561	8.444389E-010	0.0960625	6
	42	59	63.3446	17157.1	-39797.83	1	43338.59	-66.67882	3.402574E-010	0.0960616	6
	43	60	49.86702	19911.43	-49091.68	1	52976.02	-67.92268	1.949912E-010	0.0960567	6
	44	62	39.72458	22829.12	-59178.18	1	63428.9	-68.90491	6.352784E-010	0.0960637	6
	45	63	31.6723	26814.02	-71471.94	1	76336.29	-69.43549	4.723484E-010	0.096058	6
	46	64	24.93351	31966.98	-87060.45	1	92743.79	-69.83771	6.295336E-010	0.0960611	6
	47	66	19.86229	38454.48	-104796.9	1	111629.4	-69.84974	6.697258E-010	0.0960712	5
	48	67	15.83615	45943.69	-126349.1	1	134443	-70.01746	1.16939E-009	0.0960674	5
	49	68	12.40079	57584.02	-153824	1	164249	-69.47661	5.129568E-010	0.0960593	5
	50	70	9.93114	71703.55	-183053.2	1	196595.7	-68.60929	6.384307E-010	0.0960622	5
	51	71	7.944915	88688.19	-217285.2	1	234688	-67.79645	1.033947E-010	0.096073	5
	52	73	6.317385	111592.5	-257475	1	280617.7	-66.56756	-1.016974E-010	0.0960742	5
	53	75	5.008013	140921.9	-304045	1	335115.4	-65.13274	1.610508E-010	0.0960626	5
	54	78	3.945707	178077.3	-357455.3	1	399356.8	-63.51841	3.774163E-010	0.0960754	5
	55	80	3.158693	220977	-412480.7	1	467943.5	-61.82084	1.214948E-010	0.0960741	5
	56	84	2.504006	273546.9	-474901.4	1	548050.4	-60.05772	1.360817E-010	0.0960523	5
	57	86	1.998082	332327.5	-540440.1	1	634442.3	-58.41181	-1.5062E-010	0.0960745	5
	58	89	1.584686	403822.8	-612593.2	1	733718.8	-56.60704	1.643828E-010	0.0961105	5
	59	93	1.266892	477989.4	-687757.9	1	837546.9	-55.20083	-1.517938E-010	0.0960711	5
	60	97	0.999041	566658.9	-774378.2	1	959564	-53.80483	3.409661E-010	0.0960684	5
