EXPLAIN
TAG	EISPOT
TITLE	LABEL	Potentiostatic EIS	Test &Identifier
DATE	LABEL	6/26/2020	Date
TIME	LABEL	12:46:14	Time
NOTES	NOTES	1	&Notes...
	
PSTAT	PSTAT	REF600-11020	Potentiostat
VDC	POTEN	0.00000E+000	T	DC &Voltage (V)
FREQINIT	QUANT	1.00000E+006	Initial Fre&q. (Hz)
FREQFINAL	QUANT	1.00000E+000	Final Fre&q. (Hz)
PTSPERDEC	QUANT	1.00000E+001	Points/&decade
VAC	QUANT	2.50000E+001	AC &Voltage (mV rms)
AREA	QUANT	4.00000E-004	&Area (cm^2)
CONDIT	TWOPARAM	F	5.00000E+000	0.00000E+000	Conditionin&g	Time(s)	E(V)
DELAY	TWOPARAM	F	3.00000E+000	0.00000E+000	Init. De&lay	Time(s)	Stab.(mV/s)
SPEED	SELECTOR	0	&Optimize for:
ZGUESS	QUANT	1.00000E+003	E&stimated Z (ohms)
OCVCURVE	TABLE	39
	Pt	T	Vf	Vm	Ach	Over
	#	s	V vs. Ref.	V	V	bits
	0	0.258333	1.02020E-001	1.02020E-001	5.25683E-004	...........
	1	0.516667	1.02020E-001	1.02024E-001	5.30116E-004	...........
	2	0.775	1.02020E-001	1.02027E-001	5.23050E-004	...........
	3	1.03333	1.02021E-001	1.02029E-001	5.27950E-004	...........
	4	1.29167	1.02024E-001	1.02035E-001	5.23950E-004	...........
	5	1.55	1.02027E-001	1.02039E-001	5.20450E-004	...........
	6	1.80833	1.02030E-001	1.02038E-001	5.17450E-004	...........
	7	2.06667	1.02033E-001	1.02040E-001	5.18683E-004	...........
	8	2.325	1.02036E-001	1.02043E-001	5.22750E-004	...........
	9	2.58333	1.02039E-001	1.02044E-001	5.22617E-004	...........
	10	2.84167	1.02041E-001	1.02047E-001	5.25817E-004	...........
	11	3.1	1.02043E-001	1.02048E-001	5.20617E-004	...........
	12	3.35833	1.02045E-001	1.02049E-001	5.23750E-004	...........
	13	3.61667	1.02046E-001	1.02051E-001	5.21717E-004	...........
	14	3.875	1.02048E-001	1.02052E-001	5.23117E-004	...........
	15	4.13333	1.02049E-001	1.02055E-001	5.20417E-004	...........
	16	4.39167	1.02051E-001	1.02058E-001	5.13850E-004	...........
	17	4.65	1.02053E-001	1.02056E-001	5.17383E-004	...........
	18	4.90833	1.02055E-001	1.02057E-001	5.17183E-004	...........
	19	5.16667	1.02056E-001	1.02055E-001	5.20817E-004	...........
	20	5.425	1.02056E-001	1.02053E-001	5.18117E-004	...........
	21	5.68333	1.02056E-001	1.02052E-001	5.16483E-004	...........
	22	5.94167	1.02055E-001	1.02054E-001	5.27683E-004	...........
	23	6.2	1.02054E-001	1.02052E-001	5.19950E-004	...........
	24	6.45833	1.02053E-001	1.02052E-001	5.26483E-004	...........
	25	6.71667	1.02053E-001	1.02051E-001	5.27017E-004	...........
	26	6.975	1.02052E-001	1.02055E-001	5.28750E-004	...........
	27	7.23333	1.02052E-001	1.02054E-001	5.22617E-004	...........
	28	7.49167	1.02053E-001	1.02055E-001	5.23883E-004	...........
	29	7.75	1.02053E-001	1.02051E-001	5.27850E-004	...........
	30	8.00833	1.02054E-001	1.02053E-001	5.23750E-004	...........
	31	8.26667	1.02053E-001	1.02050E-001	5.22717E-004	...........
	32	8.525	1.02053E-001	1.02054E-001	5.25483E-004	...........
	33	8.78333	1.02052E-001	1.02052E-001	5.26617E-004	...........
	34	9.04167	1.02052E-001	1.02050E-001	5.22517E-004	...........
	35	9.3	1.02052E-001	1.02045E-001	5.20583E-004	...........
	36	9.5583	1.02051E-001	1.02046E-001	5.20883E-004	...........
	37	9.8167	1.02049E-001	1.02048E-001	5.20083E-004	...........
	38	10.075	1.02048E-001	1.02047E-001	5.20350E-004	...........
EOC	QUANT	0.102048	Open Circuit (V)
PSTATMODEL	IQUANT	4	Pstat Model
PSTATSECTION	LABEL	REF600-11020	Pstat Section
PSTATSERIALNO	LABEL	11020	Pstat Serial Number
CTRLMODE	IQUANT	1	Control Mode
IESTAB	IQUANT	0	I/E Stability
CASPEED	IQUANT	1	Control Amp Speed
CONVENTION	IQUANT	1	Current Convention
ICHRANGE	IQUANT	2	Ich Range
ICHRANGEMODE	TOGGLE	F	Ich Auto Range
ICHOFFSETENABLE	TOGGLE	T	Ich Offset Enable
ICHOFFSET	QUANT	0	Ich Offset (V)
ICHFILTER	IQUANT	3	Ich Filter
VCHRANGE	IQUANT	2	Vch Range
VCHRANGEMODE	TOGGLE	F	Vch Auto Range
VCHOFFSETENABLE	TOGGLE	T	Vch Offset Enable
VCHOFFSET	QUANT	0	Vch Offset (V)
VCHFILTER	IQUANT	3	Vch Filter
ACHRANGE	IQUANT	2	Ach Range
ACHOFFSETENABLE	TOGGLE	F	Ach Offset Enable
ACHOFFSET	QUANT	0	Ach Offset (V)
ACHFILTER	IQUANT	3	Ach Filter
IERANGELOWERLIMIT	IQUANT	1	I/E Range Lower Limit
IERANGEMODE	TOGGLE	F	I/E AutoRange
IERANGE	IQUANT	8	I/E Range
POSFEEDENABLE	TOGGLE	F	Positive Feedback IR Comp
POSFEEDRESISTANCE	QUANT	0	Positive Feedback Resistance (ohm)
ACHSELECT	IQUANT	0	Ach Select
CABLEID	IQUANT	14	Cable ID
DCCALDATE	LABEL	6/26/2020	DC Calibration Date
ACCALDATE	LABEL	6/26/2020	AC Calibration Date
THERMOSELECT	IQUANT	1	Thermo Select
FRAMEWORKVERSION	QUANT	6.33	Framework Version
INSTRUMENTVERSION	LABEL	3.50	Instrument Version
ZCURVE	TABLE
	Pt	Time	Freq	Zreal	Zimag	Zsig	Zmod	Zphz	Idc	Vdc	IERange
	#	s	Hz	ohm	ohm	V	ohm	°	A	V	#
	0	2	1000078	1807.507	-2067.934	1	2746.531	-48.84445	-1.992805E-008	0.1044701	8
	1	2	794390.6	2109.741	-2304.022	1	3124.023	-47.52037	2.126481E-008	0.1041315	8
	2	2	630984.4	2459.812	-2543.849	1	3538.622	-45.9622	1.188657E-007	0.1039836	8
	3	3	501234.4	2865.219	-2808.421	1	4012.07	-44.42643	-8.176142E-009	0.1038668	8
	4	3	398109.4	3339.895	-3053.475	1	4525.33	-42.43489	8.394908E-008	0.103784	8
	5	3	316265.6	3870.622	-3282.15	1	5074.862	-40.29676	-2.577638E-008	0.103773	8
	6	3	251203.1	4465.747	-3460.194	1	5649.411	-37.76959	1.063138E-008	0.1037397	8
	7	4	199546.9	5109.972	-3563.527	1	6229.811	-34.89065	2.169384E-007	0.1037421	8
	8	4	158578.1	5765.246	-3595.222	1	6794.386	-31.94777	6.642588E-008	0.1037296	8
	9	4	125953.1	6485.116	-3507.585	1	7372.916	-28.4075	7.092975E-008	0.1036319	7
	10	5	100078.1	7101.872	-3416.019	1	7880.721	-25.68767	-1.051381E-008	0.1037177	7
	11	5	79453.13	7654.021	-3275.653	1	8325.5	-23.16923	-1.327701E-008	0.1037359	7
	12	5	63140.62	8148.394	-3119.246	1	8725.022	-20.94709	-1.156083E-008	0.1037	7
	13	6	50203.12	8580.845	-2957.749	1	9076.298	-19.01866	1.324146E-008	0.1036811	7
	14	6	39890.62	8962.861	-2809.457	1	9392.866	-17.40388	-1.819127E-008	0.1037353	7
	15	6	31640.63	9314.893	-2694.944	1	9696.9	-16.13598	5.471968E-009	0.1036787	7
	16	7	25171.88	9623.29	-2609.154	1	9970.72	-15.16986	1.22132E-008	0.1037036	7
	17	7	20015.62	9913.13	-2561.428	1	10238.7	-14.48764	9.215147E-010	0.1037235	7
	18	7	15890.62	10194.02	-2557.852	1	10510.02	-14.08568	-1.756741E-008	0.1037339	7
	19	8	12609.37	10536.7	-2483.369	1	10825.39	-13.26188	1.574808E-009	0.1037029	6
	20	8	10078.13	10784.77	-2580.325	1	11089.16	-13.45544	-3.014988E-009	0.1037497	6
	21	8	8015.625	11043.25	-2727.749	1	11375.14	-13.87468	-2.215051E-009	0.1036855	6
	22	8	6328.125	11324.27	-2934.803	1	11698.38	-14.52915	1.305856E-009	0.1036413	6
	23	9	5015.625	11623.85	-3199.648	1	12056.19	-15.39041	-1.063985E-009	0.1037323	6
	24	9	3984.375	11934.71	-3528.704	1	12445.45	-16.47122	-1.093526E-009	0.1036701	6
	25	9	3170.956	12281.22	-3931.44	1	12895.14	-17.75081	3.2192E-009	0.1036415	6
	26	10	2527.573	12655.15	-4411.214	1	13401.92	-19.21706	-4.044074E-009	0.1037249	6
	27	10	1976.103	13118.77	-5041.752	1	14054.23	-21.02257	-4.332251E-009	0.1037365	6
	28	10	1577.524	13602.82	-5731.107	1	14760.84	-22.84654	3.407649E-009	0.1036532	6
	29	11	1265.625	14138.32	-6522.714	1	15570.42	-24.76624	3.045725E-009	0.1036371	6
	30	11	998.264	14790.99	-7523.16	1	16594.31	-26.95931	-3.259289E-009	0.1037026	6
	31	11	796.875	15526.23	-8639.907	1	17768.28	-29.0947	1.190176E-009	0.1036947	6
	32	12	627.7902	16413.83	-10024.73	1	19233.02	-31.41446	8.492651E-013	0.1036496	6
	33	12	505.5147	17349.12	-11479.52	1	20803.15	-33.4917	-2.239784E-009	0.1036866	6
	34	12	397.9953	18555.81	-13353.62	1	22861.26	-35.74052	2.360316E-010	0.1037138	6
	35	13	315.5048	19924.81	-15462.29	1	25220.64	-37.81261	2.342937E-010	0.1037111	6
	36	13	252.4038	21446.54	-17795.47	1	27868.13	-39.68451	1.864571E-010	0.1037062	6
	37	13	198.6229	23342.81	-20681.98	1	31187.03	-41.54129	3.519069E-010	0.1037075	6
	38	14	158.3615	25406.38	-23824.81	1	34829.66	-43.15999	1.354155E-010	0.1037044	6
	39	14	125.558	27813.92	-27529.65	1	39134.33	-44.70571	1.66072E-010	0.1037074	6
	40	14	100.4464	30429.87	-31637.28	1	43896.41	-46.11445	1.776321E-011	0.1037061	6
	41	15	79.00281	33590.18	-36785.8	1	49814.61	-47.59989	2.160719E-010	0.1037034	6
	42	15	63.3446	36839.52	-42368.1	1	56144.51	-48.99268	1.314668E-010	0.1037011	6
	43	15	49.86702	40798.98	-49513.48	1	64157.16	-50.51157	3.948599E-010	0.1037	6
	44	16	39.72458	45116.98	-57648.09	1	73204.13	-51.95229	-9.331676E-011	0.1037087	6
	45	16	31.6723	50152.9	-67359.63	1	83979.96	-53.33031	-3.073168E-010	0.1037	6
	46	16	24.93351	56518.79	-79603.22	1	97627.1	-54.625	7.848968E-010	0.1037009	6
	47	17	19.86229	63852.93	-93379.2	1	113123.3	-55.63558	1.346439E-009	0.103701	5
	48	17	15.83615	73035	-109605.1	1	131709.5	-56.32262	2.040525E-010	0.1036916	5
	49	17	12.40079	85496.04	-129887.9	1	155500.6	-56.6459	1.493344E-009	0.1036926	5
	50	17	9.93114	99140.2	-150946.2	1	180592.2	-56.70344	1.236902E-009	0.1036974	5
	51	18	7.944915	116193.9	-174620.5	1	209745.9	-56.35989	-7.75065E-010	0.103698	5
	52	18	6.317385	137042	-201716.1	1	243864.5	-55.80857	3.351917E-010	0.1036823	5
	53	19	5.008013	162039.3	-231758.8	1	282787.7	-55.03983	4.496896E-010	0.1036913	5
	54	20	3.945707	191022.3	-264917.7	1	326605.1	-54.20603	-2.470995E-010	0.1036877	5
	55	21	3.158693	221964.3	-298861.6	1	372271.9	-53.39875	2.862824E-010	0.1036853	5
	56	22	2.504006	256360.7	-337907.3	1	424148.7	-52.81344	2.27854E-010	0.1036813	5
	57	23	1.998082	293059.3	-379958.9	1	479846.3	-52.35728	-8.773426E-011	0.1036359	5
	58	25	1.584686	331997.3	-430813.8	1	543895.9	-52.38114	-4.332742E-011	0.1036549	5
	59	27	1.266892	372550.3	-486122.8	1	612461.5	-52.5345	5.189181E-011	0.1036927	5
	60	29	0.999041	419578.6	-556301.3	1	696790.8	-52.97535	1.032642E-010	0.1037099	5
