EXPLAIN
TAG	EISPOT
TITLE	LABEL	Potentiostatic EIS	Test &Identifier
DATE	LABEL	1/25/2020	Date
TIME	LABEL	12:55:15	Time
NOTES	NOTES	6	&Notes...
	
	
	
	
	
	
PSTAT	PSTAT	REF600-11020	Potentiostat
VDC	POTEN	0.00000E+000	T	DC &Voltage (V)
FREQINIT	QUANT	1.00000E+006	Initial Fre&q. (Hz)
FREQFINAL	QUANT	1.00000E+000	Final Fre&q. (Hz)
PTSPERDEC	QUANT	1.00000E+001	Points/&decade
VAC	QUANT	2.50000E+001	AC &Voltage (mV rms)
AREA	QUANT	1.00000E-001	&Area (cm^2)
CONDIT	TWOPARAM	F	5.00000E+000	0.00000E+000	Conditionin&g	Time(s)	E(V)
DELAY	TWOPARAM	F	5.00000E+000	0.00000E+000	Init. De&lay	Time(s)	Stab.(mV/s)
SPEED	SELECTOR	0	&Optimize for:
ZGUESS	QUANT	5.00000E+002	E&stimated Z (ohms)
OCVCURVE	TABLE	39
	Pt	T	Vf	Vm	Ach	Over
	#	s	V vs. Ref.	V	V	bits
	0	0.258333	-2.11537E-002	-2.11537E-002	6.87912E-004	...........
	1	0.516667	-2.11573E-002	-2.13428E-002	6.83912E-004	...........
	2	0.775	-2.11791E-002	-2.15007E-002	6.84879E-004	...........
	3	1.03333	-2.12392E-002	-2.16424E-002	6.84379E-004	...........
	4	1.29167	-2.13431E-002	-2.17759E-002	6.86012E-004	...........
	5	1.55	-2.14759E-002	-2.18918E-002	6.82746E-004	...........
	6	1.80833	-2.16166E-002	-2.19982E-002	6.87112E-004	...........
	7	2.06667	-2.17507E-002	-2.20866E-002	6.86212E-004	...........
	8	2.325	-2.18720E-002	-2.21743E-002	6.83146E-004	...........
	9	2.58333	-2.19796E-002	-2.22522E-002	6.86712E-004	...........
	10	2.84167	-2.20756E-002	-2.23202E-002	6.89579E-004	...........
	11	3.1	-2.21621E-002	-2.23939E-002	6.91146E-004	...........
	12	3.35833	-2.22413E-002	-2.24558E-002	6.92979E-004	...........
	13	3.61667	-2.23148E-002	-2.25184E-002	6.89646E-004	...........
	14	3.875	-2.23838E-002	-2.25704E-002	6.82646E-004	...........
	15	4.13333	-2.24484E-002	-2.26174E-002	6.87979E-004	...........
	16	4.39167	-2.25079E-002	-2.26618E-002	6.81712E-004	...........
	17	4.65	-2.25622E-002	-2.27070E-002	6.86646E-004	...........
	18	4.90833	-2.26119E-002	-2.27545E-002	6.88579E-004	...........
	19	5.16667	-2.26588E-002	-2.27978E-002	6.87679E-004	...........
	20	5.425	-2.27044E-002	-2.28362E-002	6.90912E-004	...........
	21	5.68333	-2.27487E-002	-2.28715E-002	6.78846E-004	...........
	22	5.94167	-2.27911E-002	-2.29069E-002	6.80579E-004	...........
	23	6.2	-2.28308E-002	-2.29399E-002	6.74513E-004	...........
	24	6.45833	-2.28679E-002	-2.29720E-002	6.84312E-004	...........
	25	6.71667	-2.29031E-002	-2.30059E-002	6.83046E-004	...........
	26	6.975	-2.29369E-002	-2.30362E-002	6.81346E-004	...........
	27	7.23333	-2.29698E-002	-2.30648E-002	6.84012E-004	...........
	28	7.49167	-2.30017E-002	-2.30940E-002	6.92512E-004	...........
	29	7.75	-2.30326E-002	-2.31217E-002	6.90379E-004	...........
	30	8.00833	-2.30623E-002	-2.31491E-002	6.81179E-004	...........
	31	8.26667	-2.30911E-002	-2.31749E-002	6.80146E-004	...........
	32	8.525	-2.31191E-002	-2.32022E-002	6.80512E-004	...........
	33	8.78333	-2.31464E-002	-2.32259E-002	6.84812E-004	...........
	34	9.04167	-2.31729E-002	-2.32501E-002	6.81046E-004	...........
	35	9.3	-2.31987E-002	-2.32749E-002	6.81246E-004	...........
	36	9.5583	-2.32238E-002	-2.32985E-002	6.78813E-004	...........
	37	9.8167	-2.32483E-002	-2.33208E-002	6.88112E-004	...........
	38	10.075	-2.32724E-002	-2.33449E-002	6.78379E-004	...........
EOC	QUANT	-0.0232724	Open Circuit (V)
PSTATMODEL	IQUANT	4	Pstat Model
PSTATSECTION	LABEL	REF600-11020	Pstat Section
PSTATSERIALNO	LABEL	11020	Pstat Serial Number
CTRLMODE	IQUANT	1	Control Mode
IESTAB	IQUANT	0	I/E Stability
CASPEED	IQUANT	1	Control Amp Speed
CONVENTION	IQUANT	1	Current Convention
ICHRANGE	IQUANT	2	Ich Range
ICHRANGEMODE	TOGGLE	F	Ich Auto Range
ICHOFFSETENABLE	TOGGLE	T	Ich Offset Enable
ICHOFFSET	QUANT	0	Ich Offset (V)
ICHFILTER	IQUANT	3	Ich Filter
VCHRANGE	IQUANT	2	Vch Range
VCHRANGEMODE	TOGGLE	F	Vch Auto Range
VCHOFFSETENABLE	TOGGLE	T	Vch Offset Enable
VCHOFFSET	QUANT	0	Vch Offset (V)
VCHFILTER	IQUANT	3	Vch Filter
ACHRANGE	IQUANT	2	Ach Range
ACHOFFSETENABLE	TOGGLE	F	Ach Offset Enable
ACHOFFSET	QUANT	0	Ach Offset (V)
ACHFILTER	IQUANT	3	Ach Filter
IERANGELOWERLIMIT	IQUANT	1	I/E Range Lower Limit
IERANGEMODE	TOGGLE	F	I/E AutoRange
IERANGE	IQUANT	7	I/E Range
POSFEEDENABLE	TOGGLE	F	Positive Feedback IR Comp
POSFEEDRESISTANCE	QUANT	0	Positive Feedback Resistance (ohm)
ACHSELECT	IQUANT	0	Ach Select
CABLEID	IQUANT	14	Cable ID
DCCALDATE	LABEL	12/22/2019	DC Calibration Date
ACCALDATE	LABEL	12/22/2019	AC Calibration Date
THERMOSELECT	IQUANT	1	Thermo Select
FRAMEWORKVERSION	QUANT	6.33	Framework Version
INSTRUMENTVERSION	LABEL	3.50	Instrument Version
ZCURVE	TABLE
	Pt	Time	Freq	Zreal	Zimag	Zsig	Zmod	Zphz	Idc	Vdc	IERange
	#	s	Hz	ohm	ohm	V	ohm	°	A	V	#
	0	1	1000078	2038.3	-1764.013	1	2695.627	-40.87401	9.424998E-007	-0.0212386	8
	1	1	794390.6	2384.163	-1814.394	1	2996.041	-37.27184	-2.715061E-006	-0.0209383	8
	2	1	630984.4	2733.632	-1800.553	1	3273.337	-33.37158	1.793105E-006	-0.0217487	8
	3	2	501234.4	3074.382	-1749.176	1	3537.152	-29.6378	1.177961E-006	-0.0219126	8
	4	2	398109.4	3403.133	-1667.359	1	3789.644	-26.10246	1.234493E-006	-0.0219509	8
	5	2	316265.6	3673.941	-1541.937	1	3984.396	-22.76757	-5.341017E-007	-0.021575	8
	6	3	251203.1	3912.776	-1401.788	1	4156.299	-19.71054	-1.729016E-006	-0.0213418	8
	7	3	199546.9	4112.967	-1255.45	1	4300.309	-16.97439	7.433431E-007	-0.0218932	8
	8	3	158578.1	4263.576	-1142.962	1	4414.118	-15.00677	4.485208E-007	-0.0217834	8
	9	4	125953.1	4433.098	-979.658	1	4540.054	-12.46136	-6.264299E-007	-0.0204088	7
	10	4	100078.1	4527.771	-866.4871	1	4609.936	-10.8338	2.805622E-008	-0.0217953	7
	11	4	79453.13	4617.08	-783.0259	1	4683.007	-9.6254	4.223299E-009	-0.0217667	7
	12	5	63140.62	4692.091	-715.7487	1	4746.368	-8.673246	4.573831E-008	-0.0218179	7
	13	5	50203.12	4756.492	-665.3354	1	4802.8	-7.962836	-9.852057E-009	-0.0216948	7
	14	5	39890.62	4814.534	-630.4403	1	4855.635	-7.460164	4.082515E-008	-0.0217386	7
	15	6	31640.63	4866.736	-612.4332	1	4905.12	-7.172436	-3.41257E-008	-0.0216589	7
	16	6	25171.88	4916.761	-610.5569	1	4954.525	-7.078678	1.646715E-008	-0.0217874	7
	17	6	20015.62	4968.381	-625.6668	1	5007.621	-7.17746	8.325907E-008	-0.0218517	7
	18	6	15890.62	5019.983	-655.1782	1	5062.557	-7.435872	4.179717E-008	-0.0217403	7
	19	7	12609.37	5071.724	-703.772	1	5120.32	-7.900135	-1.858294E-008	-0.02166	7
	20	7	10078.13	5129.856	-769.6847	1	5187.276	-8.533019	5.207668E-008	-0.0218426	7
	21	7	8015.625	5187.401	-854.678	1	5257.338	-9.356017	4.856529E-008	-0.0218239	7
	22	8	6328.125	5253.985	-969.807	1	5342.742	-10.45822	4.209876E-008	-0.0217436	7
	23	8	5015.625	5325.998	-1111.7	1	5440.784	-11.79011	8.368882E-008	-0.0218588	7
	24	8	3984.375	5403.742	-1284.786	1	5554.377	-13.37425	-2.72609E-009	-0.0217049	7
	25	9	3170.956	5491.345	-1498.038	1	5692.011	-15.25899	8.452955E-008	-0.0218588	7
	26	9	2527.573	5587.646	-1756.953	1	5857.36	-17.45499	4.219878E-008	-0.0217479	7
	27	9	1976.103	5705.808	-2103.88	1	6081.328	-20.24024	-6.986056E-009	-0.0217096	7
	28	10	1577.524	5839.048	-2502.539	1	6352.731	-23.19934	-4.149824E-009	-0.0217112	7
	29	10	1265.625	5963.142	-2953.833	1	6654.636	-26.35144	2.18555E-009	-0.0217273	7
	30	10	998.264	6138.015	-3559.611	1	7095.496	-30.11068	1.662239E-008	-0.0218068	7
	31	11	796.875	6331.106	-4265.903	1	7634.188	-33.97211	-2.593076E-008	-0.0217309	7
	32	11	627.7902	6575.002	-5186.871	1	8374.621	-38.26911	-3.343895E-008	-0.0216733	7
	33	11	505.5147	6838.531	-6198.407	1	9229.613	-42.18899	-7.529661E-009	-0.0217193	7
	34	12	397.9953	7193.089	-7556.203	1	10432.48	-46.41028	3.877631E-010	-0.0217303	6
	35	12	315.5048	7613.422	-9172.196	1	11920.29	-50.30548	4.494383E-010	-0.0217298	6
	36	12	252.4038	8104.921	-11056.21	1	13708.74	-53.75617	4.157603E-010	-0.0217282	6
	37	12	198.6229	8753.669	-13513.76	1	16101.19	-57.06645	7.245857E-010	-0.0217305	6
	38	13	158.3615	9505.09	-16337.4	1	18901.26	-59.80917	6.968832E-010	-0.0217306	6
	39	13	125.558	10443.09	-19837.72	1	22418.59	-62.23653	8.034444E-010	-0.0217348	6
	40	13	100.4464	11549.14	-23899.72	1	26543.92	-64.20862	9.587419E-010	-0.0217339	6
	41	14	79.00281	13004.72	-29226.95	1	31989.64	-66.01301	3.104154E-010	-0.0217353	6
	42	14	63.3446	14425.57	-35230.75	1	38069.71	-67.73289	5.985268E-010	-0.0217405	6
	43	14	49.86702	16626.74	-43032.36	1	46132.77	-68.87459	3.313901E-010	-0.0217423	6
	44	15	39.72458	19291.41	-52141.93	1	55596.21	-69.69659	3.190969E-010	-0.0217347	6
	45	15	31.6723	22508.87	-63210.47	1	67098.53	-70.39949	7.478062E-010	-0.0217359	6
	46	16	24.93351	27001.43	-77224.59	1	81809.02	-70.72792	7.625209E-010	-0.021736	6
	47	16	19.86229	32476.02	-93432.95	1	98916.2	-70.83324	1.389426E-009	-0.0217253	6
	48	16	15.83615	39947.82	-113343.8	1	120177.6	-70.58508	-8.334468E-010	-0.0217324	5
	49	16	12.40079	50372.81	-137100.6	1	146061.6	-69.82591	1.486636E-009	-0.0217372	5
	50	17	9.93114	62670.38	-164003.1	1	175569.4	-69.08669	9.220457E-010	-0.0217351	5
	51	17	7.944915	79444.22	-196208.3	1	211681.5	-67.9571	3.748785E-010	-0.0217405	5
	52	17	6.317385	99271.8	-230964.3	1	251394.9	-66.74126	2.966956E-010	-0.0217436	5
	53	18	5.008013	126005.5	-272265.1	1	300009.4	-65.1651	4.357084E-010	-0.0217324	5
	54	19	3.945707	159799.2	-318797.5	1	356605.7	-63.3774	6.534041E-012	-0.0217413	5
	55	20	3.158693	198360.3	-366547.6	1	416778.1	-61.5796	4.657376E-011	-0.0217579	5
	56	22	2.504006	245399.3	-420502.1	1	486870.4	-59.73275	3.074886E-010	-0.0217489	5
	57	23	1.998082	295748.1	-475481.7	1	559955.1	-58.11852	1.397887E-010	-0.0217663	5
	58	25	1.584686	355331.5	-538431.5	1	645111.6	-56.57766	1.673761E-011	-0.0217956	5
	59	27	1.266892	415690.6	-605639	1	734572.8	-55.53558	3.223246E-011	-0.0217785	5
	60	29	0.999041	484894.2	-684684.8	1	838996.8	-54.69385	3.612671E-011	-0.0217509	5
