EXPLAIN
TAG	EISPOT
TITLE	LABEL	Potentiostatic EIS	Test &Identifier
DATE	LABEL	9/11/2020	Date
TIME	LABEL	19:44:42	Time
NOTES	NOTES	1	&Notes...
	
PSTAT	PSTAT	REF600-11020	Potentiostat
VDC	POTEN	0.00000E+000	T	DC &Voltage (V)
FREQINIT	QUANT	1.00000E+006	Initial Fre&q. (Hz)
FREQFINAL	QUANT	1.00000E+000	Final Fre&q. (Hz)
PTSPERDEC	QUANT	1.00000E+001	Points/&decade
VAC	QUANT	2.50000E+001	AC &Voltage (mV rms)
AREA	QUANT	4.00000E-005	&Area (cm^2)
CONDIT	TWOPARAM	F	5.00000E+000	0.00000E+000	Conditionin&g	Time(s)	E(V)
DELAY	TWOPARAM	F	3.00000E+000	0.00000E+000	Init. De&lay	Time(s)	Stab.(mV/s)
SPEED	SELECTOR	0	&Optimize for:
ZGUESS	QUANT	1.00000E+003	E&stimated Z (ohms)
OCVCURVE	TABLE	39
	Pt	T	Vf	Vm	Ach	Over
	#	s	V vs. Ref.	V	V	bits
	0	0.258333	-2.35445E-001	-2.35445E-001	5.65658E-004	...........
	1	0.516667	-2.35445E-001	-2.35453E-001	5.66925E-004	...........
	2	0.775	-2.35446E-001	-2.35462E-001	5.60125E-004	...........
	3	1.03333	-2.35449E-001	-2.35474E-001	5.66892E-004	...........
	4	1.29167	-2.35454E-001	-2.35483E-001	5.60959E-004	...........
	5	1.55	-2.35462E-001	-2.35492E-001	5.67558E-004	...........
	6	1.80833	-2.35472E-001	-2.35506E-001	5.66325E-004	...........
	7	2.06667	-2.35482E-001	-2.35517E-001	5.68325E-004	...........
	8	2.325	-2.35493E-001	-2.35527E-001	5.66358E-004	...........
	9	2.58333	-2.35504E-001	-2.35541E-001	5.63159E-004	...........
	10	2.84167	-2.35516E-001	-2.35556E-001	5.67525E-004	...........
	11	3.1	-2.35528E-001	-2.35568E-001	5.64525E-004	...........
	12	3.35833	-2.35541E-001	-2.35582E-001	5.64159E-004	...........
	13	3.61667	-2.35554E-001	-2.35596E-001	5.66625E-004	...........
	14	3.875	-2.35567E-001	-2.35605E-001	5.63625E-004	...........
	15	4.13333	-2.35581E-001	-2.35624E-001	5.63559E-004	...........
	16	4.39167	-2.35594E-001	-2.35632E-001	5.64392E-004	...........
	17	4.65	-2.35607E-001	-2.35643E-001	5.66059E-004	...........
	18	4.90833	-2.35619E-001	-2.35653E-001	5.64225E-004	...........
	19	5.16667	-2.35631E-001	-2.35665E-001	5.66159E-004	...........
	20	5.425	-2.35642E-001	-2.35676E-001	5.65158E-004	...........
	21	5.68333	-2.35653E-001	-2.35683E-001	5.58325E-004	...........
	22	5.94167	-2.35663E-001	-2.35692E-001	5.66225E-004	...........
	23	6.2	-2.35673E-001	-2.35703E-001	5.66325E-004	...........
	24	6.45833	-2.35683E-001	-2.35714E-001	5.66425E-004	...........
	25	6.71667	-2.35693E-001	-2.35722E-001	5.72492E-004	...........
	26	6.975	-2.35702E-001	-2.35726E-001	5.65058E-004	...........
	27	7.23333	-2.35711E-001	-2.35734E-001	5.67058E-004	...........
	28	7.49167	-2.35720E-001	-2.35740E-001	5.66592E-004	...........
	29	7.75	-2.35727E-001	-2.35751E-001	5.62892E-004	...........
	30	8.00833	-2.35734E-001	-2.35760E-001	5.66392E-004	...........
	31	8.26667	-2.35742E-001	-2.35767E-001	5.65292E-004	...........
	32	8.525	-2.35750E-001	-2.35777E-001	5.63058E-004	...........
	33	8.78333	-2.35758E-001	-2.35786E-001	5.65192E-004	...........
	34	9.04167	-2.35767E-001	-2.35792E-001	5.66492E-004	...........
	35	9.3	-2.35776E-001	-2.35800E-001	5.67392E-004	...........
	36	9.5583	-2.35784E-001	-2.35807E-001	5.63792E-004	...........
	37	9.8167	-2.35792E-001	-2.35812E-001	5.66525E-004	...........
	38	10.075	-2.35799E-001	-2.35820E-001	5.67192E-004	...........
EOC	QUANT	-0.2357989	Open Circuit (V)
PSTATMODEL	IQUANT	4	Pstat Model
PSTATSECTION	LABEL	REF600-11020	Pstat Section
PSTATSERIALNO	LABEL	11020	Pstat Serial Number
CTRLMODE	IQUANT	1	Control Mode
IESTAB	IQUANT	0	I/E Stability
CASPEED	IQUANT	1	Control Amp Speed
CONVENTION	IQUANT	1	Current Convention
ICHRANGE	IQUANT	2	Ich Range
ICHRANGEMODE	TOGGLE	F	Ich Auto Range
ICHOFFSETENABLE	TOGGLE	T	Ich Offset Enable
ICHOFFSET	QUANT	0	Ich Offset (V)
ICHFILTER	IQUANT	3	Ich Filter
VCHRANGE	IQUANT	2	Vch Range
VCHRANGEMODE	TOGGLE	F	Vch Auto Range
VCHOFFSETENABLE	TOGGLE	T	Vch Offset Enable
VCHOFFSET	QUANT	0	Vch Offset (V)
VCHFILTER	IQUANT	3	Vch Filter
ACHRANGE	IQUANT	2	Ach Range
ACHOFFSETENABLE	TOGGLE	F	Ach Offset Enable
ACHOFFSET	QUANT	0	Ach Offset (V)
ACHFILTER	IQUANT	3	Ach Filter
IERANGELOWERLIMIT	IQUANT	1	I/E Range Lower Limit
IERANGEMODE	TOGGLE	F	I/E AutoRange
IERANGE	IQUANT	8	I/E Range
POSFEEDENABLE	TOGGLE	F	Positive Feedback IR Comp
POSFEEDRESISTANCE	QUANT	0	Positive Feedback Resistance (ohm)
ACHSELECT	IQUANT	0	Ach Select
CABLEID	IQUANT	14	Cable ID
DCCALDATE	LABEL	9/1/2020	DC Calibration Date
ACCALDATE	LABEL	9/1/2020	AC Calibration Date
THERMOSELECT	IQUANT	1	Thermo Select
FRAMEWORKVERSION	QUANT	6.33	Framework Version
INSTRUMENTVERSION	LABEL	3.50	Instrument Version
ZCURVE	TABLE
	Pt	Time	Freq	Zreal	Zimag	Zsig	Zmod	Zphz	Idc	Vdc	IERange
	#	s	Hz	ohm	ohm	V	ohm	°	A	V	#
	0	1	1000078	2083.379	-2054.606	1	2926.068	-44.6016	7.500914E-008	-0.2336991	8
	1	1	794390.6	2446.998	-2174.927	1	3273.852	-41.63116	7.253759E-008	-0.2339739	8
	2	2	630984.4	2827.715	-2271.042	1	3626.79	-38.76923	6.998575E-008	-0.2340951	8
	3	2	501234.4	3226.056	-2334.885	1	3982.352	-35.89546	1.180418E-007	-0.2341595	8
	4	2	398109.4	3627.538	-2375.516	1	4336.14	-33.21904	5.604723E-008	-0.234228	8
	5	3	316265.6	4030.879	-2393.752	1	4688.074	-30.70412	7.116648E-008	-0.234238	8
	6	3	251203.1	4434.901	-2377.07	1	5031.78	-28.19094	7.781379E-008	-0.2342589	8
	7	3	199546.9	4817.326	-2336.483	1	5354.044	-25.87416	7.600901E-008	-0.2342419	8
	8	4	158578.1	5195.83	-2278.499	1	5673.465	-23.67863	7.391518E-008	-0.2342415	8
	9	4	125953.1	5587.9	-2154.599	1	5988.9	-21.08579	-5.483932E-009	-0.2342598	7
	10	4	100078.1	5898.289	-2064.956	1	6249.309	-19.29485	4.324449E-010	-0.2342605	7
	11	5	79453.13	6183.829	-1989.561	1	6496.006	-17.83486	9.717233E-010	-0.2342709	7
	12	5	63140.62	6438.718	-1923.16	1	6719.794	-16.63019	3.113227E-010	-0.2342685	7
	13	5	50203.12	6671.563	-1876.286	1	6930.383	-15.70791	1.240503E-009	-0.2342706	7
	14	5	39890.62	6887.025	-1851.322	1	7131.515	-15.04616	6.288813E-010	-0.2342715	7
	15	6	31640.63	7090.231	-1856.941	1	7329.366	-14.67621	3.389419E-009	-0.2342851	7
	16	6	25171.88	7282.159	-1894.087	1	7524.454	-14.57956	5.996573E-010	-0.2342832	7
	17	6	20015.62	7471.556	-1970.421	1	7727.011	-14.77384	6.047995E-010	-0.2342822	7
	18	7	15890.62	7668.382	-2089.929	1	7948.074	-15.24505	4.183112E-009	-0.2342804	7
	19	7	12609.37	7869.707	-2253.701	1	8186.053	-15.98048	3.346585E-009	-0.2342781	7
	20	7	10078.13	8077.956	-2461.387	1	8444.631	-16.9462	2.116235E-010	-0.2342878	7
	21	8	8015.625	8311.399	-2729.198	1	8748.021	-18.17852	1.792947E-009	-0.234284	7
	22	8	6328.125	8617.755	-3031.032	1	9135.254	-19.37777	3.22855E-010	-0.2342899	6
	23	8	5015.625	8911.953	-3449.793	1	9556.36	-21.16129	-4.875658E-011	-0.2342837	6
	24	9	3984.375	9238.638	-3944.205	1	10045.36	-23.11884	2.565988E-010	-0.2342865	6
	25	9	3170.956	9613.13	-4526.356	1	10625.45	-25.21346	1.18141E-010	-0.2342854	6
	26	9	2527.573	10043.42	-5208.802	1	11313.79	-27.41254	3.746378E-012	-0.2342896	6
	27	10	1976.103	10587.25	-6088.069	1	12212.88	-29.90052	-2.172287E-011	-0.2342911	6
	28	10	1577.524	11167.29	-7029.511	1	13195.55	-32.18932	7.483795E-010	-0.2342962	6
	29	10	1265.625	11828.58	-8106.461	1	14339.8	-34.42396	4.780292E-010	-0.2343004	6
	30	11	998.264	12670.05	-9457.13	1	15810.36	-36.73826	1.923538E-010	-0.2342938	6
	31	11	796.875	13600.15	-10941.48	1	17455.09	-38.81707	-5.172842E-011	-0.234298	6
	32	11	627.7902	14767.18	-12771.91	1	19524.12	-40.85603	9.141449E-010	-0.2342927	6
	33	12	505.5147	16008.12	-14686.14	1	21724.24	-42.53384	1.261088E-010	-0.2343018	6
	34	12	397.9953	17636.18	-17123.29	1	24581.33	-44.15464	4.718776E-010	-0.2342807	6
	35	12	315.5048	19499.33	-19846.56	1	27822.83	-45.50562	5.415392E-010	-0.2342817	6
	36	12	252.4038	21607.13	-22838.5	1	31439.87	-46.58697	4.674678E-010	-0.2342857	6
	37	13	198.6229	24271.63	-26503.07	1	35937.79	-47.51642	4.430466E-010	-0.2342881	6
	38	13	158.3615	27237.23	-30440.73	1	40847.34	-48.179	4.093078E-010	-0.2342884	6
	39	13	125.558	30794.26	-34997.93	1	46616.96	-48.65584	5.795421E-010	-0.2342841	6
	40	14	100.4464	34776.7	-39914.84	1	52939.71	-48.93526	7.289812E-010	-0.2342908	6
	41	14	79.00281	39750.03	-45855.07	1	60685.69	-49.07922	5.875148E-010	-0.2342871	6
	42	14	63.3446	45018.37	-51936.72	1	68731.91	-49.0815	6.429063E-010	-0.2342932	6
	43	15	49.86702	51557.64	-59288.16	1	78570.2	-48.98941	2.854331E-010	-0.2342934	6
	44	15	39.72458	58653.83	-67075.87	1	89103.55	-48.83225	4.460004E-010	-0.2342869	6
	45	15	31.6723	66683.07	-75619.8	1	100821.6	-48.5935	1.656717E-010	-0.2342942	5
	46	16	24.93351	76215.7	-85795.24	1	114759.1	-48.3839	1.638926E-010	-0.2343013	5
	47	16	19.86229	86264.12	-96623.7	1	129528.5	-48.24202	1.830346E-009	-0.2342919	5
	48	16	15.83615	97840.7	-108694.8	1	146244.1	-48.0083	-6.01695E-010	-0.2342995	5
	49	17	12.40079	111684.8	-123339.5	1	166391.5	-47.83894	-1.531729E-009	-0.2342938	5
	50	17	9.93114	125419.6	-138575.5	1	186904.4	-47.85292	-1.167887E-009	-0.2343017	5
	51	17	7.944915	141390.2	-155603.3	1	210246.5	-47.73989	1.01071E-009	-0.2343028	5
	52	18	6.317385	159711.2	-175733	1	237465.3	-47.73453	-2.033543E-010	-0.2342905	5
	53	19	5.008013	180499.6	-198711.8	1	268452.1	-47.74961	-6.061129E-010	-0.2343064	5
	54	19	3.945707	205180.7	-224845.9	1	304392.5	-47.61832	-2.741869E-011	-0.2342922	5
	55	20	3.158693	230249.1	-252755.1	1	341906.2	-47.66782	-2.644721E-010	-0.2343082	5
	56	21	2.504006	259878.8	-284614.5	1	385412	-47.60109	2.473173E-010	-0.234313	5
	57	23	1.998082	290518	-320531.7	1	432598.3	-47.81202	2.948733E-010	-0.234294	5
	58	24	1.584686	325675.6	-361263.6	1	486390.8	-47.96565	6.39664E-011	-0.2343462	5
	59	26	1.266892	363333.4	-408480.3	1	546687.6	-48.34768	8.673653E-012	-0.2343571	5
	60	29	0.999041	406054.3	-467285	1	619060.1	-49.0105	-2.36829E-012	-0.2343551	5
