EXPLAIN
TAG	EISPOT
TITLE	LABEL	Potentiostatic EIS	Test &Identifier
DATE	LABEL	6/14/2020	Date
TIME	LABEL	20:54:34	Time
NOTES	NOTES	1	&Notes...
	
PSTAT	PSTAT	REF600-10037	Potentiostat
VDC	POTEN	0.00000E+000	T	DC &Voltage (V)
FREQINIT	QUANT	1.00000E+006	Initial Fre&q. (Hz)
FREQFINAL	QUANT	1.00000E+000	Final Fre&q. (Hz)
PTSPERDEC	QUANT	1.00000E+001	Points/&decade
VAC	QUANT	2.50000E+001	AC &Voltage (mV rms)
AREA	QUANT	2.50000E-001	&Area (cm^2)
CONDIT	TWOPARAM	F	5.00000E+000	0.00000E+000	Conditionin&g	Time(s)	E(V)
DELAY	TWOPARAM	F	3.00000E+000	0.00000E+000	Init. De&lay	Time(s)	Stab.(mV/s)
SPEED	SELECTOR	0	&Optimize for:
ZGUESS	QUANT	1.00000E+003	E&stimated Z (ohms)
OCVCURVE	TABLE	39
	Pt	T	Vf	Vm	Ach	Over
	#	s	V vs. Ref.	V	V	bits
	0	0.258333	-8.59743E-002	-8.59743E-002	5.47587E-004	...........
	1	0.516667	-8.59741E-002	-8.59631E-002	5.48720E-004	...........
	2	0.775	-8.59729E-002	-8.59591E-002	5.39921E-004	...........
	3	1.03333	-8.59700E-002	-8.59557E-002	5.44321E-004	...........
	4	1.29167	-8.59656E-002	-8.59544E-002	5.46687E-004	...........
	5	1.55	-8.59611E-002	-8.59528E-002	5.42054E-004	...........
	6	1.80833	-8.59575E-002	-8.59548E-002	5.45120E-004	...........
	7	2.06667	-8.59552E-002	-8.59543E-002	5.44287E-004	...........
	8	2.325	-8.59543E-002	-8.59584E-002	5.45520E-004	...........
	9	2.58333	-8.59545E-002	-8.59573E-002	5.46187E-004	...........
	10	2.84167	-8.59554E-002	-8.59591E-002	5.42787E-004	...........
	11	3.1	-8.59566E-002	-8.59611E-002	5.43121E-004	...........
	12	3.35833	-8.59579E-002	-8.59631E-002	5.43620E-004	...........
	13	3.61667	-8.59594E-002	-8.59668E-002	5.41987E-004	...........
	14	3.875	-8.59613E-002	-8.59692E-002	5.42287E-004	...........
	15	4.13333	-8.59636E-002	-8.59734E-002	5.41154E-004	...........
	16	4.39167	-8.59664E-002	-8.59780E-002	5.40154E-004	...........
	17	4.65	-8.59697E-002	-8.59820E-002	5.42187E-004	...........
	18	4.90833	-8.59734E-002	-8.59856E-002	5.48054E-004	...........
	19	5.16667	-8.59774E-002	-8.59892E-002	5.47754E-004	...........
	20	5.425	-8.59814E-002	-8.59948E-002	5.45487E-004	...........
	21	5.68333	-8.59855E-002	-8.60006E-002	5.41521E-004	...........
	22	5.94167	-8.59898E-002	-8.60047E-002	5.44254E-004	...........
	23	6.2	-8.59946E-002	-8.60093E-002	5.37421E-004	...........
	24	6.45833	-8.59995E-002	-8.60134E-002	5.41821E-004	...........
	25	6.71667	-8.60042E-002	-8.60169E-002	5.48754E-004	...........
	26	6.975	-8.60087E-002	-8.60212E-002	5.44487E-004	...........
	27	7.23333	-8.60129E-002	-8.60251E-002	5.43220E-004	...........
	28	7.49167	-8.60169E-002	-8.60288E-002	5.43121E-004	...........
	29	7.75	-8.60208E-002	-8.60307E-002	5.39587E-004	...........
	30	8.00833	-8.60245E-002	-8.60340E-002	5.42287E-004	...........
	31	8.26667	-8.60278E-002	-8.60381E-002	5.45587E-004	...........
	32	8.525	-8.60311E-002	-8.60451E-002	5.43521E-004	...........
	33	8.78333	-8.60348E-002	-8.60527E-002	5.46820E-004	...........
	34	9.04167	-8.60394E-002	-8.60572E-002	5.40954E-004	...........
	35	9.3	-8.60449E-002	-8.60606E-002	5.42554E-004	...........
	36	9.5583	-8.60506E-002	-8.60654E-002	5.40554E-004	...........
	37	9.8167	-8.60559E-002	-8.60699E-002	5.42954E-004	...........
	38	10.075	-8.60607E-002	-8.60730E-002	5.44054E-004	...........
EOC	QUANT	-0.0860607	Open Circuit (V)
PSTATMODEL	IQUANT	4	Pstat Model
PSTATSECTION	LABEL	REF600-10037	Pstat Section
PSTATSERIALNO	LABEL	10037	Pstat Serial Number
CTRLMODE	IQUANT	1	Control Mode
IESTAB	IQUANT	0	I/E Stability
CASPEED	IQUANT	1	Control Amp Speed
CONVENTION	IQUANT	1	Current Convention
ICHRANGE	IQUANT	2	Ich Range
ICHRANGEMODE	TOGGLE	F	Ich Auto Range
ICHOFFSETENABLE	TOGGLE	T	Ich Offset Enable
ICHOFFSET	QUANT	0	Ich Offset (V)
ICHFILTER	IQUANT	3	Ich Filter
VCHRANGE	IQUANT	2	Vch Range
VCHRANGEMODE	TOGGLE	F	Vch Auto Range
VCHOFFSETENABLE	TOGGLE	T	Vch Offset Enable
VCHOFFSET	QUANT	0	Vch Offset (V)
VCHFILTER	IQUANT	3	Vch Filter
ACHRANGE	IQUANT	2	Ach Range
ACHOFFSETENABLE	TOGGLE	F	Ach Offset Enable
ACHOFFSET	QUANT	0	Ach Offset (V)
ACHFILTER	IQUANT	3	Ach Filter
IERANGELOWERLIMIT	IQUANT	1	I/E Range Lower Limit
IERANGEMODE	TOGGLE	F	I/E AutoRange
IERANGE	IQUANT	8	I/E Range
POSFEEDENABLE	TOGGLE	F	Positive Feedback IR Comp
POSFEEDRESISTANCE	QUANT	0	Positive Feedback Resistance (ohm)
ACHSELECT	IQUANT	0	Ach Select
CABLEID	IQUANT	14	Cable ID
DCCALDATE	LABEL	6/8/2020	DC Calibration Date
ACCALDATE	LABEL	6/8/2020	AC Calibration Date
THERMOSELECT	IQUANT	1	Thermo Select
FRAMEWORKVERSION	QUANT	6.33	Framework Version
INSTRUMENTVERSION	LABEL	3.50	Instrument Version
ZCURVE	TABLE
	Pt	Time	Freq	Zreal	Zimag	Zsig	Zmod	Zphz	Idc	Vdc	IERange
	#	s	Hz	ohm	ohm	V	ohm	°	A	V	#
	0	1	1000078	2331.674	-1807.957	1	2950.494	-37.78965	1.219912E-007	-0.0768917	8
	1	2	794390.6	2693.823	-1822.593	1	3252.465	-34.08158	-1.005859E-007	-0.0771179	8
	2	2	630984.4	3046.028	-1782.744	1	3529.371	-30.33909	-1.626593E-007	-0.0772563	8
	3	2	501234.4	3372.046	-1699.56	1	3776.136	-26.74876	1.137129E-007	-0.0773571	8
	4	3	398109.4	3658.34	-1587.048	1	3987.752	-23.45199	1.191355E-007	-0.0773929	8
	5	3	316265.6	3905.412	-1460.01	1	4169.397	-20.4979	1.158461E-007	-0.077407	8
	6	3	251203.1	4113.803	-1331.474	1	4323.91	-17.9347	-2.832676E-008	-0.0774413	8
	7	3	199546.9	4285.488	-1207.731	1	4452.417	-15.73883	-4.519908E-008	-0.0774331	8
	8	4	158578.1	4423.114	-1101.077	1	4558.104	-13.9789	2.818935E-007	-0.0774034	8
	9	4	125953.1	4619.138	-852.3537	1	4697.121	-10.45499	-1.837387E-007	-0.0772225	7
	10	4	100078.1	4703.231	-807.0739	1	4771.976	-9.73711	2.862712E-008	-0.0773977	7
	11	5	79453.13	4779.169	-782.8487	1	4842.862	-9.302682	-7.692943E-008	-0.0773436	7
	12	5	63140.62	4850.924	-777.5431	1	4912.844	-9.106344	5.018009E-008	-0.0775346	7
	13	5	50203.12	4922.397	-789.123	1	4985.249	-9.107748	-7.179437E-008	-0.0773841	7
	14	6	39890.62	4995.593	-818.9687	1	5062.278	-9.310152	-1.537262E-008	-0.0774895	7
	15	6	31640.63	5072.945	-866.775	1	5146.462	-9.69606	8.655639E-009	-0.0773954	7
	16	6	25171.88	5154.465	-934.5341	1	5238.498	-10.27642	6.387567E-008	-0.0774649	7
	17	7	20015.62	5244.322	-1024.183	1	5343.395	-11.05042	-4.804121E-008	-0.0774516	7
	18	7	15890.62	5342.703	-1135.921	1	5462.124	-12.00302	3.29167E-008	-0.0774143	7
	19	7	12609.37	5454.568	-1275.905	1	5601.807	-13.16562	8.207805E-008	-0.0775207	7
	20	8	10078.13	5574.643	-1437.12	1	5756.905	-14.45586	-1.672759E-008	-0.0774886	7
	21	8	8015.625	5714.576	-1631.613	1	5942.94	-15.93499	4.52199E-008	-0.0774346	7
	22	8	6328.125	5881.24	-1873.647	1	6172.482	-17.67085	6.102454E-008	-0.0775571	7
	23	9	5015.625	6066.907	-2152.417	1	6437.411	-19.53367	-7.038353E-008	-0.0773783	7
	24	9	3984.375	6275.786	-2477.862	1	6747.243	-21.54554	7.397363E-008	-0.0775553	7
	25	9	3170.956	6515.491	-2854.505	1	7113.355	-23.65873	3.353141E-008	-0.0774141	7
	26	9	2527.573	6789.952	-3294.008	1	7546.783	-25.87941	-3.914286E-008	-0.077341	7
	27	10	1976.103	7136.165	-3854.347	1	8110.539	-28.37413	-6.964124E-008	-0.0774071	7
	28	10	1577.524	7504.544	-4456.026	1	8727.792	-30.70087	1.383607E-008	-0.0775272	7
	29	10	1265.625	7915.836	-5135.076	1	9435.543	-32.97185	-4.630542E-008	-0.077449	7
	30	11	998.264	8450.503	-5956.858	1	10339.01	-35.18045	-7.97034E-009	-0.0774671	6
	31	11	796.875	9019.907	-6902.735	1	11358.1	-37.42603	-1.394976E-008	-0.0773324	6
	32	11	627.7902	9721.38	-8067.442	1	12632.84	-39.68814	1.112201E-008	-0.077627	6
	33	12	505.5147	10444.21	-9292.909	1	13979.97	-41.66163	-3.584242E-009	-0.0773017	6
	34	12	397.9953	11390.97	-10861.73	1	15739.48	-43.63758	5.032678E-010	-0.0774313	6
	35	12	315.5048	12443.44	-12638.66	1	17736.26	-45.44595	4.960311E-010	-0.0774344	6
	36	13	252.4038	13602.7	-14620.28	1	19969.63	-47.06491	3.40039E-010	-0.0774318	6
	37	13	198.6229	15027.44	-17097.03	1	22762.52	-48.68614	5.553085E-010	-0.0774337	6
	38	13	158.3615	16560.54	-19840.08	1	25843.38	-50.14822	4.32676E-010	-0.0774332	6
	39	14	125.558	18331.2	-23135.57	1	29517.58	-51.60886	5.102532E-010	-0.0774284	6
	40	14	100.4464	20242.29	-26863.15	1	33635.98	-53.00074	1.815356E-010	-0.0774346	6
	41	14	79.00281	22567.75	-31644.04	1	38867.07	-54.50447	3.605775E-010	-0.0774397	6
	42	15	63.3446	25043.01	-36894.54	1	44591.02	-55.83241	2.371211E-010	-0.0774377	6
	43	15	49.86702	28064.71	-43768.72	1	51993.55	-57.33182	2.300807E-010	-0.0774332	6
	44	15	39.72458	31408.73	-51625.23	1	60429.07	-58.68371	4.535417E-010	-0.0774308	6
	45	16	31.6723	35411.3	-61052.38	1	70578.7	-59.88562	2.06578E-010	-0.0774353	6
	46	16	24.93351	40556.96	-73041.06	1	83545.58	-60.95823	6.953654E-010	-0.0774371	6
	47	16	19.86229	46408.01	-86460.06	1	98127.7	-61.77502	-4.842513E-009	-0.0860785	6
	48	17	15.83615	53370.21	-102132.2	1	115236.1	-62.41022	-3.328108E-009	-0.0860698	5
	49	17	12.40079	63451.31	-122745.1	1	138175.3	-62.66394	-2.462009E-009	-0.0860698	5
	50	17	9.93114	74801.11	-144738.3	1	162924.5	-62.66997	-1.858483E-009	-0.0860703	5
	51	18	7.944915	88727.37	-170156	1	191900	-62.46035	-1.413552E-009	-0.0860717	5
	52	18	6.317385	107215.2	-200330.9	1	227217	-61.84474	-1.002776E-009	-0.0860683	5
	53	19	5.008013	130051.8	-234814.8	1	268424	-61.0202	-7.547739E-010	-0.0860705	5
	54	20	3.945707	158706.1	-274225.5	1	316839.5	-59.94018	-5.425772E-010	-0.0860676	5
	55	21	3.158693	191005.4	-314640.8	1	368078.7	-58.7398	-4.84993E-010	-0.0860698	5
	56	23	2.504006	230837.5	-360434.3	1	428017.3	-57.36276	-3.456137E-010	-0.0860711	5
	57	24	1.998082	273358.6	-407954.8	1	491072.4	-56.17511	-2.795519E-010	-0.0860704	5
	58	26	1.584686	321025.8	-461000.3	1	561764	-55.14789	-1.790067E-010	-0.0860726	5
	59	29	1.266892	369739.7	-517736.3	1	636206.2	-54.46759	-1.20028E-010	-0.086071	5
	60	32	0.999041	423701.6	-587128.1	1	724045.9	-54.18386	-1.046466E-010	-0.0860724	5
