EXPLAIN
TAG	EISPOT
TITLE	LABEL	Potentiostatic EIS	Test &Identifier
DATE	LABEL	5/26/2020	Date
TIME	LABEL	18:46:07	Time
NOTES	NOTES	1	&Notes...
	
PSTAT	PSTAT	REF600-11020	Potentiostat
VDC	POTEN	0.00000E+000	T	DC &Voltage (V)
FREQINIT	QUANT	1.00000E+006	Initial Fre&q. (Hz)
FREQFINAL	QUANT	1.00000E+000	Final Fre&q. (Hz)
PTSPERDEC	QUANT	1.00000E+001	Points/&decade
VAC	QUANT	2.50000E+001	AC &Voltage (mV rms)
AREA	QUANT	5.00000E-004	&Area (cm^2)
CONDIT	TWOPARAM	F	5.00000E+000	0.00000E+000	Conditionin&g	Time(s)	E(V)
DELAY	TWOPARAM	T	3.00000E+000	0.00000E+000	Init. De&lay	Time(s)	Stab.(mV/s)
SPEED	SELECTOR	0	&Optimize for:
ZGUESS	QUANT	1.00000E+003	E&stimated Z (ohms)
OCVCURVE	TABLE	12
	Pt	T	Vf	Vm	Ach	Over
	#	s	V vs. Ref.	V	V	bits
	0	0.258333	1.16456E-001	1.16456E-001	5.85396E-004	...........
	1	0.516667	1.16455E-001	1.16420E-001	5.82630E-004	...........
	2	0.775	1.16451E-001	1.16387E-001	5.86363E-004	...........
	3	1.03333	1.16440E-001	1.16362E-001	5.84530E-004	...........
	4	1.29167	1.16419E-001	1.16336E-001	5.85430E-004	...........
	5	1.55	1.16394E-001	1.16312E-001	5.83763E-004	...........
	6	1.80833	1.16366E-001	1.16293E-001	5.82363E-004	...........
	7	2.06667	1.16340E-001	1.16268E-001	5.80997E-004	...........
	8	2.325	1.16316E-001	1.16251E-001	5.85063E-004	...........
	9	2.58333	1.16293E-001	1.16228E-001	5.82830E-004	...........
	10	2.84167	1.16272E-001	1.16210E-001	5.83830E-004	...........
	11	3.1	1.16251E-001	1.16196E-001	5.83730E-004	...........
EOC	QUANT	0.1162514	Open Circuit (V)
PSTATMODEL	IQUANT	4	Pstat Model
PSTATSECTION	LABEL	REF600-11020	Pstat Section
PSTATSERIALNO	LABEL	11020	Pstat Serial Number
CTRLMODE	IQUANT	1	Control Mode
IESTAB	IQUANT	0	I/E Stability
CASPEED	IQUANT	1	Control Amp Speed
CONVENTION	IQUANT	1	Current Convention
ICHRANGE	IQUANT	2	Ich Range
ICHRANGEMODE	TOGGLE	F	Ich Auto Range
ICHOFFSETENABLE	TOGGLE	T	Ich Offset Enable
ICHOFFSET	QUANT	0	Ich Offset (V)
ICHFILTER	IQUANT	3	Ich Filter
VCHRANGE	IQUANT	2	Vch Range
VCHRANGEMODE	TOGGLE	F	Vch Auto Range
VCHOFFSETENABLE	TOGGLE	T	Vch Offset Enable
VCHOFFSET	QUANT	0	Vch Offset (V)
VCHFILTER	IQUANT	3	Vch Filter
ACHRANGE	IQUANT	2	Ach Range
ACHOFFSETENABLE	TOGGLE	F	Ach Offset Enable
ACHOFFSET	QUANT	0	Ach Offset (V)
ACHFILTER	IQUANT	3	Ach Filter
IERANGELOWERLIMIT	IQUANT	1	I/E Range Lower Limit
IERANGEMODE	TOGGLE	F	I/E AutoRange
IERANGE	IQUANT	8	I/E Range
POSFEEDENABLE	TOGGLE	F	Positive Feedback IR Comp
POSFEEDRESISTANCE	QUANT	0	Positive Feedback Resistance (ohm)
ACHSELECT	IQUANT	0	Ach Select
CABLEID	IQUANT	14	Cable ID
DCCALDATE	LABEL	2/27/2020	DC Calibration Date
ACCALDATE	LABEL	2/27/2020	AC Calibration Date
THERMOSELECT	IQUANT	1	Thermo Select
FRAMEWORKVERSION	QUANT	6.33	Framework Version
INSTRUMENTVERSION	LABEL	3.50	Instrument Version
ZCURVE	TABLE
	Pt	Time	Freq	Zreal	Zimag	Zsig	Zmod	Zphz	Idc	Vdc	IERange
	#	s	Hz	ohm	ohm	V	ohm	°	A	V	#
	0	1	1000078	1690.951	-1911.495	1	2552.083	-48.50331	4.837863E-008	0.1185579	8
	1	1	794390.6	1966.097	-2127.448	1	2896.821	-47.2572	4.976489E-008	0.1182516	8
	2	1	630984.4	2276.871	-2350.702	1	3272.605	-45.91405	-1.946259E-009	0.1181248	8
	3	2	501234.4	2629.96	-2587.299	1	3689.283	-44.53151	3.837124E-008	0.1180108	8
	4	2	398109.4	3027.566	-2823.378	1	4139.761	-43.00129	4.197466E-008	0.1179839	8
	5	2	316265.6	3473.413	-3063.797	1	4631.571	-41.41458	4.866525E-008	0.1179399	8
	6	3	251203.1	3959.579	-3290.091	1	5148.103	-39.72385	4.335601E-008	0.117936	8
	7	3	199546.9	4483.271	-3503.307	1	5689.717	-38.00469	4.939729E-008	0.117954	8
	8	3	158578.1	5041.817	-3686.53	1	6245.832	-36.17392	1.127161E-008	0.1179583	8
	9	4	125953.1	5711.914	-3794.191	1	6857.248	-33.59447	7.334103E-010	0.1178935	7
	10	4	100078.1	6290.027	-3937.523	1	7420.817	-32.04635	2.103984E-009	0.1178687	7
	11	4	79453.13	6903.64	-4092.648	1	8025.585	-30.66051	3.015829E-009	0.1178566	7
	12	5	63140.62	7521.82	-4229.055	1	8629.177	-29.34636	2.662509E-009	0.1178558	7
	13	5	50203.12	8155.742	-4364.045	1	9249.92	-28.15073	2.778769E-009	0.1178582	7
	14	5	39890.62	8792.043	-4492.819	1	9873.47	-27.06747	2.083524E-009	0.1178557	7
	15	6	31640.63	9440.972	-4630.271	1	10515.29	-26.12538	2.997408E-009	0.1178555	7
	16	6	25171.88	10082.73	-4776.063	1	11156.71	-25.34634	3.267909E-009	0.1178519	7
	17	6	20015.62	10727.39	-4945.721	1	11812.58	-24.75144	3.619673E-009	0.1178516	7
	18	7	15890.62	11388.67	-5142.744	1	12495.98	-24.30236	3.645764E-009	0.1178538	7
	19	7	12609.37	12163.09	-5230.923	1	13240.22	-23.27085	1.82656E-010	0.1178978	6
	20	7	10078.13	12809.59	-5525.118	1	13950.36	-23.33182	4.164345E-010	0.1179042	6
	21	7	8015.625	13505.14	-5882.055	1	14730.49	-23.53515	4.258033E-010	0.1178989	6
	22	8	6328.125	14255.02	-6310.428	1	15589.33	-23.87807	5.076947E-010	0.1179063	6
	23	8	5015.625	15039.63	-6800.488	1	16505.67	-24.33112	3.398573E-010	0.1178971	6
	24	8	3984.375	15861.72	-7364.13	1	17487.84	-24.90406	4.940852E-010	0.1178957	6
	25	9	3170.956	16722.09	-8011	1	18541.96	-25.59754	3.359417E-010	0.117893	6
	26	9	2527.573	17624.4	-8755.269	1	19679.28	-26.4168	4.945554E-010	0.1178933	6
	27	9	1976.103	18658.18	-9706.33	1	21031.89	-27.48427	3.543758E-010	0.1178899	6
	28	10	1577.524	19652.48	-10734.85	1	22393.24	-28.64485	4.787663E-010	0.1178953	6
	29	10	1265.625	20673.72	-11927.57	1	23867.75	-29.98252	1.465268E-010	0.1178845	6
	30	10	998.264	21847.08	-13491.48	1	25677.13	-31.69706	2.245853E-010	0.1178895	6
	31	11	796.875	23051.6	-15313.2	1	27674.36	-33.59613	5.099882E-010	0.1178896	6
	32	11	627.7902	24460.86	-17679.29	1	30180.97	-35.85783	4.063647E-010	0.1178973	6
	33	11	505.5147	25949.36	-20276.91	1	32932.09	-38.00418	3.440343E-010	0.1178924	6
	34	12	397.9953	27913.81	-23746.14	1	36647.78	-40.38765	4.687847E-010	0.1179055	6
	35	12	315.5048	30233.98	-27768.56	1	41051.02	-42.56609	4.54803E-010	0.1179064	6
	36	12	252.4038	32967.06	-32297.62	1	46151.52	-44.41232	4.587047E-010	0.1179054	6
	37	13	198.6229	36579.92	-37930.3	1	52695.34	-46.03828	5.741448E-010	0.1178997	6
	38	13	158.3615	40769.19	-44004.67	1	59987.81	-47.18569	3.96185E-010	0.1179026	6
	39	13	125.558	45967.58	-50986.34	1	68648.56	-47.96324	4.440404E-010	0.1179035	6
	40	13	100.4464	51918.1	-58403.04	1	78143.48	-48.36411	4.417644E-010	0.1179063	6
	41	14	79.00281	59415.77	-67143.01	1	89657.23	-48.49394	4.121355E-010	0.1179004	6
	42	14	63.3446	67340.57	-75780.94	1	101378	-48.37502	-3.960383E-011	0.1179025	5
	43	15	49.86702	76811.72	-86112.14	1	115392.1	-48.26715	1.064622E-010	0.1179012	5
	44	15	39.72458	86698.52	-97015.2	1	130109.9	-48.21415	2.121471E-010	0.1179048	5
	45	15	31.6723	97371.6	-109276.9	1	146364.8	-48.29723	3.678063E-010	0.1179013	5
	46	16	24.93351	109548.7	-124172.1	1	165588.7	-48.5802	-2.686818E-010	0.1178947	5
	47	16	19.86229	122055.5	-140834.8	1	186365.2	-49.08594	-7.177923E-010	0.1178946	5
	48	16	15.83615	136008.1	-160423	1	210318.2	-49.7084	4.152966E-010	0.1178979	5
	49	16	12.40079	152810.2	-185345.5	1	240216.3	-50.49574	-1.148012E-010	0.1179028	5
	50	17	9.93114	170121.2	-212471.4	1	272186.2	-51.31651	-7.171373E-011	0.1178946	5
	51	17	7.944915	190097.2	-244195	1	309464.3	-52.10051	6.906039E-010	0.1178982	5
	52	18	6.317385	214371.8	-283412.6	1	355356.1	-52.89633	-7.581525E-011	0.1179105	5
	53	18	5.008013	243814.6	-330025.7	1	410320	-53.54396	-1.399234E-010	0.1178983	5
	54	19	3.945707	279939.3	-385172.1	1	476155	-53.99071	2.269091E-010	0.1179101	5
	55	20	3.158693	321715.8	-445081.8	1	549180.3	-54.13969	-1.113632E-010	0.1179053	5
	56	21	2.504006	373121.8	-514880.4	1	635862.9	-54.07004	1.800727E-011	0.1178914	5
	57	22	1.998082	433475.2	-590635.9	1	732633.3	-53.72458	2.029155E-010	0.1179366	5
	58	24	1.584686	503774.5	-675652.4	1	842790	-53.29135	1.3284E-010	0.1179052	5
	59	26	1.266892	584467.9	-764479.1	1	962305	-52.60097	7.503358E-011	0.1178663	5
	60	28	0.999041	681946.6	-870664.9	1	1105942	-51.93025	3.929778E-012	0.1178491	4
