EXPLAIN
TAG	EISPOT
TITLE	LABEL	Potentiostatic EIS	Test &Identifier
DATE	LABEL	2/21/2020	Date
TIME	LABEL	18:08:24	Time
NOTES	NOTES	1	&Notes...
	
PSTAT	PSTAT	REF600-11020	Potentiostat
VDC	POTEN	0.00000E+000	T	DC &Voltage (V)
FREQINIT	QUANT	1.00000E+006	Initial Fre&q. (Hz)
FREQFINAL	QUANT	1.00000E+000	Final Fre&q. (Hz)
PTSPERDEC	QUANT	1.00000E+001	Points/&decade
VAC	QUANT	2.50000E+001	AC &Voltage (mV rms)
AREA	QUANT	2.08200E-005	&Area (cm^2)
CONDIT	TWOPARAM	F	1.50000E+001	0.00000E+000	Conditionin&g	Time(s)	E(V)
DELAY	TWOPARAM	F	1.00000E+002	0.00000E+000	Init. De&lay	Time(s)	Stab.(mV/s)
SPEED	SELECTOR	0	&Optimize for:
ZGUESS	QUANT	2.00000E+003	E&stimated Z (ohms)
OCVCURVE	TABLE	39
	Pt	T	Vf	Vm	Ach	Over
	#	s	V vs. Ref.	V	V	bits
	0	0.258333	4.53190E-002	4.53190E-002	5.77604E-004	...........
	1	0.516667	4.53173E-002	4.52312E-002	5.75004E-004	...........
	2	0.775	4.53093E-002	4.52652E-002	5.75938E-004	...........
	3	1.03333	4.52946E-002	4.53315E-002	5.79237E-004	...........
	4	1.29167	4.52847E-002	4.53540E-002	5.75137E-004	...........
	5	1.55	4.52897E-002	4.52686E-002	5.80671E-004	...........
	6	1.80833	4.53014E-002	4.52620E-002	5.81471E-004	...........
	7	2.06667	4.53037E-002	4.52833E-002	5.79671E-004	...........
	8	2.325	4.52942E-002	4.52554E-002	5.75704E-004	...........
	9	2.58333	4.52817E-002	4.52692E-002	5.80204E-004	...........
	10	2.84167	4.52720E-002	4.52435E-002	5.80904E-004	...........
	11	3.1	4.52656E-002	4.52806E-002	5.80271E-004	...........
	12	3.35833	4.52617E-002	4.52364E-002	5.80937E-004	...........
	13	3.61667	4.52588E-002	4.52217E-002	5.78337E-004	...........
	14	3.875	4.52525E-002	4.51923E-002	5.76004E-004	...........
	15	4.13333	4.52404E-002	4.52247E-002	5.78004E-004	...........
	16	4.39167	4.52259E-002	4.51811E-002	5.81837E-004	...........
	17	4.65	4.52138E-002	4.52043E-002	5.81271E-004	...........
	18	4.90833	4.52043E-002	4.51386E-002	5.80671E-004	...........
	19	5.16667	4.51939E-002	4.51633E-002	5.80371E-004	...........
	20	5.425	4.51810E-002	4.51527E-002	5.80837E-004	...........
	21	5.68333	4.51688E-002	4.51669E-002	5.79537E-004	...........
	22	5.94167	4.51607E-002	4.51287E-002	5.84004E-004	...........
	23	6.2	4.51564E-002	4.51825E-002	5.81771E-004	...........
	24	6.45833	4.51551E-002	4.51715E-002	5.80937E-004	...........
	25	6.71667	4.51584E-002	4.52022E-002	5.80637E-004	...........
	26	6.975	4.51676E-002	4.52250E-002	5.85571E-004	...........
	27	7.23333	4.51822E-002	4.52531E-002	5.78471E-004	...........
	28	7.49167	4.52044E-002	4.54279E-002	5.80737E-004	...........
	29	7.75	4.52428E-002	4.54751E-002	5.81604E-004	...........
	30	8.00833	4.52984E-002	4.52530E-002	5.79504E-004	...........
	31	8.26667	4.53467E-002	4.53119E-002	5.81537E-004	...........
	32	8.525	4.53606E-002	4.53285E-002	5.78337E-004	...........
	33	8.78333	4.53459E-002	4.52931E-002	5.75704E-004	...........
	34	9.04167	4.53247E-002	4.52208E-002	5.76504E-004	...........
	35	9.3	4.53040E-002	4.52625E-002	5.73204E-004	...........
	36	9.5583	4.52829E-002	4.52656E-002	5.69071E-004	...........
	37	9.8167	4.52662E-002	4.52470E-002	5.73737E-004	...........
	38	10.075	4.52576E-002	4.52426E-002	5.74471E-004	...........
EOC	QUANT	0.0452576	Open Circuit (V)
PSTATMODEL	IQUANT	4	Pstat Model
PSTATSECTION	LABEL	REF600-11020	Pstat Section
PSTATSERIALNO	LABEL	11020	Pstat Serial Number
CTRLMODE	IQUANT	1	Control Mode
IESTAB	IQUANT	0	I/E Stability
CASPEED	IQUANT	1	Control Amp Speed
CONVENTION	IQUANT	1	Current Convention
ICHRANGE	IQUANT	2	Ich Range
ICHRANGEMODE	TOGGLE	F	Ich Auto Range
ICHOFFSETENABLE	TOGGLE	T	Ich Offset Enable
ICHOFFSET	QUANT	0	Ich Offset (V)
ICHFILTER	IQUANT	3	Ich Filter
VCHRANGE	IQUANT	2	Vch Range
VCHRANGEMODE	TOGGLE	F	Vch Auto Range
VCHOFFSETENABLE	TOGGLE	T	Vch Offset Enable
VCHOFFSET	QUANT	0	Vch Offset (V)
VCHFILTER	IQUANT	3	Vch Filter
ACHRANGE	IQUANT	2	Ach Range
ACHOFFSETENABLE	TOGGLE	F	Ach Offset Enable
ACHOFFSET	QUANT	0	Ach Offset (V)
ACHFILTER	IQUANT	3	Ach Filter
IERANGELOWERLIMIT	IQUANT	1	I/E Range Lower Limit
IERANGEMODE	TOGGLE	F	I/E AutoRange
IERANGE	IQUANT	7	I/E Range
POSFEEDENABLE	TOGGLE	F	Positive Feedback IR Comp
POSFEEDRESISTANCE	QUANT	0	Positive Feedback Resistance (ohm)
ACHSELECT	IQUANT	0	Ach Select
CABLEID	IQUANT	14	Cable ID
DCCALDATE	LABEL	1/27/2020	DC Calibration Date
ACCALDATE	LABEL	1/27/2020	AC Calibration Date
THERMOSELECT	IQUANT	1	Thermo Select
FRAMEWORKVERSION	QUANT	6.33	Framework Version
INSTRUMENTVERSION	LABEL	3.50	Instrument Version
ZCURVE	TABLE
	Pt	Time	Freq	Zreal	Zimag	Zsig	Zmod	Zphz	Idc	Vdc	IERange
	#	s	Hz	ohm	ohm	V	ohm	°	A	V	#
	0	1	1000078	1656.914	-2435.713	1	2945.855	-55.77418	-1.638122E-006	0.0475769	8
	1	1	794390.6	2083.248	-2747.766	1	3448.209	-52.83203	1.196759E-006	0.0471449	8
	2	1	630984.4	2597.554	-3021.504	1	3984.567	-49.3147	-1.014088E-006	0.0471431	8
	3	2	501234.4	3191.361	-3241.6	1	4548.929	-45.44744	5.161879E-007	0.0468695	8
	4	2	398109.4	3842.165	-3382.942	1	5119.231	-41.36321	1.799759E-006	0.0465259	8
	5	2	316265.6	4528.891	-3403.505	1	5665.218	-36.92522	2.822053E-007	0.0467744	8
	6	3	251203.1	5205.323	-3358.399	1	6194.693	-32.82952	-1.008201E-006	0.0470593	8
	7	3	199546.9	5840.853	-3179.807	1	6650.318	-28.56423	-5.746037E-007	0.0469176	8
	8	4	158578.1	6388.259	-2904.173	1	7017.412	-24.44707	1.256659E-007	0.046796	8
	9	4	125953.1	6903.919	-2624.076	1	7385.789	-20.81104	1.99732E-007	0.0464702	7
	10	4	100078.1	7275.763	-2320.256	1	7636.774	-17.68759	1.793253E-008	0.0467816	7
	11	5	79453.13	7572.151	-2043.535	1	7843.055	-15.10291	-1.021505E-008	0.0468171	7
	12	5	63140.62	7808.976	-1796.866	1	8013.041	-12.95835	1.075468E-008	0.0467763	7
	13	5	50203.12	7985.896	-1576.439	1	8140.006	-11.16678	-1.838618E-008	0.0468088	7
	14	5	39890.62	8135.865	-1398.671	1	8255.216	-9.75461	-1.930177E-008	0.0468073	7
	15	6	31640.63	8258.661	-1250.555	1	8352.806	-8.610509	6.023389E-009	0.0468119	7
	16	6	25171.88	8358.061	-1142.296	1	8435.758	-7.7824	8.731556E-010	0.0467599	7
	17	6	20015.62	8446.412	-1077.398	1	8514.85	-7.269217	1.709991E-008	0.0467649	7
	18	7	15890.62	8518.203	-1030.106	1	8580.263	-6.895294	1.383682E-008	0.0467732	7
	19	7	12609.37	8597.866	-1020.34	1	8658.198	-6.767847	2.120187E-008	0.0467999	7
	20	7	10078.13	8664.952	-1043.394	1	8727.547	-6.86624	-9.595452E-009	0.0468099	7
	21	8	8015.625	8742.539	-1068.91	1	8807.642	-6.970695	3.305783E-010	0.0468165	6
	22	8	6328.125	8817.881	-1161.728	1	8894.079	-7.505314	-1.502614E-009	0.0468368	6
	23	8	5015.625	8887	-1287.131	1	8979.726	-8.241019	6.299889E-010	0.0468205	6
	24	9	3984.375	8968.706	-1455.738	1	9086.081	-9.219452	-3.286757E-009	0.0468221	6
	25	9	3170.956	9044.756	-1677.427	1	9198.987	-10.50662	1.563546E-009	0.0468092	6
	26	9	2527.573	9137.908	-1952.096	1	9344.092	-12.05862	-4.642046E-010	0.046775	6
	27	10	1976.103	9246.46	-2336.588	1	9537.12	-14.18179	1.577583E-010	0.0467424	6
	28	10	1577.524	9358.958	-2771.656	1	9760.75	-16.49666	5.773317E-009	0.0466855	6
	29	10	1265.625	9489.734	-3300.657	1	10047.36	-19.17836	-3.352684E-009	0.0468327	6
	30	11	998.264	9656.73	-4003.28	1	10453.65	-22.51686	-2.828193E-009	0.0468365	6
	31	11	796.875	9835.25	-4827.202	1	10956	-26.14209	2.673871E-009	0.0467632	6
	32	11	627.7902	10076.95	-5895.294	1	11674.73	-30.32882	4.043697E-009	0.0467327	6
	33	11	505.5147	10333.89	-7086.604	1	12530.33	-34.44091	-3.896622E-009	0.0468295	6
	34	12	397.9953	10700.41	-8694.186	1	13787.23	-39.0942	9.182728E-010	0.0467949	6
	35	12	315.5048	11129.56	-10610.52	1	15376.94	-43.63235	1.065296E-009	0.0467918	6
	36	12	252.4038	11636.78	-12854.58	1	17339.4	-47.84662	1.468583E-009	0.0467891	6
	37	13	198.6229	12317.59	-15790.76	1	20026.76	-52.04398	8.870669E-010	0.0467943	6
	38	13	158.3615	13103.92	-19186.57	1	23234.4	-55.66796	4.517964E-010	0.0467897	6
	39	13	125.558	14102.77	-23431.12	1	27347.86	-58.95703	6.093794E-010	0.0467895	6
	40	14	100.4464	15281.51	-28393.05	1	32244.22	-61.71028	1.532067E-009	0.0467857	6
	41	14	79.00281	16896.88	-34801.35	1	38686.41	-64.10233	1.036174E-009	0.0467853	6
	42	14	63.3446	18752.28	-42616.96	1	46560.21	-66.24959	7.86976E-010	0.0467843	6
	43	15	49.86702	21102.73	-52112.64	1	56223.24	-67.95477	1.153507E-009	0.04678	6
	44	15	39.72458	24422.4	-63039.88	1	67605.33	-68.82304	8.394034E-010	0.0467826	6
	45	15	31.6723	28457.78	-76315.9	1	81449.13	-69.54979	9.498151E-010	0.0467786	6
	46	16	24.93351	33916.85	-93701.84	1	99651.3	-70.10148	9.335185E-010	0.0467766	6
	47	16	19.86229	40692.8	-113325.5	1	120410	-70.24786	5.412421E-010	0.0467837	5
	48	16	15.83615	49982.74	-137810.7	1	146594.9	-70.06473	-7.536119E-010	0.0467815	5
	49	17	12.40079	62397.05	-166194.6	1	177521.9	-69.42157	-5.950233E-010	0.0467777	5
	50	17	9.93114	78959.38	-198570.5	1	213693.3	-68.3153	-6.014536E-011	0.0467826	5
	51	18	7.944915	98343.4	-233506.2	1	253370.4	-67.16113	-1.897196E-010	0.0467778	5
	52	18	6.317385	123814.4	-275908.3	1	302415.9	-65.83175	-6.081896E-011	0.0467817	5
	53	19	5.008013	155344.8	-323877.2	1	359205.3	-64.37572	-1.909604E-010	0.046767	5
	54	20	3.945707	193990.2	-376918.4	1	423910	-62.76628	1.435149E-010	0.0467757	5
	55	21	3.158693	236659.3	-432661.8	1	493157	-61.32203	8.760527E-011	0.046793	5
	56	23	2.504006	287005.9	-496994.9	1	573913.1	-59.99432	-5.840124E-011	0.0467786	5
	57	24	1.998082	340495.4	-565871.4	1	660414.8	-58.96389	7.385255E-011	0.0467843	5
	58	26	1.584686	403521.3	-647695.6	1	763111.4	-58.07665	1.273861E-010	0.0468173	5
	59	28	1.266892	469436	-739300.5	1	875748.5	-57.58555	1.191764E-010	0.0467979	5
	60	30	0.999041	549602.6	-851306.4	1	1013304	-57.15375	6.706835E-011	0.0467227	4
