EXPLAIN
TAG	EISPOT
TITLE	LABEL	Potentiostatic EIS	Test &Identifier
DATE	LABEL	2/21/2020	Date
TIME	LABEL	17:54:48	Time
NOTES	NOTES	1	&Notes...
	
PSTAT	PSTAT	REF600-11020	Potentiostat
VDC	POTEN	0.00000E+000	T	DC &Voltage (V)
FREQINIT	QUANT	1.00000E+006	Initial Fre&q. (Hz)
FREQFINAL	QUANT	1.00000E+000	Final Fre&q. (Hz)
PTSPERDEC	QUANT	1.00000E+001	Points/&decade
VAC	QUANT	2.50000E+001	AC &Voltage (mV rms)
AREA	QUANT	2.08200E-005	&Area (cm^2)
CONDIT	TWOPARAM	F	1.50000E+001	0.00000E+000	Conditionin&g	Time(s)	E(V)
DELAY	TWOPARAM	F	1.00000E+002	0.00000E+000	Init. De&lay	Time(s)	Stab.(mV/s)
SPEED	SELECTOR	1	&Optimize for:
ZGUESS	QUANT	2.00000E+003	E&stimated Z (ohms)
OCVCURVE	TABLE	39
	Pt	T	Vf	Vm	Ach	Over
	#	s	V vs. Ref.	V	V	bits
	0	0.258333	-9.45186E-004	-9.45186E-004	5.64071E-004	...........
	1	0.516667	-9.46765E-004	-1.02788E-003	5.68704E-004	...........
	2	0.775	-9.55458E-004	-1.05348E-003	5.67504E-004	...........
	3	1.03333	-9.76904E-004	-1.08896E-003	5.69238E-004	...........
	4	1.29167	-1.00907E-003	-1.09034E-003	5.65304E-004	...........
	5	1.55	-1.04308E-003	-1.11406E-003	5.66838E-004	...........
	6	1.80833	-1.07186E-003	-1.13824E-003	5.70571E-004	...........
	7	2.06667	-1.09529E-003	-1.17754E-003	5.71238E-004	...........
	8	2.325	-1.11764E-003	-1.19219E-003	5.70004E-004	...........
	9	2.58333	-1.14155E-003	-1.20706E-003	5.74471E-004	...........
	10	2.84167	-1.16557E-003	-1.22355E-003	5.70571E-004	...........
	11	3.1	-1.18712E-003	-1.23625E-003	5.68771E-004	...........
	12	3.35833	-1.20536E-003	-1.24792E-003	5.67004E-004	...........
	13	3.61667	-1.22096E-003	-1.26376E-003	5.63438E-004	...........
	14	3.875	-1.23509E-003	-1.28033E-003	5.61138E-004	...........
	15	4.13333	-1.24893E-003	-1.29148E-003	5.65704E-004	...........
	16	4.39167	-1.26306E-003	-1.30755E-003	5.66771E-004	...........
	17	4.65	-1.27726E-003	-1.31563E-003	5.64571E-004	...........
	18	4.90833	-1.29092E-003	-1.32561E-003	5.68571E-004	...........
	19	5.16667	-1.30345E-003	-1.33600E-003	5.68404E-004	...........
	20	5.425	-1.31481E-003	-1.34953E-003	5.67838E-004	...........
	21	5.68333	-1.32556E-003	-1.35780E-003	5.67204E-004	...........
	22	5.94167	-1.33630E-003	-1.37027E-003	5.67938E-004	...........
	23	6.2	-1.34701E-003	-1.37372E-003	5.68238E-004	...........
	24	6.45833	-1.35722E-003	-1.38513E-003	5.71338E-004	...........
	25	6.71667	-1.36660E-003	-1.39282E-003	5.69971E-004	...........
	26	6.975	-1.37533E-003	-1.40173E-003	5.69471E-004	...........
	27	7.23333	-1.38385E-003	-1.40975E-003	5.68238E-004	...........
	28	7.49167	-1.39234E-003	-1.41839E-003	5.67538E-004	...........
	29	7.75	-1.40073E-003	-1.42260E-003	5.67238E-004	...........
	30	8.00833	-1.40897E-003	-1.44197E-003	5.67371E-004	...........
	31	8.26667	-1.41756E-003	-1.45002E-003	5.71204E-004	...........
	32	8.525	-1.42724E-003	-1.46015E-003	5.67204E-004	...........
	33	8.78333	-1.43800E-003	-1.47559E-003	5.73504E-004	...........
	34	9.04167	-1.44936E-003	-1.48600E-003	5.71571E-004	...........
	35	9.3	-1.46082E-003	-1.48097E-003	5.68304E-004	...........
	36	9.5583	-1.47109E-003	-1.48967E-003	5.67538E-004	...........
	37	9.8167	-1.47905E-003	-1.50223E-003	5.71504E-004	...........
	38	10.075	-1.48540E-003	-1.50304E-003	5.72571E-004	...........
EOC	QUANT	-0.0014854	Open Circuit (V)
PSTATMODEL	IQUANT	4	Pstat Model
PSTATSECTION	LABEL	REF600-11020	Pstat Section
PSTATSERIALNO	LABEL	11020	Pstat Serial Number
CTRLMODE	IQUANT	1	Control Mode
IESTAB	IQUANT	0	I/E Stability
CASPEED	IQUANT	1	Control Amp Speed
CONVENTION	IQUANT	1	Current Convention
ICHRANGE	IQUANT	2	Ich Range
ICHRANGEMODE	TOGGLE	F	Ich Auto Range
ICHOFFSETENABLE	TOGGLE	T	Ich Offset Enable
ICHOFFSET	QUANT	0	Ich Offset (V)
ICHFILTER	IQUANT	3	Ich Filter
VCHRANGE	IQUANT	2	Vch Range
VCHRANGEMODE	TOGGLE	F	Vch Auto Range
VCHOFFSETENABLE	TOGGLE	T	Vch Offset Enable
VCHOFFSET	QUANT	0	Vch Offset (V)
VCHFILTER	IQUANT	3	Vch Filter
ACHRANGE	IQUANT	2	Ach Range
ACHOFFSETENABLE	TOGGLE	F	Ach Offset Enable
ACHOFFSET	QUANT	0	Ach Offset (V)
ACHFILTER	IQUANT	3	Ach Filter
IERANGELOWERLIMIT	IQUANT	1	I/E Range Lower Limit
IERANGEMODE	TOGGLE	F	I/E AutoRange
IERANGE	IQUANT	6	I/E Range
POSFEEDENABLE	TOGGLE	F	Positive Feedback IR Comp
POSFEEDRESISTANCE	QUANT	0	Positive Feedback Resistance (ohm)
ACHSELECT	IQUANT	0	Ach Select
CABLEID	IQUANT	14	Cable ID
DCCALDATE	LABEL	1/27/2020	DC Calibration Date
ACCALDATE	LABEL	1/27/2020	AC Calibration Date
THERMOSELECT	IQUANT	1	Thermo Select
FRAMEWORKVERSION	QUANT	6.33	Framework Version
INSTRUMENTVERSION	LABEL	3.50	Instrument Version
ZCURVE	TABLE
	Pt	Time	Freq	Zreal	Zimag	Zsig	Zmod	Zphz	Idc	Vdc	IERange
	#	s	Hz	ohm	ohm	V	ohm	°	A	V	#
	0	1	1000078	1929.348	-1858.931	1	2679.18	-43.93511	2.050494E-008	0.0007206	8
	1	2	794390.6	2280.101	-1932.596	1	2988.944	-40.28435	2.064883E-007	0.0003929	8
	2	4	630984.4	2636.593	-1954.014	1	3281.736	-36.54263	-2.004602E-007	0.0003004	8
	3	5	501234.4	2991.548	-1948.786	1	3570.312	-33.08145	-1.078259E-006	0.0003928	8
	4	7	398109.4	3337.483	-1902.276	1	3841.542	-29.68199	1.520424E-006	-6.312632E-005	8
	5	8	316265.6	3652.63	-1835.044	1	4087.676	-26.67449	-5.338271E-008	3.752322E-005	8
	6	9	251203.1	3953.165	-1741.672	1	4319.831	-23.77717	-1.286024E-006	0.0003672	8
	7	11	199546.9	4228.725	-1651.173	1	4539.657	-21.32895	1.807098E-006	-0.0003028	8
	8	12	158578.1	4462.736	-1535.189	1	4719.409	-18.98331	2.341526E-007	-2.372725E-005	8
	9	13	125953.1	4699.888	-1409.3	1	4906.636	-16.69179	1.132299E-007	-0.0002536	7
	10	15	100078.1	4892.044	-1314.628	1	5065.604	-15.04161	-2.368371E-008	4.579361E-005	7
	11	16	79453.13	5062.655	-1227.908	1	5209.437	-13.63338	1.759378E-008	-2.608807E-005	7
	12	17	63140.62	5214.135	-1152.101	1	5339.9	-12.45972	1.116478E-008	-4.448615E-005	7
	13	19	50203.12	5350.588	-1086.7	1	5459.827	-11.48057	-7.170525E-009	1.048174E-005	7
	14	20	39890.62	5477.153	-1034.313	1	5573.958	-10.69388	-6.672014E-009	6.208132E-006	7
	15	21	31640.63	5596.093	-995.05	1	5683.871	-10.08248	-1.356984E-008	5.723912E-006	7
	16	23	25171.88	5707.06	-972.117	1	5789.261	-9.66675	-9.153611E-009	2.080955E-005	7
	17	24	20015.62	5811.659	-961.161	1	5890.604	-9.390861	1.063035E-008	-2.796312E-005	7
	18	25	15890.62	5913.495	-965.902	1	5991.86	-9.276689	2.870157E-008	-7.808729E-005	7
	19	27	12609.37	6014.619	-985.393	1	6094.804	-9.304285	-8.910049E-009	1.854413E-005	7
	20	28	10078.13	6110.72	-1023.31	1	6195.81	-9.50663	4.047514E-009	-4.786905E-005	7
	21	29	8015.625	6211.91	-1080.796	1	6305.231	-9.86996	-1.307468E-008	5.520874E-006	7
	22	31	6328.125	6315.839	-1162.359	1	6421.908	-10.42795	1.169183E-008	-3.085375E-005	7
	23	32	5015.625	6423.054	-1270.933	1	6547.587	-11.19256	-1.165449E-008	5.950554E-006	7
	24	33	3984.375	6531.498	-1407.211	1	6681.37	-12.15852	-7.513596E-009	1.342696E-005	7
	25	35	3170.956	6644.731	-1578.719	1	6829.7	-13.36508	2.145736E-008	-1.908038E-005	7
	26	36	2527.573	6758.76	-1787.888	1	6991.236	-14.81701	-2.1824E-008	1.606748E-005	7
	27	38	1976.103	6894.641	-2074.859	1	7200.078	-16.74854	-1.392838E-008	-5.002421E-006	7
	28	39	1577.524	7027.458	-2406.034	1	7427.932	-18.89998	-5.619137E-009	-4.815052E-006	7
	29	40	1265.625	7161.93	-2801.215	1	7690.256	-21.36175	2.210309E-008	-2.365845E-005	7
	30	42	998.264	7320.498	-3329.361	1	8042.035	-24.45603	4.046075E-009	-3.390992E-005	7
	31	43	796.875	7491.328	-3957.282	1	8472.312	-27.84518	-1.297232E-008	-3.041549E-006	7
	32	44	627.7902	7701.417	-4775.626	1	9061.922	-31.80293	1.271463E-008	-6.284183E-005	7
	33	46	505.5147	7930.388	-5698.192	1	9765.27	-35.69824	-6.142214E-010	-6.365396E-005	6
	34	47	397.9953	8224.173	-6949.083	1	10766.93	-40.19641	9.458905E-010	-4.710333E-006	6
	35	48	315.5048	8575.453	-8446.229	1	12036.49	-44.56504	1.616293E-009	-9.62593E-006	6
	36	50	252.4038	8992.483	-10206.92	1	13603.16	-48.61935	-1.909875E-012	-1.460051E-005	6
	37	51	198.6229	9552.47	-12525.27	1	15752.2	-52.66883	9.833662E-010	-1.159286E-005	6
	38	52	158.3615	10210.77	-15203.71	1	18314.28	-56.11481	7.254941E-010	-1.458246E-005	6
	39	54	125.558	11098.5	-18553.64	1	21619.76	-59.11279	-9.073038E-010	-1.349481E-005	6
	40	55	100.4464	12136.45	-22442.37	1	25513.79	-61.59624	9.005169E-010	-1.487259E-005	6
	41	56	79.00281	13549.62	-27553.13	1	30704.52	-63.81373	1.268231E-009	-1.30479E-005	6
	42	58	63.3446	15560.38	-33238.96	1	36700.87	-64.91399	2.297109E-010	-1.147762E-005	6
	43	59	49.86702	17285.01	-40865.45	1	44370.68	-67.07292	1.354081E-010	-1.47081E-005	6
	44	61	39.72458	20265.8	-49145.27	1	53159.76	-67.59045	1.198434E-009	-1.16416E-005	6
	45	62	31.6723	23795.32	-59388.23	1	63977.95	-68.16531	1.83925E-009	-2.049753E-005	6
	46	63	24.93351	28992.36	-72155.2	1	77762	-68.10947	7.353047E-010	-2.514924E-005	6
	47	65	19.86229	35127.29	-86541.74	1	93399.14	-67.90777	2.049362E-009	-1.654369E-005	6
	48	66	15.83615	44121.54	-103731.8	1	112725.3	-66.95789	-1.059444E-009	-2.367398E-005	5
	49	67	12.40079	54456.21	-124579	1	135961	-66.3888	9.047443E-010	-2.316639E-005	5
	50	69	9.93114	67535.79	-145809.1	1	160690.3	-65.1474	9.418167E-010	-3.114796E-005	5
	51	70	7.944915	83365.37	-170301.5	1	189611.1	-63.91749	1.462903E-010	-1.912458E-005	5
	52	72	6.317385	102421.7	-198095.9	1	223007.1	-62.65964	-2.363127E-010	-9.513971E-006	5
	53	74	5.008013	125914.6	-229484.1	1	261758.3	-61.24706	1.709297E-010	-2.136665E-005	5
	54	77	3.945707	153046	-264800	1	305846.6	-59.97346	4.592398E-010	-1.206994E-005	5
	55	79	3.158693	182222.5	-301949.7	1	352673.6	-58.88959	2.832521E-011	-1.98341E-005	5
	56	83	2.504006	216225	-345235.8	1	407358.5	-57.94063	4.404902E-010	-2.697682E-005	5
	57	85	1.998082	252525.7	-393200.6	1	467307.1	-57.29016	-2.880523E-011	2.251013E-005	5
	58	88	1.584686	294217.4	-450965.9	1	538455.3	-56.87892	2.786543E-010	1.347733E-006	5
	59	92	1.266892	341021.5	-513889.7	1	616748.2	-56.43141	-1.083199E-011	1.741104E-005	5
	60	96	0.999041	395907.8	-591911.3	1	712110.9	-56.22289	2.671485E-010	-4.32277E-005	5
