EXPLAIN
TAG	EISPOT
TITLE	LABEL	Potentiostatic EIS	Test &Identifier
DATE	LABEL	2/6/2020	Date
TIME	LABEL	18:20:42	Time
NOTES	NOTES	6	&Notes...
	
	
	
	
	
	
PSTAT	PSTAT	REF600-11020	Potentiostat
VDC	POTEN	0.00000E+000	T	DC &Voltage (V)
FREQINIT	QUANT	1.00000E+006	Initial Fre&q. (Hz)
FREQFINAL	QUANT	1.00000E+000	Final Fre&q. (Hz)
PTSPERDEC	QUANT	1.00000E+001	Points/&decade
VAC	QUANT	2.50000E+001	AC &Voltage (mV rms)
AREA	QUANT	1.60000E-004	&Area (cm^2)
CONDIT	TWOPARAM	F	5.00000E+000	0.00000E+000	Conditionin&g	Time(s)	E(V)
DELAY	TWOPARAM	F	5.00000E+000	0.00000E+000	Init. De&lay	Time(s)	Stab.(mV/s)
SPEED	SELECTOR	0	&Optimize for:
ZGUESS	QUANT	1.00000E+003	E&stimated Z (ohms)
OCVCURVE	TABLE	39
	Pt	T	Vf	Vm	Ach	Over
	#	s	V vs. Ref.	V	V	bits
	0	0.258333	-3.00966E-002	-3.00966E-002	5.72271E-004	...........
	1	0.516667	-3.00963E-002	-3.00807E-002	5.73571E-004	...........
	2	0.775	-3.00942E-002	-3.00542E-002	5.77171E-004	...........
	3	1.03333	-3.00880E-002	-3.00471E-002	5.73904E-004	...........
	4	1.29167	-3.00767E-002	-3.00327E-002	5.75137E-004	...........
	5	1.55	-3.00626E-002	-3.00214E-002	5.70838E-004	...........
	6	1.80833	-3.00483E-002	-3.00116E-002	5.75271E-004	...........
	7	2.06667	-3.00351E-002	-2.99993E-002	5.76771E-004	...........
	8	2.325	-3.00230E-002	-2.99877E-002	5.77437E-004	...........
	9	2.58333	-3.00115E-002	-2.99761E-002	5.78737E-004	...........
	10	2.84167	-3.00004E-002	-2.99790E-002	5.74337E-004	...........
	11	3.1	-2.99928E-002	-3.00983E-002	5.71038E-004	...........
	12	3.35833	-2.99982E-002	-3.01274E-002	5.72971E-004	...........
	13	3.61667	-3.00222E-002	-3.00455E-002	5.69604E-004	...........
	14	3.875	-3.00518E-002	-3.00143E-002	5.74771E-004	...........
	15	4.13333	-3.00630E-002	-2.98943E-002	5.71404E-004	...........
	16	4.39167	-3.00420E-002	-2.98565E-002	5.69638E-004	...........
	17	4.65	-2.99943E-002	-2.98877E-002	5.68204E-004	...........
	18	4.90833	-2.99433E-002	-3.00135E-002	5.70804E-004	...........
	19	5.16667	-2.99166E-002	-2.99653E-002	5.69638E-004	...........
	20	5.425	-2.99221E-002	-2.99393E-002	5.66171E-004	...........
	21	5.68333	-2.99406E-002	-2.99287E-002	5.64971E-004	...........
	22	5.94167	-2.99495E-002	-2.98827E-002	5.69704E-004	...........
	23	6.2	-2.99428E-002	-2.99276E-002	5.67204E-004	...........
	24	6.45833	-2.99288E-002	-2.99190E-002	5.66471E-004	...........
	25	6.71667	-2.99168E-002	-2.98299E-002	5.73138E-004	...........
	26	6.975	-2.99034E-002	-2.97486E-002	5.74937E-004	...........
	27	7.23333	-2.98770E-002	-2.97590E-002	5.73804E-004	...........
	28	7.49167	-2.98385E-002	-2.98462E-002	5.74004E-004	...........
	29	7.75	-2.98078E-002	-2.98494E-002	5.75638E-004	...........
	30	8.00833	-2.98002E-002	-2.97840E-002	5.75804E-004	...........
	31	8.26667	-2.98081E-002	-2.98337E-002	5.74038E-004	...........
	32	8.525	-2.98161E-002	-2.98348E-002	5.72038E-004	...........
	33	8.78333	-2.98207E-002	-2.98337E-002	5.72671E-004	...........
	34	9.04167	-2.98250E-002	-2.98292E-002	5.69471E-004	...........
	35	9.3	-2.98290E-002	-2.98353E-002	5.70438E-004	...........
	36	9.5583	-2.98316E-002	-2.98403E-002	5.72671E-004	...........
	37	9.8167	-2.98327E-002	-2.97984E-002	5.73838E-004	...........
	38	10.075	-2.98293E-002	-2.97299E-002	5.70304E-004	...........
EOC	QUANT	-0.0298293	Open Circuit (V)
PSTATMODEL	IQUANT	4	Pstat Model
PSTATSECTION	LABEL	REF600-11020	Pstat Section
PSTATSERIALNO	LABEL	11020	Pstat Serial Number
CTRLMODE	IQUANT	1	Control Mode
IESTAB	IQUANT	0	I/E Stability
CASPEED	IQUANT	1	Control Amp Speed
CONVENTION	IQUANT	1	Current Convention
ICHRANGE	IQUANT	2	Ich Range
ICHRANGEMODE	TOGGLE	F	Ich Auto Range
ICHOFFSETENABLE	TOGGLE	T	Ich Offset Enable
ICHOFFSET	QUANT	0	Ich Offset (V)
ICHFILTER	IQUANT	3	Ich Filter
VCHRANGE	IQUANT	2	Vch Range
VCHRANGEMODE	TOGGLE	F	Vch Auto Range
VCHOFFSETENABLE	TOGGLE	T	Vch Offset Enable
VCHOFFSET	QUANT	0	Vch Offset (V)
VCHFILTER	IQUANT	3	Vch Filter
ACHRANGE	IQUANT	2	Ach Range
ACHOFFSETENABLE	TOGGLE	F	Ach Offset Enable
ACHOFFSET	QUANT	0	Ach Offset (V)
ACHFILTER	IQUANT	3	Ach Filter
IERANGELOWERLIMIT	IQUANT	1	I/E Range Lower Limit
IERANGEMODE	TOGGLE	F	I/E AutoRange
IERANGE	IQUANT	7	I/E Range
POSFEEDENABLE	TOGGLE	F	Positive Feedback IR Comp
POSFEEDRESISTANCE	QUANT	0	Positive Feedback Resistance (ohm)
ACHSELECT	IQUANT	0	Ach Select
CABLEID	IQUANT	14	Cable ID
DCCALDATE	LABEL	1/27/2020	DC Calibration Date
ACCALDATE	LABEL	1/27/2020	AC Calibration Date
THERMOSELECT	IQUANT	1	Thermo Select
FRAMEWORKVERSION	QUANT	6.33	Framework Version
INSTRUMENTVERSION	LABEL	3.50	Instrument Version
ZCURVE	TABLE
	Pt	Time	Freq	Zreal	Zimag	Zsig	Zmod	Zphz	Idc	Vdc	IERange
	#	s	Hz	ohm	ohm	V	ohm	°	A	V	#
	0	1	1000078	2081.752	-1925.712	1	2835.852	-42.77018	-5.851483E-007	-0.0271415	8
	1	1	794390.6	2367.552	-2027.631	1	3117.144	-40.57758	1.307266E-006	-0.0279803	8
	2	1	630984.4	2669.408	-2124.786	1	3411.811	-38.51896	-1.59515E-006	-0.0277237	8
	3	2	501234.4	2931.638	-2244.651	1	3692.283	-37.43999	1.689428E-006	-0.0283021	8
	4	2	398109.4	3193.913	-2375.729	1	3980.6	-36.64299	-1.159446E-006	-0.02796	8
	5	2	316265.6	3464.84	-2533.401	1	4292.23	-36.1733	-9.119852E-007	-0.0279932	8
	6	2	251203.1	3714.927	-2774.611	1	4636.718	-36.75538	1.753704E-006	-0.0285647	8
	7	3	199546.9	4040.903	-3068.352	1	5073.823	-37.21025	1.620512E-006	-0.0285615	8
	8	3	158578.1	4344.025	-3431.727	1	5536.001	-38.3083	-4.562372E-007	-0.0280892	8
	9	3	125953.1	4818.484	-3857.701	1	6172.491	-38.68092	1.05491E-006	-0.0304756	7
	10	4	100078.1	5297.067	-4391.422	1	6880.662	-39.65972	-3.101909E-008	-0.0281555	7
	11	4	79453.13	5920.173	-5019.432	1	7761.646	-40.29302	-4.022744E-008	-0.028113	7
	12	4	63140.62	6714.814	-5686.521	1	8799.162	-40.26	-2.042256E-008	-0.0281112	7
	13	5	50203.12	7710.649	-6339.277	1	9982.01	-39.42519	-4.650876E-008	-0.0281349	7
	14	5	39890.62	8938.353	-6912.417	1	11299.37	-37.71634	1.829975E-008	-0.028279	7
	15	5	31640.63	10370.13	-7340.691	1	12705.33	-35.29348	-8.378097E-009	-0.0281089	7
	16	6	25171.88	11885.87	-7484.983	1	14046.31	-32.20018	-3.677836E-008	-0.0281812	7
	17	6	20015.62	13435.93	-7378.986	1	15328.85	-28.77551	6.501737E-008	-0.0283494	7
	18	6	15890.62	14875.09	-7003.804	1	16441.46	-25.21299	1.093665E-007	-0.0283657	7
	19	7	12609.37	16226.58	-6302.966	1	17407.74	-21.22789	-2.412839E-010	-0.0282956	6
	20	7	10078.13	17189.2	-5670.307	1	18100.3	-18.25649	-2.389683E-009	-0.0281644	6
	21	7	8015.625	17944.92	-5036.206	1	18638.22	-15.67667	-2.803502E-010	-0.0282974	6
	22	8	6328.125	18531.23	-4439.553	1	19055.61	-13.47251	4.164274E-009	-0.0282082	6
	23	8	5015.625	18964.19	-3957.921	1	19372.81	-11.7887	-8.212918E-009	-0.0281473	6
	24	8	3984.375	19293.48	-3591.722	1	19624.95	-10.54561	3.432938E-009	-0.0282136	6
	25	9	3170.956	19550.91	-3347.72	1	19835.46	-9.71657	-4.507916E-009	-0.0281055	6
	26	9	2527.573	19746.26	-3224.354	1	20007.78	-9.273946	2.193874E-009	-0.0281666	6
	27	9	1976.103	19925.26	-3228.404	1	20185.11	-9.203407	3.693593E-009	-0.028218	6
	28	10	1577.524	20067.03	-3356.319	1	20345.77	-9.495141	-3.04773E-009	-0.0281757	6
	29	10	1265.625	20218.37	-3605.275	1	20537.3	-10.11053	-1.071394E-009	-0.0282705	6
	30	10	998.264	29374.43	-4030.94	1	20769.35	-11.19105	-7.291014E-009	-0.0281594	6
	31	11	796.875	20546.36	-4588.74	1	21052.54	-12.5896	3.926746E-009	-0.0282187	6
	32	11	627.7902	20743.93	-5385.877	1	21431.71	-14.5547	3.946525E-009	-0.0282186	6
	33	11	505.5147	20934.47	-6319.201	1	21867.42	-16.79677	3.321515E-009	-0.0282234	6
	34	11	397.9953	21202.08	-7609.693	1	22526.33	-19.7437	1.244182E-009	-0.0282184	6
	35	12	315.5048	21516.25	-9200.477	1	23400.81	-23.15184	5.264742E-010	-0.0282186	6
	36	12	252.4038	21880.18	-11085.75	1	24528.27	-26.86937	1.163274E-009	-0.0282204	6
	37	12	198.6229	22366.63	-13611.45	1	26182.77	-31.32305	6.835262E-010	-0.0282217	6
	38	13	158.3615	22958.63	-16552.04	1	28303.16	-35.78975	9.219479E-010	-0.0282211	6
	39	13	125.558	23741.02	-20269.02	1	31216.49	-40.4892	5.487829E-010	-0.0282193	6
	40	13	100.4464	24747.89	-24678.6	1	34949.84	-44.91969	5.544929E-010	-0.0282165	6
	41	14	79.00281	26053.71	-30475.19	1	40094.05	-49.47237	1.167438E-009	-0.0282237	6
	42	14	63.3446	27648.89	-36457.75	1	45756.19	-52.82399	1.787735E-010	-0.0282182	6
	43	14	49.86702	30072.97	-45035.22	1	54153.07	-56.26636	9.53479E-010	-0.0282279	6
	44	15	39.72458	32942.44	-55082.42	1	64181.59	-59.11816	3.922758E-010	-0.0282276	6
	45	15	31.6723	36541.19	-66827.09	1	76165.07	-61.33007	6.531253E-010	-0.0282292	6
	46	15	24.93351	42090.54	-81713.2	1	91916.6	-62.74696	6.270102E-010	-0.0282294	6
	47	16	19.86229	48680.5	-98465.7	1	109842.1	-63.69264	-5.523921E-010	-0.0282304	5
	48	16	15.83615	57403.16	-118556.8	1	131722.6	-64.16453	9.849295E-010	-0.0282333	5
	49	16	12.40079	69661.15	-142126	1	158279.7	-63.88884	-1.222573E-009	-0.0282289	5
	50	17	9.93114	83383.41	-169574.2	1	188966.2	-63.81563	5.93373E-010	-0.0282257	5
	51	17	7.944915	101301.2	-199209.2	1	223486.5	-63.0459	1.102734E-009	-0.0282335	5
	52	18	6.317385	125205.6	-233983.3	1	265376.4	-61.84856	7.033831E-010	-0.0282508	5
	53	19	5.008013	155148.7	-273093.4	1	314087.8	-60.39841	3.961624E-010	-0.0282375	5
	54	20	3.945707	191585.5	-315951.6	1	369500.2	-58.76838	9.439753E-011	-0.0282312	5
	55	21	3.158693	232415.7	-358568.9	1	427304	-57.04967	-1.344679E-010	-0.0282499	5
	56	23	2.504006	281090.6	-404477.9	1	492559	-55.20276	1.527006E-010	-0.0282489	5
	57	24	1.998082	332048.7	-452266.1	1	561071.3	-53.71431	2.016017E-010	-0.0282224	5
	58	26	1.584686	389813.8	-502550.8	1	636012.6	-52.20033	2.418991E-011	-0.0282693	5
	59	28	1.266892	449397.2	-557514.1	1	716086.5	-51.12864	-3.677202E-011	-0.0282861	5
	60	30	0.999041	513978.4	-623698.3	1	808191.4	-50.50869	-7.449354E-011	-0.0282743	5
