EXPLAIN
TAG	EISPOT
TITLE	LABEL	Potentiostatic EIS	Test &Identifier
DATE	LABEL	2/21/2020	Date
TIME	LABEL	16:19:26	Time
NOTES	NOTES	1	&Notes...
	
PSTAT	PSTAT	REF600-11020	Potentiostat
VDC	POTEN	0.00000E+000	T	DC &Voltage (V)
FREQINIT	QUANT	1.00000E+006	Initial Fre&q. (Hz)
FREQFINAL	QUANT	1.00000E+000	Final Fre&q. (Hz)
PTSPERDEC	QUANT	1.00000E+001	Points/&decade
VAC	QUANT	2.50000E+001	AC &Voltage (mV rms)
AREA	QUANT	2.08200E-005	&Area (cm^2)
CONDIT	TWOPARAM	F	1.50000E+001	0.00000E+000	Conditionin&g	Time(s)	E(V)
DELAY	TWOPARAM	F	1.00000E+002	0.00000E+000	Init. De&lay	Time(s)	Stab.(mV/s)
SPEED	SELECTOR	1	&Optimize for:
ZGUESS	QUANT	2.00000E+003	E&stimated Z (ohms)
OCVCURVE	TABLE	39
	Pt	T	Vf	Vm	Ach	Over
	#	s	V vs. Ref.	V	V	bits
	0	0.258333	1.97673E-002	1.97673E-002	5.64871E-004	...........
	1	0.516667	1.97676E-002	1.97839E-002	5.64704E-004	...........
	2	0.775	1.97691E-002	1.97792E-002	5.57071E-004	...........
	3	1.03333	1.97724E-002	1.97833E-002	5.59271E-004	...........
	4	1.29167	1.97765E-002	1.97894E-002	5.53238E-004	...........
	5	1.55	1.97805E-002	1.97905E-002	5.60604E-004	...........
	6	1.80833	1.97840E-002	1.97870E-002	5.56038E-004	...........
	7	2.06667	1.97865E-002	1.97798E-002	5.60838E-004	...........
	8	2.325	1.97871E-002	1.97782E-002	5.59904E-004	...........
	9	2.58333	1.97854E-002	1.97758E-002	5.63971E-004	...........
	10	2.84167	1.97824E-002	1.97766E-002	5.61704E-004	...........
	11	3.1	1.97793E-002	1.97691E-002	5.56638E-004	...........
	12	3.35833	1.97767E-002	1.97720E-002	5.57704E-004	...........
	13	3.61667	1.97712E-002	1.95981E-002	5.61038E-004	...........
	14	3.875	1.97426E-002	1.90923E-002	5.61904E-004	...........
	15	4.13333	1.96404E-002	1.84209E-002	5.63138E-004	...........
	16	4.39167	1.94177E-002	1.86263E-002	5.58671E-004	...........
	17	4.65	1.91285E-002	1.95552E-002	5.59538E-004	...........
	18	4.90833	1.89516E-002	1.98943E-002	5.62204E-004	...........
	19	5.16667	1.90271E-002	1.98549E-002	5.58238E-004	...........
	20	5.425	1.92951E-002	1.97599E-002	5.57738E-004	...........
	21	5.68333	1.95752E-002	1.99089E-002	5.65871E-004	...........
	22	5.94167	1.97579E-002	2.00504E-002	5.63604E-004	...........
	23	6.2	1.98587E-002	2.00588E-002	5.66538E-004	...........
	24	6.45833	1.99274E-002	1.99341E-002	5.63771E-004	...........
	25	6.71667	1.99737E-002	1.98774E-002	5.60471E-004	...........
	26	6.975	1.99822E-002	1.98604E-002	5.63604E-004	...........
	27	7.23333	1.99546E-002	1.98465E-002	5.61704E-004	...........
	28	7.49167	1.99124E-002	1.98075E-002	5.65004E-004	...........
	29	7.75	1.98735E-002	1.98009E-002	5.58638E-004	...........
	30	8.00833	1.98419E-002	1.97261E-002	5.63104E-004	...........
	31	8.26667	1.98141E-002	1.97867E-002	5.64771E-004	...........
	32	8.525	1.97957E-002	2.00627E-002	5.65538E-004	...........
	33	8.78333	1.98136E-002	2.02820E-002	5.63338E-004	...........
	34	9.04167	1.98896E-002	2.00342E-002	5.59471E-004	...........
	35	9.3	1.99966E-002	2.01536E-002	5.62104E-004	...........
	36	9.5583	2.00808E-002	2.01493E-002	5.64804E-004	...........
	37	9.8167	2.01234E-002	2.01697E-002	5.62538E-004	...........
	38	10.075	2.01303E-002	1.95666E-002	5.61771E-004	...........
EOC	QUANT	0.0201303	Open Circuit (V)
PSTATMODEL	IQUANT	4	Pstat Model
PSTATSECTION	LABEL	REF600-11020	Pstat Section
PSTATSERIALNO	LABEL	11020	Pstat Serial Number
CTRLMODE	IQUANT	1	Control Mode
IESTAB	IQUANT	0	I/E Stability
CASPEED	IQUANT	1	Control Amp Speed
CONVENTION	IQUANT	1	Current Convention
ICHRANGE	IQUANT	2	Ich Range
ICHRANGEMODE	TOGGLE	F	Ich Auto Range
ICHOFFSETENABLE	TOGGLE	T	Ich Offset Enable
ICHOFFSET	QUANT	0	Ich Offset (V)
ICHFILTER	IQUANT	3	Ich Filter
VCHRANGE	IQUANT	2	Vch Range
VCHRANGEMODE	TOGGLE	F	Vch Auto Range
VCHOFFSETENABLE	TOGGLE	T	Vch Offset Enable
VCHOFFSET	QUANT	0	Vch Offset (V)
VCHFILTER	IQUANT	3	Vch Filter
ACHRANGE	IQUANT	2	Ach Range
ACHOFFSETENABLE	TOGGLE	F	Ach Offset Enable
ACHOFFSET	QUANT	0	Ach Offset (V)
ACHFILTER	IQUANT	3	Ach Filter
IERANGELOWERLIMIT	IQUANT	1	I/E Range Lower Limit
IERANGEMODE	TOGGLE	F	I/E AutoRange
IERANGE	IQUANT	7	I/E Range
POSFEEDENABLE	TOGGLE	F	Positive Feedback IR Comp
POSFEEDRESISTANCE	QUANT	0	Positive Feedback Resistance (ohm)
ACHSELECT	IQUANT	0	Ach Select
CABLEID	IQUANT	14	Cable ID
DCCALDATE	LABEL	1/27/2020	DC Calibration Date
ACCALDATE	LABEL	1/27/2020	AC Calibration Date
THERMOSELECT	IQUANT	1	Thermo Select
FRAMEWORKVERSION	QUANT	6.33	Framework Version
INSTRUMENTVERSION	LABEL	3.50	Instrument Version
ZCURVE	TABLE
	Pt	Time	Freq	Zreal	Zimag	Zsig	Zmod	Zphz	Idc	Vdc	IERange
	#	s	Hz	ohm	ohm	V	ohm	°	A	V	#
	0	2	1000078	1633.067	-2054.354	1	2624.362	-51.51776	-1.049873E-006	0.022596	8
	1	3	794390.6	1936.101	-2241.51	1	2961.9	-49.18123	-2.381842E-007	0.0223677	8
	2	4	630984.4	2250.081	-2417.088	1	3302.299	-47.04935	-5.723579E-008	0.0220851	8
	3	6	501234.4	2564.679	-2610.3	1	3659.405	-45.50508	-1.426314E-006	0.022293	8
	4	7	398109.4	2868.099	-2841.283	1	4037.188	-44.7309	1.680781E-006	0.0215402	8
	5	8	316265.6	3180.66	-3099.208	1	4440.911	-44.25689	7.707489E-008	0.0217463	8
	6	10	251203.1	3483.534	-3451.45	1	4903.827	-44.73493	-1.860585E-006	0.0222011	8
	7	11	199546.9	3828.066	-3880.698	1	5451.046	-45.39118	6.651035E-007	0.0216698	8
	8	12	158578.1	4175.215	-4425	1	6083.835	-46.66363	-3.520815E-007	0.0218489	8
	9	14	125953.1	4690.317	-5080.622	1	6914.607	-47.28749	-4.922591E-007	0.0229244	7
	10	15	100078.1	5276.68	-5868.796	1	7892.156	-48.04104	-1.485118E-008	0.0217935	7
	11	16	79453.13	6018.662	-6810.424	1	9088.794	-48.5316	1.488211E-008	0.02177	7
	12	18	63140.62	6971.784	-7847.743	1	10497.28	-48.38272	-1.748623E-008	0.0218111	7
	13	19	50203.12	8193.275	-8959.622	1	12141.03	-47.55812	-1.312726E-008	0.0217568	7
	14	21	39890.62	9754.57	-10104.29	1	14044.51	-46.00891	4.037736E-009	0.0217539	7
	15	22	31640.63	11688.55	-11128.29	1	16138.81	-43.59339	3.989192E-008	0.0216586	7
	16	24	25171.88	13926.64	-11940.13	1	18344.43	-40.60844	-1.123123E-009	0.0217942	7
	17	25	20015.62	16415.89	-12345.49	1	20540.02	-36.94482	4.865274E-009	0.0217538	7
	18	27	15890.62	19008.05	-12330.61	1	22657.23	-32.97166	1.541944E-008	0.0217248	7
	19	28	12609.37	21567.26	-11811.22	1	24589.67	-28.70713	3.994994E-010	0.0217427	6
	20	30	10078.13	23709.11	-10968.46	1	26123.34	-24.82651	-1.889383E-009	0.0217868	6
	21	32	8015.625	25532.31	-9922.24	1	27392.51	-21.23687	2.521098E-009	0.0216874	6
	22	33	6328.125	26990.4	-8742.054	1	28370.86	-17.94687	5.806672E-009	0.0217194	6
	23	35	5015.625	28113.3	-7669.406	1	29140.65	-15.25918	5.218942E-009	0.0217238	6
	24	36	3984.375	28892.35	-6716.049	1	29662.66	-13.08606	2.607294E-010	0.0217873	6
	25	38	3170.956	29479.48	-5956.269	1	30075.19	-11.42272	1.007076E-009	0.0217639	6
	26	39	2527.573	29928.59	-5395.41	1	30411.04	-10.2193	2.275263E-010	0.0217328	6
	27	41	1976.103	30272.51	-4983.876	1	30680.02	-9.348955	8.407401E-009	0.0216246	6
	28	42	1577.524	30552.61	-4835.657	1	30932.92	-8.993776	1.034344E-009	0.0217181	6
	29	44	1265.625	30776.75	-4853.178	1	31157.04	-8.961168	1.318988E-009	0.0217169	6
	30	46	998.264	30988.99	-5081.646	1	31402.87	-9.312613	6.722919E-009	0.0216156	6
	31	47	796.875	31187.49	-5508.82	1	31670.28	-10.01715	5.613526E-009	0.0217154	6
	32	48	627.7902	31471.31	-6189.379	1	32074.16	-11.12621	-1.64418E-010	0.0217766	6
	33	50	505.5147	31707.96	-7031.855	1	32478.33	-12.50408	5.113926E-009	0.0217144	6
	34	51	397.9953	32043.07	-8247.934	1	33087.56	-14.43467	1.834537E-009	0.0217516	6
	35	52	315.5048	32430.62	-9753.35	1	33865.51	-16.7384	2.151211E-009	0.0217524	6
	36	54	252.4038	32892.89	-11562.65	1	34865.98	-19.36782	2.19368E-009	0.0217521	6
	37	55	198.6229	33491.88	-13960.53	1	36285.02	-22.62799	1.587154E-009	0.0217584	6
	38	56	158.3615	34174.06	-16755.29	1	38060.56	-26.11838	1.320211E-009	0.0217514	6
	39	58	125.558	34965	-20291.88	1	40426.62	-30.12867	1.342636E-009	0.0217542	6
	40	59	100.4464	35904.5	-24444.39	1	43435.71	-34.2477	1.307376E-009	0.0217495	6
	41	61	79.00281	37174.87	-29935.29	1	47729.36	-38.84296	1.254038E-009	0.0217535	6
	42	63	63.3446	38420.96	-36019.47	1	52664.72	-43.15224	9.421505E-010	0.0217523	6
	43	64	49.86702	40700.23	-44381.43	1	60218.11	-47.47746	9.946987E-010	0.0217493	6
	44	66	39.72458	43171.76	-53967.71	1	69110.88	-51.34175	1.283425E-009	0.0217503	6
	45	67	31.6723	46396.18	-65686.45	1	80419.63	-54.76537	1.079687E-009	0.0217501	6
	46	69	24.93351	51057.57	-80537.38	1	95358	-57.62689	6.476062E-010	0.0217466	6
	47	70	19.86229	56799.06	-97496.6	1	112834.9	-59.77599	8.932468E-010	0.021752	5
	48	72	15.83615	65202.39	-117974.1	1	134793.3	-61.07128	-3.239855E-010	0.0217471	5
	49	73	12.40079	75287.28	-144773.3	1	163179.3	-62.52396	6.719759E-010	0.0217531	5
	50	74	9.93114	88596.45	-172183.3	1	193639.9	-62.77204	1.258373E-010	0.0217548	5
	51	76	7.944915	105841.6	-203799.3	1	229644.5	-62.55524	9.446809E-010	0.0217485	5
	52	78	6.317385	128553.2	-241651.8	1	273718	-61.98805	4.683969E-010	0.0217601	5
	53	80	5.008013	157490	-284342.8	1	325044.5	-61.01908	5.283814E-010	0.0217556	5
	54	82	3.945707	194798.7	-332897.5	1	385703.6	-59.66549	-7.736051E-013	0.0217429	5
	55	85	3.158693	236522.8	-381927.3	1	449234.4	-58.23058	3.708807E-010	0.0217625	5
	56	88	2.504006	288455	-436194.8	1	522945.8	-56.52339	-2.390434E-010	0.0217517	5
	57	91	1.998082	345449.1	-490328.5	1	599797.6	-54.83431	1.596708E-010	0.0217029	5
	58	94	1.584686	409612.3	-550161.5	1	685900.8	-53.33117	-2.122974E-011	0.0217499	5
	59	98	1.266892	479585.1	-610928.4	1	776682.3	-51.86772	1.400361E-010	0.021699	5
	60	102	0.999041	557623.1	-680864.8	1	880068.4	-50.68279	1.17274E-010	0.0217861	5
