EXPLAIN
TAG	EISPOT
TITLE	LABEL	Potentiostatic EIS	Test &Identifier
DATE	LABEL	2/18/2020	Date
TIME	LABEL	16:34:11	Time
NOTES	NOTES	1	&Notes...
	
PSTAT	PSTAT	REF600-11020	Potentiostat
VDC	POTEN	0.00000E+000	T	DC &Voltage (V)
FREQINIT	QUANT	1.00000E+006	Initial Fre&q. (Hz)
FREQFINAL	QUANT	1.00000E+000	Final Fre&q. (Hz)
PTSPERDEC	QUANT	1.00000E+001	Points/&decade
VAC	QUANT	2.50000E+001	AC &Voltage (mV rms)
AREA	QUANT	1.60000E-004	&Area (cm^2)
CONDIT	TWOPARAM	F	1.50000E+001	0.00000E+000	Conditionin&g	Time(s)	E(V)
DELAY	TWOPARAM	F	1.00000E+002	0.00000E+000	Init. De&lay	Time(s)	Stab.(mV/s)
SPEED	SELECTOR	1	&Optimize for:
ZGUESS	QUANT	1.00000E+003	E&stimated Z (ohms)
OCVCURVE	TABLE	39
	Pt	T	Vf	Vm	Ach	Over
	#	s	V vs. Ref.	V	V	bits
	0	0.258333	4.04096E-002	4.04096E-002	5.72404E-004	...........
	1	0.516667	4.04097E-002	4.04145E-002	5.73204E-004	...........
	2	0.775	4.04089E-002	4.03473E-002	5.69338E-004	...........
	3	1.03333	4.04023E-002	4.02925E-002	5.65904E-004	...........
	4	1.29167	4.03833E-002	4.02857E-002	5.70238E-004	...........
	5	1.55	4.03530E-002	4.02920E-002	5.72504E-004	...........
	6	1.80833	4.03224E-002	4.02851E-002	5.68038E-004	...........
	7	2.06667	4.03006E-002	4.02677E-002	5.72404E-004	...........
	8	2.325	4.02879E-002	4.02637E-002	5.67871E-004	...........
	9	2.58333	4.02789E-002	4.02308E-002	5.65438E-004	...........
	10	2.84167	4.02678E-002	4.01775E-002	5.67338E-004	...........
	11	3.1	4.02506E-002	4.01965E-002	5.69038E-004	...........
	12	3.35833	4.02287E-002	4.01948E-002	5.68304E-004	...........
	13	3.61667	4.02093E-002	4.01884E-002	5.65371E-004	...........
	14	3.875	4.01973E-002	4.01808E-002	5.67138E-004	...........
	15	4.13333	4.01911E-002	4.01872E-002	5.72638E-004	...........
	16	4.39167	4.01875E-002	4.01719E-002	5.74604E-004	...........
	17	4.65	4.01840E-002	4.01524E-002	5.68771E-004	...........
	18	4.90833	4.01783E-002	4.01446E-002	5.66638E-004	...........
	19	5.16667	4.01694E-002	4.01403E-002	5.65704E-004	...........
	20	5.425	4.01586E-002	4.01304E-002	5.67338E-004	...........
	21	5.68333	4.01488E-002	4.01403E-002	5.65671E-004	...........
	22	5.94167	4.01414E-002	4.01232E-002	5.65471E-004	...........
	23	6.2	4.01360E-002	4.01107E-002	5.67071E-004	...........
	24	6.45833	4.01306E-002	4.01099E-002	5.65071E-004	...........
	25	6.71667	4.01232E-002	4.00736E-002	5.66538E-004	...........
	26	6.975	4.01134E-002	4.00894E-002	5.65204E-004	...........
	27	7.23333	4.01021E-002	4.00770E-002	5.67771E-004	...........
	28	7.49167	4.00919E-002	4.00726E-002	5.61971E-004	...........
	29	7.75	4.00841E-002	4.00681E-002	5.68571E-004	...........
	30	8.00833	4.00784E-002	4.00698E-002	5.66838E-004	...........
	31	8.26667	4.00739E-002	4.00655E-002	5.65938E-004	...........
	32	8.525	4.00712E-002	4.00938E-002	5.68204E-004	...........
	33	8.78333	4.00719E-002	4.01015E-002	5.67938E-004	...........
	34	9.04167	4.00756E-002	4.00068E-002	5.71271E-004	...........
	35	9.3	4.00733E-002	3.99269E-002	5.66704E-004	...........
	36	9.5583	4.00530E-002	3.99481E-002	5.62638E-004	...........
	37	9.8167	4.00167E-002	3.99761E-002	5.67571E-004	...........
	38	10.075	3.99831E-002	3.99811E-002	5.70438E-004	...........
EOC	QUANT	0.0399831	Open Circuit (V)
PSTATMODEL	IQUANT	4	Pstat Model
PSTATSECTION	LABEL	REF600-11020	Pstat Section
PSTATSERIALNO	LABEL	11020	Pstat Serial Number
CTRLMODE	IQUANT	1	Control Mode
IESTAB	IQUANT	0	I/E Stability
CASPEED	IQUANT	1	Control Amp Speed
CONVENTION	IQUANT	1	Current Convention
ICHRANGE	IQUANT	2	Ich Range
ICHRANGEMODE	TOGGLE	F	Ich Auto Range
ICHOFFSETENABLE	TOGGLE	T	Ich Offset Enable
ICHOFFSET	QUANT	0	Ich Offset (V)
ICHFILTER	IQUANT	3	Ich Filter
VCHRANGE	IQUANT	2	Vch Range
VCHRANGEMODE	TOGGLE	F	Vch Auto Range
VCHOFFSETENABLE	TOGGLE	T	Vch Offset Enable
VCHOFFSET	QUANT	0	Vch Offset (V)
VCHFILTER	IQUANT	3	Vch Filter
ACHRANGE	IQUANT	2	Ach Range
ACHOFFSETENABLE	TOGGLE	F	Ach Offset Enable
ACHOFFSET	QUANT	0	Ach Offset (V)
ACHFILTER	IQUANT	3	Ach Filter
IERANGELOWERLIMIT	IQUANT	1	I/E Range Lower Limit
IERANGEMODE	TOGGLE	F	I/E AutoRange
IERANGE	IQUANT	7	I/E Range
POSFEEDENABLE	TOGGLE	F	Positive Feedback IR Comp
POSFEEDRESISTANCE	QUANT	0	Positive Feedback Resistance (ohm)
ACHSELECT	IQUANT	0	Ach Select
CABLEID	IQUANT	14	Cable ID
DCCALDATE	LABEL	1/27/2020	DC Calibration Date
ACCALDATE	LABEL	1/27/2020	AC Calibration Date
THERMOSELECT	IQUANT	1	Thermo Select
FRAMEWORKVERSION	QUANT	6.33	Framework Version
INSTRUMENTVERSION	LABEL	3.50	Instrument Version
ZCURVE	TABLE
	Pt	Time	Freq	Zreal	Zimag	Zsig	Zmod	Zphz	Idc	Vdc	IERange
	#	s	Hz	ohm	ohm	V	ohm	°	A	V	#
	0	2	1000078	1926.327	-1977.95	1	2760.982	-45.75753	-5.172384E-007	0.0420558	8
	1	4	794390.6	2343.751	-2041.849	1	3108.427	-41.062	2.051422E-006	0.0413851	8
	2	5	630984.4	2774.486	-2048.99	1	3449.077	-36.4463	9.7964E-007	0.0413231	8
	3	6	501234.4	3181.017	-1971.933	1	3742.645	-31.79505	1.918765E-007	0.0415235	8
	4	8	398109.4	3553.057	-1851.633	1	4006.59	-27.52573	3.100992E-006	0.0409746	8
	5	9	316265.6	3864.884	-1688.901	1	4217.786	-23.60467	-1.68857E-007	0.0415008	8
	6	10	251203.1	4116.993	-1510.862	1	4385.468	-20.15223	8.096867E-007	0.041286	8
	7	12	199546.9	4323.535	-1328.533	1	4523.047	-17.08111	-2.430882E-006	0.0419637	8
	8	13	158578.1	4484.646	-1166.281	1	4633.817	-14.57749	-2.296859E-007	0.0416989	8
	9	15	125953.1	4611.709	-1008.249	1	4720.638	-12.33242	8.36329E-007	0.0400543	7
	10	16	100078.1	4722.971	-887.8161	1	4805.691	-10.64613	9.557787E-008	0.0413309	7
	11	17	79453.13	4800.075	-795.5206	1	4865.549	-9.410147	-1.837516E-008	0.0414701	7
	12	19	63140.62	4865.199	-726.9694	1	4919.212	-8.498393	-3.012364E-008	0.0414949	7
	13	20	50203.12	4922.674	-679.0858	1	4969.293	-7.854412	-3.077529E-008	0.0414934	7
	14	22	39890.62	4973.953	-650.6055	1	5016.323	-7.452124	-9.278623E-009	0.041496	7
	15	23	31640.63	5022.599	-641.3637	1	5063.383	-7.277035	-1.016156E-008	0.0415187	7
	16	24	25171.88	5069.308	-650.7004	1	5110.899	-7.314535	6.016364E-008	0.0413448	7
	17	26	20015.62	5117.942	-679.7681	1	5162.888	-7.565777	9.953933E-008	0.0413118	7
	18	27	15890.62	5168.102	-727.6368	1	5219.074	-8.014214	6.198484E-009	0.0413921	7
	19	28	12609.37	5222.334	-799.5753	1	5283.189	-8.70478	3.941551E-008	0.0413415	7
	20	30	10078.13	5278.021	-890.5417	1	5352.623	-9.57711	4.210338E-008	0.0414497	7
	21	31	8015.625	5341.173	-1007.022	1	5435.276	-10.67718	6.195608E-008	0.041327	7
	22	32	6328.125	5413.433	-1163.501	1	5537.056	-12.12997	-5.085872E-009	0.0415261	7
	23	34	5015.625	5493.397	-1353.63	1	5657.714	-13.84251	-1.674995E-008	0.0414607	7
	24	35	3984.375	5584.336	-1588.586	1	5805.895	-15.87956	-8.695713E-009	0.0415113	7
	25	37	3170.956	5685.266	-1870.737	1	5985.14	-18.2138	2.441659E-008	0.0414321	7
	26	38	2527.573	5800.285	-2212.981	1	6208.107	-20.88334	-2.547856E-008	0.0414813	7
	27	39	1976.103	5947.978	-2671.355	1	6520.321	-24.1858	9.950941E-008	0.0413051	7
	28	41	1577.524	6106.063	-3179.179	1	6884.126	-27.50416	4.032104E-008	0.041338	7
	29	42	1265.625	6284.939	-3783.787	1	7336.042	-31.04964	-3.039548E-008	0.0414683	7
	30	43	998.264	6518.848	-4571.439	1	7962	-35.04063	6.121881E-008	0.0413389	7
	31	45	796.875	6779.446	-5486.382	1	8721.312	-38.98211	4.365133E-008	0.0414425	7
	32	46	627.7902	7109.58	-6655.879	1	9738.93	-43.11226	6.135961E-008	0.0413434	7
	33	47	505.5147	7466.096	-7941.058	1	10899.68	-46.76572	-4.456561E-009	0.0415305	6
	34	49	397.9953	7935.308	-9660.75	1	12501.97	-50.60043	1.033732E-009	0.0414509	6
	35	50	315.5048	8482.228	-11702.34	1	14453.13	-54.06421	1.578005E-009	0.0414519	6
	36	52	252.4038	9108.887	-14081.04	1	16770.43	-57.10156	1.110926E-009	0.0414536	6
	37	53	198.6229	9920.4	-17191.31	1	19848.31	-60.0125	1.452566E-009	0.0414499	6
	38	54	158.3615	10853.66	-20784.55	1	23447.8	-62.42651	9.654811E-010	0.0414485	6
	39	56	125.558	12024.21	-25257.48	1	27973.59	-64.5425	1.465741E-009	0.0414537	6
	40	57	100.4464	13411.17	-30503.47	1	33321.48	-66.26681	8.304206E-010	0.0414499	6
	41	58	79.00281	15264.26	-37270.16	1	40274.84	-67.7281	8.509932E-010	0.0414543	6
	42	60	63.3446	17749.49	-44815.18	1	48202.12	-68.39348	1.268287E-009	0.0414471	6
	43	61	49.86702	20326.73	-55197.28	1	58821.05	-69.78347	8.284629E-010	0.0414402	6
	44	63	39.72458	23878.61	-66509.2	1	70665.84	-70.25049	1.428348E-009	0.0414403	6
	45	64	31.6723	28242.01	-80078.57	1	84912.83	-70.57334	1.375449E-009	0.0414422	6
	46	65	24.93351	34218.39	-97772.1	1	103587	-70.71091	1.1402E-009	0.041446	6
	47	67	19.86229	41551.8	-117818.5	1	124931	-70.57346	4.261204E-010	0.0414442	5
	48	68	15.83615	49843.65	-141269.1	1	149804.4	-70.56575	7.36913E-010	0.041444	5
	49	70	12.40079	63810.58	-172762	1	184169.7	-69.72801	-2.209998E-010	0.0414494	5
	50	71	9.93114	78513.43	-205059.5	1	219576.3	-69.0491	6.814052E-010	0.0414472	5
	51	73	7.944915	97337.3	-243643	1	262367	-68.22291	-1.102681E-010	0.0414568	5
	52	74	6.317385	123550.8	-289350.7	1	314624.6	-66.87785	3.602685E-010	0.0414402	5
	53	76	5.008013	156590.1	-342073.1	1	376210.6	-65.40321	1.50619E-010	0.0414555	5
	54	79	3.945707	198810.6	-402493.4	1	448917.2	-63.71305	-5.789831E-011	0.041451	5
	55	82	3.158693	247315.5	-464134.6	1	525914.3	-61.94894	3.396411E-010	0.0414666	5
	56	85	2.504006	307936.7	-534278.1	1	616666.9	-60.04256	-1.114054E-010	0.0414516	5
	57	88	1.998082	376021	-606417.3	1	713536	-58.1982	4.043301E-011	0.0414235	5
	58	91	1.584686	456177.8	-683891.1	1	822073.7	-56.29541	9.411548E-011	0.0414993	5
	59	94	1.266892	541485.4	-767919.5	1	939631.3	-54.81107	-3.703216E-011	0.0414368	5
	60	99	0.999041	643933.4	-862501	1	1076363	-53.2554	2.786374E-010	0.0414311	4
