EXPLAIN
TAG	EISPOT
TITLE	LABEL	Potentiostatic EIS	Test &Identifier
DATE	LABEL	3/3/2020	Date
TIME	LABEL	16:10:49	Time
NOTES	NOTES	1	&Notes...
	
PSTAT	PSTAT	REF600-11020	Potentiostat
VDC	POTEN	0.00000E+000	T	DC &Voltage (V)
FREQINIT	QUANT	1.00000E+006	Initial Fre&q. (Hz)
FREQFINAL	QUANT	1.00000E+000	Final Fre&q. (Hz)
PTSPERDEC	QUANT	1.00000E+001	Points/&decade
VAC	QUANT	2.50000E+001	AC &Voltage (mV rms)
AREA	QUANT	1.60000E-004	&Area (cm^2)
CONDIT	TWOPARAM	F	1.50000E+001	0.00000E+000	Conditionin&g	Time(s)	E(V)
DELAY	TWOPARAM	F	1.00000E+002	0.00000E+000	Init. De&lay	Time(s)	Stab.(mV/s)
SPEED	SELECTOR	1	&Optimize for:
ZGUESS	QUANT	1.00000E+004	E&stimated Z (ohms)
OCVCURVE	TABLE	39
	Pt	T	Vf	Vm	Ach	Over
	#	s	V vs. Ref.	V	V	bits
	0	0.258333	8.53966E-002	8.53966E-002	6.63344E-004	...........
	1	0.516667	8.53826E-002	8.46654E-002	6.72210E-004	...........
	2	0.775	8.53293E-002	8.56721E-002	6.70844E-004	...........
	3	1.03333	8.52804E-002	8.63202E-002	6.65577E-004	...........
	4	1.29167	8.53420E-002	8.52008E-002	6.68044E-004	...........
	5	1.55	8.55159E-002	8.65479E-002	6.71977E-004	...........
	6	1.80833	8.57141E-002	8.63046E-002	6.71810E-004	...........
	7	2.06667	8.59083E-002	8.61343E-002	6.74110E-004	...........
	8	2.325	8.60696E-002	8.55658E-002	6.72610E-004	...........
	9	2.58333	8.61040E-002	8.52226E-002	6.69477E-004	...........
	10	2.84167	8.59591E-002	8.51440E-002	6.63577E-004	...........
	11	3.1	8.56917E-002	8.49112E-002	6.65510E-004	...........
	12	3.35833	8.54015E-002	8.46650E-002	6.63977E-004	...........
	13	3.61667	8.51500E-002	8.48970E-002	6.67077E-004	...........
	14	3.875	8.49679E-002	8.50077E-002	6.67377E-004	...........
	15	4.13333	8.48778E-002	8.48264E-002	6.65377E-004	...........
	16	4.39167	8.48633E-002	8.48383E-002	6.66077E-004	...........
	17	4.65	8.48778E-002	8.51938E-002	6.63744E-004	...........
	18	4.90833	8.48847E-002	8.38928E-002	6.68977E-004	...........
	19	5.16667	8.48361E-002	8.46561E-002	6.63610E-004	...........
	20	5.425	8.47152E-002	8.47587E-002	6.62444E-004	...........
	21	5.68333	8.46038E-002	8.46247E-002	6.70543E-004	...........
	22	5.94167	8.45795E-002	8.47982E-002	6.71677E-004	...........
	23	6.2	8.46153E-002	8.43814E-002	6.62644E-004	...........
	24	6.45833	8.46481E-002	8.49867E-002	6.71977E-004	...........
	25	6.71667	8.46688E-002	8.48658E-002	6.70777E-004	...........
	26	6.975	8.47076E-002	8.47101E-002	6.71510E-004	...........
	27	7.23333	8.47654E-002	8.51043E-002	6.64677E-004	...........
	28	7.49167	8.48269E-002	8.51212E-002	6.71277E-004	...........
	29	7.75	8.48895E-002	8.45102E-002	6.74677E-004	...........
	30	8.00833	8.49783E-002	8.77842E-002	6.70010E-004	...........
	31	8.26667	8.51706E-002	8.40535E-002	6.64377E-004	...........
	32	8.525	8.54086E-002	8.47392E-002	6.68544E-004	...........
	33	8.78333	8.54786E-002	8.65335E-002	6.66977E-004	...........
	34	9.04167	8.54086E-002	8.53154E-002	6.70910E-004	...........
	35	9.3	8.54122E-002	8.53730E-002	6.69677E-004	...........
	36	9.5583	8.54823E-002	8.52613E-002	6.65677E-004	...........
	37	9.8167	8.54860E-002	8.51108E-002	6.72277E-004	...........
	38	10.075	8.54027E-002	8.50708E-002	6.71343E-004	...........
EOC	QUANT	0.0854027	Open Circuit (V)
PSTATMODEL	IQUANT	4	Pstat Model
PSTATSECTION	LABEL	REF600-11020	Pstat Section
PSTATSERIALNO	LABEL	11020	Pstat Serial Number
CTRLMODE	IQUANT	1	Control Mode
IESTAB	IQUANT	0	I/E Stability
CASPEED	IQUANT	1	Control Amp Speed
CONVENTION	IQUANT	1	Current Convention
ICHRANGE	IQUANT	2	Ich Range
ICHRANGEMODE	TOGGLE	F	Ich Auto Range
ICHOFFSETENABLE	TOGGLE	T	Ich Offset Enable
ICHOFFSET	QUANT	0	Ich Offset (V)
ICHFILTER	IQUANT	3	Ich Filter
VCHRANGE	IQUANT	2	Vch Range
VCHRANGEMODE	TOGGLE	F	Vch Auto Range
VCHOFFSETENABLE	TOGGLE	T	Vch Offset Enable
VCHOFFSET	QUANT	0	Vch Offset (V)
VCHFILTER	IQUANT	3	Vch Filter
ACHRANGE	IQUANT	2	Ach Range
ACHOFFSETENABLE	TOGGLE	F	Ach Offset Enable
ACHOFFSET	QUANT	0	Ach Offset (V)
ACHFILTER	IQUANT	1	Ach Filter
IERANGELOWERLIMIT	IQUANT	1	I/E Range Lower Limit
IERANGEMODE	TOGGLE	F	I/E AutoRange
IERANGE	IQUANT	7	I/E Range
POSFEEDENABLE	TOGGLE	F	Positive Feedback IR Comp
POSFEEDRESISTANCE	QUANT	0	Positive Feedback Resistance (ohm)
ACHSELECT	IQUANT	0	Ach Select
CABLEID	IQUANT	14	Cable ID
DCCALDATE	LABEL	2/27/2020	DC Calibration Date
ACCALDATE	LABEL	2/27/2020	AC Calibration Date
THERMOSELECT	IQUANT	1	Thermo Select
FRAMEWORKVERSION	QUANT	6.33	Framework Version
INSTRUMENTVERSION	LABEL	3.50	Instrument Version
ZCURVE	TABLE
	Pt	Time	Freq	Zreal	Zimag	Zsig	Zmod	Zphz	Idc	Vdc	IERange
	#	s	Hz	ohm	ohm	V	ohm	°	A	V	#
	0	2	1000078	1964.985	-2310.963	1	3033.433	-49.62587	-2.799261E-006	0.0884736	8
	1	3	794390.6	2292.788	-2559.632	1	3436.363	-48.14764	3.611481E-007	0.0875744	8
	2	5	630984.4	2674.678	-2796.409	1	3869.601	-46.27461	1.53784E-006	0.0869648	8
	3	6	501234.4	3058.13	-3062.021	1	4327.602	-45.03643	1.245854E-006	0.086977	8
	4	7	398109.4	3491.018	-3329.315	1	4824.06	-43.64183	-3.536427E-007	0.0871592	8
	5	9	316265.6	3920.813	-3613.751	1	5332.164	-42.66627	-1.166816E-006	0.0873261	8
	6	10	251203.1	4416.742	-3950.868	1	5925.957	-41.8133	1.353307E-006	0.0869032	8
	7	11	199546.9	4938.491	-4277.682	1	6533.548	-40.89885	8.69575E-007	0.0869329	8
	8	13	158578.1	5492.303	-4668.923	1	7208.622	-40.36736	-1.242433E-006	0.0873082	8
	9	15	125953.1	6174.917	-5099.406	1	8008.342	-39.55077	-3.138003E-008	0.0868347	7
	10	17	100078.1	6856.544	-5586.688	1	8844.393	-39.17302	-4.700066E-008	0.0871305	7
	11	18	79453.13	7648.589	-6151.268	1	9815.24	-38.80748	-8.135992E-009	0.087099	7
	12	19	63140.62	8547.187	-6736.561	1	10882.81	-38.24381	2.914862E-008	0.0868891	7
	13	21	50203.12	9567.25	-7332.175	1	12053.76	-37.46594	3.054053E-008	0.0868921	7
	14	22	39890.62	10706.83	-7939.864	1	13329.57	-36.55954	8.06422E-008	0.0868721	7
	15	23	31640.63	11950.11	-8500.345	1	14664.96	-35.42499	-8.633559E-009	0.0869532	7
	16	25	25171.88	13285.14	-9035.412	1	16066.54	-34.22017	9.210002E-008	0.0868846	7
	17	26	20015.62	14666.91	-9508.13	1	17479.21	-32.95417	1.457663E-008	0.0870549	7
	18	27	15890.62	16065.07	-9948.94	1	18896.24	-31.76954	-3.394889E-008	0.0871064	7
	19	29	12609.37	17583.45	-10299.74	1	20377.99	-30.3602	8.347271E-009	0.0869868	6
	20	30	10078.13	18921.17	-10750.02	1	21761.75	-29.60297	1.200539E-008	0.0868291	6
	21	31	8015.625	20283.59	-11314.38	1	23225.83	-29.15321	-9.803287E-010	0.0869704	6
	22	33	6328.125	21708.13	-12032.14	1	24819.66	-28.99823	7.054433E-009	0.0868617	6
	23	34	5015.625	23160.43	-12924.15	1	26522.43	-29.16272	-6.708423E-009	0.0871978	6
	24	35	3984.375	24640.82	-13983.78	1	28332.25	-29.57511	8.589923E-009	0.0869839	6
	25	37	3170.956	26260.99	-15284.14	1	30384.93	-30.1998	-4.102825E-010	0.0871553	6
	26	38	2527.573	28021.19	-16799.8	1	32671.4	-30.94434	-1.721854E-009	0.0871507	6
	27	39	1976.103	30149.81	-18758.37	1	35508.98	-31.88872	-1.167097E-009	0.0869676	6
	28	41	1577.524	32284.08	-20718.69	1	38360.47	-32.6908	-7.637663E-010	0.0871504	6
	29	42	1265.625	34633.93	-22835.26	1	41484.44	-33.39815	9.891182E-009	0.0869267	6
	30	44	998.264	37279.8	-25477.2	1	45153.86	-34.34889	5.937107E-009	0.0870577	6
	31	45	796.875	39968.39	-28329.68	1	48990.23	-35.32909	1.182909E-008	0.0868133	6
	32	46	627.7902	42892.66	-31851.93	1	53425.89	-36.59744	-4.908719E-009	0.0870746	6
	33	48	505.5147	45646.08	-35742.72	1	57975.05	-38.06238	8.421623E-009	0.0869758	6
	34	49	397.9953	48957.65	-41058.83	1	63895.84	-39.98522	-1.893083E-010	0.0870695	6
	35	50	315.5048	52510.11	-47403.82	1	70742.03	-42.07434	-5.286765E-010	0.0870691	6
	36	52	252.4038	56549.73	-54895.64	1	78812.45	-44.14967	-7.928543E-010	0.0870644	6
	37	53	198.6229	61723.87	-64668.68	1	89397.29	-46.33469	-4.725015E-010	0.0870709	6
	38	54	158.3615	67949.91	-75472.47	1	101554.3	-48.00244	3.645772E-010	0.0870695	5
	39	56	125.558	75716.25	-88574.08	1	116526	-49.47501	2.464681E-010	0.0870729	5
	40	57	100.4464	84771.06	-103383.1	1	133694.4	-50.64927	5.047319E-010	0.0870725	5
	41	58	79.00281	96828.9	-121707.1	1	155526.4	-51.49462	1.627875E-010	0.0870683	5
	42	60	63.3446	113382.2	-136750.6	1	177640.8	-50.3373	2.374309E-010	0.0870656	5
	43	61	49.86702	127417.4	-164005	1	207684.5	-52.15596	2.922063E-010	0.0870644	5
	44	63	39.72458	146618.3	-185547	1	236483.9	-51.68439	2.747842E-010	0.0870708	5
	45	64	31.6723	170157.9	-212070.4	1	271896.3	-51.25766	3.865908E-010	0.0870675	5
	46	66	24.93351	197953.2	-243126.1	1	313521.6	-50.84752	2.807935E-011	0.0870658	5
	47	67	19.86229	229057.5	-274947.9	1	357859.9	-50.20251	8.325316E-011	0.0870621	5
	48	68	15.83615	267784	-314338.2	1	412936.8	-49.5724	-5.011048E-010	0.0870652	5
	49	70	12.40079	314829.3	-349535.8	1	470417.7	-47.99042	-1.867047E-010	0.0870668	5
	50	71	9.93114	363294.3	-391618.9	1	534179.9	-47.14874	8.41973E-012	0.0870733	5
	51	73	7.944915	421853.3	-428741.5	1	601481.1	-45.46397	2.950582E-010	0.0870675	5
	52	74	6.317385	485291.2	-472133.5	1	677065.4	-44.21265	4.534057E-011	0.0870608	6
	53	77	5.008013	559818.4	-514119.8	1	760076.3	-42.5634	3.043216E-011	0.0870702	6
	54	80	3.945707	643634	-555051	1	849909.6	-40.77352	-3.901733E-010	0.0870634	6
	55	83	3.158693	724821.6	-590884.6	1	935152.9	-39.18739	2.405252E-010	0.0870891	5
	56	86	2.504006	815935.9	-629741.6	1	1030692	-37.66106	-9.88804E-011	0.0870668	4
	57	89	1.998082	911921.1	-659010.6	1	1125120	-35.85421	2.438383E-010	0.0870346	4
	58	92	1.584686	1005900	-704347.2	1	1227982	-35.00031	-1.42086E-010	0.087084	4
	59	95	1.266892	1099490	-734044.5	1	1322006	-33.72798	1.013393E-010	0.0870182	4
	60	100	0.999041	1198435	-774628.9	1	1426989	-32.87729	3.211971E-010	0.0870995	4
