EXPLAIN
TAG	EISPOT
TITLE	LABEL	Potentiostatic EIS	Test &Identifier
DATE	LABEL	3/12/2020	Date
TIME	LABEL	12:44:00	Time
NOTES	NOTES	1	&Notes...
	
PSTAT	PSTAT	REF600-11020	Potentiostat
VDC	POTEN	0.00000E+000	T	DC &Voltage (V)
FREQINIT	QUANT	1.00000E+006	Initial Fre&q. (Hz)
FREQFINAL	QUANT	1.00000E+000	Final Fre&q. (Hz)
PTSPERDEC	QUANT	1.00000E+001	Points/&decade
VAC	QUANT	2.50000E+001	AC &Voltage (mV rms)
AREA	QUANT	2.50000E-001	&Area (cm^2)
CONDIT	TWOPARAM	F	5.00000E+000	0.00000E+000	Conditionin&g	Time(s)	E(V)
DELAY	TWOPARAM	T	5.00000E+000	0.00000E+000	Init. De&lay	Time(s)	Stab.(mV/s)
SPEED	SELECTOR	1	&Optimize for:
ZGUESS	QUANT	5.00000E+003	E&stimated Z (ohms)
OCVCURVE	TABLE	19
	Pt	T	Vf	Vm	Ach	Over
	#	s	V vs. Ref.	V	V	bits
	0	0.258333	6.24301E-002	6.24301E-002	5.80197E-004	...........
	1	0.516667	6.24295E-002	6.24018E-002	5.83663E-004	...........
	2	0.775	6.24274E-002	6.24382E-002	5.78030E-004	...........
	3	1.03333	6.24243E-002	6.24129E-002	5.75263E-004	...........
	4	1.29167	6.24203E-002	6.23222E-002	5.78830E-004	...........
	5	1.55	6.24102E-002	6.23588E-002	5.79630E-004	...........
	6	1.80833	6.23906E-002	6.23124E-002	5.83230E-004	...........
	7	2.06667	6.23664E-002	6.23104E-002	5.81930E-004	...........
	8	2.325	6.23445E-002	6.23295E-002	5.85330E-004	...........
	9	2.58333	6.23295E-002	6.23334E-002	5.80763E-004	...........
	10	2.84167	6.23198E-002	6.21387E-002	5.85563E-004	...........
	11	3.1	6.23039E-002	6.22593E-002	5.86930E-004	...........
	12	3.35833	6.22768E-002	6.22609E-002	5.82563E-004	...........
	13	3.61667	6.22528E-002	6.22758E-002	5.84530E-004	...........
	14	3.875	6.22466E-002	6.22972E-002	5.85097E-004	...........
	15	4.13333	6.22564E-002	6.23140E-002	5.81963E-004	...........
	16	4.39167	6.22730E-002	6.22870E-002	5.82097E-004	...........
	17	4.65	6.22873E-002	6.22764E-002	5.85463E-004	...........
	18	4.90833	6.22930E-002	6.22628E-002	5.85797E-004	...........
EOC	QUANT	0.062293	Open Circuit (V)
PSTATMODEL	IQUANT	4	Pstat Model
PSTATSECTION	LABEL	REF600-11020	Pstat Section
PSTATSERIALNO	LABEL	11020	Pstat Serial Number
CTRLMODE	IQUANT	1	Control Mode
IESTAB	IQUANT	0	I/E Stability
CASPEED	IQUANT	1	Control Amp Speed
CONVENTION	IQUANT	1	Current Convention
ICHRANGE	IQUANT	2	Ich Range
ICHRANGEMODE	TOGGLE	F	Ich Auto Range
ICHOFFSETENABLE	TOGGLE	T	Ich Offset Enable
ICHOFFSET	QUANT	0	Ich Offset (V)
ICHFILTER	IQUANT	3	Ich Filter
VCHRANGE	IQUANT	2	Vch Range
VCHRANGEMODE	TOGGLE	F	Vch Auto Range
VCHOFFSETENABLE	TOGGLE	T	Vch Offset Enable
VCHOFFSET	QUANT	0	Vch Offset (V)
VCHFILTER	IQUANT	3	Vch Filter
ACHRANGE	IQUANT	2	Ach Range
ACHOFFSETENABLE	TOGGLE	F	Ach Offset Enable
ACHOFFSET	QUANT	0	Ach Offset (V)
ACHFILTER	IQUANT	3	Ach Filter
IERANGELOWERLIMIT	IQUANT	1	I/E Range Lower Limit
IERANGEMODE	TOGGLE	F	I/E AutoRange
IERANGE	IQUANT	7	I/E Range
POSFEEDENABLE	TOGGLE	F	Positive Feedback IR Comp
POSFEEDRESISTANCE	QUANT	0	Positive Feedback Resistance (ohm)
ACHSELECT	IQUANT	0	Ach Select
CABLEID	IQUANT	14	Cable ID
DCCALDATE	LABEL	2/27/2020	DC Calibration Date
ACCALDATE	LABEL	2/27/2020	AC Calibration Date
THERMOSELECT	IQUANT	1	Thermo Select
FRAMEWORKVERSION	QUANT	6.33	Framework Version
INSTRUMENTVERSION	LABEL	3.50	Instrument Version
ZCURVE	TABLE
	Pt	Time	Freq	Zreal	Zimag	Zsig	Zmod	Zphz	Idc	Vdc	IERange
	#	s	Hz	ohm	ohm	V	ohm	°	A	V	#
	0	1	1000078	1615.188	-6731.441	1	6922.509	-76.50715	-2.358373E-008	0.0649632	8
	1	3	794390.6	2131.983	-8217.818	1	8489.87	-75.45615	-9.583274E-007	0.064363	8
	2	5	630984.4	2796.069	-10104.75	1	10484.47	-74.53279	1.622613E-007	0.0640324	8
	3	6	501234.4	4031.478	-12268.34	1	12913.75	-71.80904	7.748378E-007	0.0638082	8
	4	8	398109.4	5245.981	-14941.31	1	15835.5	-70.65353	-2.72346E-007	0.0639473	8
	5	9	316265.6	7129.712	-17790.27	1	19165.77	-68.16084	9.312805E-007	0.0637429	8
	6	11	251203.1	9920.74	-20740.55	1	22991.12	-64.43701	-3.362397E-008	0.0638526	8
	7	12	199546.9	13079.92	-24040.83	1	27368.7	-61.45066	-9.007485E-007	0.0641689	8
	8	14	158578.1	17670.67	-27065.04	1	32322.89	-56.85962	-1.438069E-006	0.0642111	8
	9	16	125953.1	23037.47	-29330.63	1	37296.26	-51.85246	6.898385E-007	0.0625403	7
	10	17	100078.1	28687.32	-31347.83	1	42492.93	-47.53745	6.17229E-009	0.0637506	7
	11	19	79453.13	34657.18	-32592.35	1	47575.01	-43.24134	-8.910945E-009	0.0638526	7
	12	20	63140.62	40625.11	-32957.41	1	52312.43	-39.05094	-2.802402E-008	0.0638095	7
	13	21	50203.12	46476.43	-32827.27	1	56900.69	-35.23436	3.181976E-008	0.0636974	7
	14	23	39890.62	51926.09	-32226.48	1	61113.54	-31.82466	1.324379E-008	0.0637758	7
	15	24	31640.63	57075.34	-31566.33	1	65222.91	-28.94542	1.619951E-008	0.0637656	7
	16	26	25171.88	61876.56	-30619.44	1	69038.1	-26.32838	1.205368E-008	0.0637768	7
	17	27	20015.62	66286.03	-29656.47	1	72617.8	-24.10382	-3.551026E-008	0.0638406	7
	18	28	15890.62	70752.98	-28932.25	1	76439.91	-22.24059	3.240709E-008	0.0636917	7
	19	30	12609.37	75104.16	-27685.46	1	80044.48	-20.23528	1.160191E-009	0.0639139	6
	20	31	10078.13	78900.37	-26949.88	1	83376.04	-18.85855	2.795308E-009	0.0638854	6
	21	33	8015.625	82610.76	-26300.88	1	86696.45	-17.65998	1.07354E-009	0.0639109	6
	22	34	6328.125	86332.52	-25693.08	1	90074.63	-16.57333	-4.398694E-010	0.063911	6
	23	35	5015.625	89762	-25099.03	1	93205.03	-15.62193	-4.805019E-009	0.0639525	6
	24	37	3984.375	93016.74	-24680.15	1	96235.3	-14.8599	8.913758E-009	0.0637347	6
	25	38	3170.956	96321	-24413.22	1	99366.7	-14.2225	-1.098406E-009	0.0638013	6
	26	39	2527.573	99620.2	-24411.34	1	102567.5	-13.76868	5.308519E-009	0.0638505	6
	27	41	1976.103	102959	-24382.98	1	105806.9	-13.32345	-2.352689E-009	0.0639285	6
	28	42	1577.524	106119	-24520.14	1	108915	-13.01058	2.629429E-009	0.0638759	6
	29	43	1265.625	109299.3	-23648.54	1	111828.4	-12.20861	-2.744719E-010	0.0639257	5
	30	45	998.264	112261.6	-24445.43	1	114892.3	-12.28462	-3.436329E-010	0.0639211	5
	31	46	796.875	115040.3	-25383.72	1	117807.5	-12.44297	-5.025747E-010	0.0638549	5
	32	48	627.7902	117941	-26889.64	1	120967.5	-12.84346	-6.919092E-010	0.0639379	5
	33	49	505.5147	120573	-28624.93	1	123924.3	-13.3552	-3.386477E-010	0.063868	5
	34	50	397.9953	123434.7	-31178.8	1	127311.6	-14.17601	3.310514E-010	0.0638545	5
	35	52	315.5048	126460.3	-34430.71	1	131063.6	-15.23047	-2.226314E-010	0.0638577	5
	36	53	252.4038	129546.7	-38162.43	1	135050.8	-16.41414	-4.419246E-011	0.0638492	5
	37	54	198.6229	133187.3	-43422.52	1	140087.1	-18.05731	1.727487E-010	0.063849	5
	38	56	158.3615	136759.3	-49356.88	1	145393.3	-19.84468	2.01662E-010	0.0638476	5
	39	57	125.558	141284.2	-57028.7	1	152359.8	-21.98123	5.959741E-011	0.0638532	5
	40	59	100.4464	146420.5	-65379	1	160353.9	-24.0615	-2.262338E-010	0.063847	5
	41	60	79.00281	152247.9	-77794.48	1	170971.9	-27.06578	-1.913925E-010	0.0638486	5
	42	61	63.3446	155231.7	-89523.36	1	179196.3	-29.97239	7.12061E-011	0.0638485	5
	43	63	49.86702	169074.3	-103767.4	1	198377.9	-31.53903	-1.78592E-010	0.063846	5
	44	64	39.72458	180631.6	-124276	1	219254	-34.5283	2.093905E-010	0.06385	5
	45	66	31.6723	195267.6	-141845	1	241349.2	-35.99516	1.66013E-010	0.0638443	5
	46	67	24.93351	210404.4	-167824.4	1	269137.6	-38.57684	1.804754E-011	0.0638428	5
	47	69	19.86229	227437.5	-194990.8	1	299581.7	-40.60773	3.45098E-010	0.0638423	5
	48	70	15.83615	247818.1	-228164.4	1	336857.2	-42.63556	3.511144E-010	0.0638486	5
	49	71	12.40079	271499.9	-263419.7	1	378288.4	-44.13458	-2.306126E-010	0.0638518	5
	50	73	9.93114	301912.6	-307779.9	1	431137.7	-45.55136	-1.447195E-011	0.0638523	5
	51	74	7.944915	334851.9	-350535.5	1	484768.9	-46.31086	3.969682E-010	0.0638523	5
	52	76	6.317385	374779.3	-407349.2	1	553527.8	-47.38457	-1.050853E-010	0.063855	5
	53	78	5.008013	422984.4	-469523.7	1	631956	-47.98495	-3.726639E-011	0.0638367	5
	54	81	3.945707	481798.1	-541814.1	1	725046.1	-48.3555	5.487218E-010	0.0638421	6
	55	84	3.158693	546357.9	-616864.6	1	824032.1	-48.46864	9.508365E-011	0.0638442	5
	56	87	2.504006	624992.5	-704847.4	1	942032.6	-48.4364	-1.109987E-010	0.0638507	5
	57	90	1.998082	714380.1	-796203.9	1	1069710	-48.10051	4.81344E-011	0.0638004	4
	58	93	1.584686	818149	-901648	1	1217513	-47.77962	-9.466099E-011	0.0638425	4
	59	97	1.266892	935866.6	-1008318	1	1375701	-47.13419	5.597302E-012	0.0637996	4
	60	101	0.999041	1074458	-1131194	1	1560148	-46.47349	5.025989E-012	0.0638902	4
