EXPLAIN
TAG	EISPOT
TITLE	LABEL	Potentiostatic EIS	Test &Identifier
DATE	LABEL	2/25/2020	Date
TIME	LABEL	14:30:06	Time
NOTES	NOTES	1	&Notes...
	
PSTAT	PSTAT	REF600-11020	Potentiostat
VDC	POTEN	0.00000E+000	T	DC &Voltage (V)
FREQINIT	QUANT	1.00000E+006	Initial Fre&q. (Hz)
FREQFINAL	QUANT	1.00000E+000	Final Fre&q. (Hz)
PTSPERDEC	QUANT	1.00000E+001	Points/&decade
VAC	QUANT	2.50000E+001	AC &Voltage (mV rms)
AREA	QUANT	1.60000E-004	&Area (cm^2)
CONDIT	TWOPARAM	F	1.50000E+001	0.00000E+000	Conditionin&g	Time(s)	E(V)
DELAY	TWOPARAM	F	1.00000E+002	0.00000E+000	Init. De&lay	Time(s)	Stab.(mV/s)
SPEED	SELECTOR	1	&Optimize for:
ZGUESS	QUANT	1.00000E+003	E&stimated Z (ohms)
OCVCURVE	TABLE	39
	Pt	T	Vf	Vm	Ach	Over
	#	s	V vs. Ref.	V	V	bits
	0	0.258333	4.66841E-002	4.66841E-002	5.63171E-004	...........
	1	0.516667	4.66769E-002	4.63101E-002	5.66304E-004	...........
	2	0.775	4.66388E-002	4.62564E-002	5.64171E-004	...........
	3	1.03333	4.65524E-002	4.63260E-002	5.65871E-004	...........
	4	1.29167	4.64458E-002	4.64438E-002	5.67971E-004	...........
	5	1.55	4.63753E-002	4.64989E-002	5.64738E-004	...........
	6	1.80833	4.63640E-002	4.62644E-002	5.63104E-004	...........
	7	2.06667	4.63758E-002	4.61357E-002	5.58938E-004	...........
	8	2.325	4.63591E-002	4.62517E-002	5.62804E-004	...........
	9	2.58333	4.63006E-002	4.58494E-002	5.61038E-004	...........
	10	2.84167	4.62048E-002	4.54578E-002	5.62571E-004	...........
	11	3.1	4.60633E-002	4.58399E-002	5.61604E-004	...........
	12	3.35833	4.59012E-002	4.57522E-002	5.61904E-004	...........
	13	3.61667	4.57821E-002	4.56440E-002	5.57838E-004	...........
	14	3.875	4.57267E-002	4.56543E-002	5.61838E-004	...........
	15	4.13333	4.57014E-002	4.56413E-002	5.58504E-004	...........
	16	4.39167	4.56760E-002	4.54192E-002	5.63104E-004	...........
	17	4.65	4.56337E-002	4.53370E-002	5.59838E-004	...........
	18	4.90833	4.55626E-002	4.52594E-002	5.62404E-004	...........
	19	5.16667	4.54746E-002	4.55583E-002	5.63171E-004	...........
	20	5.425	4.54131E-002	4.55829E-002	5.61504E-004	...........
	21	5.68333	4.54093E-002	4.53263E-002	5.66271E-004	...........
	22	5.94167	4.54422E-002	4.56768E-002	5.61871E-004	...........
	23	6.2	4.54868E-002	4.60364E-002	5.63171E-004	...........
	24	6.45833	4.55647E-002	4.58824E-002	5.63804E-004	...........
	25	6.71667	4.56832E-002	4.57496E-002	5.61004E-004	...........
	26	6.975	4.57839E-002	4.55757E-002	5.58971E-004	...........
	27	7.23333	4.58023E-002	4.53928E-002	5.59971E-004	...........
	28	7.49167	4.57388E-002	4.58030E-002	5.60171E-004	...........
	29	7.75	4.56549E-002	4.54975E-002	5.56171E-004	...........
	30	8.00833	4.56001E-002	4.53076E-002	5.60171E-004	...........
	31	8.26667	4.55569E-002	4.53363E-002	5.61671E-004	...........
	32	8.525	4.54975E-002	4.55964E-002	5.60338E-004	...........
	33	8.78333	4.54489E-002	4.55441E-002	5.65138E-004	...........
	34	9.04167	4.54449E-002	4.53990E-002	5.65871E-004	...........
	35	9.3	4.54659E-002	4.54118E-002	5.69838E-004	...........
	36	9.5583	4.54731E-002	4.54971E-002	5.67438E-004	...........
	37	9.8167	4.54672E-002	4.56463E-002	5.65504E-004	...........
	38	10.075	4.54757E-002	4.54961E-002	5.68171E-004	...........
EOC	QUANT	0.0454757	Open Circuit (V)
PSTATMODEL	IQUANT	4	Pstat Model
PSTATSECTION	LABEL	REF600-11020	Pstat Section
PSTATSERIALNO	LABEL	11020	Pstat Serial Number
CTRLMODE	IQUANT	1	Control Mode
IESTAB	IQUANT	0	I/E Stability
CASPEED	IQUANT	1	Control Amp Speed
CONVENTION	IQUANT	1	Current Convention
ICHRANGE	IQUANT	2	Ich Range
ICHRANGEMODE	TOGGLE	F	Ich Auto Range
ICHOFFSETENABLE	TOGGLE	T	Ich Offset Enable
ICHOFFSET	QUANT	0	Ich Offset (V)
ICHFILTER	IQUANT	3	Ich Filter
VCHRANGE	IQUANT	2	Vch Range
VCHRANGEMODE	TOGGLE	F	Vch Auto Range
VCHOFFSETENABLE	TOGGLE	T	Vch Offset Enable
VCHOFFSET	QUANT	0	Vch Offset (V)
VCHFILTER	IQUANT	3	Vch Filter
ACHRANGE	IQUANT	2	Ach Range
ACHOFFSETENABLE	TOGGLE	F	Ach Offset Enable
ACHOFFSET	QUANT	0	Ach Offset (V)
ACHFILTER	IQUANT	3	Ach Filter
IERANGELOWERLIMIT	IQUANT	1	I/E Range Lower Limit
IERANGEMODE	TOGGLE	F	I/E AutoRange
IERANGE	IQUANT	7	I/E Range
POSFEEDENABLE	TOGGLE	F	Positive Feedback IR Comp
POSFEEDRESISTANCE	QUANT	0	Positive Feedback Resistance (ohm)
ACHSELECT	IQUANT	0	Ach Select
CABLEID	IQUANT	14	Cable ID
DCCALDATE	LABEL	1/27/2020	DC Calibration Date
ACCALDATE	LABEL	1/27/2020	AC Calibration Date
THERMOSELECT	IQUANT	1	Thermo Select
FRAMEWORKVERSION	QUANT	6.33	Framework Version
INSTRUMENTVERSION	LABEL	3.50	Instrument Version
ZCURVE	TABLE
	Pt	Time	Freq	Zreal	Zimag	Zsig	Zmod	Zphz	Idc	Vdc	IERange
	#	s	Hz	ohm	ohm	V	ohm	°	A	V	#
	0	2	1000078	1496.759	-1807.703	1	2346.929	-50.37561	-4.468456E-006	0.0482208	8
	1	3	794390.6	1732.789	-1983.05	1	2633.447	-48.85303	3.150725E-006	0.04699	8
	2	4	630984.4	1995.746	-2176.243	1	2952.801	-47.47731	-1.982099E-006	0.0473953	8
	3	6	501234.4	2268.914	-2391.99	1	3296.905	-46.5126	2.909417E-007	0.047219	8
	4	7	398109.4	2562.16	-2654.023	1	3688.97	-46.00895	9.756574E-007	0.0468659	8
	5	8	316265.6	2885.152	-2941.034	1	4119.926	-45.54954	-5.095096E-007	0.0471346	8
	6	10	251203.1	3261.91	-3286.979	1	4630.797	-45.21933	1.302486E-006	0.0467565	8
	7	11	199546.9	3694.195	-3688.193	1	5220.138	-44.95342	-1.643753E-007	0.0470384	8
	8	13	158578.1	4197.858	-4120.68	1	5882.348	-44.46843	9.637088E-007	0.046836	8
	9	14	125953.1	4796.223	-4547.201	1	6609.145	-43.47331	3.665604E-008	0.0468651	7
	10	15	100078.1	5478.808	-5022.473	1	7432.534	-42.51177	4.020153E-009	0.0469436	7
	11	17	79453.13	6240.819	-5502.814	1	8320.384	-41.40409	4.433672E-009	0.0469349	7
	12	18	63140.62	7091.352	-5979.328	1	9275.756	-40.13712	9.523403E-009	0.046968	7
	13	19	50203.12	8002.586	-6434.588	1	10268.66	-38.80149	-9.911555E-010	0.0470215	7
	14	21	39890.62	8965.861	-6867.29	1	11293.64	-37.44986	1.460741E-009	0.0469829	7
	15	22	31640.63	9971.19	-7286.217	1	12349.64	-36.15661	5.124063E-009	0.046932	7
	16	23	25171.88	10994.63	-7732.592	1	13441.53	-35.11897	4.489353E-008	0.046944	7
	17	25	20015.62	12026.35	-8211.797	1	14562.51	-34.32594	-1.350255E-008	0.0470035	7
	18	26	15890.62	13104.49	-8771.465	1	15769.16	-33.79629	-1.373476E-008	0.0470034	7
	19	27	12609.37	14271.8	-9342.408	1	17057.7	-33.209	1.030746E-009	0.0470219	6
	20	29	10078.13	15418.39	-10078.75	1	18420.31	-33.17199	-1.823668E-009	0.0469858	6
	21	30	8015.625	16682.82	-10955.5	1	19958.44	-33.29265	3.614052E-009	0.0469044	6
	22	31	6328.125	18103.31	-11993.75	1	21715.89	-33.52516	1.517343E-010	0.0470174	6
	23	33	5015.625	19649.59	-13148.64	1	23643.03	-33.7887	6.530677E-009	0.0468668	6
	24	34	3984.375	21354.89	-14430.58	1	25773.49	-34.04888	1.001206E-008	0.0468104	6
	25	35	3170.956	23216.25	-15803.42	1	28084.56	-34.24331	8.727644E-010	0.0469144	6
	26	37	2527.573	25248.13	-17310	1	30612.16	-34.43435	4.009409E-009	0.0468725	6
	27	38	1976.103	27669.56	-19096.09	1	33619.41	-34.61141	7.090431E-009	0.0469343	6
	28	39	1577.524	30032.21	-20886.59	1	36581.19	-34.81756	1.177958E-009	0.0469362	6
	29	41	1265.625	32476.03	-22852.3	1	39710.45	-35.13278	2.033693E-009	0.0469966	6
	30	42	998.264	35197.85	-25069.74	1	43213.2	-35.46045	9.922283E-009	0.0468633	6
	31	44	796.875	37872.82	-27474.16	1	46788.67	-35.95834	1.186555E-009	0.0469337	6
	32	45	627.7902	40882.43	-30858.26	1	51221.14	-37.04569	3.596051E-010	0.0469528	6
	33	46	505.5147	43440.2	-33925.63	1	55118.05	-37.98888	1.009654E-009	0.0469401	6
	34	48	397.9953	46672.43	-38846.09	1	60723.43	-39.77107	3.132969E-009	0.0469692	6
	35	49	315.5048	50034.61	-44808.89	1	67166.2	-41.84629	3.166269E-009	0.0469684	6
	36	50	252.4038	53669.81	-51550.98	1	74417.41	-43.84639	2.359169E-009	0.0469627	6
	37	52	198.6229	58432.18	-60880.33	1	84384.45	-46.17548	2.678602E-009	0.0469598	6
	38	53	158.3615	64069.75	-71105.45	1	95712.7	-47.97949	2.604021E-009	0.0469635	6
	39	54	125.558	71636.93	-85078.36	1	111221.3	-49.90225	2.355787E-009	0.0469607	5
	40	56	100.4464	81059.23	-99315.6	1	128195.9	-50.77944	1.690759E-009	0.0469619	5
	41	57	79.00281	94045.18	-117725.2	1	150677.5	-51.38028	1.589588E-009	0.0469631	5
	42	59	63.3446	109082.8	-138748.3	1	176494.1	-51.82584	1.338866E-009	0.0469603	5
	43	60	49.86702	131765.1	-154647.9	1	203169.9	-49.56791	1.20867E-009	0.0469603	5
	44	62	39.72458	156881.4	-175362.7	1	235295.3	-48.18384	1.776642E-009	0.0469671	5
	45	63	31.6723	187353.5	-194747.8	1	270237	-46.10862	1.501114E-009	0.0469627	5
	46	65	24.93351	219622.6	-205023.3	1	300447.4	-43.03096	1.63235E-009	0.0469612	5
	47	67	19.86229	255361.5	-220061.3	1	337100.1	-40.75357	1.873053E-009	0.0469688	5
	48	68	15.83615	289393.6	-234335.5	1	372373.2	-38.9987	2.25549E-009	0.0469611	5
	49	69	12.40079	333916.8	-240266.8	1	411374	-35.73656	1.575347E-009	0.0469609	5
	50	71	9.93114	362559.8	-248377	1	439477.8	-34.41368	1.889448E-009	0.0469657	5
	51	72	7.944915	397353.1	-257504.8	1	473495.8	-32.94526	9.289169E-010	0.0469693	5
	52	74	6.317385	420625.9	-263625.4	1	496411.7	-32.07724	4.284927E-010	0.0469775	5
	53	76	5.008013	452425	-283436	1	533876.8	-32.06639	7.74039E-011	0.046956	5
	54	79	3.945707	475323	-303137.9	1	563759.3	-32.52775	8.482181E-010	0.0469768	5
	55	82	3.158693	491167.2	-328155.9	1	590704.2	-33.74746	1.614608E-010	0.0469703	5
	56	85	2.504006	524371.7	-368279.3	1	640777.1	-35.08132	4.385775E-010	0.046964	5
	57	89	1.998082	561806.8	-416236.6	1	699199.4	-36.53435	1.245502E-010	0.0470006	5
	58	93	1.584686	593953.3	-475935.9	1	761114.6	-38.70527	2.447816E-010	0.0470076	5
	59	99	1.266892	633025.2	-545626.3	1	835720.6	-40.75919	3.692868E-011	0.0469993	5
	60	106	0.999041	694661.7	-635269.7	1	941340.8	-42.44299	2.137726E-010	0.0469599	5
