EXPLAIN
TAG	EISPOT
TITLE	LABEL	Potentiostatic EIS	Test &Identifier
DATE	LABEL	2/28/2020	Date
TIME	LABEL	15:23:32	Time
NOTES	NOTES	1	&Notes...
	
PSTAT	PSTAT	REF600-11020	Potentiostat
VDC	POTEN	0.00000E+000	T	DC &Voltage (V)
FREQINIT	QUANT	1.00000E+006	Initial Fre&q. (Hz)
FREQFINAL	QUANT	1.00000E+000	Final Fre&q. (Hz)
PTSPERDEC	QUANT	1.00000E+001	Points/&decade
VAC	QUANT	2.50000E+001	AC &Voltage (mV rms)
AREA	QUANT	1.60000E-004	&Area (cm^2)
CONDIT	TWOPARAM	F	1.50000E+001	0.00000E+000	Conditionin&g	Time(s)	E(V)
DELAY	TWOPARAM	F	1.00000E+002	0.00000E+000	Init. De&lay	Time(s)	Stab.(mV/s)
SPEED	SELECTOR	1	&Optimize for:
ZGUESS	QUANT	1.00000E+003	E&stimated Z (ohms)
OCVCURVE	TABLE	39
	Pt	T	Vf	Vm	Ach	Over
	#	s	V vs. Ref.	V	V	bits
	0	0.258333	-1.18303E-001	-1.18303E-001	5.94363E-004	...........
	1	0.516667	-1.18297E-001	-1.17976E-001	5.90430E-004	...........
	2	0.775	-1.18259E-001	-1.17661E-001	5.92296E-004	...........
	3	1.03333	-1.18149E-001	-1.17354E-001	5.92396E-004	...........
	4	1.29167	-1.17953E-001	-1.17061E-001	5.88963E-004	...........
	5	1.55	-1.17690E-001	-1.16769E-001	5.88996E-004	...........
	6	1.80833	-1.17395E-001	-1.16483E-001	5.90563E-004	...........
	7	2.06667	-1.17094E-001	-1.16183E-001	5.91596E-004	...........
	8	2.325	-1.16796E-001	-1.15919E-001	5.90730E-004	...........
	9	2.58333	-1.16504E-001	-1.15642E-001	5.93596E-004	...........
	10	2.84167	-1.16219E-001	-1.15369E-001	5.92363E-004	...........
	11	3.1	-1.15940E-001	-1.15105E-001	5.95663E-004	...........
	12	3.35833	-1.15665E-001	-1.14838E-001	5.89796E-004	...........
	13	3.61667	-1.15394E-001	-1.14576E-001	5.89030E-004	...........
	14	3.875	-1.15126E-001	-1.14320E-001	5.91163E-004	...........
	15	4.13333	-1.14861E-001	-1.14061E-001	5.87263E-004	...........
	16	4.39167	-1.14600E-001	-1.13822E-001	5.92330E-004	...........
	17	4.65	-1.14342E-001	-1.13572E-001	5.91630E-004	...........
	18	4.90833	-1.14089E-001	-1.13336E-001	5.88730E-004	...........
	19	5.16667	-1.13840E-001	-1.13090E-001	5.87196E-004	...........
	20	5.425	-1.13595E-001	-1.12838E-001	5.94130E-004	...........
	21	5.68333	-1.13350E-001	-1.12592E-001	5.91463E-004	...........
	22	5.94167	-1.13105E-001	-1.12365E-001	5.93030E-004	...........
	23	6.2	-1.12861E-001	-1.12125E-001	5.90930E-004	...........
	24	6.45833	-1.12619E-001	-1.11900E-001	5.94330E-004	...........
	25	6.71667	-1.12382E-001	-1.11668E-001	5.93030E-004	...........
	26	6.975	-1.12148E-001	-1.11449E-001	5.91996E-004	...........
	27	7.23333	-1.11918E-001	-1.11227E-001	5.92763E-004	...........
	28	7.49167	-1.11691E-001	-1.11005E-001	5.90630E-004	...........
	29	7.75	-1.11466E-001	-1.10772E-001	5.94163E-004	...........
	30	8.00833	-1.11242E-001	-1.10539E-001	5.90430E-004	...........
	31	8.26667	-1.11017E-001	-1.10312E-001	5.93830E-004	...........
	32	8.525	-1.10789E-001	-1.10090E-001	5.88363E-004	...........
	33	8.78333	-1.10561E-001	-1.09877E-001	5.89530E-004	...........
	34	9.04167	-1.10334E-001	-1.09657E-001	5.95130E-004	...........
	35	9.3	-1.10112E-001	-1.09439E-001	5.92663E-004	...........
	36	9.5583	-1.09892E-001	-1.09218E-001	5.94430E-004	...........
	37	9.8167	-1.09674E-001	-1.09008E-001	5.92530E-004	...........
	38	10.075	-1.09456E-001	-1.08790E-001	5.93596E-004	...........
EOC	QUANT	-0.1094558	Open Circuit (V)
PSTATMODEL	IQUANT	4	Pstat Model
PSTATSECTION	LABEL	REF600-11020	Pstat Section
PSTATSERIALNO	LABEL	11020	Pstat Serial Number
CTRLMODE	IQUANT	1	Control Mode
IESTAB	IQUANT	0	I/E Stability
CASPEED	IQUANT	1	Control Amp Speed
CONVENTION	IQUANT	1	Current Convention
ICHRANGE	IQUANT	2	Ich Range
ICHRANGEMODE	TOGGLE	F	Ich Auto Range
ICHOFFSETENABLE	TOGGLE	T	Ich Offset Enable
ICHOFFSET	QUANT	0	Ich Offset (V)
ICHFILTER	IQUANT	3	Ich Filter
VCHRANGE	IQUANT	2	Vch Range
VCHRANGEMODE	TOGGLE	F	Vch Auto Range
VCHOFFSETENABLE	TOGGLE	T	Vch Offset Enable
VCHOFFSET	QUANT	0	Vch Offset (V)
VCHFILTER	IQUANT	3	Vch Filter
ACHRANGE	IQUANT	2	Ach Range
ACHOFFSETENABLE	TOGGLE	F	Ach Offset Enable
ACHOFFSET	QUANT	0	Ach Offset (V)
ACHFILTER	IQUANT	3	Ach Filter
IERANGELOWERLIMIT	IQUANT	1	I/E Range Lower Limit
IERANGEMODE	TOGGLE	F	I/E AutoRange
IERANGE	IQUANT	8	I/E Range
POSFEEDENABLE	TOGGLE	F	Positive Feedback IR Comp
POSFEEDRESISTANCE	QUANT	0	Positive Feedback Resistance (ohm)
ACHSELECT	IQUANT	0	Ach Select
CABLEID	IQUANT	14	Cable ID
DCCALDATE	LABEL	2/27/2020	DC Calibration Date
ACCALDATE	LABEL	2/27/2020	AC Calibration Date
THERMOSELECT	IQUANT	1	Thermo Select
FRAMEWORKVERSION	QUANT	6.33	Framework Version
INSTRUMENTVERSION	LABEL	3.50	Instrument Version
ZCURVE	TABLE
	Pt	Time	Freq	Zreal	Zimag	Zsig	Zmod	Zphz	Idc	Vdc	IERange
	#	s	Hz	ohm	ohm	V	ohm	°	A	V	#
	0	1	1000078	2196.222	-2191.629	1	3102.681	-44.94003	1.389738E-006	-0.1076987	8
	1	2	794390.6	2639.916	-2236.079	1	3459.654	-40.26549	-6.908259E-007	-0.107438	8
	2	4	630984.4	3072.109	-2258.202	1	3812.785	-36.31833	9.283693E-007	-0.1078511	8
	3	5	501234.4	3518.38	-2213.359	1	4156.676	-32.17338	2.242787E-006	-0.1081856	8
	4	6	398109.4	3920.583	-2125.995	1	4459.913	-28.46943	-9.429268E-009	-0.1077497	8
	5	8	316265.6	4287.71	-1986.863	1	4725.684	-24.86233	1.830134E-007	-0.1077884	8
	6	9	251203.1	4608.69	-1837.466	1	4961.482	-21.73697	-2.337286E-006	-0.1072191	8
	7	11	199546.9	4866.805	-1666.957	1	5144.369	-18.90714	-2.252083E-006	-0.1072435	8
	8	12	158578.1	5091.958	-1508.042	1	5310.577	-16.49726	2.178769E-007	-0.1078219	8
	9	14	125953.1	5320.926	-1279.155	1	5472.521	-13.51744	9.349174E-009	-0.1081173	7
	10	15	100078.1	5445.234	-1144.167	1	5564.144	-11.8665	-7.574827E-008	-0.1078712	7
	11	16	79453.13	5582.226	-1073.221	1	5684.457	-10.88272	-7.032254E-008	-0.1079247	7
	12	18	63140.62	5691.973	-998.35	1	5778.863	-9.94827	6.690554E-008	-0.1079799	7
	13	19	50203.12	5789.767	-944.7092	1	5866.334	-9.267214	-2.133773E-008	-0.107984	7
	14	21	39890.62	5880.225	-911.84	1	5950.504	-8.814588	-7.201339E-008	-0.1078909	7
	15	22	31640.63	5965.44	-898.7999	1	6032.771	-8.568184	2.147591E-008	-0.108043	7
	16	23	25171.88	6048.228	-906.2856	1	6115.751	-8.521976	1.817547E-008	-0.1079348	7
	17	25	20015.62	6133.287	-934.2515	1	6204.034	-8.660989	2.516651E-008	-0.1079338	7
	18	26	15890.62	6219.499	-985.309	1	6297.063	-9.002128	-3.22972E-009	-0.1079891	7
	19	28	12609.37	6306.957	-1055.748	1	6394.709	-9.50287	-2.904653E-009	-0.1079875	7
	20	29	10078.13	6407.566	-1149.272	1	6509.818	-10.16854	6.490475E-008	-0.107981	7
	21	30	8015.625	6506.648	-1283.188	1	6631.972	-11.15625	-3.789002E-009	-0.1079812	7
	22	32	6328.125	6626.42	-1438.069	1	6780.67	-12.24449	-7.309638E-009	-0.1080473	7
	23	33	5015.625	6756.25	-1629.691	1	6950.022	-13.56139	-6.092161E-008	-0.1079423	7
	24	34	3984.375	6905.667	-1868.424	1	7153.967	-15.13968	1.200982E-007	-0.1081726	7
	25	36	3170.956	7058.12	-2144.561	1	7376.733	-16.90104	-3.919991E-008	-0.1079275	7
	26	37	2527.573	7235.977	-2477.477	1	7648.35	-18.90034	5.494275E-008	-0.1079681	7
	27	39	1976.103	7452.415	-2914.371	1	8002.002	-21.35868	1.785224E-008	-0.1079383	7
	28	40	1577.524	7684.73	-3387.454	1	8398.21	-23.78804	-2.229044E-008	-0.1079872	7
	29	41	1265.625	7927.101	-3938.615	1	8851.645	-26.42068	-5.869679E-008	-0.1079156	7
	30	43	998.264	8233.041	-4650.31	1	9455.599	-29.45928	-2.161609E-009	-0.1080173	6
	31	44	796.875	8550.955	-5473.349	1	10152.65	-32.62275	2.454353E-009	-0.1080699	6
	32	45	627.7902	8937.271	-6527.353	1	11067.12	-36.14259	1.204765E-008	-0.1082027	6
	33	47	505.5147	9340.475	-7692.961	1	12100.67	-39.4754	-1.049683E-009	-0.1078053	6
	34	48	397.9953	9848.37	-9240.98	1	13505.04	-43.17757	6.63903E-010	-0.1079128	6
	35	49	315.5048	10427.39	-11083.48	1	15217.55	-46.74699	1.270724E-010	-0.107915	6
	36	51	252.4038	11081.61	-13229.22	1	17257.3	-50.0484	3.968148E-011	-0.1079185	6
	37	52	198.6229	11919.82	-16041.43	1	19985.23	-53.38527	1.666579E-010	-0.1079151	6
	38	54	158.3615	12883.98	-19284.3	1	23192.27	-56.25282	-3.018948E-010	-0.1079216	6
	39	55	125.558	14081.11	-23321.01	1	27242.38	-58.87663	2.555676E-010	-0.107919	6
	40	56	100.4464	15518.31	-28010.34	1	32021.82	-61.01264	6.551683E-010	-0.1079196	6
	41	58	79.00281	17422.67	-34234.01	1	38412.46	-63.02715	5.037695E-010	-0.1079205	6
	42	59	63.3446	19490.44	-41274.21	1	45644.7	-64.72246	-2.332563E-010	-0.1079225	6
	43	61	49.86702	22647.9	-49848.38	1	54752.06	-65.56601	7.23166E-011	-0.1079241	6
	44	62	39.72458	26570.08	-60235.72	1	65835.49	-66.19764	3.872013E-010	-0.1079192	6
	45	63	31.6723	31470.25	-72445.7	1	78985.79	-66.51998	5.043844E-010	-0.1079134	6
	46	65	24.93351	38426.2	-87697.59	1	95746.8	-66.33855	-1.853211E-010	-0.1079201	6
	47	66	19.86229	47215.74	-104713.2	1	114865.9	-65.72913	3.73268E-010	-0.1079176	5
	48	67	15.83615	58424.46	-123887.6	1	136972.8	-64.75179	2.865042E-010	-0.1079144	5
	49	69	12.40079	73895.49	-147718.5	1	165170.5	-63.42371	2.642235E-010	-0.1079118	5
	50	70	9.93114	91682.31	-172079.7	1	194979.7	-61.95177	-5.06248E-010	-0.1079073	5
	51	72	7.944915	113756.8	-197654.2	1	228052.1	-60.07809	3.191206E-010	-0.1079065	5
	52	74	6.317385	140467.4	-225580.3	1	265739.6	-58.08974	-5.700528E-010	-0.1079034	5
	53	76	5.008013	172111.4	-255394.5	1	307975.2	-56.02381	-3.107399E-010	-0.1079236	5
	54	78	3.945707	208900	-286515.9	1	354585.1	-53.90405	3.837236E-010	-0.1079139	5
	55	81	3.158693	246262.1	-316550.9	1	401060.5	-52.11872	-1.782597E-010	-0.1079313	5
	56	84	2.504006	287188.6	-349722.5	1	452529.6	-50.60751	3.276444E-010	-0.1079092	5
	57	87	1.998082	328106.4	-383905.8	1	505012.4	-49.48103	4.744973E-010	-0.1079169	5
	58	90	1.584686	372859.9	-423757.2	1	564441.9	-48.65576	9.405162E-011	-0.1079626	5
	59	94	1.266892	412682	-469094.5	1	624784.9	-48.66056	3.420957E-010	-0.1079301	5
	60	98	0.999041	456716.2	-527201.8	1	697518.1	-49.09754	-1.291987E-010	-0.1079129	5
