EXPLAIN
TAG	EISPOT
TITLE	LABEL	Potentiostatic EIS	Test &Identifier
DATE	LABEL	1/10/2020	Date
TIME	LABEL	12:46:50	Time
NOTES	NOTES	5	&Notes...
	
	
	
	
	
PSTAT	PSTAT	REF600-11020	Potentiostat
VDC	POTEN	0.00000E+000	T	DC &Voltage (V)
FREQINIT	QUANT	1.00000E+006	Initial Fre&q. (Hz)
FREQFINAL	QUANT	1.00000E+000	Final Fre&q. (Hz)
PTSPERDEC	QUANT	1.00000E+001	Points/&decade
VAC	QUANT	2.50000E+001	AC &Voltage (mV rms)
AREA	QUANT	1.00000E-001	&Area (cm^2)
CONDIT	TWOPARAM	T	5.00000E+000	0.00000E+000	Conditionin&g	Time(s)	E(V)
DELAY	TWOPARAM	T	5.00000E+000	0.00000E+000	Init. De&lay	Time(s)	Stab.(mV/s)
SPEED	SELECTOR	0	&Optimize for:
ZGUESS	QUANT	5.00000E+002	E&stimated Z (ohms)
OCVCURVE	TABLE	19
	Pt	T	Vf	Vm	Ach	Over
	#	s	V vs. Ref.	V	V	bits
	0	0.258333	6.18510E-003	6.18510E-003	6.50713E-004	...........
	1	0.516667	6.18664E-003	6.26570E-003	6.45080E-004	...........
	2	0.775	6.19638E-003	6.35706E-003	6.50980E-004	...........
	3	1.03333	6.22530E-003	6.46627E-003	6.53213E-004	...........
	4	1.29167	6.28046E-003	6.56007E-003	6.46246E-004	...........
	5	1.55	6.35942E-003	6.67391E-003	6.52813E-004	...........
	6	1.80833	6.45371E-003	6.76453E-003	6.45046E-004	...........
	7	2.06667	6.55511E-003	6.87808E-003	6.49413E-004	...........
	8	2.325	6.65841E-003	6.96548E-003	6.47513E-004	...........
	9	2.58333	6.76113E-003	7.07041E-003	6.44246E-004	...........
	10	2.84167	6.86201E-003	7.15176E-003	6.48780E-004	...........
	11	3.1	6.96028E-003	7.25127E-003	6.50180E-004	...........
	12	3.35833	7.05571E-003	7.33619E-003	6.47013E-004	...........
	13	3.61667	7.14877E-003	7.42661E-003	6.46013E-004	...........
	14	3.875	7.24000E-003	7.51106E-003	6.44380E-004	...........
	15	4.13333	7.32959E-003	7.59665E-003	6.43346E-004	...........
	16	4.39167	7.41745E-003	7.67486E-003	6.44346E-004	...........
	17	4.65	7.50330E-003	7.75461E-003	6.43546E-004	...........
	18	4.90833	7.58677E-003	7.82916E-003	6.45013E-004	...........
EOC	QUANT	0.0075868	Open Circuit (V)
PSTATMODEL	IQUANT	4	Pstat Model
PSTATSECTION	LABEL	REF600-11020	Pstat Section
PSTATSERIALNO	LABEL	11020	Pstat Serial Number
CTRLMODE	IQUANT	1	Control Mode
IESTAB	IQUANT	0	I/E Stability
CASPEED	IQUANT	1	Control Amp Speed
CONVENTION	IQUANT	1	Current Convention
ICHRANGE	IQUANT	2	Ich Range
ICHRANGEMODE	TOGGLE	F	Ich Auto Range
ICHOFFSETENABLE	TOGGLE	T	Ich Offset Enable
ICHOFFSET	QUANT	0	Ich Offset (V)
ICHFILTER	IQUANT	3	Ich Filter
VCHRANGE	IQUANT	2	Vch Range
VCHRANGEMODE	TOGGLE	F	Vch Auto Range
VCHOFFSETENABLE	TOGGLE	T	Vch Offset Enable
VCHOFFSET	QUANT	0	Vch Offset (V)
VCHFILTER	IQUANT	3	Vch Filter
ACHRANGE	IQUANT	2	Ach Range
ACHOFFSETENABLE	TOGGLE	F	Ach Offset Enable
ACHOFFSET	QUANT	0	Ach Offset (V)
ACHFILTER	IQUANT	3	Ach Filter
IERANGELOWERLIMIT	IQUANT	1	I/E Range Lower Limit
IERANGEMODE	TOGGLE	F	I/E AutoRange
IERANGE	IQUANT	7	I/E Range
POSFEEDENABLE	TOGGLE	F	Positive Feedback IR Comp
POSFEEDRESISTANCE	QUANT	0	Positive Feedback Resistance (ohm)
ACHSELECT	IQUANT	0	Ach Select
CABLEID	IQUANT	14	Cable ID
DCCALDATE	LABEL	12/22/2019	DC Calibration Date
ACCALDATE	LABEL	12/22/2019	AC Calibration Date
THERMOSELECT	IQUANT	1	Thermo Select
FRAMEWORKVERSION	QUANT	6.33	Framework Version
INSTRUMENTVERSION	LABEL	3.50	Instrument Version
ZCURVE	TABLE
	Pt	Time	Freq	Zreal	Zimag	Zsig	Zmod	Zphz	Idc	Vdc	IERange
	#	s	Hz	ohm	ohm	V	ohm	°	A	V	#
	0	1	1000078	2312.723	-1770.484	1	2912.611	-37.43553	1.285389E-006	0.0097502	8
	1	1	794390.6	2638.575	-1721.906	1	3150.721	-33.12804	4.30426E-007	0.0091523	8
	2	2	630984.4	2988.353	-1639.945	1	3408.764	-28.75706	3.004741E-006	0.0086371	8
	3	2	501234.4	3265.148	-1518.229	1	3600.862	-24.93749	-3.442104E-006	0.0097689	8
	4	2	398109.4	3508.272	-1380.993	1	3770.293	-21.48654	4.726064E-007	0.0091567	8
	5	3	316265.6	3707.163	-1231.553	1	3906.377	-18.37695	-1.21951E-006	0.0093553	8
	6	3	251203.1	3884.293	-1110.13	1	4039.817	-15.94992	1.117281E-007	0.0091337	8
	7	3	199546.9	3993.692	-973.808	1	4110.703	-13.70339	1.386478E-006	0.0088664	8
	8	3	158578.1	4083.858	-860.6526	1	4173.563	-11.90065	6.421881E-007	0.0089234	8
	9	4	125953.1	4200.964	-762.902	1	4269.674	-10.29284	-5.970487E-007	0.0101164	7
	10	4	100078.1	4259.908	-689.574	1	4315.36	-9.195012	2.189131E-008	0.0091371	7
	11	4	79453.13	4324.587	-647.9016	1	4372.852	-8.520575	-2.100984E-008	0.0091599	7
	12	5	63140.62	4382.667	-621.7373	1	4426.548	-8.074261	-2.587614E-008	0.0091202	7
	13	5	50203.12	4438.109	-610.0988	1	4479.847	-7.827287	-1.555606E-009	0.00912	7
	14	5	39890.62	4490.875	-612.9473	1	4532.511	-7.772122	9.483383E-009	0.0090953	7
	15	6	31640.63	4547.251	-629.7866	1	4590.656	-7.885205	-3.133314E-008	0.0091104	7
	16	6	25171.88	4603.796	-662.3986	1	4651.206	-8.187581	-2.097079E-008	0.0091529	7
	17	6	20015.62	4665.525	-710.114	1	4719.257	-8.654256	-2.598396E-008	0.0091112	7
	18	7	15890.62	4729.94	-775.1246	1	4793.031	-9.306691	-3.593429E-009	0.009102	7
	19	7	12609.37	4801.494	-857.438	1	4877.453	-10.125	-1.992687E-008	0.0090963	7
	20	7	10078.13	4882.453	-957.622	1	4975.479	-11.09687	5.050771E-008	0.0089437	7
	21	8	8015.625	4965.427	-1081.046	1	5081.744	-12.28247	7.444849E-008	0.0089465	7
	22	8	6328.125	5066.46	-1233.392	1	5214.429	-13.68209	-3.934512E-008	0.0091578	7
	23	8	5015.625	5175.597	-1416.704	1	5365.99	-15.30846	2.165536E-008	0.0091152	7
	24	9	3984.375	5297.086	-1634.213	1	5543.445	-17.14561	8.411366E-009	0.0090885	7
	25	9	3170.956	5432.824	-1891.321	1	5752.623	-19.19447	-2.16443E-008	0.0091416	7
	26	9	2527.573	5584.318	-2195.779	1	6000.504	-21.46498	2.100683E-008	0.009114	7
	27	10	1976.103	5766.393	-2592.172	1	6322.234	-24.2054	-4.380472E-009	0.0090689	7
	28	10	1577.524	5955.674	-3032.177	1	6683.124	-26.98174	-1.19887E-008	0.009158	7
	29	10	1265.625	6164.808	-3545.011	1	7111.396	-29.90063	-2.570854E-008	0.0091021	7
	30	10	998.264	6419.776	-4213.396	1	7678.947	-33.27749	-1.150209E-008	0.009149	7
	31	11	796.875	6694.185	-4980.881	1	8343.937	-36.65149	7.405963E-009	0.0090874	7
	32	11	627.7902	7032.265	-5968.122	1	9223.406	-40.3205	7.661303E-008	0.0089362	7
	33	11	505.5147	7384.273	-7041.637	1	10203.54	-43.6394	-7.610349E-009	0.0091293	6
	34	12	397.9953	7826.427	-8487.53	1	11545.18	-47.32057	1.151909E-009	0.0090771	6
	35	12	315.5048	8332.396	-10202.61	1	13172.78	-50.76174	5.381951E-010	0.0090761	6
	36	12	252.4038	8896.279	-12205.86	1	15103.86	-53.91344	1.238131E-009	0.0090689	6
	37	13	198.6229	9609.35	-14829.01	1	17670.29	-57.05635	6.892371E-010	0.009073	6
	38	13	158.3615	10424.81	-17882.93	1	20699.66	-59.76005	4.635978E-010	0.0090677	6
	39	13	125.558	11420.52	-21710.13	1	24530.76	-62.25357	6.00991E-010	0.0090672	6
	40	14	100.4464	12635.64	-26180.62	1	29070.34	-64.23649	9.055853E-011	0.0090659	6
	41	14	79.00281	14252.17	-32164.02	1	35180.23	-66.10143	-1.592677E-011	0.0090631	6
	42	14	63.3446	15897.87	-38489.41	1	41643.45	-67.55715	5.875918E-010	0.0090674	6
	43	15	49.86702	18716.11	-47241.41	1	50813.81	-68.3875	7.341802E-010	0.0090664	6
	44	15	39.72458	22263.96	-57556.42	1	61712.44	-68.85255	5.650248E-010	0.0090702	6
	45	15	31.6723	26866.53	-69577.02	1	74584	-68.88639	7.2123E-010	0.0090633	6
	46	16	24.93351	33177.98	-84497.53	1	90777.81	-68.56253	-5.71467E-011	0.009065	6
	47	16	19.86229	41066.92	-101182.2	1	109198.6	-67.9092	-1.213927E-009	0.0090595	5
	48	16	15.83615	52390.43	-119736.4	1	130696.4	-66.3683	-1.867433E-009	0.0090617	5
	49	17	12.40079	66521.13	-143235	1	157928.2	-65.08892	1.406373E-009	0.009054	5
	50	17	9.93114	82902.59	-168397.6	1	187698.1	-63.78886	-6.085771E-010	0.0090551	5
	51	18	7.944915	103745.6	-194720.5	1	220633.7	-61.95164	-1.097145E-009	0.0090563	5
	52	18	6.317385	129332.5	-223977.4	1	258636.4	-59.99634	-8.894531E-010	0.0090741	5
	53	19	5.008013	160236	-255755.9	1	301805.7	-57.93206	-6.397795E-010	0.0090487	5
	54	20	3.945707	196812.2	-289429.3	1	350006.3	-55.78426	-2.758441E-011	0.0090491	5
	55	21	3.158693	235329	-322434.7	1	399179	-53.87615	-2.950055E-011	0.0090689	5
	56	23	2.504006	280531.9	-358748.1	1	455410.1	-51.97549	-3.692552E-010	0.0090566	5
	57	24	1.998082	325943.9	-395040.6	1	512148.9	-50.47431	-1.749402E-010	0.0090638	5
	58	26	1.584686	378267.7	-435535.7	1	576868.9	-49.02531	5.308584E-011	0.0090977	5
	59	28	1.266892	430027.1	-479784.4	1	644295.3	-48.13037	6.424593E-011	0.0090798	5
	60	30	0.999041	487112.4	-531304.8	1	720807.4	-47.48469	5.128954E-011	0.0090598	5
