EXPLAIN
TAG	EISPOT
TITLE	LABEL	Potentiostatic EIS	Test &Identifier
DATE	LABEL	1/7/2020	Date
TIME	LABEL	17:44:01	Time
NOTES	NOTES	5	&Notes...
	
	
	
	
	
PSTAT	PSTAT	REF600-11020	Potentiostat
VDC	POTEN	0.00000E+000	T	DC &Voltage (V)
FREQINIT	QUANT	1.00000E+006	Initial Fre&q. (Hz)
FREQFINAL	QUANT	1.00000E+000	Final Fre&q. (Hz)
PTSPERDEC	QUANT	1.00000E+001	Points/&decade
VAC	QUANT	2.50000E+001	AC &Voltage (mV rms)
AREA	QUANT	1.00000E-001	&Area (cm^2)
CONDIT	TWOPARAM	T	5.00000E+000	0.00000E+000	Conditionin&g	Time(s)	E(V)
DELAY	TWOPARAM	T	5.00000E+000	0.00000E+000	Init. De&lay	Time(s)	Stab.(mV/s)
SPEED	SELECTOR	0	&Optimize for:
ZGUESS	QUANT	1.00000E+003	E&stimated Z (ohms)
OCVCURVE	TABLE	19
	Pt	T	Vf	Vm	Ach	Over
	#	s	V vs. Ref.	V	V	bits
	0	0.258333	9.81205E-004	9.81205E-004	6.55879E-004	...........
	1	0.516667	9.75650E-004	6.90425E-004	6.56580E-004	...........
	2	0.775	9.41751E-004	4.25881E-004	6.59813E-004	...........
	3	1.03333	8.46990E-004	1.94642E-004	6.63979E-004	...........
	4	1.29167	6.81237E-004	9.12791E-007	6.60646E-004	...........
	5	1.55	4.69005E-004	-1.83796E-004	6.59179E-004	...........
	6	1.80833	2.45687E-004	-3.64231E-004	6.53080E-004	...........
	7	2.06667	3.37198E-005	-5.13937E-004	6.53246E-004	...........
	8	2.325	-1.59903E-004	-6.63432E-004	6.57046E-004	...........
	9	2.58333	-3.35840E-004	-8.06136E-004	6.59846E-004	...........
	10	2.84167	-4.97552E-004	-9.54497E-004	6.61313E-004	...........
	11	3.1	-6.50141E-004	-1.11539E-003	6.63113E-004	...........
	12	3.35833	-7.99356E-004	-1.26876E-003	6.65279E-004	...........
	13	3.61667	-9.49236E-004	-1.40632E-003	6.61746E-004	...........
	14	3.875	-1.09967E-003	-1.53690E-003	6.59479E-004	...........
	15	4.13333	-1.24715E-003	-1.66154E-003	6.63346E-004	...........
	16	4.39167	-1.38856E-003	-1.79927E-003	6.60779E-004	...........
	17	4.65	-1.52417E-003	-1.93270E-003	6.60779E-004	...........
	18	4.90833	-1.65675E-003	-2.06066E-003	6.57413E-004	...........
EOC	QUANT	-0.0016568	Open Circuit (V)
PSTATMODEL	IQUANT	4	Pstat Model
PSTATSECTION	LABEL	REF600-11020	Pstat Section
PSTATSERIALNO	LABEL	11020	Pstat Serial Number
CTRLMODE	IQUANT	1	Control Mode
IESTAB	IQUANT	0	I/E Stability
CASPEED	IQUANT	1	Control Amp Speed
CONVENTION	IQUANT	1	Current Convention
ICHRANGE	IQUANT	2	Ich Range
ICHRANGEMODE	TOGGLE	F	Ich Auto Range
ICHOFFSETENABLE	TOGGLE	T	Ich Offset Enable
ICHOFFSET	QUANT	0	Ich Offset (V)
ICHFILTER	IQUANT	3	Ich Filter
VCHRANGE	IQUANT	2	Vch Range
VCHRANGEMODE	TOGGLE	F	Vch Auto Range
VCHOFFSETENABLE	TOGGLE	T	Vch Offset Enable
VCHOFFSET	QUANT	0	Vch Offset (V)
VCHFILTER	IQUANT	3	Vch Filter
ACHRANGE	IQUANT	2	Ach Range
ACHOFFSETENABLE	TOGGLE	F	Ach Offset Enable
ACHOFFSET	QUANT	0	Ach Offset (V)
ACHFILTER	IQUANT	3	Ach Filter
IERANGELOWERLIMIT	IQUANT	1	I/E Range Lower Limit
IERANGEMODE	TOGGLE	F	I/E AutoRange
IERANGE	IQUANT	6	I/E Range
POSFEEDENABLE	TOGGLE	F	Positive Feedback IR Comp
POSFEEDRESISTANCE	QUANT	0	Positive Feedback Resistance (ohm)
ACHSELECT	IQUANT	0	Ach Select
CABLEID	IQUANT	14	Cable ID
DCCALDATE	LABEL	12/22/2019	DC Calibration Date
ACCALDATE	LABEL	12/22/2019	AC Calibration Date
THERMOSELECT	IQUANT	1	Thermo Select
FRAMEWORKVERSION	QUANT	6.33	Framework Version
INSTRUMENTVERSION	LABEL	3.50	Instrument Version
ZCURVE	TABLE
	Pt	Time	Freq	Zreal	Zimag	Zsig	Zmod	Zphz	Idc	Vdc	IERange
	#	s	Hz	ohm	ohm	V	ohm	°	A	V	#
	0	1	1000078	1364.803	-824.9669	1	1594.759	-31.15123	3.295324E-006	-0.0004781	8
	1	2	794390.6	1515.696	-821.3676	1	1723.943	-28.45361	-7.377601E-008	-1.099159E-006	8
	2	2	630984.4	1654.523	-790.2659	1	1833.567	-25.53099	-2.935999E-006	0.0006797	8
	3	2	501234.4	1790.679	-757.8879	1	1944.46	-22.94005	8.448575E-006	-0.0016374	8
	4	2	398109.4	1910.91	-706.2473	1	2037.244	-20.28365	8.571621E-006	-0.0019592	8
	5	3	316265.6	2032.371	-657.3888	1	2136.046	-17.92427	2.509712E-006	-0.0007446	8
	6	3	251203.1	2114.609	-596.7517	1	2197.199	-15.75929	8.734186E-006	-0.0018883	8
	7	3	199546.9	2204.331	-558.657	1	2274.021	-14.22139	7.003374E-006	-0.0015497	8
	8	4	158578.1	2274.704	-498.781	1	2328.747	-12.36768	-2.551473E-006	0.00042	8
	9	4	125953.1	2365.345	-415.9676	1	2401.642	-9.974	-1.457302E-006	0.0036017	7
	10	4	100078.1	2406.899	-383.3774	1	2437.241	-9.0502	1.272511E-007	-0.0004529	7
	11	5	79453.13	2450.528	-359.9832	1	2476.828	-8.356993	-8.761553E-008	-4.792314E-005	7
	12	5	63140.62	2489.511	-342.5562	1	2512.968	-7.834689	-3.43349E-008	-8.378986E-005	7
	13	5	50203.12	2526.214	-329.2189	1	2547.576	-7.425002	-3.42818E-008	-0.0002328	7
	14	6	39890.62	2559.594	-320.5763	1	2579.591	-7.138837	1.968012E-007	-0.0005139	7
	15	6	31640.63	2593.54	-317.7318	1	2612.93	-6.98444	3.140057E-008	-0.0003505	7
	16	6	25171.88	2624.147	-320.3026	1	2643.623	-6.959082	1.292576E-007	-0.0004641	7
	17	7	20015.62	2655.972	-330.8113	1	2676.495	-7.099841	6.944158E-008	-0.0004581	7
	18	7	15890.62	2685.395	-346.5068	1	2707.658	-7.352468	-2.73482E-008	-3.78998E-005	7
	19	7	12609.37	2716.84	-371.3407	1	2742.1	-7.783023	-2.583708E-008	-0.0001455	7
	20	8	10078.13	2748.037	-402.931	1	2777.42	-8.341556	-8.432785E-008	-0.0001165	7
	21	8	8015.625	2779.762	-445.5069	1	2815.236	-9.105247	-7.612046E-008	-0.0001278	7
	22	8	6328.125	2814.55	-503.5421	1	2859.239	-10.14329	-1.805789E-008	-0.0001759	7
	23	9	5015.625	2851.583	-575.1894	1	2909.015	-11.40404	-8.572332E-008	-0.0001179	7
	24	9	3984.375	2890.348	-664.7334	1	2965.802	-12.95189	3.144105E-008	-0.0002605	7
	25	9	3170.956	2931.956	-774.2656	1	3032.467	-14.79286	-2.684503E-008	-0.0001526	7
	26	9	2527.573	2977.464	-908.7537	1	3113.057	-16.97275	-3.467268E-008	-0.0002482	7
	27	10	1976.103	3032.093	-1090.079	1	3222.089	-19.7742	7.220751E-008	-0.0004737	7
	28	10	1577.524	3094.025	-1300.855	1	3356.369	-22.80388	3.16348E-008	-0.0002618	7
	29	10	1265.625	3155.187	-1546.285	1	3513.716	-26.10841	-4.650241E-008	-0.0002162	7
	30	11	998.264	3235.45	-1873.982	1	3738.977	-30.07954	1.986786E-007	-0.0005288	7
	31	11	796.875	3327.294	-2256.493	1	4020.279	-34.14421	8.496555E-008	-0.0002424	7
	32	11	627.7902	3446.311	-2754.38	1	4411.765	-38.63274	-6.871896E-008	-0.0001967	7
	33	12	505.5147	3576.509	-3307.228	1	4871.26	-42.75982	1.127647E-007	-0.0004812	7
	34	12	397.9953	3747.751	-4051.369	1	5518.988	-47.22939	5.717566E-009	-0.0002381	7
	35	12	315.5048	3953.815	-4938.268	1	6326.068	-51.31756	5.31753E-009	-0.0002394	7
	36	13	252.4038	4194.136	-5976.408	1	7301.248	-54.93951	7.034989E-009	-0.0002465	7
	37	13	198.6229	4514.43	-7341.587	1	8618.525	-58.41214	7.007066E-009	-0.0002429	7
	38	13	158.3615	4891.265	-8920.853	1	10173.79	-61.26423	6.359368E-009	-0.0002485	7
	39	14	125.558	5378.242	-10899.05	1	12153.8	-63.73552	7.600292E-010	-0.0002421	6
	40	14	100.4464	5969.744	-13205.29	1	14491.98	-65.6736	1.557048E-009	-0.0002413	6
	41	14	79.00281	6792.028	-16232.02	1	17595.74	-67.29391	4.403723E-010	-0.0002444	6
	42	15	63.3446	7712.823	-19704.49	1	21160.21	-68.62341	8.416745E-010	-0.0002445	6
	43	15	49.86702	9054.1	-24105.64	1	25749.93	-69.41378	6.005523E-010	-0.0002458	6
	44	15	39.72458	10790.45	-29168.6	1	31100.49	-69.69886	1.64385E-009	-0.0002404	6
	45	16	31.6723	13016.05	-35250.55	1	37576.84	-69.73364	1.808638E-009	-0.0002414	6
	46	16	24.93351	16042.34	-42791.73	1	45699.99	-69.44931	-1.496883E-010	-0.0002449	6
	47	16	19.86229	19777.28	-51280.12	1	54961.73	-68.9098	5.190522E-012	-0.0002459	6
	48	17	15.83615	24560.38	-61511.03	1	66233.07	-68.23396	2.193746E-009	-0.0002437	6
	49	17	12.40079	31137.83	-73313.28	1	79651.75	-66.98795	-9.026592E-010	-0.0002384	6
	50	17	9.93114	38565.44	-85934.23	1	94191.21	-65.83047	1.323552E-010	-0.0002418	6
	51	17	7.944915	48205.61	-100028.5	1	111038.2	-64.26971	1.125316E-009	-0.0002446	5
	52	18	6.317385	58415.05	-116455.3	1	130284.9	-63.36123	2.476298E-010	-0.0002274	5
	53	19	5.008013	71329.06	-135019	1	152702.2	-62.15299	3.354176E-010	-0.0002382	5
	54	20	3.945707	85895.01	-156561	1	178575.7	-61.24924	2.460133E-010	-0.0002449	5
	55	21	3.158693	101613.4	-179351.4	1	206136.4	-60.46584	6.954919E-010	-0.0002387	5
	56	23	2.504006	119623.5	-206786.7	1	238894.4	-59.95116	6.090776E-010	-0.0002365	5
	57	24	1.998082	138955.4	-237960.9	1	275561.2	-59.71755	3.226411E-010	-0.00028	5
	58	25	1.584686	160360.9	-275297.5	1	318597.4	-59.77918	5.143472E-010	-0.0002465	5
	59	27	1.266892	185415.3	-318400.8	1	368453.3	-59.78634	5.56137E-010	-0.0002203	5
	60	30	0.999041	215264.5	-372771	1	430461.4	-59.9948	5.706997E-010	-0.0002084	5
