EXPLAIN
TAG	EISPOT
TITLE	LABEL	Potentiostatic EIS	Test &Identifier
DATE	LABEL	2/11/2020	Date
TIME	LABEL	12:11:08	Time
NOTES	NOTES	6	&Notes...
	
	
	
	
	
	
PSTAT	PSTAT	REF600-11020	Potentiostat
VDC	POTEN	0.00000E+000	T	DC &Voltage (V)
FREQINIT	QUANT	1.00000E+006	Initial Fre&q. (Hz)
FREQFINAL	QUANT	1.00000E+000	Final Fre&q. (Hz)
PTSPERDEC	QUANT	1.00000E+001	Points/&decade
VAC	QUANT	2.50000E+001	AC &Voltage (mV rms)
AREA	QUANT	4.00000E-005	&Area (cm^2)
CONDIT	TWOPARAM	F	5.00000E+000	0.00000E+000	Conditionin&g	Time(s)	E(V)
DELAY	TWOPARAM	F	5.00000E+000	0.00000E+000	Init. De&lay	Time(s)	Stab.(mV/s)
SPEED	SELECTOR	0	&Optimize for:
ZGUESS	QUANT	1.00000E+003	E&stimated Z (ohms)
OCVCURVE	TABLE	39
	Pt	T	Vf	Vm	Ach	Over
	#	s	V vs. Ref.	V	V	bits
	0	0.258333	-1.08760E-001	-1.08760E-001	5.71038E-004	...........
	1	0.516667	-1.08755E-001	-1.08517E-001	5.64371E-004	...........
	2	0.775	-1.08727E-001	-1.08291E-001	5.66704E-004	...........
	3	1.03333	-1.08646E-001	-1.08057E-001	5.68338E-004	...........
	4	1.29167	-1.08504E-001	-1.07952E-001	5.64704E-004	...........
	5	1.55	-1.08325E-001	-1.07967E-001	5.67338E-004	...........
	6	1.80833	-1.08159E-001	-1.08022E-001	5.69838E-004	...........
	7	2.06667	-1.08048E-001	-1.07990E-001	5.68504E-004	...........
	8	2.325	-1.07997E-001	-1.07941E-001	5.69838E-004	...........
	9	2.58333	-1.07979E-001	-1.07892E-001	5.68438E-004	...........
	10	2.84167	-1.07964E-001	-1.07843E-001	5.69338E-004	...........
	11	3.1	-1.07936E-001	-1.07786E-001	5.68771E-004	...........
	12	3.35833	-1.07895E-001	-1.07765E-001	5.66871E-004	...........
	13	3.61667	-1.07850E-001	-1.07775E-001	5.73071E-004	...........
	14	3.875	-1.07812E-001	-1.07788E-001	5.66471E-004	...........
	15	4.13333	-1.07788E-001	-1.07784E-001	5.76104E-004	...........
	16	4.39167	-1.07779E-001	-1.07777E-001	5.68438E-004	...........
	17	4.65	-1.07779E-001	-1.07777E-001	5.69804E-004	...........
	18	4.90833	-1.07779E-001	-1.07779E-001	5.64604E-004	...........
	19	5.16667	-1.07779E-001	-1.07778E-001	5.64738E-004	...........
	20	5.425	-1.07779E-001	-1.07785E-001	5.67871E-004	...........
	21	5.68333	-1.07779E-001	-1.07786E-001	5.66038E-004	...........
	22	5.94167	-1.07781E-001	-1.07791E-001	5.69038E-004	...........
	23	6.2	-1.07784E-001	-1.07793E-001	5.70971E-004	...........
	24	6.45833	-1.07787E-001	-1.07799E-001	5.68038E-004	...........
	25	6.71667	-1.07790E-001	-1.07801E-001	5.66471E-004	...........
	26	6.975	-1.07794E-001	-1.07803E-001	5.71038E-004	...........
	27	7.23333	-1.07797E-001	-1.07804E-001	5.68438E-004	...........
	28	7.49167	-1.07800E-001	-1.07815E-001	5.67871E-004	...........
	29	7.75	-1.07804E-001	-1.07825E-001	5.67104E-004	...........
	30	8.00833	-1.07809E-001	-1.07835E-001	5.71471E-004	...........
	31	8.26667	-1.07815E-001	-1.07842E-001	5.69071E-004	...........
	32	8.525	-1.07824E-001	-1.07845E-001	5.71371E-004	...........
	33	8.78333	-1.07832E-001	-1.07856E-001	5.70438E-004	...........
	34	9.04167	-1.07840E-001	-1.07862E-001	5.67338E-004	...........
	35	9.3	-1.07847E-001	-1.07862E-001	5.67771E-004	...........
	36	9.5583	-1.07853E-001	-1.07875E-001	5.68771E-004	...........
	37	9.8167	-1.07860E-001	-1.07883E-001	5.70504E-004	...........
	38	10.075	-1.07866E-001	-1.07887E-001	5.68571E-004	...........
EOC	QUANT	-0.1078661	Open Circuit (V)
PSTATMODEL	IQUANT	4	Pstat Model
PSTATSECTION	LABEL	REF600-11020	Pstat Section
PSTATSERIALNO	LABEL	11020	Pstat Serial Number
CTRLMODE	IQUANT	1	Control Mode
IESTAB	IQUANT	0	I/E Stability
CASPEED	IQUANT	1	Control Amp Speed
CONVENTION	IQUANT	1	Current Convention
ICHRANGE	IQUANT	2	Ich Range
ICHRANGEMODE	TOGGLE	F	Ich Auto Range
ICHOFFSETENABLE	TOGGLE	T	Ich Offset Enable
ICHOFFSET	QUANT	0	Ich Offset (V)
ICHFILTER	IQUANT	3	Ich Filter
VCHRANGE	IQUANT	2	Vch Range
VCHRANGEMODE	TOGGLE	F	Vch Auto Range
VCHOFFSETENABLE	TOGGLE	T	Vch Offset Enable
VCHOFFSET	QUANT	0	Vch Offset (V)
VCHFILTER	IQUANT	3	Vch Filter
ACHRANGE	IQUANT	2	Ach Range
ACHOFFSETENABLE	TOGGLE	F	Ach Offset Enable
ACHOFFSET	QUANT	0	Ach Offset (V)
ACHFILTER	IQUANT	3	Ach Filter
IERANGELOWERLIMIT	IQUANT	1	I/E Range Lower Limit
IERANGEMODE	TOGGLE	F	I/E AutoRange
IERANGE	IQUANT	8	I/E Range
POSFEEDENABLE	TOGGLE	F	Positive Feedback IR Comp
POSFEEDRESISTANCE	QUANT	0	Positive Feedback Resistance (ohm)
ACHSELECT	IQUANT	0	Ach Select
CABLEID	IQUANT	14	Cable ID
DCCALDATE	LABEL	1/27/2020	DC Calibration Date
ACCALDATE	LABEL	1/27/2020	AC Calibration Date
THERMOSELECT	IQUANT	1	Thermo Select
FRAMEWORKVERSION	QUANT	6.33	Framework Version
INSTRUMENTVERSION	LABEL	3.50	Instrument Version
ZCURVE	TABLE
	Pt	Time	Freq	Zreal	Zimag	Zsig	Zmod	Zphz	Idc	Vdc	IERange
	#	s	Hz	ohm	ohm	V	ohm	°	A	V	#
	0	1	1000078	1837.925	-2261.723	1	2914.337	-50.90194	-4.308854E-006	-0.1049708	8
	1	1	794390.6	2232.455	-2499.013	1	3350.959	-48.22448	-6.288389E-007	-0.1054039	8
	2	1	630984.4	2694.136	-2691.057	1	3807.907	-44.96724	8.105453E-007	-0.1059686	8
	3	2	501234.4	3237.303	-2774.152	1	4263.338	-40.59437	-5.138544E-006	-0.1048637	8
	4	2	398109.4	3773.392	-2817.628	1	4709.301	-36.74905	-2.980804E-006	-0.1053679	8
	5	2	316265.6	4299.49	-2766.783	1	5112.798	-32.76186	7.376842E-007	-0.1061853	8
	6	3	251203.1	4735.669	-2663.027	1	5433.072	-29.35052	-4.565021E-006	-0.1050937	8
	7	3	199546.9	5217.331	-2559.489	1	5811.327	-26.13139	-4.37927E-006	-0.1051173	8
	8	3	158578.1	5582.372	-2458.337	1	6099.697	-23.7675	3.731869E-007	-0.1059649	8
	9	4	125953.1	5955.031	-2299.026	1	6383.41	-21.1098	-8.687596E-007	-0.1035556	7
	10	4	100078.1	6221.597	-2224.661	1	6607.374	-19.67556	1.37046E-007	-0.1063585	7
	11	5	79453.13	6471.948	-2173.418	1	6827.142	-18.56315	-5.78086E-008	-0.106054	7
	12	5	63140.62	6709.146	-2159.885	1	7048.245	-17.845	-4.378945E-009	-0.106131	7
	13	6	50203.12	6937.933	-2184.589	1	7273.744	-17.47797	-5.428786E-009	-0.1062328	7
	14	6	39890.62	7170.688	-2252.494	1	7516.149	-17.43882	-4.548196E-009	-0.1061407	7
	15	6	31640.63	7405.175	-2362.317	1	7772.847	-17.69315	-5.660384E-009	-0.1062376	7
	16	7	25171.88	7650.019	-2518.905	1	8054.046	-18.22505	-3.349899E-009	-0.1061398	7
	17	7	20015.62	7908.113	-2724.418	1	8364.252	-19.00931	-1.550158E-008	-0.1061276	7
	18	7	15890.62	8194.369	-2978.721	1	8718.972	-19.97663	3.916948E-008	-0.1062149	7
	19	8	12609.37	8506.003	-3300.285	1	9123.813	-21.206	7.937355E-008	-0.1063197	7
	20	8	10078.13	8869.074	-3605.911	1	9574.08	-22.12525	-5.066347E-009	-0.1061122	6
	21	8	8015.625	9244.114	-4064.069	1	10098.03	-23.73214	-5.979278E-009	-0.106018	6
	22	8	6328.125	9672.82	-4618.922	1	10719.04	-25.5252	-8.502087E-009	-0.106062	6
	23	9	5015.625	10147.73	-5257.805	1	11428.95	-27.38986	3.453979E-009	-0.1062817	6
	24	9	3984.375	10676.91	-6005.926	1	12250.21	-29.35842	3.699024E-009	-0.1061061	6
	25	9	3170.956	11279.85	-6865.049	1	13204.7	-31.32518	5.676948E-009	-0.1063917	6
	26	10	2527.573	11952.83	-7867.637	1	14309.79	-33.35386	-1.052316E-009	-0.1061946	6
	27	10	1976.103	12790.55	-9148.554	1	15725.59	-35.57458	7.004327E-009	-0.106163	6
	28	10	1577.524	13687.81	-10544.2	1	17278.2	-37.60834	-1.063042E-008	-0.1060974	6
	29	11	1265.625	14678.11	-12092.49	1	19017.76	-39.48323	-3.504667E-009	-0.1060412	6
	30	11	998.264	15914.38	-14050.59	1	21229.38	-41.44086	2.941707E-009	-0.1061429	6
	31	11	796.875	17290.84	-16219.68	1	23707.62	-43.16919	-1.497382E-009	-0.1061959	6
	32	12	627.7902	18981.72	-18895.55	1	26783.34	-44.86966	1.545719E-008	-0.1063727	6
	33	12	505.5147	20738.38	-21706.18	1	30020.64	-46.30621	-3.775015E-009	-0.1060481	6
	34	12	397.9953	23038.2	-25305.97	1	34222.08	-47.68571	1.218662E-009	-0.1061826	6
	35	13	315.5048	25634.45	-29364.82	1	38979.71	-48.88019	7.89004E-010	-0.1061806	6
	36	13	252.4038	28496.73	-33846.47	1	44245.3	-49.90461	5.305755E-010	-0.1061803	6
	37	13	198.6229	32108.63	-39429.29	1	50849.12	-50.84288	5.09674E-010	-0.1061842	6
	38	14	158.3615	36008.54	-45521.39	1	58041.46	-51.65514	1.888173E-010	-0.1061819	6
	39	14	125.558	40690.85	-52770.47	1	66636.84	-52.36449	5.958386E-010	-0.1061786	6
	40	14	100.4464	45893.92	-61025.94	1	76357.17	-53.05539	1.494147E-009	-0.1061853	6
	41	15	79.00281	51928.93	-71222.53	1	88143.42	-53.9039	1.352034E-009	-0.1061882	6
	42	15	63.3446	57272.02	-80182.27	1	98535.7	-54.46281	-2.754771E-010	-0.1061848	5
	43	15	49.86702	67121	-93543.75	1	115133.2	-54.3392	-7.381038E-010	-0.1061895	5
	44	16	39.72458	77324.97	-109722.6	1	134231.9	-54.82645	-5.107323E-012	-0.1061855	5
	45	16	31.6723	88050.2	-127665.5	1	155084.9	-55.40618	-4.248878E-010	-0.1061871	5
	46	16	24.93351	102970.8	-147690.3	1	180042.8	-55.11549	-8.775014E-011	-0.1061874	5
	47	17	19.86229	118172.9	-170722.6	1	207632	-55.30931	-9.005299E-010	-0.1061848	5
	48	17	15.83615	136865.1	-193346.6	1	236886	-54.70629	1.131657E-009	-0.1061852	5
	49	17	12.40079	156888.5	-229903.7	1	278333.8	-55.69	3.548322E-010	-0.1061847	5
	50	18	9.93114	177690	-260678.3	1	315478.8	-55.71991	1.066202E-010	-0.1061823	5
	51	18	7.944915	203338.6	-299990.8	1	362410.1	-55.86994	2.297971E-010	-0.1061898	5
	52	19	6.317385	230700.6	-348704	1	418111.5	-56.5116	3.378572E-010	-0.1061998	5
	53	19	5.008013	265346.9	-406624.3	1	485543.3	-56.87313	2.476114E-010	-0.1061875	5
	54	21	3.945707	305239.1	-476417.2	1	565812.9	-57.35243	1.957111E-010	-0.1061874	5
	55	22	3.158693	352559.4	-552272.5	1	655212.3	-57.44667	1.843618E-011	-0.1062109	5
	56	24	2.504006	410774.6	-643653.9	1	763561.5	-57.45432	1.55166E-010	-0.1062038	5
	57	25	1.998082	477220.5	-746860.1	1	886306.6	-57.42268	1.572694E-010	-0.1061862	5
	58	26	1.584686	563502	-867318.4	1	1034300	-56.98798	3.793044E-011	-0.1062903	4
	59	28	1.266892	662499.9	-1002409	1	1201553	-56.53899	1.955986E-011	-0.1062961	4
	60	31	0.999041	785845.7	-1161598	1	1402449	-55.92082	1.490353E-011	-0.1062832	4
