EXPLAIN
TAG	EISPOT
TITLE	LABEL	Potentiostatic EIS	Test &Identifier
DATE	LABEL	9/1/2020	Date
TIME	LABEL	21:08:33	Time
NOTES	NOTES	1	&Notes...
	
PSTAT	PSTAT	REF600-11020	Potentiostat
VDC	POTEN	0.00000E+000	T	DC &Voltage (V)
FREQINIT	QUANT	1.00000E+006	Initial Fre&q. (Hz)
FREQFINAL	QUANT	1.00000E+000	Final Fre&q. (Hz)
PTSPERDEC	QUANT	1.00000E+001	Points/&decade
VAC	QUANT	2.50000E+001	AC &Voltage (mV rms)
AREA	QUANT	4.00000E-005	&Area (cm^2)
CONDIT	TWOPARAM	F	5.00000E+000	0.00000E+000	Conditionin&g	Time(s)	E(V)
DELAY	TWOPARAM	F	3.00000E+000	0.00000E+000	Init. De&lay	Time(s)	Stab.(mV/s)
SPEED	SELECTOR	0	&Optimize for:
ZGUESS	QUANT	1.00000E+003	E&stimated Z (ohms)
OCVCURVE	TABLE	39
	Pt	T	Vf	Vm	Ach	Over
	#	s	V vs. Ref.	V	V	bits
	0	0.258333	1.36155E-001	1.36155E-001	6.11124E-004	...........
	1	0.516667	1.36154E-001	1.36128E-001	6.09391E-004	...........
	2	0.775	1.36151E-001	1.36105E-001	6.19858E-004	...........
	3	1.03333	1.36142E-001	1.36081E-001	6.19458E-004	...........
	4	1.29167	1.36127E-001	1.36056E-001	6.10858E-004	...........
	5	1.55	1.36107E-001	1.36034E-001	6.10024E-004	...........
	6	1.80833	1.36083E-001	1.36011E-001	6.26791E-004	...........
	7	2.06667	1.36059E-001	1.35987E-001	6.26024E-004	...........
	8	2.325	1.36036E-001	1.35970E-001	6.14624E-004	...........
	9	2.58333	1.36013E-001	1.35956E-001	6.10391E-004	...........
	10	2.84167	1.35992E-001	1.35937E-001	6.18058E-004	...........
	11	3.1	1.35973E-001	1.35928E-001	6.16958E-004	...........
	12	3.35833	1.35957E-001	1.35921E-001	6.01091E-004	...........
	13	3.61667	1.35943E-001	1.35913E-001	6.10458E-004	...........
	14	3.875	1.35931E-001	1.35901E-001	6.17391E-004	...........
	15	4.13333	1.35921E-001	1.35891E-001	6.19824E-004	...........
	16	4.39167	1.35912E-001	1.35882E-001	6.04291E-004	...........
	17	4.65	1.35902E-001	1.35870E-001	6.09091E-004	...........
	18	4.90833	1.35892E-001	1.35859E-001	6.22058E-004	...........
	19	5.16667	1.35882E-001	1.35854E-001	6.12891E-004	...........
	20	5.425	1.35872E-001	1.35846E-001	6.06825E-004	...........
	21	5.68333	1.35862E-001	1.35838E-001	6.14158E-004	...........
	22	5.94167	1.35854E-001	1.35828E-001	6.20991E-004	...........
	23	6.2	1.35846E-001	1.35824E-001	6.04358E-004	...........
	24	6.45833	1.35838E-001	1.35819E-001	6.03658E-004	...........
	25	6.71667	1.35831E-001	1.35815E-001	6.21358E-004	...........
	26	6.975	1.35825E-001	1.35811E-001	6.19724E-004	...........
	27	7.23333	1.35820E-001	1.35807E-001	6.10524E-004	...........
	28	7.49167	1.35816E-001	1.35802E-001	6.07091E-004	...........
	29	7.75	1.35811E-001	1.35799E-001	6.23224E-004	...........
	30	8.00833	1.35807E-001	1.35799E-001	6.21024E-004	...........
	31	8.26667	1.35804E-001	1.35797E-001	6.10158E-004	...........
	32	8.525	1.35801E-001	1.35798E-001	6.05958E-004	...........
	33	8.78333	1.35799E-001	1.35796E-001	6.15358E-004	...........
	34	9.04167	1.35798E-001	1.35792E-001	6.10891E-004	...........
	35	9.3	1.35797E-001	1.35793E-001	6.03058E-004	...........
	36	9.5583	1.35795E-001	1.35794E-001	6.05858E-004	...........
	37	9.8167	1.35794E-001	1.35792E-001	6.24524E-004	...........
	38	10.075	1.35794E-001	1.35792E-001	6.19358E-004	...........
EOC	QUANT	0.1357936	Open Circuit (V)
PSTATMODEL	IQUANT	4	Pstat Model
PSTATSECTION	LABEL	REF600-11020	Pstat Section
PSTATSERIALNO	LABEL	11020	Pstat Serial Number
CTRLMODE	IQUANT	1	Control Mode
IESTAB	IQUANT	0	I/E Stability
CASPEED	IQUANT	1	Control Amp Speed
CONVENTION	IQUANT	1	Current Convention
ICHRANGE	IQUANT	2	Ich Range
ICHRANGEMODE	TOGGLE	F	Ich Auto Range
ICHOFFSETENABLE	TOGGLE	T	Ich Offset Enable
ICHOFFSET	QUANT	0	Ich Offset (V)
ICHFILTER	IQUANT	3	Ich Filter
VCHRANGE	IQUANT	2	Vch Range
VCHRANGEMODE	TOGGLE	F	Vch Auto Range
VCHOFFSETENABLE	TOGGLE	T	Vch Offset Enable
VCHOFFSET	QUANT	0	Vch Offset (V)
VCHFILTER	IQUANT	3	Vch Filter
ACHRANGE	IQUANT	2	Ach Range
ACHOFFSETENABLE	TOGGLE	F	Ach Offset Enable
ACHOFFSET	QUANT	0	Ach Offset (V)
ACHFILTER	IQUANT	3	Ach Filter
IERANGELOWERLIMIT	IQUANT	1	I/E Range Lower Limit
IERANGEMODE	TOGGLE	F	I/E AutoRange
IERANGE	IQUANT	8	I/E Range
POSFEEDENABLE	TOGGLE	F	Positive Feedback IR Comp
POSFEEDRESISTANCE	QUANT	0	Positive Feedback Resistance (ohm)
ACHSELECT	IQUANT	0	Ach Select
CABLEID	IQUANT	14	Cable ID
DCCALDATE	LABEL	9/1/2020	DC Calibration Date
ACCALDATE	LABEL	9/1/2020	AC Calibration Date
THERMOSELECT	IQUANT	1	Thermo Select
FRAMEWORKVERSION	QUANT	6.33	Framework Version
INSTRUMENTVERSION	LABEL	3.50	Instrument Version
ZCURVE	TABLE
	Pt	Time	Freq	Zreal	Zimag	Zsig	Zmod	Zphz	Idc	Vdc	IERange
	#	s	Hz	ohm	ohm	V	ohm	°	A	V	#
	0	1	1000078	2079.098	-2316.249	1	3112.5	-48.08841	6.099632E-008	0.1378278	8
	1	2	794390.6	2534.084	-2493.118	1	3554.887	-44.53311	7.980848E-008	0.1375088	8
	2	2	630984.4	3033.05	-2602.043	1	3996.251	-40.62618	6.109557E-008	0.13737	8
	3	2	501234.4	3553.8	-2640.069	1	4427.127	-36.60815	2.491615E-008	0.1372854	8
	4	3	398109.4	4062.707	-2598.998	1	4822.902	-32.60789	8.495059E-008	0.1372124	8
	5	3	316265.6	4543.734	-2496.246	1	5184.281	-28.7836	6.931892E-008	0.1371729	8
	6	3	251203.1	4973.251	-2343.217	1	5497.626	-25.22812	6.84927E-008	0.1371638	8
	7	4	199546.9	5335.579	-2167.334	1	5758.97	-22.10719	6.999657E-008	0.137175	8
	8	4	158578.1	5634.051	-1984.319	1	5973.278	-19.40232	3.397633E-008	0.1371883	8
	9	4	125953.1	5935.88	-1759.028	1	6191.03	-16.50657	4.017423E-009	0.1371674	7
	10	5	100078.1	6136.187	-1613.542	1	6344.786	-14.7327	2.968879E-009	0.1371316	7
	11	5	79453.13	6305.188	-1510.574	1	6483.612	-13.47278	2.592418E-009	0.137129	7
	12	5	63140.62	6454.519	-1440.456	1	6613.299	-12.58055	2.691027E-009	0.1371222	7
	13	5	50203.12	6588.919	-1401.742	1	6736.374	-12.01019	3.024816E-009	0.1371268	7
	14	6	39890.62	6717.575	-1398.232	1	6861.55	-11.75797	3.757739E-009	0.1371295	7
	15	6	31640.63	6842.687	-1426.779	1	6989.854	-11.77807	2.297529E-009	0.1371213	7
	16	6	25171.88	6967.328	-1491.855	1	7125.257	-12.08576	3.322995E-009	0.1371259	7
	17	7	20015.62	7098.464	-1594.224	1	7275.283	-12.65787	3.546453E-009	0.1371286	7
	18	7	15890.62	7237.308	-1735.44	1	7442.471	-13.4844	2.683538E-009	0.1371223	7
	19	7	12609.37	7390.147	-1924.52	1	7636.626	-14.59659	3.893679E-009	0.137125	7
	20	8	10078.13	7550.394	-2153.737	1	7851.563	-15.92071	2.478022E-009	0.1371155	7
	21	8	8015.625	7734.991	-2446.253	1	8112.598	-17.54998	4.515651E-009	0.1371231	7
	22	8	6328.125	7949.702	-2813.639	1	8432.931	-19.49041	2.504442E-009	0.1371197	7
	23	9	5015.625	8192.529	-3255.071	1	8815.499	-21.669	3.253604E-009	0.1371215	7
	24	9	3984.375	8497.313	-3743.049	1	9285.189	-23.77339	3.71872E-011	0.1371127	6
	25	9	3170.956	8818.52	-4375.232	1	9844.23	-26.38791	2.303467E-010	0.1371144	6
	26	10	2527.573	9191.639	-5122.019	1	10522.42	-29.12864	-4.202888E-011	0.1371062	6
	27	10	1976.103	9675.39	-6086.942	1	11430.84	-32.17465	-3.144062E-010	0.1371065	6
	28	10	1577.524	10209.98	-7138.525	1	12458.02	-34.96015	1.575267E-010	0.1371128	6
	29	11	1265.625	10840.75	-8341.772	1	13678.71	-37.57767	2.397238E-010	0.1371122	6
	30	11	998.264	11659.47	-9856.35	1	15267.31	-40.20956	-2.827136E-010	0.1371048	6
	31	11	796.875	12599.59	-11536.83	1	17083.56	-42.47881	-2.281608E-010	0.137102	6
	32	12	627.7902	13810.29	-13603.69	1	19385.16	-44.5682	3.305628E-010	0.1371029	6
	33	12	505.5147	15123.88	-15760.21	1	21842.98	-46.18033	7.546286E-010	0.1371099	6
	34	12	397.9953	16871.16	-18492.75	1	25032.33	-47.62542	4.203117E-010	0.1371275	6
	35	12	315.5048	18908.73	-21530.14	1	28654.61	-48.70896	3.627681E-010	0.1371272	6
	36	13	252.4038	21233.95	-24840.56	1	32679.26	-49.47586	3.272138E-010	0.1371267	6
	37	13	198.6229	24190.99	-28864.3	1	37661.01	-50.03384	2.834574E-010	0.1371241	6
	38	13	158.3615	27485.99	-33160.8	1	43071.09	-50.34569	4.503845E-010	0.137123	6
	39	14	125.558	31424.2	-38099.13	1	49386.48	-50.48415	5.581816E-010	0.1371266	6
	40	14	100.4464	35824.3	-43408.53	1	56282.16	-50.46774	6.03737E-010	0.1371262	6
	41	14	79.00281	41303.87	-49809.14	1	64706.72	-50.33302	3.481638E-010	0.137124	6
	42	15	63.3446	47126.67	-56374.72	1	73478.1	-50.10593	5.028262E-010	0.1371229	6
	43	15	49.86702	54383.7	-64296.82	1	84212.05	-49.7747	4.74402E-010	0.1371195	6
	44	16	39.72458	62335.58	-72661.69	1	95736.3	-49.37411	4.797554E-010	0.1371255	6
	45	16	31.6723	71400	-81770.2	1	108555.6	-48.87323	-2.540992E-010	0.1371122	5
	46	16	24.93351	82288.02	-92460.72	1	123775.2	-48.33162	-2.832876E-012	0.1371143	5
	47	16	19.86229	94025.23	-103701.7	1	139981.4	-47.80175	-6.543521E-010	0.1371172	5
	48	17	15.83615	107195.5	-115778.1	1	157782.9	-47.20432	4.924093E-010	0.137116	5
	49	17	12.40079	123234.6	-130071.5	1	179179.7	-46.54606	1.852095E-009	0.1371109	5
	50	17	9.93114	138977.6	-144422	1	200430.7	-46.10056	1.847616E-009	0.1371179	5
	51	18	7.944915	157208.2	-160450.4	1	224630.3	-45.58476	-4.710957E-010	0.137118	5
	52	18	6.317385	177773.8	-178575.3	1	251977.4	-45.12887	3.450266E-010	0.1371037	5
	53	19	5.008013	201078.8	-198841.1	1	282790.5	-44.67941	7.5221E-010	0.1371157	5
	54	20	3.945707	227470.8	-220709.8	1	316947.6	-44.13573	-1.488293E-010	0.1371036	5
	55	21	3.158693	254619.3	-243723.2	1	352465.6	-43.74744	4.31441E-010	0.1371114	5
	56	22	2.504006	284522.8	-269061	1	391595.5	-43.40012	8.57228E-011	0.1371123	5
	57	23	1.998082	315755.7	-297326.7	1	433710.6	-43.27823	-2.221738E-010	0.1370676	5
	58	25	1.584686	348017	-330310.9	1	479813.7	-43.50478	-6.035369E-011	0.1371003	5
	59	26	1.266892	382250.4	-366840	1	529799	-43.82147	7.019989E-011	0.1371318	5
	60	29	0.999041	421282.8	-414237	1	590822.8	-44.51684	1.131934E-010	0.1371442	5
