EXPLAIN
TAG	EISPOT
TITLE	LABEL	Potentiostatic EIS	Test &Identifier
DATE	LABEL	1/10/2020	Date
TIME	LABEL	13:50:26	Time
NOTES	NOTES	5	&Notes...
	
	
	
	
	
PSTAT	PSTAT	REF600-11020	Potentiostat
VDC	POTEN	0.00000E+000	T	DC &Voltage (V)
FREQINIT	QUANT	1.00000E+006	Initial Fre&q. (Hz)
FREQFINAL	QUANT	1.00000E+000	Final Fre&q. (Hz)
PTSPERDEC	QUANT	1.00000E+001	Points/&decade
VAC	QUANT	2.50000E+001	AC &Voltage (mV rms)
AREA	QUANT	1.00000E-001	&Area (cm^2)
CONDIT	TWOPARAM	T	5.00000E+000	0.00000E+000	Conditionin&g	Time(s)	E(V)
DELAY	TWOPARAM	T	5.00000E+000	0.00000E+000	Init. De&lay	Time(s)	Stab.(mV/s)
SPEED	SELECTOR	0	&Optimize for:
ZGUESS	QUANT	5.00000E+002	E&stimated Z (ohms)
OCVCURVE	TABLE	19
	Pt	T	Vf	Vm	Ach	Over
	#	s	V vs. Ref.	V	V	bits
	0	0.258333	4.88371E-003	4.88371E-003	6.62479E-004	...........
	1	0.516667	4.88030E-003	4.70510E-003	6.64113E-004	...........
	2	0.775	4.86026E-003	4.58357E-003	6.62479E-004	...........
	3	1.03333	4.80690E-003	4.48264E-003	6.60613E-004	...........
	4	1.29167	4.71872E-003	4.39106E-003	6.63279E-004	...........
	5	1.55	4.61252E-003	4.32984E-003	6.66713E-004	...........
	6	1.80833	4.50524E-003	4.11865E-003	6.60179E-004	...........
	7	2.06667	4.39586E-003	3.89377E-003	6.60979E-004	...........
	8	2.325	4.27199E-003	3.95498E-003	6.63946E-004	...........
	9	2.58333	4.13954E-003	3.89700E-003	6.62646E-004	...........
	10	2.84167	4.02596E-003	3.84865E-003	6.62379E-004	...........
	11	3.1	3.94848E-003	3.89704E-003	6.62646E-004	...........
	12	3.35833	3.90889E-003	4.13067E-003	6.59013E-004	...........
	13	3.61667	3.91865E-003	4.38998E-003	6.58946E-004	...........
	14	3.875	3.98778E-003	4.04918E-003	6.62379E-004	...........
	15	4.13333	4.07903E-003	3.94741E-003	6.62179E-004	...........
	16	4.39167	4.12285E-003	3.95414E-003	6.60346E-004	...........
	17	4.65	4.09470E-003	3.92457E-003	6.60213E-004	...........
	18	4.90833	4.02984E-003	3.84306E-003	6.62479E-004	...........
EOC	QUANT	0.0040298	Open Circuit (V)
PSTATMODEL	IQUANT	4	Pstat Model
PSTATSECTION	LABEL	REF600-11020	Pstat Section
PSTATSERIALNO	LABEL	11020	Pstat Serial Number
CTRLMODE	IQUANT	1	Control Mode
IESTAB	IQUANT	0	I/E Stability
CASPEED	IQUANT	1	Control Amp Speed
CONVENTION	IQUANT	1	Current Convention
ICHRANGE	IQUANT	2	Ich Range
ICHRANGEMODE	TOGGLE	F	Ich Auto Range
ICHOFFSETENABLE	TOGGLE	T	Ich Offset Enable
ICHOFFSET	QUANT	0	Ich Offset (V)
ICHFILTER	IQUANT	3	Ich Filter
VCHRANGE	IQUANT	2	Vch Range
VCHRANGEMODE	TOGGLE	F	Vch Auto Range
VCHOFFSETENABLE	TOGGLE	T	Vch Offset Enable
VCHOFFSET	QUANT	0	Vch Offset (V)
VCHFILTER	IQUANT	3	Vch Filter
ACHRANGE	IQUANT	2	Ach Range
ACHOFFSETENABLE	TOGGLE	F	Ach Offset Enable
ACHOFFSET	QUANT	0	Ach Offset (V)
ACHFILTER	IQUANT	3	Ach Filter
IERANGELOWERLIMIT	IQUANT	1	I/E Range Lower Limit
IERANGEMODE	TOGGLE	F	I/E AutoRange
IERANGE	IQUANT	7	I/E Range
POSFEEDENABLE	TOGGLE	F	Positive Feedback IR Comp
POSFEEDRESISTANCE	QUANT	0	Positive Feedback Resistance (ohm)
ACHSELECT	IQUANT	0	Ach Select
CABLEID	IQUANT	14	Cable ID
DCCALDATE	LABEL	12/22/2019	DC Calibration Date
ACCALDATE	LABEL	12/22/2019	AC Calibration Date
THERMOSELECT	IQUANT	1	Thermo Select
FRAMEWORKVERSION	QUANT	6.33	Framework Version
INSTRUMENTVERSION	LABEL	3.50	Instrument Version
ZCURVE	TABLE
	Pt	Time	Freq	Zreal	Zimag	Zsig	Zmod	Zphz	Idc	Vdc	IERange
	#	s	Hz	ohm	ohm	V	ohm	°	A	V	#
	0	1	1000078	2013.231	-1667.515	1	2614.135	-39.6342	-5.284544E-007	0.0065249	8
	1	1	794390.6	2333.056	-1664.147	1	2865.752	-35.49992	-7.644581E-007	0.0060458	8
	2	1	630984.4	2635.258	-1626.162	1	3096.609	-31.67785	-6.893783E-007	0.0058831	8
	3	2	501234.4	2936.277	-1558.678	1	3324.334	-27.96091	6.584867E-007	0.0055342	8
	4	2	398109.4	3202.732	-1465.534	1	3522.114	-24.5883	1.279651E-006	0.0053059	8
	5	2	316265.6	3430.04	-1345.112	1	3684.359	-21.41294	-2.754141E-006	0.0062179	8
	6	3	251203.1	3628.938	-1238.653	1	3834.508	-18.84613	8.388399E-007	0.00544	8
	7	3	199546.9	3789.669	-1136.857	1	3956.518	-16.69864	-9.422398E-007	0.00588	8
	8	3	158578.1	3927.637	-1028.349	1	4060.029	-14.67205	3.199294E-006	0.0051051	8
	9	4	125953.1	4064.167	-938.4122	1	4171.099	-13.00168	6.962177E-007	0.004338	7
	10	4	100078.1	4157.326	-866.2316	1	4246.612	-11.7699	-2.334923E-008	0.0055841	7
	11	4	79453.13	4253.154	-824.6854	1	4332.369	-10.97347	-8.134677E-009	0.005651	7
	12	5	63140.62	4341.702	-794.3798	1	4413.776	-10.36844	3.264903E-008	0.0054735	7
	13	5	50203.12	4425.787	-775.743	1	4493.258	-9.9417	3.863266E-008	0.0055673	7
	14	5	39890.62	4507.607	-772.4151	1	4573.308	-9.72366	-1.30525E-008	0.0055648	7
	15	6	31640.63	4592.156	-780.4232	1	4657.999	-9.6451	3.936868E-008	0.0055631	7
	16	6	25171.88	4674.46	-802.8784	1	4742.909	-9.74594	-2.785467E-009	0.0055865	7
	17	6	20015.62	4765.279	-834.3174	1	4837.765	-9.93084	1.699222E-008	0.0055069	7
	18	6	15890.62	4852.217	-886.4851	1	4932.531	-10.35358	3.448055E-008	0.0054667	7
	19	7	12609.37	4949.308	-948.312	1	5039.34	-10.84669	3.488061E-008	0.0054653	7
	20	7	10078.13	5049.588	-1021.928	1	5151.959	-11.44091	5.915715E-009	0.0055125	7
	21	7	8015.625	5155.875	-1111.846	1	5274.396	-12.16928	-2.639493E-008	0.0055931	7
	22	8	6328.125	5270.449	-1230.786	1	5412.252	-13.14448	5.181728E-008	0.0054532	7
	23	8	5015.625	5388.732	-1370.493	1	5560.278	-14.26927	-1.362601E-008	0.0055544	7
	24	8	3984.375	5513.295	-1538.378	1	5723.9	-15.59073	4.193612E-009	0.0055111	7
	25	9	3170.956	5638.928	-1740.156	1	5901.327	-17.15006	1.686409E-008	0.0055022	7
	26	9	2527.573	5772.436	-1989.452	1	6105.648	-19.01635	-9.233492E-009	0.005587	7
	27	9	1976.103	5926.397	-2319.817	1	6364.255	-21.37726	5.228939E-009	0.0055083	7
	28	10	1577.524	6101.462	-2707.278	1	6675.118	-23.92732	-9.051281E-009	0.005586	7
	29	10	1265.625	6246.221	-3148.019	1	6994.663	-26.74754	1.748843E-008	0.005493	7
	30	10	998.264	6449.192	-3740.783	1	7455.571	-30.1154	4.53046E-009	0.0055049	7
	31	11	796.875	6666.576	-4438.287	1	8008.847	-33.65377	-2.029527E-009	0.0055721	7
	32	11	627.7902	6928.876	-5332.171	1	8743.076	-37.58036	5.429533E-009	0.0055028	7
	33	11	505.5147	7212.156	-6330.093	1	9596.11	-41.27335	-4.768106E-009	0.0056455	6
	34	12	397.9953	7568.395	-7671.206	1	10776.27	-45.38653	9.562411E-010	0.0055588	6
	35	12	315.5048	7977.067	-9270.717	1	12230.28	-49.28937	1.438629E-009	0.0055572	6
	36	12	252.4038	8443.417	-11149.71	1	13985.97	-52.8642	1.256297E-009	0.0055591	6
	37	13	198.6229	9045.952	-13622.8	1	16352.67	-56.41464	9.839967E-010	0.0055545	6
	38	13	158.3615	9728.46	-16500.17	1	19154.6	-59.47651	1.203421E-009	0.0055493	6
	39	13	125.558	10594.56	-20094.21	1	22716.12	-62.19982	9.83327E-010	0.0055477	6
	40	14	100.4464	11595.66	-24320.47	1	26943.35	-64.50885	3.497334E-011	0.0055481	6
	41	14	79.00281	13010.54	-29824.63	1	32538.94	-66.43149	-2.504526E-011	0.0055463	6
	42	14	63.3446	14735.06	-36449.59	1	39315.32	-67.98856	1.038586E-009	0.0055447	6
	43	15	49.86702	16871.68	-44619.6	1	47702.85	-69.28726	1.02367E-009	0.0055391	6
	44	15	39.72458	19752.65	-53852.88	1	57361.14	-69.85751	8.771727E-010	0.005544	6
	45	15	31.6723	23327.21	-65043.7	1	69100.23	-70.27018	1.073962E-009	0.0055393	6
	46	16	24.93351	28200.72	-79789.04	1	84626.07	-70.5345	3.498743E-010	0.005538	6
	47	16	19.86229	34362	-96332.3	1	102277.4	-70.36855	-3.161807E-010	0.0055364	6
	48	16	15.83615	41873.07	-116168.2	1	123484.4	-70.17819	6.817659E-010	0.0055354	5
	49	17	12.40079	53480.05	-140837.1	1	150649.3	-69.20673	6.058748E-010	0.0055357	5
	50	17	9.93114	67077.94	-166801.8	1	179784	-68.09289	1.000037E-010	0.0055348	5
	51	18	7.944915	84359.17	-197052.2	1	214350.3	-66.82395	-4.426372E-010	0.0055407	5
	52	18	6.317385	105692.7	-231990.7	1	254932.6	-65.50645	-4.693932E-010	0.0055521	5
	53	19	5.008013	133341.3	-272303.6	1	303198.2	-63.90999	-3.136695E-010	0.0055425	5
	54	20	3.945707	166220.4	-316706.8	1	357676.4	-62.30771	-3.91937E-011	0.0055388	5
	55	21	3.158693	203840.9	-362304.4	1	415710.9	-60.63689	1.673261E-010	0.005556	5
	56	23	2.504006	248803.4	-414662.3	1	483578.3	-59.03563	-3.709021E-011	0.0055454	5
	57	24	1.998082	295818	-470218.5	1	555530.1	-57.82569	-1.476896E-012	0.0055339	5
	58	26	1.584686	351804.1	-532599.9	1	638301.4	-56.5536	1.280186E-010	0.0055859	5
	59	28	1.266892	410583.3	-603189.4	1	729668.5	-55.75739	1.555523E-010	0.0055908	5
	60	30	0.999041	478461	-688151.9	1	838139.6	-55.18973	1.648663E-010	0.0055702	5
