EXPLAIN
TAG	EISPOT
TITLE	LABEL	Potentiostatic EIS	Test &Identifier
DATE	LABEL	1/10/2020	Date
TIME	LABEL	14:01:03	Time
NOTES	NOTES	5	&Notes...
	
	
	
	
	
PSTAT	PSTAT	REF600-11020	Potentiostat
VDC	POTEN	0.00000E+000	T	DC &Voltage (V)
FREQINIT	QUANT	1.00000E+006	Initial Fre&q. (Hz)
FREQFINAL	QUANT	1.00000E+000	Final Fre&q. (Hz)
PTSPERDEC	QUANT	1.00000E+001	Points/&decade
VAC	QUANT	2.50000E+001	AC &Voltage (mV rms)
AREA	QUANT	1.00000E-001	&Area (cm^2)
CONDIT	TWOPARAM	T	5.00000E+000	0.00000E+000	Conditionin&g	Time(s)	E(V)
DELAY	TWOPARAM	T	5.00000E+000	0.00000E+000	Init. De&lay	Time(s)	Stab.(mV/s)
SPEED	SELECTOR	0	&Optimize for:
ZGUESS	QUANT	5.00000E+002	E&stimated Z (ohms)
OCVCURVE	TABLE	19
	Pt	T	Vf	Vm	Ach	Over
	#	s	V vs. Ref.	V	V	bits
	0	0.258333	6.56669E-003	6.56669E-003	6.44413E-004	...........
	1	0.516667	6.56820E-003	6.64545E-003	6.43946E-004	...........
	2	0.775	6.57699E-003	6.69688E-003	6.41380E-004	...........
	3	1.03333	6.60183E-003	6.82130E-003	6.44846E-004	...........
	4	1.29167	6.64919E-003	6.91553E-003	6.42746E-004	...........
	5	1.55	6.72096E-003	7.07769E-003	6.47113E-004	...........
	6	1.80833	6.81461E-003	7.13607E-003	6.44646E-004	...........
	7	2.06667	6.92172E-003	7.23332E-003	6.50280E-004	...........
	8	2.325	7.03062E-003	7.35743E-003	6.48280E-004	...........
	9	2.58333	7.13644E-003	7.50023E-003	6.47380E-004	...........
	10	2.84167	7.24457E-003	7.63087E-003	6.35513E-004	...........
	11	3.1	7.36110E-003	7.73943E-003	6.38913E-004	...........
	12	3.35833	7.48458E-003	7.85825E-003	6.42746E-004	...........
	13	3.61667	7.60858E-003	7.95273E-003	6.45880E-004	...........
	14	3.875	7.72801E-003	8.07609E-003	6.43246E-004	...........
	15	4.13333	7.84144E-003	8.14359E-003	6.46580E-004	...........
	16	4.39167	7.94907E-003	8.26667E-003	6.39113E-004	...........
	17	4.65	8.05165E-003	8.34712E-003	6.38580E-004	...........
	18	4.90833	8.15135E-003	8.47494E-003	6.41513E-004	...........
EOC	QUANT	0.0081513	Open Circuit (V)
PSTATMODEL	IQUANT	4	Pstat Model
PSTATSECTION	LABEL	REF600-11020	Pstat Section
PSTATSERIALNO	LABEL	11020	Pstat Serial Number
CTRLMODE	IQUANT	1	Control Mode
IESTAB	IQUANT	0	I/E Stability
CASPEED	IQUANT	1	Control Amp Speed
CONVENTION	IQUANT	1	Current Convention
ICHRANGE	IQUANT	2	Ich Range
ICHRANGEMODE	TOGGLE	F	Ich Auto Range
ICHOFFSETENABLE	TOGGLE	T	Ich Offset Enable
ICHOFFSET	QUANT	0	Ich Offset (V)
ICHFILTER	IQUANT	3	Ich Filter
VCHRANGE	IQUANT	2	Vch Range
VCHRANGEMODE	TOGGLE	F	Vch Auto Range
VCHOFFSETENABLE	TOGGLE	T	Vch Offset Enable
VCHOFFSET	QUANT	0	Vch Offset (V)
VCHFILTER	IQUANT	3	Vch Filter
ACHRANGE	IQUANT	2	Ach Range
ACHOFFSETENABLE	TOGGLE	F	Ach Offset Enable
ACHOFFSET	QUANT	0	Ach Offset (V)
ACHFILTER	IQUANT	3	Ach Filter
IERANGELOWERLIMIT	IQUANT	1	I/E Range Lower Limit
IERANGEMODE	TOGGLE	F	I/E AutoRange
IERANGE	IQUANT	7	I/E Range
POSFEEDENABLE	TOGGLE	F	Positive Feedback IR Comp
POSFEEDRESISTANCE	QUANT	0	Positive Feedback Resistance (ohm)
ACHSELECT	IQUANT	0	Ach Select
CABLEID	IQUANT	14	Cable ID
DCCALDATE	LABEL	12/22/2019	DC Calibration Date
ACCALDATE	LABEL	12/22/2019	AC Calibration Date
THERMOSELECT	IQUANT	1	Thermo Select
FRAMEWORKVERSION	QUANT	6.33	Framework Version
INSTRUMENTVERSION	LABEL	3.50	Instrument Version
ZCURVE	TABLE
	Pt	Time	Freq	Zreal	Zimag	Zsig	Zmod	Zphz	Idc	Vdc	IERange
	#	s	Hz	ohm	ohm	V	ohm	°	A	V	#
	0	1	1000078	2209.9	-1517.323	1	2680.658	-34.4736	-9.453844E-007	0.0103112	8
	1	1	794390.6	2501.733	-1454.133	1	2893.643	-30.16731	-9.007384E-007	0.010599	8
	2	1	630984.4	2763.949	-1371.864	1	3085.68	-26.39713	-2.47522E-006	0.0106106	8
	3	2	501234.4	2991.592	-1268.751	1	3249.516	-22.98208	1.465218E-006	0.0097717	8
	4	2	398109.4	3183.844	-1151.432	1	3385.655	-19.88244	1.750399E-006	0.0095269	8
	5	2	316265.6	3341.679	-1036.931	1	3498.864	-17.23924	1.343435E-006	0.0095045	8
	6	3	251203.1	3475.569	-914.8582	1	3593.96	-14.74718	-3.044885E-006	0.0104883	8
	7	3	199546.9	3579.661	-819.4006	1	3672.246	-12.89314	1.099995E-006	0.009659	8
	8	3	158578.1	3669.624	-743.1738	1	3744.122	-11.44872	-1.009225E-006	0.0100582	8
	9	4	125953.1	3748.533	-654.231	1	3805.196	-9.90011	3.344011E-007	0.0091086	7
	10	4	100078.1	3817.392	-595.2277	1	3863.519	-8.862494	-2.865934E-008	0.0098303	7
	11	4	79453.13	3878.27	-560.4801	1	3918.56	-8.223342	1.605926E-008	0.0097905	7
	12	5	63140.62	3935.917	-535.5298	1	3972.183	-7.748212	-1.674364E-008	0.0098665	7
	13	5	50203.12	3990.154	-518.6398	1	4023.719	-7.405781	1.622491E-008	0.0097854	7
	14	5	39890.62	4043.61	-510.6052	1	4075.72	-7.19691	5.273769E-008	0.0096836	7
	15	5	31640.63	4097.272	-511.8731	1	4129.123	-7.121079	-3.386786E-008	0.0098354	7
	16	6	25171.88	4148.481	-520.6651	1	4181.027	-7.15364	-3.634942E-008	0.0098608	7
	17	6	20015.62	4198.908	-541.5775	1	4233.69	-7.349465	3.325379E-008	0.0096883	7
	18	6	15890.62	4252.375	-568.6884	1	4290.232	-7.617215	-1.060844E-008	0.0098225	7
	19	7	12609.37	4304.773	-611.0317	1	4347.922	-8.078758	5.617257E-008	0.0096885	7
	20	7	10078.13	4357.846	-661.8948	1	4407.825	-8.636407	1.724694E-008	0.0097736	7
	21	7	8015.625	4412.985	-732.5763	1	4473.377	-9.425415	1.669811E-009	0.0098061	7
	22	8	6328.125	4471.371	-825.9072	1	4547.008	-10.46515	-1.305562E-008	0.0097795	7
	23	8	5015.625	4532.238	-940.9975	1	4628.894	-11.72929	-3.317401E-008	0.0098297	7
	24	8	3984.375	4596.91	-1085.41	1	4723.314	-13.28521	3.575415E-008	0.0097864	7
	25	9	3170.956	4665.536	-1261.883	1	4833.175	-15.13462	-1.255399E-008	0.0098745	7
	26	9	2527.573	4740.102	-1478.521	1	4965.339	-17.32362	-1.121788E-008	0.0097824	7
	27	9	1976.103	4828.844	-1771.515	1	5143.54	-20.14613	1.638276E-008	0.0097793	7
	28	10	1577.524	4925.018	-2096.698	1	5352.751	-23.06062	1.872059E-008	0.0097247	7
	29	10	1265.625	5021.339	-2508.878	1	5613.227	-26.5487	-2.935784E-008	0.0098202	7
	30	10	998.264	5149.526	-3043.742	1	5981.805	-30.58616	-3.03578E-008	0.0098087	7
	31	11	796.875	5292.177	-3667.39	1	6438.703	-34.72131	1.644781E-008	0.0097758	7
	32	11	627.7902	5476.496	-4481.484	1	7076.419	-39.29389	5.307282E-009	0.0097378	7
	33	11	505.5147	5679.207	-5391.087	1	7830.531	-43.50914	-1.530274E-008	0.0097838	7
	34	12	397.9953	5954.856	-6617.221	1	8902.13	-48.01586	5.411948E-009	0.0097875	7
	35	12	315.5048	6287.127	-8082.293	1	10239.7	-52.12104	1.598718E-010	0.0097917	6
	36	12	252.4038	6686.069	-9798.46	1	11862.27	-55.69197	-2.569836E-011	0.0097926	6
	37	12	198.6229	7219.099	-12054.3	1	14050.68	-59.08338	2.63589E-010	0.0097967	6
	38	13	158.3615	7872.988	-14656.58	1	16637.29	-61.75691	3.725057E-010	0.0097901	6
	39	13	125.558	8707.814	-17913.79	1	19918.08	-64.07582	3.667508E-011	0.0097945	6
	40	13	100.4464	9758.47	-21693.77	1	23787.55	-65.78043	1.361478E-009	0.0097923	6
	41	14	79.00281	11232.78	-26683.44	1	28951.36	-67.17064	4.273585E-010	0.0097869	6
	42	14	63.3446	12624.92	-32077.4	1	34472.43	-68.51656	-2.634589E-010	0.0097856	6
	43	15	49.86702	15100	-39222.77	1	42028.99	-68.94427	-4.26521E-010	0.0097894	6
	44	15	39.72458	18299.89	-47541.26	1	50941.71	-68.94696	4.251567E-010	0.00979	6
	45	15	31.6723	22315.94	-57235.48	1	61432.08	-68.69934	7.048718E-011	0.0097857	6
	46	16	24.93351	27656.07	-69162.01	1	74486.52	-68.20483	8.890062E-010	0.009783	6
	47	16	19.86229	34277.15	-82473.89	1	89313.3	-67.43164	2.070375E-009	0.0097938	6
	48	16	15.83615	43373.7	-98517.7	1	107643	-66.23788	-2.10818E-009	0.0097854	5
	49	16	12.40079	54878.68	-116270.7	1	128571.1	-64.73312	-7.117248E-010	0.0097867	5
	50	17	9.93114	67556.68	-135221.1	1	151157.7	-63.45321	-1.420171E-010	0.0097875	5
	51	17	7.944915	82923.95	-155502.7	1	176231.3	-61.93062	8.648317E-010	0.00978	5
	52	18	6.317385	101746.2	-178598.3	1	205547.2	-60.33013	4.844353E-010	0.0097743	5
	53	19	5.008013	123438.8	-204299.1	1	238694.9	-58.85936	6.63694E-011	0.0097893	5
	54	20	3.945707	147703.2	-233451.2	1	276252.9	-57.6787	2.545968E-011	0.0097909	5
	55	21	3.158693	172749.6	-264257.1	1	315712.2	-56.82664	-3.220674E-010	0.0097751	5
	56	23	2.504006	201705	-300724.4	1	362105.1	-56.14904	-1.097654E-010	0.0097721	5
	57	24	1.998082	232022.2	-342225.2	1	413463.9	-55.86348	3.804387E-011	0.0098126	5
	58	26	1.584686	266621.5	-390597.8	1	472920.4	-55.68261	-1.19077E-010	0.009763	5
	59	28	1.266892	305731.2	-446780.2	1	541372.4	-55.6162	-1.931326E-010	0.0097389	5
	60	30	0.999041	352285.4	-517574.8	1	626090	-55.75899	-2.320186E-010	0.0097338	5
