EXPLAIN
TAG	EISPOT
TITLE	LABEL	Potentiostatic EIS	Test &Identifier
DATE	LABEL	6/19/2020	Date
TIME	LABEL	17:04:59	Time
NOTES	NOTES	1	&Notes...
	
PSTAT	PSTAT	REF600-10037	Potentiostat
VDC	POTEN	0.00000E+000	T	DC &Voltage (V)
FREQINIT	QUANT	1.00000E+006	Initial Fre&q. (Hz)
FREQFINAL	QUANT	1.00000E+000	Final Fre&q. (Hz)
PTSPERDEC	QUANT	1.00000E+001	Points/&decade
VAC	QUANT	1.00000E+002	AC &Voltage (mV rms)
AREA	QUANT	2.50000E-001	&Area (cm^2)
CONDIT	TWOPARAM	F	5.00000E+000	0.00000E+000	Conditionin&g	Time(s)	E(V)
DELAY	TWOPARAM	F	5.00000E+000	0.00000E+000	Init. De&lay	Time(s)	Stab.(mV/s)
SPEED	SELECTOR	0	&Optimize for:
ZGUESS	QUANT	1.00000E+003	E&stimated Z (ohms)
OCVCURVE	TABLE	39
	Pt	T	Vf	Vm	Ach	Over
	#	s	V vs. Ref.	V	V	bits
	0	0.258333	9.02197E-002	9.02197E-002	5.80720E-004	...........
	1	0.516667	9.02201E-002	9.02429E-002	5.78953E-004	...........
	2	0.775	9.02230E-002	9.02744E-002	5.76953E-004	...........
	3	1.03333	9.02317E-002	9.02977E-002	5.76687E-004	...........
	4	1.29167	9.02479E-002	9.03207E-002	5.76687E-004	...........
	5	1.55	9.02697E-002	9.03452E-002	5.69087E-004	...........
	6	1.80833	9.02941E-002	9.03726E-002	5.81453E-004	...........
	7	2.06667	9.03191E-002	9.03938E-002	5.80287E-004	...........
	8	2.325	9.03439E-002	9.04177E-002	5.77587E-004	...........
	9	2.58333	9.03685E-002	9.04430E-002	5.71653E-004	...........
	10	2.84167	9.03926E-002	9.04697E-002	5.78787E-004	...........
	11	3.1	9.04169E-002	9.04888E-002	5.88020E-004	...........
	12	3.35833	9.04411E-002	9.05119E-002	5.78553E-004	...........
	13	3.61667	9.04648E-002	9.05342E-002	5.77687E-004	...........
	14	3.875	9.04877E-002	9.05518E-002	5.79220E-004	...........
	15	4.13333	9.05097E-002	9.05737E-002	5.81520E-004	...........
	16	4.39167	9.05310E-002	9.05983E-002	5.76020E-004	...........
	17	4.65	9.05520E-002	9.06176E-002	5.78120E-004	...........
	18	4.90833	9.05732E-002	9.06343E-002	5.77187E-004	...........
	19	5.16667	9.05942E-002	9.06550E-002	5.78187E-004	...........
	20	5.425	9.06145E-002	9.06727E-002	5.80120E-004	...........
	21	5.68333	9.06339E-002	9.06903E-002	5.82153E-004	...........
	22	5.94167	9.06527E-002	9.07099E-002	5.85353E-004	...........
	23	6.2	9.06712E-002	9.07278E-002	5.81253E-004	...........
	24	6.45833	9.06896E-002	9.07439E-002	5.80020E-004	...........
	25	6.71667	9.07078E-002	9.07651E-002	5.84053E-004	...........
	26	6.975	9.07261E-002	9.07890E-002	5.81053E-004	...........
	27	7.23333	9.07449E-002	9.08004E-002	5.76087E-004	...........
	28	7.49167	9.07640E-002	9.08162E-002	5.76387E-004	...........
	29	7.75	9.07827E-002	9.08471E-002	5.85987E-004	...........
	30	8.00833	9.08011E-002	9.08591E-002	5.86020E-004	...........
	31	8.26667	9.08201E-002	9.08739E-002	5.69287E-004	...........
	32	8.525	9.08388E-002	9.08818E-002	5.71753E-004	...........
	33	8.78333	9.08562E-002	9.09178E-002	5.73887E-004	...........
	34	9.04167	9.08729E-002	9.09363E-002	5.73720E-004	...........
	35	9.3	9.08910E-002	9.09418E-002	5.71153E-004	...........
	36	9.5583	9.09100E-002	9.09557E-002	5.74287E-004	...........
	37	9.8167	9.09275E-002	9.09705E-002	5.77320E-004	...........
	38	10.075	9.09427E-002	9.09929E-002	5.72287E-004	...........
EOC	QUANT	0.0909427	Open Circuit (V)
PSTATMODEL	IQUANT	4	Pstat Model
PSTATSECTION	LABEL	REF600-10037	Pstat Section
PSTATSERIALNO	LABEL	10037	Pstat Serial Number
CTRLMODE	IQUANT	1	Control Mode
IESTAB	IQUANT	0	I/E Stability
CASPEED	IQUANT	1	Control Amp Speed
CONVENTION	IQUANT	1	Current Convention
ICHRANGE	IQUANT	2	Ich Range
ICHRANGEMODE	TOGGLE	F	Ich Auto Range
ICHOFFSETENABLE	TOGGLE	T	Ich Offset Enable
ICHOFFSET	QUANT	0	Ich Offset (V)
ICHFILTER	IQUANT	3	Ich Filter
VCHRANGE	IQUANT	2	Vch Range
VCHRANGEMODE	TOGGLE	F	Vch Auto Range
VCHOFFSETENABLE	TOGGLE	T	Vch Offset Enable
VCHOFFSET	QUANT	0	Vch Offset (V)
VCHFILTER	IQUANT	3	Vch Filter
ACHRANGE	IQUANT	2	Ach Range
ACHOFFSETENABLE	TOGGLE	F	Ach Offset Enable
ACHOFFSET	QUANT	0	Ach Offset (V)
ACHFILTER	IQUANT	3	Ach Filter
IERANGELOWERLIMIT	IQUANT	1	I/E Range Lower Limit
IERANGEMODE	TOGGLE	F	I/E AutoRange
IERANGE	IQUANT	8	I/E Range
POSFEEDENABLE	TOGGLE	F	Positive Feedback IR Comp
POSFEEDRESISTANCE	QUANT	0	Positive Feedback Resistance (ohm)
ACHSELECT	IQUANT	0	Ach Select
CABLEID	IQUANT	14	Cable ID
DCCALDATE	LABEL	6/8/2020	DC Calibration Date
ACCALDATE	LABEL	6/8/2020	AC Calibration Date
THERMOSELECT	IQUANT	1	Thermo Select
FRAMEWORKVERSION	QUANT	6.33	Framework Version
INSTRUMENTVERSION	LABEL	3.50	Instrument Version
ZCURVE	TABLE
	Pt	Time	Freq	Zreal	Zimag	Zsig	Zmod	Zphz	Idc	Vdc	IERange
	#	s	Hz	ohm	ohm	V	ohm	°	A	V	#
	0	2	1000078	1686.135	-2179.692	1	2755.741	-52.27569	1.264029E-007	0.0999061	8
	1	2	794390.6	1984.444	-2444.5	1	3148.587	-50.93032	1.014836E-007	0.0996584	8
	2	3	630984.4	2318.979	-2728.212	1	3580.615	-49.63548	1.054661E-007	0.0995069	8
	3	3	501234.4	2692.357	-3027.404	1	4051.415	-48.35239	9.219579E-008	0.0994381	8
	4	3	398109.4	3115.203	-3362.082	1	4583.458	-47.18275	7.348201E-008	0.0993646	8
	5	4	316265.6	3591.444	-3729.393	1	5177.532	-46.07952	7.248968E-008	0.0993538	8
	6	4	251203.1	4141.927	-4115.26	1	5838.743	-44.81496	8.469147E-008	0.0993699	8
	7	4	199546.9	4781.771	-4507.019	1	6571.039	-43.30575	1.123268E-007	0.099382	8
	8	5	158578.1	5497.708	-4907.121	1	7369.167	-41.75133	8.529246E-008	0.0994473	8
	9	5	125953.1	6467.599	-5189.352	1	8292.117	-38.74221	1.206407E-008	0.0994568	7
	10	5	100078.1	7353.202	-5513.2	1	9190.482	-36.86141	1.479256E-008	0.0994336	7
	11	6	79453.13	8304.426	-5811.217	1	10135.76	-34.98331	1.62943E-008	0.0994145	7
	12	6	63140.62	9341.271	-6069.977	1	11140.2	-33.0159	1.761325E-008	0.09938	7
	13	6	50203.12	10402.67	-6216.491	1	12118.59	-30.86195	6.237985E-011	0.0993682	7
	14	7	39890.62	11499.43	-6260.916	1	13093.36	-28.56627	8.531456E-010	0.0993536	7
	15	7	31640.63	12599.36	-6221.92	1	14051.91	-26.28146	6.836705E-009	0.0993555	7
	16	7	25171.88	13651.54	-6082.98	1	14945.48	-24.01723	1.651617E-009	0.0993555	7
	17	7	20015.62	14624.24	-5860.556	1	15754.83	-21.83807	1.632238E-008	0.0993642	7
	18	8	15890.62	15614.59	-5641.696	1	16602.53	-19.86526	1.00028E-008	0.0993424	7
	19	8	12609.37	16458.02	-5369.679	1	17311.84	-18.0697	1.389057E-009	0.0993535	7
	20	8	10078.13	17137.64	-5033.693	1	17861.6	-16.36865	1.371885E-008	0.0993584	7
	21	9	8015.625	17788.93	-4733.711	1	18407.99	-14.90133	4.664432E-009	0.0993549	7
	22	9	6328.125	18370.69	-4465.683	1	18905.67	-13.66288	5.026979E-009	0.0993502	7
	23	9	5015.625	18896.79	-4275.029	1	19374.33	-12.74747	2.109398E-009	0.0993507	7
	24	10	3984.375	19303.59	-4140.817	1	19742.71	-12.10706	1.562376E-008	0.0993619	7
	25	10	3170.956	19646.02	-4091.313	1	20067.51	-11.7638	1.508774E-008	0.0993616	7
	26	10	2527.573	19986.85	-4159.053	1	20414.99	-11.7549	3.690835E-009	0.0993561	7
	27	11	1976.103	20380.79	-4388.61	1	20847.94	-12.15199	1.449389E-008	0.0993403	7
	28	11	1577.524	20619.58	-4681.73	1	21144.4	-12.79227	3.381436E-009	0.0993541	7
	29	11	1265.625	20820.6	-5126.152	1	21442.36	-13.83146	1.00511E-008	0.0993544	7
	30	12	998.264	21111.08	-5797.596	1	21892.69	-15.35619	1.310742E-008	0.0993595	7
	31	12	796.875	21462.81	-6681.193	1	22478.67	-17.29093	2.5235E-009	0.0993378	7
	32	12	627.7902	21816.61	-7826.943	1	23178.13	-19.73599	1.212917E-010	0.099351	7
	33	13	505.5147	22171.66	-9102.753	1	23967.54	-22.32099	-1.247339E-009	0.0993449	7
	34	13	397.9953	22612.56	-10843.42	1	25078.04	-25.61915	6.903684E-009	0.0993787	7
	35	13	315.5048	23146.27	-12942.22	1	26518.88	-29.2117	6.425172E-009	0.0993772	7
	36	14	252.4038	23749.36	-15393.67	1	28301.9	-32.95019	4.79536E-009	0.099378	7
	37	14	198.6229	24547.38	-18582.85	1	30787.92	-37.12644	5.140738E-009	0.0993712	7
	38	14	158.3615	25536.09	-22238.17	1	33861.89	-41.05106	4.113581E-009	0.0993741	7
	39	15	125.558	26852.91	-26752.3	1	37904.68	-44.89247	2.747173E-009	0.0993738	7
	40	15	100.4464	28509.21	-31949.11	1	42819.63	-48.25645	-3.160613E-009	0.0993717	6
	41	15	79.00281	30917.43	-38679.38	1	49517.49	-51.36375	-2.356964E-009	0.0993692	6
	42	16	63.3446	33863.79	-46056.29	1	57165.89	-53.67408	-8.355557E-010	0.0993705	6
	43	16	49.86702	38114.49	-55534.93	1	67356.09	-55.53758	-2.063231E-010	0.0993697	6
	44	16	39.72458	43353.07	-65925.66	1	78902.99	-56.67086	-5.630107E-010	0.0993611	6
	45	17	31.6723	50279	-78460.69	1	93188.29	-57.34753	-1.444356E-009	0.0993635	6
	46	17	24.93351	59598.62	-93332.62	1	110738.3	-57.43927	-1.13555E-009	0.0993656	6
	47	17	19.86229	71612.23	-109742.5	1	131041	-56.87364	-9.726642E-009	0.0907942	6
	48	18	15.83615	85605.57	-127059.1	1	153206.8	-56.03004	-7.40838E-009	0.0907906	6
	49	18	12.40079	103919.4	-147057.2	1	180069.6	-54.75269	-6.106396E-009	0.0907952	6
	50	18	9.93114	123589.3	-166037.9	1	206985.3	-53.33806	-5.135448E-009	0.0907939	6
	51	19	7.944915	146012.2	-185636.4	1	236178.9	-51.81321	-4.532251E-009	0.0907934	6
	52	19	6.317385	171269.2	-206028.1	1	267919.2	-50.26357	-2.597762E-009	0.0907936	6
	53	20	5.008013	198753	-227734.3	1	302267.5	-48.88747	-1.99998E-009	0.0907921	6
	54	21	3.945707	228356.2	-251637.6	1	339805.9	-47.77688	-1.507941E-009	0.0907923	6
	55	22	3.158693	256958.8	-276417.2	1	377404.7	-47.08931	-1.084543E-009	0.0907952	6
	56	24	2.504006	288381.8	-305555.9	1	420152.9	-46.65629	-1.374364E-009	0.0907971	5
	57	25	1.998082	319062.3	-339148.2	1	465641.8	-46.74789	-1.081085E-009	0.0907996	5
	58	27	1.584686	352436	-380634.6	1	518742.6	-47.20287	-7.615925E-010	0.0907996	5
	59	30	1.266892	386394.5	-428638.6	1	577089.1	-47.96705	-5.651747E-010	0.0907962	5
	60	33	0.999041	424902.5	-490570.8	1	649000.6	-49.10289	-5.921049E-010	0.09079	5
