EXPLAIN
TAG	EISPOT
TITLE	LABEL	Potentiostatic EIS	Test &Identifier
DATE	LABEL	6/1/2020	Date
TIME	LABEL	12:30:42	Time
NOTES	NOTES	1	&Notes...
	
PSTAT	PSTAT	REF600-11020	Potentiostat
VDC	POTEN	0.00000E+000	T	DC &Voltage (V)
FREQINIT	QUANT	1.00000E+006	Initial Fre&q. (Hz)
FREQFINAL	QUANT	1.00000E+000	Final Fre&q. (Hz)
PTSPERDEC	QUANT	1.00000E+001	Points/&decade
VAC	QUANT	2.50000E+001	AC &Voltage (mV rms)
AREA	QUANT	4.00000E-004	&Area (cm^2)
CONDIT	TWOPARAM	F	5.00000E+000	0.00000E+000	Conditionin&g	Time(s)	E(V)
DELAY	TWOPARAM	T	3.00000E+000	0.00000E+000	Init. De&lay	Time(s)	Stab.(mV/s)
SPEED	SELECTOR	0	&Optimize for:
ZGUESS	QUANT	1.00000E+003	E&stimated Z (ohms)
OCVCURVE	TABLE	12
	Pt	T	Vf	Vm	Ach	Over
	#	s	V vs. Ref.	V	V	bits
	0	0.258333	-7.65980E-003	-7.65980E-003	5.59364E-004	...........
	1	0.516667	-7.65975E-003	-7.65724E-003	5.61530E-004	...........
	2	0.775	-7.65942E-003	-7.65324E-003	5.61597E-004	...........
	3	1.03333	-7.65835E-003	-7.64760E-003	5.67297E-004	...........
	4	1.29167	-7.65611E-003	-7.64280E-003	5.64297E-004	...........
	5	1.55	-7.65263E-003	-7.63908E-003	5.62464E-004	...........
	6	1.80833	-7.64838E-003	-7.63620E-003	5.60864E-004	...........
	7	2.06667	-7.64407E-003	-7.63598E-003	5.63197E-004	...........
	8	2.325	-7.64038E-003	-7.63302E-003	5.66564E-004	...........
	9	2.58333	-7.63758E-003	-7.63407E-003	5.59730E-004	...........
	10	2.84167	-7.63560E-003	-7.63100E-003	5.65264E-004	...........
	11	3.1	-7.63405E-003	-7.62535E-003	5.67397E-004	...........
EOC	QUANT	-0.0076341	Open Circuit (V)
PSTATMODEL	IQUANT	4	Pstat Model
PSTATSECTION	LABEL	REF600-11020	Pstat Section
PSTATSERIALNO	LABEL	11020	Pstat Serial Number
CTRLMODE	IQUANT	1	Control Mode
IESTAB	IQUANT	0	I/E Stability
CASPEED	IQUANT	1	Control Amp Speed
CONVENTION	IQUANT	1	Current Convention
ICHRANGE	IQUANT	2	Ich Range
ICHRANGEMODE	TOGGLE	F	Ich Auto Range
ICHOFFSETENABLE	TOGGLE	T	Ich Offset Enable
ICHOFFSET	QUANT	0	Ich Offset (V)
ICHFILTER	IQUANT	3	Ich Filter
VCHRANGE	IQUANT	2	Vch Range
VCHRANGEMODE	TOGGLE	F	Vch Auto Range
VCHOFFSETENABLE	TOGGLE	T	Vch Offset Enable
VCHOFFSET	QUANT	0	Vch Offset (V)
VCHFILTER	IQUANT	3	Vch Filter
ACHRANGE	IQUANT	2	Ach Range
ACHOFFSETENABLE	TOGGLE	F	Ach Offset Enable
ACHOFFSET	QUANT	0	Ach Offset (V)
ACHFILTER	IQUANT	3	Ach Filter
IERANGELOWERLIMIT	IQUANT	1	I/E Range Lower Limit
IERANGEMODE	TOGGLE	F	I/E AutoRange
IERANGE	IQUANT	7	I/E Range
POSFEEDENABLE	TOGGLE	F	Positive Feedback IR Comp
POSFEEDRESISTANCE	QUANT	0	Positive Feedback Resistance (ohm)
ACHSELECT	IQUANT	0	Ach Select
CABLEID	IQUANT	14	Cable ID
DCCALDATE	LABEL	2/27/2020	DC Calibration Date
ACCALDATE	LABEL	2/27/2020	AC Calibration Date
THERMOSELECT	IQUANT	1	Thermo Select
FRAMEWORKVERSION	QUANT	6.33	Framework Version
INSTRUMENTVERSION	LABEL	3.50	Instrument Version
ZCURVE	TABLE
	Pt	Time	Freq	Zreal	Zimag	Zsig	Zmod	Zphz	Idc	Vdc	IERange
	#	s	Hz	ohm	ohm	V	ohm	°	A	V	#
	0	2	1000078	1762.075	-3044.118	1	3517.323	-59.93577	4.483788E-008	-0.0054187	8
	1	2	794390.6	2095.954	-3554.342	1	4126.302	-59.47264	7.906395E-008	-0.0057232	8
	2	2	630984.4	2508.902	-4136.381	1	4837.792	-58.76129	6.562724E-008	-0.0058671	8
	3	3	501234.4	2990.326	-4788.599	1	5645.594	-58.01655	6.637475E-008	-0.0059597	8
	4	3	398109.4	3581.973	-5501.402	1	6564.751	-56.93177	3.712343E-008	-0.0059955	8
	5	3	316265.6	4258.53	-6310.495	1	7612.977	-55.98722	6.559596E-008	-0.0060534	8
	6	3	251203.1	5064.959	-7174.744	1	8782.412	-54.78009	4.045692E-008	-0.0060348	8
	7	4	199546.9	6000.586	-8160.299	1	10129.04	-53.6715	5.115734E-008	-0.0060582	8
	8	4	158578.1	7060.699	-9181.758	1	11582.67	-52.44	4.922145E-008	-0.0060399	8
	9	4	125953.1	8465.81	-10286.18	1	13321.99	-50.54467	6.517748E-009	-0.0060966	7
	10	5	100078.1	9820.5	-11485.68	1	15111.69	-49.46885	4.561518E-009	-0.0061259	7
	11	5	79453.13	11388.42	-12888.64	1	17199.22	-48.53614	5.763402E-009	-0.0061323	7
	12	5	63140.62	13179.89	-14374.9	1	19502.49	-47.48326	5.569778E-009	-0.0061374	7
	13	6	50203.12	15213.82	-15948.13	1	22040.95	-46.34989	4.829053E-009	-0.0061355	7
	14	6	39890.62	17567.41	-17641.21	1	24896.31	-45.12011	5.456484E-009	-0.0061364	7
	15	6	31640.63	20284.12	-19384.34	1	28057.05	-43.70061	5.337872E-009	-0.0061389	7
	16	7	25171.88	23327.86	-21058.54	1	31426.91	-42.07322	4.927815E-009	-0.006149	7
	17	7	20015.62	26704.49	-22731.19	1	35069.04	-40.40484	5.184883E-009	-0.0061432	7
	18	7	15890.62	30456.37	-24173.77	1	38883.95	-38.43967	5.003137E-009	-0.0061482	7
	19	8	12609.37	34907.71	-25150.79	1	43024.53	-35.77251	9.473898E-010	-0.0060917	6
	20	8	10078.13	38875.75	-26229.19	1	46896.63	-34.00725	7.378343E-010	-0.006101	6
	21	8	8015.625	43018.03	-27166.48	1	50877.98	-32.27297	7.934666E-010	-0.0060982	6
	22	9	6328.125	47321.11	-27983.31	1	54975.93	-30.59792	9.761455E-010	-0.0060882	6
	23	9	5015.625	51519.57	-28701.91	1	58975.13	-29.12249	9.233266E-010	-0.0060941	6
	24	9	3984.375	55587.99	-29388.7	1	62878.62	-27.86486	9.793083E-010	-0.0060965	6
	25	10	3170.956	59527.96	-30183.47	1	66742.95	-26.88715	9.516639E-010	-0.0060968	6
	26	10	2527.573	63379.38	-31185.58	1	70636.3	-26.19932	1.056148E-009	-0.0060944	6
	27	10	1976.103	67461.98	-32556.65	1	74906.98	-25.76161	9.461637E-010	-0.0061061	6
	28	11	1577.524	71219.77	-34278.8	1	79039.81	-25.70199	9.822012E-010	-0.0060998	6
	29	11	1265.625	74930.06	-36392.15	1	83300.08	-25.90499	9.978131E-010	-0.0061007	6
	30	11	998.264	79099.53	-39342.88	1	88343.63	-26.44504	7.74015E-010	-0.0061084	6
	31	11	796.875	83911.5	-41839.65	1	93764.05	-26.5016	1.059044E-010	-0.0060998	5
	32	12	627.7902	88685.88	-46533.82	1	100152.8	-27.68617	1.800337E-010	-0.0060943	5
	33	12	505.5147	93631.35	-51598.02	1	106907.4	-28.85812	1.268871E-010	-0.0061059	5
	34	12	397.9953	99708.2	-58031.16	1	115366.1	-30.19983	2.993685E-010	-0.0060826	5
	35	13	315.5048	106429.8	-65193.27	1	124809.7	-31.48944	3.171254E-010	-0.0060828	5
	36	13	252.4038	113635.3	-72917.58	1	135018.4	-32.6875	3.031829E-010	-0.0060865	5
	37	13	198.6229	122118.4	-82264.58	1	147242.5	-33.96602	2.977927E-010	-0.0060812	5
	38	14	158.3615	130720.6	-92326.97	1	160037.9	-35.23328	2.907498E-010	-0.0060856	5
	39	14	125.558	140011	-104311	1	174596.3	-36.68686	3.102848E-010	-0.0060838	5
	40	14	100.4464	149479.6	-118092.6	1	190499.4	-38.30962	3.221354E-010	-0.006089	5
	41	15	79.00281	160492.7	-136230	1	210514.9	-40.32539	2.606821E-010	-0.0060886	5
	42	15	63.3446	171887.8	-156614.3	1	232537	-42.338	2.280867E-010	-0.0060938	5
	43	15	49.86702	186413.4	-183626.1	1	261664.8	-44.56843	2.890421E-010	-0.006093	5
	44	16	39.72458	203238.3	-214561.5	1	295537.6	-46.55246	2.910146E-010	-0.0060914	5
	45	16	31.6723	223934.6	-250938.3	1	336328.3	-48.25462	3.020894E-010	-0.0060952	5
	46	16	24.93351	251181	-295641.2	1	387937.7	-49.64829	2.806824E-010	-0.006098	5
	47	17	19.86229	282899.1	-344959.7	1	446126.7	-50.64505	5.217073E-010	-0.0060921	5
	48	17	15.83615	321875.6	-399897.5	1	513343.8	-51.16958	2.301646E-011	-0.006094	5
	49	17	12.40079	372237.8	-466964.3	1	597173.9	-51.44011	1.87015E-012	-0.0060922	5
	50	18	9.93114	426558.1	-534968.2	1	684209.6	-51.43282	-5.785373E-011	-0.0060954	5
	51	18	7.944915	490716.3	-612421.1	1	784768.8	-51.29576	5.621839E-011	-0.0060909	5
	52	18	6.317385	569548.9	-699030.1	1	901681.3	-50.82788	2.02239E-010	-0.006101	5
	53	19	5.008013	666231.7	-796623.5	1	1038496	-50.09361	1.151545E-010	-0.006106	4
	54	20	3.945707	781850.9	-905155.6	1	1196076	-49.18036	2.061341E-011	-0.006101	4
	55	21	3.158693	909001	-1009839	1	1358697	-48.00822	1.078903E-010	-0.0061174	4
	56	22	2.504006	1062706	-1125850	1	1548187	-46.65262	1.598786E-010	-0.0061175	4
	57	23	1.998082	1231279	-1236094	1	1744699	-45.11181	1.005881E-010	-0.0061427	4
	58	25	1.584686	1428881	-1353837	1	1968394	-43.45522	5.387556E-011	-0.0061518	4
	59	27	1.266892	1637592	-1462630	1	2195676	-41.76993	4.75156E-011	-0.00612	4
	60	29	0.999041	1881154	-1566781	1	2448171	-39.79034	4.270248E-011	-0.0060914	4
