EXPLAIN
TAG	EISPOT
TITLE	LABEL	Potentiostatic EIS	Test &Identifier
DATE	LABEL	5/26/2020	Date
TIME	LABEL	17:52:56	Time
NOTES	NOTES	1	&Notes...
	
PSTAT	PSTAT	REF600-11020	Potentiostat
VDC	POTEN	0.00000E+000	T	DC &Voltage (V)
FREQINIT	QUANT	1.00000E+006	Initial Fre&q. (Hz)
FREQFINAL	QUANT	1.00000E+000	Final Fre&q. (Hz)
PTSPERDEC	QUANT	1.00000E+001	Points/&decade
VAC	QUANT	2.50000E+001	AC &Voltage (mV rms)
AREA	QUANT	5.00000E-004	&Area (cm^2)
CONDIT	TWOPARAM	F	5.00000E+000	0.00000E+000	Conditionin&g	Time(s)	E(V)
DELAY	TWOPARAM	T	3.00000E+000	0.00000E+000	Init. De&lay	Time(s)	Stab.(mV/s)
SPEED	SELECTOR	0	&Optimize for:
ZGUESS	QUANT	1.00000E+003	E&stimated Z (ohms)
OCVCURVE	TABLE	12
	Pt	T	Vf	Vm	Ach	Over
	#	s	V vs. Ref.	V	V	bits
	0	0.258333	1.16104E-001	1.16104E-001	5.82430E-004	...........
	1	0.516667	1.16104E-001	1.16080E-001	5.84696E-004	...........
	2	0.775	1.16101E-001	1.16058E-001	5.82863E-004	...........
	3	1.03333	1.16093E-001	1.16037E-001	5.82530E-004	...........
	4	1.29167	1.16079E-001	1.16015E-001	5.83863E-004	...........
	5	1.55	1.16060E-001	1.16003E-001	5.79663E-004	...........
	6	1.80833	1.16040E-001	1.15990E-001	5.81297E-004	...........
	7	2.06667	1.16022E-001	1.15978E-001	5.78297E-004	...........
	8	2.325	1.16006E-001	1.15966E-001	5.82897E-004	...........
	9	2.58333	1.15992E-001	1.15956E-001	5.86696E-004	...........
	10	2.84167	1.15979E-001	1.15942E-001	5.87096E-004	...........
	11	3.1	1.15967E-001	1.15931E-001	5.84597E-004	...........
EOC	QUANT	0.1159675	Open Circuit (V)
PSTATMODEL	IQUANT	4	Pstat Model
PSTATSECTION	LABEL	REF600-11020	Pstat Section
PSTATSERIALNO	LABEL	11020	Pstat Serial Number
CTRLMODE	IQUANT	1	Control Mode
IESTAB	IQUANT	0	I/E Stability
CASPEED	IQUANT	1	Control Amp Speed
CONVENTION	IQUANT	1	Current Convention
ICHRANGE	IQUANT	2	Ich Range
ICHRANGEMODE	TOGGLE	F	Ich Auto Range
ICHOFFSETENABLE	TOGGLE	T	Ich Offset Enable
ICHOFFSET	QUANT	0	Ich Offset (V)
ICHFILTER	IQUANT	3	Ich Filter
VCHRANGE	IQUANT	2	Vch Range
VCHRANGEMODE	TOGGLE	F	Vch Auto Range
VCHOFFSETENABLE	TOGGLE	T	Vch Offset Enable
VCHOFFSET	QUANT	0	Vch Offset (V)
VCHFILTER	IQUANT	3	Vch Filter
ACHRANGE	IQUANT	2	Ach Range
ACHOFFSETENABLE	TOGGLE	F	Ach Offset Enable
ACHOFFSET	QUANT	0	Ach Offset (V)
ACHFILTER	IQUANT	3	Ach Filter
IERANGELOWERLIMIT	IQUANT	1	I/E Range Lower Limit
IERANGEMODE	TOGGLE	F	I/E AutoRange
IERANGE	IQUANT	8	I/E Range
POSFEEDENABLE	TOGGLE	F	Positive Feedback IR Comp
POSFEEDRESISTANCE	QUANT	0	Positive Feedback Resistance (ohm)
ACHSELECT	IQUANT	0	Ach Select
CABLEID	IQUANT	14	Cable ID
DCCALDATE	LABEL	2/27/2020	DC Calibration Date
ACCALDATE	LABEL	2/27/2020	AC Calibration Date
THERMOSELECT	IQUANT	1	Thermo Select
FRAMEWORKVERSION	QUANT	6.33	Framework Version
INSTRUMENTVERSION	LABEL	3.50	Instrument Version
ZCURVE	TABLE
	Pt	Time	Freq	Zreal	Zimag	Zsig	Zmod	Zphz	Idc	Vdc	IERange
	#	s	Hz	ohm	ohm	V	ohm	°	A	V	#
	0	1	1000078	1802.753	-1757.552	1	2517.719	-44.27262	3.041981E-008	0.1184091	8
	1	1	794390.6	2047.839	-1911.952	1	2801.644	-43.03457	4.145884E-008	0.1180709	8
	2	2	630984.4	2309.12	-2080.174	1	3107.919	-42.01414	4.665208E-008	0.1178921	8
	3	2	501234.4	2593.864	-2265.104	1	3443.665	-41.12924	8.373237E-009	0.1178114	8
	4	2	398109.4	2908.195	-2475.059	1	3818.837	-40.3999	3.543457E-008	0.1177361	8
	5	3	316265.6	3256.287	-2695.702	1	4227.318	-39.61949	5.335935E-008	0.1177136	8
	6	3	251203.1	3659.66	-2940.189	1	4694.446	-38.77857	4.875626E-008	0.1176927	8
	7	3	199546.9	4099.418	-3182.545	1	5189.78	-37.82364	5.128943E-008	0.1177023	8
	8	4	158578.1	4592.568	-3419.37	1	5725.711	-36.66932	4.429655E-008	0.117682	8
	9	4	125953.1	5203.953	-3579.672	1	6316.263	-34.52313	7.27574E-010	0.1176295	7
	10	4	100078.1	5750.806	-3793.239	1	6889.153	-33.4089	3.191313E-009	0.117613	7
	11	4	79453.13	6337.637	-4003.22	1	7496.093	-32.27888	2.392939E-009	0.1176077	7
	12	5	63140.62	6951.623	-4197.3	1	8120.492	-31.12304	2.610956E-009	0.1176017	7
	13	5	50203.12	7570.087	-4385.775	1	8748.785	-30.08611	3.294628E-009	0.1175992	7
	14	5	39890.62	8194.867	-4565.802	1	9380.959	-29.12453	2.692518E-009	0.1176002	7
	15	6	31640.63	8832.151	-4774.515	1	10040.06	-28.39492	3.647165E-009	0.1176016	7
	16	6	25171.88	9462.801	-4999.367	1	10702.25	-27.84829	3.801894E-009	0.1175993	7
	17	6	20015.62	10104.49	-5277.345	1	11399.61	-27.57705	3.803602E-009	0.1175944	7
	18	7	15890.62	10770.96	-5605.728	1	12142.39	-27.49466	3.21665E-009	0.1175904	7
	19	7	12609.37	11597.26	-5857.533	1	12992.58	-26.79738	1.266537E-009	0.1176417	6
	20	7	10078.13	12312.17	-6333.548	1	13845.7	-27.2219	9.185191E-010	0.1176436	6
	21	8	8015.625	13113.97	-6897.634	1	14817.34	-27.7433	1.137149E-009	0.1176454	6
	22	8	6328.125	14032.58	-7551.359	1	15935.37	-28.28606	9.105539E-010	0.1176428	6
	23	8	5015.625	15029.07	-8247.671	1	17143.43	-28.75715	8.291428E-010	0.1176408	6
	24	9	3984.375	16121.93	-9008.955	1	18468.3	-29.19651	6.791119E-010	0.1176342	6
	25	9	3170.956	17272.06	-9795.87	1	19856.56	-29.55979	7.508376E-010	0.1176283	6
	26	9	2527.573	18489.84	-10646.28	1	21335.82	-29.93294	9.356989E-010	0.117638	6
	27	10	1976.103	19848.22	-11660.23	1	23019.83	-30.43296	7.834878E-010	0.1176338	6
	28	10	1577.524	21091.67	-12726.33	1	24633.68	-31.10601	8.711485E-010	0.1176367	6
	29	10	1265.625	22297.8	-13949.58	1	26301.76	-32.03024	8.580127E-010	0.1176347	6
	30	10	998.264	23583.03	-15591.8	1	28271.25	-33.47048	9.02959E-010	0.1176405	6
	31	11	796.875	24769.61	-17512.46	1	30335.13	-35.26084	8.050303E-010	0.1176359	6
	32	11	627.7902	26073.13	-20164.94	1	32961.08	-37.71834	8.16139E-010	0.1176346	6
	33	11	505.5147	27283.52	-23104.27	1	35751.89	-40.25864	8.842609E-010	0.1176372	6
	34	12	397.9953	28773.31	-27306.12	1	39667.71	-43.50132	9.389797E-010	0.1176586	6
	35	12	315.5048	30379.23	-32245.57	1	44302.08	-46.70702	7.762488E-010	0.1176556	6
	36	12	252.4038	32154.64	-38255.3	1	49973.88	-49.95202	6.495461E-010	0.1176547	6
	37	13	198.6229	34424.52	-46164.17	1	57586.27	-53.28818	7.413455E-010	0.1176521	6
	38	13	158.3615	37032.22	-55443.71	1	66673.76	-56.26006	7.172068E-010	0.117646	6
	39	13	125.558	40262.33	-67388.21	1	78499.85	-59.14301	8.743388E-010	0.1176473	6
	40	14	100.4464	44435.07	-81133.11	1	92504.37	-61.29131	7.017751E-010	0.1176388	6
	41	14	79.00281	50150.4	-99725.7	1	111625.6	-63.30294	5.824443E-010	0.1176412	5
	42	14	63.3446	57368.65	-120203.4	1	133191.7	-64.48658	4.35908E-010	0.1176417	5
	43	15	49.86702	68099.63	-146986.2	1	161995.3	-65.1414	4.882294E-010	0.1176312	5
	44	15	39.72458	81466.94	-177942.9	1	195705.3	-65.40045	3.275205E-010	0.1176385	5
	45	15	31.6723	100340.4	-213490.1	1	235894.5	-64.82648	2.83205E-010	0.1176388	5
	46	16	24.93351	128034.3	-254855.9	1	285209.2	-63.32601	3.984992E-010	0.1176397	5
	47	16	19.86229	162776.3	-297716	1	339309.5	-61.33236	1.258532E-009	0.1176464	5
	48	16	15.83615	207039.2	-343914.4	1	401425.4	-58.95172	-4.034498E-011	0.1176395	5
	49	17	12.40079	267113.5	-403786.7	1	484141.8	-56.51451	-3.389241E-010	0.1176454	5
	50	17	9.93114	334804.8	-448293.6	1	559518.9	-53.24606	-6.988464E-010	0.1176466	5
	51	17	7.944915	405071.7	-483701.9	1	630912.5	-50.05582	-3.374656E-010	0.1176479	5
	52	18	6.317385	483741.3	-512577.1	1	704798.5	-46.65782	4.275167E-010	0.1176331	5
	53	18	5.008013	567114.6	-533067.5	1	778318.7	-43.22744	1.480232E-010	0.1176399	5
	54	19	3.945707	642029.4	-544606.4	1	841901.4	-40.30653	-2.219504E-010	0.1176413	5
	55	20	3.158693	724507.1	-582585.3	1	929686.1	-38.8032	-9.218876E-011	0.1176222	5
	56	21	2.504006	796323.1	-599355.6	1	996673	-36.96708	8.290459E-011	0.1176242	4
	57	23	1.998082	857892.7	-624925.5	1	1061373	-36.07119	5.925006E-011	0.1176296	4
	58	24	1.584686	935732.9	-679449.3	1	1156394	-35.98394	-8.63284E-012	0.1175816	4
	59	26	1.266892	1011990	-723586.5	1	1244067	-35.56527	-1.81923E-010	0.117593	4
	60	29	0.999041	1053037	-787318.2	1	1314822	-36.78417	-1.217052E-010	0.1176176	4
