EXPLAIN
TAG	EISPOT
TITLE	LABEL	Potentiostatic EIS	Test &Identifier
DATE	LABEL	1/18/2020	Date
TIME	LABEL	22:18:51	Time
NOTES	NOTES	6	&Notes...
	
	
	
	
	
	
PSTAT	PSTAT	REF600-11020	Potentiostat
VDC	POTEN	0.00000E+000	T	DC &Voltage (V)
FREQINIT	QUANT	1.00000E+006	Initial Fre&q. (Hz)
FREQFINAL	QUANT	1.00000E+000	Final Fre&q. (Hz)
PTSPERDEC	QUANT	1.00000E+001	Points/&decade
VAC	QUANT	2.50000E+001	AC &Voltage (mV rms)
AREA	QUANT	1.00000E-001	&Area (cm^2)
CONDIT	TWOPARAM	F	5.00000E+000	0.00000E+000	Conditionin&g	Time(s)	E(V)
DELAY	TWOPARAM	F	5.00000E+000	0.00000E+000	Init. De&lay	Time(s)	Stab.(mV/s)
SPEED	SELECTOR	0	&Optimize for:
ZGUESS	QUANT	5.00000E+002	E&stimated Z (ohms)
OCVCURVE	TABLE	39
	Pt	T	Vf	Vm	Ach	Over
	#	s	V vs. Ref.	V	V	bits
	0	0.258333	1.83809E-002	1.83809E-002	6.48646E-004	...........
	1	0.516667	1.83776E-002	1.82067E-002	6.44480E-004	...........
	2	0.775	1.83627E-002	1.83293E-002	6.43213E-004	...........
	3	1.03333	1.83338E-002	1.81925E-002	6.37613E-004	...........
	4	1.29167	1.83035E-002	1.84344E-002	6.39680E-004	...........
	5	1.55	1.82900E-002	1.83101E-002	6.45180E-004	...........
	6	1.80833	1.83008E-002	1.83948E-002	6.48146E-004	...........
	7	2.06667	1.83260E-002	1.84066E-002	6.51046E-004	...........
	8	2.325	1.83474E-002	1.81134E-002	6.44746E-004	...........
	9	2.58333	1.83436E-002	1.82102E-002	6.49513E-004	...........
	10	2.84167	1.83101E-002	1.84466E-002	6.44213E-004	...........
	11	3.1	1.82860E-002	1.86105E-002	6.49646E-004	...........
	12	3.35833	1.83238E-002	1.88401E-002	6.46180E-004	...........
	13	3.61667	1.84329E-002	1.87285E-002	6.46846E-004	...........
	14	3.875	1.85675E-002	1.86162E-002	6.48280E-004	...........
	15	4.13333	1.86627E-002	1.85925E-002	6.52013E-004	...........
	16	4.39167	1.86912E-002	1.87579E-002	6.49913E-004	...........
	17	4.65	1.86863E-002	1.89026E-002	6.47080E-004	...........
	18	4.90833	1.87008E-002	1.88439E-002	6.50880E-004	...........
	19	5.16667	1.87391E-002	1.83490E-002	6.47546E-004	...........
	20	5.425	1.87363E-002	1.79794E-002	6.44446E-004	...........
	21	5.68333	1.86206E-002	1.78010E-002	6.41213E-004	...........
	22	5.94167	1.84054E-002	1.82978E-002	6.42846E-004	...........
	23	6.2	1.82094E-002	1.86373E-002	6.41646E-004	...........
	24	6.45833	1.81582E-002	1.86428E-002	6.49446E-004	...........
	25	6.71667	1.82653E-002	1.87407E-002	6.47213E-004	...........
	26	6.975	1.84397E-002	1.87227E-002	6.45513E-004	...........
	27	7.23333	1.85895E-002	1.87152E-002	6.45480E-004	...........
	28	7.49167	1.86796E-002	1.87347E-002	6.43046E-004	...........
	29	7.75	1.87192E-002	1.87536E-002	6.42046E-004	...........
	30	8.00833	1.87332E-002	1.87591E-002	6.47746E-004	...........
	31	8.26667	1.87407E-002	1.87639E-002	6.45780E-004	...........
	32	8.525	1.87485E-002	1.87752E-002	6.47280E-004	...........
	33	8.78333	1.87569E-002	1.87824E-002	6.45980E-004	...........
	34	9.04167	1.87653E-002	1.87903E-002	6.43113E-004	...........
	35	9.3	1.87736E-002	1.87997E-002	6.44246E-004	...........
	36	9.5583	1.87819E-002	1.88063E-002	6.45680E-004	...........
	37	9.8167	1.87900E-002	1.88135E-002	6.47246E-004	...........
	38	10.075	1.87978E-002	1.88087E-002	6.48680E-004	...........
EOC	QUANT	0.0187978	Open Circuit (V)
PSTATMODEL	IQUANT	4	Pstat Model
PSTATSECTION	LABEL	REF600-11020	Pstat Section
PSTATSERIALNO	LABEL	11020	Pstat Serial Number
CTRLMODE	IQUANT	1	Control Mode
IESTAB	IQUANT	0	I/E Stability
CASPEED	IQUANT	1	Control Amp Speed
CONVENTION	IQUANT	1	Current Convention
ICHRANGE	IQUANT	2	Ich Range
ICHRANGEMODE	TOGGLE	F	Ich Auto Range
ICHOFFSETENABLE	TOGGLE	T	Ich Offset Enable
ICHOFFSET	QUANT	0	Ich Offset (V)
ICHFILTER	IQUANT	3	Ich Filter
VCHRANGE	IQUANT	2	Vch Range
VCHRANGEMODE	TOGGLE	F	Vch Auto Range
VCHOFFSETENABLE	TOGGLE	T	Vch Offset Enable
VCHOFFSET	QUANT	0	Vch Offset (V)
VCHFILTER	IQUANT	3	Vch Filter
ACHRANGE	IQUANT	2	Ach Range
ACHOFFSETENABLE	TOGGLE	F	Ach Offset Enable
ACHOFFSET	QUANT	0	Ach Offset (V)
ACHFILTER	IQUANT	3	Ach Filter
IERANGELOWERLIMIT	IQUANT	1	I/E Range Lower Limit
IERANGEMODE	TOGGLE	F	I/E AutoRange
IERANGE	IQUANT	7	I/E Range
POSFEEDENABLE	TOGGLE	F	Positive Feedback IR Comp
POSFEEDRESISTANCE	QUANT	0	Positive Feedback Resistance (ohm)
ACHSELECT	IQUANT	0	Ach Select
CABLEID	IQUANT	14	Cable ID
DCCALDATE	LABEL	12/22/2019	DC Calibration Date
ACCALDATE	LABEL	12/22/2019	AC Calibration Date
THERMOSELECT	IQUANT	1	Thermo Select
FRAMEWORKVERSION	QUANT	6.33	Framework Version
INSTRUMENTVERSION	LABEL	3.50	Instrument Version
ZCURVE	TABLE
	Pt	Time	Freq	Zreal	Zimag	Zsig	Zmod	Zphz	Idc	Vdc	IERange
	#	s	Hz	ohm	ohm	V	ohm	°	A	V	#
	0	2	1000078	2315.483	-1853.8	1	2966.149	-38.68113	-1.132984E-006	0.0214818	8
	1	2	794390.6	2672.066	-1854.454	1	3252.528	-34.76124	2.750612E-006	0.0200996	8
	2	2	630984.4	3026.495	-1819.375	1	3531.26	-31.01215	5.094413E-007	0.0202646	8
	3	3	501234.4	3348.55	-1755.027	1	3780.596	-27.65973	1.89839E-007	0.0204038	8
	4	3	398109.4	3617.956	-1621.577	1	3964.735	-24.14204	3.710766E-007	0.0202414	8
	5	3	316265.6	3845.36	-1497.433	1	4126.632	-21.27658	-1.460245E-006	0.0205765	8
	6	4	251203.1	4074.189	-1387.567	1	4303.994	-18.80756	2.088069E-006	0.0199763	8
	7	4	199546.9	4246.248	-1264.602	1	4430.557	-16.58439	-3.10172E-006	0.0209919	8
	8	4	158578.1	4423.367	-1160.729	1	4573.125	-14.70339	1.46198E-006	0.0200182	8
	9	4	125953.1	4577.645	-1065.106	1	4699.923	-13.09828	6.376825E-007	0.0190264	7
	10	5	100078.1	4680.333	-999.109	1	4785.784	-12.05004	-2.164116E-008	0.0203459	7
	11	5	79453.13	4789.85	-963.701	1	4885.835	-11.37583	2.641694E-008	0.0203235	7
	12	5	63140.62	4891.58	-940.7601	1	4981.223	-10.88634	-1.161638E-008	0.0203843	7
	13	6	50203.12	4987.373	-934.6402	1	5074.193	-10.61419	1.794547E-008	0.0202613	7
	14	6	39890.62	5081.941	-944.9721	1	5169.052	-10.53368	1.964571E-008	0.0202594	7
	15	6	31640.63	5176.821	-974.941	1	5267.825	-10.66548	1.118186E-009	0.0203617	7
	16	7	25171.88	5272.379	-1025.205	1	5371.129	-11.00375	-2.974696E-008	0.0204372	7
	17	7	20015.62	5371.604	-1095.491	1	5482.173	-11.52689	2.73796E-008	0.0203092	7
	18	7	15890.62	5478.042	-1190.742	1	5605.962	-12.26341	-2.963757E-008	0.0204402	7
	19	8	12609.37	5595.415	-1314.806	1	5747.815	-13.22342	-4.954496E-008	0.0204352	7
	20	8	10078.13	5720.328	-1451.454	1	5901.599	-14.23754	2.041459E-008	0.0202512	7
	21	8	8015.625	5852.052	-1639.747	1	6077.441	-15.65289	7.094652E-008	0.0202024	7
	22	9	6328.125	6010.475	-1864.494	1	6293.023	-17.23428	2.25521E-008	0.0202515	7
	23	9	5015.625	6187.496	-2133.446	1	6544.975	-19.02417	-1.765104E-008	0.0204512	7
	24	9	3984.375	6384.407	-2454.59	1	6840.005	-21.03008	-1.712068E-008	0.0204519	7
	25	10	3170.956	6609.091	-2825.557	1	7187.758	-23.14796	-3.959512E-008	0.020363	7
	26	10	2527.573	6863.414	-3266.133	1	7600.926	-25.44865	-1.994432E-008	0.0203185	7
	27	10	1976.103	7188.345	-3833.001	1	8146.422	-28.06763	-4.01305E-008	0.0203561	7
	28	10	1577.524	7527.887	-4459.643	1	8749.714	-30.64319	-1.90614E-008	0.0203231	7
	29	11	1265.625	7926.286	-5150.115	1	9452.496	-33.01385	7.980674E-010	0.020415	6
	30	11	998.264	8424.281	-6039.916	1	10365.77	-35.6392	-8.612507E-010	0.0203403	6
	31	11	796.875	8976.892	-7031.945	1	11403.19	-38.07296	2.398267E-009	0.0202441	6
	32	12	627.7902	9665.08	-8260.705	1	12714.29	-40.52037	5.594425E-009	0.0201389	6
	33	12	505.5147	10394.05	-9554.91	1	14118.52	-42.59132	-4.705437E-009	0.020377	6
	34	12	397.9953	11328.84	-11211.38	1	15938.56	-44.70144	4.422849E-010	0.0203295	6
	35	13	315.5048	12382.03	-13091.51	1	18019.5	-46.59537	9.976375E-010	0.0203284	6
	36	13	252.4038	13543.1	-15195.45	1	20354.79	-48.29066	5.567959E-010	0.0203321	6
	37	13	198.6229	14961.27	-17837.4	1	23281.16	-50.01147	6.099286E-010	0.0203313	6
	38	14	158.3615	16492.12	-20783.36	1	26531.83	-51.5671	9.207978E-010	0.0203236	6
	39	14	125.558	18274.4	-24346.57	1	30441.9	-53.10831	7.324281E-010	0.0203269	6
	40	14	100.4464	20213.48	-28440.86	1	34892.22	-54.59784	6.584895E-010	0.0203231	6
	41	15	79.00281	22585.82	-33674.2	1	40547.14	-56.14961	9.378462E-010	0.0203261	6
	42	15	63.3446	25228.26	-39093.35	1	46526.93	-57.16448	2.466156E-010	0.0203217	6
	43	15	49.86702	28486.58	-46639.96	1	54651.36	-58.5844	-4.052172E-011	0.0203179	6
	44	16	39.72458	31951.55	-55371.34	1	63928.76	-60.01328	5.224401E-010	0.0203221	6
	45	16	31.6723	36240.03	-65659.34	1	74996.59	-61.10393	5.878212E-010	0.0203196	6
	46	16	24.93351	41774.68	-78484.38	1	88909.63	-61.97508	1.559746E-010	0.0203193	6
	47	17	19.86229	48146.43	-93091.59	1	104805.2	-62.65226	-8.282884E-010	0.0203163	5
	48	17	15.83615	56604.79	-111271.1	1	124841.3	-63.03707	1.534532E-009	0.0203155	5
	49	17	12.40079	67088.82	-133107.4	1	149058.7	-63.25098	6.397964E-011	0.0203188	5
	50	18	9.93114	78899.52	-156683.6	1	175427.8	-63.27203	9.198951E-012	0.0203136	5
	51	18	7.944915	94399.12	-183833.1	1	206653.8	-62.81929	5.876357E-010	0.0203115	5
	52	19	6.317385	113415.1	-216509.9	1	244416.7	-62.35296	5.817056E-010	0.0203045	5
	53	19	5.008013	137669.3	-254263.9	1	289141.8	-61.567	2.602324E-010	0.0203141	5
	54	20	3.945707	168606.2	-297237	1	341727.8	-60.43614	1.563553E-010	0.0203242	5
	55	21	3.158693	202368.1	-343664.8	1	398821.2	-59.50817	8.606454E-011	0.0203089	5
	56	23	2.504006	245463.5	-395790.1	1	465727.5	-58.19339	-7.205206E-011	0.0203074	5
	57	24	1.998082	293924.8	-451829.6	1	539019.3	-56.95514	7.838926E-010	0.0203482	5
	58	26	1.584686	349131.4	-513161.5	1	620666.9	-55.77044	1.665357E-010	0.020308	5
	59	28	1.266892	414206.9	-579027.7	1	711927.3	-54.422	8.715137E-011	0.0202736	5
	60	30	0.999041	491245.9	-655961.9	1	819517.3	-53.17068	7.058725E-012	0.0202649	5
