EXPLAIN
TAG	EISPOT
TITLE	LABEL	Potentiostatic EIS	Test &Identifier
DATE	LABEL	2/28/2020	Date
TIME	LABEL	17:39:06	Time
NOTES	NOTES	1	&Notes...
	
PSTAT	PSTAT	REF600-11020	Potentiostat
VDC	POTEN	0.00000E+000	T	DC &Voltage (V)
FREQINIT	QUANT	1.00000E+006	Initial Fre&q. (Hz)
FREQFINAL	QUANT	1.00000E+000	Final Fre&q. (Hz)
PTSPERDEC	QUANT	1.00000E+001	Points/&decade
VAC	QUANT	2.50000E+001	AC &Voltage (mV rms)
AREA	QUANT	1.60000E-004	&Area (cm^2)
CONDIT	TWOPARAM	F	1.50000E+001	0.00000E+000	Conditionin&g	Time(s)	E(V)
DELAY	TWOPARAM	F	1.00000E+002	0.00000E+000	Init. De&lay	Time(s)	Stab.(mV/s)
SPEED	SELECTOR	1	&Optimize for:
ZGUESS	QUANT	1.00000E+003	E&stimated Z (ohms)
OCVCURVE	TABLE	39
	Pt	T	Vf	Vm	Ach	Over
	#	s	V vs. Ref.	V	V	bits
	0	0.258333	-6.91404E-002	-6.91404E-002	5.95463E-004	...........
	1	0.516667	-6.91454E-002	-6.94008E-002	5.93130E-004	...........
	2	0.775	-6.91791E-002	-6.98163E-002	5.91296E-004	...........
	3	1.03333	-6.92751E-002	-6.96751E-002	5.92996E-004	...........
	4	1.29167	-6.94260E-002	-6.97272E-002	5.96363E-004	...........
	5	1.55	-6.95763E-002	-6.98632E-002	5.92530E-004	...........
	6	1.80833	-6.96921E-002	-7.01471E-002	5.95196E-004	...........
	7	2.06667	-6.97994E-002	-7.03682E-002	5.94930E-004	...........
	8	2.325	-6.99379E-002	-7.04718E-002	6.00696E-004	...........
	9	2.58333	-7.01092E-002	-7.05524E-002	5.99796E-004	...........
	10	2.84167	-7.02807E-002	-7.05979E-002	5.95130E-004	...........
	11	3.1	-7.04197E-002	-7.05659E-002	6.00196E-004	...........
	12	3.35833	-7.05105E-002	-7.05084E-002	5.93363E-004	...........
	13	3.61667	-7.05530E-002	-7.05849E-002	5.90330E-004	...........
	14	3.875	-7.05689E-002	-7.08954E-002	5.91296E-004	...........
	15	4.13333	-7.05997E-002	-7.08499E-002	5.89563E-004	...........
	16	4.39167	-7.06681E-002	-7.08350E-002	5.92096E-004	...........
	17	4.65	-7.07512E-002	-7.08787E-002	5.96096E-004	...........
	18	4.90833	-7.08164E-002	-7.09684E-002	5.97396E-004	...........
	19	5.16667	-7.08616E-002	-7.09861E-002	5.98096E-004	...........
	20	5.425	-7.09027E-002	-7.10888E-002	5.98896E-004	...........
	21	5.68333	-7.09498E-002	-7.11062E-002	5.91196E-004	...........
	22	5.94167	-7.10031E-002	-7.11695E-002	5.93996E-004	...........
	23	6.2	-7.10520E-002	-7.08987E-002	5.97530E-004	...........
	24	6.45833	-7.10726E-002	-7.08872E-002	5.88430E-004	...........
	25	6.71667	-7.10433E-002	-7.07062E-002	5.91630E-004	...........
	26	6.975	-7.09743E-002	-7.10392E-002	5.93796E-004	...........
	27	7.23333	-7.09029E-002	-7.05487E-002	5.86130E-004	...........
	28	7.49167	-7.08420E-002	-7.04520E-002	5.87930E-004	...........
	29	7.75	-7.07650E-002	-7.05650E-002	5.94796E-004	...........
	30	8.00833	-7.06706E-002	-7.06880E-002	6.02496E-004	...........
	31	8.26667	-7.06089E-002	-7.09061E-002	5.97263E-004	...........
	32	8.525	-7.06243E-002	-7.10172E-002	5.94030E-004	...........
	33	8.78333	-7.07132E-002	-7.10237E-002	5.90163E-004	...........
	34	9.04167	-7.08329E-002	-7.10434E-002	5.96863E-004	...........
	35	9.3	-7.09375E-002	-7.10982E-002	5.92563E-004	...........
	36	9.5583	-7.10098E-002	-7.11589E-002	5.90030E-004	...........
	37	9.8167	-7.10618E-002	-7.12864E-002	5.89830E-004	...........
	38	10.075	-7.11145E-002	-7.13199E-002	5.91696E-004	...........
EOC	QUANT	-0.0711145	Open Circuit (V)
PSTATMODEL	IQUANT	4	Pstat Model
PSTATSECTION	LABEL	REF600-11020	Pstat Section
PSTATSERIALNO	LABEL	11020	Pstat Serial Number
CTRLMODE	IQUANT	1	Control Mode
IESTAB	IQUANT	0	I/E Stability
CASPEED	IQUANT	1	Control Amp Speed
CONVENTION	IQUANT	1	Current Convention
ICHRANGE	IQUANT	2	Ich Range
ICHRANGEMODE	TOGGLE	F	Ich Auto Range
ICHOFFSETENABLE	TOGGLE	T	Ich Offset Enable
ICHOFFSET	QUANT	0	Ich Offset (V)
ICHFILTER	IQUANT	3	Ich Filter
VCHRANGE	IQUANT	2	Vch Range
VCHRANGEMODE	TOGGLE	F	Vch Auto Range
VCHOFFSETENABLE	TOGGLE	T	Vch Offset Enable
VCHOFFSET	QUANT	0	Vch Offset (V)
VCHFILTER	IQUANT	3	Vch Filter
ACHRANGE	IQUANT	2	Ach Range
ACHOFFSETENABLE	TOGGLE	F	Ach Offset Enable
ACHOFFSET	QUANT	0	Ach Offset (V)
ACHFILTER	IQUANT	3	Ach Filter
IERANGELOWERLIMIT	IQUANT	1	I/E Range Lower Limit
IERANGEMODE	TOGGLE	F	I/E AutoRange
IERANGE	IQUANT	8	I/E Range
POSFEEDENABLE	TOGGLE	F	Positive Feedback IR Comp
POSFEEDRESISTANCE	QUANT	0	Positive Feedback Resistance (ohm)
ACHSELECT	IQUANT	0	Ach Select
CABLEID	IQUANT	14	Cable ID
DCCALDATE	LABEL	2/27/2020	DC Calibration Date
ACCALDATE	LABEL	2/27/2020	AC Calibration Date
THERMOSELECT	IQUANT	1	Thermo Select
FRAMEWORKVERSION	QUANT	6.33	Framework Version
INSTRUMENTVERSION	LABEL	3.50	Instrument Version
ZCURVE	TABLE
	Pt	Time	Freq	Zreal	Zimag	Zsig	Zmod	Zphz	Idc	Vdc	IERange
	#	s	Hz	ohm	ohm	V	ohm	°	A	V	#
	0	2	1000078	1616.958	-2163.809	1	2701.226	-53.23021	-2.832635E-008	-0.0684869	8
	1	3	794390.6	1938.277	-2427.921	1	3106.721	-51.39867	-6.658199E-007	-0.0688287	8
	2	4	630984.4	2305.39	-2706.724	1	3555.443	-49.57806	-3.735949E-006	-0.0683494	8
	3	6	501234.4	2701.85	-3006.874	1	4042.435	-48.05848	-1.697509E-007	-0.069147	8
	4	7	398109.4	3173.405	-3291.605	1	4572.217	-46.04743	4.667238E-007	-0.0694807	8
	5	8	316265.6	3719.582	-3579.538	1	5162.207	-43.90084	1.494731E-006	-0.0696553	8
	6	10	251203.1	4282.44	-3852.085	1	5760.022	-41.9716	2.242319E-006	-0.0697616	8
	7	11	199546.9	4946.568	-4120.345	1	6437.839	-39.7933	-2.745882E-006	-0.0689477	8
	8	13	158578.1	5608.682	-4325.775	1	7083.053	-37.64171	-2.680408E-006	-0.068956	8
	9	14	125953.1	6391.776	-4451.245	1	7788.992	-34.85342	-5.704674E-008	-0.069487	7
	10	16	100078.1	7103.848	-4593.815	1	8459.774	-32.88937	4.357574E-008	-0.069643	7
	11	17	79453.13	7855.641	-4727.197	1	9168.287	-31.03778	-3.845358E-008	-0.0694278	7
	12	18	63140.62	8622.858	-4809.593	1	9873.49	-29.15158	-2.651241E-008	-0.0694713	7
	13	20	50203.12	9390.094	-4859.254	1	10572.9	-27.36099	-3.623826E-008	-0.0694313	7
	14	21	39890.62	10144.47	-4882.147	1	11258.14	-25.69973	4.575995E-008	-0.0696589	7
	15	22	31640.63	10879.33	-4881.303	1	11924.22	-24.16466	4.410597E-008	-0.069605	7
	16	24	25171.88	11578.65	-4875.202	1	12563.15	-22.83358	4.534536E-008	-0.0696103	7
	17	25	20015.62	12248.71	-4883.726	1	13186.42	-21.73784	-3.55491E-008	-0.0694347	7
	18	26	15890.62	12884.28	-4908.412	1	13787.58	-20.8549	4.544521E-008	-0.0696053	7
	19	28	12609.37	13575.93	-4867.6	1	14422.18	-19.72511	1.499484E-008	-0.0696927	6
	20	29	10078.13	14165.04	-5014.82	1	15026.53	-19.49539	1.399972E-008	-0.0697024	6
	21	31	8015.625	14754.84	-5221.105	1	15651.37	-19.48668	3.587665E-010	-0.0693871	6
	22	32	6328.125	15387.99	-5521.495	1	16348.61	-19.73893	1.132641E-008	-0.0696999	6
	23	33	5015.625	16040.21	-5896.807	1	17089.78	-20.18477	-4.788425E-010	-0.0694924	6
	24	35	3984.375	16733.88	-6351.632	1	17898.77	-20.78512	1.279332E-008	-0.0697047	6
	25	36	3170.956	17477.06	-6902.351	1	18790.69	-21.55093	-6.518416E-010	-0.0693767	6
	26	37	2527.573	18284.55	-7523.64	1	19771.95	-22.36595	-1.118974E-008	-0.0693324	6
	27	39	1976.103	19226.42	-8322.967	1	20950.59	-23.4074	-1.537581E-009	-0.0694092	6
	28	40	1577.524	20163.66	-9138.254	1	22137.77	-24.38023	-5.903766E-009	-0.0693642	6
	29	42	1265.625	21114.03	-10065.94	1	23390.71	-25.48909	-1.992491E-009	-0.0695033	6
	30	43	998.264	22242.27	-11240.14	1	24921.06	-26.80978	-1.001786E-008	-0.0693352	6
	31	44	796.875	23374.16	-12572.91	1	26541.08	-28.27571	6.887058E-009	-0.069513	6
	32	46	627.7902	24688.52	-14256.05	1	28508.91	-30.00371	-1.817527E-009	-0.0694783	6
	33	47	505.5147	26015.47	-16116.93	1	30603.27	-31.77877	-1.065369E-009	-0.0693789	6
	34	48	397.9953	27677.8	-18525.79	1	33305.64	-33.79589	2.668479E-010	-0.0694548	6
	35	50	315.5048	29569.11	-21330.42	1	36459.83	-35.80574	5.582558E-010	-0.0694598	6
	36	51	252.4038	31703.85	-24482.36	1	40056.46	-37.67604	6.071685E-010	-0.0694625	6
	37	52	198.6229	34430.73	-28384.66	1	44622.46	-39.50213	1.983237E-010	-0.069463	6
	38	54	158.3615	37457.63	-32629.27	1	49676.39	-41.05906	4.180729E-010	-0.0694588	6
	39	55	125.558	41074.82	-37519.47	1	55631.39	-42.40989	4.102491E-010	-0.0694558	6
	40	57	100.4464	45084.68	-42820.85	1	62179.2	-43.52479	3.819165E-009	-0.0694631	6
	41	58	79.00281	49929.3	-49384.57	1	70226.57	-44.68574	-4.887612E-010	-0.0694649	6
	42	59	63.3446	54209.18	-56203.2	1	78086.08	-46.03464	-5.138006E-010	-0.0694676	6
	43	61	49.86702	60992.54	-64284.64	1	88614.92	-46.50531	2.098306E-010	-0.0694685	6
	44	62	39.72458	67074.77	-73862.06	1	99772.9	-47.75714	-3.399016E-011	-0.0694521	5
	45	64	31.6723	73689.08	-85023.67	1	112512.7	-49.08489	4.382162E-010	-0.0694582	5
	46	65	24.93351	81953.46	-98568	1	128187.4	-50.25847	2.040571E-010	-0.0694643	5
	47	66	19.86229	90606.02	-114087.5	1	145689.4	-51.5441	-9.483966E-011	-0.0694665	5
	48	68	15.83615	101269.8	-132915.1	1	167098.8	-52.69574	8.60743E-010	-0.0694597	5
	49	69	12.40079	112794.9	-157379.3	1	193625.8	-54.37054	4.818099E-010	-0.0694561	5
	50	71	9.93114	125867.4	-182583.3	1	221764	-55.41879	-2.596494E-010	-0.0694559	5
	51	72	7.944915	141627	-214284.8	1	256858.3	-56.53813	4.188754E-010	-0.0694639	5
	52	74	6.317385	160839.9	-252174.5	1	299101.1	-57.46978	-1.238361E-010	-0.0694504	5
	53	76	5.008013	185419.3	-297726.6	1	350744.1	-58.08601	-3.351071E-011	-0.069469	5
	54	78	3.945707	216837.9	-352120.5	1	413530.6	-58.37499	3.344374E-010	-0.0694539	5
	55	81	3.158693	253439.6	-410543.8	1	482470.6	-58.31186	-9.643689E-011	-0.0694718	5
	56	84	2.504006	300385.4	-479375	1	565713.6	-57.92796	3.896966E-010	-0.0694586	5
	57	87	1.998082	354552.9	-553050	1	656941.4	-57.33662	2.106636E-010	-0.0694243	5
	58	90	1.584686	417900.3	-634037.3	1	759370.8	-56.61073	1.406601E-010	-0.0694857	5
	59	94	1.266892	489083.8	-724827.5	1	874401.4	-55.99014	1.562947E-010	-0.0694236	5
	60	98	0.999041	552822.3	-827521.9	1	995191	-56.25528	-6.767416E-011	-0.0694956	4
