EXPLAIN
TAG	EISPOT
TITLE	LABEL	Potentiostatic EIS	Test &Identifier
DATE	LABEL	1/10/2020	Date
TIME	LABEL	14:09:09	Time
NOTES	NOTES	5	&Notes...
	
	
	
	
	
PSTAT	PSTAT	REF600-11020	Potentiostat
VDC	POTEN	0.00000E+000	T	DC &Voltage (V)
FREQINIT	QUANT	1.00000E+006	Initial Fre&q. (Hz)
FREQFINAL	QUANT	1.00000E+000	Final Fre&q. (Hz)
PTSPERDEC	QUANT	1.00000E+001	Points/&decade
VAC	QUANT	2.50000E+001	AC &Voltage (mV rms)
AREA	QUANT	1.00000E-001	&Area (cm^2)
CONDIT	TWOPARAM	T	5.00000E+000	0.00000E+000	Conditionin&g	Time(s)	E(V)
DELAY	TWOPARAM	T	5.00000E+000	0.00000E+000	Init. De&lay	Time(s)	Stab.(mV/s)
SPEED	SELECTOR	0	&Optimize for:
ZGUESS	QUANT	5.00000E+002	E&stimated Z (ohms)
OCVCURVE	TABLE	19
	Pt	T	Vf	Vm	Ach	Over
	#	s	V vs. Ref.	V	V	bits
	0	0.258333	9.22417E-003	9.22417E-003	6.60579E-004	...........
	1	0.516667	9.22775E-003	9.41116E-003	6.60546E-004	...........
	2	0.775	9.24903E-003	9.55459E-003	6.62913E-004	...........
	3	1.03333	9.30822E-003	9.75018E-003	6.59879E-004	...........
	4	1.29167	9.41379E-003	9.88607E-003	6.61413E-004	...........
	5	1.55	9.55565E-003	1.00746E-002	6.58879E-004	...........
	6	1.80833	9.71648E-003	1.02304E-002	6.61446E-004	...........
	7	2.06667	9.88449E-003	1.04322E-002	6.58413E-004	...........
	8	2.325	1.00555E-002	1.05716E-002	6.64179E-004	...........
	9	2.58333	1.02277E-002	1.07475E-002	6.65579E-004	...........
	10	2.84167	1.03981E-002	1.08899E-002	6.61646E-004	...........
	11	3.1	1.05640E-002	1.10508E-002	6.62146E-004	...........
	12	3.35833	1.07255E-002	1.12295E-002	6.62446E-004	...........
	13	3.61667	1.08848E-002	1.13596E-002	6.68479E-004	...........
	14	3.875	1.10410E-002	1.13910E-002	6.62313E-004	...........
	15	4.13333	1.11853E-002	1.15555E-002	6.62646E-004	...........
	16	4.39167	1.13094E-002	1.15460E-002	6.53280E-004	...........
	17	4.65	1.14086E-002	1.14616E-002	6.61046E-004	...........
	18	4.90833	1.14782E-002	1.16992E-002	6.63379E-004	...........
EOC	QUANT	0.0114782	Open Circuit (V)
PSTATMODEL	IQUANT	4	Pstat Model
PSTATSECTION	LABEL	REF600-11020	Pstat Section
PSTATSERIALNO	LABEL	11020	Pstat Serial Number
CTRLMODE	IQUANT	1	Control Mode
IESTAB	IQUANT	0	I/E Stability
CASPEED	IQUANT	1	Control Amp Speed
CONVENTION	IQUANT	1	Current Convention
ICHRANGE	IQUANT	2	Ich Range
ICHRANGEMODE	TOGGLE	F	Ich Auto Range
ICHOFFSETENABLE	TOGGLE	T	Ich Offset Enable
ICHOFFSET	QUANT	0	Ich Offset (V)
ICHFILTER	IQUANT	3	Ich Filter
VCHRANGE	IQUANT	2	Vch Range
VCHRANGEMODE	TOGGLE	F	Vch Auto Range
VCHOFFSETENABLE	TOGGLE	T	Vch Offset Enable
VCHOFFSET	QUANT	0	Vch Offset (V)
VCHFILTER	IQUANT	3	Vch Filter
ACHRANGE	IQUANT	2	Ach Range
ACHOFFSETENABLE	TOGGLE	F	Ach Offset Enable
ACHOFFSET	QUANT	0	Ach Offset (V)
ACHFILTER	IQUANT	3	Ach Filter
IERANGELOWERLIMIT	IQUANT	1	I/E Range Lower Limit
IERANGEMODE	TOGGLE	F	I/E AutoRange
IERANGE	IQUANT	7	I/E Range
POSFEEDENABLE	TOGGLE	F	Positive Feedback IR Comp
POSFEEDRESISTANCE	QUANT	0	Positive Feedback Resistance (ohm)
ACHSELECT	IQUANT	0	Ach Select
CABLEID	IQUANT	14	Cable ID
DCCALDATE	LABEL	12/22/2019	DC Calibration Date
ACCALDATE	LABEL	12/22/2019	AC Calibration Date
THERMOSELECT	IQUANT	1	Thermo Select
FRAMEWORKVERSION	QUANT	6.33	Framework Version
INSTRUMENTVERSION	LABEL	3.50	Instrument Version
ZCURVE	TABLE
	Pt	Time	Freq	Zreal	Zimag	Zsig	Zmod	Zphz	Idc	Vdc	IERange
	#	s	Hz	ohm	ohm	V	ohm	°	A	V	#
	0	1	1000078	2038.834	-1972.38	1	2836.746	-44.05087	2.348203E-006	0.0134186	8
	1	1	794390.6	2439.313	-2055.965	1	3190.179	-40.12574	-1.760066E-006	0.0135325	8
	2	1	630984.4	2833.887	-2059.024	1	3502.927	-36.00111	8.609989E-007	0.0131793	8
	3	2	501234.4	3243.6	-2019.75	1	3821.038	-31.91001	-2.859893E-006	0.0137474	8
	4	2	398109.4	3604.733	-1928.389	1	4088.127	-28.14502	3.137278E-006	0.0126167	8
	5	2	316265.6	3927.042	-1818.299	1	4327.571	-24.84508	-5.621714E-007	0.0131774	8
	6	3	251203.1	4225.123	-1654.941	1	4537.675	-21.38981	-2.895082E-006	0.0137608	8
	7	3	199546.9	4448.287	-1486.054	1	4689.948	-18.4731	-2.777634E-006	0.013748	8
	8	3	158578.1	4665.039	-1347.926	1	4855.872	-16.11623	-6.867492E-007	0.0132138	8
	9	4	125953.1	4845.156	-1182.528	1	4987.375	-13.71569	2.591028E-007	0.0125333	7
	10	4	100078.1	4967.605	-1053.951	1	5078.181	-11.97852	-3.640098E-008	0.0131628	7
	11	4	79453.13	5082.609	-961.338	1	5172.726	-10.71054	-8.633408E-010	0.0131035	7
	12	5	63140.62	5178.32	-883.964	1	5253.227	-9.68729	3.192549E-008	0.0129797	7
	13	5	50203.12	5262.652	-826.0753	1	5327.092	-8.92089	-2.346016E-008	0.0131032	7
	14	5	39890.62	5339.166	-787.9449	1	5396.995	-8.395017	-2.65059E-008	0.0130897	7
	15	5	31640.63	5411.376	-768.2127	1	5465.633	-8.079865	-3.719978E-009	0.0130952	7
	16	6	25171.88	5481.748	-766.7997	1	5535.119	-7.962998	-4.773515E-010	0.0130272	7
	17	6	20015.62	5555.975	-781.5514	1	5610.676	-8.00718	-3.656661E-008	0.0131243	7
	18	6	15890.62	5629.169	-817.4677	1	5688.216	-8.262731	-3.523677E-008	0.0131409	7
	19	7	12609.37	5710.179	-870.1268	1	5776.094	-8.664178	5.432389E-008	0.0129579	7
	20	7	10078.13	5793.747	-937.3567	1	5869.083	-9.190118	-3.58259E-008	0.0131391	7
	21	7	8015.625	5887.705	-1021.082	1	5975.59	-9.83873	1.979575E-008	0.0129985	7
	22	8	6328.125	5991.85	-1131.824	1	6097.811	-10.69679	-1.340219E-008	0.0130615	7
	23	8	5015.625	6102.937	-1264.361	1	6232.531	-11.70453	-9.473198E-009	0.0130959	7
	24	8	3984.375	6226.547	-1420.639	1	6386.556	-12.85251	-8.744988E-009	0.0130986	7
	25	9	3170.956	6343.25	-1599.608	1	6541.832	-14.15347	-2.226431E-008	0.0130907	7
	26	9	2527.573	6471.115	-1820.567	1	6722.336	-15.71328	2.261226E-008	0.0130374	7
	27	9	1976.103	6618.875	-2116.529	1	6949.042	-17.7328	-3.528563E-008	0.0131289	7
	28	10	1577.524	6782.44	-2447.603	1	7210.565	-19.84317	7.591225E-010	0.0130802	7
	29	10	1265.625	6907.1	-2847.835	1	7471.157	-22.40662	5.224816E-008	0.0129674	7
	30	10	998.264	7078.588	-3381.862	1	7844.96	-25.53658	-2.86192E-008	0.0130842	7
	31	11	796.875	7263.575	-4011.992	1	8297.928	-28.9138	-3.485276E-008	0.0131307	7
	32	11	627.7902	7485.535	-4827.793	1	8907.346	-32.81998	-7.021992E-010	0.0130196	7
	33	11	505.5147	7724.262	-5748.132	1	9628.36	-36.65536	2.903178E-009	0.012922	6
	34	12	397.9953	8036.539	-6995.218	1	10654.53	-41.03718	-3.253418E-010	0.0130631	6
	35	12	315.5048	8406.656	-8489.058	1	11947.22	-45.27943	3.466122E-010	0.0130702	6
	36	12	252.4038	8845.093	-10243.35	1	13533.73	-49.18951	5.395966E-010	0.0130642	6
	37	13	198.6229	9436.141	-12547.74	1	15699.89	-53.05614	6.366829E-010	0.0130636	6
	38	13	158.3615	10130.31	-15219.56	1	18282.73	-56.35181	4.620313E-010	0.0130664	6
	39	13	125.558	11041.59	-18526.68	1	21567.45	-59.20577	5.994199E-010	0.0130661	6
	40	13	100.4464	12144.67	-22343.61	1	25430.89	-61.4741	-2.929741E-010	0.0130717	6
	41	14	79.00281	13693.18	-27422.68	1	30651.38	-63.46531	3.093748E-010	0.0130653	6
	42	14	63.3446	15231.6	-32657.13	1	36034.57	-64.9952	-2.984627E-010	0.0130633	6
	43	15	49.86702	17698.72	-39842.98	1	43597.11	-66.04865	-1.288241E-010	0.0130662	6
	44	15	39.72458	20654.11	-48227.73	1	52464.33	-66.81638	4.20861E-010	0.0130658	6
	45	15	31.6723	24268.08	-57998.04	1	62870.59	-67.29414	1.530872E-010	0.0130657	6
	46	16	24.93351	28986.25	-70116.99	1	75872.23	-67.53988	7.715534E-010	0.0130646	6
	47	16	19.86229	34636.48	-83979.52	1	90841.88	-67.58681	1.604378E-009	0.0130669	6
	48	16	15.83615	41984.71	-101112.7	1	109482.8	-67.45046	-1.631639E-009	0.0130613	5
	49	16	12.40079	52290.95	-121598.8	1	132365.5	-66.73093	-3.158494E-010	0.0130627	5
	50	17	9.93114	63158.47	-143234	1	156540.6	-66.2051	1.293411E-010	0.0130648	5
	51	17	7.944915	77629.96	-167995.7	1	185064.8	-65.19859	7.662668E-010	0.0130566	5
	52	18	6.317385	96286.5	-197216.5	1	219466.2	-63.9771	4.102923E-010	0.0130442	5
	53	19	5.008013	119123.9	-230372.9	1	259349.5	-62.65689	7.579369E-011	0.0130569	5
	54	20	3.945707	146395.5	-267738.6	1	305148.5	-61.33082	-9.244866E-011	0.0130621	5
	55	21	3.158693	175796.9	-306670.1	1	353484.3	-60.17675	-3.247243E-010	0.0130459	5
	56	23	2.504006	211081.6	-351777.1	1	410246.9	-59.0344	-1.081208E-010	0.0130445	5
	57	24	1.998082	247934.4	-401239	1	471661.1	-58.28717	-4.874266E-011	0.0130748	5
	58	26	1.584686	290345.7	-458277.8	1	542511.9	-57.64336	-2.030415E-010	0.0130227	5
	59	28	1.266892	336859.5	-523059.2	1	622145.7	-57.21774	-1.779928E-010	0.0130051	5
	60	30	0.999041	391298.2	-605635.4	1	721046.8	-57.13369	-2.21467E-010	0.0130131	5
