EXPLAIN
TAG	EISPOT
TITLE	LABEL	Potentiostatic EIS	Test &Identifier
DATE	LABEL	1/25/2020	Date
TIME	LABEL	12:47:30	Time
NOTES	NOTES	6	&Notes...
	
	
	
	
	
	
PSTAT	PSTAT	REF600-11020	Potentiostat
VDC	POTEN	0.00000E+000	T	DC &Voltage (V)
FREQINIT	QUANT	1.00000E+006	Initial Fre&q. (Hz)
FREQFINAL	QUANT	1.00000E+000	Final Fre&q. (Hz)
PTSPERDEC	QUANT	1.00000E+001	Points/&decade
VAC	QUANT	2.50000E+001	AC &Voltage (mV rms)
AREA	QUANT	1.00000E-001	&Area (cm^2)
CONDIT	TWOPARAM	F	5.00000E+000	0.00000E+000	Conditionin&g	Time(s)	E(V)
DELAY	TWOPARAM	F	5.00000E+000	0.00000E+000	Init. De&lay	Time(s)	Stab.(mV/s)
SPEED	SELECTOR	0	&Optimize for:
ZGUESS	QUANT	5.00000E+002	E&stimated Z (ohms)
OCVCURVE	TABLE	39
	Pt	T	Vf	Vm	Ach	Over
	#	s	V vs. Ref.	V	V	bits
	0	0.258333	3.30451E-002	3.30451E-002	6.55446E-004	...........
	1	0.516667	3.30453E-002	3.30572E-002	6.52113E-004	...........
	2	0.775	3.30464E-002	3.30527E-002	6.50646E-004	...........
	3	1.03333	3.30488E-002	3.30599E-002	6.50713E-004	...........
	4	1.29167	3.30522E-002	3.30733E-002	6.50713E-004	...........
	5	1.55	3.30567E-002	3.30803E-002	6.51880E-004	...........
	6	1.80833	3.30629E-002	3.30877E-002	6.49046E-004	...........
	7	2.06667	3.30705E-002	3.30871E-002	6.48180E-004	...........
	8	2.325	3.30778E-002	3.30904E-002	6.48846E-004	...........
	9	2.58333	3.30836E-002	3.30931E-002	6.50513E-004	...........
	10	2.84167	3.30876E-002	3.30983E-002	6.47046E-004	...........
	11	3.1	3.30909E-002	3.31058E-002	6.45646E-004	...........
	12	3.35833	3.30945E-002	3.31103E-002	6.49246E-004	...........
	13	3.61667	3.30991E-002	3.31164E-002	6.46613E-004	...........
	14	3.875	3.31045E-002	3.31236E-002	6.46880E-004	...........
	15	4.13333	3.31102E-002	3.31239E-002	6.45446E-004	...........
	16	4.39167	3.31157E-002	3.31278E-002	6.51513E-004	...........
	17	4.65	3.31205E-002	3.31344E-002	6.45946E-004	...........
	18	4.90833	3.31248E-002	3.31400E-002	6.47080E-004	...........
	19	5.16667	3.31292E-002	3.31476E-002	6.50613E-004	...........
	20	5.425	3.31343E-002	3.31501E-002	6.47546E-004	...........
	21	5.68333	3.31397E-002	3.31537E-002	6.52413E-004	...........
	22	5.94167	3.31450E-002	3.31578E-002	6.50180E-004	...........
	23	6.2	3.31496E-002	3.31590E-002	6.47446E-004	...........
	24	6.45833	3.31533E-002	3.31599E-002	6.50580E-004	...........
	25	6.71667	3.31563E-002	3.31623E-002	6.50146E-004	...........
	26	6.975	3.31585E-002	3.31642E-002	6.46713E-004	...........
	27	7.23333	3.31604E-002	3.31637E-002	6.52113E-004	...........
	28	7.49167	3.31622E-002	3.31801E-002	6.54680E-004	...........
	29	7.75	3.31650E-002	3.31861E-002	6.46313E-004	...........
	30	8.00833	3.31698E-002	3.31868E-002	6.51413E-004	...........
	31	8.26667	3.31759E-002	3.31816E-002	6.46780E-004	...........
	32	8.525	3.31808E-002	3.31788E-002	6.51280E-004	...........
	33	8.78333	3.31832E-002	3.31925E-002	6.54313E-004	...........
	34	9.04167	3.31837E-002	3.31778E-002	6.52346E-004	...........
	35	9.3	3.31835E-002	3.31613E-002	6.50980E-004	...........
	36	9.5583	3.31808E-002	3.31455E-002	6.56446E-004	...........
	37	9.8167	3.31736E-002	3.31264E-002	6.51346E-004	...........
	38	10.075	3.31617E-002	3.31200E-002	6.48880E-004	...........
EOC	QUANT	0.0331617	Open Circuit (V)
PSTATMODEL	IQUANT	4	Pstat Model
PSTATSECTION	LABEL	REF600-11020	Pstat Section
PSTATSERIALNO	LABEL	11020	Pstat Serial Number
CTRLMODE	IQUANT	1	Control Mode
IESTAB	IQUANT	0	I/E Stability
CASPEED	IQUANT	1	Control Amp Speed
CONVENTION	IQUANT	1	Current Convention
ICHRANGE	IQUANT	2	Ich Range
ICHRANGEMODE	TOGGLE	F	Ich Auto Range
ICHOFFSETENABLE	TOGGLE	T	Ich Offset Enable
ICHOFFSET	QUANT	0	Ich Offset (V)
ICHFILTER	IQUANT	3	Ich Filter
VCHRANGE	IQUANT	2	Vch Range
VCHRANGEMODE	TOGGLE	F	Vch Auto Range
VCHOFFSETENABLE	TOGGLE	T	Vch Offset Enable
VCHOFFSET	QUANT	0	Vch Offset (V)
VCHFILTER	IQUANT	3	Vch Filter
ACHRANGE	IQUANT	2	Ach Range
ACHOFFSETENABLE	TOGGLE	F	Ach Offset Enable
ACHOFFSET	QUANT	0	Ach Offset (V)
ACHFILTER	IQUANT	3	Ach Filter
IERANGELOWERLIMIT	IQUANT	1	I/E Range Lower Limit
IERANGEMODE	TOGGLE	F	I/E AutoRange
IERANGE	IQUANT	8	I/E Range
POSFEEDENABLE	TOGGLE	F	Positive Feedback IR Comp
POSFEEDRESISTANCE	QUANT	0	Positive Feedback Resistance (ohm)
ACHSELECT	IQUANT	0	Ach Select
CABLEID	IQUANT	14	Cable ID
DCCALDATE	LABEL	12/22/2019	DC Calibration Date
ACCALDATE	LABEL	12/22/2019	AC Calibration Date
THERMOSELECT	IQUANT	1	Thermo Select
FRAMEWORKVERSION	QUANT	6.33	Framework Version
INSTRUMENTVERSION	LABEL	3.50	Instrument Version
ZCURVE	TABLE
	Pt	Time	Freq	Zreal	Zimag	Zsig	Zmod	Zphz	Idc	Vdc	IERange
	#	s	Hz	ohm	ohm	V	ohm	°	A	V	#
	0	1	1000078	2022.893	-1360.667	1	2437.931	-33.92614	6.491532E-007	0.0351843	8
	1	1	794390.6	2280.197	-1300.882	1	2625.184	-29.70532	-2.932282E-006	0.0357185	8
	2	2	630984.4	2522.345	-1204.858	1	2795.336	-25.53259	4.607558E-006	0.034377	8
	3	2	501234.4	2718.127	-1108.199	1	2935.357	-22.18107	-1.725828E-006	0.0351588	8
	4	2	398109.4	2880.063	-995.062	1	3047.115	-19.06004	-2.011707E-006	0.0352553	8
	5	3	316265.6	3013.286	-886.8638	1	3141.086	-16.40009	1.751421E-006	0.0345377	8
	6	3	251203.1	3110.972	-782.125	1	3207.782	-14.11217	-1.030224E-006	0.0350535	8
	7	3	199546.9	3189.949	-707.8588	1	3267.544	-12.51137	-2.55221E-006	0.0353984	8
	8	3	158578.1	3246.831	-641.7571	1	3309.647	-11.18076	-6.637806E-007	0.0350398	8
	9	4	125953.1	3323.774	-574.8109	1	3373.111	-9.81164	4.309345E-007	0.0337351	7
	10	4	100078.1	3368.79	-541.3381	1	3412.007	-9.128941	-1.765161E-008	0.0348652	7
	11	4	79453.13	3415.985	-533.5193	1	3457.398	-8.87692	-1.153669E-008	0.0347869	7
	12	5	63140.62	3462.885	-538.5322	1	3504.51	-8.839572	-3.495081E-008	0.0348545	7
	13	5	50203.12	3511.545	-555.1501	1	3555.156	-8.983701	-3.47586E-008	0.0348494	7
	14	5	39890.62	3562.214	-584.9287	1	3609.918	-9.324965	-3.366159E-008	0.0348311	7
	15	6	31640.63	3616.896	-628.5943	1	3671.113	-9.85918	-2.396179E-008	0.0347993	7
	16	6	25171.88	3677.041	-685.8552	1	3740.458	-10.56561	-2.402117E-008	0.0347976	7
	17	6	20015.62	3744.168	-759.0905	1	3820.342	-11.46077	-1.671239E-008	0.0348457	7
	18	7	15890.62	3818.271	-848.2577	1	3911.36	-12.52528	7.967889E-008	0.0346666	7
	19	7	12609.37	3903.309	-955.841	1	4018.638	-13.75979	2.954344E-009	0.0347896	7
	20	7	10078.13	3996.233	-1080.951	1	4139.847	-15.13587	-1.587475E-008	0.0348445	7
	21	8	8015.625	4101.898	-1228.66	1	4281.959	-16.67477	3.12551E-008	0.0346976	7
	22	8	6328.125	4227.3	-1411.525	1	4456.733	-18.46453	-7.06418E-009	0.0348084	7
	23	8	5015.625	4366.337	-1621.625	1	4657.743	-20.37462	-3.310681E-008	0.0348484	7
	24	9	3984.375	4523.417	-1865.009	1	4892.807	-22.40639	-2.664967E-008	0.0348165	7
	25	9	3170.956	4698.96	-2148.662	1	5166.911	-24.57288	5.238923E-008	0.0346875	7
	26	9	2527.573	4897.965	-2475.869	1	5488.168	-26.81611	-2.566672E-008	0.0348195	7
	27	9	1976.103	5142.997	-2900.152	1	5904.345	-29.41879	3.15114E-008	0.034693	7
	28	10	1577.524	5399.503	-3359.957	1	6359.555	-31.89282	-1.563482E-008	0.0348432	7
	29	10	1265.625	5680.185	-3882.154	1	6880.088	-34.35087	3.17796E-008	0.0346884	7
	30	10	998.264	6033.4	-4557.375	1	7561.189	-37.06586	-6.600236E-009	0.0348017	7
	31	11	796.875	6415.558	-5311.086	1	8328.687	-39.61948	3.461093E-008	0.0347708	7
	32	11	627.7902	6877.465	-6258.218	1	9298.646	-42.30094	-3.187851E-008	0.0348394	7
	33	11	505.5147	7369.468	-7272.004	1	10353.31	-44.6186	-8.718373E-010	0.0347898	6
	34	12	397.9953	7999.044	-8608.433	1	11751.16	-47.10145	4.12244E-010	0.034783	6
	35	12	315.5048	8713.758	-10154.99	1	13381.08	-49.36789	5.828906E-010	0.0347861	6
	36	12	252.4038	9516.15	-11913.65	1	15247.69	-51.38352	2.520777E-010	0.0347881	6
	37	13	198.6229	10526.39	-14151.82	1	17637.43	-53.35744	4.216237E-010	0.0347863	6
	38	13	158.3615	11647.79	-16660.07	1	20328.03	-55.04091	4.548833E-010	0.0347788	6
	39	13	125.558	12976.74	-19687.8	1	23579.76	-56.61008	5.410883E-010	0.0347779	6
	40	14	100.4464	14429.46	-23126.36	1	27258.72	-58.03831	1.108669E-011	0.0347785	6
	41	14	79.00281	16183.49	-27503.13	1	31911.24	-59.52645	2.281125E-010	0.0347763	6
	42	14	63.3446	18202.88	-32345.62	1	37115.82	-60.63086	3.225556E-010	0.0347769	6
	43	15	49.86702	20354.02	-38724.98	1	43748.26	-62.27338	7.3222E-010	0.0347712	6
	44	15	39.72458	22621.93	-46000.12	1	51261.71	-63.81297	4.487926E-010	0.0347798	6
	45	15	31.6723	25258.41	-54855.66	1	60391.47	-65.27619	2.919436E-010	0.0347775	6
	46	16	24.93351	28516.12	-66483.06	1	72340.63	-66.78439	4.957088E-010	0.0347813	6
	47	16	19.86229	32234.98	-80086.55	1	86330.47	-68.07513	1.186044E-009	0.0347857	6
	48	16	15.83615	36918.05	-96412.1	1	103238.7	-69.04719	-2.407816E-010	0.0347794	6
	49	16	12.40079	42495.48	-118226.5	1	125631.9	-70.22948	3.606601E-010	0.0347743	5
	50	17	9.93114	50049.39	-142782.8	1	151300.6	-70.68299	-4.803053E-011	0.0347811	5
	51	17	7.944915	58376.36	-171926.6	1	181567	-71.24548	-9.824856E-010	0.0347795	5
	52	18	6.317385	71695.41	-208314.4	1	220306.8	-71.00811	1.115195E-010	0.0347648	5
	53	18	5.008013	88124.34	-252593.8	1	267524.8	-70.76726	1.552278E-010	0.0347767	5
	54	19	3.945707	110041.2	-306209.2	1	325381.5	-70.23328	6.127138E-011	0.0347776	5
	55	21	3.158693	136290.5	-365962.1	1	390516.7	-69.57381	-9.304618E-011	0.034769	5
	56	22	2.504006	171917.8	-437896	1	470434.5	-68.56505	5.213628E-011	0.0347628	5
	57	24	1.998082	214997.3	-518546.1	1	561350	-67.48034	1.396053E-010	0.034802	5
	58	25	1.584686	271113.6	-611508.4	1	668913.4	-66.08979	5.003351E-011	0.0347548	5
	59	27	1.266892	339638.5	-714819.7	1	791404.8	-64.58579	1.492083E-011	0.0347258	5
	60	30	0.999041	426945.6	-838014.9	1	940505.9	-63.00241	-1.395098E-012	0.0347224	5
