EXPLAIN
TAG	EISPOT
TITLE	LABEL	Potentiostatic EIS	Test &Identifier
DATE	LABEL	9/1/2020	Date
TIME	LABEL	20:53:15	Time
NOTES	NOTES	1	&Notes...
	
PSTAT	PSTAT	REF600-11020	Potentiostat
VDC	POTEN	0.00000E+000	T	DC &Voltage (V)
FREQINIT	QUANT	1.00000E+006	Initial Fre&q. (Hz)
FREQFINAL	QUANT	1.00000E+000	Final Fre&q. (Hz)
PTSPERDEC	QUANT	1.00000E+001	Points/&decade
VAC	QUANT	2.50000E+001	AC &Voltage (mV rms)
AREA	QUANT	4.00000E-005	&Area (cm^2)
CONDIT	TWOPARAM	F	5.00000E+000	0.00000E+000	Conditionin&g	Time(s)	E(V)
DELAY	TWOPARAM	F	3.00000E+000	0.00000E+000	Init. De&lay	Time(s)	Stab.(mV/s)
SPEED	SELECTOR	0	&Optimize for:
ZGUESS	QUANT	1.00000E+003	E&stimated Z (ohms)
OCVCURVE	TABLE	39
	Pt	T	Vf	Vm	Ach	Over
	#	s	V vs. Ref.	V	V	bits
	0	0.258333	2.30657E-001	2.30657E-001	5.69992E-004	...........
	1	0.516667	2.30659E-001	2.30721E-001	5.66025E-004	...........
	2	0.775	2.30666E-001	2.30778E-001	5.64725E-004	...........
	3	1.03333	2.30687E-001	2.30827E-001	5.67725E-004	...........
	4	1.29167	2.30722E-001	2.30865E-001	5.69825E-004	...........
	5	1.55	2.30768E-001	2.30902E-001	5.67558E-004	...........
	6	1.80833	2.30815E-001	2.30936E-001	5.67525E-004	...........
	7	2.06667	2.30858E-001	2.30963E-001	5.69992E-004	...........
	8	2.325	2.30896E-001	2.30988E-001	5.66958E-004	...........
	9	2.58333	2.30929E-001	2.31010E-001	5.67292E-004	...........
	10	2.84167	2.30958E-001	2.31026E-001	5.59725E-004	...........
	11	3.1	2.30983E-001	2.31040E-001	5.67892E-004	...........
	12	3.35833	2.31005E-001	2.31047E-001	5.67925E-004	...........
	13	3.61667	2.31022E-001	2.31047E-001	5.68692E-004	...........
	14	3.875	2.31035E-001	2.31054E-001	5.68925E-004	...........
	15	4.13333	2.31043E-001	2.31058E-001	5.73392E-004	...........
	16	4.39167	2.31049E-001	2.31059E-001	5.72192E-004	...........
	17	4.65	2.31053E-001	2.31063E-001	5.68392E-004	...........
	18	4.90833	2.31057E-001	2.31064E-001	5.72125E-004	...........
	19	5.16667	2.31060E-001	2.31064E-001	5.74392E-004	...........
	20	5.425	2.31062E-001	2.31063E-001	5.73192E-004	...........
	21	5.68333	2.31063E-001	2.31068E-001	5.67658E-004	...........
	22	5.94167	2.31065E-001	2.31081E-001	5.68592E-004	...........
	23	6.2	2.31067E-001	2.31082E-001	5.64992E-004	...........
	24	6.45833	2.31071E-001	2.31084E-001	5.64258E-004	...........
	25	6.71667	2.31076E-001	2.31094E-001	5.68958E-004	...........
	26	6.975	2.31082E-001	2.31105E-001	5.67658E-004	...........
	27	7.23333	2.31088E-001	2.31124E-001	5.70392E-004	...........
	28	7.49167	2.31096E-001	2.31142E-001	5.71092E-004	...........
	29	7.75	2.31108E-001	2.31164E-001	5.66859E-004	...........
	30	8.00833	2.31124E-001	2.31194E-001	5.73158E-004	...........
	31	8.26667	2.31144E-001	2.31275E-001	5.67492E-004	...........
	32	8.525	2.31175E-001	2.31424E-001	5.69058E-004	...........
	33	8.78333	2.31227E-001	2.31599E-001	5.67292E-004	...........
	34	9.04167	2.31314E-001	2.31788E-001	5.69458E-004	...........
	35	9.3	2.31439E-001	2.31996E-001	5.69825E-004	...........
	36	9.5583	2.31598E-001	2.32200E-001	5.71492E-004	...........
	37	9.8167	2.31782E-001	2.32405E-001	5.67558E-004	...........
	38	10.075	2.31979E-001	2.32607E-001	5.64392E-004	...........
EOC	QUANT	0.2319789	Open Circuit (V)
PSTATMODEL	IQUANT	4	Pstat Model
PSTATSECTION	LABEL	REF600-11020	Pstat Section
PSTATSERIALNO	LABEL	11020	Pstat Serial Number
CTRLMODE	IQUANT	1	Control Mode
IESTAB	IQUANT	0	I/E Stability
CASPEED	IQUANT	1	Control Amp Speed
CONVENTION	IQUANT	1	Current Convention
ICHRANGE	IQUANT	2	Ich Range
ICHRANGEMODE	TOGGLE	F	Ich Auto Range
ICHOFFSETENABLE	TOGGLE	T	Ich Offset Enable
ICHOFFSET	QUANT	0	Ich Offset (V)
ICHFILTER	IQUANT	3	Ich Filter
VCHRANGE	IQUANT	2	Vch Range
VCHRANGEMODE	TOGGLE	F	Vch Auto Range
VCHOFFSETENABLE	TOGGLE	T	Vch Offset Enable
VCHOFFSET	QUANT	0	Vch Offset (V)
VCHFILTER	IQUANT	3	Vch Filter
ACHRANGE	IQUANT	2	Ach Range
ACHOFFSETENABLE	TOGGLE	F	Ach Offset Enable
ACHOFFSET	QUANT	0	Ach Offset (V)
ACHFILTER	IQUANT	3	Ach Filter
IERANGELOWERLIMIT	IQUANT	1	I/E Range Lower Limit
IERANGEMODE	TOGGLE	F	I/E AutoRange
IERANGE	IQUANT	8	I/E Range
POSFEEDENABLE	TOGGLE	F	Positive Feedback IR Comp
POSFEEDRESISTANCE	QUANT	0	Positive Feedback Resistance (ohm)
ACHSELECT	IQUANT	0	Ach Select
CABLEID	IQUANT	14	Cable ID
DCCALDATE	LABEL	9/1/2020	DC Calibration Date
ACCALDATE	LABEL	9/1/2020	AC Calibration Date
THERMOSELECT	IQUANT	1	Thermo Select
FRAMEWORKVERSION	QUANT	6.33	Framework Version
INSTRUMENTVERSION	LABEL	3.50	Instrument Version
ZCURVE	TABLE
	Pt	Time	Freq	Zreal	Zimag	Zsig	Zmod	Zphz	Idc	Vdc	IERange
	#	s	Hz	ohm	ohm	V	ohm	°	A	V	#
	0	2	1000078	1869.584	-2230.198	1	2910.176	-50.02676	6.038307E-008	0.2340476	8
	1	2	794390.6	2277.608	-2430.88	1	3331.167	-46.86444	7.340905E-008	0.2337426	8
	2	2	630984.4	2730.739	-2589.947	1	3763.61	-43.48424	7.256957E-008	0.2336204	8
	3	2	501234.4	3209.934	-2694.892	1	4191.195	-40.01505	6.140015E-008	0.2335237	8
	4	3	398109.4	3700.908	-2742.296	1	4606.181	-36.53768	8.702933E-008	0.2334877	8
	5	3	316265.6	4174.053	-2747.805	1	4997.314	-33.35716	8.466296E-008	0.233464	8
	6	3	251203.1	4619.976	-2706.545	1	5354.396	-30.36328	6.763604E-008	0.2334604	8
	7	4	199546.9	5038.45	-2654.04	1	5694.727	-27.77834	3.587993E-008	0.2334667	8
	8	4	158578.1	5412.951	-2595.335	1	6002.983	-25.61621	7.016487E-008	0.2334648	8
	9	4	125953.1	5779.474	-2535.001	1	6310.986	-23.68329	6.189233E-009	0.2334659	7
	10	5	100078.1	6092.918	-2508.708	1	6589.178	-22.37901	4.096994E-009	0.2334227	7
	11	5	79453.13	6380.621	-2526.252	1	6862.527	-21.59989	3.574743E-009	0.2334216	7
	12	5	63140.62	6658.736	-2586.08	1	7143.289	-21.22487	3.4283E-009	0.23342	7
	13	6	50203.12	6931.91	-2691.975	1	7436.27	-21.22345	4.779118E-009	0.2334155	7
	14	6	39890.62	7207.755	-2846.008	1	7749.29	-21.54676	3.684601E-009	0.233413	7
	15	6	31640.63	7498.551	-3063.672	1	8100.269	-22.22338	4.42502E-009	0.2334171	7
	16	7	25171.88	7799.644	-3337.952	1	8483.889	-23.16909	4.460174E-009	0.2334106	7
	17	7	20015.62	8128.264	-3689.198	1	8926.302	-24.41201	4.490799E-009	0.2334103	7
	18	7	15890.62	8489.573	-4122.946	1	9437.772	-25.90345	5.156835E-009	0.2334075	7
	19	8	12609.37	8920.421	-4627.291	1	10049.17	-27.41713	7.539946E-010	0.2334017	6
	20	8	10078.13	9358.72	-5245.45	1	10728.48	-29.27011	8.821415E-010	0.2334078	6
	21	8	8015.625	9871.79	-5995.986	1	11550.07	-31.2739	9.923129E-010	0.2334087	6
	22	9	6328.125	10478.31	-6913.626	1	12553.61	-33.41698	8.607396E-010	0.2334075	6
	23	9	5015.625	11182.51	-7982.553	1	13739.35	-35.52087	7.466537E-010	0.2334017	6
	24	9	3984.375	11995.6	-9216.58	1	15127.45	-37.53614	4.495901E-010	0.2333989	6
	25	9	3170.956	12942.49	-10641.83	1	16755.8	-39.42841	7.650934E-010	0.2334025	6
	26	10	2527.573	14054.74	-12276.18	1	18661.2	-41.13573	6.100793E-010	0.2334012	6
	27	10	1976.103	15491.57	-14328.81	1	21102.21	-42.76705	8.841702E-010	0.2334002	6
	28	10	1577.524	17044.01	-16481.83	1	23709.68	-44.03933	6.621159E-010	0.2334007	6
	29	11	1265.625	18840.19	-18873.36	1	26667.52	-45.05039	8.987067E-010	0.2333994	6
	30	11	998.264	21115.28	-21773.61	1	30330.6	-45.8794	7.016157E-010	0.2333934	6
	31	11	796.875	23664.96	-24882.95	1	34339.36	-46.43715	4.995938E-010	0.2333845	6
	32	12	627.7902	26828.26	-28583.58	1	39201.74	-46.81439	8.55627E-010	0.2333948	6
	33	12	505.5147	30148.03	-32289.57	1	44176.01	-46.96441	5.72104E-010	0.2333932	6
	34	12	397.9953	34473.92	-36802.83	1	50427.17	-46.87143	6.29368E-010	0.233413	6
	35	13	315.5048	39305.21	-41618.88	1	57245.36	-46.63768	6.518453E-010	0.2334114	6
	36	13	252.4038	44626.07	-46661.8	1	64566.32	-46.27749	6.485276E-010	0.2334085	6
	37	13	198.6229	51140.68	-52524.84	1	73309.13	-45.76498	7.277337E-010	0.2334092	6
	38	14	158.3615	58133.79	-58516.89	1	82484.94	-45.18817	6.599941E-010	0.2334152	6
	39	14	125.558	66210.48	-65103.05	1	92855.99	-44.5168	5.449411E-010	0.2334142	6
	40	14	100.4464	74936.09	-71766.52	1	103758.6	-43.7623	2.564568E-010	0.2334004	5
	41	15	79.00281	85344.37	-79551.1	1	116670.6	-42.98786	2.064035E-010	0.2333979	5
	42	15	63.3446	95933.6	-87153.9	1	129611.2	-42.25456	5.692169E-011	0.2333935	5
	43	15	49.86702	108561.4	-95887.2	1	144844.5	-41.45266	-6.108828E-011	0.2333948	5
	44	16	39.72458	121688.5	-104712.3	1	160538.9	-40.71184	-1.617555E-010	0.233394	5
	45	16	31.6723	135897.7	-114022	1	177395.6	-39.99759	-8.212118E-011	0.2333962	5
	46	16	24.93351	152082.2	-124465.9	1	196521.6	-39.2973	6.729465E-010	0.2333935	5
	47	17	19.86229	168603.2	-135611.6	1	216373.6	-38.81056	1.729252E-009	0.2333984	5
	48	17	15.83615	186604.3	-146992.8	1	237545.9	-38.22836	-9.367065E-010	0.2333959	5
	49	17	12.40079	206920.6	-160775.3	1	262039.8	-37.84685	-1.005824E-009	0.2333944	5
	50	17	9.93114	226014.8	-174257.2	1	285391.4	-37.63218	-1.312346E-009	0.2333969	5
	51	18	7.944915	246772.2	-191055.5	1	312087.7	-37.74768	-6.40071E-010	0.2333958	5
	52	18	6.317385	269858.2	-209567.1	1	341675	-37.83228	3.150698E-010	0.2333839	5
	53	19	5.008013	294998.6	-231199.5	1	374803.2	-38.08689	1.516876E-011	0.2333868	5
	54	20	3.945707	323255.7	-257852.6	1	413500	-38.57845	-2.916044E-010	0.2333932	5
	55	21	3.158693	351882.3	-285541.9	1	453161.5	-39.05829	7.631118E-011	0.2333824	5
	56	22	2.504006	385595.2	-319703.9	1	500893.5	-39.66274	3.517362E-010	0.2333894	5
	57	23	1.998082	420883.8	-356718.3	1	551716.5	-40.28281	2.490891E-011	0.2333613	5
	58	25	1.584686	463201.1	-402076.9	1	613368.6	-40.95927	-1.625873E-010	0.2333449	5
	59	27	1.266892	506942	-451603.3	1	678922.5	-41.69587	-1.337971E-010	0.2333658	5
	60	29	0.999041	559671.4	-510254.1	1	757358.1	-42.35553	-1.015655E-010	0.2333984	5
