EXPLAIN
TAG	EISPOT
TITLE	LABEL	Potentiostatic EIS	Test &Identifier
DATE	LABEL	2/11/2020	Date
TIME	LABEL	12:55:45	Time
NOTES	NOTES	6	&Notes...
	
	
	
	
	
	
PSTAT	PSTAT	REF600-11020	Potentiostat
VDC	POTEN	0.00000E+000	T	DC &Voltage (V)
FREQINIT	QUANT	1.00000E+006	Initial Fre&q. (Hz)
FREQFINAL	QUANT	1.00000E+000	Final Fre&q. (Hz)
PTSPERDEC	QUANT	1.00000E+001	Points/&decade
VAC	QUANT	2.50000E+001	AC &Voltage (mV rms)
AREA	QUANT	4.00000E-005	&Area (cm^2)
CONDIT	TWOPARAM	F	5.00000E+000	0.00000E+000	Conditionin&g	Time(s)	E(V)
DELAY	TWOPARAM	F	5.00000E+000	0.00000E+000	Init. De&lay	Time(s)	Stab.(mV/s)
SPEED	SELECTOR	0	&Optimize for:
ZGUESS	QUANT	1.00000E+003	E&stimated Z (ohms)
OCVCURVE	TABLE	39
	Pt	T	Vf	Vm	Ach	Over
	#	s	V vs. Ref.	V	V	bits
	0	0.258333	-8.42401E-003	-8.42401E-003	5.72438E-004	...........
	1	0.516667	-8.41810E-003	-8.11476E-003	5.72771E-004	...........
	2	0.775	-8.38091E-003	-7.77403E-003	5.68538E-004	...........
	3	1.03333	-8.27345E-003	-7.48672E-003	5.73737E-004	...........
	4	1.29167	-8.07915E-003	-7.23731E-003	5.72671E-004	...........
	5	1.55	-7.82296E-003	-7.01227E-003	5.72138E-004	...........
	6	1.80833	-7.54808E-003	-6.80923E-003	5.70271E-004	...........
	7	2.06667	-7.28488E-003	-6.55492E-003	5.67371E-004	...........
	8	2.325	-7.04182E-003	-6.39780E-003	5.71204E-004	...........
	9	2.58333	-6.81564E-003	-6.17581E-003	5.76471E-004	...........
	10	2.84167	-6.60157E-003	-5.95182E-003	5.77637E-004	...........
	11	3.1	-6.39390E-003	-5.77041E-003	5.78604E-004	...........
	12	3.35833	-6.18868E-003	-5.60308E-003	5.78304E-004	...........
	13	3.61667	-5.98843E-003	-5.42925E-003	5.75238E-004	...........
	14	3.875	-5.79890E-003	-5.31842E-003	5.76171E-004	...........
	15	4.13333	-5.62518E-003	-5.20825E-003	5.73771E-004	...........
	16	4.39167	-5.47163E-003	-5.12265E-003	5.74371E-004	...........
	17	4.65	-5.33998E-003	-5.02217E-003	5.75704E-004	...........
	18	4.90833	-5.22667E-003	-4.91816E-003	5.76371E-004	...........
	19	5.16667	-5.12450E-003	-4.83561E-003	5.73038E-004	...........
	20	5.425	-5.02768E-003	-4.75694E-003	5.71238E-004	...........
	21	5.68333	-4.93503E-003	-4.68167E-003	5.72538E-004	...........
	22	5.94167	-4.84768E-003	-4.60634E-003	5.71438E-004	...........
	23	6.2	-4.76569E-003	-4.52863E-003	5.72204E-004	...........
	24	6.45833	-4.68752E-003	-4.45779E-003	5.74238E-004	...........
	25	6.71667	-4.61179E-003	-4.39920E-003	5.68138E-004	...........
	26	6.975	-4.53789E-003	-4.29003E-003	5.65704E-004	...........
	27	7.23333	-4.46357E-003	-4.20230E-003	5.68871E-004	...........
	28	7.49167	-4.38449E-003	-4.09839E-003	5.69938E-004	...........
	29	7.75	-4.29800E-003	-4.00145E-003	5.71271E-004	...........
	30	8.00833	-4.20622E-003	-3.96641E-003	5.73304E-004	...........
	31	8.26667	-4.11613E-003	-3.89537E-003	5.73538E-004	...........
	32	8.525	-4.03540E-003	-3.85086E-003	5.72404E-004	...........
	33	8.78333	-3.96637E-003	-3.78909E-003	5.74738E-004	...........
	34	9.04167	-3.90625E-003	-3.75341E-003	5.69604E-004	...........
	35	9.3	-3.85185E-003	-3.70503E-003	5.76338E-004	...........
	36	9.5583	-3.80114E-003	-3.63732E-003	5.73438E-004	...........
	37	9.8167	-3.75067E-003	-3.54362E-003	5.69171E-004	...........
	38	10.075	-3.69718E-003	-3.60556E-003	5.68504E-004	...........
EOC	QUANT	-0.0036972	Open Circuit (V)
PSTATMODEL	IQUANT	4	Pstat Model
PSTATSECTION	LABEL	REF600-11020	Pstat Section
PSTATSERIALNO	LABEL	11020	Pstat Serial Number
CTRLMODE	IQUANT	1	Control Mode
IESTAB	IQUANT	0	I/E Stability
CASPEED	IQUANT	1	Control Amp Speed
CONVENTION	IQUANT	1	Current Convention
ICHRANGE	IQUANT	2	Ich Range
ICHRANGEMODE	TOGGLE	F	Ich Auto Range
ICHOFFSETENABLE	TOGGLE	T	Ich Offset Enable
ICHOFFSET	QUANT	0	Ich Offset (V)
ICHFILTER	IQUANT	3	Ich Filter
VCHRANGE	IQUANT	2	Vch Range
VCHRANGEMODE	TOGGLE	F	Vch Auto Range
VCHOFFSETENABLE	TOGGLE	T	Vch Offset Enable
VCHOFFSET	QUANT	0	Vch Offset (V)
VCHFILTER	IQUANT	3	Vch Filter
ACHRANGE	IQUANT	2	Ach Range
ACHOFFSETENABLE	TOGGLE	F	Ach Offset Enable
ACHOFFSET	QUANT	0	Ach Offset (V)
ACHFILTER	IQUANT	3	Ach Filter
IERANGELOWERLIMIT	IQUANT	1	I/E Range Lower Limit
IERANGEMODE	TOGGLE	F	I/E AutoRange
IERANGE	IQUANT	6	I/E Range
POSFEEDENABLE	TOGGLE	F	Positive Feedback IR Comp
POSFEEDRESISTANCE	QUANT	0	Positive Feedback Resistance (ohm)
ACHSELECT	IQUANT	0	Ach Select
CABLEID	IQUANT	14	Cable ID
DCCALDATE	LABEL	1/27/2020	DC Calibration Date
ACCALDATE	LABEL	1/27/2020	AC Calibration Date
THERMOSELECT	IQUANT	1	Thermo Select
FRAMEWORKVERSION	QUANT	6.33	Framework Version
INSTRUMENTVERSION	LABEL	3.50	Instrument Version
ZCURVE	TABLE
	Pt	Time	Freq	Zreal	Zimag	Zsig	Zmod	Zphz	Idc	Vdc	IERange
	#	s	Hz	ohm	ohm	V	ohm	°	A	V	#
	0	1	1000078	1583.865	-802.3924	1	1775.517	-26.86696	-9.857962E-007	-0.0013491	8
	1	1	794390.6	1702.649	-809.6682	1	1885.359	-25.43269	-3.572962E-006	-0.0011226	8
	2	2	630984.4	1829.246	-802.1182	1	1997.382	-23.67729	-5.734408E-007	-0.0015781	8
	3	2	501234.4	1952.256	-802.6779	1	2110.828	-22.35021	-1.333781E-006	-0.0017774	8
	4	2	398109.4	2071.412	-796.2101	1	2219.166	-21.02578	4.114638E-006	-0.0028838	8
	5	3	316265.6	2181.008	-786.1601	1	2318.371	-19.82207	2.16334E-006	-0.0026654	8
	6	3	251203.1	2287.462	-781.0048	1	2417.116	-18.85137	4.5058E-006	-0.0029755	8
	7	3	199546.9	2396.326	-773.5649	1	2518.091	-17.89075	-6.439117E-007	-0.0021091	8
	8	4	158578.1	2499.236	-775.1599	1	2616.688	-17.23173	-1.252307E-006	-0.0018834	8
	9	4	125953.1	2613.907	-764.3885	1	2723.38	-16.30058	1.015431E-006	-0.0038243	7
	10	4	100078.1	2713.061	-777.6933	1	2822.323	-15.99484	9.641132E-009	-0.0022058	7
	11	5	79453.13	2807.401	-806.7973	1	2921.031	-16.03371	-1.466221E-008	-0.0022364	7
	12	5	63140.62	2903.591	-844.3303	1	3023.86	-16.21381	-4.233627E-008	-0.0021894	7
	13	5	50203.12	3002.269	-890.9932	1	3131.691	-16.52948	-4.599609E-008	-0.0021323	7
	14	6	39890.62	3103.624	-947.8354	1	3245.13	-16.98248	-3.374135E-008	-0.0022112	7
	15	6	31640.63	3208.687	-1020.831	1	3367.16	-17.64827	-1.661245E-008	-0.002115	7
	16	6	25171.88	3315.063	-1109.405	1	3495.772	-18.50312	4.045083E-009	-0.0022876	7
	17	7	20015.62	3428.44	-1220.551	1	3639.223	-19.59612	-6.443875E-009	-0.0022016	7
	18	7	15890.62	3550.114	-1360.494	1	3801.875	-20.96811	6.628949E-008	-0.0023724	7
	19	7	12609.37	3683.982	-1531.788	1	3989.749	-22.57738	-3.538529E-008	-0.0022192	7
	20	7	10078.13	3832.957	-1733.511	1	4206.735	-24.33556	1.830712E-009	-0.0022977	7
	21	8	8015.625	4011.037	-1985.444	1	4475.534	-26.33519	8.723854E-009	-0.0022265	7
	22	8	6328.125	4230.626	-2286.189	1	4808.831	-28.38635	6.775061E-008	-0.0023713	7
	23	8	5015.625	4491.395	-2636.392	1	5207.993	-30.4124	-4.347234E-008	-0.0021753	7
	24	9	3984.375	4809.235	-3033.447	1	5685.996	-32.24187	-1.547633E-008	-0.0021245	7
	25	9	3170.956	5191.348	-3471.937	1	6245.354	-33.77433	-1.863459E-008	-0.0021611	7
	26	9	2527.573	5646.808	-3930.344	1	6879.975	-34.83905	-3.520393E-008	-0.0022236	7
	27	10	1976.103	6233.87	-4472.661	1	7672.407	-35.65858	-1.702208E-008	-0.0021616	7
	28	10	1577.524	6854.948	-4969.399	1	8466.714	-35.93971	-1.727321E-008	-0.0021649	7
	29	10	1265.625	7507.622	-5453.745	1	9279.424	-35.9957	1.168737E-007	-0.002414	7
	30	11	998.264	8244.388	-5969.986	1	10178.93	-35.90932	7.553E-009	-0.0024066	6
	31	11	796.875	8939.465	-6495.258	1	11050	-36.0015	3.365437E-010	-0.0023041	6
	32	11	627.7902	9643.72	-7126.663	1	11991.28	-36.46421	-7.063263E-009	-0.0021797	6
	33	12	505.5147	10245.09	-7822.068	1	12889.79	-37.36152	-1.142201E-009	-0.0022246	6
	34	12	397.9953	10876.8	-8803.614	1	13993.16	-38.98649	5.039855E-010	-0.0022335	6
	35	12	315.5048	11473.03	-10033.39	1	15241.37	-41.17033	2.353558E-010	-0.0022344	6
	36	13	252.4038	12057.22	-11554.67	1	16699.91	-43.78071	1.020872E-009	-0.0022368	6
	37	13	198.6229	12727.34	-13643.4	1	18658.18	-46.98953	4.610315E-010	-0.0022364	6
	38	13	158.3615	13463.41	-16144.71	1	21021.78	-50.17458	6.315038E-010	-0.0022387	6
	39	14	125.558	14344.57	-19341.81	1	24080.54	-53.43807	7.017548E-010	-0.0022441	6
	40	14	100.4464	15365.91	-23115.67	1	27756.9	-56.38642	-1.39348E-010	-0.002246	6
	41	14	79.00281	16834.41	-28106.06	1	32761.99	-59.08007	-1.090273E-010	-0.0022484	6
	42	15	63.3446	18354.76	-34102.36	1	38728.14	-61.70973	8.82612E-010	-0.0022519	6
	43	15	49.86702	20567.45	-41360.05	1	46191.7	-63.55985	2.210913E-011	-0.0022482	6
	44	15	39.72458	23477.69	-49786.63	1	55044.63	-64.75302	-9.255115E-011	-0.0022427	6
	45	16	31.6723	26972.86	-60047.32	1	65827.17	-65.8107	4.716675E-010	-0.0022496	6
	46	16	24.93351	31777.04	-72739.05	1	79377.26	-66.40124	6.432926E-010	-0.0022504	6
	47	16	19.86229	37451.95	-87249.44	1	94947.95	-66.7685	1.615012E-009	-0.0022402	6
	48	16	15.83615	45169.04	-105249.3	1	114532.3	-66.77281	-1.575635E-009	-0.0022476	5
	49	17	12.40079	55581.62	-125557.5	1	137309.9	-66.12206	8.431802E-010	-0.0022453	5
	50	17	9.93114	66416.34	-149324.7	1	163428.9	-66.02156	-7.34177E-010	-0.0022446	5
	51	18	7.944915	80869.32	-176113	1	193792.8	-65.33589	-5.670335E-010	-0.0022483	5
	52	18	6.317385	98944.8	-207327.2	1	229727.3	-64.48766	-4.427104E-010	-0.0022349	5
	53	19	5.008013	121432.5	-243692.8	1	272272	-63.51285	-4.407013E-010	-0.0022552	5
	54	20	3.945707	149617.4	-285432.8	1	322268.9	-62.33749	8.87822E-011	-0.0022487	5
	55	22	3.158693	180830.5	-329107.8	1	375515.2	-61.2131	-1.144279E-010	-0.0022259	5
	56	23	2.504006	218760.6	-380338.7	1	438763.9	-60.09364	-2.671678E-010	-0.0022431	5
	57	25	1.998082	260559.8	-434328.8	1	506490.8	-59.03988	-9.748008E-012	-0.002214	5
	58	26	1.584686	309669.7	-498676.2	1	587003.6	-58.16039	5.690954E-011	-0.002203	5
	59	28	1.266892	360989.1	-567707.5	1	672759.2	-57.54888	8.249426E-012	-0.0022324	5
	60	31	0.999041	422636.7	-650428.8	1	775680	-56.98492	-1.415247E-011	-0.0022642	5
