EXPLAIN
TAG	EISPOT
TITLE	LABEL	Potentiostatic EIS	Test &Identifier
DATE	LABEL	1/18/2020	Date
TIME	LABEL	22:05:29	Time
NOTES	NOTES	6	&Notes...
	
	
	
	
	
	
PSTAT	PSTAT	REF600-11020	Potentiostat
VDC	POTEN	0.00000E+000	T	DC &Voltage (V)
FREQINIT	QUANT	1.00000E+006	Initial Fre&q. (Hz)
FREQFINAL	QUANT	1.00000E+000	Final Fre&q. (Hz)
PTSPERDEC	QUANT	1.00000E+001	Points/&decade
VAC	QUANT	2.50000E+001	AC &Voltage (mV rms)
AREA	QUANT	1.00000E-001	&Area (cm^2)
CONDIT	TWOPARAM	F	5.00000E+000	0.00000E+000	Conditionin&g	Time(s)	E(V)
DELAY	TWOPARAM	F	5.00000E+000	0.00000E+000	Init. De&lay	Time(s)	Stab.(mV/s)
SPEED	SELECTOR	0	&Optimize for:
ZGUESS	QUANT	5.00000E+002	E&stimated Z (ohms)
OCVCURVE	TABLE	39
	Pt	T	Vf	Vm	Ach	Over
	#	s	V vs. Ref.	V	V	bits
	0	0.258333	-8.72088E-002	-8.72088E-002	6.62313E-004	...........
	1	0.516667	-8.72127E-002	-8.74161E-002	6.61213E-004	...........
	2	0.775	-8.72358E-002	-8.75497E-002	6.60646E-004	...........
	3	1.03333	-8.72958E-002	-8.76018E-002	6.63313E-004	...........
	4	1.29167	-8.73890E-002	-8.76522E-002	6.65046E-004	...........
	5	1.55	-8.74898E-002	-8.76968E-002	6.67413E-004	...........
	6	1.80833	-8.75755E-002	-8.77273E-002	6.65479E-004	...........
	7	2.06667	-8.76400E-002	-8.77576E-002	6.56546E-004	...........
	8	2.325	-8.76874E-002	-8.77857E-002	6.67546E-004	...........
	9	2.58333	-8.77239E-002	-8.78080E-002	6.56046E-004	...........
	10	2.84167	-8.77543E-002	-8.78255E-002	6.53346E-004	...........
	11	3.1	-8.77839E-002	-8.80178E-002	6.60513E-004	...........
	12	3.35833	-8.78391E-002	-8.88223E-002	6.60946E-004	...........
	13	3.61667	-8.80401E-002	-9.22063E-002	6.59113E-004	...........
	14	3.875	-8.86561E-002	-9.44032E-002	6.58079E-004	...........
	15	4.13333	-8.98819E-002	-9.40084E-002	6.59113E-004	...........
	16	4.39167	-9.14550E-002	-9.31617E-002	6.63446E-004	...........
	17	4.65	-9.27703E-002	-9.38480E-002	6.56046E-004	...........
	18	4.90833	-9.34646E-002	-9.29497E-002	6.61146E-004	...........
	19	5.16667	-9.36057E-002	-9.20496E-002	6.59946E-004	...........
	20	5.425	-9.33664E-002	-9.11621E-002	6.56080E-004	...........
	21	5.68333	-9.28513E-002	-9.08862E-002	6.64813E-004	...........
	22	5.94167	-9.21977E-002	-9.10707E-002	6.57779E-004	...........
	23	6.2	-9.15845E-002	-8.98961E-002	6.64413E-004	...........
	24	6.45833	-9.10832E-002	-8.96646E-002	6.61513E-004	...........
	25	6.71667	-9.06345E-002	-8.94822E-002	6.62113E-004	...........
	26	6.975	-9.02017E-002	-8.92566E-002	6.67313E-004	...........
	27	7.23333	-8.98229E-002	-8.91452E-002	6.62379E-004	...........
	28	7.49167	-8.95302E-002	-8.90092E-002	6.64546E-004	...........
	29	7.75	-8.93164E-002	-8.89246E-002	6.64479E-004	...........
	30	8.00833	-8.91614E-002	-8.89955E-002	6.66479E-004	...........
	31	8.26667	-8.90711E-002	-8.97797E-002	6.64546E-004	...........
	32	8.525	-8.90894E-002	-8.96401E-002	6.60813E-004	...........
	33	8.78333	-8.92269E-002	-8.94496E-002	6.63579E-004	...........
	34	9.04167	-8.93911E-002	-8.91372E-002	6.59546E-004	...........
	35	9.3	-8.94496E-002	-8.85518E-002	6.61913E-004	...........
	36	9.5583	-8.93384E-002	-8.85541E-002	6.57913E-004	...........
	37	9.8167	-8.90995E-002	-8.85719E-002	6.61213E-004	...........
	38	10.075	-8.88447E-002	-8.85549E-002	6.63479E-004	...........
EOC	QUANT	-0.0888447	Open Circuit (V)
PSTATMODEL	IQUANT	4	Pstat Model
PSTATSECTION	LABEL	REF600-11020	Pstat Section
PSTATSERIALNO	LABEL	11020	Pstat Serial Number
CTRLMODE	IQUANT	1	Control Mode
IESTAB	IQUANT	0	I/E Stability
CASPEED	IQUANT	1	Control Amp Speed
CONVENTION	IQUANT	1	Current Convention
ICHRANGE	IQUANT	2	Ich Range
ICHRANGEMODE	TOGGLE	F	Ich Auto Range
ICHOFFSETENABLE	TOGGLE	T	Ich Offset Enable
ICHOFFSET	QUANT	0	Ich Offset (V)
ICHFILTER	IQUANT	3	Ich Filter
VCHRANGE	IQUANT	2	Vch Range
VCHRANGEMODE	TOGGLE	F	Vch Auto Range
VCHOFFSETENABLE	TOGGLE	T	Vch Offset Enable
VCHOFFSET	QUANT	0	Vch Offset (V)
VCHFILTER	IQUANT	3	Vch Filter
ACHRANGE	IQUANT	2	Ach Range
ACHOFFSETENABLE	TOGGLE	F	Ach Offset Enable
ACHOFFSET	QUANT	0	Ach Offset (V)
ACHFILTER	IQUANT	3	Ach Filter
IERANGELOWERLIMIT	IQUANT	1	I/E Range Lower Limit
IERANGEMODE	TOGGLE	F	I/E AutoRange
IERANGE	IQUANT	8	I/E Range
POSFEEDENABLE	TOGGLE	F	Positive Feedback IR Comp
POSFEEDRESISTANCE	QUANT	0	Positive Feedback Resistance (ohm)
ACHSELECT	IQUANT	0	Ach Select
CABLEID	IQUANT	14	Cable ID
DCCALDATE	LABEL	12/22/2019	DC Calibration Date
ACCALDATE	LABEL	12/22/2019	AC Calibration Date
THERMOSELECT	IQUANT	1	Thermo Select
FRAMEWORKVERSION	QUANT	6.33	Framework Version
INSTRUMENTVERSION	LABEL	3.50	Instrument Version
ZCURVE	TABLE
	Pt	Time	Freq	Zreal	Zimag	Zsig	Zmod	Zphz	Idc	Vdc	IERange
	#	s	Hz	ohm	ohm	V	ohm	°	A	V	#
	0	1	1000078	2022.877	-2146.868	1	2949.759	-46.70324	-7.959599E-007	-0.0869571	8
	1	1	794390.6	2423.473	-2277.281	1	3325.542	-43.21868	2.158614E-006	-0.0872287	8
	2	1	630984.4	2859.428	-2357.165	1	3705.746	-39.50041	1.023578E-006	-0.0871981	8
	3	2	501234.4	3302.348	-2393.752	1	4078.67	-35.93699	1.255697E-006	-0.0872787	8
	4	2	398109.4	3750.104	-2354.513	1	4427.98	-32.12277	-8.861079E-007	-0.0868658	8
	5	2	316265.6	4137.358	-2281.643	1	4724.789	-28.87557	-3.921733E-007	-0.0870254	8
	6	3	251203.1	4497.465	-2171.668	1	4994.331	-25.77427	-9.425555E-007	-0.0868712	8
	7	3	199546.9	4793.68	-2070.996	1	5221.915	-23.36562	1.267752E-006	-0.0873397	8
	8	3	158578.1	5091.843	-2001.986	1	5471.272	-21.46352	-1.386169E-006	-0.0869137	8
	9	4	125953.1	5372.655	-1872.429	1	5689.588	-19.214	-8.271348E-007	-0.0851548	7
	10	4	100078.1	5569.216	-1831.305	1	5862.58	-18.20223	3.436649E-008	-0.0871735	7
	11	4	79453.13	5770.862	-1828.524	1	6053.623	-17.58105	6.982913E-008	-0.0872597	7
	12	5	63140.62	5966.783	-1853.792	1	6248.124	-17.25926	-5.509847E-009	-0.0871072	7
	13	5	50203.12	6165.958	-1911.878	1	6455.564	-17.22709	6.480315E-008	-0.087173	7
	14	5	39890.62	6366.018	-2003.225	1	6673.762	-17.46747	6.820208E-008	-0.0872731	7
	15	5	31640.63	6577.269	-2136.036	1	6915.425	-17.99174	-5.245156E-008	-0.0870735	7
	16	6	25171.88	6801.974	-2303.868	1	7181.55	-18.71154	3.451434E-008	-0.0871914	7
	17	6	20015.62	7041.412	-2515.652	1	7477.298	-19.66004	-3.182453E-008	-0.0871186	7
	18	6	15890.62	7309.481	-2783.064	1	7821.379	-20.84419	1.139258E-007	-0.0873141	7
	19	7	12609.37	7601.609	-3101.83	1	8210.104	-22.19787	-5.787237E-009	-0.0870453	7
	20	7	10078.13	7913.409	-3459.826	1	8636.691	-23.61546	1.795427E-008	-0.087229	7
	21	7	8015.625	8271.08	-3899.213	1	9144.104	-25.24047	1.87969E-008	-0.0872325	7
	22	8	6328.125	8702.446	-4408.942	1	9755.58	-26.86825	-1.759754E-009	-0.0871978	6
	23	8	5015.625	9159.581	-5030.083	1	10449.86	-28.77386	-6.876184E-009	-0.0870922	6
	24	8	3984.375	9667.85	-5748.507	1	11247.79	-30.73572	-5.027203E-009	-0.0870198	6
	25	9	3170.956	10242.75	-6583.176	1	12175.88	-32.72949	7.0598E-009	-0.0873227	6
	26	9	2527.573	10892.84	-7554.529	1	13256.12	-34.74254	-4.658251E-009	-0.0870857	6
	27	9	1976.103	11705.68	-8783.02	1	14634.36	-36.88166	3.445602E-009	-0.0871353	6
	28	10	1577.524	12560.32	-10107.31	1	16122.02	-38.8237	3.137897E-009	-0.0871314	6
	29	10	1265.625	13530.26	-11605.87	1	17825.94	-40.62204	-4.416144E-010	-0.0871686	6
	30	10	998.264	14743.15	-13490.1	1	19983.57	-42.45877	-6.673972E-009	-0.0870986	6
	31	11	796.875	16083.73	-15567.56	1	22383.82	-44.06571	-1.905712E-009	-0.087214	6
	32	11	627.7902	17721.13	-18107.04	1	25335.81	-45.6171	1.353883E-008	-0.0873192	6
	33	11	505.5147	19466.54	-20793.97	1	28483.95	-46.88842	-4.747635E-009	-0.087159	6
	34	12	397.9953	21670.23	-24183.73	1	32472.32	-48.13755	3.497457E-010	-0.087159	6
	35	12	315.5048	24169.12	-28003.32	1	36990.97	-49.20316	8.307453E-010	-0.0871573	6
	36	12	252.4038	26939.11	-32247.64	1	42019.35	-50.12521	5.169571E-010	-0.0871637	6
	37	12	198.6229	30378.53	-37494	1	48256.14	-50.98479	4.544554E-010	-0.0871585	6
	38	13	158.3615	34126.65	-43291.16	1	55124.88	-51.7511	6.183234E-010	-0.0871634	6
	39	13	125.558	38544.39	-50108.71	1	63218.3	-52.43196	5.813904E-010	-0.0871623	6
	40	13	100.4464	43530.62	-57795.9	1	72355.24	-53.01374	4.601128E-011	-0.0871674	6
	41	14	79.00281	49498.27	-67453.37	1	83666.21	-53.72823	7.824606E-011	-0.0871738	6
	42	14	63.3446	56539.5	-76354.25	1	95008.9	-53.48045	6.368162E-010	-0.0871724	6
	43	15	49.86702	65068.65	-89390.25	1	110564.7	-53.94851	1.285051E-010	-0.0871759	5
	44	15	39.72458	73884.62	-103895.1	1	127487.8	-54.58162	-2.251436E-010	-0.0871703	5
	45	15	31.6723	84720.66	-120135.7	1	147004	-54.8082	-3.538787E-010	-0.0871699	5
	46	16	24.93351	97844.1	-138468	1	169548.9	-54.75425	-1.770817E-010	-0.0871742	5
	47	16	19.86229	111569.3	-158936.1	1	194186.5	-54.93207	-5.106241E-010	-0.087171	5
	48	16	15.83615	125362.1	-183611.7	1	222326.1	-55.67643	-4.215968E-010	-0.0871729	5
	49	16	12.40079	145383.7	-212700.8	1	257639.4	-55.6469	-3.300953E-010	-0.0871657	5
	50	17	9.93114	165114.3	-244633.8	1	295141.4	-55.98283	1.356533E-010	-0.0871671	5
	51	17	7.944915	186162.5	-283085.9	1	338812.8	-56.67034	2.374697E-010	-0.0871709	5
	52	18	6.317385	210987.4	-329806.4	1	391520.1	-57.39169	1.907223E-010	-0.0871763	5
	53	19	5.008013	240954.8	-386462.6	1	455425.6	-58.05696	1.775905E-010	-0.0871674	5
	54	20	3.945707	279041.4	-456489.9	1	535020.7	-58.56355	-6.708821E-011	-0.0871758	5
	55	21	3.158693	319818.3	-532847.3	1	621457.9	-59.02756	-1.020021E-011	-0.0871918	5
	56	23	2.504006	373912.7	-626892.3	1	729934.7	-59.18585	9.200371E-011	-0.0871815	5
	57	24	1.998082	436197.5	-731228.9	1	851448.2	-59.1828	2.915332E-011	-0.0871862	5
	58	26	1.584686	518072.4	-856426.5	1	1000932	-58.82928	-2.227134E-011	-0.087229	5
	59	28	1.266892	612263.4	-996359	1	1169443	-58.42923	-4.741917E-011	-0.087176	4
	60	30	0.999041	732433.5	-1159477	1	1371439	-57.71968	-4.53219E-011	-0.0871519	4
