EXPLAIN
TAG	EISPOT
TITLE	LABEL	Potentiostatic EIS	Test &Identifier
DATE	LABEL	5/26/2020	Date
TIME	LABEL	17:48:09	Time
NOTES	NOTES	1	&Notes...
	
PSTAT	PSTAT	REF600-11020	Potentiostat
VDC	POTEN	0.00000E+000	T	DC &Voltage (V)
FREQINIT	QUANT	1.00000E+006	Initial Fre&q. (Hz)
FREQFINAL	QUANT	1.00000E+000	Final Fre&q. (Hz)
PTSPERDEC	QUANT	1.00000E+001	Points/&decade
VAC	QUANT	2.50000E+001	AC &Voltage (mV rms)
AREA	QUANT	5.00000E-004	&Area (cm^2)
CONDIT	TWOPARAM	F	5.00000E+000	0.00000E+000	Conditionin&g	Time(s)	E(V)
DELAY	TWOPARAM	T	3.00000E+000	0.00000E+000	Init. De&lay	Time(s)	Stab.(mV/s)
SPEED	SELECTOR	0	&Optimize for:
ZGUESS	QUANT	1.00000E+003	E&stimated Z (ohms)
OCVCURVE	TABLE	12
	Pt	T	Vf	Vm	Ach	Over
	#	s	V vs. Ref.	V	V	bits
	0	0.258333	8.46397E-002	8.46397E-002	5.83763E-004	...........
	1	0.516667	8.46389E-002	8.46005E-002	5.81597E-004	...........
	2	0.775	8.46345E-002	8.45741E-002	5.84696E-004	...........
	3	1.03333	8.46228E-002	8.45494E-002	5.83830E-004	...........
	4	1.29167	8.46032E-002	8.45264E-002	5.85763E-004	...........
	5	1.55	8.45789E-002	8.45018E-002	5.89396E-004	...........
	6	1.80833	8.45535E-002	8.44812E-002	5.88063E-004	...........
	7	2.06667	8.45288E-002	8.44607E-002	5.86096E-004	...........
	8	2.325	8.45055E-002	8.44444E-002	5.86063E-004	...........
	9	2.58333	8.44839E-002	8.44239E-002	5.84030E-004	...........
	10	2.84167	8.44639E-002	8.44109E-002	5.85730E-004	...........
	11	3.1	8.44454E-002	8.44008E-002	5.86397E-004	...........
EOC	QUANT	0.0844454	Open Circuit (V)
PSTATMODEL	IQUANT	4	Pstat Model
PSTATSECTION	LABEL	REF600-11020	Pstat Section
PSTATSERIALNO	LABEL	11020	Pstat Serial Number
CTRLMODE	IQUANT	1	Control Mode
IESTAB	IQUANT	0	I/E Stability
CASPEED	IQUANT	1	Control Amp Speed
CONVENTION	IQUANT	1	Current Convention
ICHRANGE	IQUANT	2	Ich Range
ICHRANGEMODE	TOGGLE	F	Ich Auto Range
ICHOFFSETENABLE	TOGGLE	T	Ich Offset Enable
ICHOFFSET	QUANT	0	Ich Offset (V)
ICHFILTER	IQUANT	3	Ich Filter
VCHRANGE	IQUANT	2	Vch Range
VCHRANGEMODE	TOGGLE	F	Vch Auto Range
VCHOFFSETENABLE	TOGGLE	T	Vch Offset Enable
VCHOFFSET	QUANT	0	Vch Offset (V)
VCHFILTER	IQUANT	3	Vch Filter
ACHRANGE	IQUANT	2	Ach Range
ACHOFFSETENABLE	TOGGLE	F	Ach Offset Enable
ACHOFFSET	QUANT	0	Ach Offset (V)
ACHFILTER	IQUANT	3	Ach Filter
IERANGELOWERLIMIT	IQUANT	1	I/E Range Lower Limit
IERANGEMODE	TOGGLE	F	I/E AutoRange
IERANGE	IQUANT	8	I/E Range
POSFEEDENABLE	TOGGLE	F	Positive Feedback IR Comp
POSFEEDRESISTANCE	QUANT	0	Positive Feedback Resistance (ohm)
ACHSELECT	IQUANT	0	Ach Select
CABLEID	IQUANT	14	Cable ID
DCCALDATE	LABEL	2/27/2020	DC Calibration Date
ACCALDATE	LABEL	2/27/2020	AC Calibration Date
THERMOSELECT	IQUANT	1	Thermo Select
FRAMEWORKVERSION	QUANT	6.33	Framework Version
INSTRUMENTVERSION	LABEL	3.50	Instrument Version
ZCURVE	TABLE
	Pt	Time	Freq	Zreal	Zimag	Zsig	Zmod	Zphz	Idc	Vdc	IERange
	#	s	Hz	ohm	ohm	V	ohm	°	A	V	#
	0	1	1000078	1654.548	-2422.986	1	2934.006	-55.67259	3.4579E-008	0.0869382	8
	1	1	794390.6	1952.876	-2779.007	1	3396.557	-54.90335	7.32084E-008	0.0865767	8
	2	1	630984.4	2301.639	-3178.638	1	3924.447	-54.09186	5.886151E-008	0.0864026	8
	3	2	501234.4	2714.599	-3628.845	1	4531.839	-53.20126	5.078775E-008	0.0862921	8
	4	2	398109.4	3221.531	-4131.149	1	5238.765	-52.05236	3.665329E-008	0.0862506	8
	5	2	316265.6	3835.159	-4677.324	1	6048.62	-50.65005	5.952505E-008	0.0862069	8
	6	3	251203.1	4591.636	-5246.16	1	6971.751	-48.80637	5.786809E-008	0.0861863	8
	7	3	199546.9	5488.293	-5813.025	1	7994.538	-46.64588	7.292002E-008	0.0862033	8
	8	3	158578.1	6565.02	-6309.342	1	9105.344	-43.86229	9.729452E-008	0.0861946	8
	9	4	125953.1	7915.324	-6612.505	1	10313.95	-39.87556	1.868141E-009	0.0861143	7
	10	4	100078.1	9192.859	-6815.807	1	11443.95	-36.55413	4.506508E-009	0.0861135	7
	11	4	79453.13	10533.44	-6850.49	1	12565.13	-33.03822	3.699842E-009	0.0861038	7
	12	5	63140.62	11847	-6699.547	1	13610.12	-29.4884	4.359928E-009	0.086103	7
	13	5	50203.12	13052.3	-6379.529	1	14527.93	-26.04784	3.884703E-009	0.0860976	7
	14	5	39890.62	14122.47	-5941.117	1	15321.26	-22.81578	3.565288E-009	0.0860854	7
	15	6	31640.63	15034.85	-5450.127	1	15992.2	-19.92557	3.413866E-009	0.0860896	7
	16	6	25171.88	15793.46	-4968.977	1	16556.69	-17.46475	3.502938E-009	0.0860938	7
	17	6	20015.62	16431.14	-4519.194	1	17041.29	-15.37829	4.641528E-009	0.086092	7
	18	7	15890.62	16939.18	-4107.138	1	17429.98	-13.62914	3.847984E-009	0.0860886	7
	19	7	12609.37	17500.96	-3538.383	1	17855.07	-11.43011	5.870783E-010	0.0861507	6
	20	7	10078.13	17842.68	-3328.199	1	18150.43	-10.56597	4.611183E-010	0.0861384	6
	21	7	8015.625	18150.53	-3186.887	1	18428.18	-9.95854	5.176857E-010	0.0861449	6
	22	8	6328.125	18439.53	-3116.515	1	18701.04	-9.59305	4.900232E-010	0.0861468	6
	23	8	5015.625	18727.04	-3125.408	1	18986.05	-9.474931	4.15175E-010	0.0861464	6
	24	8	3984.375	19003.43	-3205.041	1	19271.8	-9.57318	5.095567E-010	0.0861437	6
	25	9	3170.956	19272.82	-3363.667	1	19564.15	-9.90006	3.071912E-010	0.0861417	6
	26	9	2527.573	19560.33	-3598.181	1	19888.53	-10.4232	3.410981E-010	0.0861425	6
	27	9	1976.103	19877.96	-3953.218	1	20267.25	-11.24791	1.560765E-010	0.0861374	6
	28	10	1577.524	20176.3	-4380.754	1	20646.4	-12.25014	3.251572E-010	0.0861441	6
	29	10	1265.625	20487.55	-4909.691	1	21067.62	-13.47637	4.168852E-010	0.0861409	6
	30	10	998.264	20848.9	-5631.212	1	21596	-15.11472	1.565415E-010	0.0861366	6
	31	11	796.875	21215.42	-6483.698	1	22184.06	-16.99381	1.129375E-010	0.0861406	6
	32	11	627.7902	21639.05	-7609.218	1	22937.93	-19.37386	2.515103E-010	0.0861435	6
	33	11	505.5147	22086.63	-8872.033	1	23801.93	-21.88496	3.792791E-011	0.0861302	6
	34	12	397.9953	22621.17	-10591.41	1	24977.89	-25.08936	5.309353E-010	0.0861586	6
	35	12	315.5048	23236.85	-12655.37	1	26459.58	-28.57382	4.62148E-010	0.0861572	6
	36	12	252.4038	23932.3	-15083.32	1	28288.9	-32.22116	4.466036E-010	0.0861512	6
	37	13	198.6229	24842.28	-18279.05	1	30842.54	-36.34578	4.475829E-010	0.0861502	6
	38	13	158.3615	25883.05	-21978.78	1	33955.84	-40.33649	4.578249E-010	0.0861456	6
	39	13	125.558	27205.23	-26591.05	1	38042.2	-44.3459	4.488135E-010	0.0861455	6
	40	14	100.4464	28787.48	-31955.03	1	43009.8	-47.9851	3.738771E-010	0.0861486	6
	41	14	79.00281	30940.86	-38951.18	1	49744.66	-51.53814	3.506163E-010	0.0861466	6
	42	14	63.3446	33407.53	-46704.75	1	57422.96	-54.42416	3.183605E-010	0.0861452	6
	43	15	49.86702	36756.14	-56796.73	1	67652.66	-57.09098	1.879569E-010	0.0861466	6
	44	15	39.72458	40749.32	-68301.65	1	79533.78	-59.17935	4.630283E-010	0.0861426	6
	45	15	31.6723	45712.88	-81988.82	1	93871.37	-60.85814	5.599256E-010	0.0861445	6
	46	16	24.93351	52304.8	-99189.8	1	112135.7	-62.19641	-2.334867E-010	0.0861475	5
	47	16	19.86229	60137.17	-118819.6	1	133171.2	-63.15504	2.762735E-011	0.0861503	5
	48	16	15.83615	69960.24	-141937.9	1	158242.8	-63.76162	-5.038787E-010	0.0861465	5
	49	16	12.40079	83384.04	-171486.7	1	190684.5	-64.06903	-6.804994E-010	0.0861531	5
	50	17	9.93114	98610	-202739.8	1	225449.2	-64.06231	-6.956049E-010	0.0861487	5
	51	17	7.944915	117626.6	-239193.8	1	266551.5	-63.81377	9.983207E-011	0.0861475	5
	52	17	6.317385	141683.3	-282397	1	315946.5	-63.35632	-1.697136E-010	0.0861619	5
	53	18	5.008013	171584.5	-332659.5	1	374304.1	-62.71549	-2.559953E-010	0.0861456	5
	54	19	3.945707	208613.5	-390859.7	1	443047.3	-61.90982	8.336665E-011	0.0861508	5
	55	20	3.158693	250330.8	-453605	1	518095.6	-61.10703	-1.419505E-010	0.086146	5
	56	21	2.504006	301315.8	-527254.6	1	607279.7	-60.25288	-3.964252E-011	0.0861339	5
	57	22	1.998082	360810.9	-608712.3	1	707612.3	-59.34289	1.200242E-010	0.0861786	5
	58	24	1.584686	432209	-702172.1	1	824530.4	-58.38639	7.056657E-011	0.0861464	5
	59	26	1.266892	517543.8	-803165.6	1	955472	-57.20308	3.674823E-011	0.0861128	5
	60	28	0.999041	625958.7	-924257.3	1	1116278	-55.89195	-2.78207E-011	0.0860932	4
