EXPLAIN
TAG	EISPOT
TITLE	LABEL	Potentiostatic EIS	Test &Identifier
DATE	LABEL	1/7/2020	Date
TIME	LABEL	16:12:15	Time
NOTES	NOTES	5	&Notes...
	
	
	
	
	
PSTAT	PSTAT	REF600-11020	Potentiostat
VDC	POTEN	0.00000E+000	T	DC &Voltage (V)
FREQINIT	QUANT	1.00000E+006	Initial Fre&q. (Hz)
FREQFINAL	QUANT	1.00000E+000	Final Fre&q. (Hz)
PTSPERDEC	QUANT	1.00000E+001	Points/&decade
VAC	QUANT	2.50000E+001	AC &Voltage (mV rms)
AREA	QUANT	1.00000E-001	&Area (cm^2)
CONDIT	TWOPARAM	T	5.00000E+000	0.00000E+000	Conditionin&g	Time(s)	E(V)
DELAY	TWOPARAM	T	5.00000E+000	0.00000E+000	Init. De&lay	Time(s)	Stab.(mV/s)
SPEED	SELECTOR	0	&Optimize for:
ZGUESS	QUANT	1.00000E+003	E&stimated Z (ohms)
OCVCURVE	TABLE	19
	Pt	T	Vf	Vm	Ach	Over
	#	s	V vs. Ref.	V	V	bits
	0	0.258333	5.83590E-003	5.83590E-003	6.59513E-004	...........
	1	0.516667	5.83335E-003	5.70227E-003	6.57913E-004	...........
	2	0.775	5.81820E-003	5.60317E-003	6.61879E-004	...........
	3	1.03333	5.77737E-003	5.52234E-003	6.63713E-004	...........
	4	1.29167	5.70959E-003	5.48157E-003	6.56246E-004	...........
	5	1.55	5.63464E-003	5.70787E-003	6.62779E-004	...........
	6	1.80833	5.58596E-003	5.64318E-003	6.62246E-004	...........
	7	2.06667	5.58043E-003	5.55525E-003	6.64746E-004	...........
	8	2.325	5.59482E-003	5.48205E-003	6.66746E-004	...........
	9	2.58333	5.59111E-003	5.41898E-003	6.59746E-004	...........
	10	2.84167	5.55516E-003	5.36362E-003	6.58879E-004	...........
	11	3.1	5.49772E-003	5.31509E-003	6.66146E-004	...........
	12	3.35833	5.43498E-003	5.28914E-003	6.60279E-004	...........
	13	3.61667	5.37752E-003	5.24151E-003	6.62746E-004	...........
	14	3.875	5.32829E-003	5.19344E-003	6.53179E-004	...........
	15	4.13333	5.28431E-003	5.14500E-003	6.51713E-004	...........
	16	4.39167	5.24102E-003	5.09978E-003	6.53380E-004	...........
	17	4.65	5.19612E-003	5.05010E-003	6.54580E-004	...........
	18	4.90833	5.14997E-003	5.01955E-003	6.59513E-004	...........
EOC	QUANT	0.00515	Open Circuit (V)
PSTATMODEL	IQUANT	4	Pstat Model
PSTATSECTION	LABEL	REF600-11020	Pstat Section
PSTATSERIALNO	LABEL	11020	Pstat Serial Number
CTRLMODE	IQUANT	1	Control Mode
IESTAB	IQUANT	0	I/E Stability
CASPEED	IQUANT	1	Control Amp Speed
CONVENTION	IQUANT	1	Current Convention
ICHRANGE	IQUANT	2	Ich Range
ICHRANGEMODE	TOGGLE	F	Ich Auto Range
ICHOFFSETENABLE	TOGGLE	T	Ich Offset Enable
ICHOFFSET	QUANT	0	Ich Offset (V)
ICHFILTER	IQUANT	3	Ich Filter
VCHRANGE	IQUANT	2	Vch Range
VCHRANGEMODE	TOGGLE	F	Vch Auto Range
VCHOFFSETENABLE	TOGGLE	T	Vch Offset Enable
VCHOFFSET	QUANT	0	Vch Offset (V)
VCHFILTER	IQUANT	3	Vch Filter
ACHRANGE	IQUANT	2	Ach Range
ACHOFFSETENABLE	TOGGLE	F	Ach Offset Enable
ACHOFFSET	QUANT	0	Ach Offset (V)
ACHFILTER	IQUANT	3	Ach Filter
IERANGELOWERLIMIT	IQUANT	1	I/E Range Lower Limit
IERANGEMODE	TOGGLE	F	I/E AutoRange
IERANGE	IQUANT	6	I/E Range
POSFEEDENABLE	TOGGLE	F	Positive Feedback IR Comp
POSFEEDRESISTANCE	QUANT	0	Positive Feedback Resistance (ohm)
ACHSELECT	IQUANT	0	Ach Select
CABLEID	IQUANT	14	Cable ID
DCCALDATE	LABEL	12/22/2019	DC Calibration Date
ACCALDATE	LABEL	12/22/2019	AC Calibration Date
THERMOSELECT	IQUANT	1	Thermo Select
FRAMEWORKVERSION	QUANT	6.33	Framework Version
INSTRUMENTVERSION	LABEL	3.50	Instrument Version
ZCURVE	TABLE
	Pt	Time	Freq	Zreal	Zimag	Zsig	Zmod	Zphz	Idc	Vdc	IERange
	#	s	Hz	ohm	ohm	V	ohm	°	A	V	#
	0	1	1000078	2085.286	-1329.626	1	2473.12	-32.52251	-1.928511E-006	0.008173	8
	1	2	794390.6	2331.448	-1265.018	1	2652.531	-28.48376	-7.637864E-007	0.0077671	8
	2	2	630984.4	2576.083	-1179.859	1	2833.42	-24.60803	4.973248E-007	0.0070394	8
	3	2	501234.4	2757.773	-1078.088	1	2961.011	-21.35187	-1.572447E-006	0.0072363	8
	4	3	398109.4	2913.378	-949.3922	1	3064.167	-18.04941	-7.129814E-007	0.0072416	8
	5	3	316265.6	3033.198	-830.2562	1	3144.776	-15.30821	-1.120113E-006	0.0073072	8
	6	3	251203.1	3139.948	-732.8389	1	3224.334	-13.13721	-1.707251E-006	0.0071833	8
	7	4	199546.9	3197.263	-646.2675	1	3261.924	-11.42731	-1.062187E-006	0.0072777	8
	8	4	158578.1	3262.673	-582.5286	1	3314.268	-10.12311	-2.658401E-006	0.0072708	8
	9	4	125953.1	3336.204	-463.2037	1	3368.206	-7.904502	-8.030339E-007	0.0083658	7
	10	5	100078.1	3367.841	-432.7782	1	3395.534	-7.322558	5.507709E-008	0.0067472	7
	11	5	79453.13	3402.603	-419.4705	1	3428.362	-7.027923	6.678309E-009	0.006937	7
	12	5	63140.62	3440.438	-417.7621	1	3465.709	-6.923359	-6.984462E-008	0.0070426	7
	13	6	50203.12	3477.783	-424.2682	1	3503.566	-6.955365	-5.648555E-010	0.006854	7
	14	6	39890.62	3518.475	-439.6969	1	3545.843	-7.123213	-3.476018E-008	0.0069014	7
	15	6	31640.63	3560.747	-465.4654	1	3591.041	-7.447547	-1.598728E-008	0.0068457	7
	16	7	25171.88	3606.376	-500.0771	1	3640.883	-7.89456	6.545433E-009	0.0069348	7
	17	7	20015.62	3656.585	-545.2455	1	3697.014	-8.481072	-2.847181E-008	0.0067716	7
	18	7	15890.62	3712.777	-601.4756	1	3761.182	-9.202059	-1.428708E-008	0.0068428	7
	19	7	12609.37	3776.136	-669.0013	1	3834.94	-10.04659	5.305647E-008	0.0067345	7
	20	8	10078.13	3841.319	-747.4285	1	3913.359	-11.0108	-7.148549E-008	0.0070274	7
	21	8	8015.625	3916.925	-841.9051	1	4006.383	-12.13061	-1.478247E-008	0.0068387	7
	22	8	6328.125	4004.557	-956.739	1	4117.26	-13.4368	-8.362776E-008	0.0069247	7
	23	9	5015.625	4098.471	-1090.28	1	4241.011	-14.89689	-3.36705E-010	0.0068421	7
	24	9	3984.375	4205.252	-1245.966	1	4385.953	-16.50393	5.499116E-008	0.0067265	7
	25	9	3170.956	4322.044	-1429.266	1	4552.238	-18.29864	-5.291886E-008	0.0069014	7
	26	10	2527.573	4451.641	-1643.14	1	4745.21	-20.25955	2.458231E-008	0.0066668	7
	27	10	1976.103	4610.74	-1920.128	1	4994.578	-22.60913	-8.351054E-008	0.0069207	7
	28	10	1577.524	4774.709	-2219.177	1	5265.225	-24.92794	7.69096E-009	0.0069229	7
	29	11	1265.625	4952.687	-2563.843	1	5576.952	-27.36911	9.261479E-009	0.0069255	7
	30	11	998.264	5171.665	-3004.442	1	5981.036	-30.15414	1.020543E-007	0.0067559	7
	31	11	796.875	5404.6	-3501.345	1	6439.652	-32.937	-3.428082E-008	0.0068853	7
	32	12	627.7902	5677.569	-4125.869	1	7018.375	-36.00577	1.025645E-007	0.0067502	7
	33	12	505.5147	5956.242	-4802.126	1	7650.963	-38.87695	6.626696E-008	0.0065938	7
	34	12	397.9953	6284.185	-5708.558	1	8489.912	-42.25203	7.881549E-009	0.0067932	7
	35	13	315.5048	6633.984	-6775.193	1	9482.246	-45.60334	7.91685E-009	0.0067914	7
	36	13	252.4038	7000.152	-8024.436	1	10648.65	-48.90004	5.632495E-010	0.0067863	6
	37	13	198.6229	7426.355	-9684.36	1	12204	-52.51755	8.154131E-010	0.0067924	6
	38	14	158.3615	7877.494	-11629.93	1	14046.71	-55.88838	1.317048E-009	0.0067865	6
	39	14	125.558	8409.535	-14102.97	1	16419.93	-59.19258	7.643713E-010	0.0067886	6
	40	14	100.4464	9011.061	-17029.26	1	19266.42	-62.11438	1.418843E-009	0.0067859	6
	41	14	79.00281	9827.29	-20932.15	1	23124.24	-64.85073	6.380588E-010	0.0067854	6
	42	15	63.3446	10665.12	-25511.71	1	27651.26	-67.31272	4.96946E-010	0.006789	6
	43	15	49.86702	11914.38	-31390.71	1	33575.73	-69.21568	1.497182E-010	0.0067883	6
	44	16	39.72458	13513.89	-38250.64	1	40567.68	-70.54176	7.998054E-010	0.0067883	6
	45	16	31.6723	15507.36	-46612.29	1	49124.16	-71.59833	8.471396E-010	0.0067896	6
	46	16	24.93351	18174.38	-57491.12	1	60295.41	-72.45695	4.232108E-010	0.0067908	6
	47	17	19.86229	21507.72	-70044.85	1	73272.53	-72.93056	7.684207E-011	0.006791	6
	48	17	15.83615	25303.84	-85470.02	1	89137.02	-73.50834	3.31012E-010	0.0067912	6
	49	17	12.40079	32145.81	-104753.8	1	109575.2	-72.94032	1.268612E-009	0.0067869	5
	50	17	9.93114	39264.18	-126355.3	1	132315.3	-72.73767	1.085451E-009	0.0067921	5
	51	18	7.944915	48815.31	-152197.1	1	159833.9	-72.21701	-9.012277E-012	0.0067867	5
	52	18	6.317385	61144.96	-183297.2	1	193226.7	-71.55214	-5.833067E-011	0.0067957	5
	53	19	5.008013	77473.93	-220604.7	1	233813.3	-70.64929	-6.58795E-011	0.0067788	5
	54	20	3.945707	98870.1	-265272.9	1	283098.9	-69.55903	2.079233E-010	0.006783	5
	55	21	3.158693	124346.4	-313806.8	1	337545.2	-68.38399	2.782174E-010	0.0068002	5
	56	23	2.504006	157783.2	-371782.1	1	403878	-67.00377	7.999772E-011	0.0067894	5
	57	24	1.998082	196470	-434711.8	1	477048	-65.67919	2.053732E-010	0.0067902	5
	58	26	1.584686	246525.8	-509218.7	1	565754.9	-64.16718	3.081685E-010	0.006831	5
	59	28	1.266892	302476.4	-590304.8	1	663288.6	-62.86907	3.055598E-010	0.0068182	5
	60	30	0.999041	373046	-684886.7	1	779893	-61.42363	3.01106E-010	0.0067935	5
