EXPLAIN
TAG	EISPOT
TITLE	LABEL	Potentiostatic EIS	Test &Identifier
DATE	LABEL	1/25/2020	Date
TIME	LABEL	12:58:53	Time
NOTES	NOTES	6	&Notes...
	
	
	
	
	
	
PSTAT	PSTAT	REF600-11020	Potentiostat
VDC	POTEN	0.00000E+000	T	DC &Voltage (V)
FREQINIT	QUANT	1.00000E+006	Initial Fre&q. (Hz)
FREQFINAL	QUANT	1.00000E+000	Final Fre&q. (Hz)
PTSPERDEC	QUANT	1.00000E+001	Points/&decade
VAC	QUANT	2.50000E+001	AC &Voltage (mV rms)
AREA	QUANT	1.00000E-001	&Area (cm^2)
CONDIT	TWOPARAM	F	5.00000E+000	0.00000E+000	Conditionin&g	Time(s)	E(V)
DELAY	TWOPARAM	F	5.00000E+000	0.00000E+000	Init. De&lay	Time(s)	Stab.(mV/s)
SPEED	SELECTOR	0	&Optimize for:
ZGUESS	QUANT	5.00000E+002	E&stimated Z (ohms)
OCVCURVE	TABLE	39
	Pt	T	Vf	Vm	Ach	Over
	#	s	V vs. Ref.	V	V	bits
	0	0.258333	1.72567E-002	1.72567E-002	6.51580E-004	...........
	1	0.516667	1.72444E-002	1.66144E-002	6.61279E-004	...........
	2	0.775	1.71706E-002	1.60865E-002	6.54513E-004	...........
	3	1.03333	1.69656E-002	1.55084E-002	6.54413E-004	...........
	4	1.29167	1.66028E-002	1.49522E-002	6.54046E-004	...........
	5	1.55	1.61193E-002	1.43945E-002	6.50046E-004	...........
	6	1.80833	1.55740E-002	1.38521E-002	6.54980E-004	...........
	7	2.06667	1.50118E-002	1.33653E-002	6.57779E-004	...........
	8	2.325	1.44578E-002	1.28773E-002	6.54146E-004	...........
	9	2.58333	1.39247E-002	1.24184E-002	6.49513E-004	...........
	10	2.84167	1.34160E-002	1.19640E-002	6.52080E-004	...........
	11	3.1	1.29300E-002	1.15493E-002	6.56680E-004	...........
	12	3.35833	1.24652E-002	1.11671E-002	6.52613E-004	...........
	13	3.61667	1.20220E-002	1.07668E-002	6.50646E-004	...........
	14	3.875	1.16002E-002	1.03796E-002	6.49946E-004	...........
	15	4.13333	1.11958E-002	1.00305E-002	6.48246E-004	...........
	16	4.39167	1.08049E-002	9.66513E-003	6.53346E-004	...........
	17	4.65	1.04271E-002	9.36499E-003	6.54046E-004	...........
	18	4.90833	1.00641E-002	9.02155E-003	6.55313E-004	...........
	19	5.16667	9.71733E-003	8.75316E-003	6.58946E-004	...........
	20	5.425	9.38658E-003	8.42448E-003	6.51613E-004	...........
	21	5.68333	9.07007E-003	8.17464E-003	6.55846E-004	...........
	22	5.94167	8.76566E-003	7.87258E-003	6.59746E-004	...........
	23	6.2	8.47173E-003	7.62204E-003	6.55913E-004	...........
	24	6.45833	8.18714E-003	7.36019E-003	6.54446E-004	...........
	25	6.71667	7.91163E-003	7.11791E-003	6.59379E-004	...........
	26	6.975	7.64606E-003	6.90155E-003	6.51246E-004	...........
	27	7.23333	7.39139E-003	6.64376E-003	6.58079E-004	...........
	28	7.49167	7.14734E-003	6.47171E-003	6.56846E-004	...........
	29	7.75	6.91294E-003	6.21446E-003	6.53146E-004	...........
	30	8.00833	6.68716E-003	6.04662E-003	6.55246E-004	...........
	31	8.26667	6.46842E-003	5.80433E-003	6.61579E-004	...........
	32	8.525	6.25537E-003	5.65582E-003	6.52280E-004	...........
	33	8.78333	6.04823E-003	5.43091E-003	6.56179E-004	...........
	34	9.04167	5.84776E-003	5.27768E-003	6.61379E-004	...........
	35	9.3	5.65403E-003	5.08958E-003	6.55113E-004	...........
	36	9.5583	5.46695E-003	4.92891E-003	6.56246E-004	...........
	37	9.8167	5.28655E-003	4.76862E-003	6.54546E-004	...........
	38	10.075	5.11277E-003	4.61164E-003	6.59146E-004	...........
EOC	QUANT	0.0051128	Open Circuit (V)
PSTATMODEL	IQUANT	4	Pstat Model
PSTATSECTION	LABEL	REF600-11020	Pstat Section
PSTATSERIALNO	LABEL	11020	Pstat Serial Number
CTRLMODE	IQUANT	1	Control Mode
IESTAB	IQUANT	0	I/E Stability
CASPEED	IQUANT	1	Control Amp Speed
CONVENTION	IQUANT	1	Current Convention
ICHRANGE	IQUANT	2	Ich Range
ICHRANGEMODE	TOGGLE	F	Ich Auto Range
ICHOFFSETENABLE	TOGGLE	T	Ich Offset Enable
ICHOFFSET	QUANT	0	Ich Offset (V)
ICHFILTER	IQUANT	3	Ich Filter
VCHRANGE	IQUANT	2	Vch Range
VCHRANGEMODE	TOGGLE	F	Vch Auto Range
VCHOFFSETENABLE	TOGGLE	T	Vch Offset Enable
VCHOFFSET	QUANT	0	Vch Offset (V)
VCHFILTER	IQUANT	3	Vch Filter
ACHRANGE	IQUANT	2	Ach Range
ACHOFFSETENABLE	TOGGLE	F	Ach Offset Enable
ACHOFFSET	QUANT	0	Ach Offset (V)
ACHFILTER	IQUANT	3	Ach Filter
IERANGELOWERLIMIT	IQUANT	1	I/E Range Lower Limit
IERANGEMODE	TOGGLE	F	I/E AutoRange
IERANGE	IQUANT	7	I/E Range
POSFEEDENABLE	TOGGLE	F	Positive Feedback IR Comp
POSFEEDRESISTANCE	QUANT	0	Positive Feedback Resistance (ohm)
ACHSELECT	IQUANT	0	Ach Select
CABLEID	IQUANT	14	Cable ID
DCCALDATE	LABEL	12/22/2019	DC Calibration Date
ACCALDATE	LABEL	12/22/2019	AC Calibration Date
THERMOSELECT	IQUANT	1	Thermo Select
FRAMEWORKVERSION	QUANT	6.33	Framework Version
INSTRUMENTVERSION	LABEL	3.50	Instrument Version
ZCURVE	TABLE
	Pt	Time	Freq	Zreal	Zimag	Zsig	Zmod	Zphz	Idc	Vdc	IERange
	#	s	Hz	ohm	ohm	V	ohm	°	A	V	#
	0	1	1000078	1558.074	-2099.375	1	2614.377	-53.41865	-2.247817E-006	0.0080705	8
	1	1	794390.6	1758.952	-2380.795	1	2960.084	-53.54269	1.450265E-007	0.0071316	8
	2	2	630984.4	1968.4	-2710.789	1	3350.071	-54.01527	1.721423E-007	0.0066992	8
	3	2	501234.4	2166.835	-3113.747	1	3793.494	-55.16621	-8.335325E-007	0.0069002	8
	4	2	398109.4	2391.126	-3609.124	1	4329.349	-56.47462	2.288066E-007	0.0067643	8
	5	3	316265.6	2630.084	-4241.628	1	4990.867	-58.19841	1.17632E-006	0.0064177	8
	6	3	251203.1	2887.248	-5010.715	1	5783.032	-60.04882	-2.123569E-006	0.0070473	8
	7	3	199546.9	3182.127	-5928.33	1	6728.375	-61.7746	-9.309871E-007	0.0067739	8
	8	4	158578.1	3543.904	-7094.79	1	7930.656	-63.45751	-7.375783E-007	0.0068062	8
	9	4	125953.1	4023.49	-8563.232	1	9461.364	-64.83321	-8.456473E-007	0.0083975	7
	10	5	100078.1	4547.064	-10341.5	1	11297.01	-66.26534	2.9228E-008	0.0065704	7
	11	5	79453.13	5202.713	-12536.17	1	13572.91	-67.46077	-4.020833E-008	0.0066586	7
	12	5	63140.62	6122.843	-15216.02	1	16401.72	-68.08041	-2.583153E-008	0.0065985	7
	13	6	50203.12	7274.005	-18466.97	1	19847.92	-68.50088	-4.085968E-008	0.0066509	7
	14	6	39890.62	8843.603	-22416.3	1	24097.71	-68.46994	-4.094438E-008	0.0066494	7
	15	6	31640.63	11146.75	-27090.42	1	29294.04	-67.63457	-7.421059E-009	0.0066181	7
	16	7	25171.88	14197.27	-32553.18	1	35514.39	-66.43677	-7.738294E-009	0.0066131	7
	17	7	20015.62	18420.54	-38759.77	1	42914.29	-64.58065	2.576701E-009	0.0065974	7
	18	7	15890.62	24044.15	-45697.16	1	51636.73	-62.24832	9.181667E-008	0.0064504	7
	19	7	12609.37	31902.39	-52753.8	1	61650.03	-58.83692	3.732819E-009	0.0065959	6
	20	8	10078.13	41455.41	-59411.3	1	72444.84	-55.09383	2.198849E-009	0.0065243	6
	21	8	8015.625	53017.64	-66156.81	1	84779.68	-51.29154	4.152176E-009	0.0065959	6
	22	8	6328.125	67361.83	-70428.82	1	97456.8	-46.2751	-1.599851E-009	0.0066335	6
	23	9	5015.625	82430.05	-72626.38	1	109860.4	-41.38221	1.096668E-008	0.0064565	6
	24	9	3984.375	97659	-71444.86	1	121002.6	-36.18827	4.008084E-010	0.0066654	6
	25	9	3170.956	112090.2	-68333.51	1	131277.1	-31.36772	5.073951E-009	0.006581	6
	26	10	2527.573	125296.2	-63780.06	1	140595.3	-26.97765	-2.64997E-009	0.006604	6
	27	10	1976.103	137316.7	-57241.15	1	148769.7	-22.62905	-2.218477E-009	0.0066823	6
	28	10	1577.524	147319.9	-51386.9	1	156024.9	-19.22937	-6.159088E-009	0.0066478	6
	29	11	1265.625	153017.1	-42301.09	1	158756.5	-15.45329	9.226622E-010	0.0066515	5
	30	11	998.264	157387.5	-35874.63	1	161424.3	-12.84052	1.11151E-009	0.0065266	5
	31	11	796.875	161255.8	-31035.61	1	164215.2	-10.89405	1.24183E-009	0.0064595	5
	32	12	627.7902	162714.9	-26341.05	1	164833.3	-9.195532	3.51431E-010	0.0066718	5
	33	12	505.5147	165365.9	-23546.18	1	167033.8	-8.10378	6.630739E-010	0.0065214	5
	34	12	397.9953	166494.8	-21060.06	1	167821.4	-7.209104	8.701552E-010	0.006579	5
	35	13	315.5048	166531.3	-19480.1	1	167666.8	-6.671888	3.966586E-010	0.0065793	5
	36	13	252.4038	168667.7	-19124.85	1	169748.5	-6.469009	4.593726E-010	0.006577	5
	37	13	198.6229	169616.5	-19247.31	1	170705.1	-6.473972	7.460428E-010	0.006577	5
	38	14	158.3615	169764.3	-20259.21	1	170968.9	-6.80534	7.869683E-010	0.0065722	5
	39	14	125.558	171371.6	-22060.36	1	172785.7	-7.335243	5.97802E-010	0.0065767	5
	40	14	100.4464	172810.7	-24164.41	1	174492	-7.960152	2.224157E-010	0.0065729	5
	41	14	79.00281	174130	-27499.52	1	176288	-8.974335	6.587159E-010	0.0065704	5
	42	15	63.3446	177170.1	-35225.21	1	180637.9	-11.24499	7.776421E-010	0.0065675	5
	43	15	49.86702	179123.7	-37846.52	1	183078.3	-11.93039	3.679437E-010	0.0065635	5
	44	16	39.72458	179916.2	-44172	1	185259.3	-13.7941	3.924752E-010	0.0065698	5
	45	16	31.6723	183095.2	-51937.17	1	190319	-15.83663	1.878841E-010	0.0065693	5
	46	17	24.93351	188481.3	-60319.75	1	197898.1	-17.74625	6.095111E-010	0.0065637	5
	47	17	19.86229	193756.9	-69627.75	1	205887.7	-19.76621	3.650605E-011	0.0065688	5
	48	17	15.83615	197183.9	-81059.13	1	213194.9	-22.34678	1.066075E-009	0.0065647	5
	49	18	12.40079	205903.9	-95124.9	1	226815.3	-24.79631	-1.201977E-009	0.0065702	5
	50	18	9.93114	214661.6	-110849.9	1	241593.2	-27.31154	5.631084E-010	0.0065704	5
	51	19	7.944915	221759	-128887.5	1	256493.8	-30.16538	1.359213E-009	0.0065634	5
	52	19	6.317385	232800.3	-151023.4	1	277496	-32.97249	9.484172E-010	0.0065516	5
	53	20	5.008013	245167.5	-178265.6	1	303126.7	-36.02156	4.395006E-010	0.0065645	5
	54	21	3.945707	261722	-211929.1	1	336767.5	-38.99878	3.174785E-010	0.0065719	5
	55	22	3.158693	280106.8	-250462.6	1	375754.4	-41.80206	9.290108E-011	0.0065585	5
	56	24	2.504006	301791.8	-297166.9	1	423540.4	-44.55759	2.400042E-010	0.0065589	5
	57	25	1.998082	326759.9	-351640.7	1	480024.2	-47.10042	3.978736E-010	0.0065971	5
	58	27	1.584686	357483	-415975	1	548479.1	-49.32471	2.557823E-010	0.0065574	5
	59	29	1.266892	393852.5	-489721.8	1	628448.3	-51.19247	1.853063E-010	0.0065215	5
	60	31	0.999041	438979.6	-582397.1	1	729307.5	-52.99298	1.534444E-010	0.0065194	5
