EXPLAIN
TAG	EISPOT
TITLE	LABEL	Potentiostatic EIS	Test &Identifier
DATE	LABEL	6/26/2020	Date
TIME	LABEL	13:30:34	Time
NOTES	NOTES	1	&Notes...
	
PSTAT	PSTAT	REF600-11020	Potentiostat
VDC	POTEN	0.00000E+000	T	DC &Voltage (V)
FREQINIT	QUANT	1.00000E+006	Initial Fre&q. (Hz)
FREQFINAL	QUANT	1.00000E+000	Final Fre&q. (Hz)
PTSPERDEC	QUANT	1.00000E+001	Points/&decade
VAC	QUANT	2.50000E+001	AC &Voltage (mV rms)
AREA	QUANT	4.00000E-004	&Area (cm^2)
CONDIT	TWOPARAM	F	5.00000E+000	0.00000E+000	Conditionin&g	Time(s)	E(V)
DELAY	TWOPARAM	F	3.00000E+000	0.00000E+000	Init. De&lay	Time(s)	Stab.(mV/s)
SPEED	SELECTOR	0	&Optimize for:
ZGUESS	QUANT	1.00000E+003	E&stimated Z (ohms)
OCVCURVE	TABLE	39
	Pt	T	Vf	Vm	Ach	Over
	#	s	V vs. Ref.	V	V	bits
	0	0.258333	1.03374E-001	1.03374E-001	5.20483E-004	...........
	1	0.516667	1.03374E-001	1.03359E-001	5.19217E-004	...........
	2	0.775	1.03372E-001	1.03342E-001	5.16550E-004	...........
	3	1.03333	1.03367E-001	1.03329E-001	5.19950E-004	...........
	4	1.29167	1.03357E-001	1.03313E-001	5.16283E-004	...........
	5	1.55	1.03344E-001	1.03296E-001	5.17650E-004	...........
	6	1.80833	1.03329E-001	1.03279E-001	5.20750E-004	...........
	7	2.06667	1.03314E-001	1.03266E-001	5.19283E-004	...........
	8	2.325	1.03298E-001	1.03250E-001	5.19417E-004	...........
	9	2.58333	1.03282E-001	1.03235E-001	5.17083E-004	...........
	10	2.84167	1.03266E-001	1.03221E-001	5.21383E-004	...........
	11	3.1	1.03251E-001	1.03208E-001	5.25283E-004	...........
	12	3.35833	1.03237E-001	1.03194E-001	5.21450E-004	...........
	13	3.61667	1.03223E-001	1.03179E-001	5.24983E-004	...........
	14	3.875	1.03209E-001	1.03162E-001	5.24517E-004	...........
	15	4.13333	1.03194E-001	1.03150E-001	5.21350E-004	...........
	16	4.39167	1.03180E-001	1.03136E-001	5.21817E-004	...........
	17	4.65	1.03165E-001	1.03123E-001	5.16883E-004	...........
	18	4.90833	1.03151E-001	1.03113E-001	5.16683E-004	...........
	19	5.16667	1.03138E-001	1.03097E-001	5.16750E-004	...........
	20	5.425	1.03125E-001	1.03086E-001	5.20283E-004	...........
	21	5.68333	1.03112E-001	1.03074E-001	5.14417E-004	...........
	22	5.94167	1.03100E-001	1.03063E-001	5.15350E-004	...........
	23	6.2	1.03087E-001	1.03050E-001	5.17883E-004	...........
	24	6.45833	1.03075E-001	1.03036E-001	5.14783E-004	...........
	25	6.71667	1.03063E-001	1.03025E-001	5.10684E-004	...........
	26	6.975	1.03050E-001	1.03010E-001	5.16117E-004	...........
	27	7.23333	1.03038E-001	1.02996E-001	5.14617E-004	...........
	28	7.49167	1.03025E-001	1.02986E-001	5.12683E-004	...........
	29	7.75	1.03012E-001	1.02975E-001	5.15483E-004	...........
	30	8.00833	1.02999E-001	1.02965E-001	5.18150E-004	...........
	31	8.26667	1.02987E-001	1.02952E-001	5.15883E-004	...........
	32	8.525	1.02976E-001	1.02939E-001	5.14683E-004	...........
	33	8.78333	1.02964E-001	1.02927E-001	5.14650E-004	...........
	34	9.04167	1.02953E-001	1.02917E-001	5.18917E-004	...........
	35	9.3	1.02941E-001	1.02906E-001	5.15917E-004	...........
	36	9.5583	1.02929E-001	1.02894E-001	5.18083E-004	...........
	37	9.8167	1.02918E-001	1.02882E-001	5.13317E-004	...........
	38	10.075	1.02906E-001	1.02868E-001	5.19117E-004	...........
EOC	QUANT	0.1029063	Open Circuit (V)
PSTATMODEL	IQUANT	4	Pstat Model
PSTATSECTION	LABEL	REF600-11020	Pstat Section
PSTATSERIALNO	LABEL	11020	Pstat Serial Number
CTRLMODE	IQUANT	1	Control Mode
IESTAB	IQUANT	0	I/E Stability
CASPEED	IQUANT	1	Control Amp Speed
CONVENTION	IQUANT	1	Current Convention
ICHRANGE	IQUANT	2	Ich Range
ICHRANGEMODE	TOGGLE	F	Ich Auto Range
ICHOFFSETENABLE	TOGGLE	T	Ich Offset Enable
ICHOFFSET	QUANT	0	Ich Offset (V)
ICHFILTER	IQUANT	3	Ich Filter
VCHRANGE	IQUANT	2	Vch Range
VCHRANGEMODE	TOGGLE	F	Vch Auto Range
VCHOFFSETENABLE	TOGGLE	T	Vch Offset Enable
VCHOFFSET	QUANT	0	Vch Offset (V)
VCHFILTER	IQUANT	3	Vch Filter
ACHRANGE	IQUANT	2	Ach Range
ACHOFFSETENABLE	TOGGLE	F	Ach Offset Enable
ACHOFFSET	QUANT	0	Ach Offset (V)
ACHFILTER	IQUANT	3	Ach Filter
IERANGELOWERLIMIT	IQUANT	1	I/E Range Lower Limit
IERANGEMODE	TOGGLE	F	I/E AutoRange
IERANGE	IQUANT	8	I/E Range
POSFEEDENABLE	TOGGLE	F	Positive Feedback IR Comp
POSFEEDRESISTANCE	QUANT	0	Positive Feedback Resistance (ohm)
ACHSELECT	IQUANT	0	Ach Select
CABLEID	IQUANT	14	Cable ID
DCCALDATE	LABEL	6/26/2020	DC Calibration Date
ACCALDATE	LABEL	6/26/2020	AC Calibration Date
THERMOSELECT	IQUANT	1	Thermo Select
FRAMEWORKVERSION	QUANT	6.33	Framework Version
INSTRUMENTVERSION	LABEL	3.50	Instrument Version
ZCURVE	TABLE
	Pt	Time	Freq	Zreal	Zimag	Zsig	Zmod	Zphz	Idc	Vdc	IERange
	#	s	Hz	ohm	ohm	V	ohm	°	A	V	#
	0	1	1000078	1577.784	-1444.287	1	2139.01	-42.47066	4.928174E-008	0.1055935	8
	1	1	794390.6	1762.629	-1565.422	1	2357.416	-41.60885	3.052869E-008	0.1051559	8
	2	2	630984.4	1955.698	-1705.172	1	2594.68	-41.08516	-1.179563E-008	0.1050075	8
	3	2	501234.4	2163.324	-1868.161	1	2858.32	-40.8126	7.394801E-008	0.1048654	8
	4	2	398109.4	2385.983	-2057.172	1	3150.377	-40.7676	8.962262E-008	0.1047646	8
	5	2	316265.6	2629.005	-2276.177	1	3477.449	-40.88582	1.624606E-007	0.1047421	8
	6	3	251203.1	2904.261	-2533.744	1	3854.166	-41.1022	8.933476E-008	0.1047151	8
	7	3	199546.9	3209.659	-2824.5	1	4275.478	-41.34779	5.020271E-008	0.1047295	8
	8	3	158578.1	3551.866	-3163.651	1	4756.516	-41.69149	7.372731E-008	0.1047393	8
	9	4	125953.1	4018.536	-3489.264	1	5321.992	-40.96753	-1.315834E-008	0.1047529	7
	10	4	100078.1	4457.594	-3912.523	1	5931.103	-41.2741	1.151955E-008	0.1046935	7
	11	4	79453.13	4948.49	-4377.252	1	6606.655	-41.49479	9.784428E-009	0.1046927	7
	12	5	63140.62	5499.691	-4898.611	1	7364.984	-41.69166	-7.820808E-009	0.1046906	7
	13	5	50203.12	6113.278	-5478.816	1	8209.116	-41.8672	3.827053E-009	0.1046862	7
	14	5	39890.62	6810.412	-6139.058	1	9168.955	-42.0322	6.891058E-009	0.1046852	7
	15	6	31640.63	7616.83	-6891.596	1	10271.82	-42.13833	-9.061051E-010	0.1046807	7
	16	6	25171.88	8532.214	-7683.896	1	11482.2	-42.0054	1.284828E-008	0.1046773	7
	17	6	20015.62	9603.07	-8565.351	1	12867.95	-41.731	4.348673E-009	0.1046847	7
	18	7	15890.62	10858.13	-9547.47	1	14458.67	-41.32492	1.281109E-008	0.1046718	7
	19	7	12609.37	12514.41	-10459.1	1	16309.6	-39.88768	3.088192E-010	0.1046762	6
	20	7	10078.13	14161.07	-11444.15	1	18207.27	-38.94312	1.496632E-009	0.104678	6
	21	8	8015.625	16099.48	-12439.92	1	20345.63	-37.69293	1.909024E-009	0.1046607	6
	22	8	6328.125	18373.01	-13295.31	1	22678.9	-35.89073	-1.568544E-010	0.1046889	6
	23	8	5015.625	20885.49	-14064.35	1	25179.55	-33.95645	1.51446E-009	0.1046565	6
	24	8	3984.375	23526.29	-14488.61	1	27629.8	-31.62675	4.127731E-010	0.1046702	6
	25	9	3170.956	26164.05	-14512.19	1	29919.24	-29.01544	1.944219E-009	0.1046744	6
	26	9	2527.573	28767.13	-14310.31	1	32129.94	-26.44821	2.46366E-009	0.104651	6
	27	9	1976.103	31376.49	-13771.05	1	34265.52	-23.69654	-3.737344E-010	0.1046785	6
	28	10	1577.524	33547.17	-13124.76	1	36023.21	-21.36707	2.330049E-009	0.10465	6
	29	10	1265.625	35415.59	-12437.97	1	37536.21	-19.3513	2.257067E-009	0.1046492	6
	30	10	998.264	37140.64	-11681.6	1	38934.39	-17.45957	1.49985E-009	0.1046484	6
	31	11	796.875	38501.03	-11028.17	1	40049.34	-15.98374	-4.435895E-010	0.1046759	6
	32	11	627.7902	39700.93	-10492.41	1	41064.03	-14.80401	-8.407237E-010	0.1046874	6
	33	11	505.5147	40669.1	-10241.79	1	41938.89	-14.135	1.171928E-009	0.104669	6
	34	12	397.9953	41546.7	-10125.7	1	42762.81	-13.69702	8.326472E-010	0.1046948	6
	35	12	315.5048	42414.95	-10332.84	1	43655.42	-13.69132	9.404924E-010	0.1046954	6
	36	12	252.4038	43080.68	-10787.42	1	44410.73	-14.05784	8.369203E-010	0.1046902	6
	37	13	198.6229	44114.89	-11703.33	1	45640.9	-14.85786	6.597497E-010	0.1046891	6
	38	13	158.3615	44855.18	-12914.71	1	46677.37	-16.06218	7.29234E-010	0.1046871	6
	39	13	125.558	45589.92	-14609.96	1	47873.71	-17.76883	9.913425E-010	0.1046871	6
	40	14	100.4464	46702.47	-16767.81	1	49621.37	-19.7499	7.957529E-010	0.1046862	6
	41	14	79.00281	47942.34	-19713.91	1	51837.3	-22.35249	7.947861E-010	0.1046831	6
	42	14	63.3446	49217.62	-23067.93	1	54355.34	-25.11214	8.028082E-010	0.1046868	6
	43	15	49.86702	50922.89	-27541.45	1	57893.63	-28.40656	1.280322E-010	0.1046829	6
	44	15	39.72458	53088.53	-32655.21	1	62327.8	-31.59603	1.506894E-010	0.1046867	6
	45	15	31.6723	55786.34	-38689.2	1	67889.39	-34.74226	-1.94511E-010	0.1046827	6
	46	16	24.93351	59342.65	-46149.97	1	75175.59	-37.87172	1.200452E-009	0.1046832	6
	47	16	19.86229	63922.27	-54425.61	1	83953.58	-40.4122	1.663291E-009	0.1046907	6
	48	16	15.83615	69654.38	-63892.48	1	94519.73	-42.5295	-1.217028E-010	0.1046828	6
	49	16	12.40079	76503.17	-75156.39	1	107243.7	-44.49121	1.678039E-009	0.1046759	5
	50	17	9.93114	84263.84	-87094.75	1	121185.4	-45.94646	1.38101E-009	0.1046809	5
	51	17	7.944915	93828.56	-100340.3	1	137375.3	-46.92078	-1.543248E-009	0.1046752	5
	52	18	6.317385	104646	-115660.9	1	155975.1	-47.86228	5.405149E-010	0.1046564	5
	53	18	5.008013	117444.6	-133138.2	1	177535.9	-48.58367	7.479518E-010	0.1046693	5
	54	19	3.945707	131820.3	-153025	1	201973.3	-49.25741	-2.615706E-010	0.1046619	5
	55	20	3.158693	146668.6	-174454.6	1	227916.9	-49.94535	4.359829E-010	0.1046691	5
	56	21	2.504006	162957.8	-200043.3	1	258016.6	-50.8333	1.737237E-010	0.1046559	5
	57	22	1.998082	180553.5	-229664.5	1	292139.3	-51.82691	-1.484152E-010	0.1046147	5
	58	24	1.584686	198903.7	-265351.1	1	331623.1	-53.14526	7.975766E-011	0.1046498	5
	59	26	1.266892	219429.6	-306966.3	1	377329.7	-54.44157	1.768074E-010	0.1046786	5
	60	28	0.999041	243344	-361638.2	1	435888.2	-56.06365	1.958835E-010	0.1046865	5
