EXPLAIN
TAG	EISPOT
TITLE	LABEL	Potentiostatic EIS	Test &Identifier
DATE	LABEL	1/18/2020	Date
TIME	LABEL	21:39:09	Time
NOTES	NOTES	6	&Notes...
	
	
	
	
	
	
PSTAT	PSTAT	REF600-11020	Potentiostat
VDC	POTEN	0.00000E+000	T	DC &Voltage (V)
FREQINIT	QUANT	1.00000E+006	Initial Fre&q. (Hz)
FREQFINAL	QUANT	1.00000E+000	Final Fre&q. (Hz)
PTSPERDEC	QUANT	1.00000E+001	Points/&decade
VAC	QUANT	2.50000E+001	AC &Voltage (mV rms)
AREA	QUANT	1.00000E-001	&Area (cm^2)
CONDIT	TWOPARAM	F	5.00000E+000	0.00000E+000	Conditionin&g	Time(s)	E(V)
DELAY	TWOPARAM	F	5.00000E+000	0.00000E+000	Init. De&lay	Time(s)	Stab.(mV/s)
SPEED	SELECTOR	0	&Optimize for:
ZGUESS	QUANT	5.00000E+002	E&stimated Z (ohms)
OCVCURVE	TABLE	39
	Pt	T	Vf	Vm	Ach	Over
	#	s	V vs. Ref.	V	V	bits
	0	0.258333	-2.52282E-002	-2.52282E-002	6.62879E-004	...........
	1	0.516667	-2.52254E-002	-2.50832E-002	6.59913E-004	...........
	2	0.775	-2.52094E-002	-2.49999E-002	6.61179E-004	...........
	3	1.03333	-2.51679E-002	-2.49328E-002	6.63679E-004	...........
	4	1.29167	-2.51085E-002	-2.52406E-002	6.56113E-004	...........
	5	1.55	-2.50685E-002	-2.52319E-002	6.59746E-004	...........
	6	1.80833	-2.50781E-002	-2.51022E-002	6.58179E-004	...........
	7	2.06667	-2.51212E-002	-2.53029E-002	6.57813E-004	...........
	8	2.325	-2.51610E-002	-2.50307E-002	6.55980E-004	...........
	9	2.58333	-2.51746E-002	-2.50088E-002	6.55846E-004	...........
	10	2.84167	-2.51545E-002	-2.51250E-002	6.55546E-004	...........
	11	3.1	-2.51169E-002	-2.51162E-002	6.59946E-004	...........
	12	3.35833	-2.50886E-002	-2.49050E-002	6.59613E-004	...........
	13	3.61667	-2.50639E-002	-2.47579E-002	6.58546E-004	...........
	14	3.875	-2.50111E-002	-2.46604E-002	6.57546E-004	...........
	15	4.13333	-2.49185E-002	-2.46146E-002	6.53646E-004	...........
	16	4.39167	-2.48080E-002	-2.45685E-002	6.55279E-004	...........
	17	4.65	-2.47081E-002	-2.45268E-002	6.61946E-004	...........
	18	4.90833	-2.46312E-002	-2.44829E-002	6.59813E-004	...........
	19	5.16667	-2.45740E-002	-2.44423E-002	6.56513E-004	...........
	20	5.425	-2.45279E-002	-2.44126E-002	6.59913E-004	...........
	21	5.68333	-2.44873E-002	-2.43864E-002	6.58213E-004	...........
	22	5.94167	-2.44508E-002	-2.43607E-002	6.56813E-004	...........
	23	6.2	-2.44184E-002	-2.43377E-002	6.58479E-004	...........
	24	6.45833	-2.43896E-002	-2.43095E-002	6.60046E-004	...........
	25	6.71667	-2.43631E-002	-2.42845E-002	6.59913E-004	...........
	26	6.975	-2.43376E-002	-2.42623E-002	6.57646E-004	...........
	27	7.23333	-2.43126E-002	-2.42395E-002	6.62146E-004	...........
	28	7.49167	-2.42881E-002	-2.42178E-002	6.60246E-004	...........
	29	7.75	-2.42638E-002	-2.41615E-002	6.56879E-004	...........
	30	8.00833	-2.42361E-002	-2.40607E-002	6.56113E-004	...........
	31	8.26667	-2.41990E-002	-2.40666E-002	6.67613E-004	...........
	32	8.525	-2.41533E-002	-2.40646E-002	6.65279E-004	...........
	33	8.78333	-2.41098E-002	-2.40387E-002	6.64479E-004	...........
	34	9.04167	-2.40775E-002	-2.40011E-002	6.61546E-004	...........
	35	9.3	-2.40535E-002	-2.39649E-002	6.61746E-004	...........
	36	9.5583	-2.40309E-002	-2.40021E-002	6.67746E-004	...........
	37	9.8167	-2.40105E-002	-2.40178E-002	6.64979E-004	...........
	38	10.075	-2.39993E-002	-2.40138E-002	6.67246E-004	...........
EOC	QUANT	-0.0239993	Open Circuit (V)
PSTATMODEL	IQUANT	4	Pstat Model
PSTATSECTION	LABEL	REF600-11020	Pstat Section
PSTATSERIALNO	LABEL	11020	Pstat Serial Number
CTRLMODE	IQUANT	1	Control Mode
IESTAB	IQUANT	0	I/E Stability
CASPEED	IQUANT	1	Control Amp Speed
CONVENTION	IQUANT	1	Current Convention
ICHRANGE	IQUANT	2	Ich Range
ICHRANGEMODE	TOGGLE	F	Ich Auto Range
ICHOFFSETENABLE	TOGGLE	T	Ich Offset Enable
ICHOFFSET	QUANT	0	Ich Offset (V)
ICHFILTER	IQUANT	3	Ich Filter
VCHRANGE	IQUANT	2	Vch Range
VCHRANGEMODE	TOGGLE	F	Vch Auto Range
VCHOFFSETENABLE	TOGGLE	T	Vch Offset Enable
VCHOFFSET	QUANT	0	Vch Offset (V)
VCHFILTER	IQUANT	3	Vch Filter
ACHRANGE	IQUANT	2	Ach Range
ACHOFFSETENABLE	TOGGLE	F	Ach Offset Enable
ACHOFFSET	QUANT	0	Ach Offset (V)
ACHFILTER	IQUANT	3	Ach Filter
IERANGELOWERLIMIT	IQUANT	1	I/E Range Lower Limit
IERANGEMODE	TOGGLE	F	I/E AutoRange
IERANGE	IQUANT	7	I/E Range
POSFEEDENABLE	TOGGLE	F	Positive Feedback IR Comp
POSFEEDRESISTANCE	QUANT	0	Positive Feedback Resistance (ohm)
ACHSELECT	IQUANT	0	Ach Select
CABLEID	IQUANT	14	Cable ID
DCCALDATE	LABEL	12/22/2019	DC Calibration Date
ACCALDATE	LABEL	12/22/2019	AC Calibration Date
THERMOSELECT	IQUANT	1	Thermo Select
FRAMEWORKVERSION	QUANT	6.33	Framework Version
INSTRUMENTVERSION	LABEL	3.50	Instrument Version
ZCURVE	TABLE
	Pt	Time	Freq	Zreal	Zimag	Zsig	Zmod	Zphz	Idc	Vdc	IERange
	#	s	Hz	ohm	ohm	V	ohm	°	A	V	#
	0	1	1000078	2338.536	-1569.874	1	2816.604	-33.87371	2.206024E-006	-0.0224756	8
	1	1	794390.6	2635.602	-1493.226	1	3029.211	-29.53415	1.724676E-007	-0.0223844	8
	2	2	630984.4	2901.287	-1408.308	1	3225.027	-25.89231	-5.118494E-007	-0.0219956	8
	3	2	501234.4	3143.426	-1305.994	1	3403.931	-22.56133	-3.338381E-006	-0.0216117	8
	4	2	398109.4	3341.038	-1162.714	1	3537.575	-19.18839	-5.010722E-007	-0.0223163	8
	5	3	316265.6	3490.377	-1058.087	1	3647.229	-16.86437	3.133476E-006	-0.0230009	8
	6	3	251203.1	3622.081	-951.654	1	3745.012	-14.721	-3.145E-006	-0.0217765	8
	7	3	199546.9	3718.623	-842.8211	1	3812.939	-12.77027	-6.862872E-007	-0.0222755	8
	8	3	158578.1	3793.91	-768.988	1	3871.059	-11.45806	1.480072E-006	-0.0227434	8
	9	4	125953.1	3888.731	-683.3524	1	3948.316	-9.96662	8.963285E-007	-0.0243705	7
	10	4	100078.1	3943.12	-650.5089	1	3996.418	-9.367887	-1.337287E-008	-0.022445	7
	11	4	79453.13	4001.701	-637.3769	1	4052.142	-9.049853	1.403865E-008	-0.0225579	7
	12	5	63140.62	4059.969	-637.8596	1	4109.771	-8.928722	4.83371E-008	-0.0224928	7
	13	5	50203.12	4116.241	-653.9412	1	4167.863	-9.027055	3.909209E-008	-0.0226202	7
	14	5	39890.62	4176.796	-684.2593	1	4232.474	-9.303777	2.132403E-008	-0.0225167	7
	15	6	31640.63	4241.033	-732.1501	1	4303.766	-9.79471	6.99963E-008	-0.0226198	7
	16	6	25171.88	4309.124	-795.8832	1	4382.006	-10.46444	3.94984E-008	-0.022624	7
	17	6	20015.62	4387.999	-876.6293	1	4474.708	-11.29775	6.904619E-008	-0.0226442	7
	18	7	15890.62	4469.145	-980.725	1	4575.486	-12.37701	1.068419E-007	-0.0226478	7
	19	7	12609.37	4564.103	-1106.167	1	4696.237	-13.62365	-1.757969E-008	-0.0223864	7
	20	7	10078.13	4667.721	-1250.373	1	4832.293	-14.99612	-1.632014E-008	-0.0223865	7
	21	8	8015.625	4787.644	-1424.676	1	4995.121	-16.57162	-4.49412E-008	-0.0224119	7
	22	8	6328.125	4927.658	-1641.045	1	5193.731	-18.41917	1.066669E-007	-0.0226514	7
	23	8	5015.625	5084.838	-1892.246	1	5425.512	-20.41199	4.428006E-009	-0.022565	7
	24	9	3984.375	5264.173	-2185.251	1	5699.723	-22.5442	-3.271924E-008	-0.0224895	7
	25	9	3170.956	5469.376	-2528.067	1	6025.379	-24.80743	-2.601519E-008	-0.0224103	7
	26	9	2527.573	5704.369	-2926.761	1	6411.377	-27.16116	7.135968E-008	-0.0226306	7
	27	9	1976.103	6000.328	-3433.834	1	6913.404	-29.7814	6.982652E-008	-0.0226395	7
	28	10	1577.524	6309.429	-3977.146	1	7458.323	-32.22527	3.737335E-009	-0.0224978	7
	29	10	1265.625	6671.147	-4612.01	1	8110.169	-34.65753	-7.041324E-009	-0.022411	7
	30	10	998.264	7121.027	-5403.713	1	8939.191	-37.19265	-2.912865E-008	-0.0225048	7
	31	11	796.875	7620.038	-6283.638	1	9876.69	-39.50968	1.73132E-009	-0.0224684	6
	32	11	627.7902	8241.232	-7372.976	1	11057.97	-41.81724	-3.187246E-009	-0.0224083	6
	33	11	505.5147	8903.016	-8522.518	1	12324.65	-43.74911	-7.771617E-009	-0.0224624	6
	34	12	397.9953	9746	-9992.51	1	13958.32	-45.7155	5.778881E-010	-0.022509	6
	35	12	315.5048	10702.71	-11656.28	1	15824.57	-47.44209	3.056684E-010	-0.0225096	6
	36	12	252.4038	11754.89	-13507.02	1	17905.78	-48.96758	4.649871E-010	-0.02251	6
	37	13	198.6229	13042.16	-15814.34	1	20498.57	-50.48745	4.276822E-010	-0.0225091	6
	38	13	158.3615	14408.6	-18366.26	1	23343.67	-51.8853	5.52223E-010	-0.0225103	6
	39	13	125.558	15969.51	-21433.64	1	26728.75	-53.31141	4.197158E-010	-0.0225047	6
	40	14	100.4464	17633.75	-24918.28	1	30526.54	-54.71435	-7.486369E-011	-0.0225083	6
	41	14	79.00281	19601.5	-29458.04	1	35383.54	-56.36004	2.111853E-010	-0.0225182	6
	42	14	63.3446	21351.84	-34377.2	1	40468.42	-58.15539	4.472591E-010	-0.0225135	6
	43	15	49.86702	23798.89	-41000.83	1	47407.34	-59.86702	4.130424E-010	-0.0225177	6
	44	15	39.72458	26533.75	-48819.14	1	55563.91	-61.47543	3.456618E-010	-0.0225129	6
	45	15	31.6723	29660.81	-58237.61	1	65355.82	-63.00994	5.814886E-010	-0.0225161	6
	46	16	24.93351	33485.13	-70387.75	1	77946.7	-64.55846	1.237529E-010	-0.0225186	6
	47	16	19.86229	38074.52	-84615.84	1	92787.45	-65.77373	5.036124E-010	-0.0225147	6
	48	16	15.83615	44122.01	-101685.7	1	110845.6	-66.54371	-4.915569E-010	-0.022516	5
	49	17	12.40079	52517.14	-123680	1	134368.1	-66.9929	-1.464828E-009	-0.0225121	5
	50	17	9.93114	61713.53	-148405.5	1	160725.7	-67.4203	-7.026241E-010	-0.022517	5
	51	17	7.944915	73709.21	-178581	1	193194.8	-67.57164	-8.74263E-010	-0.0225139	5
	52	18	6.317385	89670.16	-211676.3	1	229886	-67.04154	-8.81522E-011	-0.0225175	5
	53	18	5.008013	110308.2	-252682	1	275710.1	-66.41635	-2.169473E-010	-0.0225259	5
	54	20	3.945707	137164.7	-300842.8	1	330636.6	-65.4901	7.756883E-011	-0.0225214	5
	55	21	3.158693	168322.5	-352678.7	1	390787.3	-64.48631	-1.370634E-010	-0.0225142	5
	56	22	2.504006	207618.5	-413846.7	1	463005.9	-63.35801	-1.64712E-010	-0.0225231	5
	57	24	1.998082	253928.9	-479592.5	1	542668.3	-62.10021	5.050241E-011	-0.0224849	5
	58	25	1.584686	308085.8	-556976.1	1	636505.4	-61.05126	1.951261E-011	-0.0224935	5
	59	27	1.266892	370839.5	-638735.1	1	738582.8	-59.86123	-2.141292E-011	-0.0225333	5
	60	30	0.999041	450377.7	-736949.8	1	863675.4	-58.56933	-4.742149E-011	-0.0225525	5
