EXPLAIN
TAG	EISPOT
TITLE	LABEL	Potentiostatic EIS	Test &Identifier
DATE	LABEL	1/14/2020	Date
TIME	LABEL	18:58:15	Time
NOTES	NOTES	5	&Notes...
	
	
	
	
	
PSTAT	PSTAT	REF600-11020	Potentiostat
VDC	POTEN	0.00000E+000	T	DC &Voltage (V)
FREQINIT	QUANT	1.00000E+006	Initial Fre&q. (Hz)
FREQFINAL	QUANT	1.00000E+000	Final Fre&q. (Hz)
PTSPERDEC	QUANT	1.00000E+001	Points/&decade
VAC	QUANT	2.50000E+001	AC &Voltage (mV rms)
AREA	QUANT	1.00000E-001	&Area (cm^2)
CONDIT	TWOPARAM	T	5.00000E+000	0.00000E+000	Conditionin&g	Time(s)	E(V)
DELAY	TWOPARAM	T	5.00000E+000	0.00000E+000	Init. De&lay	Time(s)	Stab.(mV/s)
SPEED	SELECTOR	0	&Optimize for:
ZGUESS	QUANT	5.00000E+002	E&stimated Z (ohms)
OCVCURVE	TABLE	19
	Pt	T	Vf	Vm	Ach	Over
	#	s	V vs. Ref.	V	V	bits
	0	0.258333	1.91922E-002	1.91922E-002	6.67279E-004	...........
	1	0.516667	1.94531E-002	3.28486E-002	6.66379E-004	.........v.
	2	0.775	2.05974E-002	2.18341E-002	6.60779E-004	...........
	3	1.03333	2.26986E-002	3.14298E-002	6.66413E-004	.........v.
	4	1.29167	2.51682E-002	3.93470E-002	6.69779E-004	...........
	5	1.55	2.76619E-002	1.84383E-002	6.66079E-004	...........
	6	1.80833	2.94771E-002	3.28486E-002	6.66446E-004	.........v.
	7	2.06667	2.97992E-002	2.77415E-002	6.63813E-004	...........
	8	2.325	2.90842E-002	2.16896E-002	6.66146E-004	...........
	9	2.58333	2.81554E-002	3.28486E-002	6.58746E-004	.........v.
	10	2.84167	2.74435E-002	2.59047E-002	6.60546E-004	...........
	11	3.1	2.73245E-002	2.94885E-002	6.61713E-004	...........
	12	3.35833	2.79496E-002	4.18342E-002	6.60746E-004	...........
	13	3.61667	2.92726E-002	1.92617E-002	6.59813E-004	...........
	14	3.875	3.05010E-002	3.14706E-002	6.60246E-004	.........v.
	15	4.13333	3.07053E-002	3.84427E-002	6.63479E-004	...........
	16	4.39167	3.04763E-002	2.09609E-002	6.64913E-004	...........
	17	4.65	3.04507E-002	3.28456E-002	6.66179E-004	.........v.
	18	4.90833	3.02128E-002	3.09311E-002	6.63546E-004	...........
EOC	QUANT	0.0302128	Open Circuit (V)
PSTATMODEL	IQUANT	4	Pstat Model
PSTATSECTION	LABEL	REF600-11020	Pstat Section
PSTATSERIALNO	LABEL	11020	Pstat Serial Number
CTRLMODE	IQUANT	1	Control Mode
IESTAB	IQUANT	0	I/E Stability
CASPEED	IQUANT	1	Control Amp Speed
CONVENTION	IQUANT	1	Current Convention
ICHRANGE	IQUANT	2	Ich Range
ICHRANGEMODE	TOGGLE	F	Ich Auto Range
ICHOFFSETENABLE	TOGGLE	T	Ich Offset Enable
ICHOFFSET	QUANT	0	Ich Offset (V)
ICHFILTER	IQUANT	3	Ich Filter
VCHRANGE	IQUANT	2	Vch Range
VCHRANGEMODE	TOGGLE	F	Vch Auto Range
VCHOFFSETENABLE	TOGGLE	T	Vch Offset Enable
VCHOFFSET	QUANT	0	Vch Offset (V)
VCHFILTER	IQUANT	3	Vch Filter
ACHRANGE	IQUANT	2	Ach Range
ACHOFFSETENABLE	TOGGLE	F	Ach Offset Enable
ACHOFFSET	QUANT	0	Ach Offset (V)
ACHFILTER	IQUANT	3	Ach Filter
IERANGELOWERLIMIT	IQUANT	1	I/E Range Lower Limit
IERANGEMODE	TOGGLE	F	I/E AutoRange
IERANGE	IQUANT	8	I/E Range
POSFEEDENABLE	TOGGLE	F	Positive Feedback IR Comp
POSFEEDRESISTANCE	QUANT	0	Positive Feedback Resistance (ohm)
ACHSELECT	IQUANT	0	Ach Select
CABLEID	IQUANT	14	Cable ID
DCCALDATE	LABEL	12/22/2019	DC Calibration Date
ACCALDATE	LABEL	12/22/2019	AC Calibration Date
THERMOSELECT	IQUANT	1	Thermo Select
FRAMEWORKVERSION	QUANT	6.33	Framework Version
INSTRUMENTVERSION	LABEL	3.50	Instrument Version
ZCURVE	TABLE
	Pt	Time	Freq	Zreal	Zimag	Zsig	Zmod	Zphz	Idc	Vdc	IERange
	#	s	Hz	ohm	ohm	V	ohm	°	A	V	#
	0	1	1000078	943.6601	-9548.76	1	9595.28	-84.35605	6.14322E-008	0.032678	8
	1	2	794390.6	1296.144	-12315.82	1	12383.84	-83.99219	3.025936E-006	0.0316984	8
	2	2	630984.4	1550.702	-14952.17	1	15032.36	-84.07897	-1.101873E-006	0.0323685	8
	3	3	501234.4	1468.331	-18866.2	1	18923.25	-85.54972	-8.852597E-007	0.0320729	8
	4	3	398109.4	2369.67	-23321.55	1	23441.63	-84.19817	1.580529E-006	0.031569	8
	5	4	316265.6	2185.451	-29320.16	1	29401.49	-85.7372	-1.205422E-006	0.0320493	8
	6	4	251203.1	2509.583	-36324.19	1	36410.78	-86.0478	8.220611E-008	0.0318797	8
	7	5	199546.9	4388.063	-46239.27	1	46447.02	-84.57892	-2.557751E-006	0.0322768	8
	8	5	158578.1	2971.166	-55975.66	1	56054.46	-86.96162	1.434888E-006	0.0315367	8
	9	5	125953.1	4561.687	-71946.34	1	72090.8	-86.37207	1.80011E-007	0.0307437	7
	10	6	100078.1	2786.829	-89841.82	1	89885.03	-88.2233	4.896232E-009	0.0318116	7
	11	6	79453.13	8495.057	-111094.2	1	111418.5	-85.62727	2.066144E-009	0.0317489	7
	12	7	63140.62	9784.64	-138461.1	1	138806.4	-85.95779	-6.110272E-008	0.031962	7
	13	7	50203.12	13208.85	-171856.8	1	172363.6	-85.60491	-1.195685E-008	0.0317492	7
	14	7	39890.62	18354.78	-214991.2	1	215773.3	-85.12023	-4.910683E-009	0.0317702	7
	15	7	31640.63	22820.5	-268090	1	269059.5	-85.13457	-1.71085E-008	0.0317988	7
	16	8	25171.88	27015.31	-335440.5	1	336526.6	-85.39552	-1.15712E-008	0.0317444	7
	17	8	20015.62	33350.3	-429190.8	1	430484.5	-85.55676	4.732701E-008	0.0317125	7
	18	8	15890.62	57713.67	-518979.1	1	522178.3	-83.65443	-1.662623E-008	0.0317949	7
	19	9	12609.37	74851.05	-634214.2	1	638615.9	-83.26899	-3.953026E-009	0.0319262	6
	20	9	10078.13	47303.08	-770496.7	1	771947.4	-86.48685	1.466528E-008	0.0315104	6
	21	9	8015.625	90897.91	-947955.1	1	952303	-84.52274	-8.951459E-009	0.031819	6
	22	10	6328.125	178546.3	-1214894	1	1227943	-81.6394	4.437339E-009	0.0318748	6
	23	10	5015.625	182149.8	-1560008	1	1570606	-83.34018	2.027344E-009	0.0318633	6
	24	11	3984.375	434625.9	-1747955	1	1801179	-76.03667	1.441583E-008	0.0316644	6
	25	11	3170.956	438844.6	-2322167	1	2363270	-79.29842	3.435758E-009	0.0315917	6
	26	12	2527.573	650073.2	-2739274	1	2815354	-76.64977	3.98028E-009	0.031633	6
	27	12	1976.103	1269898	-3231076	1	3471670	-68.54387	3.775738E-009	0.031788	6
	28	13	1577.524	-120019.8	-7818945	1	7819866	-90.87942	9.06186E-010	0.0317188	6
	29	13	1265.625	1520902	-5141701	1	5361924	-73.52192	-6.72631E-010	0.0317953	5
	30	13	998.264	2094732	-6012961	1	6367386	-70.79322	-2.40606E-011	0.0318141	5
	31	14	796.875	3088732	-7137585	1	7777236	-66.59985	6.828618E-010	0.0317667	5
	32	14	627.7902	3975108	-8637023	1	9.507873E+006	-65.28619	1.34735E-009	0.0314971	5
	33	15	505.5147	5303039	-9.918067E+006	1	1.124679E+007	-61.86727	5.506897E-010	0.0317639	5
	34	15	397.9953	6901904	-1.123067E+007	1	1.318196E+007	-58.42683	-9.613953E-012	0.0317684	5
	35	15	315.5048	9252022	-1.257954E+007	1	1.561553E+007	-53.66619	-1.803682E-010	0.031768	5
	36	16	252.4038	1.12778E+007	-1.241373E+007	1	1.677169E+007	-47.74504	1.662669E-010	0.0317706	5
	37	16	198.6229	1.359812E+007	-1.345968E+007	1	1.913301E+007	-44.70686	-7.563766E-012	0.0317659	5
	38	17	158.3615	1.622509E+007	-1.716791E+007	1	2.362183E+007	-46.61728	3.893992E-011	0.0317639	5
	39	17	125.558	2.034084E+007	-1.6761E+007	1	2.635679E+007	-39.48877	9.497778E-012	0.0318042	4
	40	18	100.4464	1.681774E+007	-1.064764E+007	1	1.990499E+007	-32.3387	-2.432902E-010	0.0318068	4
	41	18	79.00281	2.471867E+007	1274507	1	2.475151E+007	2.951586	3.761655E-010	0.031804	4
	42	19	63.3446	8423982	-4727552	1	9.659877E+006	-29.30121	-1.845295E-010	0.0318041	4
	43	19	49.86702	2.859202E+007	-2687889	1	2.871809E+007	-5.370499	-9.062198E-011	0.0318023	4
	44	20	39.72458	2.752408E+007	-1.869096E+007	1	3.327051E+007	-34.17951	-6.087865E-011	0.0318115	4
	45	20	31.6723	3.178703E+007	1121377	1	3.180681E+007	2.020433	-5.030068E-011	0.0318003	4
	46	21	24.93351	3.226107E+007	-1.217592E+007	1	3.448231E+007	-20.67743	2.915234E-012	0.031803	4
	47	21	19.86229	3.505514E+007	-1.5022E+007	1	3.813821E+007	-23.19634	4.275112E-010	0.0318093	4
	48	22	15.83615	1.915808E+007	1.907922E+007	1	2.703791E+007	44.88184	4.414141E-010	0.0317959	4
	49	22	12.40079	7.261741E+007	6177715	1	7.287971E+007	4.862564	-2.285478E-010	0.0318028	4
	50	23	9.93114	3.576172E+007	-1276326	1	3.578449E+007	-2.044003	-1.323028E-010	0.031765	5
	51	24	7.944915	3.991352E+007	-2.17672E+007	1	4.546317E+007	-28.60625	-1.763404E-011	0.0318075	4
	52	25	6.317385	3.084891E+007	-1.226186E+007	1	3.319652E+007	-21.67689	-2.995112E-011	0.0318028	4
	53	26	5.008013	5.513108E+007	-2.776256E+007	1	6.172678E+007	-26.72862	-3.436767E-011	0.031793	4
	54	27	3.945707	4.974805E+007	-1.310283E+007	1	5.144466E+007	-14.75567	7.449738E-012	0.0317507	5
	55	29	3.158693	4.558346E+007	-7045271	1	4.612469E+007	-8.78598	-2.090418E-012	0.0318199	4
	56	31	2.504006	4.657759E+007	-6033700	1	4.696677E+007	-7.381041	-1.835483E-011	0.0317572	3
	57	33	1.998082	4.71145E+007	-6443532	1	4.755307E+007	-7.787643	-9.107785E-012	0.0317783	3
	58	36	1.584686	4.902864E+007	-5481544	1	4.933412E+007	-6.379341	-1.315152E-011	0.0317914	3
	59	39	1.266892	4.71596E+007	-5389440	1	4.746656E+007	-6.519527	1.725777E-011	0.0317709	3
	60	42	0.999041	5.114869E+007	-3149954	1	5.12456E+007	-3.524067	-2.647685E-011	0.0317437	3
