EXPLAIN
TAG	EISPOT
TITLE	LABEL	Potentiostatic EIS	Test &Identifier
DATE	LABEL	2/11/2020	Date
TIME	LABEL	11:28:03	Time
NOTES	NOTES	6	&Notes...
	
	
	
	
	
	
PSTAT	PSTAT	REF600-11020	Potentiostat
VDC	POTEN	0.00000E+000	T	DC &Voltage (V)
FREQINIT	QUANT	1.00000E+006	Initial Fre&q. (Hz)
FREQFINAL	QUANT	1.00000E+000	Final Fre&q. (Hz)
PTSPERDEC	QUANT	1.00000E+001	Points/&decade
VAC	QUANT	2.50000E+001	AC &Voltage (mV rms)
AREA	QUANT	4.00000E-005	&Area (cm^2)
CONDIT	TWOPARAM	F	5.00000E+000	0.00000E+000	Conditionin&g	Time(s)	E(V)
DELAY	TWOPARAM	F	5.00000E+000	0.00000E+000	Init. De&lay	Time(s)	Stab.(mV/s)
SPEED	SELECTOR	0	&Optimize for:
ZGUESS	QUANT	1.00000E+003	E&stimated Z (ohms)
OCVCURVE	TABLE	39
	Pt	T	Vf	Vm	Ach	Over
	#	s	V vs. Ref.	V	V	bits
	0	0.258333	-1.17070E-002	-1.17070E-002	5.72438E-004	...........
	1	0.516667	-1.17092E-002	-1.18226E-002	5.82004E-004	...........
	2	0.775	-1.17213E-002	-1.18559E-002	5.77671E-004	...........
	3	1.03333	-1.17506E-002	-1.18854E-002	5.79704E-004	...........
	4	1.29167	-1.17935E-002	-1.19094E-002	5.82671E-004	...........
	5	1.55	-1.18380E-002	-1.19376E-002	5.79604E-004	...........
	6	1.80833	-1.18761E-002	-1.19521E-002	5.82937E-004	...........
	7	2.06667	-1.19088E-002	-1.20903E-002	5.83304E-004	...........
	8	2.325	-1.19680E-002	-1.33127E-002	5.82037E-004	...........
	9	2.58333	-1.21337E-002	-1.32989E-002	5.76637E-004	...........
	10	2.84167	-1.24497E-002	-1.34173E-002	5.78437E-004	...........
	11	3.1	-1.28549E-002	-1.46413E-002	5.76604E-004	...........
	12	3.35833	-1.33023E-002	-1.53329E-002	5.76171E-004	...........
	13	3.61667	-1.38201E-002	-1.50552E-002	5.77271E-004	...........
	14	3.875	-1.43500E-002	-1.43237E-002	5.78037E-004	...........
	15	4.13333	-1.46853E-002	-1.34286E-002	5.73371E-004	...........
	16	4.39167	-1.46584E-002	-1.33141E-002	5.73171E-004	...........
	17	4.65	-1.43144E-002	-1.31647E-002	5.68904E-004	...........
	18	4.90833	-1.38650E-002	-1.32913E-002	5.73571E-004	...........
	19	5.16667	-1.34934E-002	-1.25037E-002	5.77671E-004	...........
	20	5.425	-1.32232E-002	-1.24457E-002	5.76738E-004	...........
	21	5.68333	-1.29924E-002	-1.29011E-002	5.84271E-004	...........
	22	5.94167	-1.28065E-002	-1.28099E-002	5.73937E-004	...........
	23	6.2	-1.27200E-002	-1.27313E-002	5.76371E-004	...........
	24	6.45833	-1.27227E-002	-1.28363E-002	5.71771E-004	...........
	25	6.71667	-1.27578E-002	-1.29679E-002	5.72538E-004	...........
	26	6.975	-1.28105E-002	-1.34643E-002	5.70038E-004	...........
	27	7.23333	-1.29139E-002	-1.35485E-002	5.76938E-004	...........
	28	7.49167	-1.30721E-002	-1.29067E-002	5.76038E-004	...........
	29	7.75	-1.31983E-002	-1.26710E-002	5.75837E-004	...........
	30	8.00833	-1.31898E-002	-1.28239E-002	5.71971E-004	...........
	31	8.26667	-1.30579E-002	-1.27008E-002	5.75837E-004	...........
	32	8.525	-1.29030E-002	-1.27061E-002	5.78937E-004	...........
	33	8.78333	-1.27924E-002	-1.26356E-002	5.72004E-004	...........
	34	9.04167	-1.27268E-002	-1.26159E-002	5.80971E-004	...........
	35	9.3	-1.26856E-002	-1.26614E-002	5.75504E-004	...........
	36	9.5583	-1.26576E-002	-1.25825E-002	5.74404E-004	...........
	37	9.8167	-1.26381E-002	-1.25747E-002	5.76904E-004	...........
	38	10.075	-1.26199E-002	-1.25294E-002	5.77271E-004	...........
EOC	QUANT	-0.0126199	Open Circuit (V)
PSTATMODEL	IQUANT	4	Pstat Model
PSTATSECTION	LABEL	REF600-11020	Pstat Section
PSTATSERIALNO	LABEL	11020	Pstat Serial Number
CTRLMODE	IQUANT	1	Control Mode
IESTAB	IQUANT	0	I/E Stability
CASPEED	IQUANT	1	Control Amp Speed
CONVENTION	IQUANT	1	Current Convention
ICHRANGE	IQUANT	2	Ich Range
ICHRANGEMODE	TOGGLE	F	Ich Auto Range
ICHOFFSETENABLE	TOGGLE	T	Ich Offset Enable
ICHOFFSET	QUANT	0	Ich Offset (V)
ICHFILTER	IQUANT	3	Ich Filter
VCHRANGE	IQUANT	2	Vch Range
VCHRANGEMODE	TOGGLE	F	Vch Auto Range
VCHOFFSETENABLE	TOGGLE	T	Vch Offset Enable
VCHOFFSET	QUANT	0	Vch Offset (V)
VCHFILTER	IQUANT	3	Vch Filter
ACHRANGE	IQUANT	2	Ach Range
ACHOFFSETENABLE	TOGGLE	F	Ach Offset Enable
ACHOFFSET	QUANT	0	Ach Offset (V)
ACHFILTER	IQUANT	3	Ach Filter
IERANGELOWERLIMIT	IQUANT	1	I/E Range Lower Limit
IERANGEMODE	TOGGLE	F	I/E AutoRange
IERANGE	IQUANT	7	I/E Range
POSFEEDENABLE	TOGGLE	F	Positive Feedback IR Comp
POSFEEDRESISTANCE	QUANT	0	Positive Feedback Resistance (ohm)
ACHSELECT	IQUANT	0	Ach Select
CABLEID	IQUANT	14	Cable ID
DCCALDATE	LABEL	1/27/2020	DC Calibration Date
ACCALDATE	LABEL	1/27/2020	AC Calibration Date
THERMOSELECT	IQUANT	1	Thermo Select
FRAMEWORKVERSION	QUANT	6.33	Framework Version
INSTRUMENTVERSION	LABEL	3.50	Instrument Version
ZCURVE	TABLE
	Pt	Time	Freq	Zreal	Zimag	Zsig	Zmod	Zphz	Idc	Vdc	IERange
	#	s	Hz	ohm	ohm	V	ohm	°	A	V	#
	0	1	1000078	2222.745	-2113.227	1	3066.972	-43.55313	-9.446409E-008	-0.0100745	8
	1	2	794390.6	2640.422	-2183.431	1	3426.252	-39.5882	-1.352086E-006	-0.0100291	8
	2	2	630984.4	3074.16	-2172.425	1	3764.291	-35.24781	7.848409E-007	-0.0108668	8
	3	2	501234.4	3501.387	-2122.684	1	4094.57	-31.22596	8.466422E-007	-0.0109937	8
	4	3	398109.4	3884.171	-2008.3	1	4372.648	-27.3411	3.459382E-007	-0.011037	8
	5	3	316265.6	4211.728	-1860.522	1	4604.366	-23.83334	-6.047723E-007	-0.0107337	8
	6	3	251203.1	4495.216	-1693.235	1	4803.542	-20.64013	-2.951352E-007	-0.0108311	8
	7	3	199546.9	4718.248	-1536.149	1	4962.017	-18.03401	-1.055057E-006	-0.0105776	8
	8	4	158578.1	4911.557	-1398.859	1	5106.877	-15.89747	-2.51186E-006	-0.0104676	8
	9	4	125953.1	5104.181	-1227.996	1	5249.822	-13.5275	7.829214E-007	-0.0124737	7
	10	4	100078.1	5230.377	-1130.091	1	5351.07	-12.19208	-3.382103E-008	-0.0109545	7
	11	5	79453.13	5344.63	-1063.941	1	5449.499	-11.25854	-3.940929E-008	-0.0109264	7
	12	5	63140.62	5448.661	-1020.814	1	5543.461	-10.61142	-1.745785E-008	-0.0109104	7
	13	5	50203.12	5547.248	-997.118	1	5636.152	-10.1901	2.429217E-009	-0.0108845	7
	14	6	39890.62	5641.756	-994.154	1	5728.678	-9.99369	-2.701542E-008	-0.0109783	7
	15	6	31640.63	5739.062	-1015.434	1	5828.202	-10.03371	-3.29256E-008	-0.0108474	7
	16	6	25171.88	5839.546	-1053.932	1	5933.892	-10.23071	-3.232396E-008	-0.0108506	7
	17	7	20015.62	5943.398	-1117.927	1	6047.623	-10.65262	3.878379E-008	-0.0110275	7
	18	7	15890.62	6054.964	-1201.108	1	6172.945	-11.21997	1.507869E-008	-0.0110511	7
	19	7	12609.37	6178.411	-1310.067	1	6315.777	-11.97165	7.323521E-008	-0.0111315	7
	20	8	10078.13	6307.734	-1440.844	1	6470.204	-12.86702	-3.239529E-008	-0.0108582	7
	21	8	8015.625	6448.598	-1602.625	1	6644.759	-13.95657	-3.708388E-008	-0.0109599	7
	22	8	6328.125	6615.372	-1805.523	1	6857.336	-15.26584	-2.863352E-008	-0.0109879	7
	23	9	5015.625	6796.854	-2042.371	1	7097.078	-16.72487	-3.037485E-008	-0.0109772	7
	24	9	3984.375	7001.895	-2320.876	1	7376.516	-18.3385	7.682726E-008	-0.0111088	7
	25	9	3170.956	7226.565	-2648.338	1	7696.554	-20.1265	-2.73899E-008	-0.0109902	7
	26	10	2527.573	7481.333	-3032.221	1	8072.465	-22.06295	5.291426E-009	-0.0109727	7
	27	10	1976.103	7798.459	-3522.49	1	8557.097	-24.30825	1.163695E-007	-0.0111512	7
	28	10	1577.524	8126.972	-4043.247	1	9077.198	-26.45079	7.534535E-008	-0.0111216	7
	29	11	1265.625	8498.172	-4644.009	1	9684.3	-28.65535	-2.573678E-009	-0.0108878	6
	30	11	998.264	8951.253	-5402.832	1	10455.41	-31.1145	-7.73281E-009	-0.0109123	6
	31	11	796.875	9438.914	-6242.844	1	11316.63	-33.48042	7.439015E-009	-0.0110128	6
	32	11	627.7902	10025.55	-7291.051	1	12396.42	-36.0264	2.118821E-009	-0.010933	6
	33	12	505.5147	10635.04	-8407.809	1	13557.11	-38.32906	-1.673711E-010	-0.0110202	6
	34	12	397.9953	11398	-9857.41	1	15069.27	-40.85448	1.392638E-009	-0.010987	6
	35	12	315.5048	12231.89	-11524.64	1	16805.85	-43.29475	2.572197E-010	-0.0109895	6
	36	13	252.4038	13134.23	-13420.14	1	18777.86	-45.61688	2.410849E-010	-0.010993	6
	37	13	198.6229	14220.17	-15848.69	1	21293.06	-48.10008	1.016579E-009	-0.0109894	6
	38	13	158.3615	15381.8	-18608.15	1	24142.56	-50.42231	7.917986E-010	-0.010992	6
	39	14	125.558	16697.77	-22006.65	1	27624.41	-52.81023	7.628759E-010	-0.0109951	6
	40	14	100.4464	18178.89	-25982.54	1	31710.64	-55.02114	1.404825E-009	-0.0109992	6
	41	14	79.00281	19899.03	-31226.63	1	37028.02	-57.49286	1.525821E-009	-0.0109992	6
	42	15	63.3446	21940.83	-36554.62	1	42633.79	-59.02696	6.303902E-010	-0.0110024	6
	43	15	49.86702	24479.36	-44458.13	1	50751.98	-61.16211	6.077328E-010	-0.0110016	6
	44	15	39.72458	27150.11	-53661.87	1	60139.21	-63.16297	1.347086E-009	-0.0109943	6
	45	16	31.6723	30723.39	-64737.58	1	71658.09	-64.61176	1.383531E-009	-0.010998	6
	46	16	24.93351	35803.9	-78468.03	1	86250.52	-65.47343	1.163797E-009	-0.0109977	6
	47	16	19.86229	41746.02	-94379.41	1	103199.8	-66.13918	1.923644E-009	-0.0109901	6
	48	17	15.83615	50522.06	-112555.7	1	123374.5	-65.82646	1.480222E-009	-0.0110021	5
	49	17	12.40079	61491.17	-136346.3	1	149571	-65.72498	-1.434926E-009	-0.0109926	5
	50	17	9.93114	74172.21	-162935.4	1	179023.7	-65.5238	6.427308E-010	-0.0109924	5
	51	18	7.944915	91382.57	-191988.1	1	212626.9	-64.54647	9.130074E-010	-0.0109994	5
	52	19	6.317385	113415	-225753	1	252640.8	-63.32573	6.85569E-010	-0.0110084	5
	53	19	5.008013	141137.2	-263842.5	1	299219.9	-61.85635	4.907273E-010	-0.0109965	5
	54	20	3.945707	175990.7	-306379.3	1	353328.4	-60.12603	2.34178E-011	-0.0109987	5
	55	22	3.158693	213719.1	-349161.4	1	409377	-58.52951	3.698379E-011	-0.0110161	5
	56	24	2.504006	259752.4	-397130.5	1	474535.5	-56.81238	3.38827E-010	-0.0110077	5
	57	25	1.998082	308709	-446753.2	1	543037.4	-55.3553	1.967956E-010	-0.0110141	5
	58	26	1.584686	367340.3	-502705.7	1	622617	-53.84341	2.523521E-011	-0.0110577	5
	59	28	1.266892	427878.2	-562809	1	706989.2	-52.75592	1.891465E-011	-0.0110456	5
	60	31	0.999041	498122.1	-632069.6	1	804759.3	-51.75903	1.921812E-011	-0.0110159	5
