EXPLAIN
TAG	EISPOT
TITLE	LABEL	Potentiostatic EIS	Test &Identifier
DATE	LABEL	9/1/2020	Date
TIME	LABEL	21:58:30	Time
NOTES	NOTES	1	&Notes...
	
PSTAT	PSTAT	REF600-11020	Potentiostat
VDC	POTEN	0.00000E+000	T	DC &Voltage (V)
FREQINIT	QUANT	1.00000E+006	Initial Fre&q. (Hz)
FREQFINAL	QUANT	1.00000E+000	Final Fre&q. (Hz)
PTSPERDEC	QUANT	1.00000E+001	Points/&decade
VAC	QUANT	2.50000E+001	AC &Voltage (mV rms)
AREA	QUANT	4.00000E-005	&Area (cm^2)
CONDIT	TWOPARAM	F	5.00000E+000	0.00000E+000	Conditionin&g	Time(s)	E(V)
DELAY	TWOPARAM	F	3.00000E+000	0.00000E+000	Init. De&lay	Time(s)	Stab.(mV/s)
SPEED	SELECTOR	0	&Optimize for:
ZGUESS	QUANT	1.00000E+003	E&stimated Z (ohms)
OCVCURVE	TABLE	39
	Pt	T	Vf	Vm	Ach	Over
	#	s	V vs. Ref.	V	V	bits
	0	0.258333	2.28935E-001	2.28935E-001	5.61059E-004	...........
	1	0.516667	2.28936E-001	2.29001E-001	5.60859E-004	...........
	2	0.775	2.28944E-001	2.29070E-001	5.62325E-004	...........
	3	1.03333	2.28967E-001	2.29133E-001	5.65392E-004	...........
	4	1.29167	2.29008E-001	2.29201E-001	5.66825E-004	...........
	5	1.55	2.29064E-001	2.29266E-001	5.69192E-004	...........
	6	1.80833	2.29128E-001	2.29333E-001	5.63492E-004	...........
	7	2.06667	2.29194E-001	2.29402E-001	5.67258E-004	...........
	8	2.325	2.29261E-001	2.29468E-001	5.64458E-004	...........
	9	2.58333	2.29329E-001	2.29536E-001	5.62625E-004	...........
	10	2.84167	2.29396E-001	2.29603E-001	5.64225E-004	...........
	11	3.1	2.29463E-001	2.29672E-001	5.67825E-004	...........
	12	3.35833	2.29531E-001	2.29739E-001	5.66458E-004	...........
	13	3.61667	2.29598E-001	2.29802E-001	5.65058E-004	...........
	14	3.875	2.29666E-001	2.29868E-001	5.67192E-004	...........
	15	4.13333	2.29732E-001	2.29937E-001	5.66392E-004	...........
	16	4.39167	2.29798E-001	2.30001E-001	5.68258E-004	...........
	17	4.65	2.29864E-001	2.30067E-001	5.64458E-004	...........
	18	4.90833	2.29930E-001	2.30129E-001	5.65792E-004	...........
	19	5.16667	2.29996E-001	2.30198E-001	5.67558E-004	...........
	20	5.425	2.30061E-001	2.30259E-001	5.69758E-004	...........
	21	5.68333	2.30126E-001	2.30322E-001	5.70125E-004	...........
	22	5.94167	2.30190E-001	2.30385E-001	5.67925E-004	...........
	23	6.2	2.30254E-001	2.30445E-001	5.66558E-004	...........
	24	6.45833	2.30317E-001	2.30505E-001	5.65992E-004	...........
	25	6.71667	2.30379E-001	2.30567E-001	5.62559E-004	...........
	26	6.975	2.30440E-001	2.30625E-001	5.67925E-004	...........
	27	7.23333	2.30501E-001	2.30683E-001	5.63892E-004	...........
	28	7.49167	2.30561E-001	2.30742E-001	5.63692E-004	...........
	29	7.75	2.30620E-001	2.30805E-001	5.69958E-004	...........
	30	8.00833	2.30679E-001	2.30857E-001	5.61225E-004	...........
	31	8.26667	2.30738E-001	2.30917E-001	5.64558E-004	...........
	32	8.525	2.30797E-001	2.30973E-001	5.64358E-004	...........
	33	8.78333	2.30854E-001	2.31027E-001	5.61725E-004	...........
	34	9.04167	2.30911E-001	2.31083E-001	5.66458E-004	...........
	35	9.3	2.30967E-001	2.31139E-001	5.62325E-004	...........
	36	9.5583	2.31023E-001	2.31192E-001	5.65958E-004	...........
	37	9.8167	2.31078E-001	2.31241E-001	5.67925E-004	...........
	38	10.075	2.31133E-001	2.31294E-001	5.62525E-004	...........
EOC	QUANT	0.2311328	Open Circuit (V)
PSTATMODEL	IQUANT	4	Pstat Model
PSTATSECTION	LABEL	REF600-11020	Pstat Section
PSTATSERIALNO	LABEL	11020	Pstat Serial Number
CTRLMODE	IQUANT	1	Control Mode
IESTAB	IQUANT	0	I/E Stability
CASPEED	IQUANT	1	Control Amp Speed
CONVENTION	IQUANT	1	Current Convention
ICHRANGE	IQUANT	2	Ich Range
ICHRANGEMODE	TOGGLE	F	Ich Auto Range
ICHOFFSETENABLE	TOGGLE	T	Ich Offset Enable
ICHOFFSET	QUANT	0	Ich Offset (V)
ICHFILTER	IQUANT	3	Ich Filter
VCHRANGE	IQUANT	2	Vch Range
VCHRANGEMODE	TOGGLE	F	Vch Auto Range
VCHOFFSETENABLE	TOGGLE	T	Vch Offset Enable
VCHOFFSET	QUANT	0	Vch Offset (V)
VCHFILTER	IQUANT	3	Vch Filter
ACHRANGE	IQUANT	2	Ach Range
ACHOFFSETENABLE	TOGGLE	F	Ach Offset Enable
ACHOFFSET	QUANT	0	Ach Offset (V)
ACHFILTER	IQUANT	3	Ach Filter
IERANGELOWERLIMIT	IQUANT	1	I/E Range Lower Limit
IERANGEMODE	TOGGLE	F	I/E AutoRange
IERANGE	IQUANT	8	I/E Range
POSFEEDENABLE	TOGGLE	F	Positive Feedback IR Comp
POSFEEDRESISTANCE	QUANT	0	Positive Feedback Resistance (ohm)
ACHSELECT	IQUANT	0	Ach Select
CABLEID	IQUANT	14	Cable ID
DCCALDATE	LABEL	9/1/2020	DC Calibration Date
ACCALDATE	LABEL	9/1/2020	AC Calibration Date
THERMOSELECT	IQUANT	1	Thermo Select
FRAMEWORKVERSION	QUANT	6.33	Framework Version
INSTRUMENTVERSION	LABEL	3.50	Instrument Version
ZCURVE	TABLE
	Pt	Time	Freq	Zreal	Zimag	Zsig	Zmod	Zphz	Idc	Vdc	IERange
	#	s	Hz	ohm	ohm	V	ohm	°	A	V	#
	0	1	1000078	1837.792	-2649.192	1	3224.236	-55.25027	7.767515E-008	0.2333873	8
	1	2	794390.6	2222.468	-2998.391	1	3732.252	-53.45341	6.572974E-008	0.2330596	8
	2	2	630984.4	2668.935	-3370.16	1	4298.976	-51.6232	6.84218E-008	0.2329046	8
	3	2	501234.4	3193.567	-3752.504	1	4927.49	-49.60057	8.839245E-008	0.2328306	8
	4	3	398109.4	3800.873	-4133.165	1	5615.13	-47.39825	8.276917E-008	0.2327763	8
	5	3	316265.6	4508.937	-4504.548	1	6373.497	-44.97211	7.935284E-008	0.2327411	8
	6	3	251203.1	5319.061	-4839.037	1	7190.875	-42.29448	7.19188E-008	0.2327218	8
	7	4	199546.9	6211.925	-5081.742	1	8025.715	-39.28531	6.90816E-008	0.2327365	8
	8	4	158578.1	7162.697	-5256.09	1	8884.296	-36.27176	8.917401E-008	0.23276	8
	9	4	125953.1	8228.972	-5267.186	1	9770.32	-32.62243	1.476177E-009	0.2327272	7
	10	5	100078.1	9197.354	-5185.313	1	10558.35	-29.41357	3.668497E-009	0.2327206	7
	11	5	79453.13	10121.42	-5013.74	1	11295.16	-26.35195	2.940743E-009	0.2326981	7
	12	5	63140.62	10964.3	-4762.509	1	11953.97	-23.47844	1.976549E-009	0.2327015	7
	13	6	50203.12	11705.1	-4463.08	1	12527.11	-20.87153	3.066542E-009	0.2327026	7
	14	6	39890.62	12358.31	-4140.267	1	13033.41	-18.52182	2.873082E-009	0.2326989	7
	15	6	31640.63	12940.78	-3831.446	1	13496.06	-16.49273	2.879176E-009	0.2326899	7
	16	6	25171.88	13419.22	-3543.129	1	13879.09	-14.79049	3.651162E-009	0.2326846	7
	17	7	20015.62	13833.55	-3295.419	1	14220.66	-13.39922	3.240475E-009	0.2326942	7
	18	7	15890.62	14209.31	-3093.643	1	14542.19	-12.28272	3.700068E-009	0.2326918	7
	19	7	12609.37	14615.46	-2825.264	1	14886.03	-10.94071	1.786223E-010	0.2326905	6
	20	8	10078.13	14880.18	-2748.365	1	15131.86	-10.46458	3.098792E-010	0.2326911	6
	21	8	8015.625	15131	-2729.765	1	15375.26	-10.22666	1.140892E-011	0.2326839	6
	22	8	6328.125	15376.03	-2781.643	1	15625.62	-10.25434	1.189233E-010	0.2326848	6
	23	9	5015.625	15604.31	-2904.63	1	15872.34	-10.54452	4.216121E-010	0.2326863	6
	24	9	3984.375	15837.69	-3109.49	1	16140.05	-11.10787	1.653302E-010	0.2326834	6
	25	9	3170.956	16065.19	-3401.109	1	16421.27	-11.9534	-4.110622E-011	0.2326867	6
	26	10	2527.573	16320.13	-3791.146	1	16754.68	-13.0778	-4.880323E-010	0.232677	6
	27	10	1976.103	16611.04	-4343.074	1	17169.42	-14.65238	-1.842441E-010	0.2326768	6
	28	10	1577.524	16912.16	-4985.172	1	17631.6	-16.42385	-7.187584E-012	0.2326773	6
	29	11	1265.625	17250.76	-5759.604	1	18186.86	-18.46289	-5.047386E-011	0.2326717	6
	30	11	998.264	17667.78	-6781.616	1	18924.61	-20.99884	-6.85538E-010	0.2326602	6
	31	11	796.875	18131.37	-7965.682	1	19804	-23.7174	1.868049E-012	0.2326692	6
	32	12	627.7902	18688.98	-9486.93	1	20959.01	-26.91333	-1.734968E-010	0.2326702	6
	33	12	505.5147	19291.87	-11156.5	1	22285.51	-30.04082	-6.291432E-010	0.2326693	6
	34	12	397.9953	20064.93	-13385.78	1	24120.13	-33.70817	3.194298E-010	0.2326901	6
	35	13	315.5048	20949.17	-16008.07	1	26365.24	-37.38484	2.933727E-010	0.2326876	6
	36	13	252.4038	21953.71	-19049.95	1	29066.58	-40.94923	2.566999E-010	0.2326863	6
	37	13	198.6229	23240.09	-23005.93	1	32701.29	-44.70988	2.817001E-010	0.2326843	6
	38	13	158.3615	24706.49	-27542.21	1	36999.79	-48.10659	2.045976E-010	0.2326856	6
	39	14	125.558	26526.04	-33158.63	1	42463.23	-51.34111	1.9581E-010	0.2326877	6
	40	14	100.4464	28648.83	-39665.87	1	48929.91	-54.16115	1.414102E-010	0.2326856	6
	41	14	79.00281	31472.21	-48134.31	1	57510.1	-56.82167	2.468454E-010	0.2326823	6
	42	15	63.3446	34682.13	-57503.98	1	67153.25	-58.90474	1.41937E-010	0.2326834	6
	43	15	49.86702	38985.01	-69675.26	1	79840.3	-60.77192	2.354265E-010	0.2326812	6
	44	16	39.72458	44090.1	-83565.45	1	94483.45	-62.18335	4.397111E-010	0.2326854	6
	45	16	31.6723	50449.02	-99963.1	1	111972	-63.221	1.28314E-011	0.2326778	5
	46	16	24.93351	58760.1	-120708.6	1	134251	-64.04351	-1.86555E-010	0.232677	5
	47	17	19.86229	68656.45	-144228.7	1	159736.1	-64.54439	9.669075E-011	0.2326792	5
	48	17	15.83615	80940.05	-171819.7	1	189929.7	-64.77602	-4.061407E-010	0.2326756	5
	49	17	12.40079	97732.4	-207144.6	1	229042.6	-64.7417	-7.426378E-010	0.2326823	5
	50	17	9.93114	116788.7	-244551.7	1	271007.6	-64.47262	-7.124403E-010	0.2326777	5
	51	18	7.944915	141095	-288205.3	1	320889.5	-63.91528	8.80188E-011	0.2326819	5
	52	18	6.317385	171983.5	-339820.4	1	380862.5	-63.15597	-2.537238E-010	0.2326969	5
	53	19	5.008013	211224.6	-399238.8	1	451671.9	-62.11811	-3.951331E-010	0.2326766	5
	54	20	3.945707	261202.4	-466493.3	1	534642.6	-60.75434	-7.228549E-011	0.2326836	5
	55	21	3.158693	317699.6	-536752.3	1	623727.6	-59.37904	-3.113991E-010	0.2326752	5
	56	22	2.504006	386856.4	-614608.6	1	726224.3	-57.81224	-1.893718E-010	0.2326667	5
	57	23	1.998082	464991.7	-697057.8	1	837918.1	-56.29363	-5.145763E-011	0.2327128	5
	58	25	1.584686	553811	-787107	1	962416	-54.86966	-1.095783E-010	0.2326798	5
	59	27	1.266892	654214.2	-881691.4	1	1097896	-53.42462	-1.920012E-010	0.2326426	4
	60	29	0.999041	771321.4	-993184	1	1257518	-52.16656	-2.329396E-010	0.2326271	4
