EXPLAIN
TAG	EISPOT
TITLE	LABEL	Potentiostatic EIS	Test &Identifier
DATE	LABEL	2/6/2020	Date
TIME	LABEL	18:17:21	Time
NOTES	NOTES	6	&Notes...
	
	
	
	
	
	
PSTAT	PSTAT	REF600-11020	Potentiostat
VDC	POTEN	0.00000E+000	T	DC &Voltage (V)
FREQINIT	QUANT	1.00000E+006	Initial Fre&q. (Hz)
FREQFINAL	QUANT	1.00000E+000	Final Fre&q. (Hz)
PTSPERDEC	QUANT	1.00000E+001	Points/&decade
VAC	QUANT	2.50000E+001	AC &Voltage (mV rms)
AREA	QUANT	1.60000E-004	&Area (cm^2)
CONDIT	TWOPARAM	F	5.00000E+000	0.00000E+000	Conditionin&g	Time(s)	E(V)
DELAY	TWOPARAM	F	5.00000E+000	0.00000E+000	Init. De&lay	Time(s)	Stab.(mV/s)
SPEED	SELECTOR	0	&Optimize for:
ZGUESS	QUANT	1.00000E+003	E&stimated Z (ohms)
OCVCURVE	TABLE	39
	Pt	T	Vf	Vm	Ach	Over
	#	s	V vs. Ref.	V	V	bits
	0	0.258333	2.02927E-002	2.02927E-002	5.76637E-004	...........
	1	0.516667	2.02929E-002	2.03050E-002	5.71704E-004	...........
	2	0.775	2.02944E-002	2.03187E-002	5.74437E-004	...........
	3	1.03333	2.02991E-002	2.03501E-002	5.73804E-004	...........
	4	1.29167	2.03087E-002	2.03525E-002	5.71538E-004	...........
	5	1.55	2.03225E-002	2.03572E-002	5.76537E-004	...........
	6	1.80833	2.03369E-002	2.03638E-002	5.74704E-004	...........
	7	2.06667	2.03487E-002	2.03764E-002	5.79737E-004	...........
	8	2.325	2.03580E-002	2.03889E-002	5.79004E-004	...........
	9	2.58333	2.03668E-002	2.03955E-002	5.77404E-004	...........
	10	2.84167	2.03760E-002	2.03992E-002	5.75837E-004	...........
	11	3.1	2.03851E-002	2.04133E-002	5.74171E-004	...........
	12	3.35833	2.03937E-002	2.04194E-002	5.76871E-004	...........
	13	3.61667	2.04021E-002	2.04287E-002	5.72071E-004	...........
	14	3.875	2.04105E-002	2.04320E-002	5.74537E-004	...........
	15	4.13333	2.04186E-002	2.04407E-002	5.68571E-004	...........
	16	4.39167	2.04260E-002	2.04405E-002	5.78004E-004	...........
	17	4.65	2.04323E-002	2.04476E-002	5.78971E-004	...........
	18	4.90833	2.04376E-002	2.04541E-002	5.70771E-004	...........
	19	5.16667	2.04425E-002	2.04557E-002	5.74004E-004	...........
	20	5.425	2.04472E-002	2.04584E-002	5.71004E-004	...........
	21	5.68333	2.04516E-002	2.04598E-002	5.74304E-004	...........
	22	5.94167	2.04552E-002	2.04669E-002	5.74738E-004	...........
	23	6.2	2.04583E-002	2.04671E-002	5.71371E-004	...........
	24	6.45833	2.04614E-002	2.04695E-002	5.72838E-004	...........
	25	6.71667	2.04643E-002	2.04671E-002	5.69504E-004	...........
	26	6.975	2.04666E-002	2.04723E-002	5.72604E-004	...........
	27	7.23333	2.04681E-002	2.04722E-002	5.76437E-004	...........
	28	7.49167	2.04696E-002	2.04774E-002	5.75404E-004	...........
	29	7.75	2.04713E-002	2.04769E-002	5.69638E-004	...........
	30	8.00833	2.04732E-002	2.04748E-002	5.70471E-004	...........
	31	8.26667	2.04749E-002	2.04780E-002	5.68738E-004	...........
	32	8.525	2.04760E-002	2.04789E-002	5.67471E-004	...........
	33	8.78333	2.04767E-002	2.04789E-002	5.73504E-004	...........
	34	9.04167	2.04773E-002	2.04711E-002	5.74604E-004	...........
	35	9.3	2.04773E-002	2.04730E-002	5.74871E-004	...........
	36	9.5583	2.04764E-002	2.04806E-002	5.74004E-004	...........
	37	9.8167	2.04756E-002	2.04801E-002	5.72704E-004	...........
	38	10.075	2.04762E-002	2.04840E-002	5.76471E-004	...........
EOC	QUANT	0.0204762	Open Circuit (V)
PSTATMODEL	IQUANT	4	Pstat Model
PSTATSECTION	LABEL	REF600-11020	Pstat Section
PSTATSERIALNO	LABEL	11020	Pstat Serial Number
CTRLMODE	IQUANT	1	Control Mode
IESTAB	IQUANT	0	I/E Stability
CASPEED	IQUANT	1	Control Amp Speed
CONVENTION	IQUANT	1	Current Convention
ICHRANGE	IQUANT	2	Ich Range
ICHRANGEMODE	TOGGLE	F	Ich Auto Range
ICHOFFSETENABLE	TOGGLE	T	Ich Offset Enable
ICHOFFSET	QUANT	0	Ich Offset (V)
ICHFILTER	IQUANT	3	Ich Filter
VCHRANGE	IQUANT	2	Vch Range
VCHRANGEMODE	TOGGLE	F	Vch Auto Range
VCHOFFSETENABLE	TOGGLE	T	Vch Offset Enable
VCHOFFSET	QUANT	0	Vch Offset (V)
VCHFILTER	IQUANT	3	Vch Filter
ACHRANGE	IQUANT	2	Ach Range
ACHOFFSETENABLE	TOGGLE	F	Ach Offset Enable
ACHOFFSET	QUANT	0	Ach Offset (V)
ACHFILTER	IQUANT	3	Ach Filter
IERANGELOWERLIMIT	IQUANT	1	I/E Range Lower Limit
IERANGEMODE	TOGGLE	F	I/E AutoRange
IERANGE	IQUANT	7	I/E Range
POSFEEDENABLE	TOGGLE	F	Positive Feedback IR Comp
POSFEEDRESISTANCE	QUANT	0	Positive Feedback Resistance (ohm)
ACHSELECT	IQUANT	0	Ach Select
CABLEID	IQUANT	14	Cable ID
DCCALDATE	LABEL	1/27/2020	DC Calibration Date
ACCALDATE	LABEL	1/27/2020	AC Calibration Date
THERMOSELECT	IQUANT	1	Thermo Select
FRAMEWORKVERSION	QUANT	6.33	Framework Version
INSTRUMENTVERSION	LABEL	3.50	Instrument Version
ZCURVE	TABLE
	Pt	Time	Freq	Zreal	Zimag	Zsig	Zmod	Zphz	Idc	Vdc	IERange
	#	s	Hz	ohm	ohm	V	ohm	°	A	V	#
	0	1	1000078	2283.809	-2394.809	1	3309.214	-46.35908	-5.095015E-007	0.0234744	8
	1	1	794390.6	2749.938	-2580.021	1	3770.765	-43.17405	-4.249247E-006	0.0234452	8
	2	1	630984.4	3270.463	-2681.769	1	4229.399	-39.35164	2.105057E-006	0.022064	8
	3	2	501234.4	3810.015	-2733.253	1	4689.018	-35.65515	-1.36004E-006	0.0224384	8
	4	2	398109.4	4354.773	-2682.935	1	5114.899	-31.63684	6.921687E-008	0.022117	8
	5	2	316265.6	4855.544	-2544.038	1	5481.646	-27.65206	1.893461E-006	0.0217931	8
	6	3	251203.1	5315.957	-2373.14	1	5821.614	-24.05686	9.28496E-007	0.0219013	8
	7	3	199546.9	5692.948	-2159.394	1	6088.73	-20.77225	2.798632E-006	0.0216273	8
	8	3	158578.1	5965.23	-1890.794	1	6257.721	-17.58701	-2.678222E-006	0.022602	8
	9	4	125953.1	6289.038	-1626.586	1	6495.982	-14.50111	-5.166676E-007	0.0231179	7
	10	4	100078.1	6481.42	-1424.238	1	6636.058	-12.3933	6.681216E-008	0.0219536	7
	11	4	79453.13	6632.67	-1253.423	1	6750.065	-10.7014	-2.138942E-008	0.0220635	7
	12	5	63140.62	6755.292	-1106.563	1	6845.324	-9.302819	5.169728E-008	0.0220494	7
	13	5	50203.12	6850.524	-988.612	1	6921.491	-8.211771	-4.396733E-008	0.0221456	7
	14	5	39890.62	6931.014	-896.341	1	6988.733	-7.368776	2.842975E-009	0.0219941	7
	15	6	31640.63	7003.475	-830.2269	1	7052.513	-6.760577	-4.253121E-008	0.0221119	7
	16	6	25171.88	7065.498	-789.8634	1	7109.511	-6.378704	-1.624181E-008	0.0221032	7
	17	6	20015.62	7123.976	-772.145	1	7165.699	-6.185959	-3.653075E-009	0.0220918	7
	18	7	15890.62	7181.954	-771.9258	1	7223.319	-6.134675	-2.030361E-008	0.0221404	7
	19	7	12609.37	7239.966	-800.7148	1	7284.11	-6.311063	5.001266E-008	0.0220438	7
	20	7	10078.13	7295.951	-843.6664	1	7344.568	-6.596095	2.741678E-008	0.0220241	7
	21	8	8015.625	7348.496	-916.4026	1	7405.416	-7.108438	-2.88537E-008	0.0220577	7
	22	8	6328.125	7410.534	-1023.138	1	7480.831	-7.860861	-3.596061E-008	0.0220704	7
	23	8	5015.625	7479.222	-1160.704	1	7568.751	-8.821387	1.059472E-007	0.0218987	7
	24	8	3984.375	7543.735	-1336.412	1	7661.197	-10.04602	-2.496677E-008	0.022051	7
	25	9	3170.956	7613.688	-1561.398	1	7772.143	-11.5894	-2.440622E-008	0.0220515	7
	26	9	2527.573	7697.433	-1839.537	1	7914.188	-13.44049	2.635383E-008	0.0220141	7
	27	9	1976.103	7794.678	-2215.156	1	8103.328	-15.86453	-3.024701E-008	0.022051	7
	28	10	1577.524	7905.911	-2650.966	1	8338.527	-18.53704	-8.730081E-010	0.0220625	7
	29	10	1265.625	8021.708	-3166.43	1	8624.041	-21.54077	2.066195E-008	0.0219672	7
	30	10	998.264	8175.626	-3857.999	1	9040.189	-25.26217	4.250009E-008	0.0219171	7
	31	11	796.875	8356.586	-4659.944	1	9568.05	-29.14567	-8.051883E-009	0.0221064	6
	32	11	627.7902	8582.596	-5710.171	1	10308.59	-33.63661	-4.332026E-009	0.0221045	6
	33	11	505.5147	8835.429	-6872.79	1	11193.75	-37.87817	6.508749E-009	0.0218814	6
	34	12	397.9953	9173.688	-8446.279	1	12469.81	-42.63599	1.238804E-009	0.0220503	6
	35	12	315.5048	9583.28	-10321.44	1	14084.44	-47.12382	2.708088E-010	0.0220499	6
	36	12	252.4038	10070.65	-12516.71	1	16065.05	-51.18068	9.88447E-010	0.0220482	6
	37	13	198.6229	10710.6	-15397.66	1	18756.46	-55.17755	7.434932E-010	0.0220487	6
	38	13	158.3615	11464.45	-18735.49	1	21964.79	-58.53709	3.718766E-010	0.0220484	6
	39	13	125.558	12429.25	-22903.56	1	26058.77	-61.51231	7.821467E-010	0.0220494	6
	40	14	100.4464	13607.35	-27766.02	1	30921.06	-63.89181	1.230023E-009	0.0220487	6
	41	14	79.00281	15191.22	-34248.26	1	37466.21	-66.07976	1.221872E-009	0.0220437	6
	42	14	63.3446	16613.11	-41238.84	1	44459.39	-68.05791	9.532606E-011	0.0220497	6
	43	15	49.86702	19256.52	-50715.63	1	54248.4	-69.20844	1.01421E-010	0.0220433	6
	44	15	39.72458	22646.19	-61970.25	1	65978.5	-69.92586	6.989534E-010	0.022048	6
	45	15	31.6723	26683.12	-75041.98	1	79644.77	-70.42584	1.226994E-009	0.0220428	6
	46	16	24.93351	32509.96	-92026.77	1	97600.3	-70.5434	5.073704E-010	0.0220394	6
	47	16	19.86229	39901.74	-111257.7	1	118196.5	-70.27	-4.148102E-010	0.0220421	5
	48	16	15.83615	49783.26	-132937.8	1	141953.6	-69.4698	1.049112E-009	0.0220381	5
	49	17	12.40079	63335	-160771.7	1	172797.2	-68.49835	-1.314998E-009	0.0220449	5
	50	17	9.93114	78473.63	-191815.4	1	207246.9	-67.75004	4.624124E-010	0.0220438	5
	51	18	7.944915	97897.4	-225204.1	1	245562.2	-66.50517	8.806949E-010	0.0220436	5
	52	18	6.317385	123305.9	-264304.1	1	291652.2	-64.98952	5.495495E-010	0.0220326	5
	53	19	5.008013	154025.8	-308508.6	1	344820.9	-63.46891	3.338945E-010	0.0220443	5
	54	20	3.945707	191267.1	-357802	1	405715.9	-61.87276	6.035845E-011	0.0220485	5
	55	21	3.158693	229824.2	-410261.2	1	470248.2	-60.74289	-3.4657E-011	0.0220328	5
	56	23	2.504006	275983.8	-469806.3	1	544871.6	-59.56826	8.966444E-011	0.0220305	5
	57	24	1.998082	324706.7	-536346.8	1	626978.8	-58.8091	1.73221E-010	0.0220604	5
	58	26	1.584686	380749.9	-613241.6	1	721828	-58.16465	6.028059E-011	0.0220139	5
	59	28	1.266892	443290.9	-701635.4	1	829939.3	-57.71544	2.62686E-011	0.0219895	5
	60	30	0.999041	516724.7	-812166.4	1	962610	-57.53426	1.009219E-011	0.0219896	5
