EXPLAIN
TAG	EISPOT
TITLE	LABEL	Potentiostatic EIS	Test &Identifier
DATE	LABEL	9/1/2020	Date
TIME	LABEL	21:49:36	Time
NOTES	NOTES	1	&Notes...
	
PSTAT	PSTAT	REF600-11020	Potentiostat
VDC	POTEN	0.00000E+000	T	DC &Voltage (V)
FREQINIT	QUANT	1.00000E+006	Initial Fre&q. (Hz)
FREQFINAL	QUANT	1.00000E+000	Final Fre&q. (Hz)
PTSPERDEC	QUANT	1.00000E+001	Points/&decade
VAC	QUANT	2.50000E+001	AC &Voltage (mV rms)
AREA	QUANT	4.00000E-005	&Area (cm^2)
CONDIT	TWOPARAM	F	5.00000E+000	0.00000E+000	Conditionin&g	Time(s)	E(V)
DELAY	TWOPARAM	F	3.00000E+000	0.00000E+000	Init. De&lay	Time(s)	Stab.(mV/s)
SPEED	SELECTOR	0	&Optimize for:
ZGUESS	QUANT	1.00000E+003	E&stimated Z (ohms)
OCVCURVE	TABLE	39
	Pt	T	Vf	Vm	Ach	Over
	#	s	V vs. Ref.	V	V	bits
	0	0.258333	1.90780E-001	1.90780E-001	5.62159E-004	...........
	1	0.516667	1.90780E-001	1.90792E-001	5.63692E-004	...........
	2	0.775	1.90782E-001	1.90809E-001	5.61959E-004	...........
	3	1.03333	1.90786E-001	1.90816E-001	5.63159E-004	...........
	4	1.29167	1.90794E-001	1.90819E-001	5.63258E-004	...........
	5	1.55	1.90803E-001	1.90822E-001	5.64725E-004	...........
	6	1.80833	1.90812E-001	1.90829E-001	5.62259E-004	...........
	7	2.06667	1.90818E-001	1.90832E-001	5.61292E-004	...........
	8	2.325	1.90823E-001	1.90836E-001	5.61959E-004	...........
	9	2.58333	1.90828E-001	1.90841E-001	5.62725E-004	...........
	10	2.84167	1.90832E-001	1.90843E-001	5.63159E-004	...........
	11	3.1	1.90836E-001	1.90842E-001	5.61692E-004	...........
	12	3.35833	1.90839E-001	1.90837E-001	5.61125E-004	...........
	13	3.61667	1.90841E-001	1.90844E-001	5.65625E-004	...........
	14	3.875	1.90841E-001	1.90847E-001	5.63692E-004	...........
	15	4.13333	1.90842E-001	1.90836E-001	5.64492E-004	...........
	16	4.39167	1.90842E-001	1.90834E-001	5.66458E-004	...........
	17	4.65	1.90841E-001	1.90833E-001	5.67025E-004	...........
	18	4.90833	1.90839E-001	1.90832E-001	5.66225E-004	...........
	19	5.16667	1.90836E-001	1.90830E-001	5.62859E-004	...........
	20	5.425	1.90834E-001	1.90831E-001	5.61392E-004	...........
	21	5.68333	1.90832E-001	1.90831E-001	5.62525E-004	...........
	22	5.94167	1.90831E-001	1.90830E-001	5.61959E-004	...........
	23	6.2	1.90831E-001	1.90830E-001	5.63292E-004	...........
	24	6.45833	1.90831E-001	1.90828E-001	5.64558E-004	...........
	25	6.71667	1.90830E-001	1.90826E-001	5.63792E-004	...........
	26	6.975	1.90829E-001	1.90826E-001	5.64025E-004	...........
	27	7.23333	1.90828E-001	1.90825E-001	5.62059E-004	...........
	28	7.49167	1.90827E-001	1.90826E-001	5.61659E-004	...........
	29	7.75	1.90826E-001	1.90826E-001	5.64692E-004	...........
	30	8.00833	1.90826E-001	1.90830E-001	5.62325E-004	...........
	31	8.26667	1.90826E-001	1.90833E-001	5.62225E-004	...........
	32	8.525	1.90827E-001	1.90833E-001	5.59425E-004	...........
	33	8.78333	1.90829E-001	1.90838E-001	5.59492E-004	...........
	34	9.04167	1.90832E-001	1.90841E-001	5.55459E-004	...........
	35	9.3	1.90834E-001	1.90845E-001	5.55192E-004	...........
	36	9.5583	1.90838E-001	1.90852E-001	5.59192E-004	...........
	37	9.8167	1.90841E-001	1.90855E-001	5.66492E-004	...........
	38	10.075	1.90846E-001	1.90862E-001	5.58925E-004	...........
EOC	QUANT	0.1908457	Open Circuit (V)
PSTATMODEL	IQUANT	4	Pstat Model
PSTATSECTION	LABEL	REF600-11020	Pstat Section
PSTATSERIALNO	LABEL	11020	Pstat Serial Number
CTRLMODE	IQUANT	1	Control Mode
IESTAB	IQUANT	0	I/E Stability
CASPEED	IQUANT	1	Control Amp Speed
CONVENTION	IQUANT	1	Current Convention
ICHRANGE	IQUANT	2	Ich Range
ICHRANGEMODE	TOGGLE	F	Ich Auto Range
ICHOFFSETENABLE	TOGGLE	T	Ich Offset Enable
ICHOFFSET	QUANT	0	Ich Offset (V)
ICHFILTER	IQUANT	3	Ich Filter
VCHRANGE	IQUANT	2	Vch Range
VCHRANGEMODE	TOGGLE	F	Vch Auto Range
VCHOFFSETENABLE	TOGGLE	T	Vch Offset Enable
VCHOFFSET	QUANT	0	Vch Offset (V)
VCHFILTER	IQUANT	3	Vch Filter
ACHRANGE	IQUANT	2	Ach Range
ACHOFFSETENABLE	TOGGLE	F	Ach Offset Enable
ACHOFFSET	QUANT	0	Ach Offset (V)
ACHFILTER	IQUANT	3	Ach Filter
IERANGELOWERLIMIT	IQUANT	1	I/E Range Lower Limit
IERANGEMODE	TOGGLE	F	I/E AutoRange
IERANGE	IQUANT	8	I/E Range
POSFEEDENABLE	TOGGLE	F	Positive Feedback IR Comp
POSFEEDRESISTANCE	QUANT	0	Positive Feedback Resistance (ohm)
ACHSELECT	IQUANT	0	Ach Select
CABLEID	IQUANT	14	Cable ID
DCCALDATE	LABEL	9/1/2020	DC Calibration Date
ACCALDATE	LABEL	9/1/2020	AC Calibration Date
THERMOSELECT	IQUANT	1	Thermo Select
FRAMEWORKVERSION	QUANT	6.33	Framework Version
INSTRUMENTVERSION	LABEL	3.50	Instrument Version
ZCURVE	TABLE
	Pt	Time	Freq	Zreal	Zimag	Zsig	Zmod	Zphz	Idc	Vdc	IERange
	#	s	Hz	ohm	ohm	V	ohm	°	A	V	#
	0	1	1000078	1515.408	-2925.892	1	3295.042	-62.61899	7.394561E-008	0.1928201	8
	1	1	794390.6	1829.628	-3424.845	1	3882.924	-61.88788	8.619354E-008	0.1925336	8
	2	1	630984.4	2202.945	-3983.54	1	4552.094	-61.05689	6.670909E-008	0.1924026	8
	3	2	501234.4	2637.024	-4612.528	1	5313.126	-60.24301	9.001702E-008	0.1923178	8
	4	2	398109.4	3141.951	-5322.132	1	6180.368	-59.44428	8.69293E-008	0.1922665	8
	5	2	316265.6	3701.892	-6110.911	1	7144.734	-58.79319	5.3857E-008	0.1922362	8
	6	3	251203.1	4318.97	-7028.873	1	8249.761	-58.43089	5.341872E-008	0.1922244	8
	7	3	199546.9	5028.039	-8069.354	1	9507.66	-58.07284	6.270608E-008	0.1922439	8
	8	3	158578.1	5782.085	-9334.413	1	10980.15	-58.22437	8.672895E-008	0.1922315	8
	9	4	125953.1	6770.992	-10797.13	1	12744.58	-57.90775	1.733725E-009	0.1922293	7
	10	4	100078.1	7777.751	-12520.4	1	14739.53	-58.15118	2.926835E-009	0.1922074	7
	11	4	79453.13	8921.801	-14597.1	1	17107.71	-58.56657	2.638514E-009	0.1922008	7
	12	4	63140.62	10257.54	-17033.21	1	19883.35	-58.9433	2.185012E-009	0.1921992	7
	13	5	50203.12	11841.54	-19926.73	1	23179.66	-59.27894	3.38236E-009	0.1922026	7
	14	5	39890.62	13727.29	-23365.15	1	27099.24	-59.56528	3.714129E-009	0.1921982	7
	15	5	31640.63	16087.81	-27416.36	1	31787.96	-59.59576	2.655389E-009	0.1921991	7
	16	6	25171.88	18870.01	-32001.77	1	37150.91	-59.47404	3.204053E-009	0.1921971	7
	17	6	20015.62	22190.74	-37502.33	1	43575.84	-59.38651	4.775822E-009	0.1921977	7
	18	6	15890.62	26406.05	-43631.92	1	51000.23	-58.81767	3.13341E-009	0.1921953	7
	19	7	12609.37	31997.89	-50687.7	1	59942.54	-57.73679	4.489629E-010	0.1921881	6
	20	7	10078.13	37864.61	-58423.23	1	69620.41	-57.05237	6.093957E-010	0.1921844	6
	21	7	8015.625	45032.98	-67259.02	1	80942.85	-56.19589	7.695565E-010	0.1921888	6
	22	8	6328.125	53992.95	-77306.66	1	94295.06	-55.06857	7.662131E-010	0.1921879	6
	23	8	5015.625	64440.45	-88166.66	1	109205.9	-53.83717	7.087717E-010	0.1921866	6
	24	8	3984.375	76671.48	-99824.5	1	125870.7	-52.47348	7.679205E-010	0.192184	6
	25	9	3170.956	90783.71	-111965.5	1	144145.6	-50.96421	3.893725E-010	0.1921789	6
	26	9	2527.573	106938.5	-124610.1	1	164205.7	-49.36432	7.559652E-010	0.1921809	6
	27	9	1976.103	127030.4	-138487.5	1	187924.2	-47.47076	4.681946E-010	0.1921782	6
	28	10	1577.524	147702.2	-151894.6	1	211867.6	-45.80172	8.200827E-010	0.1921845	6
	29	10	1265.625	173716.6	-161686.6	1	237318.4	-42.94583	4.883986E-011	0.192167	5
	30	10	998.264	199722.3	-175015.7	1	265555.1	-41.22792	4.831236E-011	0.1921668	5
	31	10	796.875	226403.1	-187246.2	1	293801.8	-39.59238	5.783874E-011	0.192167	5
	32	11	627.7902	256716.6	-199676.7	1	325229.5	-37.87612	7.673302E-011	0.1921674	5
	33	11	505.5147	285493.5	-210250.5	1	354558.6	-36.36964	3.788455E-011	0.1921704	5
	34	11	397.9953	318728.2	-221661.4	1	388228.6	-34.81691	5.687172E-011	0.1921877	5
	35	12	315.5048	352054.3	-232388.9	1	421837.5	-33.42856	5.887722E-011	0.1921846	5
	36	12	252.4038	384853.2	-242818.5	1	455052.6	-32.24938	6.79788E-011	0.1921813	5
	37	12	198.6229	420704.1	-254538.6	1	491713.2	-31.17519	7.883864E-011	0.1921801	5
	38	13	158.3615	455229.4	-266684.9	1	527593.3	-30.36285	6.801804E-011	0.1921824	5
	39	13	125.558	491420	-280851.9	1	566013.6	-29.74844	7.93204E-011	0.1921806	5
	40	13	100.4464	527510.3	-296684.5	1	605218	-29.35445	4.359739E-011	0.1921844	5
	41	14	79.00281	568229.1	-316405.3	1	650381.9	-29.11024	5.680134E-011	0.1921779	5
	42	14	63.3446	608220.9	-337224.5	1	695451.7	-29.00592	7.417453E-011	0.1921738	5
	43	14	49.86702	654618.8	-362486	1	748279.3	-28.97487	8.485064E-011	0.1921753	5
	44	15	39.72458	701678	-388936.1	1	802261.4	-28.99935	1.38376E-010	0.1921781	5
	45	15	31.6723	751034.5	-417890.8	1	859468.2	-29.09245	1.150643E-010	0.1921769	5
	46	15	24.93351	805112.1	-451976.3	1	923302.9	-29.30912	1.320484E-010	0.1921725	5
	47	16	19.86229	861339.9	-489718.9	1	990823	-29.6206	3.291822E-010	0.1921813	4
	48	16	15.83615	917410.6	-534255.9	1	1061636	-30.21447	-1.5043E-010	0.1921729	4
	49	16	12.40079	979137	-593485.6	1	1144961	-31.22136	6.838569E-011	0.1921797	4
	50	17	9.93114	1042742	-660408.4	1	1234281	-32.34766	5.534754E-011	0.1921858	4
	51	17	7.944915	1113244	-739494.3	1	1336475	-33.59488	-2.025909E-010	0.1921821	4
	52	17	6.317385	1203049	-835738.8	1	1464850	-34.7871	1.093015E-010	0.1921672	4
	53	18	5.008013	1311341	-947568.1	1	1617869	-35.85168	1.457476E-010	0.192185	4
	54	19	3.945707	1441173	-1072469	1	1796432	-36.65529	-3.707257E-012	0.1921738	4
	55	20	3.158693	1589019	-1198286	1	1990194	-37.0201	1.121318E-010	0.1921747	4
	56	21	2.504006	1763161	-1332150	1	2209833	-37.07273	6.37989E-011	0.1921787	4
	57	22	1.998082	1956744	-1463923	1	2443751	-36.80172	-3.224429E-011	0.1921277	4
	58	24	1.584686	2168523	-1601513	1	2695800	-36.44686	-5.637881E-011	0.1921716	4
	59	26	1.266892	2392564	-1730756	1	2952944	-35.88158	-4.288744E-011	0.1922041	4
	60	28	0.999041	2645146	-1875417	1	3242528	-35.33677	-7.605346E-013	0.192218	4
