EXPLAIN
TAG	EISPOT
TITLE	LABEL	Potentiostatic EIS	Test &Identifier
DATE	LABEL	2/25/2020	Date
TIME	LABEL	15:47:53	Time
NOTES	NOTES	1	&Notes...
	
PSTAT	PSTAT	REF600-11020	Potentiostat
VDC	POTEN	0.00000E+000	T	DC &Voltage (V)
FREQINIT	QUANT	1.00000E+006	Initial Fre&q. (Hz)
FREQFINAL	QUANT	1.00000E+000	Final Fre&q. (Hz)
PTSPERDEC	QUANT	1.00000E+001	Points/&decade
VAC	QUANT	2.50000E+001	AC &Voltage (mV rms)
AREA	QUANT	1.60000E-004	&Area (cm^2)
CONDIT	TWOPARAM	F	1.50000E+001	0.00000E+000	Conditionin&g	Time(s)	E(V)
DELAY	TWOPARAM	F	1.00000E+002	0.00000E+000	Init. De&lay	Time(s)	Stab.(mV/s)
SPEED	SELECTOR	1	&Optimize for:
ZGUESS	QUANT	1.00000E+003	E&stimated Z (ohms)
OCVCURVE	TABLE	39
	Pt	T	Vf	Vm	Ach	Over
	#	s	V vs. Ref.	V	V	bits
	0	0.258333	7.80326E-002	7.80326E-002	5.60804E-004	...........
	1	0.516667	7.80323E-002	7.80178E-002	5.59871E-004	...........
	2	0.775	7.80310E-002	7.80277E-002	5.60771E-004	...........
	3	1.03333	7.80284E-002	7.80103E-002	5.56671E-004	...........
	4	1.29167	7.80246E-002	7.80002E-002	5.55438E-004	...........
	5	1.55	7.80189E-002	7.79850E-002	5.55904E-004	...........
	6	1.80833	7.80106E-002	7.79743E-002	5.56171E-004	...........
	7	2.06667	7.79999E-002	7.79673E-002	5.56871E-004	...........
	8	2.325	7.79883E-002	7.79549E-002	5.60604E-004	...........
	9	2.58333	7.79772E-002	7.79476E-002	5.60371E-004	...........
	10	2.84167	7.79668E-002	7.79391E-002	5.56204E-004	...........
	11	3.1	7.79573E-002	7.79310E-002	5.55871E-004	...........
	12	3.35833	7.79483E-002	7.79215E-002	5.60371E-004	...........
	13	3.61667	7.79397E-002	7.79146E-002	5.51338E-004	...........
	14	3.875	7.79313E-002	7.79078E-002	5.54338E-004	...........
	15	4.13333	7.79233E-002	7.79041E-002	5.51838E-004	...........
	16	4.39167	7.79159E-002	7.78954E-002	5.60504E-004	...........
	17	4.65	7.79092E-002	7.78899E-002	5.57838E-004	...........
	18	4.90833	7.79029E-002	7.78814E-002	5.54438E-004	...........
	19	5.16667	7.78963E-002	7.78739E-002	5.53438E-004	...........
	20	5.425	7.78895E-002	7.78731E-002	5.62504E-004	...........
	21	5.68333	7.78829E-002	7.78634E-002	5.55071E-004	...........
	22	5.94167	7.78766E-002	7.78551E-002	5.56271E-004	...........
	23	6.2	7.78704E-002	7.78497E-002	5.59971E-004	...........
	24	6.45833	7.78638E-002	7.78431E-002	5.56204E-004	...........
	25	6.71667	7.78569E-002	7.78370E-002	5.56171E-004	...........
	26	6.975	7.78502E-002	7.78294E-002	5.57304E-004	...........
	27	7.23333	7.78436E-002	7.78221E-002	5.58371E-004	...........
	28	7.49167	7.78369E-002	7.78157E-002	5.54504E-004	...........
	29	7.75	7.78301E-002	7.78128E-002	5.57771E-004	...........
	30	8.00833	7.78235E-002	7.78049E-002	5.59138E-004	...........
	31	8.26667	7.78174E-002	7.77979E-002	5.56238E-004	...........
	32	8.525	7.78114E-002	7.77912E-002	5.56671E-004	...........
	33	8.78333	7.78052E-002	7.77873E-002	5.54038E-004	...........
	34	9.04167	7.77990E-002	7.77826E-002	5.58071E-004	...........
	35	9.3	7.77930E-002	7.77741E-002	5.56604E-004	...........
	36	9.5583	7.77873E-002	7.77696E-002	5.52238E-004	...........
	37	9.8167	7.77816E-002	7.77607E-002	5.49138E-004	...........
	38	10.075	7.77752E-002	7.77445E-002	5.48705E-004	...........
EOC	QUANT	0.0777752	Open Circuit (V)
PSTATMODEL	IQUANT	4	Pstat Model
PSTATSECTION	LABEL	REF600-11020	Pstat Section
PSTATSERIALNO	LABEL	11020	Pstat Serial Number
CTRLMODE	IQUANT	1	Control Mode
IESTAB	IQUANT	0	I/E Stability
CASPEED	IQUANT	1	Control Amp Speed
CONVENTION	IQUANT	1	Current Convention
ICHRANGE	IQUANT	2	Ich Range
ICHRANGEMODE	TOGGLE	F	Ich Auto Range
ICHOFFSETENABLE	TOGGLE	T	Ich Offset Enable
ICHOFFSET	QUANT	0	Ich Offset (V)
ICHFILTER	IQUANT	3	Ich Filter
VCHRANGE	IQUANT	2	Vch Range
VCHRANGEMODE	TOGGLE	F	Vch Auto Range
VCHOFFSETENABLE	TOGGLE	T	Vch Offset Enable
VCHOFFSET	QUANT	0	Vch Offset (V)
VCHFILTER	IQUANT	3	Vch Filter
ACHRANGE	IQUANT	2	Ach Range
ACHOFFSETENABLE	TOGGLE	F	Ach Offset Enable
ACHOFFSET	QUANT	0	Ach Offset (V)
ACHFILTER	IQUANT	3	Ach Filter
IERANGELOWERLIMIT	IQUANT	1	I/E Range Lower Limit
IERANGEMODE	TOGGLE	F	I/E AutoRange
IERANGE	IQUANT	8	I/E Range
POSFEEDENABLE	TOGGLE	F	Positive Feedback IR Comp
POSFEEDRESISTANCE	QUANT	0	Positive Feedback Resistance (ohm)
ACHSELECT	IQUANT	0	Ach Select
CABLEID	IQUANT	14	Cable ID
DCCALDATE	LABEL	1/27/2020	DC Calibration Date
ACCALDATE	LABEL	1/27/2020	AC Calibration Date
THERMOSELECT	IQUANT	1	Thermo Select
FRAMEWORKVERSION	QUANT	6.33	Framework Version
INSTRUMENTVERSION	LABEL	3.50	Instrument Version
ZCURVE	TABLE
	Pt	Time	Freq	Zreal	Zimag	Zsig	Zmod	Zphz	Idc	Vdc	IERange
	#	s	Hz	ohm	ohm	V	ohm	°	A	V	#
	0	1	1000078	1507.836	-2012.749	1	2514.901	-53.16157	-3.207804E-006	0.0801035	8
	1	3	794390.6	1856.643	-2237.538	1	2907.524	-50.31512	-4.401177E-007	0.0799167	8
	2	4	630984.4	2289.771	-2411.893	1	3325.7	-46.48787	-2.406842E-007	0.079493	8
	3	5	501234.4	2753.388	-2555.035	1	3756.242	-42.8601	-2.432816E-006	0.0799302	8
	4	7	398109.4	3289.41	-2628.863	1	4210.836	-38.63149	-3.513254E-007	0.0794258	8
	5	8	316265.6	3790.52	-2622.84	1	4609.483	-34.68119	-1.542595E-006	0.0796852	8
	6	10	251203.1	4281.09	-2522.717	1	4969.087	-30.50956	-1.451312E-006	0.0796643	8
	7	11	199546.9	4758.254	-2360.905	1	5311.766	-26.38925	1.474989E-006	0.0789231	8
	8	13	158578.1	5150.108	-2147.944	1	5580.079	-22.63944	1.805661E-006	0.0788577	8
	9	14	125953.1	5524.312	-1909.004	1	5844.854	-19.06331	1.16465E-007	0.0790436	7
	10	15	100078.1	5793.019	-1696.271	1	6036.257	-16.32071	9.639571E-009	0.0791961	7
	11	17	79453.13	6008.773	-1489.312	1	6190.59	-13.92059	-1.988486E-009	0.0792388	7
	12	18	63140.62	6177.665	-1301.189	1	6313.211	-11.89424	-1.692671E-009	0.0792416	7
	13	19	50203.12	6309.931	-1137.646	1	6411.667	-10.22032	4.45946E-008	0.0790784	7
	14	21	39890.62	6416.15	-998.455	1	6493.373	-8.845193	6.741692E-008	0.0790736	7
	15	22	31640.63	6500.532	-884.9804	1	6560.496	-7.752569	6.668803E-009	0.0791956	7
	16	24	25171.88	6565.555	-796.8758	1	6613.737	-6.920266	-2.688359E-008	0.079227	7
	17	25	20015.62	6622.807	-734.9755	1	6663.464	-6.332569	-2.28124E-008	0.0792358	7
	18	26	15890.62	6670.33	-696.9802	1	6706.645	-5.965168	-1.368866E-008	0.0791807	7
	19	28	12609.37	6715.923	-679.2958	1	6750.19	-5.775656	1.858933E-008	0.07912	7
	20	29	10078.13	6756.531	-687.7593	1	6791.445	-5.812221	7.944588E-009	0.0791934	7
	21	30	8015.625	6791.063	-719.7831	1	6829.101	-6.050179	-2.013423E-008	0.0791965	7
	22	32	6328.125	6835.05	-779.3597	1	6879.339	-6.505	1.477067E-008	0.0791997	7
	23	33	5015.625	6875.147	-865.6943	1	6929.436	-7.176713	2.107029E-008	0.0792146	7
	24	35	3984.375	6919.055	-986.224	1	6988.989	-8.112149	2.095451E-008	0.0792134	7
	25	36	3170.956	6965.837	-1141.393	1	7058.73	-9.305557	8.906149E-009	0.0792209	7
	26	37	2527.573	7016.846	-1336.144	1	7142.927	-10.78116	1.959336E-008	0.0791132	7
	27	39	1976.103	7081.164	-1609.235	1	7261.716	-12.80334	1.507838E-008	0.0791973	7
	28	40	1577.524	7146.159	-1920.734	1	7399.784	-15.04433	-2.668027E-008	0.0792169	7
	29	41	1265.625	7231.302	-2300.351	1	7588.369	-17.6464	7.249621E-008	0.0790993	7
	30	43	998.264	7329.408	-2804.76	1	7847.732	-20.94045	-3.271049E-008	0.0792438	7
	31	44	796.875	7446.257	-3401.295	1	8186.302	-24.54993	1.307999E-008	0.0791665	7
	32	46	627.7902	7597.223	-4180.079	1	8671.266	-28.8201	1.711887E-008	0.0791408	7
	33	47	505.5147	7768.399	-5054.889	1	9268.222	-33.05201	-2.074994E-008	0.0792282	7
	34	48	397.9953	8009.05	-6232.313	1	10148.23	-37.88859	1.612811E-009	0.0791981	6
	35	50	315.5048	8305.035	-7647.961	1	11290.04	-42.64143	1.257818E-009	0.0791945	6
	36	51	252.4038	8670.644	-9310.816	1	12722.87	-47.03897	9.351191E-010	0.0791929	6
	37	52	198.6229	9180.082	-11494.79	1	14710.68	-51.3881	1.546533E-009	0.0791916	6
	38	54	158.3615	9810.56	-14012.42	1	17105.41	-55.00286	1.853536E-009	0.0791916	6
	39	55	125.558	10645.66	-17144.14	1	20180.48	-58.16178	1.62618E-009	0.0791889	6
	40	56	100.4464	11694.24	-20788.53	1	23852.01	-60.6408	2.11406E-009	0.0791907	6
	41	58	79.00281	13187.88	-25469.26	1	28681.06	-62.62506	1.097637E-009	0.0791874	6
	42	59	63.3446	15102.94	-30651.55	1	34170.4	-63.76915	9.879362E-010	0.079191	6
	43	61	49.86702	17296.17	-37539.6	1	41332.54	-65.26237	1.194917E-009	0.0791858	6
	44	62	39.72458	20380.5	-45033.06	1	49430.16	-65.65004	1.661969E-009	0.0791947	6
	45	63	31.6723	24313.16	-53864.63	1	59097.61	-65.70676	1.297887E-009	0.079194	6
	46	65	24.93351	29460.27	-64840.89	1	71219.73	-65.56547	9.55958E-010	0.0791866	6
	47	66	19.86229	35683.56	-76868.78	1	84747.42	-65.09861	2.005646E-009	0.0791895	6
	48	68	15.83615	43603.02	-90556.9	1	100507.6	-64.28925	1.877076E-009	0.0791853	6
	49	69	12.40079	53787.92	-107927.2	1	120587.8	-63.50961	1.610058E-009	0.0791895	5
	50	71	9.93114	64545.87	-124673.3	1	140390.9	-62.62849	-1.597094E-010	0.0791937	5
	51	72	7.944915	77521.48	-144250.5	1	163761.4	-61.74603	1.013979E-009	0.0791882	5
	52	74	6.317385	92599.38	-167020.8	1	190972.7	-60.99521	4.378352E-010	0.0792065	5
	53	76	5.008013	110095.9	-193321.6	1	222473.3	-60.33866	4.919158E-010	0.0791952	5
	54	78	3.945707	130645.5	-224640.5	1	259868.4	-59.81874	2.728289E-010	0.0791891	5
	55	81	3.158693	152516.1	-258386.5	1	300041.2	-59.4482	2.093364E-010	0.0791998	5
	56	84	2.504006	178578.8	-299299.4	1	348526.2	-59.17733	2.130279E-010	0.079179	5
	57	87	1.998082	207622.3	-345544.9	1	403123.2	-59.00024	-8.272756E-011	0.0792124	5
	58	90	1.584686	243057.7	-401521.5	1	469357.6	-58.81173	2.664231E-010	0.0792352	5
	59	94	1.266892	282375.6	-462525.5	1	541909.4	-58.5956	-7.04458E-011	0.0792177	5
	60	98	0.999041	330656.1	-538036.7	1	631519.6	-58.42676	3.881933E-010	0.0791774	5
