EXPLAIN
TAG	EISPOT
TITLE	LABEL	Potentiostatic EIS	Test &Identifier
DATE	LABEL	6/19/2020	Date
TIME	LABEL	16:55:07	Time
NOTES	NOTES	1	&Notes...
	
PSTAT	PSTAT	REF600-10037	Potentiostat
VDC	POTEN	0.00000E+000	T	DC &Voltage (V)
FREQINIT	QUANT	1.00000E+006	Initial Fre&q. (Hz)
FREQFINAL	QUANT	1.00000E+000	Final Fre&q. (Hz)
PTSPERDEC	QUANT	1.00000E+001	Points/&decade
VAC	QUANT	1.00000E+002	AC &Voltage (mV rms)
AREA	QUANT	2.50000E-001	&Area (cm^2)
CONDIT	TWOPARAM	F	5.00000E+000	0.00000E+000	Conditionin&g	Time(s)	E(V)
DELAY	TWOPARAM	F	5.00000E+000	0.00000E+000	Init. De&lay	Time(s)	Stab.(mV/s)
SPEED	SELECTOR	0	&Optimize for:
ZGUESS	QUANT	1.00000E+003	E&stimated Z (ohms)
OCVCURVE	TABLE	39
	Pt	T	Vf	Vm	Ach	Over
	#	s	V vs. Ref.	V	V	bits
	0	0.258333	1.11741E-001	1.11741E-001	5.61220E-004	...........
	1	0.516667	1.11741E-001	1.11750E-001	5.57987E-004	...........
	2	0.775	1.11742E-001	1.11759E-001	5.54920E-004	...........
	3	1.03333	1.11745E-001	1.11764E-001	5.57187E-004	...........
	4	1.29167	1.11751E-001	1.11781E-001	5.54920E-004	...........
	5	1.55	1.11758E-001	1.11800E-001	5.52887E-004	...........
	6	1.80833	1.11769E-001	1.11814E-001	5.53454E-004	...........
	7	2.06667	1.11782E-001	1.11819E-001	5.58254E-004	...........
	8	2.325	1.11796E-001	1.11829E-001	5.56987E-004	...........
	9	2.58333	1.11808E-001	1.11838E-001	5.56120E-004	...........
	10	2.84167	1.11819E-001	1.11846E-001	5.55187E-004	...........
	11	3.1	1.11829E-001	1.11864E-001	5.49154E-004	...........
	12	3.35833	1.11839E-001	1.11890E-001	5.54054E-004	...........
	13	3.61667	1.11851E-001	1.11898E-001	5.54454E-004	...........
	14	3.875	1.11866E-001	1.11908E-001	5.48987E-004	...........
	15	4.13333	1.11881E-001	1.11920E-001	5.60487E-004	...........
	16	4.39167	1.11895E-001	1.11928E-001	5.58387E-004	...........
	17	4.65	1.11908E-001	1.11948E-001	5.50220E-004	...........
	18	4.90833	1.11919E-001	1.11963E-001	5.50954E-004	...........
	19	5.16667	1.11932E-001	1.11974E-001	5.54787E-004	...........
	20	5.425	1.11946E-001	1.11978E-001	5.55587E-004	...........
	21	5.68333	1.11959E-001	1.11992E-001	5.58220E-004	...........
	22	5.94167	1.11970E-001	1.12000E-001	5.57854E-004	...........
	23	6.2	1.11981E-001	1.12013E-001	5.53920E-004	...........
	24	6.45833	1.11991E-001	1.12025E-001	5.52420E-004	...........
	25	6.71667	1.12001E-001	1.12046E-001	5.48020E-004	...........
	26	6.975	1.12013E-001	1.12056E-001	5.51054E-004	...........
	27	7.23333	1.12027E-001	1.12063E-001	5.56554E-004	...........
	28	7.49167	1.12040E-001	1.12073E-001	5.54987E-004	...........
	29	7.75	1.12052E-001	1.12085E-001	5.50354E-004	...........
	30	8.00833	1.12063E-001	1.12094E-001	5.55920E-004	...........
	31	8.26667	1.12074E-001	1.12109E-001	5.52187E-004	...........
	32	8.525	1.12084E-001	1.12123E-001	5.47087E-004	...........
	33	8.78333	1.12096E-001	1.12136E-001	5.50620E-004	...........
	34	9.04167	1.12108E-001	1.12141E-001	5.57320E-004	...........
	35	9.3	1.12120E-001	1.12150E-001	5.56954E-004	...........
	36	9.5583	1.12131E-001	1.12158E-001	5.42820E-004	...........
	37	9.8167	1.12141E-001	1.12167E-001	5.54987E-004	...........
	38	10.075	1.12149E-001	1.12180E-001	5.53987E-004	...........
EOC	QUANT	0.1121494	Open Circuit (V)
PSTATMODEL	IQUANT	4	Pstat Model
PSTATSECTION	LABEL	REF600-10037	Pstat Section
PSTATSERIALNO	LABEL	10037	Pstat Serial Number
CTRLMODE	IQUANT	1	Control Mode
IESTAB	IQUANT	0	I/E Stability
CASPEED	IQUANT	1	Control Amp Speed
CONVENTION	IQUANT	1	Current Convention
ICHRANGE	IQUANT	2	Ich Range
ICHRANGEMODE	TOGGLE	F	Ich Auto Range
ICHOFFSETENABLE	TOGGLE	T	Ich Offset Enable
ICHOFFSET	QUANT	0	Ich Offset (V)
ICHFILTER	IQUANT	3	Ich Filter
VCHRANGE	IQUANT	2	Vch Range
VCHRANGEMODE	TOGGLE	F	Vch Auto Range
VCHOFFSETENABLE	TOGGLE	T	Vch Offset Enable
VCHOFFSET	QUANT	0	Vch Offset (V)
VCHFILTER	IQUANT	3	Vch Filter
ACHRANGE	IQUANT	2	Ach Range
ACHOFFSETENABLE	TOGGLE	F	Ach Offset Enable
ACHOFFSET	QUANT	0	Ach Offset (V)
ACHFILTER	IQUANT	3	Ach Filter
IERANGELOWERLIMIT	IQUANT	1	I/E Range Lower Limit
IERANGEMODE	TOGGLE	F	I/E AutoRange
IERANGE	IQUANT	8	I/E Range
POSFEEDENABLE	TOGGLE	F	Positive Feedback IR Comp
POSFEEDRESISTANCE	QUANT	0	Positive Feedback Resistance (ohm)
ACHSELECT	IQUANT	0	Ach Select
CABLEID	IQUANT	14	Cable ID
DCCALDATE	LABEL	6/8/2020	DC Calibration Date
ACCALDATE	LABEL	6/8/2020	AC Calibration Date
THERMOSELECT	IQUANT	1	Thermo Select
FRAMEWORKVERSION	QUANT	6.33	Framework Version
INSTRUMENTVERSION	LABEL	3.50	Instrument Version
ZCURVE	TABLE
	Pt	Time	Freq	Zreal	Zimag	Zsig	Zmod	Zphz	Idc	Vdc	IERange
	#	s	Hz	ohm	ohm	V	ohm	°	A	V	#
	0	2	1000078	1407.911	-912.1556	1	1677.57	-32.93835	1.220087E-007	0.1212649	8
	1	3	794390.6	1536.259	-951.55	1	1807.08	-31.77383	9.74924E-008	0.1209116	8
	2	3	630984.4	1663.42	-997.427	1	1939.543	-30.94793	8.294251E-008	0.1207804	8
	3	4	501234.4	1792.117	-1054.068	1	2079.121	-30.46275	1.382065E-007	0.1206611	8
	4	4	398109.4	1929.946	-1132.043	1	2237.457	-30.39448	1.270269E-007	0.1205178	8
	5	5	316265.6	2060.617	-1205.247	1	2387.208	-30.3232	1.270939E-007	0.1204624	8
	6	5	251203.1	2207.272	-1317.88	1	2570.77	-30.83986	1.134829E-006	0.1205342	9
	7	5	199546.9	2360.521	-1423.621	1	2756.585	-31.09401	8.144049E-008	0.1206518	8
	8	6	158578.1	2561.121	-1578.902	1	3008.7	-31.65336	1.052818E-007	0.1206741	8
	9	7	125953.1	2754.44	-1744.522	1	3260.413	-32.34809	1.147213E-006	0.1207078	9
	10	7	100078.1	2976.078	-1938.777	1	3551.886	-33.08237	1.130554E-006	0.1206551	9
	11	7	79453.13	3180.495	-2128.746	1	3827.154	-33.7949	7.819951E-008	0.1206556	8
	12	8	63140.62	3507.155	-2334.5	1	4213.078	-33.6493	6.126142E-008	0.1206208	7
	13	8	50203.12	3847.195	-2638.618	1	4665.105	-34.44448	7.973183E-008	0.1205371	7
	14	9	39890.62	4166.177	-2919.661	1	5087.381	-35.02281	-1.67669E-009	0.1206063	7
	15	9	31640.63	4565.597	-3235.813	1	5595.995	-35.32666	9.851224E-009	0.1206154	7
	16	9	25171.88	5048.768	-3591.338	1	6195.786	-35.42537	6.483603E-009	0.1206	7
	17	10	20015.62	5616.775	-3981.43	1	6884.762	-35.33078	1.756493E-008	0.1205579	7
	18	10	15890.62	6327.288	-4373.217	1	7691.528	-34.65098	8.212047E-008	0.1205091	7
	19	11	12609.37	7002.773	-4720.779	1	8445.389	-33.98509	6.738415E-008	0.120505	7
	20	11	10078.13	7585.803	-5011.012	1	9091.46	-33.44786	2.25984E-008	0.1205439	7
	21	11	8015.625	8173.808	-5243.564	1	9711.13	-32.6805	-1.606949E-008	0.1205977	7
	22	12	6328.125	8824.926	-5542.641	1	10421.14	-32.13156	-9.8874E-009	0.1206089	7
	23	12	5015.625	9478.627	-5914.422	1	11172.5	-31.96311	2.651776E-009	0.1206036	7
	24	12	3984.375	10102.14	-6365.796	1	11940.55	-32.2168	1.504724E-008	0.1205987	7
	25	13	3170.956	10699.59	-6928.831	1	12747.16	-32.92624	1.80586E-008	0.1205975	7
	26	13	2527.573	11288.12	-7661.6	1	13642.65	-34.16596	1.407992E-008	0.1206001	7
	27	13	1976.103	11927.74	-8686.033	1	14755.28	-36.06289	1.488001E-008	0.1205982	7
	28	14	1577.524	12545.76	-9851.74	1	15951.58	-38.14127	-9.003132E-010	0.1206205	7
	29	14	1265.625	13207.52	-11375.67	1	17431.13	-40.7384	2.317307E-009	0.1206103	7
	30	14	998.264	14099.51	-13290.97	1	19376.43	-43.30917	2.022132E-008	0.1205923	7
	31	15	796.875	15044.44	-15727.61	1	21764.49	-46.2718	-4.694723E-009	0.1206242	7
	32	15	627.7902	16319.61	-18845.47	1	24929.53	-49.10842	1.020942E-008	0.1206013	7
	33	15	505.5147	17918.08	-22209.34	1	28536.16	-51.10406	7.326741E-009	0.1205963	7
	34	16	397.9953	20199.03	-26521.91	1	33337.85	-52.70718	8.493447E-009	0.120625	7
	35	16	315.5048	23143.99	-31498.76	1	39087.29	-53.69309	8.914365E-009	0.120626	7
	36	16	252.4038	26861.37	-36831.57	1	45586.15	-53.89662	3.447512E-009	0.1206225	6
	37	17	198.6229	31968.35	-43209.91	1	53750.09	-53.50454	3.379671E-009	0.1206281	6
	38	17	158.3615	38033.22	-49541.93	1	62457.42	-52.48664	2.769101E-009	0.1206217	6
	39	17	125.558	45301.95	-55682.56	1	71783.11	-50.86905	9.168254E-009	0.1206064	6
	40	17	100.4464	53996.55	-62752.97	1	82786.24	-49.28925	5.299924E-010	0.1206138	6
	41	18	79.00281	64121.16	-69167.56	1	94316.88	-47.16822	2.071974E-009	0.1206165	6
	42	18	63.3446	74148.91	-75004.49	1	105469.1	-45.32866	1.903272E-009	0.1206143	6
	43	19	49.86702	84858.88	-80320.52	1	116843.6	-43.42617	1.189188E-009	0.1206136	6
	44	19	39.72458	94931.59	-85797.95	1	127958.2	-42.10687	2.698958E-009	0.1206134	6
	45	20	31.6723	104999.8	-92546.05	1	139963.3	-41.39272	1.771693E-009	0.1206174	6
	46	20	24.93351	114517.2	-100323.7	1	152246.6	-41.22023	3.952596E-009	0.1206165	6
	47	20	19.86229	125343.9	-110589.9	1	167156.3	-41.42171	1.555938E-008	0.1120408	6
	48	21	15.83615	136901.7	-124447.9	1	185011.8	-42.27182	6.836392E-009	0.1120393	6
	49	21	12.40079	149514.5	-142135	1	206293.4	-43.55058	3.011684E-009	0.1120428	6
	50	22	9.93114	162349.9	-161090.7	1	228708.8	-44.77694	1.14621E-009	0.1120461	6
	51	22	7.944915	177340.7	-183344.2	1	255078	-45.95358	1.655418E-010	0.1120432	6
	52	23	6.317385	194668.3	-209336.9	1	285863.1	-47.07937	1.527779E-010	0.1120456	6
	53	25	5.008013	215644	-240399	1	322945.8	-48.10709	-4.786952E-010	0.112048	6
	54	26	3.945707	240163.7	-276451.5	1	366202.2	-49.01794	-5.663612E-010	0.1120414	6
	55	27	3.158693	265715.3	-314475.2	1	411702.9	-49.80391	-7.17303E-010	0.1120508	5
	56	29	2.504006	296950.9	-360168	1	466798.5	-50.49514	-5.785734E-010	0.1120467	5
	57	32	1.998082	330393.7	-413291.5	1	529121.8	-51.36044	-3.41003E-010	0.1120515	5
	58	35	1.584686	366817.4	-473134.8	1	598674.8	-52.21388	-3.946301E-010	0.1120551	5
	59	39	1.266892	406549.3	-541337.4	1	676999.6	-53.09312	-2.854915E-010	0.1120589	5
	60	44	0.999041	454189	-627111.4	1	774310.2	-54.08585	-3.207762E-010	0.1120502	5
