EXPLAIN
TAG	EISPOT
TITLE	LABEL	Potentiostatic EIS	Test &Identifier
DATE	LABEL	1/14/2020	Date
TIME	LABEL	18:57:08	Time
NOTES	NOTES	5	&Notes...
	
	
	
	
	
PSTAT	PSTAT	REF600-11020	Potentiostat
VDC	POTEN	0.00000E+000	T	DC &Voltage (V)
FREQINIT	QUANT	1.00000E+006	Initial Fre&q. (Hz)
FREQFINAL	QUANT	1.00000E+000	Final Fre&q. (Hz)
PTSPERDEC	QUANT	1.00000E+001	Points/&decade
VAC	QUANT	2.50000E+001	AC &Voltage (mV rms)
AREA	QUANT	1.00000E-001	&Area (cm^2)
CONDIT	TWOPARAM	T	5.00000E+000	0.00000E+000	Conditionin&g	Time(s)	E(V)
DELAY	TWOPARAM	T	5.00000E+000	0.00000E+000	Init. De&lay	Time(s)	Stab.(mV/s)
SPEED	SELECTOR	0	&Optimize for:
ZGUESS	QUANT	5.00000E+002	E&stimated Z (ohms)
OCVCURVE	TABLE	19
	Pt	T	Vf	Vm	Ach	Over
	#	s	V vs. Ref.	V	V	bits
	0	0.258333	7.28375E-003	7.28375E-003	6.38213E-004	...........
	1	0.516667	7.28087E-003	7.13333E-003	6.43780E-004	...........
	2	0.775	7.26624E-003	7.14824E-003	6.39313E-004	...........
	3	1.03333	7.23750E-003	7.30250E-003	6.43013E-004	...........
	4	1.29167	7.21323E-003	7.24668E-003	6.38746E-004	...........
	5	1.55	7.21477E-003	7.38011E-003	6.37746E-004	...........
	6	1.80833	7.24412E-003	7.40975E-003	6.45613E-004	...........
	7	2.06667	7.29055E-003	7.40243E-003	6.41213E-004	...........
	8	2.325	7.34277E-003	7.57309E-003	6.39480E-004	...........
	9	2.58333	7.39624E-003	7.53892E-003	6.49380E-004	...........
	10	2.84167	7.45131E-003	7.58538E-003	6.43346E-004	...........
	11	3.1	7.49981E-003	7.42842E-003	6.42946E-004	...........
	12	3.35833	7.52347E-003	7.40164E-003	6.48480E-004	...........
	13	3.61667	7.51294E-003	7.48102E-003	6.48646E-004	...........
	14	3.875	7.48730E-003	7.64254E-003	6.45646E-004	...........
	15	4.13333	7.48735E-003	7.86363E-003	6.51613E-004	...........
	16	4.39167	7.54721E-003	8.09737E-003	6.47180E-004	...........
	17	4.65	7.67593E-003	8.33988E-003	6.51813E-004	...........
	18	4.90833	7.85762E-003	8.41398E-003	6.51080E-004	...........
EOC	QUANT	0.0078576	Open Circuit (V)
PSTATMODEL	IQUANT	4	Pstat Model
PSTATSECTION	LABEL	REF600-11020	Pstat Section
PSTATSERIALNO	LABEL	11020	Pstat Serial Number
CTRLMODE	IQUANT	1	Control Mode
IESTAB	IQUANT	0	I/E Stability
CASPEED	IQUANT	1	Control Amp Speed
CONVENTION	IQUANT	1	Current Convention
ICHRANGE	IQUANT	2	Ich Range
ICHRANGEMODE	TOGGLE	F	Ich Auto Range
ICHOFFSETENABLE	TOGGLE	T	Ich Offset Enable
ICHOFFSET	QUANT	0	Ich Offset (V)
ICHFILTER	IQUANT	3	Ich Filter
VCHRANGE	IQUANT	2	Vch Range
VCHRANGEMODE	TOGGLE	F	Vch Auto Range
VCHOFFSETENABLE	TOGGLE	T	Vch Offset Enable
VCHOFFSET	QUANT	0	Vch Offset (V)
VCHFILTER	IQUANT	3	Vch Filter
ACHRANGE	IQUANT	2	Ach Range
ACHOFFSETENABLE	TOGGLE	F	Ach Offset Enable
ACHOFFSET	QUANT	0	Ach Offset (V)
ACHFILTER	IQUANT	3	Ach Filter
IERANGELOWERLIMIT	IQUANT	1	I/E Range Lower Limit
IERANGEMODE	TOGGLE	F	I/E AutoRange
IERANGE	IQUANT	7	I/E Range
POSFEEDENABLE	TOGGLE	F	Positive Feedback IR Comp
POSFEEDRESISTANCE	QUANT	0	Positive Feedback Resistance (ohm)
ACHSELECT	IQUANT	0	Ach Select
CABLEID	IQUANT	14	Cable ID
DCCALDATE	LABEL	12/22/2019	DC Calibration Date
ACCALDATE	LABEL	12/22/2019	AC Calibration Date
THERMOSELECT	IQUANT	1	Thermo Select
FRAMEWORKVERSION	QUANT	6.33	Framework Version
INSTRUMENTVERSION	LABEL	3.50	Instrument Version
ZCURVE	TABLE
	Pt	Time	Freq	Zreal	Zimag	Zsig	Zmod	Zphz	Idc	Vdc	IERange
	#	s	Hz	ohm	ohm	V	ohm	°	A	V	#
	0	1	1000078	2320.415	-2082.998	1	3118.206	-41.9138	6.599419E-008	0.0101407	8
	1	1	794390.6	2722.148	-2147.397	1	3467.19	-38.26855	1.804318E-006	0.0091851	8
	2	2	630984.4	3137.424	-2152.524	1	3804.838	-34.45325	-4.743378E-007	0.0094488	8
	3	2	501234.4	3540.564	-2121.986	1	4127.762	-30.93576	-1.708321E-006	0.0097512	8
	4	2	398109.4	3917.933	-2036.327	1	4415.521	-27.46293	-8.112482E-007	0.0095357	8
	5	3	316265.6	4271.998	-1920.002	1	4683.628	-24.20101	-6.75821E-007	0.009482	8
	6	3	251203.1	4586.21	-1764.688	1	4914.005	-21.04579	4.737922E-007	0.0092291	8
	7	3	199546.9	4832.227	-1624.901	1	5098.109	-18.58591	-1.026506E-006	0.0096573	8
	8	4	158578.1	5071.382	-1460.684	1	5277.548	-16.06771	2.99968E-006	0.0087482	8
	9	4	125953.1	5296.229	-1269.422	1	5446.235	-13.47862	-7.500308E-007	0.0104186	7
	10	4	100078.1	5430.714	-1141.495	1	5549.384	-11.87033	-4.498471E-008	0.0094839	7
	11	5	79453.13	5560.157	-1017.889	1	5652.561	-10.37417	-3.129562E-008	0.0093641	7
	12	5	63140.62	5665.46	-922.3361	1	5740.047	-9.246625	-1.269149E-008	0.0093582	7
	13	5	50203.12	5753.314	-844.1737	1	5814.916	-8.347346	8.103505E-009	0.0092745	7
	14	6	39890.62	5829.465	-785.7712	1	5882.185	-7.676801	1.361989E-008	0.0093769	7
	15	6	31640.63	5896.628	-745.9338	1	5943.622	-7.209721	6.740065E-008	0.0092627	7
	16	6	25171.88	5956.36	-728.421	1	6000.735	-6.972251	8.324506E-008	0.009204	7
	17	6	20015.62	6010.998	-727.9988	1	6054.921	-6.905526	3.64182E-008	0.0092766	7
	18	7	15890.62	6066.877	-749.0324	1	6112.941	-7.038268	6.907029E-008	0.0092619	7
	19	7	12609.37	6121.678	-791.8426	1	6172.678	-7.370318	3.048146E-008	0.0092342	7
	20	7	10078.13	6169.744	-854.2585	1	6228.603	-7.883015	-4.559986E-008	0.0093757	7
	21	8	8015.625	6230.658	-950.875	1	6302.798	-8.677086	-4.526464E-008	0.0093772	7
	22	8	6328.125	6290.12	-1081.848	1	6382.476	-9.75892	-4.118472E-008	0.0093928	7
	23	8	5015.625	6353.686	-1245.769	1	6474.663	-11.09327	7.010156E-008	0.0092605	7
	24	9	3984.375	6421.578	-1456.015	1	6584.576	-12.77512	-2.064692E-008	0.0093096	7
	25	9	3170.956	6499.952	-1716.484	1	6722.774	-14.79277	5.233333E-008	0.0092069	7
	26	9	2527.573	6585.595	-2039.273	1	6894.105	-17.20548	-2.869323E-009	0.0092957	7
	27	10	1976.103	6698.411	-2476.591	1	7141.583	-20.29077	3.563951E-008	0.009263	7
	28	10	1577.524	6816.793	-2985.268	1	7441.807	-23.64998	1.454896E-008	0.0093639	7
	29	10	1265.625	6950.682	-3566.165	1	7812.138	-27.16086	3.684813E-008	0.0092647	7
	30	11	998.264	7129.943	-4356.648	1	8355.625	-31.42641	7.04318E-008	0.009253	7
	31	11	796.875	7336.764	-5275.902	1	9036.771	-35.72009	1.49773E-008	0.0093624	7
	32	11	627.7902	7605.47	-6459.67	1	9978.5	-40.34275	1.205445E-008	0.0091564	6
	33	12	505.5147	7908.92	-7777.369	1	11092.27	-44.5195	4.381964E-009	0.0092068	6
	34	12	397.9953	8313.623	-9557.12	1	12667.08	-48.9804	8.40422E-010	0.00932	6
	35	12	315.5048	8810.025	-11678.89	1	14629.19	-52.97076	6.607179E-010	0.0093176	6
	36	12	252.4038	9403.152	-14165.13	1	17002.06	-56.42284	8.121004E-010	0.0093143	6
	37	13	198.6229	10215.47	-17429.77	1	20202.79	-59.62572	5.755502E-010	0.0093118	6
	38	13	158.3615	11203.18	-21204.38	1	23982.01	-62.15058	3.539827E-010	0.0093073	6
	39	13	125.558	12517.77	-25911.51	1	28776.74	-64.21496	6.72874E-010	0.0093099	6
	40	14	100.4464	14149.97	-31404.64	1	34445.22	-65.74514	7.285872E-010	0.0093057	6
	41	14	79.00281	16475.21	-38536.72	1	41910.75	-66.85233	8.209032E-010	0.0093023	6
	42	14	63.3446	19575.74	-46253.62	1	50225.56	-67.06065	4.357056E-010	0.009309	6
	43	15	49.86702	23726.86	-56449.2	1	61232.96	-67.2019	1.688808E-010	0.009308	6
	44	15	39.72458	28830.44	-67818.41	1	73692.13	-66.96906	6.85766E-010	0.009311	6
	45	16	31.6723	35615.58	-80832.95	1	88331.4	-66.22137	6.4959E-010	0.0093102	6
	46	16	24.93351	45096.3	-96436.4	1	106459.7	-64.93793	4.53572E-010	0.0093104	5
	47	16	19.86229	56446.14	-112999	1	126312.9	-63.45661	7.960678E-010	0.0093099	5
	48	16	15.83615	70190.11	-131687.3	1	149225.3	-61.94211	1.211169E-010	0.0093091	5
	49	17	12.40079	87766.59	-151328.2	1	174937.7	-59.88734	1.219596E-009	0.0093071	5
	50	17	9.93114	106161.5	-171849.8	1	201996.6	-58.29398	5.551187E-010	0.0093156	5
	51	17	7.944915	127415.8	-192686.9	1	231004.4	-56.52501	-1.003798E-009	0.0093068	5
	52	18	6.317385	150387	-217015.8	1	264030.5	-55.27891	2.716735E-010	0.0092973	5
	53	19	5.008013	175501.8	-246175.4	1	302329.7	-54.51442	2.758715E-010	0.0093107	5
	54	20	3.945707	202179	-277718.9	1	343517.3	-53.94542	-9.766471E-011	0.009302	5
	55	21	3.158693	229638.7	-313203.7	1	388369	-53.75139	-1.508666E-010	0.009286	5
	56	22	2.504006	261324.1	-357124.2	1	442524.5	-53.80536	1.001289E-010	0.0092909	5
	57	24	1.998082	293813.7	-407618	1	502472.8	-54.21569	1.556631E-011	0.0092968	5
	58	25	1.584686	333685.5	-469067.7	1	575647.9	-54.57271	-1.263875E-010	0.0092554	5
	59	27	1.266892	376620.6	-541281.9	1	659415.8	-55.17004	-1.317833E-010	0.0092515	5
	60	30	0.999041	428409.4	-630539.2	1	762308.6	-55.8065	-1.362702E-010	0.0092767	5
