EXPLAIN
TAG	EISPOT
TITLE	LABEL	Potentiostatic EIS	Test &Identifier
DATE	LABEL	3/17/2020	Date
TIME	LABEL	15:48:59	Time
NOTES	NOTES	1	&Notes...
	
PSTAT	PSTAT	REF600-11020	Potentiostat
VDC	POTEN	0.00000E+000	T	DC &Voltage (V)
FREQINIT	QUANT	1.00000E+006	Initial Fre&q. (Hz)
FREQFINAL	QUANT	1.00000E+000	Final Fre&q. (Hz)
PTSPERDEC	QUANT	1.00000E+001	Points/&decade
VAC	QUANT	2.50000E+001	AC &Voltage (mV rms)
AREA	QUANT	4.00000E-004	&Area (cm^2)
CONDIT	TWOPARAM	F	5.00000E+000	0.00000E+000	Conditionin&g	Time(s)	E(V)
DELAY	TWOPARAM	T	3.00000E+000	0.00000E+000	Init. De&lay	Time(s)	Stab.(mV/s)
SPEED	SELECTOR	0	&Optimize for:
ZGUESS	QUANT	5.00000E+003	E&stimated Z (ohms)
OCVCURVE	TABLE	12
	Pt	T	Vf	Vm	Ach	Over
	#	s	V vs. Ref.	V	V	bits
	0	0.258333	-6.14888E-002	-6.14889E-002	5.75730E-004	...........
	1	0.516667	-6.14890E-002	-6.14962E-002	5.74730E-004	...........
	2	0.775	-6.14899E-002	-6.15029E-002	5.77163E-004	...........
	3	1.03333	-6.14923E-002	-6.15120E-002	5.75030E-004	...........
	4	1.29167	-6.14969E-002	-6.15186E-002	5.79530E-004	...........
	5	1.55	-6.15033E-002	-6.15319E-002	5.77597E-004	...........
	6	1.80833	-6.15112E-002	-6.15413E-002	5.81663E-004	...........
	7	2.06667	-6.15203E-002	-6.15535E-002	5.79597E-004	...........
	8	2.325	-6.15304E-002	-6.15628E-002	5.79297E-004	...........
	9	2.58333	-6.15410E-002	-6.15740E-002	5.78930E-004	...........
	10	2.84167	-6.15517E-002	-6.15843E-002	5.75763E-004	...........
	11	3.1	-6.15624E-002	-6.15936E-002	5.77563E-004	...........
EOC	QUANT	-0.0615624	Open Circuit (V)
PSTATMODEL	IQUANT	4	Pstat Model
PSTATSECTION	LABEL	REF600-11020	Pstat Section
PSTATSERIALNO	LABEL	11020	Pstat Serial Number
CTRLMODE	IQUANT	1	Control Mode
IESTAB	IQUANT	0	I/E Stability
CASPEED	IQUANT	1	Control Amp Speed
CONVENTION	IQUANT	1	Current Convention
ICHRANGE	IQUANT	2	Ich Range
ICHRANGEMODE	TOGGLE	F	Ich Auto Range
ICHOFFSETENABLE	TOGGLE	T	Ich Offset Enable
ICHOFFSET	QUANT	0	Ich Offset (V)
ICHFILTER	IQUANT	3	Ich Filter
VCHRANGE	IQUANT	2	Vch Range
VCHRANGEMODE	TOGGLE	F	Vch Auto Range
VCHOFFSETENABLE	TOGGLE	T	Vch Offset Enable
VCHOFFSET	QUANT	0	Vch Offset (V)
VCHFILTER	IQUANT	3	Vch Filter
ACHRANGE	IQUANT	2	Ach Range
ACHOFFSETENABLE	TOGGLE	F	Ach Offset Enable
ACHOFFSET	QUANT	0	Ach Offset (V)
ACHFILTER	IQUANT	3	Ach Filter
IERANGELOWERLIMIT	IQUANT	1	I/E Range Lower Limit
IERANGEMODE	TOGGLE	F	I/E AutoRange
IERANGE	IQUANT	7	I/E Range
POSFEEDENABLE	TOGGLE	F	Positive Feedback IR Comp
POSFEEDRESISTANCE	QUANT	0	Positive Feedback Resistance (ohm)
ACHSELECT	IQUANT	0	Ach Select
CABLEID	IQUANT	14	Cable ID
DCCALDATE	LABEL	2/27/2020	DC Calibration Date
ACCALDATE	LABEL	2/27/2020	AC Calibration Date
THERMOSELECT	IQUANT	1	Thermo Select
FRAMEWORKVERSION	QUANT	6.33	Framework Version
INSTRUMENTVERSION	LABEL	3.50	Instrument Version
ZCURVE	TABLE
	Pt	Time	Freq	Zreal	Zimag	Zsig	Zmod	Zphz	Idc	Vdc	IERange
	#	s	Hz	ohm	ohm	V	ohm	°	A	V	#
	0	1	1000078	2114.453	-1890.501	1	2836.354	-41.79942	5.504197E-008	-0.059079	8
	1	2	794390.6	2509.332	-1918.838	1	3158.906	-37.40446	3.446508E-008	-0.0594961	8
	2	2	630984.4	2900.922	-1880.682	1	3457.212	-32.95553	5.938346E-008	-0.0596405	8
	3	2	501234.4	3259.356	-1780.674	1	3714.055	-28.64896	5.063781E-008	-0.0597396	8
	4	3	398109.4	3571.408	-1649.682	1	3934.006	-24.79286	4.95929E-008	-0.0598025	8
	5	3	316265.6	3805.793	-1508.981	1	4094.031	-21.62812	4.256559E-008	-0.0598321	8
	6	3	251203.1	4014.956	-1349.116	1	4235.562	-18.57352	5.275024E-008	-0.0598543	8
	7	4	199546.9	4187.127	-1195.558	1	4354.469	-15.93573	4.313296E-008	-0.0598587	8
	8	4	158578.1	4325.056	-1056.436	1	4452.209	-13.72627	4.604397E-008	-0.0598468	8
	9	4	125953.1	4458.16	-899.536	1	4548.006	-11.40757	-3.07692E-010	-0.0599167	7
	10	5	100078.1	4525.17	-826.9304	1	4600.106	-10.35597	1.573075E-009	-0.0599228	7
	11	5	79453.13	4600.583	-774.0872	1	4665.252	-9.55104	4.275652E-010	-0.0599342	7
	12	5	63140.62	4668.502	-739.5288	1	4726.713	-9.001326	7.620273E-010	-0.0599314	7
	13	5	50203.12	4732.653	-722.7147	1	4787.518	-8.682456	9.318996E-011	-0.059941	7
	14	6	39890.62	4795.642	-724.5681	1	4850.07	-8.59177	1.309009E-009	-0.0599391	7
	15	6	31640.63	4859.796	-744.6095	1	4916.509	-8.711015	1.076137E-009	-0.0599373	7
	16	6	25171.88	4926.973	-780.1103	1	4988.35	-8.997214	2.337246E-009	-0.0599351	7
	17	7	20015.62	4997.398	-836.0088	1	5066.843	-9.497002	1.149626E-009	-0.0599491	7
	18	7	15890.62	5074.359	-914.2059	1	5156.054	-10.21296	1.585635E-009	-0.0599447	7
	19	7	12609.37	5158.537	-1012.496	1	5256.962	-11.10462	6.651978E-010	-0.05995	7
	20	8	10078.13	5248.269	-1130.665	1	5368.68	-12.15774	2.023241E-009	-0.0599388	7
	21	8	8015.625	5351.116	-1276.667	1	5501.301	-13.41876	1.743536E-009	-0.0599389	7
	22	8	6328.125	5467.511	-1459.638	1	5658.995	-14.94741	1.240352E-009	-0.0599455	7
	23	9	5015.625	5597.133	-1677.651	1	5843.151	-16.68526	2.082626E-009	-0.0599506	7
	24	9	3984.375	5742.205	-1937.287	1	6060.198	-18.64321	2.331115E-009	-0.0599531	7
	25	9	3170.956	5902.715	-2245.202	1	6315.297	-20.8252	1.541572E-009	-0.0599528	7
	26	10	2527.573	6085.461	-2610.566	1	6621.774	-23.21856	2.63893E-009	-0.0599555	7
	27	10	1976.103	6311.74	-3084.672	1	7025.187	-26.04567	1.80287E-009	-0.059958	7
	28	10	1577.524	6550.669	-3607.274	1	7478.215	-28.84037	2.174488E-009	-0.0599514	7
	29	11	1265.625	6819.785	-4216.531	1	8018.017	-31.72764	1.506588E-009	-0.059961	7
	30	11	998.264	7152.842	-5001.768	1	8728.163	-34.96394	1.409273E-009	-0.0599568	7
	31	11	796.875	7526.741	-5894.628	1	9560.25	-38.06656	-2.750549E-010	-0.0598997	6
	32	12	627.7902	7983.691	-7035.774	1	10641.5	-41.38871	2.734257E-010	-0.0598974	6
	33	12	505.5147	8467.797	-8275.9	1	11840.36	-44.34337	-2.417669E-010	-0.0599025	6
	34	12	397.9953	9106.802	-9919.32	1	13465.76	-47.44536	3.925224E-010	-0.0598821	6
	35	12	315.5048	9852.64	-11847.45	1	15408.98	-50.25222	5.138311E-010	-0.0598852	6
	36	13	252.4038	10720.9	-14070.03	1	17689.08	-52.69379	2.551387E-010	-0.0598841	6
	37	13	198.6229	11866.79	-16936.46	1	20680.04	-54.98241	4.920897E-010	-0.0598864	6
	38	13	158.3615	13214.42	-20181.15	1	24122.6	-56.78361	3.477456E-010	-0.059888	6
	39	14	125.558	14944.19	-24133.06	1	28385.45	-58.23249	2.668547E-010	-0.0598868	6
	40	14	100.4464	17029.07	-28605.81	1	33290.86	-59.23462	1.830101E-010	-0.0598908	6
	41	14	79.00281	19853.21	-34244.23	1	39583.04	-59.89684	3.951634E-010	-0.0598923	6
	42	15	63.3446	23098.61	-40247.64	1	46404.95	-60.14796	2.371161E-010	-0.0598921	6
	43	15	49.86702	27437.88	-47710	1	55037.09	-60.09692	8.286592E-011	-0.0598978	6
	44	16	39.72458	32461.8	-55776.61	1	64535.26	-59.80074	2.319058E-010	-0.0598947	6
	45	16	31.6723	38435.37	-64840.97	1	75376.59	-59.34208	2.519857E-010	-0.0598979	6
	46	16	24.93351	45904.17	-75649.73	1	88487.71	-58.75068	-1.889148E-010	-0.0598947	6
	47	16	19.86229	54037.13	-87258.93	1	102635.9	-58.23117	-1.550003E-009	-0.0598886	5
	48	17	15.83615	63504.75	-100384.3	1	118785	-57.68189	9.757114E-010	-0.059888	5
	49	17	12.40079	75411.28	-116483.5	1	138763.3	-57.08102	-5.228368E-010	-0.059886	5
	50	17	9.93114	87765.41	-133427.9	1	159705.3	-56.66412	-9.83552E-011	-0.0598963	5
	51	18	7.944915	102075.5	-152408.7	1	183433.4	-56.18785	1.398349E-009	-0.059894	5
	52	18	6.317385	119436.4	-175087	1	211944.6	-55.69998	-2.701635E-010	-0.0598783	5
	53	19	5.008013	139932.8	-201032.2	1	244939	-55.15932	-2.997737E-010	-0.0598974	5
	54	20	3.945707	163997.1	-230523.3	1	282906.4	-54.57149	4.0622E-010	-0.0598899	5
	55	21	3.158693	190289.6	-261827.5	1	323672.3	-53.9913	-1.459296E-010	-0.0598958	5
	56	22	2.504006	220764.8	-298053.8	1	370908.5	-53.4731	2.976792E-011	-0.0599025	5
	57	23	1.998082	254761.5	-337632.4	1	422964.6	-52.96351	3.283813E-010	-0.0598574	5
	58	25	1.584686	292500	-383534	1	482342.8	-52.66925	2.337475E-010	-0.0598918	5
	59	27	1.266892	334734.5	-433056.5	1	547343.7	-52.29748	1.338681E-010	-0.0599252	5
	60	29	0.999041	385399.8	-494429.8	1	626892.3	-52.06418	7.56394E-011	-0.0599412	5
