EXPLAIN
TAG	EISPOT
TITLE	LABEL	Potentiostatic EIS	Test &Identifier
DATE	LABEL	9/11/2020	Date
TIME	LABEL	19:35:42	Time
NOTES	NOTES	1	&Notes...
	
PSTAT	PSTAT	REF600-11020	Potentiostat
VDC	POTEN	0.00000E+000	T	DC &Voltage (V)
FREQINIT	QUANT	1.00000E+006	Initial Fre&q. (Hz)
FREQFINAL	QUANT	1.00000E+000	Final Fre&q. (Hz)
PTSPERDEC	QUANT	1.00000E+001	Points/&decade
VAC	QUANT	2.50000E+001	AC &Voltage (mV rms)
AREA	QUANT	4.00000E-005	&Area (cm^2)
CONDIT	TWOPARAM	F	5.00000E+000	0.00000E+000	Conditionin&g	Time(s)	E(V)
DELAY	TWOPARAM	F	3.00000E+000	0.00000E+000	Init. De&lay	Time(s)	Stab.(mV/s)
SPEED	SELECTOR	0	&Optimize for:
ZGUESS	QUANT	1.00000E+003	E&stimated Z (ohms)
OCVCURVE	TABLE	39
	Pt	T	Vf	Vm	Ach	Over
	#	s	V vs. Ref.	V	V	bits
	0	0.258333	-1.80735E-001	-1.80735E-001	5.85125E-004	...........
	1	0.516667	-1.80734E-001	-1.80660E-001	5.84425E-004	...........
	2	0.775	-1.80725E-001	-1.80588E-001	5.83692E-004	...........
	3	1.03333	-1.80700E-001	-1.80524E-001	5.89525E-004	...........
	4	1.29167	-1.80656E-001	-1.80471E-001	5.86158E-004	...........
	5	1.55	-1.80599E-001	-1.80417E-001	5.78325E-004	...........
	6	1.80833	-1.80538E-001	-1.80370E-001	5.77692E-004	...........
	7	2.06667	-1.80479E-001	-1.80323E-001	5.78992E-004	...........
	8	2.325	-1.80425E-001	-1.80286E-001	5.82758E-004	...........
	9	2.58333	-1.80376E-001	-1.80251E-001	5.78992E-004	...........
	10	2.84167	-1.80332E-001	-1.80219E-001	5.82625E-004	...........
	11	3.1	-1.80292E-001	-1.80197E-001	5.82892E-004	...........
	12	3.35833	-1.80257E-001	-1.80168E-001	5.82492E-004	...........
	13	3.61667	-1.80226E-001	-1.80139E-001	5.80925E-004	...........
	14	3.875	-1.80197E-001	-1.80121E-001	5.85991E-004	...........
	15	4.13333	-1.80170E-001	-1.80095E-001	5.88191E-004	...........
	16	4.39167	-1.80145E-001	-1.80078E-001	5.85358E-004	...........
	17	4.65	-1.80122E-001	-1.80053E-001	5.82092E-004	...........
	18	4.90833	-1.80099E-001	-1.80040E-001	5.86325E-004	...........
	19	5.16667	-1.80078E-001	-1.80020E-001	5.83292E-004	...........
	20	5.425	-1.80058E-001	-1.80006E-001	5.83758E-004	...........
	21	5.68333	-1.80040E-001	-1.79991E-001	5.84892E-004	...........
	22	5.94167	-1.80023E-001	-1.79981E-001	5.84525E-004	...........
	23	6.2	-1.80008E-001	-1.79972E-001	5.81225E-004	...........
	24	6.45833	-1.79995E-001	-1.79967E-001	5.79358E-004	...........
	25	6.71667	-1.79983E-001	-1.79959E-001	5.78892E-004	...........
	26	6.975	-1.79974E-001	-1.79950E-001	5.81892E-004	...........
	27	7.23333	-1.79967E-001	-1.79953E-001	5.85325E-004	...........
	28	7.49167	-1.79960E-001	-1.79952E-001	5.79958E-004	...........
	29	7.75	-1.79955E-001	-1.79951E-001	5.86358E-004	...........
	30	8.00833	-1.79953E-001	-1.79946E-001	5.79592E-004	...........
	31	8.26667	-1.79951E-001	-1.79945E-001	5.83325E-004	...........
	32	8.525	-1.79949E-001	-1.79946E-001	5.81358E-004	...........
	33	8.78333	-1.79948E-001	-1.79948E-001	5.83858E-004	...........
	34	9.04167	-1.79947E-001	-1.79946E-001	5.83058E-004	...........
	35	9.3	-1.79946E-001	-1.79949E-001	5.82792E-004	...........
	36	9.5583	-1.79947E-001	-1.79949E-001	5.83258E-004	...........
	37	9.8167	-1.79947E-001	-1.79947E-001	5.82192E-004	...........
	38	10.075	-1.79948E-001	-1.79952E-001	5.81625E-004	...........
EOC	QUANT	-0.1799481	Open Circuit (V)
PSTATMODEL	IQUANT	4	Pstat Model
PSTATSECTION	LABEL	REF600-11020	Pstat Section
PSTATSERIALNO	LABEL	11020	Pstat Serial Number
CTRLMODE	IQUANT	1	Control Mode
IESTAB	IQUANT	0	I/E Stability
CASPEED	IQUANT	1	Control Amp Speed
CONVENTION	IQUANT	1	Current Convention
ICHRANGE	IQUANT	2	Ich Range
ICHRANGEMODE	TOGGLE	F	Ich Auto Range
ICHOFFSETENABLE	TOGGLE	T	Ich Offset Enable
ICHOFFSET	QUANT	0	Ich Offset (V)
ICHFILTER	IQUANT	3	Ich Filter
VCHRANGE	IQUANT	2	Vch Range
VCHRANGEMODE	TOGGLE	F	Vch Auto Range
VCHOFFSETENABLE	TOGGLE	T	Vch Offset Enable
VCHOFFSET	QUANT	0	Vch Offset (V)
VCHFILTER	IQUANT	3	Vch Filter
ACHRANGE	IQUANT	2	Ach Range
ACHOFFSETENABLE	TOGGLE	F	Ach Offset Enable
ACHOFFSET	QUANT	0	Ach Offset (V)
ACHFILTER	IQUANT	3	Ach Filter
IERANGELOWERLIMIT	IQUANT	1	I/E Range Lower Limit
IERANGEMODE	TOGGLE	F	I/E AutoRange
IERANGE	IQUANT	8	I/E Range
POSFEEDENABLE	TOGGLE	F	Positive Feedback IR Comp
POSFEEDRESISTANCE	QUANT	0	Positive Feedback Resistance (ohm)
ACHSELECT	IQUANT	0	Ach Select
CABLEID	IQUANT	14	Cable ID
DCCALDATE	LABEL	9/1/2020	DC Calibration Date
ACCALDATE	LABEL	9/1/2020	AC Calibration Date
THERMOSELECT	IQUANT	1	Thermo Select
FRAMEWORKVERSION	QUANT	6.33	Framework Version
INSTRUMENTVERSION	LABEL	3.50	Instrument Version
ZCURVE	TABLE
	Pt	Time	Freq	Zreal	Zimag	Zsig	Zmod	Zphz	Idc	Vdc	IERange
	#	s	Hz	ohm	ohm	V	ohm	°	A	V	#
	0	1	1000078	1875.096	-2431.531	1	3070.558	-52.36209	1.111813E-007	-0.1778647	8
	1	1	794390.6	2318.87	-2684.068	1	3547.024	-49.175	5.238779E-008	-0.1781548	8
	2	2	630984.4	2829.052	-2890.692	1	4044.705	-45.61744	6.906872E-008	-0.1782944	8
	3	2	501234.4	3396.764	-3038.839	1	4557.691	-41.81669	7.204314E-008	-0.1783914	8
	4	2	398109.4	3988.042	-3103.902	1	5053.581	-37.8937	7.772176E-008	-0.1784387	8
	5	3	316265.6	4584.042	-3088.013	1	5527.139	-33.96595	7.311775E-008	-0.1784606	8
	6	3	251203.1	5153.029	-2997.954	1	5961.664	-30.1902	1.68329E-008	-0.1784712	8
	7	3	199546.9	5681.641	-2856.434	1	6359.265	-26.69087	4.844881E-008	-0.1784823	8
	8	4	158578.1	6137.177	-2661.064	1	6689.26	-23.44143	6.280064E-008	-0.1784923	8
	9	4	125953.1	6583.881	-2442.041	1	7022.183	-20.35042	-1.148026E-010	-0.1784879	7
	10	4	100078.1	6922.176	-2238.354	1	7275.077	-17.91913	2.092971E-009	-0.1784963	7
	11	5	79453.13	7212.661	-2059.134	1	7500.834	-15.93345	1.962807E-009	-0.1785058	7
	12	5	63140.62	7460.804	-1902.658	1	7699.591	-14.30666	1.283641E-009	-0.1785163	7
	13	5	50203.12	7678.323	-1775.031	1	7880.824	-13.01665	3.370501E-009	-0.178513	7
	14	6	39890.62	7869.059	-1672.883	1	8044.913	-12.00183	2.593043E-009	-0.1785177	7
	15	6	31640.63	8047.434	-1600.323	1	8205.013	-11.24718	2.457241E-009	-0.1785193	7
	16	6	25171.88	8215.396	-1559.332	1	8362.072	-10.74724	3.70008E-009	-0.1785208	7
	17	7	20015.62	8374.848	-1546.458	1	8516.432	-10.4621	3.456594E-009	-0.1785171	7
	18	7	15890.62	8531.253	-1561.448	1	8672.97	-10.37187	2.233622E-009	-0.1785271	7
	19	7	12609.37	8691.945	-1608.328	1	8839.493	-10.48325	2.696513E-009	-0.178527	7
	20	7	10078.13	8897.914	-1628.266	1	9045.669	-10.37005	1.781458E-010	-0.1785252	6
	21	8	8015.625	9059.243	-1742.702	1	9225.34	-10.88882	-1.828371E-010	-0.1785338	6
	22	8	6328.125	9238.304	-1896.768	1	9431.012	-11.60248	-5.437774E-011	-0.1785274	6
	23	8	5015.625	9430.458	-2086.902	1	9658.61	-12.47811	1.267369E-010	-0.17853	6
	24	9	3984.375	9637.67	-2318.379	1	9912.59	-13.52574	-9.096346E-011	-0.1785285	6
	25	9	3170.956	9860.78	-2597.038	1	10197.04	-14.75495	-9.93885E-011	-0.1785299	6
	26	9	2527.573	10098.04	-2927.066	1	10513.71	-16.16501	-1.290795E-010	-0.1785329	6
	27	10	1976.103	10388.33	-3362.298	1	10918.91	-17.93474	-2.140774E-011	-0.1785311	6
	28	10	1577.524	10677.95	-3839.325	1	11347.2	-19.77638	-1.812862E-011	-0.1785302	6
	29	10	1265.625	10993.87	-4396.291	1	11840.29	-21.79576	7.547415E-011	-0.1785341	6
	30	11	998.264	11373.71	-5116.142	1	12471.41	-24.21926	-1.948456E-010	-0.1785297	6
	31	11	796.875	11774.49	-5936.979	1	13186.59	-26.75834	-2.594347E-011	-0.1785286	6
	32	11	627.7902	12257.54	-6985.418	1	14108.28	-29.67827	1.263718E-010	-0.1785335	6
	33	12	505.5147	12748.87	-8121.965	1	15116.21	-32.50013	-5.438494E-011	-0.1785324	6
	34	12	397.9953	13376.97	-9644.05	1	16490.93	-35.78951	4.61437E-010	-0.1785208	6
	35	12	315.5048	14077.83	-11430.94	1	18134.27	-39.07596	4.774328E-010	-0.1785212	6
	36	13	252.4038	14860.69	-13501.87	1	20078.36	-42.25711	5.231109E-010	-0.1785276	6
	37	13	198.6229	15850.5	-16190.96	1	22658.02	-45.60878	3.936086E-010	-0.1785266	6
	38	13	158.3615	16966.4	-19267.81	1	25673.08	-48.63424	4.738194E-010	-0.178532	6
	39	14	125.558	18339.17	-23068.52	1	29470.02	-51.51576	6.134076E-010	-0.1785346	6
	40	14	100.4464	19933.99	-27461.12	1	33933.42	-54.02415	5.41026E-010	-0.1785374	6
	41	14	79.00281	22035.6	-33151.26	1	39806.71	-56.38807	3.674487E-010	-0.1785366	6
	42	14	63.3446	24415.24	-39431.99	1	46378.72	-58.23531	5.054339E-010	-0.1785362	6
	43	15	49.86702	27607.73	-47572.45	1	55002.95	-59.87211	1.869443E-010	-0.1785351	6
	44	15	39.72458	31395.75	-56816.16	1	64913.55	-61.07563	4.07284E-010	-0.1785357	6
	45	16	31.6723	36090.12	-67710.88	1	76728.48	-61.94224	6.065269E-010	-0.1785343	6
	46	16	24.93351	42338.6	-81312.89	1	91675.2	-62.49458	-7.630696E-011	-0.1785383	6
	47	16	19.86229	49721.53	-96418.4	1	108483.8	-62.72051	-1.072578E-009	-0.1785478	5
	48	16	15.83615	58952.55	-113985	1	128327.7	-62.6522	5.704552E-010	-0.1785484	5
	49	17	12.40079	71361.9	-135810.3	1	153417.6	-62.28019	-1.448543E-010	-0.1785465	5
	50	17	9.93114	85132.44	-158626.3	1	180027.3	-61.77818	3.963115E-010	-0.1785502	5
	51	17	7.944915	101451.2	-184272.6	1	210353.8	-61.16504	1.058743E-009	-0.1785518	5
	52	18	6.317385	121751.6	-214311.3	1	246480.8	-60.39882	-7.471083E-011	-0.1785286	5
	53	19	5.008013	146036.4	-248657.3	1	288369.7	-59.5743	4.634203E-011	-0.1785418	5
	54	20	3.945707	174659.3	-288476.9	1	337231	-58.80705	4.220226E-010	-0.1785482	5
	55	20	3.158693	205910.8	-330098.4	1	389055.5	-58.04466	8.035648E-011	-0.1785379	5
	56	21	2.504006	242727.2	-379751.3	1	450696.8	-57.41434	1.817309E-011	-0.1785529	5
	57	23	1.998082	283556.3	-433818.4	1	518268.8	-56.8302	2.410097E-010	-0.1785123	5
	58	24	1.584686	330612.4	-499658.3	1	599135.1	-56.50831	2.342E-010	-0.1785084	5
	59	26	1.266892	382070.3	-570972.8	1	687013.6	-56.21128	1.853609E-010	-0.1785535	5
	60	29	0.999041	446688.8	-658629.7	1	795816.5	-55.85452	1.526088E-010	-0.1785808	5
