EXPLAIN
TAG	EISPOT
TITLE	LABEL	Potentiostatic EIS	Test &Identifier
DATE	LABEL	3/3/2020	Date
TIME	LABEL	19:30:29	Time
NOTES	NOTES	1	&Notes...
	
PSTAT	PSTAT	REF600-11020	Potentiostat
VDC	POTEN	0.00000E+000	T	DC &Voltage (V)
FREQINIT	QUANT	1.00000E+006	Initial Fre&q. (Hz)
FREQFINAL	QUANT	1.00000E+000	Final Fre&q. (Hz)
PTSPERDEC	QUANT	1.00000E+001	Points/&decade
VAC	QUANT	2.50000E+001	AC &Voltage (mV rms)
AREA	QUANT	1.60000E-004	&Area (cm^2)
CONDIT	TWOPARAM	F	1.50000E+001	0.00000E+000	Conditionin&g	Time(s)	E(V)
DELAY	TWOPARAM	F	1.00000E+002	0.00000E+000	Init. De&lay	Time(s)	Stab.(mV/s)
SPEED	SELECTOR	1	&Optimize for:
ZGUESS	QUANT	1.00000E+004	E&stimated Z (ohms)
OCVCURVE	TABLE	39
	Pt	T	Vf	Vm	Ach	Over
	#	s	V vs. Ref.	V	V	bits
	0	0.258333	9.67238E-002	9.67238E-002	5.53464E-004	...........
	1	0.516667	9.67240E-002	9.67309E-002	5.52764E-004	...........
	2	0.775	9.67236E-002	9.66753E-002	5.54697E-004	...........
	3	1.03333	9.67207E-002	9.67305E-002	5.56030E-004	...........
	4	1.29167	9.67174E-002	9.68100E-002	5.45597E-004	...........
	5	1.55	9.67215E-002	9.66993E-002	5.52064E-004	...........
	6	1.80833	9.67303E-002	9.66196E-002	5.48864E-004	...........
	7	2.06667	9.67265E-002	9.66483E-002	5.55864E-004	...........
	8	2.325	9.67032E-002	9.66536E-002	5.55730E-004	...........
	9	2.58333	9.66746E-002	9.66362E-002	5.52730E-004	...........
	10	2.84167	9.66543E-002	9.66143E-002	5.48964E-004	...........
	11	3.1	9.66417E-002	9.65924E-002	5.48430E-004	...........
	12	3.35833	9.66296E-002	9.65813E-002	5.52830E-004	...........
	13	3.61667	9.66150E-002	9.65702E-002	5.52697E-004	...........
	14	3.875	9.65991E-002	9.65495E-002	5.50064E-004	...........
	15	4.13333	9.65833E-002	9.65360E-002	5.46430E-004	...........
	16	4.39167	9.65679E-002	9.65196E-002	5.49697E-004	...........
	17	4.65	9.65524E-002	9.65040E-002	5.59364E-004	...........
	18	4.90833	9.65366E-002	9.64830E-002	5.49797E-004	...........
	19	5.16667	9.65205E-002	9.64772E-002	5.48397E-004	...........
	20	5.425	9.65046E-002	9.64630E-002	5.48597E-004	...........
	21	5.68333	9.64899E-002	9.64540E-002	5.45497E-004	...........
	22	5.94167	9.64767E-002	9.64345E-002	5.51330E-004	...........
	23	6.2	9.64643E-002	9.64284E-002	5.42364E-004	...........
	24	6.45833	9.64519E-002	9.64122E-002	5.44730E-004	...........
	25	6.71667	9.64394E-002	9.64023E-002	5.48697E-004	...........
	26	6.975	9.64269E-002	9.63871E-002	5.53464E-004	...........
	27	7.23333	9.64145E-002	9.63793E-002	5.53997E-004	...........
	28	7.49167	9.64022E-002	9.63607E-002	5.49864E-004	...........
	29	7.75	9.63898E-002	9.63524E-002	5.57197E-004	...........
	30	8.00833	9.63773E-002	9.63448E-002	5.52664E-004	...........
	31	8.26667	9.63654E-002	9.63341E-002	5.49364E-004	...........
	32	8.525	9.63544E-002	9.63197E-002	5.54530E-004	...........
	33	8.78333	9.63439E-002	9.63108E-002	5.54897E-004	...........
	34	9.04167	9.63333E-002	9.62989E-002	5.50464E-004	...........
	35	9.3	9.63224E-002	9.62955E-002	5.46830E-004	...........
	36	9.5583	9.63120E-002	9.62838E-002	5.44830E-004	...........
	37	9.8167	9.63024E-002	9.62715E-002	5.48964E-004	...........
	38	10.075	9.62931E-002	9.62589E-002	5.47497E-004	...........
EOC	QUANT	0.0962931	Open Circuit (V)
PSTATMODEL	IQUANT	4	Pstat Model
PSTATSECTION	LABEL	REF600-11020	Pstat Section
PSTATSERIALNO	LABEL	11020	Pstat Serial Number
CTRLMODE	IQUANT	1	Control Mode
IESTAB	IQUANT	0	I/E Stability
CASPEED	IQUANT	1	Control Amp Speed
CONVENTION	IQUANT	1	Current Convention
ICHRANGE	IQUANT	2	Ich Range
ICHRANGEMODE	TOGGLE	F	Ich Auto Range
ICHOFFSETENABLE	TOGGLE	T	Ich Offset Enable
ICHOFFSET	QUANT	0	Ich Offset (V)
ICHFILTER	IQUANT	3	Ich Filter
VCHRANGE	IQUANT	2	Vch Range
VCHRANGEMODE	TOGGLE	F	Vch Auto Range
VCHOFFSETENABLE	TOGGLE	T	Vch Offset Enable
VCHOFFSET	QUANT	0	Vch Offset (V)
VCHFILTER	IQUANT	3	Vch Filter
ACHRANGE	IQUANT	2	Ach Range
ACHOFFSETENABLE	TOGGLE	F	Ach Offset Enable
ACHOFFSET	QUANT	0	Ach Offset (V)
ACHFILTER	IQUANT	3	Ach Filter
IERANGELOWERLIMIT	IQUANT	1	I/E Range Lower Limit
IERANGEMODE	TOGGLE	F	I/E AutoRange
IERANGE	IQUANT	7	I/E Range
POSFEEDENABLE	TOGGLE	F	Positive Feedback IR Comp
POSFEEDRESISTANCE	QUANT	0	Positive Feedback Resistance (ohm)
ACHSELECT	IQUANT	0	Ach Select
CABLEID	IQUANT	14	Cable ID
DCCALDATE	LABEL	2/27/2020	DC Calibration Date
ACCALDATE	LABEL	2/27/2020	AC Calibration Date
THERMOSELECT	IQUANT	1	Thermo Select
FRAMEWORKVERSION	QUANT	6.33	Framework Version
INSTRUMENTVERSION	LABEL	3.50	Instrument Version
ZCURVE	TABLE
	Pt	Time	Freq	Zreal	Zimag	Zsig	Zmod	Zphz	Idc	Vdc	IERange
	#	s	Hz	ohm	ohm	V	ohm	°	A	V	#
	0	2	1000078	1998.606	-2520.414	1	3216.662	-51.58674	-1.173134E-006	0.098757	8
	1	3	794390.6	2461.081	-2784.236	1	3716.032	-48.52544	-1.165063E-006	0.0987118	8
	2	5	630984.4	2993.35	-2990.401	1	4231.151	-44.97176	1.110729E-006	0.0978194	8
	3	6	501234.4	3604.155	-3138.478	1	4779.119	-41.04916	2.702813E-006	0.0973307	8
	4	7	398109.4	4226.866	-3175.341	1	5286.699	-36.91491	-8.838299E-007	0.0979485	8
	5	9	316265.6	4860.115	-3145.389	1	5789.145	-32.9103	-1.185823E-006	0.0982927	8
	6	10	251203.1	5445.377	-2978.786	1	6206.875	-28.67999	-1.033269E-006	0.0980016	8
	7	12	199546.9	6003.086	-2774.476	1	6613.226	-24.8052	1.525664E-006	0.0975948	8
	8	13	158578.1	6455.47	-2531.021	1	6933.914	-21.40885	1.903236E-006	0.0975438	8
	9	15	125953.1	6813.007	-2184.677	1	7154.71	-17.7791	-5.152427E-007	0.0995791	7
	10	17	100078.1	7101.888	-1931.76	1	7359.926	-15.21668	1.264533E-007	0.0975776	7
	11	18	79453.13	7335.503	-1712.079	1	7532.65	-13.13744	9.256101E-008	0.097694	7
	12	19	63140.62	7517.768	-1509.838	1	7667.884	-11.35598	-1.741867E-008	0.0978655	7
	13	21	50203.12	7668.808	-1339.88	1	7784.979	-9.91058	2.045853E-008	0.0977045	7
	14	22	39890.62	7785.118	-1201.054	1	7877.22	-8.770201	-7.2649E-008	0.0978586	7
	15	23	31640.63	7891.388	-1092.83	1	7966.698	-7.884397	9.400323E-008	0.0976895	7
	16	25	25171.88	7979.038	-1015.731	1	8043.43	-7.254729	1.013617E-007	0.0975696	7
	17	26	20015.62	8059.03	-964.992	1	8116.599	-6.828116	6.98387E-008	0.0977483	7
	18	27	15890.62	8132.74	-946.384	1	8187.619	-6.637495	1.020218E-007	0.0975728	7
	19	29	12609.37	8207.911	-944.0851	1	8262.027	-6.561404	1.688147E-008	0.0976313	7
	20	30	10078.13	8272.137	-983.718	1	8330.423	-6.781736	-7.473366E-008	0.0978253	7
	21	31	8015.625	8335.556	-1047.319	1	8401.093	-7.161389	-3.602042E-008	0.0978669	7
	22	33	6328.125	8412.38	-1137.176	1	8488.893	-7.698509	-2.260094E-008	0.0977242	7
	23	34	5015.625	8488.205	-1276.525	1	8583.655	-8.552508	-4.292119E-008	0.0978495	7
	24	35	3984.375	8561.073	-1448.907	1	8682.816	-9.60592	9.500025E-008	0.0976825	7
	25	37	3170.956	8644.868	-1673.144	1	8805.291	-10.9537	-7.051776E-008	0.0978529	7
	26	38	2527.573	8734.969	-1952.237	1	8950.47	-12.59838	-1.472204E-008	0.0978569	7
	27	39	1976.103	8843.312	-2323.758	1	9143.522	-14.72278	3.106155E-009	0.0978965	6
	28	41	1577.524	8959.039	-2772.464	1	9378.216	-17.1952	-8.472194E-009	0.0977782	6
	29	42	1265.625	9089.163	-3298.238	1	9669.09	-19.94461	-1.532056E-008	0.0979452	6
	30	44	998.264	9252.899	-4006.626	1	10083.12	-23.41324	-7.387442E-009	0.0979921	6
	31	45	796.875	9439.924	-4831.168	1	10604.36	-27.10248	-5.062698E-009	0.0977258	6
	32	46	627.7902	9675.73	-5908.042	1	11336.87	-31.40843	1.44042E-008	0.0974898	6
	33	48	505.5147	9940.5	-7108.688	1	12220.76	-35.56947	-1.508445E-008	0.0979872	6
	34	49	397.9953	10293.17	-8722.972	1	13492.2	-40.2797	4.505156E-010	0.09782	6
	35	50	315.5048	10720.8	-10653.8	1	15114.2	-44.82038	1.025156E-009	0.0978162	6
	36	52	252.4038	11228.6	-12914.38	1	17113.23	-48.99419	9.642132E-010	0.0978106	6
	37	53	198.6229	11907.97	-15883.04	1	19851.22	-53.14007	5.682674E-010	0.0978162	6
	38	54	158.3615	12706.51	-19314.94	1	23119.73	-56.66071	6.140699E-010	0.0978081	6
	39	56	125.558	13739.02	-23586.27	1	27296.02	-59.77918	6.488416E-010	0.0978171	6
	40	57	100.4464	14946.21	-28580.04	1	32252.25	-62.39225	1.133576E-009	0.0978106	6
	41	58	79.00281	16656.93	-35161.79	1	38907.65	-64.65204	6.897293E-010	0.0978093	6
	42	60	63.3446	18668.31	-42152.14	1	46101.07	-66.11244	3.208767E-010	0.0978107	6
	43	61	49.86702	21281.67	-52256.76	1	56424.1	-67.84129	2.250684E-010	0.0978133	6
	44	63	39.72458	24323.32	-63255.68	1	67770.98	-68.96706	5.241317E-010	0.0978161	6
	45	64	31.6723	28557.78	-76768.34	1	81908.02	-69.59483	9.95339E-010	0.0978136	6
	46	65	24.93351	34085.77	-93773.53	1	99776.3	-70.02428	4.969523E-010	0.09781	6
	47	67	19.86229	41178.56	-113190.1	1	120447.8	-70.00861	7.530471E-010	0.097822	5
	48	68	15.83615	50647.36	-136613.6	1	145699.8	-69.65852	-1.194881E-010	0.0978189	5
	49	69	12.40079	63827.6	-165596.8	1	177471.9	-68.92136	-2.589995E-010	0.0978228	5
	50	71	9.93114	79188.98	-197309.1	1	212607.1	-68.13219	-3.861313E-011	0.0978267	5
	51	72	7.944915	98971.4	-232989.4	1	253139.1	-66.98473	4.494702E-010	0.097813	5
	52	74	6.317385	124205.8	-274413.5	1	301213.9	-65.6474	5.101612E-010	0.0978128	5
	53	76	5.008013	156061.6	-321832.4	1	357674.9	-64.13052	1.295134E-010	0.0978202	5
	54	79	3.945707	194986	-375259.2	1	422893.6	-62.54346	1.089634E-010	0.097818	5
	55	81	3.158693	237090	-430007.2	1	491037.5	-61.12928	4.20168E-011	0.0978028	5
	56	85	2.504006	286655.9	-493426.4	1	570649.8	-59.84557	2.712429E-010	0.0978243	5
	57	87	1.998082	340369.6	-562298.9	1	657291	-58.81273	3.217186E-010	0.0978272	5
	58	90	1.584686	403410.2	-641180.3	1	757530.2	-57.8232	1.411888E-010	0.097767	5
	59	94	1.266892	468754.7	-731464.2	1	868775.5	-57.34645	2.362557E-010	0.0978371	5
	60	98	0.999041	549896.9	-841655.1	1	1005371	-56.84134	-4.585521E-011	0.0977845	5
