EXPLAIN
TAG	EISPOT
TITLE	LABEL	Potentiostatic EIS	Test &Identifier
DATE	LABEL	6/1/2020	Date
TIME	LABEL	13:55:49	Time
NOTES	NOTES	1	&Notes...
	
PSTAT	PSTAT	REF600-11020	Potentiostat
VDC	POTEN	0.00000E+000	T	DC &Voltage (V)
FREQINIT	QUANT	1.00000E+006	Initial Fre&q. (Hz)
FREQFINAL	QUANT	1.00000E+000	Final Fre&q. (Hz)
PTSPERDEC	QUANT	1.00000E+001	Points/&decade
VAC	QUANT	2.50000E+001	AC &Voltage (mV rms)
AREA	QUANT	4.00000E-004	&Area (cm^2)
CONDIT	TWOPARAM	F	5.00000E+000	0.00000E+000	Conditionin&g	Time(s)	E(V)
DELAY	TWOPARAM	T	3.00000E+000	0.00000E+000	Init. De&lay	Time(s)	Stab.(mV/s)
SPEED	SELECTOR	0	&Optimize for:
ZGUESS	QUANT	1.00000E+003	E&stimated Z (ohms)
OCVCURVE	TABLE	12
	Pt	T	Vf	Vm	Ach	Over
	#	s	V vs. Ref.	V	V	bits
	0	0.258333	3.12928E-002	3.12928E-002	5.87730E-004	...........
	1	0.516667	3.12934E-002	3.13267E-002	5.87396E-004	...........
	2	0.775	3.12974E-002	3.13602E-002	5.82930E-004	...........
	3	1.03333	3.13088E-002	3.13911E-002	5.83930E-004	...........
	4	1.29167	3.13293E-002	3.14221E-002	5.86496E-004	...........
	5	1.55	3.13566E-002	3.14495E-002	5.86763E-004	...........
	6	1.80833	3.13869E-002	3.14766E-002	5.88330E-004	...........
	7	2.06667	3.14171E-002	3.15004E-002	5.86496E-004	...........
	8	2.325	3.14460E-002	3.15267E-002	5.88963E-004	...........
	9	2.58333	3.14731E-002	3.15513E-002	5.87963E-004	...........
	10	2.84167	3.14990E-002	3.15750E-002	5.88563E-004	...........
	11	3.1	3.15242E-002	3.16000E-002	5.86863E-004	...........
EOC	QUANT	0.0315242	Open Circuit (V)
PSTATMODEL	IQUANT	4	Pstat Model
PSTATSECTION	LABEL	REF600-11020	Pstat Section
PSTATSERIALNO	LABEL	11020	Pstat Serial Number
CTRLMODE	IQUANT	1	Control Mode
IESTAB	IQUANT	0	I/E Stability
CASPEED	IQUANT	1	Control Amp Speed
CONVENTION	IQUANT	1	Current Convention
ICHRANGE	IQUANT	2	Ich Range
ICHRANGEMODE	TOGGLE	F	Ich Auto Range
ICHOFFSETENABLE	TOGGLE	T	Ich Offset Enable
ICHOFFSET	QUANT	0	Ich Offset (V)
ICHFILTER	IQUANT	3	Ich Filter
VCHRANGE	IQUANT	2	Vch Range
VCHRANGEMODE	TOGGLE	F	Vch Auto Range
VCHOFFSETENABLE	TOGGLE	T	Vch Offset Enable
VCHOFFSET	QUANT	0	Vch Offset (V)
VCHFILTER	IQUANT	3	Vch Filter
ACHRANGE	IQUANT	2	Ach Range
ACHOFFSETENABLE	TOGGLE	F	Ach Offset Enable
ACHOFFSET	QUANT	0	Ach Offset (V)
ACHFILTER	IQUANT	3	Ach Filter
IERANGELOWERLIMIT	IQUANT	1	I/E Range Lower Limit
IERANGEMODE	TOGGLE	F	I/E AutoRange
IERANGE	IQUANT	7	I/E Range
POSFEEDENABLE	TOGGLE	F	Positive Feedback IR Comp
POSFEEDRESISTANCE	QUANT	0	Positive Feedback Resistance (ohm)
ACHSELECT	IQUANT	0	Ach Select
CABLEID	IQUANT	14	Cable ID
DCCALDATE	LABEL	2/27/2020	DC Calibration Date
ACCALDATE	LABEL	2/27/2020	AC Calibration Date
THERMOSELECT	IQUANT	1	Thermo Select
FRAMEWORKVERSION	QUANT	6.33	Framework Version
INSTRUMENTVERSION	LABEL	3.50	Instrument Version
ZCURVE	TABLE
	Pt	Time	Freq	Zreal	Zimag	Zsig	Zmod	Zphz	Idc	Vdc	IERange
	#	s	Hz	ohm	ohm	V	ohm	°	A	V	#
	0	1	1000078	2211.27	-1821.768	1	2865.057	-39.4836	3.94656E-008	0.0338003	8
	1	1	794390.6	2549.183	-1855.013	1	3152.683	-36.04297	4.846559E-008	0.0334768	8
	2	1	630984.4	2883.282	-1850.629	1	3426.097	-32.6943	4.831907E-008	0.0333348	8
	3	2	501234.4	3200.398	-1820.503	1	3681.953	-29.6328	2.557407E-008	0.0332448	8
	4	2	398109.4	3497.641	-1767.881	1	3919.043	-26.81429	6.849756E-008	0.0331879	8
	5	2	316265.6	3776.79	-1707.873	1	4144.994	-24.33259	1.663315E-008	0.0331818	8
	6	3	251203.1	4039.411	-1642.338	1	4360.518	-22.12561	5.263397E-008	0.0331556	8
	7	3	199546.9	4282.862	-1575.832	1	4563.568	-20.20054	2.414569E-008	0.0331462	8
	8	3	158578.1	4512.385	-1500.7	1	4755.389	-18.39577	4.382568E-008	0.0331631	8
	9	4	125953.1	4768.219	-1363.615	1	4959.371	-15.95946	-3.832805E-009	0.0331093	7
	10	4	100078.1	4947.398	-1302.201	1	5115.904	-14.74631	1.204344E-009	0.0330877	7
	11	4	79453.13	5130.985	-1249.798	1	5281.004	-13.68945	1.37307E-009	0.0330838	7
	12	4	63140.62	5300.874	-1198.259	1	5434.62	-12.73759	2.496708E-009	0.0330778	7
	13	5	50203.12	5459.333	-1150.277	1	5579.198	-11.89815	2.093572E-009	0.0330792	7
	14	5	39890.62	5606.521	-1108.311	1	5715.018	-11.1822	1.210647E-009	0.0330658	7
	15	5	31640.63	5745.268	-1075.373	1	5845.043	-10.60169	1.770085E-009	0.0330806	7
	16	6	25171.88	5873.708	-1052.62	1	5967.281	-10.16005	1.213774E-009	0.0330741	7
	17	6	20015.62	5994.777	-1041.691	1	6084.609	-9.85765	2.575004E-009	0.0330728	7
	18	6	15890.62	6112.921	-1045.576	1	6201.696	-9.70615	1.902555E-009	0.0330744	7
	19	7	12609.37	6225.902	-1063.852	1	6316.141	-9.69677	2.077114E-009	0.0330744	7
	20	7	10078.13	6332.864	-1099.111	1	6427.536	-9.84599	2.404354E-009	0.0330716	7
	21	7	8015.625	6441.52	-1155.499	1	6544.337	-10.16972	2.261983E-009	0.0330621	7
	22	8	6328.125	6551.993	-1237.862	1	6667.901	-10.69873	2.666094E-009	0.0330695	7
	23	8	5015.625	6663.196	-1348.893	1	6798.36	-11.44426	3.130393E-009	0.0330709	7
	24	8	3984.375	6776.271	-1491.935	1	6938.567	-12.41674	3.299158E-009	0.0330692	7
	25	9	3170.956	6891.684	-1673.362	1	7091.929	-13.64781	2.597197E-009	0.033062	7
	26	9	2527.573	7013.087	-1899.025	1	7265.651	-15.15138	3.194292E-009	0.0330644	7
	27	9	1976.103	7153.821	-2207.469	1	7486.66	-17.14876	1.350291E-009	0.0330546	7
	28	10	1577.524	7296.003	-2563.213	1	7733.158	-19.35726	3.343223E-009	0.0330623	7
	29	10	1265.625	7446.026	-2989.131	1	8023.604	-21.87249	2.558444E-009	0.03306	7
	30	10	998.264	7628.896	-3556.339	1	8417.103	-24.99338	5.071403E-009	0.0330665	7
	31	11	796.875	7821.98	-4220.844	1	8888.133	-28.35189	4.162552E-009	0.0330634	7
	32	11	627.7902	8068.437	-5077.923	1	9533.36	-32.18452	-5.388331E-010	0.0331126	6
	33	11	505.5147	8321.337	-6044.779	1	10285.13	-35.99537	-5.02421E-010	0.0331125	6
	34	12	397.9953	8657.482	-7347.931	1	11355.36	-40.32252	4.547252E-010	0.0331251	6
	35	12	315.5048	9051.169	-8904.865	1	12697.25	-44.53317	4.565238E-010	0.0331272	6
	36	12	252.4038	9511.02	-10727.42	1	14336.56	-48.43954	4.668846E-010	0.0331252	6
	37	12	198.6229	10114.85	-13118.21	1	16564.95	-52.36581	4.994932E-010	0.0331229	6
	38	13	158.3615	10817.91	-15877.82	1	19212.82	-55.73253	4.450696E-010	0.0331203	6
	39	13	125.558	11706.42	-19318.91	1	22588.95	-58.78596	5.297067E-010	0.0331211	6
	40	13	100.4464	12763.88	-23331.65	1	26594.79	-61.31857	4.839401E-010	0.0331175	6
	41	14	79.00281	14185.37	-28590.94	1	31916.55	-63.61174	4.904938E-010	0.0331177	6
	42	14	63.3446	15822.2	-34466.52	1	37924.7	-65.34203	1.746124E-010	0.0331189	6
	43	15	49.86702	18061.02	-42194.98	1	45897.89	-66.82727	3.176739E-010	0.0331152	6
	44	15	39.72458	20789.83	-51109.68	1	55176.23	-67.86503	5.044029E-010	0.0331202	6
	45	15	31.6723	24284.76	-61831.89	1	66429.91	-68.55736	4.732039E-010	0.0331203	6
	46	16	24.93351	29105.05	-75460.66	1	80879.02	-68.90845	5.768707E-010	0.0331197	6
	47	16	19.86229	35076.94	-90982.83	1	97510.3	-68.91667	1.368145E-009	0.0331267	6
	48	16	15.83615	42943.38	-109243.2	1	117380.6	-68.54026	-8.567761E-010	0.0331238	5
	49	16	12.40079	54021.98	-132304.2	1	142908.3	-67.78899	-5.282018E-011	0.0331269	5
	50	17	9.93114	67004.38	-156599.7	1	170332.2	-66.83535	-9.671461E-011	0.0331311	5
	51	17	7.944915	83345.69	-184140	1	202123.8	-65.64748	-9.858653E-010	0.0331286	5
	52	17	6.317385	104256.2	-216072.4	1	239909.6	-64.24242	2.616636E-010	0.0331125	5
	53	18	5.008013	130108.5	-252222	1	283803.1	-62.7131	4.101058E-010	0.0331332	5
	54	19	3.945707	161895.5	-292857	1	334627.3	-61.06557	-9.365651E-011	0.0331142	5
	55	20	3.158693	196940.2	-334519.3	1	388186.3	-59.51358	2.208363E-010	0.0331149	5
	56	21	2.504006	238215.2	-382203.1	1	450361.8	-58.066	2.024442E-010	0.033115	5
	57	22	1.998082	284614.1	-432860.6	1	518047.8	-56.67432	-9.413995E-011	0.0330757	5
	58	24	1.584686	336905.3	-491170.5	1	595611.9	-55.55286	-8.421008E-011	0.0330886	5
	59	26	1.266892	394523.9	-551645.6	1	678205	-54.42855	-1.543154E-011	0.0331267	5
	60	28	0.999041	464042.8	-623964.4	1	777603.6	-53.36179	3.892855E-011	0.0331463	5
