EXPLAIN
TAG	EISPOT
TITLE	LABEL	Potentiostatic EIS	Test &Identifier
DATE	LABEL	1/10/2020	Date
TIME	LABEL	13:43:36	Time
NOTES	NOTES	5	&Notes...
	
	
	
	
	
PSTAT	PSTAT	REF600-11020	Potentiostat
VDC	POTEN	0.00000E+000	T	DC &Voltage (V)
FREQINIT	QUANT	1.00000E+006	Initial Fre&q. (Hz)
FREQFINAL	QUANT	1.00000E+000	Final Fre&q. (Hz)
PTSPERDEC	QUANT	1.00000E+001	Points/&decade
VAC	QUANT	2.50000E+001	AC &Voltage (mV rms)
AREA	QUANT	1.00000E-001	&Area (cm^2)
CONDIT	TWOPARAM	T	5.00000E+000	0.00000E+000	Conditionin&g	Time(s)	E(V)
DELAY	TWOPARAM	T	5.00000E+000	0.00000E+000	Init. De&lay	Time(s)	Stab.(mV/s)
SPEED	SELECTOR	0	&Optimize for:
ZGUESS	QUANT	5.00000E+002	E&stimated Z (ohms)
OCVCURVE	TABLE	19
	Pt	T	Vf	Vm	Ach	Over
	#	s	V vs. Ref.	V	V	bits
	0	0.258333	6.70524E-003	6.70524E-003	6.56846E-004	...........
	1	0.516667	6.70484E-003	6.68400E-003	6.54280E-004	...........
	2	0.775	6.70443E-003	6.77319E-003	6.56479E-004	...........
	3	1.03333	6.71164E-003	6.93233E-003	6.49213E-004	...........
	4	1.29167	6.73637E-003	6.68034E-003	6.57679E-004	...........
	5	1.55	6.77161E-003	6.94868E-003	6.49813E-004	...........
	6	1.80833	6.80654E-003	7.06872E-003	6.60546E-004	...........
	7	2.06667	6.85346E-003	7.08722E-003	6.53146E-004	...........
	8	2.325	6.92128E-003	6.98893E-003	6.59646E-004	...........
	9	2.58333	6.98560E-003	6.97725E-003	6.54446E-004	...........
	10	2.84167	7.01423E-003	6.82826E-003	6.51413E-004	...........
	11	3.1	6.99362E-003	6.62733E-003	6.53980E-004	...........
	12	3.35833	6.92858E-003	6.81291E-003	6.61013E-004	...........
	13	3.61667	6.86718E-003	7.83251E-003	6.60113E-004	...........
	14	3.875	6.92402E-003	8.40092E-003	6.59479E-004	...........
	15	4.13333	7.18517E-003	8.06915E-003	6.57613E-004	...........
	16	4.39167	7.56548E-003	7.76738E-003	6.58913E-004	...........
	17	4.65	7.85892E-003	7.62783E-003	6.59813E-004	...........
	18	4.90833	7.94531E-003	7.61217E-003	6.61713E-004	...........
EOC	QUANT	0.0079453	Open Circuit (V)
PSTATMODEL	IQUANT	4	Pstat Model
PSTATSECTION	LABEL	REF600-11020	Pstat Section
PSTATSERIALNO	LABEL	11020	Pstat Serial Number
CTRLMODE	IQUANT	1	Control Mode
IESTAB	IQUANT	0	I/E Stability
CASPEED	IQUANT	1	Control Amp Speed
CONVENTION	IQUANT	1	Current Convention
ICHRANGE	IQUANT	2	Ich Range
ICHRANGEMODE	TOGGLE	F	Ich Auto Range
ICHOFFSETENABLE	TOGGLE	T	Ich Offset Enable
ICHOFFSET	QUANT	0	Ich Offset (V)
ICHFILTER	IQUANT	3	Ich Filter
VCHRANGE	IQUANT	2	Vch Range
VCHRANGEMODE	TOGGLE	F	Vch Auto Range
VCHOFFSETENABLE	TOGGLE	T	Vch Offset Enable
VCHOFFSET	QUANT	0	Vch Offset (V)
VCHFILTER	IQUANT	3	Vch Filter
ACHRANGE	IQUANT	2	Ach Range
ACHOFFSETENABLE	TOGGLE	F	Ach Offset Enable
ACHOFFSET	QUANT	0	Ach Offset (V)
ACHFILTER	IQUANT	3	Ach Filter
IERANGELOWERLIMIT	IQUANT	1	I/E Range Lower Limit
IERANGEMODE	TOGGLE	F	I/E AutoRange
IERANGE	IQUANT	7	I/E Range
POSFEEDENABLE	TOGGLE	F	Positive Feedback IR Comp
POSFEEDRESISTANCE	QUANT	0	Positive Feedback Resistance (ohm)
ACHSELECT	IQUANT	0	Ach Select
CABLEID	IQUANT	14	Cable ID
DCCALDATE	LABEL	12/22/2019	DC Calibration Date
ACCALDATE	LABEL	12/22/2019	AC Calibration Date
THERMOSELECT	IQUANT	1	Thermo Select
FRAMEWORKVERSION	QUANT	6.33	Framework Version
INSTRUMENTVERSION	LABEL	3.50	Instrument Version
ZCURVE	TABLE
	Pt	Time	Freq	Zreal	Zimag	Zsig	Zmod	Zphz	Idc	Vdc	IERange
	#	s	Hz	ohm	ohm	V	ohm	°	A	V	#
	0	1	1000078	2252.642	-2095.81	1	3076.819	-42.93446	4.025089E-006	0.0097235	8
	1	1	794390.6	2694.384	-2108.307	1	3421.208	-38.04253	-3.253899E-007	0.0096883	8
	2	1	630984.4	3124.187	-2051.585	1	3737.585	-33.29203	-9.326588E-007	0.0100936	8
	3	2	501234.4	3513.474	-1922.203	1	4004.917	-28.68284	-2.259349E-006	0.0101815	8
	4	2	398109.4	3846.858	-1770.246	1	4234.63	-24.71093	2.01718E-006	0.0092973	8
	5	2	316265.6	4123.29	-1574.849	1	4413.804	-20.90386	-1.06721E-006	0.009729	8
	6	3	251203.1	4327.399	-1391.458	1	4545.606	-17.82499	1.183913E-006	0.0094135	8
	7	3	199546.9	4498.972	-1238.33	1	4666.284	-15.38943	-4.05348E-007	0.0096685	8
	8	3	158578.1	4631.333	-1099.843	1	4760.136	-13.35906	-2.177964E-006	0.0100427	8
	9	4	125953.1	4763.254	-935.5441	1	4854.259	-11.11194	-2.123767E-008	0.0094944	7
	10	4	100078.1	4833.953	-851.0884	1	4908.304	-9.98542	2.25586E-008	0.0095653	7
	11	4	79453.13	4909	-791.5047	1	4972.399	-9.159283	-3.747305E-008	0.0096349	7
	12	4	63140.62	4975.756	-750.8957	1	5032.096	-8.5818	5.172664E-008	0.0094847	7
	13	5	50203.12	5040.104	-728.2614	1	5092.447	-8.221953	-1.49935E-009	0.0095381	7
	14	5	39890.62	5103.661	-725.1219	1	5154.916	-8.086392	3.156609E-008	0.0094787	7
	15	5	31640.63	5166.924	-740.806	1	5219.76	-8.159159	-1.464647E-008	0.0095708	7
	16	6	25171.88	5232.039	-773.6257	1	5288.925	-8.41099	-6.903202E-009	0.0096072	7
	17	6	20015.62	5304.954	-824.0466	1	5368.574	-8.829493	-2.008471E-008	0.0096465	7
	18	6	15890.62	5375.603	-897.0482	1	5449.936	-9.473879	-2.836394E-008	0.0095867	7
	19	7	12609.37	5458.769	-991.309	1	5548.049	-10.29271	9.026784E-008	0.0094392	7
	20	7	10078.13	5544.862	-1103.818	1	5653.664	-11.25871	1.029115E-009	0.0095287	7
	21	7	8015.625	5645.679	-1249.243	1	5782.24	-12.47703	-3.631504E-008	0.0096395	7
	22	8	6328.125	5759.112	-1422.647	1	5932.225	-13.87573	-3.872786E-008	0.0096173	7
	23	8	5015.625	5883.362	-1629.936	1	6104.968	-15.48495	-5.508163E-009	0.0095913	7
	24	8	3984.375	6023.185	-1874.978	1	6308.272	-17.29102	3.071461E-008	0.0094647	7
	25	9	3170.956	6178.08	-2177.41	1	6550.556	-19.41456	3.166787E-008	0.0094631	7
	26	9	2527.573	6351.592	-2526.559	1	6835.658	-21.69185	-2.252216E-008	0.0095898	7
	27	9	1976.103	6563.881	-2990.164	1	7212.878	-24.49155	-3.056452E-008	0.0095852	7
	28	10	1577.524	6778.523	-3489.605	1	7624.023	-27.23955	2.427326E-009	0.0095744	7
	29	10	1265.625	7028.287	-4083.757	1	8128.585	-30.15855	-2.817107E-008	0.0095775	7
	30	10	998.264	7327.854	-4856.483	1	8791.067	-33.53415	-3.700073E-008	0.0096101	7
	31	11	796.875	7651.263	-5734.319	1	9561.6	-36.85011	-5.639943E-009	0.0095989	6
	32	11	627.7902	8039.335	-6867.005	1	10572.92	-40.50315	-4.073304E-009	0.009567	6
	33	11	505.5147	8448.731	-8107.054	1	11709.2	-43.8177	-5.398968E-009	0.0096062	6
	34	12	397.9953	8975.453	-9767.6	1	13265.17	-47.42009	7.145475E-010	0.0095664	6
	35	12	315.5048	9578.16	-11736.59	1	15148.89	-50.78233	4.313092E-010	0.0095669	6
	36	12	252.4038	10262.13	-14032.09	1	17384.22	-53.82078	1.24107E-009	0.0095611	6
	37	12	198.6229	11134.15	-17017.16	1	20336.01	-56.8037	6.042648E-010	0.0095659	6
	38	13	158.3615	12133.48	-20475.65	1	23800.7	-59.34983	8.817259E-010	0.0095603	6
	39	13	125.558	13351.25	-24749.06	1	28120.67	-61.65469	6.793026E-010	0.0095622	6
	40	13	100.4464	14816.33	-29746.81	1	33232.46	-63.52296	1.175736E-010	0.0095611	6
	41	14	79.00281	16614.19	-36323.68	1	39942.97	-65.42099	-1.802678E-010	0.0095592	6
	42	14	63.3446	18868.36	-43030.11	1	46985.16	-66.32293	3.731915E-010	0.0095614	6
	43	14	49.86702	21810.88	-52842.86	1	57167.15	-67.57162	6.345668E-010	0.009555	6
	44	15	39.72458	25025.08	-64224.55	1	68927.84	-68.71164	6.347594E-010	0.0095623	6
	45	15	31.6723	29466.37	-77781.46	1	83175.85	-69.25154	3.285455E-010	0.0095584	6
	46	16	24.93351	35569.08	-94562.92	1	101031.2	-69.38662	8.664681E-010	0.0095521	6
	47	16	19.86229	42972.98	-113946.7	1	121780.7	-69.33692	4.213401E-011	0.0095534	5
	48	16	15.83615	54150.16	-136660.5	1	146997.7	-68.38462	1.70891E-009	0.0095535	5
	49	16	12.40079	67651.91	-165198.5	1	178514.3	-67.72998	-1.25291E-009	0.0095616	5
	50	17	9.93114	82488.36	-196458.8	1	213073.7	-67.22363	6.310006E-010	0.0095564	5
	51	17	7.944915	103149.9	-231523.7	1	253462.2	-65.98577	5.682931E-010	0.0095586	5
	52	18	6.317385	130177.7	-272734.3	1	302208.8	-64.48458	2.63827E-010	0.0095514	5
	53	19	5.008013	164731	-318884.3	1	358919.9	-62.67978	3.040753E-010	0.0095582	5
	54	20	3.945707	208821.1	-370703.4	1	425473	-60.60698	-1.687471E-010	0.0095477	5
	55	21	3.158693	257482.7	-421041.6	1	493531.5	-58.55265	-2.604638E-011	0.0095402	5
	56	23	2.504006	316981.2	-476292.9	1	572129.4	-56.35554	1.864155E-010	0.009544	5
	57	24	1.998082	380863.1	-530270.4	1	652873.2	-54.31246	-4.883865E-012	0.0095181	5
	58	26	1.584686	453190.5	-590274	1	744180.8	-52.48428	-1.245311E-010	0.0094991	5
	59	28	1.266892	525758.5	-650802.9	1	836639.9	-51.06659	-9.988956E-011	0.0095262	5
	60	30	0.999041	607244.6	-719933	1	941833.1	-49.85325	-7.751918E-011	0.0095538	5
