EXPLAIN
TAG	EISPOT
TITLE	LABEL	Potentiostatic EIS	Test &Identifier
DATE	LABEL	1/10/2020	Date
TIME	LABEL	13:10:12	Time
NOTES	NOTES	5	&Notes...
	
	
	
	
	
PSTAT	PSTAT	REF600-11020	Potentiostat
VDC	POTEN	0.00000E+000	T	DC &Voltage (V)
FREQINIT	QUANT	1.00000E+006	Initial Fre&q. (Hz)
FREQFINAL	QUANT	1.00000E+000	Final Fre&q. (Hz)
PTSPERDEC	QUANT	1.00000E+001	Points/&decade
VAC	QUANT	2.50000E+001	AC &Voltage (mV rms)
AREA	QUANT	1.00000E-001	&Area (cm^2)
CONDIT	TWOPARAM	T	5.00000E+000	0.00000E+000	Conditionin&g	Time(s)	E(V)
DELAY	TWOPARAM	T	5.00000E+000	0.00000E+000	Init. De&lay	Time(s)	Stab.(mV/s)
SPEED	SELECTOR	0	&Optimize for:
ZGUESS	QUANT	5.00000E+002	E&stimated Z (ohms)
OCVCURVE	TABLE	19
	Pt	T	Vf	Vm	Ach	Over
	#	s	V vs. Ref.	V	V	bits
	0	0.258333	-2.47142E-003	-2.47142E-003	6.42480E-004	...........
	1	0.516667	-2.48677E-003	-3.27492E-003	6.47213E-004	...........
	2	0.775	-2.57246E-003	-3.58796E-003	6.44613E-004	...........
	3	1.03333	-2.79040E-003	-4.09890E-003	6.43280E-004	...........
	4	1.29167	-3.14097E-003	-4.49731E-003	6.47980E-004	...........
	5	1.55	-3.56757E-003	-4.90797E-003	6.45713E-004	...........
	6	1.80833	-4.01211E-003	-5.22575E-003	6.49046E-004	...........
	7	2.06667	-4.43900E-003	-5.57196E-003	6.45946E-004	...........
	8	2.325	-4.83239E-003	-5.83410E-003	6.44713E-004	...........
	9	2.58333	-5.18964E-003	-6.13860E-003	6.46813E-004	...........
	10	2.84167	-5.51481E-003	-6.37161E-003	6.50713E-004	...........
	11	3.1	-5.81378E-003	-6.63092E-003	6.46046E-004	...........
	12	3.35833	-6.09131E-003	-6.84034E-003	6.48413E-004	...........
	13	3.61667	-6.35026E-003	-7.06156E-003	6.45513E-004	...........
	14	3.875	-6.59247E-003	-7.25733E-003	6.48446E-004	...........
	15	4.13333	-6.81976E-003	-7.45460E-003	6.53980E-004	...........
	16	4.39167	-7.03418E-003	-7.63422E-003	6.45046E-004	...........
	17	4.65	-7.23756E-003	-7.81394E-003	6.41613E-004	...........
	18	4.90833	-7.43117E-003	-7.97574E-003	6.42380E-004	...........
EOC	QUANT	-0.0074312	Open Circuit (V)
PSTATMODEL	IQUANT	4	Pstat Model
PSTATSECTION	LABEL	REF600-11020	Pstat Section
PSTATSERIALNO	LABEL	11020	Pstat Serial Number
CTRLMODE	IQUANT	1	Control Mode
IESTAB	IQUANT	0	I/E Stability
CASPEED	IQUANT	1	Control Amp Speed
CONVENTION	IQUANT	1	Current Convention
ICHRANGE	IQUANT	2	Ich Range
ICHRANGEMODE	TOGGLE	F	Ich Auto Range
ICHOFFSETENABLE	TOGGLE	T	Ich Offset Enable
ICHOFFSET	QUANT	0	Ich Offset (V)
ICHFILTER	IQUANT	3	Ich Filter
VCHRANGE	IQUANT	2	Vch Range
VCHRANGEMODE	TOGGLE	F	Vch Auto Range
VCHOFFSETENABLE	TOGGLE	T	Vch Offset Enable
VCHOFFSET	QUANT	0	Vch Offset (V)
VCHFILTER	IQUANT	3	Vch Filter
ACHRANGE	IQUANT	2	Ach Range
ACHOFFSETENABLE	TOGGLE	F	Ach Offset Enable
ACHOFFSET	QUANT	0	Ach Offset (V)
ACHFILTER	IQUANT	3	Ach Filter
IERANGELOWERLIMIT	IQUANT	1	I/E Range Lower Limit
IERANGEMODE	TOGGLE	F	I/E AutoRange
IERANGE	IQUANT	7	I/E Range
POSFEEDENABLE	TOGGLE	F	Positive Feedback IR Comp
POSFEEDRESISTANCE	QUANT	0	Positive Feedback Resistance (ohm)
ACHSELECT	IQUANT	0	Ach Select
CABLEID	IQUANT	14	Cable ID
DCCALDATE	LABEL	12/22/2019	DC Calibration Date
ACCALDATE	LABEL	12/22/2019	AC Calibration Date
THERMOSELECT	IQUANT	1	Thermo Select
FRAMEWORKVERSION	QUANT	6.33	Framework Version
INSTRUMENTVERSION	LABEL	3.50	Instrument Version
ZCURVE	TABLE
	Pt	Time	Freq	Zreal	Zimag	Zsig	Zmod	Zphz	Idc	Vdc	IERange
	#	s	Hz	ohm	ohm	V	ohm	°	A	V	#
	0	1	1000078	2426.206	-1813.63	1	3029.146	-36.77873	-9.280964E-007	-0.0051587	8
	1	1	794390.6	2775.857	-1749.621	1	3281.243	-32.2232	8.452672E-007	-0.0056415	8
	2	2	630984.4	3101.059	-1621.482	1	3499.396	-27.60417	2.58976E-006	-0.0063479	8
	3	2	501234.4	3364.466	-1469.699	1	3671.464	-23.59714	-2.289834E-006	-0.0053622	8
	4	2	398109.4	3603.529	-1279.84	1	3824.057	-19.55315	5.796247E-007	-0.0060442	8
	5	3	316265.6	3775.007	-1142.234	1	3944.031	-16.83465	1.583426E-006	-0.0062781	8
	6	3	251203.1	3911.002	-981.571	1	4032.297	-14.08891	1.327975E-006	-0.0062119	8
	7	3	199546.9	4001.746	-880.2598	1	4097.417	-12.40572	3.178719E-007	-0.00597	8
	8	4	158578.1	4086.8	-782.1752	1	4160.978	-10.83485	2.289022E-006	-0.0064334	8
	9	4	125953.1	4155.056	-677.0745	1	4209.86	-9.255114	5.326557E-007	-0.0071265	7
	10	4	100078.1	4202.727	-620.7083	1	4248.316	-8.401381	5.731644E-008	-0.0060713	7
	11	5	79453.13	4252.264	-596.3043	1	4293.871	-7.982659	3.916976E-009	-0.0059443	7
	12	5	63140.62	4301.144	-587.6046	1	4341.096	-7.779356	1.379178E-008	-0.0060342	7
	13	5	50203.12	4349.729	-592.8123	1	4389.94	-7.760865	4.676032E-008	-0.0060938	7
	14	6	39890.62	4400.13	-613.1204	1	4442.641	-7.932599	-2.827333E-008	-0.0059499	7
	15	6	31640.63	4455.884	-648.7435	1	4502.863	-8.283636	7.179501E-008	-0.0060942	7
	16	6	25171.88	4513.582	-700.3624	1	4567.595	-8.82012	-2.423685E-008	-0.0059396	7
	17	7	20015.62	4579.821	-764.9984	1	4643.272	-9.482952	-8.715973E-009	-0.0059849	7
	18	7	15890.62	4649.724	-851.8531	1	4727.111	-10.38175	1.584987E-008	-0.0060421	7
	19	7	12609.37	4730.784	-955.696	1	4826.352	-11.42098	-2.488537E-008	-0.0059437	7
	20	8	10078.13	4817.933	-1079.489	1	4937.386	-12.62892	-2.56386E-008	-0.0059464	7
	21	8	8015.625	4917.984	-1225.074	1	5068.271	-13.98775	-3.984052E-008	-0.0059095	7
	22	8	6328.125	5033.887	-1412.245	1	5228.236	-15.67134	5.827911E-008	-0.0060868	7
	23	8	5015.625	5162.549	-1627.784	1	5413.095	-17.50039	5.83541E-008	-0.0060865	7
	24	9	3984.375	5309.458	-1884.749	1	5634.06	-19.54382	-1.22352E-008	-0.0058899	7
	25	9	3170.956	5467.488	-2182.597	1	5887.033	-21.76167	1.183997E-008	-0.0059748	7
	26	9	2527.573	5648.887	-2537.399	1	6192.602	-24.18893	3.92954E-009	-0.0059583	7
	27	10	1976.103	5871.323	-2995.155	1	6591.159	-27.02762	-3.321191E-008	-0.0059512	7
	28	10	1577.524	6103.471	-3496.189	1	7033.896	-29.80493	-6.788928E-009	-0.0059872	7
	29	10	1265.625	6363.631	-4076.035	1	7557.106	-32.64039	6.019177E-008	-0.0060962	7
	30	11	998.264	6681.667	-4826.844	1	8242.761	-35.84439	-2.237494E-008	-0.0059561	7
	31	11	796.875	7024.55	-5682.191	1	9035.021	-38.96955	9.806161E-008	-0.0061118	7
	32	11	627.7902	7445.949	-6767.827	1	10062.09	-42.26856	-3.790448E-009	-0.0058962	6
	33	12	505.5147	7881.901	-7956.471	1	11199.54	-45.26976	-2.046659E-009	-0.0060057	6
	34	12	397.9953	8430.104	-9534.9	1	12727.18	-48.5191	1.226757E-009	-0.0059757	6
	35	12	315.5048	9053.167	-11401.95	1	14559	-51.55037	8.412061E-010	-0.0059778	6
	36	13	252.4038	9751.23	-13577.86	1	16716.6	-54.31519	5.118649E-010	-0.0059788	6
	37	13	198.6229	10638.55	-16405.43	1	19552.93	-57.03752	1.247314E-009	-0.0059793	6
	38	13	158.3615	11645.09	-19676.81	1	22864.49	-59.38219	1.12707E-009	-0.0059866	6
	39	14	125.558	12870.08	-23716.79	1	26983.79	-61.51324	1.035245E-009	-0.0059802	6
	40	14	100.4464	14337.9	-28402.45	1	31816.26	-63.21481	1.605264E-009	-0.0059844	6
	41	14	79.00281	16197.28	-34595.4	1	38199.39	-64.9114	1.480097E-009	-0.0059859	6
	42	15	63.3446	18065.7	-40957.54	1	44764.82	-66.19851	5.125831E-010	-0.0059866	6
	43	15	49.86702	20979.29	-49881.92	1	54114.11	-67.18939	4.08753E-010	-0.0059884	6
	44	15	39.72458	24316.54	-60463.59	1	65170.08	-68.09157	8.705313E-010	-0.0059832	6
	45	16	31.6723	28442.28	-72861.2	1	78215.84	-68.67619	4.546786E-010	-0.0059836	6
	46	16	24.93351	33890.2	-88350.61	1	94627.56	-69.0138	1.060214E-009	-0.0059862	6
	47	16	19.86229	40363.24	-106005	1	113429.5	-69.15479	6.028563E-010	-0.005985	5
	48	17	15.83615	49195.41	-126994.5	1	136190.3	-68.82452	1.099944E-009	-0.0059906	5
	49	17	12.40079	59931.14	-154492.2	1	165709.3	-68.79756	1.014032E-010	-0.0059846	5
	50	17	9.93114	72187.77	-183006	1	196729	-68.47296	5.536922E-010	-0.0059844	5
	51	18	7.944915	87881.78	-216638.1	1	233784.7	-67.91949	8.50631E-010	-0.0059852	5
	52	19	6.317385	107689.1	-257331.2	1	278955.7	-67.29144	8.120392E-010	-0.0059966	5
	53	19	5.008013	132228.1	-305826.7	1	333188	-66.61815	6.002967E-010	-0.0059826	5
	54	20	3.945707	162689.9	-363335.4	1	398096.3	-65.8787	3.761203E-010	-0.0059794	5
	55	22	3.158693	197542.4	-425978	1	469553.2	-65.12103	2.566481E-010	-0.0059975	5
	56	23	2.504006	242914.1	-501711.3	1	557424	-64.16508	4.217017E-010	-0.0059945	5
	57	25	1.998082	295155.3	-585265.3	1	655478.5	-63.23772	3.811053E-010	-0.0059788	5
	58	26	1.584686	363579.6	-682096.3	1	772946	-61.94093	2.776865E-010	-0.0060253	5
	59	28	1.266892	442457.8	-790105.4	1	905558.1	-60.75124	2.567792E-010	-0.0060315	5
	60	31	0.999041	542473.2	-916528.2	1	1065036	-59.37963	1.714001E-010	-0.0059743	4
