EXPLAIN
TAG	EISPOT
TITLE	LABEL	Potentiostatic EIS	Test &Identifier
DATE	LABEL	9/11/2020	Date
TIME	LABEL	19:48:47	Time
NOTES	NOTES	1	&Notes...
	
PSTAT	PSTAT	REF600-11020	Potentiostat
VDC	POTEN	0.00000E+000	T	DC &Voltage (V)
FREQINIT	QUANT	1.00000E+006	Initial Fre&q. (Hz)
FREQFINAL	QUANT	1.00000E+000	Final Fre&q. (Hz)
PTSPERDEC	QUANT	1.00000E+001	Points/&decade
VAC	QUANT	2.50000E+001	AC &Voltage (mV rms)
AREA	QUANT	4.00000E-005	&Area (cm^2)
CONDIT	TWOPARAM	F	5.00000E+000	0.00000E+000	Conditionin&g	Time(s)	E(V)
DELAY	TWOPARAM	F	3.00000E+000	0.00000E+000	Init. De&lay	Time(s)	Stab.(mV/s)
SPEED	SELECTOR	0	&Optimize for:
ZGUESS	QUANT	1.00000E+003	E&stimated Z (ohms)
OCVCURVE	TABLE	39
	Pt	T	Vf	Vm	Ach	Over
	#	s	V vs. Ref.	V	V	bits
	0	0.258333	-1.71228E-001	-1.71228E-001	5.22826E-004	...........
	1	0.516667	-1.71228E-001	-1.71211E-001	5.22193E-004	...........
	2	0.775	-1.71226E-001	-1.71193E-001	5.29759E-004	...........
	3	1.03333	-1.71220E-001	-1.71180E-001	5.27526E-004	...........
	4	1.29167	-1.71210E-001	-1.71167E-001	5.25759E-004	...........
	5	1.55	-1.71196E-001	-1.71157E-001	5.22659E-004	...........
	6	1.80833	-1.71183E-001	-1.71144E-001	5.25092E-004	...........
	7	2.06667	-1.71169E-001	-1.71136E-001	5.25726E-004	...........
	8	2.325	-1.71158E-001	-1.71127E-001	5.23792E-004	...........
	9	2.58333	-1.71147E-001	-1.71117E-001	5.23926E-004	...........
	10	2.84167	-1.71137E-001	-1.71112E-001	5.23026E-004	...........
	11	3.1	-1.71128E-001	-1.71106E-001	5.20392E-004	...........
	12	3.35833	-1.71120E-001	-1.71101E-001	5.27626E-004	...........
	13	3.61667	-1.71113E-001	-1.71094E-001	5.29526E-004	...........
	14	3.875	-1.71107E-001	-1.71092E-001	5.21926E-004	...........
	15	4.13333	-1.71101E-001	-1.71086E-001	5.27559E-004	...........
	16	4.39167	-1.71096E-001	-1.71084E-001	5.25892E-004	...........
	17	4.65	-1.71092E-001	-1.71082E-001	5.30792E-004	...........
	18	4.90833	-1.71088E-001	-1.71073E-001	5.28092E-004	...........
	19	5.16667	-1.71084E-001	-1.71068E-001	5.29159E-004	...........
	20	5.425	-1.71079E-001	-1.71064E-001	5.29792E-004	...........
	21	5.68333	-1.71074E-001	-1.71062E-001	5.28959E-004	...........
	22	5.94167	-1.71070E-001	-1.71059E-001	5.28826E-004	...........
	23	6.2	-1.71066E-001	-1.71056E-001	5.26892E-004	...........
	24	6.45833	-1.71062E-001	-1.71054E-001	5.18359E-004	...........
	25	6.71667	-1.71059E-001	-1.71050E-001	5.25692E-004	...........
	26	6.975	-1.71056E-001	-1.71048E-001	5.23992E-004	...........
	27	7.23333	-1.71054E-001	-1.71047E-001	5.21093E-004	...........
	28	7.49167	-1.71051E-001	-1.71046E-001	5.21659E-004	...........
	29	7.75	-1.71049E-001	-1.71047E-001	5.23026E-004	...........
	30	8.00833	-1.71048E-001	-1.71050E-001	5.21526E-004	...........
	31	8.26667	-1.71047E-001	-1.71051E-001	5.29326E-004	...........
	32	8.525	-1.71048E-001	-1.71051E-001	5.31792E-004	...........
	33	8.78333	-1.71049E-001	-1.71049E-001	5.35359E-004	...........
	34	9.04167	-1.71050E-001	-1.71049E-001	5.26559E-004	...........
	35	9.3	-1.71050E-001	-1.71046E-001	5.27359E-004	...........
	36	9.5583	-1.71050E-001	-1.71047E-001	5.24859E-004	...........
	37	9.8167	-1.71049E-001	-1.71045E-001	5.18426E-004	...........
	38	10.075	-1.71048E-001	-1.71044E-001	5.17959E-004	...........
EOC	QUANT	-0.1710475	Open Circuit (V)
PSTATMODEL	IQUANT	4	Pstat Model
PSTATSECTION	LABEL	REF600-11020	Pstat Section
PSTATSERIALNO	LABEL	11020	Pstat Serial Number
CTRLMODE	IQUANT	1	Control Mode
IESTAB	IQUANT	0	I/E Stability
CASPEED	IQUANT	1	Control Amp Speed
CONVENTION	IQUANT	1	Current Convention
ICHRANGE	IQUANT	2	Ich Range
ICHRANGEMODE	TOGGLE	F	Ich Auto Range
ICHOFFSETENABLE	TOGGLE	T	Ich Offset Enable
ICHOFFSET	QUANT	0	Ich Offset (V)
ICHFILTER	IQUANT	3	Ich Filter
VCHRANGE	IQUANT	2	Vch Range
VCHRANGEMODE	TOGGLE	F	Vch Auto Range
VCHOFFSETENABLE	TOGGLE	T	Vch Offset Enable
VCHOFFSET	QUANT	0	Vch Offset (V)
VCHFILTER	IQUANT	3	Vch Filter
ACHRANGE	IQUANT	2	Ach Range
ACHOFFSETENABLE	TOGGLE	F	Ach Offset Enable
ACHOFFSET	QUANT	0	Ach Offset (V)
ACHFILTER	IQUANT	3	Ach Filter
IERANGELOWERLIMIT	IQUANT	1	I/E Range Lower Limit
IERANGEMODE	TOGGLE	F	I/E AutoRange
IERANGE	IQUANT	8	I/E Range
POSFEEDENABLE	TOGGLE	F	Positive Feedback IR Comp
POSFEEDRESISTANCE	QUANT	0	Positive Feedback Resistance (ohm)
ACHSELECT	IQUANT	0	Ach Select
CABLEID	IQUANT	14	Cable ID
DCCALDATE	LABEL	9/1/2020	DC Calibration Date
ACCALDATE	LABEL	9/1/2020	AC Calibration Date
THERMOSELECT	IQUANT	1	Thermo Select
FRAMEWORKVERSION	QUANT	6.33	Framework Version
INSTRUMENTVERSION	LABEL	3.50	Instrument Version
ZCURVE	TABLE
	Pt	Time	Freq	Zreal	Zimag	Zsig	Zmod	Zphz	Idc	Vdc	IERange
	#	s	Hz	ohm	ohm	V	ohm	°	A	V	#
	0	1	1000078	2037.978	-2387.574	1	3139.087	-49.51669	1.200261E-007	-0.168808	8
	1	1	794390.6	2501.734	-2582.401	1	3595.479	-45.90899	6.616226E-008	-0.1691646	8
	2	2	630984.4	3013.995	-2709.277	1	4052.696	-41.95233	7.375972E-008	-0.1693144	8
	3	2	501234.4	3555.288	-2759.952	1	4500.823	-37.82201	-3.695404E-009	-0.1694193	8
	4	2	398109.4	4084.156	-2734.138	1	4914.859	-33.80032	3.94151E-009	-0.1694811	8
	5	3	316265.6	4590.283	-2642.641	1	5296.626	-29.92917	1.939454E-008	-0.1695064	8
	6	3	251203.1	5044.278	-2507.641	1	5633.206	-26.43315	7.308757E-008	-0.1695275	8
	7	3	199546.9	5431.168	-2332.067	1	5910.679	-23.238	5.356981E-008	-0.1695321	8
	8	4	158578.1	5767.518	-2162.038	1	6159.438	-20.54924	5.934474E-008	-0.1695444	8
	9	4	125953.1	6102.172	-1954.663	1	6407.59	-17.76143	2.381949E-008	-0.1695349	7
	10	4	100078.1	6337.797	-1810.655	1	6591.369	-15.94419	4.917273E-009	-0.1695565	7
	11	5	79453.13	6542.11	-1705.69	1	6760.812	-14.6131	3.790066E-009	-0.1695622	7
	12	5	63140.62	6725.048	-1630.045	1	6919.777	-13.62483	2.478656E-009	-0.1695588	7
	13	5	50203.12	6894.307	-1584.134	1	7073.963	-12.94048	4.357146E-010	-0.1695704	7
	14	6	39890.62	7054.829	-1569.317	1	7227.265	-12.54101	1.988259E-010	-0.1695714	7
	15	6	31640.63	7215.114	-1587.121	1	7387.613	-12.40587	1.239877E-009	-0.1695691	7
	16	6	25171.88	7373.935	-1635.343	1	7553.096	-12.5043	1.302712E-009	-0.1695697	7
	17	7	20015.62	7540.862	-1718.026	1	7734.095	-12.83456	5.079944E-009	-0.16957	7
	18	7	15890.62	7716.584	-1831.898	1	7931.048	-13.35466	1.822317E-009	-0.1695801	7
	19	7	12609.37	7904.887	-1984.555	1	8150.196	-14.09307	1.987478E-009	-0.1695736	7
	20	8	10078.13	8103.109	-2168.361	1	8388.216	-14.98112	9.446889E-010	-0.1695789	7
	21	8	8015.625	8324.785	-2400.934	1	8664.095	-16.08798	3.565044E-009	-0.1695766	7
	22	8	6328.125	8578.909	-2691.229	1	8991.129	-17.41679	5.716905E-009	-0.1695782	7
	23	8	5015.625	8893.783	-2985.316	1	9381.444	-18.55501	-3.531583E-010	-0.1695812	6
	24	9	3984.375	9199.272	-3390.771	1	9804.28	-20.23345	4.145713E-010	-0.1695817	6
	25	9	3170.956	9544.87	-3862.964	1	10296.94	-22.03397	-1.72843E-010	-0.169585	6
	26	9	2527.573	9933.59	-4410.63	1	10868.76	-23.94177	-5.531911E-010	-0.1695846	6
	27	10	1976.103	10419.6	-5106.004	1	11603.42	-26.10664	9.390783E-011	-0.1695921	6
	28	10	1577.524	10938.71	-5852.812	1	12406.08	-28.14923	-1.095507E-010	-0.1695857	6
	29	10	1265.625	11513.5	-6691.394	1	13316.73	-30.16422	-4.610291E-011	-0.1695973	6
	30	11	998.264	12238.63	-7741.953	1	14481.78	-32.31677	3.085042E-010	-0.169588	6
	31	11	796.875	13026.69	-8889.799	1	15770.96	-34.31079	-9.17271E-011	-0.1695908	6
	32	11	627.7902	13996.25	-10293	1	17373.57	-36.33117	2.668359E-010	-0.1695947	6
	33	12	505.5147	15019.63	-11758.09	1	19074.64	-38.05555	-1.539225E-010	-0.1695993	6
	34	12	397.9953	16316.75	-13618.03	1	21252.93	-39.84852	4.930505E-010	-0.1695759	6
	35	12	315.5048	17774.7	-15697.55	1	23713.99	-41.44901	4.533858E-010	-0.1695761	6
	36	13	252.4038	19385.29	-17990.48	1	26447.06	-42.8628	4.9598E-010	-0.1695773	6
	37	13	198.6229	21378.47	-20826.56	1	29846.01	-44.25079	5.534198E-010	-0.1695784	6
	38	13	158.3615	23553.75	-23920.2	1	33570.16	-45.44226	5.713904E-010	-0.1695806	6
	39	14	125.558	26120.7	-27569.89	1	37978.81	-46.54613	6.055897E-010	-0.1695781	6
	40	14	100.4464	28969.09	-31601.81	1	42870.54	-47.4888	3.534957E-010	-0.1695852	6
	41	14	79.00281	32520.7	-36600.11	1	48960.84	-48.37759	2.624845E-010	-0.1695841	6
	42	15	63.3446	36303.67	-41880.33	1	55424.89	-49.07985	1.131838E-010	-0.1695886	6
	43	15	49.86702	41056.93	-48440.24	1	63499.04	-49.71609	5.95978E-010	-0.16959	6
	44	15	39.72458	46273.29	-55578.86	1	72320.31	-50.22025	-1.930879E-010	-0.1695874	6
	45	16	31.6723	52317.14	-63720.56	1	82446.3	-50.61263	4.813792E-010	-0.1695865	6
	46	16	24.93351	59709.67	-73565.21	1	94747.48	-50.93527	-4.618566E-010	-0.1695932	6
	47	16	19.86229	67770.22	-84263.16	1	108134.6	-51.19137	-2.035739E-009	-0.1695987	5
	48	16	15.83615	77328.44	-96451.4	1	123622.7	-51.27964	4.545127E-010	-0.1695952	5
	49	17	12.40079	89535.2	-111294.9	1	142839.5	-51.18381	-1.605951E-009	-0.1695893	5
	50	17	9.93114	102189	-126656.4	1	162740.4	-51.10269	-1.092221E-009	-0.1695942	5
	51	17	7.944915	117290	-143385.1	1	185246.4	-50.71659	1.436413E-009	-0.1695919	5
	52	18	6.317385	135157.4	-162855.4	1	211635.1	-50.30996	-2.353745E-010	-0.1695734	5
	53	19	5.008013	155913.7	-184233.8	1	241352.8	-49.75937	-3.958359E-010	-0.1695921	5
	54	20	3.945707	179363.9	-207878.6	1	274563.2	-49.2114	5.133967E-010	-0.1695838	5
	55	20	3.158693	204160.3	-231968.3	1	309015.7	-48.6483	-1.9981E-010	-0.1695826	5
	56	21	2.504006	231456.6	-259884	1	348011.3	-48.31125	-1.623464E-010	-0.1695975	5
	57	23	1.998082	260184.2	-289738.5	1	389415.3	-48.07626	2.704188E-010	-0.1695516	5
	58	24	1.584686	290590.7	-326427.3	1	437032.8	-48.32402	2.29848E-010	-0.1695651	5
	59	26	1.266892	321651.5	-366470.6	1	487606.8	-48.72655	1.021051E-010	-0.1696022	5
	60	29	0.999041	357671.2	-417421.6	1	549699.4	-49.4081	2.656647E-011	-0.1696328	5
