EXPLAIN
TAG	EISPOT
TITLE	LABEL	Potentiostatic EIS	Test &Identifier
DATE	LABEL	3/12/2020	Date
TIME	LABEL	12:37:59	Time
NOTES	NOTES	1	&Notes...
	
PSTAT	PSTAT	REF600-11020	Potentiostat
VDC	POTEN	0.00000E+000	T	DC &Voltage (V)
FREQINIT	QUANT	1.00000E+006	Initial Fre&q. (Hz)
FREQFINAL	QUANT	1.00000E+000	Final Fre&q. (Hz)
PTSPERDEC	QUANT	1.00000E+001	Points/&decade
VAC	QUANT	2.50000E+001	AC &Voltage (mV rms)
AREA	QUANT	2.50000E-001	&Area (cm^2)
CONDIT	TWOPARAM	F	5.00000E+000	0.00000E+000	Conditionin&g	Time(s)	E(V)
DELAY	TWOPARAM	T	5.00000E+000	0.00000E+000	Init. De&lay	Time(s)	Stab.(mV/s)
SPEED	SELECTOR	1	&Optimize for:
ZGUESS	QUANT	5.00000E+003	E&stimated Z (ohms)
OCVCURVE	TABLE	19
	Pt	T	Vf	Vm	Ach	Over
	#	s	V vs. Ref.	V	V	bits
	0	0.258333	8.11208E-002	8.11208E-002	5.68363E-004	...........
	1	0.516667	8.11211E-002	8.11370E-002	5.65530E-004	...........
	2	0.775	8.11212E-002	8.10582E-002	5.62164E-004	...........
	3	1.03333	8.11161E-002	8.10132E-002	5.62664E-004	...........
	4	1.29167	8.10998E-002	8.10671E-002	5.67930E-004	...........
	5	1.55	8.10764E-002	8.10365E-002	5.65264E-004	...........
	6	1.80833	8.10567E-002	8.10123E-002	5.58930E-004	...........
	7	2.06667	8.10434E-002	8.10052E-002	5.59697E-004	...........
	8	2.325	8.10321E-002	8.10058E-002	5.64297E-004	...........
	9	2.58333	8.10206E-002	8.09835E-002	5.56397E-004	...........
	10	2.84167	8.10097E-002	8.09781E-002	5.65597E-004	...........
	11	3.1	8.09993E-002	8.09717E-002	5.63363E-004	...........
	12	3.35833	8.09892E-002	8.09629E-002	5.59930E-004	...........
	13	3.61667	8.09800E-002	8.09553E-002	5.61464E-004	...........
	14	3.875	8.09716E-002	8.09487E-002	5.63864E-004	...........
	15	4.13333	8.09638E-002	8.09418E-002	5.69330E-004	...........
	16	4.39167	8.09564E-002	8.09361E-002	5.64763E-004	...........
	17	4.65	8.09495E-002	8.09360E-002	5.63097E-004	...........
	18	4.90833	8.09435E-002	8.09286E-002	5.63164E-004	...........
EOC	QUANT	0.0809435	Open Circuit (V)
PSTATMODEL	IQUANT	4	Pstat Model
PSTATSECTION	LABEL	REF600-11020	Pstat Section
PSTATSERIALNO	LABEL	11020	Pstat Serial Number
CTRLMODE	IQUANT	1	Control Mode
IESTAB	IQUANT	0	I/E Stability
CASPEED	IQUANT	1	Control Amp Speed
CONVENTION	IQUANT	1	Current Convention
ICHRANGE	IQUANT	2	Ich Range
ICHRANGEMODE	TOGGLE	F	Ich Auto Range
ICHOFFSETENABLE	TOGGLE	T	Ich Offset Enable
ICHOFFSET	QUANT	0	Ich Offset (V)
ICHFILTER	IQUANT	3	Ich Filter
VCHRANGE	IQUANT	2	Vch Range
VCHRANGEMODE	TOGGLE	F	Vch Auto Range
VCHOFFSETENABLE	TOGGLE	T	Vch Offset Enable
VCHOFFSET	QUANT	0	Vch Offset (V)
VCHFILTER	IQUANT	3	Vch Filter
ACHRANGE	IQUANT	2	Ach Range
ACHOFFSETENABLE	TOGGLE	F	Ach Offset Enable
ACHOFFSET	QUANT	0	Ach Offset (V)
ACHFILTER	IQUANT	3	Ach Filter
IERANGELOWERLIMIT	IQUANT	1	I/E Range Lower Limit
IERANGEMODE	TOGGLE	F	I/E AutoRange
IERANGE	IQUANT	7	I/E Range
POSFEEDENABLE	TOGGLE	F	Positive Feedback IR Comp
POSFEEDRESISTANCE	QUANT	0	Positive Feedback Resistance (ohm)
ACHSELECT	IQUANT	0	Ach Select
CABLEID	IQUANT	14	Cable ID
DCCALDATE	LABEL	2/27/2020	DC Calibration Date
ACCALDATE	LABEL	2/27/2020	AC Calibration Date
THERMOSELECT	IQUANT	1	Thermo Select
FRAMEWORKVERSION	QUANT	6.33	Framework Version
INSTRUMENTVERSION	LABEL	3.50	Instrument Version
ZCURVE	TABLE
	Pt	Time	Freq	Zreal	Zimag	Zsig	Zmod	Zphz	Idc	Vdc	IERange
	#	s	Hz	ohm	ohm	V	ohm	°	A	V	#
	0	1	1000078	1845.523	-1796.667	1	2575.649	-44.23149	1.425526E-006	0.0836658	8
	1	2	794390.6	2211.22	-1843.048	1	2878.597	-39.81115	2.24982E-007	0.0828347	8
	2	4	630984.4	2595.261	-1831.16	1	3176.244	-35.20596	5.400022E-006	0.0819399	8
	3	5	501234.4	2960.551	-1765.6	1	3447.058	-30.81082	1.358559E-006	0.0823747	8
	4	6	398109.4	3281.126	-1642.865	1	3669.441	-26.5972	2.364749E-006	0.0823742	8
	5	8	316265.6	3561.189	-1500.858	1	3864.537	-22.85292	-3.482833E-006	0.083444	8
	6	9	251203.1	3762.797	-1349.859	1	3997.594	-19.73485	-1.849524E-006	0.0832475	8
	7	11	199546.9	3947.647	-1209.172	1	4128.682	-17.02992	-3.124373E-006	0.0830856	8
	8	12	158578.1	4076.063	-1069.513	1	4214.042	-14.70234	2.34301E-006	0.0823469	8
	9	14	125953.1	4254.893	-871.7844	1	4343.285	-11.57907	-9.16332E-008	0.0826218	7
	10	15	100078.1	4315.005	-787.1483	1	4386.213	-10.33829	-8.044125E-008	0.0826343	7
	11	16	79453.13	4384.846	-737.8875	1	4446.499	-9.55231	3.006441E-008	0.0825534	7
	12	18	63140.62	4448.45	-705.5361	1	4504.053	-9.012197	-8.028029E-008	0.0826307	7
	13	19	50203.12	4509.21	-692.083	1	4562.012	-8.725784	1.1865E-007	0.0823587	7
	14	21	39890.62	4568.771	-698.5031	1	4621.859	-8.692436	-5.610199E-008	0.0825821	7
	15	22	31640.63	4629.665	-721.6877	1	4685.577	-8.860152	5.544604E-008	0.0825142	7
	16	23	25171.88	4692.612	-764.2214	1	4754.434	-9.249775	-6.973398E-009	0.0825901	7
	17	25	20015.62	4762.057	-825.9989	1	4833.163	-9.84029	3.572774E-008	0.0825394	7
	18	26	15890.62	4839.452	-908.2852	1	4923.949	-10.62981	1.119194E-007	0.0823047	7
	19	27	12609.37	4924.521	-1011.114	1	5027.251	-11.60285	-3.019217E-008	0.0826116	7
	20	29	10078.13	5016.786	-1133.616	1	5143.27	-12.73298	-4.350176E-008	0.0825684	7
	21	30	8015.625	5122.383	-1283.495	1	5280.736	-14.06676	-7.727198E-008	0.0826208	7
	22	31	6328.125	5247.966	-1470.925	1	5450.208	-15.65738	-6.787302E-009	0.0825916	7
	23	33	5015.625	5384.235	-1688.07	1	5642.656	-17.4073	-4.820389E-008	0.0825409	7
	24	34	3984.375	5537.932	-1943.649	1	5869.11	-19.33955	-3.768684E-008	0.0825004	7
	25	36	3170.956	5703.565	-2245.33	1	6129.613	-21.48814	3.261178E-008	0.0825315	7
	26	37	2527.573	5890.566	-2598.841	1	6438.38	-23.80644	-3.18878E-008	0.0826057	7
	27	38	1976.103	6110.588	-3058.882	1	6833.451	-26.59196	-5.07684E-009	0.0825906	7
	28	40	1577.524	6335.674	-3564.229	1	7269.422	-29.36058	5.49414E-009	0.0824502	7
	29	41	1265.625	6577.322	-4168.544	1	7787.036	-32.36551	1.231769E-007	0.0823415	7
	30	42	998.264	6864.757	-4950.203	1	8463.416	-35.79552	-3.228141E-008	0.0826062	7
	31	44	796.875	7181.102	-5849.044	1	9261.725	-39.16299	5.126594E-009	0.0824541	7
	32	45	627.7902	7566.452	-7017.579	1	10319.77	-42.84468	-9.409719E-010	0.0824323	6
	33	47	505.5147	7958.461	-8313.217	1	11508.55	-46.24897	7.810972E-009	0.0825387	6
	34	48	397.9953	8480.363	-10060.16	1	13157.63	-49.87027	3.173499E-010	0.0825654	6
	35	49	315.5048	9086.943	-12135.53	1	15160.59	-53.17455	6.866705E-010	0.0825712	6
	36	51	252.4038	9793.22	-14556.19	1	17543.94	-56.06783	1.518981E-009	0.0825679	6
	37	52	198.6229	10718.06	-17715.05	1	20705.07	-58.82498	8.642068E-010	0.082569	6
	38	53	158.3615	11805.29	-21348.56	1	24395.2	-61.05835	1.015686E-009	0.0825657	6
	39	55	125.558	13153.04	-25832.99	1	28988.71	-63.01677	1.05185E-009	0.0825614	6
	40	56	100.4464	14736.5	-31075.52	1	34392.62	-64.62895	-2.840148E-011	0.0825609	6
	41	58	79.00281	16815.72	-37866.07	1	41431.96	-66.05475	-2.572662E-010	0.0825634	6
	42	59	63.3446	18667.53	-45253.38	1	48952.48	-67.5833	7.774953E-010	0.0825622	6
	43	60	49.86702	23078.89	-54739.1	1	59405.43	-67.13892	1.200195E-009	0.0825619	6
	44	62	39.72458	26808.07	-66254.58	1	71472.66	-67.97065	9.221283E-010	0.08257	6
	45	63	31.6723	32083.35	-79467.73	1	85699.84	-68.01469	1.103567E-009	0.0825674	6
	46	65	24.93351	38961.29	-96663.1	1	104219.7	-68.04749	2.603618E-010	0.0825615	6
	47	66	19.86229	47881.5	-115462.1	1	124996.6	-67.47649	5.821041E-010	0.0825694	5
	48	67	15.83615	59665.5	-138849.3	1	151126.1	-66.74613	1.393421E-009	0.0825693	5
	49	69	12.40079	74500.88	-164702.7	1	180768.8	-65.66106	6.869479E-010	0.0825687	5
	50	70	9.93114	92105.08	-194314.4	1	215038.2	-64.63904	5.960616E-011	0.0825662	5
	51	72	7.944915	114099.1	-224212.5	1	251574.7	-63.029	9.17164E-010	0.0825682	5
	52	73	6.317385	142046.9	-261398.4	1	297500.3	-61.47983	-6.354146E-012	0.0825864	5
	53	75	5.008013	175873	-301001.1	1	348615.8	-59.70253	1.030651E-010	0.0825682	5
	54	78	3.945707	216390.4	-344944.2	1	407199.3	-57.89912	3.928315E-010	0.0825726	5
	55	81	3.158693	259844.6	-388369.7	1	467279.6	-56.2149	-1.093413E-010	0.0825628	5
	56	84	2.504006	309679.3	-436901.7	1	535522.6	-54.6707	4.970298E-010	0.0825657	5
	57	87	1.998082	362215.3	-487156.9	1	607060	-53.36812	1.841028E-010	0.0826007	5
	58	90	1.584686	418372.2	-543724.1	1	686054.8	-52.42327	1.825228E-010	0.0825316	5
	59	94	1.266892	477446	-608955.6	1	773809.8	-51.9021	2.286754E-010	0.0825917	5
	60	98	0.999041	544523.2	-688026.9	1	877431.8	-51.64095	-1.139451E-010	0.0825273	5
