EXPLAIN
TAG	EISPOT
TITLE	LABEL	Potentiostatic EIS	Test &Identifier
DATE	LABEL	1/28/2020	Date
TIME	LABEL	11:40:36	Time
NOTES	NOTES	6	&Notes...
	
	
	
	
	
	
PSTAT	PSTAT	REF600-11020	Potentiostat
VDC	POTEN	0.00000E+000	T	DC &Voltage (V)
FREQINIT	QUANT	1.00000E+006	Initial Fre&q. (Hz)
FREQFINAL	QUANT	1.00000E+000	Final Fre&q. (Hz)
PTSPERDEC	QUANT	1.00000E+001	Points/&decade
VAC	QUANT	2.50000E+001	AC &Voltage (mV rms)
AREA	QUANT	1.60000E-004	&Area (cm^2)
CONDIT	TWOPARAM	F	5.00000E+000	0.00000E+000	Conditionin&g	Time(s)	E(V)
DELAY	TWOPARAM	F	5.00000E+000	0.00000E+000	Init. De&lay	Time(s)	Stab.(mV/s)
SPEED	SELECTOR	0	&Optimize for:
ZGUESS	QUANT	1.00000E+003	E&stimated Z (ohms)
OCVCURVE	TABLE	39
	Pt	T	Vf	Vm	Ach	Over
	#	s	V vs. Ref.	V	V	bits
	0	0.258333	7.13665E-002	7.13665E-002	5.59804E-004	...........
	1	0.516667	7.13664E-002	7.13610E-002	5.62738E-004	...........
	2	0.775	7.13699E-002	7.15768E-002	5.68204E-004	...........
	3	1.03333	7.13877E-002	7.14502E-002	5.68438E-004	...........
	4	1.29167	7.14211E-002	7.14431E-002	5.62871E-004	...........
	5	1.55	7.14496E-002	7.13603E-002	5.64004E-004	...........
	6	1.80833	7.14474E-002	7.11081E-002	5.68871E-004	...........
	7	2.06667	7.14050E-002	7.13731E-002	5.64871E-004	...........
	8	2.325	7.13442E-002	7.13235E-002	5.66204E-004	...........
	9	2.58333	7.13021E-002	7.12219E-002	5.64671E-004	...........
	10	2.84167	7.12873E-002	7.12828E-002	5.63871E-004	...........
	11	3.1	7.12823E-002	7.13176E-002	5.62838E-004	...........
	12	3.35833	7.12780E-002	7.11716E-002	5.68438E-004	...........
	13	3.61667	7.12702E-002	7.11816E-002	5.64271E-004	...........
	14	3.875	7.12515E-002	7.12113E-002	5.63904E-004	...........
	15	4.13333	7.12264E-002	7.11975E-002	5.71504E-004	...........
	16	4.39167	7.12061E-002	7.11193E-002	5.66338E-004	...........
	17	4.65	7.11899E-002	7.11038E-002	5.70271E-004	...........
	18	4.90833	7.11703E-002	7.11659E-002	5.64271E-004	...........
	19	5.16667	7.11499E-002	7.11001E-002	5.63738E-004	...........
	20	5.425	7.11371E-002	7.11907E-002	5.58738E-004	...........
	21	5.68333	7.11395E-002	7.13784E-002	5.64171E-004	...........
	22	5.94167	7.11675E-002	7.13272E-002	5.66438E-004	...........
	23	6.2	7.12194E-002	7.12592E-002	5.65504E-004	...........
	24	6.45833	7.12673E-002	7.11834E-002	5.69271E-004	...........
	25	6.71667	7.12796E-002	7.10861E-002	5.72071E-004	...........
	26	6.975	7.12495E-002	7.10944E-002	5.60838E-004	...........
	27	7.23333	7.11942E-002	7.10450E-002	5.56804E-004	...........
	28	7.49167	7.11360E-002	7.09656E-002	5.61771E-004	...........
	29	7.75	7.10844E-002	7.09792E-002	5.58504E-004	...........
	30	8.00833	7.10396E-002	7.09612E-002	5.56738E-004	...........
	31	8.26667	7.10035E-002	7.09281E-002	5.61604E-004	...........
	32	8.525	7.09736E-002	7.07655E-002	5.62471E-004	...........
	33	8.78333	7.09380E-002	7.08000E-002	5.54571E-004	...........
	34	9.04167	7.08931E-002	7.09174E-002	5.53838E-004	...........
	35	9.3	7.08576E-002	7.08846E-002	5.51505E-004	...........
	36	9.5583	7.08485E-002	7.08424E-002	5.58971E-004	...........
	37	9.8167	7.08559E-002	7.08174E-002	5.54571E-004	...........
	38	10.075	7.08584E-002	7.08183E-002	5.60638E-004	...........
EOC	QUANT	0.0708584	Open Circuit (V)
PSTATMODEL	IQUANT	4	Pstat Model
PSTATSECTION	LABEL	REF600-11020	Pstat Section
PSTATSERIALNO	LABEL	11020	Pstat Serial Number
CTRLMODE	IQUANT	1	Control Mode
IESTAB	IQUANT	0	I/E Stability
CASPEED	IQUANT	1	Control Amp Speed
CONVENTION	IQUANT	1	Current Convention
ICHRANGE	IQUANT	2	Ich Range
ICHRANGEMODE	TOGGLE	F	Ich Auto Range
ICHOFFSETENABLE	TOGGLE	T	Ich Offset Enable
ICHOFFSET	QUANT	0	Ich Offset (V)
ICHFILTER	IQUANT	3	Ich Filter
VCHRANGE	IQUANT	2	Vch Range
VCHRANGEMODE	TOGGLE	F	Vch Auto Range
VCHOFFSETENABLE	TOGGLE	T	Vch Offset Enable
VCHOFFSET	QUANT	0	Vch Offset (V)
VCHFILTER	IQUANT	3	Vch Filter
ACHRANGE	IQUANT	2	Ach Range
ACHOFFSETENABLE	TOGGLE	F	Ach Offset Enable
ACHOFFSET	QUANT	0	Ach Offset (V)
ACHFILTER	IQUANT	3	Ach Filter
IERANGELOWERLIMIT	IQUANT	1	I/E Range Lower Limit
IERANGEMODE	TOGGLE	F	I/E AutoRange
IERANGE	IQUANT	8	I/E Range
POSFEEDENABLE	TOGGLE	F	Positive Feedback IR Comp
POSFEEDRESISTANCE	QUANT	0	Positive Feedback Resistance (ohm)
ACHSELECT	IQUANT	0	Ach Select
CABLEID	IQUANT	14	Cable ID
DCCALDATE	LABEL	1/27/2020	DC Calibration Date
ACCALDATE	LABEL	1/27/2020	AC Calibration Date
THERMOSELECT	IQUANT	1	Thermo Select
FRAMEWORKVERSION	QUANT	6.33	Framework Version
INSTRUMENTVERSION	LABEL	3.50	Instrument Version
ZCURVE	TABLE
	Pt	Time	Freq	Zreal	Zimag	Zsig	Zmod	Zphz	Idc	Vdc	IERange
	#	s	Hz	ohm	ohm	V	ohm	°	A	V	#
	0	1	1000078	2397.182	-2128.485	1	3205.766	-41.60223	8.44026E-007	0.0723732	8
	1	2	794390.6	2809.605	-2178.637	1	3555.325	-37.79088	-1.01139E-006	0.0728096	8
	2	2	630984.4	3242.62	-2165.395	1	3899.169	-33.73467	-3.351204E-006	0.0732808	8
	3	2	501234.4	3653.989	-2101.856	1	4215.38	-29.90847	2.32869E-006	0.0721088	8
	4	3	398109.4	4055.14	-1950.801	1	4499.976	-25.69075	5.832979E-008	0.0725725	8
	5	3	316265.6	4359.125	-1781.815	1	4709.229	-22.23255	9.302838E-007	0.0721321	8
	6	3	251203.1	4627.33	-1622.686	1	4903.6	-19.32446	-1.090454E-006	0.0727448	8
	7	3	199546.9	4872.041	-1456.865	1	5085.198	-16.64802	6.142293E-007	0.072277	8
	8	4	158578.1	5021.417	-1269.748	1	5179.468	-14.19071	1.814323E-006	0.0718655	8
	9	4	125953.1	5189.405	-1046.777	1	5293.928	-11.40435	1.244158E-006	0.0695139	7
	10	4	100078.1	5301.789	-937.4875	1	5384.036	-10.02766	-4.182526E-008	0.0723709	7
	11	5	79453.13	5386.893	-842.7941	1	5452.423	-8.891997	-6.615768E-009	0.0723657	7
	12	5	63140.62	5459.417	-770.4843	1	5513.519	-8.033067	1.242927E-007	0.072142	7
	13	5	50203.12	5523.608	-719.2845	1	5570.244	-7.41931	1.247459E-007	0.0721371	7
	14	6	39890.62	5580.308	-689.1367	1	5622.699	-7.040062	1.246693E-007	0.072139	7
	15	6	31640.63	5636.157	-676.6512	1	5676.63	-6.845904	-4.210761E-009	0.072354	7
	16	6	25171.88	5691.95	-681.8257	1	5732.642	-6.830783	-5.21454E-008	0.072419	7
	17	7	20015.62	5746.726	-705.5756	1	5789.878	-6.999671	-5.169691E-008	0.072422	7
	18	7	15890.62	5806.636	-745.4312	1	5854.288	-7.315376	3.501961E-008	0.072284	7
	19	7	12609.37	5871.656	-807.1385	1	5926.872	-7.827025	-9.292673E-009	0.0724379	7
	20	8	10078.13	5928.695	-884.6166	1	5994.328	-8.486456	-5.867556E-008	0.072399	7
	21	8	8015.625	6004.727	-991.97	1	6086.111	-9.380435	-6.159223E-009	0.0723604	7
	22	8	6328.125	6084.771	-1119.183	1	6186.842	-10.42203	-3.607914E-009	0.0722573	7
	23	9	5015.625	6168.967	-1281.056	1	6300.576	-11.73139	-4.517094E-008	0.0723532	7
	24	9	3984.375	6259.669	-1481.861	1	6432.68	-13.31853	4.481274E-008	0.0721729	7
	25	9	3170.956	6351.499	-1724.837	1	6581.535	-15.19305	7.500154E-008	0.0721806	7
	26	10	2527.573	6455.971	-2025.175	1	6766.158	-17.41613	1.339927E-007	0.0721193	7
	27	10	1976.103	6580.692	-2429.756	1	7014.928	-20.26541	8.378353E-008	0.0721384	7
	28	10	1577.524	6710.859	-2893.456	1	7308.058	-23.32379	-4.445629E-008	0.0723453	7
	29	10	1265.625	6862.847	-3442.548	1	7677.877	-26.6393	-5.898565E-009	0.0723451	7
	30	11	998.264	7060.431	-4164.171	1	8196.951	-30.53168	2.582093E-008	0.0722072	7
	31	11	796.875	7276.656	-5012.247	1	8835.855	-34.55953	-1.282559E-008	0.0724326	7
	32	11	627.7902	7561.206	-6101.439	1	9715.93	-38.90145	-1.720062E-009	0.0722405	6
	33	12	505.5147	7869.174	-7305.954	1	10737.82	-42.87446	7.236638E-009	0.0721264	6
	34	12	397.9953	8289.691	-8929.523	1	12184.23	-47.12802	7.797117E-010	0.0723183	6
	35	12	315.5048	8787.735	-10851.99	1	13963.88	-51.0001	8.987043E-010	0.0723168	6
	36	13	252.4038	9372.019	-13093.07	1	16101.65	-54.40491	1.581492E-009	0.072314	6
	37	13	198.6229	10143.75	-16020.19	1	18961.6	-57.6586	8.681203E-010	0.0723164	6
	38	13	158.3615	11055.03	-19394.34	1	22323.85	-60.3163	9.730714E-010	0.0723127	6
	39	14	125.558	12203.56	-23610.23	1	26577.62	-62.66665	9.793961E-010	0.0723124	6
	40	14	100.4464	13646.52	-28495.23	1	31594.39	-64.40998	2.033295E-010	0.0723094	6
	41	14	79.00281	15601.2	-34982.77	1	38303.93	-65.96465	1.165256E-010	0.0723075	6
	42	15	63.3446	17453.8	-41779.59	1	45278.79	-67.32683	1.113269E-009	0.0723081	6
	43	15	49.86702	20872.91	-50993.44	1	55100	-67.73947	1.083184E-009	0.0722991	6
	44	15	39.72458	25052.72	-61859.13	1	66739.73	-67.95223	1.121468E-009	0.072304	6
	45	16	31.6723	30383.4	-74244.63	1	80221.04	-67.74397	1.027057E-009	0.072303	6
	46	16	24.93351	37237.05	-89354.37	1	96802.9	-67.37682	8.818234E-010	0.0723008	6
	47	16	19.86229	45496.32	-106126.2	1	115467.3	-66.79518	1.206656E-009	0.0723069	5
	48	17	15.83615	56061.66	-125148.5	1	137131.6	-65.86948	-3.095313E-010	0.0722924	5
	49	17	12.40079	70140.04	-149464.5	1	165103.8	-64.86049	2.833286E-011	0.0722955	5
	50	17	9.93114	85334.55	-175213.5	1	194889.1	-64.03244	-1.672989E-010	0.0722991	5
	51	18	7.944915	103672.9	-203409.9	1	228306	-62.99319	5.485576E-010	0.0722941	5
	52	19	6.317385	126903.5	-235838.9	1	267814.3	-61.71557	3.611825E-010	0.0722878	5
	53	19	5.008013	154928.3	-272867.8	1	313782.8	-60.41306	4.879226E-011	0.0722897	5
	54	20	3.945707	188295.2	-314753.5	1	366776.3	-59.11084	2.450952E-010	0.0723007	5
	55	22	3.158693	224402.2	-358556.5	1	422988.3	-57.95965	-3.370253E-011	0.0722987	5
	56	23	2.504006	266088.3	-408205.4	1	487272.7	-56.90172	2.213561E-011	0.0722877	5
	57	25	1.998082	311588.3	-462232.5	1	557446.1	-56.01632	2.516275E-010	0.0723375	5
	58	26	1.584686	360395.3	-524815.3	1	636644.3	-55.52227	1.640175E-010	0.0723098	5
	59	28	1.266892	414065.2	-593456.2	1	723629.9	-55.09582	7.900133E-011	0.072271	5
	60	31	0.999041	476542.8	-680457.9	1	830732.3	-54.99542	6.150743E-011	0.0722431	5
