EXPLAIN
TAG	EISPOT
TITLE	LABEL	Potentiostatic EIS	Test &Identifier
DATE	LABEL	1/21/2020	Date
TIME	LABEL	16:43:39	Time
NOTES	NOTES	6	&Notes...
	
	
	
	
	
	
PSTAT	PSTAT	REF600-11020	Potentiostat
VDC	POTEN	0.00000E+000	T	DC &Voltage (V)
FREQINIT	QUANT	1.00000E+006	Initial Fre&q. (Hz)
FREQFINAL	QUANT	1.00000E+000	Final Fre&q. (Hz)
PTSPERDEC	QUANT	1.00000E+001	Points/&decade
VAC	QUANT	2.50000E+001	AC &Voltage (mV rms)
AREA	QUANT	1.00000E-001	&Area (cm^2)
CONDIT	TWOPARAM	F	5.00000E+000	0.00000E+000	Conditionin&g	Time(s)	E(V)
DELAY	TWOPARAM	F	5.00000E+000	0.00000E+000	Init. De&lay	Time(s)	Stab.(mV/s)
SPEED	SELECTOR	0	&Optimize for:
ZGUESS	QUANT	5.00000E+002	E&stimated Z (ohms)
OCVCURVE	TABLE	39
	Pt	T	Vf	Vm	Ach	Over
	#	s	V vs. Ref.	V	V	bits
	0	0.258333	-1.95930E-002	-1.95930E-002	6.51346E-004	...........
	1	0.516667	-1.95939E-002	-1.96410E-002	6.56913E-004	...........
	2	0.775	-1.95990E-002	-1.96570E-002	6.54980E-004	...........
	3	1.03333	-1.96099E-002	-1.95895E-002	6.57446E-004	...........
	4	1.29167	-1.96186E-002	-1.95136E-002	6.57279E-004	...........
	5	1.55	-1.96109E-002	-1.94890E-002	6.61846E-004	...........
	6	1.80833	-1.95827E-002	-1.95093E-002	6.51946E-004	...........
	7	2.06667	-1.95474E-002	-1.95204E-002	6.56213E-004	...........
	8	2.325	-1.95220E-002	-1.95224E-002	6.52580E-004	...........
	9	2.58333	-1.95125E-002	-1.95233E-002	6.53746E-004	...........
	10	2.84167	-1.95135E-002	-1.95180E-002	6.56513E-004	...........
	11	3.1	-1.95173E-002	-1.95202E-002	6.58179E-004	...........
	12	3.35833	-1.95197E-002	-1.95171E-002	6.61879E-004	...........
	13	3.61667	-1.95202E-002	-1.95223E-002	6.60313E-004	...........
	14	3.875	-1.95197E-002	-1.95137E-002	6.63679E-004	...........
	15	4.13333	-1.95189E-002	-1.95082E-002	6.63246E-004	...........
	16	4.39167	-1.95171E-002	-1.95029E-002	6.62446E-004	...........
	17	4.65	-1.95138E-002	-1.95049E-002	6.62579E-004	...........
	18	4.90833	-1.95101E-002	-1.95150E-002	6.61479E-004	...........
	19	5.16667	-1.95078E-002	-1.95057E-002	6.60546E-004	...........
	20	5.425	-1.95074E-002	-1.95023E-002	6.63213E-004	...........
	21	5.68333	-1.95076E-002	-1.95126E-002	6.62079E-004	...........
	22	5.94167	-1.95072E-002	-1.94981E-002	6.61113E-004	...........
	23	6.2	-1.95065E-002	-1.95030E-002	6.62046E-004	...........
	24	6.45833	-1.95053E-002	-1.95037E-002	6.56946E-004	...........
	25	6.71667	-1.95042E-002	-1.95174E-002	6.63046E-004	...........
	26	6.975	-1.95054E-002	-1.95443E-002	6.60446E-004	...........
	27	7.23333	-1.95105E-002	-1.95159E-002	6.58746E-004	...........
	28	7.49167	-1.95171E-002	-1.94882E-002	6.54813E-004	...........
	29	7.75	-1.95185E-002	-1.94706E-002	6.58813E-004	...........
	30	8.00833	-1.95105E-002	-1.94677E-002	6.57880E-004	...........
	31	8.26667	-1.94962E-002	-1.94719E-002	6.57246E-004	...........
	32	8.525	-1.94829E-002	-1.94802E-002	6.58579E-004	...........
	33	8.78333	-1.94755E-002	-1.94903E-002	6.64546E-004	...........
	34	9.04167	-1.94756E-002	-1.95155E-002	6.53980E-004	...........
	35	9.3	-1.94824E-002	-1.95226E-002	6.51980E-004	...........
	36	9.5583	-1.94926E-002	-1.94589E-002	6.58213E-004	...........
	37	9.8167	-1.94986E-002	-1.94601E-002	6.60446E-004	...........
	38	10.075	-1.94942E-002	-1.94650E-002	6.54079E-004	...........
EOC	QUANT	-0.0194942	Open Circuit (V)
PSTATMODEL	IQUANT	4	Pstat Model
PSTATSECTION	LABEL	REF600-11020	Pstat Section
PSTATSERIALNO	LABEL	11020	Pstat Serial Number
CTRLMODE	IQUANT	1	Control Mode
IESTAB	IQUANT	0	I/E Stability
CASPEED	IQUANT	1	Control Amp Speed
CONVENTION	IQUANT	1	Current Convention
ICHRANGE	IQUANT	2	Ich Range
ICHRANGEMODE	TOGGLE	F	Ich Auto Range
ICHOFFSETENABLE	TOGGLE	T	Ich Offset Enable
ICHOFFSET	QUANT	0	Ich Offset (V)
ICHFILTER	IQUANT	3	Ich Filter
VCHRANGE	IQUANT	2	Vch Range
VCHRANGEMODE	TOGGLE	F	Vch Auto Range
VCHOFFSETENABLE	TOGGLE	T	Vch Offset Enable
VCHOFFSET	QUANT	0	Vch Offset (V)
VCHFILTER	IQUANT	3	Vch Filter
ACHRANGE	IQUANT	2	Ach Range
ACHOFFSETENABLE	TOGGLE	F	Ach Offset Enable
ACHOFFSET	QUANT	0	Ach Offset (V)
ACHFILTER	IQUANT	3	Ach Filter
IERANGELOWERLIMIT	IQUANT	1	I/E Range Lower Limit
IERANGEMODE	TOGGLE	F	I/E AutoRange
IERANGE	IQUANT	7	I/E Range
POSFEEDENABLE	TOGGLE	F	Positive Feedback IR Comp
POSFEEDRESISTANCE	QUANT	0	Positive Feedback Resistance (ohm)
ACHSELECT	IQUANT	0	Ach Select
CABLEID	IQUANT	14	Cable ID
DCCALDATE	LABEL	12/22/2019	DC Calibration Date
ACCALDATE	LABEL	12/22/2019	AC Calibration Date
THERMOSELECT	IQUANT	1	Thermo Select
FRAMEWORKVERSION	QUANT	6.33	Framework Version
INSTRUMENTVERSION	LABEL	3.50	Instrument Version
ZCURVE	TABLE
	Pt	Time	Freq	Zreal	Zimag	Zsig	Zmod	Zphz	Idc	Vdc	IERange
	#	s	Hz	ohm	ohm	V	ohm	°	A	V	#
	0	1	1000078	2172.798	-1893.517	1	2882.093	-41.07101	9.188766E-007	-0.0168977	8
	1	1	794390.6	2550.031	-1907.727	1	3184.663	-36.80087	-2.019232E-006	-0.0172723	8
	2	2	630984.4	2939.149	-1864.865	1	3480.85	-32.39478	-4.618641E-007	-0.0175439	8
	3	2	501234.4	3313.761	-1775.368	1	3759.381	-28.18045	-6.208545E-007	-0.0175264	8
	4	2	398109.4	3601.758	-1633.744	1	3954.969	-24.39887	3.715487E-007	-0.0177259	8
	5	3	316265.6	3877.132	-1452.003	1	4140.104	-20.53115	2.781362E-007	-0.0177561	8
	6	3	251203.1	4101.255	-1281.674	1	4296.857	-17.35443	1.610651E-006	-0.0183367	8
	7	3	199546.9	4224.313	-1094.527	1	4363.807	-14.526	-7.950175E-007	-0.0177712	8
	8	4	158578.1	4360.895	-998.222	1	4473.684	-12.89306	-1.041551E-006	-0.0176455	8
	9	4	125953.1	4482.233	-813.2995	1	4555.422	-10.2844	6.268145E-007	-0.0192061	7
	10	4	100078.1	4550.873	-710.5044	1	4606.002	-8.87366	-3.219415E-008	-0.0179139	7
	11	5	79453.13	4611.1	-641.0527	1	4655.448	-7.914746	-3.387144E-009	-0.0179172	7
	12	5	63140.62	4662.144	-586.2452	1	4698.858	-7.167089	6.618642E-008	-0.01809	7
	13	5	50203.12	4707.225	-548.116	1	4739.029	-6.641693	6.697714E-008	-0.0180907	7
	14	6	39890.62	4749.695	-524.7655	1	4778.596	-6.304699	-3.95594E-009	-0.0179165	7
	15	6	31640.63	4790.214	-516.8771	1	4818.02	-6.158543	1.090548E-007	-0.0181093	7
	16	6	25171.88	4829.205	-522.9778	1	4857.44	-6.180748	-3.480547E-008	-0.0179269	7
	17	6	20015.62	4866.739	-544.3668	1	4897.089	-6.382264	1.079234E-007	-0.0181187	7
	18	7	15890.62	4908.915	-581.3203	1	4943.215	-6.753591	1.080577E-007	-0.0181162	7
	19	7	12609.37	4948.675	-634.3604	1	4989.168	-7.30479	3.110821E-008	-0.0179906	7
	20	7	10078.13	4994.743	-704.1852	1	5044.138	-8.02497	-5.354569E-009	-0.0179252	7
	21	8	8015.625	5040.073	-798.7686	1	5102.977	-9.005539	-2.167241E-008	-0.0179623	7
	22	8	6328.125	5091.713	-921.4548	1	5174.42	-10.25788	-2.173651E-008	-0.0179638	7
	23	8	5015.625	5147.656	-1074.388	1	5258.581	-11.78919	-3.453669E-008	-0.0179363	7
	24	9	3984.375	5210.311	-1265.596	1	5361.816	-13.65286	-4.294719E-008	-0.0178778	7
	25	9	3170.956	5277.592	-1498.967	1	5486.335	-15.85586	-2.983291E-008	-0.0179358	7
	26	9	2527.573	5354.951	-1788.382	1	5645.689	-18.46767	-3.128779E-008	-0.0178586	7
	27	10	1976.103	5454.891	-2175.91	1	5872.854	-21.74664	1.085688E-007	-0.0181259	7
	28	10	1577.524	5565.824	-2613.72	1	6148.978	-25.15483	3.203022E-008	-0.017999	7
	29	10	1265.625	5686.039	-3140.782	1	6495.81	-28.91483	-8.224155E-011	-0.0179441	7
	30	11	998.264	5854.143	-3832.933	1	6997.312	-33.21431	3.1618E-008	-0.0180059	7
	31	11	796.875	6044.292	-4638.073	1	7618.739	-37.50075	-5.139969E-008	-0.0178978	7
	32	11	627.7902	6301.337	-5674.087	1	8479.512	-42.00169	-3.396924E-008	-0.0179452	7
	33	12	505.5147	6584.916	-6819.399	1	9479.731	-46.00218	3.305524E-008	-0.0180041	7
	34	12	397.9953	6967.137	-8356.6	1	10879.97	-50.18106	4.35855E-010	-0.0179595	6
	35	12	315.5048	7429.737	-10172.85	1	12597.14	-53.8575	4.836689E-010	-0.0179566	6
	36	13	252.4038	7977.895	-12285.41	1	14648.48	-57.00112	6.952862E-010	-0.01796	6
	37	13	198.6229	8697.082	-15036.45	1	17370.49	-59.95491	8.73041E-010	-0.0179578	6
	38	13	158.3615	9532.22	-18191.92	1	20537.99	-62.34633	1.04916E-009	-0.0179586	6
	39	13	125.558	10569.92	-22103.06	1	24500.38	-64.44237	6.803381E-010	-0.0179562	6
	40	14	100.4464	11782.03	-26638.48	1	29127.73	-66.1405	2.151277E-010	-0.0179603	6
	41	14	79.00281	13417.76	-32567.46	1	35223.23	-67.60838	8.206401E-010	-0.0179643	6
	42	14	63.3446	15099	-39567.92	1	42350.91	-69.1133	6.335352E-010	-0.0179622	6
	43	15	49.86702	17542.88	-48277.51	1	51366.05	-70.03008	9.302972E-010	-0.0179661	6
	44	15	39.72458	20677.7	-58250.93	1	61812.12	-70.45635	6.445257E-010	-0.0179626	6
	45	16	31.6723	24492.53	-70456.36	1	74592.11	-70.83117	4.475807E-010	-0.0179661	6
	46	16	24.93351	29479.47	-86006.31	1	90918.23	-71.08037	4.940172E-010	-0.0179676	6
	47	16	19.86229	35744.68	-103821.8	1	109802.8	-71.002	-2.24047E-010	-0.0179647	5
	48	16	15.83615	45020.17	-124751.9	1	132626.8	-70.15662	1.799463E-009	-0.0179688	5
	49	17	12.40079	56163.05	-151904	1	161954	-69.70927	1.148369E-009	-0.0179715	5
	50	17	9.93114	68350.01	-180812.6	1	193300.1	-69.29262	-3.850536E-010	-0.0179701	5
	51	18	7.944915	85166.92	-214193	1	230503.9	-68.31635	-2.75083E-010	-0.0179753	5
	52	18	6.317385	106751.7	-254515.6	1	275996.6	-67.24532	-1.034636E-010	-0.0179692	5
	53	19	5.008013	134233.2	-301171.9	1	329731.8	-65.97733	-1.788509E-010	-0.0179757	5
	54	20	3.945707	169304.1	-354939.5	1	393250.5	-64.49912	1.83205E-010	-0.0179686	5
	55	21	3.158693	209295.9	-411425.5	1	461601.2	-63.03715	6.499214E-011	-0.0179587	5
	56	23	2.504006	259772.2	-477490.2	1	543579.3	-61.45219	-8.841691E-011	-0.0179751	5
	57	24	1.998082	316384	-546052.4	1	631087.9	-59.9119	7.02922E-011	-0.0179575	5
	58	26	1.584686	385687.1	-625335.3	1	734710	-58.33502	1.409277E-010	-0.0179322	5
	59	28	1.266892	459950.5	-708793.1	1	844951	-57.01963	1.216216E-010	-0.0179609	5
	60	30	0.999041	550270.9	-804289.8	1	974515	-55.62124	1.092657E-010	-0.0179903	5
