EXPLAIN
TAG	EISPOT
TITLE	LABEL	Potentiostatic EIS	Test &Identifier
DATE	LABEL	3/20/2020	Date
TIME	LABEL	14:45:55	Time
NOTES	NOTES	1	&Notes...
	
PSTAT	PSTAT	REF600-11020	Potentiostat
VDC	POTEN	0.00000E+000	T	DC &Voltage (V)
FREQINIT	QUANT	1.00000E+006	Initial Fre&q. (Hz)
FREQFINAL	QUANT	1.00000E+000	Final Fre&q. (Hz)
PTSPERDEC	QUANT	1.00000E+001	Points/&decade
VAC	QUANT	2.50000E+001	AC &Voltage (mV rms)
AREA	QUANT	4.00000E-004	&Area (cm^2)
CONDIT	TWOPARAM	F	5.00000E+000	0.00000E+000	Conditionin&g	Time(s)	E(V)
DELAY	TWOPARAM	T	3.00000E+000	0.00000E+000	Init. De&lay	Time(s)	Stab.(mV/s)
SPEED	SELECTOR	0	&Optimize for:
ZGUESS	QUANT	1.00000E+003	E&stimated Z (ohms)
OCVCURVE	TABLE	12
	Pt	T	Vf	Vm	Ach	Over
	#	s	V vs. Ref.	V	V	bits
	0	0.258333	4.52670E-002	4.52670E-002	5.88863E-004	...........
	1	0.516667	4.52674E-002	4.52877E-002	5.86963E-004	...........
	2	0.775	4.52696E-002	4.52928E-002	5.89196E-004	...........
	3	1.03333	4.52745E-002	4.52886E-002	5.92363E-004	...........
	4	1.29167	4.52807E-002	4.52733E-002	5.92996E-004	...........
	5	1.55	4.52842E-002	4.52658E-002	5.91796E-004	...........
	6	1.80833	4.52823E-002	4.52529E-002	5.91330E-004	...........
	7	2.06667	4.52754E-002	4.52383E-002	5.96296E-004	...........
	8	2.325	4.52648E-002	4.52038E-002	5.95330E-004	...........
	9	2.58333	4.52507E-002	4.51988E-002	5.95596E-004	...........
	10	2.84167	4.52338E-002	4.51921E-002	5.91963E-004	...........
	11	3.1	4.52169E-002	4.51796E-002	5.96030E-004	...........
EOC	QUANT	0.0452169	Open Circuit (V)
PSTATMODEL	IQUANT	4	Pstat Model
PSTATSECTION	LABEL	REF600-11020	Pstat Section
PSTATSERIALNO	LABEL	11020	Pstat Serial Number
CTRLMODE	IQUANT	1	Control Mode
IESTAB	IQUANT	0	I/E Stability
CASPEED	IQUANT	1	Control Amp Speed
CONVENTION	IQUANT	1	Current Convention
ICHRANGE	IQUANT	2	Ich Range
ICHRANGEMODE	TOGGLE	F	Ich Auto Range
ICHOFFSETENABLE	TOGGLE	T	Ich Offset Enable
ICHOFFSET	QUANT	0	Ich Offset (V)
ICHFILTER	IQUANT	3	Ich Filter
VCHRANGE	IQUANT	2	Vch Range
VCHRANGEMODE	TOGGLE	F	Vch Auto Range
VCHOFFSETENABLE	TOGGLE	T	Vch Offset Enable
VCHOFFSET	QUANT	0	Vch Offset (V)
VCHFILTER	IQUANT	3	Vch Filter
ACHRANGE	IQUANT	2	Ach Range
ACHOFFSETENABLE	TOGGLE	F	Ach Offset Enable
ACHOFFSET	QUANT	0	Ach Offset (V)
ACHFILTER	IQUANT	3	Ach Filter
IERANGELOWERLIMIT	IQUANT	1	I/E Range Lower Limit
IERANGEMODE	TOGGLE	F	I/E AutoRange
IERANGE	IQUANT	7	I/E Range
POSFEEDENABLE	TOGGLE	F	Positive Feedback IR Comp
POSFEEDRESISTANCE	QUANT	0	Positive Feedback Resistance (ohm)
ACHSELECT	IQUANT	0	Ach Select
CABLEID	IQUANT	14	Cable ID
DCCALDATE	LABEL	2/27/2020	DC Calibration Date
ACCALDATE	LABEL	2/27/2020	AC Calibration Date
THERMOSELECT	IQUANT	1	Thermo Select
FRAMEWORKVERSION	QUANT	6.33	Framework Version
INSTRUMENTVERSION	LABEL	3.50	Instrument Version
ZCURVE	TABLE
	Pt	Time	Freq	Zreal	Zimag	Zsig	Zmod	Zphz	Idc	Vdc	IERange
	#	s	Hz	ohm	ohm	V	ohm	°	A	V	#
	0	1	1000078	1830.682	-5774.794	1	6058.023	-72.41073	-1.186538E-008	0.0476314	8
	1	2	794390.6	2419.674	-6987.066	1	7394.181	-70.89864	-1.183525E-007	0.0473097	8
	2	2	630984.4	3233.44	-8350.273	1	8954.451	-68.83232	1.732949E-007	0.0470913	8
	3	2	501234.4	4265.717	-9927.93	1	10805.56	-66.74834	-1.033624E-007	0.0470282	8
	4	3	398109.4	5656.237	-11633.99	1	12936.1	-64.07181	-3.650775E-007	0.0470537	8
	5	3	316265.6	7414.48	-13404.06	1	15318.07	-61.05074	-4.24294E-007	0.0469917	8
	6	3	251203.1	9621.33	-15241.49	1	18024.23	-57.73746	-2.88944E-007	0.0469482	8
	7	4	199546.9	12134.81	-16955.98	1	20850.87	-54.41001	-5.321078E-007	0.0469986	8
	8	4	158578.1	15133.79	-18505.87	1	23906.04	-50.72428	6.435148E-008	0.0468915	8
	9	4	125953.1	18686.21	-19738.06	1	27180.24	-46.56806	1.227461E-007	0.0466033	7
	10	5	100078.1	22105.32	-20771.38	1	30333.08	-43.21804	1.749906E-008	0.0468197	7
	11	5	79453.13	25682.44	-21531.32	1	33513.96	-39.97537	5.565247E-009	0.0468157	7
	12	5	63140.62	29326.29	-22156.11	1	36754.93	-37.07116	2.902696E-009	0.0468156	7
	13	5	50203.12	32918.16	-22506	1	39876.38	-34.36024	-1.86608E-009	0.046819	7
	14	6	39890.62	36511.56	-22754.76	1	43021.77	-31.93202	1.370323E-008	0.046783	7
	15	6	31640.63	40109.1	-22903.33	1	46187.69	-29.72748	1.879158E-008	0.0467782	7
	16	6	25171.88	43562.5	-22965.88	1	49245.54	-27.79791	5.900916E-009	0.0468085	7
	17	7	20015.62	46987.13	-22954.48	1	52294.35	-26.03676	1.138463E-008	0.0467897	7
	18	7	15890.62	50364.94	-23010.01	1	55372.26	-24.55403	6.117194E-009	0.0468207	7
	19	7	12609.37	53960.15	-22536.6	1	58477.31	-22.66798	2.799817E-009	0.0468281	6
	20	8	10078.13	57052.71	-22626.46	1	61375.63	-21.63272	-9.94103E-010	0.0468757	6
	21	8	8015.625	60136.75	-22779.76	1	64306.65	-20.74665	1.694634E-009	0.0468613	6
	22	8	6328.125	63294.7	-23064.53	1	67366.1	-20.02169	9.614821E-011	0.0468528	6
	23	9	5015.625	66335.31	-23516.66	1	70380.45	-19.52003	4.862609E-010	0.0468657	6
	24	9	3984.375	69426.97	-24080.47	1	73484.51	-19.1289	-6.724947E-010	0.0468722	6
	25	9	3170.956	72484.99	-24896.71	1	76641.51	-18.95627	8.386679E-011	0.0468728	6
	26	10	2527.573	75600.38	-25907.36	1	79916.26	-18.91599	1.916711E-009	0.0468205	6
	27	10	1976.103	79117.25	-27309.39	1	83697.92	-19.04346	1.327276E-009	0.0468611	6
	28	10	1577.524	82504.85	-28852.83	1	87404.44	-19.27528	4.070654E-010	0.0468473	6
	29	11	1265.625	86502.69	-29427.96	1	91371.33	-18.78815	-4.369583E-011	0.0468741	5
	30	11	998.264	90410.37	-31845.36	1	95854.9	-19.40386	1.617885E-010	0.0468478	5
	31	11	796.875	94445.38	-34398.74	1	100514.7	-20.01255	1.229036E-010	0.0468266	5
	32	12	627.7902	99012.7	-37440.62	1	105855.2	-20.71359	-7.784903E-012	0.0468556	5
	33	12	505.5147	103439.5	-40497.46	1	111084.5	-21.38078	-7.747958E-011	0.0468503	5
	34	12	397.9953	108590.6	-44277.83	1	117270.9	-22.18318	1.412378E-010	0.046869	5
	35	12	315.5048	113866.1	-48441.46	1	123741.9	-23.0461	1.469479E-010	0.0468718	5
	36	13	252.4038	119180.6	-53060.97	1	130458.7	-23.99934	1.421054E-010	0.0468684	5
	37	13	198.6229	125129.5	-58884.55	1	138292.4	-25.20115	9.917077E-011	0.0468711	5
	38	13	158.3615	131025	-65466.61	1	146469.9	-26.54899	1.334221E-010	0.0468638	5
	39	14	125.558	137437.6	-73595	1	155901.7	-28.16813	1.634906E-010	0.04687	5
	40	14	100.4464	144052.2	-83081.01	1	166293.4	-29.97387	8.152277E-011	0.0468687	5
	41	14	79.00281	151764.3	-95392.1	1	179254.2	-32.1516	7.054451E-011	0.0468646	5
	42	15	63.3446	160347.4	-109264.2	1	194036	-34.27138	1.419897E-010	0.0468638	5
	43	15	49.86702	170033.5	-127296.8	1	212404.9	-36.82062	-2.414319E-012	0.0468631	5
	44	16	39.72458	180789	-147723.8	1	233467.3	-39.25246	6.891655E-011	0.0468672	5
	45	16	31.6723	193496.7	-172055.7	1	258928.8	-41.64325	6.636684E-011	0.0468657	5
	46	16	24.93351	209294	-202894.4	1	291496.3	-44.11051	1.972731E-010	0.0468677	5
	47	16	19.86229	227664	-237734.3	1	329163.3	-46.23958	3.511536E-010	0.0468663	5
	48	17	15.83615	248497.6	-278359.2	1	373141.9	-48.24398	1.916167E-010	0.0468651	5
	49	17	12.40079	277423.9	-330281.6	1	431335.1	-49.97102	-1.799077E-010	0.0468687	5
	50	17	9.93114	308186.8	-385546.9	1	493584.3	-51.36293	-1.861711E-010	0.0468591	5
	51	18	7.944915	347460.3	-449167.6	1	567873.4	-52.27572	2.1968E-010	0.0468604	5
	52	18	6.317385	393319.3	-525647.1	1	656509.7	-53.19406	-2.665039E-011	0.0468798	5
	53	19	5.008013	451306.5	-614537	1	762452.1	-53.70701	-8.780576E-011	0.0468607	5
	54	20	3.945707	522922.3	-717333.5	1	887702.2	-53.90867	9.475722E-011	0.0468622	5
	55	21	3.158693	605466.8	-827702.6	1	1025515	-53.81442	-8.15896E-011	0.0468481	4
	56	22	2.504006	705027.7	-953485	1	1185832	-53.51997	-9.097957E-012	0.04685	4
	57	23	1.998082	820298.2	-1091459	1	1365347	-53.0729	4.559812E-011	0.0468833	4
	58	25	1.584686	957279	-1244280	1	1569910	-52.42733	-7.656419E-012	0.0468399	4
	59	27	1.266892	1117051	-1406879	1	1796416	-51.5507	-3.398752E-011	0.0468129	4
	60	29	0.999041	1312010	-1603909	1	2072171	-50.71656	-7.872271E-011	0.0468089	4
