EXPLAIN
TAG	EISPOT
TITLE	LABEL	Potentiostatic EIS	Test &Identifier
DATE	LABEL	7/30/2020	Date
TIME	LABEL	22:49:00	Time
NOTES	NOTES	1	&Notes...
	
PSTAT	PSTAT	REF600-11020	Potentiostat
VDC	POTEN	0.00000E+000	T	DC &Voltage (V)
FREQINIT	QUANT	1.00000E+006	Initial Fre&q. (Hz)
FREQFINAL	QUANT	1.00000E+000	Final Fre&q. (Hz)
PTSPERDEC	QUANT	1.00000E+001	Points/&decade
VAC	QUANT	2.50000E+001	AC &Voltage (mV rms)
AREA	QUANT	4.00000E-005	&Area (cm^2)
CONDIT	TWOPARAM	F	5.00000E+000	0.00000E+000	Conditionin&g	Time(s)	E(V)
DELAY	TWOPARAM	F	3.00000E+000	0.00000E+000	Init. De&lay	Time(s)	Stab.(mV/s)
SPEED	SELECTOR	0	&Optimize for:
ZGUESS	QUANT	1.00000E+003	E&stimated Z (ohms)
OCVCURVE	TABLE	39
	Pt	T	Vf	Vm	Ach	Over
	#	s	V vs. Ref.	V	V	bits
	0	0.258333	-8.41943E-002	-8.41943E-002	5.31117E-004	...........
	1	0.516667	-8.41930E-002	-8.41253E-002	5.26250E-004	...........
	2	0.775	-8.41849E-002	-8.40610E-002	5.27617E-004	...........
	3	1.03333	-8.41621E-002	-8.39995E-002	5.28217E-004	...........
	4	1.29167	-8.41216E-002	-8.39402E-002	5.23550E-004	...........
	5	1.55	-8.40678E-002	-8.38848E-002	5.31016E-004	...........
	6	1.80833	-8.40083E-002	-8.38307E-002	5.26017E-004	...........
	7	2.06667	-8.39486E-002	-8.37764E-002	5.28417E-004	...........
	8	2.325	-8.38909E-002	-8.37242E-002	5.26250E-004	...........
	9	2.58333	-8.38354E-002	-8.36758E-002	5.26617E-004	...........
	10	2.84167	-8.37820E-002	-8.36305E-002	5.27083E-004	...........
	11	3.1	-8.37307E-002	-8.35854E-002	5.32617E-004	...........
	12	3.35833	-8.36817E-002	-8.35420E-002	5.33117E-004	...........
	13	3.61667	-8.36348E-002	-8.34985E-002	5.29150E-004	...........
	14	3.875	-8.35897E-002	-8.34585E-002	5.30050E-004	...........
	15	4.13333	-8.35459E-002	-8.34170E-002	5.29517E-004	...........
	16	4.39167	-8.35033E-002	-8.33812E-002	5.26450E-004	...........
	17	4.65	-8.34621E-002	-8.33443E-002	5.30250E-004	...........
	18	4.90833	-8.34225E-002	-8.33084E-002	5.29416E-004	...........
	19	5.16667	-8.33845E-002	-8.32734E-002	5.24050E-004	...........
	20	5.425	-8.33476E-002	-8.32381E-002	5.25750E-004	...........
	21	5.68333	-8.33117E-002	-8.32065E-002	5.24650E-004	...........
	22	5.94167	-8.32765E-002	-8.31722E-002	5.24850E-004	...........
	23	6.2	-8.32422E-002	-8.31427E-002	5.24650E-004	...........
	24	6.45833	-8.32089E-002	-8.31154E-002	5.20150E-004	...........
	25	6.71667	-8.31770E-002	-8.30852E-002	5.26283E-004	...........
	26	6.975	-8.31463E-002	-8.30536E-002	5.32883E-004	...........
	27	7.23333	-8.31165E-002	-8.30280E-002	5.29550E-004	...........
	28	7.49167	-8.30870E-002	-8.29972E-002	5.30716E-004	...........
	29	7.75	-8.30577E-002	-8.29651E-002	5.24217E-004	...........
	30	8.00833	-8.30285E-002	-8.29414E-002	5.25417E-004	...........
	31	8.26667	-8.29992E-002	-8.29101E-002	5.26550E-004	...........
	32	8.525	-8.29702E-002	-8.28812E-002	5.22550E-004	...........
	33	8.78333	-8.29415E-002	-8.28562E-002	5.26450E-004	...........
	34	9.04167	-8.29130E-002	-8.28285E-002	5.22550E-004	...........
	35	9.3	-8.28851E-002	-8.27995E-002	5.23583E-004	...........
	36	9.5583	-8.28575E-002	-8.27739E-002	5.23383E-004	...........
	37	9.8167	-8.28300E-002	-8.27445E-002	5.24250E-004	...........
	38	10.075	-8.28025E-002	-8.27187E-002	5.22983E-004	...........
EOC	QUANT	-0.0828025	Open Circuit (V)
PSTATMODEL	IQUANT	4	Pstat Model
PSTATSECTION	LABEL	REF600-11020	Pstat Section
PSTATSERIALNO	LABEL	11020	Pstat Serial Number
CTRLMODE	IQUANT	1	Control Mode
IESTAB	IQUANT	0	I/E Stability
CASPEED	IQUANT	1	Control Amp Speed
CONVENTION	IQUANT	1	Current Convention
ICHRANGE	IQUANT	2	Ich Range
ICHRANGEMODE	TOGGLE	F	Ich Auto Range
ICHOFFSETENABLE	TOGGLE	T	Ich Offset Enable
ICHOFFSET	QUANT	0	Ich Offset (V)
ICHFILTER	IQUANT	3	Ich Filter
VCHRANGE	IQUANT	2	Vch Range
VCHRANGEMODE	TOGGLE	F	Vch Auto Range
VCHOFFSETENABLE	TOGGLE	T	Vch Offset Enable
VCHOFFSET	QUANT	0	Vch Offset (V)
VCHFILTER	IQUANT	3	Vch Filter
ACHRANGE	IQUANT	2	Ach Range
ACHOFFSETENABLE	TOGGLE	F	Ach Offset Enable
ACHOFFSET	QUANT	0	Ach Offset (V)
ACHFILTER	IQUANT	3	Ach Filter
IERANGELOWERLIMIT	IQUANT	1	I/E Range Lower Limit
IERANGEMODE	TOGGLE	F	I/E AutoRange
IERANGE	IQUANT	8	I/E Range
POSFEEDENABLE	TOGGLE	F	Positive Feedback IR Comp
POSFEEDRESISTANCE	QUANT	0	Positive Feedback Resistance (ohm)
ACHSELECT	IQUANT	0	Ach Select
CABLEID	IQUANT	14	Cable ID
DCCALDATE	LABEL	6/26/2020	DC Calibration Date
ACCALDATE	LABEL	6/26/2020	AC Calibration Date
THERMOSELECT	IQUANT	1	Thermo Select
FRAMEWORKVERSION	QUANT	6.33	Framework Version
INSTRUMENTVERSION	LABEL	3.50	Instrument Version
ZCURVE	TABLE
	Pt	Time	Freq	Zreal	Zimag	Zsig	Zmod	Zphz	Idc	Vdc	IERange
	#	s	Hz	ohm	ohm	V	ohm	°	A	V	#
	0	1	1000078	1783.342	-1511.639	1	2337.811	-40.28608	4.692114E-008	-0.0803588	8
	1	1	794390.6	2082.141	-1541.104	1	2590.428	-36.50713	6.277352E-008	-0.0806852	8
	2	2	630984.4	2381.475	-1527.175	1	2829.079	-32.67095	-4.597031E-008	-0.0808488	8
	3	2	501234.4	2665.033	-1479.624	1	3048.227	-29.03899	5.267258E-008	-0.0809797	8
	4	2	398109.4	2920.848	-1398.639	1	3238.448	-25.58729	2.907403E-008	-0.0810522	8
	5	2	316265.6	3150.912	-1299.192	1	3408.247	-22.40745	6.428134E-008	-0.0810755	8
	6	3	251203.1	3345.105	-1194.182	1	3551.873	-19.64625	7.865324E-008	-0.0810869	8
	7	3	199546.9	3507.541	-1087.342	1	3672.214	-17.22351	4.891463E-008	-0.0810734	8
	8	3	158578.1	3642.913	-987.726	1	3774.442	-15.17025	-2.176682E-008	-0.0810656	8
	9	4	125953.1	3775.659	-875.4839	1	3875.832	-13.0548	1.876691E-009	-0.0810803	7
	10	4	100078.1	3877.65	-806.1506	1	3960.562	-11.74431	-3.043815E-011	-0.0811194	7
	11	4	79453.13	3958.999	-756.85	1	4030.694	-10.82277	6.486084E-011	-0.0811204	7
	12	5	63140.62	4032.572	-723.5526	1	4096.97	-10.17218	1.719786E-009	-0.0811239	7
	13	5	50203.12	4101.171	-705.0048	1	4161.326	-9.754	1.071265E-009	-0.0811324	7
	14	5	39890.62	4168.93	-702.1407	1	4227.645	-9.56017	2.126085E-009	-0.0811291	7
	15	6	31640.63	4236.569	-715.0358	1	4296.486	-9.57993	1.5807E-009	-0.0811315	7
	16	6	25171.88	4305.265	-742.1638	1	4368.765	-9.78082	1.997926E-009	-0.0811375	7
	17	6	20015.62	4377.1	-785.9739	1	4447.106	-10.17983	1.590077E-009	-0.0811419	7
	18	7	15890.62	4454.983	-846.0529	1	4534.609	-10.75308	1.660379E-009	-0.0811371	7
	19	7	12609.37	4537.968	-924.1344	1	4631.109	-11.5106	1.938567E-009	-0.0811329	7
	20	7	10078.13	4625.718	-1017.901	1	4736.39	-12.41028	1.830733E-009	-0.0811322	7
	21	8	8015.625	4722.774	-1134.892	1	4857.219	-13.5121	1.904186E-009	-0.0811333	7
	22	8	6328.125	4832.985	-1281.737	1	5000.06	-14.85326	1.082185E-009	-0.0811308	7
	23	8	5015.625	4953.238	-1455.272	1	5162.595	-16.3729	1.022811E-009	-0.0811317	7
	24	8	3984.375	5083.257	-1661.292	1	5347.84	-18.09824	1.322836E-009	-0.0811348	7
	25	9	3170.956	5227.334	-1905.762	1	5563.897	-20.03065	1.398734E-010	-0.0811329	7
	26	9	2527.573	5385.432	-2197.055	1	5816.35	-22.19362	1.104068E-009	-0.0811376	7
	27	9	1976.103	5577.448	-2578.175	1	6144.502	-24.80873	2.563651E-009	-0.0811362	7
	28	10	1577.524	5771.237	-2994.193	1	6501.72	-27.42088	1.748016E-009	-0.0811351	7
	29	10	1265.625	5985.49	-3485.872	1	6926.572	-30.21597	1.125437E-009	-0.0811366	7
	30	10	998.264	6241.034	-4130.216	1	7483.928	-33.49595	1.371002E-009	-0.0811453	7
	31	11	796.875	6521.587	-4865.906	1	8136.838	-36.72746	2.257607E-009	-0.08114	7
	32	11	627.7902	6861.616	-5813.909	1	8993.516	-40.27491	1.480032E-009	-0.0811449	7
	33	11	505.5147	7228.336	-6863.473	1	9967.75	-43.51684	-7.160871E-010	-0.0811523	6
	34	12	397.9953	7706.729	-8270.747	1	11304.82	-47.02175	3.444012E-010	-0.0811191	6
	35	12	315.5048	8270.953	-9933.5	1	12926.06	-50.21814	2.694612E-010	-0.0811181	6
	36	12	252.4038	8935.604	-11862.55	1	14851.43	-53.01068	2.989269E-010	-0.0811269	6
	37	13	198.6229	9822.79	-14364.04	1	17401.52	-55.63388	2.479537E-010	-0.0811197	6
	38	13	158.3615	10875.94	-17206.06	1	20355.21	-57.70305	1.532474E-010	-0.0811277	6
	39	13	125.558	12230.87	-20680.8	1	24026.85	-59.39944	6.882548E-011	-0.0811288	6
	40	14	100.4464	13859.56	-24634.77	1	28265.87	-60.63782	2.249419E-010	-0.0811279	6
	41	14	79.00281	16052.16	-29664.28	1	33728.93	-61.58096	2.129558E-010	-0.0811311	6
	42	14	63.3446	18551.64	-35101.14	1	39702.06	-62.14266	3.549475E-010	-0.0811309	6
	43	15	49.86702	21892.57	-42010.18	1	47372.36	-62.47484	-3.524897E-010	-0.0811303	6
	44	15	39.72458	25804.01	-49709	1	56007.42	-62.56612	2.555852E-010	-0.0811274	6
	45	15	31.6723	30585.78	-58651.16	1	66147.16	-62.45858	4.604373E-010	-0.0811306	6
	46	16	24.93351	36908.54	-69685.57	1	78856.32	-62.09234	-9.716994E-010	-0.0811274	6
	47	16	19.86229	44387.08	-81783.08	1	93052.05	-61.50948	-9.411807E-010	-0.081136	6
	48	16	15.83615	53689.8	-95450	1	109513.9	-60.64261	-1.997125E-010	-0.0811457	5
	49	16	12.40079	66510.52	-112061.9	1	130313.2	-59.3102	-2.540399E-009	-0.0811382	5
	50	17	9.93114	80264.3	-128122.9	1	151188.1	-57.93436	-2.164513E-009	-0.0811428	5
	51	17	7.944915	97072.6	-145523.2	1	174928.8	-56.29438	9.02999E-010	-0.0811379	5
	52	18	6.317385	116654.5	-164305.4	1	201505.7	-54.6258	-2.574517E-010	-0.0811404	5
	53	18	5.008013	138724.5	-183934	1	230382.7	-52.97612	-6.93849E-010	-0.0811554	5
	54	19	3.945707	163655.9	-204833	1	262182.8	-51.37611	-2.29626E-010	-0.081145	5
	55	20	3.158693	187229.4	-226056.8	1	293524.3	-50.36706	-4.00675E-010	-0.0811636	5
	56	21	2.504006	213084	-250376.1	1	328774.9	-49.60037	1.595535E-010	-0.0811584	5
	57	22	1.998082	237457.1	-278359.6	1	365882.4	-49.53387	1.018961E-010	-0.0811437	5
	58	24	1.584686	263986.6	-311900	1	408620.3	-49.75601	-1.485189E-010	-0.0811937	5
	59	26	1.266892	290360.5	-353318.7	1	457321.9	-50.58633	-1.636026E-010	-0.0811979	5
	60	29	0.999041	318901.1	-407380.9	1	517355.9	-51.94587	-1.600813E-010	-0.0811782	5
