EXPLAIN
TAG	EISPOT
TITLE	LABEL	Potentiostatic EIS	Test &Identifier
DATE	LABEL	5/26/2020	Date
TIME	LABEL	18:11:53	Time
NOTES	NOTES	1	&Notes...
	
PSTAT	PSTAT	REF600-11020	Potentiostat
VDC	POTEN	0.00000E+000	T	DC &Voltage (V)
FREQINIT	QUANT	1.00000E+006	Initial Fre&q. (Hz)
FREQFINAL	QUANT	1.00000E+000	Final Fre&q. (Hz)
PTSPERDEC	QUANT	1.00000E+001	Points/&decade
VAC	QUANT	2.50000E+001	AC &Voltage (mV rms)
AREA	QUANT	5.00000E-004	&Area (cm^2)
CONDIT	TWOPARAM	F	5.00000E+000	0.00000E+000	Conditionin&g	Time(s)	E(V)
DELAY	TWOPARAM	T	3.00000E+000	0.00000E+000	Init. De&lay	Time(s)	Stab.(mV/s)
SPEED	SELECTOR	0	&Optimize for:
ZGUESS	QUANT	1.00000E+003	E&stimated Z (ohms)
OCVCURVE	TABLE	12
	Pt	T	Vf	Vm	Ach	Over
	#	s	V vs. Ref.	V	V	bits
	0	0.258333	1.19106E-001	1.19106E-001	5.90530E-004	...........
	1	0.516667	1.19106E-001	1.19109E-001	5.82530E-004	...........
	2	0.775	1.19107E-001	1.19106E-001	5.81130E-004	...........
	3	1.03333	1.19107E-001	1.19104E-001	5.82963E-004	...........
	4	1.29167	1.19107E-001	1.19107E-001	5.80563E-004	...........
	5	1.55	1.19107E-001	1.19109E-001	5.81397E-004	...........
	6	1.80833	1.19107E-001	1.19115E-001	5.80897E-004	...........
	7	2.06667	1.19108E-001	1.19122E-001	5.84297E-004	...........
	8	2.325	1.19111E-001	1.19126E-001	5.85797E-004	...........
	9	2.58333	1.19115E-001	1.19131E-001	5.80030E-004	...........
	10	2.84167	1.19120E-001	1.19132E-001	5.80697E-004	...........
	11	3.1	1.19125E-001	1.19133E-001	5.82063E-004	...........
EOC	QUANT	0.1191248	Open Circuit (V)
PSTATMODEL	IQUANT	4	Pstat Model
PSTATSECTION	LABEL	REF600-11020	Pstat Section
PSTATSERIALNO	LABEL	11020	Pstat Serial Number
CTRLMODE	IQUANT	1	Control Mode
IESTAB	IQUANT	0	I/E Stability
CASPEED	IQUANT	1	Control Amp Speed
CONVENTION	IQUANT	1	Current Convention
ICHRANGE	IQUANT	2	Ich Range
ICHRANGEMODE	TOGGLE	F	Ich Auto Range
ICHOFFSETENABLE	TOGGLE	T	Ich Offset Enable
ICHOFFSET	QUANT	0	Ich Offset (V)
ICHFILTER	IQUANT	3	Ich Filter
VCHRANGE	IQUANT	2	Vch Range
VCHRANGEMODE	TOGGLE	F	Vch Auto Range
VCHOFFSETENABLE	TOGGLE	T	Vch Offset Enable
VCHOFFSET	QUANT	0	Vch Offset (V)
VCHFILTER	IQUANT	3	Vch Filter
ACHRANGE	IQUANT	2	Ach Range
ACHOFFSETENABLE	TOGGLE	F	Ach Offset Enable
ACHOFFSET	QUANT	0	Ach Offset (V)
ACHFILTER	IQUANT	3	Ach Filter
IERANGELOWERLIMIT	IQUANT	1	I/E Range Lower Limit
IERANGEMODE	TOGGLE	F	I/E AutoRange
IERANGE	IQUANT	8	I/E Range
POSFEEDENABLE	TOGGLE	F	Positive Feedback IR Comp
POSFEEDRESISTANCE	QUANT	0	Positive Feedback Resistance (ohm)
ACHSELECT	IQUANT	0	Ach Select
CABLEID	IQUANT	14	Cable ID
DCCALDATE	LABEL	2/27/2020	DC Calibration Date
ACCALDATE	LABEL	2/27/2020	AC Calibration Date
THERMOSELECT	IQUANT	1	Thermo Select
FRAMEWORKVERSION	QUANT	6.33	Framework Version
INSTRUMENTVERSION	LABEL	3.50	Instrument Version
ZCURVE	TABLE
	Pt	Time	Freq	Zreal	Zimag	Zsig	Zmod	Zphz	Idc	Vdc	IERange
	#	s	Hz	ohm	ohm	V	ohm	°	A	V	#
	0	1	1000078	1928.457	-2562.972	1	3207.456	-53.04109	9.377546E-008	0.1212693	8
	1	2	794390.6	2371.861	-2849.985	1	3707.849	-50.23154	5.271405E-008	0.1209646	8
	2	2	630984.4	2879.397	-3111.008	1	4239.021	-47.21416	3.333142E-008	0.1208224	8
	3	2	501234.4	3446.195	-3327.76	1	4790.642	-43.99835	7.008746E-008	0.120745	8
	4	3	398109.4	4066.167	-3489.131	1	5357.961	-40.63251	4.64451E-008	0.120691	8
	5	3	316265.6	4705.882	-3589.634	1	5918.682	-37.33629	3.770636E-008	0.1206675	8
	6	3	251203.1	5360.832	-3608.696	1	6462.291	-33.94685	5.724285E-008	0.1206699	8
	7	3	199546.9	5996.526	-3584.881	1	6986.394	-30.87209	5.516349E-008	0.1206746	8
	8	4	158578.1	6619.755	-3504.266	1	7490.063	-27.89518	6.243395E-008	0.120657	8
	9	4	125953.1	7271.044	-3282.315	1	7977.573	-24.2955	2.890455E-009	0.1205957	7
	10	4	100078.1	7774.368	-3131.073	1	8381.194	-21.93678	3.048195E-009	0.1205973	7
	11	5	79453.13	8248.976	-2970	1	8767.354	-19.80114	2.163543E-009	0.1205867	7
	12	5	63140.62	8674.254	-2800.315	1	9115.067	-17.89167	2.177769E-009	0.1205848	7
	13	5	50203.12	9052.072	-2636.628	1	9428.246	-16.23944	2.959277E-009	0.1205822	7
	14	6	39890.62	9379.691	-2487.23	1	9703.86	-14.85142	2.752833E-009	0.120571	7
	15	6	31640.63	9670.18	-2365.572	1	9955.31	-13.74606	2.653303E-009	0.1205726	7
	16	6	25171.88	9927.75	-2281.605	1	10186.55	-12.94302	3.278381E-009	0.1205797	7
	17	7	20015.62	10165.17	-2237.099	1	10408.43	-12.41151	2.728784E-009	0.1205715	7
	18	7	15890.62	10388.19	-2239.145	1	10626.77	-12.16385	3.169616E-009	0.1205774	7
	19	7	12609.37	10663.68	-2156.941	1	10879.63	-11.43493	1.245291E-010	0.1206276	6
	20	8	10078.13	10857.08	-2276.237	1	11093.12	-11.84083	3.101697E-010	0.1206211	6
	21	8	8015.625	11064.51	-2450.715	1	11332.67	-12.489	4.26422E-011	0.1206264	6
	22	8	6328.125	11293.57	-2691.818	1	11609.94	-13.40629	2.982586E-011	0.1206195	6
	23	9	5015.625	11535.49	-2996.296	1	11918.28	-14.56058	2.239208E-010	0.1206266	6
	24	9	3984.375	11798.36	-3372.022	1	12270.77	-15.95016	5.170134E-011	0.1206247	6
	25	9	3170.956	12095.89	-3830.735	1	12687.99	-17.57285	8.873918E-011	0.1206248	6
	26	9	2527.573	12421.11	-4379.872	1	13170.7	-19.42342	1.497676E-011	0.1206223	6
	27	10	1976.103	12833.82	-5102.103	1	13810.81	-21.68036	-2.28495E-010	0.1206195	6
	28	10	1577.524	13262.14	-5897.47	1	14514.29	-23.97398	3.434526E-011	0.1206205	6
	29	10	1265.625	13743.2	-6816.184	1	15340.66	-26.37993	1.417055E-010	0.1206207	6
	30	11	998.264	14344.57	-7992.06	1	16420.71	-29.12432	-9.782446E-011	0.12061	6
	31	11	796.875	14998.28	-9320.174	1	17658.26	-31.85748	-2.360054E-010	0.1206106	6
	32	11	627.7902	15800.12	-10985.71	1	19243.95	-34.81059	-7.316977E-011	0.1206118	6
	33	12	505.5147	16635.04	-12774.81	1	20974.28	-37.52231	-4.442611E-011	0.1206082	6
	34	12	397.9953	17688.48	-15130.68	1	23277.02	-40.54358	3.880277E-010	0.1206312	6
	35	12	315.5048	18875.98	-17867.1	1	25991.07	-43.42717	3.482221E-010	0.1206293	6
	36	13	252.4038	20191.81	-21007.05	1	29137.7	-46.13361	3.776511E-010	0.1206267	6
	37	13	198.6229	21831.2	-25059.13	1	33234.94	-48.93802	3.747197E-010	0.1206305	6
	38	13	158.3615	23655.13	-29677.1	1	37951.23	-51.44223	2.823505E-010	0.1206273	6
	39	14	125.558	25873.15	-35374.76	1	43826.86	-53.81821	3.324792E-010	0.1206216	6
	40	14	100.4464	28422.22	-41940.31	1	50663.71	-55.87519	2.347892E-010	0.1206277	6
	41	14	79.00281	31761.24	-50449.22	1	59614.6	-57.80677	2.05534E-010	0.1206248	6
	42	15	63.3446	35517.75	-59820.43	1	69570.07	-59.30072	2.080433E-010	0.120625	6
	43	15	49.86702	40555.42	-71944.83	1	82588.13	-60.58997	2.932411E-010	0.1206235	6
	44	15	39.72458	46529.51	-85686.63	1	97504.8	-61.49717	3.894245E-010	0.1206277	6
	45	16	31.6723	53965.26	-101783.5	1	115204.8	-62.06762	1.578705E-010	0.1206297	5
	46	16	24.93351	63821.45	-121923.5	1	137617.3	-62.36996	9.66757E-011	0.1206287	5
	47	16	19.86229	75496.39	-144355.8	1	162905.8	-62.39096	9.775832E-010	0.1206383	5
	48	17	15.83615	90344.35	-170375.9	1	192847.2	-62.06456	-6.690408E-010	0.1206284	5
	49	17	12.40079	110464.2	-202324.9	1	230516.2	-61.36659	-3.011099E-010	0.1206361	5
	50	17	9.93114	133317.1	-235138.9	1	270303.1	-60.44798	-5.769275E-010	0.120632	5
	51	17	7.944915	160519.6	-271607.1	1	315494.8	-59.41695	-7.167298E-010	0.1206333	5
	52	18	6.317385	194903.7	-312590.2	1	368374.9	-58.05597	1.184335E-010	0.1206198	5
	53	19	5.008013	235997.7	-357451.2	1	428329.6	-56.56626	-4.318393E-011	0.1206211	5
	54	20	3.945707	284175.3	-407403	1	496722.1	-55.10311	-2.428312E-010	0.1206263	5
	55	20	3.158693	335017	-456346.8	1	566117.3	-53.71656	-2.064579E-011	0.1206073	5
	56	22	2.504006	393829.8	-512909.4	1	646666.8	-52.48168	1.758515E-010	0.120615	5
	57	23	1.998082	455721.9	-571282.9	1	730784.9	-51.42005	2.151881E-011	0.1205903	5
	58	24	1.584686	527215.3	-641143.4	1	830072.8	-50.56937	-4.94774E-011	0.1205694	5
	59	26	1.266892	600831.4	-715973.9	1	934674.8	-49.99728	-2.257483E-011	0.1205988	5
	60	29	0.999041	689667	-805346.3	1	1060294	-49.42455	-2.547097E-011	0.1206178	4
