EXPLAIN
TAG	EISPOT
TITLE	LABEL	Potentiostatic EIS	Test &Identifier
DATE	LABEL	2/28/2020	Date
TIME	LABEL	15:08:47	Time
NOTES	NOTES	1	&Notes...
	
PSTAT	PSTAT	REF600-11020	Potentiostat
VDC	POTEN	0.00000E+000	T	DC &Voltage (V)
FREQINIT	QUANT	1.00000E+006	Initial Fre&q. (Hz)
FREQFINAL	QUANT	1.00000E+000	Final Fre&q. (Hz)
PTSPERDEC	QUANT	1.00000E+001	Points/&decade
VAC	QUANT	2.50000E+001	AC &Voltage (mV rms)
AREA	QUANT	1.60000E-004	&Area (cm^2)
CONDIT	TWOPARAM	F	1.50000E+001	0.00000E+000	Conditionin&g	Time(s)	E(V)
DELAY	TWOPARAM	F	1.00000E+002	0.00000E+000	Init. De&lay	Time(s)	Stab.(mV/s)
SPEED	SELECTOR	1	&Optimize for:
ZGUESS	QUANT	1.00000E+003	E&stimated Z (ohms)
OCVCURVE	TABLE	39
	Pt	T	Vf	Vm	Ach	Over
	#	s	V vs. Ref.	V	V	bits
	0	0.258333	-3.94290E-002	-3.94290E-002	5.70897E-004	...........
	1	0.516667	-3.94280E-002	-3.93728E-002	5.70230E-004	...........
	2	0.775	-3.94223E-002	-3.93673E-002	5.69997E-004	...........
	3	1.03333	-3.94089E-002	-3.93431E-002	5.68763E-004	...........
	4	1.29167	-3.93887E-002	-3.92935E-002	5.69430E-004	...........
	5	1.55	-3.93635E-002	-3.92478E-002	5.63864E-004	...........
	6	1.80833	-3.93325E-002	-3.92116E-002	5.61430E-004	...........
	7	2.06667	-3.92973E-002	-3.92515E-002	5.62597E-004	...........
	8	2.325	-3.92641E-002	-3.91550E-002	5.57697E-004	...........
	9	2.58333	-3.92354E-002	-3.91176E-002	5.66963E-004	...........
	10	2.84167	-3.92053E-002	-3.90906E-002	5.66230E-004	...........
	11	3.1	-3.91694E-002	-3.90562E-002	5.68163E-004	...........
	12	3.35833	-3.91308E-002	-3.90211E-002	5.65897E-004	...........
	13	3.61667	-3.90933E-002	-3.89747E-002	5.69930E-004	...........
	14	3.875	-3.90567E-002	-3.89427E-002	5.73297E-004	...........
	15	4.13333	-3.90195E-002	-3.88978E-002	5.67430E-004	...........
	16	4.39167	-3.89815E-002	-3.88669E-002	5.71363E-004	...........
	17	4.65	-3.89431E-002	-3.88292E-002	5.67863E-004	...........
	18	4.90833	-3.89055E-002	-3.88030E-002	5.67497E-004	...........
	19	5.16667	-3.88693E-002	-3.87536E-002	5.70197E-004	...........
	20	5.425	-3.88340E-002	-3.87263E-002	5.71263E-004	...........
	21	5.68333	-3.87987E-002	-3.86992E-002	5.67230E-004	...........
	22	5.94167	-3.87640E-002	-3.86644E-002	5.74830E-004	...........
	23	6.2	-3.87306E-002	-3.86237E-002	5.79330E-004	...........
	24	6.45833	-3.86977E-002	-3.85912E-002	5.75597E-004	...........
	25	6.71667	-3.86638E-002	-3.85538E-002	5.71897E-004	...........
	26	6.975	-3.86285E-002	-3.85063E-002	5.75863E-004	...........
	27	7.23333	-3.85914E-002	-3.84600E-002	5.73463E-004	...........
	28	7.49167	-3.85520E-002	-3.84381E-002	5.69997E-004	...........
	29	7.75	-3.85120E-002	-3.84092E-002	5.62930E-004	...........
	30	8.00833	-3.84746E-002	-3.83895E-002	5.71297E-004	...........
	31	8.26667	-3.84419E-002	-3.83503E-002	5.69263E-004	...........
	32	8.525	-3.84126E-002	-3.83223E-002	5.78830E-004	...........
	33	8.78333	-3.83841E-002	-3.82914E-002	5.74163E-004	...........
	34	9.04167	-3.83547E-002	-3.82563E-002	5.74163E-004	...........
	35	9.3	-3.83240E-002	-3.82265E-002	5.71030E-004	...........
	36	9.5583	-3.82924E-002	-3.81902E-002	5.68663E-004	...........
	37	9.8167	-3.82601E-002	-3.81635E-002	5.74197E-004	...........
	38	10.075	-3.82278E-002	-3.81313E-002	5.74630E-004	...........
EOC	QUANT	-0.0382278	Open Circuit (V)
PSTATMODEL	IQUANT	4	Pstat Model
PSTATSECTION	LABEL	REF600-11020	Pstat Section
PSTATSERIALNO	LABEL	11020	Pstat Serial Number
CTRLMODE	IQUANT	1	Control Mode
IESTAB	IQUANT	0	I/E Stability
CASPEED	IQUANT	1	Control Amp Speed
CONVENTION	IQUANT	1	Current Convention
ICHRANGE	IQUANT	2	Ich Range
ICHRANGEMODE	TOGGLE	F	Ich Auto Range
ICHOFFSETENABLE	TOGGLE	T	Ich Offset Enable
ICHOFFSET	QUANT	0	Ich Offset (V)
ICHFILTER	IQUANT	3	Ich Filter
VCHRANGE	IQUANT	2	Vch Range
VCHRANGEMODE	TOGGLE	F	Vch Auto Range
VCHOFFSETENABLE	TOGGLE	T	Vch Offset Enable
VCHOFFSET	QUANT	0	Vch Offset (V)
VCHFILTER	IQUANT	3	Vch Filter
ACHRANGE	IQUANT	2	Ach Range
ACHOFFSETENABLE	TOGGLE	F	Ach Offset Enable
ACHOFFSET	QUANT	0	Ach Offset (V)
ACHFILTER	IQUANT	3	Ach Filter
IERANGELOWERLIMIT	IQUANT	1	I/E Range Lower Limit
IERANGEMODE	TOGGLE	F	I/E AutoRange
IERANGE	IQUANT	7	I/E Range
POSFEEDENABLE	TOGGLE	F	Positive Feedback IR Comp
POSFEEDRESISTANCE	QUANT	0	Positive Feedback Resistance (ohm)
ACHSELECT	IQUANT	0	Ach Select
CABLEID	IQUANT	14	Cable ID
DCCALDATE	LABEL	2/27/2020	DC Calibration Date
ACCALDATE	LABEL	2/27/2020	AC Calibration Date
THERMOSELECT	IQUANT	1	Thermo Select
FRAMEWORKVERSION	QUANT	6.33	Framework Version
INSTRUMENTVERSION	LABEL	3.50	Instrument Version
ZCURVE	TABLE
	Pt	Time	Freq	Zreal	Zimag	Zsig	Zmod	Zphz	Idc	Vdc	IERange
	#	s	Hz	ohm	ohm	V	ohm	°	A	V	#
	0	2	1000078	1991.156	-1904.901	1	2755.604	-43.73173	3.598602E-006	-0.0368355	8
	1	3	794390.6	2283.743	-2030.304	1	3055.751	-41.63788	-6.225476E-007	-0.0364634	8
	2	5	630984.4	2580.861	-2154.676	1	3362.064	-39.85739	1.433423E-007	-0.0363061	8
	3	6	501234.4	2862.203	-2302.853	1	3673.6	-38.81924	-1.281865E-006	-0.036316	8
	4	7	398109.4	3188.166	-2461.528	1	4027.843	-37.67111	3.987893E-006	-0.0372725	8
	5	9	316265.6	3545.918	-2650.714	1	4427.168	-36.77957	3.501306E-006	-0.0372842	8
	6	10	251203.1	3939.577	-2848.075	1	4861.255	-35.86465	3.543117E-007	-0.0368026	8
	7	12	199546.9	4352.237	-3090.637	1	5337.978	-35.37956	7.534549E-009	-0.0365594	8
	8	13	158578.1	4884.052	-3284.072	1	5885.498	-33.91717	-1.097505E-006	-0.0364637	8
	9	15	125953.1	5508.563	-3437.39	1	6493.067	-31.96451	6.062259E-007	-0.037623	7
	10	16	100078.1	6114.301	-3610.05	1	7100.502	-30.55876	3.893183E-008	-0.0368434	7
	11	17	79453.13	6797.372	-3714.368	1	7746.018	-28.65404	1.427342E-009	-0.0368123	7
	12	19	63140.62	7479.304	-3752.908	1	8368.053	-26.64623	1.097935E-007	-0.0369043	7
	13	20	50203.12	8178.833	-3696.605	1	8975.423	-24.32165	3.072656E-008	-0.0366929	7
	14	21	39890.62	8848.855	-3555.616	1	9536.49	-21.89108	8.059884E-008	-0.0368053	7
	15	23	31640.63	9462.709	-3343.632	1	10036.07	-19.46077	-3.991963E-008	-0.0366965	7
	16	25	25171.88	9990.25	-3097.695	1	10459.48	-17.2272	-4.138046E-008	-0.0366921	7
	17	26	20015.62	10441.9	-2829.568	1	10818.49	-15.16201	3.936897E-009	-0.0366907	7
	18	28	15890.62	10805.7	-2569.393	1	11106.97	-13.37547	-5.344952E-008	-0.03668	7
	19	29	12609.37	11158.14	-2212.332	1	11375.35	-11.21463	2.420517E-009	-0.0368212	6
	20	31	10078.13	11382.54	-2059.795	1	11567.41	-10.25729	-3.720259E-009	-0.0365853	6
	21	32	8015.625	11571.81	-1945.995	1	11734.3	-9.54593	-6.783538E-009	-0.0367041	6
	22	34	6328.125	11731.98	-1874.087	1	11880.73	-9.075847	-5.070425E-009	-0.0366864	6
	23	35	5015.625	11896.3	-1865.453	1	12041.67	-8.911951	-4.796964E-009	-0.0365854	6
	24	37	3984.375	12042.59	-1912.88	1	12193.56	-9.025626	-1.19581E-008	-0.0365769	6
	25	39	3170.956	12179.61	-2013.779	1	12344.97	-9.388358	-3.041575E-009	-0.0365743	6
	26	40	2527.573	12321.26	-2176.158	1	12511.96	-10.01618	-5.116543E-009	-0.0366714	6
	27	42	1976.103	12460.56	-2427.399	1	12694.79	-11.02353	8.446748E-009	-0.0367793	6
	28	43	1577.524	12600.91	-2743.429	1	12896.1	-12.28258	-4.804293E-009	-0.03667	6
	29	45	1265.625	12751.8	-3150.471	1	13135.22	-13.87764	-5.197013E-009	-0.0365961	6
	30	46	998.264	12932.47	-3695.76	1	13450.18	-15.94855	-1.291664E-008	-0.0365785	6
	31	48	796.875	13128.23	-4347.245	1	13829.28	-18.32162	-1.224142E-008	-0.0365857	6
	32	49	627.7902	13376.22	-5213.848	1	14356.44	-21.29508	-2.519134E-009	-0.0367529	6
	33	51	505.5147	13629.28	-6184.774	1	14966.92	-24.40788	8.418382E-009	-0.036788	6
	34	52	397.9953	13970.84	-7505.027	1	15859.06	-28.24435	-2.681462E-010	-0.0366822	6
	35	53	315.5048	14362.27	-9078.911	1	16991.22	-32.29846	-6.272418E-010	-0.0366832	6
	36	55	252.4038	14849.31	-10924.74	1	18435.07	-36.34217	-1.441315E-010	-0.0366869	6
	37	56	198.6229	15471.94	-13336.63	1	20426.62	-40.76095	-4.8636E-010	-0.0366831	6
	38	57	158.3615	16187.33	-16119.55	1	22844.47	-44.8798	-2.802349E-010	-0.0366864	6
	39	59	125.558	17100.6	-19573	1	25991.02	-48.85684	-2.622186E-010	-0.0366774	6
	40	60	100.4464	18193.79	-23585.69	1	29787.55	-52.35373	-7.229075E-010	-0.0366828	6
	41	61	79.00281	19604.12	-28822.03	1	34857.29	-55.77731	-7.362271E-010	-0.0366873	6
	42	63	63.3446	21035	-34585.96	1	40480.37	-58.69225	-4.679713E-010	-0.0366936	6
	43	64	49.86702	23518.64	-42486.31	1	48561.43	-61.03292	-1.401995E-010	-0.0366943	6
	44	66	39.72458	25932.57	-51442.75	1	57609.5	-63.24708	-5.301034E-010	-0.0366843	6
	45	67	31.6723	29241.28	-62185.45	1	68717.41	-64.81582	-4.940837E-011	-0.0366867	6
	46	68	24.93351	33435.13	-76058.65	1	83083.25	-66.26987	-1.666303E-010	-0.0366884	6
	47	70	19.86229	38700.17	-91942.02	1	99754.9	-67.17284	3.961528E-011	-0.0366775	6
	48	71	15.83615	45124.78	-111314.3	1	120113	-67.93327	7.597665E-010	-0.0366851	5
	49	72	12.40079	55956.04	-135615.5	1	146706	-67.57857	8.750021E-010	-0.0366819	5
	50	74	9.93114	66691.61	-162085.2	1	175269.5	-67.63479	1.003638E-010	-0.0366815	5
	51	75	7.944915	82043.13	-193086.3	1	209793.7	-66.97916	-5.149249E-010	-0.0366812	5
	52	77	6.317385	101743.8	-229594.4	1	251128.2	-66.09968	-2.891376E-010	-0.0366873	5
	53	79	5.008013	127305.9	-272519.3	1	300788.2	-64.96062	-1.97501E-010	-0.0366876	5
	54	82	3.945707	160721.6	-321913.3	1	359804.9	-63.46842	3.808935E-010	-0.0366743	5
	55	84	3.158693	199940.5	-372327	1	422615.2	-61.7641	-8.029089E-011	-0.0366842	5
	56	87	2.504006	248629.5	-429283.2	1	496085.3	-59.92171	3.658896E-010	-0.0366834	5
	57	90	1.998082	303252.6	-486851.3	1	573573.4	-58.08182	-1.324127E-010	-0.0366494	5
	58	93	1.584686	366687.4	-551850.5	1	662569.7	-56.39721	3.466688E-010	-0.0366596	5
	59	97	1.266892	436183.3	-615065.3	1	754030	-54.65704	-8.885705E-011	-0.0366492	5
	60	101	0.999041	514342.8	-691341.6	1	861685.3	-53.35157	3.04305E-010	-0.0367043	5
