EXPLAIN
TAG	EISPOT
TITLE	LABEL	Potentiostatic EIS	Test &Identifier
DATE	LABEL	3/9/2020	Date
TIME	LABEL	20:39:22	Time
NOTES	NOTES	1	&Notes...
	
PSTAT	PSTAT	REF600-11020	Potentiostat
VDC	POTEN	0.00000E+000	T	DC &Voltage (V)
FREQINIT	QUANT	1.00000E+006	Initial Fre&q. (Hz)
FREQFINAL	QUANT	1.00000E+000	Final Fre&q. (Hz)
PTSPERDEC	QUANT	1.00000E+001	Points/&decade
VAC	QUANT	2.50000E+001	AC &Voltage (mV rms)
AREA	QUANT	4.00000E-005	&Area (cm^2)
CONDIT	TWOPARAM	F	5.00000E+000	0.00000E+000	Conditionin&g	Time(s)	E(V)
DELAY	TWOPARAM	T	3.00000E+000	0.00000E+000	Init. De&lay	Time(s)	Stab.(mV/s)
SPEED	SELECTOR	0	&Optimize for:
ZGUESS	QUANT	1.00000E+003	E&stimated Z (ohms)
OCVCURVE	TABLE	12
	Pt	T	Vf	Vm	Ach	Over
	#	s	V vs. Ref.	V	V	bits
	0	0.258333	1.17268E-002	1.17268E-002	5.75363E-004	...........
	1	0.516667	1.17266E-002	1.17173E-002	5.71763E-004	...........
	2	0.775	1.17255E-002	1.17074E-002	5.69497E-004	...........
	3	1.03333	1.17222E-002	1.16966E-002	5.68563E-004	...........
	4	1.29167	1.17162E-002	1.16883E-002	5.71430E-004	...........
	5	1.55	1.17078E-002	1.16740E-002	5.74863E-004	...........
	6	1.80833	1.16980E-002	1.16632E-002	5.74930E-004	...........
	7	2.06667	1.16872E-002	1.16505E-002	5.74997E-004	...........
	8	2.325	1.16757E-002	1.16406E-002	5.75297E-004	...........
	9	2.58333	1.16640E-002	1.16281E-002	5.76030E-004	...........
	10	2.84167	1.16522E-002	1.16139E-002	5.69597E-004	...........
	11	3.1	1.16404E-002	1.16010E-002	5.65264E-004	...........
EOC	QUANT	0.0116404	Open Circuit (V)
PSTATMODEL	IQUANT	4	Pstat Model
PSTATSECTION	LABEL	REF600-11020	Pstat Section
PSTATSERIALNO	LABEL	11020	Pstat Serial Number
CTRLMODE	IQUANT	1	Control Mode
IESTAB	IQUANT	0	I/E Stability
CASPEED	IQUANT	1	Control Amp Speed
CONVENTION	IQUANT	1	Current Convention
ICHRANGE	IQUANT	2	Ich Range
ICHRANGEMODE	TOGGLE	F	Ich Auto Range
ICHOFFSETENABLE	TOGGLE	T	Ich Offset Enable
ICHOFFSET	QUANT	0	Ich Offset (V)
ICHFILTER	IQUANT	3	Ich Filter
VCHRANGE	IQUANT	2	Vch Range
VCHRANGEMODE	TOGGLE	F	Vch Auto Range
VCHOFFSETENABLE	TOGGLE	T	Vch Offset Enable
VCHOFFSET	QUANT	0	Vch Offset (V)
VCHFILTER	IQUANT	3	Vch Filter
ACHRANGE	IQUANT	2	Ach Range
ACHOFFSETENABLE	TOGGLE	F	Ach Offset Enable
ACHOFFSET	QUANT	0	Ach Offset (V)
ACHFILTER	IQUANT	3	Ach Filter
IERANGELOWERLIMIT	IQUANT	1	I/E Range Lower Limit
IERANGEMODE	TOGGLE	F	I/E AutoRange
IERANGE	IQUANT	7	I/E Range
POSFEEDENABLE	TOGGLE	F	Positive Feedback IR Comp
POSFEEDRESISTANCE	QUANT	0	Positive Feedback Resistance (ohm)
ACHSELECT	IQUANT	0	Ach Select
CABLEID	IQUANT	14	Cable ID
DCCALDATE	LABEL	2/27/2020	DC Calibration Date
ACCALDATE	LABEL	2/27/2020	AC Calibration Date
THERMOSELECT	IQUANT	1	Thermo Select
FRAMEWORKVERSION	QUANT	6.33	Framework Version
INSTRUMENTVERSION	LABEL	3.50	Instrument Version
ZCURVE	TABLE
	Pt	Time	Freq	Zreal	Zimag	Zsig	Zmod	Zphz	Idc	Vdc	IERange
	#	s	Hz	ohm	ohm	V	ohm	°	A	V	#
	0	1	1000078	1593.313	-1614.033	1	2267.983	-45.37012	-3.716789E-010	0.0141796	8
	1	1	794390.6	1800.849	-1774.835	1	2528.457	-44.58317	5.217873E-008	0.0138212	8
	2	1	630984.4	2024.952	-1956.293	1	2815.584	-44.01199	4.527812E-008	0.0136482	8
	3	2	501234.4	2269.853	-2163.757	1	3135.933	-43.62918	2.920165E-008	0.013545	8
	4	2	398109.4	2542.652	-2406.372	1	3500.814	-43.42266	3.488968E-008	0.0134682	8
	5	2	316265.6	2847.957	-2679.391	1	3910.243	-43.25321	3.926721E-008	0.013436	8
	6	3	251203.1	3208.484	-2982.499	1	4380.602	-42.9095	5.94232E-008	0.0134324	8
	7	3	199546.9	3627.553	-3313.656	1	4913.192	-42.41072	1.5046E-008	0.0134415	8
	8	3	158578.1	4111.089	-3669.668	1	5510.673	-41.75296	3.835732E-008	0.0134233	8
	9	4	125953.1	4763.663	-3947.476	1	6186.683	-39.64732	4.456183E-009	0.0133525	7
	10	4	100078.1	5357.118	-4295.405	1	6866.529	-38.72308	2.150105E-009	0.0133456	7
	11	4	79453.13	6021.115	-4642.818	1	7603.262	-37.63543	2.211049E-009	0.0133435	7
	12	5	63140.62	6731.998	-4977.971	1	8372.573	-36.48104	2.670947E-009	0.0133474	7
	13	5	50203.12	7480.534	-5298.667	1	9167.021	-35.31098	2.735491E-009	0.0133397	7
	14	5	39890.62	8248.814	-5610.566	1	9976.04	-34.22222	1.720357E-009	0.0133313	7
	15	6	31640.63	9033.696	-5933.484	1	10808.05	-33.29758	2.17995E-009	0.0133323	7
	16	6	25171.88	9821.24	-6290.514	1	11663.08	-32.63959	2.292623E-009	0.0133322	7
	17	6	20015.62	10638.48	-6711.984	1	12578.87	-32.24848	1.804111E-009	0.013327	7
	18	7	15890.62	11477.7	-7187.484	1	13542.44	-32.05532	2.677204E-009	0.0133387	7
	19	7	12609.37	12569.95	-7590.145	1	14683.8	-31.12495	1.146839E-009	0.0133872	6
	20	7	10078.13	13470.46	-8250.456	1	15796.31	-31.48685	8.724197E-010	0.0133867	6
	21	8	8015.625	14495.91	-9061.857	1	17095.28	-32.01082	1.087606E-009	0.0133895	6
	22	8	6328.125	15658.72	-9974.56	1	18565.76	-32.49701	1.001186E-009	0.0133906	6
	23	8	5015.625	16944.27	-11001.03	1	20202.25	-32.99356	9.696144E-010	0.0133891	6
	24	8	3984.375	18376.64	-12125.89	1	22016.77	-33.41896	7.969271E-010	0.0133803	6
	25	9	3170.956	19960.09	-13373.92	1	24026.38	-33.82339	8.267634E-010	0.0133805	6
	26	9	2527.573	21661.57	-14687.4	1	26171.42	-34.13883	1.127112E-009	0.0133813	6
	27	9	1976.103	23655.77	-16188.86	1	28664.87	-34.38585	7.198592E-010	0.0133838	6
	28	10	1577.524	25594.98	-17724.3	1	31132.84	-34.70226	7.233025E-010	0.0133802	6
	29	10	1265.625	27614.94	-19479.1	1	33793.79	-35.19847	8.964451E-010	0.0133786	6
	30	10	998.264	29838.55	-21494.26	1	36774.21	-35.76717	5.034281E-010	0.0133732	6
	31	11	796.875	32011.69	-23857.64	1	39924.12	-36.69639	7.878389E-010	0.0133805	6
	32	11	627.7902	34339.17	-26758.69	1	43533.96	-37.92739	8.751782E-010	0.0133804	6
	33	11	505.5147	36495.59	-29998.97	1	47242.64	-39.41982	4.793648E-010	0.0133761	6
	34	12	397.9953	39085.74	-34492.57	1	52129	-41.42791	8.064868E-010	0.0133891	6
	35	12	315.5048	41906.14	-40074.84	1	57983.77	-43.72033	6.966925E-010	0.0133895	6
	36	12	252.4038	45084.83	-46480.12	1	64753.71	-45.87302	6.53834E-010	0.0133844	6
	37	13	198.6229	49306.08	-55535.68	1	74265.07	-48.40046	7.044636E-010	0.0133859	6
	38	13	158.3615	54433.3	-65409.29	1	85096.17	-50.23293	7.007702E-010	0.0133826	6
	39	13	125.558	61271.96	-77833.67	1	99057.2	-51.78959	9.234945E-010	0.0133883	6
	40	14	100.4464	70216.86	-90873.5	1	114840.8	-52.30717	4.486846E-010	0.013386	5
	41	14	79.00281	82505.9	-107716.1	1	135683.4	-52.54945	3.44852E-010	0.0133866	5
	42	14	63.3446	97207.1	-124138.5	1	157669.2	-51.93715	4.841277E-010	0.0133889	5
	43	15	49.86702	117282.4	-143216.4	1	185111	-50.68536	4.12953E-010	0.013389	5
	44	15	39.72458	140707	-160507.7	1	213450.7	-48.76099	3.830494E-010	0.013392	5
	45	15	31.6723	167693	-177062.8	1	243869.2	-46.5568	1.251854E-010	0.0133866	5
	46	16	24.93351	199305	-190810.6	1	275918.7	-43.75264	8.229528E-010	0.0133808	5
	47	16	19.86229	230703	-201026.4	1	305999.1	-41.06775	1.351582E-009	0.0133872	5
	48	16	15.83615	265773.9	-215256.8	1	342010.7	-39.00486	3.056836E-010	0.0133866	5
	49	17	12.40079	296403.1	-216680.1	1	367158.1	-36.16799	1.729018E-009	0.0133865	5
	50	17	9.93114	324966.2	-224318.1	1	394869.1	-34.6166	9.385976E-010	0.0133932	5
	51	17	7.944915	356403.7	-235323.7	1	427084.1	-33.43571	-8.929551E-010	0.0133919	5
	52	18	6.317385	379115.9	-242475.5	1	450025.8	-32.60223	5.230237E-010	0.0133735	5
	53	18	5.008013	403746.2	-259592.9	1	479999.5	-32.73942	5.939322E-010	0.0133916	5
	54	19	3.945707	423928.2	-278811.8	1	507396.4	-33.33237	-1.518126E-010	0.0133823	5
	55	20	3.158693	452154.8	-308470.2	1	547355.3	-34.30269	3.375764E-010	0.0133936	5
	56	21	2.504006	475204.1	-343681.9	1	586460.8	-35.87559	9.264101E-011	0.0133841	5
	57	23	1.998082	508941.9	-390899.3	1	641735.3	-37.52653	-1.016089E-010	0.0133512	5
	58	24	1.584686	546338.7	-447729.2	1	706362.1	-39.33491	-1.814933E-011	0.0133946	5
	59	26	1.266892	582895.3	-513845.4	1	777048.3	-41.39746	3.441391E-011	0.0134217	5
	60	29	0.999041	634899.7	-596046.8	1	870844.1	-43.19215	5.55755E-011	0.0134224	5
