EXPLAIN
TAG	EISPOT
TITLE	LABEL	Potentiostatic EIS	Test &Identifier
DATE	LABEL	1/7/2020	Date
TIME	LABEL	17:45:59	Time
NOTES	NOTES	5	&Notes...
	
	
	
	
	
PSTAT	PSTAT	REF600-11020	Potentiostat
VDC	POTEN	0.00000E+000	T	DC &Voltage (V)
FREQINIT	QUANT	1.00000E+006	Initial Fre&q. (Hz)
FREQFINAL	QUANT	1.00000E+000	Final Fre&q. (Hz)
PTSPERDEC	QUANT	1.00000E+001	Points/&decade
VAC	QUANT	2.50000E+001	AC &Voltage (mV rms)
AREA	QUANT	1.00000E-001	&Area (cm^2)
CONDIT	TWOPARAM	T	5.00000E+000	0.00000E+000	Conditionin&g	Time(s)	E(V)
DELAY	TWOPARAM	T	5.00000E+000	0.00000E+000	Init. De&lay	Time(s)	Stab.(mV/s)
SPEED	SELECTOR	0	&Optimize for:
ZGUESS	QUANT	1.00000E+003	E&stimated Z (ohms)
OCVCURVE	TABLE	19
	Pt	T	Vf	Vm	Ach	Over
	#	s	V vs. Ref.	V	V	bits
	0	0.258333	2.55309E-003	2.55309E-003	6.60146E-004	...........
	1	0.516667	2.54987E-003	2.38450E-003	6.58846E-004	...........
	2	0.775	2.53065E-003	2.25385E-003	6.66513E-004	...........
	3	1.03333	2.47847E-003	2.14610E-003	6.67779E-004	...........
	4	1.29167	2.38982E-003	2.02523E-003	6.57346E-004	...........
	5	1.55	2.27791E-003	1.91091E-003	6.55579E-004	...........
	6	1.80833	2.15836E-003	1.81367E-003	6.67779E-004	...........
	7	2.06667	2.04079E-003	1.72175E-003	6.65513E-004	...........
	8	2.325	1.92991E-003	1.63394E-003	6.63746E-004	...........
	9	2.58333	1.82733E-003	1.55098E-003	6.66179E-004	...........
	10	2.84167	1.73250E-003	1.47415E-003	6.60246E-004	...........
	11	3.1	1.64409E-003	1.39946E-003	6.61113E-004	...........
	12	3.35833	1.56102E-003	1.32965E-003	6.56080E-004	...........
	13	3.61667	1.48243E-003	1.25645E-003	6.60146E-004	...........
	14	3.875	1.40733E-003	1.18833E-003	6.61879E-004	...........
	15	4.13333	1.33473E-003	1.12210E-003	6.63946E-004	...........
	16	4.39167	1.26400E-003	1.05329E-003	6.63813E-004	...........
	17	4.65	1.19490E-003	9.92119E-004	6.61079E-004	...........
	18	4.90833	1.12734E-003	9.27623E-004	6.62313E-004	...........
EOC	QUANT	0.0011273	Open Circuit (V)
PSTATMODEL	IQUANT	4	Pstat Model
PSTATSECTION	LABEL	REF600-11020	Pstat Section
PSTATSERIALNO	LABEL	11020	Pstat Serial Number
CTRLMODE	IQUANT	1	Control Mode
IESTAB	IQUANT	0	I/E Stability
CASPEED	IQUANT	1	Control Amp Speed
CONVENTION	IQUANT	1	Current Convention
ICHRANGE	IQUANT	2	Ich Range
ICHRANGEMODE	TOGGLE	F	Ich Auto Range
ICHOFFSETENABLE	TOGGLE	T	Ich Offset Enable
ICHOFFSET	QUANT	0	Ich Offset (V)
ICHFILTER	IQUANT	3	Ich Filter
VCHRANGE	IQUANT	2	Vch Range
VCHRANGEMODE	TOGGLE	F	Vch Auto Range
VCHOFFSETENABLE	TOGGLE	T	Vch Offset Enable
VCHOFFSET	QUANT	0	Vch Offset (V)
VCHFILTER	IQUANT	3	Vch Filter
ACHRANGE	IQUANT	2	Ach Range
ACHOFFSETENABLE	TOGGLE	F	Ach Offset Enable
ACHOFFSET	QUANT	0	Ach Offset (V)
ACHFILTER	IQUANT	3	Ach Filter
IERANGELOWERLIMIT	IQUANT	1	I/E Range Lower Limit
IERANGEMODE	TOGGLE	F	I/E AutoRange
IERANGE	IQUANT	6	I/E Range
POSFEEDENABLE	TOGGLE	F	Positive Feedback IR Comp
POSFEEDRESISTANCE	QUANT	0	Positive Feedback Resistance (ohm)
ACHSELECT	IQUANT	0	Ach Select
CABLEID	IQUANT	14	Cable ID
DCCALDATE	LABEL	12/22/2019	DC Calibration Date
ACCALDATE	LABEL	12/22/2019	AC Calibration Date
THERMOSELECT	IQUANT	1	Thermo Select
FRAMEWORKVERSION	QUANT	6.33	Framework Version
INSTRUMENTVERSION	LABEL	3.50	Instrument Version
ZCURVE	TABLE
	Pt	Time	Freq	Zreal	Zimag	Zsig	Zmod	Zphz	Idc	Vdc	IERange
	#	s	Hz	ohm	ohm	V	ohm	°	A	V	#
	0	1	1000078	1366.901	-829.4738	1	1598.889	-31.25054	3.032432E-006	0.0029425	8
	1	1	794390.6	1508.274	-827.0869	1	1720.164	-28.73888	-8.964958E-006	0.0048124	8
	2	1	630984.4	1658.057	-801.6202	1	1841.67	-25.80236	1.053072E-005	0.0014056	8
	3	2	501234.4	1796.621	-772.7388	1	1955.754	-23.27286	-9.010144E-006	0.0044627	8
	4	2	398109.4	1931.361	-721.0341	1	2061.564	-20.47209	-1.703284E-006	0.0030567	8
	5	2	316265.6	2028.906	-671.7048	1	2137.205	-18.31803	-9.671137E-007	0.0029911	8
	6	3	251203.1	2128.419	-628.4563	1	2219.263	-16.45024	2.591802E-006	0.0023748	8
	7	3	199546.9	2225.273	-585.8578	1	2301.102	-14.74981	-2.194417E-006	0.003154	8
	8	3	158578.1	2307.341	-513.4933	1	2363.789	-12.54658	7.089986E-006	0.0015037	8
	9	4	125953.1	2377.542	-440.5101	1	2418.006	-10.49671	-1.611764E-006	0.0071789	7
	10	4	100078.1	2434.894	-401.7837	1	2467.821	-9.369985	3.285238E-008	0.0026755	7
	11	4	79453.13	2479.064	-376.0261	1	2507.42	-8.624917	1.971795E-007	0.0025083	7
	12	5	63140.62	2520.753	-356.3703	1	2545.819	-8.046838	-8.570754E-008	0.0029651	7
	13	5	50203.12	2558.967	-341.6718	1	2581.676	-7.60512	-7.570931E-008	0.0028937	7
	14	5	39890.62	2594.766	-331.9388	1	2615.912	-7.290041	1.957792E-007	0.0025028	7
	15	6	31640.63	2629.282	-327.0468	1	2649.544	-7.090396	8.394313E-009	0.0028195	7
	16	6	25171.88	2661.309	-330.0183	1	2681.693	-7.068935	-3.480545E-008	0.0029261	7
	17	6	20015.62	2692.53	-338.6196	1	2713.739	-7.168034	1.959275E-007	0.0025024	7
	18	6	15890.62	2723.892	-353.3586	1	2746.716	-7.391453	-7.447651E-008	0.0028912	7
	19	7	12609.37	2756.235	-377.1041	1	2781.912	-7.790755	-8.005544E-008	0.0028659	7
	20	7	10078.13	2786.987	-408.1845	1	2816.72	-8.332348	-3.396792E-008	0.002921	7
	21	7	8015.625	2819.134	-452.6305	1	2855.239	-9.121367	-6.96946E-008	0.0028302	7
	22	8	6328.125	2854.548	-509.6885	1	2899.694	-10.12366	-7.516725E-008	0.0028865	7
	23	8	5015.625	2891.622	-580.6609	1	2949.346	-11.35444	1.134678E-007	0.0025482	7
	24	8	3984.375	2930.274	-670.5284	1	3006.013	-12.88896	3.332879E-008	0.002758	7
	25	9	3170.956	2972.377	-781.2101	1	3073.323	-14.72563	-3.197231E-008	0.0029184	7
	26	9	2527.573	3018.123	-916.4871	1	3154.206	-16.8915	-2.530733E-008	0.0029712	7
	27	9	1976.103	3073.654	-1099.205	1	3264.292	-19.67816	1.278604E-007	0.0025444	7
	28	10	1577.524	3133.179	-1308.1	1	3395.282	-22.6605	1.289744E-010	0.0026881	7
	29	10	1265.625	3196.212	-1556.792	1	3555.19	-25.96951	-1.765472E-008	0.0028463	7
	30	10	998.264	3279.418	-1887.837	1	3783.981	-29.92741	-6.471748E-010	0.0026838	7
	31	11	796.875	3371.163	-2272.14	1	4065.385	-33.97969	1.134241E-007	0.0025472	7
	32	11	627.7902	3491.907	-2773.604	1	4459.406	-38.45994	2.123212E-010	0.0026798	7
	33	11	505.5147	3622.638	-3332.557	1	4922.341	-42.61174	-8.330896E-008	0.0028968	7
	34	12	397.9953	3794.199	-4080.905	1	5572.228	-47.08502	6.136015E-009	0.0027892	7
	35	12	315.5048	4001.035	-4974.224	1	6383.666	-51.18841	6.159817E-009	0.0027892	7
	36	12	252.4038	4243.247	-6020.362	1	7365.453	-54.82321	6.62538E-009	0.0027875	7
	37	13	198.6229	4565.743	-7394.996	1	8690.913	-58.30841	6.112805E-009	0.0027933	7
	38	13	158.3615	4945.149	-8987.044	1	10257.75	-61.17807	6.097729E-009	0.0027831	7
	39	13	125.558	5435.682	-10978.19	1	12250.19	-63.65839	8.527461E-010	0.00279	6
	40	13	100.4464	6023.546	-13309.54	1	14609.14	-65.64976	2.98392E-010	0.0027911	6
	41	14	79.00281	6831.774	-16362.65	1	17731.6	-67.33837	1.117033E-009	0.0027883	6
	42	14	63.3446	7904.828	-19774.97	1	21296.38	-68.21149	4.906925E-010	0.0027868	6
	43	15	49.86702	9249.753	-24270.83	1	25973.66	-69.13787	-4.991741E-011	0.0027906	6
	44	15	39.72458	10908.99	-29374.29	1	31334.56	-69.62607	5.83758E-010	0.0027888	6
	45	15	31.6723	13125.75	-35423.59	1	37777.2	-69.66846	5.857156E-010	0.0027871	6
	46	16	24.93351	16167.02	-43125.42	1	46056.21	-69.4498	8.248116E-010	0.0027821	6
	47	16	19.86229	19936.65	-51736.19	1	55444.6	-68.92572	1.895272E-009	0.0027872	6
	48	16	15.83615	25011.79	-61478.92	1	66372.04	-67.86177	-1.069168E-009	0.0027887	6
	49	16	12.40079	31499.48	-74058.74	1	80479.28	-66.95845	-9.554256E-010	0.002791	6
	50	17	9.93114	38876.54	-86480.94	1	94817.39	-65.79423	-1.129956E-009	0.0027885	6
	51	17	7.944915	47683.34	-100583.9	1	111314.1	-64.63599	1.462547E-009	0.0027863	5
	52	17	6.317385	58886.07	-117270.8	1	131225	-63.33705	-3.295135E-012	0.0027989	5
	53	18	5.008013	71731.84	-135969.9	1	153731.1	-62.1858	-1.50352E-010	0.0027826	5
	54	19	3.945707	86993.98	-157566.2	1	179986.3	-61.09645	6.503275E-010	0.002784	5
	55	20	3.158693	102231.7	-180513.3	1	207452.1	-60.47545	5.139454E-010	0.0028012	5
	56	22	2.504006	120542.2	-208048.2	1	240446.4	-59.91218	1.645384E-010	0.0027947	5
	57	23	1.998082	139587.4	-239101.9	1	276865.3	-59.72368	2.734919E-010	0.0027783	5
	58	25	1.584686	162306.6	-276691.3	1	320782.7	-59.60419	4.668697E-010	0.002819	5
	59	27	1.266892	187276.6	-320406.2	1	371123.5	-59.69382	5.106645E-010	0.0028236	5
	60	29	0.999041	216006.1	-375617.8	1	433298.3	-60.09814	4.43239E-010	0.0028135	5
