EXPLAIN
TAG	EISPOT
TITLE	LABEL	Potentiostatic EIS	Test &Identifier
DATE	LABEL	2/13/2020	Date
TIME	LABEL	10:17:20	Time
NOTES	NOTES	1	&Notes...
	
PSTAT	PSTAT	REF600-11020	Potentiostat
VDC	POTEN	0.00000E+000	T	DC &Voltage (V)
FREQINIT	QUANT	1.00000E+006	Initial Fre&q. (Hz)
FREQFINAL	QUANT	1.00000E+000	Final Fre&q. (Hz)
PTSPERDEC	QUANT	1.00000E+001	Points/&decade
VAC	QUANT	2.50000E+001	AC &Voltage (mV rms)
AREA	QUANT	5.00000E-004	&Area (cm^2)
CONDIT	TWOPARAM	F	1.50000E+001	0.00000E+000	Conditionin&g	Time(s)	E(V)
DELAY	TWOPARAM	F	1.00000E+002	0.00000E+000	Init. De&lay	Time(s)	Stab.(mV/s)
SPEED	SELECTOR	0	&Optimize for:
ZGUESS	QUANT	1.00000E+003	E&stimated Z (ohms)
OCVCURVE	TABLE	39
	Pt	T	Vf	Vm	Ach	Over
	#	s	V vs. Ref.	V	V	bits
	0	0.258333	3.20431E-002	3.20431E-002	5.55589E-004	...........
	1	0.516667	3.20428E-002	3.20250E-002	5.51456E-004	...........
	2	0.775	3.20404E-002	3.19948E-002	5.50756E-004	...........
	3	1.03333	3.20332E-002	3.19801E-002	5.42290E-004	...........
	4	1.29167	3.20196E-002	3.19591E-002	5.50189E-004	...........
	5	1.55	3.20015E-002	3.19420E-002	5.47323E-004	...........
	6	1.80833	3.19818E-002	3.19248E-002	5.53056E-004	...........
	7	2.06667	3.19625E-002	3.19148E-002	5.55223E-004	...........
	8	2.325	3.19448E-002	3.18993E-002	5.56289E-004	...........
	9	2.58333	3.19288E-002	3.18799E-002	5.51356E-004	...........
	10	2.84167	3.19137E-002	3.18678E-002	5.47756E-004	...........
	11	3.1	3.18985E-002	3.18437E-002	5.45790E-004	...........
	12	3.35833	3.18825E-002	3.18291E-002	5.47623E-004	...........
	13	3.61667	3.18657E-002	3.18257E-002	5.48056E-004	...........
	14	3.875	3.18496E-002	3.18111E-002	5.47690E-004	...........
	15	4.13333	3.18355E-002	3.17970E-002	5.47356E-004	...........
	16	4.39167	3.18230E-002	3.17851E-002	5.39090E-004	...........
	17	4.65	3.18109E-002	3.17710E-002	5.44823E-004	...........
	18	4.90833	3.17990E-002	3.17893E-002	5.44590E-004	...........
	19	5.16667	3.17897E-002	3.18020E-002	5.44490E-004	...........
	20	5.425	3.17859E-002	3.17823E-002	5.46689E-004	...........
	21	5.68333	3.17862E-002	3.17581E-002	5.41190E-004	...........
	22	5.94167	3.17846E-002	3.17436E-002	5.49956E-004	...........
	23	6.2	3.17769E-002	3.17419E-002	5.58956E-004	...........
	24	6.45833	3.17635E-002	3.16741E-002	5.46723E-004	...........
	25	6.71667	3.17453E-002	3.16707E-002	5.40156E-004	...........
	26	6.975	3.17225E-002	3.16714E-002	5.41990E-004	...........
	27	7.23333	3.16994E-002	3.16612E-002	5.47389E-004	...........
	28	7.49167	3.16811E-002	3.16400E-002	5.42856E-004	...........
	29	7.75	3.16677E-002	3.16313E-002	5.38123E-004	...........
	30	8.00833	3.16565E-002	3.16430E-002	5.36390E-004	...........
	31	8.26667	3.16479E-002	3.16731E-002	5.43256E-004	...........
	32	8.525	3.16457E-002	3.16883E-002	5.41823E-004	...........
	33	8.78333	3.16532E-002	3.17249E-002	5.37590E-004	...........
	34	9.04167	3.16697E-002	3.17479E-002	5.50156E-004	...........
	35	9.3	3.16924E-002	3.17704E-002	5.44356E-004	...........
	36	9.5583	3.17171E-002	3.17445E-002	5.46023E-004	...........
	37	9.8167	3.17371E-002	3.17285E-002	5.40856E-004	...........
	38	10.075	3.17463E-002	3.17149E-002	5.37156E-004	...........
EOC	QUANT	0.0317463	Open Circuit (V)
PSTATMODEL	IQUANT	4	Pstat Model
PSTATSECTION	LABEL	REF600-11020	Pstat Section
PSTATSERIALNO	LABEL	11020	Pstat Serial Number
CTRLMODE	IQUANT	1	Control Mode
IESTAB	IQUANT	0	I/E Stability
CASPEED	IQUANT	1	Control Amp Speed
CONVENTION	IQUANT	1	Current Convention
ICHRANGE	IQUANT	2	Ich Range
ICHRANGEMODE	TOGGLE	F	Ich Auto Range
ICHOFFSETENABLE	TOGGLE	T	Ich Offset Enable
ICHOFFSET	QUANT	0	Ich Offset (V)
ICHFILTER	IQUANT	3	Ich Filter
VCHRANGE	IQUANT	2	Vch Range
VCHRANGEMODE	TOGGLE	F	Vch Auto Range
VCHOFFSETENABLE	TOGGLE	T	Vch Offset Enable
VCHOFFSET	QUANT	0	Vch Offset (V)
VCHFILTER	IQUANT	3	Vch Filter
ACHRANGE	IQUANT	2	Ach Range
ACHOFFSETENABLE	TOGGLE	F	Ach Offset Enable
ACHOFFSET	QUANT	0	Ach Offset (V)
ACHFILTER	IQUANT	1	Ach Filter
IERANGELOWERLIMIT	IQUANT	1	I/E Range Lower Limit
IERANGEMODE	TOGGLE	F	I/E AutoRange
IERANGE	IQUANT	7	I/E Range
POSFEEDENABLE	TOGGLE	F	Positive Feedback IR Comp
POSFEEDRESISTANCE	QUANT	0	Positive Feedback Resistance (ohm)
ACHSELECT	IQUANT	0	Ach Select
CABLEID	IQUANT	14	Cable ID
DCCALDATE	LABEL	1/27/2020	DC Calibration Date
ACCALDATE	LABEL	1/27/2020	AC Calibration Date
THERMOSELECT	IQUANT	1	Thermo Select
FRAMEWORKVERSION	QUANT	6.33	Framework Version
INSTRUMENTVERSION	LABEL	3.50	Instrument Version
ZCURVE	TABLE
	Pt	Time	Freq	Zreal	Zimag	Zsig	Zmod	Zphz	Idc	Vdc	IERange
	#	s	Hz	ohm	ohm	V	ohm	°	A	V	#
	0	1	1000078	1603.861	-823.051	1	1802.716	-27.16547	-1.778117E-007	0.0338772	8
	1	1	794390.6	1688.807	-838.7355	1	1885.616	-26.41101	1.002124E-006	0.0333676	8
	2	2	630984.4	1759.832	-890.4354	1	1972.279	-26.83839	4.321952E-006	0.0328333	8
	3	2	501234.4	1839.559	-950.596	1	2070.654	-27.32776	-3.077051E-006	0.0338325	8
	4	2	398109.4	1905.684	-1048.636	1	2175.148	-28.82257	7.701504E-007	0.0332385	8
	5	3	316265.6	1982.633	-1184.807	1	2309.675	-30.86223	2.285024E-006	0.0328923	8
	6	3	251203.1	2064.808	-1358.455	1	2471.605	-33.34126	2.196751E-006	0.0328908	8
	7	3	199546.9	2164.898	-1594.761	1	2688.874	-36.37703	-3.16428E-006	0.0339379	8
	8	3	158578.1	2284.716	-1887.322	1	2963.429	-39.5589	-3.24592E-006	0.0340084	8
	9	4	125953.1	2483.151	-2205.121	1	3320.934	-41.60615	1.219527E-006	0.0312913	7
	10	4	100078.1	2704.379	-2629.219	1	3771.798	-44.19264	-1.212431E-008	0.0334227	7
	11	4	79453.13	2990.164	-3144.999	1	4339.597	-46.44568	-2.451664E-008	0.0333985	7
	12	5	63140.62	3387.622	-3731.08	1	5039.538	-47.76223	-6.392283E-009	0.0333244	7
	13	5	50203.12	3925.685	-4382.517	1	5883.66	-48.14727	-6.795482E-009	0.0332527	7
	14	5	39890.62	4644.971	-5085.132	1	6887.258	-47.59013	-1.900807E-008	0.0332962	7
	15	6	31640.63	5589.26	-5771.608	1	8034.381	-45.91955	-4.594556E-008	0.0333418	7
	16	6	25171.88	6752.991	-6362.743	1	9278.329	-43.29572	-2.610588E-009	0.0333269	7
	17	6	20015.62	8097.23	-6733.441	1	10531.11	-39.74601	1.683894E-008	0.0332123	7
	18	7	15890.62	9585.47	-6877.381	1	11797.44	-35.65868	-6.444392E-009	0.0333188	7
	19	7	12609.37	11149.16	-6634.381	1	12973.77	-30.75504	2.726649E-010	0.0332355	6
	20	7	10078.13	12418.91	-6247.215	1	13901.69	-26.70426	2.086205E-009	0.0332332	6
	21	8	8015.625	13534.8	-5697.669	1	14685.17	-22.82937	7.189661E-009	0.0331283	6
	22	8	6328.125	14455.02	-5055.632	1	15313.63	-19.27724	-2.7391E-009	0.0332901	6
	23	8	5015.625	15115.03	-4423.353	1	15748.97	-16.31191	-1.34064E-009	0.0333011	6
	24	9	3984.375	15588.71	-3852.193	1	16057.62	-13.88052	-5.578989E-009	0.0334124	6
	25	9	3170.956	15917.37	-3394.562	1	16275.31	-12.03864	-2.272007E-009	0.0333026	6
	26	9	2527.573	16200.92	-3060.946	1	16487.54	-10.69915	-8.243555E-009	0.0333627	6
	27	9	1976.103	16459	-2812.279	1	16697.53	-9.69625	4.021135E-009	0.0332724	6
	28	10	1577.524	16598.82	-2699.013	1	16816.82	-9.235617	-6.660692E-009	0.0333559	6
	29	10	1265.625	16698.12	-2682.621	1	16912.23	-9.126815	6.046877E-011	0.0333616	6
	30	10	998.264	16806.12	-2786.086	1	17035.49	-9.412777	1.292196E-009	0.0332217	6
	31	11	796.875	16932.85	-3001.751	1	17196.86	-10.0526	-7.188424E-010	0.0332234	6
	32	11	627.7902	17082.08	-3369.957	1	17411.32	-11.16002	-8.959975E-009	0.0333557	6
	33	11	505.5147	17229.71	-3834.758	1	17651.3	-12.54761	6.719444E-009	0.033112	6
	34	12	397.9953	17384.47	-4514.029	1	17960.96	-14.5559	1.491268E-009	0.0332872	6
	35	12	315.5048	17603.59	-5362.733	1	18402.32	-16.94276	1.22313E-009	0.0332881	6
	36	12	252.4038	17841.48	-6393.017	1	18952.29	-19.71378	1.16034E-009	0.0332852	6
	37	13	198.6229	18220.29	-7764.538	1	19805.73	-23.08118	6.401574E-010	0.0332888	6
	38	13	158.3615	18630.76	-9353.216	1	20846.77	-26.65806	4.765773E-010	0.0332851	6
	39	13	125.558	19283.94	-11324.66	1	22363.32	-30.42395	6.166788E-010	0.0332872	6
	40	14	100.4464	20070.7	-13610.31	1	24250.23	-34.14192	6.520516E-010	0.0332842	6
	41	14	79.00281	21109.25	-16597.16	1	26852.67	-38.17621	1.102069E-009	0.0332802	6
	42	14	63.3446	22211.42	-19759.58	1	29728.58	-41.65673	4.594396E-011	0.033282	6
	43	15	49.86702	24013.12	-23865.78	1	33855.65	-44.82368	6.040044E-011	0.0332794	6
	44	15	39.72458	26221.21	-28598.12	1	38799.54	-47.48273	-2.187403E-010	0.0332852	6
	45	15	31.6723	28946.84	-33995.77	1	44650.1	-49.58615	-9.363248E-010	0.0332803	6
	46	16	24.93351	32463.17	-40457.22	1	51871.42	-51.25619	8.532323E-010	0.0332761	6
	47	16	19.86229	36641.51	-47660.83	1	60117.84	-52.44702	-1.649586E-009	0.0332773	6
	48	16	15.83615	42202.58	-55594.84	1	69798.6	-52.79752	4.746582E-009	0.0332721	6
	49	17	12.40079	48668.09	-65500.32	1	81601.93	-53.38689	2.204304E-009	0.0332733	6
	50	17	9.93114	55852.68	-75493.1	1	93908.09	-53.50455	2.342057E-009	0.0332698	6
	51	17	7.944915	63929.21	-87176.03	1	108104.6	-53.74611	2.967706E-009	0.0332652	5
	52	18	6.317385	74350.73	-99262.5	1	124020.5	-53.16564	-1.148354E-009	0.0332878	5
	53	18	5.008013	86261.77	-113455.8	1	142524.8	-52.75386	-4.919392E-010	0.0332723	5
	54	20	3.945707	99246.3	-129656.3	1	163280.7	-52.56751	-2.521815E-010	0.0332635	5
	55	21	3.158693	113010.8	-146435.2	1	184972.2	-52.34097	3.489225E-010	0.0332764	5
	56	22	2.504006	128278	-166308.8	1	210033	-52.35611	1.143623E-012	0.0332754	5
	57	24	1.998082	143832.9	-189268.1	1	237719	-52.76726	-2.482626E-010	0.0332315	5
	58	25	1.584686	160544	-216564.5	1	269582.2	-53.44964	2.210526E-011	0.0332764	5
	59	27	1.266892	178931.5	-248899	1	306540.7	-54.28794	1.350363E-010	0.0332974	5
	60	30	0.999041	199923.4	-291155.9	1	353187.1	-55.52439	1.139454E-010	0.0332988	5
