EXPLAIN
TAG	EISPOT
TITLE	LABEL	Potentiostatic EIS	Test &Identifier
DATE	LABEL	1/14/2020	Date
TIME	LABEL	18:56:11	Time
NOTES	NOTES	5	&Notes...
	
	
	
	
	
PSTAT	PSTAT	REF600-11020	Potentiostat
VDC	POTEN	0.00000E+000	T	DC &Voltage (V)
FREQINIT	QUANT	1.00000E+006	Initial Fre&q. (Hz)
FREQFINAL	QUANT	1.00000E+000	Final Fre&q. (Hz)
PTSPERDEC	QUANT	1.00000E+001	Points/&decade
VAC	QUANT	2.50000E+001	AC &Voltage (mV rms)
AREA	QUANT	1.00000E-001	&Area (cm^2)
CONDIT	TWOPARAM	T	5.00000E+000	0.00000E+000	Conditionin&g	Time(s)	E(V)
DELAY	TWOPARAM	T	5.00000E+000	0.00000E+000	Init. De&lay	Time(s)	Stab.(mV/s)
SPEED	SELECTOR	0	&Optimize for:
ZGUESS	QUANT	5.00000E+002	E&stimated Z (ohms)
OCVCURVE	TABLE	19
	Pt	T	Vf	Vm	Ach	Over
	#	s	V vs. Ref.	V	V	bits
	0	0.258333	3.23039E-003	3.23039E-003	6.43080E-004	...........
	1	0.516667	3.22949E-003	3.18319E-003	6.44280E-004	...........
	2	0.775	3.22318E-003	3.09798E-003	6.35580E-004	...........
	3	1.03333	3.19678E-003	2.70332E-003	6.33113E-004	...........
	4	1.29167	3.12058E-003	2.43328E-003	6.37513E-004	...........
	5	1.55	2.96873E-003	2.23265E-003	6.43046E-004	...........
	6	1.80833	2.75175E-003	2.07154E-003	6.43413E-004	...........
	7	2.06667	2.51319E-003	1.93328E-003	6.42413E-004	...........
	8	2.325	2.29321E-003	1.80167E-003	6.35146E-004	...........
	9	2.58333	2.10765E-003	1.70064E-003	6.34913E-004	...........
	10	2.84167	1.95414E-003	1.59515E-003	6.42046E-004	...........
	11	3.1	1.82554E-003	1.55908E-003	6.34580E-004	...........
	12	3.35833	1.72129E-003	1.65981E-003	6.40780E-004	...........
	13	3.61667	1.65326E-003	1.75505E-003	6.45780E-004	...........
	14	3.875	1.63336E-003	1.67493E-003	6.49646E-004	...........
	15	4.13333	1.64787E-003	1.55099E-003	6.43346E-004	...........
	16	4.39167	1.65743E-003	1.47153E-003	6.41713E-004	...........
	17	4.65	1.63010E-003	1.33329E-003	6.43413E-004	...........
	18	4.90833	1.56087E-003	1.19085E-003	6.42946E-004	...........
EOC	QUANT	0.0015609	Open Circuit (V)
PSTATMODEL	IQUANT	4	Pstat Model
PSTATSECTION	LABEL	REF600-11020	Pstat Section
PSTATSERIALNO	LABEL	11020	Pstat Serial Number
CTRLMODE	IQUANT	1	Control Mode
IESTAB	IQUANT	0	I/E Stability
CASPEED	IQUANT	1	Control Amp Speed
CONVENTION	IQUANT	1	Current Convention
ICHRANGE	IQUANT	2	Ich Range
ICHRANGEMODE	TOGGLE	F	Ich Auto Range
ICHOFFSETENABLE	TOGGLE	T	Ich Offset Enable
ICHOFFSET	QUANT	0	Ich Offset (V)
ICHFILTER	IQUANT	3	Ich Filter
VCHRANGE	IQUANT	2	Vch Range
VCHRANGEMODE	TOGGLE	F	Vch Auto Range
VCHOFFSETENABLE	TOGGLE	T	Vch Offset Enable
VCHOFFSET	QUANT	0	Vch Offset (V)
VCHFILTER	IQUANT	3	Vch Filter
ACHRANGE	IQUANT	2	Ach Range
ACHOFFSETENABLE	TOGGLE	F	Ach Offset Enable
ACHOFFSET	QUANT	0	Ach Offset (V)
ACHFILTER	IQUANT	3	Ach Filter
IERANGELOWERLIMIT	IQUANT	1	I/E Range Lower Limit
IERANGEMODE	TOGGLE	F	I/E AutoRange
IERANGE	IQUANT	6	I/E Range
POSFEEDENABLE	TOGGLE	F	Positive Feedback IR Comp
POSFEEDRESISTANCE	QUANT	0	Positive Feedback Resistance (ohm)
ACHSELECT	IQUANT	0	Ach Select
CABLEID	IQUANT	14	Cable ID
DCCALDATE	LABEL	12/22/2019	DC Calibration Date
ACCALDATE	LABEL	12/22/2019	AC Calibration Date
THERMOSELECT	IQUANT	1	Thermo Select
FRAMEWORKVERSION	QUANT	6.33	Framework Version
INSTRUMENTVERSION	LABEL	3.50	Instrument Version
ZCURVE	TABLE
	Pt	Time	Freq	Zreal	Zimag	Zsig	Zmod	Zphz	Idc	Vdc	IERange
	#	s	Hz	ohm	ohm	V	ohm	°	A	V	#
	0	1	1000078	1873.454	-1699.601	1	2529.52	-42.21438	-2.151137E-006	0.0041681	8
	1	2	794390.6	2157.573	-1799.183	1	2809.302	-39.82445	-1.255741E-006	0.003818	8
	2	2	630984.4	2460.67	-1904.192	1	3111.406	-37.73454	3.838718E-006	0.0025606	8
	3	2	501234.4	2784.599	-2006.734	1	3432.343	-35.77858	-7.169336E-007	0.0031461	8
	4	3	398109.4	3138.365	-2066.666	1	3757.717	-33.36557	5.72384E-007	0.0031086	8
	5	3	316265.6	3509.542	-2118.425	1	4099.343	-31.11596	1.31187E-006	0.0028596	8
	6	3	251203.1	3878.789	-2115.648	1	4418.254	-28.60983	-9.624731E-007	0.0032704	8
	7	4	199546.9	4260.811	-2087.885	1	4744.868	-26.1058	8.523133E-008	0.0031836	8
	8	4	158578.1	4605.749	-2027.5	1	5032.264	-23.75961	-6.569962E-007	0.0032411	8
	9	4	125953.1	4971.861	-1914.392	1	5327.691	-21.05897	7.982958E-007	0.0015511	7
	10	5	100078.1	5248.425	-1798.51	1	5548.027	-18.91537	-2.016284E-008	0.0030919	7
	11	5	79453.13	5517.507	-1697.367	1	5772.689	-17.09962	-5.542086E-009	0.0030588	7
	12	5	63140.62	5751.719	-1594.992	1	5968.775	-15.49907	3.011588E-008	0.0030005	7
	13	6	50203.12	5959.88	-1502.071	1	6146.25	-14.14569	8.117868E-008	0.0029716	7
	14	6	39890.62	6143.641	-1421.714	1	6305.997	-13.0296	-8.38619E-009	0.0030584	7
	15	6	31640.63	6313.519	-1358.271	1	6457.974	-12.14138	-2.120528E-008	0.0030809	7
	16	6	25171.88	6470.487	-1313.567	1	6602.474	-11.47561	5.015353E-008	0.0029781	7
	17	7	20015.62	6616.75	-1286.101	1	6740.582	-10.99946	5.013788E-008	0.0029742	7
	18	7	15890.62	6753.941	-1282.801	1	6874.686	-10.7543	-4.03778E-009	0.0030657	7
	19	7	12609.37	6897.945	-1300.166	1	7019.408	-10.67422	-4.326155E-008	0.0031316	7
	20	8	10078.13	7052.54	-1342.874	1	7179.25	-10.78064	8.166547E-008	0.0029576	7
	21	8	8015.625	7175.099	-1397.617	1	7309.95	-11.02246	6.177202E-009	0.0030915	7
	22	8	6328.125	7332.005	-1492.431	1	7482.356	-11.50539	5.676664E-009	0.0030677	7
	23	9	5015.625	7500.375	-1602.956	1	7669.752	-12.06359	8.252684E-008	0.0029602	7
	24	9	3984.375	7678.488	-1741.632	1	7873.529	-12.77958	1.798256E-008	0.0031178	7
	25	9	3170.956	7874.201	-1904.665	1	8101.283	-13.59791	4.859034E-008	0.0029989	7
	26	10	2527.573	8078.65	-2088.849	1	8344.332	-14.49713	-3.477401E-009	0.0030422	7
	27	10	1976.103	8320.04	-2323.377	1	8638.354	-15.60243	-1.140706E-008	0.0031029	7
	28	10	1577.524	8554.95	-2568.516	1	8932.214	-16.71172	-3.814977E-008	0.0031449	7
	29	11	1265.625	8797.889	-2849.695	1	9247.897	-17.94749	2.484538E-009	0.0029932	6
	30	11	998.264	9059.379	-3216.297	1	9613.37	-19.54609	1.042664E-008	0.0028941	6
	31	11	796.875	9314.247	-3643.766	1	10001.61	-21.36561	-6.732266E-009	0.003138	6
	32	12	627.7902	9590.45	-4200.854	1	10470.14	-23.65462	3.661558E-010	0.0031359	6
	33	12	505.5147	9854.16	-4830.315	1	10974.35	-26.1132	-9.315214E-010	0.0030075	6
	34	12	397.9953	10168.42	-5687.674	1	11651.03	-29.22032	8.64901E-010	0.0030805	6
	35	13	315.5048	10500.71	-6725.808	1	12470.02	-32.63995	8.241692E-010	0.0030797	6
	36	13	252.4038	10857.91	-7958.043	1	13461.97	-36.23866	8.982422E-010	0.0030752	6
	37	13	198.6229	11286.74	-9593.22	1	14812.84	-40.36303	1.007439E-009	0.0030802	6
	38	13	158.3615	11749.97	-11505.8	1	16445.22	-44.39845	9.556179E-010	0.0030738	6
	39	14	125.558	12310.09	-13928.51	1	18588.75	-48.52959	8.402553E-010	0.003075	6
	40	14	100.4464	12951.73	-16798.73	1	21211.89	-52.36797	1.229089E-009	0.0030721	6
	41	14	79.00281	13767.76	-20606.75	1	24782.84	-56.25236	9.90186E-010	0.0030744	6
	42	15	63.3446	14823.58	-24904.6	1	28982.37	-59.23827	7.660466E-010	0.0030692	6
	43	15	49.86702	16109.73	-30644.94	1	34621.32	-62.26955	8.150391E-010	0.0030679	6
	44	16	39.72458	17651.87	-37275.06	1	41243.41	-64.65977	7.718716E-010	0.0030714	6
	45	16	31.6723	19624.59	-45281.4	1	49351.09	-66.56848	7.645413E-010	0.0030697	6
	46	16	24.93351	22321.72	-55654.4	1	59963.92	-68.14539	8.154492E-010	0.0030688	6
	47	17	19.86229	25545.55	-67587.16	1	72253.72	-69.29519	1.548825E-009	0.0030753	6
	48	17	15.83615	29714.41	-81736.2	1	86969.83	-70.02175	-1.834279E-010	0.0030702	6
	49	17	12.40079	34916.09	-100681.3	1	106563.9	-70.87355	9.35279E-010	0.0030766	6
	50	17	9.93114	41633.06	-120980.8	1	127944	-71.01015	-3.935098E-010	0.0030721	5
	51	18	7.944915	49487.25	-145356.7	1	153549.8	-71.19865	3.008223E-011	0.0030742	5
	52	18	6.317385	59701.04	-176094	1	185939	-71.27184	6.313584E-011	0.003065	5
	53	19	5.008013	72603.46	-212426.6	1	224491.3	-71.13052	-2.777571E-011	0.0030618	5
	54	20	3.945707	90123.07	-257394.8	1	272716.5	-70.70303	1.018943E-010	0.0030663	5
	55	21	3.158693	111319.5	-308181.3	1	327670.2	-70.13956	6.215767E-011	0.0030507	5
	56	22	2.504006	139384	-369857.2	1	395249.6	-69.35063	3.10046E-010	0.0030658	5
	57	24	1.998082	173390.5	-438434	1	471474.9	-68.42235	1.355811E-010	0.003046	5
	58	25	1.584686	218237.1	-522454.6	1	566203.4	-67.32898	8.277454E-011	0.0030144	5
	59	27	1.266892	270553.2	-614217.6	1	671164.8	-66.22726	1.247422E-010	0.0030303	5
	60	30	0.999041	340069	-723278.7	1	799236.5	-64.81817	1.165297E-010	0.0030571	5
