EXPLAIN
TAG	EISPOT
TITLE	LABEL	Potentiostatic EIS	Test &Identifier
DATE	LABEL	7/13/2020	Date
TIME	LABEL	20:56:07	Time
NOTES	NOTES	1	&Notes...
	
PSTAT	PSTAT	REF600-11020	Potentiostat
VDC	POTEN	0.00000E+000	T	DC &Voltage (V)
FREQINIT	QUANT	1.00000E+006	Initial Fre&q. (Hz)
FREQFINAL	QUANT	1.00000E+000	Final Fre&q. (Hz)
PTSPERDEC	QUANT	1.00000E+001	Points/&decade
VAC	QUANT	2.50000E+001	AC &Voltage (mV rms)
AREA	QUANT	4.00000E-004	&Area (cm^2)
CONDIT	TWOPARAM	F	5.00000E+000	0.00000E+000	Conditionin&g	Time(s)	E(V)
DELAY	TWOPARAM	F	3.00000E+000	0.00000E+000	Init. De&lay	Time(s)	Stab.(mV/s)
SPEED	SELECTOR	0	&Optimize for:
ZGUESS	QUANT	1.00000E+003	E&stimated Z (ohms)
OCVCURVE	TABLE	39
	Pt	T	Vf	Vm	Ach	Over
	#	s	V vs. Ref.	V	V	bits
	0	0.258333	1.78011E-001	1.78011E-001	4.74417E-004	...........
	1	0.516667	1.78012E-001	1.78065E-001	4.68051E-004	...........
	2	0.775	1.78018E-001	1.78105E-001	4.60151E-004	...........
	3	1.03333	1.78035E-001	1.78159E-001	4.61718E-004	...........
	4	1.29167	1.78065E-001	1.78197E-001	4.66817E-004	...........
	5	1.55	1.78104E-001	1.78234E-001	4.63251E-004	...........
	6	1.80833	1.78148E-001	1.78263E-001	4.61751E-004	...........
	7	2.06667	1.78189E-001	1.78291E-001	4.69551E-004	...........
	8	2.325	1.78226E-001	1.78316E-001	4.78584E-004	...........
	9	2.58333	1.78259E-001	1.78337E-001	4.65318E-004	...........
	10	2.84167	1.78287E-001	1.78359E-001	4.56951E-004	...........
	11	3.1	1.78312E-001	1.78376E-001	4.66051E-004	...........
	12	3.35833	1.78335E-001	1.78393E-001	4.71317E-004	...........
	13	3.61667	1.78355E-001	1.78412E-001	4.60084E-004	...........
	14	3.875	1.78374E-001	1.78426E-001	4.56218E-004	...........
	15	4.13333	1.78392E-001	1.78438E-001	4.68184E-004	...........
	16	4.39167	1.78409E-001	1.78454E-001	4.69717E-004	...........
	17	4.65	1.78424E-001	1.78463E-001	4.55851E-004	...........
	18	4.90833	1.78438E-001	1.78473E-001	4.58518E-004	...........
	19	5.16667	1.78451E-001	1.78484E-001	4.67718E-004	...........
	20	5.425	1.78462E-001	1.78494E-001	4.63551E-004	...........
	21	5.68333	1.78473E-001	1.78502E-001	4.62118E-004	...........
	22	5.94167	1.78483E-001	1.78514E-001	4.61084E-004	...........
	23	6.2	1.78493E-001	1.78520E-001	4.68751E-004	...........
	24	6.45833	1.78502E-001	1.78530E-001	4.65051E-004	...........
	25	6.71667	1.78511E-001	1.78536E-001	4.54218E-004	...........
	26	6.975	1.78520E-001	1.78544E-001	4.61118E-004	...........
	27	7.23333	1.78528E-001	1.78548E-001	4.73684E-004	...........
	28	7.49167	1.78535E-001	1.78560E-001	4.64584E-004	...........
	29	7.75	1.78543E-001	1.78564E-001	4.59251E-004	...........
	30	8.00833	1.78550E-001	1.78568E-001	4.77651E-004	...........
	31	8.26667	1.78557E-001	1.78575E-001	4.74051E-004	...........
	32	8.525	1.78563E-001	1.78580E-001	4.61518E-004	...........
	33	8.78333	1.78569E-001	1.78586E-001	4.59384E-004	...........
	34	9.04167	1.78574E-001	1.78590E-001	4.75817E-004	...........
	35	9.3	1.78580E-001	1.78590E-001	4.69651E-004	...........
	36	9.5583	1.78584E-001	1.78595E-001	4.61184E-004	...........
	37	9.8167	1.78588E-001	1.78597E-001	4.53318E-004	...........
	38	10.075	1.78591E-001	1.78601E-001	4.63584E-004	...........
EOC	QUANT	0.1785913	Open Circuit (V)
PSTATMODEL	IQUANT	4	Pstat Model
PSTATSECTION	LABEL	REF600-11020	Pstat Section
PSTATSERIALNO	LABEL	11020	Pstat Serial Number
CTRLMODE	IQUANT	1	Control Mode
IESTAB	IQUANT	0	I/E Stability
CASPEED	IQUANT	1	Control Amp Speed
CONVENTION	IQUANT	1	Current Convention
ICHRANGE	IQUANT	2	Ich Range
ICHRANGEMODE	TOGGLE	F	Ich Auto Range
ICHOFFSETENABLE	TOGGLE	T	Ich Offset Enable
ICHOFFSET	QUANT	0	Ich Offset (V)
ICHFILTER	IQUANT	3	Ich Filter
VCHRANGE	IQUANT	2	Vch Range
VCHRANGEMODE	TOGGLE	F	Vch Auto Range
VCHOFFSETENABLE	TOGGLE	T	Vch Offset Enable
VCHOFFSET	QUANT	0	Vch Offset (V)
VCHFILTER	IQUANT	3	Vch Filter
ACHRANGE	IQUANT	2	Ach Range
ACHOFFSETENABLE	TOGGLE	F	Ach Offset Enable
ACHOFFSET	QUANT	0	Ach Offset (V)
ACHFILTER	IQUANT	3	Ach Filter
IERANGELOWERLIMIT	IQUANT	1	I/E Range Lower Limit
IERANGEMODE	TOGGLE	F	I/E AutoRange
IERANGE	IQUANT	8	I/E Range
POSFEEDENABLE	TOGGLE	F	Positive Feedback IR Comp
POSFEEDRESISTANCE	QUANT	0	Positive Feedback Resistance (ohm)
ACHSELECT	IQUANT	0	Ach Select
CABLEID	IQUANT	14	Cable ID
DCCALDATE	LABEL	6/26/2020	DC Calibration Date
ACCALDATE	LABEL	6/26/2020	AC Calibration Date
THERMOSELECT	IQUANT	1	Thermo Select
FRAMEWORKVERSION	QUANT	6.33	Framework Version
INSTRUMENTVERSION	LABEL	3.50	Instrument Version
ZCURVE	TABLE
	Pt	Time	Freq	Zreal	Zimag	Zsig	Zmod	Zphz	Idc	Vdc	IERange
	#	s	Hz	ohm	ohm	V	ohm	°	A	V	#
	0	1	1000078	1688.081	-1628.447	1	2345.519	-43.96987	1.111431E-007	0.1809045	8
	1	1	794390.6	2029.531	-1683.053	1	2636.6	-39.66829	1.590694E-007	0.1805855	8
	2	2	630984.4	2371.708	-1677.302	1	2904.882	-35.26843	-8.913539E-009	0.1803948	8
	3	2	501234.4	2701.003	-1620.94	1	3150.058	-30.96902	4.435815E-008	0.1803132	8
	4	2	398109.4	2999.308	-1517.255	1	3361.236	-26.8334	2.547432E-008	0.1802287	8
	5	3	316265.6	3256.128	-1388.758	1	3539.918	-23.09853	-1.400991E-008	0.1801961	8
	6	3	251203.1	3462.366	-1249.742	1	3681.01	-19.84706	3.886601E-008	0.1801984	8
	7	3	199546.9	3630.659	-1113.006	1	3797.429	-17.04332	6.663554E-008	0.180191	8
	8	3	158578.1	3767.175	-986.95	1	3894.313	-14.68079	5.759806E-008	0.1801586	8
	9	4	125953.1	3913.452	-815.4026	1	3997.498	-11.76969	-2.567402E-008	0.180195	7
	10	4	100078.1	3998.917	-728.8049	1	4064.787	-10.32883	-2.109741E-008	0.1801775	7
	11	4	79453.13	4063.824	-665.0151	1	4117.876	-9.293662	1.231342E-008	0.1801275	7
	12	5	63140.62	4120.788	-618.3602	1	4166.925	-8.534056	-3.001168E-009	0.1801628	7
	13	5	50203.12	4173.677	-587.2517	1	4214.789	-8.00915	8.40664E-009	0.1801428	7
	14	5	39890.62	4223.673	-571.0392	1	4262.1	-7.699683	1.371517E-008	0.1801316	7
	15	6	31640.63	4272.813	-569.5839	1	4310.609	-7.593003	-5.078049E-009	0.1801318	7
	16	6	25171.88	4321.993	-581.9172	1	4360.992	-7.668242	-1.158831E-008	0.1801399	7
	17	6	20015.62	4372.638	-607.3801	1	4414.62	-7.908053	6.953328E-009	0.1801487	7
	18	7	15890.62	4425.994	-648.5535	1	4473.258	-8.336386	-8.814483E-009	0.1801548	7
	19	7	12609.37	4482.868	-706.0199	1	4538.124	-8.950162	1.262127E-008	0.1801349	7
	20	7	10078.13	4541.5	-776.953	1	4607.48	-9.70809	-9.205145E-009	0.1801555	7
	21	8	8015.625	4606.498	-869.0958	1	4687.766	-10.68426	1.240718E-008	0.1801343	7
	22	8	6328.125	4677.862	-988.111	1	4781.083	-11.92734	1.184771E-008	0.1801325	7
	23	8	5015.625	4754.677	-1132.475	1	4887.684	-13.39717	1.18493E-008	0.1801293	7
	24	9	3984.375	4836.959	-1308.432	1	5010.805	-15.13666	1.448558E-008	0.1801243	7
	25	9	3170.956	4926.855	-1523.187	1	5156.938	-17.17953	1.573106E-008	0.1801201	7
	26	9	2527.573	5024.426	-1782.853	1	5331.362	-19.53658	1.04444E-008	0.1801358	7
	27	9	1976.103	5143.98	-2131.77	1	5568.211	-22.51011	-3.096497E-009	0.1801469	7
	28	10	1577.524	5267.22	-2527.335	1	5842.177	-25.63278	1.434024E-008	0.1801086	7
	29	10	1265.625	5405.404	-2995.48	1	6179.911	-28.99364	-1.823138E-008	0.18014	7
	30	10	998.264	5577.666	-3613.415	1	6645.834	-32.93663	2.371645E-009	0.1801363	7
	31	11	796.875	5769.651	-4337.611	1	7218.292	-36.93576	2.636421E-009	0.1801131	7
	32	11	627.7902	6015.062	-5274.79	1	8000.274	-41.2485	8.326632E-009	0.1801121	7
	33	11	505.5147	6279.373	-6305.562	1	8898.912	-45.11923	1.327084E-008	0.1801259	7
	34	12	397.9953	6642.724	-7695.184	1	10165.71	-49.19821	2.541319E-010	0.1801481	6
	35	12	315.5048	7069.437	-9351.753	1	11723.15	-52.91262	2.630668E-010	0.1801472	6
	36	12	252.4038	7574.145	-11284.24	1	13590.5	-56.12992	1.600445E-010	0.1801448	6
	37	13	198.6229	8246.167	-13807.51	1	16082.49	-59.15336	2.256788E-010	0.1801439	6
	38	13	158.3615	9035.851	-16705.92	1	18993.01	-61.59206	2.202151E-010	0.180136	6
	39	13	125.558	10041.82	-20299.22	1	22647.22	-63.67886	4.676873E-011	0.1801449	6
	40	14	100.4464	11238.28	-24465.49	1	26923.21	-65.32821	1.313984E-010	0.1801409	6
	41	14	79.00281	12846.32	-29885.27	1	32529.32	-66.73933	-2.27536E-011	0.1801394	6
	42	14	63.3446	14678.14	-35893.85	1	38779.07	-67.75878	-1.632402E-010	0.1801368	6
	43	15	49.86702	17165.26	-43738.28	1	46985.99	-68.57228	-8.487548E-011	0.1801343	6
	44	15	39.72458	20115.54	-52710.75	1	56418.59	-69.11208	1.776465E-010	0.1801415	6
	45	15	31.6723	23772.84	-63407.44	1	67717.44	-69.44788	2.289366E-010	0.1801375	6
	46	16	24.93351	28635.87	-76984.66	1	82137.99	-69.59638	-2.061645E-010	0.1801398	6
	47	16	19.86229	34435.7	-92420.61	1	98627.5	-69.56473	7.566731E-011	0.1801371	6
	48	16	15.83615	41706.16	-110617.7	1	118218.7	-69.34206	-9.978694E-011	0.1801253	5
	49	17	12.40079	51671.51	-134131.2	1	143739.7	-68.93176	-8.119504E-010	0.1801338	5
	50	17	9.93114	63001.95	-159168.4	1	171183.6	-68.40538	-7.764547E-010	0.1801247	5
	51	17	7.944915	77162.98	-188640.5	1	203812	-67.75309	-2.303658E-011	0.1801296	5
	52	18	6.317385	95199.7	-223635.3	1	243055	-66.94094	-4.039229E-012	0.1801263	5
	53	18	5.008013	118099.6	-264924.9	1	290056.4	-65.9734	-2.114285E-010	0.1801171	5
	54	19	3.945707	147490.1	-313774.3	1	346709.8	-64.82406	-1.194526E-010	0.1801198	5
	55	20	3.158693	180693.4	-365276.8	1	407525.8	-63.67953	-1.45079E-010	0.1801091	5
	56	21	2.504006	223348.2	-425568.8	1	480617.5	-62.30849	1.502766E-010	0.1801127	5
	57	23	1.998082	271265.7	-490221.8	1	560270	-61.04192	8.698875E-011	0.1801174	5
	58	24	1.584686	331777.8	-564386.6	1	654682.2	-59.55062	-2.897109E-011	0.1800718	5
	59	26	1.266892	397603.2	-644731.9	1	757474.4	-58.33805	-4.020733E-011	0.1800722	5
	60	29	0.999041	476827.6	-737854.9	1	878518.3	-57.12804	-5.631963E-011	0.1800822	5
