EXPLAIN
TAG	EISPOT
TITLE	LABEL	Potentiostatic EIS	Test &Identifier
DATE	LABEL	6/19/2020	Date
TIME	LABEL	16:52:37	Time
NOTES	NOTES	1	&Notes...
	
PSTAT	PSTAT	REF600-10037	Potentiostat
VDC	POTEN	0.00000E+000	T	DC &Voltage (V)
FREQINIT	QUANT	1.00000E+006	Initial Fre&q. (Hz)
FREQFINAL	QUANT	1.00000E+000	Final Fre&q. (Hz)
PTSPERDEC	QUANT	1.00000E+001	Points/&decade
VAC	QUANT	1.00000E+002	AC &Voltage (mV rms)
AREA	QUANT	2.50000E-001	&Area (cm^2)
CONDIT	TWOPARAM	F	5.00000E+000	0.00000E+000	Conditionin&g	Time(s)	E(V)
DELAY	TWOPARAM	F	5.00000E+000	0.00000E+000	Init. De&lay	Time(s)	Stab.(mV/s)
SPEED	SELECTOR	0	&Optimize for:
ZGUESS	QUANT	1.00000E+003	E&stimated Z (ohms)
OCVCURVE	TABLE	39
	Pt	T	Vf	Vm	Ach	Over
	#	s	V vs. Ref.	V	V	bits
	0	0.258333	6.33508E-002	6.33508E-002	5.18188E-004	...........
	1	0.516667	6.33513E-002	6.33733E-002	5.16821E-004	...........
	2	0.775	6.33544E-002	6.34178E-002	5.15821E-004	...........
	3	1.03333	6.33642E-002	6.34412E-002	5.12088E-004	...........
	4	1.29167	6.33830E-002	6.34658E-002	5.16588E-004	...........
	5	1.55	6.34087E-002	6.35016E-002	5.17988E-004	...........
	6	1.80833	6.34373E-002	6.35253E-002	5.20254E-004	...........
	7	2.06667	6.34667E-002	6.35595E-002	5.16288E-004	...........
	8	2.325	6.34962E-002	6.35905E-002	5.15821E-004	...........
	9	2.58333	6.35261E-002	6.36143E-002	5.17321E-004	...........
	10	2.84167	6.35560E-002	6.36487E-002	5.16321E-004	...........
	11	3.1	6.35855E-002	6.36641E-002	5.16388E-004	...........
	12	3.35833	6.36137E-002	6.36875E-002	5.15988E-004	...........
	13	3.61667	6.36399E-002	6.37179E-002	5.16954E-004	...........
	14	3.875	6.36648E-002	6.37510E-002	5.18688E-004	...........
	15	4.13333	6.36902E-002	6.37700E-002	5.17954E-004	...........
	16	4.39167	6.37169E-002	6.38065E-002	5.18421E-004	...........
	17	4.65	6.37444E-002	6.38246E-002	5.15588E-004	...........
	18	4.90833	6.37718E-002	6.38475E-002	5.15221E-004	...........
	19	5.16667	6.37983E-002	6.38788E-002	5.13621E-004	...........
	20	5.425	6.38238E-002	6.39021E-002	5.16721E-004	...........
	21	5.68333	6.38490E-002	6.39213E-002	5.17454E-004	...........
	22	5.94167	6.38737E-002	6.39359E-002	5.12521E-004	...........
	23	6.2	6.38970E-002	6.39700E-002	5.14354E-004	...........
	24	6.45833	6.39190E-002	6.39845E-002	5.11454E-004	...........
	25	6.71667	6.39408E-002	6.40085E-002	5.19554E-004	...........
	26	6.975	6.39628E-002	6.40336E-002	5.16988E-004	...........
	27	7.23333	6.39852E-002	6.40613E-002	5.19521E-004	...........
	28	7.49167	6.40084E-002	6.40824E-002	5.20954E-004	...........
	29	7.75	6.40324E-002	6.41014E-002	5.18421E-004	...........
	30	8.00833	6.40563E-002	6.41269E-002	5.19388E-004	...........
	31	8.26667	6.40793E-002	6.41433E-002	5.19821E-004	...........
	32	8.525	6.41013E-002	6.41640E-002	5.18954E-004	...........
	33	8.78333	6.41224E-002	6.41880E-002	5.16021E-004	...........
	34	9.04167	6.41433E-002	6.42153E-002	5.20821E-004	...........
	35	9.3	6.41648E-002	6.42315E-002	5.11388E-004	...........
	36	9.5583	6.41869E-002	6.42458E-002	5.14721E-004	...........
	37	9.8167	6.42084E-002	6.42710E-002	5.18254E-004	...........
	38	10.075	6.42288E-002	6.42931E-002	5.17121E-004	...........
EOC	QUANT	0.0642288	Open Circuit (V)
PSTATMODEL	IQUANT	4	Pstat Model
PSTATSECTION	LABEL	REF600-10037	Pstat Section
PSTATSERIALNO	LABEL	10037	Pstat Serial Number
CTRLMODE	IQUANT	1	Control Mode
IESTAB	IQUANT	0	I/E Stability
CASPEED	IQUANT	1	Control Amp Speed
CONVENTION	IQUANT	1	Current Convention
ICHRANGE	IQUANT	2	Ich Range
ICHRANGEMODE	TOGGLE	F	Ich Auto Range
ICHOFFSETENABLE	TOGGLE	T	Ich Offset Enable
ICHOFFSET	QUANT	0	Ich Offset (V)
ICHFILTER	IQUANT	3	Ich Filter
VCHRANGE	IQUANT	2	Vch Range
VCHRANGEMODE	TOGGLE	F	Vch Auto Range
VCHOFFSETENABLE	TOGGLE	T	Vch Offset Enable
VCHOFFSET	QUANT	0	Vch Offset (V)
VCHFILTER	IQUANT	3	Vch Filter
ACHRANGE	IQUANT	2	Ach Range
ACHOFFSETENABLE	TOGGLE	F	Ach Offset Enable
ACHOFFSET	QUANT	0	Ach Offset (V)
ACHFILTER	IQUANT	3	Ach Filter
IERANGELOWERLIMIT	IQUANT	1	I/E Range Lower Limit
IERANGEMODE	TOGGLE	F	I/E AutoRange
IERANGE	IQUANT	8	I/E Range
POSFEEDENABLE	TOGGLE	F	Positive Feedback IR Comp
POSFEEDRESISTANCE	QUANT	0	Positive Feedback Resistance (ohm)
ACHSELECT	IQUANT	0	Ach Select
CABLEID	IQUANT	14	Cable ID
DCCALDATE	LABEL	6/8/2020	DC Calibration Date
ACCALDATE	LABEL	6/8/2020	AC Calibration Date
THERMOSELECT	IQUANT	1	Thermo Select
FRAMEWORKVERSION	QUANT	6.33	Framework Version
INSTRUMENTVERSION	LABEL	3.50	Instrument Version
ZCURVE	TABLE
	Pt	Time	Freq	Zreal	Zimag	Zsig	Zmod	Zphz	Idc	Vdc	IERange
	#	s	Hz	ohm	ohm	V	ohm	°	A	V	#
	0	2	1000078	1736.359	-1259.524	1	2145.074	-35.95647	1.191541E-007	0.0731861	8
	1	3	794390.6	1953.876	-1292.383	1	2342.624	-33.48249	6.754249E-008	0.0729869	8
	2	3	630984.4	2172.392	-1322.664	1	2543.37	-31.33521	7.084513E-008	0.0727384	8
	3	3	501234.4	2389.363	-1334.267	1	2736.663	-29.17986	1.154903E-007	0.0726483	8
	4	4	398109.4	2602.92	-1337.314	1	2926.363	-27.19295	1.367253E-007	0.0725563	8
	5	5	316265.6	2798.381	-1349.937	1	3106.97	-25.75262	1.184613E-006	0.0724975	9
	6	6	251203.1	2993.318	-1336.273	1	3278.045	-24.05687	4.34699E-008	0.0725931	8
	7	6	199546.9	3185.001	-1333.367	1	3452.84	-22.71611	9.712547E-008	0.072692	8
	8	6	158578.1	3362.738	-1312.912	1	3609.95	-21.32715	1.014359E-007	0.0727626	8
	9	7	125953.1	3563.657	-1336.469	1	3806.021	-20.55742	1.106072E-007	0.0727535	8
	10	7	100078.1	3749.72	-1338.893	1	3981.587	-19.64986	1.345737E-007	0.0726849	8
	11	7	79453.13	3934.796	-1360.689	1	4163.423	-19.07586	1.025406E-007	0.0726515	8
	12	7	63140.62	4171.191	-1356.422	1	4386.196	-18.01391	5.645405E-008	0.0726155	7
	13	8	50203.12	4348.529	-1398.088	1	4567.752	-17.82303	9.302736E-009	0.0726332	7
	14	8	39890.62	4525.127	-1435.216	1	4747.275	-17.59725	-9.735794E-009	0.0726529	7
	15	8	31640.63	4719.083	-1491.325	1	4949.121	-17.53758	1.369392E-008	0.0726278	7
	16	9	25171.88	4924.82	-1560.139	1	5166.032	-17.57774	1.226873E-008	0.0726218	7
	17	9	20015.62	5127.191	-1628.07	1	5379.471	-17.61654	1.676005E-008	0.0726349	7
	18	9	15890.62	5344.276	-1707.642	1	5610.466	-17.7201	-5.594796E-010	0.0726553	7
	19	10	12609.37	5573.79	-1799.112	1	5856.956	-17.88908	1.379874E-008	0.0726449	7
	20	10	10078.13	5811.659	-1900.594	1	6114.543	-18.10936	1.843211E-008	0.0726261	7
	21	10	8015.625	6059.296	-2009.825	1	6383.922	-18.35032	-4.828821E-009	0.0726563	7
	22	11	6328.125	6320.388	-2134.921	1	6671.221	-18.6641	7.385299E-009	0.0726453	7
	23	11	5015.625	6583.638	-2275.688	1	6965.849	-19.06813	3.898883E-009	0.0726468	7
	24	11	3984.375	6849.049	-2438.226	1	7270.104	-19.59547	6.813189E-010	0.0726532	7
	25	12	3170.956	7114.333	-2629.978	1	7584.888	-20.288	7.030584E-009	0.072647	7
	26	12	2527.573	7402.147	-2875.273	1	7940.969	-21.22805	-4.281895E-009	0.0726358	7
	27	12	1976.103	7671.823	-3172.357	1	8301.85	-22.46546	6.416435E-009	0.0726325	7
	28	13	1577.524	7926.647	-3519.846	1	8673.008	-23.94373	1.555674E-008	0.0726281	7
	29	13	1265.625	8177.68	-3932.791	1	9074.21	-25.68373	6.166422E-009	0.0726468	7
	30	13	998.264	8443.732	-4496.9	1	9566.54	-28.03854	2.620066E-009	0.0726535	7
	31	14	796.875	8706.977	-5180.772	1	10131.72	-30.75323	1.80331E-009	0.07263	7
	32	14	627.7902	8998.863	-6076.71	1	10858.45	-34.03019	9.343191E-009	0.0726404	7
	33	14	505.5147	9279.271	-7071.621	1	11666.73	-37.31059	-1.657987E-010	0.0726628	7
	34	14	397.9953	9626.96	-8462.679	1	12817.77	-41.31744	5.123924E-009	0.0726629	7
	35	15	315.5048	10027.36	-10152.03	1	14269.25	-45.35398	7.35022E-009	0.0726532	7
	36	15	252.4038	10475.75	-12112.11	1	16013.89	-49.1435	3.639995E-009	0.0726589	7
	37	15	198.6229	11070.92	-14732.5	1	18428.56	-53.07651	4.708494E-009	0.0726633	7
	38	16	158.3615	11780.27	-17784.62	1	21332.31	-56.4801	5.493745E-009	0.0726589	7
	39	16	125.558	12701.31	-21621.44	1	25076.09	-59.56831	5.17778E-009	0.0726615	7
	40	16	100.4464	13836.4	-26133.96	1	29570.75	-62.10141	6.33487E-009	0.072658	7
	41	17	79.00281	15395.13	-32063.81	1	35568.21	-64.35245	6.65917E-009	0.0726542	7
	42	17	63.3446	17265.31	-38699.49	1	42376.19	-65.95653	-1.366557E-010	0.0726542	6
	43	17	49.86702	19893.12	-47421.68	1	51425.21	-67.24223	9.176573E-010	0.0726539	6
	44	18	39.72458	23198.08	-57466.2	1	61971.89	-68.01695	4.038182E-011	0.0726601	6
	45	18	31.6723	27526.8	-69147.21	1	74424.87	-68.29301	-2.808321E-010	0.0726433	6
	46	18	24.93351	33563.06	-84546.09	1	90964.39	-68.34794	1.509144E-009	0.0726618	6
	47	19	19.86229	41403.41	-101877.2	1	109969.1	-67.88293	-6.311358E-009	0.0640846	6
	48	19	15.83615	51428.15	-121684.6	1	132106	-67.08939	-5.272168E-009	0.0640804	6
	49	20	12.40079	65109.57	-145933.7	1	159799.5	-65.95554	-4.459306E-009	0.0640861	6
	50	20	9.93114	81031.45	-170913.1	1	189149.1	-64.63394	-3.874341E-009	0.064083	6
	51	20	7.944915	100720.8	-198607.1	1	222686.9	-63.1088	-3.621509E-009	0.0640808	6
	52	21	6.317385	124912.8	-229333.9	1	261146	-61.4239	-2.260308E-009	0.0640837	6
	53	22	5.008013	153566.8	-263193.8	1	304719.2	-59.73754	-1.714363E-009	0.064088	6
	54	23	3.945707	186922.6	-300655.1	1	354024.8	-58.13005	-1.258384E-009	0.0640879	6
	55	24	3.158693	220808.2	-338248.5	1	403941	-56.86355	-1.227845E-009	0.0640933	5
	56	25	2.504006	260365.8	-382485.3	1	462693.6	-55.75605	-9.857761E-010	0.064093	5
	57	27	1.998082	299703.6	-430532.2	1	524576.2	-55.15731	-7.605463E-010	0.064091	5
	58	29	1.584686	343303.7	-489000.3	1	597477	-54.92915	-5.468109E-010	0.0640934	5
	59	31	1.266892	388324.2	-555703.9	1	677939.9	-55.05427	-4.045217E-010	0.0640885	5
	60	35	0.999041	440475.9	-640909.9	1	777678.9	-55.50056	-4.1276E-010	0.0640909	5
