EXPLAIN
TAG	EISPOT
TITLE	LABEL	Potentiostatic EIS	Test &Identifier
DATE	LABEL	6/26/2020	Date
TIME	LABEL	12:58:52	Time
NOTES	NOTES	1	&Notes...
	
PSTAT	PSTAT	REF600-11020	Potentiostat
VDC	POTEN	0.00000E+000	T	DC &Voltage (V)
FREQINIT	QUANT	1.00000E+006	Initial Fre&q. (Hz)
FREQFINAL	QUANT	1.00000E+000	Final Fre&q. (Hz)
PTSPERDEC	QUANT	1.00000E+001	Points/&decade
VAC	QUANT	2.50000E+001	AC &Voltage (mV rms)
AREA	QUANT	4.00000E-004	&Area (cm^2)
CONDIT	TWOPARAM	F	5.00000E+000	0.00000E+000	Conditionin&g	Time(s)	E(V)
DELAY	TWOPARAM	F	3.00000E+000	0.00000E+000	Init. De&lay	Time(s)	Stab.(mV/s)
SPEED	SELECTOR	0	&Optimize for:
ZGUESS	QUANT	1.00000E+003	E&stimated Z (ohms)
OCVCURVE	TABLE	39
	Pt	T	Vf	Vm	Ach	Over
	#	s	V vs. Ref.	V	V	bits
	0	0.258333	1.25602E-001	1.25602E-001	5.05784E-004	...........
	1	0.516667	1.25602E-001	1.25598E-001	5.13750E-004	...........
	2	0.775	1.25601E-001	1.25591E-001	5.16350E-004	...........
	3	1.03333	1.25600E-001	1.25585E-001	5.15783E-004	...........
	4	1.29167	1.25596E-001	1.25579E-001	5.12217E-004	...........
	5	1.55	1.25591E-001	1.25576E-001	5.13617E-004	...........
	6	1.80833	1.25586E-001	1.25565E-001	5.10317E-004	...........
	7	2.06667	1.25580E-001	1.25562E-001	5.11350E-004	...........
	8	2.325	1.25574E-001	1.25555E-001	5.08250E-004	...........
	9	2.58333	1.25568E-001	1.25553E-001	5.07883E-004	...........
	10	2.84167	1.25562E-001	1.25549E-001	5.10484E-004	...........
	11	3.1	1.25557E-001	1.25542E-001	5.08984E-004	...........
	12	3.35833	1.25552E-001	1.25536E-001	5.11884E-004	...........
	13	3.61667	1.25548E-001	1.25531E-001	5.07050E-004	...........
	14	3.875	1.25542E-001	1.25525E-001	5.08784E-004	...........
	15	4.13333	1.25537E-001	1.25517E-001	5.02384E-004	...........
	16	4.39167	1.25531E-001	1.25513E-001	5.02550E-004	...........
	17	4.65	1.25525E-001	1.25509E-001	5.05784E-004	...........
	18	4.90833	1.25519E-001	1.25503E-001	5.04250E-004	...........
	19	5.16667	1.25514E-001	1.25500E-001	5.02784E-004	...........
	20	5.425	1.25509E-001	1.25493E-001	5.06750E-004	...........
	21	5.68333	1.25504E-001	1.25488E-001	5.06650E-004	...........
	22	5.94167	1.25499E-001	1.25483E-001	5.08317E-004	...........
	23	6.2	1.25494E-001	1.25478E-001	5.09850E-004	...........
	24	6.45833	1.25489E-001	1.25473E-001	5.05850E-004	...........
	25	6.71667	1.25483E-001	1.25468E-001	5.03684E-004	...........
	26	6.975	1.25478E-001	1.25463E-001	4.98684E-004	...........
	27	7.23333	1.25473E-001	1.25457E-001	5.03650E-004	...........
	28	7.49167	1.25468E-001	1.25455E-001	5.04717E-004	...........
	29	7.75	1.25463E-001	1.25450E-001	5.01584E-004	...........
	30	8.00833	1.25459E-001	1.25444E-001	4.98784E-004	...........
	31	8.26667	1.25454E-001	1.25440E-001	5.02017E-004	...........
	32	8.525	1.25450E-001	1.25440E-001	4.97950E-004	...........
	33	8.78333	1.25445E-001	1.25432E-001	5.05050E-004	...........
	34	9.04167	1.25441E-001	1.25424E-001	4.97217E-004	...........
	35	9.3	1.25437E-001	1.25418E-001	5.05617E-004	...........
	36	9.5583	1.25431E-001	1.25415E-001	5.10350E-004	...........
	37	9.8167	1.25426E-001	1.25413E-001	5.09984E-004	...........
	38	10.075	1.25420E-001	1.25417E-001	5.11784E-004	...........
EOC	QUANT	0.1254205	Open Circuit (V)
PSTATMODEL	IQUANT	4	Pstat Model
PSTATSECTION	LABEL	REF600-11020	Pstat Section
PSTATSERIALNO	LABEL	11020	Pstat Serial Number
CTRLMODE	IQUANT	1	Control Mode
IESTAB	IQUANT	0	I/E Stability
CASPEED	IQUANT	1	Control Amp Speed
CONVENTION	IQUANT	1	Current Convention
ICHRANGE	IQUANT	2	Ich Range
ICHRANGEMODE	TOGGLE	F	Ich Auto Range
ICHOFFSETENABLE	TOGGLE	T	Ich Offset Enable
ICHOFFSET	QUANT	0	Ich Offset (V)
ICHFILTER	IQUANT	3	Ich Filter
VCHRANGE	IQUANT	2	Vch Range
VCHRANGEMODE	TOGGLE	F	Vch Auto Range
VCHOFFSETENABLE	TOGGLE	T	Vch Offset Enable
VCHOFFSET	QUANT	0	Vch Offset (V)
VCHFILTER	IQUANT	3	Vch Filter
ACHRANGE	IQUANT	2	Ach Range
ACHOFFSETENABLE	TOGGLE	F	Ach Offset Enable
ACHOFFSET	QUANT	0	Ach Offset (V)
ACHFILTER	IQUANT	3	Ach Filter
IERANGELOWERLIMIT	IQUANT	1	I/E Range Lower Limit
IERANGEMODE	TOGGLE	F	I/E AutoRange
IERANGE	IQUANT	8	I/E Range
POSFEEDENABLE	TOGGLE	F	Positive Feedback IR Comp
POSFEEDRESISTANCE	QUANT	0	Positive Feedback Resistance (ohm)
ACHSELECT	IQUANT	0	Ach Select
CABLEID	IQUANT	14	Cable ID
DCCALDATE	LABEL	6/26/2020	DC Calibration Date
ACCALDATE	LABEL	6/26/2020	AC Calibration Date
THERMOSELECT	IQUANT	1	Thermo Select
FRAMEWORKVERSION	QUANT	6.33	Framework Version
INSTRUMENTVERSION	LABEL	3.50	Instrument Version
ZCURVE	TABLE
	Pt	Time	Freq	Zreal	Zimag	Zsig	Zmod	Zphz	Idc	Vdc	IERange
	#	s	Hz	ohm	ohm	V	ohm	°	A	V	#
	0	1	1000078	2084.718	-1860.055	1	2793.896	-41.74041	-1.127295E-008	0.127912	8
	1	1	794390.6	2469.659	-1890.817	1	3110.37	-37.43834	1.981085E-007	0.1275275	8
	2	1	630984.4	2851.975	-1855.67	1	3402.539	-33.0505	1.621362E-007	0.1274267	8
	3	2	501234.4	3206.133	-1763.165	1	3658.967	-28.80794	1.403292E-007	0.1272818	8
	4	2	398109.4	3518.203	-1635.464	1	3879.755	-24.93173	-2.818566E-008	0.1272469	8
	5	2	316265.6	3778.27	-1480.462	1	4057.966	-21.39703	2.693626E-007	0.1271914	8
	6	3	251203.1	3989.64	-1324.617	1	4203.789	-18.36689	6.731852E-008	0.1272045	8
	7	3	199546.9	4156.991	-1177.931	1	4320.659	-15.82069	1.537861E-007	0.1271842	8
	8	3	158578.1	4290.766	-1047.385	1	4416.75	-13.71776	-4.051736E-008	0.127226	8
	9	4	125953.1	4427.5	-888.1055	1	4515.693	-11.34235	5.217745E-008	0.1272202	7
	10	4	100078.1	4516.772	-804.4002	1	4587.842	-10.09804	-1.094288E-008	0.1272165	7
	11	4	79453.13	4587.242	-745.8104	1	4647.475	-9.234554	-1.732659E-008	0.127169	7
	12	5	63140.62	4650.588	-706.8036	1	4703.992	-8.641768	2.665754E-008	0.1271224	7
	13	5	50203.12	4709.974	-686.0258	1	4759.672	-8.287076	1.911745E-008	0.127125	7
	14	5	39890.62	4768	-682.5851	1	4816.612	-8.147086	-3.477896E-008	0.1271924	7
	15	5	31640.63	4827.527	-697.1284	1	4877.602	-8.217105	1.855801E-008	0.127122	7
	16	6	25171.88	4888.09	-727.6104	1	4941.947	-8.466523	-2.852186E-008	0.127212	7
	17	6	20015.62	4951.863	-776.4481	1	5012.367	-8.911372	-4.617021E-009	0.1271387	7
	18	6	15890.62	5020.792	-843.4097	1	5091.139	-9.53571	-3.428826E-008	0.127187	7
	19	7	12609.37	5095.366	-931.566	1	5179.824	-10.36074	-2.183655E-008	0.1272133	7
	20	7	10078.13	5174.832	-1040.012	1	5278.306	-11.36363	-3.321782E-008	0.1271833	7
	21	7	8015.625	5263.989	-1176.065	1	5393.766	-12.59403	2.66435E-008	0.1271526	7
	22	8	6328.125	5366.39	-1348.275	1	5533.171	-14.10333	-2.306643E-008	0.1271714	7
	23	8	5015.625	5478.724	-1553.87	1	5694.816	-15.83434	8.442572E-009	0.1271717	7
	24	8	3984.375	5605.031	-1800.655	1	5887.167	-17.80997	1.459812E-008	0.1271623	7
	25	9	3170.956	5746.761	-2096.083	1	6117.093	-20.03902	-2.659189E-008	0.1271803	7
	26	9	2527.573	5905.71	-2448.069	1	6393	-22.51527	6.511958E-009	0.1271275	7
	27	9	1976.103	6103.942	-2908.645	1	6761.533	-25.47869	2.06509E-008	0.1271176	7
	28	10	1577.524	6313.131	-3416.85	1	7178.474	-28.42354	-1.252865E-009	0.1271364	7
	29	10	1265.625	6546.394	-4008.6	1	7676.207	-31.48068	1.815166E-008	0.1271528	7
	30	10	998.264	6834.159	-4778.123	1	8338.836	-34.95944	2.302152E-008	0.1271432	7
	31	11	796.875	7146.981	-5656.104	1	9114.321	-38.35801	-6.773454E-009	0.1271779	7
	32	11	627.7902	7538.93	-6790.098	1	10145.98	-42.00846	3.571659E-009	0.127106	6
	33	11	505.5147	7946.055	-8034.189	1	11299.91	-45.31599	1.846565E-009	0.1271483	6
	34	11	397.9953	8467.246	-9702.23	1	12877.4	-48.88842	4.235605E-010	0.1271722	6
	35	12	315.5048	9081.429	-11680.57	1	14795.54	-52.13558	4.330448E-010	0.127174	6
	36	12	252.4038	9793.8	-13984.73	1	17073.11	-54.99566	2.780323E-010	0.1271733	6
	37	12	198.6229	10734.74	-16990.32	1	20097.41	-57.71469	3.735565E-010	0.127171	6
	38	13	158.3615	11839.82	-20436.98	1	23618.88	-59.91486	3.414531E-010	0.1271658	6
	39	13	125.558	13254.67	-24697.28	1	28029.31	-61.77819	4.008273E-010	0.1271678	6
	40	13	100.4464	14962.17	-29608.38	1	33174.12	-63.19091	2.401175E-010	0.1271666	6
	41	14	79.00281	17288.19	-35958.03	1	39898.13	-64.32231	2.778058E-010	0.1271641	6
	42	14	63.3446	19980.64	-42944.57	1	47365.2	-65.04905	2.999366E-010	0.1271601	6
	43	14	49.86702	23691.84	-51922.49	1	57072.31	-65.47314	3.81734E-011	0.1271627	6
	44	15	39.72458	28213.72	-62046.23	1	68159.73	-65.54771	1.676847E-010	0.1271667	6
	45	15	31.6723	33910.14	-73862.14	1	81274.31	-65.34012	-8.149691E-012	0.1271646	6
	46	15	24.93351	41637.36	-88423.48	1	97736.3	-64.78492	3.038347E-010	0.1271641	6
	47	16	19.86229	50936.99	-104286.7	1	116061.6	-63.96762	-3.284669E-010	0.1271653	5
	48	16	15.83615	62630.43	-122111.5	1	137236.2	-62.84691	1.056819E-009	0.1271592	5
	49	16	12.40079	78166.96	-143581.5	1	163480	-61.43576	1.555429E-009	0.1271535	5
	50	17	9.93114	94694.72	-164680.4	1	189965.1	-60.10019	1.427143E-009	0.1271613	5
	51	17	7.944915	114301.4	-188236.9	1	220222.5	-58.733	-2.368883E-010	0.1271672	5
	52	17	6.317385	137032.7	-214135	1	254227.8	-57.38335	6.144992E-010	0.1271448	5
	53	18	5.008013	163127.6	-243047.5	1	292716.1	-56.13144	3.368383E-010	0.1271593	5
	54	19	3.945707	191770.8	-275961.6	1	336051.9	-55.20385	-1.651784E-010	0.1271562	5
	55	20	3.158693	221238.5	-310264.9	1	381065.3	-54.50873	2.049342E-010	0.1271551	5
	56	21	2.504006	253695.9	-351905.6	1	433819.3	-54.2114	2.592313E-010	0.1271476	5
	57	22	1.998082	287945.1	-398375.8	1	491544.2	-54.14069	-4.420136E-013	0.1271048	5
	58	24	1.584686	325679.8	-456999.7	1	561173.8	-54.52451	-7.353883E-012	0.127104	5
	59	26	1.266892	365496.9	-522659.8	1	637778.4	-55.03484	5.453762E-011	0.1271375	5
	60	28	0.999041	414381.3	-606241.3	1	734329.9	-55.6464	8.919356E-011	0.1271512	5
