EXPLAIN
TAG	EISPOT
TITLE	LABEL	Potentiostatic EIS	Test &Identifier
DATE	LABEL	2/13/2020	Date
TIME	LABEL	13:39:36	Time
NOTES	NOTES	1	&Notes...
	
PSTAT	PSTAT	REF600-11020	Potentiostat
VDC	POTEN	0.00000E+000	T	DC &Voltage (V)
FREQINIT	QUANT	1.00000E+006	Initial Fre&q. (Hz)
FREQFINAL	QUANT	1.00000E+000	Final Fre&q. (Hz)
PTSPERDEC	QUANT	1.00000E+001	Points/&decade
VAC	QUANT	2.50000E+001	AC &Voltage (mV rms)
AREA	QUANT	5.00000E-004	&Area (cm^2)
CONDIT	TWOPARAM	F	1.50000E+001	0.00000E+000	Conditionin&g	Time(s)	E(V)
DELAY	TWOPARAM	F	1.00000E+002	0.00000E+000	Init. De&lay	Time(s)	Stab.(mV/s)
SPEED	SELECTOR	0	&Optimize for:
ZGUESS	QUANT	1.00000E+003	E&stimated Z (ohms)
OCVCURVE	TABLE	39
	Pt	T	Vf	Vm	Ach	Over
	#	s	V vs. Ref.	V	V	bits
	0	0.258333	6.35440E-002	6.35440E-002	5.02539E-004	...........
	1	0.516667	6.35452E-002	6.36035E-002	4.97039E-004	...........
	2	0.775	6.35497E-002	6.35294E-002	4.96472E-004	...........
	3	1.03333	6.35590E-002	6.37180E-002	4.97072E-004	...........
	4	1.29167	6.35754E-002	6.35834E-002	4.96705E-004	...........
	5	1.55	6.35998E-002	6.37683E-002	4.96039E-004	...........
	6	1.80833	6.36280E-002	6.35793E-002	5.02005E-004	...........
	7	2.06667	6.36531E-002	6.38290E-002	5.05805E-004	...........
	8	2.325	6.36744E-002	6.36621E-002	5.06639E-004	...........
	9	2.58333	6.36963E-002	6.38444E-002	4.89272E-004	...........
	10	2.84167	6.37176E-002	6.35844E-002	4.85939E-004	...........
	11	3.1	6.37305E-002	6.38718E-002	4.95439E-004	...........
	12	3.35833	6.37332E-002	6.36079E-002	4.97339E-004	...........
	13	3.61667	6.37313E-002	6.37981E-002	4.92105E-004	...........
	14	3.875	6.37265E-002	6.35951E-002	4.94072E-004	...........
	15	4.13333	6.37180E-002	6.38107E-002	5.04772E-004	...........
	16	4.39167	6.37094E-002	6.36135E-002	4.95739E-004	...........
	17	4.65	6.37101E-002	6.40481E-002	4.93205E-004	...........
	18	4.90833	6.37462E-002	6.44642E-002	4.96772E-004	...........
	19	5.16667	6.38633E-002	6.47313E-002	4.97539E-004	...........
	20	5.425	6.40770E-002	6.47216E-002	4.95172E-004	...........
	21	5.68333	6.43311E-002	6.46901E-002	4.90939E-004	...........
	22	5.94167	6.45420E-002	6.48351E-002	5.02405E-004	...........
	23	6.2	6.46767E-002	6.49414E-002	4.91039E-004	...........
	24	6.45833	6.47510E-002	6.43676E-002	4.89805E-004	...........
	25	6.71667	6.47395E-002	6.31795E-002	4.92005E-004	...........
	26	6.975	6.45331E-002	6.22520E-002	4.98672E-004	...........
	27	7.23333	6.40502E-002	6.19597E-002	4.96072E-004	...........
	28	7.49167	6.33869E-002	6.25746E-002	4.85306E-004	...........
	29	7.75	6.28117E-002	6.34438E-002	4.86806E-004	...........
	30	8.00833	6.25732E-002	6.33520E-002	4.95805E-004	...........
	31	8.26667	6.26882E-002	6.31704E-002	4.98205E-004	...........
	32	8.525	6.29424E-002	6.28999E-002	4.88639E-004	...........
	33	8.78333	6.31094E-002	6.29283E-002	4.88139E-004	...........
	34	9.04167	6.31194E-002	6.27076E-002	4.93839E-004	...........
	35	9.3	6.30193E-002	6.23066E-002	4.92439E-004	...........
	36	9.5583	6.28690E-002	6.28550E-002	4.90239E-004	...........
	37	9.8167	6.27421E-002	6.33330E-002	4.90139E-004	...........
	38	10.075	6.27322E-002	6.31666E-002	4.90572E-004	...........
EOC	QUANT	0.0627322	Open Circuit (V)
PSTATMODEL	IQUANT	4	Pstat Model
PSTATSECTION	LABEL	REF600-11020	Pstat Section
PSTATSERIALNO	LABEL	11020	Pstat Serial Number
CTRLMODE	IQUANT	1	Control Mode
IESTAB	IQUANT	0	I/E Stability
CASPEED	IQUANT	1	Control Amp Speed
CONVENTION	IQUANT	1	Current Convention
ICHRANGE	IQUANT	2	Ich Range
ICHRANGEMODE	TOGGLE	F	Ich Auto Range
ICHOFFSETENABLE	TOGGLE	T	Ich Offset Enable
ICHOFFSET	QUANT	0	Ich Offset (V)
ICHFILTER	IQUANT	3	Ich Filter
VCHRANGE	IQUANT	2	Vch Range
VCHRANGEMODE	TOGGLE	F	Vch Auto Range
VCHOFFSETENABLE	TOGGLE	T	Vch Offset Enable
VCHOFFSET	QUANT	0	Vch Offset (V)
VCHFILTER	IQUANT	3	Vch Filter
ACHRANGE	IQUANT	2	Ach Range
ACHOFFSETENABLE	TOGGLE	F	Ach Offset Enable
ACHOFFSET	QUANT	0	Ach Offset (V)
ACHFILTER	IQUANT	3	Ach Filter
IERANGELOWERLIMIT	IQUANT	1	I/E Range Lower Limit
IERANGEMODE	TOGGLE	F	I/E AutoRange
IERANGE	IQUANT	8	I/E Range
POSFEEDENABLE	TOGGLE	F	Positive Feedback IR Comp
POSFEEDRESISTANCE	QUANT	0	Positive Feedback Resistance (ohm)
ACHSELECT	IQUANT	0	Ach Select
CABLEID	IQUANT	14	Cable ID
DCCALDATE	LABEL	1/27/2020	DC Calibration Date
ACCALDATE	LABEL	1/27/2020	AC Calibration Date
THERMOSELECT	IQUANT	1	Thermo Select
FRAMEWORKVERSION	QUANT	6.33	Framework Version
INSTRUMENTVERSION	LABEL	3.50	Instrument Version
ZCURVE	TABLE
	Pt	Time	Freq	Zreal	Zimag	Zsig	Zmod	Zphz	Idc	Vdc	IERange
	#	s	Hz	ohm	ohm	V	ohm	°	A	V	#
	0	1	1000078	1728.703	-2345.767	1	2913.938	-53.6118	5.607186E-007	0.0649916	8
	1	1	794390.6	2025.139	-2643.295	1	3329.894	-52.54276	9.770473E-007	0.064389	8
	2	1	630984.4	2344.336	-2951.48	1	3769.237	-51.54018	-7.945066E-007	0.0646342	8
	3	2	501234.4	2701.842	-3311.481	1	4273.857	-50.78895	1.42417E-006	0.0641018	8
	4	2	398109.4	3096.435	-3727.787	1	4846.061	-50.28574	-1.881905E-006	0.064695	8
	5	2	316265.6	3491.013	-4164.757	1	5434.37	-50.02935	-1.228385E-006	0.064728	8
	6	3	251203.1	4022.228	-4742.824	1	6218.738	-49.69985	3.986932E-007	0.0642712	8
	7	3	199546.9	4583.572	-5359.28	1	7052.022	-49.46099	8.183E-007	0.0641466	8
	8	4	158578.1	5190.927	-6130.581	1	8033.041	-49.74452	1.415239E-006	0.0640819	8
	9	4	125953.1	6172.608	-6888.123	1	9249.18	-48.13573	4.367613E-007	0.0634577	7
	10	4	100078.1	7140.163	-7768.832	1	10551.62	-47.41456	1.818552E-008	0.0642127	7
	11	5	79453.13	8338.146	-8736.349	1	12076.77	-46.33598	-1.917226E-009	0.064229	7
	12	5	63140.62	9745.13	-9701.01	1	13750.53	-44.87	3.462292E-008	0.0642109	7
	13	5	50203.12	11405.22	-10630.31	1	15591.11	-42.98594	9.673028E-008	0.0641151	7
	14	6	39890.62	13305.23	-11397.67	1	17519.59	-40.58437	5.308059E-008	0.0641549	7
	15	6	31640.63	15404.51	-12036.66	1	19549.43	-38.00308	3.949999E-008	0.0642036	7
	16	6	25171.88	17622.01	-12428.8	1	21564.1	-35.19529	-2.350484E-008	0.0642706	7
	17	7	20015.62	19965.57	-12639.72	1	23630.2	-32.33691	9.495739E-008	0.0641126	7
	18	7	15890.62	22248.99	-12496.47	1	25518.21	-29.32139	-2.408461E-008	0.0642718	7
	19	7	12609.37	24668.99	-12020.68	1	27441.86	-25.97899	9.173663E-009	0.0642386	6
	20	7	10078.13	26640.87	-11523.8	1	29026.44	-23.39142	1.083231E-008	0.0640467	6
	21	8	8015.625	28489.22	-10863.33	1	30490.13	-20.87253	1.040257E-008	0.0640444	6
	22	8	6328.125	30171.45	-10131.53	1	31827.1	-18.56198	-5.761202E-009	0.0643847	6
	23	8	5015.625	31647.31	-9407.4	1	33015.93	-16.55497	9.897191E-009	0.0641613	6
	24	9	3984.375	32937.92	-8715.537	1	34071.5	-14.82108	1.901018E-009	0.0643305	6
	25	9	3170.956	33975.59	-8027.675	1	34911.09	-13.29391	9.766238E-009	0.0641626	6
	26	9	2527.573	34922.16	-7495.654	1	35717.54	-12.1141	-3.482479E-009	0.0642801	6
	27	10	1976.103	35710.17	-7036.888	1	36396.89	-11.14763	7.582837E-009	0.0642358	6
	28	10	1577.524	36319.72	-6696.976	1	36931.98	-10.44739	9.88797E-009	0.0640462	6
	29	10	1265.625	36830.87	-6618.368	1	37420.79	-10.18711	9.273675E-009	0.0641712	6
	30	11	998.264	37318.31	-6695.833	1	37914.25	-10.17205	8.072049E-009	0.0641877	6
	31	11	796.875	37722.18	-7034.604	1	38372.5	-10.56344	-7.710671E-009	0.0642766	6
	32	11	627.7902	38168.64	-7650.007	1	38927.72	-11.33343	9.864291E-009	0.0640801	6
	33	12	505.5147	38581.18	-8471.37	1	39500.27	-12.38406	-1.938686E-009	0.0641679	6
	34	12	397.9953	39070.63	-9768.52	1	40273.29	-14.03743	3.206303E-010	0.0642727	6
	35	12	315.5048	39585.33	-11409.69	1	41196.84	-16.07858	1.579574E-009	0.0642699	6
	36	13	252.4038	40089.74	-13393.95	1	42268.02	-18.47443	3.288738E-009	0.0642622	6
	37	13	198.6229	40801.12	-16078.11	1	43854.73	-21.50744	3.190874E-009	0.0642662	6
	38	13	158.3615	41835.87	-19200.12	1	46031.34	-24.65224	2.14264E-009	0.0642637	6
	39	14	125.558	43235.21	-23120.96	1	49029.2	-28.1366	1.383091E-009	0.0642705	6
	40	14	100.4464	44899.04	-27713.31	1	52763.16	-31.68438	1.369104E-009	0.0642669	6
	41	14	79.00281	47214.02	-33420.87	1	57845.64	-35.29311	1.570616E-009	0.0642582	6
	42	15	63.3446	51066.88	-39333.24	1	64458.75	-37.60454	7.910379E-010	0.064259	6
	43	15	49.86702	54750.36	-47399.05	1	72417.34	-40.88374	1.230899E-009	0.0642583	6
	44	15	39.72458	59125.48	-55908.77	1	81373.3	-43.39825	9.311735E-010	0.0642625	6
	45	16	31.6723	64934.38	-65571.7	1	92282.84	-45.2798	7.782742E-010	0.0642576	6
	46	16	24.93351	72895.9	-77012.07	1	106040.9	-46.57283	5.820228E-010	0.064254	5
	47	16	19.86229	81750.16	-88814.67	1	120711	-47.37174	1.259784E-009	0.0642598	5
	48	17	15.83615	92115.73	-102431.6	1	137759	-48.03526	-1.518312E-010	0.0642541	5
	49	17	12.40079	104681.4	-117580.9	1	157427.6	-48.32154	-1.089965E-009	0.0642618	5
	50	17	9.93114	118210.6	-132842.4	1	177822.5	-48.33553	-3.469353E-010	0.0642643	5
	51	18	7.944915	132367	-150004.9	1	200056.2	-48.57423	6.644507E-010	0.0642557	5
	52	18	6.317385	148164.8	-170938.2	1	226213.8	-49.0821	6.66461E-010	0.0642436	5
	53	19	5.008013	166231.5	-195078.7	1	256297.9	-49.56484	2.451268E-010	0.0642491	5
	54	20	3.945707	186053.8	-224409.8	1	291506.1	-50.33853	2.109665E-010	0.0642546	5
	55	22	3.158693	207370.3	-256786.5	1	330063.2	-51.07708	-1.291328E-010	0.064243	5
	56	23	2.504006	232320.3	-295978.4	1	376265.8	-51.87081	8.270176E-011	0.0642417	5
	57	25	1.998082	260058.3	-341666.7	1	429379.1	-52.72356	2.336138E-010	0.0642791	5
	58	26	1.584686	292989.4	-395318.7	1	492056.6	-53.4561	4.083376E-011	0.0642396	5
	59	28	1.266892	328496.2	-457641.1	1	563333.9	-54.3291	-6.921926E-010	0.0642088	5
	60	31	0.999041	377939.5	-533085.3	1	653466.3	-54.66465	5.323205E-010	0.0642047	5
