EXPLAIN
TAG	EISPOT
TITLE	LABEL	Potentiostatic EIS	Test &Identifier
DATE	LABEL	6/1/2020	Date
TIME	LABEL	13:57:04	Time
NOTES	NOTES	1	&Notes...
	
PSTAT	PSTAT	REF600-11020	Potentiostat
VDC	POTEN	0.00000E+000	T	DC &Voltage (V)
FREQINIT	QUANT	1.00000E+006	Initial Fre&q. (Hz)
FREQFINAL	QUANT	1.00000E+000	Final Fre&q. (Hz)
PTSPERDEC	QUANT	1.00000E+001	Points/&decade
VAC	QUANT	2.50000E+001	AC &Voltage (mV rms)
AREA	QUANT	4.00000E-004	&Area (cm^2)
CONDIT	TWOPARAM	F	5.00000E+000	0.00000E+000	Conditionin&g	Time(s)	E(V)
DELAY	TWOPARAM	T	3.00000E+000	0.00000E+000	Init. De&lay	Time(s)	Stab.(mV/s)
SPEED	SELECTOR	0	&Optimize for:
ZGUESS	QUANT	1.00000E+003	E&stimated Z (ohms)
OCVCURVE	TABLE	12
	Pt	T	Vf	Vm	Ach	Over
	#	s	V vs. Ref.	V	V	bits
	0	0.258333	2.28031E-002	2.28031E-002	5.82897E-004	...........
	1	0.516667	2.28031E-002	2.28038E-002	5.86930E-004	...........
	2	0.775	2.28033E-002	2.28068E-002	5.84696E-004	...........
	3	1.03333	2.28037E-002	2.28043E-002	5.82563E-004	...........
	4	1.29167	2.28042E-002	2.28034E-002	5.85496E-004	...........
	5	1.55	2.28045E-002	2.27997E-002	5.80830E-004	...........
	6	1.80833	2.28039E-002	2.27974E-002	5.82063E-004	...........
	7	2.06667	2.28025E-002	2.27970E-002	5.83130E-004	...........
	8	2.325	2.28005E-002	2.27967E-002	5.80630E-004	...........
	9	2.58333	2.27987E-002	2.27928E-002	5.84963E-004	...........
	10	2.84167	2.27971E-002	2.27921E-002	5.84863E-004	...........
	11	3.1	2.27955E-002	2.27916E-002	5.81630E-004	...........
EOC	QUANT	0.0227955	Open Circuit (V)
PSTATMODEL	IQUANT	4	Pstat Model
PSTATSECTION	LABEL	REF600-11020	Pstat Section
PSTATSERIALNO	LABEL	11020	Pstat Serial Number
CTRLMODE	IQUANT	1	Control Mode
IESTAB	IQUANT	0	I/E Stability
CASPEED	IQUANT	1	Control Amp Speed
CONVENTION	IQUANT	1	Current Convention
ICHRANGE	IQUANT	2	Ich Range
ICHRANGEMODE	TOGGLE	F	Ich Auto Range
ICHOFFSETENABLE	TOGGLE	T	Ich Offset Enable
ICHOFFSET	QUANT	0	Ich Offset (V)
ICHFILTER	IQUANT	3	Ich Filter
VCHRANGE	IQUANT	2	Vch Range
VCHRANGEMODE	TOGGLE	F	Vch Auto Range
VCHOFFSETENABLE	TOGGLE	T	Vch Offset Enable
VCHOFFSET	QUANT	0	Vch Offset (V)
VCHFILTER	IQUANT	3	Vch Filter
ACHRANGE	IQUANT	2	Ach Range
ACHOFFSETENABLE	TOGGLE	F	Ach Offset Enable
ACHOFFSET	QUANT	0	Ach Offset (V)
ACHFILTER	IQUANT	3	Ach Filter
IERANGELOWERLIMIT	IQUANT	1	I/E Range Lower Limit
IERANGEMODE	TOGGLE	F	I/E AutoRange
IERANGE	IQUANT	7	I/E Range
POSFEEDENABLE	TOGGLE	F	Positive Feedback IR Comp
POSFEEDRESISTANCE	QUANT	0	Positive Feedback Resistance (ohm)
ACHSELECT	IQUANT	0	Ach Select
CABLEID	IQUANT	14	Cable ID
DCCALDATE	LABEL	2/27/2020	DC Calibration Date
ACCALDATE	LABEL	2/27/2020	AC Calibration Date
THERMOSELECT	IQUANT	1	Thermo Select
FRAMEWORKVERSION	QUANT	6.33	Framework Version
INSTRUMENTVERSION	LABEL	3.50	Instrument Version
ZCURVE	TABLE
	Pt	Time	Freq	Zreal	Zimag	Zsig	Zmod	Zphz	Idc	Vdc	IERange
	#	s	Hz	ohm	ohm	V	ohm	°	A	V	#
	0	1	1000078	1742.927	-2442.778	1	3000.826	-54.49207	2.176351E-008	0.0252093	8
	1	2	794390.6	2087.467	-2752.853	1	3454.811	-52.82724	5.950967E-008	0.0248529	8
	2	2	630984.4	2485.741	-3078.757	1	3956.975	-51.08312	6.375324E-008	0.0246986	8
	3	2	501234.4	2931.943	-3426.13	1	4509.396	-49.44443	2.115442E-008	0.0246021	8
	4	3	398109.4	3439.896	-3794.369	1	5121.535	-47.8052	3.805985E-008	0.0245289	8
	5	3	316265.6	4021.042	-4160.759	1	5786.25	-45.97832	1.555568E-008	0.0245174	8
	6	3	251203.1	4691.959	-4549.824	1	6535.7	-44.11888	3.443638E-008	0.0244856	8
	7	4	199546.9	5430.551	-4926.236	1	7332.031	-42.21223	5.069003E-008	0.0244972	8
	8	4	158578.1	6273.56	-5249.227	1	8179.972	-39.91997	4.21324E-008	0.0244858	8
	9	4	125953.1	7313.307	-5454.089	1	9123.133	-36.71469	1.801191E-009	0.0244292	7
	10	5	100078.1	8272.228	-5666.209	1	10026.75	-34.40989	2.718607E-009	0.0244089	7
	11	5	79453.13	9307.58	-5797.406	1	10965.44	-31.91751	2.417008E-009	0.0244084	7
	12	5	63140.62	10363.55	-5818.011	1	11884.97	-29.30949	3.108812E-009	0.0244017	7
	13	6	50203.12	11401.3	-5719.114	1	12755.31	-26.63924	3.727036E-009	0.0244033	7
	14	6	39890.62	12379.85	-5525.391	1	13556.94	-24.05223	2.782204E-009	0.0243993	7
	15	6	31640.63	13299.29	-5258.589	1	14301.19	-21.57402	3.710466E-009	0.0243943	7
	16	7	25171.88	14114.23	-4948.534	1	14956.58	-19.32098	3.307284E-009	0.0243876	7
	17	7	20015.62	14831.39	-4624.129	1	15535.53	-17.31643	4.186472E-009	0.0243981	7
	18	7	15890.62	15458.26	-4299.633	1	16045.08	-15.54363	3.783596E-009	0.0243956	7
	19	7	12609.37	16103.59	-3786.694	1	16542.81	-13.23247	3.773566E-010	0.0244428	6
	20	8	10078.13	16531.93	-3572.394	1	16913.5	-12.19359	5.019083E-010	0.0244481	6
	21	8	8015.625	16910.9	-3403.615	1	17250.02	-11.37975	4.897142E-010	0.0244447	6
	22	8	6328.125	17261.72	-3295.148	1	17573.42	-10.80736	3.007884E-010	0.0244383	6
	23	9	5015.625	17559.88	-3258.865	1	17859.72	-10.51367	3.015663E-010	0.0244371	6
	24	9	3984.375	17829.42	-3303.964	1	18132.96	-10.49837	2.3422E-010	0.0244351	6
	25	9	3170.956	18082.64	-3441.893	1	18407.29	-10.7769	3.700137E-010	0.0244344	6
	26	10	2527.573	18325.87	-3678.621	1	18691.44	-11.35035	2.470258E-010	0.0244353	6
	27	10	1976.103	18603.82	-4064.092	1	19042.55	-12.32294	3.098505E-010	0.0244414	6
	28	10	1577.524	18859.31	-4547.523	1	19399.83	-13.55687	2.473401E-010	0.0244363	6
	29	11	1265.625	19143.49	-5163.92	1	19827.74	-15.09612	1.120054E-010	0.0244372	6
	30	11	998.264	19474.63	-6003.504	1	20378.99	-17.13312	-1.743881E-011	0.0244277	6
	31	11	796.875	19829.98	-7004.811	1	21030.82	-19.45543	1.059102E-010	0.0244365	6
	32	12	627.7902	20263.1	-8323.303	1	21905.95	-22.33098	-3.480737E-011	0.0244353	6
	33	12	505.5147	20719.63	-9792.16	1	22917.02	-25.29556	9.667993E-011	0.0244363	6
	34	12	397.9953	21319.17	-11781.59	1	24358.02	-28.92632	4.149458E-010	0.0244499	6
	35	12	315.5048	22017.07	-14155.39	1	26174.92	-32.7381	3.941695E-010	0.0244451	6
	36	13	252.4038	22828.97	-16932.91	1	28423.32	-36.5654	2.350557E-010	0.0244458	6
	37	13	198.6229	23896.71	-20568.78	1	31529.78	-40.71979	2.938492E-010	0.0244474	6
	38	13	158.3615	25164.96	-24754.52	1	35299.6	-44.52892	2.249792E-010	0.0244432	6
	39	14	125.558	26766.48	-29942.97	1	40162.5	-48.20599	1.270722E-010	0.0244425	6
	40	14	100.4464	28717.63	-35949.03	1	46011.25	-51.38064	6.8702E-011	0.0244422	6
	41	14	79.00281	31357.33	-43739	1	53818.05	-54.36254	1.000561E-010	0.0244423	6
	42	15	63.3446	34419.75	-52336.23	1	62640.25	-56.66845	2.080358E-010	0.024442	6
	43	15	49.86702	38608.85	-63472.6	1	74292.76	-58.68886	2.242476E-010	0.0244475	6
	44	15	39.72458	43681.25	-76127.7	1	87769.46	-60.15327	4.152672E-010	0.0244423	6
	45	16	31.6723	50134.86	-90999.27	1	103896	-61.14801	6.715437E-011	0.024443	5
	46	16	24.93351	58846.6	-109679.3	1	124468.8	-61.78497	-9.148329E-011	0.0244454	5
	47	16	19.86229	69515.2	-130620	1	147966	-61.97835	-6.984169E-010	0.0244433	5
	48	17	15.83615	83238.98	-154495.1	1	175492	-61.68507	6.22101E-010	0.0244459	5
	49	17	12.40079	102184.6	-183910.1	1	210391.6	-60.94246	9.213837E-010	0.0244416	5
	50	17	9.93114	123747.7	-213472.3	1	246746.6	-59.89957	1.168762E-009	0.0244462	5
	51	18	7.944915	150125.6	-246634.5	1	288732.1	-58.67127	7.645588E-011	0.024447	5
	52	18	6.317385	182722.3	-282805.5	1	336699.2	-57.13326	3.97216E-010	0.024438	5
	53	19	5.008013	221646.3	-322148.5	1	391032.9	-55.47104	5.364648E-010	0.0244517	5
	54	20	3.945707	268265.1	-363952.3	1	452136.5	-53.60649	7.921903E-011	0.0244397	5
	55	21	3.158693	316632.1	-405459	1	514444.2	-52.01292	3.460477E-010	0.024451	5
	56	22	2.504006	372790.2	-449658.3	1	584093.4	-50.33949	3.948359E-011	0.0244439	5
	57	23	1.998082	431399.9	-496194.6	1	657506.6	-48.99575	-9.88677E-011	0.0244121	5
	58	25	1.584686	495393.2	-544933.7	1	736455.8	-47.72638	4.750336E-011	0.0244564	5
	59	27	1.266892	563219.6	-597925.8	1	821420.4	-46.71204	1.340316E-010	0.0244777	5
	60	29	0.999041	638042.4	-662131.9	1	919519.9	-46.06145	1.754914E-010	0.0244727	5
