EXPLAIN
TAG	EISPOT
TITLE	LABEL	Potentiostatic EIS	Test &Identifier
DATE	LABEL	1/14/2020	Date
TIME	LABEL	18:35:49	Time
NOTES	NOTES	5	&Notes...
	
	
	
	
	
PSTAT	PSTAT	REF600-11020	Potentiostat
VDC	POTEN	0.00000E+000	T	DC &Voltage (V)
FREQINIT	QUANT	1.00000E+006	Initial Fre&q. (Hz)
FREQFINAL	QUANT	1.00000E+000	Final Fre&q. (Hz)
PTSPERDEC	QUANT	1.00000E+001	Points/&decade
VAC	QUANT	2.50000E+001	AC &Voltage (mV rms)
AREA	QUANT	1.00000E-001	&Area (cm^2)
CONDIT	TWOPARAM	T	5.00000E+000	0.00000E+000	Conditionin&g	Time(s)	E(V)
DELAY	TWOPARAM	T	5.00000E+000	0.00000E+000	Init. De&lay	Time(s)	Stab.(mV/s)
SPEED	SELECTOR	0	&Optimize for:
ZGUESS	QUANT	5.00000E+002	E&stimated Z (ohms)
OCVCURVE	TABLE	19
	Pt	T	Vf	Vm	Ach	Over
	#	s	V vs. Ref.	V	V	bits
	0	0.258333	7.25351E-003	7.25351E-003	6.50880E-004	...........
	1	0.516667	7.25556E-003	7.36084E-003	6.46746E-004	...........
	2	0.775	7.26819E-003	7.46442E-003	6.44680E-004	...........
	3	1.03333	7.30427E-003	7.57647E-003	6.46913E-004	...........
	4	1.29167	7.37034E-003	7.69704E-003	6.42513E-004	...........
	5	1.55	7.46186E-003	7.80615E-003	6.43446E-004	...........
	6	1.80833	7.56916E-003	7.93820E-003	6.49613E-004	...........
	7	2.06667	7.68438E-003	8.05342E-003	6.49246E-004	...........
	8	2.325	7.80337E-003	8.17589E-003	6.55479E-004	...........
	9	2.58333	7.92395E-003	8.29255E-003	6.52746E-004	...........
	10	2.84167	8.04498E-003	8.43128E-003	6.49680E-004	...........
	11	3.1	8.16678E-003	8.54437E-003	6.51346E-004	...........
	12	3.35833	8.28996E-003	8.67385E-003	6.50280E-004	...........
	13	3.61667	8.41389E-003	8.78541E-003	6.46913E-004	...........
	14	3.875	8.53687E-003	8.89502E-003	6.49846E-004	...........
	15	4.13333	8.65709E-003	9.00887E-003	6.50213E-004	...........
	16	4.39167	8.77376E-003	9.12106E-003	6.48080E-004	...........
	17	4.65	8.88769E-003	9.23400E-003	6.49713E-004	...........
	18	4.90833	9.00025E-003	9.34037E-003	6.51680E-004	...........
EOC	QUANT	0.0090002	Open Circuit (V)
PSTATMODEL	IQUANT	4	Pstat Model
PSTATSECTION	LABEL	REF600-11020	Pstat Section
PSTATSERIALNO	LABEL	11020	Pstat Serial Number
CTRLMODE	IQUANT	1	Control Mode
IESTAB	IQUANT	0	I/E Stability
CASPEED	IQUANT	1	Control Amp Speed
CONVENTION	IQUANT	1	Current Convention
ICHRANGE	IQUANT	2	Ich Range
ICHRANGEMODE	TOGGLE	F	Ich Auto Range
ICHOFFSETENABLE	TOGGLE	T	Ich Offset Enable
ICHOFFSET	QUANT	0	Ich Offset (V)
ICHFILTER	IQUANT	3	Ich Filter
VCHRANGE	IQUANT	2	Vch Range
VCHRANGEMODE	TOGGLE	F	Vch Auto Range
VCHOFFSETENABLE	TOGGLE	T	Vch Offset Enable
VCHOFFSET	QUANT	0	Vch Offset (V)
VCHFILTER	IQUANT	3	Vch Filter
ACHRANGE	IQUANT	2	Ach Range
ACHOFFSETENABLE	TOGGLE	F	Ach Offset Enable
ACHOFFSET	QUANT	0	Ach Offset (V)
ACHFILTER	IQUANT	3	Ach Filter
IERANGELOWERLIMIT	IQUANT	1	I/E Range Lower Limit
IERANGEMODE	TOGGLE	F	I/E AutoRange
IERANGE	IQUANT	7	I/E Range
POSFEEDENABLE	TOGGLE	F	Positive Feedback IR Comp
POSFEEDRESISTANCE	QUANT	0	Positive Feedback Resistance (ohm)
ACHSELECT	IQUANT	0	Ach Select
CABLEID	IQUANT	14	Cable ID
DCCALDATE	LABEL	12/22/2019	DC Calibration Date
ACCALDATE	LABEL	12/22/2019	AC Calibration Date
THERMOSELECT	IQUANT	1	Thermo Select
FRAMEWORKVERSION	QUANT	6.33	Framework Version
INSTRUMENTVERSION	LABEL	3.50	Instrument Version
ZCURVE	TABLE
	Pt	Time	Freq	Zreal	Zimag	Zsig	Zmod	Zphz	Idc	Vdc	IERange
	#	s	Hz	ohm	ohm	V	ohm	°	A	V	#
	0	2	1000078	2251.26	-1690.16	1	2815.104	-36.89783	-1.711511E-007	0.0110826	8
	1	2	794390.6	2577.064	-1646.333	1	3058.05	-32.57209	1.865463E-006	0.0104697	8
	2	2	630984.4	2888.193	-1568.842	1	3286.781	-28.51044	-8.989349E-007	0.0109443	8
	3	2	501234.4	3157.014	-1445.76	1	3472.314	-24.60549	9.929905E-008	0.0106144	8
	4	3	398109.4	3385.998	-1323.947	1	3635.632	-21.35583	-4.456885E-007	0.0107936	8
	5	3	316265.6	3576.892	-1180.438	1	3766.642	-18.26381	-6.086181E-007	0.010699	8
	6	3	251203.1	3723.387	-1049.135	1	3868.372	-15.73619	2.756603E-006	0.0101889	8
	7	4	199546.9	3855.73	-947.4004	1	3970.418	-13.8048	-4.278612E-008	0.0106623	8
	8	4	158578.1	3956.885	-847.5167	1	4046.631	-12.0894	4.655645E-007	0.0104689	8
	9	4	125953.1	4051.886	-726.5911	1	4116.518	-10.16632	4.982691E-008	0.0104815	7
	10	5	100078.1	4116.207	-670.9656	1	4170.534	-9.25812	3.551302E-009	0.010559	7
	11	5	79453.13	4182.018	-633.4374	1	4229.718	-8.612947	9.602114E-009	0.0106142	7
	12	5	63140.62	4243.257	-607.8938	1	4286.58	-8.152784	-4.080319E-008	0.0106924	7
	13	6	50203.12	4303.525	-593.6624	1	4344.28	-7.854262	-2.000348E-008	0.010553	7
	14	6	39890.62	4361.307	-591.8515	1	4401.283	-7.728119	-4.07641E-008	0.0106907	7
	15	6	31640.63	4421.561	-600.8816	1	4462.204	-7.738976	-1.94815E-008	0.0105495	7
	16	6	25171.88	4480.588	-621.3431	1	4523.465	-7.895109	-9.84739E-009	0.0105324	7
	17	7	20015.62	4537.736	-660.6911	1	4585.582	-8.284014	-1.887828E-008	0.0105495	7
	18	7	15890.62	4604.371	-695.4838	1	4656.6	-8.589516	3.065658E-008	0.0104705	7
	19	7	12609.37	4671.014	-754.1606	1	4731.504	-9.171568	5.11078E-008	0.0104544	7
	20	8	10078.13	4737.111	-827.1272	1	4808.78	-9.90433	-1.845169E-008	0.0105494	7
	21	8	8015.625	4803.104	-917.6893	1	4889.986	-10.81667	9.634968E-009	0.0106112	7
	22	8	6328.125	4879.245	-1041.419	1	4989.147	-12.04834	4.862622E-008	0.0104752	7
	23	9	5015.625	4956.12	-1192.515	1	5097.569	-13.52902	1.024443E-008	0.0106058	7
	24	9	3984.375	5040.356	-1371.52	1	5223.625	-15.22207	-3.005951E-008	0.0105848	7
	25	9	3170.956	5126.948	-1605.636	1	5372.492	-17.38929	-1.307124E-008	0.0105783	7
	26	10	2527.573	5220.804	-1885.123	1	5550.719	-19.85359	7.897083E-011	0.0105672	7
	27	10	1976.103	5337.073	-2264.018	1	5797.424	-22.98695	-1.224768E-008	0.0105817	7
	28	10	1577.524	5443.433	-2691.33	1	6072.414	-26.30861	1.227295E-010	0.0105701	7
	29	10	1265.625	5591.254	-3215.285	1	6449.821	-29.90132	-1.977164E-008	0.0106026	7
	30	11	998.264	5765.783	-3906.852	1	6964.75	-34.12128	1.04877E-008	0.010603	7
	31	11	796.875	5972.77	-4706.332	1	7604.179	-38.23686	-9.324749E-009	0.0105231	7
	32	11	627.7902	6242.098	-5759.626	1	8493.354	-42.69794	4.229194E-009	0.0105377	7
	33	12	505.5147	6550.868	-6920.778	1	9529.48	-46.57285	1.193361E-008	0.0106048	7
	34	12	397.9953	6999.373	-8470.216	1	10987.98	-50.43134	6.291095E-010	0.0105602	6
	35	12	315.5048	7554.019	-10303.2	1	12775.73	-53.75218	6.730602E-010	0.0105617	6
	36	13	252.4038	8236.621	-12419.8	1	14902.8	-56.44827	4.130289E-010	0.0105579	6
	37	13	198.6229	9181.213	-15144.59	1	17710.26	-58.7742	6.09736E-010	0.0105592	6
	38	13	158.3615	10328	-18220.74	1	20944.28	-60.45427	6.323657E-010	0.0105504	6
	39	14	125.558	11821.41	-21952.11	1	24932.72	-61.69714	5.34659E-010	0.0105567	6
	40	14	100.4464	13636.8	-26158.74	1	29499.87	-62.46655	6.075888E-010	0.0105522	6
	41	14	79.00281	16087.13	-31470.37	1	35343.74	-62.92463	2.322837E-010	0.0105533	6
	42	15	63.3446	19036.13	-37283.22	1	41861.83	-62.95198	4.244443E-010	0.0105503	6
	43	15	49.86702	22729.07	-44531.87	1	49996.99	-62.96023	1.079267E-010	0.0105501	6
	44	15	39.72458	27143.76	-52373.62	1	58989.66	-62.60358	6.451157E-010	0.0105502	6
	45	16	31.6723	32628.07	-61442.93	1	69568.84	-62.03033	7.231519E-010	0.0105542	6
	46	16	24.93351	39588.8	-72293.11	1	82423.1	-61.29422	-4.986086E-010	0.0105483	6
	47	16	19.86229	47688.45	-84147.09	1	96720.8	-60.45859	-1.963422E-009	0.0105508	6
	48	16	15.83615	57466.62	-97033.9	1	112774.1	-59.36461	-6.109374E-010	0.0105422	5
	49	17	12.40079	69580.09	-112675.8	1	132428.2	-58.30365	-2.247811E-010	0.010549	5
	50	17	9.93114	82105.3	-127428.1	1	151588.9	-57.20523	-1.017715E-009	0.0105463	5
	51	17	7.944915	96710.5	-143594.7	1	173125.3	-56.03988	1.645872E-010	0.0105441	5
	52	18	6.317385	112285.6	-164010.8	1	198765.2	-55.60355	-4.786812E-010	0.010561	5
	53	19	5.008013	129968.9	-186459	1	227285.9	-55.12207	-2.601192E-010	0.0105494	5
	54	19	3.945707	149533.8	-213436.3	1	260605.9	-54.98485	1.802848E-010	0.0105407	5
	55	20	3.158693	168884.9	-242531.6	1	295539.7	-55.1489	-2.207608E-010	0.0105586	5
	56	22	2.504006	191517.4	-279232.8	1	338599.9	-55.55495	-2.812905E-010	0.0105463	5
	57	23	1.998082	215353	-321102.4	1	386631.2	-56.15153	-2.038599E-010	0.0105467	5
	58	25	1.584686	243876.7	-373417.6	1	446000.6	-56.8517	-3.370748E-011	0.0105907	5
	59	27	1.266892	274400.3	-434670	1	514036.6	-57.73643	-7.073512E-011	0.010575	5
	60	29	0.999041	312817.3	-511481.3	1	599556.3	-58.55042	-5.303117E-011	0.0105547	5
