EXPLAIN
TAG	EISPOT
TITLE	LABEL	Potentiostatic EIS	Test &Identifier
DATE	LABEL	2/18/2020	Date
TIME	LABEL	16:48:45	Time
NOTES	NOTES	1	&Notes...
	
PSTAT	PSTAT	REF600-11020	Potentiostat
VDC	POTEN	0.00000E+000	T	DC &Voltage (V)
FREQINIT	QUANT	1.00000E+006	Initial Fre&q. (Hz)
FREQFINAL	QUANT	1.00000E+000	Final Fre&q. (Hz)
PTSPERDEC	QUANT	1.00000E+001	Points/&decade
VAC	QUANT	2.50000E+001	AC &Voltage (mV rms)
AREA	QUANT	1.60000E-004	&Area (cm^2)
CONDIT	TWOPARAM	F	1.50000E+001	0.00000E+000	Conditionin&g	Time(s)	E(V)
DELAY	TWOPARAM	F	1.00000E+002	0.00000E+000	Init. De&lay	Time(s)	Stab.(mV/s)
SPEED	SELECTOR	1	&Optimize for:
ZGUESS	QUANT	1.00000E+003	E&stimated Z (ohms)
OCVCURVE	TABLE	39
	Pt	T	Vf	Vm	Ach	Over
	#	s	V vs. Ref.	V	V	bits
	0	0.258333	5.77955E+000	5.77955E+000	5.92704E-004	...........
	1	0.516667	5.77875E+000	5.73733E+000	5.95637E-004	...........
	2	0.775	5.77388E+000	5.70197E+000	5.97570E-004	...........
	3	1.03333	5.76046E+000	5.67027E+000	5.93871E-004	...........
	4	1.29167	5.73714E+000	5.63615E+000	5.97737E-004	...........
	5	1.55	5.70693E+000	5.60613E+000	5.91537E-004	...........
	6	1.80833	5.67390E+000	5.57143E+000	5.92637E-004	...........
	7	2.06667	5.63993E+000	5.50892E+000	5.96204E-004	...........
	8	2.325	5.60379E+000	5.47470E+000	5.96237E-004	...........
	9	2.58333	5.56431E+000	5.45448E+000	5.94704E-004	...........
	10	2.84167	5.52410E+000	5.42573E+000	5.92971E-004	...........
	11	3.1	5.48747E+000	5.40010E+000	5.95837E-004	...........
	12	3.35833	5.45584E+000	5.37014E+000	5.96804E-004	...........
	13	3.61667	5.42741E+000	5.34018E+000	5.97237E-004	...........
	14	3.875	5.39984E+000	5.31446E+000	5.96904E-004	...........
	15	4.13333	5.37190E+000	5.27936E+000	5.93071E-004	...........
	16	4.39167	5.34347E+000	5.26483E+000	5.94471E-004	...........
	17	4.65	5.31613E+000	5.27683E+000	5.96570E-004	...........
	18	4.90833	5.29429E+000	5.30076E+000	5.94704E-004	...........
	19	5.16667	5.28220E+000	5.25283E+000	5.94204E-004	...........
	20	5.425	5.27682E+000	5.21508E+000	5.93404E-004	...........
	21	5.68333	5.26829E+000	5.19249E+000	5.92037E-004	...........
	22	5.94167	5.25035E+000	5.17383E+000	5.94004E-004	...........
	23	6.2	5.22584E+000	5.16417E+000	5.96670E-004	...........
	24	6.45833	5.20223E+000	5.19567E+000	5.98237E-004	...........
	25	6.71667	5.18651E+000	5.19462E+000	5.95937E-004	...........
	26	6.975	5.18104E+000	5.16075E+000	5.94204E-004	...........
	27	7.23333	5.18128E+000	5.19417E+000	5.94071E-004	...........
	28	7.49167	5.18186E+000	5.18262E+000	5.95137E-004	...........
	29	7.75	5.18043E+000	5.09518E+000	5.94104E-004	...........
	30	8.00833	5.17270E+000	5.11004E+000	5.95937E-004	...........
	31	8.26667	5.15438E+000	5.05787E+000	5.98204E-004	...........
	32	8.525	5.12752E+000	5.02517E+000	5.95970E-004	...........
	33	8.78333	5.09722E+000	5.03207E+000	5.93737E-004	...........
	34	9.04167	5.06728E+000	4.95998E+000	5.95871E-004	...........
	35	9.3	5.03708E+000	4.86995E+000	5.92171E-004	...........
	36	9.5583	5.00032E+000	4.85532E+000	5.89504E-004	...........
	37	9.8167	4.95101E+000	4.65840E+000	5.96471E-004	...........
	38	10.075	4.89043E+000	4.86211E+000	5.99704E-004	...........
EOC	QUANT	4.890434	Open Circuit (V)
PSTATMODEL	IQUANT	4	Pstat Model
PSTATSECTION	LABEL	REF600-11020	Pstat Section
PSTATSERIALNO	LABEL	11020	Pstat Serial Number
CTRLMODE	IQUANT	1	Control Mode
IESTAB	IQUANT	0	I/E Stability
CASPEED	IQUANT	1	Control Amp Speed
CONVENTION	IQUANT	1	Current Convention
ICHRANGE	IQUANT	2	Ich Range
ICHRANGEMODE	TOGGLE	F	Ich Auto Range
ICHOFFSETENABLE	TOGGLE	T	Ich Offset Enable
ICHOFFSET	QUANT	0	Ich Offset (V)
ICHFILTER	IQUANT	3	Ich Filter
VCHRANGE	IQUANT	2	Vch Range
VCHRANGEMODE	TOGGLE	F	Vch Auto Range
VCHOFFSETENABLE	TOGGLE	T	Vch Offset Enable
VCHOFFSET	QUANT	0	Vch Offset (V)
VCHFILTER	IQUANT	3	Vch Filter
ACHRANGE	IQUANT	2	Ach Range
ACHOFFSETENABLE	TOGGLE	F	Ach Offset Enable
ACHOFFSET	QUANT	0	Ach Offset (V)
ACHFILTER	IQUANT	3	Ach Filter
IERANGELOWERLIMIT	IQUANT	1	I/E Range Lower Limit
IERANGEMODE	TOGGLE	F	I/E AutoRange
IERANGE	IQUANT	9	I/E Range
POSFEEDENABLE	TOGGLE	F	Positive Feedback IR Comp
POSFEEDRESISTANCE	QUANT	0	Positive Feedback Resistance (ohm)
ACHSELECT	IQUANT	0	Ach Select
CABLEID	IQUANT	14	Cable ID
DCCALDATE	LABEL	1/27/2020	DC Calibration Date
ACCALDATE	LABEL	1/27/2020	AC Calibration Date
THERMOSELECT	IQUANT	1	Thermo Select
FRAMEWORKVERSION	QUANT	6.33	Framework Version
INSTRUMENTVERSION	LABEL	3.50	Instrument Version
ZCURVE	TABLE
	Pt	Time	Freq	Zreal	Zimag	Zsig	Zmod	Zphz	Idc	Vdc	IERange
	#	s	Hz	ohm	ohm	V	ohm	°	A	V	#
	0	2	1000078	464.1163	-10463.19	1	10473.47	-87.46019	-7.064374E-007	4.893239	8
	1	3	794390.6	478.1744	-13196.7	1	13205.36	-87.92483	-8.138668E-007	4.892762	8
	2	5	630984.4	636.8365	-16537.28	1	16549.53	-87.79468	-5.451312E-007	4.892637	8
	3	6	501234.4	1322.133	-21012.55	1	21054.11	-86.39964	-2.584082E-006	4.892783	8
	4	8	398109.4	1237.627	-26128.99	1	26158.28	-87.28815	1.143969E-007	4.892068	8
	5	9	316265.6	754.9706	-32529.5	1	32538.26	-88.67047	5.626876E-007	4.892038	8
	6	11	251203.1	1447.613	-40817.92	1	40843.58	-87.96885	1.247465E-006	4.891884	8
	7	13	199546.9	1333.757	-49304	1	49322.04	-88.45043	-1.405793E-006	4.8924	8
	8	14	158578.1	659.8716	-65417.18	1	65420.51	-89.42207	2.240312E-006	4.891778	8
	9	16	125953.1	2796.621	-80182.04	1	80230.8	-88.00243	1.043566E-006	4.889843	7
	10	17	100078.1	3269.823	-101286.6	1	101339.3	-88.15097	8.149892E-008	4.891979	7
	11	19	79453.13	4166.967	-126723.3	1	126791.8	-88.11665	-2.543269E-008	4.892118	7
	12	20	63140.62	4597.514	-159169.9	1	159236.3	-88.34551	4.274496E-008	4.89201	7
	13	22	50203.12	5476.735	-199663.8	1	199738.9	-88.42878	4.469088E-008	4.892004	7
	14	24	39890.62	6795.284	-251433.8	1	251525.7	-88.4519	-4.784398E-008	4.892166	7
	15	25	31640.63	7988.619	-315340.6	1	315441.8	-88.54882	-5.314481E-008	4.892304	7
	16	27	25171.88	9283.494	-392158.7	1	392268.6	-88.6439	-5.427365E-008	4.892199	7
	17	28	20015.62	12126.43	-494084.6	1	494233.3	-88.59406	-3.952919E-008	4.892141	7
	18	30	15890.62	16444.13	-622743.3	1	622960.3	-88.4874	5.74132E-008	4.892052	7
	19	31	12609.37	20518.16	-791281.3	1	791547.3	-88.51463	4.943443E-009	4.891967	6
	20	33	10078.13	27660.16	-975616	1	976008	-88.37601	1.824286E-008	4.891798	6
	21	35	8015.625	21249.85	-1227692	1	1227876	-89.00838	5.760344E-009	4.892198	6
	22	36	6328.125	33695.23	-1529499	1	1529870	-88.73796	-3.811123E-009	4.892028	6
	23	38	5015.625	44309.02	-1921355	1	1921866	-88.67892	3.250824E-010	4.892238	6
	24	40	3984.375	109009.9	-2450203	1	2452627	-87.45258	-8.015182E-009	4.892289	6
	25	42	3170.956	72255.8	-3046684	1	3047541	-88.64142	3.830403E-009	4.891916	6
	26	43	2527.573	32202.79	-3824856	1	3824992	-89.51762	-8.787476E-009	4.892216	6
	27	45	1976.103	183787.1	-5104706	1	5108013	-87.93804	9.05131E-009	4.891909	6
	28	47	1577.524	-312777.8	-6075385	1	6083431	-92.94714	1.805298E-008	4.891798	6
	29	49	1265.625	402609.9	-7651710	1	7662294	-86.98804	8.469406E-010	4.892151	5
	30	50	998.264	-2131.914	-9.662947E+006	1	9.662947E+006	-90.01264	-6.741082E-010	4.892232	5
	31	52	796.875	-485239.5	-1.239185E+007	1	1.240134E+007	-92.24244	-9.0133E-010	4.892217	5
	32	53	627.7902	840282.9	-1.535916E+007	1	1.538212E+007	-86.86853	-4.481604E-010	4.892261	5
	33	55	505.5147	56326.91	-1.867102E+007	1	1.86711E+007	-89.82715	-5.375289E-010	4.892051	5
	34	56	397.9953	-586042.5	-2.323123E+007	1	2.323862E+007	-91.44507	-2.607186E-010	4.892114	5
	35	58	315.5048	72897.84	-3.016709E+007	1	3.016718E+007	-89.86155	-3.057178E-010	4.892118	5
	36	59	252.4038	4449346	-3.961659E+007	1	3.986566E+007	-83.59196	-2.710872E-010	4.892113	5
	37	61	198.6229	5193730	-5.146649E+007	1	5.172789E+007	-84.23752	-4.546009E-012	4.892121	5
	38	62	158.3615	-1.20473E+007	-4.506632E+007	1	4.66488E+007	-104.9666	6.203544E-011	4.892111	5
	39	64	125.558	671824.6	-4.980594E+007	1	4.981047E+007	-89.2272	1.005108E-010	4.892062	4
	40	65	100.4464	1.68625E+007	-1.102008E+008	1	1.114834E+008	-81.3003	6.60003E-011	4.892058	4
	41	67	79.00281	7011741	-3.778338E+007	1	3.842849E+007	-79.4868	-2.182779E-010	4.892065	4
	42	69	63.3446	5205585	6763635	1	8534921	52.41657	-1.6963E-010	4.892058	4
	43	71	49.86702	-4.86019E+007	-2.507271E+007	1	5.468807E+007	-152.7117	1.174625E-010	4.892112	5
	44	73	39.72458	5.300635E+007	-3.074611E+007	1	6.127802E+007	-30.1157	-1.326203E-010	4.892065	4
	45	74	31.6723	5.706536E+007	4741850	1	5.726203E+007	4.750083	-9.905429E-011	4.892116	5
	46	76	24.93351	-5.029129E+008	-1.253213E+008	1	5.182922E+008	-166.0074	-3.298096E-011	4.892065	4
	47	78	19.86229	-5.126694E+008	1.97514E+008	1	5.494012E+008	158.93	-8.348013E-012	4.89206	4
	48	79	15.83615	-1934021	-2.13647E+007	1	2.145206E+007	-95.1726	-7.115664E-010	4.892071	4
	49	81	12.40079	1.102141E+008	9.343248E+007	1	1.44488E+008	40.28914	5.747597E-012	4.892059	4
	50	83	9.93114	-1.210322E+008	1.951163E+008	1	2.296065E+008	121.8117	-7.837922E-011	4.892068	4
	51	85	7.944915	1.192271E+008	-6.397918E+007	1	1.353086E+008	-28.21873	-1.058624E-010	4.892046	4
	52	87	6.317385	-4.041509E+009	-1.466397E+009	1	4.299316E+009	-160.0575	-6.503601E-013	4.892068	4
	53	90	5.008013	-3.593037E+008	-1.041557E+009	1	1.101789E+009	-109.0328	1.762185E-011	4.892076	4
	54	94	3.945707	-3.568604E+008	-3.886487E+007	1	3.589705E+008	-173.7845	-3.740585E-011	4.892064	4
	55	98	3.158693	3.085523E+009	5.335324E+009	1	6.16329E+009	59.95835	1.952153E-012	4.892072	4
	56	102	2.504006	9.122449E+008	-6.03617E+009	1	6.104714E+009	-81.40594	2.410895E-011	4.892123	3
	57	106	1.998082	1.142648E+009	-6.237427E+009	1	6.341225E+009	-79.61897	2.416331E-011	4.892074	3
	58	112	1.584686	2.602944E+009	-5.662294E+009	1	6.231925E+009	-65.31187	2.365394E-011	4.892146	3
	59	119	1.266892	-2.402883E+008	-2.094092E+010	1	2.09423E+010	-90.65742	5.61423E-012	4.892123	2
	60	127	0.999041	-7.896172E+008	-2.185275E+010	1	2.186701E+010	-92.0694	5.619501E-012	4.892099	2
