EXPLAIN
TAG	EISPOT
TITLE	LABEL	Potentiostatic EIS	Test &Identifier
DATE	LABEL	1/21/2020	Date
TIME	LABEL	16:22:19	Time
NOTES	NOTES	6	&Notes...
	
	
	
	
	
	
PSTAT	PSTAT	REF600-11020	Potentiostat
VDC	POTEN	0.00000E+000	T	DC &Voltage (V)
FREQINIT	QUANT	1.00000E+006	Initial Fre&q. (Hz)
FREQFINAL	QUANT	1.00000E+000	Final Fre&q. (Hz)
PTSPERDEC	QUANT	1.00000E+001	Points/&decade
VAC	QUANT	2.50000E+001	AC &Voltage (mV rms)
AREA	QUANT	1.00000E-001	&Area (cm^2)
CONDIT	TWOPARAM	F	5.00000E+000	0.00000E+000	Conditionin&g	Time(s)	E(V)
DELAY	TWOPARAM	F	5.00000E+000	0.00000E+000	Init. De&lay	Time(s)	Stab.(mV/s)
SPEED	SELECTOR	0	&Optimize for:
ZGUESS	QUANT	5.00000E+002	E&stimated Z (ohms)
OCVCURVE	TABLE	39
	Pt	T	Vf	Vm	Ach	Over
	#	s	V vs. Ref.	V	V	bits
	0	0.258333	-3.74607E-002	-3.74607E-002	6.61646E-004	...........
	1	0.516667	-3.74614E-002	-3.75006E-002	6.67046E-004	...........
	2	0.775	-3.74660E-002	-3.75326E-002	6.65413E-004	...........
	3	1.03333	-3.74785E-002	-3.75593E-002	6.62413E-004	...........
	4	1.29167	-3.74999E-002	-3.75886E-002	6.61513E-004	...........
	5	1.55	-3.75270E-002	-3.76152E-002	6.71246E-004	...........
	6	1.80833	-3.75556E-002	-3.76191E-002	6.68613E-004	...........
	7	2.06667	-3.75820E-002	-3.76412E-002	6.69313E-004	...........
	8	2.325	-3.76044E-002	-3.76668E-002	6.69779E-004	...........
	9	2.58333	-3.76239E-002	-3.76848E-002	6.65113E-004	...........
	10	2.84167	-3.76431E-002	-3.77048E-002	6.61846E-004	...........
	11	3.1	-3.76629E-002	-3.77222E-002	6.59813E-004	...........
	12	3.35833	-3.76827E-002	-3.77384E-002	6.60413E-004	...........
	13	3.61667	-3.77026E-002	-3.77936E-002	6.69179E-004	...........
	14	3.875	-3.77253E-002	-3.78509E-002	6.69879E-004	...........
	15	4.13333	-3.77560E-002	-3.79188E-002	6.67413E-004	...........
	16	4.39167	-3.77969E-002	-3.79036E-002	6.68946E-004	...........
	17	4.65	-3.78408E-002	-3.78819E-002	6.72546E-004	...........
	18	4.90833	-3.78742E-002	-3.78746E-002	6.63613E-004	...........
	19	5.16667	-3.78889E-002	-3.78758E-002	6.60879E-004	...........
	20	5.425	-3.78889E-002	-3.78780E-002	6.64513E-004	...........
	21	5.68333	-3.78833E-002	-3.78585E-002	6.56179E-004	...........
	22	5.94167	-3.78768E-002	-3.78444E-002	6.65946E-004	...........
	23	6.2	-3.78691E-002	-3.78326E-002	6.70146E-004	...........
	24	6.45833	-3.78589E-002	-3.78143E-002	6.66179E-004	...........
	25	6.71667	-3.78448E-002	-3.77287E-002	6.61413E-004	...........
	26	6.975	-3.78221E-002	-3.76442E-002	6.61413E-004	...........
	27	7.23333	-3.77842E-002	-3.76247E-002	6.66613E-004	...........
	28	7.49167	-3.77342E-002	-3.76546E-002	6.60613E-004	...........
	29	7.75	-3.76880E-002	-3.76773E-002	6.63613E-004	...........
	30	8.00833	-3.76613E-002	-3.76717E-002	6.66846E-004	...........
	31	8.26667	-3.76557E-002	-3.76721E-002	6.66346E-004	...........
	32	8.525	-3.76611E-002	-3.76755E-002	6.60113E-004	...........
	33	8.78333	-3.76679E-002	-3.76774E-002	6.60279E-004	...........
	34	9.04167	-3.76726E-002	-3.76826E-002	6.60813E-004	...........
	35	9.3	-3.76755E-002	-3.76755E-002	6.57980E-004	...........
	36	9.5583	-3.76775E-002	-3.76781E-002	6.62079E-004	...........
	37	9.8167	-3.76782E-002	-3.76758E-002	6.61313E-004	...........
	38	10.075	-3.76779E-002	-3.76719E-002	6.61046E-004	...........
EOC	QUANT	-0.0376779	Open Circuit (V)
PSTATMODEL	IQUANT	4	Pstat Model
PSTATSECTION	LABEL	REF600-11020	Pstat Section
PSTATSERIALNO	LABEL	11020	Pstat Serial Number
CTRLMODE	IQUANT	1	Control Mode
IESTAB	IQUANT	0	I/E Stability
CASPEED	IQUANT	1	Control Amp Speed
CONVENTION	IQUANT	1	Current Convention
ICHRANGE	IQUANT	2	Ich Range
ICHRANGEMODE	TOGGLE	F	Ich Auto Range
ICHOFFSETENABLE	TOGGLE	T	Ich Offset Enable
ICHOFFSET	QUANT	0	Ich Offset (V)
ICHFILTER	IQUANT	3	Ich Filter
VCHRANGE	IQUANT	2	Vch Range
VCHRANGEMODE	TOGGLE	F	Vch Auto Range
VCHOFFSETENABLE	TOGGLE	T	Vch Offset Enable
VCHOFFSET	QUANT	0	Vch Offset (V)
VCHFILTER	IQUANT	3	Vch Filter
ACHRANGE	IQUANT	2	Ach Range
ACHOFFSETENABLE	TOGGLE	F	Ach Offset Enable
ACHOFFSET	QUANT	0	Ach Offset (V)
ACHFILTER	IQUANT	3	Ach Filter
IERANGELOWERLIMIT	IQUANT	1	I/E Range Lower Limit
IERANGEMODE	TOGGLE	F	I/E AutoRange
IERANGE	IQUANT	8	I/E Range
POSFEEDENABLE	TOGGLE	F	Positive Feedback IR Comp
POSFEEDRESISTANCE	QUANT	0	Positive Feedback Resistance (ohm)
ACHSELECT	IQUANT	0	Ach Select
CABLEID	IQUANT	14	Cable ID
DCCALDATE	LABEL	12/22/2019	DC Calibration Date
ACCALDATE	LABEL	12/22/2019	AC Calibration Date
THERMOSELECT	IQUANT	1	Thermo Select
FRAMEWORKVERSION	QUANT	6.33	Framework Version
INSTRUMENTVERSION	LABEL	3.50	Instrument Version
ZCURVE	TABLE
	Pt	Time	Freq	Zreal	Zimag	Zsig	Zmod	Zphz	Idc	Vdc	IERange
	#	s	Hz	ohm	ohm	V	ohm	°	A	V	#
	0	1	1000078	1579.795	-2143.804	1	2663.015	-53.61305	-5.82417E-007	-0.0350952	8
	1	2	794390.6	1781.008	-2441.958	1	3022.441	-53.89539	-5.779276E-007	-0.0357459	8
	2	2	630984.4	1990.496	-2783.254	1	3421.779	-54.42884	9.046168E-008	-0.0359844	8
	3	2	501234.4	2220.213	-3203.762	1	3897.876	-55.27797	8.513305E-007	-0.0363516	8
	4	3	398109.4	2448.101	-3718.271	1	4451.824	-56.63919	4.60555E-007	-0.0362394	8
	5	3	316265.6	2727.54	-4362.511	1	5144.995	-57.98545	1.538003E-006	-0.0364286	8
	6	3	251203.1	3055.698	-5142.356	1	5981.732	-59.28031	1.380579E-006	-0.0364524	8
	7	4	199546.9	3353.638	-6101.41	1	6962.333	-61.20462	-6.830363E-007	-0.0359674	8
	8	4	158578.1	3745.243	-7252.295	1	8162.269	-62.68718	-1.098069E-006	-0.035884	8
	9	5	125953.1	4317.431	-8686.758	1	9700.51	-63.57203	6.279553E-007	-0.0374141	7
	10	5	100078.1	4935.002	-10420.29	1	11529.81	-64.65797	-4.860903E-008	-0.0360737	7
	11	6	79453.13	5725.497	-12601.71	1	13841.41	-65.56567	1.175664E-007	-0.0363431	7
	12	6	63140.62	6753.855	-15195.04	1	16628.41	-66.03593	-2.365213E-009	-0.0361446	7
	13	6	50203.12	8152.911	-18330.01	1	20061.39	-66.02123	6.781998E-008	-0.0362084	7
	14	7	39890.62	10037.36	-21967.95	1	24152.42	-65.44391	1.393404E-008	-0.0362613	7
	15	7	31640.63	12616.08	-26365.09	1	29228.12	-64.42821	3.591297E-008	-0.0362306	7
	16	7	25171.88	16033.12	-31247.14	1	35120.43	-62.83733	2.543108E-009	-0.0361629	7
	17	8	20015.62	20586.81	-36679.84	1	42062.18	-60.69638	2.526694E-009	-0.0361609	7
	18	8	15890.62	26718.11	-42318.66	1	50047.24	-57.73351	-2.690138E-008	-0.0360786	7
	19	8	12609.37	34985.16	-47405.99	1	58917.65	-53.57303	-2.274196E-009	-0.0362492	6
	20	8	10078.13	43959.82	-52036.66	1	68119.59	-49.80936	1.462787E-008	-0.0363485	6
	21	9	8015.625	54904.45	-55126.48	1	77803.77	-45.11561	-2.402251E-009	-0.0362521	6
	22	9	6328.125	67189.37	-56300.46	1	87659.3	-39.96089	-1.722835E-009	-0.036208	6
	23	9	5015.625	79235.2	-55470.33	1	96722.1	-34.99478	4.923056E-009	-0.0361747	6
	24	10	3984.375	90398.05	-52224.35	1	104399.2	-30.01569	-1.154545E-009	-0.0361912	6
	25	10	3170.956	99873.8	-47838.53	1	110739.8	-25.59394	-4.182946E-009	-0.0360446	6
	26	10	2527.573	107579.9	-42610.02	1	115711.1	-21.60742	3.827511E-009	-0.0363413	6
	27	11	1976.103	114194	-36892.28	1	120005.5	-17.90391	-9.385948E-010	-0.0361946	6
	28	11	1577.524	118875.4	-30452.28	1	122713.9	-14.36846	1.581396E-008	-0.0364602	6
	29	11	1265.625	122088.2	-25591.19	1	124741.5	-11.8385	-1.123892E-010	-0.0361186	5
	30	12	998.264	123858.3	-21744.75	1	125752.5	-9.95746	-3.741315E-010	-0.0360599	5
	31	12	796.875	125280.1	-18923.83	1	126701.3	-8.589717	1.010074E-009	-0.0361582	5
	32	12	627.7902	126687	-16757.87	1	127790.5	-7.535208	1.02224E-009	-0.0361973	5
	33	13	505.5147	127720.6	-15454.33	1	128652.2	-6.899306	1.346041E-010	-0.0361028	5
	34	13	397.9953	128621.6	-14634.39	1	129451.5	-6.491119	8.056587E-010	-0.0361845	5
	35	13	315.5048	129139.9	-14364.66	1	129936.4	-6.347109	3.536865E-012	-0.0361862	5
	36	14	252.4038	129399.8	-14757.53	1	130238.6	-6.506244	7.748157E-010	-0.0361871	5
	37	14	198.6229	130626.5	-15895.26	1	131590.1	-6.937916	1.07231E-010	-0.0361837	5
	38	14	158.3615	130876.3	-17585.58	1	132052.5	-7.652881	1.970592E-010	-0.036188	5
	39	15	125.558	131760	-19883	1	133251.8	-8.581367	3.002745E-010	-0.0361889	5
	40	15	100.4464	132761.5	-23145.09	1	134763.9	-9.88932	1.350697E-010	-0.0361878	5
	41	15	79.00281	133853	-26675.71	1	136485.3	-11.27087	2.29633E-011	-0.0361841	5
	42	16	63.3446	138404	-29528.03	1	141518.8	-12.04331	5.394933E-010	-0.0361878	5
	43	16	49.86702	139447	-36965.85	1	144263.4	-14.84699	2.988588E-010	-0.0361909	5
	44	17	39.72458	143484.3	-43933.77	1	150059.7	-17.02418	2.369619E-010	-0.0361854	5
	45	17	31.6723	147928	-51244.54	1	156552.5	-19.10687	2.711808E-011	-0.0361901	5
	46	17	24.93351	152381.8	-60143.58	1	163821.4	-21.53866	7.445154E-010	-0.0361919	5
	47	18	19.86229	158102.9	-70222.93	1	172996.5	-23.94887	1.825712E-009	-0.0361959	5
	48	18	15.83615	165165.1	-81140.06	1	184019.6	-26.16333	2.717874E-010	-0.0361946	5
	49	18	12.40079	173294	-95060	1	197654.3	-28.74688	1.238518E-010	-0.0361941	5
	50	19	9.93114	180188.5	-110926.2	1	211595.2	-31.61694	1.046919E-010	-0.0361994	5
	51	19	7.944915	188811.5	-129289.7	1	228835.3	-34.40159	-1.40203E-010	-0.0361901	5
	52	20	6.317385	200427.2	-151635.1	1	251325	-37.10969	-1.22974E-010	-0.0361915	5
	53	21	5.008013	211751.4	-178932.1	1	277227.9	-40.19815	1.405359E-010	-0.0361892	5
	54	22	3.945707	227144.4	-212360.7	1	310952.8	-43.07346	-2.28732E-010	-0.0362042	5
	55	23	3.158693	243940.5	-249651.9	1	349045.9	-45.66295	-7.934631E-011	-0.0362146	5
	56	25	2.504006	266001.2	-296118.6	1	398048.8	-48.06687	1.029462E-010	-0.0362057	5
	57	26	1.998082	292224	-348269.1	1	454627.6	-50.00082	-1.435901E-010	-0.0362447	5
	58	28	1.584686	325001.1	-412753.8	1	525348.9	-51.78321	-2.101481E-010	-0.0362556	5
	59	30	1.266892	362919.5	-483855	1	604835.8	-53.12796	-1.371698E-010	-0.0362171	5
	60	32	0.999041	412092.6	-570058.8	1	703411.2	-54.13702	-9.299868E-011	-0.0361958	5
