EXPLAIN
TAG	EISPOT
TITLE	LABEL	Potentiostatic EIS	Test &Identifier
DATE	LABEL	6/1/2020	Date
TIME	LABEL	14:02:14	Time
NOTES	NOTES	1	&Notes...
	
PSTAT	PSTAT	REF600-11020	Potentiostat
VDC	POTEN	0.00000E+000	T	DC &Voltage (V)
FREQINIT	QUANT	1.00000E+006	Initial Fre&q. (Hz)
FREQFINAL	QUANT	1.00000E+000	Final Fre&q. (Hz)
PTSPERDEC	QUANT	1.00000E+001	Points/&decade
VAC	QUANT	2.50000E+001	AC &Voltage (mV rms)
AREA	QUANT	4.00000E-004	&Area (cm^2)
CONDIT	TWOPARAM	F	5.00000E+000	0.00000E+000	Conditionin&g	Time(s)	E(V)
DELAY	TWOPARAM	T	3.00000E+000	0.00000E+000	Init. De&lay	Time(s)	Stab.(mV/s)
SPEED	SELECTOR	0	&Optimize for:
ZGUESS	QUANT	1.00000E+003	E&stimated Z (ohms)
OCVCURVE	TABLE	12
	Pt	T	Vf	Vm	Ach	Over
	#	s	V vs. Ref.	V	V	bits
	0	0.258333	8.65516E-002	8.65516E-002	5.62397E-004	...........
	1	0.516667	8.65522E-002	8.65818E-002	5.54664E-004	...........
	2	0.775	8.65556E-002	8.66053E-002	5.60264E-004	...........
	3	1.03333	8.65649E-002	8.66198E-002	5.60397E-004	...........
	4	1.29167	8.65802E-002	8.66346E-002	5.54830E-004	...........
	5	1.55	8.65983E-002	8.66446E-002	5.50197E-004	...........
	6	1.80833	8.66157E-002	8.66531E-002	5.54730E-004	...........
	7	2.06667	8.66304E-002	8.66597E-002	5.58630E-004	...........
	8	2.325	8.66421E-002	8.66660E-002	5.57830E-004	...........
	9	2.58333	8.66514E-002	8.66744E-002	5.51597E-004	...........
	10	2.84167	8.66592E-002	8.66810E-002	5.52164E-004	...........
	11	3.1	8.66664E-002	8.66872E-002	5.51397E-004	...........
EOC	QUANT	0.0866664	Open Circuit (V)
PSTATMODEL	IQUANT	4	Pstat Model
PSTATSECTION	LABEL	REF600-11020	Pstat Section
PSTATSERIALNO	LABEL	11020	Pstat Serial Number
CTRLMODE	IQUANT	1	Control Mode
IESTAB	IQUANT	0	I/E Stability
CASPEED	IQUANT	1	Control Amp Speed
CONVENTION	IQUANT	1	Current Convention
ICHRANGE	IQUANT	2	Ich Range
ICHRANGEMODE	TOGGLE	F	Ich Auto Range
ICHOFFSETENABLE	TOGGLE	T	Ich Offset Enable
ICHOFFSET	QUANT	0	Ich Offset (V)
ICHFILTER	IQUANT	3	Ich Filter
VCHRANGE	IQUANT	2	Vch Range
VCHRANGEMODE	TOGGLE	F	Vch Auto Range
VCHOFFSETENABLE	TOGGLE	T	Vch Offset Enable
VCHOFFSET	QUANT	0	Vch Offset (V)
VCHFILTER	IQUANT	3	Vch Filter
ACHRANGE	IQUANT	2	Ach Range
ACHOFFSETENABLE	TOGGLE	F	Ach Offset Enable
ACHOFFSET	QUANT	0	Ach Offset (V)
ACHFILTER	IQUANT	3	Ach Filter
IERANGELOWERLIMIT	IQUANT	1	I/E Range Lower Limit
IERANGEMODE	TOGGLE	F	I/E AutoRange
IERANGE	IQUANT	8	I/E Range
POSFEEDENABLE	TOGGLE	F	Positive Feedback IR Comp
POSFEEDRESISTANCE	QUANT	0	Positive Feedback Resistance (ohm)
ACHSELECT	IQUANT	0	Ach Select
CABLEID	IQUANT	14	Cable ID
DCCALDATE	LABEL	2/27/2020	DC Calibration Date
ACCALDATE	LABEL	2/27/2020	AC Calibration Date
THERMOSELECT	IQUANT	1	Thermo Select
FRAMEWORKVERSION	QUANT	6.33	Framework Version
INSTRUMENTVERSION	LABEL	3.50	Instrument Version
ZCURVE	TABLE
	Pt	Time	Freq	Zreal	Zimag	Zsig	Zmod	Zphz	Idc	Vdc	IERange
	#	s	Hz	ohm	ohm	V	ohm	°	A	V	#
	0	1	1000078	2001.787	-2542.764	1	3236.17	-51.78847	1.772119E-008	0.0891525	8
	1	2	794390.6	2463.697	-2813.889	1	3740.024	-48.79628	7.192765E-008	0.0888232	8
	2	2	630984.4	3000.912	-3046.563	1	4276.332	-45.4325	4.58583E-008	0.0886763	8
	3	2	501234.4	3607.921	-3216.28	1	4833.379	-41.71539	2.977475E-008	0.0885593	8
	4	3	398109.4	4256.835	-3293.669	1	5382.277	-37.73043	4.492829E-008	0.0884953	8
	5	3	316265.6	4913.382	-3270.631	1	5902.402	-33.65002	3.824481E-008	0.0884587	8
	6	3	251203.1	5537.495	-3141.143	1	6366.367	-29.56406	4.656459E-008	0.0884591	8
	7	4	199546.9	6108.205	-2946.443	1	6781.718	-25.75148	1.875737E-008	0.0884741	8
	8	4	158578.1	6596.791	-2701.215	1	7128.409	-22.26783	4.513701E-008	0.0884555	8
	9	4	125953.1	7070.81	-2327.916	1	7444.162	-18.22304	-3.644164E-010	0.0884138	7
	10	5	100078.1	7365.184	-2073.824	1	7651.581	-15.72569	1.159811E-009	0.0883789	7
	11	5	79453.13	7624.628	-1852.017	1	7846.332	-13.6527	1.735822E-009	0.0883656	7
	12	5	63140.62	7830.328	-1654.314	1	8003.174	-11.92946	1.548765E-009	0.0883652	7
	13	6	50203.12	7998.501	-1485.771	1	8135.326	-10.52311	8.87265E-010	0.0883595	7
	14	6	39890.62	8140.089	-1351.333	1	8251.494	-9.425687	1.019325E-009	0.0883568	7
	15	6	31640.63	8262.118	-1249.348	1	8356.044	-8.598779	9.404103E-010	0.0883516	7
	16	6	25171.88	8371.712	-1180.788	1	8454.574	-8.028326	2.020541E-009	0.0883606	7
	17	7	20015.62	8470.922	-1140.294	1	8547.326	-7.666655	1.378274E-009	0.0883511	7
	18	7	15890.62	8565.787	-1130.285	1	8640.038	-7.516946	1.731911E-009	0.0883528	7
	19	7	12609.37	8659.628	-1151.122	1	8735.802	-7.571921	2.068844E-009	0.0883607	7
	20	8	10078.13	8785.394	-1091.485	1	8852.937	-7.082056	-2.72233E-010	0.0884138	6
	21	8	8015.625	8873.92	-1190.195	1	8953.38	-7.639084	-1.2316E-010	0.0884086	6
	22	8	6328.125	8971.707	-1324.629	1	9068.968	-8.398765	-1.712874E-010	0.0884044	6
	23	9	5015.625	9078.546	-1492.245	1	9200.369	-9.334272	-1.228344E-010	0.0884044	6
	24	9	3984.375	9194.759	-1700.864	1	9350.75	-10.48022	-3.139652E-010	0.0883973	6
	25	9	3170.956	9312.869	-1955.112	1	9515.88	-11.8563	-2.877132E-010	0.0884043	6
	26	10	2527.573	9448.869	-2267.031	1	9717.02	-13.49173	-1.936331E-010	0.0883998	6
	27	10	1976.103	9608.18	-2684.606	1	9976.18	-15.61081	-3.856936E-010	0.0883982	6
	28	10	1577.524	9767.95	-3154.841	1	10264.79	-17.89936	-4.128925E-010	0.0883992	6
	29	11	1265.625	9946.8	-3717.722	1	10618.86	-20.49377	-2.678634E-010	0.0883932	6
	30	11	998.264	10159.55	-4459.867	1	11095.35	-23.70065	-2.545943E-010	0.0883997	6
	31	11	796.875	10400.12	-5330.033	1	11686.39	-27.13501	-2.814594E-010	0.0883987	6
	32	12	627.7902	10688.88	-6456.853	1	12487.72	-31.135	5.169638E-011	0.0884012	6
	33	12	505.5147	10998.5	-7711.94	1	13432.83	-35.03741	-2.88656E-010	0.088402	6
	34	12	397.9953	11408.64	-9407.038	1	14786.8	-39.50742	5.124976E-010	0.0884166	6
	35	13	315.5048	11891.79	-11432.86	1	16496.21	-43.8728	5.225907E-010	0.0884149	6
	36	13	252.4038	12458.21	-13807.98	1	18597.51	-47.94172	4.590753E-010	0.0884099	6
	37	13	198.6229	13208.74	-16926.9	1	21470.7	-52.03366	4.846692E-010	0.0884125	6
	38	13	158.3615	14086.41	-20530.03	1	24897.97	-55.54455	4.314643E-010	0.0884082	6
	39	14	125.558	15203.62	-25021.6	1	29278.5	-58.7163	3.965581E-010	0.0884129	6
	40	14	100.4464	16538.03	-30260.26	1	34484.63	-61.34224	3.776743E-010	0.0884082	6
	41	14	79.00281	18325.36	-37113.21	1	41390.94	-63.72126	3.352553E-010	0.0884065	6
	42	15	63.3446	20375.37	-44760.61	1	49179.96	-65.52461	4.252608E-010	0.088403	6
	43	15	49.86702	23139.71	-54813	1	59497.15	-67.1126	2.61792E-010	0.0884035	6
	44	16	39.72458	26447.03	-66411.69	1	71483.97	-68.28614	3.883105E-010	0.0884091	6
	45	16	31.6723	30608.95	-80416.08	1	86044.48	-69.16156	2.480778E-010	0.0884071	6
	46	16	24.93351	36258.85	-98315.1	1	104788.2	-69.75591	6.73071E-010	0.0884099	6
	47	17	19.86229	43214.94	-118764.7	1	126382.7	-70.00506	7.361725E-010	0.0884156	5
	48	17	15.83615	52170	-143393.1	1	152588.6	-70.00735	-1.505831E-010	0.0884089	5
	49	17	12.40079	64973.64	-175007.1	1	186679	-69.6319	-2.563136E-011	0.0884126	5
	50	17	9.93114	80266.27	-208913.6	1	223802.5	-68.98283	-4.967683E-010	0.0884095	5
	51	18	7.944915	99602.5	-248377	1	267603.8	-68.14855	-8.661229E-011	0.0884118	5
	52	18	6.317385	125172.6	-294702	1	320183.4	-66.98698	1.449407E-010	0.0884006	5
	53	19	5.008013	157912.9	-348160.9	1	382299	-65.60271	-3.192497E-011	0.0883925	5
	54	20	3.945707	199259.2	-410006	1	455860.8	-64.08067	-1.025492E-010	0.0884062	5
	55	21	3.158693	245381	-472964.8	1	532829.8	-62.57906	-8.54144E-012	0.0883887	5
	56	22	2.504006	301990.7	-546065.9	1	624008.3	-61.05611	1.642756E-010	0.088397	5
	57	23	1.998082	363571.4	-622877.4	1	721221.5	-59.72803	6.360319E-011	0.0883806	5
	58	25	1.584686	437384.2	-713459.4	1	836856.8	-58.48974	-7.96286E-012	0.0883436	5
	59	27	1.266892	514536	-811990.8	1	961289	-57.6387	1.002844E-011	0.0883672	5
	60	29	0.999041	608544.5	-930561.6	1	1111877	-56.81716	-1.901341E-011	0.0883937	4
