EXPLAIN
TAG	EISPOT
TITLE	LABEL	Potentiostatic EIS	Test &Identifier
DATE	LABEL	6/6/2020	Date
TIME	LABEL	13:44:53	Time
NOTES	NOTES	1	&Notes...
	
PSTAT	PSTAT	REF600-11020	Potentiostat
VDC	POTEN	0.00000E+000	T	DC &Voltage (V)
FREQINIT	QUANT	1.00000E+006	Initial Fre&q. (Hz)
FREQFINAL	QUANT	1.00000E+000	Final Fre&q. (Hz)
PTSPERDEC	QUANT	1.00000E+001	Points/&decade
VAC	QUANT	2.50000E+001	AC &Voltage (mV rms)
AREA	QUANT	2.50000E-001	&Area (cm^2)
CONDIT	TWOPARAM	F	5.00000E+000	0.00000E+000	Conditionin&g	Time(s)	E(V)
DELAY	TWOPARAM	T	3.00000E+000	0.00000E+000	Init. De&lay	Time(s)	Stab.(mV/s)
SPEED	SELECTOR	0	&Optimize for:
ZGUESS	QUANT	1.00000E+003	E&stimated Z (ohms)
OCVCURVE	TABLE	12
	Pt	T	Vf	Vm	Ach	Over
	#	s	V vs. Ref.	V	V	bits
	0	0.258333	8.70504E-002	8.70504E-002	5.80497E-004	...........
	1	0.516667	8.70507E-002	8.70672E-002	5.81497E-004	...........
	2	0.775	8.70528E-002	8.70873E-002	5.79697E-004	...........
	3	1.03333	8.70588E-002	8.71051E-002	5.80363E-004	...........
	4	1.29167	8.70700E-002	8.71197E-002	5.78297E-004	...........
	5	1.55	8.70850E-002	8.71340E-002	5.81030E-004	...........
	6	1.80833	8.71013E-002	8.71422E-002	5.77630E-004	...........
	7	2.06667	8.71167E-002	8.71568E-002	5.79497E-004	...........
	8	2.325	8.71305E-002	8.71663E-002	5.87963E-004	...........
	9	2.58333	8.71429E-002	8.71763E-002	5.81230E-004	...........
	10	2.84167	8.71544E-002	8.71880E-002	5.78963E-004	...........
	11	3.1	8.71654E-002	8.71988E-002	5.83530E-004	...........
EOC	QUANT	0.0871654	Open Circuit (V)
PSTATMODEL	IQUANT	4	Pstat Model
PSTATSECTION	LABEL	REF600-11020	Pstat Section
PSTATSERIALNO	LABEL	11020	Pstat Serial Number
CTRLMODE	IQUANT	1	Control Mode
IESTAB	IQUANT	0	I/E Stability
CASPEED	IQUANT	1	Control Amp Speed
CONVENTION	IQUANT	1	Current Convention
ICHRANGE	IQUANT	2	Ich Range
ICHRANGEMODE	TOGGLE	F	Ich Auto Range
ICHOFFSETENABLE	TOGGLE	T	Ich Offset Enable
ICHOFFSET	QUANT	0	Ich Offset (V)
ICHFILTER	IQUANT	3	Ich Filter
VCHRANGE	IQUANT	2	Vch Range
VCHRANGEMODE	TOGGLE	F	Vch Auto Range
VCHOFFSETENABLE	TOGGLE	T	Vch Offset Enable
VCHOFFSET	QUANT	0	Vch Offset (V)
VCHFILTER	IQUANT	3	Vch Filter
ACHRANGE	IQUANT	2	Ach Range
ACHOFFSETENABLE	TOGGLE	F	Ach Offset Enable
ACHOFFSET	QUANT	0	Ach Offset (V)
ACHFILTER	IQUANT	3	Ach Filter
IERANGELOWERLIMIT	IQUANT	1	I/E Range Lower Limit
IERANGEMODE	TOGGLE	F	I/E AutoRange
IERANGE	IQUANT	8	I/E Range
POSFEEDENABLE	TOGGLE	F	Positive Feedback IR Comp
POSFEEDRESISTANCE	QUANT	0	Positive Feedback Resistance (ohm)
ACHSELECT	IQUANT	0	Ach Select
CABLEID	IQUANT	14	Cable ID
DCCALDATE	LABEL	2/27/2020	DC Calibration Date
ACCALDATE	LABEL	2/27/2020	AC Calibration Date
THERMOSELECT	IQUANT	1	Thermo Select
FRAMEWORKVERSION	QUANT	6.33	Framework Version
INSTRUMENTVERSION	LABEL	3.50	Instrument Version
ZCURVE	TABLE
	Pt	Time	Freq	Zreal	Zimag	Zsig	Zmod	Zphz	Idc	Vdc	IERange
	#	s	Hz	ohm	ohm	V	ohm	°	A	V	#
	0	1	1000078	2160.272	-1628.86	1	2705.543	-37.01655	3.113411E-008	0.089647	8
	1	2	794390.6	2494.272	-1605.262	1	2966.186	-32.7645	5.441854E-008	0.0893019	8
	2	2	630984.4	2805.388	-1526.899	1	3193.998	-28.55829	5.642865E-008	0.0891443	8
	3	2	501234.4	3079.516	-1412.373	1	3387.951	-24.63783	5.768414E-008	0.0890403	8
	4	2	398109.4	3309.938	-1276.314	1	3547.488	-21.08667	5.890578E-008	0.0889646	8
	5	3	316265.6	3494.496	-1135.74	1	3674.427	-18.00459	3.721642E-008	0.0889437	8
	6	3	251203.1	3638.159	-997.755	1	3772.495	-15.33615	8.408814E-008	0.0889281	8
	7	3	199546.9	3756.732	-881.6772	1	3858.807	-13.20786	3.793138E-008	0.0889182	8
	8	4	158578.1	3848.106	-774.9128	1	3925.355	-11.38567	6.002237E-008	0.0889208	8
	9	4	125953.1	3951.111	-624.5522	1	4000.167	-8.982426	9.624268E-009	0.0888621	7
	10	4	100078.1	3994.4	-563.2867	1	4033.922	-8.02687	1.049504E-009	0.0888494	7
	11	5	79453.13	4044.889	-525.8007	1	4078.921	-7.406426	2.148139E-009	0.0888499	7
	12	5	63140.62	4090.858	-500.0253	1	4121.304	-6.968692	1.804311E-009	0.0888457	7
	13	5	50203.12	4134.635	-485.6427	1	4163.058	-6.699108	1.716785E-009	0.0888401	7
	14	6	39890.62	4177.531	-483.3365	1	4205.399	-6.599725	2.610646E-009	0.0888377	7
	15	6	31640.63	4220.532	-492.524	1	4249.173	-6.656147	2.624758E-009	0.0888393	7
	16	6	25171.88	4264.663	-513.3384	1	4295.447	-6.863684	2.326294E-009	0.0888401	7
	17	7	20015.62	4310.239	-546.2422	1	4344.714	-7.222667	2.53725E-009	0.088844	7
	18	7	15890.62	4359.538	-592.2205	1	4399.579	-7.735978	2.146589E-009	0.0888351	7
	19	7	12609.37	4412.764	-652.8536	1	4460.796	-8.415672	2.370039E-009	0.0888364	7
	20	8	10078.13	4468.237	-726.0275	1	4526.837	-9.229124	2.248156E-009	0.088834	7
	21	8	8015.625	4529.999	-818.9771	1	4603.435	-10.24779	2.701349E-009	0.0888351	7
	22	8	6328.125	4599.524	-936.9252	1	4693.98	-11.51365	3.426459E-009	0.0888353	7
	23	9	5015.625	4674.344	-1078.734	1	4797.203	-12.99507	2.990469E-009	0.0888318	7
	24	9	3984.375	4754.985	-1249.94	1	4916.526	-14.7281	2.848286E-009	0.0888337	7
	25	9	3170.956	4842.863	-1456.59	1	5057.171	-16.73974	5.125169E-009	0.0888393	7
	26	10	2527.573	4939.241	-1706.214	1	5225.635	-19.05699	3.77969E-009	0.0888309	7
	27	10	1976.103	5056.563	-2039.282	1	5452.293	-21.96393	4.315764E-009	0.0888316	7
	28	10	1577.524	5177.768	-2414.813	1	5713.196	-25.00345	3.454708E-009	0.0888308	7
	29	10	1265.625	5312.103	-2861.172	1	6033.635	-28.30752	2.954627E-009	0.0888253	7
	30	11	998.264	5478.327	-3447.651	1	6472.895	-32.18326	2.237355E-009	0.0888135	7
	31	11	796.875	5661.43	-4136.674	1	7011.694	-36.15473	5.119564E-009	0.0888272	7
	32	11	627.7902	5893.425	-5020.163	1	7741.737	-40.42516	4.073017E-009	0.0888247	7
	33	12	505.5147	6145.518	-6008.26	1	8594.567	-44.35296	3.053973E-009	0.0888181	7
	34	12	397.9953	6478.892	-7330.7	1	9783.42	-48.52967	4.818872E-009	0.0888389	7
	35	12	315.5048	6881.316	-8904.476	1	11253.54	-52.3034	7.761153E-010	0.0888908	6
	36	13	252.4038	7347.188	-10746.59	1	13018.08	-55.6405	6.114532E-010	0.0888884	6
	37	13	198.6229	7963.771	-13155.74	1	15378.4	-58.81157	7.092874E-010	0.0888905	6
	38	13	158.3615	8683.334	-15932.18	1	18144.82	-61.40879	4.997541E-010	0.0888857	6
	39	14	125.558	9593.44	-19386.54	1	21630.36	-63.67147	6.265945E-010	0.0888848	6
	40	14	100.4464	10677.21	-23409.66	1	25729.65	-65.48215	5.274636E-010	0.0888882	6
	41	14	79.00281	12133.64	-28677.32	1	31138.63	-67.06632	3.975124E-010	0.0888839	6
	42	15	63.3446	13819.6	-34555.55	1	37216.5	-68.20235	3.208806E-010	0.0888834	6
	43	15	49.86702	16135.34	-42274.43	1	45249.05	-69.1091	3.250947E-010	0.088881	6
	44	15	39.72458	18970.92	-51160.95	1	54564.99	-69.65479	4.495116E-010	0.0888835	6
	45	16	31.6723	22599.43	-61785.29	1	65788.73	-69.90881	5.09816E-010	0.0888795	6
	46	16	24.93351	27575.53	-75238.54	1	80132.69	-69.8717	1.345589E-011	0.0888817	6
	47	16	19.86229	33702.64	-90438.02	1	96513.8	-69.56158	-1.542389E-010	0.0888797	6
	48	17	15.83615	41564.84	-108186.8	1	115896.6	-68.98347	-1.447949E-011	0.0888918	5
	49	17	12.40079	52581.86	-130813.2	1	140985.6	-68.10178	-1.106037E-009	0.0888927	5
	50	17	9.93114	65161.75	-154354.5	1	167545.1	-67.11264	-1.076829E-009	0.0888873	5
	51	18	7.944915	80753.34	-181465.4	1	198622.3	-66.01061	-1.004883E-010	0.08889	5
	52	18	6.317385	100474.7	-212779.3	1	235308.8	-64.72324	9.590983E-011	0.0888758	5
	53	19	5.008013	124881.6	-248599.7	1	278203.6	-63.32778	-1.578751E-010	0.0888754	5
	54	20	3.945707	154699.4	-290098.9	1	328769.3	-61.93059	-2.678537E-010	0.0888756	5
	55	21	3.158693	187293.5	-332395.7	1	381530.8	-60.60024	-3.235415E-011	0.0888646	5
	56	22	2.504006	226667.2	-382136.6	1	444304.4	-59.32539	2.232564E-010	0.088873	5
	57	23	1.998082	269727.5	-434907.7	1	511759.3	-58.19302	1.827594E-011	0.088844	5
	58	25	1.584686	320965.1	-497998.4	1	592470.3	-57.1978	-7.217315E-011	0.0888231	5
	59	27	1.266892	374899.5	-565593.1	1	678561.1	-56.46186	-3.021186E-011	0.0888592	5
	60	29	0.999041	440659.8	-646031.7	1	782008.9	-55.70201	-6.935296E-012	0.0888892	5
