EXPLAIN
TAG	EISPOT
TITLE	LABEL	Potentiostatic EIS	Test &Identifier
DATE	LABEL	3/3/2020	Date
TIME	LABEL	16:35:21	Time
NOTES	NOTES	1	&Notes...
	
PSTAT	PSTAT	REF600-11020	Potentiostat
VDC	POTEN	0.00000E+000	T	DC &Voltage (V)
FREQINIT	QUANT	1.00000E+006	Initial Fre&q. (Hz)
FREQFINAL	QUANT	1.00000E+000	Final Fre&q. (Hz)
PTSPERDEC	QUANT	1.00000E+001	Points/&decade
VAC	QUANT	2.50000E+001	AC &Voltage (mV rms)
AREA	QUANT	1.60000E-004	&Area (cm^2)
CONDIT	TWOPARAM	F	1.50000E+001	0.00000E+000	Conditionin&g	Time(s)	E(V)
DELAY	TWOPARAM	F	1.00000E+002	0.00000E+000	Init. De&lay	Time(s)	Stab.(mV/s)
SPEED	SELECTOR	1	&Optimize for:
ZGUESS	QUANT	1.00000E+004	E&stimated Z (ohms)
OCVCURVE	TABLE	39
	Pt	T	Vf	Vm	Ach	Over
	#	s	V vs. Ref.	V	V	bits
	0	0.258333	8.33660E-002	8.33660E-002	5.70397E-004	...........
	1	0.516667	8.33642E-002	8.32707E-002	5.69730E-004	...........
	2	0.775	8.33526E-002	8.31599E-002	5.68530E-004	...........
	3	1.03333	8.33206E-002	8.31588E-002	5.68130E-004	...........
	4	1.29167	8.32685E-002	8.30993E-002	5.71830E-004	...........
	5	1.55	8.32098E-002	8.30783E-002	5.74430E-004	...........
	6	1.80833	8.31567E-002	8.30154E-002	5.75297E-004	...........
	7	2.06667	8.31098E-002	8.29333E-002	5.71730E-004	...........
	8	2.325	8.30627E-002	8.29112E-002	5.73763E-004	...........
	9	2.58333	8.30126E-002	8.29057E-002	5.68297E-004	...........
	10	2.84167	8.29654E-002	8.28667E-002	5.70430E-004	...........
	11	3.1	8.29277E-002	8.28725E-002	5.74630E-004	...........
	12	3.35833	8.29005E-002	8.28544E-002	5.74897E-004	...........
	13	3.61667	8.28813E-002	8.28349E-002	5.71197E-004	...........
	14	3.875	8.28663E-002	8.28141E-002	5.71297E-004	...........
	15	4.13333	8.28515E-002	8.27969E-002	5.75130E-004	...........
	16	4.39167	8.28349E-002	8.27787E-002	5.76930E-004	...........
	17	4.65	8.28170E-002	8.27595E-002	5.74463E-004	...........
	18	4.90833	8.27986E-002	8.27499E-002	5.70463E-004	...........
	19	5.16667	8.27808E-002	8.27280E-002	5.73330E-004	...........
	20	5.425	8.27637E-002	8.27073E-002	5.69730E-004	...........
	21	5.68333	8.27468E-002	8.27007E-002	5.73797E-004	...........
	22	5.94167	8.27301E-002	8.26877E-002	5.72130E-004	...........
	23	6.2	8.27146E-002	8.26731E-002	5.72797E-004	...........
	24	6.45833	8.27005E-002	8.26566E-002	5.68397E-004	...........
	25	6.71667	8.26870E-002	8.26436E-002	5.71297E-004	...........
	26	6.975	8.26733E-002	8.26348E-002	5.70530E-004	...........
	27	7.23333	8.26596E-002	8.26229E-002	5.71497E-004	...........
	28	7.49167	8.26469E-002	8.26147E-002	5.72097E-004	...........
	29	7.75	8.26353E-002	8.26016E-002	5.67663E-004	...........
	30	8.00833	8.26244E-002	8.25903E-002	5.71163E-004	...........
	31	8.26667	8.26137E-002	8.25807E-002	5.72030E-004	...........
	32	8.525	8.26028E-002	8.25680E-002	5.72830E-004	...........
	33	8.78333	8.25918E-002	8.25593E-002	5.69297E-004	...........
	34	9.04167	8.25809E-002	8.25517E-002	5.71230E-004	...........
	35	9.3	8.25706E-002	8.25421E-002	5.65930E-004	...........
	36	9.5583	8.25609E-002	8.25351E-002	5.70697E-004	...........
	37	9.8167	8.25520E-002	8.25257E-002	5.65830E-004	...........
	38	10.075	8.25434E-002	8.25175E-002	5.68297E-004	...........
EOC	QUANT	0.0825434	Open Circuit (V)
PSTATMODEL	IQUANT	4	Pstat Model
PSTATSECTION	LABEL	REF600-11020	Pstat Section
PSTATSERIALNO	LABEL	11020	Pstat Serial Number
CTRLMODE	IQUANT	1	Control Mode
IESTAB	IQUANT	0	I/E Stability
CASPEED	IQUANT	1	Control Amp Speed
CONVENTION	IQUANT	1	Current Convention
ICHRANGE	IQUANT	2	Ich Range
ICHRANGEMODE	TOGGLE	F	Ich Auto Range
ICHOFFSETENABLE	TOGGLE	T	Ich Offset Enable
ICHOFFSET	QUANT	0	Ich Offset (V)
ICHFILTER	IQUANT	3	Ich Filter
VCHRANGE	IQUANT	2	Vch Range
VCHRANGEMODE	TOGGLE	F	Vch Auto Range
VCHOFFSETENABLE	TOGGLE	T	Vch Offset Enable
VCHOFFSET	QUANT	0	Vch Offset (V)
VCHFILTER	IQUANT	3	Vch Filter
ACHRANGE	IQUANT	2	Ach Range
ACHOFFSETENABLE	TOGGLE	F	Ach Offset Enable
ACHOFFSET	QUANT	0	Ach Offset (V)
ACHFILTER	IQUANT	3	Ach Filter
IERANGELOWERLIMIT	IQUANT	1	I/E Range Lower Limit
IERANGEMODE	TOGGLE	F	I/E AutoRange
IERANGE	IQUANT	7	I/E Range
POSFEEDENABLE	TOGGLE	F	Positive Feedback IR Comp
POSFEEDRESISTANCE	QUANT	0	Positive Feedback Resistance (ohm)
ACHSELECT	IQUANT	0	Ach Select
CABLEID	IQUANT	14	Cable ID
DCCALDATE	LABEL	2/27/2020	DC Calibration Date
ACCALDATE	LABEL	2/27/2020	AC Calibration Date
THERMOSELECT	IQUANT	1	Thermo Select
FRAMEWORKVERSION	QUANT	6.33	Framework Version
INSTRUMENTVERSION	LABEL	3.50	Instrument Version
ZCURVE	TABLE
	Pt	Time	Freq	Zreal	Zimag	Zsig	Zmod	Zphz	Idc	Vdc	IERange
	#	s	Hz	ohm	ohm	V	ohm	°	A	V	#
	0	1	1000078	2231.329	-2221.189	1	3148.414	-44.86953	1.375989E-006	0.0844163	8
	1	3	794390.6	2684.162	-2311.128	1	3542.039	-40.72924	-6.287638E-007	0.0844871	8
	2	4	630984.4	3163.533	-2308.008	1	3915.972	-36.11324	-1.125384E-006	0.0844243	8
	3	5	501234.4	3629.125	-2237.841	1	4263.623	-31.65939	7.534226E-007	0.0840546	8
	4	7	398109.4	4042.568	-2077.988	1	4545.37	-27.20438	3.51704E-006	0.0836467	8
	5	8	316265.6	4405.521	-1915.164	1	4803.798	-23.4955	2.121649E-006	0.083605	8
	6	9	251203.1	4701.048	-1693.581	1	4996.806	-19.81186	-3.436661E-007	0.0840891	8
	7	11	199546.9	4951.365	-1472.981	1	5165.819	-16.56721	-1.426993E-006	0.0844506	8
	8	12	158578.1	5102.961	-1293.303	1	5264.299	-14.22169	1.432104E-007	0.0840047	8
	9	14	125953.1	5280.132	-1088.384	1	5391.138	-11.64714	-1.018189E-007	0.0842038	7
	10	15	100078.1	5361.332	-957.229	1	5446.115	-10.12311	1.804108E-008	0.0839598	7
	11	16	79453.13	5449.154	-851.072	1	5515.216	-8.876981	1.852857E-008	0.0839524	7
	12	18	63140.62	5521.077	-769.0628	1	5574.383	-7.930034	3.982059E-008	0.0840088	7
	13	19	50203.12	5583.945	-706.9938	1	5628.524	-7.215931	3.733121E-008	0.0838731	7
	14	21	39890.62	5639.748	-664.7499	1	5678.789	-6.722364	-2.069494E-009	0.0840586	7
	15	22	31640.63	5692.848	-640.5472	1	5728.771	-6.419798	8.913826E-008	0.0838246	7
	16	23	25171.88	5741.992	-635.7414	1	5777.079	-6.317937	-1.074413E-008	0.0839474	7
	17	25	20015.62	5793.094	-646.4879	1	5829.055	-6.367651	-2.194513E-009	0.0840543	7
	18	26	15890.62	5844.897	-674.6311	1	5883.702	-6.584072	-5.639721E-008	0.0840444	7
	19	27	12609.37	5899.157	-721.5682	1	5943.124	-6.973616	-5.811307E-008	0.0840229	7
	20	29	10078.13	5953.392	-780.8896	1	6004.387	-7.472665	-5.690499E-008	0.0840356	7
	21	30	8015.625	6019.679	-868.9842	1	6082.077	-8.214314	4.083693E-008	0.0840018	7
	22	31	6328.125	6083.386	-981.907	1	6162.12	-9.168921	-5.555589E-008	0.0840407	7
	23	33	5015.625	6153.488	-1119.696	1	6254.529	-10.31278	-3.678724E-008	0.0839705	7
	24	34	3984.375	6229.926	-1293.417	1	6362.775	-11.72876	-4.244239E-008	0.0840602	7
	25	36	3170.956	6306.719	-1509.135	1	6484.767	-13.45726	-5.577842E-008	0.0840453	7
	26	37	2527.573	6395.218	-1773.99	1	6636.705	-15.50365	-4.115439E-008	0.0840536	7
	27	38	1976.103	6503.269	-2129.902	1	6843.171	-18.13427	-5.649118E-008	0.0840325	7
	28	40	1577.524	6613.141	-2532.383	1	7081.426	-20.95344	-3.630391E-008	0.0839679	7
	29	41	1265.625	6732.614	-3022.715	1	7380.034	-24.17846	6.976307E-008	0.0839429	7
	30	42	998.264	6897.855	-3662.262	1	7809.774	-27.96507	4.041687E-008	0.0838701	7
	31	44	796.875	7074.447	-4405.981	1	8334.295	-31.91474	1.910396E-008	0.083943	7
	32	45	627.7902	7296.307	-5391.27	1	9072.039	-36.46084	-3.879619E-008	0.0840775	7
	33	47	505.5147	7553.148	-6467.792	1	9943.96	-40.57358	1.077777E-008	0.0839294	6
	34	48	397.9953	7888.112	-7928.523	1	11184.09	-45.14639	4.177528E-010	0.0840509	6
	35	49	315.5048	8287.857	-9670.04	1	12735.71	-49.40126	2.483663E-010	0.0840445	6
	36	51	252.4038	8758.501	-11710.08	1	14623.18	-53.20551	4.25271E-010	0.0840388	6
	37	52	198.6229	9386.611	-14386.01	1	17177.48	-56.87628	5.997141E-010	0.0840384	6
	38	53	158.3615	10128.85	-17482.37	1	20204.62	-59.91305	4.979744E-010	0.084039	6
	39	55	125.558	11074.46	-21333.56	1	24036.73	-62.56574	4.62862E-010	0.0840333	6
	40	56	100.4464	12219.01	-25848.38	1	28590.96	-64.69902	5.765921E-010	0.0840358	6
	41	58	79.00281	13793.2	-31719.62	1	34588.82	-66.49831	2.980159E-010	0.0840358	6
	42	59	63.3446	15736.29	-38285.5	1	41393.36	-67.65613	4.165161E-010	0.0840298	6
	43	60	49.86702	17937.4	-47073.73	1	50375.46	-69.1407	5.653563E-010	0.0840325	6
	44	62	39.72458	20919.5	-56882.94	1	60607.71	-69.80829	4.350569E-010	0.0840369	6
	45	63	31.6723	24799.17	-68708.64	1	73047.09	-70.15385	5.277121E-010	0.0840336	6
	46	64	24.93351	29835.44	-83990.5	1	89132.25	-70.44374	6.250638E-010	0.0840316	6
	47	66	19.86229	36206.14	-101217.1	1	107497.9	-70.31748	3.524492E-010	0.0840352	5
	48	67	15.83615	44079.36	-121139.9	1	128910.3	-70.00499	1.160708E-010	0.084041	5
	49	69	12.40079	55356.96	-147762.8	1	157791.7	-69.46234	4.520955E-010	0.0840364	5
	50	70	9.93114	69182.36	-175977.7	1	189088.2	-68.53865	1.370581E-011	0.0840428	5
	51	72	7.944915	86346.46	-208035.3	1	225243	-67.45878	6.875411E-010	0.0840401	5
	52	73	6.317385	108021.3	-245661.2	1	268361.7	-66.2641	3.468842E-010	0.0840556	5
	53	75	5.008013	135161.5	-288880.2	1	318936.3	-64.92601	3.143203E-010	0.0840411	5
	54	78	3.945707	169104.4	-338853.5	1	378705.7	-63.47858	2.850638E-010	0.0840468	5
	55	81	3.158693	207051	-390737.9	1	442206.1	-62.08099	4.076465E-011	0.0840487	5
	56	84	2.504006	252360.1	-450613.6	1	516467.1	-60.74958	3.160499E-010	0.084036	5
	57	87	1.998082	302609	-515066.7	1	597382.6	-59.56516	1.213748E-011	0.0840873	5
	58	90	1.584686	359996.3	-590270.9	1	691387.8	-58.62169	2.165761E-010	0.0840605	5
	59	93	1.266892	425300.5	-671459.6	1	794819.8	-57.64995	6.509213E-011	0.0840905	5
	60	98	0.999041	500984.2	-769085.1	1	917865.4	-56.91967	8.308341E-011	0.0840044	5
