EXPLAIN
TAG	EISPOT
TITLE	LABEL	Potentiostatic EIS	Test &Identifier
DATE	LABEL	2/21/2020	Date
TIME	LABEL	17:59:09	Time
NOTES	NOTES	1	&Notes...
	
PSTAT	PSTAT	REF600-11020	Potentiostat
VDC	POTEN	0.00000E+000	T	DC &Voltage (V)
FREQINIT	QUANT	1.00000E+006	Initial Fre&q. (Hz)
FREQFINAL	QUANT	1.00000E+000	Final Fre&q. (Hz)
PTSPERDEC	QUANT	1.00000E+001	Points/&decade
VAC	QUANT	2.50000E+001	AC &Voltage (mV rms)
AREA	QUANT	2.08200E-005	&Area (cm^2)
CONDIT	TWOPARAM	F	1.50000E+001	0.00000E+000	Conditionin&g	Time(s)	E(V)
DELAY	TWOPARAM	F	1.00000E+002	0.00000E+000	Init. De&lay	Time(s)	Stab.(mV/s)
SPEED	SELECTOR	1	&Optimize for:
ZGUESS	QUANT	2.00000E+003	E&stimated Z (ohms)
OCVCURVE	TABLE	39
	Pt	T	Vf	Vm	Ach	Over
	#	s	V vs. Ref.	V	V	bits
	0	0.258333	-1.51801E-002	-1.51801E-002	5.72404E-004	...........
	1	0.516667	-1.51794E-002	-1.51454E-002	5.68604E-004	...........
	2	0.775	-1.51763E-002	-1.51610E-002	5.74804E-004	...........
	3	1.03333	-1.51699E-002	-1.51499E-002	5.73104E-004	...........
	4	1.29167	-1.51630E-002	-1.51689E-002	5.76804E-004	...........
	5	1.55	-1.51590E-002	-1.51648E-002	5.74138E-004	...........
	6	1.80833	-1.51596E-002	-1.51986E-002	5.69504E-004	...........
	7	2.06667	-1.51660E-002	-1.52384E-002	5.72304E-004	...........
	8	2.325	-1.51737E-002	-1.49301E-002	5.71804E-004	...........
	9	2.58333	-1.51633E-002	-1.49725E-002	5.72404E-004	...........
	10	2.84167	-1.51190E-002	-1.50009E-002	5.75971E-004	...........
	11	3.1	-1.50585E-002	-1.49984E-002	5.69604E-004	...........
	12	3.35833	-1.50144E-002	-1.50374E-002	5.74871E-004	...........
	13	3.61667	-1.49996E-002	-1.50532E-002	5.76637E-004	...........
	14	3.875	-1.50079E-002	-1.50866E-002	5.77471E-004	...........
	15	4.13333	-1.50285E-002	-1.51111E-002	5.78437E-004	...........
	16	4.39167	-1.50536E-002	-1.50992E-002	5.76571E-004	...........
	17	4.65	-1.50767E-002	-1.51096E-002	5.79537E-004	...........
	18	4.90833	-1.50933E-002	-1.51091E-002	5.75338E-004	...........
	19	5.16667	-1.51032E-002	-1.51326E-002	5.76571E-004	...........
	20	5.425	-1.51100E-002	-1.51349E-002	5.76104E-004	...........
	21	5.68333	-1.51175E-002	-1.51552E-002	5.70971E-004	...........
	22	5.94167	-1.51269E-002	-1.51524E-002	5.67838E-004	...........
	23	6.2	-1.51374E-002	-1.51766E-002	5.71938E-004	...........
	24	6.45833	-1.51478E-002	-1.51585E-002	5.73838E-004	...........
	25	6.71667	-1.51567E-002	-1.51788E-002	5.72704E-004	...........
	26	6.975	-1.51638E-002	-1.51921E-002	5.74104E-004	...........
	27	7.23333	-1.51710E-002	-1.52220E-002	5.76604E-004	...........
	28	7.49167	-1.51811E-002	-1.52067E-002	5.79104E-004	...........
	29	7.75	-1.51936E-002	-1.52338E-002	5.83171E-004	...........
	30	8.00833	-1.52057E-002	-1.52259E-002	5.80437E-004	...........
	31	8.26667	-1.52160E-002	-1.52490E-002	5.74937E-004	...........
	32	8.525	-1.52248E-002	-1.52385E-002	5.78237E-004	...........
	33	8.78333	-1.52325E-002	-1.52551E-002	5.75704E-004	...........
	34	9.04167	-1.52392E-002	-1.52544E-002	5.70971E-004	...........
	35	9.3	-1.52452E-002	-1.52679E-002	5.72638E-004	...........
	36	9.5583	-1.52512E-002	-1.52695E-002	5.73904E-004	...........
	37	9.8167	-1.52574E-002	-1.52680E-002	5.72938E-004	...........
	38	10.075	-1.52631E-002	-1.52816E-002	5.73404E-004	...........
EOC	QUANT	-0.0152631	Open Circuit (V)
PSTATMODEL	IQUANT	4	Pstat Model
PSTATSECTION	LABEL	REF600-11020	Pstat Section
PSTATSERIALNO	LABEL	11020	Pstat Serial Number
CTRLMODE	IQUANT	1	Control Mode
IESTAB	IQUANT	0	I/E Stability
CASPEED	IQUANT	1	Control Amp Speed
CONVENTION	IQUANT	1	Current Convention
ICHRANGE	IQUANT	2	Ich Range
ICHRANGEMODE	TOGGLE	F	Ich Auto Range
ICHOFFSETENABLE	TOGGLE	T	Ich Offset Enable
ICHOFFSET	QUANT	0	Ich Offset (V)
ICHFILTER	IQUANT	3	Ich Filter
VCHRANGE	IQUANT	2	Vch Range
VCHRANGEMODE	TOGGLE	F	Vch Auto Range
VCHOFFSETENABLE	TOGGLE	T	Vch Offset Enable
VCHOFFSET	QUANT	0	Vch Offset (V)
VCHFILTER	IQUANT	3	Vch Filter
ACHRANGE	IQUANT	2	Ach Range
ACHOFFSETENABLE	TOGGLE	F	Ach Offset Enable
ACHOFFSET	QUANT	0	Ach Offset (V)
ACHFILTER	IQUANT	3	Ach Filter
IERANGELOWERLIMIT	IQUANT	1	I/E Range Lower Limit
IERANGEMODE	TOGGLE	F	I/E AutoRange
IERANGE	IQUANT	7	I/E Range
POSFEEDENABLE	TOGGLE	F	Positive Feedback IR Comp
POSFEEDRESISTANCE	QUANT	0	Positive Feedback Resistance (ohm)
ACHSELECT	IQUANT	0	Ach Select
CABLEID	IQUANT	14	Cable ID
DCCALDATE	LABEL	1/27/2020	DC Calibration Date
ACCALDATE	LABEL	1/27/2020	AC Calibration Date
THERMOSELECT	IQUANT	1	Thermo Select
FRAMEWORKVERSION	QUANT	6.33	Framework Version
INSTRUMENTVERSION	LABEL	3.50	Instrument Version
ZCURVE	TABLE
	Pt	Time	Freq	Zreal	Zimag	Zsig	Zmod	Zphz	Idc	Vdc	IERange
	#	s	Hz	ohm	ohm	V	ohm	°	A	V	#
	0	2	1000078	1678.267	-2212.471	1	2776.978	-52.8179	1.342096E-007	-0.0129525	8
	1	3	794390.6	2057.808	-2433.945	1	3187.266	-49.78675	-7.347914E-007	-0.0133652	8
	2	4	630984.4	2472.972	-2628.805	1	3609.184	-46.74955	4.104514E-007	-0.0136219	8
	3	6	501234.4	2900.037	-2799.797	1	4031.014	-43.99248	7.525185E-008	-0.0137037	8
	4	7	398109.4	3361.484	-2952.711	1	4474.157	-41.29591	2.043929E-006	-0.0140984	8
	5	8	316265.6	3830.056	-3098.238	1	4926.298	-38.97035	1.789477E-007	-0.013791	8
	6	10	251203.1	4324.321	-3237.114	1	5401.728	-36.81791	8.406509E-007	-0.0138755	8
	7	11	199546.9	4859.471	-3365.397	1	5911.037	-34.7043	1.681817E-007	-0.0137848	8
	8	12	158578.1	5426.992	-3478.142	1	6445.907	-32.65568	-5.048385E-007	-0.0136947	8
	9	14	125953.1	6022.922	-3550.407	1	6991.493	-30.5186	-3.774988E-007	-0.0127619	7
	10	15	100078.1	6653.971	-3588.302	1	7559.844	-28.33675	-1.871232E-008	-0.0137529	7
	11	17	79453.13	7300.986	-3580.511	1	8131.695	-26.12401	8.084303E-009	-0.0137484	7
	12	18	63140.62	7938.183	-3502.655	1	8676.597	-23.80906	-1.57888E-008	-0.0137657	7
	13	19	50203.12	8548.701	-3357.121	1	9184.256	-21.4402	2.143753E-008	-0.0137821	7
	14	21	39890.62	9117.085	-3157.565	1	9648.39	-19.10275	2.285773E-008	-0.0137743	7
	15	22	31640.63	9610.42	-2913.009	1	10042.2	-16.86256	1.947946E-008	-0.0138121	7
	16	24	25171.88	10036.77	-2658.449	1	10382.88	-14.83531	-8.741814E-009	-0.0137659	7
	17	25	20015.62	10387.72	-2406.621	1	10662.86	-13.04412	-9.19594E-009	-0.01377	7
	18	27	15890.62	10678.62	-2172.242	1	10897.32	-11.49821	-1.626042E-008	-0.0137653	7
	19	28	12609.37	10924.73	-1933.329	1	11094.48	-10.03562	1.317615E-009	-0.0138233	6
	20	30	10078.13	11106.81	-1777.035	1	11248.07	-9.089998	-2.746339E-009	-0.0137494	6
	21	32	8015.625	11256.05	-1663.454	1	11378.3	-8.4065	5.643468E-009	-0.0139015	6
	22	33	6328.125	11381.75	-1593.483	1	11492.75	-7.9698	-1.54884E-009	-0.0137879	6
	23	35	5015.625	11486.4	-1580.607	1	11594.64	-7.83508	-2.464119E-009	-0.0137904	6
	24	36	3984.375	11587.16	-1624.039	1	11700.42	-7.978518	-1.785745E-009	-0.0137384	6
	25	38	3170.956	11668.6	-1725.043	1	11795.42	-8.409484	5.157151E-010	-0.0137538	6
	26	40	2527.573	11750.77	-1887.139	1	11901.34	-9.123629	-2.654438E-009	-0.0137552	6
	27	41	1976.103	11845.03	-2145.838	1	12037.83	-10.26831	5.200707E-009	-0.0139024	6
	28	43	1577.524	11942.52	-2468.219	1	12194.91	-11.67719	3.737854E-009	-0.013802	6
	29	44	1265.625	12048.75	-2879.381	1	12388.03	-13.44032	4.551789E-009	-0.0138385	6
	30	46	998.264	12177.98	-3438.647	1	12654.15	-15.76788	6.086871E-009	-0.0139076	6
	31	47	796.875	12317.24	-4112.615	1	12985.68	-18.46371	-2.620866E-010	-0.0138205	6
	32	49	627.7902	12519.02	-5009.3	1	13484.03	-21.80809	-6.667678E-011	-0.0137632	6
	33	50	505.5147	12733.33	-6002.483	1	14077.2	-25.23916	8.501014E-010	-0.0138336	6
	34	51	397.9953	13032.59	-7366.803	1	14970.57	-29.47775	9.323472E-010	-0.0137821	6
	35	53	315.5048	13406.45	-8996.17	1	16145.09	-33.86292	7.785406E-010	-0.0137856	6
	36	54	252.4038	13868.46	-10909.25	1	17645	-38.18943	8.05812E-010	-0.0137859	6
	37	56	198.6229	14516.3	-13424.02	1	19771.88	-42.76127	1.128115E-009	-0.0137769	6
	38	57	158.3615	15332.79	-16312.05	1	22386.99	-46.77246	7.61434E-010	-0.0137891	6
	39	59	125.558	16410.07	-19896.83	1	25790.97	-50.48562	8.616716E-010	-0.0137876	6
	40	60	100.4464	17779.43	-24045	1	29904.35	-53.51993	9.433766E-010	-0.0137922	6
	41	62	79.00281	19727	-29351.31	1	35364.59	-56.09497	8.995679E-010	-0.0137926	6
	42	63	63.3446	22366.54	-35292.81	1	41783.3	-57.63585	8.658909E-010	-0.0137953	6
	43	65	49.86702	25320.42	-42854.53	1	49775.84	-59.42346	6.659433E-010	-0.0137972	6
	44	66	39.72458	29682.46	-50978.12	1	58989.97	-59.78952	4.393515E-010	-0.0137881	6
	45	68	31.6723	35093.34	-60193.41	1	69676.31	-59.7574	8.208914E-010	-0.0137947	6
	46	69	24.93351	42155.57	-71534.26	1	83031.57	-59.4889	5.584074E-010	-0.0137934	6
	47	70	19.86229	50625.23	-83326.11	1	97499.5	-58.719	1.829531E-009	-0.0137883	6
	48	72	15.83615	60907.07	-95435.5	1	113214.8	-57.45391	6.860519E-010	-0.0137944	5
	49	73	12.40079	74115.45	-111739	1	134084.7	-56.44404	-2.854054E-010	-0.0137969	5
	50	75	9.93114	88108.47	-125957.3	1	153715.1	-55.0268	8.774129E-010	-0.0138001	5
	51	76	7.944915	103164.3	-141511.7	1	175124	-53.90736	-6.613031E-010	-0.0137862	5
	52	78	6.317385	120852.6	-158384.3	1	199225.9	-52.65516	-1.611433E-010	-0.0137829	5
	53	80	5.008013	139774.3	-177555.9	1	225971.1	-51.78972	7.938093E-011	-0.0138031	5
	54	82	3.945707	159827.2	-199462.2	1	255597.1	-51.29514	5.658171E-010	-0.0137918	5
	55	85	3.158693	179802.2	-223559.9	1	286893.5	-51.19138	-1.401907E-010	-0.0138083	5
	56	88	2.504006	201818.6	-253213.9	1	323802.4	-51.44416	6.413777E-010	-0.013794	5
	57	91	1.998082	224726.1	-287743.5	1	365100.2	-52.01036	3.830307E-010	-0.0137751	5
	58	94	1.584686	251110.6	-329941.8	1	414630.1	-52.72612	1.645674E-010	-0.013848	5
	59	98	1.266892	278521.6	-379453.8	1	470701.1	-53.72109	3.460658E-010	-0.0138224	5
	60	102	0.999041	312450.7	-443071.2	1	542160.1	-54.80878	-1.456259E-010	-0.0137951	5
