EXPLAIN
TAG	EISPOT
TITLE	LABEL	Potentiostatic EIS	Test &Identifier
DATE	LABEL	1/28/2020	Date
TIME	LABEL	12:38:38	Time
NOTES	NOTES	6	&Notes...
	
	
	
	
	
	
PSTAT	PSTAT	REF600-11020	Potentiostat
VDC	POTEN	0.00000E+000	T	DC &Voltage (V)
FREQINIT	QUANT	1.00000E+006	Initial Fre&q. (Hz)
FREQFINAL	QUANT	1.00000E+000	Final Fre&q. (Hz)
PTSPERDEC	QUANT	1.00000E+001	Points/&decade
VAC	QUANT	2.50000E+001	AC &Voltage (mV rms)
AREA	QUANT	1.60000E-004	&Area (cm^2)
CONDIT	TWOPARAM	F	5.00000E+000	0.00000E+000	Conditionin&g	Time(s)	E(V)
DELAY	TWOPARAM	F	5.00000E+000	0.00000E+000	Init. De&lay	Time(s)	Stab.(mV/s)
SPEED	SELECTOR	0	&Optimize for:
ZGUESS	QUANT	1.00000E+003	E&stimated Z (ohms)
OCVCURVE	TABLE	39
	Pt	T	Vf	Vm	Ach	Over
	#	s	V vs. Ref.	V	V	bits
	0	0.258333	6.36529E-002	6.36529E-002	5.81504E-004	...........
	1	0.516667	6.36525E-002	6.36277E-002	5.82604E-004	...........
	2	0.775	6.36507E-002	6.36676E-002	5.83304E-004	...........
	3	1.03333	6.36482E-002	6.36172E-002	5.81171E-004	...........
	4	1.29167	6.36454E-002	6.36401E-002	5.79804E-004	...........
	5	1.55	6.36420E-002	6.36436E-002	5.77804E-004	...........
	6	1.80833	6.36395E-002	6.36548E-002	5.77971E-004	...........
	7	2.06667	6.36404E-002	6.36620E-002	5.77837E-004	...........
	8	2.325	6.36451E-002	6.36601E-002	5.76637E-004	...........
	9	2.58333	6.36511E-002	6.36483E-002	5.79171E-004	...........
	10	2.84167	6.36549E-002	6.36422E-002	5.83704E-004	...........
	11	3.1	6.36547E-002	6.36481E-002	5.82504E-004	...........
	12	3.35833	6.36518E-002	6.36563E-002	5.82971E-004	...........
	13	3.61667	6.36498E-002	6.36639E-002	5.82971E-004	...........
	14	3.875	6.36516E-002	6.36897E-002	5.81171E-004	...........
	15	4.13333	6.36476E-002	6.31438E-002	5.79704E-004	...........
	16	4.39167	6.35844E-002	6.21474E-002	5.83337E-004	...........
	17	4.65	6.33852E-002	6.26656E-002	5.82037E-004	...........
	18	4.90833	6.30783E-002	6.29687E-002	5.72438E-004	...........
	19	5.16667	6.28300E-002	6.31125E-002	5.78371E-004	...........
	20	5.425	6.27680E-002	6.31713E-002	5.81237E-004	...........
	21	5.68333	6.28624E-002	6.32792E-002	5.78004E-004	...........
	22	5.94167	6.30102E-002	6.32934E-002	5.79571E-004	...........
	23	6.2	6.31406E-002	6.33282E-002	5.83137E-004	...........
	24	6.45833	6.32354E-002	6.35422E-002	5.80071E-004	...........
	25	6.71667	6.33125E-002	6.36294E-002	5.80837E-004	...........
	26	6.975	6.33968E-002	6.36455E-002	5.82271E-004	...........
	27	7.23333	6.34875E-002	6.35572E-002	5.75704E-004	...........
	28	7.49167	6.35599E-002	6.36603E-002	5.80004E-004	...........
	29	7.75	6.36019E-002	6.37121E-002	5.82871E-004	...........
	30	8.00833	6.36277E-002	6.36839E-002	5.80171E-004	...........
	31	8.26667	6.36517E-002	6.36790E-002	5.78904E-004	...........
	32	8.525	6.36716E-002	6.36740E-002	5.79537E-004	...........
	33	8.78333	6.36812E-002	6.36789E-002	5.84137E-004	...........
	34	9.04167	6.36822E-002	6.36763E-002	5.81571E-004	...........
	35	9.3	6.36805E-002	6.36990E-002	5.82004E-004	...........
	36	9.5583	6.36812E-002	6.37266E-002	5.81271E-004	...........
	37	9.8167	6.36873E-002	6.36952E-002	5.82537E-004	...........
	38	10.075	6.36952E-002	6.36481E-002	5.78037E-004	...........
EOC	QUANT	0.0636952	Open Circuit (V)
PSTATMODEL	IQUANT	4	Pstat Model
PSTATSECTION	LABEL	REF600-11020	Pstat Section
PSTATSERIALNO	LABEL	11020	Pstat Serial Number
CTRLMODE	IQUANT	1	Control Mode
IESTAB	IQUANT	0	I/E Stability
CASPEED	IQUANT	1	Control Amp Speed
CONVENTION	IQUANT	1	Current Convention
ICHRANGE	IQUANT	2	Ich Range
ICHRANGEMODE	TOGGLE	F	Ich Auto Range
ICHOFFSETENABLE	TOGGLE	T	Ich Offset Enable
ICHOFFSET	QUANT	0	Ich Offset (V)
ICHFILTER	IQUANT	3	Ich Filter
VCHRANGE	IQUANT	2	Vch Range
VCHRANGEMODE	TOGGLE	F	Vch Auto Range
VCHOFFSETENABLE	TOGGLE	T	Vch Offset Enable
VCHOFFSET	QUANT	0	Vch Offset (V)
VCHFILTER	IQUANT	3	Vch Filter
ACHRANGE	IQUANT	2	Ach Range
ACHOFFSETENABLE	TOGGLE	F	Ach Offset Enable
ACHOFFSET	QUANT	0	Ach Offset (V)
ACHFILTER	IQUANT	3	Ach Filter
IERANGELOWERLIMIT	IQUANT	1	I/E Range Lower Limit
IERANGEMODE	TOGGLE	F	I/E AutoRange
IERANGE	IQUANT	8	I/E Range
POSFEEDENABLE	TOGGLE	F	Positive Feedback IR Comp
POSFEEDRESISTANCE	QUANT	0	Positive Feedback Resistance (ohm)
ACHSELECT	IQUANT	0	Ach Select
CABLEID	IQUANT	14	Cable ID
DCCALDATE	LABEL	1/27/2020	DC Calibration Date
ACCALDATE	LABEL	1/27/2020	AC Calibration Date
THERMOSELECT	IQUANT	1	Thermo Select
FRAMEWORKVERSION	QUANT	6.33	Framework Version
INSTRUMENTVERSION	LABEL	3.50	Instrument Version
ZCURVE	TABLE
	Pt	Time	Freq	Zreal	Zimag	Zsig	Zmod	Zphz	Idc	Vdc	IERange
	#	s	Hz	ohm	ohm	V	ohm	°	A	V	#
	0	1	1000078	2228.352	-2025.389	1	3011.271	-42.26826	2.391386E-006	0.0652346	8
	1	1	794390.6	2626.454	-2085.357	1	3353.651	-38.44894	-3.779696E-006	0.0663781	8
	2	2	630984.4	3021.348	-2086.065	1	3671.541	-34.62282	-1.01222E-006	0.0659414	8
	3	2	501234.4	3418.225	-2027.689	1	3974.391	-30.67639	1.142324E-008	0.0657121	8
	4	2	398109.4	3795.898	-1954.201	1	4269.396	-27.24028	1.185667E-006	0.0652188	8
	5	3	316265.6	4124.295	-1832.117	1	4512.922	-23.95201	-1.186983E-007	0.0653786	8
	6	3	251203.1	4411.162	-1694.143	1	4725.301	-21.0097	-8.991691E-009	0.0653551	8
	7	3	199546.9	4655.188	-1531.06	1	4900.501	-18.20569	2.391272E-007	0.0651954	8
	8	4	158578.1	4865.088	-1387.241	1	5059.004	-15.91508	-2.100075E-006	0.0657586	8
	9	4	125953.1	5061.743	-1205.501	1	5203.314	-13.39597	-1.051599E-007	0.0653239	7
	10	4	100078.1	5203.907	-1089.89	1	5316.814	-11.82887	6.598007E-008	0.0652115	7
	11	5	79453.13	5319.129	-994.435	1	5411.288	-10.58945	6.604882E-008	0.0651989	7
	12	5	63140.62	5419.181	-918.7168	1	5496.505	-9.6219	7.010561E-008	0.0652178	7
	13	5	50203.12	5508.001	-860.4106	1	5574.799	-8.87848	3.943499E-009	0.0653458	7
	14	6	39890.62	5588.516	-823.7462	1	5648.9	-8.385009	6.565705E-009	0.0652585	7
	15	6	31640.63	5664.711	-806.8727	1	5721.888	-8.106591	-1.403085E-008	0.0653646	7
	16	6	25171.88	5741.044	-806.8169	1	5797.46	-7.999664	6.318906E-008	0.0653006	7
	17	7	20015.62	5814.366	-822.6314	1	5872.272	-8.052905	7.053694E-008	0.0652092	7
	18	7	15890.62	5893.654	-862.0634	1	5956.368	-8.321629	1.244933E-008	0.0652721	7
	19	7	12609.37	5977.052	-917.3779	1	6047.043	-8.725854	6.68145E-008	0.0651897	7
	20	7	10078.13	6064.104	-990.165	1	6144.411	-9.273584	-3.576854E-008	0.0653507	7
	21	8	8015.625	6161.018	-1084.794	1	6255.791	-9.98593	-2.653838E-008	0.0653304	7
	22	8	6328.125	6273.443	-1202.423	1	6387.637	-10.85022	-3.345524E-008	0.065445	7
	23	8	5015.625	6392.237	-1343.237	1	6531.843	-11.86723	3.459027E-008	0.0652757	7
	24	9	3984.375	6518.165	-1506.139	1	6689.913	-13.01087	-3.542756E-008	0.0653649	7
	25	9	3170.956	6656.367	-1705.47	1	6871.378	-14.37097	3.548068E-008	0.0652743	7
	26	9	2527.573	6800.241	-1938.303	1	7071.088	-15.90938	3.978206E-008	0.065194	7
	27	10	1976.103	6965.098	-2245.845	1	7318.224	-17.87154	3.586729E-008	0.0652717	7
	28	10	1577.524	7115.088	-2604.088	1	7576.658	-20.10238	5.812429E-009	0.0652456	7
	29	10	1265.625	7290.921	-3004.732	1	7885.806	-22.39752	-1.632745E-008	0.065353	7
	30	11	998.264	7483.074	-3552.745	1	8283.622	-25.397	-1.428349E-008	0.0653498	7
	31	11	796.875	7685.972	-4198.859	1	8758.115	-28.64785	-3.424115E-008	0.0653797	7
	32	11	627.7902	7931.641	-5039.506	1	9397.209	-32.43055	-3.174976E-008	0.065438	7
	33	12	505.5147	8190.706	-5972.735	1	10137.12	-36.09986	4.07794E-010	0.0653617	6
	34	12	397.9953	8524.907	-7247.422	1	11189.24	-40.36942	1.441953E-009	0.0653224	6
	35	12	315.5048	8920.083	-8772.8	1	12511.19	-44.52306	1.538168E-009	0.0653211	6
	36	13	252.4038	9381.41	-10564.16	1	14128.42	-48.39359	1.51958E-009	0.0653165	6
	37	13	198.6229	9996.71	-12914.37	1	16331.42	-52.2574	7.464289E-010	0.0653147	6
	38	13	158.3615	10721.97	-15623.94	1	18949.09	-55.54003	1.472687E-009	0.0653117	6
	39	14	125.558	11651.58	-18997.89	1	22286.3	-58.47884	8.019396E-010	0.0653161	6
	40	14	100.4464	12786.32	-22891.52	1	26220.44	-60.81395	1.617567E-009	0.0653138	6
	41	14	79.00281	14289.08	-28061.69	1	31490.25	-63.01469	8.041144E-010	0.0653116	6
	42	15	63.3446	15952.47	-33342.65	1	36962.32	-64.43167	8.513582E-010	0.0653094	6
	43	15	49.86702	18412.43	-40763.96	1	44729.39	-65.69206	6.768828E-010	0.0653135	6
	44	15	39.72458	21215.16	-49316.1	1	53685.76	-66.72324	1.139833E-009	0.0653146	6
	45	16	31.6723	24625.84	-59320.38	1	64228.81	-67.45506	9.616852E-010	0.0653072	6
	46	16	24.93351	29357.97	-72083.5	1	77832.65	-67.84005	7.204595E-010	0.0653074	6
	47	16	19.86229	35005.36	-86551.71	1	93362.59	-67.97941	1.605714E-009	0.0653116	6
	48	16	15.83615	41191.02	-103897.1	1	111764.5	-68.37367	4.21236E-010	0.0653067	5
	49	17	12.40079	51325.34	-125608.9	1	135690.4	-67.77447	2.702934E-010	0.0653075	5
	50	17	9.93114	63861.4	-148380.8	1	161539.9	-66.7135	8.32601E-010	0.0653042	5
	51	18	7.944915	78587.81	-174966	1	191805	-65.81227	1.178368E-010	0.0653075	5
	52	18	6.317385	97173.7	-206057.3	1	227820.8	-64.7521	5.711171E-012	0.0653088	5
	53	19	5.008013	120233.3	-241281.5	1	269579	-63.51241	2.729326E-010	0.065311	5
	54	20	3.945707	148474.1	-281107.2	1	317908.5	-62.15805	7.504709E-012	0.0652974	5
	55	22	3.158693	179231.2	-322951.7	1	369353	-60.97067	1.844752E-010	0.0652948	5
	56	23	2.504006	214891.8	-371393.9	1	429082.7	-59.94595	2.386801E-010	0.0653006	5
	57	24	1.998082	253747.7	-423915.7	1	494057	-59.09608	-6.636182E-012	0.0652604	5
	58	26	1.584686	296263	-487312.8	1	570303	-58.70238	2.615896E-011	0.0652693	5
	59	28	1.266892	342026.1	-556696.4	1	653370.3	-58.43405	9.339393E-011	0.0653015	5
	60	30	0.999041	397086	-644682.4	1	757160.9	-58.3694	1.13542E-010	0.0653223	5
