EXPLAIN
TAG	EISPOT
TITLE	LABEL	Potentiostatic EIS	Test &Identifier
DATE	LABEL	7/13/2020	Date
TIME	LABEL	20:15:56	Time
NOTES	NOTES	1	&Notes...
	
PSTAT	PSTAT	REF600-11020	Potentiostat
VDC	POTEN	0.00000E+000	T	DC &Voltage (V)
FREQINIT	QUANT	1.00000E+006	Initial Fre&q. (Hz)
FREQFINAL	QUANT	1.00000E+000	Final Fre&q. (Hz)
PTSPERDEC	QUANT	1.00000E+001	Points/&decade
VAC	QUANT	2.50000E+001	AC &Voltage (mV rms)
AREA	QUANT	4.00000E-004	&Area (cm^2)
CONDIT	TWOPARAM	F	5.00000E+000	0.00000E+000	Conditionin&g	Time(s)	E(V)
DELAY	TWOPARAM	F	3.00000E+000	0.00000E+000	Init. De&lay	Time(s)	Stab.(mV/s)
SPEED	SELECTOR	0	&Optimize for:
ZGUESS	QUANT	1.00000E+003	E&stimated Z (ohms)
OCVCURVE	TABLE	39
	Pt	T	Vf	Vm	Ach	Over
	#	s	V vs. Ref.	V	V	bits
	0	0.258333	1.88281E-001	1.88281E-001	5.17050E-004	...........
	1	0.516667	1.88281E-001	1.88277E-001	5.21017E-004	...........
	2	0.775	1.88280E-001	1.88258E-001	5.15683E-004	...........
	3	1.03333	1.88277E-001	1.88243E-001	5.14517E-004	...........
	4	1.29167	1.88270E-001	1.88235E-001	5.19150E-004	...........
	5	1.55	1.88260E-001	1.88224E-001	5.13083E-004	...........
	6	1.80833	1.88248E-001	1.88207E-001	5.17550E-004	...........
	7	2.06667	1.88235E-001	1.88197E-001	5.14583E-004	...........
	8	2.325	1.88223E-001	1.88185E-001	5.10484E-004	...........
	9	2.58333	1.88210E-001	1.88170E-001	5.09617E-004	...........
	10	2.84167	1.88197E-001	1.88158E-001	5.05850E-004	...........
	11	3.1	1.88185E-001	1.88144E-001	5.15083E-004	...........
	12	3.35833	1.88172E-001	1.88133E-001	5.14317E-004	...........
	13	3.61667	1.88159E-001	1.88123E-001	5.16283E-004	...........
	14	3.875	1.88147E-001	1.88109E-001	5.13150E-004	...........
	15	4.13333	1.88134E-001	1.88099E-001	5.14483E-004	...........
	16	4.39167	1.88123E-001	1.88087E-001	5.10250E-004	...........
	17	4.65	1.88111E-001	1.88077E-001	5.09884E-004	...........
	18	4.90833	1.88100E-001	1.88067E-001	5.09284E-004	...........
	19	5.16667	1.88088E-001	1.88055E-001	5.10250E-004	...........
	20	5.425	1.88078E-001	1.88049E-001	5.18583E-004	...........
	21	5.68333	1.88068E-001	1.88037E-001	5.14783E-004	...........
	22	5.94167	1.88058E-001	1.88026E-001	5.15817E-004	...........
	23	6.2	1.88048E-001	1.88015E-001	5.14250E-004	...........
	24	6.45833	1.88037E-001	1.88006E-001	5.12484E-004	...........
	25	6.71667	1.88027E-001	1.87996E-001	5.21717E-004	...........
	26	6.975	1.88016E-001	1.87988E-001	5.19883E-004	...........
	27	7.23333	1.88007E-001	1.87977E-001	5.15917E-004	...........
	28	7.49167	1.87997E-001	1.87970E-001	5.17417E-004	...........
	29	7.75	1.87988E-001	1.87960E-001	5.14417E-004	...........
	30	8.00833	1.87979E-001	1.87951E-001	5.13983E-004	...........
	31	8.26667	1.87970E-001	1.87942E-001	5.06384E-004	...........
	32	8.525	1.87961E-001	1.87933E-001	5.19183E-004	...........
	33	8.78333	1.87952E-001	1.87927E-001	5.17683E-004	...........
	34	9.04167	1.87943E-001	1.87917E-001	5.21283E-004	...........
	35	9.3	1.87935E-001	1.87907E-001	5.18583E-004	...........
	36	9.5583	1.87926E-001	1.87897E-001	5.13617E-004	...........
	37	9.8167	1.87917E-001	1.87891E-001	5.17950E-004	...........
	38	10.075	1.87908E-001	1.87880E-001	5.11217E-004	...........
EOC	QUANT	0.1879079	Open Circuit (V)
PSTATMODEL	IQUANT	4	Pstat Model
PSTATSECTION	LABEL	REF600-11020	Pstat Section
PSTATSERIALNO	LABEL	11020	Pstat Serial Number
CTRLMODE	IQUANT	1	Control Mode
IESTAB	IQUANT	0	I/E Stability
CASPEED	IQUANT	1	Control Amp Speed
CONVENTION	IQUANT	1	Current Convention
ICHRANGE	IQUANT	2	Ich Range
ICHRANGEMODE	TOGGLE	F	Ich Auto Range
ICHOFFSETENABLE	TOGGLE	T	Ich Offset Enable
ICHOFFSET	QUANT	0	Ich Offset (V)
ICHFILTER	IQUANT	3	Ich Filter
VCHRANGE	IQUANT	2	Vch Range
VCHRANGEMODE	TOGGLE	F	Vch Auto Range
VCHOFFSETENABLE	TOGGLE	T	Vch Offset Enable
VCHOFFSET	QUANT	0	Vch Offset (V)
VCHFILTER	IQUANT	3	Vch Filter
ACHRANGE	IQUANT	2	Ach Range
ACHOFFSETENABLE	TOGGLE	F	Ach Offset Enable
ACHOFFSET	QUANT	0	Ach Offset (V)
ACHFILTER	IQUANT	3	Ach Filter
IERANGELOWERLIMIT	IQUANT	1	I/E Range Lower Limit
IERANGEMODE	TOGGLE	F	I/E AutoRange
IERANGE	IQUANT	8	I/E Range
POSFEEDENABLE	TOGGLE	F	Positive Feedback IR Comp
POSFEEDRESISTANCE	QUANT	0	Positive Feedback Resistance (ohm)
ACHSELECT	IQUANT	0	Ach Select
CABLEID	IQUANT	14	Cable ID
DCCALDATE	LABEL	6/26/2020	DC Calibration Date
ACCALDATE	LABEL	6/26/2020	AC Calibration Date
THERMOSELECT	IQUANT	1	Thermo Select
FRAMEWORKVERSION	QUANT	6.33	Framework Version
INSTRUMENTVERSION	LABEL	3.50	Instrument Version
ZCURVE	TABLE
	Pt	Time	Freq	Zreal	Zimag	Zsig	Zmod	Zphz	Idc	Vdc	IERange
	#	s	Hz	ohm	ohm	V	ohm	°	A	V	#
	0	1	1000078	1609.708	-1739.148	1	2369.767	-47.21351	5.001546E-008	0.1902789	8
	1	2	794390.6	1881.77	-1895.197	1	2670.736	-45.20369	5.628774E-008	0.1899479	8
	2	2	630984.4	2188.523	-2051.793	1	2999.915	-43.15313	8.235626E-008	0.1898032	8
	3	2	501234.4	2527.52	-2204.274	1	3353.682	-41.09199	4.953058E-009	0.1896905	8
	4	3	398109.4	2906.571	-2342.874	1	3733.258	-38.87094	9.774581E-009	0.1896346	8
	5	3	316265.6	3325.572	-2452.965	1	4132.368	-36.41275	5.239525E-008	0.189604	8
	6	3	251203.1	3776.149	-2528.608	1	4544.575	-33.80729	1.993678E-009	0.189601	8
	7	3	199546.9	4239.646	-2559.75	1	4952.466	-31.12211	1.208154E-008	0.1895903	8
	8	4	158578.1	4703.251	-2524.589	1	5337.988	-28.22581	5.384775E-008	0.1896149	8
	9	4	125953.1	5225.084	-2378.66	1	5741.039	-24.47686	-5.201144E-009	0.1896345	7
	10	4	100078.1	5638.345	-2268.935	1	6077.747	-21.92042	-1.385338E-009	0.1895637	7
	11	5	79453.13	5996.165	-2129.181	1	6362.971	-19.54947	1.558147E-008	0.1895588	7
	12	5	63140.62	6309.928	-1973.961	1	6611.483	-17.37147	-9.853728E-009	0.1895918	7
	13	5	50203.12	6581.24	-1825.764	1	6829.798	-15.50505	1.590665E-008	0.1895514	7
	14	6	39890.62	6816.511	-1684.293	1	7021.515	-13.87923	-1.424464E-008	0.1895676	7
	15	6	31640.63	7022.314	-1559.845	1	7193.47	-12.5236	-1.219466E-008	0.1895696	7
	16	6	25171.88	7197.279	-1455.619	1	7343	-11.4336	-1.236579E-008	0.1895811	7
	17	7	20015.62	7351.292	-1372.589	1	7478.335	-10.57615	-8.202726E-009	0.1895838	7
	18	7	15890.62	7492.01	-1314.857	1	7606.514	-9.95411	-1.379974E-008	0.18956	7
	19	7	12609.37	7620.944	-1284.943	1	7728.51	-9.57045	-6.093376E-009	0.1895495	7
	20	8	10078.13	7736.649	-1280.633	1	7841.923	-9.398836	1.545739E-008	0.1895433	7
	21	8	8015.625	7848.912	-1306.05	1	7956.833	-9.447394	-1.558324E-008	0.1895684	7
	22	8	6328.125	7967.878	-1366.36	1	8084.184	-9.73064	-1.722723E-008	0.1895676	7
	23	9	5015.625	8083.455	-1460.737	1	8214.377	-10.24321	1.46357E-008	0.1895361	7
	24	9	3984.375	8204.313	-1593.308	1	8357.594	-10.99025	9.799582E-009	0.1895323	7
	25	9	3170.956	8330.085	-1766.415	1	8515.312	-11.97236	5.636037E-009	0.1895371	7
	26	9	2527.573	8462.867	-1984.859	1	8692.514	-13.19943	-1.292336E-008	0.1895559	7
	27	10	1976.103	8618.089	-2282.991	1	8915.353	-14.83724	1.076066E-008	0.1895559	7
	28	10	1577.524	8789.63	-2604.269	1	9167.323	-16.50397	-5.657473E-010	0.1895636	6
	29	10	1265.625	8958.544	-3018.453	1	9453.39	-18.62051	-2.206752E-009	0.1895471	6
	30	11	998.264	9164.574	-3566.804	1	9834.2	-21.26573	2.625691E-010	0.1895488	6
	31	11	796.875	9386.934	-4206.471	1	10286.35	-24.1381	8.38497E-011	0.1895502	6
	32	11	627.7902	9655.95	-5035.357	1	10890	-27.54101	1.2797E-009	0.1895415	6
	33	12	505.5147	9941	-5954.497	1	11587.91	-30.92092	-1.229E-009	0.18957	6
	34	12	397.9953	10313.75	-7192.994	1	12574.29	-34.8926	3.259795E-010	0.1895564	6
	35	12	315.5048	10756.19	-8667.912	1	13814.06	-38.86372	2.930337E-010	0.1895611	6
	36	13	252.4038	11279.71	-10392.69	1	15337.53	-42.65627	1.049625E-010	0.189559	6
	37	13	198.6229	11982.47	-12648.69	1	17423.23	-46.54937	3.776572E-010	0.1895549	6
	38	13	158.3615	12827.98	-15240.31	1	19920.44	-49.91222	2.215564E-010	0.1895531	6
	39	14	125.558	13939.35	-18444.61	1	23119.45	-52.92016	1.740417E-010	0.1895553	6
	40	14	100.4464	15315.23	-22133.34	1	26915.44	-55.31858	6.331081E-011	0.1895524	6
	41	14	79.00281	17239.44	-26876.54	1	31930.34	-57.32264	4.095966E-010	0.1895481	6
	42	15	63.3446	19534.38	-32036.94	1	37522.76	-58.62744	4.030829E-010	0.1895483	6
	43	15	49.86702	22771.47	-38599.11	1	44815.52	-59.4616	3.413506E-010	0.1895475	6
	44	15	39.72458	26757.75	-45836.77	1	53075.29	-59.72525	1.213915E-010	0.1895522	6
	45	16	31.6723	31852.4	-54059.1	1	62745.21	-59.4928	-3.506E-010	0.1895504	6
	46	16	24.93351	38670.37	-63707.42	1	74525.38	-58.74227	1.35094E-009	0.1895469	6
	47	16	19.86229	46636.52	-73747.6	1	87256.37	-57.69155	3.093162E-009	0.1895559	6
	48	17	15.83615	56397.5	-84631.52	1	101701.4	-56.32095	-1.580403E-009	0.1895494	6
	49	17	12.40079	68676.34	-96284.4	1	118267.2	-54.50106	1.84039E-009	0.1895314	5
	50	17	9.93114	80866.46	-107689.9	1	134671.8	-53.0964	1.046896E-009	0.1895435	5
	51	18	7.944915	94189.38	-119207.2	1	151927.6	-51.68663	-1.742786E-009	0.189545	5
	52	18	6.317385	108537.3	-132399.2	1	171201.3	-50.65602	7.166374E-010	0.18953	5
	53	19	5.008013	123396.1	-147352.7	1	192196.3	-50.05653	7.603647E-010	0.1895435	5
	54	20	3.945707	138629.2	-164815.3	1	215365.1	-49.93217	-6.587519E-011	0.1895312	5
	55	21	3.158693	153188.3	-184942.7	1	240146.7	-50.365	4.36418E-010	0.1895387	5
	56	22	2.504006	168397.2	-210352	1	269454.2	-51.32099	1.731567E-010	0.189539	5
	57	23	1.998082	184222	-241302.5	1	303586.3	-52.64013	-6.766183E-011	0.1894903	5
	58	24	1.584686	200982	-280309.3	1	344916	-54.35944	9.444343E-011	0.1895199	5
	59	26	1.266892	220450.8	-326948.8	1	394327.4	-56.00951	1.722106E-010	0.1895596	5
	60	29	0.999041	244331.7	-389037	1	459399.4	-57.86945	2.04046E-010	0.1895633	5
