EXPLAIN
TAG	EISPOT
TITLE	LABEL	Potentiostatic EIS	Test &Identifier
DATE	LABEL	2/25/2020	Date
TIME	LABEL	15:40:27	Time
NOTES	NOTES	1	&Notes...
	
PSTAT	PSTAT	REF600-11020	Potentiostat
VDC	POTEN	0.00000E+000	T	DC &Voltage (V)
FREQINIT	QUANT	1.00000E+006	Initial Fre&q. (Hz)
FREQFINAL	QUANT	1.00000E+000	Final Fre&q. (Hz)
PTSPERDEC	QUANT	1.00000E+001	Points/&decade
VAC	QUANT	2.50000E+001	AC &Voltage (mV rms)
AREA	QUANT	1.60000E-004	&Area (cm^2)
CONDIT	TWOPARAM	F	1.50000E+001	0.00000E+000	Conditionin&g	Time(s)	E(V)
DELAY	TWOPARAM	F	1.00000E+002	0.00000E+000	Init. De&lay	Time(s)	Stab.(mV/s)
SPEED	SELECTOR	1	&Optimize for:
ZGUESS	QUANT	1.00000E+003	E&stimated Z (ohms)
OCVCURVE	TABLE	39
	Pt	T	Vf	Vm	Ach	Over
	#	s	V vs. Ref.	V	V	bits
	0	0.258333	8.32307E-002	8.32307E-002	5.71804E-004	...........
	1	0.516667	8.32329E-002	8.33473E-002	5.70171E-004	...........
	2	0.775	8.32426E-002	8.32465E-002	5.71904E-004	...........
	3	1.03333	8.32588E-002	8.32749E-002	5.70171E-004	...........
	4	1.29167	8.32717E-002	8.32690E-002	5.68904E-004	...........
	5	1.55	8.32790E-002	8.34565E-002	5.69838E-004	...........
	6	1.80833	8.32927E-002	8.32903E-002	5.72071E-004	...........
	7	2.06667	8.33148E-002	8.32777E-002	5.69704E-004	...........
	8	2.325	8.33266E-002	8.32331E-002	5.69538E-004	...........
	9	2.58333	8.33142E-002	8.32167E-002	5.67638E-004	...........
	10	2.84167	8.32844E-002	8.31918E-002	5.64504E-004	...........
	11	3.1	8.32505E-002	8.31653E-002	5.65771E-004	...........
	12	3.35833	8.32199E-002	8.31461E-002	5.73038E-004	...........
	13	3.61667	8.31933E-002	8.31235E-002	5.70204E-004	...........
	14	3.875	8.31694E-002	8.31049E-002	5.69271E-004	...........
	15	4.13333	8.31474E-002	8.30860E-002	5.68738E-004	...........
	16	4.39167	8.31265E-002	8.30664E-002	5.69771E-004	...........
	17	4.65	8.31067E-002	8.30503E-002	5.70171E-004	...........
	18	4.90833	8.30875E-002	8.30298E-002	5.70704E-004	...........
	19	5.16667	8.30689E-002	8.30169E-002	5.69638E-004	...........
	20	5.425	8.30510E-002	8.30007E-002	5.68238E-004	...........
	21	5.68333	8.30339E-002	8.29881E-002	5.69204E-004	...........
	22	5.94167	8.30179E-002	8.29722E-002	5.65604E-004	...........
	23	6.2	8.30029E-002	8.29611E-002	5.63604E-004	...........
	24	6.45833	8.29886E-002	8.29480E-002	5.68838E-004	...........
	25	6.71667	8.29748E-002	8.29328E-002	5.65071E-004	...........
	26	6.975	8.29614E-002	8.29139E-002	5.64104E-004	...........
	27	7.23333	8.29474E-002	8.29012E-002	5.68838E-004	...........
	28	7.49167	8.29327E-002	8.28917E-002	5.70238E-004	...........
	29	7.75	8.29180E-002	8.28753E-002	5.70038E-004	...........
	30	8.00833	8.29039E-002	8.28634E-002	5.69538E-004	...........
	31	8.26667	8.28906E-002	8.28526E-002	5.67204E-004	...........
	32	8.525	8.28777E-002	8.28415E-002	5.71904E-004	...........
	33	8.78333	8.28653E-002	8.28283E-002	5.65971E-004	...........
	34	9.04167	8.28533E-002	8.28141E-002	5.67204E-004	...........
	35	9.3	8.28412E-002	8.28021E-002	5.64871E-004	...........
	36	9.5583	8.28288E-002	8.27942E-002	5.69238E-004	...........
	37	9.8167	8.28166E-002	8.27853E-002	5.67438E-004	...........
	38	10.075	8.28052E-002	8.27718E-002	5.67371E-004	...........
EOC	QUANT	0.0828052	Open Circuit (V)
PSTATMODEL	IQUANT	4	Pstat Model
PSTATSECTION	LABEL	REF600-11020	Pstat Section
PSTATSERIALNO	LABEL	11020	Pstat Serial Number
CTRLMODE	IQUANT	1	Control Mode
IESTAB	IQUANT	0	I/E Stability
CASPEED	IQUANT	1	Control Amp Speed
CONVENTION	IQUANT	1	Current Convention
ICHRANGE	IQUANT	2	Ich Range
ICHRANGEMODE	TOGGLE	F	Ich Auto Range
ICHOFFSETENABLE	TOGGLE	T	Ich Offset Enable
ICHOFFSET	QUANT	0	Ich Offset (V)
ICHFILTER	IQUANT	3	Ich Filter
VCHRANGE	IQUANT	2	Vch Range
VCHRANGEMODE	TOGGLE	F	Vch Auto Range
VCHOFFSETENABLE	TOGGLE	T	Vch Offset Enable
VCHOFFSET	QUANT	0	Vch Offset (V)
VCHFILTER	IQUANT	3	Vch Filter
ACHRANGE	IQUANT	2	Ach Range
ACHOFFSETENABLE	TOGGLE	F	Ach Offset Enable
ACHOFFSET	QUANT	0	Ach Offset (V)
ACHFILTER	IQUANT	3	Ach Filter
IERANGELOWERLIMIT	IQUANT	1	I/E Range Lower Limit
IERANGEMODE	TOGGLE	F	I/E AutoRange
IERANGE	IQUANT	8	I/E Range
POSFEEDENABLE	TOGGLE	F	Positive Feedback IR Comp
POSFEEDRESISTANCE	QUANT	0	Positive Feedback Resistance (ohm)
ACHSELECT	IQUANT	0	Ach Select
CABLEID	IQUANT	14	Cable ID
DCCALDATE	LABEL	1/27/2020	DC Calibration Date
ACCALDATE	LABEL	1/27/2020	AC Calibration Date
THERMOSELECT	IQUANT	1	Thermo Select
FRAMEWORKVERSION	QUANT	6.33	Framework Version
INSTRUMENTVERSION	LABEL	3.50	Instrument Version
ZCURVE	TABLE
	Pt	Time	Freq	Zreal	Zimag	Zsig	Zmod	Zphz	Idc	Vdc	IERange
	#	s	Hz	ohm	ohm	V	ohm	°	A	V	#
	0	2	1000078	1824.247	-1906.324	1	2638.55	-46.26036	5.283032E-007	0.0845948	8
	1	3	794390.6	2235.236	-1966.514	1	2977.156	-41.34065	2.2613E-006	0.0840837	8
	2	5	630984.4	2642.636	-1962.722	1	3291.778	-36.60177	-1.71674E-006	0.0846346	8
	3	6	501234.4	3034.667	-1889.747	1	3574.962	-31.91134	1.643165E-006	0.0841615	8
	4	7	398109.4	3388.185	-1771.003	1	3823.12	-27.59605	-1.818221E-006	0.0847538	8
	5	9	316265.6	3681.691	-1599.714	1	4014.216	-23.48519	-4.163618E-007	0.0843689	8
	6	10	251203.1	3899.297	-1426.015	1	4151.872	-20.08801	-1.562273E-006	0.0846917	8
	7	11	199546.9	4104.696	-1264.641	1	4295.096	-17.12387	-4.445206E-007	0.0843515	8
	8	13	158578.1	4241.698	-1120.226	1	4387.13	-14.79395	8.432488E-007	0.0840801	8
	9	14	125953.1	4382.081	-976.482	1	4489.56	-12.56227	1.480364E-007	0.0836998	7
	10	15	100078.1	4471.117	-877.4659	1	4556.405	-11.1033	-2.158031E-008	0.0842495	7
	11	17	79453.13	4545.121	-812.5063	1	4617.173	-10.13539	1.244619E-008	0.0841884	7
	12	18	63140.62	4611.966	-769.3014	1	4675.688	-9.470062	-2.343054E-008	0.0842695	7
	13	19	50203.12	4674.55	-747.8587	1	4733.995	-9.089449	6.576285E-008	0.0841418	7
	14	21	39890.62	4736.642	-746.9982	1	4795.183	-8.962091	6.644263E-008	0.084144	7
	15	22	31640.63	4800.252	-766.6719	1	4861.091	-9.074349	1.401204E-008	0.0841807	7
	16	24	25171.88	4866.96	-805.473	1	4933.162	-9.397168	2.316696E-009	0.0842264	7
	17	25	20015.62	4939.115	-863.7696	1	5014.076	-9.91977	1.386047E-008	0.0841726	7
	18	26	15890.62	5020.529	-943.2618	1	5108.371	-10.64074	-4.258412E-010	0.0842524	7
	19	28	12609.37	5108.58	-1044.052	1	5214.176	-11.55061	-1.07632E-008	0.0841972	7
	20	29	10078.13	5206.777	-1165.364	1	5335.597	-12.61584	4.632646E-009	0.0842608	7
	21	30	8015.625	5317.393	-1312.338	1	5476.942	-13.8636	-3.59682E-008	0.0842816	7
	22	32	6328.125	5446.841	-1496.61	1	5648.709	-15.36382	-9.923778E-011	0.0842548	7
	23	33	5015.625	5590.292	-1712.232	1	5846.631	-17.02913	5.451507E-009	0.0842559	7
	24	34	3984.375	5749.427	-1965.183	1	6076.007	-18.87068	-2.1635E-008	0.0842531	7
	25	36	3170.956	5926.659	-2260.486	1	6343.113	-20.87734	5.603641E-009	0.0842536	7
	26	37	2527.573	6127.923	-2608.918	1	6660.173	-23.06152	6.887322E-008	0.0841254	7
	27	39	1976.103	6375.846	-3056.901	1	7070.789	-25.6154	-2.155567E-008	0.0842739	7
	28	40	1577.524	6634.906	-3547.397	1	7523.696	-28.13149	1.271557E-008	0.0842182	7
	29	41	1265.625	6917.205	-4101.632	1	8041.834	-30.66628	3.985802E-008	0.0841411	7
	30	43	998.264	7271.054	-4831.003	1	8729.652	-33.60069	1.52061E-008	0.0842226	7
	31	44	796.875	7648.757	-5645.69	1	9506.7	-36.43173	-8.309645E-009	0.0842144	7
	32	45	627.7902	8106.917	-6672.764	1	10499.9	-39.45763	1.519065E-009	0.084102	6
	33	47	505.5147	8580.275	-7792.53	1	11590.71	-42.24545	-4.431866E-009	0.0842816	6
	34	48	397.9953	9179.646	-9269.961	1	13046	-45.28047	9.366828E-010	0.0842202	6
	35	49	315.5048	9852.48	-11003.18	1	14769.61	-48.15807	1.565674E-009	0.0842225	6
	36	51	252.4038	10599.41	-13001.08	1	16774.25	-50.8106	1.21933E-009	0.0842222	6
	37	52	198.6229	11531.13	-15595.36	1	19395.42	-53.52097	9.558284E-010	0.0842187	6
	38	54	158.3615	12568.96	-18567.09	1	22421.32	-55.90404	5.183238E-010	0.0842161	6
	39	55	125.558	13815.65	-22250.85	1	26191.08	-58.16367	9.061205E-010	0.0842152	6
	40	56	100.4464	15266.41	-26561.56	1	30636.25	-60.11162	1.370442E-009	0.0842184	6
	41	58	79.00281	17218.82	-32147.6	1	36468.55	-61.82571	6.90557E-010	0.0842172	6
	42	59	63.3446	19570.11	-38576.37	1	43256.51	-63.10094	3.5942E-010	0.0842169	6
	43	61	49.86702	22081.82	-46488.22	1	51466.12	-64.59236	5.760856E-010	0.0842163	6
	44	62	39.72458	25815.44	-55846.07	1	61524.15	-65.19076	1.007197E-009	0.0842218	6
	45	63	31.6723	30534.3	-66847.9	1	73491.39	-65.45037	1.069852E-009	0.0842178	6
	46	65	24.93351	36619.77	-80693.6	1	88614.13	-65.59085	5.910369E-010	0.0842109	6
	47	66	19.86229	44205.03	-96000.4	1	105689	-65.27547	2.610336E-010	0.0842186	5
	48	67	15.83615	53812.44	-113590.9	1	125692.8	-64.65127	-1.904644E-010	0.0842166	5
	49	69	12.40079	67289.84	-135734.4	1	151498.3	-63.63024	-8.982119E-010	0.0842195	5
	50	70	9.93114	81642.41	-158456.2	1	178252.2	-62.74083	3.418864E-010	0.0842198	5
	51	72	7.944915	100625	-183586.3	1	209354.5	-61.27253	3.498612E-010	0.0842272	5
	52	74	6.317385	123095.6	-211849.1	1	245015.4	-59.84113	-3.789905E-010	0.0842145	5
	53	76	5.008013	150209.3	-242929.1	1	285617.6	-58.27043	-2.091039E-010	0.0842108	5
	54	78	3.945707	182210.9	-276395.7	1	331051.9	-56.60555	4.035057E-010	0.0842196	5
	55	81	3.158693	215041.8	-310146.5	1	377404	-55.26428	-9.969445E-011	0.0842009	5
	56	84	2.504006	251855.2	-348679.3	1	430125.9	-54.15897	4.620536E-010	0.0842233	5
	57	87	1.998082	289715.8	-390299.9	1	486075.4	-53.41386	3.465892E-010	0.084241	5
	58	90	1.584686	329904.9	-438169.5	1	548479.5	-53.02332	1.772674E-010	0.0841746	5
	59	94	1.266892	369790.2	-496670	1	619213.9	-53.33088	3.829874E-010	0.0842335	5
	60	98	0.999041	410047.7	-565540.4	1	698552.2	-54.05584	-3.904497E-011	0.0841824	5
