EXPLAIN
TAG	EISPOT
TITLE	LABEL	Potentiostatic EIS	Test &Identifier
DATE	LABEL	2/25/2020	Date
TIME	LABEL	14:12:50	Time
NOTES	NOTES	1	&Notes...
	
PSTAT	PSTAT	REF600-11020	Potentiostat
VDC	POTEN	0.00000E+000	T	DC &Voltage (V)
FREQINIT	QUANT	1.00000E+006	Initial Fre&q. (Hz)
FREQFINAL	QUANT	1.00000E+000	Final Fre&q. (Hz)
PTSPERDEC	QUANT	1.00000E+001	Points/&decade
VAC	QUANT	2.50000E+001	AC &Voltage (mV rms)
AREA	QUANT	1.60000E-004	&Area (cm^2)
CONDIT	TWOPARAM	F	1.50000E+001	0.00000E+000	Conditionin&g	Time(s)	E(V)
DELAY	TWOPARAM	F	1.00000E+002	0.00000E+000	Init. De&lay	Time(s)	Stab.(mV/s)
SPEED	SELECTOR	1	&Optimize for:
ZGUESS	QUANT	1.00000E+003	E&stimated Z (ohms)
OCVCURVE	TABLE	39
	Pt	T	Vf	Vm	Ach	Over
	#	s	V vs. Ref.	V	V	bits
	0	0.258333	8.92650E-002	8.92650E-002	5.85504E-004	...........
	1	0.516667	8.92632E-002	8.91682E-002	5.89937E-004	...........
	2	0.775	8.92535E-002	8.91645E-002	5.87337E-004	...........
	3	1.03333	8.92328E-002	8.92163E-002	5.89304E-004	...........
	4	1.29167	8.92054E-002	8.89622E-002	5.86404E-004	...........
	5	1.55	8.91671E-002	8.88674E-002	5.87637E-004	...........
	6	1.80833	8.91044E-002	8.89192E-002	5.90671E-004	...........
	7	2.06667	8.90248E-002	8.89117E-002	5.92437E-004	...........
	8	2.325	8.89603E-002	8.90397E-002	5.88304E-004	...........
	9	2.58333	8.89328E-002	8.88576E-002	5.92204E-004	...........
	10	2.84167	8.89277E-002	8.87087E-002	5.91404E-004	...........
	11	3.1	8.89099E-002	8.88458E-002	5.91271E-004	...........
	12	3.35833	8.88662E-002	8.86200E-002	5.87904E-004	...........
	13	3.61667	8.88155E-002	8.89597E-002	5.87637E-004	...........
	14	3.875	8.87873E-002	8.89069E-002	5.89904E-004	...........
	15	4.13333	8.87980E-002	8.88193E-002	5.91804E-004	...........
	16	4.39167	8.88303E-002	8.88318E-002	5.84537E-004	...........
	17	4.65	8.88550E-002	8.90250E-002	5.90204E-004	...........
	18	4.90833	8.88638E-002	8.84719E-002	5.87971E-004	...........
	19	5.16667	8.88380E-002	8.82203E-002	5.87971E-004	...........
	20	5.425	8.87440E-002	8.85594E-002	5.88737E-004	...........
	21	5.68333	8.86096E-002	8.86271E-002	5.88537E-004	...........
	22	5.94167	8.85194E-002	8.85874E-002	5.86171E-004	...........
	23	6.2	8.85093E-002	8.85775E-002	5.87004E-004	...........
	24	6.45833	8.85418E-002	8.86328E-002	5.88204E-004	...........
	25	6.71667	8.85746E-002	8.85890E-002	5.84204E-004	...........
	26	6.975	8.85976E-002	8.87641E-002	5.86437E-004	...........
	27	7.23333	8.86223E-002	8.87871E-002	5.85537E-004	...........
	28	7.49167	8.86600E-002	8.87148E-002	5.86604E-004	...........
	29	7.75	8.87054E-002	8.88951E-002	5.82437E-004	...........
	30	8.00833	8.87494E-002	8.89032E-002	5.85837E-004	...........
	31	8.26667	8.87959E-002	8.89723E-002	5.87504E-004	...........
	32	8.525	8.88478E-002	8.89395E-002	5.87304E-004	...........
	33	8.78333	8.88973E-002	8.90321E-002	5.87004E-004	...........
	34	9.04167	8.89387E-002	8.90411E-002	5.90404E-004	...........
	35	9.3	8.89732E-002	8.90009E-002	5.87371E-004	...........
	36	9.5583	8.89998E-002	8.90275E-002	5.84804E-004	...........
	37	9.8167	8.90163E-002	8.90855E-002	5.84504E-004	...........
	38	10.075	8.90233E-002	8.88248E-002	5.87904E-004	...........
EOC	QUANT	0.0890233	Open Circuit (V)
PSTATMODEL	IQUANT	4	Pstat Model
PSTATSECTION	LABEL	REF600-11020	Pstat Section
PSTATSERIALNO	LABEL	11020	Pstat Serial Number
CTRLMODE	IQUANT	1	Control Mode
IESTAB	IQUANT	0	I/E Stability
CASPEED	IQUANT	1	Control Amp Speed
CONVENTION	IQUANT	1	Current Convention
ICHRANGE	IQUANT	2	Ich Range
ICHRANGEMODE	TOGGLE	F	Ich Auto Range
ICHOFFSETENABLE	TOGGLE	T	Ich Offset Enable
ICHOFFSET	QUANT	0	Ich Offset (V)
ICHFILTER	IQUANT	3	Ich Filter
VCHRANGE	IQUANT	2	Vch Range
VCHRANGEMODE	TOGGLE	F	Vch Auto Range
VCHOFFSETENABLE	TOGGLE	T	Vch Offset Enable
VCHOFFSET	QUANT	0	Vch Offset (V)
VCHFILTER	IQUANT	3	Vch Filter
ACHRANGE	IQUANT	2	Ach Range
ACHOFFSETENABLE	TOGGLE	F	Ach Offset Enable
ACHOFFSET	QUANT	0	Ach Offset (V)
ACHFILTER	IQUANT	3	Ach Filter
IERANGELOWERLIMIT	IQUANT	1	I/E Range Lower Limit
IERANGEMODE	TOGGLE	F	I/E AutoRange
IERANGE	IQUANT	8	I/E Range
POSFEEDENABLE	TOGGLE	F	Positive Feedback IR Comp
POSFEEDRESISTANCE	QUANT	0	Positive Feedback Resistance (ohm)
ACHSELECT	IQUANT	0	Ach Select
CABLEID	IQUANT	14	Cable ID
DCCALDATE	LABEL	1/27/2020	DC Calibration Date
ACCALDATE	LABEL	1/27/2020	AC Calibration Date
THERMOSELECT	IQUANT	1	Thermo Select
FRAMEWORKVERSION	QUANT	6.33	Framework Version
INSTRUMENTVERSION	LABEL	3.50	Instrument Version
ZCURVE	TABLE
	Pt	Time	Freq	Zreal	Zimag	Zsig	Zmod	Zphz	Idc	Vdc	IERange
	#	s	Hz	ohm	ohm	V	ohm	°	A	V	#
	0	1	1000078	1815.361	-2097.515	1	2774.005	-49.12441	1.127086E-006	0.0906678	8
	1	3	794390.6	2219.583	-2226.81	1	3144.079	-45.09311	-1.16212E-006	0.0909206	8
	2	4	630984.4	2670.113	-2300.841	1	3524.68	-40.75154	3.711472E-007	0.0907966	8
	3	5	501234.4	3134.916	-2313.794	1	3896.324	-36.42999	2.985319E-006	0.0901026	8
	4	7	398109.4	3588.244	-2238.513	1	4229.236	-31.95783	-2.113087E-007	0.0905901	8
	5	8	316265.6	3993.844	-2127.688	1	4525.245	-28.0461	6.308559E-007	0.0903806	8
	6	9	251203.1	4357.167	-1964.444	1	4779.534	-24.26839	-1.31942E-006	0.0908128	8
	7	11	199546.9	4661.145	-1792.004	1	4993.751	-21.02954	-5.664823E-007	0.0906081	8
	8	12	158578.1	4908.656	-1616.235	1	5167.894	-18.22476	-1.137047E-006	0.0907195	8
	9	13	125953.1	5133.553	-1418.347	1	5325.887	-15.44492	-3.847478E-007	0.0913364	7
	10	15	100078.1	5296.786	-1273.758	1	5447.788	-13.5216	4.413856E-009	0.0905074	7
	11	16	79453.13	5430.773	-1156.1	1	5552.464	-12.0177	7.015252E-008	0.0903845	7
	12	17	63140.62	5543.406	-1059.532	1	5643.754	-10.82065	2.345083E-008	0.0904121	7
	13	19	50203.12	5642.369	-990.171	1	5728.592	-9.9534	-1.949252E-008	0.0905309	7
	14	20	39890.62	5731.828	-943.2549	1	5808.923	-9.345087	4.30707E-008	0.0904544	7
	15	21	31640.63	5816.248	-920.7266	1	5888.674	-8.99542	-7.06424E-009	0.0905336	7
	16	23	25171.88	5897.729	-920.2368	1	5969.091	-8.868487	4.66712E-008	0.0904022	7
	17	24	20015.62	5978.215	-941.7001	1	6051.93	-8.951786	1.459393E-008	0.0904283	7
	18	26	15890.62	6062.655	-986.687	1	6142.421	-9.243745	2.424479E-008	0.0904033	7
	19	27	12609.37	6153.224	-1058.781	1	6243.651	-9.76324	4.585523E-008	0.0903957	7
	20	28	10078.13	6244.007	-1146.181	1	6348.335	-10.4017	4.409375E-008	0.090382	7
	21	30	8015.625	6346.511	-1266.969	1	6471.739	-11.28968	2.949022E-008	0.0904346	7
	22	31	6328.125	6464.828	-1422.976	1	6619.582	-12.41345	5.391608E-009	0.0904811	7
	23	32	5015.625	6588.41	-1611.673	1	6782.672	-13.74589	-9.001313E-009	0.0904682	7
	24	34	3984.375	6729.101	-1839.134	1	6975.902	-15.28622	8.731255E-009	0.0904747	7
	25	35	3170.956	6885.609	-2112.263	1	7202.31	-17.05417	-9.569354E-009	0.0904657	7
	26	36	2527.573	7060.86	-2438.062	1	7469.932	-19.04941	4.575913E-008	0.0903927	7
	27	38	1976.103	7275.156	-2862.696	1	7818.115	-21.4791	-9.112721E-009	0.0904705	7
	28	39	1577.524	7498.519	-3329.834	1	8204.607	-23.94436	6.814278E-009	0.0904881	7
	29	40	1265.625	7741.959	-3870.615	1	8655.61	-26.56289	3.034265E-008	0.0904312	7
	30	42	998.264	8034.1	-4574.517	1	9245.159	-29.65665	-6.271657E-009	0.09046	7
	31	43	796.875	8350.001	-5375.976	1	9930.94	-32.77462	-7.595435E-010	0.0904157	6
	32	44	627.7902	8728.076	-6406.454	1	10826.91	-36.27887	-5.855856E-011	0.0904507	6
	33	46	505.5147	9119.251	-7542.045	1	11833.98	-39.59233	2.349629E-009	0.0904749	6
	34	47	397.9953	9618.45	-9061.598	1	13214.66	-43.29251	1.38692E-009	0.0904807	6
	35	48	315.5048	10185.19	-10866.36	1	14893.49	-46.85328	1.720052E-009	0.0904793	6
	36	50	252.4038	10824.84	-12969.39	1	16893.26	-50.15009	1.695376E-009	0.0904757	6
	37	51	198.6229	11646.42	-15723.63	1	19567.1	-53.47282	1.25235E-009	0.0904759	6
	38	53	158.3615	12589.94	-18898.67	1	22708.29	-56.32918	1.553052E-009	0.0904758	6
	39	54	125.558	13761.77	-22855.8	1	26679.09	-58.94732	1.534153E-009	0.0904803	6
	40	55	100.4464	15162.9	-27438.65	1	31349.53	-61.07447	1.552385E-009	0.0904737	6
	41	57	79.00281	16971.09	-33514.31	1	37566.3	-63.1431	1.303916E-009	0.0904732	6
	42	58	63.3446	19140.62	-40501.88	1	44796.93	-64.70525	1.427368E-009	0.0904724	6
	43	59	49.86702	22141.86	-48810.57	1	53597.89	-65.5996	5.796038E-010	0.0904683	6
	44	61	39.72458	26017.71	-59028.48	1	64508	-66.21378	8.417476E-010	0.0904757	6
	45	62	31.6723	30677.53	-71098.01	1	77434.09	-66.66066	1.823654E-009	0.0904739	6
	46	64	24.93351	37554.24	-85996.89	1	93839.15	-66.40945	1.120105E-009	0.0904767	6
	47	65	19.86229	46046.61	-102614.9	1	112472.7	-65.83269	-6.772757E-011	0.0904708	5
	48	66	15.83615	57488.66	-120928.1	1	133897.5	-64.5738	1.214313E-009	0.09047	5
	49	68	12.40079	71144.35	-145283.3	1	161767.6	-63.90929	6.015546E-011	0.0904755	5
	50	69	9.93114	89499.2	-168554.5	1	190842.1	-62.03256	-4.876371E-010	0.0904732	5
	51	71	7.944915	111142.1	-193991.2	1	223573.6	-60.19059	7.050774E-010	0.0904696	5
	52	72	6.317385	136924.3	-221702.9	1	260577.2	-58.30041	7.836263E-010	0.0904668	5
	53	74	5.008013	167966.9	-251568.7	1	302489.1	-56.26984	4.04644E-010	0.0904829	5
	54	77	3.945707	203595	-282560.9	1	348269.4	-54.22594	-2.785601E-010	0.0904698	5
	55	79	3.158693	240475.8	-312908	1	394639.1	-52.45704	3.48544E-010	0.0904814	5
	56	83	2.504006	281411	-345530.9	1	445627.4	-50.83956	-2.700714E-011	0.0904782	5
	57	85	1.998082	321404.9	-379695.6	1	497463.4	-49.75274	3.90873E-010	0.0904385	5
	58	89	1.584686	364421.3	-420727.6	1	556609.9	-49.1019	2.391619E-011	0.0904443	5
	59	92	1.266892	405501.5	-464479	1	616581.1	-48.87824	3.539478E-010	0.0904348	5
	60	96	0.999041	449272.9	-522634.3	1	689197.2	-49.31661	3.464613E-011	0.0904935	5
