EXPLAIN
TAG	EISPOT
TITLE	LABEL	Potentiostatic EIS	Test &Identifier
DATE	LABEL	1/21/2020	Date
TIME	LABEL	16:27:24	Time
NOTES	NOTES	6	&Notes...
	
	
	
	
	
	
PSTAT	PSTAT	REF600-11020	Potentiostat
VDC	POTEN	0.00000E+000	T	DC &Voltage (V)
FREQINIT	QUANT	1.00000E+006	Initial Fre&q. (Hz)
FREQFINAL	QUANT	1.00000E+000	Final Fre&q. (Hz)
PTSPERDEC	QUANT	1.00000E+001	Points/&decade
VAC	QUANT	2.50000E+001	AC &Voltage (mV rms)
AREA	QUANT	1.00000E-001	&Area (cm^2)
CONDIT	TWOPARAM	F	5.00000E+000	0.00000E+000	Conditionin&g	Time(s)	E(V)
DELAY	TWOPARAM	F	5.00000E+000	0.00000E+000	Init. De&lay	Time(s)	Stab.(mV/s)
SPEED	SELECTOR	0	&Optimize for:
ZGUESS	QUANT	5.00000E+002	E&stimated Z (ohms)
OCVCURVE	TABLE	39
	Pt	T	Vf	Vm	Ach	Over
	#	s	V vs. Ref.	V	V	bits
	0	0.258333	-3.07277E-002	-3.07277E-002	6.58446E-004	...........
	1	0.516667	-3.07280E-002	-3.07426E-002	6.55713E-004	...........
	2	0.775	-3.07297E-002	-3.07539E-002	6.56780E-004	...........
	3	1.03333	-3.07344E-002	-3.07667E-002	6.59513E-004	...........
	4	1.29167	-3.07426E-002	-3.07828E-002	6.59613E-004	...........
	5	1.55	-3.07537E-002	-3.07947E-002	6.58646E-004	...........
	6	1.80833	-3.07666E-002	-3.08117E-002	6.60346E-004	...........
	7	2.06667	-3.07805E-002	-3.08219E-002	6.67946E-004	...........
	8	2.325	-3.07945E-002	-3.08300E-002	6.68313E-004	...........
	9	2.58333	-3.08077E-002	-3.08446E-002	6.64713E-004	...........
	10	2.84167	-3.08199E-002	-3.08555E-002	6.61079E-004	...........
	11	3.1	-3.08314E-002	-3.08643E-002	6.58479E-004	...........
	12	3.35833	-3.08425E-002	-3.08687E-002	6.61679E-004	...........
	13	3.61667	-3.08527E-002	-3.08773E-002	6.64413E-004	...........
	14	3.875	-3.08616E-002	-3.08852E-002	6.56780E-004	...........
	15	4.13333	-3.08694E-002	-3.08894E-002	6.57880E-004	...........
	16	4.39167	-3.08766E-002	-3.08972E-002	6.62813E-004	...........
	17	4.65	-3.08835E-002	-3.09065E-002	6.69813E-004	...........
	18	4.90833	-3.08903E-002	-3.09135E-002	6.67279E-004	...........
	19	5.16667	-3.08976E-002	-3.09251E-002	6.63546E-004	...........
	20	5.425	-3.09057E-002	-3.09354E-002	6.64479E-004	...........
	21	5.68333	-3.09144E-002	-3.09392E-002	6.61813E-004	...........
	22	5.94167	-3.09234E-002	-3.09441E-002	6.58313E-004	...........
	23	6.2	-3.09315E-002	-3.09508E-002	6.60613E-004	...........
	24	6.45833	-3.09384E-002	-3.09556E-002	6.63513E-004	...........
	25	6.71667	-3.09442E-002	-3.09519E-002	6.65113E-004	...........
	26	6.975	-3.09488E-002	-3.09543E-002	6.71646E-004	...........
	27	7.23333	-3.09519E-002	-3.09587E-002	6.70046E-004	...........
	28	7.49167	-3.09539E-002	-3.09607E-002	6.62013E-004	...........
	29	7.75	-3.09558E-002	-3.09649E-002	6.62579E-004	...........
	30	8.00833	-3.09581E-002	-3.09641E-002	6.64079E-004	...........
	31	8.26667	-3.09606E-002	-3.09685E-002	6.64913E-004	...........
	32	8.525	-3.09632E-002	-3.09768E-002	6.59646E-004	...........
	33	8.78333	-3.09662E-002	-3.09801E-002	6.60446E-004	...........
	34	9.04167	-3.09697E-002	-3.09617E-002	6.58679E-004	...........
	35	9.3	-3.09721E-002	-3.09695E-002	6.60413E-004	...........
	36	9.5583	-3.09722E-002	-3.09746E-002	6.60646E-004	...........
	37	9.8167	-3.09720E-002	-3.10137E-002	6.58413E-004	...........
	38	10.075	-3.09756E-002	-3.10057E-002	6.61779E-004	...........
EOC	QUANT	-0.0309756	Open Circuit (V)
PSTATMODEL	IQUANT	4	Pstat Model
PSTATSECTION	LABEL	REF600-11020	Pstat Section
PSTATSERIALNO	LABEL	11020	Pstat Serial Number
CTRLMODE	IQUANT	1	Control Mode
IESTAB	IQUANT	0	I/E Stability
CASPEED	IQUANT	1	Control Amp Speed
CONVENTION	IQUANT	1	Current Convention
ICHRANGE	IQUANT	2	Ich Range
ICHRANGEMODE	TOGGLE	F	Ich Auto Range
ICHOFFSETENABLE	TOGGLE	T	Ich Offset Enable
ICHOFFSET	QUANT	0	Ich Offset (V)
ICHFILTER	IQUANT	3	Ich Filter
VCHRANGE	IQUANT	2	Vch Range
VCHRANGEMODE	TOGGLE	F	Vch Auto Range
VCHOFFSETENABLE	TOGGLE	T	Vch Offset Enable
VCHOFFSET	QUANT	0	Vch Offset (V)
VCHFILTER	IQUANT	3	Vch Filter
ACHRANGE	IQUANT	2	Ach Range
ACHOFFSETENABLE	TOGGLE	F	Ach Offset Enable
ACHOFFSET	QUANT	0	Ach Offset (V)
ACHFILTER	IQUANT	3	Ach Filter
IERANGELOWERLIMIT	IQUANT	1	I/E Range Lower Limit
IERANGEMODE	TOGGLE	F	I/E AutoRange
IERANGE	IQUANT	8	I/E Range
POSFEEDENABLE	TOGGLE	F	Positive Feedback IR Comp
POSFEEDRESISTANCE	QUANT	0	Positive Feedback Resistance (ohm)
ACHSELECT	IQUANT	0	Ach Select
CABLEID	IQUANT	14	Cable ID
DCCALDATE	LABEL	12/22/2019	DC Calibration Date
ACCALDATE	LABEL	12/22/2019	AC Calibration Date
THERMOSELECT	IQUANT	1	Thermo Select
FRAMEWORKVERSION	QUANT	6.33	Framework Version
INSTRUMENTVERSION	LABEL	3.50	Instrument Version
ZCURVE	TABLE
	Pt	Time	Freq	Zreal	Zimag	Zsig	Zmod	Zphz	Idc	Vdc	IERange
	#	s	Hz	ohm	ohm	V	ohm	°	A	V	#
	0	1	1000078	1902.199	-1237.487	1	2269.303	-33.04627	-4.860037E-006	-0.0277313	8
	1	2	794390.6	2077.067	-1253.851	1	2426.18	-31.11788	1.931844E-007	-0.0287722	8
	2	2	630984.4	2258.947	-1269.143	1	2591.055	-29.32856	5.845603E-008	-0.0290553	8
	3	2	501234.4	2459.964	-1297.533	1	2781.19	-27.80987	-3.612338E-006	-0.0285087	8
	4	3	398109.4	2649.253	-1322.391	1	2960.956	-26.52635	-1.128768E-006	-0.0291859	8
	5	3	316265.6	2836.64	-1354.044	1	3143.24	-25.51705	3.203939E-007	-0.0295505	8
	6	3	251203.1	3058.522	-1400.122	1	3363.762	-24.59723	-7.801077E-007	-0.0291307	8
	7	4	199546.9	3261.46	-1414.394	1	3554.945	-23.44488	8.536504E-008	-0.0292275	8
	8	4	158578.1	3519.213	-1435.656	1	3800.785	-22.19291	7.777207E-007	-0.0296167	8
	9	4	125953.1	3756.532	-1429.668	1	4019.388	-20.83592	-1.358981E-007	-0.0293963	7
	10	4	100078.1	3995.69	-1412.005	1	4237.841	-19.4625	-3.598219E-008	-0.0293888	7
	11	5	79453.13	4242.808	-1393.076	1	4465.655	-18.17698	-3.604628E-008	-0.0293912	7
	12	5	63140.62	4479.71	-1347.317	1	4677.934	-16.73917	-4.028277E-008	-0.0294011	7
	13	5	50203.12	4702.525	-1280.396	1	4873.721	-15.23117	-3.395221E-008	-0.0294218	7
	14	6	39890.62	4906.15	-1200.884	1	5050.983	-13.75393	4.986233E-008	-0.0294491	7
	15	6	31640.63	5079.581	-1110.42	1	5199.536	-12.33114	-1.832353E-008	-0.0294434	7
	16	6	25171.88	5229.83	-1022.016	1	5328.755	-11.05742	-6.953238E-009	-0.0294065	7
	17	7	20015.62	5356.337	-945.9762	1	5439.23	-10.01566	-3.83825E-008	-0.0294079	7
	18	7	15890.62	5458.411	-873.3018	1	5527.83	-9.089828	-4.262215E-008	-0.0293482	7
	19	7	12609.37	5544.292	-819.6549	1	5604.552	-8.409558	2.189291E-008	-0.0294697	7
	20	8	10078.13	5615.523	-786.3192	1	5670.309	-7.97107	-3.889351E-008	-0.029416	7
	21	8	8015.625	5675.993	-765.05	1	5727.32	-7.676462	-4.986373E-008	-0.0293742	7
	22	8	6328.125	5738.309	-784.1012	1	5791.632	-7.780894	-4.894331E-008	-0.0293753	7
	23	9	5015.625	5792.959	-821.0839	1	5850.859	-8.067266	-2.525573E-008	-0.0293583	7
	24	9	3984.375	5850.02	-885.1877	1	5916.611	-8.604362	5.985744E-008	-0.0295789	7
	25	9	3170.956	5895.966	-975.679	1	5976.15	-9.396297	-1.997056E-008	-0.0294539	7
	26	9	2527.573	5951.572	-1101.472	1	6052.64	-10.48523	-3.844014E-008	-0.0294178	7
	27	10	1976.103	6019.845	-1284.571	1	6155.376	-12.04565	-6.965378E-009	-0.029415	7
	28	10	1577.524	6096.901	-1488.454	1	6275.961	-13.71942	-3.808725E-008	-0.0294185	7
	29	10	1265.625	6167.19	-1761.079	1	6413.707	-15.93702	-4.459816E-008	-0.029363	7
	30	11	998.264	6266.49	-2106.604	1	6611.103	-18.58109	-4.943923E-008	-0.0293842	7
	31	11	796.875	6380.102	-2511.989	1	6856.806	-21.49067	3.538089E-008	-0.0295666	7
	32	11	627.7902	6530.11	-3047.473	1	7206.208	-25.01753	-1.429833E-008	-0.0293433	7
	33	12	505.5147	6692.991	-3632.262	1	7615.081	-28.48853	-4.932754E-008	-0.0293883	7
	34	12	397.9953	6910.725	-4420.633	1	8203.665	-32.60612	4.572587E-009	-0.0294499	7
	35	12	315.5048	7177.26	-5357.345	1	8956.238	-36.73888	4.692332E-009	-0.029448	7
	36	13	252.4038	7499.244	-6449.924	1	9891.42	-40.69805	3.852818E-010	-0.0294472	6
	37	13	198.6229	7934.953	-7873.666	1	11178.47	-44.77787	4.962338E-010	-0.0294477	6
	38	13	158.3615	8459.175	-9504	1	12723.35	-48.32885	1.48149E-010	-0.0294485	6
	39	14	125.558	9150.663	-11507.14	1	14702	-51.50771	5.777177E-010	-0.0294475	6
	40	14	100.4464	10001.51	-13811.29	1	17052.33	-54.08966	1.164348E-009	-0.0294462	6
	41	14	79.00281	11154.85	-16754.47	1	20128.17	-56.34497	8.359958E-010	-0.0294512	6
	42	15	63.3446	12565.96	-19830.33	1	23476.49	-57.63863	5.285123E-010	-0.0294538	6
	43	15	49.86702	14426.53	-23898.2	1	27915.02	-58.88205	1.813602E-010	-0.0294563	6
	44	15	39.72458	16583.1	-28431.7	1	32914.45	-59.74665	1.422951E-010	-0.0294552	6
	45	16	31.6723	19286.08	-33619.24	1	38758.3	-60.15874	-2.911831E-010	-0.0294552	6
	46	16	24.93351	22808.5	-39850.49	1	45916.11	-60.21525	-1.900034E-010	-0.029457	6
	47	16	19.86229	26823.16	-46675.3	1	53833.68	-60.11507	-1.940369E-009	-0.0294607	6
	48	17	15.83615	31838.51	-54646.86	1	63245.32	-59.77394	2.782103E-009	-0.0294586	6
	49	17	12.40079	37788.13	-63896.18	1	74233.85	-59.39998	-9.739174E-010	-0.0294531	6
	50	17	9.93114	44286.54	-73682.23	1	85967.26	-58.99212	3.723448E-010	-0.029469	6
	51	18	7.944915	51765.7	-84361.79	1	98977.8	-58.46608	1.985175E-009	-0.0294593	6
	52	18	6.317385	60209.97	-97510.8	1	114601.9	-58.30593	-2.714037E-010	-0.0294514	5
	53	19	5.008013	69930.27	-112626.6	1	132570.7	-58.16371	-2.47316E-010	-0.0294547	5
	54	20	3.945707	80696.42	-130575.5	1	153498.8	-58.28369	3.797347E-010	-0.029455	5
	55	21	3.158693	92239.49	-150427.8	1	176455.8	-58.48417	-1.040858E-010	-0.0294511	5
	56	22	2.504006	105392.4	-175120.7	1	204388.8	-58.95934	-2.029322E-010	-0.0294583	5
	57	23	1.998082	119730.5	-203169.1	1	235824.3	-59.48855	2.238605E-010	-0.0294235	5
	58	25	1.584686	135834.8	-238564.8	1	274525.5	-60.34353	1.422965E-010	-0.0294211	5
	59	27	1.266892	153824.9	-278690	1	318324.1	-61.10318	3.084536E-011	-0.0294676	5
	60	29	0.999041	176833.8	-330436.4	1	374777.9	-61.84643	-1.248073E-011	-0.0294949	5
