EXPLAIN
TAG	EISPOT
TITLE	LABEL	Potentiostatic EIS	Test &Identifier
DATE	LABEL	6/1/2020	Date
TIME	LABEL	13:12:32	Time
NOTES	NOTES	1	&Notes...
	
PSTAT	PSTAT	REF600-11020	Potentiostat
VDC	POTEN	0.00000E+000	T	DC &Voltage (V)
FREQINIT	QUANT	1.00000E+006	Initial Fre&q. (Hz)
FREQFINAL	QUANT	1.00000E+000	Final Fre&q. (Hz)
PTSPERDEC	QUANT	1.00000E+001	Points/&decade
VAC	QUANT	2.50000E+001	AC &Voltage (mV rms)
AREA	QUANT	4.00000E-004	&Area (cm^2)
CONDIT	TWOPARAM	F	5.00000E+000	0.00000E+000	Conditionin&g	Time(s)	E(V)
DELAY	TWOPARAM	T	3.00000E+000	0.00000E+000	Init. De&lay	Time(s)	Stab.(mV/s)
SPEED	SELECTOR	0	&Optimize for:
ZGUESS	QUANT	1.00000E+003	E&stimated Z (ohms)
OCVCURVE	TABLE	12
	Pt	T	Vf	Vm	Ach	Over
	#	s	V vs. Ref.	V	V	bits
	0	0.258333	1.36773E-002	1.36773E-002	6.47996E-004	...........
	1	0.516667	1.36773E-002	1.36776E-002	6.50429E-004	...........
	2	0.775	1.36773E-002	1.36779E-002	6.48329E-004	...........
	3	1.03333	1.36775E-002	1.36791E-002	6.45996E-004	...........
	4	1.29167	1.36778E-002	1.36821E-002	6.48596E-004	...........
	5	1.55	1.36785E-002	1.36802E-002	6.42896E-004	...........
	6	1.80833	1.36794E-002	1.36814E-002	6.45162E-004	...........
	7	2.06667	1.36802E-002	1.36791E-002	6.50462E-004	...........
	8	2.325	1.36806E-002	1.36820E-002	6.46529E-004	...........
	9	2.58333	1.36807E-002	1.36805E-002	6.51529E-004	...........
	10	2.84167	1.36807E-002	1.36790E-002	6.52096E-004	...........
	11	3.1	1.36806E-002	1.36801E-002	6.46162E-004	...........
EOC	QUANT	0.0136806	Open Circuit (V)
PSTATMODEL	IQUANT	4	Pstat Model
PSTATSECTION	LABEL	REF600-11020	Pstat Section
PSTATSERIALNO	LABEL	11020	Pstat Serial Number
CTRLMODE	IQUANT	1	Control Mode
IESTAB	IQUANT	0	I/E Stability
CASPEED	IQUANT	1	Control Amp Speed
CONVENTION	IQUANT	1	Current Convention
ICHRANGE	IQUANT	2	Ich Range
ICHRANGEMODE	TOGGLE	F	Ich Auto Range
ICHOFFSETENABLE	TOGGLE	T	Ich Offset Enable
ICHOFFSET	QUANT	0	Ich Offset (V)
ICHFILTER	IQUANT	3	Ich Filter
VCHRANGE	IQUANT	2	Vch Range
VCHRANGEMODE	TOGGLE	F	Vch Auto Range
VCHOFFSETENABLE	TOGGLE	T	Vch Offset Enable
VCHOFFSET	QUANT	0	Vch Offset (V)
VCHFILTER	IQUANT	3	Vch Filter
ACHRANGE	IQUANT	2	Ach Range
ACHOFFSETENABLE	TOGGLE	F	Ach Offset Enable
ACHOFFSET	QUANT	0	Ach Offset (V)
ACHFILTER	IQUANT	3	Ach Filter
IERANGELOWERLIMIT	IQUANT	1	I/E Range Lower Limit
IERANGEMODE	TOGGLE	F	I/E AutoRange
IERANGE	IQUANT	7	I/E Range
POSFEEDENABLE	TOGGLE	F	Positive Feedback IR Comp
POSFEEDRESISTANCE	QUANT	0	Positive Feedback Resistance (ohm)
ACHSELECT	IQUANT	0	Ach Select
CABLEID	IQUANT	14	Cable ID
DCCALDATE	LABEL	2/27/2020	DC Calibration Date
ACCALDATE	LABEL	2/27/2020	AC Calibration Date
THERMOSELECT	IQUANT	1	Thermo Select
FRAMEWORKVERSION	QUANT	6.33	Framework Version
INSTRUMENTVERSION	LABEL	3.50	Instrument Version
ZCURVE	TABLE
	Pt	Time	Freq	Zreal	Zimag	Zsig	Zmod	Zphz	Idc	Vdc	IERange
	#	s	Hz	ohm	ohm	V	ohm	°	A	V	#
	0	1	1000078	1817.102	-2556.728	1	3136.673	-54.59806	1.991751E-008	0.0162698	8
	1	1	794390.6	2237.99	-2851.352	1	3624.749	-51.87209	3.243063E-008	0.0158727	8
	2	1	630984.4	2729.914	-3136.03	1	4157.778	-48.96043	9.641597E-008	0.0156636	8
	3	2	501234.4	3282.378	-3394.125	1	4721.662	-45.95889	3.705331E-008	0.015582	8
	4	2	398109.4	3902.323	-3598.393	1	5308.16	-42.67963	3.331422E-008	0.0155279	8
	5	2	316265.6	4568.046	-3755.094	1	5913.355	-39.4214	3.465734E-008	0.0154916	8
	6	3	251203.1	5270.323	-3839.709	1	6520.71	-36.07532	7.703587E-008	0.0154405	8
	7	3	199546.9	5985.406	-3853.311	1	7118.503	-32.7728	5.24823E-008	0.0154822	8
	8	3	158578.1	6690.56	-3764.897	1	7677.111	-29.36723	3.743073E-008	0.015457	8
	9	3	125953.1	7435.458	-3539.189	1	8234.798	-25.45389	1.908914E-009	0.0154051	7
	10	4	100078.1	8017.814	-3333.501	1	8683.178	-22.57568	2.394034E-009	0.0153956	7
	11	4	79453.13	8557.396	-3091.888	1	9098.835	-19.86538	2.058045E-009	0.0153796	7
	12	4	63140.62	9020.991	-2830.275	1	9454.562	-17.4189	2.146664E-009	0.0153766	7
	13	5	50203.12	9405.895	-2564.063	1	9749.12	-15.24842	1.45688E-009	0.0153714	7
	14	5	39890.62	9730.15	-2316.089	1	10002	-13.38908	1.6741E-009	0.0153725	7
	15	5	31640.63	10000.06	-2093.457	1	10216.83	-11.8238	1.328901E-009	0.0153694	7
	16	6	25171.88	10225.94	-1906.931	1	10402.22	-10.56318	2.799417E-009	0.0153732	7
	17	6	20015.62	10411.8	-1756.105	1	10558.86	-9.57368	2.054797E-009	0.0153675	7
	18	6	15890.62	10576.56	-1644.867	1	10703.7	-8.83983	1.813498E-009	0.0153701	7
	19	7	12609.37	10757.72	-1461.151	1	10856.5	-7.73478	-1.711323E-010	0.0154234	6
	20	7	10078.13	10878.82	-1448.013	1	10974.77	-7.581723	-1.031551E-010	0.0154175	6
	21	7	8015.625	10989.2	-1473.28	1	11087.52	-7.635897	3.891693E-012	0.0154194	6
	22	8	6328.125	11094.75	-1543.837	1	11201.65	-7.92185	-2.79935E-011	0.0154245	6
	23	8	5015.625	11199.96	-1659.728	1	11322.27	-8.429345	-2.283315E-011	0.0154245	6
	24	8	3984.375	11304.87	-1830.25	1	11452.07	-9.196353	-9.674669E-011	0.015422	6
	25	9	3170.956	11413.53	-2059.462	1	11597.85	-10.22841	1.450091E-010	0.0154184	6
	26	9	2527.573	11527.53	-2359.43	1	11766.52	-11.56741	-3.239664E-010	0.0154208	6
	27	9	1976.103	11665.38	-2780.442	1	11992.16	-13.40631	-1.905177E-010	0.0154193	6
	28	10	1577.524	11804.85	-3271.117	1	12249.69	-15.48801	-4.939339E-011	0.0154132	6
	29	10	1265.625	11960.09	-3867.345	1	12569.81	-17.91883	-2.686577E-010	0.0154144	6
	30	10	998.264	12166.24	-4665.805	1	13030.24	-20.98203	-5.600229E-010	0.0154049	6
	31	11	796.875	12391.7	-5600.99	1	13598.72	-24.32274	-2.7491E-010	0.0154163	6
	32	11	627.7902	12690.35	-6820.883	1	14407.27	-28.25741	-1.808246E-010	0.0154091	6
	33	11	505.5147	13022.71	-8177.302	1	15377.23	-32.1258	-2.97879E-010	0.0154072	6
	34	11	397.9953	13471.04	-10000.45	1	16777.3	-36.58898	2.589969E-010	0.0154278	6
	35	12	315.5048	14022.01	-12169.05	1	18566.16	-40.9532	2.872561E-010	0.0154292	6
	36	12	252.4038	14679.09	-14696.96	1	20772.01	-45.03485	2.432303E-010	0.015423	6
	37	12	198.6229	15559.96	-17996.35	1	23790.36	-49.15273	2.362017E-010	0.0154263	6
	38	13	158.3615	16606.94	-21785.83	1	27393.66	-52.68239	2.243079E-010	0.0154246	6
	39	13	125.558	17949.26	-26483.04	1	31992.62	-55.87198	2.482723E-010	0.0154248	6
	40	13	100.4464	19565.9	-31935.06	1	37452.27	-58.50513	3.631645E-010	0.0154206	6
	41	14	79.00281	21770.39	-39037.07	1	44697.23	-60.85225	3.058242E-010	0.0154194	6
	42	14	63.3446	24343.81	-46914.53	1	52854.46	-62.57533	1.524093E-010	0.0154201	6
	43	14	49.86702	27908.58	-57177.21	1	63624.86	-63.98269	4.379635E-011	0.0154237	6
	44	15	39.72458	32281	-68872.69	1	76062.54	-64.88726	2.672411E-010	0.0154216	6
	45	15	31.6723	37898.77	-82732.76	1	91000.14	-65.38811	4.781746E-010	0.01542	6
	46	15	24.93351	45607.32	-99992.1	1	109902	-65.48184	-2.40018E-010	0.015422	5
	47	16	19.86229	54991.66	-119307	1	131370.7	-65.25382	5.988215E-010	0.0154267	5
	48	16	15.83615	67099.79	-141690.4	1	156775.5	-64.65935	-8.773285E-010	0.0154186	5
	49	16	12.40079	83776.39	-169253.9	1	188852.7	-63.66575	-6.492477E-010	0.0154182	5
	50	17	9.93114	102956.4	-197415.5	1	222649.7	-62.45699	-9.289719E-010	0.0154215	5
	51	17	7.944915	126170.7	-228940	1	261405	-61.14049	-5.70818E-010	0.0154274	5
	52	17	6.317385	155587.1	-264089.5	1	306513.7	-59.49574	2.216848E-010	0.0154137	5
	53	18	5.008013	191440.3	-302591.8	1	358065.8	-57.67976	1.074208E-011	0.0154187	5
	54	19	3.945707	234131.5	-344903.8	1	416864.7	-55.83011	-2.794945E-010	0.0154197	5
	55	20	3.158693	279935.1	-385308.1	1	476262.5	-54.00074	5.540623E-011	0.0154049	5
	56	21	2.504006	333016.7	-430448.7	1	544229.9	-52.27267	2.817363E-010	0.015407	5
	57	22	1.998082	388846.1	-475032.5	1	613886.9	-50.69736	4.373613E-011	0.015381	5
	58	24	1.584686	451427	-526511	1	693541.8	-49.39043	-4.496453E-011	0.0153583	5
	59	26	1.266892	513823.3	-579892.6	1	774783.8	-48.45692	-2.812214E-012	0.0153933	5
	60	28	0.999041	585371.6	-642526	1	869194.8	-47.665	3.894479E-011	0.0154214	5
