EXPLAIN
TAG	EISPOT
TITLE	LABEL	Potentiostatic EIS	Test &Identifier
DATE	LABEL	1/7/2020	Date
TIME	LABEL	17:24:47	Time
NOTES	NOTES	5	&Notes...
	
	
	
	
	
PSTAT	PSTAT	REF600-11020	Potentiostat
VDC	POTEN	0.00000E+000	T	DC &Voltage (V)
FREQINIT	QUANT	1.00000E+006	Initial Fre&q. (Hz)
FREQFINAL	QUANT	1.00000E+000	Final Fre&q. (Hz)
PTSPERDEC	QUANT	1.00000E+001	Points/&decade
VAC	QUANT	2.50000E+001	AC &Voltage (mV rms)
AREA	QUANT	1.00000E-001	&Area (cm^2)
CONDIT	TWOPARAM	T	5.00000E+000	0.00000E+000	Conditionin&g	Time(s)	E(V)
DELAY	TWOPARAM	T	5.00000E+000	0.00000E+000	Init. De&lay	Time(s)	Stab.(mV/s)
SPEED	SELECTOR	0	&Optimize for:
ZGUESS	QUANT	1.00000E+003	E&stimated Z (ohms)
OCVCURVE	TABLE	19
	Pt	T	Vf	Vm	Ach	Over
	#	s	V vs. Ref.	V	V	bits
	0	0.258333	4.89049E-004	4.89049E-004	6.53080E-004	...........
	1	0.516667	4.80655E-004	4.96380E-005	6.46980E-004	...........
	2	0.775	4.29772E-004	-3.32148E-004	6.48780E-004	...........
	3	1.03333	2.88547E-004	-6.71650E-004	6.49746E-004	...........
	4	1.29167	4.25800E-005	-9.87361E-004	6.54813E-004	...........
	5	1.55	-2.73304E-004	-1.27059E-003	6.53246E-004	...........
	6	1.80833	-6.09240E-004	-1.53185E-003	6.56680E-004	...........
	7	2.06667	-9.31590E-004	-1.77355E-003	6.55813E-004	...........
	8	2.325	-1.22758E-003	-2.00473E-003	6.54546E-004	...........
	9	2.58333	-1.49736E-003	-2.21880E-003	6.56280E-004	...........
	10	2.84167	-1.74554E-003	-2.41845E-003	6.52880E-004	...........
	11	3.1	-1.97603E-003	-2.59373E-003	6.51646E-004	...........
	12	3.35833	-2.19129E-003	-2.81435E-003	6.51680E-004	...........
	13	3.61667	-2.39563E-003	-3.01842E-003	6.59946E-004	...........
	14	3.875	-2.59711E-003	-3.27863E-003	6.52480E-004	...........
	15	4.13333	-2.80458E-003	-3.49620E-003	6.53580E-004	...........
	16	4.39167	-3.02082E-003	-3.63942E-003	6.54680E-004	...........
	17	4.65	-3.23711E-003	-3.80202E-003	6.49780E-004	...........
	18	4.90833	-3.43997E-003	-3.98271E-003	6.55813E-004	...........
EOC	QUANT	-0.00344	Open Circuit (V)
PSTATMODEL	IQUANT	4	Pstat Model
PSTATSECTION	LABEL	REF600-11020	Pstat Section
PSTATSERIALNO	LABEL	11020	Pstat Serial Number
CTRLMODE	IQUANT	1	Control Mode
IESTAB	IQUANT	0	I/E Stability
CASPEED	IQUANT	1	Control Amp Speed
CONVENTION	IQUANT	1	Current Convention
ICHRANGE	IQUANT	2	Ich Range
ICHRANGEMODE	TOGGLE	F	Ich Auto Range
ICHOFFSETENABLE	TOGGLE	T	Ich Offset Enable
ICHOFFSET	QUANT	0	Ich Offset (V)
ICHFILTER	IQUANT	3	Ich Filter
VCHRANGE	IQUANT	2	Vch Range
VCHRANGEMODE	TOGGLE	F	Vch Auto Range
VCHOFFSETENABLE	TOGGLE	T	Vch Offset Enable
VCHOFFSET	QUANT	0	Vch Offset (V)
VCHFILTER	IQUANT	3	Vch Filter
ACHRANGE	IQUANT	2	Ach Range
ACHOFFSETENABLE	TOGGLE	F	Ach Offset Enable
ACHOFFSET	QUANT	0	Ach Offset (V)
ACHFILTER	IQUANT	3	Ach Filter
IERANGELOWERLIMIT	IQUANT	1	I/E Range Lower Limit
IERANGEMODE	TOGGLE	F	I/E AutoRange
IERANGE	IQUANT	6	I/E Range
POSFEEDENABLE	TOGGLE	F	Positive Feedback IR Comp
POSFEEDRESISTANCE	QUANT	0	Positive Feedback Resistance (ohm)
ACHSELECT	IQUANT	0	Ach Select
CABLEID	IQUANT	14	Cable ID
DCCALDATE	LABEL	12/22/2019	DC Calibration Date
ACCALDATE	LABEL	12/22/2019	AC Calibration Date
THERMOSELECT	IQUANT	1	Thermo Select
FRAMEWORKVERSION	QUANT	6.33	Framework Version
INSTRUMENTVERSION	LABEL	3.50	Instrument Version
ZCURVE	TABLE
	Pt	Time	Freq	Zreal	Zimag	Zsig	Zmod	Zphz	Idc	Vdc	IERange
	#	s	Hz	ohm	ohm	V	ohm	°	A	V	#
	0	1	1000078	2369.006	-1947.775	1	3066.923	-39.42672	-6.807961E-006	3.672847E-005	8
	1	2	794390.6	2855.561	-2040.596	1	3509.737	-35.54976	6.622766E-006	-0.0023414	8
	2	2	630984.4	3218.894	-1950.35	1	3763.661	-31.21196	-4.168019E-006	-0.000741	8
	3	2	501234.4	3564.043	-1902.462	1	4040.02	-28.093	-2.058249E-006	-0.00142	8
	4	3	398109.4	3900.307	-1757.37	1	4277.937	-24.25501	3.69941E-006	-0.0029173	8
	5	3	316265.6	4148.996	-1560.463	1	4432.743	-20.6116	7.764253E-007	-0.001969	8
	6	3	251203.1	4431.316	-1414.188	1	4651.504	-17.6997	-2.772959E-006	-0.0012309	8
	7	4	199546.9	4596.205	-1268.09	1	4767.93	-15.42415	-8.307108E-006	-3.36636E-005	8
	8	4	158578.1	4759.307	-1107.599	1	4886.489	-13.10084	3.384695E-006	-0.0028874	8
	9	4	125953.1	4921.65	-879.3054	1	4999.582	-10.12963	-3.752206E-008	-0.0016946	7
	10	5	100078.1	4979.38	-777.3787	1	5039.697	-8.873364	-1.892987E-008	-0.0018695	7
	11	5	79453.13	5055.683	-711.6868	1	5105.529	-8.012857	-7.58095E-008	-0.0018559	7
	12	5	63140.62	5117.093	-657.769	1	5159.196	-7.324832	-3.601657E-008	-0.0017125	7
	13	6	50203.12	5174.645	-619.9955	1	5211.654	-6.832275	-3.668542E-008	-0.001857	7
	14	6	39890.62	5226.526	-598.6285	1	5260.697	-6.53399	2.411446E-007	-0.0023185	7
	15	6	31640.63	5274.734	-592.9172	1	5307.954	-6.413527	-9.433388E-008	-0.0018788	7
	16	6	25171.88	5322.153	-605.2878	1	5356.462	-6.488363	5.554903E-008	-0.0020078	7
	17	7	20015.62	5370.917	-629.8222	1	5407.719	-6.688262	2.418057E-007	-0.0023177	7
	18	7	15890.62	5419.892	-675.4059	1	5461.813	-7.103359	-1.96409E-008	-0.0018832	7
	19	7	12609.37	5473.216	-740.4307	1	5523.073	-7.704347	-1.829853E-008	-0.0018837	7
	20	8	10078.13	5527.994	-822.3038	1	5588.819	-8.460858	-5.80227E-008	-0.0017641	7
	21	8	8015.625	5596.517	-921.1361	1	5671.815	-9.346569	-7.478748E-008	-0.0018689	7
	22	8	6328.125	5663.024	-1065.093	1	5762.314	-10.65167	1.463552E-007	-0.0022322	7
	23	9	5015.625	5739.823	-1234.621	1	5871.104	-12.13921	-1.097469E-007	-0.0017595	7
	24	9	3984.375	5821.682	-1441.313	1	5997.447	-13.9055	-8.392153E-008	-0.0019039	7
	25	9	3170.956	5918.747	-1691.701	1	6155.763	-15.95103	-9.350872E-008	-0.0018922	7
	26	10	2527.573	6024.426	-1994.428	1	6345.979	-18.31749	-8.508508E-008	-0.0019059	7
	27	10	1976.103	6162.363	-2402.088	1	6613.981	-21.29582	-1.096311E-007	-0.0017594	7
	28	10	1577.524	6293.485	-2850.397	1	6908.887	-24.36636	1.510798E-007	-0.0022746	7
	29	11	1265.625	6449.984	-3385.311	1	7284.41	-27.69299	-5.476712E-009	-0.0020923	7
	30	11	998.264	6647.238	-4089.059	1	7804.241	-31.59782	-1.824002E-008	-0.0018909	7
	31	11	796.875	6869.664	-4912.321	1	8445.306	-35.56759	-3.606027E-008	-0.0018668	7
	32	12	627.7902	7141.526	-5963.796	1	9304.206	-39.86482	-3.295954E-008	-0.0017243	7
	33	12	505.5147	7438.896	-7125.28	1	10300.81	-43.76642	3.244553E-008	-0.0025342	6
	34	12	397.9953	7817.327	-8696.579	1	11693.63	-48.04773	4.476656E-010	-0.0019649	6
	35	12	315.5048	8258.158	-10567.19	1	13411.29	-51.99271	2.403476E-010	-0.0019637	6
	36	13	252.4038	8761.585	-12758.62	1	15477.33	-55.52188	8.876918E-010	-0.0019634	6
	37	13	198.6229	9406.427	-15639.77	1	18250.57	-58.9755	5.833586E-010	-0.0019658	6
	38	13	158.3615	10143.06	-18980.55	1	21520.75	-61.88029	2.613363E-010	-0.0019716	6
	39	14	125.558	11047.26	-23172.04	1	25670.71	-64.51054	7.523949E-010	-0.0019687	6
	40	14	100.4464	12155.23	-28103.06	1	30619.14	-66.6104	6.560318E-010	-0.0019723	6
	41	14	79.00281	13598.41	-34678.87	1	37249.71	-68.58868	1.278771E-009	-0.0019754	6
	42	15	63.3446	14878.79	-41838.94	1	44405.8	-70.42356	3.350631E-010	-0.0019751	6
	43	15	49.86702	17299.72	-51552.52	1	54377.78	-71.44955	1.212762E-009	-0.0019788	6
	44	16	39.72458	20290.2	-63177.93	1	66356.18	-72.19508	1.056494E-009	-0.0019759	6
	45	16	31.6723	23831.66	-76932.88	1	80539.53	-72.78848	6.069755E-010	-0.0019799	6
	46	16	24.93351	29264.36	-94837.61	1	99250.1	-72.85117	5.652119E-010	-0.0019812	6
	47	17	19.86229	36097.23	-115148.9	1	120674.3	-72.59467	8.830787E-011	-0.0019826	5
	48	17	15.83615	43315.89	-140154.7	1	146695.6	-72.82583	9.418514E-010	-0.001985	5
	49	17	12.40079	57846.13	-171333.4	1	180835	-71.34412	1.490614E-010	-0.0019818	5
	50	18	9.93114	72037.89	-204779.2	1	217080.6	-70.61898	3.637645E-010	-0.0019885	5
	51	18	7.944915	91486.23	-243400.2	1	260025.7	-69.40039	-2.36846E-010	-0.0019784	5
	52	19	6.317385	118226.3	-289033	1	312278	-67.75343	-6.506855E-011	-0.0019701	5
	53	19	5.008013	152655.7	-341678	1	374229.3	-65.92576	1.78654E-010	-0.0019752	5
	54	21	3.945707	195676.6	-401454.8	1	446604.2	-64.01453	1.524013E-010	-0.0019873	5
	55	22	3.158693	245876.5	-462110.8	1	523451.7	-61.98378	4.012854E-010	-0.0019752	5
	56	24	2.504006	307545.4	-529419.8	1	612265.9	-59.84726	3.579972E-010	-0.0019775	5
	57	25	1.998082	376316	-598713.4	1	707157.3	-57.84895	1.541753E-010	-0.0020194	5
	58	26	1.584686	453865.9	-672842.3	1	811610.1	-55.99836	2.569349E-010	-0.0019836	5
	59	28	1.266892	539768.3	-750026.6	1	924061.5	-54.25874	3.084945E-010	-0.0019524	5
	60	31	0.999041	638845.6	-841302.3	1	1056368	-52.78866	3.091434E-010	-0.0018994	4
