EXPLAIN
TAG	EISPOT
TITLE	LABEL	Potentiostatic EIS	Test &Identifier
DATE	LABEL	2/18/2020	Date
TIME	LABEL	17:15:43	Time
NOTES	NOTES	1	&Notes...
	
PSTAT	PSTAT	REF600-11020	Potentiostat
VDC	POTEN	0.00000E+000	T	DC &Voltage (V)
FREQINIT	QUANT	1.00000E+006	Initial Fre&q. (Hz)
FREQFINAL	QUANT	1.00000E+000	Final Fre&q. (Hz)
PTSPERDEC	QUANT	1.00000E+001	Points/&decade
VAC	QUANT	2.50000E+001	AC &Voltage (mV rms)
AREA	QUANT	1.60000E-004	&Area (cm^2)
CONDIT	TWOPARAM	F	1.50000E+001	0.00000E+000	Conditionin&g	Time(s)	E(V)
DELAY	TWOPARAM	F	1.00000E+002	0.00000E+000	Init. De&lay	Time(s)	Stab.(mV/s)
SPEED	SELECTOR	1	&Optimize for:
ZGUESS	QUANT	1.00000E+003	E&stimated Z (ohms)
OCVCURVE	TABLE	39
	Pt	T	Vf	Vm	Ach	Over
	#	s	V vs. Ref.	V	V	bits
	0	0.258333	3.70997E-002	3.70997E-002	5.70671E-004	...........
	1	0.516667	3.70993E-002	3.70773E-002	5.71038E-004	...........
	2	0.775	3.70963E-002	3.70362E-002	5.66171E-004	...........
	3	1.03333	3.70873E-002	3.70376E-002	5.68504E-004	...........
	4	1.29167	3.70717E-002	3.70176E-002	5.65604E-004	...........
	5	1.55	3.70534E-002	3.70057E-002	5.65604E-004	...........
	6	1.80833	3.70363E-002	3.70038E-002	5.73071E-004	...........
	7	2.06667	3.70222E-002	3.70007E-002	5.69038E-004	...........
	8	2.325	3.70117E-002	3.69890E-002	5.69971E-004	...........
	9	2.58333	3.70041E-002	3.69869E-002	5.67104E-004	...........
	10	2.84167	3.69978E-002	3.69771E-002	5.68604E-004	...........
	11	3.1	3.69921E-002	3.69913E-002	5.69871E-004	...........
	12	3.35833	3.69876E-002	3.69816E-002	5.69071E-004	...........
	13	3.61667	3.69851E-002	3.69822E-002	5.65104E-004	...........
	14	3.875	3.69840E-002	3.69758E-002	5.65204E-004	...........
	15	4.13333	3.69827E-002	3.69736E-002	5.66438E-004	...........
	16	4.39167	3.69804E-002	3.69725E-002	5.65604E-004	...........
	17	4.65	3.69775E-002	3.69699E-002	5.66704E-004	...........
	18	4.90833	3.69748E-002	3.69687E-002	5.60304E-004	...........
	19	5.16667	3.69725E-002	3.69678E-002	5.66171E-004	...........
	20	5.425	3.69706E-002	3.69676E-002	5.69438E-004	...........
	21	5.68333	3.69691E-002	3.69640E-002	5.67538E-004	...........
	22	5.94167	3.69679E-002	3.69652E-002	5.62138E-004	...........
	23	6.2	3.69667E-002	3.69636E-002	5.66471E-004	...........
	24	6.45833	3.69656E-002	3.69606E-002	5.62604E-004	...........
	25	6.71667	3.69644E-002	3.69599E-002	5.66971E-004	...........
	26	6.975	3.69630E-002	3.69566E-002	5.60771E-004	...........
	27	7.23333	3.69613E-002	3.69554E-002	5.63338E-004	...........
	28	7.49167	3.69594E-002	3.69551E-002	5.62238E-004	...........
	29	7.75	3.69576E-002	3.69539E-002	5.64538E-004	...........
	30	8.00833	3.69561E-002	3.69534E-002	5.64004E-004	...........
	31	8.26667	3.69550E-002	3.69499E-002	5.70571E-004	...........
	32	8.525	3.69538E-002	3.69466E-002	5.66504E-004	...........
	33	8.78333	3.69521E-002	3.69453E-002	5.63504E-004	...........
	34	9.04167	3.69500E-002	3.69414E-002	5.60571E-004	...........
	35	9.3	3.69476E-002	3.69432E-002	5.58971E-004	...........
	36	9.5583	3.69453E-002	3.69433E-002	5.64938E-004	...........
	37	9.8167	3.69438E-002	3.69396E-002	5.62971E-004	...........
	38	10.075	3.69426E-002	3.69328E-002	5.67571E-004	...........
EOC	QUANT	0.0369426	Open Circuit (V)
PSTATMODEL	IQUANT	4	Pstat Model
PSTATSECTION	LABEL	REF600-11020	Pstat Section
PSTATSERIALNO	LABEL	11020	Pstat Serial Number
CTRLMODE	IQUANT	1	Control Mode
IESTAB	IQUANT	0	I/E Stability
CASPEED	IQUANT	1	Control Amp Speed
CONVENTION	IQUANT	1	Current Convention
ICHRANGE	IQUANT	2	Ich Range
ICHRANGEMODE	TOGGLE	F	Ich Auto Range
ICHOFFSETENABLE	TOGGLE	T	Ich Offset Enable
ICHOFFSET	QUANT	0	Ich Offset (V)
ICHFILTER	IQUANT	3	Ich Filter
VCHRANGE	IQUANT	2	Vch Range
VCHRANGEMODE	TOGGLE	F	Vch Auto Range
VCHOFFSETENABLE	TOGGLE	T	Vch Offset Enable
VCHOFFSET	QUANT	0	Vch Offset (V)
VCHFILTER	IQUANT	3	Vch Filter
ACHRANGE	IQUANT	2	Ach Range
ACHOFFSETENABLE	TOGGLE	F	Ach Offset Enable
ACHOFFSET	QUANT	0	Ach Offset (V)
ACHFILTER	IQUANT	3	Ach Filter
IERANGELOWERLIMIT	IQUANT	1	I/E Range Lower Limit
IERANGEMODE	TOGGLE	F	I/E AutoRange
IERANGE	IQUANT	7	I/E Range
POSFEEDENABLE	TOGGLE	F	Positive Feedback IR Comp
POSFEEDRESISTANCE	QUANT	0	Positive Feedback Resistance (ohm)
ACHSELECT	IQUANT	0	Ach Select
CABLEID	IQUANT	14	Cable ID
DCCALDATE	LABEL	1/27/2020	DC Calibration Date
ACCALDATE	LABEL	1/27/2020	AC Calibration Date
THERMOSELECT	IQUANT	1	Thermo Select
FRAMEWORKVERSION	QUANT	6.33	Framework Version
INSTRUMENTVERSION	LABEL	3.50	Instrument Version
ZCURVE	TABLE
	Pt	Time	Freq	Zreal	Zimag	Zsig	Zmod	Zphz	Idc	Vdc	IERange
	#	s	Hz	ohm	ohm	V	ohm	°	A	V	#
	0	1	1000078	1662.187	-1038.818	1	1960.104	-32.00416	2.762647E-006	0.0389692	8
	1	2	794390.6	1842.827	-1027.331	1	2109.839	-29.13861	-1.921389E-006	0.0391281	8
	2	4	630984.4	2008.875	-1008.113	1	2247.636	-26.64885	-4.599746E-007	0.0389392	8
	3	5	501234.4	2171.484	-979.218	1	2382.06	-24.27272	3.902367E-007	0.0386536	8
	4	6	398109.4	2317.069	-948.9261	1	2503.851	-22.27093	4.378932E-007	0.0385029	8
	5	8	316265.6	2453.475	-911.7237	1	2617.399	-20.38532	1.410506E-006	0.0382247	8
	6	9	251203.1	2581.891	-876.1036	1	2726.485	-18.74343	1.617368E-007	0.0385391	8
	7	10	199546.9	2702.255	-841.9639	1	2830.386	-17.3059	-1.081435E-006	0.0387336	8
	8	12	158578.1	2815.612	-807.8858	1	2929.224	-16.00982	-7.444652E-007	0.0386862	8
	9	13	125953.1	2929.572	-774.6126	1	3030.25	-14.81072	9.571902E-008	0.0382561	7
	10	14	100078.1	3030	-753.8167	1	3122.361	-13.97067	-3.348106E-009	0.0384462	7
	11	16	79453.13	3119.445	-752.5615	1	3208.938	-13.56336	1.888925E-008	0.0384546	7
	12	17	63140.62	3209.442	-759.4625	1	3298.075	-13.31323	2.43666E-008	0.0384967	7
	13	18	50203.12	3299.546	-773.877	1	3389.084	-13.19959	2.504482E-008	0.0384945	7
	14	20	39890.62	3391.307	-796.9153	1	3483.682	-13.22388	1.232433E-008	0.0384091	7
	15	21	31640.63	3487.858	-830.8023	1	3585.441	-13.39809	-2.266949E-008	0.0384924	7
	16	23	25171.88	3587.076	-873.5018	1	3691.899	-13.68593	5.473366E-009	0.038434	7
	17	24	20015.62	3689.915	-925.6091	1	3804.238	-14.08198	5.546829E-009	0.0384351	7
	18	25	15890.62	3797.281	-989.33	1	3924.044	-14.603	-1.840329E-008	0.0384947	7
	19	27	12609.37	3909.627	-1067.588	1	4052.768	-15.2732	2.678252E-008	0.0384763	7
	20	28	10078.13	4020.432	-1157.046	1	4183.614	-16.05536	3.482113E-008	0.0383724	7
	21	29	8015.625	4141.023	-1272.208	1	4332.042	-17.07805	6.456116E-008	0.0383945	7
	22	31	6328.125	4272.845	-1416.728	1	4501.591	-18.34374	-1.839861E-008	0.0384856	7
	23	32	5015.625	4414.313	-1588.487	1	4691.423	-19.79123	1.88127E-008	0.0384291	7
	24	33	3984.375	4571.534	-1795.749	1	4911.582	-21.44545	6.202954E-008	0.0383951	7
	25	35	3170.956	4746.458	-2040.348	1	5166.418	-23.2613	1.006933E-008	0.0384955	7
	26	36	2527.573	4941.219	-2322.687	1	5459.901	-25.17651	9.595816E-009	0.0384966	7
	27	37	1976.103	5177.388	-2683.347	1	5831.441	-27.39689	-1.421992E-008	0.038505	7
	28	39	1577.524	5414.511	-3067.375	1	6222.999	-29.532	-1.249158E-008	0.0385059	7
	29	40	1265.625	5664.859	-3501.862	1	6659.855	-31.72323	3.515363E-008	0.0383722	7
	30	41	998.264	5954.69	-4071.858	1	7213.762	-34.36459	-1.880999E-008	0.0384826	7
	31	43	796.875	6250.281	-4725.515	1	7835.592	-37.09105	1.823021E-008	0.0384296	7
	32	44	627.7902	6582.612	-5566.838	1	8620.933	-40.22081	1.643284E-008	0.038435	7
	33	45	505.5147	6916.808	-6516.089	1	9502.72	-43.29131	-1.928678E-008	0.0384799	7
	34	47	397.9953	7341.338	-7800.567	1	10711.87	-46.73716	1.131326E-009	0.0384706	6
	35	48	315.5048	7829.951	-9346.269	1	12192.66	-50.045	1.849298E-009	0.0384674	6
	36	50	252.4038	8405.439	-11162.44	1	13973.25	-53.01986	1.562345E-009	0.0384701	6
	37	51	198.6229	9181.503	-13545.63	1	16364.11	-55.86979	1.563718E-009	0.0384665	6
	38	52	158.3615	10117.23	-16282.35	1	19169.59	-58.14476	1.500818E-009	0.0384705	6
	39	54	125.558	11344.11	-19650.64	1	22690.01	-60.0026	1.396812E-009	0.0384622	6
	40	55	100.4464	12839.29	-23520.94	1	26797.05	-61.37137	1.358167E-009	0.0384662	6
	41	56	79.00281	14992.41	-28439.33	1	32149.15	-62.20307	8.772985E-010	0.0384657	6
	42	58	63.3446	17515.39	-33608.85	1	37899.12	-62.47355	1.111705E-009	0.0384673	6
	43	59	49.86702	20829.52	-40624.11	1	45652.9	-62.85406	7.350933E-010	0.0384605	6
	44	60	39.72458	24829.1	-47840.9	1	53900.25	-62.571	1.417016E-009	0.0384693	6
	45	62	31.6723	29865.54	-56238.38	1	63676.57	-62.02934	7.909051E-010	0.0384635	6
	46	63	24.93351	36279.81	-66108.54	1	75409.3	-61.24239	7.790608E-010	0.0384645	6
	47	65	19.86229	43565.13	-76594.98	1	88117.6	-60.36996	1.873519E-009	0.0384633	6
	48	66	15.83615	52404.45	-88665.95	1	102994.5	-59.41554	-1.024519E-009	0.0384615	5
	49	67	12.40079	62935.73	-102634.3	1	120394	-58.48322	1.153921E-009	0.0384631	5
	50	69	9.93114	73484.46	-116463.2	1	137708.5	-57.74941	6.786168E-010	0.0384619	5
	51	70	7.944915	85165.86	-132370.9	1	157401.7	-57.24326	-2.658825E-010	0.0384662	5
	52	72	6.317385	98028.9	-151267.8	1	180254.3	-57.05479	1.71043E-011	0.0384594	5
	53	74	5.008013	111951.5	-173984.5	1	206890.7	-57.24048	-6.430519E-011	0.0384583	5
	54	76	3.945707	127262.5	-201418.8	1	238254.6	-57.71405	4.341405E-010	0.0384732	5
	55	79	3.158693	143102	-233069.6	1	273495.2	-58.45055	-2.350494E-011	0.0384642	5
	56	82	2.504006	161412.6	-272426.8	1	316654.9	-59.3533	4.476231E-010	0.0384729	5
	57	85	1.998082	181912.9	-319042.6	1	367260.8	-60.30891	7.868264E-011	0.0385128	5
	58	88	1.584686	205946.2	-377916.5	1	430389.1	-61.41175	2.071515E-010	0.0385031	5
	59	92	1.266892	235488	-445188.6	1	503634.3	-62.12285	7.843937E-012	0.0385105	5
	60	96	0.999041	272119.4	-531318.1	1	596948.9	-62.88033	2.564866E-010	0.0384612	5
