EXPLAIN
TAG	EISPOT
TITLE	LABEL	Potentiostatic EIS	Test &Identifier
DATE	LABEL	3/20/2020	Date
TIME	LABEL	15:31:21	Time
NOTES	NOTES	1	&Notes...
	
PSTAT	PSTAT	REF600-11020	Potentiostat
VDC	POTEN	0.00000E+000	T	DC &Voltage (V)
FREQINIT	QUANT	1.00000E+006	Initial Fre&q. (Hz)
FREQFINAL	QUANT	1.00000E+000	Final Fre&q. (Hz)
PTSPERDEC	QUANT	1.00000E+001	Points/&decade
VAC	QUANT	2.50000E+001	AC &Voltage (mV rms)
AREA	QUANT	4.00000E-004	&Area (cm^2)
CONDIT	TWOPARAM	F	5.00000E+000	0.00000E+000	Conditionin&g	Time(s)	E(V)
DELAY	TWOPARAM	T	3.00000E+000	0.00000E+000	Init. De&lay	Time(s)	Stab.(mV/s)
SPEED	SELECTOR	0	&Optimize for:
ZGUESS	QUANT	1.00000E+003	E&stimated Z (ohms)
OCVCURVE	TABLE	12
	Pt	T	Vf	Vm	Ach	Over
	#	s	V vs. Ref.	V	V	bits
	0	0.258333	8.21632E-002	8.21632E-002	5.81097E-004	...........
	1	0.516667	8.21618E-002	8.20905E-002	5.81930E-004	...........
	2	0.775	8.21512E-002	8.19104E-002	5.83263E-004	...........
	3	1.03333	8.21126E-002	8.16637E-002	5.86896E-004	...........
	4	1.29167	8.20227E-002	8.13753E-002	5.85063E-004	...........
	5	1.55	8.18678E-002	8.10844E-002	5.88363E-004	...........
	6	1.80833	8.16516E-002	8.07651E-002	5.88430E-004	...........
	7	2.06667	8.13908E-002	8.05264E-002	5.87063E-004	...........
	8	2.325	8.11092E-002	8.03257E-002	5.84863E-004	...........
	9	2.58333	8.08330E-002	8.01523E-002	5.79963E-004	...........
	10	2.84167	8.05827E-002	8.00111E-002	5.77530E-004	...........
	11	3.1	8.03761E-002	8.03264E-002	5.82463E-004	...........
EOC	QUANT	0.0803761	Open Circuit (V)
PSTATMODEL	IQUANT	4	Pstat Model
PSTATSECTION	LABEL	REF600-11020	Pstat Section
PSTATSERIALNO	LABEL	11020	Pstat Serial Number
CTRLMODE	IQUANT	1	Control Mode
IESTAB	IQUANT	0	I/E Stability
CASPEED	IQUANT	1	Control Amp Speed
CONVENTION	IQUANT	1	Current Convention
ICHRANGE	IQUANT	2	Ich Range
ICHRANGEMODE	TOGGLE	F	Ich Auto Range
ICHOFFSETENABLE	TOGGLE	T	Ich Offset Enable
ICHOFFSET	QUANT	0	Ich Offset (V)
ICHFILTER	IQUANT	3	Ich Filter
VCHRANGE	IQUANT	2	Vch Range
VCHRANGEMODE	TOGGLE	F	Vch Auto Range
VCHOFFSETENABLE	TOGGLE	T	Vch Offset Enable
VCHOFFSET	QUANT	0	Vch Offset (V)
VCHFILTER	IQUANT	3	Vch Filter
ACHRANGE	IQUANT	2	Ach Range
ACHOFFSETENABLE	TOGGLE	F	Ach Offset Enable
ACHOFFSET	QUANT	0	Ach Offset (V)
ACHFILTER	IQUANT	3	Ach Filter
IERANGELOWERLIMIT	IQUANT	1	I/E Range Lower Limit
IERANGEMODE	TOGGLE	F	I/E AutoRange
IERANGE	IQUANT	8	I/E Range
POSFEEDENABLE	TOGGLE	F	Positive Feedback IR Comp
POSFEEDRESISTANCE	QUANT	0	Positive Feedback Resistance (ohm)
ACHSELECT	IQUANT	0	Ach Select
CABLEID	IQUANT	14	Cable ID
DCCALDATE	LABEL	2/27/2020	DC Calibration Date
ACCALDATE	LABEL	2/27/2020	AC Calibration Date
THERMOSELECT	IQUANT	1	Thermo Select
FRAMEWORKVERSION	QUANT	6.33	Framework Version
INSTRUMENTVERSION	LABEL	3.50	Instrument Version
ZCURVE	TABLE
	Pt	Time	Freq	Zreal	Zimag	Zsig	Zmod	Zphz	Idc	Vdc	IERange
	#	s	Hz	ohm	ohm	V	ohm	°	A	V	#
	0	1	1000078	1472.786	-2657.447	1	3038.276	-61.00431	-3.543599E-007	0.0829026	8
	1	1	794390.6	1840.281	-3097.514	1	3602.947	-59.28479	-1.998827E-007	0.082531	8
	2	2	630984.4	2308.251	-3562.859	1	4245.23	-57.06222	2.158588E-007	0.0823277	8
	3	2	501234.4	2885.192	-4035.828	1	4961.072	-54.43923	9.571678E-008	0.082231	8
	4	2	398109.4	3582.081	-4495.826	1	5748.37	-51.45366	-3.329607E-008	0.08218	8
	5	3	316265.6	4381.7	-4902.972	1	6575.594	-48.2134	2.048243E-007	0.0821031	8
	6	3	251203.1	5279.923	-5241.438	1	7439.775	-44.79042	-2.440022E-007	0.0821579	8
	7	3	199546.9	6251.192	-5469.226	1	8306.012	-41.18298	-2.400322E-007	0.0821594	8
	8	4	158578.1	7230.087	-5590.306	1	9139.238	-37.71121	-2.422581E-007	0.0821847	8
	9	4	125953.1	8302.053	-5568.561	1	9996.65	-33.85154	-1.061387E-008	0.0821298	7
	10	4	100078.1	9203.692	-5508.611	1	10726.26	-30.90144	3.794536E-009	0.0820442	7
	11	5	79453.13	10085.6	-5439.694	1	11459.04	-28.34031	-2.195487E-009	0.0820566	7
	12	5	63140.62	10909.92	-5338.083	1	12145.84	-26.07191	2.74221E-009	0.082056	7
	13	5	50203.12	11676.6	-5230.332	1	12794.51	-24.12917	1.405703E-008	0.0820334	7
	14	6	39890.62	12383.42	-5133.957	1	13405.46	-22.51808	4.246314E-009	0.0820309	7
	15	6	31640.63	13063.42	-5075.678	1	14014.83	-21.2332	4.174436E-009	0.0820294	7
	16	6	25171.88	13709.22	-5072.849	1	14617.67	-20.30609	2.549529E-009	0.0820436	7
	17	7	20015.62	14338.77	-5111.897	1	15222.74	-19.6216	3.404486E-009	0.0820443	7
	18	7	15890.62	14959.57	-5204.877	1	15839.17	-19.1843	2.949427E-009	0.0820449	7
	19	7	12609.37	15660.78	-5228.792	1	16510.61	-18.46304	6.606768E-010	0.0820929	6
	20	7	10078.13	16267.02	-5466.279	1	17160.89	-18.57412	6.823991E-010	0.0820961	6
	21	8	8015.625	16913.22	-5778.945	1	17873.25	-18.86438	9.877429E-010	0.082072	6
	22	8	6328.125	17614	-6179.765	1	18666.62	-19.33311	8.986691E-010	0.0820681	6
	23	8	5015.625	18345.64	-6662.07	1	19517.83	-19.95808	-1.149016E-010	0.0820983	6
	24	9	3984.375	19118.29	-7233.087	1	20440.8	-20.72331	4.267282E-010	0.0820899	6
	25	9	3170.956	19948.15	-7903.352	1	21456.74	-21.61321	3.535976E-010	0.0820743	6
	26	9	2527.573	20836.26	-8685.398	1	22574.01	-22.62836	5.969035E-010	0.0820577	6
	27	10	1976.103	21899.03	-9687.05	1	23945.91	-23.86224	-2.39614E-010	0.0820899	6
	28	10	1577.524	22976.95	-10760.85	1	25371.96	-25.09522	2.254406E-010	0.0820874	6
	29	10	1265.625	24141.33	-11968.72	1	26945.39	-26.37117	2.033912E-010	0.0820694	6
	30	11	998.264	25543.64	-13479.47	1	28882.07	-27.82077	2.938543E-010	0.0820697	6
	31	11	796.875	27052.69	-15137.8	1	31000.02	-29.22994	-1.574383E-010	0.0820824	6
	32	11	627.7902	28827.94	-17146.3	1	33541.7	-30.74336	-1.549914E-010	0.0820897	6
	33	12	505.5147	30676.14	-19224.26	1	36202.18	-32.07474	-2.730768E-010	0.0820851	6
	34	12	397.9953	32945.37	-21840.92	1	39527.5	-33.54213	7.724659E-010	0.0820863	6
	35	12	315.5048	35461.77	-24748.04	1	43243.52	-34.91039	7.229617E-010	0.0820845	6
	36	13	252.4038	38185.45	-27921.89	1	47304.98	-36.17494	7.771062E-010	0.082085	6
	37	13	198.6229	41484.22	-31802.63	1	52271.87	-37.47449	7.333436E-010	0.082084	6
	38	13	158.3615	44994.59	-35985.87	1	57615.06	-38.6522	7.053758E-010	0.0820875	6
	39	14	125.558	49039.3	-40863.97	1	63833.51	-39.80412	7.213999E-010	0.0820876	6
	40	14	100.4464	53364.31	-46195.75	1	70581.84	-40.88168	7.543259E-010	0.0820822	6
	41	14	79.00281	58562.63	-52774.09	1	78833.27	-42.0238	7.016241E-010	0.0820831	6
	42	14	63.3446	63971.7	-59757.53	1	87540.51	-43.04928	5.835895E-010	0.0820838	6
	43	15	49.86702	70315.25	-68397.16	1	98093.9	-44.20778	4.151866E-010	0.0820848	5
	44	15	39.72458	76983.05	-78067.16	1	109639.7	-45.4006	2.7524E-010	0.0820887	5
	45	16	31.6723	84347.93	-89375.8	1	122892.7	-46.65778	2.789906E-010	0.0820827	5
	46	16	24.93351	93075.79	-103568.1	1	139246	-48.05423	6.554941E-011	0.08208	5
	47	16	19.86229	102470.1	-119654.9	1	157535.4	-49.42391	2.65916E-010	0.082081	5
	48	16	15.83615	113185.6	-138511.8	1	178875.7	-50.74586	-1.411312E-010	0.0820804	5
	49	17	12.40079	126823.7	-163160.4	1	206653.2	-52.14227	-6.292996E-010	0.0820878	5
	50	17	9.93114	141009.7	-189579.4	1	236271.2	-53.35803	-5.198553E-010	0.0820805	5
	51	17	7.944915	158589.9	-220913.5	1	271944	-54.3261	6.107574E-010	0.0820816	5
	52	18	6.317385	179787.1	-258566.1	1	314928.3	-55.1882	1.406329E-010	0.0820972	5
	53	19	5.008013	205889.7	-303052.6	1	366376.1	-55.80836	-3.828749E-011	0.0820765	5
	54	20	3.945707	238123.1	-355000.2	1	427466.6	-56.14751	3.679304E-010	0.0820855	5
	55	20	3.158693	274064.4	-411036.5	1	494026.6	-56.30607	7.718154E-011	0.0820731	5
	56	21	2.504006	317249	-476542.8	1	572485.8	-56.3471	2.580032E-010	0.0820704	5
	57	23	1.998082	365464.1	-549688.8	1	660092.2	-56.3818	3.547632E-010	0.082108	5
	58	24	1.584686	420266.7	-633835.7	1	760507.6	-56.45351	2.681701E-010	0.0820688	5
	59	26	1.266892	482548.3	-728987.7	1	874228.8	-56.49771	2.352972E-010	0.0820339	5
	60	29	0.999041	554730.6	-848840.1	1	1014029	-56.83474	1.819571E-010	0.0820274	5
