EXPLAIN
TAG	EISPOT
TITLE	LABEL	Potentiostatic EIS	Test &Identifier
DATE	LABEL	6/1/2020	Date
TIME	LABEL	14:03:02	Time
NOTES	NOTES	1	&Notes...
	
PSTAT	PSTAT	REF600-11020	Potentiostat
VDC	POTEN	0.00000E+000	T	DC &Voltage (V)
FREQINIT	QUANT	1.00000E+006	Initial Fre&q. (Hz)
FREQFINAL	QUANT	1.00000E+000	Final Fre&q. (Hz)
PTSPERDEC	QUANT	1.00000E+001	Points/&decade
VAC	QUANT	2.50000E+001	AC &Voltage (mV rms)
AREA	QUANT	4.00000E-004	&Area (cm^2)
CONDIT	TWOPARAM	F	5.00000E+000	0.00000E+000	Conditionin&g	Time(s)	E(V)
DELAY	TWOPARAM	T	3.00000E+000	0.00000E+000	Init. De&lay	Time(s)	Stab.(mV/s)
SPEED	SELECTOR	0	&Optimize for:
ZGUESS	QUANT	1.00000E+003	E&stimated Z (ohms)
OCVCURVE	TABLE	12
	Pt	T	Vf	Vm	Ach	Over
	#	s	V vs. Ref.	V	V	bits
	0	0.258333	-1.40750E-001	-1.40750E-001	5.47564E-004	...........
	1	0.516667	-1.40756E-001	-1.41052E-001	5.56664E-004	...........
	2	0.775	-1.40791E-001	-1.41329E-001	5.55664E-004	...........
	3	1.03333	-1.40890E-001	-1.41581E-001	5.47864E-004	...........
	4	1.29167	-1.41064E-001	-1.41810E-001	5.55897E-004	...........
	5	1.55	-1.41291E-001	-1.42019E-001	5.53897E-004	...........
	6	1.80833	-1.41535E-001	-1.42211E-001	5.57964E-004	...........
	7	2.06667	-1.41770E-001	-1.42387E-001	5.52097E-004	...........
	8	2.325	-1.41987E-001	-1.42550E-001	5.53864E-004	...........
	9	2.58333	-1.42184E-001	-1.42699E-001	5.61664E-004	...........
	10	2.84167	-1.42364E-001	-1.42838E-001	5.62963E-004	...........
	11	3.1	-1.42528E-001	-1.42971E-001	5.57497E-004	...........
EOC	QUANT	-0.1425282	Open Circuit (V)
PSTATMODEL	IQUANT	4	Pstat Model
PSTATSECTION	LABEL	REF600-11020	Pstat Section
PSTATSERIALNO	LABEL	11020	Pstat Serial Number
CTRLMODE	IQUANT	1	Control Mode
IESTAB	IQUANT	0	I/E Stability
CASPEED	IQUANT	1	Control Amp Speed
CONVENTION	IQUANT	1	Current Convention
ICHRANGE	IQUANT	2	Ich Range
ICHRANGEMODE	TOGGLE	F	Ich Auto Range
ICHOFFSETENABLE	TOGGLE	T	Ich Offset Enable
ICHOFFSET	QUANT	0	Ich Offset (V)
ICHFILTER	IQUANT	3	Ich Filter
VCHRANGE	IQUANT	2	Vch Range
VCHRANGEMODE	TOGGLE	F	Vch Auto Range
VCHOFFSETENABLE	TOGGLE	T	Vch Offset Enable
VCHOFFSET	QUANT	0	Vch Offset (V)
VCHFILTER	IQUANT	3	Vch Filter
ACHRANGE	IQUANT	2	Ach Range
ACHOFFSETENABLE	TOGGLE	F	Ach Offset Enable
ACHOFFSET	QUANT	0	Ach Offset (V)
ACHFILTER	IQUANT	3	Ach Filter
IERANGELOWERLIMIT	IQUANT	1	I/E Range Lower Limit
IERANGEMODE	TOGGLE	F	I/E AutoRange
IERANGE	IQUANT	8	I/E Range
POSFEEDENABLE	TOGGLE	F	Positive Feedback IR Comp
POSFEEDRESISTANCE	QUANT	0	Positive Feedback Resistance (ohm)
ACHSELECT	IQUANT	0	Ach Select
CABLEID	IQUANT	14	Cable ID
DCCALDATE	LABEL	2/27/2020	DC Calibration Date
ACCALDATE	LABEL	2/27/2020	AC Calibration Date
THERMOSELECT	IQUANT	1	Thermo Select
FRAMEWORKVERSION	QUANT	6.33	Framework Version
INSTRUMENTVERSION	LABEL	3.50	Instrument Version
ZCURVE	TABLE
	Pt	Time	Freq	Zreal	Zimag	Zsig	Zmod	Zphz	Idc	Vdc	IERange
	#	s	Hz	ohm	ohm	V	ohm	°	A	V	#
	0	1	1000078	1722.312	-2337.551	1	2903.533	-53.61714	2.824897E-008	-0.1400855	8
	1	1	794390.6	2060.399	-2624.936	1	3336.995	-51.87046	5.786753E-008	-0.1404377	8
	2	1	630984.4	2448.879	-2915.295	1	3807.355	-49.96938	6.05034E-008	-0.1405812	8
	3	2	501234.4	2868.348	-3213.915	1	4307.745	-48.25179	6.190092E-008	-0.1406636	8
	4	2	398109.4	3335.999	-3534.403	1	4860.133	-46.65413	4.855035E-008	-0.1407418	8
	5	2	316265.6	3843.106	-3860.858	1	5447.54	-45.13203	5.860672E-008	-0.1407563	8
	6	3	251203.1	4408.549	-4218.664	1	6101.838	-43.73912	6.482993E-008	-0.1407695	8
	7	3	199546.9	5050.978	-4612.062	1	6839.845	-42.39929	4.990023E-008	-0.140785	8
	8	3	158578.1	5778.828	-4997.547	1	7640.048	-40.85334	5.070608E-008	-0.1407848	8
	9	4	125953.1	6711.201	-5301.92	1	8552.812	-38.30911	2.092661E-009	-0.1408201	7
	10	4	100078.1	7617.994	-5657.143	1	9488.788	-36.59768	3.588894E-009	-0.1408478	7
	11	4	79453.13	8648.686	-5950.774	1	10498.17	-34.53012	2.747523E-009	-0.1408519	7
	12	5	63140.62	9763.69	-6125.101	1	11525.91	-32.10146	3.208049E-009	-0.1408609	7
	13	5	50203.12	10901.29	-6165.504	1	12524.04	-29.49144	2.912077E-009	-0.1408646	7
	14	5	39890.62	12011.76	-6057.499	1	13452.72	-26.76169	2.51406E-009	-0.1408583	7
	15	6	31640.63	13081.09	-5851	1	14330.01	-24.09834	2.842229E-009	-0.1408623	7
	16	6	25171.88	14021.73	-5552.4	1	15081.05	-21.60284	3.063502E-009	-0.1408639	7
	17	6	20015.62	14849.78	-5217.654	1	15739.76	-19.35956	2.693298E-009	-0.1408637	7
	18	7	15890.62	15566.3	-4879.305	1	16313.1	-17.40376	2.719555E-009	-0.1408652	7
	19	7	12609.37	16336.73	-4355.224	1	16907.3	-14.92736	5.692598E-010	-0.1408133	6
	20	7	10078.13	16833.46	-4141.995	1	17335.55	-13.82344	7.12558E-010	-0.1408122	6
	21	7	8015.625	17279.02	-3986.214	1	17732.86	-12.99068	7.733451E-010	-0.140804	6
	22	8	6328.125	17701.14	-3902.868	1	18126.3	-12.43402	7.052113E-010	-0.1408163	6
	23	8	5015.625	18102.1	-3904.232	1	18518.35	-12.17103	6.498901E-010	-0.1408111	6
	24	8	3984.375	18475.65	-3985.497	1	18900.63	-12.1731	4.881541E-010	-0.1408111	6
	25	9	3170.956	18862.5	-4158.413	1	19315.44	-12.43252	7.584965E-010	-0.1408135	6
	26	9	2527.573	19256.46	-4417.757	1	19756.71	-12.92103	6.009763E-010	-0.1408151	6
	27	9	1976.103	19714.39	-4800.813	1	20290.51	-13.68618	6.084749E-010	-0.1408112	6
	28	10	1577.524	20178.69	-5254.878	1	20851.69	-14.59661	4.551698E-010	-0.140823	6
	29	10	1265.625	20669.87	-5795.457	1	21466.97	-15.66253	3.873502E-010	-0.1408198	6
	30	10	998.264	21245.18	-6495.514	1	22215.97	-17.00052	3.187098E-010	-0.1408132	6
	31	11	796.875	21854.7	-7291.55	1	23038.98	-18.45064	2.584208E-010	-0.1408207	6
	32	11	627.7902	22553.35	-8294.961	1	24030.39	-20.19316	2.883215E-010	-0.1408184	6
	33	11	505.5147	23248.55	-9378.889	1	25069.08	-21.97005	2.782539E-010	-0.1408222	6
	34	12	397.9953	24072.6	-10809.05	1	26387.98	-24.18099	5.576798E-010	-0.1408003	6
	35	12	315.5048	24950.79	-12488.83	1	27901.84	-26.58972	5.498236E-010	-0.1407999	6
	36	12	252.4038	25884.26	-14435.49	1	29637.45	-29.14814	4.946589E-010	-0.1408044	6
	37	13	198.6229	26996.41	-16974.31	1	31889.4	-32.16011	4.659451E-010	-0.140804	6
	38	13	158.3615	28186.83	-19894.8	1	34500.73	-35.21517	4.549182E-010	-0.1408062	6
	39	13	125.558	29578.79	-23530.81	1	37796.87	-38.5033	4.743406E-010	-0.1408045	6
	40	13	100.4464	31140.26	-27765.45	1	41720.93	-41.72101	4.120514E-010	-0.1408035	6
	41	14	79.00281	33118.69	-33307.11	1	46970.32	-45.16253	3.857797E-010	-0.1408069	6
	42	14	63.3446	35286.75	-39482.77	1	52953.22	-48.21203	4.852636E-010	-0.1408076	6
	43	15	49.86702	38117.86	-47583.26	1	60968.34	-51.30258	4.649444E-010	-0.1408131	6
	44	15	39.72458	41390.23	-56911.09	1	70370.61	-53.9724	6.065611E-010	-0.1408133	6
	45	15	31.6723	45398.5	-68120.87	1	81862.55	-56.3189	5.797498E-010	-0.1408115	6
	46	16	24.93351	50704.63	-82444.15	1	96788.4	-58.40774	7.799896E-010	-0.1408149	6
	47	16	19.86229	57063.65	-98796.8	1	114092.3	-59.98986	1.374244E-009	-0.1408071	5
	48	16	15.83615	65305.15	-118308.5	1	135135.8	-61.10173	-3.153554E-010	-0.1408094	5
	49	16	12.40079	76948.5	-143118.1	1	162492.7	-61.73498	1.085296E-009	-0.1408118	5
	50	17	9.93114	90307.3	-169441.8	1	192005	-61.94374	1.011217E-009	-0.140809	5
	51	17	7.944915	107579.7	-199796.8	1	226918.8	-61.69995	-2.788384E-010	-0.1408029	5
	52	17	6.317385	129616.8	-235257.1	1	268600.9	-61.14708	4.564258E-010	-0.1408241	5
	53	18	5.008013	157288	-275597.9	1	317322.7	-60.28593	5.976646E-010	-0.1408077	5
	54	19	3.945707	191534	-320865.3	1	373684.2	-59.16577	8.277728E-011	-0.140818	5
	55	20	3.158693	229827	-367812.8	1	433712.7	-58.00089	4.765043E-010	-0.1408085	5
	56	21	2.504006	275282.4	-420634.1	1	502706.2	-56.79741	3.468292E-010	-0.1408105	5
	57	22	1.998082	326103.2	-477018.4	1	577832	-55.6424	1.371159E-010	-0.1408585	5
	58	24	1.584686	382657.4	-540160.7	1	661967	-54.68571	2.143516E-010	-0.1408256	5
	59	26	1.266892	445405.1	-607106.9	1	752970.5	-53.7343	2.830942E-010	-0.1407934	5
	60	28	0.999041	519075.8	-688986.6	1	862636.8	-53.00598	3.216134E-010	-0.140777	5
