EXPLAIN
TAG	EISPOT
TITLE	LABEL	Potentiostatic EIS	Test &Identifier
DATE	LABEL	7/5/2020	Date
TIME	LABEL	16:56:28	Time
NOTES	NOTES	1	&Notes...
	
PSTAT	PSTAT	REF600-11020	Potentiostat
VDC	POTEN	0.00000E+000	T	DC &Voltage (V)
FREQINIT	QUANT	1.00000E+006	Initial Fre&q. (Hz)
FREQFINAL	QUANT	1.00000E+000	Final Fre&q. (Hz)
PTSPERDEC	QUANT	1.00000E+001	Points/&decade
VAC	QUANT	2.50000E+001	AC &Voltage (mV rms)
AREA	QUANT	4.00000E-004	&Area (cm^2)
CONDIT	TWOPARAM	F	5.00000E+000	0.00000E+000	Conditionin&g	Time(s)	E(V)
DELAY	TWOPARAM	F	3.00000E+000	0.00000E+000	Init. De&lay	Time(s)	Stab.(mV/s)
SPEED	SELECTOR	0	&Optimize for:
ZGUESS	QUANT	1.00000E+003	E&stimated Z (ohms)
OCVCURVE	TABLE	39
	Pt	T	Vf	Vm	Ach	Over
	#	s	V vs. Ref.	V	V	bits
	0	0.258333	1.01249E-001	1.01249E-001	4.68051E-004	...........
	1	0.516667	1.01249E-001	1.01242E-001	4.67551E-004	...........
	2	0.775	1.01248E-001	1.01229E-001	4.68018E-004	...........
	3	1.03333	1.01245E-001	1.01222E-001	4.62018E-004	...........
	4	1.29167	1.01240E-001	1.01217E-001	4.61784E-004	...........
	5	1.55	1.01232E-001	1.01205E-001	4.62384E-004	...........
	6	1.80833	1.01224E-001	1.01206E-001	4.63784E-004	...........
	7	2.06667	1.01217E-001	1.01209E-001	4.60984E-004	...........
	8	2.325	1.01212E-001	1.01221E-001	4.60351E-004	...........
	9	2.58333	1.01210E-001	1.01213E-001	4.56851E-004	...........
	10	2.84167	1.01211E-001	1.01195E-001	4.61751E-004	...........
	11	3.1	1.01211E-001	1.01188E-001	4.68717E-004	...........
	12	3.35833	1.01207E-001	1.01171E-001	4.64918E-004	...........
	13	3.61667	1.01199E-001	1.01184E-001	4.64118E-004	...........
	14	3.875	1.01189E-001	1.01162E-001	4.65184E-004	...........
	15	4.13333	1.01181E-001	1.01162E-001	4.69451E-004	...........
	16	4.39167	1.01175E-001	1.01185E-001	4.66251E-004	...........
	17	4.65	1.01171E-001	1.01163E-001	4.63184E-004	...........
	18	4.90833	1.01169E-001	1.01136E-001	4.63084E-004	...........
	19	5.16667	1.01166E-001	1.01136E-001	4.65051E-004	...........
	20	5.425	1.01158E-001	1.01137E-001	4.63518E-004	...........
	21	5.68333	1.01149E-001	1.01128E-001	4.63451E-004	...........
	22	5.94167	1.01140E-001	1.01123E-001	4.62484E-004	...........
	23	6.2	1.01134E-001	1.01121E-001	4.75817E-004	...........
	24	6.45833	1.01129E-001	1.01113E-001	4.63851E-004	...........
	25	6.71667	1.01124E-001	1.01106E-001	4.68351E-004	...........
	26	6.975	1.01119E-001	1.01105E-001	4.61818E-004	...........
	27	7.23333	1.01114E-001	1.01101E-001	4.61051E-004	...........
	28	7.49167	1.01109E-001	1.01097E-001	4.61484E-004	...........
	29	7.75	1.01105E-001	1.01090E-001	4.70651E-004	...........
	30	8.00833	1.01101E-001	1.01086E-001	4.65617E-004	...........
	31	8.26667	1.01096E-001	1.01081E-001	4.66917E-004	...........
	32	8.525	1.01092E-001	1.01081E-001	4.68884E-004	...........
	33	8.78333	1.01087E-001	1.01070E-001	4.64584E-004	...........
	34	9.04167	1.01083E-001	1.01066E-001	4.62751E-004	...........
	35	9.3	1.01078E-001	1.01062E-001	4.65284E-004	...........
	36	9.5583	1.01072E-001	1.01058E-001	4.64551E-004	...........
	37	9.8167	1.01067E-001	1.01052E-001	4.66418E-004	...........
	38	10.075	1.01063E-001	1.01049E-001	4.63518E-004	...........
EOC	QUANT	0.1010625	Open Circuit (V)
PSTATMODEL	IQUANT	4	Pstat Model
PSTATSECTION	LABEL	REF600-11020	Pstat Section
PSTATSERIALNO	LABEL	11020	Pstat Serial Number
CTRLMODE	IQUANT	1	Control Mode
IESTAB	IQUANT	0	I/E Stability
CASPEED	IQUANT	1	Control Amp Speed
CONVENTION	IQUANT	1	Current Convention
ICHRANGE	IQUANT	2	Ich Range
ICHRANGEMODE	TOGGLE	F	Ich Auto Range
ICHOFFSETENABLE	TOGGLE	T	Ich Offset Enable
ICHOFFSET	QUANT	0	Ich Offset (V)
ICHFILTER	IQUANT	3	Ich Filter
VCHRANGE	IQUANT	2	Vch Range
VCHRANGEMODE	TOGGLE	F	Vch Auto Range
VCHOFFSETENABLE	TOGGLE	T	Vch Offset Enable
VCHOFFSET	QUANT	0	Vch Offset (V)
VCHFILTER	IQUANT	3	Vch Filter
ACHRANGE	IQUANT	2	Ach Range
ACHOFFSETENABLE	TOGGLE	F	Ach Offset Enable
ACHOFFSET	QUANT	0	Ach Offset (V)
ACHFILTER	IQUANT	3	Ach Filter
IERANGELOWERLIMIT	IQUANT	1	I/E Range Lower Limit
IERANGEMODE	TOGGLE	F	I/E AutoRange
IERANGE	IQUANT	8	I/E Range
POSFEEDENABLE	TOGGLE	F	Positive Feedback IR Comp
POSFEEDRESISTANCE	QUANT	0	Positive Feedback Resistance (ohm)
ACHSELECT	IQUANT	0	Ach Select
CABLEID	IQUANT	14	Cable ID
DCCALDATE	LABEL	6/26/2020	DC Calibration Date
ACCALDATE	LABEL	6/26/2020	AC Calibration Date
THERMOSELECT	IQUANT	1	Thermo Select
FRAMEWORKVERSION	QUANT	6.33	Framework Version
INSTRUMENTVERSION	LABEL	3.50	Instrument Version
ZCURVE	TABLE
	Pt	Time	Freq	Zreal	Zimag	Zsig	Zmod	Zphz	Idc	Vdc	IERange
	#	s	Hz	ohm	ohm	V	ohm	°	A	V	#
	0	1	1000078	1745.84	-1744.357	1	2467.942	-44.97566	2.261221E-006	0.1029063	8
	1	1	794390.6	2122.493	-1802.574	1	2784.645	-40.34031	6.235571E-006	0.1015515	8
	2	1	630984.4	2478.634	-1792.078	1	3058.622	-35.86731	1.129572E-006	0.1032916	8
	3	2	501234.4	2839.871	-1714.49	1	3317.28	-31.12026	9.075567E-006	0.1018141	8
	4	2	398109.4	3149.68	-1626.009	1	3544.629	-27.30486	-8.566239E-006	0.1037129	8
	5	2	316265.6	3411.18	-1502.823	1	3727.55	-23.77628	-2.746193E-006	0.1026364	8
	6	3	251203.1	3630.188	-1364.892	1	3878.298	-20.60545	7.502354E-006	0.10143	8
	7	3	199546.9	3820.704	-1231.466	1	4014.26	-17.86485	-3.312068E-006	0.1026405	8
	8	3	158578.1	3972.773	-1101.635	1	4122.684	-15.4985	7.246729E-006	0.1014684	8
	9	4	125953.1	4106.477	-1001.636	1	4226.87	-13.70771	2.473421E-006	0.1030624	7
	10	4	100078.1	4203.643	-905.5748	1	4300.079	-12.15722	-8.829977E-007	0.1047855	7
	11	4	79453.13	4298.466	-842.5648	1	4380.265	-11.09024	1.08465E-006	0.1003481	7
	12	5	63140.62	4368.62	-794.2955	1	4440.242	-10.30486	-4.58757E-007	0.1044945	7
	13	5	50203.12	4440.771	-767.7935	1	4506.656	-9.80926	-1.62653E-006	0.1045039	7
	14	5	39890.62	4512.773	-758.8814	1	4576.136	-9.54572	-1.232473E-006	0.1048592	7
	15	6	31640.63	4591.16	-769.2455	1	4655.157	-9.51152	2.42251E-007	0.1007794	7
	16	6	25171.88	4664.177	-795.3513	1	4731.504	-9.67719	7.614335E-009	0.1040078	7
	17	6	20015.62	4735.11	-835.7143	1	4808.293	-10.00923	-1.233069E-006	0.1048575	7
	18	6	15890.62	4818.131	-896.0231	1	4900.739	-10.53489	-1.308803E-006	0.1031774	7
	19	7	12609.37	4913.176	-976.875	1	5009.35	-11.24533	7.191582E-007	0.1004289	7
	20	7	10078.13	5007.784	-1072.995	1	5121.447	-12.09364	1.330563E-006	0.1004779	7
	21	7	8015.625	5098.484	-1192.622	1	5236.114	-13.16574	-4.589727E-007	0.1044883	7
	22	8	6328.125	5210.768	-1344.08	1	5381.325	-14.46375	-1.624488E-006	0.1044969	7
	23	8	5015.625	5342.267	-1526.154	1	5555.984	-15.94334	-3.060987E-007	0.101419	7
	24	8	3984.375	5481.646	-1741.326	1	5751.579	-17.62322	-1.305771E-006	0.1031717	7
	25	9	3170.956	5645.562	-2005.021	1	5991.033	-19.55249	7.18233E-007	0.1004213	7
	26	9	2527.573	5813.475	-2303.935	1	6253.368	-21.61889	1.022719E-006	0.1025112	7
	27	9	1976.103	6028.484	-2701.504	1	6606.114	-24.13826	1.448733E-006	0.1007947	7
	28	10	1577.524	6241.517	-3134.015	1	6984.167	-26.66232	1.087041E-006	0.1003294	7
	29	10	1265.625	6480.375	-3638.316	1	7431.865	-29.31142	1.331453E-006	0.1004646	7
	30	11	998.264	6756.333	-4292.88	1	8004.802	-32.43131	1.338566E-008	0.1039923	7
	31	11	796.875	7062.73	-5024.564	1	8667.664	-35.42879	-1.624284E-006	0.104484	7
	32	11	627.7902	7461.766	-6002.678	1	9576.54	-38.81522	1.448909E-006	0.1007838	7
	33	12	505.5147	7865.45	-7044.602	1	10558.96	-41.84886	1.019444E-006	0.1024996	7
	34	12	397.9953	8391.354	-8443.417	1	11904.04	-45.17719	4.853073E-009	0.1026686	7
	35	12	315.5048	9023.809	-10087.11	1	13534.36	-48.18456	1.029207E-009	0.1026633	6
	36	13	252.4038	9762.37	-11974.21	1	15449.45	-50.81024	3.799908E-010	0.1026604	6
	37	13	198.6229	10735.75	-14393.96	1	17956.68	-53.28255	5.618604E-010	0.102663	6
	38	13	158.3615	11864.11	-17107.68	1	20818.98	-55.25885	3.079556E-010	0.1026648	6
	39	14	125.558	13261.76	-20393.21	1	24326.06	-56.96394	2.143296E-010	0.1026692	6
	40	14	100.4464	14869.65	-24121.72	1	28336.62	-58.34857	4.07554E-010	0.1026505	6
	41	14	79.00281	16919.76	-28866.14	1	33459.42	-59.62349	2.436909E-010	0.1026499	6
	42	15	63.3446	19183.92	-33868.75	1	38924.48	-60.47194	-3.367024E-010	0.1026616	6
	43	15	49.86702	22130.56	-40593.57	1	46234.19	-61.40193	1.0473E-009	0.102647	6
	44	15	39.72458	25416.39	-48268.96	1	54551.68	-62.23061	6.56222E-010	0.102648	6
	45	16	31.6723	29516.7	-57364.64	1	64513.09	-62.77213	7.705213E-010	0.1026567	6
	46	16	24.93351	35031.25	-68646.83	1	77068.64	-62.96427	1.098756E-010	0.1026499	6
	47	16	19.86229	41658.49	-81379.52	1	91422.41	-62.89192	-1.778865E-009	0.1026594	6
	48	16	15.83615	49967.14	-96266.1	1	108461.4	-62.56833	8.886892E-010	0.102651	5
	49	17	12.40079	61773.06	-114171.6	1	129811.7	-61.5842	1.772991E-009	0.1026427	5
	50	17	9.93114	75064.06	-131546.6	1	151456.7	-60.28975	2.275457E-009	0.1026574	5
	51	17	7.944915	90966.41	-150878.9	1	176179.8	-58.9138	-2.735133E-010	0.1026451	5
	52	18	6.317385	110493.4	-173216	1	205457	-57.46644	-9.194897E-012	0.1026499	5
	53	19	5.008013	132684.6	-196239.3	1	236886.2	-55.93594	5.727352E-010	0.1026473	5
	54	20	3.945707	158228.2	-221470.5	1	272186.2	-54.45632	3.756661E-010	0.1026295	5
	55	20	3.158693	182380.4	-246847	1	306913.7	-53.54153	2.626818E-010	0.10265	5
	56	22	2.504006	209045.2	-276592.1	1	346703.2	-52.91843	-1.095409E-010	0.1026493	5
	57	23	1.998082	234030.1	-310443.5	1	388774.1	-52.98891	1.548321E-011	0.1026359	5
	58	25	1.584686	261550.4	-352112.3	1	438624.8	-53.3949	1.728023E-010	0.1026814	5
	59	27	1.266892	288324.4	-403243.4	1	495717.9	-54.43473	1.486509E-010	0.102672	5
	60	29	0.999041	317839.2	-469759.6	1	567182.4	-55.91773	1.210629E-010	0.10266	5
