EXPLAIN
TAG	EISPOT
TITLE	LABEL	Potentiostatic EIS	Test &Identifier
DATE	LABEL	3/12/2020	Date
TIME	LABEL	12:40:01	Time
NOTES	NOTES	1	&Notes...
	
PSTAT	PSTAT	REF600-11020	Potentiostat
VDC	POTEN	0.00000E+000	T	DC &Voltage (V)
FREQINIT	QUANT	1.00000E+006	Initial Fre&q. (Hz)
FREQFINAL	QUANT	1.00000E+000	Final Fre&q. (Hz)
PTSPERDEC	QUANT	1.00000E+001	Points/&decade
VAC	QUANT	2.50000E+001	AC &Voltage (mV rms)
AREA	QUANT	2.50000E-001	&Area (cm^2)
CONDIT	TWOPARAM	F	5.00000E+000	0.00000E+000	Conditionin&g	Time(s)	E(V)
DELAY	TWOPARAM	T	5.00000E+000	0.00000E+000	Init. De&lay	Time(s)	Stab.(mV/s)
SPEED	SELECTOR	1	&Optimize for:
ZGUESS	QUANT	5.00000E+003	E&stimated Z (ohms)
OCVCURVE	TABLE	19
	Pt	T	Vf	Vm	Ach	Over
	#	s	V vs. Ref.	V	V	bits
	0	0.258333	1.32608E-001	1.32608E-001	5.62497E-004	...........
	1	0.516667	1.32610E-001	1.32695E-001	5.64630E-004	...........
	2	0.775	1.32618E-001	1.32693E-001	5.62830E-004	...........
	3	1.03333	1.32636E-001	1.32613E-001	5.66063E-004	...........
	4	1.29167	1.32651E-001	1.32604E-001	5.65997E-004	...........
	5	1.55	1.32653E-001	1.32659E-001	5.64030E-004	...........
	6	1.80833	1.32644E-001	1.32667E-001	5.67030E-004	...........
	7	2.06667	1.32641E-001	1.32673E-001	5.63363E-004	...........
	8	2.325	1.32647E-001	1.32677E-001	5.67363E-004	...........
	9	2.58333	1.32658E-001	1.32682E-001	5.67830E-004	...........
	10	2.84167	1.32669E-001	1.32691E-001	5.70097E-004	...........
	11	3.1	1.32678E-001	1.32792E-001	5.65930E-004	...........
	12	3.35833	1.32695E-001	1.32829E-001	5.62730E-004	...........
	13	3.61667	1.32724E-001	1.32753E-001	5.66363E-004	...........
	14	3.875	1.32755E-001	1.32729E-001	5.68663E-004	...........
	15	4.13333	1.32770E-001	1.32742E-001	5.70497E-004	...........
	16	4.39167	1.32766E-001	1.32769E-001	5.64963E-004	...........
	17	4.65	1.32757E-001	1.32776E-001	5.65730E-004	...........
	18	4.90833	1.32754E-001	1.32736E-001	5.65830E-004	...........
EOC	QUANT	0.1327544	Open Circuit (V)
PSTATMODEL	IQUANT	4	Pstat Model
PSTATSECTION	LABEL	REF600-11020	Pstat Section
PSTATSERIALNO	LABEL	11020	Pstat Serial Number
CTRLMODE	IQUANT	1	Control Mode
IESTAB	IQUANT	0	I/E Stability
CASPEED	IQUANT	1	Control Amp Speed
CONVENTION	IQUANT	1	Current Convention
ICHRANGE	IQUANT	2	Ich Range
ICHRANGEMODE	TOGGLE	F	Ich Auto Range
ICHOFFSETENABLE	TOGGLE	T	Ich Offset Enable
ICHOFFSET	QUANT	0	Ich Offset (V)
ICHFILTER	IQUANT	3	Ich Filter
VCHRANGE	IQUANT	2	Vch Range
VCHRANGEMODE	TOGGLE	F	Vch Auto Range
VCHOFFSETENABLE	TOGGLE	T	Vch Offset Enable
VCHOFFSET	QUANT	0	Vch Offset (V)
VCHFILTER	IQUANT	3	Vch Filter
ACHRANGE	IQUANT	2	Ach Range
ACHOFFSETENABLE	TOGGLE	F	Ach Offset Enable
ACHOFFSET	QUANT	0	Ach Offset (V)
ACHFILTER	IQUANT	3	Ach Filter
IERANGELOWERLIMIT	IQUANT	1	I/E Range Lower Limit
IERANGEMODE	TOGGLE	F	I/E AutoRange
IERANGE	IQUANT	7	I/E Range
POSFEEDENABLE	TOGGLE	F	Positive Feedback IR Comp
POSFEEDRESISTANCE	QUANT	0	Positive Feedback Resistance (ohm)
ACHSELECT	IQUANT	0	Ach Select
CABLEID	IQUANT	14	Cable ID
DCCALDATE	LABEL	2/27/2020	DC Calibration Date
ACCALDATE	LABEL	2/27/2020	AC Calibration Date
THERMOSELECT	IQUANT	1	Thermo Select
FRAMEWORKVERSION	QUANT	6.33	Framework Version
INSTRUMENTVERSION	LABEL	3.50	Instrument Version
ZCURVE	TABLE
	Pt	Time	Freq	Zreal	Zimag	Zsig	Zmod	Zphz	Idc	Vdc	IERange
	#	s	Hz	ohm	ohm	V	ohm	°	A	V	#
	0	1	1000078	1795.207	-1511.473	1	2346.768	-40.09568	-4.587012E-006	0.135552	8
	1	3	794390.6	2118.554	-1535.473	1	2616.476	-35.93362	4.582374E-007	0.1349061	8
	2	4	630984.4	2410.327	-1487.816	1	2832.539	-31.68568	5.981779E-006	0.1330999	8
	3	5	501234.4	2686.831	-1409.416	1	3034.058	-27.6799	-1.003299E-006	0.1343854	8
	4	7	398109.4	2929.387	-1281.827	1	3197.56	-23.63298	-4.582527E-008	0.1343325	8
	5	8	316265.6	3108.633	-1177.981	1	3324.34	-20.75364	2.308892E-006	0.1340772	8
	6	9	251203.1	3274.873	-1052.166	1	3439.745	-17.81141	-3.215742E-006	0.1347955	8
	7	11	199546.9	3392.194	-943.6979	1	3521.014	-15.54641	-1.732127E-006	0.134714	8
	8	12	158578.1	3496.325	-857.361	1	3599.911	-13.77807	-8.682792E-007	0.1345146	8
	9	14	125953.1	3617.483	-730.364	1	3690.477	-11.41448	-1.494457E-007	0.1343206	7
	10	15	100078.1	3670.715	-695.4318	1	3736.01	-10.72777	5.149075E-008	0.1342577	7
	11	16	79453.13	3735.784	-687.3275	1	3798.487	-10.42497	-4.852285E-008	0.1342724	7
	12	18	63140.62	3798.894	-693.4526	1	3861.667	-10.34491	-4.029203E-008	0.1342984	7
	13	19	50203.12	3863.644	-714.8999	1	3929.227	-10.48302	7.887927E-009	0.1341541	7
	14	21	39890.62	3930.228	-752.3909	1	4001.598	-10.83741	1.495768E-008	0.1342075	7
	15	22	31640.63	4004.064	-806.5507	1	4084.489	-11.38886	-5.555818E-008	0.1343003	7
	16	23	25171.88	4081.705	-879.6328	1	4175.412	-12.1616	1.709859E-008	0.1342023	7
	17	25	20015.62	4168.168	-969.185	1	4279.363	-13.08986	2.659151E-009	0.1341884	7
	18	26	15890.62	4263.484	-1082.679	1	4398.806	-14.24863	-7.819718E-008	0.1343454	7
	19	27	12609.37	4372.124	-1220.87	1	4539.382	-15.60183	-3.158458E-008	0.134283	7
	20	29	10078.13	4489.057	-1378.577	1	4695.967	-17.07158	-2.96218E-008	0.1343304	7
	21	30	8015.625	4623.917	-1572.499	1	4883.991	-18.78211	-2.963273E-008	0.1343274	7
	22	31	6328.125	4781.769	-1805.317	1	5111.211	-20.68361	8.983521E-009	0.1341483	7
	23	33	5015.625	4961.785	-2078.114	1	5379.393	-22.7251	-3.005615E-008	0.134284	7
	24	34	3984.375	5160.713	-2395.988	1	5689.791	-24.90424	-4.5702E-008	0.1342649	7
	25	36	3170.956	5389.975	-2768.163	1	6059.254	-27.18395	1.160872E-007	0.1340778	7
	26	37	2527.573	5651.6	-3196.035	1	6492.706	-29.48858	9.602997E-009	0.134137	7
	27	38	1976.103	5981.267	-3746.753	1	7057.883	-32.06363	-2.881957E-008	0.1343215	7
	28	40	1577.524	6329.295	-4335.618	1	7671.868	-34.41146	5.215659E-008	0.1340659	7
	29	41	1265.625	6720.642	-5017.36	1	8386.95	-36.74353	-2.954173E-008	0.1342824	7
	30	42	998.264	7208.462	-5869.799	1	9296.046	-39.15568	-3.072948E-008	0.1342815	7
	31	44	796.875	7768.997	-6802.634	1	10326.33	-41.20581	-1.550841E-009	0.134366	6
	32	45	627.7902	8440.592	-7979.66	1	11615.44	-43.39207	-2.840349E-009	0.1342605	6
	33	47	505.5147	9153.376	-9227.089	1	12997.06	-45.22978	1.049054E-008	0.134181	6
	34	48	397.9953	10074.09	-10832.36	1	14792.81	-47.0772	1.306001E-009	0.1342887	6
	35	49	315.5048	11131.36	-12662.81	1	16859.83	-48.68262	9.904608E-010	0.1342891	6
	36	51	252.4038	12319.79	-14696.66	1	19177.31	-50.02787	5.866304E-010	0.134287	6
	37	52	198.6229	13810.09	-17231.78	1	22082.86	-51.29022	8.405764E-010	0.1342899	6
	38	53	158.3615	15460.39	-20022.96	1	25297.08	-52.32708	1.173077E-009	0.134287	6
	39	55	125.558	17405.75	-23302.56	1	29085.56	-53.24227	7.832358E-010	0.1342887	6
	40	56	100.4464	19614.44	-26976.46	1	33353.5	-53.97931	8.417976E-010	0.1342846	6
	41	58	79.00281	22238.64	-31626.93	1	38662.9	-54.88683	3.78754E-010	0.1342913	6
	42	59	63.3446	24346.68	-36135.9	1	43572.52	-56.02975	7.662477E-010	0.1342814	6
	43	60	49.86702	28437.2	-42448.36	1	51093.42	-56.1809	1.352564E-009	0.1342831	6
	44	62	39.72458	31518.72	-49726.32	1	58873.9	-57.63169	9.165409E-011	0.1342905	6
	45	63	31.6723	35379.03	-58103.03	1	68026.74	-58.6627	-6.369386E-011	0.1342809	6
	46	65	24.93351	39915.23	-69303.95	1	79976.64	-60.06044	5.51086E-010	0.1342822	6
	47	66	19.86229	45066.95	-81843.98	1	93431.62	-61.16085	6.098473E-011	0.134276	6
	48	67	15.83615	50789.89	-97254.4	1	109717.9	-62.42474	5.119485E-010	0.1342821	5
	49	69	12.40079	58920.2	-116416.8	1	130477.8	-63.15538	5.734557E-010	0.1342863	5
	50	70	9.93114	68865.39	-138289.3	1	154487.5	-63.52759	6.662847E-010	0.1342848	5
	51	72	7.944915	80718.27	-164562.7	1	183293	-63.87198	7.417501E-011	0.1342892	5
	52	73	6.317385	95075.8	-195044.6	1	216983.4	-64.01277	2.954319E-010	0.1342751	5
	53	76	5.008013	113872.9	-231660.7	1	258135.1	-63.82357	1.553512E-010	0.1342943	5
	54	78	3.945707	137949.4	-275330.9	1	307956.4	-63.3877	-1.234146E-010	0.1342845	5
	55	81	3.158693	165395.4	-322270.2	1	362234.3	-62.83221	3.168407E-010	0.1342968	5
	56	84	2.504006	200150.8	-378108.6	1	427815.9	-62.10561	-2.642477E-010	0.1342847	5
	57	87	1.998082	240433.3	-439245.6	1	500744.3	-61.30468	-2.964949E-011	0.1342498	5
	58	90	1.584686	289762.8	-509189.1	1	585863.5	-60.35722	4.258225E-011	0.1343266	5
	59	94	1.266892	345427.5	-588152.6	1	682087.8	-59.57389	-5.942433E-011	0.1342651	5
	60	98	0.999041	415066.5	-680598.9	1	797179.4	-58.62288	3.673757E-010	0.1343196	5
