EXPLAIN
TAG	EISPOT
TITLE	LABEL	Potentiostatic EIS	Test &Identifier
DATE	LABEL	9/11/2020	Date
TIME	LABEL	20:23:56	Time
NOTES	NOTES	1	&Notes...
	
PSTAT	PSTAT	REF600-11020	Potentiostat
VDC	POTEN	0.00000E+000	T	DC &Voltage (V)
FREQINIT	QUANT	1.00000E+006	Initial Fre&q. (Hz)
FREQFINAL	QUANT	1.00000E+000	Final Fre&q. (Hz)
PTSPERDEC	QUANT	1.00000E+001	Points/&decade
VAC	QUANT	2.50000E+001	AC &Voltage (mV rms)
AREA	QUANT	4.00000E-005	&Area (cm^2)
CONDIT	TWOPARAM	F	5.00000E+000	0.00000E+000	Conditionin&g	Time(s)	E(V)
DELAY	TWOPARAM	F	3.00000E+000	0.00000E+000	Init. De&lay	Time(s)	Stab.(mV/s)
SPEED	SELECTOR	0	&Optimize for:
ZGUESS	QUANT	1.00000E+003	E&stimated Z (ohms)
OCVCURVE	TABLE	39
	Pt	T	Vf	Vm	Ach	Over
	#	s	V vs. Ref.	V	V	bits
	0	0.258333	-1.66375E-001	-1.66375E-001	5.55125E-004	...........
	1	0.516667	-1.66374E-001	-1.66329E-001	5.58792E-004	...........
	2	0.775	-1.66368E-001	-1.66281E-001	5.59492E-004	...........
	3	1.03333	-1.66353E-001	-1.66241E-001	5.58759E-004	...........
	4	1.29167	-1.66325E-001	-1.66208E-001	5.55625E-004	...........
	5	1.55	-1.66289E-001	-1.66171E-001	5.54559E-004	...........
	6	1.80833	-1.66249E-001	-1.66133E-001	5.58825E-004	...........
	7	2.06667	-1.66211E-001	-1.66105E-001	5.57425E-004	...........
	8	2.325	-1.66174E-001	-1.66077E-001	5.61492E-004	...........
	9	2.58333	-1.66140E-001	-1.66046E-001	5.58559E-004	...........
	10	2.84167	-1.66108E-001	-1.66025E-001	5.59325E-004	...........
	11	3.1	-1.66079E-001	-1.66002E-001	5.57025E-004	...........
	12	3.35833	-1.66052E-001	-1.65987E-001	5.59159E-004	...........
	13	3.61667	-1.66028E-001	-1.65969E-001	5.56725E-004	...........
	14	3.875	-1.66007E-001	-1.65954E-001	5.57992E-004	...........
	15	4.13333	-1.65988E-001	-1.65940E-001	5.56925E-004	...........
	16	4.39167	-1.65971E-001	-1.65925E-001	5.59159E-004	...........
	17	4.65	-1.65955E-001	-1.65908E-001	5.57325E-004	...........
	18	4.90833	-1.65940E-001	-1.65889E-001	5.61859E-004	...........
	19	5.16667	-1.65924E-001	-1.65871E-001	5.57759E-004	...........
	20	5.425	-1.65908E-001	-1.65855E-001	5.59392E-004	...........
	21	5.68333	-1.65891E-001	-1.65841E-001	5.52459E-004	...........
	22	5.94167	-1.65874E-001	-1.65827E-001	5.54259E-004	...........
	23	6.2	-1.65858E-001	-1.65814E-001	5.61925E-004	...........
	24	6.45833	-1.65843E-001	-1.65797E-001	5.56525E-004	...........
	25	6.71667	-1.65828E-001	-1.65778E-001	5.52325E-004	...........
	26	6.975	-1.65813E-001	-1.65766E-001	5.56525E-004	...........
	27	7.23333	-1.65798E-001	-1.65752E-001	5.56025E-004	...........
	28	7.49167	-1.65782E-001	-1.65732E-001	5.55892E-004	...........
	29	7.75	-1.65766E-001	-1.65713E-001	5.59359E-004	...........
	30	8.00833	-1.65750E-001	-1.65690E-001	5.57192E-004	...........
	31	8.26667	-1.65732E-001	-1.65664E-001	5.58425E-004	...........
	32	8.525	-1.65712E-001	-1.65636E-001	5.60059E-004	...........
	33	8.78333	-1.65690E-001	-1.65621E-001	5.60825E-004	...........
	34	9.04167	-1.65666E-001	-1.65604E-001	5.58059E-004	...........
	35	9.3	-1.65644E-001	-1.65586E-001	5.60959E-004	...........
	36	9.5583	-1.65624E-001	-1.65575E-001	5.54259E-004	...........
	37	9.8167	-1.65606E-001	-1.65559E-001	5.54125E-004	...........
	38	10.075	-1.65590E-001	-1.65541E-001	5.58992E-004	...........
EOC	QUANT	-0.1655896	Open Circuit (V)
PSTATMODEL	IQUANT	4	Pstat Model
PSTATSECTION	LABEL	REF600-11020	Pstat Section
PSTATSERIALNO	LABEL	11020	Pstat Serial Number
CTRLMODE	IQUANT	1	Control Mode
IESTAB	IQUANT	0	I/E Stability
CASPEED	IQUANT	1	Control Amp Speed
CONVENTION	IQUANT	1	Current Convention
ICHRANGE	IQUANT	2	Ich Range
ICHRANGEMODE	TOGGLE	F	Ich Auto Range
ICHOFFSETENABLE	TOGGLE	T	Ich Offset Enable
ICHOFFSET	QUANT	0	Ich Offset (V)
ICHFILTER	IQUANT	3	Ich Filter
VCHRANGE	IQUANT	2	Vch Range
VCHRANGEMODE	TOGGLE	F	Vch Auto Range
VCHOFFSETENABLE	TOGGLE	T	Vch Offset Enable
VCHOFFSET	QUANT	0	Vch Offset (V)
VCHFILTER	IQUANT	3	Vch Filter
ACHRANGE	IQUANT	2	Ach Range
ACHOFFSETENABLE	TOGGLE	F	Ach Offset Enable
ACHOFFSET	QUANT	0	Ach Offset (V)
ACHFILTER	IQUANT	3	Ach Filter
IERANGELOWERLIMIT	IQUANT	1	I/E Range Lower Limit
IERANGEMODE	TOGGLE	F	I/E AutoRange
IERANGE	IQUANT	8	I/E Range
POSFEEDENABLE	TOGGLE	F	Positive Feedback IR Comp
POSFEEDRESISTANCE	QUANT	0	Positive Feedback Resistance (ohm)
ACHSELECT	IQUANT	0	Ach Select
CABLEID	IQUANT	14	Cable ID
DCCALDATE	LABEL	9/1/2020	DC Calibration Date
ACCALDATE	LABEL	9/1/2020	AC Calibration Date
THERMOSELECT	IQUANT	1	Thermo Select
FRAMEWORKVERSION	QUANT	6.33	Framework Version
INSTRUMENTVERSION	LABEL	3.50	Instrument Version
ZCURVE	TABLE
	Pt	Time	Freq	Zreal	Zimag	Zsig	Zmod	Zphz	Idc	Vdc	IERange
	#	s	Hz	ohm	ohm	V	ohm	°	A	V	#
	0	1	1000078	1806.661	-2571.102	1	3142.386	-54.90507	-7.878715E-009	-0.1633062	8
	1	2	794390.6	2229.438	-2878.631	1	3641.004	-52.24298	1.102131E-007	-0.1636383	8
	2	2	630984.4	2707.088	-3156.411	1	4158.275	-49.38204	5.645101E-008	-0.163795	8
	3	2	501234.4	3226.888	-3405.324	1	4691.379	-46.54114	5.804682E-008	-0.163899	8
	4	2	398109.4	3777.763	-3623.083	1	5234.331	-43.80267	7.632636E-008	-0.1639567	8
	5	3	316265.6	4333.577	-3816.025	1	5774.248	-41.36623	7.28634E-008	-0.163981	8
	6	3	251203.1	4881.623	-3998.118	1	6309.927	-39.31796	7.170584E-008	-0.163998	8
	7	3	199546.9	5422.493	-4187.495	1	6851.171	-37.67695	7.385903E-008	-0.1639995	8
	8	4	158578.1	5935.292	-4405.655	1	7391.718	-36.5858	7.710709E-008	-0.1640047	8
	9	4	125953.1	6493.272	-4663.296	1	7994.305	-35.68491	2.440538E-009	-0.1639949	7
	10	4	100078.1	6999.366	-5036.857	1	8623.286	-35.7394	6.492172E-009	-0.164013	7
	11	5	79453.13	7523.711	-5520.596	1	9331.839	-36.26972	2.43146E-009	-0.1640209	7
	12	5	63140.62	8096.213	-6146.953	1	10165.32	-37.20715	6.42872E-009	-0.1640228	7
	13	5	50203.12	8750.654	-6911.872	1	11151.14	-38.30412	1.746048E-009	-0.1640282	7
	14	6	39890.62	9524.46	-7862.869	1	12350.71	-39.54121	6.000994E-009	-0.1640303	7
	15	6	31640.63	10499.42	-8989.981	1	13822.36	-40.57134	4.55847E-009	-0.1640325	7
	16	6	25171.88	11711.16	-10250.47	1	15563.53	-41.19482	2.053591E-009	-0.164036	7
	17	7	20015.62	13244.14	-11664.73	1	17648.61	-41.37188	2.951211E-009	-0.1640347	7
	18	7	15890.62	15202.63	-13092.35	1	20063.14	-40.73469	4.535172E-009	-0.164044	7
	19	7	12609.37	17771.48	-14337.1	1	22833.7	-38.89478	6.919624E-010	-0.1640357	6
	20	8	10078.13	20467.06	-15394.43	1	25610.33	-36.94889	5.428807E-010	-0.1640395	6
	21	8	8015.625	23509.77	-16068.1	1	28476.18	-34.35124	1.465499E-009	-0.1640499	6
	22	8	6328.125	26773.99	-16292.03	1	31341.29	-31.32061	8.794858E-010	-0.1640391	6
	23	8	5015.625	29876.74	-15982.81	1	33883.18	-28.14493	8.215068E-010	-0.1640428	6
	24	9	3984.375	32661.27	-15314.04	1	36073.23	-25.12069	1.130612E-009	-0.1640469	6
	25	9	3170.956	35021.27	-14421.26	1	37874.29	-22.38116	4.375542E-010	-0.1640468	6
	26	9	2527.573	36975.43	-13497.56	1	39361.99	-20.05417	6.547684E-010	-0.1640474	6
	27	10	1976.103	38775.99	-12683.86	1	40797.77	-18.11323	8.74015E-010	-0.1640545	6
	28	10	1577.524	40104.78	-12111.06	1	41893.57	-16.80355	1.076075E-009	-0.1640543	6
	29	10	1265.625	41206.67	-11806.8	1	42864.79	-15.98841	7.368086E-010	-0.1640581	6
	30	11	998.264	42216.95	-11822.9	1	43841.21	-15.64495	1.010334E-009	-0.1640606	6
	31	11	796.875	43095.09	-12168.15	1	44780.02	-15.76734	6.532047E-010	-0.1640564	6
	32	11	627.7902	44003.73	-12944.2	1	45868.07	-16.39185	3.517416E-010	-0.1640545	6
	33	12	505.5147	44859.75	-14018.86	1	46999.21	-17.35425	6.261704E-010	-0.1640584	6
	34	12	397.9953	45858.9	-15721.72	1	48478.98	-18.92316	6.491643E-010	-0.1640436	6
	35	12	315.5048	46987.92	-17891.79	1	50279.03	-20.84555	5.762206E-010	-0.164045	6
	36	13	252.4038	48233.56	-20535.84	1	52423.25	-23.06229	5.826994E-010	-0.1640468	6
	37	13	198.6229	49813.83	-24080.58	1	55328.94	-25.79966	4.233043E-010	-0.1640464	6
	38	13	158.3615	51621.56	-28205.01	1	58824.38	-28.65133	4.282668E-010	-0.1640467	6
	39	14	125.558	53883.97	-33324.06	1	63355.94	-31.73435	3.567561E-010	-0.1640422	6
	40	14	100.4464	56555.88	-39221.05	1	68824.84	-34.741	4.56286E-010	-0.1640482	6
	41	14	79.00281	60145.15	-46785.81	1	76199.42	-37.87869	4.177014E-010	-0.1640511	6
	42	15	63.3446	64273.55	-55012.97	1	84602.11	-40.56085	4.596973E-010	-0.1640482	6
	43	15	49.86702	69941.61	-65424.7	1	95771.7	-43.08886	1.968279E-010	-0.1640515	6
	44	15	39.72458	76631.09	-76815.8	1	108503.4	-45.06897	-2.146145E-010	-0.1640556	5
	45	16	31.6723	84869.41	-89913.53	1	123641.7	-46.65306	-9.904581E-011	-0.1640604	5
	46	16	24.93351	95658.4	-105620.2	1	142499.7	-47.8334	-8.369538E-010	-0.1640545	5
	47	16	19.86229	108098.1	-122541.1	1	163405.9	-48.58328	-1.661656E-009	-0.1640587	5
	48	16	15.83615	123185.1	-141179.1	1	187366.2	-48.89383	6.980417E-010	-0.1640571	5
	49	17	12.40079	142832.3	-163121.2	1	216816.9	-48.79394	-1.141243E-010	-0.1640587	5
	50	17	9.93114	164317.8	-184777.7	1	247271.4	-48.35416	4.851045E-010	-0.1640636	5
	51	17	7.944915	189146.8	-207960.1	1	281111.9	-47.71241	5.285976E-010	-0.1640614	5
	52	18	6.317385	218991.6	-232480	1	319381.1	-46.71128	-3.369308E-011	-0.1640534	5
	53	19	5.008013	252906.3	-257738	1	361096.2	-45.54211	4.392041E-010	-0.1640464	5
	54	20	3.945707	292036.1	-284223.4	1	407514.4	-44.22326	3.993228E-010	-0.1640568	5
	55	20	3.158693	330102.7	-308790.2	1	452016.8	-43.08941	3.047846E-010	-0.1640396	5
	56	21	2.504006	372974.1	-335005.2	1	501336.4	-41.93018	-1.497494E-010	-0.1640516	5
	57	23	1.998082	413544.3	-362827.5	1	550147.9	-41.26244	-3.892518E-011	-0.1640568	5
	58	24	1.584686	457742.7	-393893.5	1	603887.8	-40.71242	2.493355E-010	-0.1640219	5
	59	26	1.266892	500774.2	-431122.3	1	660788.3	-40.72554	2.796661E-010	-0.164031	5
	60	29	0.999041	546348.5	-478176.7	1	726050.7	-41.19316	2.75869E-010	-0.164052	5
