EXPLAIN
TAG	EISPOT
TITLE	LABEL	Potentiostatic EIS	Test &Identifier
DATE	LABEL	2/28/2020	Date
TIME	LABEL	15:44:15	Time
NOTES	NOTES	1	&Notes...
	
PSTAT	PSTAT	REF600-11020	Potentiostat
VDC	POTEN	0.00000E+000	T	DC &Voltage (V)
FREQINIT	QUANT	1.00000E+006	Initial Fre&q. (Hz)
FREQFINAL	QUANT	1.00000E+000	Final Fre&q. (Hz)
PTSPERDEC	QUANT	1.00000E+001	Points/&decade
VAC	QUANT	2.50000E+001	AC &Voltage (mV rms)
AREA	QUANT	1.60000E-004	&Area (cm^2)
CONDIT	TWOPARAM	F	1.50000E+001	0.00000E+000	Conditionin&g	Time(s)	E(V)
DELAY	TWOPARAM	F	1.00000E+002	0.00000E+000	Init. De&lay	Time(s)	Stab.(mV/s)
SPEED	SELECTOR	1	&Optimize for:
ZGUESS	QUANT	1.00000E+003	E&stimated Z (ohms)
OCVCURVE	TABLE	39
	Pt	T	Vf	Vm	Ach	Over
	#	s	V vs. Ref.	V	V	bits
	0	0.258333	-7.59330E-002	-7.59330E-002	5.78997E-004	...........
	1	0.516667	-7.59327E-002	-7.59190E-002	5.78297E-004	...........
	2	0.775	-7.59309E-002	-7.58962E-002	5.80663E-004	...........
	3	1.03333	-7.59251E-002	-7.58723E-002	5.84663E-004	...........
	4	1.29167	-7.59136E-002	-7.58622E-002	5.76830E-004	...........
	5	1.55	-7.58976E-002	-7.58493E-002	5.76330E-004	...........
	6	1.80833	-7.58801E-002	-7.58167E-002	5.81030E-004	...........
	7	2.06667	-7.58618E-002	-7.57821E-002	5.83397E-004	...........
	8	2.325	-7.58406E-002	-7.57420E-002	5.82263E-004	...........
	9	2.58333	-7.58145E-002	-7.57323E-002	5.83863E-004	...........
	10	2.84167	-7.57852E-002	-7.57019E-002	5.82897E-004	...........
	11	3.1	-7.57563E-002	-7.56744E-002	5.79363E-004	...........
	12	3.35833	-7.57295E-002	-7.56631E-002	5.80030E-004	...........
	13	3.61667	-7.57047E-002	-7.56326E-002	5.78663E-004	...........
	14	3.875	-7.56812E-002	-7.56013E-002	5.82630E-004	...........
	15	4.13333	-7.56572E-002	-7.55542E-002	5.88330E-004	...........
	16	4.39167	-7.56299E-002	-7.55313E-002	5.80063E-004	...........
	17	4.65	-7.55989E-002	-7.55108E-002	5.84930E-004	...........
	18	4.90833	-7.55671E-002	-7.54857E-002	5.77863E-004	...........
	19	5.16667	-7.55377E-002	-7.54528E-002	5.72530E-004	...........
	20	5.425	-7.55105E-002	-7.54257E-002	5.83863E-004	...........
	21	5.68333	-7.54836E-002	-7.53925E-002	5.84263E-004	...........
	22	5.94167	-7.54555E-002	-7.53616E-002	5.82563E-004	...........
	23	6.2	-7.54259E-002	-7.53276E-002	5.79863E-004	...........
	24	6.45833	-7.53951E-002	-7.52972E-002	5.79530E-004	...........
	25	6.71667	-7.53633E-002	-7.52624E-002	5.80730E-004	...........
	26	6.975	-7.53310E-002	-7.52272E-002	5.80197E-004	...........
	27	7.23333	-7.52981E-002	-7.51930E-002	5.80530E-004	...........
	28	7.49167	-7.52644E-002	-7.51571E-002	5.78763E-004	...........
	29	7.75	-7.52301E-002	-7.51254E-002	5.79097E-004	...........
	30	8.00833	-7.51956E-002	-7.50910E-002	5.75097E-004	...........
	31	8.26667	-7.51612E-002	-7.50526E-002	5.75663E-004	...........
	32	8.525	-7.51269E-002	-7.50245E-002	5.73830E-004	...........
	33	8.78333	-7.50927E-002	-7.49889E-002	5.80897E-004	...........
	34	9.04167	-7.50587E-002	-7.49566E-002	5.79730E-004	...........
	35	9.3	-7.50252E-002	-7.49186E-002	5.81163E-004	...........
	36	9.5583	-7.49914E-002	-7.48821E-002	5.77030E-004	...........
	37	9.8167	-7.49569E-002	-7.48453E-002	5.79930E-004	...........
	38	10.075	-7.49214E-002	-7.48113E-002	5.82263E-004	...........
EOC	QUANT	-0.0749214	Open Circuit (V)
PSTATMODEL	IQUANT	4	Pstat Model
PSTATSECTION	LABEL	REF600-11020	Pstat Section
PSTATSERIALNO	LABEL	11020	Pstat Serial Number
CTRLMODE	IQUANT	1	Control Mode
IESTAB	IQUANT	0	I/E Stability
CASPEED	IQUANT	1	Control Amp Speed
CONVENTION	IQUANT	1	Current Convention
ICHRANGE	IQUANT	2	Ich Range
ICHRANGEMODE	TOGGLE	F	Ich Auto Range
ICHOFFSETENABLE	TOGGLE	T	Ich Offset Enable
ICHOFFSET	QUANT	0	Ich Offset (V)
ICHFILTER	IQUANT	3	Ich Filter
VCHRANGE	IQUANT	2	Vch Range
VCHRANGEMODE	TOGGLE	F	Vch Auto Range
VCHOFFSETENABLE	TOGGLE	T	Vch Offset Enable
VCHOFFSET	QUANT	0	Vch Offset (V)
VCHFILTER	IQUANT	3	Vch Filter
ACHRANGE	IQUANT	2	Ach Range
ACHOFFSETENABLE	TOGGLE	F	Ach Offset Enable
ACHOFFSET	QUANT	0	Ach Offset (V)
ACHFILTER	IQUANT	3	Ach Filter
IERANGELOWERLIMIT	IQUANT	1	I/E Range Lower Limit
IERANGEMODE	TOGGLE	F	I/E AutoRange
IERANGE	IQUANT	8	I/E Range
POSFEEDENABLE	TOGGLE	F	Positive Feedback IR Comp
POSFEEDRESISTANCE	QUANT	0	Positive Feedback Resistance (ohm)
ACHSELECT	IQUANT	0	Ach Select
CABLEID	IQUANT	14	Cable ID
DCCALDATE	LABEL	2/27/2020	DC Calibration Date
ACCALDATE	LABEL	2/27/2020	AC Calibration Date
THERMOSELECT	IQUANT	1	Thermo Select
FRAMEWORKVERSION	QUANT	6.33	Framework Version
INSTRUMENTVERSION	LABEL	3.50	Instrument Version
ZCURVE	TABLE
	Pt	Time	Freq	Zreal	Zimag	Zsig	Zmod	Zphz	Idc	Vdc	IERange
	#	s	Hz	ohm	ohm	V	ohm	°	A	V	#
	0	2	1000078	1901.978	-2395.936	1	3059.09	-51.55623	-3.137443E-006	-0.0727971	8
	1	3	794390.6	2330.596	-2571.226	1	3470.286	-47.81038	2.275045E-006	-0.0734691	8
	2	4	630984.4	2854.88	-2757.002	1	3968.804	-44.0008	-3.433362E-006	-0.0725774	8
	3	6	501234.4	3383.948	-2840.734	1	4418.243	-40.01257	5.21174E-010	-0.073349	8
	4	7	398109.4	3936.53	-2846.069	1	4857.61	-35.86653	-2.718181E-007	-0.0733687	8
	5	8	316265.6	4480.892	-2801.606	1	5284.637	-32.01503	-2.192027E-006	-0.0730608	8
	6	10	251203.1	4981.931	-2667.369	1	5651.062	-28.16499	-8.82771E-008	-0.0734195	8
	7	11	199546.9	5442.869	-2496.244	1	5987.993	-24.63744	3.806793E-007	-0.0735417	8
	8	13	158578.1	5863.436	-2284.692	1	6292.829	-21.28841	-5.244125E-007	-0.0733706	8
	9	14	125953.1	6233.865	-1997.213	1	6545.986	-17.76448	6.256631E-007	-0.0748301	7
	10	15	100078.1	6491.487	-1780.795	1	6731.318	-15.34044	-3.895599E-008	-0.0734513	7
	11	17	79453.13	6714.338	-1587.717	1	6899.506	-13.30416	-3.946182E-008	-0.0735254	7
	12	18	63140.62	6906.255	-1416.655	1	7050.055	-11.59207	-2.471184E-008	-0.07345	7
	13	20	50203.12	7055.591	-1268.797	1	7168.766	-10.19446	-6.890429E-008	-0.0734402	7
	14	21	39890.62	7177.051	-1140.552	1	7267.112	-9.029738	3.968083E-008	-0.0736752	7
	15	22	31640.63	7287.914	-1045.639	1	7362.544	-8.164834	1.058833E-007	-0.0736809	7
	16	24	25171.88	7376.085	-971.069	1	7439.732	-7.499914	7.182495E-009	-0.073542	7
	17	25	20015.62	7457.554	-922.5739	1	7514.403	-7.052229	-5.274692E-008	-0.0734757	7
	18	26	15890.62	7530.465	-902.1699	1	7584.314	-6.831628	-3.326068E-008	-0.0735003	7
	19	28	12609.37	7593.457	-902.845	1	7646.942	-6.780508	-2.175503E-009	-0.0734709	7
	20	29	10078.13	7653.804	-929.6129	1	7710.052	-6.92509	2.636091E-008	-0.0735057	7
	21	30	8015.625	7714.4	-989.505	1	7777.602	-7.309259	6.34193E-009	-0.073591	7
	22	32	6328.125	7771.505	-1089.343	1	7847.481	-7.979247	6.463643E-009	-0.0735427	7
	23	33	5015.625	7830.364	-1231.186	1	7926.564	-8.935589	4.282408E-008	-0.0735271	7
	24	34	3984.375	7894.332	-1411.103	1	8019.457	-10.13452	-6.476621E-008	-0.0734446	7
	25	36	3170.956	7963.086	-1642.929	1	8130.803	-11.65758	-3.229708E-009	-0.0734706	7
	26	37	2527.573	8036.037	-1938.229	1	8266.476	-13.5603	1.045442E-007	-0.0736841	7
	27	39	1976.103	8141.581	-2346.399	1	8472.952	-16.07695	-4.970916E-008	-0.0734877	7
	28	40	1577.524	8237.711	-2809.131	1	8703.511	-18.82982	1.033605E-007	-0.073682	7
	29	41	1265.625	8353.143	-3382.146	1	9011.876	-22.04278	4.698117E-009	-0.0735931	7
	30	43	998.264	8524.182	-4125.407	1	9469.987	-25.82536	-1.129506E-008	-0.073339	6
	31	44	796.875	8709.225	-5005.357	1	10045.11	-29.8868	-9.967094E-010	-0.0733976	6
	32	45	627.7902	8953.445	-6143.79	1	10858.65	-34.45763	-2.448277E-009	-0.073521	6
	33	47	505.5147	9235.13	-7413.522	1	11842.63	-38.75584	-4.45122E-009	-0.0734998	6
	34	48	397.9953	9608.88	-9111.078	1	13241.69	-43.47675	-8.200485E-011	-0.0734812	6
	35	49	315.5048	10063.37	-11133.46	1	15007.52	-47.89003	1.042632E-010	-0.0734817	6
	36	51	252.4038	10600.82	-13497.42	1	17162.68	-51.85405	-1.833427E-011	-0.0734781	6
	37	52	198.6229	11312.31	-16599.86	1	20087.9	-55.72673	8.930118E-011	-0.0734805	6
	38	54	158.3615	12150.82	-20192.89	1	23566.82	-58.96309	-2.148298E-010	-0.0734855	6
	39	55	125.558	13220.31	-24670.77	1	27989.7	-61.81451	1.177002E-010	-0.0734736	6
	40	56	100.4464	14515.32	-29905.45	1	33242	-64.10927	-6.034763E-010	-0.0734838	6
	41	58	79.00281	16272.14	-36774.51	1	40213.77	-66.13137	-3.413897E-010	-0.0734799	6
	42	59	63.3446	18053.95	-44428.18	1	47956.32	-67.88502	-8.855082E-011	-0.0734816	6
	43	60	49.86702	21607.37	-54724.02	1	58835.33	-68.45379	1.484955E-010	-0.073492	6
	44	62	39.72458	25049.52	-66519.06	1	71079.28	-69.3648	-1.265564E-011	-0.0734833	6
	45	63	31.6723	30005.04	-80343.96	1	85763.95	-69.52148	-1.182152E-011	-0.0734902	6
	46	65	24.93351	36534.61	-98150.9	1	104730	-69.58327	-4.41466E-011	-0.0734822	6
	47	66	19.86229	44846.1	-117992.4	1	126227.5	-69.18938	-6.474349E-010	-0.0734873	5
	48	67	15.83615	55612.45	-140773.1	1	151359.8	-68.44348	-3.604352E-010	-0.0734804	5
	49	69	12.40079	71175.42	-170339.5	1	184611.7	-67.32265	-3.246788E-010	-0.073487	5
	50	70	9.93114	88500.6	-200585.1	1	219241.3	-66.19234	-9.821419E-013	-0.0734836	5
	51	72	7.944915	111117.1	-233909.8	1	258961	-64.5903	9.047717E-011	-0.0734771	5
	52	73	6.317385	137705.8	-273597.2	1	306297.8	-63.28317	-3.497371E-010	-0.0734674	5
	53	75	5.008013	171621.6	-317789.8	1	361170.8	-61.62885	2.087903E-010	-0.0734748	5
	54	78	3.945707	212860.4	-367195	1	424431.1	-59.89942	-2.409621E-011	-0.0734861	5
	55	80	3.158693	257797.6	-417714.1	1	490861.2	-58.31866	1.850114E-010	-0.073463	5
	56	84	2.504006	311569.5	-474802.3	1	567902.1	-56.72676	-2.710054E-010	-0.0734871	5
	57	86	1.998082	371130.2	-535233.1	1	651315.7	-55.26259	-1.888257E-010	-0.0735147	5
	58	90	1.584686	439166.7	-598655.4	1	742465.9	-53.73666	-7.558889E-011	-0.0734548	5
	59	93	1.266892	512679	-668886.2	1	842762.4	-52.53104	-7.722744E-011	-0.0735065	5
	60	97	0.999041	596439.3	-748528.6	1	957097	-51.45161	1.949683E-010	-0.0734341	5
