EXPLAIN
TAG	EISPOT
TITLE	LABEL	Potentiostatic EIS	Test &Identifier
DATE	LABEL	6/1/2020	Date
TIME	LABEL	13:11:26	Time
NOTES	NOTES	1	&Notes...
	
PSTAT	PSTAT	REF600-11020	Potentiostat
VDC	POTEN	0.00000E+000	T	DC &Voltage (V)
FREQINIT	QUANT	1.00000E+006	Initial Fre&q. (Hz)
FREQFINAL	QUANT	1.00000E+000	Final Fre&q. (Hz)
PTSPERDEC	QUANT	1.00000E+001	Points/&decade
VAC	QUANT	2.50000E+001	AC &Voltage (mV rms)
AREA	QUANT	4.00000E-004	&Area (cm^2)
CONDIT	TWOPARAM	F	5.00000E+000	0.00000E+000	Conditionin&g	Time(s)	E(V)
DELAY	TWOPARAM	T	3.00000E+000	0.00000E+000	Init. De&lay	Time(s)	Stab.(mV/s)
SPEED	SELECTOR	0	&Optimize for:
ZGUESS	QUANT	1.00000E+003	E&stimated Z (ohms)
OCVCURVE	TABLE	12
	Pt	T	Vf	Vm	Ach	Over
	#	s	V vs. Ref.	V	V	bits
	0	0.258333	3.88005E-002	3.88005E-002	5.85496E-004	...........
	1	0.516667	3.88011E-002	3.88302E-002	5.85263E-004	...........
	2	0.775	3.88046E-002	3.88583E-002	5.81263E-004	...........
	3	1.03333	3.88144E-002	3.88834E-002	5.88563E-004	...........
	4	1.29167	3.88317E-002	3.89035E-002	5.82863E-004	...........
	5	1.55	3.88541E-002	3.89271E-002	5.79963E-004	...........
	6	1.80833	3.88781E-002	3.89474E-002	5.81497E-004	...........
	7	2.06667	3.89016E-002	3.89669E-002	5.81330E-004	...........
	8	2.325	3.89239E-002	3.89837E-002	5.87363E-004	...........
	9	2.58333	3.89447E-002	3.89989E-002	5.85663E-004	...........
	10	2.84167	3.89638E-002	3.90142E-002	5.85763E-004	...........
	11	3.1	3.89812E-002	3.90275E-002	5.83163E-004	...........
EOC	QUANT	0.0389812	Open Circuit (V)
PSTATMODEL	IQUANT	4	Pstat Model
PSTATSECTION	LABEL	REF600-11020	Pstat Section
PSTATSERIALNO	LABEL	11020	Pstat Serial Number
CTRLMODE	IQUANT	1	Control Mode
IESTAB	IQUANT	0	I/E Stability
CASPEED	IQUANT	1	Control Amp Speed
CONVENTION	IQUANT	1	Current Convention
ICHRANGE	IQUANT	2	Ich Range
ICHRANGEMODE	TOGGLE	F	Ich Auto Range
ICHOFFSETENABLE	TOGGLE	T	Ich Offset Enable
ICHOFFSET	QUANT	0	Ich Offset (V)
ICHFILTER	IQUANT	3	Ich Filter
VCHRANGE	IQUANT	2	Vch Range
VCHRANGEMODE	TOGGLE	F	Vch Auto Range
VCHOFFSETENABLE	TOGGLE	T	Vch Offset Enable
VCHOFFSET	QUANT	0	Vch Offset (V)
VCHFILTER	IQUANT	3	Vch Filter
ACHRANGE	IQUANT	2	Ach Range
ACHOFFSETENABLE	TOGGLE	F	Ach Offset Enable
ACHOFFSET	QUANT	0	Ach Offset (V)
ACHFILTER	IQUANT	3	Ach Filter
IERANGELOWERLIMIT	IQUANT	1	I/E Range Lower Limit
IERANGEMODE	TOGGLE	F	I/E AutoRange
IERANGE	IQUANT	7	I/E Range
POSFEEDENABLE	TOGGLE	F	Positive Feedback IR Comp
POSFEEDRESISTANCE	QUANT	0	Positive Feedback Resistance (ohm)
ACHSELECT	IQUANT	0	Ach Select
CABLEID	IQUANT	14	Cable ID
DCCALDATE	LABEL	2/27/2020	DC Calibration Date
ACCALDATE	LABEL	2/27/2020	AC Calibration Date
THERMOSELECT	IQUANT	1	Thermo Select
FRAMEWORKVERSION	QUANT	6.33	Framework Version
INSTRUMENTVERSION	LABEL	3.50	Instrument Version
ZCURVE	TABLE
	Pt	Time	Freq	Zreal	Zimag	Zsig	Zmod	Zphz	Idc	Vdc	IERange
	#	s	Hz	ohm	ohm	V	ohm	°	A	V	#
	0	1	1000078	1847.666	-2425.263	1	3048.897	-52.69835	4.998244E-008	0.041481	8
	1	2	794390.6	2234.824	-2715.429	1	3516.815	-50.54529	6.46525E-008	0.0411364	8
	2	2	630984.4	2687.123	-3003.302	1	4029.944	-48.18027	5.383146E-008	0.0409341	8
	3	2	501234.4	3213.803	-3265.022	1	4581.365	-45.45295	3.37315E-008	0.040833	8
	4	2	398109.4	3804.915	-3499.596	1	5169.58	-42.6065	5.392966E-008	0.0407453	8
	5	3	316265.6	4456.431	-3674.895	1	5776.212	-39.50993	4.231347E-008	0.0407039	8
	6	3	251203.1	5153.653	-3782.197	1	6392.586	-36.27444	4.953037E-008	0.0407007	8
	7	3	199546.9	5861.03	-3786.996	1	6978.038	-32.86778	1.450271E-008	0.0407006	8
	8	4	158578.1	6567.774	-3722.843	1	7549.518	-29.54607	6.190729E-008	0.0407098	8
	9	4	125953.1	7304.483	-3501.226	1	8100.251	-25.6096	-3.845685E-011	0.0406199	7
	10	4	100078.1	7872.497	-3293.371	1	8533.609	-22.70145	1.652377E-009	0.0406137	7
	11	5	79453.13	8407.655	-3065.472	1	8949.066	-20.0321	2.514829E-009	0.0406014	7
	12	5	63140.62	8858.046	-2813.132	1	9294.014	-17.61877	1.609406E-009	0.0405993	7
	13	5	50203.12	9242.63	-2564.917	1	9591.92	-15.50984	2.054145E-009	0.040594	7
	14	6	39890.62	9559.26	-2329.921	1	9839.1	-13.69788	2.141193E-009	0.040594	7
	15	6	31640.63	9831.07	-2126.493	1	10058.42	-12.20524	3.188684E-009	0.040602	7
	16	6	25171.88	10049.9	-1956.238	1	10238.52	-11.01503	2.318569E-009	0.0405972	7
	17	7	20015.62	10245.86	-1833.096	1	10408.55	-10.14352	3.443575E-009	0.0406023	7
	18	7	15890.62	10412.67	-1747.307	1	10558.26	-9.52581	3.011481E-009	0.0405962	7
	19	7	12609.37	10608.83	-1592.987	1	10727.76	-8.539549	3.169872E-011	0.0406547	6
	20	8	10078.13	10741.58	-1615.682	1	10862.41	-8.553947	7.764295E-011	0.0406513	6
	21	8	8015.625	10868.06	-1683.239	1	10997.64	-8.803983	4.820496E-012	0.0406514	6
	22	8	6328.125	11006.38	-1800.074	1	11152.61	-9.288388	-9.205903E-011	0.0406425	6
	23	9	5015.625	11143.61	-1965.674	1	11315.65	-10.00376	-5.95573E-011	0.0406434	6
	24	9	3984.375	11300.13	-2186.901	1	11509.8	-10.95298	-2.580272E-010	0.0406433	6
	25	9	3170.956	11464.49	-2467.94	1	11727.11	-12.14857	-1.525395E-010	0.0406455	6
	26	9	2527.573	11646.37	-2816.356	1	11982.06	-13.59443	-3.755386E-010	0.0406473	6
	27	10	1976.103	11867.15	-3285.125	1	12313.46	-15.47342	8.920548E-011	0.0406504	6
	28	10	1577.524	12103.7	-3813.737	1	12690.32	-17.48904	-1.519152E-010	0.0406435	6
	29	10	1265.625	12365.68	-4440.129	1	13138.67	-19.75163	-1.967672E-010	0.0406396	6
	30	11	998.264	12683.71	-5252.895	1	13728.42	-22.49664	-4.351859E-010	0.0406426	6
	31	11	796.875	13039.62	-6186.751	1	14432.87	-25.38237	-2.696006E-010	0.0406392	6
	32	11	627.7902	13467.84	-7384.4	1	15359.43	-28.73591	-1.707443E-010	0.040641	6
	33	12	505.5147	13916.71	-8691.662	1	16407.92	-31.98678	-3.403899E-010	0.0406391	6
	34	12	397.9953	14482.8	-10428.42	1	17846.66	-35.75598	2.402449E-010	0.0406605	6
	35	12	315.5048	15124.3	-12480.46	1	19608.84	-39.5292	3.035092E-010	0.0406509	6
	36	13	252.4038	15827.89	-14868.24	1	21716.04	-43.20935	2.29168E-010	0.0406518	6
	37	13	198.6229	16696.09	-17996.19	1	24548.36	-47.14617	2.821157E-010	0.0406499	6
	38	13	158.3615	17654.08	-21620.52	1	27912.6	-50.7669	2.682939E-010	0.0406531	6
	39	14	125.558	18807.34	-26170.47	1	32227.46	-54.29718	2.062543E-010	0.0406546	6
	40	14	100.4464	20137.86	-31526.4	1	37409.19	-57.43112	2.051075E-010	0.0406494	6
	41	14	79.00281	21885.83	-38615.5	1	44386.33	-60.45704	2.888945E-010	0.0406466	6
	42	15	63.3446	23889.93	-46609.38	1	52375.21	-62.86231	2.539857E-010	0.0406443	6
	43	15	49.86702	26645.1	-57215.76	1	63115.8	-65.02883	6.879861E-011	0.0406441	6
	44	15	39.72458	30030.59	-69521.87	1	75730.62	-66.63764	2.219423E-010	0.0406447	6
	45	16	31.6723	34411.2	-84394.42	1	91140.27	-67.81718	3.281777E-010	0.0406454	6
	46	16	24.93351	40528.46	-103356.3	1	111018.4	-68.58868	-2.507368E-010	0.0406458	5
	47	16	19.86229	48214.75	-125143.8	1	134110.6	-68.92959	-4.790329E-010	0.0406458	5
	48	17	15.83615	58212.17	-150988.8	1	161821.8	-68.91637	1.015352E-010	0.0406504	5
	49	17	12.40079	72663.41	-184093.7	1	197915.3	-68.46042	-3.811653E-010	0.0406509	5
	50	17	9.93114	89682.2	-219309.7	1	236938.1	-67.7589	-1.943743E-010	0.0406416	5
	51	18	7.944915	111836.4	-259598.3	1	282663.5	-66.69336	6.233517E-010	0.0406448	5
	52	18	6.317385	140787	-307544.4	1	338237.4	-65.40276	-1.770135E-010	0.0406638	5
	53	19	5.008013	178056.9	-361957.3	1	403382.4	-63.80614	-2.736095E-010	0.0406449	5
	54	20	3.945707	225744	-422668.4	1	479175.3	-61.89366	1.170046E-010	0.0406535	5
	55	21	3.158693	280144.7	-485035.8	1	560125.7	-59.99033	-1.822031E-010	0.0406449	5
	56	22	2.504006	346647.9	-552703.3	1	652415.3	-57.90462	-3.241148E-011	0.0406343	5
	57	23	1.998082	421379.1	-622211.2	1	751469.9	-55.89303	1.622099E-010	0.0406734	5
	58	24	1.584686	506198.9	-694921.1	1	859739.9	-53.92941	9.016583E-011	0.0406294	5
	59	26	1.266892	599403.4	-768671.6	1	974752	-52.05321	2.770406E-011	0.0406051	5
	60	29	0.999041	706769.1	-854480.8	1	1108900	-50.40473	-4.826617E-011	0.0405877	4
