EXPLAIN
TAG	EISPOT
TITLE	LABEL	Potentiostatic EIS	Test &Identifier
DATE	LABEL	1/7/2020	Date
TIME	LABEL	17:11:32	Time
NOTES	NOTES	5	&Notes...
	
	
	
	
	
PSTAT	PSTAT	REF600-11020	Potentiostat
VDC	POTEN	0.00000E+000	T	DC &Voltage (V)
FREQINIT	QUANT	1.00000E+006	Initial Fre&q. (Hz)
FREQFINAL	QUANT	1.00000E+000	Final Fre&q. (Hz)
PTSPERDEC	QUANT	1.00000E+001	Points/&decade
VAC	QUANT	2.50000E+001	AC &Voltage (mV rms)
AREA	QUANT	1.00000E-001	&Area (cm^2)
CONDIT	TWOPARAM	T	5.00000E+000	0.00000E+000	Conditionin&g	Time(s)	E(V)
DELAY	TWOPARAM	T	5.00000E+000	0.00000E+000	Init. De&lay	Time(s)	Stab.(mV/s)
SPEED	SELECTOR	0	&Optimize for:
ZGUESS	QUANT	1.00000E+003	E&stimated Z (ohms)
OCVCURVE	TABLE	19
	Pt	T	Vf	Vm	Ach	Over
	#	s	V vs. Ref.	V	V	bits
	0	0.258333	-1.67399E-003	-1.67399E-003	6.42213E-004	...........
	1	0.516667	-1.68903E-003	-2.46150E-003	6.44113E-004	...........
	2	0.775	-1.78399E-003	-3.34277E-003	6.45146E-004	...........
	3	1.03333	-2.04892E-003	-3.54742E-003	6.40980E-004	...........
	4	1.29167	-2.48462E-003	-3.66786E-003	6.41746E-004	...........
	5	1.55	-2.97415E-003	-4.27250E-003	6.44180E-004	...........
	6	1.80833	-3.41841E-003	-4.68330E-003	6.46880E-004	...........
	7	2.06667	-3.82165E-003	-5.10809E-003	6.45380E-004	...........
	8	2.325	-4.22238E-003	-5.36321E-003	6.42446E-004	...........
	9	2.58333	-4.61859E-003	-5.50604E-003	6.45080E-004	...........
	10	2.84167	-4.98325E-003	-6.12634E-003	6.39680E-004	...........
	11	3.1	-5.31863E-003	-6.43464E-003	6.37946E-004	...........
	12	3.35833	-5.65477E-003	-6.57042E-003	6.46513E-004	...........
	13	3.61667	-5.99677E-003	-7.01710E-003	6.44346E-004	...........
	14	3.875	-6.32564E-003	-7.23411E-003	6.41980E-004	...........
	15	4.13333	-6.63547E-003	-7.48948E-003	6.42946E-004	...........
	16	4.39167	-6.92683E-003	-7.61645E-003	6.43180E-004	...........
	17	4.65	-7.19312E-003	-7.95325E-003	6.48480E-004	...........
	18	4.90833	-7.44084E-003	-8.42017E-003	6.43446E-004	...........
EOC	QUANT	-0.0074408	Open Circuit (V)
PSTATMODEL	IQUANT	4	Pstat Model
PSTATSECTION	LABEL	REF600-11020	Pstat Section
PSTATSERIALNO	LABEL	11020	Pstat Serial Number
CTRLMODE	IQUANT	1	Control Mode
IESTAB	IQUANT	0	I/E Stability
CASPEED	IQUANT	1	Control Amp Speed
CONVENTION	IQUANT	1	Current Convention
ICHRANGE	IQUANT	2	Ich Range
ICHRANGEMODE	TOGGLE	F	Ich Auto Range
ICHOFFSETENABLE	TOGGLE	T	Ich Offset Enable
ICHOFFSET	QUANT	0	Ich Offset (V)
ICHFILTER	IQUANT	3	Ich Filter
VCHRANGE	IQUANT	2	Vch Range
VCHRANGEMODE	TOGGLE	F	Vch Auto Range
VCHOFFSETENABLE	TOGGLE	T	Vch Offset Enable
VCHOFFSET	QUANT	0	Vch Offset (V)
VCHFILTER	IQUANT	3	Vch Filter
ACHRANGE	IQUANT	2	Ach Range
ACHOFFSETENABLE	TOGGLE	F	Ach Offset Enable
ACHOFFSET	QUANT	0	Ach Offset (V)
ACHFILTER	IQUANT	3	Ach Filter
IERANGELOWERLIMIT	IQUANT	1	I/E Range Lower Limit
IERANGEMODE	TOGGLE	F	I/E AutoRange
IERANGE	IQUANT	7	I/E Range
POSFEEDENABLE	TOGGLE	F	Positive Feedback IR Comp
POSFEEDRESISTANCE	QUANT	0	Positive Feedback Resistance (ohm)
ACHSELECT	IQUANT	0	Ach Select
CABLEID	IQUANT	14	Cable ID
DCCALDATE	LABEL	12/22/2019	DC Calibration Date
ACCALDATE	LABEL	12/22/2019	AC Calibration Date
THERMOSELECT	IQUANT	1	Thermo Select
FRAMEWORKVERSION	QUANT	6.33	Framework Version
INSTRUMENTVERSION	LABEL	3.50	Instrument Version
ZCURVE	TABLE
	Pt	Time	Freq	Zreal	Zimag	Zsig	Zmod	Zphz	Idc	Vdc	IERange
	#	s	Hz	ohm	ohm	V	ohm	°	A	V	#
	0	1	1000078	2505.152	-2110.449	1	3275.635	-40.11225	-1.728862E-006	-0.0044149	8
	1	2	794390.6	2846.337	-2143.508	1	3563.182	-36.98253	1.26136E-006	-0.0052973	8
	2	2	630984.4	3239.822	-2155.272	1	3891.227	-33.63359	-4.456246E-007	-0.0059322	8
	3	2	501234.4	3637.568	-2096.779	1	4198.617	-29.96015	1.886302E-006	-0.0062061	8
	4	3	398109.4	3974.848	-2055.929	1	4475.071	-27.34957	-7.928007E-007	-0.0061031	8
	5	3	316265.6	4297.437	-1925.019	1	4708.892	-24.1298	5.673181E-006	-0.0072525	8
	6	3	251203.1	4508.271	-1860.114	1	4876.938	-22.42106	-4.750758E-006	-0.0051291	8
	7	4	199546.9	4865.057	-1750.98	1	5170.562	-19.79428	1.414856E-007	-0.0059613	8
	8	4	158578.1	5081.864	-1715.304	1	5363.544	-18.6513	5.510909E-007	-0.0057371	8
	9	4	125953.1	5350.208	-1580.884	1	5578.882	-16.4614	5.486335E-007	-0.0068881	7
	10	5	100078.1	5507.508	-1534.638	1	5717.321	-15.57021	6.493938E-008	-0.0061912	7
	11	5	79453.13	5696.688	-1544.291	1	5902.295	-15.16755	1.967448E-007	-0.0062622	7
	12	5	63140.62	5878.565	-1566.047	1	6083.587	-14.91713	-5.667094E-008	-0.0058744	7
	13	6	50203.12	6058.888	-1604.75	1	6267.802	-14.83467	1.201913E-007	-0.0061813	7
	14	6	39890.62	6248.078	-1668.08	1	6466.913	-14.94791	1.258149E-007	-0.0062502	7
	15	6	31640.63	6443.431	-1754.476	1	6678.022	-15.23175	1.982071E-007	-0.0062699	7
	16	7	25171.88	6644.399	-1864.665	1	6901.088	-15.67609	-1.024879E-007	-0.0058286	7
	17	7	20015.62	6855.717	-2004.352	1	7142.708	-16.29692	6.510227E-009	-0.0059469	7
	18	7	15890.62	7088	-2171.765	1	7413.251	-17.03508	-4.681125E-008	-0.0060041	7
	19	8	12609.37	7338.138	-2367.203	1	7710.507	-17.87914	1.250987E-007	-0.0062484	7
	20	8	10078.13	7606.253	-2576.962	1	8030.929	-18.71614	1.207761E-007	-0.0061871	7
	21	8	8015.625	7887.862	-2873.662	1	8395.017	-20.01741	6.521181E-008	-0.0062042	7
	22	8	6328.125	8211.694	-3216.28	1	8819.092	-21.38882	-5.505582E-008	-0.0058809	7
	23	9	5015.625	8565.265	-3605.619	1	9293.236	-22.82906	-1.011015E-007	-0.0058256	7
	24	9	3984.375	8990.319	-4013.627	1	9845.56	-24.05784	-6.134529E-009	-0.0060007	6
	25	9	3170.956	9427.422	-4551.579	1	10468.67	-25.77135	-6.351119E-009	-0.0059978	6
	26	10	2527.573	9922.76	-5166.066	1	11187.02	-27.50275	3.16462E-009	-0.0057746	6
	27	10	1976.103	10552.71	-5948.091	1	12113.61	-29.40801	-1.339842E-008	-0.0057234	6
	28	10	1577.524	11225.9	-6760.313	1	13104.3	-31.05664	-1.477423E-008	-0.0058883	6
	29	11	1265.625	11985.54	-7639.702	1	14213.32	-32.51383	7.616124E-009	-0.0061868	6
	30	11	998.264	12921.34	-8710.617	1	15583.19	-33.98495	-4.924618E-009	-0.0060115	6
	31	11	796.875	13925.61	-9827.83	1	17044.32	-35.21207	1.875144E-008	-0.0060687	6
	32	12	627.7902	15129.91	-11132.79	1	18784.39	-36.34614	2.769568E-008	-0.0064527	6
	33	12	505.5147	16315.38	-12449.64	1	20522.8	-37.34585	2.757476E-008	-0.0064518	6
	34	12	397.9953	17728.83	-14085.83	1	22643.37	-38.46767	9.90272E-010	-0.0059864	6
	35	13	315.5048	19174.11	-15899.93	1	24908.92	-39.66686	1.503168E-009	-0.0059826	6
	36	13	252.4038	20623.57	-17928.31	1	27326.83	-41.00082	1.337368E-009	-0.0059871	6
	37	13	198.6229	22235.47	-20536.89	1	30268.46	-42.72586	9.130983E-010	-0.0059833	6
	38	14	158.3615	23811.94	-23515.63	1	33466.3	-44.64128	8.864194E-010	-0.0059854	6
	39	14	125.558	25470.08	-27277.95	1	37320.39	-46.96296	9.156155E-010	-0.005989	6
	40	14	100.4464	27107.89	-31787.35	1	41776.46	-49.54283	1.776718E-009	-0.005993	6
	41	14	79.00281	29047.37	-37851.16	1	47712.26	-52.49699	6.813057E-010	-0.0059942	6
	42	15	63.3446	30903.32	-44087.32	1	53839.64	-54.9712	1.445213E-009	-0.0059922	6
	43	15	49.86702	33509.48	-53528.21	1	63151.84	-57.9528	1.473732E-009	-0.0059924	6
	44	16	39.72458	36240.33	-64894.48	1	74328.02	-60.81882	9.521286E-010	-0.0059888	6
	45	16	31.6723	39947.71	-78770.36	1	88320.95	-63.10855	1.335594E-009	-0.0059923	6
	46	16	24.93351	44753.32	-95954.2	1	105877.6	-64.99551	8.678064E-010	-0.0059968	5
	47	17	19.86229	50549.3	-116628.2	1	127111.6	-66.56699	-2.912384E-010	-0.0059925	5
	48	17	15.83615	60080.13	-141168.4	1	153421.5	-66.94579	1.917629E-009	-0.0059919	5
	49	17	12.40079	70694.62	-173386.2	1	187244.5	-67.81784	9.037515E-010	-0.005989	5
	50	18	9.93114	83127.52	-208243.2	1	224221.8	-68.23887	1.48406E-009	-0.0059905	5
	51	18	7.944915	100516.4	-249627.6	1	269104.9	-68.06706	8.469914E-010	-0.0059986	5
	52	19	6.317385	123889.7	-298799.4	1	323465.2	-67.47987	6.175462E-010	-0.0059946	5
	53	19	5.008013	154331.4	-356231.2	1	388225.3	-66.5761	1.766229E-010	-0.0060042	5
	54	21	3.945707	194688.1	-426479	1	468815.2	-65.46326	6.792427E-010	-0.0059931	5
	55	22	3.158693	242499.2	-497371.7	1	553339.3	-64.00793	4.626553E-010	-0.0059802	5
	56	24	2.504006	303012.5	-581437.2	1	655656.8	-62.474	4.040059E-010	-0.0059983	5
	57	25	1.998082	375061.6	-668403.3	1	766442.5	-60.70188	5.648421E-010	-0.0059586	5
	58	26	1.584686	461493.3	-768399.8	1	896333.8	-59.01139	4.395296E-010	-0.0059637	5
	59	28	1.266892	558330.4	-879281.6	1	1041570	-57.58507	6.004369E-010	-0.0059635	4
	60	31	0.999041	670493.6	-985359	1	1191844	-55.76642	4.207148E-010	-0.0059894	4
