EXPLAIN
TAG	EISPOT
TITLE	LABEL	Potentiostatic EIS	Test &Identifier
DATE	LABEL	1/21/2020	Date
TIME	LABEL	16:50:24	Time
NOTES	NOTES	6	&Notes...
	
	
	
	
	
	
PSTAT	PSTAT	REF600-11020	Potentiostat
VDC	POTEN	0.00000E+000	T	DC &Voltage (V)
FREQINIT	QUANT	1.00000E+006	Initial Fre&q. (Hz)
FREQFINAL	QUANT	1.00000E+000	Final Fre&q. (Hz)
PTSPERDEC	QUANT	1.00000E+001	Points/&decade
VAC	QUANT	2.50000E+001	AC &Voltage (mV rms)
AREA	QUANT	1.00000E-001	&Area (cm^2)
CONDIT	TWOPARAM	F	5.00000E+000	0.00000E+000	Conditionin&g	Time(s)	E(V)
DELAY	TWOPARAM	F	5.00000E+000	0.00000E+000	Init. De&lay	Time(s)	Stab.(mV/s)
SPEED	SELECTOR	0	&Optimize for:
ZGUESS	QUANT	5.00000E+002	E&stimated Z (ohms)
OCVCURVE	TABLE	39
	Pt	T	Vf	Vm	Ach	Over
	#	s	V vs. Ref.	V	V	bits
	0	0.258333	7.66108E-004	7.66108E-004	6.70213E-004	...........
	1	0.516667	7.67311E-004	8.29076E-004	6.64779E-004	...........
	2	0.775	7.73011E-004	8.00488E-004	6.67079E-004	...........
	3	1.03333	7.83391E-004	7.65663E-004	6.63179E-004	...........
	4	1.29167	7.92264E-004	8.25024E-004	6.65479E-004	...........
	5	1.55	7.99779E-004	9.90977E-004	6.62846E-004	...........
	6	1.80833	8.13072E-004	5.79244E-004	6.66213E-004	...........
	7	2.06667	8.07766E-004	1.06950E-004	6.66479E-004	...........
	8	2.325	7.30298E-004	4.14910E-004	6.66446E-004	...........
	9	2.58333	5.92632E-004	8.31531E-004	6.66546E-004	...........
	10	2.84167	5.11488E-004	1.37819E-003	6.64279E-004	...........
	11	3.1	5.95157E-004	1.38008E-003	6.66579E-004	...........
	12	3.35833	8.18149E-004	9.81046E-004	6.64379E-004	...........
	13	3.61667	1.02618E-003	3.89932E-004	6.66346E-004	...........
	14	3.875	1.04380E-003	-7.10049E-004	6.64579E-004	...........
	15	4.13333	7.77307E-004	-1.07695E-003	6.69546E-004	...........
	16	4.39167	2.89510E-004	-2.16263E-004	6.69513E-004	...........
	17	4.65	-1.69276E-004	9.26717E-004	6.65913E-004	...........
	18	4.90833	-3.16921E-004	4.75088E-004	6.68613E-004	...........
	19	5.16667	-1.26886E-004	3.89695E-005	6.72546E-004	...........
	20	5.425	1.47499E-004	2.09290E-004	6.65279E-004	...........
	21	5.68333	2.89252E-004	4.44920E-004	6.64979E-004	...........
	22	5.94167	2.94684E-004	-4.37093E-004	6.64446E-004	...........
	23	6.2	2.19517E-004	-3.23107E-004	6.64713E-004	...........
	24	6.45833	1.01685E-004	1.11028E-003	6.67646E-004	...........
	25	6.71667	8.22993E-005	1.86823E-003	6.68646E-004	...........
	26	6.975	3.32530E-004	1.64313E-003	6.67546E-004	...........
	27	7.23333	7.88013E-004	7.14413E-004	6.73946E-004	...........
	28	7.49167	1.15455E-003	6.74856E-004	6.68546E-004	...........
	29	7.75	1.22633E-003	6.61658E-004	6.67113E-004	...........
	30	8.00833	1.06018E-003	3.12159E-004	6.71146E-004	...........
	31	8.26667	8.21355E-004	3.21059E-004	6.65879E-004	...........
	32	8.525	6.08188E-004	2.97323E-004	6.66213E-004	...........
	33	8.78333	4.52343E-004	3.55327E-004	6.67213E-004	...........
	34	9.04167	3.62677E-004	3.48817E-004	6.69113E-004	...........
	35	9.3	3.40482E-004	9.20820E-004	6.67913E-004	...........
	36	9.5583	4.18497E-004	2.06649E-003	6.69279E-004	...........
	37	9.8167	6.73498E-004	2.39109E-003	6.72313E-004	...........
	38	10.075	1.12467E-003	2.40675E-003	6.74979E-004	...........
EOC	QUANT	0.0011247	Open Circuit (V)
PSTATMODEL	IQUANT	4	Pstat Model
PSTATSECTION	LABEL	REF600-11020	Pstat Section
PSTATSERIALNO	LABEL	11020	Pstat Serial Number
CTRLMODE	IQUANT	1	Control Mode
IESTAB	IQUANT	0	I/E Stability
CASPEED	IQUANT	1	Control Amp Speed
CONVENTION	IQUANT	1	Current Convention
ICHRANGE	IQUANT	2	Ich Range
ICHRANGEMODE	TOGGLE	F	Ich Auto Range
ICHOFFSETENABLE	TOGGLE	T	Ich Offset Enable
ICHOFFSET	QUANT	0	Ich Offset (V)
ICHFILTER	IQUANT	3	Ich Filter
VCHRANGE	IQUANT	2	Vch Range
VCHRANGEMODE	TOGGLE	F	Vch Auto Range
VCHOFFSETENABLE	TOGGLE	T	Vch Offset Enable
VCHOFFSET	QUANT	0	Vch Offset (V)
VCHFILTER	IQUANT	3	Vch Filter
ACHRANGE	IQUANT	2	Ach Range
ACHOFFSETENABLE	TOGGLE	F	Ach Offset Enable
ACHOFFSET	QUANT	0	Ach Offset (V)
ACHFILTER	IQUANT	3	Ach Filter
IERANGELOWERLIMIT	IQUANT	1	I/E Range Lower Limit
IERANGEMODE	TOGGLE	F	I/E AutoRange
IERANGE	IQUANT	6	I/E Range
POSFEEDENABLE	TOGGLE	F	Positive Feedback IR Comp
POSFEEDRESISTANCE	QUANT	0	Positive Feedback Resistance (ohm)
ACHSELECT	IQUANT	0	Ach Select
CABLEID	IQUANT	14	Cable ID
DCCALDATE	LABEL	12/22/2019	DC Calibration Date
ACCALDATE	LABEL	12/22/2019	AC Calibration Date
THERMOSELECT	IQUANT	1	Thermo Select
FRAMEWORKVERSION	QUANT	6.33	Framework Version
INSTRUMENTVERSION	LABEL	3.50	Instrument Version
ZCURVE	TABLE
	Pt	Time	Freq	Zreal	Zimag	Zsig	Zmod	Zphz	Idc	Vdc	IERange
	#	s	Hz	ohm	ohm	V	ohm	°	A	V	#
	0	1	1000078	1965.091	-2071.934	1	2855.607	-46.51603	1.018111E-006	0.0036671	8
	1	1	794390.6	2362.275	-2189.198	1	3220.703	-42.82229	-3.903682E-006	0.003574	8
	2	1	630984.4	2779.485	-2251.707	1	3577.11	-39.0115	3.102612E-006	0.0023679	8
	3	2	501234.4	3197.993	-2285.493	1	3930.73	-35.55205	3.013546E-006	0.0020986	8
	4	2	398109.4	3629.645	-2299.674	1	4296.839	-32.35757	1.455019E-007	0.0025809	8
	5	2	316265.6	4010.677	-2184.946	1	4567.222	-28.58076	3.739036E-007	0.0025664	8
	6	3	251203.1	4387.973	-2109.036	1	4868.504	-25.67081	1.436945E-006	0.0022768	8
	7	3	199546.9	4740.027	-2001.102	1	5145.121	-22.88806	-7.765937E-007	0.0027749	8
	8	3	158578.1	5103.048	-1869.603	1	5434.75	-20.12131	2.300195E-007	0.0025051	8
	9	4	125953.1	5345.138	-1685.709	1	5604.651	-17.50383	-1.153269E-006	0.0049772	7
	10	4	100078.1	5586.434	-1540.542	1	5794.956	-15.41698	6.501909E-008	0.0025023	7
	11	4	79453.13	5780.631	-1410.605	1	5950.252	-13.71346	2.858599E-008	0.0025785	7
	12	4	63140.62	5948.343	-1294.653	1	6087.603	-12.27889	-9.445396E-009	0.0026336	7
	13	5	50203.12	6086.677	-1195.621	1	6202.995	-11.11326	-5.535665E-008	0.0026762	7
	14	5	39890.62	6208.82	-1118.151	1	6308.701	-10.20901	6.89417E-008	0.0024584	7
	15	5	31640.63	6314.292	-1065.771	1	6403.605	-9.58049	-1.418056E-008	0.0027121	7
	16	6	25171.88	6407.247	-1037.993	1	6490.781	-9.202137	3.022189E-008	0.0025629	7
	17	6	20015.62	6494.19	-1037.616	1	6576.561	-9.077768	3.627459E-008	0.0024793	7
	18	6	15890.62	6579.792	-1068.781	1	6666.03	-9.226193	-2.250998E-008	0.002589	7
	19	7	12609.37	6664.934	-1124.336	1	6759.103	-9.57532	-4.566847E-008	0.0026852	7
	20	7	10078.13	6749.972	-1213.07	1	6858.109	-10.18815	-5.37111E-008	0.0026708	7
	21	7	8015.625	6842.577	-1336.569	1	6971.892	-11.05249	1.944713E-008	0.0025197	7
	22	8	6328.125	6944.57	-1502.678	1	7105.286	-12.20953	-3.290999E-008	0.0026092	7
	23	8	5015.625	7056.504	-1715.516	1	7262.041	-13.66417	-3.586368E-008	0.0026171	7
	24	8	3984.375	7185.271	-1979.767	1	7453.026	-15.40455	5.901754E-008	0.0025745	7
	25	9	3170.956	7324.301	-2299.294	1	7676.727	-17.42846	6.35824E-008	0.0024767	7
	26	9	2527.573	7485.161	-2687.884	1	7953.134	-19.75296	-3.46315E-008	0.002621	7
	27	9	1976.103	7692.343	-3208.886	1	8334.812	-22.64362	-9.338196E-009	0.0026154	7
	28	9	1577.524	7909.613	-3779.467	1	8766.205	-25.53996	-2.253171E-008	0.0025869	7
	29	10	1265.625	8167.299	-4452.739	1	9302.239	-28.59883	5.986233E-009	0.002442	6
	30	10	998.264	8489.245	-5333.71	1	10025.75	-32.14075	-2.029634E-009	0.0025444	6
	31	10	796.875	8851.097	-6342.482	1	10888.94	-35.62447	-4.694661E-009	0.0026393	6
	32	11	627.7902	9311.873	-7628.639	1	12037.74	-39.32563	-4.28183E-009	0.0026376	6
	33	11	505.5147	9808.35	-9029.35	1	13331.65	-42.63197	-3.145718E-009	0.0027067	6
	34	11	397.9953	10476.48	-10892.66	1	15113.12	-46.11574	5.325763E-010	0.002595	6
	35	12	315.5048	11269.93	-13077.22	1	17263.4	-49.24528	3.380212E-010	0.0025925	6
	36	12	252.4038	12206.69	-15593.28	1	19802.87	-51.94555	1.016036E-009	0.0025887	6
	37	12	198.6229	13454.67	-18827.94	1	23141.3	-54.44995	6.111006E-010	0.0025903	6
	38	13	158.3615	14926.48	-22478.14	1	26982.71	-56.41409	6.426352E-010	0.0025914	6
	39	13	125.558	16815.33	-26920.41	1	31740.56	-58.00982	5.478612E-010	0.0025873	6
	40	13	100.4464	19056.74	-31924.82	1	37180.01	-59.16595	8.109652E-010	0.0025812	6
	41	14	79.00281	22090.13	-38262.92	1	44181.73	-60.00109	2.106724E-010	0.0025809	6
	42	14	63.3446	25536.76	-45436.98	1	52121.45	-60.66288	7.176164E-010	0.002581	6
	43	14	49.86702	30040.27	-53956.95	1	61755.73	-60.89334	4.919706E-010	0.00258	6
	44	15	39.72458	35552.22	-63243.47	1	72551.34	-60.65755	6.246639E-010	0.0025822	6
	45	15	31.6723	42100.16	-73953.65	1	85097.39	-60.34811	6.70933E-010	0.0025801	6
	46	15	24.93351	50417.54	-87097.85	1	100637.8	-59.93513	2.021041E-010	0.0025792	6
	47	16	19.86229	60114.34	-101125.8	1	117644.2	-59.27059	-1.096034E-009	0.0025784	5
	48	16	15.83615	70983.95	-116270.2	1	136225.9	-58.59558	-5.46708E-011	0.0025764	5
	49	16	12.40079	86454.12	-135652.3	1	160859.7	-57.48975	-5.656273E-010	0.0025779	5
	50	17	9.93114	102263.1	-154922.7	1	185630.8	-56.57154	1.13539E-010	0.002574	5
	51	17	7.944915	119096.6	-177118	1	213435.7	-56.08256	1.853621E-009	0.0025645	5
	52	17	6.317385	141753.9	-200142.3	1	245257.2	-54.69137	-7.241414E-011	0.0025866	5
	53	18	5.008013	166278.4	-226852.5	1	281266	-53.75931	1.936585E-010	0.0025793	5
	54	19	3.945707	194230.2	-256913.3	1	322071.2	-52.91019	-7.382004E-012	0.0025647	5
	55	20	3.158693	223446.8	-288975.9	1	365288.3	-52.28748	2.570749E-010	0.0025624	5
	56	22	2.504006	256370.9	-326517.2	1	415138	-51.86213	2.977147E-010	0.0025728	5
	57	23	1.998082	291580	-367604.8	1	469203.8	-51.57894	1.970073E-011	0.0025235	5
	58	25	1.584686	329576.3	-417352.3	1	531792.7	-51.70243	7.928336E-011	0.0025453	5
	59	27	1.266892	370957.3	-472076.9	1	600388.1	-51.8398	1.771682E-010	0.0025771	5
	60	29	0.999041	420737.7	-541479.2	1	685725.9	-52.15224	2.228489E-010	0.0026008	5
