EXPLAIN
TAG	EISPOT
TITLE	LABEL	Potentiostatic EIS	Test &Identifier
DATE	LABEL	1/10/2020	Date
TIME	LABEL	13:16:38	Time
NOTES	NOTES	5	&Notes...
	
	
	
	
	
PSTAT	PSTAT	REF600-11020	Potentiostat
VDC	POTEN	0.00000E+000	T	DC &Voltage (V)
FREQINIT	QUANT	1.00000E+006	Initial Fre&q. (Hz)
FREQFINAL	QUANT	1.00000E+000	Final Fre&q. (Hz)
PTSPERDEC	QUANT	1.00000E+001	Points/&decade
VAC	QUANT	2.50000E+001	AC &Voltage (mV rms)
AREA	QUANT	1.00000E-001	&Area (cm^2)
CONDIT	TWOPARAM	T	5.00000E+000	0.00000E+000	Conditionin&g	Time(s)	E(V)
DELAY	TWOPARAM	T	5.00000E+000	0.00000E+000	Init. De&lay	Time(s)	Stab.(mV/s)
SPEED	SELECTOR	0	&Optimize for:
ZGUESS	QUANT	5.00000E+002	E&stimated Z (ohms)
OCVCURVE	TABLE	19
	Pt	T	Vf	Vm	Ach	Over
	#	s	V vs. Ref.	V	V	bits
	0	0.258333	-1.18073E-003	-1.18073E-003	6.75313E-004	...........
	1	0.516667	-1.19344E-003	-1.84619E-003	6.75346E-004	...........
	2	0.775	-1.27118E-003	-2.45985E-003	6.75779E-004	...........
	3	1.03333	-1.48804E-003	-2.94591E-003	6.74113E-004	...........
	4	1.29167	-1.86574E-003	-3.43317E-003	6.76546E-004	...........
	5	1.55	-2.34749E-003	-3.79881E-003	6.77779E-004	...........
	6	1.80833	-2.85219E-003	-4.19933E-003	6.75179E-004	...........
	7	2.06667	-3.32713E-003	-4.54693E-003	6.72513E-004	...........
	8	2.325	-3.75980E-003	-5.03210E-003	6.77012E-004	...........
	9	2.58333	-4.16064E-003	-5.12858E-003	6.75113E-004	...........
	10	2.84167	-4.53059E-003	-5.35724E-003	6.75946E-004	...........
	11	3.1	-4.85259E-003	-5.58045E-003	6.79146E-004	...........
	12	3.35833	-5.12003E-003	-5.77728E-003	6.78412E-004	...........
	13	3.61667	-5.34931E-003	-5.98911E-003	6.82246E-004	...........
	14	3.875	-5.56118E-003	-6.20330E-003	6.73079E-004	...........
	15	4.13333	-5.76585E-003	-6.28483E-003	6.81712E-004	...........
	16	4.39167	-5.95866E-003	-6.37378E-003	6.77946E-004	...........
	17	4.65	-6.12773E-003	-6.57336E-003	6.75646E-004	...........
	18	4.90833	-6.27283E-003	-6.68283E-003	6.78446E-004	...........
EOC	QUANT	-0.0062728	Open Circuit (V)
PSTATMODEL	IQUANT	4	Pstat Model
PSTATSECTION	LABEL	REF600-11020	Pstat Section
PSTATSERIALNO	LABEL	11020	Pstat Serial Number
CTRLMODE	IQUANT	1	Control Mode
IESTAB	IQUANT	0	I/E Stability
CASPEED	IQUANT	1	Control Amp Speed
CONVENTION	IQUANT	1	Current Convention
ICHRANGE	IQUANT	2	Ich Range
ICHRANGEMODE	TOGGLE	F	Ich Auto Range
ICHOFFSETENABLE	TOGGLE	T	Ich Offset Enable
ICHOFFSET	QUANT	0	Ich Offset (V)
ICHFILTER	IQUANT	3	Ich Filter
VCHRANGE	IQUANT	2	Vch Range
VCHRANGEMODE	TOGGLE	F	Vch Auto Range
VCHOFFSETENABLE	TOGGLE	T	Vch Offset Enable
VCHOFFSET	QUANT	0	Vch Offset (V)
VCHFILTER	IQUANT	3	Vch Filter
ACHRANGE	IQUANT	2	Ach Range
ACHOFFSETENABLE	TOGGLE	F	Ach Offset Enable
ACHOFFSET	QUANT	0	Ach Offset (V)
ACHFILTER	IQUANT	3	Ach Filter
IERANGELOWERLIMIT	IQUANT	1	I/E Range Lower Limit
IERANGEMODE	TOGGLE	F	I/E AutoRange
IERANGE	IQUANT	7	I/E Range
POSFEEDENABLE	TOGGLE	F	Positive Feedback IR Comp
POSFEEDRESISTANCE	QUANT	0	Positive Feedback Resistance (ohm)
ACHSELECT	IQUANT	0	Ach Select
CABLEID	IQUANT	14	Cable ID
DCCALDATE	LABEL	12/22/2019	DC Calibration Date
ACCALDATE	LABEL	12/22/2019	AC Calibration Date
THERMOSELECT	IQUANT	1	Thermo Select
FRAMEWORKVERSION	QUANT	6.33	Framework Version
INSTRUMENTVERSION	LABEL	3.50	Instrument Version
ZCURVE	TABLE
	Pt	Time	Freq	Zreal	Zimag	Zsig	Zmod	Zphz	Idc	Vdc	IERange
	#	s	Hz	ohm	ohm	V	ohm	°	A	V	#
	0	1	1000078	1975.562	-1988.972	1	2803.365	-45.19381	2.772679E-006	-0.0043554	8
	1	2	794390.6	2360.145	-2086.353	1	3150.103	-41.47647	-4.790822E-007	-0.0044198	8
	2	2	630984.4	2770.291	-2116.931	1	3486.532	-37.38543	-1.141866E-006	-0.004146	8
	3	2	501234.4	3164.53	-2105.896	1	3801.19	-33.64253	-9.427348E-007	-0.004392	8
	4	2	398109.4	3536.855	-2044.377	1	4085.195	-30.02883	-9.80341E-007	-0.0044617	8
	5	3	316265.6	3881.97	-1953.465	1	4345.77	-26.71222	-8.66588E-007	-0.0043433	8
	6	3	251203.1	4144.943	-1846.632	1	4537.687	-24.01367	-3.213964E-006	-0.003917	8
	7	3	199546.9	4414.178	-1737.588	1	4743.857	-21.48648	-3.131419E-006	-0.0039306	8
	8	4	158578.1	4659.024	-1650.038	1	4942.583	-19.50209	3.115604E-006	-0.0051995	8
	9	4	125953.1	4866.242	-1550.796	1	5107.375	-17.67628	-1.186292E-009	-0.0047175	7
	10	4	100078.1	5026.426	-1495.319	1	5244.133	-16.5673	-3.989208E-008	-0.0045875	7
	11	5	79453.13	5189.044	-1483.482	1	5396.935	-15.95456	-1.454646E-008	-0.0046714	7
	12	5	63140.62	5348.406	-1496.572	1	5553.843	-15.6325	4.766828E-008	-0.0046847	7
	13	5	50203.12	5501.689	-1537.989	1	5712.617	-15.61825	-1.463551E-008	-0.0046843	7
	14	6	39890.62	5661.561	-1609.038	1	5885.769	-15.86536	4.838242E-008	-0.0046873	7
	15	6	31640.63	5828.62	-1710.864	1	6074.525	-16.35844	2.600596E-008	-0.0046963	7
	16	6	25171.88	6002.778	-1845.286	1	6280.002	-17.08771	-1.391256E-008	-0.0046771	7
	17	7	20015.62	6193.32	-2020.778	1	6514.658	-18.07065	2.27407E-008	-0.0047482	7
	18	7	15890.62	6400.336	-2226.397	1	6776.514	-19.18055	1.481897E-009	-0.0047205	7
	19	7	12609.37	6630.266	-2485.663	1	7080.886	-20.55084	-8.745298E-009	-0.0046493	7
	20	8	10078.13	6877.642	-2775.185	1	7416.441	-21.97448	3.417211E-008	-0.0047869	7
	21	8	8015.625	7156.098	-3136.983	1	7813.476	-23.67096	-4.007817E-008	-0.0046238	7
	22	8	6328.125	7480.89	-3570.633	1	8289.339	-25.51517	-3.059188E-008	-0.0046646	7
	23	9	5015.625	7843.269	-4079.652	1	8840.838	-27.48106	-2.4752E-008	-0.0046548	7
	24	9	3984.375	8258.461	-4661.815	1	9483.391	-29.44428	1.953993E-009	-0.0046556	6
	25	9	3170.956	8720.72	-5355.6	1	10233.93	-31.55507	-2.976341E-012	-0.0047337	6
	26	9	2527.573	9242.805	-6160.973	1	11107.97	-33.68622	-5.703699E-009	-0.004602	6
	27	10	1976.103	9898.88	-7185.588	1	12231.95	-35.97585	-2.146526E-009	-0.00458	6
	28	10	1577.524	10607.62	-8317.016	1	13479.41	-38.09859	-7.000581E-009	-0.0046215	6
	29	10	1265.625	11387.73	-9527.09	1	14847.42	-39.91619	-2.579704E-009	-0.004642	6
	30	11	998.264	12381.8	-11082.03	1	16616.87	-41.82937	-6.411607E-009	-0.0046256	6
	31	11	796.875	13470.75	-12795.27	1	18579.02	-43.52686	1.904781E-009	-0.0046297	6
	32	11	627.7902	14815.21	-14893.51	1	21007.31	-45.151	-2.697944E-009	-0.0045827	6
	33	12	505.5147	16221.34	-17092.82	1	23564.73	-46.49848	-2.788789E-009	-0.0046467	6
	34	12	397.9953	18004.85	-19897.12	1	26834.12	-47.85814	8.201122E-010	-0.0046827	6
	35	12	315.5048	20009.45	-23069.35	1	30538.06	-49.06291	9.135679E-010	-0.004691	6
	36	13	252.4038	22246.85	-26608.22	1	34683.13	-50.10137	8.884845E-010	-0.0046907	6
	37	13	198.6229	24985.3	-31057.42	1	39860.11	-51.18377	9.871323E-010	-0.0046917	6
	38	13	158.3615	28024.91	-35874.34	1	45523.23	-52.00317	1.000728E-009	-0.0046905	6
	39	14	125.558	31660.99	-41749.5	1	52396.94	-52.82492	1.152639E-009	-0.0046941	6
	40	14	100.4464	35836.93	-48217.39	1	60076.64	-53.37892	1.758589E-010	-0.0046963	6
	41	14	79.00281	41064.27	-56521.2	1	69863.59	-54.00052	5.766445E-010	-0.004695	6
	42	15	63.3446	45159.87	-64424.22	1	78675.88	-54.97044	9.304804E-010	-0.0047022	6
	43	15	49.86702	52591.12	-74777.63	1	91419.48	-54.88128	1.325085E-009	-0.0047001	6
	44	15	39.72458	60847.62	-86829.86	1	106027.6	-54.97844	5.293803E-010	-0.0046965	5
	45	16	31.6723	69734.32	-99459.9	1	121470.7	-54.96454	-1.699841E-010	-0.0047016	5
	46	16	24.93351	78956.04	-115596.1	1	139987.5	-55.6656	2.008707E-010	-0.004703	5
	47	16	19.86229	89391.17	-133890.7	1	160989.1	-56.27122	-3.573395E-010	-0.0047039	5
	48	17	15.83615	100614.5	-153819.1	1	183803.2	-56.81094	9.559142E-010	-0.0047065	5
	49	17	12.40079	112784.7	-182476.9	1	214518.5	-58.28077	3.120885E-010	-0.0047006	5
	50	17	9.93114	128219.2	-213551.3	1	249086.9	-59.01881	3.288813E-010	-0.004699	5
	51	18	7.944915	144001.5	-251125.5	1	289483.1	-60.16898	2.034362E-010	-0.0046934	5
	52	19	6.317385	163362.4	-296033.5	1	338117	-61.10844	3.096217E-010	-0.0046984	5
	53	19	5.008013	188437.2	-352318.7	1	399546	-61.85996	3.626457E-010	-0.0046934	5
	54	20	3.945707	220537.2	-421475.1	1	475686.8	-62.37915	1.761205E-010	-0.0047128	5
	55	22	3.158693	259038.1	-497713.5	1	561087.8	-62.50499	2.974006E-010	-0.0047116	5
	56	23	2.504006	309152.8	-590734.8	1	666740.6	-62.37532	3.551239E-010	-0.0047009	5
	57	25	1.998082	371169.4	-693311.4	1	786414.3	-61.8373	2.000232E-010	-0.004742	5
	58	26	1.584686	447548.1	-815031	1	929825.2	-61.22802	2.066329E-010	-0.004735	5
	59	28	1.266892	540266.4	-944773.8	1	1088341	-60.23703	1.885508E-010	-0.0046626	4
	60	31	0.999041	660345.4	-1097750	1	1281059	-58.97122	2.049913E-010	-0.0046378	4
