EXPLAIN
TAG	EISPOT
TITLE	LABEL	Potentiostatic EIS	Test &Identifier
DATE	LABEL	1/28/2020	Date
TIME	LABEL	11:32:46	Time
NOTES	NOTES	6	&Notes...
	
	
	
	
	
	
PSTAT	PSTAT	REF600-11020	Potentiostat
VDC	POTEN	0.00000E+000	T	DC &Voltage (V)
FREQINIT	QUANT	1.00000E+006	Initial Fre&q. (Hz)
FREQFINAL	QUANT	1.00000E+000	Final Fre&q. (Hz)
PTSPERDEC	QUANT	1.00000E+001	Points/&decade
VAC	QUANT	2.50000E+001	AC &Voltage (mV rms)
AREA	QUANT	1.60000E-004	&Area (cm^2)
CONDIT	TWOPARAM	F	5.00000E+000	0.00000E+000	Conditionin&g	Time(s)	E(V)
DELAY	TWOPARAM	F	5.00000E+000	0.00000E+000	Init. De&lay	Time(s)	Stab.(mV/s)
SPEED	SELECTOR	0	&Optimize for:
ZGUESS	QUANT	1.00000E+003	E&stimated Z (ohms)
OCVCURVE	TABLE	39
	Pt	T	Vf	Vm	Ach	Over
	#	s	V vs. Ref.	V	V	bits
	0	0.258333	-9.12247E-002	-9.12247E-002	5.43005E-004	...........
	1	0.516667	-9.12250E-002	-9.12426E-002	5.42871E-004	...........
	2	0.775	-9.12283E-002	-9.13224E-002	5.48071E-004	...........
	3	1.03333	-9.12418E-002	-9.14052E-002	5.42938E-004	...........
	4	1.29167	-9.12731E-002	-9.14322E-002	5.43538E-004	...........
	5	1.55	-9.13200E-002	-9.14201E-002	5.43938E-004	...........
	6	1.80833	-9.13698E-002	-9.15273E-002	5.45205E-004	...........
	7	2.06667	-9.14151E-002	-9.15708E-002	5.46005E-004	...........
	8	2.325	-9.14578E-002	-9.14856E-002	5.46271E-004	...........
	9	2.58333	-9.14940E-002	-9.15192E-002	5.45205E-004	...........
	10	2.84167	-9.15157E-002	-9.15913E-002	5.47638E-004	...........
	11	3.1	-9.15288E-002	-9.16217E-002	5.50605E-004	...........
	12	3.35833	-9.15481E-002	-9.16680E-002	5.48971E-004	...........
	13	3.61667	-9.15798E-002	-9.17204E-002	5.51071E-004	...........
	14	3.875	-9.16200E-002	-9.17286E-002	5.48538E-004	...........
	15	4.13333	-9.16610E-002	-9.17188E-002	5.48438E-004	...........
	16	4.39167	-9.16946E-002	-9.17616E-002	5.50605E-004	...........
	17	4.65	-9.17196E-002	-9.18393E-002	5.45171E-004	...........
	18	4.90833	-9.17441E-002	-9.18370E-002	5.49505E-004	...........
	19	5.16667	-9.17745E-002	-9.18750E-002	5.46538E-004	...........
	20	5.425	-9.18084E-002	-9.18999E-002	5.48805E-004	...........
	21	5.68333	-9.18404E-002	-9.19095E-002	5.49471E-004	...........
	22	5.94167	-9.18685E-002	-9.19506E-002	5.44838E-004	...........
	23	6.2	-9.18928E-002	-9.19188E-002	5.46571E-004	...........
	24	6.45833	-9.19112E-002	-9.18888E-002	5.51805E-004	...........
	25	6.71667	-9.19197E-002	-9.19313E-002	5.51305E-004	...........
	26	6.975	-9.19200E-002	-9.19473E-002	5.49371E-004	...........
	27	7.23333	-9.19216E-002	-9.19924E-002	5.51538E-004	...........
	28	7.49167	-9.19325E-002	-9.19995E-002	5.51938E-004	...........
	29	7.75	-9.19525E-002	-9.20216E-002	5.51171E-004	...........
	30	8.00833	-9.19766E-002	-9.20660E-002	5.48971E-004	...........
	31	8.26667	-9.20019E-002	-9.20878E-002	5.56004E-004	...........
	32	8.525	-9.20291E-002	-9.21339E-002	5.49871E-004	...........
	33	8.78333	-9.20593E-002	-9.21672E-002	5.50538E-004	...........
	34	9.04167	-9.20923E-002	-9.21907E-002	5.49505E-004	...........
	35	9.3	-9.21258E-002	-9.21924E-002	5.47938E-004	...........
	36	9.5583	-9.21553E-002	-9.22037E-002	5.49171E-004	...........
	37	9.8167	-9.21770E-002	-9.21850E-002	5.41771E-004	...........
	38	10.075	-9.21908E-002	-9.22661E-002	5.47938E-004	...........
EOC	QUANT	-0.0921908	Open Circuit (V)
PSTATMODEL	IQUANT	4	Pstat Model
PSTATSECTION	LABEL	REF600-11020	Pstat Section
PSTATSERIALNO	LABEL	11020	Pstat Serial Number
CTRLMODE	IQUANT	1	Control Mode
IESTAB	IQUANT	0	I/E Stability
CASPEED	IQUANT	1	Control Amp Speed
CONVENTION	IQUANT	1	Current Convention
ICHRANGE	IQUANT	2	Ich Range
ICHRANGEMODE	TOGGLE	F	Ich Auto Range
ICHOFFSETENABLE	TOGGLE	T	Ich Offset Enable
ICHOFFSET	QUANT	0	Ich Offset (V)
ICHFILTER	IQUANT	3	Ich Filter
VCHRANGE	IQUANT	2	Vch Range
VCHRANGEMODE	TOGGLE	F	Vch Auto Range
VCHOFFSETENABLE	TOGGLE	T	Vch Offset Enable
VCHOFFSET	QUANT	0	Vch Offset (V)
VCHFILTER	IQUANT	3	Vch Filter
ACHRANGE	IQUANT	2	Ach Range
ACHOFFSETENABLE	TOGGLE	F	Ach Offset Enable
ACHOFFSET	QUANT	0	Ach Offset (V)
ACHFILTER	IQUANT	3	Ach Filter
IERANGELOWERLIMIT	IQUANT	1	I/E Range Lower Limit
IERANGEMODE	TOGGLE	F	I/E AutoRange
IERANGE	IQUANT	8	I/E Range
POSFEEDENABLE	TOGGLE	F	Positive Feedback IR Comp
POSFEEDRESISTANCE	QUANT	0	Positive Feedback Resistance (ohm)
ACHSELECT	IQUANT	0	Ach Select
CABLEID	IQUANT	14	Cable ID
DCCALDATE	LABEL	1/27/2020	DC Calibration Date
ACCALDATE	LABEL	1/27/2020	AC Calibration Date
THERMOSELECT	IQUANT	1	Thermo Select
FRAMEWORKVERSION	QUANT	6.33	Framework Version
INSTRUMENTVERSION	LABEL	3.50	Instrument Version
ZCURVE	TABLE
	Pt	Time	Freq	Zreal	Zimag	Zsig	Zmod	Zphz	Idc	Vdc	IERange
	#	s	Hz	ohm	ohm	V	ohm	°	A	V	#
	0	1	1000078	2333.209	-2209.993	1	3213.71	-43.44646	-9.285483E-007	-0.0896311	8
	1	2	794390.6	2757.871	-2323.653	1	3606.275	-40.11592	7.083191E-007	-0.0904628	8
	2	2	630984.4	3216.062	-2311.251	1	3960.421	-35.70325	-7.291575E-007	-0.0904687	8
	3	2	501234.4	3689.292	-2243.28	1	4317.775	-31.30176	-1.516195E-006	-0.0902288	8
	4	2	398109.4	4108.801	-2140.732	1	4633.031	-27.52002	1.744863E-006	-0.0909446	8
	5	3	316265.6	4463.779	-1941.024	1	4867.535	-23.50127	-1.582663E-006	-0.0903152	8
	6	3	251203.1	4781.567	-1770.005	1	5098.656	-20.31317	6.378932E-007	-0.0909005	8
	7	3	199546.9	5024.186	-1590.489	1	5269.924	-17.56605	-1.415439E-006	-0.0903307	8
	8	4	158578.1	5242.252	-1414.905	1	5429.84	-15.10445	-1.245842E-006	-0.0902508	8
	9	4	125953.1	5414.354	-1168.071	1	5538.919	-12.17418	6.759747E-007	-0.0915253	7
	10	4	100078.1	5546.487	-1029.589	1	5641.239	-10.51606	-2.096933E-008	-0.0907057	7
	11	5	79453.13	5643.59	-922.0649	1	5718.418	-9.279153	4.638835E-008	-0.0908413	7
	12	5	63140.62	5727.81	-832.8528	1	5788.044	-8.273119	2.948916E-008	-0.090725	7
	13	5	50203.12	5798.881	-768.2607	1	5849.551	-7.546841	1.309014E-007	-0.0908909	7
	14	6	39890.62	5860.431	-719.6921	1	5904.457	-7.001173	-3.916552E-008	-0.0906567	7
	15	6	31640.63	5922.289	-694.7413	1	5962.899	-6.690765	2.667471E-008	-0.0908075	7
	16	7	25171.88	5976.569	-684.0474	1	6015.588	-6.529368	-3.685807E-008	-0.0906624	7
	17	7	20015.62	6036.255	-693.7721	1	6075.994	-6.556475	-5.758652E-008	-0.0906035	7
	18	7	15890.62	6093.937	-721.8672	1	6136.542	-6.755584	3.083788E-008	-0.0907404	7
	19	8	12609.37	6152.239	-767.5913	1	6199.939	-7.111825	7.797242E-008	-0.0908545	7
	20	8	10078.13	6205.744	-832.3657	1	6261.317	-7.63939	-4.560771E-008	-0.0906763	7
	21	8	8015.625	6270.85	-909.2744	1	6336.43	-8.250397	2.806843E-008	-0.0908092	7
	22	8	6328.125	6344.043	-1031.223	1	6427.309	-9.232667	-3.67193E-008	-0.0906693	7
	23	9	5015.625	6418.368	-1174.617	1	6524.965	-10.37086	2.896497E-008	-0.0908153	7
	24	9	3984.375	6502.7	-1349.354	1	6641.224	-11.72289	7.965937E-008	-0.0908653	7
	25	9	3170.956	6584.588	-1576.289	1	6770.635	-13.46272	-7.245436E-009	-0.09068	7
	26	10	2527.573	6678.13	-1849.941	1	6929.625	-15.48352	-2.795202E-008	-0.0906177	7
	27	10	1976.103	6790.504	-2215.816	1	7142.883	-18.07207	-4.184594E-008	-0.0906941	7
	28	10	1577.524	6912.337	-2637.528	1	7398.443	-20.88526	2.530557E-009	-0.0907964	7
	29	11	1265.625	7045.52	-3129.531	1	7709.301	-23.95019	-4.632014E-008	-0.0906856	7
	30	11	998.264	7213.148	-3789.805	1	8148.136	-27.71754	3.157935E-008	-0.0907512	7
	31	11	796.875	7403.267	-4557.776	1	8693.772	-31.61827	-1.617462E-008	-0.0906772	7
	32	12	627.7902	7641.55	-5557.114	1	9448.534	-36.02552	-4.546935E-008	-0.0906817	7
	33	12	505.5147	7904.733	-6660.575	1	10336.73	-40.11768	-9.422049E-009	-0.0906158	6
	34	12	397.9953	8251.789	-8154.337	1	11601.09	-44.65967	8.463882E-010	-0.0907172	6
	35	13	315.5048	8670.438	-9933.79	1	13185.47	-48.88479	7.558864E-010	-0.0907163	6
	36	13	252.4038	9164.103	-12018.34	1	15113.62	-52.67413	8.954607E-010	-0.0907219	6
	37	13	198.6229	9815.1	-14748.72	1	17716.12	-56.3567	8.765229E-010	-0.0907188	6
	38	14	158.3615	10582.33	-17905.04	1	20798.46	-59.41582	6.781671E-010	-0.0907213	6
	39	14	125.558	11547.24	-21833.14	1	24698.68	-62.12627	7.844048E-010	-0.0907257	6
	40	14	100.4464	12734.81	-26413.6	1	29323.26	-64.25986	1.42871E-009	-0.0907283	6
	41	15	79.00281	14268.3	-32489.17	1	35484.23	-66.29032	1.434137E-009	-0.0907272	6
	42	15	63.3446	15909.42	-38774.59	1	41911.55	-67.6914	3.094152E-010	-0.0907249	6
	43	15	49.86702	18487.02	-47637.21	1	51098.66	-68.78979	3.359514E-012	-0.0907329	6
	44	16	39.72458	21435.75	-58216.82	1	62037.81	-69.78602	5.587046E-010	-0.0907282	6
	45	16	31.6723	25345.7	-70654.09	1	75062.67	-70.26559	1.269868E-010	-0.0907273	6
	46	16	24.93351	30579.54	-86049.6	1	91321.64	-70.43626	6.577331E-010	-0.0907298	6
	47	17	19.86229	36923.14	-103826.7	1	110196.7	-70.42346	-5.198925E-010	-0.090736	5
	48	17	15.83615	45235.54	-123996.4	1	131990	-69.95735	-8.968093E-011	-0.0907348	5
	49	17	12.40079	56681.68	-151054.4	1	161339	-69.4319	8.606558E-010	-0.0907318	5
	50	18	9.93114	70641.05	-180761.9	1	194074.8	-68.65464	2.373842E-010	-0.0907401	5
	51	18	7.944915	87366.52	-213750.6	1	230916	-67.76864	-3.82509E-010	-0.0907291	5
	52	19	6.317385	109746.6	-251981.8	1	274843.9	-66.46524	-1.48524E-010	-0.0907241	5
	53	20	5.008013	137163.9	-296421.5	1	326618.5	-65.16848	1.238478E-010	-0.0907234	5
	54	21	3.945707	171519.6	-347412.6	1	387446.1	-63.72419	6.833441E-011	-0.0907381	5
	55	22	3.158693	209058.9	-401947.7	1	453064.7	-62.5204	2.210223E-010	-0.0907322	5
	56	24	2.504006	254481.5	-464406.9	1	529560.8	-61.27854	1.596276E-010	-0.0907341	5
	57	25	1.998082	305331.6	-533182.4	1	614419.2	-60.20201	1.439376E-011	-0.0907762	5
	58	27	1.584686	362898.2	-611501.7	1	711076.3	-59.31281	7.658049E-011	-0.0907451	5
	59	29	1.266892	428335.6	-697427.5	1	818459.9	-58.44321	1.307657E-010	-0.0907108	5
	60	31	0.999041	506448.7	-803967.9	1	950187	-57.79168	1.582309E-010	-0.0906983	5
