EXPLAIN
TAG	EISPOT
TITLE	LABEL	Potentiostatic EIS	Test &Identifier
DATE	LABEL	6/26/2020	Date
TIME	LABEL	13:17:41	Time
NOTES	NOTES	1	&Notes...
	
PSTAT	PSTAT	REF600-11020	Potentiostat
VDC	POTEN	0.00000E+000	T	DC &Voltage (V)
FREQINIT	QUANT	1.00000E+006	Initial Fre&q. (Hz)
FREQFINAL	QUANT	1.00000E+000	Final Fre&q. (Hz)
PTSPERDEC	QUANT	1.00000E+001	Points/&decade
VAC	QUANT	2.50000E+001	AC &Voltage (mV rms)
AREA	QUANT	4.00000E-004	&Area (cm^2)
CONDIT	TWOPARAM	F	5.00000E+000	0.00000E+000	Conditionin&g	Time(s)	E(V)
DELAY	TWOPARAM	F	3.00000E+000	0.00000E+000	Init. De&lay	Time(s)	Stab.(mV/s)
SPEED	SELECTOR	0	&Optimize for:
ZGUESS	QUANT	1.00000E+003	E&stimated Z (ohms)
OCVCURVE	TABLE	39
	Pt	T	Vf	Vm	Ach	Over
	#	s	V vs. Ref.	V	V	bits
	0	0.258333	8.33331E-002	8.33331E-002	5.23383E-004	...........
	1	0.516667	8.33330E-002	8.33303E-002	5.23317E-004	...........
	2	0.775	8.33328E-002	8.33307E-002	5.24283E-004	...........
	3	1.03333	8.33322E-002	8.33275E-002	5.22383E-004	...........
	4	1.29167	8.33311E-002	8.33255E-002	5.22417E-004	...........
	5	1.55	8.33296E-002	8.33221E-002	5.27017E-004	...........
	6	1.80833	8.33277E-002	8.33217E-002	5.20017E-004	...........
	7	2.06667	8.33255E-002	8.33191E-002	5.25117E-004	...........
	8	2.325	8.33233E-002	8.33162E-002	5.19783E-004	...........
	9	2.58333	8.33212E-002	8.33126E-002	5.24450E-004	...........
	10	2.84167	8.33188E-002	8.33092E-002	5.28050E-004	...........
	11	3.1	8.33161E-002	8.33086E-002	5.29683E-004	...........
	12	3.35833	8.33132E-002	8.33059E-002	5.22050E-004	...........
	13	3.61667	8.33106E-002	8.33043E-002	5.22350E-004	...........
	14	3.875	8.33083E-002	8.32995E-002	5.19650E-004	...........
	15	4.13333	8.33060E-002	8.32980E-002	5.18850E-004	...........
	16	4.39167	8.33034E-002	8.32949E-002	5.17183E-004	...........
	17	4.65	8.33007E-002	8.32913E-002	5.22317E-004	...........
	18	4.90833	8.32979E-002	8.32923E-002	5.23850E-004	...........
	19	5.16667	8.32953E-002	8.32880E-002	5.28650E-004	...........
	20	5.425	8.32930E-002	8.32855E-002	5.25150E-004	...........
	21	5.68333	8.32908E-002	8.32843E-002	5.20383E-004	...........
	22	5.94167	8.32885E-002	8.32820E-002	5.26050E-004	...........
	23	6.2	8.32863E-002	8.32805E-002	5.23417E-004	...........
	24	6.45833	8.32843E-002	8.32783E-002	5.27617E-004	...........
	25	6.71667	8.32823E-002	8.32749E-002	5.24183E-004	...........
	26	6.975	8.32802E-002	8.32733E-002	5.18950E-004	...........
	27	7.23333	8.32780E-002	8.32716E-002	5.20383E-004	...........
	28	7.49167	8.32758E-002	8.32693E-002	5.23550E-004	...........
	29	7.75	8.32736E-002	8.32669E-002	5.21550E-004	...........
	30	8.00833	8.32715E-002	8.32657E-002	5.23650E-004	...........
	31	8.26667	8.32694E-002	8.32617E-002	5.26150E-004	...........
	32	8.525	8.32673E-002	8.32592E-002	5.28883E-004	...........
	33	8.78333	8.32649E-002	8.32578E-002	5.26150E-004	...........
	34	9.04167	8.32624E-002	8.32556E-002	5.23917E-004	...........
	35	9.3	8.32600E-002	8.32535E-002	5.25450E-004	...........
	36	9.5583	8.32577E-002	8.32489E-002	5.26383E-004	...........
	37	9.8167	8.32554E-002	8.32484E-002	5.21850E-004	...........
	38	10.075	8.32530E-002	8.32454E-002	5.21883E-004	...........
EOC	QUANT	0.083253	Open Circuit (V)
PSTATMODEL	IQUANT	4	Pstat Model
PSTATSECTION	LABEL	REF600-11020	Pstat Section
PSTATSERIALNO	LABEL	11020	Pstat Serial Number
CTRLMODE	IQUANT	1	Control Mode
IESTAB	IQUANT	0	I/E Stability
CASPEED	IQUANT	1	Control Amp Speed
CONVENTION	IQUANT	1	Current Convention
ICHRANGE	IQUANT	2	Ich Range
ICHRANGEMODE	TOGGLE	F	Ich Auto Range
ICHOFFSETENABLE	TOGGLE	T	Ich Offset Enable
ICHOFFSET	QUANT	0	Ich Offset (V)
ICHFILTER	IQUANT	3	Ich Filter
VCHRANGE	IQUANT	2	Vch Range
VCHRANGEMODE	TOGGLE	F	Vch Auto Range
VCHOFFSETENABLE	TOGGLE	T	Vch Offset Enable
VCHOFFSET	QUANT	0	Vch Offset (V)
VCHFILTER	IQUANT	3	Vch Filter
ACHRANGE	IQUANT	2	Ach Range
ACHOFFSETENABLE	TOGGLE	F	Ach Offset Enable
ACHOFFSET	QUANT	0	Ach Offset (V)
ACHFILTER	IQUANT	3	Ach Filter
IERANGELOWERLIMIT	IQUANT	1	I/E Range Lower Limit
IERANGEMODE	TOGGLE	F	I/E AutoRange
IERANGE	IQUANT	8	I/E Range
POSFEEDENABLE	TOGGLE	F	Positive Feedback IR Comp
POSFEEDRESISTANCE	QUANT	0	Positive Feedback Resistance (ohm)
ACHSELECT	IQUANT	0	Ach Select
CABLEID	IQUANT	14	Cable ID
DCCALDATE	LABEL	6/26/2020	DC Calibration Date
ACCALDATE	LABEL	6/26/2020	AC Calibration Date
THERMOSELECT	IQUANT	1	Thermo Select
FRAMEWORKVERSION	QUANT	6.33	Framework Version
INSTRUMENTVERSION	LABEL	3.50	Instrument Version
ZCURVE	TABLE
	Pt	Time	Freq	Zreal	Zimag	Zsig	Zmod	Zphz	Idc	Vdc	IERange
	#	s	Hz	ohm	ohm	V	ohm	°	A	V	#
	0	1	1000078	1858.972	-1916.891	1	2670.252	-45.87882	7.667937E-008	0.0858054	8
	1	1	794390.6	2248.649	-2017.263	1	3020.889	-41.89529	-5.263562E-008	0.0854242	8
	2	2	630984.4	2680.646	-2044.203	1	3371.147	-37.32837	1.618743E-007	0.0852067	8
	3	2	501234.4	3087.521	-2016.877	1	3687.896	-33.15398	-9.324197E-008	0.0851531	8
	4	2	398109.4	3469.364	-1927.09	1	3968.647	-29.05039	-6.195324E-008	0.08509	8
	5	2	316265.6	3802.088	-1795.353	1	4204.66	-25.27676	6.210048E-008	0.0850348	8
	6	3	251203.1	4096.382	-1638.928	1	4412.078	-21.80593	7.835051E-008	0.0850065	8
	7	3	199546.9	4334.413	-1483.224	1	4581.167	-18.8908	-5.627618E-009	0.085031	8
	8	3	158578.1	4521.184	-1338.56	1	4715.172	-16.49213	1.389091E-007	0.0849841	8
	9	4	125953.1	4712.123	-1150.995	1	4850.659	-13.72643	8.348577E-008	0.0848988	7
	10	4	100078.1	4844.386	-1034.32	1	4953.574	-12.0522	2.282267E-008	0.0849463	7
	11	4	79453.13	4948.152	-939.9043	1	5036.629	-10.75523	-2.680821E-009	0.0849557	7
	12	5	63140.62	5035.795	-867.239	1	5109.925	-9.77134	-1.537473E-008	0.0850073	7
	13	5	50203.12	5114.094	-815.2097	1	5178.661	-9.057006	-7.039941E-010	0.0849873	7
	14	5	39890.62	5186.913	-782.2739	1	5245.571	-8.576532	-7.650243E-009	0.0849864	7
	15	6	31640.63	5256.4	-769.2003	1	5312.383	-8.32534	-1.188678E-008	0.0849561	7
	16	6	25171.88	5322.516	-774.4155	1	5378.559	-8.278332	1.449967E-008	0.0849329	7
	17	6	20015.62	5387.966	-797.8762	1	5446.723	-8.423421	1.765323E-008	0.0849629	7
	18	7	15890.62	5455.355	-841.5395	1	5519.881	-8.769287	-2.378369E-008	0.0849889	7
	19	7	12609.37	5525.669	-908.4115	1	5599.842	-9.335829	-2.421814E-008	0.0849896	7
	20	7	10078.13	5597.304	-996.375	1	5685.294	-10.09348	6.718909E-009	0.08494	7
	21	7	8015.625	5675.677	-1111.757	1	5783.538	-11.08283	-2.914236E-010	0.0849792	7
	22	8	6328.125	5764.708	-1264.552	1	5901.776	-12.37249	-1.931747E-008	0.085	7
	23	8	5015.625	5860.493	-1452.259	1	6037.75	-13.91781	1.766564E-008	0.0849605	7
	24	8	3984.375	5967.624	-1681.867	1	6200.097	-15.73953	-2.313601E-008	0.0849736	7
	25	9	3170.956	6086.784	-1959.085	1	6394.291	-17.84123	1.830559E-008	0.0849607	7
	26	9	2527.573	6220.411	-2295.864	1	6630.574	-20.25838	1.869891E-008	0.084959	7
	27	9	1976.103	6386.935	-2743.601	1	6951.279	-23.24664	-2.255014E-008	0.0849719	7
	28	10	1577.524	6562.316	-3243.019	1	7319.916	-26.29803	-1.850913E-008	0.084967	7
	29	10	1265.625	6761.103	-3833.04	1	7772.046	-29.54999	2.327203E-008	0.0849498	7
	30	10	998.264	7010.968	-4604.533	1	8387.812	-33.29536	-2.224994E-008	0.0849881	7
	31	11	796.875	7290.3	-5495.762	1	9129.725	-37.01066	-1.308261E-008	0.0849971	7
	32	11	627.7902	7645.954	-6643.424	1	10128.95	-40.98676	-4.1939E-009	0.0849843	6
	33	11	505.5147	8032.417	-7910.834	1	11273.91	-44.56307	-4.601461E-009	0.0850122	6
	34	12	397.9953	8547.076	-9610.28	1	12861.18	-48.35112	4.38671E-010	0.0849802	6
	35	12	315.5048	9166.393	-11619.7	1	14800.01	-51.73128	4.328871E-010	0.0849801	6
	36	12	252.4038	9904.11	-13953.75	1	17111.36	-54.63359	4.077312E-010	0.0849744	6
	37	13	198.6229	10899.83	-16988.36	1	20184.41	-57.31552	3.329293E-010	0.0849773	6
	38	13	158.3615	12096.44	-20455.74	1	23764.7	-59.40218	2.963526E-010	0.0849763	6
	39	13	125.558	13664.06	-24720.31	1	28245.36	-61.06854	1.923012E-010	0.0849777	6
	40	14	100.4464	15595.97	-29609.42	1	33465.68	-62.22319	-4.652279E-011	0.0849756	6
	41	14	79.00281	18289.2	-35867.26	1	40261.09	-62.98236	-1.589699E-010	0.0849723	6
	42	14	63.3446	21476.47	-42631.73	1	47735.76	-63.26254	1.727357E-010	0.0849705	6
	43	15	49.86702	25951.94	-51182.95	1	57386.39	-63.11305	-7.941758E-011	0.0849693	6
	44	15	39.72458	31422.71	-60555.98	1	68223.26	-62.57504	3.833358E-010	0.0849709	6
	45	15	31.6723	38322.43	-71112.69	1	80781.33	-61.67989	3.627478E-010	0.0849744	6
	46	16	24.93351	47500.62	-83501.05	1	96066.3	-60.36607	1.266614E-009	0.0849682	6
	47	16	19.86229	58087.32	-96377.2	1	112528.6	-58.92228	2.742351E-009	0.0849629	5
	48	16	15.83615	71211.97	-109965.4	1	131009.7	-57.07351	-1.021462E-009	0.0849549	5
	49	16	12.40079	87332.78	-125150	1	152609.1	-55.09172	-7.649693E-010	0.084955	5
	50	17	9.93114	104148	-139368.3	1	173983.7	-53.22976	1.015135E-009	0.0849527	5
	51	17	7.944915	121527.9	-154017.6	1	196189.9	-51.72472	1.56618E-009	0.0849547	5
	52	17	6.317385	141206.7	-169889.6	1	220911.3	-50.26775	-4.284848E-010	0.0849778	5
	53	18	5.008013	161519.7	-187294.7	1	247321.5	-49.22608	-9.505158E-011	0.0849684	5
	54	19	3.945707	181815.4	-208114.4	1	276348.4	-48.85851	4.62075E-010	0.0849647	5
	55	20	3.158693	201315.4	-231048.7	1	306449.7	-48.93398	-4.747465E-011	0.0849778	5
	56	21	2.504006	221598.6	-260953.7	1	342348.9	-49.66251	-1.203055E-010	0.0849539	5
	57	22	1.998082	242133.7	-296152.9	1	382537.9	-50.73067	1.791477E-010	0.0849818	5
	58	24	1.584686	264842.3	-342881.6	1	433254.2	-52.31745	1.743298E-010	0.0849904	5
	59	26	1.266892	288601.7	-397456.1	1	491184.6	-54.01577	8.499981E-011	0.084958	5
	60	28	0.999041	318868.5	-468498.5	1	566716.8	-55.76009	5.198745E-011	0.0849197	5
