EXPLAIN
TAG	EISPOT
TITLE	LABEL	Potentiostatic EIS	Test &Identifier
DATE	LABEL	1/18/2020	Date
TIME	LABEL	21:38:16	Time
NOTES	NOTES	6	&Notes...
	
	
	
	
	
	
PSTAT	PSTAT	REF600-11020	Potentiostat
VDC	POTEN	0.00000E+000	T	DC &Voltage (V)
FREQINIT	QUANT	1.00000E+006	Initial Fre&q. (Hz)
FREQFINAL	QUANT	1.00000E+000	Final Fre&q. (Hz)
PTSPERDEC	QUANT	1.00000E+001	Points/&decade
VAC	QUANT	2.50000E+001	AC &Voltage (mV rms)
AREA	QUANT	1.00000E-001	&Area (cm^2)
CONDIT	TWOPARAM	F	5.00000E+000	0.00000E+000	Conditionin&g	Time(s)	E(V)
DELAY	TWOPARAM	F	5.00000E+000	0.00000E+000	Init. De&lay	Time(s)	Stab.(mV/s)
SPEED	SELECTOR	0	&Optimize for:
ZGUESS	QUANT	5.00000E+002	E&stimated Z (ohms)
OCVCURVE	TABLE	39
	Pt	T	Vf	Vm	Ach	Over
	#	s	V vs. Ref.	V	V	bits
	0	0.258333	-5.06088E-002	-5.06088E-002	6.68213E-004	...........
	1	0.516667	-5.06104E-002	-5.06893E-002	6.65779E-004	...........
	2	0.775	-5.06250E-002	-5.10379E-002	6.69046E-004	...........
	3	1.03333	-5.06570E-002	-4.99747E-002	6.65346E-004	...........
	4	1.29167	-5.06343E-002	-4.91127E-002	6.65046E-004	...........
	5	1.55	-5.04462E-002	-5.00006E-002	6.64013E-004	...........
	6	1.80833	-5.01402E-002	-5.01886E-002	6.63579E-004	...........
	7	2.06667	-4.99240E-002	-5.02189E-002	6.61279E-004	...........
	8	2.325	-4.99100E-002	-5.02934E-002	6.59713E-004	...........
	9	2.58333	-5.00253E-002	-5.03128E-002	6.64613E-004	...........
	10	2.84167	-5.01557E-002	-5.02845E-002	6.62513E-004	...........
	11	3.1	-5.02449E-002	-5.03098E-002	6.60946E-004	...........
	12	3.35833	-5.02896E-002	-5.03647E-002	6.61113E-004	...........
	13	3.61667	-5.03109E-002	-5.03947E-002	6.64313E-004	...........
	14	3.875	-5.03332E-002	-5.05506E-002	6.63846E-004	...........
	15	4.13333	-5.03685E-002	-5.03825E-002	6.71179E-004	...........
	16	4.39167	-5.04079E-002	-5.04187E-002	6.68813E-004	...........
	17	4.65	-5.04352E-002	-5.06206E-002	6.63246E-004	...........
	18	4.90833	-5.04577E-002	-5.06352E-002	6.65746E-004	...........
	19	5.16667	-5.04974E-002	-5.06677E-002	6.65779E-004	...........
	20	5.425	-5.05534E-002	-5.06256E-002	6.66146E-004	...........
	21	5.68333	-5.06048E-002	-5.07075E-002	6.65579E-004	...........
	22	5.94167	-5.06442E-002	-5.09220E-002	6.57646E-004	...........
	23	6.2	-5.06867E-002	-5.07540E-002	6.61713E-004	...........
	24	6.45833	-5.07378E-002	-5.08074E-002	6.69346E-004	...........
	25	6.71667	-5.07799E-002	-5.08282E-002	6.67479E-004	...........
	26	6.975	-5.08028E-002	-5.08506E-002	6.70413E-004	...........
	27	7.23333	-5.08163E-002	-5.08826E-002	6.65046E-004	...........
	28	7.49167	-5.08312E-002	-5.08706E-002	6.71246E-004	...........
	29	7.75	-5.08485E-002	-5.08895E-002	6.75812E-004	...........
	30	8.00833	-5.08644E-002	-5.09002E-002	6.69946E-004	...........
	31	8.26667	-5.08774E-002	-5.09160E-002	6.68446E-004	...........
	32	8.525	-5.08895E-002	-5.09471E-002	6.64813E-004	...........
	33	8.78333	-5.09037E-002	-5.09717E-002	6.71213E-004	...........
	34	9.04167	-5.09212E-002	-5.09551E-002	6.68079E-004	...........
	35	9.3	-5.09392E-002	-5.09737E-002	6.69713E-004	...........
	36	9.5583	-5.09535E-002	-5.09720E-002	6.68946E-004	...........
	37	9.8167	-5.09627E-002	-5.09678E-002	6.71313E-004	...........
	38	10.075	-5.09678E-002	-5.09746E-002	6.69179E-004	...........
EOC	QUANT	-0.0509678	Open Circuit (V)
PSTATMODEL	IQUANT	4	Pstat Model
PSTATSECTION	LABEL	REF600-11020	Pstat Section
PSTATSERIALNO	LABEL	11020	Pstat Serial Number
CTRLMODE	IQUANT	1	Control Mode
IESTAB	IQUANT	0	I/E Stability
CASPEED	IQUANT	1	Control Amp Speed
CONVENTION	IQUANT	1	Current Convention
ICHRANGE	IQUANT	2	Ich Range
ICHRANGEMODE	TOGGLE	F	Ich Auto Range
ICHOFFSETENABLE	TOGGLE	T	Ich Offset Enable
ICHOFFSET	QUANT	0	Ich Offset (V)
ICHFILTER	IQUANT	3	Ich Filter
VCHRANGE	IQUANT	2	Vch Range
VCHRANGEMODE	TOGGLE	F	Vch Auto Range
VCHOFFSETENABLE	TOGGLE	T	Vch Offset Enable
VCHOFFSET	QUANT	0	Vch Offset (V)
VCHFILTER	IQUANT	3	Vch Filter
ACHRANGE	IQUANT	2	Ach Range
ACHOFFSETENABLE	TOGGLE	F	Ach Offset Enable
ACHOFFSET	QUANT	0	Ach Offset (V)
ACHFILTER	IQUANT	3	Ach Filter
IERANGELOWERLIMIT	IQUANT	1	I/E Range Lower Limit
IERANGEMODE	TOGGLE	F	I/E AutoRange
IERANGE	IQUANT	8	I/E Range
POSFEEDENABLE	TOGGLE	F	Positive Feedback IR Comp
POSFEEDRESISTANCE	QUANT	0	Positive Feedback Resistance (ohm)
ACHSELECT	IQUANT	0	Ach Select
CABLEID	IQUANT	14	Cable ID
DCCALDATE	LABEL	12/22/2019	DC Calibration Date
ACCALDATE	LABEL	12/22/2019	AC Calibration Date
THERMOSELECT	IQUANT	1	Thermo Select
FRAMEWORKVERSION	QUANT	6.33	Framework Version
INSTRUMENTVERSION	LABEL	3.50	Instrument Version
ZCURVE	TABLE
	Pt	Time	Freq	Zreal	Zimag	Zsig	Zmod	Zphz	Idc	Vdc	IERange
	#	s	Hz	ohm	ohm	V	ohm	°	A	V	#
	0	1	1000078	2399.677	-1877.445	1	3046.842	-38.0387	-9.689601E-007	-0.048488	8
	1	2	794390.6	2766.736	-1887.603	1	3349.31	-34.30373	-1.018409E-006	-0.0489654	8
	2	2	630984.4	3130.509	-1850.371	1	3636.476	-30.58635	2.050286E-006	-0.0497251	8
	3	2	501234.4	3472.687	-1755.773	1	3891.31	-26.82093	3.381885E-006	-0.0500097	8
	4	2	398109.4	3769.291	-1652.322	1	4115.546	-23.67093	1.102161E-006	-0.0496595	8
	5	3	316265.6	4035.736	-1525.611	1	4314.47	-20.70787	-3.318447E-008	-0.0494183	8
	6	3	251203.1	4243.459	-1322.972	1	4444.907	-17.31577	1.631312E-006	-0.0497159	8
	7	3	199546.9	4429.056	-1218.438	1	4593.597	-15.38163	3.293459E-006	-0.0500176	8
	8	4	158578.1	4562.97	-1080.793	1	4689.222	-13.3256	-1.367285E-006	-0.0491058	8
	9	4	125953.1	4690.375	-944.3156	1	4784.49	-11.38321	4.237845E-008	-0.0494129	7
	10	4	100078.1	4772.518	-848.68	1	4847.389	-10.0833	2.365717E-008	-0.0494607	7
	11	5	79453.13	4850.625	-791.8923	1	4914.841	-9.272066	6.648803E-008	-0.0495853	7
	12	5	63140.62	4919.955	-752.3846	1	4977.151	-8.694604	-4.002647E-008	-0.0493928	7
	13	5	50203.12	4983.752	-734.836	1	5037.636	-8.387617	-4.81401E-008	-0.0493812	7
	14	6	39890.62	5044.62	-735.1857	1	5097.91	-8.291718	-4.024525E-008	-0.0494139	7
	15	6	31640.63	5107.718	-756.8708	1	5163.491	-8.428856	-2.130048E-008	-0.0494529	7
	16	6	25171.88	5173.089	-796.8237	1	5234.098	-8.756591	-9.959897E-009	-0.0494131	7
	17	6	20015.62	5241.555	-856.9045	1	5311.138	-9.284743	-2.04113E-008	-0.0494564	7
	18	7	15890.62	5320.556	-940.1058	1	5402.973	-10.02035	-2.061602E-008	-0.0494568	7
	19	7	12609.37	5407.079	-1044.843	1	5507.104	-10.93682	1.757043E-008	-0.0495249	7
	20	7	10078.13	5501.244	-1167.636	1	5623.794	-11.98316	1.823458E-008	-0.0495299	7
	21	8	8015.625	5606.88	-1322.698	1	5760.784	-13.27375	2.091769E-009	-0.0495162	7
	22	8	6328.125	5734.364	-1515.168	1	5931.161	-14.80078	-1.654829E-008	-0.049338	7
	23	8	5015.625	5870.065	-1736.525	1	6121.535	-16.47965	-3.782238E-008	-0.0494289	7
	24	9	3984.375	6018.984	-1996.742	1	6341.542	-18.35278	-3.578961E-008	-0.0494455	7
	25	9	3170.956	6194.153	-2310.613	1	6611.086	-20.45709	7.123109E-008	-0.049588	7
	26	9	2527.573	6376.783	-2677.78	1	6916.204	-22.77882	5.061748E-008	-0.0494592	7
	27	9	1976.103	6601.783	-3154.851	1	7316.873	-25.54214	5.118678E-008	-0.0494608	7
	28	10	1577.524	6813.649	-3694.94	1	7751.025	-28.47032	6.905343E-008	-0.0496029	7
	29	10	1265.625	7075.176	-4307.769	1	8283.417	-31.33543	-2.680495E-008	-0.0493631	7
	30	10	998.264	7371.452	-5124.435	1	8977.646	-34.80599	5.134986E-008	-0.0494657	7
	31	11	796.875	7697.293	-6059.222	1	9796.04	-38.20942	-5.151907E-009	-0.0493928	6
	32	11	627.7902	8091.479	-7272.049	1	10879.1	-41.94696	-4.724242E-009	-0.0493908	6
	33	11	505.5147	8499.452	-8612.669	1	12100.36	-45.37907	-3.891744E-009	-0.0493394	6
	34	12	397.9953	9039.999	-10406.22	1	13784.45	-49.0188	5.139963E-010	-0.0494512	6
	35	12	315.5048	9663.1	-12539.66	1	15830.94	-52.38202	6.532085E-010	-0.049457	6
	36	12	252.4038	10374.6	-15021.96	1	18256.27	-55.36991	6.884553E-010	-0.0494634	6
	37	13	198.6229	11294.55	-18266.09	1	21475.96	-58.27008	3.425109E-010	-0.0494594	6
	38	13	158.3615	12344.42	-22000.4	1	25227.01	-60.70323	4.823464E-010	-0.0494618	6
	39	13	125.558	13648.36	-26633.71	1	29927.12	-62.86727	3.040791E-010	-0.0494554	6
	40	14	100.4464	15191.08	-32053.03	1	35470.63	-64.64204	3.785436E-010	-0.0494649	6
	41	14	79.00281	17219.44	-39111.27	1	42734.07	-66.23764	6.547368E-010	-0.049464	6
	42	14	63.3446	19512.57	-47382.69	1	51243.14	-67.61774	4.488323E-010	-0.0494686	6
	43	15	49.86702	22494.88	-57758.68	1	61984.55	-68.72092	9.15267E-011	-0.0494694	6
	44	15	39.72458	26388.78	-69632.84	1	74465.43	-69.24477	2.710837E-010	-0.0494587	6
	45	15	31.6723	31300.58	-84241.23	1	89868.3	-69.617	-1.459783E-010	-0.0494646	6
	46	16	24.93351	38114.7	-102556.4	1	109410	-69.61261	2.756278E-010	-0.0494682	5
	47	16	19.86229	46597.42	-123598.3	1	132090.4	-69.34322	4.922267E-010	-0.049474	5
	48	16	15.83615	56997.32	-148351.5	1	158924.1	-68.98299	9.228776E-011	-0.0494671	5
	49	16	12.40079	74596.98	-178401.3	1	193369.5	-67.30818	1.062767E-009	-0.0494731	5
	50	17	9.93114	92869.8	-210976.5	1	230512.2	-66.24137	4.532606E-010	-0.0494684	5
	51	17	7.944915	116710.6	-247757.8	1	273870.9	-64.77641	3.851934E-010	-0.0494763	5
	52	18	6.317385	146973.3	-288230.4	1	323539.7	-62.98223	-2.448638E-011	-0.0494731	5
	53	18	5.008013	184315.6	-333170.1	1	380755.2	-61.04785	-2.155964E-010	-0.0494843	5
	54	20	3.945707	229566.4	-382384.5	1	446003	-59.0213	5.357679E-011	-0.0494822	5
	55	21	3.158693	277031.7	-431168.7	1	512496.8	-57.27871	-6.427326E-011	-0.0494602	5
	56	23	2.504006	333527.6	-485837.1	1	589303.3	-55.53037	-2.208697E-010	-0.0494699	5
	57	24	1.998082	390366.7	-542717.1	1	668526.8	-54.27321	-1.475957E-010	-0.0494751	5
	58	25	1.584686	456471.3	-608447.6	1	760640.9	-53.12193	-4.267478E-011	-0.0494349	5
	59	27	1.266892	524135.7	-682808.9	1	860782.4	-52.48954	-2.515579E-011	-0.0494432	5
	60	30	0.999041	601640	-772872	1	979440	-52.10113	-4.260311E-011	-0.049468	5
