EXPLAIN
TAG	EISPOT
TITLE	LABEL	Potentiostatic EIS	Test &Identifier
DATE	LABEL	3/17/2020	Date
TIME	LABEL	16:28:54	Time
NOTES	NOTES	1	&Notes...
	
PSTAT	PSTAT	REF600-11020	Potentiostat
VDC	POTEN	0.00000E+000	T	DC &Voltage (V)
FREQINIT	QUANT	1.00000E+006	Initial Fre&q. (Hz)
FREQFINAL	QUANT	1.00000E+000	Final Fre&q. (Hz)
PTSPERDEC	QUANT	1.00000E+001	Points/&decade
VAC	QUANT	2.50000E+001	AC &Voltage (mV rms)
AREA	QUANT	4.00000E-004	&Area (cm^2)
CONDIT	TWOPARAM	F	5.00000E+000	0.00000E+000	Conditionin&g	Time(s)	E(V)
DELAY	TWOPARAM	T	3.00000E+000	0.00000E+000	Init. De&lay	Time(s)	Stab.(mV/s)
SPEED	SELECTOR	0	&Optimize for:
ZGUESS	QUANT	5.00000E+003	E&stimated Z (ohms)
OCVCURVE	TABLE	12
	Pt	T	Vf	Vm	Ach	Over
	#	s	V vs. Ref.	V	V	bits
	0	0.258333	-3.18979E-002	-3.18979E-002	5.74563E-004	...........
	1	0.516667	-3.19020E-002	-3.21146E-002	5.76263E-004	...........
	2	0.775	-3.19275E-002	-3.23215E-002	5.72230E-004	...........
	3	1.03333	-3.19994E-002	-3.25115E-002	5.71030E-004	...........
	4	1.29167	-3.21275E-002	-3.26889E-002	5.70397E-004	...........
	5	1.55	-3.22961E-002	-3.28596E-002	5.71230E-004	...........
	6	1.80833	-3.24807E-002	-3.30214E-002	5.70363E-004	...........
	7	2.06667	-3.26638E-002	-3.31721E-002	5.66397E-004	...........
	8	2.325	-3.28377E-002	-3.33153E-002	5.66230E-004	...........
	9	2.58333	-3.30010E-002	-3.34473E-002	5.70830E-004	...........
	10	2.84167	-3.31540E-002	-3.35825E-002	5.68830E-004	...........
	11	3.1	-3.32984E-002	-3.37085E-002	5.73430E-004	...........
EOC	QUANT	-0.0332984	Open Circuit (V)
PSTATMODEL	IQUANT	4	Pstat Model
PSTATSECTION	LABEL	REF600-11020	Pstat Section
PSTATSERIALNO	LABEL	11020	Pstat Serial Number
CTRLMODE	IQUANT	1	Control Mode
IESTAB	IQUANT	0	I/E Stability
CASPEED	IQUANT	1	Control Amp Speed
CONVENTION	IQUANT	1	Current Convention
ICHRANGE	IQUANT	2	Ich Range
ICHRANGEMODE	TOGGLE	F	Ich Auto Range
ICHOFFSETENABLE	TOGGLE	T	Ich Offset Enable
ICHOFFSET	QUANT	0	Ich Offset (V)
ICHFILTER	IQUANT	3	Ich Filter
VCHRANGE	IQUANT	2	Vch Range
VCHRANGEMODE	TOGGLE	F	Vch Auto Range
VCHOFFSETENABLE	TOGGLE	T	Vch Offset Enable
VCHOFFSET	QUANT	0	Vch Offset (V)
VCHFILTER	IQUANT	3	Vch Filter
ACHRANGE	IQUANT	2	Ach Range
ACHOFFSETENABLE	TOGGLE	F	Ach Offset Enable
ACHOFFSET	QUANT	0	Ach Offset (V)
ACHFILTER	IQUANT	3	Ach Filter
IERANGELOWERLIMIT	IQUANT	1	I/E Range Lower Limit
IERANGEMODE	TOGGLE	F	I/E AutoRange
IERANGE	IQUANT	7	I/E Range
POSFEEDENABLE	TOGGLE	F	Positive Feedback IR Comp
POSFEEDRESISTANCE	QUANT	0	Positive Feedback Resistance (ohm)
ACHSELECT	IQUANT	0	Ach Select
CABLEID	IQUANT	14	Cable ID
DCCALDATE	LABEL	2/27/2020	DC Calibration Date
ACCALDATE	LABEL	2/27/2020	AC Calibration Date
THERMOSELECT	IQUANT	1	Thermo Select
FRAMEWORKVERSION	QUANT	6.33	Framework Version
INSTRUMENTVERSION	LABEL	3.50	Instrument Version
ZCURVE	TABLE
	Pt	Time	Freq	Zreal	Zimag	Zsig	Zmod	Zphz	Idc	Vdc	IERange
	#	s	Hz	ohm	ohm	V	ohm	°	A	V	#
	0	1	1000078	1995.574	-2321.037	1	3060.969	-49.31181	2.504885E-008	-0.0308653	8
	1	1	794390.6	2413.832	-2521.866	1	3490.902	-46.25391	1.300326E-007	-0.0312286	8
	2	2	630984.4	2873.852	-2682.309	1	3931.133	-43.02557	2.338971E-008	-0.0313514	8
	3	2	501234.4	3355.628	-2795.508	1	4367.506	-39.79702	6.600573E-008	-0.0314575	8
	4	2	398109.4	3845.932	-2859.498	1	4792.486	-36.63126	4.323551E-008	-0.0315087	8
	5	3	316265.6	4325.953	-2886.573	1	5200.594	-33.71394	6.063829E-008	-0.0315375	8
	6	3	251203.1	4782.873	-2877.557	1	5581.774	-31.03271	8.575536E-008	-0.031549	8
	7	3	199546.9	5216.322	-2859.726	1	5948.786	-28.73272	4.847737E-008	-0.0315487	8
	8	4	158578.1	5616.535	-2841.249	1	6294.296	-26.83358	4.965537E-008	-0.0315501	8
	9	4	125953.1	6074.128	-2755.053	1	6669.733	-24.3977	1.223652E-008	-0.0316155	7
	10	4	100078.1	6403.437	-2786.027	1	6983.262	-23.51305	3.307455E-009	-0.0316232	7
	11	5	79453.13	6742.25	-2861.636	1	7324.404	-22.99799	2.379168E-009	-0.0316288	7
	12	5	63140.62	7083.667	-2974.481	1	7682.83	-22.77788	3.956281E-009	-0.0316232	7
	13	5	50203.12	7427.55	-3124.571	1	8058.005	-22.81518	2.266039E-009	-0.0316356	7
	14	6	39890.62	7788.787	-3324.342	1	8468.557	-23.11334	3.013044E-009	-0.0316385	7
	15	6	31640.63	8170.078	-3573.494	1	8917.401	-23.62399	2.583428E-009	-0.0316438	7
	16	6	25171.88	8572.944	-3877.179	1	9408.926	-24.33522	2.731118E-009	-0.0316346	7
	17	7	20015.62	9012.616	-4246.712	1	9963.02	-25.22964	3.332445E-009	-0.0316377	7
	18	7	15890.62	9492.062	-4679.811	1	10583	-26.24439	2.562031E-009	-0.0316376	7
	19	7	12609.37	10147.34	-5054.081	1	11336.32	-26.4765	1.095909E-009	-0.0315833	6
	20	7	10078.13	10704.29	-5655.307	1	12106.37	-27.84846	1.028702E-009	-0.031581	6
	21	8	8015.625	11345.8	-6360	1	13006.8	-29.27324	9.515071E-010	-0.0315847	6
	22	8	6328.125	12090.34	-7193.999	1	14068.76	-30.75351	1.030729E-009	-0.0315842	6
	23	8	5015.625	12932.19	-8138.276	1	15279.83	-32.18235	8.82585E-010	-0.0315915	6
	24	9	3984.375	13871.48	-9202.484	1	16646.43	-33.56071	7.62254E-010	-0.0315884	6
	25	9	3170.956	14932.44	-10402.74	1	18198.76	-34.86314	9.525866E-010	-0.0315915	6
	26	9	2527.573	16137.96	-11757.39	1	19966.72	-36.0754	8.236583E-010	-0.0315931	6
	27	10	1976.103	17629.15	-13415.79	1	22153.34	-37.27113	7.780162E-010	-0.0315962	6
	28	10	1577.524	19192.53	-15143.03	1	24447.18	-38.27367	7.266002E-010	-0.0316003	6
	29	10	1265.625	20933.88	-17040.86	1	26992.93	-39.1467	8.108116E-010	-0.0315982	6
	30	11	998.264	23064.09	-19324.1	1	30089.42	-39.95773	7.630098E-010	-0.0316005	6
	31	11	796.875	25368	-21767.07	1	33426.65	-40.63132	8.584697E-010	-0.0315979	6
	32	11	627.7902	28142.46	-24632.06	1	37399.68	-41.19447	9.967213E-010	-0.0315978	6
	33	12	505.5147	30950.94	-27572.83	1	41451.44	-41.69644	6.997044E-010	-0.0316022	6
	34	12	397.9953	34546.74	-31167.95	1	46528.68	-42.05667	7.865251E-010	-0.0315934	6
	35	12	315.5048	38479.32	-35072.97	1	52065.07	-42.34842	7.287341E-010	-0.0315883	6
	36	13	252.4038	42757.28	-39247.92	1	58039.5	-42.54956	6.370346E-010	-0.0315913	6
	37	13	198.6229	47970.11	-44231.06	1	65249.66	-42.67775	6.487564E-010	-0.0315903	6
	38	13	158.3615	53558.71	-49443.83	1	72891.89	-42.71229	7.587451E-010	-0.0315934	6
	39	14	125.558	60058.27	-55336.11	1	81664.45	-42.65665	8.643204E-010	-0.0315936	6
	40	14	100.4464	67118.26	-61544.43	1	91063.59	-42.51942	7.333848E-010	-0.0315953	6
	41	14	79.00281	75783.39	-68680.05	1	102274.5	-42.18501	3.493121E-010	-0.0315929	5
	42	15	63.3446	84698.45	-75941.53	1	113758.3	-41.87974	2.74751E-010	-0.0315913	5
	43	15	49.86702	95536.5	-84383.84	1	127467.1	-41.45296	3.668228E-010	-0.0315986	5
	44	15	39.72458	107040	-92939	1	141757.6	-40.96661	5.927641E-010	-0.0315937	5
	45	16	31.6723	119697.8	-101972	1	157244.6	-40.42809	8.57534E-010	-0.0315965	5
	46	16	24.93351	134393.5	-111976.5	1	174929.6	-39.80103	6.328139E-012	-0.0316001	5
	47	16	19.86229	149467.5	-122136.2	1	193022.7	-39.25372	5.178004E-010	-0.0315965	5
	48	16	15.83615	165600.2	-132811.9	1	212279.2	-38.72973	-1.791784E-010	-0.0316023	5
	49	17	12.40079	184289	-145190.7	1	234612	-38.23254	-1.337294E-009	-0.0315904	5
	50	17	9.93114	201471.8	-158275.7	1	256207.1	-38.15307	-1.042375E-009	-0.0315987	5
	51	17	7.944915	220753.8	-172266	1	280014	-37.96681	1.240312E-009	-0.0315984	5
	52	18	6.317385	241807	-189295.3	1	307088.4	-38.05512	4.768208E-012	-0.0315875	5
	53	19	5.008013	264465.7	-209107	1	337146.6	-38.33261	-2.734875E-010	-0.0316046	5
	54	20	3.945707	289658	-231439.8	1	370764.3	-38.62523	3.291145E-010	-0.0315922	5
	55	20	3.158693	314682.9	-256740.2	1	406129.1	-39.20996	4.126236E-012	-0.0316116	5
	56	21	2.504006	343003.4	-286268.7	1	446767.4	-39.84818	4.363809E-010	-0.031607	5
	57	23	1.998082	372707.4	-321217.2	1	492027.8	-40.75635	5.659586E-010	-0.0315796	5
	58	24	1.584686	405659	-361956.6	1	543665.2	-41.74152	3.829918E-010	-0.031629	5
	59	26	1.266892	442724.5	-409493.1	1	603066.8	-42.76693	2.903139E-010	-0.031641	5
	60	29	0.999041	486358.3	-470027.7	1	676365.6	-44.02175	2.450032E-010	-0.03164	5
