EXPLAIN
TAG	EISPOT
TITLE	LABEL	Potentiostatic EIS	Test &Identifier
DATE	LABEL	6/26/2020	Date
TIME	LABEL	14:26:32	Time
NOTES	NOTES	1	&Notes...
	
PSTAT	PSTAT	REF600-11020	Potentiostat
VDC	POTEN	0.00000E+000	T	DC &Voltage (V)
FREQINIT	QUANT	1.00000E+006	Initial Fre&q. (Hz)
FREQFINAL	QUANT	1.00000E+000	Final Fre&q. (Hz)
PTSPERDEC	QUANT	1.00000E+001	Points/&decade
VAC	QUANT	2.50000E+001	AC &Voltage (mV rms)
AREA	QUANT	4.00000E-004	&Area (cm^2)
CONDIT	TWOPARAM	F	5.00000E+000	0.00000E+000	Conditionin&g	Time(s)	E(V)
DELAY	TWOPARAM	F	3.00000E+000	0.00000E+000	Init. De&lay	Time(s)	Stab.(mV/s)
SPEED	SELECTOR	0	&Optimize for:
ZGUESS	QUANT	1.00000E+003	E&stimated Z (ohms)
OCVCURVE	TABLE	39
	Pt	T	Vf	Vm	Ach	Over
	#	s	V vs. Ref.	V	V	bits
	0	0.258333	9.45050E-002	9.45050E-002	5.32350E-004	...........
	1	0.516667	9.45047E-002	9.44896E-002	5.32250E-004	...........
	2	0.775	9.45029E-002	9.44762E-002	5.29216E-004	...........
	3	1.03333	9.44978E-002	9.44570E-002	5.23117E-004	...........
	4	1.29167	9.44885E-002	9.44450E-002	5.31883E-004	...........
	5	1.55	9.44756E-002	9.44320E-002	5.26717E-004	...........
	6	1.80833	9.44612E-002	9.44164E-002	5.27483E-004	...........
	7	2.06667	9.44465E-002	9.43975E-002	5.22250E-004	...........
	8	2.325	9.44316E-002	9.43846E-002	5.20617E-004	...........
	9	2.58333	9.44163E-002	9.43703E-002	5.24883E-004	...........
	10	2.84167	9.44010E-002	9.43561E-002	5.21783E-004	...........
	11	3.1	9.43860E-002	9.43457E-002	5.22517E-004	...........
	12	3.35833	9.43718E-002	9.43274E-002	5.24017E-004	...........
	13	3.61667	9.43580E-002	9.43145E-002	5.23517E-004	...........
	14	3.875	9.43441E-002	9.43011E-002	5.23083E-004	...........
	15	4.13333	9.43300E-002	9.42883E-002	5.30450E-004	...........
	16	4.39167	9.43161E-002	9.42736E-002	5.25383E-004	...........
	17	4.65	9.43023E-002	9.42601E-002	5.26050E-004	...........
	18	4.90833	9.42886E-002	9.42456E-002	5.19117E-004	...........
	19	5.16667	9.42749E-002	9.42346E-002	5.23250E-004	...........
	20	5.425	9.42612E-002	9.42177E-002	5.24283E-004	...........
	21	5.68333	9.42476E-002	9.42066E-002	5.26217E-004	...........
	22	5.94167	9.42340E-002	9.41948E-002	5.25250E-004	...........
	23	6.2	9.42207E-002	9.41815E-002	5.30883E-004	...........
	24	6.45833	9.42078E-002	9.41678E-002	5.27817E-004	...........
	25	6.71667	9.41951E-002	9.41587E-002	5.27450E-004	...........
	26	6.975	9.41826E-002	9.41443E-002	5.26483E-004	...........
	27	7.23333	9.41703E-002	9.41353E-002	5.26883E-004	...........
	28	7.49167	9.41583E-002	9.41208E-002	5.20917E-004	...........
	29	7.75	9.41465E-002	9.41107E-002	5.22117E-004	...........
	30	8.00833	9.41346E-002	9.40950E-002	5.22250E-004	...........
	31	8.26667	9.41225E-002	9.40835E-002	5.20083E-004	...........
	32	8.525	9.41100E-002	9.40736E-002	5.20783E-004	...........
	33	8.78333	9.40975E-002	9.40613E-002	5.23783E-004	...........
	34	9.04167	9.40855E-002	9.40514E-002	5.26083E-004	...........
	35	9.3	9.40740E-002	9.40403E-002	5.23417E-004	...........
	36	9.5583	9.40629E-002	9.40301E-002	5.22983E-004	...........
	37	9.8167	9.40520E-002	9.40186E-002	5.15717E-004	...........
	38	10.075	9.40412E-002	9.40047E-002	5.23183E-004	...........
EOC	QUANT	0.0940412	Open Circuit (V)
PSTATMODEL	IQUANT	4	Pstat Model
PSTATSECTION	LABEL	REF600-11020	Pstat Section
PSTATSERIALNO	LABEL	11020	Pstat Serial Number
CTRLMODE	IQUANT	1	Control Mode
IESTAB	IQUANT	0	I/E Stability
CASPEED	IQUANT	1	Control Amp Speed
CONVENTION	IQUANT	1	Current Convention
ICHRANGE	IQUANT	2	Ich Range
ICHRANGEMODE	TOGGLE	F	Ich Auto Range
ICHOFFSETENABLE	TOGGLE	T	Ich Offset Enable
ICHOFFSET	QUANT	0	Ich Offset (V)
ICHFILTER	IQUANT	3	Ich Filter
VCHRANGE	IQUANT	2	Vch Range
VCHRANGEMODE	TOGGLE	F	Vch Auto Range
VCHOFFSETENABLE	TOGGLE	T	Vch Offset Enable
VCHOFFSET	QUANT	0	Vch Offset (V)
VCHFILTER	IQUANT	3	Vch Filter
ACHRANGE	IQUANT	2	Ach Range
ACHOFFSETENABLE	TOGGLE	F	Ach Offset Enable
ACHOFFSET	QUANT	0	Ach Offset (V)
ACHFILTER	IQUANT	3	Ach Filter
IERANGELOWERLIMIT	IQUANT	1	I/E Range Lower Limit
IERANGEMODE	TOGGLE	F	I/E AutoRange
IERANGE	IQUANT	8	I/E Range
POSFEEDENABLE	TOGGLE	F	Positive Feedback IR Comp
POSFEEDRESISTANCE	QUANT	0	Positive Feedback Resistance (ohm)
ACHSELECT	IQUANT	0	Ach Select
CABLEID	IQUANT	14	Cable ID
DCCALDATE	LABEL	6/26/2020	DC Calibration Date
ACCALDATE	LABEL	6/26/2020	AC Calibration Date
THERMOSELECT	IQUANT	1	Thermo Select
FRAMEWORKVERSION	QUANT	6.33	Framework Version
INSTRUMENTVERSION	LABEL	3.50	Instrument Version
ZCURVE	TABLE
	Pt	Time	Freq	Zreal	Zimag	Zsig	Zmod	Zphz	Idc	Vdc	IERange
	#	s	Hz	ohm	ohm	V	ohm	°	A	V	#
	0	1	1000078	1457.765	-2494.558	1	2889.273	-59.69892	1.092766E-007	0.0965159	8
	1	1	794390.6	1789.611	-2900.099	1	3407.826	-58.32184	1.289765E-008	0.0961819	8
	2	2	630984.4	2208.679	-3332.469	1	3997.951	-56.46456	-1.517207E-008	0.0960276	8
	3	2	501234.4	2724.927	-3781.904	1	4661.333	-54.22659	5.694885E-008	0.0959172	8
	4	2	398109.4	3352.42	-4220.902	1	5390.245	-51.5419	1.216818E-007	0.0958342	8
	5	3	316265.6	4063.04	-4659.837	1	6182.425	-48.91394	7.026333E-008	0.0957874	8
	6	3	251203.1	4879.54	-5040.914	1	7015.749	-45.93194	-5.89708E-009	0.0958118	8
	7	3	199546.9	5767.833	-5361.106	1	7874.602	-42.90696	1.747396E-008	0.0957853	8
	8	4	158578.1	6728.115	-5580.425	1	8741.205	-39.67295	5.497801E-008	0.0958067	8
	9	4	125953.1	7791.926	-5674.4	1	9639.14	-36.06364	-1.291256E-008	0.0958074	7
	10	4	100078.1	8765.944	-5780.736	1	10500.41	-33.40301	-9.679477E-009	0.0957536	7
	11	5	79453.13	9705.62	-5817.628	1	11315.64	-30.93883	-1.180287E-010	0.0957429	7
	12	5	63140.62	10611.44	-5808.224	1	12097.03	-28.6943	9.066511E-009	0.0957428	7
	13	5	50203.12	11480.92	-5778.032	1	12852.91	-26.71485	7.728984E-009	0.0957454	7
	14	6	39890.62	12329.57	-5753.999	1	13606.13	-25.01766	-1.090872E-008	0.0957477	7
	15	6	31640.63	13140.23	-5730.929	1	14335.59	-23.56376	-1.13816E-008	0.0957463	7
	16	6	25171.88	13911.55	-5730.351	1	15045.53	-22.38741	-5.750197E-009	0.0957481	7
	17	7	20015.62	14666.82	-5773.471	1	15762.25	-21.48667	8.534715E-009	0.0957327	7
	18	7	15890.62	15424.92	-5859.313	1	16500.29	-20.79979	-1.089387E-008	0.0957414	7
	19	7	12609.37	16290.65	-5804.481	1	17293.85	-19.61137	-1.52204E-009	0.0957531	6
	20	8	10078.13	17000.83	-6014.305	1	18033.31	-19.48201	1.738373E-009	0.0957045	6
	21	8	8015.625	17737.46	-6288.536	1	18819.23	-19.52115	-1.227001E-009	0.0957264	6
	22	8	6328.125	18536.5	-6643.776	1	19691.15	-19.71849	1.612117E-009	0.0957026	6
	23	8	5015.625	19349.01	-7071.337	1	20600.68	-20.07547	-1.779257E-009	0.0957361	6
	24	9	3984.375	20206.65	-7580.158	1	21581.65	-20.56267	1.228789E-009	0.0956943	6
	25	9	3170.956	21105.24	-8178.558	1	22634.49	-21.182	9.109401E-010	0.0957143	6
	26	9	2527.573	22054.83	-8883.105	1	23776.56	-21.93828	8.170258E-010	0.0956932	6
	27	10	1976.103	23175.65	-9786.55	1	25157.25	-22.89323	1.608224E-009	0.0956924	6
	28	10	1577.524	24287.21	-10753.06	1	26561.19	-23.88117	4.479295E-010	0.0956926	6
	29	10	1265.625	25482.51	-11851.64	1	28103.73	-24.94263	1.337738E-009	0.0957075	6
	30	11	998.264	26899.72	-13223.33	1	29974.18	-26.17776	-2.875266E-010	0.0957054	6
	31	11	796.875	28410.79	-14719.96	1	31997.66	-27.38919	9.001782E-010	0.0957122	6
	32	11	627.7902	30178.97	-16543.87	1	34416.13	-28.7312	-1.241637E-009	0.0957187	6
	33	12	505.5147	31979.49	-18443.51	1	36916.81	-29.9733	-3.399822E-010	0.0956986	6
	34	12	397.9953	34216.65	-20805.48	1	40045.56	-31.30175	1.051245E-010	0.0957419	6
	35	12	315.5048	36654.61	-23422.61	1	43499.18	-32.57893	1.311696E-010	0.0957361	6
	36	13	252.4038	39260.74	-26269.35	1	47238.59	-33.78646	1.5402E-010	0.0957305	6
	37	13	198.6229	42374.82	-29738.63	1	51768.83	-35.06116	7.080062E-011	0.0957371	6
	38	13	158.3615	45644.63	-33478.02	1	56605.75	-36.25816	1.29369E-010	0.0957279	6
	39	14	125.558	49335.24	-37851.89	1	62183.05	-37.49681	1.179586E-010	0.0957261	6
	40	14	100.4464	53213.5	-42667.63	1	68207.06	-38.72333	5.07437E-011	0.0957211	6
	41	14	79.00281	57788.33	-48680.59	1	75559.85	-40.11061	4.347895E-011	0.0957265	6
	42	15	63.3446	62390.9	-55147.34	1	83269.77	-41.47348	4.255525E-011	0.0957266	6
	43	15	49.86702	67817.59	-63399.63	1	92837.16	-43.07163	-3.610418E-011	0.0957249	6
	44	15	39.72458	73481.82	-72641.59	1	103326.6	-44.67054	5.457491E-011	0.0957162	5
	45	16	31.6723	79706.91	-83749.07	1	115616.2	-46.4166	3.416889E-011	0.0957171	5
	46	16	24.93351	87095.85	-97885.6	1	131024	-48.33822	-2.600431E-010	0.0957126	5
	47	16	19.86229	95109.2	-114115	1	148553	-50.19045	-3.035454E-010	0.0957163	5
	48	16	15.83615	104375.1	-133570.5	1	169514.7	-51.99509	2.389748E-010	0.0957153	5
	49	17	12.40079	116401.6	-158793.7	1	196887.7	-53.75721	-3.48861E-010	0.0957169	5
	50	17	9.93114	129387.2	-186344.9	1	226860	-55.22611	-9.076642E-011	0.0957123	5
	51	17	7.944915	145109.7	-218683.7	1	262448.7	-56.43335	7.491462E-010	0.0957107	5
	52	18	6.317385	165211.4	-258167.8	1	306505.2	-57.38328	-1.590808E-010	0.095734	5
	53	19	5.008013	190108.5	-304945.9	1	359351.2	-58.05988	-1.470687E-010	0.0957163	5
	54	20	3.945707	220717.6	-360201	1	422446.5	-58.5016	2.190967E-010	0.0957196	5
	55	20	3.158693	255875.3	-419593.2	1	491457.6	-58.62443	-8.263815E-011	0.095721	5
	56	21	2.504006	298057.3	-490218.9	1	573718.3	-58.70004	-4.875501E-011	0.0957028	5
	57	23	1.998082	346359.4	-567820.8	1	665120.5	-58.61763	1.038172E-010	0.095747	5
	58	24	1.584686	400533.7	-660545.8	1	772494.7	-58.76873	3.661382E-011	0.0957321	5
	59	26	1.266892	460813	-761805	1	890334.5	-58.83041	-3.744256E-011	0.0956934	5
	60	29	0.999041	534572.5	-890233.4	1	1038404	-59.01578	-9.679864E-011	0.095665	4
