EXPLAIN
TAG	EISPOT
TITLE	LABEL	Potentiostatic EIS	Test &Identifier
DATE	LABEL	3/12/2020	Date
TIME	LABEL	14:04:50	Time
NOTES	NOTES	1	&Notes...
	
PSTAT	PSTAT	REF600-11020	Potentiostat
VDC	POTEN	0.00000E+000	T	DC &Voltage (V)
FREQINIT	QUANT	1.00000E+006	Initial Fre&q. (Hz)
FREQFINAL	QUANT	1.00000E+000	Final Fre&q. (Hz)
PTSPERDEC	QUANT	1.00000E+001	Points/&decade
VAC	QUANT	2.50000E+001	AC &Voltage (mV rms)
AREA	QUANT	2.50000E-001	&Area (cm^2)
CONDIT	TWOPARAM	F	5.00000E+000	0.00000E+000	Conditionin&g	Time(s)	E(V)
DELAY	TWOPARAM	T	5.00000E+000	0.00000E+000	Init. De&lay	Time(s)	Stab.(mV/s)
SPEED	SELECTOR	1	&Optimize for:
ZGUESS	QUANT	5.00000E+003	E&stimated Z (ohms)
OCVCURVE	TABLE	19
	Pt	T	Vf	Vm	Ach	Over
	#	s	V vs. Ref.	V	V	bits
	0	0.258333	-7.88174E-003	-7.88174E-003	5.68297E-004	...........
	1	0.516667	-7.88225E-003	-7.90841E-003	5.68330E-004	...........
	2	0.775	-7.88390E-003	-7.85658E-003	5.64863E-004	...........
	3	1.03333	-7.88359E-003	-7.80154E-003	5.63230E-004	...........
	4	1.29167	-7.87552E-003	-7.87494E-003	5.64563E-004	...........
	5	1.55	-7.86204E-003	-7.86510E-003	5.67463E-004	...........
	6	1.80833	-7.85746E-003	-8.06630E-003	5.78030E-004	...........
	7	2.06667	-7.87995E-003	-8.15862E-003	5.68030E-004	...........
	8	2.325	-7.93827E-003	-8.15613E-003	5.67830E-004	...........
	9	2.58333	-8.02041E-003	-8.27247E-003	5.67663E-004	...........
	10	2.84167	-8.09990E-003	-8.06656E-003	5.66464E-004	...........
	11	3.1	-8.15019E-003	-8.07428E-003	5.64663E-004	...........
	12	3.35833	-8.15571E-003	-7.99009E-003	5.64830E-004	...........
	13	3.61667	-8.12711E-003	-8.22266E-003	5.65397E-004	...........
	14	3.875	-8.10316E-003	-8.31745E-003	5.64530E-004	...........
	15	4.13333	-8.12057E-003	-8.30722E-003	5.70663E-004	...........
	16	4.39167	-8.17887E-003	-8.35011E-003	5.70830E-004	...........
	17	4.65	-8.24992E-003	-8.49425E-003	5.69830E-004	...........
	18	4.90833	-8.31934E-003	-8.60972E-003	5.73330E-004	...........
EOC	QUANT	-0.0083193	Open Circuit (V)
PSTATMODEL	IQUANT	4	Pstat Model
PSTATSECTION	LABEL	REF600-11020	Pstat Section
PSTATSERIALNO	LABEL	11020	Pstat Serial Number
CTRLMODE	IQUANT	1	Control Mode
IESTAB	IQUANT	0	I/E Stability
CASPEED	IQUANT	1	Control Amp Speed
CONVENTION	IQUANT	1	Current Convention
ICHRANGE	IQUANT	2	Ich Range
ICHRANGEMODE	TOGGLE	F	Ich Auto Range
ICHOFFSETENABLE	TOGGLE	T	Ich Offset Enable
ICHOFFSET	QUANT	0	Ich Offset (V)
ICHFILTER	IQUANT	3	Ich Filter
VCHRANGE	IQUANT	2	Vch Range
VCHRANGEMODE	TOGGLE	F	Vch Auto Range
VCHOFFSETENABLE	TOGGLE	T	Vch Offset Enable
VCHOFFSET	QUANT	0	Vch Offset (V)
VCHFILTER	IQUANT	3	Vch Filter
ACHRANGE	IQUANT	2	Ach Range
ACHOFFSETENABLE	TOGGLE	F	Ach Offset Enable
ACHOFFSET	QUANT	0	Ach Offset (V)
ACHFILTER	IQUANT	3	Ach Filter
IERANGELOWERLIMIT	IQUANT	1	I/E Range Lower Limit
IERANGEMODE	TOGGLE	F	I/E AutoRange
IERANGE	IQUANT	6	I/E Range
POSFEEDENABLE	TOGGLE	F	Positive Feedback IR Comp
POSFEEDRESISTANCE	QUANT	0	Positive Feedback Resistance (ohm)
ACHSELECT	IQUANT	0	Ach Select
CABLEID	IQUANT	14	Cable ID
DCCALDATE	LABEL	2/27/2020	DC Calibration Date
ACCALDATE	LABEL	2/27/2020	AC Calibration Date
THERMOSELECT	IQUANT	1	Thermo Select
FRAMEWORKVERSION	QUANT	6.33	Framework Version
INSTRUMENTVERSION	LABEL	3.50	Instrument Version
ZCURVE	TABLE
	Pt	Time	Freq	Zreal	Zimag	Zsig	Zmod	Zphz	Idc	Vdc	IERange
	#	s	Hz	ohm	ohm	V	ohm	°	A	V	#
	0	2	1000078	1471.947	-1688.006	1	2239.641	-48.91147	4.088654E-006	-0.0062004	8
	1	3	794390.6	1707.966	-1860.364	1	2525.491	-47.44554	-2.091028E-006	-0.006044	8
	2	4	630984.4	1937.215	-2044.83	1	2816.76	-46.54805	-1.152741E-006	-0.0061426	8
	3	6	501234.4	2215.771	-2265.391	1	3168.855	-45.63441	-1.391963E-006	-0.0062621	8
	4	7	398109.4	2499.868	-2511.634	1	3543.677	-45.13451	9.911543E-007	-0.0066211	8
	5	8	316265.6	2822.684	-2771.715	1	3956.002	-44.478	2.000616E-006	-0.0068606	8
	6	10	251203.1	3198.02	-3082.525	1	4441.767	-43.94648	-1.337858E-006	-0.0064806	8
	7	11	199546.9	3605.945	-3424.859	1	4973.178	-43.52461	1.995541E-006	-0.0068693	8
	8	12	158578.1	4080.796	-3827.229	1	5594.692	-43.16347	3.033249E-006	-0.0072494	8
	9	14	125953.1	4685.798	-4184.464	1	6282.232	-41.76517	7.175576E-008	-0.0065568	7
	10	15	100078.1	5318.043	-4580.271	1	7018.58	-40.73733	1.733123E-008	-0.0066836	7
	11	16	79453.13	6054.799	-5005.858	1	7856.157	-39.58254	5.44705E-008	-0.006763	7
	12	18	63140.62	6885.54	-5409.038	1	8756.046	-38.15193	1.778175E-008	-0.0066798	7
	13	19	50203.12	7802.506	-5770.075	1	9704.27	-36.4835	-1.603692E-008	-0.0066535	7
	14	21	39890.62	8807.675	-6055.611	1	10688.57	-34.51	3.356282E-008	-0.0067987	7
	15	22	31640.63	9874.66	-6274.719	1	11699.62	-32.43336	-8.494093E-009	-0.0066918	7
	16	23	25171.88	10961.57	-6404.694	1	12695.51	-30.29716	-9.483681E-009	-0.0066955	7
	17	25	20015.62	12056.34	-6435.869	1	13666.59	-28.09402	2.018452E-008	-0.0067549	7
	18	27	15890.62	13123.94	-6394.125	1	14598.72	-25.97584	-8.577608E-009	-0.0067428	7
	19	28	12609.37	14202.13	-6227.289	1	15507.4	-23.67628	-2.399477E-009	-0.0065931	6
	20	30	10078.13	15121.83	-6109.149	1	16309.25	-21.99847	5.46074E-009	-0.0066927	6
	21	31	8015.625	15998.42	-5988.531	1	17082.5	-20.52189	1.357331E-009	-0.0067364	6
	22	33	6328.125	16841.73	-5877.284	1	17837.78	-19.23753	5.923147E-009	-0.006797	6
	23	34	5015.625	17626.44	-5806.717	1	18558.27	-18.23355	5.241407E-009	-0.0066907	6
	24	36	3984.375	18390.81	-5793.182	1	19281.67	-17.48465	-3.744579E-010	-0.0066224	6
	25	38	3170.956	19124.46	-5817.869	1	19989.81	-16.92033	-2.391982E-009	-0.006606	6
	26	39	2527.573	19848.06	-5893.593	1	20704.59	-16.53802	7.791884E-009	-0.0067954	6
	27	41	1976.103	20633.22	-6033.726	1	21497.34	-16.30038	9.101495E-010	-0.006639	6
	28	42	1577.524	21340.73	-6225.014	1	22230.1	-16.26177	6.51832E-010	-0.0066413	6
	29	44	1265.625	22020.76	-6482.831	1	22955.2	-16.40423	5.335166E-009	-0.0067005	6
	30	46	998.264	22746.12	-6843.965	1	23753.44	-16.74575	3.891973E-010	-0.0067054	6
	31	47	796.875	23476.65	-7326.27	1	24593.24	-17.33138	-9.292324E-010	-0.0066212	6
	32	48	627.7902	24273.92	-7950.308	1	25542.72	-18.1349	-2.807402E-009	-0.0066011	6
	33	50	505.5147	25020.12	-8675.167	1	26481.4	-19.12285	4.140524E-010	-0.006704	6
	34	51	397.9953	25919.28	-9625.3	1	27648.79	-20.37281	1.441306E-009	-0.0066654	6
	35	52	315.5048	26856.79	-10760.79	1	28932.36	-21.83465	1.466814E-009	-0.006673	6
	36	54	252.4038	27851.98	-12068.29	1	30354.18	-23.42714	8.02312E-010	-0.0066719	6
	37	55	198.6229	28936.58	-13745.42	1	32035.33	-25.40859	1.005269E-009	-0.0066685	6
	38	56	158.3615	30056.1	-15670.49	1	33895.92	-27.53639	8.813089E-010	-0.0066708	6
	39	58	125.558	31250.76	-18061.7	1	36094.8	-30.02621	8.832476E-010	-0.006668	6
	40	59	100.4464	32464.57	-20868.11	1	38593.08	-32.73276	9.81322E-010	-0.0066678	6
	41	61	79.00281	33847.14	-24593.88	1	41838.83	-36.00277	7.952098E-010	-0.0066676	6
	42	63	63.3446	35134.54	-28708.58	1	45372	-39.2524	7.690594E-010	-0.006672	6
	43	64	49.86702	36973.57	-34556.9	1	50608.54	-43.06499	5.489469E-010	-0.006671	6
	44	66	39.72458	38821.09	-41337.95	1	56708.93	-46.7984	7.56582E-010	-0.0066649	6
	45	67	31.6723	41112.35	-49599.94	1	64423.44	-50.34538	6.164134E-010	-0.0066655	6
	46	69	24.93351	44052.83	-60423.23	1	74777.13	-53.90529	5.749488E-010	-0.0066676	6
	47	70	19.86229	47602.88	-73014.81	1	87161.9	-56.89718	1.010363E-009	-0.0066662	6
	48	72	15.83615	52189.55	-88397.75	1	102654.3	-59.44263	-1.088437E-010	-0.0066653	6
	49	73	12.40079	58759.29	-107647	1	122639.8	-61.372	1.007041E-009	-0.0066677	5
	50	75	9.93114	66307.58	-129827	1	145779.8	-62.94487	5.033357E-010	-0.0066654	5
	51	76	7.944915	75809.38	-155848.7	1	173308.6	-64.06035	1.735217E-010	-0.0066644	5
	52	78	6.317385	88458.27	-187070.5	1	206930.5	-64.69238	5.992157E-010	-0.0066697	5
	53	80	5.008013	105000.4	-224616.2	1	247946.6	-64.94552	4.419275E-010	-0.0066503	5
	54	82	3.945707	126385.3	-269860.7	1	297990	-64.90465	1.163438E-010	-0.0066706	5
	55	85	3.158693	151189.7	-318788.6	1	352823.6	-64.62674	3.98635E-010	-0.0066477	5
	56	88	2.504006	182970.7	-377737.4	1	419718.7	-64.15511	1.595102E-011	-0.0066707	5
	57	91	1.998082	220270.3	-442455.7	1	494253	-63.53423	7.98199E-011	-0.006673	5
	58	94	1.584686	267865.9	-518404.4	1	583519.8	-62.67405	2.889796E-010	-0.0066151	5
	59	98	1.266892	319669.4	-601184.8	1	680890.4	-61.99897	8.634313E-011	-0.0066541	5
	60	102	0.999041	384717.2	-702494.1	1	800940.2	-61.29292	4.512118E-010	-0.0066666	5
