EXPLAIN
TAG	EISPOT
TITLE	LABEL	Potentiostatic EIS	Test &Identifier
DATE	LABEL	6/26/2020	Date
TIME	LABEL	12:47:30	Time
NOTES	NOTES	1	&Notes...
	
PSTAT	PSTAT	REF600-11020	Potentiostat
VDC	POTEN	0.00000E+000	T	DC &Voltage (V)
FREQINIT	QUANT	1.00000E+006	Initial Fre&q. (Hz)
FREQFINAL	QUANT	1.00000E+000	Final Fre&q. (Hz)
PTSPERDEC	QUANT	1.00000E+001	Points/&decade
VAC	QUANT	2.50000E+001	AC &Voltage (mV rms)
AREA	QUANT	4.00000E-004	&Area (cm^2)
CONDIT	TWOPARAM	F	5.00000E+000	0.00000E+000	Conditionin&g	Time(s)	E(V)
DELAY	TWOPARAM	F	3.00000E+000	0.00000E+000	Init. De&lay	Time(s)	Stab.(mV/s)
SPEED	SELECTOR	0	&Optimize for:
ZGUESS	QUANT	1.00000E+003	E&stimated Z (ohms)
OCVCURVE	TABLE	39
	Pt	T	Vf	Vm	Ach	Over
	#	s	V vs. Ref.	V	V	bits
	0	0.258333	1.11119E-001	1.11119E-001	5.19183E-004	...........
	1	0.516667	1.11119E-001	1.11110E-001	5.15783E-004	...........
	2	0.775	1.11118E-001	1.11105E-001	5.19017E-004	...........
	3	1.03333	1.11115E-001	1.11096E-001	5.11017E-004	...........
	4	1.29167	1.11110E-001	1.11091E-001	5.16117E-004	...........
	5	1.55	1.11104E-001	1.11078E-001	5.14883E-004	...........
	6	1.80833	1.11097E-001	1.11073E-001	5.23417E-004	...........
	7	2.06667	1.11089E-001	1.11064E-001	5.17083E-004	...........
	8	2.325	1.11081E-001	1.11062E-001	5.18850E-004	...........
	9	2.58333	1.11074E-001	1.11048E-001	5.19250E-004	...........
	10	2.84167	1.11066E-001	1.11039E-001	5.22850E-004	...........
	11	3.1	1.11058E-001	1.11031E-001	5.23517E-004	...........
	12	3.35833	1.11050E-001	1.11027E-001	5.18883E-004	...........
	13	3.61667	1.11041E-001	1.11018E-001	5.15550E-004	...........
	14	3.875	1.11033E-001	1.11010E-001	5.13317E-004	...........
	15	4.13333	1.11026E-001	1.11002E-001	5.17083E-004	...........
	16	4.39167	1.11018E-001	1.11001E-001	5.20850E-004	...........
	17	4.65	1.11011E-001	1.10989E-001	5.20983E-004	...........
	18	4.90833	1.11004E-001	1.10983E-001	5.22617E-004	...........
	19	5.16667	1.10998E-001	1.10976E-001	5.20317E-004	...........
	20	5.425	1.10991E-001	1.10969E-001	5.17117E-004	...........
	21	5.68333	1.10984E-001	1.10963E-001	5.18483E-004	...........
	22	5.94167	1.10977E-001	1.10953E-001	5.18283E-004	...........
	23	6.2	1.10969E-001	1.10945E-001	5.22750E-004	...........
	24	6.45833	1.10962E-001	1.10937E-001	5.15017E-004	...........
	25	6.71667	1.10954E-001	1.10934E-001	5.19517E-004	...........
	26	6.975	1.10946E-001	1.10922E-001	5.18083E-004	...........
	27	7.23333	1.10939E-001	1.10918E-001	5.13383E-004	...........
	28	7.49167	1.10932E-001	1.10908E-001	5.14917E-004	...........
	29	7.75	1.10925E-001	1.10905E-001	5.14083E-004	...........
	30	8.00833	1.10917E-001	1.10893E-001	5.18617E-004	...........
	31	8.26667	1.10910E-001	1.10890E-001	5.19450E-004	...........
	32	8.525	1.10903E-001	1.10880E-001	5.17383E-004	...........
	33	8.78333	1.10896E-001	1.10873E-001	5.18217E-004	...........
	34	9.04167	1.10889E-001	1.10863E-001	5.25283E-004	...........
	35	9.3	1.10881E-001	1.10860E-001	5.18083E-004	...........
	36	9.5583	1.10873E-001	1.10851E-001	5.22617E-004	...........
	37	9.8167	1.10866E-001	1.10846E-001	5.20083E-004	...........
	38	10.075	1.10859E-001	1.10836E-001	5.18817E-004	...........
EOC	QUANT	0.1108593	Open Circuit (V)
PSTATMODEL	IQUANT	4	Pstat Model
PSTATSECTION	LABEL	REF600-11020	Pstat Section
PSTATSERIALNO	LABEL	11020	Pstat Serial Number
CTRLMODE	IQUANT	1	Control Mode
IESTAB	IQUANT	0	I/E Stability
CASPEED	IQUANT	1	Control Amp Speed
CONVENTION	IQUANT	1	Current Convention
ICHRANGE	IQUANT	2	Ich Range
ICHRANGEMODE	TOGGLE	F	Ich Auto Range
ICHOFFSETENABLE	TOGGLE	T	Ich Offset Enable
ICHOFFSET	QUANT	0	Ich Offset (V)
ICHFILTER	IQUANT	3	Ich Filter
VCHRANGE	IQUANT	2	Vch Range
VCHRANGEMODE	TOGGLE	F	Vch Auto Range
VCHOFFSETENABLE	TOGGLE	T	Vch Offset Enable
VCHOFFSET	QUANT	0	Vch Offset (V)
VCHFILTER	IQUANT	3	Vch Filter
ACHRANGE	IQUANT	2	Ach Range
ACHOFFSETENABLE	TOGGLE	F	Ach Offset Enable
ACHOFFSET	QUANT	0	Ach Offset (V)
ACHFILTER	IQUANT	3	Ach Filter
IERANGELOWERLIMIT	IQUANT	1	I/E Range Lower Limit
IERANGEMODE	TOGGLE	F	I/E AutoRange
IERANGE	IQUANT	8	I/E Range
POSFEEDENABLE	TOGGLE	F	Positive Feedback IR Comp
POSFEEDRESISTANCE	QUANT	0	Positive Feedback Resistance (ohm)
ACHSELECT	IQUANT	0	Ach Select
CABLEID	IQUANT	14	Cable ID
DCCALDATE	LABEL	6/26/2020	DC Calibration Date
ACCALDATE	LABEL	6/26/2020	AC Calibration Date
THERMOSELECT	IQUANT	1	Thermo Select
FRAMEWORKVERSION	QUANT	6.33	Framework Version
INSTRUMENTVERSION	LABEL	3.50	Instrument Version
ZCURVE	TABLE
	Pt	Time	Freq	Zreal	Zimag	Zsig	Zmod	Zphz	Idc	Vdc	IERange
	#	s	Hz	ohm	ohm	V	ohm	°	A	V	#
	0	1	1000078	1258.66	-2659.257	1	2942.087	-64.67122	-9.120625E-008	0.1130829	8
	1	2	794390.6	1488.279	-3185.417	1	3515.944	-64.95725	1.507756E-007	0.1127775	8
	2	2	630984.4	1780.545	-3818.509	1	4213.235	-65.00068	-7.415917E-008	0.1126377	8
	3	2	501234.4	2176.054	-4547.538	1	5041.36	-64.4283	4.392539E-008	0.1125339	8
	4	2	398109.4	2677.381	-5405.807	1	6032.505	-63.65177	-3.610806E-008	0.1124881	8
	5	3	316265.6	3358.069	-6351.593	1	7184.661	-62.13472	2.115699E-007	0.1124299	8
	6	3	251203.1	4184.105	-7385.315	1	8488.204	-60.46654	1.34276E-007	0.1124373	8
	7	3	199546.9	5207.303	-8513.665	1	9979.9	-58.54836	1.585374E-007	0.1124159	8
	8	4	158578.1	6460.984	-9678.54	1	11636.94	-56.2746	2.635216E-009	0.1124297	8
	9	4	125953.1	8053.057	-10792.18	1	13465.62	-53.26994	6.066366E-008	0.1123947	7
	10	4	100078.1	9673.99	-12003.18	1	15416.31	-51.13285	-1.862618E-008	0.1124029	7
	11	5	79453.13	11431.15	-13162.48	1	17433.36	-49.02686	-1.224125E-008	0.1123843	7
	12	5	63140.62	13294.25	-14330.43	1	19547.34	-47.14812	-3.233136E-009	0.1123703	7
	13	5	50203.12	15239.8	-15524.78	1	21754.78	-45.53073	2.407668E-008	0.1123602	7
	14	6	39890.62	17300.51	-16868.25	1	24162.9	-44.27521	-1.875619E-008	0.1123908	7
	15	6	31640.63	19445.01	-18324.71	1	26718.97	-43.30102	2.327016E-008	0.112351	7
	16	6	25171.88	21676.01	-19966.22	1	29470.31	-42.64881	2.546921E-008	0.1123571	7
	17	7	20015.62	24053.38	-21839.99	1	32489.23	-42.23883	1.268856E-008	0.1123844	7
	18	7	15890.62	26574.98	-24123.92	1	35891.41	-42.23217	1.468602E-008	0.1123464	7
	19	7	12609.37	29653.64	-26487.04	1	39760.56	-41.77167	3.861958E-009	0.1123071	6
	20	8	10078.13	32439.56	-29503.43	1	43849.48	-42.28618	-7.436306E-010	0.1123518	6
	21	8	8015.625	35549.37	-33139.73	1	48600.4	-42.99086	-3.551647E-009	0.112409	6
	22	8	6328.125	39126.93	-37622.03	1	54280.14	-43.87668	4.800189E-009	0.1123154	6
	23	8	5015.625	43123.63	-42882.17	1	60815.52	-44.83914	-1.062121E-009	0.1124177	6
	24	9	3984.375	47699.68	-49085.18	1	68444.24	-45.82015	1.775012E-009	0.1123879	6
	25	9	3170.956	53114.91	-56459.22	1	77516.69	-46.74818	-6.331994E-010	0.1123433	6
	26	9	2527.573	59687.34	-64954.23	1	88213.55	-47.41967	3.015281E-009	0.1123013	6
	27	10	1976.103	68646.21	-75350.19	1	101931.1	-47.66557	3.036725E-009	0.1123651	6
	28	10	1577.524	78927.06	-86018.37	1	116741.8	-47.46173	1.718304E-009	0.1123793	6
	29	10	1265.625	93141.21	-95702.1	1	133544.7	-45.77695	8.478248E-010	0.1122951	5
	30	11	998.264	109073.7	-107877.6	1	153410.1	-44.6841	5.758925E-011	0.112407	5
	31	11	796.875	127150.8	-118901.6	1	174083.1	-43.07981	5.890655E-010	0.1122863	5
	32	11	627.7902	149137.3	-129193.2	1	197314	-40.9014	3.357591E-010	0.1123193	5
	33	12	505.5147	171412.1	-137435.3	1	219705.7	-38.72205	5.289836E-010	0.112287	5
	34	12	397.9953	197513.9	-143567.7	1	244179.1	-36.01242	3.814082E-010	0.1123693	5
	35	12	315.5048	223684.3	-147108.4	1	267722.9	-33.33136	4.098676E-010	0.1123682	5
	36	13	252.4038	248123.1	-147069	1	288434.3	-30.65633	3.864166E-010	0.1123691	5
	37	13	198.6229	273029.2	-145361.3	1	309313.6	-28.03093	2.96941E-010	0.1123676	5
	38	13	158.3615	295295.5	-142597.3	1	327922.9	-25.77576	3.018073E-010	0.1123678	5
	39	14	125.558	316371	-139962.7	1	345948.2	-23.86462	3.510225E-010	0.1123695	5
	40	14	100.4464	335071.5	-137443.1	1	362165	-22.30297	3.481481E-010	0.1123649	5
	41	14	79.00281	351600.6	-134328.4	1	376386.9	-20.90928	2.189691E-010	0.1123677	5
	42	15	63.3446	369222.1	-134313.1	1	392893	-19.99003	2.158127E-010	0.1123644	5
	43	15	49.86702	384094.2	-135919.7	1	407434	-19.48738	9.634734E-011	0.1123649	5
	44	15	39.72458	397655.4	-139708.7	1	421483.5	-19.35796	1.17774E-010	0.1123679	5
	45	16	31.6723	410360	-146573.6	1	435751.2	-19.65586	2.232773E-010	0.1123658	5
	46	16	24.93351	425810.1	-157964	1	454166.1	-20.35348	1.453416E-010	0.1123638	5
	47	16	19.86229	440133.7	-171938.1	1	472525.5	-21.33809	1.014936E-009	0.1123648	5
	48	16	15.83615	457492.6	-190684.8	1	495641.2	-22.62658	4.146016E-010	0.1123625	5
	49	17	12.40079	476899.9	-214981.6	1	523116.3	-24.26537	3.656412E-010	0.1123604	5
	50	17	9.93114	495734.1	-241405.3	1	551388.1	-25.96448	6.942215E-010	0.1123609	5
	51	17	7.944915	521227.5	-274174.2	1	588939.4	-27.7451	5.405749E-010	0.112359	5
	52	18	6.317385	556287.6	-313542.4	1	638564.6	-29.40707	-1.732327E-011	0.1123741	5
	53	19	5.008013	596207.6	-356764.8	1	694798.3	-30.8959	8.36251E-011	0.1123711	5
	54	19	3.945707	643672.7	-406055.5	1	761049	-32.24543	3.385726E-010	0.1123587	5
	55	20	3.158693	697528	-455411.9	1	833033.8	-33.14028	6.872213E-011	0.1123773	5
	56	21	2.504006	763863.9	-510829.7	1	918931.4	-33.7724	-1.545816E-010	0.112352	5
	57	23	1.998082	830731.9	-562550.3	1	1003284	-34.10485	9.274191E-012	0.1123762	4
	58	24	1.584686	906988.7	-617560.6	1	1097274	-34.2506	1.996366E-010	0.1123976	4
	59	26	1.266892	985923	-678496.3	1	1196830	-34.53511	1.37666E-010	0.1123647	4
	60	29	0.999041	1071294	-742950.3	1	1303705	-34.74158	1.012534E-010	0.1123362	4
