EXPLAIN
TAG	EISPOT
TITLE	LABEL	Potentiostatic EIS	Test &Identifier
DATE	LABEL	2/28/2020	Date
TIME	LABEL	15:33:07	Time
NOTES	NOTES	1	&Notes...
	
PSTAT	PSTAT	REF600-11020	Potentiostat
VDC	POTEN	0.00000E+000	T	DC &Voltage (V)
FREQINIT	QUANT	1.00000E+006	Initial Fre&q. (Hz)
FREQFINAL	QUANT	1.00000E+000	Final Fre&q. (Hz)
PTSPERDEC	QUANT	1.00000E+001	Points/&decade
VAC	QUANT	2.50000E+001	AC &Voltage (mV rms)
AREA	QUANT	1.60000E-004	&Area (cm^2)
CONDIT	TWOPARAM	F	1.50000E+001	0.00000E+000	Conditionin&g	Time(s)	E(V)
DELAY	TWOPARAM	F	1.00000E+002	0.00000E+000	Init. De&lay	Time(s)	Stab.(mV/s)
SPEED	SELECTOR	1	&Optimize for:
ZGUESS	QUANT	1.00000E+003	E&stimated Z (ohms)
OCVCURVE	TABLE	39
	Pt	T	Vf	Vm	Ach	Over
	#	s	V vs. Ref.	V	V	bits
	0	0.258333	-6.17747E-002	-6.17747E-002	5.71463E-004	...........
	1	0.516667	-6.17738E-002	-6.17290E-002	5.62530E-004	...........
	2	0.775	-6.17673E-002	-6.16283E-002	5.59664E-004	...........
	3	1.03333	-6.17484E-002	-6.16857E-002	5.67963E-004	...........
	4	1.29167	-6.17213E-002	-6.17981E-002	5.67830E-004	...........
	5	1.55	-6.16895E-002	-6.08847E-002	5.69663E-004	...........
	6	1.80833	-6.13496E-002	-4.71707E-002	5.66130E-004	...........
	7	2.06667	-5.99020E-002	-5.15892E-002	5.63930E-004	...........
	8	2.325	-5.71370E-002	-5.40114E-002	5.60530E-004	...........
	9	2.58333	-5.43807E-002	-5.54900E-002	5.67164E-004	...........
	10	2.84167	-5.31247E-002	-5.58484E-002	5.66497E-004	...........
	11	3.1	-5.34436E-002	-5.62458E-002	5.66863E-004	...........
	12	3.35833	-5.44576E-002	-5.67832E-002	5.69097E-004	...........
	13	3.61667	-5.54438E-002	-5.70631E-002	5.66430E-004	...........
	14	3.875	-5.61668E-002	-5.73310E-002	5.68497E-004	...........
	15	4.13333	-5.66630E-002	-5.75532E-002	5.63097E-004	...........
	16	4.39167	-5.70177E-002	-5.77420E-002	5.67330E-004	...........
	17	4.65	-5.72918E-002	-5.79040E-002	5.68730E-004	...........
	18	4.90833	-5.75186E-002	-5.80933E-002	5.68930E-004	...........
	19	5.16667	-5.77128E-002	-5.80466E-002	5.64863E-004	...........
	20	5.425	-5.78246E-002	-5.56153E-002	5.68830E-004	...........
	21	5.68333	-5.77111E-002	-5.66383E-002	5.70197E-004	...........
	22	5.94167	-5.73668E-002	-5.84777E-002	5.65997E-004	...........
	23	6.2	-5.71008E-002	-5.76182E-002	5.65964E-004	...........
	24	6.45833	-5.71590E-002	-5.74209E-002	5.68730E-004	...........
	25	6.71667	-5.73973E-002	-5.77923E-002	5.71263E-004	...........
	26	6.975	-5.75839E-002	-5.80450E-002	5.68863E-004	...........
	27	7.23333	-5.76969E-002	-5.80283E-002	5.65230E-004	...........
	28	7.49167	-5.78050E-002	-5.81341E-002	5.66997E-004	...........
	29	7.75	-5.79212E-002	-5.81639E-002	5.65463E-004	...........
	30	8.00833	-5.80252E-002	-5.82817E-002	5.66063E-004	...........
	31	8.26667	-5.81098E-002	-5.82652E-002	5.68897E-004	...........
	32	8.525	-5.81801E-002	-5.84013E-002	5.73230E-004	...........
	33	8.78333	-5.82413E-002	-5.83311E-002	5.67263E-004	...........
	34	9.04167	-5.82929E-002	-5.83645E-002	5.70397E-004	...........
	35	9.3	-5.83399E-002	-5.89013E-002	5.70463E-004	...........
	36	9.5583	-5.84234E-002	-5.94142E-002	5.67697E-004	...........
	37	9.8167	-5.85637E-002	-5.74082E-002	5.64464E-004	...........
	38	10.075	-5.86492E-002	-5.83743E-002	5.71530E-004	...........
EOC	QUANT	-0.0586492	Open Circuit (V)
PSTATMODEL	IQUANT	4	Pstat Model
PSTATSECTION	LABEL	REF600-11020	Pstat Section
PSTATSERIALNO	LABEL	11020	Pstat Serial Number
CTRLMODE	IQUANT	1	Control Mode
IESTAB	IQUANT	0	I/E Stability
CASPEED	IQUANT	1	Control Amp Speed
CONVENTION	IQUANT	1	Current Convention
ICHRANGE	IQUANT	2	Ich Range
ICHRANGEMODE	TOGGLE	F	Ich Auto Range
ICHOFFSETENABLE	TOGGLE	T	Ich Offset Enable
ICHOFFSET	QUANT	0	Ich Offset (V)
ICHFILTER	IQUANT	3	Ich Filter
VCHRANGE	IQUANT	2	Vch Range
VCHRANGEMODE	TOGGLE	F	Vch Auto Range
VCHOFFSETENABLE	TOGGLE	T	Vch Offset Enable
VCHOFFSET	QUANT	0	Vch Offset (V)
VCHFILTER	IQUANT	3	Vch Filter
ACHRANGE	IQUANT	2	Ach Range
ACHOFFSETENABLE	TOGGLE	F	Ach Offset Enable
ACHOFFSET	QUANT	0	Ach Offset (V)
ACHFILTER	IQUANT	3	Ach Filter
IERANGELOWERLIMIT	IQUANT	1	I/E Range Lower Limit
IERANGEMODE	TOGGLE	F	I/E AutoRange
IERANGE	IQUANT	8	I/E Range
POSFEEDENABLE	TOGGLE	F	Positive Feedback IR Comp
POSFEEDRESISTANCE	QUANT	0	Positive Feedback Resistance (ohm)
ACHSELECT	IQUANT	0	Ach Select
CABLEID	IQUANT	14	Cable ID
DCCALDATE	LABEL	2/27/2020	DC Calibration Date
ACCALDATE	LABEL	2/27/2020	AC Calibration Date
THERMOSELECT	IQUANT	1	Thermo Select
FRAMEWORKVERSION	QUANT	6.33	Framework Version
INSTRUMENTVERSION	LABEL	3.50	Instrument Version
ZCURVE	TABLE
	Pt	Time	Freq	Zreal	Zimag	Zsig	Zmod	Zphz	Idc	Vdc	IERange
	#	s	Hz	ohm	ohm	V	ohm	°	A	V	#
	0	1	1000078	2162.385	-2124.672	1	3031.524	-44.49599	-3.168592E-006	-0.0558373	8
	1	3	794390.6	2589.217	-2140.98	1	3359.738	-39.58677	1.02718E-006	-0.0567173	8
	2	4	630984.4	3046.728	-2129.021	1	3716.891	-34.94544	-1.901104E-008	-0.0570291	8
	3	5	501234.4	3453.785	-2034.673	1	4008.556	-30.50293	7.950106E-007	-0.0572118	8
	4	7	398109.4	3819.408	-1893.426	1	4262.973	-26.36936	-1.94154E-006	-0.0567528	8
	5	8	316265.6	4145.412	-1722.451	1	4489.018	-22.56326	3.684638E-007	-0.0570213	8
	6	9	251203.1	4423.586	-1532.048	1	4681.376	-19.10282	3.344093E-006	-0.0577243	8
	7	11	199546.9	4600.373	-1360.323	1	4797.282	-16.47286	-2.375435E-007	-0.0570439	8
	8	12	158578.1	4742.164	-1213.072	1	4894.86	-14.34888	-2.330147E-006	-0.0565577	8
	9	14	125953.1	4898.587	-988.071	1	4997.243	-11.40386	-5.467235E-007	-0.0563719	7
	10	15	100078.1	4985.632	-887.4235	1	5063.996	-10.09273	-5.591902E-009	-0.0571763	7
	11	16	79453.13	5059.948	-813.0638	1	5124.855	-9.128608	2.418088E-008	-0.057201	7
	12	18	63140.62	5128.117	-756.8901	1	5183.673	-8.396015	-4.210004E-008	-0.0571657	7
	13	19	50203.12	5191.629	-722.5432	1	5241.668	-7.923224	4.427426E-008	-0.0573547	7
	14	20	39890.62	5253.104	-706.1441	1	5300.354	-7.656042	9.965058E-008	-0.0573943	7
	15	22	31640.63	5310.78	-709.8288	1	5358.007	-7.612925	2.392622E-008	-0.0571955	7
	16	23	25171.88	5368.023	-731.6234	1	5417.651	-7.761187	7.044193E-008	-0.057293	7
	17	25	20015.62	5431.27	-769.8127	1	5485.554	-8.067205	-5.418384E-009	-0.0572067	7
	18	26	15890.62	5495.287	-832.4138	1	5557.975	-8.613555	-1.285986E-010	-0.0572874	7
	19	27	12609.37	5569.349	-911.9183	1	5643.514	-9.299022	-3.3791E-008	-0.0572415	7
	20	29	10078.13	5644.293	-1021.144	1	5735.92	-10.25481	-3.3891E-008	-0.0572407	7
	21	30	8015.625	5723.391	-1151.487	1	5838.076	-11.37546	-2.773548E-008	-0.0571722	7
	22	31	6328.125	5819.423	-1320.949	1	5967.461	-12.78884	4.494474E-008	-0.0573562	7
	23	33	5015.625	5922.696	-1526.896	1	6116.35	-14.45631	-2.607861E-008	-0.0571751	7
	24	34	3984.375	6039.424	-1770.942	1	6293.717	-16.34273	2.931317E-008	-0.0572172	7
	25	35	3170.956	6173.609	-2070.194	1	6511.463	-18.53783	4.239715E-008	-0.0573545	7
	26	37	2527.573	6321.578	-2426.01	1	6771.105	-20.99513	3.051936E-009	-0.0572994	7
	27	38	1976.103	6507.676	-2893.899	1	7122.113	-23.97424	8.789431E-009	-0.0572623	7
	28	40	1577.524	6712.771	-3415.065	1	7531.531	-26.96433	2.707987E-009	-0.0571843	7
	29	41	1265.625	6929.987	-4025.922	1	8014.535	-30.15411	-3.243476E-008	-0.0571974	7
	30	42	998.264	7213.836	-4817.102	1	8674.324	-33.73336	9.733554E-008	-0.0573942	7
	31	44	796.875	7520.154	-5727.353	1	9452.792	-37.29292	1.945206E-010	-0.0571809	7
	32	45	627.7902	7902.639	-6883.92	1	10480.46	-41.05884	8.269917E-009	-0.0572592	6
	33	46	505.5147	8307.193	-8161.265	1	11645.42	-44.49231	5.343002E-009	-0.0573569	6
	34	48	397.9953	8828.823	-9873.55	1	13245.19	-48.19725	9.563282E-010	-0.057187	6
	35	49	315.5048	9433.097	-11897.81	1	15183.59	-51.59111	1.236533E-011	-0.0571911	6
	36	51	252.4038	10124.33	-14253.43	1	17483.2	-54.61351	-1.929626E-010	-0.0571932	6
	37	52	198.6229	11020.67	-17331.03	1	20538.24	-57.54803	-2.216749E-010	-0.0571863	6
	38	53	158.3615	12059.99	-20880.52	1	24113.05	-59.99051	-2.331359E-010	-0.0571889	6
	39	55	125.558	13370.16	-25275.86	1	28594.23	-62.12253	-7.881416E-010	-0.0571903	6
	40	56	100.4464	14913.96	-30360.92	1	33826.2	-63.8387	2.758766E-010	-0.0571882	6
	41	57	79.00281	17022.42	-36994.72	1	40723.12	-65.29137	2.977524E-010	-0.0571871	6
	42	59	63.3446	19639.81	-44157.63	1	48328.23	-66.02213	1.38977E-010	-0.0571867	6
	43	60	49.86702	22802.59	-54281.99	1	58876.93	-67.21386	-3.613333E-010	-0.0571901	6
	44	62	39.72458	26740.53	-65024.79	1	70308.45	-67.64577	-1.73614E-010	-0.0571927	6
	45	63	31.6723	31649.9	-77820.16	1	84010.09	-67.86815	5.914878E-011	-0.0571907	6
	46	64	24.93351	38352.26	-94326.66	1	101825.4	-67.87384	-3.489027E-010	-0.057191	6
	47	66	19.86229	46470.04	-112754.6	1	121955.1	-67.60175	6.05604E-011	-0.0571823	5
	48	67	15.83615	56716.13	-133796.9	1	145321.5	-67.02805	-3.125041E-010	-0.0571884	5
	49	69	12.40079	70182.23	-160966.8	1	175601.4	-66.44258	-1.263385E-010	-0.0571887	5
	50	70	9.93114	87292.48	-190500.2	1	209547.8	-65.38143	1.490891E-010	-0.0571933	5
	51	72	7.944915	107765.7	-222850.9	1	247539.8	-64.19263	-4.442664E-010	-0.0571932	5
	52	73	6.317385	133573.3	-259955.7	1	292264.9	-62.80449	3.008841E-010	-0.0571945	5
	53	75	5.008013	165536.4	-301663.2	1	344097.3	-61.24441	6.464472E-011	-0.0571826	5
	54	78	3.945707	204286.5	-348302.1	1	403791.2	-59.60748	-2.458146E-010	-0.0571958	5
	55	81	3.158693	246527.9	-396262.6	1	466690.6	-58.1129	2.304186E-010	-0.0571796	5
	56	84	2.504006	296194.9	-449983.4	1	538717.4	-56.64568	-3.205183E-010	-0.0571914	5
	57	87	1.998082	349751.9	-506066.9	1	615166.7	-55.35096	-1.010255E-010	-0.0572139	5
	58	90	1.584686	410403.1	-568569.9	1	701215	-54.17764	4.324993E-011	-0.0571412	5
	59	93	1.266892	470882.8	-639405.1	1	794084.1	-53.63063	-1.059055E-010	-0.0571877	5
	60	98	0.999041	543700.3	-724571.8	1	905877.6	-53.11636	2.895637E-010	-0.0571738	5
