EXPLAIN
TAG	EISPOT
TITLE	LABEL	Potentiostatic EIS	Test &Identifier
DATE	LABEL	6/1/2020	Date
TIME	LABEL	14:15:50	Time
NOTES	NOTES	1	&Notes...
	
PSTAT	PSTAT	REF600-11020	Potentiostat
VDC	POTEN	0.00000E+000	T	DC &Voltage (V)
FREQINIT	QUANT	1.00000E+006	Initial Fre&q. (Hz)
FREQFINAL	QUANT	1.00000E+000	Final Fre&q. (Hz)
PTSPERDEC	QUANT	1.00000E+001	Points/&decade
VAC	QUANT	2.50000E+001	AC &Voltage (mV rms)
AREA	QUANT	4.00000E-004	&Area (cm^2)
CONDIT	TWOPARAM	F	5.00000E+000	0.00000E+000	Conditionin&g	Time(s)	E(V)
DELAY	TWOPARAM	T	3.00000E+000	0.00000E+000	Init. De&lay	Time(s)	Stab.(mV/s)
SPEED	SELECTOR	0	&Optimize for:
ZGUESS	QUANT	1.00000E+003	E&stimated Z (ohms)
OCVCURVE	TABLE	12
	Pt	T	Vf	Vm	Ach	Over
	#	s	V vs. Ref.	V	V	bits
	0	0.258333	-1.23267E-001	-1.23267E-001	5.74930E-004	...........
	1	0.516667	-1.23267E-001	-1.23264E-001	5.79763E-004	...........
	2	0.775	-1.23265E-001	-1.23212E-001	5.72030E-004	...........
	3	1.03333	-1.23260E-001	-1.23244E-001	5.74263E-004	...........
	4	1.29167	-1.23252E-001	-1.23272E-001	5.74597E-004	...........
	5	1.55	-1.23246E-001	-1.23239E-001	5.76697E-004	...........
	6	1.80833	-1.23246E-001	-1.23247E-001	5.69497E-004	...........
	7	2.06667	-1.23248E-001	-1.23217E-001	5.69730E-004	...........
	8	2.325	-1.23245E-001	-1.23221E-001	5.78530E-004	...........
	9	2.58333	-1.23240E-001	-1.23339E-001	5.79030E-004	...........
	10	2.84167	-1.23243E-001	-1.23269E-001	5.71130E-004	...........
	11	3.1	-1.23256E-001	-1.23261E-001	5.76263E-004	...........
EOC	QUANT	-0.1232556	Open Circuit (V)
PSTATMODEL	IQUANT	4	Pstat Model
PSTATSECTION	LABEL	REF600-11020	Pstat Section
PSTATSERIALNO	LABEL	11020	Pstat Serial Number
CTRLMODE	IQUANT	1	Control Mode
IESTAB	IQUANT	0	I/E Stability
CASPEED	IQUANT	1	Control Amp Speed
CONVENTION	IQUANT	1	Current Convention
ICHRANGE	IQUANT	2	Ich Range
ICHRANGEMODE	TOGGLE	F	Ich Auto Range
ICHOFFSETENABLE	TOGGLE	T	Ich Offset Enable
ICHOFFSET	QUANT	0	Ich Offset (V)
ICHFILTER	IQUANT	3	Ich Filter
VCHRANGE	IQUANT	2	Vch Range
VCHRANGEMODE	TOGGLE	F	Vch Auto Range
VCHOFFSETENABLE	TOGGLE	T	Vch Offset Enable
VCHOFFSET	QUANT	0	Vch Offset (V)
VCHFILTER	IQUANT	3	Vch Filter
ACHRANGE	IQUANT	2	Ach Range
ACHOFFSETENABLE	TOGGLE	F	Ach Offset Enable
ACHOFFSET	QUANT	0	Ach Offset (V)
ACHFILTER	IQUANT	3	Ach Filter
IERANGELOWERLIMIT	IQUANT	1	I/E Range Lower Limit
IERANGEMODE	TOGGLE	F	I/E AutoRange
IERANGE	IQUANT	8	I/E Range
POSFEEDENABLE	TOGGLE	F	Positive Feedback IR Comp
POSFEEDRESISTANCE	QUANT	0	Positive Feedback Resistance (ohm)
ACHSELECT	IQUANT	0	Ach Select
CABLEID	IQUANT	14	Cable ID
DCCALDATE	LABEL	2/27/2020	DC Calibration Date
ACCALDATE	LABEL	2/27/2020	AC Calibration Date
THERMOSELECT	IQUANT	1	Thermo Select
FRAMEWORKVERSION	QUANT	6.33	Framework Version
INSTRUMENTVERSION	LABEL	3.50	Instrument Version
ZCURVE	TABLE
	Pt	Time	Freq	Zreal	Zimag	Zsig	Zmod	Zphz	Idc	Vdc	IERange
	#	s	Hz	ohm	ohm	V	ohm	°	A	V	#
	0	1	1000078	884.2557	-6653.944	1	6712.442	-82.43021	5.980475E-008	-0.1208575	8
	1	1	794390.6	988.54	-8303.487	1	8362.124	-83.21082	9.363279E-008	-0.1212124	8
	2	2	630984.4	1122.991	-10350.66	1	10411.4	-83.80793	6.17169E-008	-0.1213558	8
	3	2	501234.4	1296.404	-12877.24	1	12942.33	-84.25117	7.015798E-008	-0.1214384	8
	4	2	398109.4	1512.761	-16054.09	1	16125.2	-84.61697	4.6731E-008	-0.1214848	8
	5	3	316265.6	1673.261	-20046.16	1	20115.88	-85.22856	6.304181E-008	-0.1215356	8
	6	3	251203.1	2077.249	-24940.62	1	25026.98	-85.23895	6.880805E-008	-0.1215257	8
	7	3	199546.9	2383.254	-31192.88	1	31283.79	-85.63087	6.719012E-008	-0.1215439	8
	8	4	158578.1	2710.117	-38829.58	1	38924.04	-86.00751	7.012832E-008	-0.1215532	8
	9	4	125953.1	5212.974	-48882.67	1	49159.84	-83.91283	4.004619E-009	-0.1216149	7
	10	4	100078.1	5900.574	-60664.79	1	60951.07	-84.44459	4.306791E-009	-0.1216114	7
	11	4	79453.13	6780.48	-75684.51	1	75987.63	-84.88061	4.185276E-009	-0.1216217	7
	12	5	63140.62	8135.352	-94163.75	1	94514.52	-85.06215	3.458521E-009	-0.1216194	7
	13	5	50203.12	9417.205	-117423.2	1	117800.2	-85.41476	4.453828E-009	-0.1216159	7
	14	5	39890.62	11007.67	-146740.6	1	147152.9	-85.71002	4.699908E-009	-0.1216268	7
	15	6	31640.63	13347.29	-182765	1	183251.7	-85.82311	4.789108E-009	-0.121624	7
	16	6	25171.88	16963.71	-227977.9	1	228608.2	-85.74449	3.886345E-009	-0.1216329	7
	17	6	20015.62	21420.32	-284386.2	1	285191.7	-85.69254	4.234892E-009	-0.121632	7
	18	7	15890.62	23702.83	-355012.3	1	355802.7	-86.18024	4.658497E-009	-0.1216277	7
	19	7	12609.37	48344.42	-446211.5	1	448822.8	-83.81645	6.446775E-010	-0.1215883	6
	20	7	10078.13	55373.93	-552624	1	555391.4	-84.27796	8.068233E-010	-0.1215747	6
	21	8	8015.625	65857.66	-687813.7	1	690959.4	-84.53065	7.584735E-010	-0.1215813	6
	22	8	6328.125	83922.71	-861193	1	865272.4	-84.43414	6.018808E-010	-0.1215854	6
	23	8	5015.625	98921.2	-1076140	1	1080677	-84.748	6.664529E-010	-0.1215833	6
	24	9	3984.375	120336.8	-1340436	1	1345827	-84.87006	6.930343E-010	-0.1215817	6
	25	9	3170.956	165950.6	-1661766	1	1670032	-84.29712	6.191359E-010	-0.1215791	6
	26	9	2527.573	215853.1	-2062532	1	2073797	-84.0255	6.675218E-010	-0.1215797	6
	27	10	1976.103	286818.1	-2612412	1	2628110	-83.73456	5.131818E-010	-0.1215949	6
	28	10	1577.524	375892.2	-3269043	1	3290583	-83.44063	5.245911E-010	-0.1215928	6
	29	10	1265.625	602531	-3975424	1	4020826	-81.38162	3.745832E-011	-0.1215899	5
	30	10	998.264	796767.2	-4970445	1	5033901	-80.89291	4.653354E-011	-0.1215821	5
	31	11	796.875	1049860	-6145782	1	6234809	-80.30596	3.939733E-011	-0.1215877	5
	32	11	627.7902	1472190	-7689319	1	7828983	-79.16137	2.485387E-011	-0.1215922	5
	33	11	505.5147	1989688	-9385999	1	9.594573E+006	-78.03135	3.180827E-011	-0.1215931	5
	34	12	397.9953	2862413	-1.162615E+007	1	1.197334E+007	-76.1686	2.815367E-011	-0.1215746	5
	35	12	315.5048	4073207	-1.420112E+007	1	1.477372E+007	-73.99589	2.76075E-011	-0.1215689	5
	36	12	252.4038	5733780	-1.711753E+007	1	1.805232E+007	-71.48093	2.818986E-011	-0.1215721	5
	37	13	198.6229	8262190	-2.057918E+007	1	2.217581E+007	-68.12538	2.777969E-011	-0.1215722	5
	38	13	158.3615	1.14632E+007	-2.401567E+007	1	2.661123E+007	-64.48385	2.817881E-011	-0.1215751	5
	39	13	125.558	1.740542E+007	-2.720768E+007	1	3.229871E+007	-57.39194	1.282413E-011	-0.1215846	4
	40	14	100.4464	2.268275E+007	-3.021556E+007	1	3.778211E+007	-53.10453	1.163835E-011	-0.1215826	4
	41	14	79.00281	2.951906E+007	-3.264413E+007	1	4.401152E+007	-47.87794	8.785266E-012	-0.1215826	4
	42	14	63.3446	3.630009E+007	-3.364878E+007	1	4.949684E+007	-42.82933	4.738448E-012	-0.1215822	4
	43	15	49.86702	4.385304E+007	-3.333137E+007	1	5.508238E+007	-37.23737	4.039903E-012	-0.1215832	4
	44	15	39.72458	5.042614E+007	-3.174718E+007	1	5.958758E+007	-32.19361	7.794927E-012	-0.1215802	4
	45	15	31.6723	5.641159E+007	-2.921269E+007	1	6.352675E+007	-27.37734	2.237602E-012	-0.1215755	4
	46	16	24.93351	6.145623E+007	-2.596956E+007	1	6.671796E+007	-22.90746	4.148025E-012	-0.1215837	4
	47	16	19.86229	6.518194E+007	-2.270727E+007	1	6.902395E+007	-19.20668	2.89768E-013	-0.1215723	4
	48	16	15.83615	6.849217E+007	-1.965981E+007	1	7.125788E+007	-16.01546	5.351602E-012	-0.121584	4
	49	17	12.40079	8.254976E+007	-1.022205E+007	1	8.318025E+007	-7.058945	-6.590203E-012	-0.1215803	3
	50	17	9.93114	8.306321E+007	-7674028	1	8.341695E+007	-5.278447	-7.978099E-012	-0.1215684	3
	51	17	7.944915	8.585311E+007	-6040507	1	8.606535E+007	-4.024621	-2.054778E-011	-0.1215752	3
	52	18	6.317385	8.250525E+007	-3552526	1	8.25817E+007	-2.465529	-1.147878E-011	-0.1215688	3
	53	18	5.008013	9.047418E+007	-7362252	1	9.077324E+007	-4.65214	-8.382166E-011	-0.1215467	3
	54	19	3.945707	9.300449E+007	-3442443	1	9.306818E+007	-2.119763	-1.38286E-010	-0.1215503	3
	55	20	3.158693	9.460385E+007	-1.159255E+007	1	9.531146E+007	-6.986071	-2.955375E-010	-0.1214909	3
	56	21	2.504006	9.292541E+007	-4093119	1	9.301551E+007	-2.522097	-3.85759E-010	-0.1214667	3
	57	23	1.998082	9.486102E+007	-3039406	1	9.49097E+007	-1.835164	-2.714033E-010	-0.1215166	3
	58	24	1.584686	9.211234E+007	1124238	1	9.211921E+007	0.6992646	-1.478292E-010	-0.1214852	3
	59	26	1.266892	7.915438E+007	-3962471	1	7.92535E+007	-2.865836	6.802885E-011	-0.1215706	3
	60	30	0.999041	7.907117E+007	-4035781	1	7.91741E+007	-2.921833	5.783924E-011	-0.1216005	3
