EXPLAIN
TAG	EISPOT
TITLE	LABEL	Potentiostatic EIS	Test &Identifier
DATE	LABEL	5/26/2020	Date
TIME	LABEL	18:44:06	Time
NOTES	NOTES	1	&Notes...
	
PSTAT	PSTAT	REF600-11020	Potentiostat
VDC	POTEN	0.00000E+000	T	DC &Voltage (V)
FREQINIT	QUANT	1.00000E+006	Initial Fre&q. (Hz)
FREQFINAL	QUANT	1.00000E+000	Final Fre&q. (Hz)
PTSPERDEC	QUANT	1.00000E+001	Points/&decade
VAC	QUANT	2.50000E+001	AC &Voltage (mV rms)
AREA	QUANT	5.00000E-004	&Area (cm^2)
CONDIT	TWOPARAM	F	5.00000E+000	0.00000E+000	Conditionin&g	Time(s)	E(V)
DELAY	TWOPARAM	T	3.00000E+000	0.00000E+000	Init. De&lay	Time(s)	Stab.(mV/s)
SPEED	SELECTOR	0	&Optimize for:
ZGUESS	QUANT	1.00000E+003	E&stimated Z (ohms)
OCVCURVE	TABLE	12
	Pt	T	Vf	Vm	Ach	Over
	#	s	V vs. Ref.	V	V	bits
	0	0.258333	1.11899E-001	1.11899E-001	5.80397E-004	...........
	1	0.516667	1.11899E-001	1.11884E-001	5.78830E-004	...........
	2	0.775	1.11897E-001	1.11863E-001	5.83663E-004	...........
	3	1.03333	1.11891E-001	1.11850E-001	5.86863E-004	...........
	4	1.29167	1.11881E-001	1.11843E-001	5.81430E-004	...........
	5	1.55	1.11868E-001	1.11828E-001	5.82563E-004	...........
	6	1.80833	1.11855E-001	1.11816E-001	5.77397E-004	...........
	7	2.06667	1.11842E-001	1.11802E-001	5.80263E-004	...........
	8	2.325	1.11829E-001	1.11790E-001	5.76563E-004	...........
	9	2.58333	1.11816E-001	1.11778E-001	5.80197E-004	...........
	10	2.84167	1.11804E-001	1.11770E-001	5.81597E-004	...........
	11	3.1	1.11792E-001	1.11760E-001	5.81697E-004	...........
EOC	QUANT	0.1117918	Open Circuit (V)
PSTATMODEL	IQUANT	4	Pstat Model
PSTATSECTION	LABEL	REF600-11020	Pstat Section
PSTATSERIALNO	LABEL	11020	Pstat Serial Number
CTRLMODE	IQUANT	1	Control Mode
IESTAB	IQUANT	0	I/E Stability
CASPEED	IQUANT	1	Control Amp Speed
CONVENTION	IQUANT	1	Current Convention
ICHRANGE	IQUANT	2	Ich Range
ICHRANGEMODE	TOGGLE	F	Ich Auto Range
ICHOFFSETENABLE	TOGGLE	T	Ich Offset Enable
ICHOFFSET	QUANT	0	Ich Offset (V)
ICHFILTER	IQUANT	3	Ich Filter
VCHRANGE	IQUANT	2	Vch Range
VCHRANGEMODE	TOGGLE	F	Vch Auto Range
VCHOFFSETENABLE	TOGGLE	T	Vch Offset Enable
VCHOFFSET	QUANT	0	Vch Offset (V)
VCHFILTER	IQUANT	3	Vch Filter
ACHRANGE	IQUANT	2	Ach Range
ACHOFFSETENABLE	TOGGLE	F	Ach Offset Enable
ACHOFFSET	QUANT	0	Ach Offset (V)
ACHFILTER	IQUANT	3	Ach Filter
IERANGELOWERLIMIT	IQUANT	1	I/E Range Lower Limit
IERANGEMODE	TOGGLE	F	I/E AutoRange
IERANGE	IQUANT	8	I/E Range
POSFEEDENABLE	TOGGLE	F	Positive Feedback IR Comp
POSFEEDRESISTANCE	QUANT	0	Positive Feedback Resistance (ohm)
ACHSELECT	IQUANT	0	Ach Select
CABLEID	IQUANT	14	Cable ID
DCCALDATE	LABEL	2/27/2020	DC Calibration Date
ACCALDATE	LABEL	2/27/2020	AC Calibration Date
THERMOSELECT	IQUANT	1	Thermo Select
FRAMEWORKVERSION	QUANT	6.33	Framework Version
INSTRUMENTVERSION	LABEL	3.50	Instrument Version
ZCURVE	TABLE
	Pt	Time	Freq	Zreal	Zimag	Zsig	Zmod	Zphz	Idc	Vdc	IERange
	#	s	Hz	ohm	ohm	V	ohm	°	A	V	#
	0	1	1000078	1730.577	-955.055	1	1976.62	-28.89301	4.294806E-009	0.1142323	8
	1	1	794390.6	1878.104	-954.084	1	2106.549	-26.93073	8.813541E-008	0.1138474	8
	2	1	630984.4	2021.862	-952.687	1	2235.07	-25.22948	5.075803E-008	0.1136577	8
	3	2	501234.4	2160.662	-951.04	1	2360.707	-23.75723	4.590869E-008	0.1135526	8
	4	2	398109.4	2298.789	-949.8763	1	2487.307	-22.45077	6.379283E-008	0.1134826	8
	5	2	316265.6	2434.542	-949.3149	1	2613.081	-21.30259	6.069668E-008	0.1134633	8
	6	3	251203.1	2571.59	-952.725	1	2742.4	-20.3287	5.078787E-008	0.1134325	8
	7	3	199546.9	2704.575	-956.326	1	2868.673	-19.47337	8.543518E-008	0.113416	8
	8	3	158578.1	2838.961	-965.179	1	2998.544	-18.7768	5.682865E-008	0.1134246	8
	9	4	125953.1	2999.583	-929.5067	1	3140.3	-17.21709	5.161339E-010	0.1133831	7
	10	4	100078.1	3119.375	-944.5049	1	3259.232	-16.84561	3.087247E-009	0.1133605	7
	11	4	79453.13	3245.794	-974.305	1	3388.871	-16.70843	1.973049E-009	0.1133492	7
	12	5	63140.62	3375.775	-1010.872	1	3523.879	-16.67027	2.579383E-009	0.1133495	7
	13	5	50203.12	3506.405	-1051.28	1	3660.61	-16.68963	2.537235E-009	0.1133423	7
	14	5	39890.62	3640.157	-1101.328	1	3803.113	-16.83317	3.262344E-009	0.1133508	7
	15	6	31640.63	3777.832	-1161.15	1	3952.25	-17.08527	1.258925E-009	0.1133373	7
	16	6	25171.88	3918.593	-1232.276	1	4107.782	-17.45675	1.807435E-009	0.1133423	7
	17	6	20015.62	4064.711	-1318.516	1	4273.214	-17.97209	2.801359E-009	0.1133447	7
	18	7	15890.62	4217.101	-1420.551	1	4449.933	-18.61634	1.263655E-009	0.113333	7
	19	7	12609.37	4376.343	-1545.2	1	4641.123	-19.44711	2.637296E-009	0.1133398	7
	20	7	10078.13	4536.489	-1689.911	1	4841.026	-20.43113	2.943589E-009	0.1133331	7
	21	7	8015.625	4708.911	-1869.997	1	5066.629	-21.65896	2.759225E-009	0.113333	7
	22	8	6328.125	4900.79	-2097.518	1	5330.79	-23.17073	3.328099E-009	0.113333	7
	23	8	5015.625	5105.817	-2364.999	1	5626.952	-24.85343	1.871672E-009	0.1133298	7
	24	8	3984.375	5338.348	-2691.963	1	5978.681	-26.76039	2.176409E-009	0.1133245	7
	25	9	3170.956	5600.825	-3077.386	1	6390.582	-28.78669	3.030213E-009	0.1133217	7
	26	9	2527.573	5904.36	-3527.134	1	6877.655	-30.85316	3.063189E-009	0.1133286	7
	27	9	1976.103	6295.51	-4098.965	1	7512.321	-33.06788	1.763807E-009	0.1133206	7
	28	10	1577.524	6715.216	-4709.885	1	8202.265	-35.04486	2.955517E-009	0.1133277	7
	29	10	1265.625	7191.328	-5395.86	1	8990.578	-36.88195	3.290729E-009	0.1133315	7
	30	10	998.264	7795.827	-6217.123	1	9971.34	-38.57214	2.034446E-010	0.1133823	6
	31	11	796.875	8435.704	-7106.895	1	11030.37	-40.1134	1.926607E-010	0.1133794	6
	32	11	627.7902	9187.215	-8183.444	1	12303.4	-41.69282	-9.590467E-011	0.1133795	6
	33	11	505.5147	9924.67	-9294.608	1	13597.38	-43.12236	4.857436E-011	0.1133783	6
	34	12	397.9953	10797.02	-10735.14	1	15225.6	-44.83535	4.295037E-010	0.1134019	6
	35	12	315.5048	11694.36	-12402.52	1	17046.42	-46.68333	3.985153E-010	0.113403	6
	36	12	252.4038	12626.8	-14345.11	1	19110.68	-48.64525	4.768489E-010	0.1133949	6
	37	12	198.6229	13741.35	-16905.39	1	21785.71	-50.89447	2.559276E-010	0.1133935	6
	38	13	158.3615	14934.63	-19874.27	1	24860.2	-53.07677	3.781068E-010	0.1133931	6
	39	13	125.558	16403.48	-23603.12	1	28743.37	-55.20183	3.45336E-010	0.1133921	6
	40	13	100.4464	18121.24	-27947.37	1	33308.18	-57.04038	2.432902E-010	0.1133908	6
	41	14	79.00281	20429.01	-33595.5	1	39319.24	-58.69673	6.777464E-011	0.1133887	6
	42	14	63.3446	23106.69	-39806.41	1	46026.84	-59.86584	-4.073411E-011	0.1133895	6
	43	14	49.86702	26782.34	-47768.3	1	54764.07	-60.72188	1.852221E-010	0.1133835	6
	44	15	39.72458	31204.79	-56650.83	1	64676.55	-61.15285	6.762781E-011	0.113392	6
	45	15	31.6723	36712.61	-66888.02	1	76300.88	-61.23909	-1.045765E-010	0.1133888	6
	46	16	24.93351	43967.79	-79283.3	1	90658.74	-60.98875	6.268752E-010	0.1133818	6
	47	16	19.86229	52422.43	-92584.3	1	106395.3	-60.4809	6.216392E-010	0.1133957	5
	48	16	15.83615	62636.02	-107600	1	124503.1	-59.79549	8.407851E-010	0.1133916	5
	49	16	12.40079	75657.54	-125611.8	1	146637	-58.93893	1.349993E-009	0.113392	5
	50	17	9.93114	88966.39	-143706.7	1	169016.7	-58.23905	1.056884E-009	0.1133953	5
	51	17	7.944915	104382	-164201.1	1	194570.3	-57.55603	-4.885024E-010	0.1133928	5
	52	17	6.317385	121811.7	-187882.1	1	223914.7	-57.04299	2.826131E-010	0.1133715	5
	53	18	5.008013	141229.3	-215398.9	1	257570.2	-56.74859	3.999143E-010	0.1133893	5
	54	19	3.945707	162976.5	-247957.4	1	296722.5	-56.68404	-3.369031E-011	0.1133761	5
	55	20	3.158693	185284	-284401.7	1	339432.6	-56.91628	2.431697E-010	0.1133953	5
	56	21	2.504006	210951.7	-329328.4	1	391098.3	-57.35835	8.122837E-011	0.1133939	5
	57	22	1.998082	239411.2	-382300.4	1	451078	-57.94363	-5.862272E-011	0.1133553	5
	58	24	1.584686	273150.7	-446178	1	523150.2	-58.52499	5.099074E-011	0.1133931	5
	59	26	1.266892	313910.9	-520833.1	1	608117.7	-58.92224	9.659887E-011	0.1134151	5
	60	28	0.999041	365593.2	-615544.9	1	715928.8	-59.29247	1.258522E-010	0.1134166	5
