EXPLAIN
TAG	EISPOT
TITLE	LABEL	Potentiostatic EIS	Test &Identifier
DATE	LABEL	1/28/2020	Date
TIME	LABEL	12:33:20	Time
NOTES	NOTES	6	&Notes...
	
	
	
	
	
	
PSTAT	PSTAT	REF600-11020	Potentiostat
VDC	POTEN	0.00000E+000	T	DC &Voltage (V)
FREQINIT	QUANT	1.00000E+006	Initial Fre&q. (Hz)
FREQFINAL	QUANT	1.00000E+000	Final Fre&q. (Hz)
PTSPERDEC	QUANT	1.00000E+001	Points/&decade
VAC	QUANT	2.50000E+001	AC &Voltage (mV rms)
AREA	QUANT	1.60000E-004	&Area (cm^2)
CONDIT	TWOPARAM	F	5.00000E+000	0.00000E+000	Conditionin&g	Time(s)	E(V)
DELAY	TWOPARAM	F	5.00000E+000	0.00000E+000	Init. De&lay	Time(s)	Stab.(mV/s)
SPEED	SELECTOR	0	&Optimize for:
ZGUESS	QUANT	1.00000E+003	E&stimated Z (ohms)
OCVCURVE	TABLE	39
	Pt	T	Vf	Vm	Ach	Over
	#	s	V vs. Ref.	V	V	bits
	0	0.258333	7.13938E-002	7.13938E-002	5.52571E-004	...........
	1	0.516667	7.13987E-002	7.16514E-002	5.59071E-004	...........
	2	0.775	7.14262E-002	7.17549E-002	5.53471E-004	...........
	3	1.03333	7.14944E-002	7.18128E-002	5.61171E-004	...........
	4	1.29167	7.15959E-002	7.18855E-002	5.55238E-004	...........
	5	1.55	7.17039E-002	7.19732E-002	5.51871E-004	...........
	6	1.80833	7.18001E-002	7.20156E-002	5.51338E-004	...........
	7	2.06667	7.18814E-002	7.20511E-002	5.52971E-004	...........
	8	2.325	7.19487E-002	7.20888E-002	5.49171E-004	...........
	9	2.58333	7.20030E-002	7.21201E-002	5.52671E-004	...........
	10	2.84167	7.20468E-002	7.21438E-002	5.53838E-004	...........
	11	3.1	7.20830E-002	7.21626E-002	5.52505E-004	...........
	12	3.35833	7.21134E-002	7.21890E-002	5.51405E-004	...........
	13	3.61667	7.21396E-002	7.22089E-002	5.53605E-004	...........
	14	3.875	7.21633E-002	7.22300E-002	5.50305E-004	...........
	15	4.13333	7.21856E-002	7.22522E-002	5.51671E-004	...........
	16	4.39167	7.22071E-002	7.22615E-002	5.54871E-004	...........
	17	4.65	7.22257E-002	7.21937E-002	5.57571E-004	...........
	18	4.90833	7.22342E-002	7.21383E-002	5.56804E-004	...........
	19	5.16667	7.22236E-002	7.20841E-002	5.50705E-004	...........
	20	5.425	7.21925E-002	7.20699E-002	5.49038E-004	...........
	21	5.68333	7.21508E-002	7.20780E-002	5.51905E-004	...........
	22	5.94167	7.21154E-002	7.22057E-002	5.48438E-004	...........
	23	6.2	7.21024E-002	7.21269E-002	5.55638E-004	...........
	24	6.45833	7.21148E-002	7.22647E-002	5.47238E-004	...........
	25	6.71667	7.21519E-002	7.26699E-002	5.49438E-004	...........
	26	6.975	7.22293E-002	7.26468E-002	5.45605E-004	...........
	27	7.23333	7.23547E-002	7.27132E-002	5.47471E-004	...........
	28	7.49167	7.24972E-002	7.27683E-002	5.48305E-004	...........
	29	7.75	7.26162E-002	7.27943E-002	5.45538E-004	...........
	30	8.00833	7.26982E-002	7.27721E-002	5.52738E-004	...........
	31	8.26667	7.27482E-002	7.28122E-002	5.44605E-004	...........
	32	8.525	7.27770E-002	7.28780E-002	5.51305E-004	...........
	33	8.78333	7.28008E-002	7.29720E-002	5.46005E-004	...........
	34	9.04167	7.28335E-002	7.28981E-002	5.46238E-004	...........
	35	9.3	7.28702E-002	7.28182E-002	5.50871E-004	...........
	36	9.5583	7.28897E-002	7.27976E-002	5.48771E-004	...........
	37	9.8167	7.28794E-002	7.27847E-002	5.54104E-004	...........
	38	10.075	7.28491E-002	7.27702E-002	5.47038E-004	...........
EOC	QUANT	0.0728491	Open Circuit (V)
PSTATMODEL	IQUANT	4	Pstat Model
PSTATSECTION	LABEL	REF600-11020	Pstat Section
PSTATSERIALNO	LABEL	11020	Pstat Serial Number
CTRLMODE	IQUANT	1	Control Mode
IESTAB	IQUANT	0	I/E Stability
CASPEED	IQUANT	1	Control Amp Speed
CONVENTION	IQUANT	1	Current Convention
ICHRANGE	IQUANT	2	Ich Range
ICHRANGEMODE	TOGGLE	F	Ich Auto Range
ICHOFFSETENABLE	TOGGLE	T	Ich Offset Enable
ICHOFFSET	QUANT	0	Ich Offset (V)
ICHFILTER	IQUANT	3	Ich Filter
VCHRANGE	IQUANT	2	Vch Range
VCHRANGEMODE	TOGGLE	F	Vch Auto Range
VCHOFFSETENABLE	TOGGLE	T	Vch Offset Enable
VCHOFFSET	QUANT	0	Vch Offset (V)
VCHFILTER	IQUANT	3	Vch Filter
ACHRANGE	IQUANT	2	Ach Range
ACHOFFSETENABLE	TOGGLE	F	Ach Offset Enable
ACHOFFSET	QUANT	0	Ach Offset (V)
ACHFILTER	IQUANT	3	Ach Filter
IERANGELOWERLIMIT	IQUANT	1	I/E Range Lower Limit
IERANGEMODE	TOGGLE	F	I/E AutoRange
IERANGE	IQUANT	8	I/E Range
POSFEEDENABLE	TOGGLE	F	Positive Feedback IR Comp
POSFEEDRESISTANCE	QUANT	0	Positive Feedback Resistance (ohm)
ACHSELECT	IQUANT	0	Ach Select
CABLEID	IQUANT	14	Cable ID
DCCALDATE	LABEL	1/27/2020	DC Calibration Date
ACCALDATE	LABEL	1/27/2020	AC Calibration Date
THERMOSELECT	IQUANT	1	Thermo Select
FRAMEWORKVERSION	QUANT	6.33	Framework Version
INSTRUMENTVERSION	LABEL	3.50	Instrument Version
ZCURVE	TABLE
	Pt	Time	Freq	Zreal	Zimag	Zsig	Zmod	Zphz	Idc	Vdc	IERange
	#	s	Hz	ohm	ohm	V	ohm	°	A	V	#
	0	1	1000078	1926.504	-1187.275	1	2262.971	-31.6449	1.630125E-006	0.0747927	8
	1	2	794390.6	2125.043	-1200.488	1	2440.692	-29.46315	1.521673E-006	0.0742583	8
	2	2	630984.4	2321.962	-1179.263	1	2604.26	-26.92481	-6.158614E-007	0.0745694	8
	3	2	501234.4	2506.841	-1157.753	1	2761.276	-24.78926	-1.659643E-007	0.0744719	8
	4	3	398109.4	2686.615	-1126.103	1	2913.075	-22.74115	-7.354836E-007	0.0745006	8
	5	3	316265.6	2854.545	-1092.918	1	3056.615	-20.95031	-2.785195E-006	0.0749089	8
	6	3	251203.1	3024.421	-1056.134	1	3203.52	-19.24931	-2.682189E-006	0.0748891	8
	7	3	199546.9	3171.581	-1017.528	1	3330.809	-17.78764	-6.455377E-007	0.0744545	8
	8	4	158578.1	3301.106	-973.683	1	3441.709	-16.43377	-6.504541E-007	0.0744399	8
	9	4	125953.1	3466.585	-918.8751	1	3586.3	-14.84578	-1.917901E-007	0.0742532	7
	10	4	100078.1	3594.024	-892.8452	1	3703.267	-13.95127	-2.07922E-009	0.0744076	7
	11	5	79453.13	3713.46	-876.0468	1	3815.395	-13.27402	-4.242532E-008	0.0743779	7
	12	5	63140.62	3833.079	-861.7316	1	3928.75	-12.67027	3.935615E-008	0.0741964	7
	13	5	50203.12	3950.229	-850.5712	1	4040.764	-12.15151	-1.247747E-008	0.0743506	7
	14	6	39890.62	4066.166	-841.7907	1	4152.387	-11.69633	-2.486826E-008	0.0744059	7
	15	6	31640.63	4180.541	-835.3523	1	4263.184	-11.29997	-2.341964E-008	0.0743183	7
	16	6	25171.88	4290.64	-832.5654	1	4370.67	-10.98133	2.559333E-008	0.0742806	7
	17	7	20015.62	4398.488	-832.5787	1	4476.593	-10.71856	5.449099E-008	0.0742938	7
	18	7	15890.62	4501.803	-838.9398	1	4579.307	-10.55634	-2.832028E-008	0.0743133	7
	19	7	12609.37	4605.447	-853.4427	1	4683.856	-10.49848	3.735645E-009	0.0742465	7
	20	8	10078.13	4701.999	-876.6956	1	4783.031	-10.56162	5.441756E-008	0.0742883	7
	21	8	8015.625	4797.861	-911.4083	1	4883.66	-10.75583	-2.299924E-008	0.0743972	7
	22	8	6328.125	4895.323	-961.518	1	4988.858	-11.11233	-3.58463E-008	0.0743521	7
	23	9	5015.625	4994.844	-1030.554	1	5100.05	-11.65789	-4.155021E-008	0.0743646	7
	24	9	3984.375	5092.106	-1117.208	1	5213.223	-12.37462	6.435484E-008	0.0741717	7
	25	9	3170.956	5189.219	-1226.058	1	5332.093	-13.2935	1.657959E-008	0.0742345	7
	26	9	2527.573	5288.632	-1364.612	1	5461.849	-14.4683	1.644206E-008	0.0742341	7
	27	10	1976.103	5398.564	-1554.041	1	5617.788	-16.05909	6.976965E-008	0.0741726	7
	28	10	1577.524	5494.445	-1778.322	1	5775.063	-17.93459	4.241281E-008	0.0741743	7
	29	10	1265.625	5597.385	-2044.597	1	5959.119	-20.0661	1.476373E-008	0.0742304	7
	30	11	998.264	5712.272	-2415.269	1	6201.901	-22.91966	-4.237013E-008	0.0743499	7
	31	11	796.875	5826.558	-2852.773	1	6487.457	-26.08709	4.50552E-009	0.0742372	7
	32	11	627.7902	5968.686	-3441.61	1	6889.84	-29.96822	-8.80821E-010	0.0743791	7
	33	12	505.5147	6116.502	-4099.777	1	7363.408	-33.83321	4.495849E-009	0.0742344	7
	34	12	397.9953	6313.437	-5011.146	1	8060.463	-38.43998	7.340154E-009	0.0743054	7
	35	12	315.5048	6553.653	-6106.843	1	8957.896	-42.97877	8.431607E-009	0.0743037	7
	36	13	252.4038	6847.372	-7398.757	1	10081.08	-47.21648	1.117566E-009	0.0743038	6
	37	13	198.6229	7251.799	-9105.804	1	11640.63	-51.46643	1.214252E-009	0.0743043	6
	38	13	158.3615	7751.199	-11085.55	1	13526.66	-55.03813	4.587186E-010	0.0743001	6
	39	14	125.558	8413.729	-13552.63	1	15951.95	-58.16721	5.668421E-010	0.0743012	6
	40	14	100.4464	9247.482	-16406.86	1	18833.5	-60.59286	1.709099E-009	0.0742982	6
	41	14	79.00281	10452.27	-20149.3	1	22698.99	-62.58237	1.392727E-009	0.0742962	6
	42	15	63.3446	11698.25	-24226.47	1	26902.99	-64.22546	5.203783E-010	0.0742928	6
	43	15	49.86702	13764.6	-29486.75	1	32541.25	-64.97653	7.729854E-010	0.0742923	6
	44	15	39.72458	16350.02	-35511.37	1	39094.5	-65.27788	5.27645E-010	0.0742961	6
	45	16	31.6723	19520.82	-42485.3	1	46755.36	-65.32253	8.87793E-010	0.074296	6
	46	16	24.93351	23857.66	-50866.68	1	56183.7	-64.87232	1.490191E-009	0.0742924	6
	47	16	19.86229	28912.46	-60051.45	1	66649.13	-64.29098	3.458875E-009	0.0742943	6
	48	17	15.83615	35301.6	-70974.1	1	79268.7	-63.55484	-1.607041E-009	0.074295	6
	49	17	12.40079	43061.48	-83559.27	1	94002.36	-62.73611	1.24934E-009	0.0743002	6
	50	17	9.93114	52647.51	-96457.9	1	109890.4	-61.37394	-1.109251E-009	0.074296	5
	51	18	7.944915	63181.82	-110912.3	1	127645.9	-60.33176	-9.709243E-010	0.0742998	5
	52	18	6.317385	75653.59	-127467.7	1	148227.8	-59.31037	-6.299065E-010	0.0743033	5
	53	19	5.008013	90052.1	-145921.5	1	171471.4	-58.32014	-7.337542E-012	0.0742964	5
	54	20	3.945707	106040.4	-166670.4	1	197543.9	-57.53432	1.037126E-010	0.0742803	5
	55	21	3.158693	122334	-189621.8	1	225659.1	-57.17202	2.616635E-010	0.0742826	5
	56	23	2.504006	139763.1	-216744.6	1	257899.1	-57.18492	2.216277E-010	0.0742878	5
	57	24	1.998082	157812.3	-248093.9	1	294032.9	-57.53959	-7.863993E-011	0.0742419	5
	58	26	1.584686	176134	-287385.6	1	337066.2	-58.49654	4.504986E-011	0.0742633	5
	59	28	1.266892	195807	-333157	1	386437.6	-59.55589	1.355197E-010	0.0742978	5
	60	30	0.999041	219261.3	-394242.3	1	451112.5	-60.91899	1.592702E-010	0.0743205	5
