EXPLAIN
TAG	EISPOT
TITLE	LABEL	Potentiostatic EIS	Test &Identifier
DATE	LABEL	3/12/2020	Date
TIME	LABEL	14:37:58	Time
NOTES	NOTES	1	&Notes...
	
PSTAT	PSTAT	REF600-11020	Potentiostat
VDC	POTEN	0.00000E+000	T	DC &Voltage (V)
FREQINIT	QUANT	1.00000E+006	Initial Fre&q. (Hz)
FREQFINAL	QUANT	1.00000E+000	Final Fre&q. (Hz)
PTSPERDEC	QUANT	1.00000E+001	Points/&decade
VAC	QUANT	2.50000E+001	AC &Voltage (mV rms)
AREA	QUANT	2.50000E-001	&Area (cm^2)
CONDIT	TWOPARAM	F	5.00000E+000	0.00000E+000	Conditionin&g	Time(s)	E(V)
DELAY	TWOPARAM	T	5.00000E+000	0.00000E+000	Init. De&lay	Time(s)	Stab.(mV/s)
SPEED	SELECTOR	1	&Optimize for:
ZGUESS	QUANT	5.00000E+003	E&stimated Z (ohms)
OCVCURVE	TABLE	19
	Pt	T	Vf	Vm	Ach	Over
	#	s	V vs. Ref.	V	V	bits
	0	0.258333	1.24625E-002	1.24625E-002	5.74630E-004	...........
	1	0.516667	1.24604E-002	1.23509E-002	5.72863E-004	...........
	2	0.775	1.24502E-002	1.23963E-002	5.73530E-004	...........
	3	1.03333	1.24301E-002	1.23991E-002	5.74497E-004	...........
	4	1.29167	1.24090E-002	1.23788E-002	5.74563E-004	...........
	5	1.55	1.24015E-002	1.27058E-002	5.82597E-004	...........
	6	1.80833	1.24276E-002	1.27475E-002	5.76063E-004	...........
	7	2.06667	1.24911E-002	1.23124E-002	5.72730E-004	...........
	8	2.325	1.25445E-002	1.22808E-002	5.74630E-004	...........
	9	2.58333	1.25292E-002	1.23115E-002	5.70097E-004	...........
	10	2.84167	1.24528E-002	1.22994E-002	5.74163E-004	...........
	11	3.1	1.23715E-002	1.22916E-002	5.73263E-004	...........
	12	3.35833	1.23195E-002	1.22506E-002	5.70230E-004	...........
	13	3.61667	1.22926E-002	1.22250E-002	5.75963E-004	...........
	14	3.875	1.22744E-002	1.22305E-002	5.70597E-004	...........
	15	4.13333	1.22572E-002	1.22392E-002	5.66663E-004	...........
	16	4.39167	1.22445E-002	1.22921E-002	5.79997E-004	...........
	17	4.65	1.22444E-002	1.23684E-002	5.79030E-004	...........
	18	4.90833	1.22609E-002	1.22805E-002	5.75263E-004	...........
EOC	QUANT	0.0122609	Open Circuit (V)
PSTATMODEL	IQUANT	4	Pstat Model
PSTATSECTION	LABEL	REF600-11020	Pstat Section
PSTATSERIALNO	LABEL	11020	Pstat Serial Number
CTRLMODE	IQUANT	1	Control Mode
IESTAB	IQUANT	0	I/E Stability
CASPEED	IQUANT	1	Control Amp Speed
CONVENTION	IQUANT	1	Current Convention
ICHRANGE	IQUANT	2	Ich Range
ICHRANGEMODE	TOGGLE	F	Ich Auto Range
ICHOFFSETENABLE	TOGGLE	T	Ich Offset Enable
ICHOFFSET	QUANT	0	Ich Offset (V)
ICHFILTER	IQUANT	3	Ich Filter
VCHRANGE	IQUANT	2	Vch Range
VCHRANGEMODE	TOGGLE	F	Vch Auto Range
VCHOFFSETENABLE	TOGGLE	T	Vch Offset Enable
VCHOFFSET	QUANT	0	Vch Offset (V)
VCHFILTER	IQUANT	3	Vch Filter
ACHRANGE	IQUANT	2	Ach Range
ACHOFFSETENABLE	TOGGLE	F	Ach Offset Enable
ACHOFFSET	QUANT	0	Ach Offset (V)
ACHFILTER	IQUANT	3	Ach Filter
IERANGELOWERLIMIT	IQUANT	1	I/E Range Lower Limit
IERANGEMODE	TOGGLE	F	I/E AutoRange
IERANGE	IQUANT	6	I/E Range
POSFEEDENABLE	TOGGLE	F	Positive Feedback IR Comp
POSFEEDRESISTANCE	QUANT	0	Positive Feedback Resistance (ohm)
ACHSELECT	IQUANT	0	Ach Select
CABLEID	IQUANT	14	Cable ID
DCCALDATE	LABEL	2/27/2020	DC Calibration Date
ACCALDATE	LABEL	2/27/2020	AC Calibration Date
THERMOSELECT	IQUANT	1	Thermo Select
FRAMEWORKVERSION	QUANT	6.33	Framework Version
INSTRUMENTVERSION	LABEL	3.50	Instrument Version
ZCURVE	TABLE
	Pt	Time	Freq	Zreal	Zimag	Zsig	Zmod	Zphz	Idc	Vdc	IERange
	#	s	Hz	ohm	ohm	V	ohm	°	A	V	#
	0	1	1000078	1838.177	-2012.709	1	2725.783	-47.59501	-7.019448E-007	0.0144086	8
	1	2	794390.6	2137.083	-2173.655	1	3048.262	-45.48608	-2.038039E-006	0.0145026	8
	2	4	630984.4	2462.434	-2313.181	1	3378.519	-43.20992	3.557462E-006	0.0136861	8
	3	5	501234.4	2771.49	-2454.035	1	3701.816	-41.52351	-1.296174E-006	0.014128	8
	4	6	398109.4	3082.587	-2634.818	1	4055.195	-40.52192	-6.524301E-007	0.01406	8
	5	8	316265.6	3401.297	-2844.376	1	4433.88	-39.90447	2.416487E-007	0.0139397	8
	6	9	251203.1	3692.781	-3099.056	1	4820.869	-40.00405	-1.736043E-006	0.014111	8
	7	10	199546.9	3982.286	-3403.631	1	5238.636	-40.52028	-1.741265E-007	0.0139265	8
	8	12	158578.1	4315.31	-3805.846	1	5753.813	-41.41037	-1.650027E-006	0.0142795	8
	9	13	125953.1	4780.043	-4275.042	1	6412.862	-41.80793	-2.199247E-007	0.01424	7
	10	15	100078.1	5222.021	-4892.207	1	7155.641	-43.13231	-1.800421E-008	0.0138207	7
	11	16	79453.13	5795.154	-5655.434	1	8097.392	-44.30091	2.722288E-008	0.013774	7
	12	17	63140.62	6518.637	-6534.336	1	9229.853	-45.06891	2.524182E-008	0.0138618	7
	13	19	50203.12	7465.661	-7503.63	1	10584.92	-45.14533	-2.003045E-008	0.0138745	7
	14	20	39890.62	8684.152	-8539.987	1	12179.73	-44.52045	-2.41266E-008	0.0138659	7
	15	22	31640.63	10244.36	-9563.66	1	14014.66	-43.03181	7.44505E-008	0.0137346	7
	16	23	25171.88	12117.49	-10430.37	1	15988.32	-40.72089	-2.450068E-009	0.0138815	7
	17	25	20015.62	14266.49	-10989.97	1	18008.67	-37.6083	-3.559864E-008	0.0138689	7
	18	26	15890.62	16610	-11214.09	1	20041.16	-34.02491	2.136482E-008	0.0138363	7
	19	28	12609.37	19031.44	-10839.83	1	21902	-29.66474	1.929662E-009	0.013802	6
	20	30	10078.13	21070.19	-10231.83	1	23423.13	-25.90153	1.706108E-009	0.0138041	6
	21	31	8015.625	22846.26	-9380.919	1	24697.23	-22.32357	1.065208E-008	0.0137026	6
	22	33	6328.125	24323.29	-8373.274	1	25724.2	-18.99598	-2.779879E-010	0.0138616	6
	23	34	5015.625	25433.26	-7417.052	1	26492.71	-16.25817	7.368525E-009	0.0138318	6
	24	36	3984.375	26254.06	-6559.828	1	27061.17	-14.02867	4.44261E-009	0.0138861	6
	25	37	3170.956	26884.17	-5869.747	1	27517.49	-12.31638	1.061285E-008	0.0137002	6
	26	39	2527.573	27359.72	-5347.841	1	27877.47	-11.05982	-3.979325E-010	0.0138571	6
	27	41	1976.103	27731.04	-4968.908	1	28172.7	-10.15858	1.584191E-009	0.0137989	6
	28	42	1577.524	28061.65	-4816.139	1	28471.94	-9.73863	1.723516E-009	0.0139179	6
	29	44	1265.625	28308.81	-4836.455	1	28718.98	-9.69517	-3.857517E-009	0.0139373	6
	30	45	998.264	28544.6	-5030.795	1	28984.53	-9.99535	-1.257906E-009	0.0138581	6
	31	47	796.875	28783.64	-5436.159	1	29292.48	-10.69507	7.495882E-009	0.0138272	6
	32	48	627.7902	29035.26	-6073.014	1	29663.58	-11.81367	2.06196E-009	0.013922	6
	33	49	505.5147	29281.06	-6880.715	1	30078.64	-13.22393	-3.774459E-009	0.0139395	6
	34	51	397.9953	29575.01	-8057.586	1	30653	-15.2401	1.459013E-009	0.0138711	6
	35	52	315.5048	29934.74	-9542.83	1	31419.01	-17.68165	1.95781E-009	0.0138652	6
	36	54	252.4038	30319.06	-11336.98	1	32369.31	-20.50191	1.450248E-009	0.0138674	6
	37	55	198.6229	30846.53	-13764.26	1	33778.15	-24.04727	1.47232E-009	0.0138717	6
	38	56	158.3615	31471.82	-16618.83	1	35590.18	-27.83648	1.366307E-009	0.0138665	6
	39	58	125.558	32233.26	-20228.46	1	38054.88	-32.11093	1.270967E-009	0.0138673	6
	40	59	100.4464	33211.16	-24496.12	1	41267.91	-36.41201	1.06738E-009	0.0138621	6
	41	61	79.00281	34589.78	-30179.88	1	45905.1	-41.10498	7.089971E-010	0.0138659	6
	42	62	63.3446	35910.16	-36547.73	1	51237.45	-45.50414	8.831285E-010	0.013862	6
	43	64	49.86702	38446.11	-44821.04	1	59051.07	-49.37802	7.796331E-010	0.0138618	6
	44	66	39.72458	41355.81	-54479.73	1	68398.42	-52.7977	8.713411E-010	0.0138666	6
	45	67	31.6723	45093.75	-65911.41	1	79860.88	-55.62175	6.461317E-010	0.0138675	6
	46	69	24.93351	50488.78	-80518.27	1	95038.5	-57.91034	6.853676E-010	0.0138653	6
	47	70	19.86229	57222.09	-96894.4	1	112529.6	-59.43555	9.30751E-010	0.0138754	5
	48	72	15.83615	65187.54	-116276.3	1	133302.6	-60.72387	6.985711E-011	0.0138701	5
	49	73	12.40079	78288.23	-140809.9	1	161110.2	-60.92659	1.085087E-009	0.0138718	5
	50	75	9.93114	92442.27	-165952.9	1	189963	-60.88048	4.734818E-012	0.0138684	5
	51	76	7.944915	110662.2	-194188.8	1	223507.1	-60.32252	1.091827E-009	0.0138732	5
	52	78	6.317385	134464.7	-227850.9	1	264569.1	-59.45331	-6.469295E-011	0.0138851	5
	53	80	5.008013	163679.1	-264376.5	1	310943.3	-58.23779	3.596868E-011	0.0138642	5
	54	82	3.945707	199199.3	-304154.9	1	363580.2	-56.77812	4.806446E-010	0.0138749	5
	55	85	3.158693	238065.5	-344275.7	1	418570.2	-55.33628	-1.279448E-010	0.0138605	5
	56	88	2.504006	283477.3	-388076.7	1	480586	-53.8531	5.682495E-010	0.013866	5
	57	91	1.998082	331534.1	-432626.1	1	545050.6	-52.53599	1.61189E-010	0.0139125	5
	58	94	1.584686	383092.6	-481880.2	1	615604.1	-51.51546	2.425343E-010	0.0138395	5
	59	98	1.266892	437051.2	-536699.2	1	692141.4	-50.84298	2.627113E-010	0.01389	5
	60	102	0.999041	497089.7	-602260.3	1	780906.9	-50.46464	-1.100143E-010	0.0138313	5
