EXPLAIN
TAG	EISPOT
TITLE	LABEL	Potentiostatic EIS	Test &Identifier
DATE	LABEL	2/21/2020	Date
TIME	LABEL	15:51:01	Time
NOTES	NOTES	1	&Notes...
	
PSTAT	PSTAT	REF600-11020	Potentiostat
VDC	POTEN	0.00000E+000	T	DC &Voltage (V)
FREQINIT	QUANT	1.00000E+006	Initial Fre&q. (Hz)
FREQFINAL	QUANT	1.00000E+000	Final Fre&q. (Hz)
PTSPERDEC	QUANT	1.00000E+001	Points/&decade
VAC	QUANT	2.50000E+001	AC &Voltage (mV rms)
AREA	QUANT	2.08200E-005	&Area (cm^2)
CONDIT	TWOPARAM	F	1.50000E+001	0.00000E+000	Conditionin&g	Time(s)	E(V)
DELAY	TWOPARAM	F	1.00000E+002	0.00000E+000	Init. De&lay	Time(s)	Stab.(mV/s)
SPEED	SELECTOR	1	&Optimize for:
ZGUESS	QUANT	2.00000E+003	E&stimated Z (ohms)
OCVCURVE	TABLE	39
	Pt	T	Vf	Vm	Ach	Over
	#	s	V vs. Ref.	V	V	bits
	0	0.258333	3.37694E-002	3.37694E-002	5.69671E-004	...........
	1	0.516667	3.37645E-002	3.35130E-002	5.69438E-004	...........
	2	0.775	3.37358E-002	3.33417E-002	5.68804E-004	...........
	3	1.03333	3.36597E-002	3.32074E-002	5.74971E-004	...........
	4	1.29167	3.35332E-002	3.29872E-002	5.68604E-004	...........
	5	1.55	3.33749E-002	3.28845E-002	5.63804E-004	...........
	6	1.80833	3.32072E-002	3.27786E-002	5.69304E-004	...........
	7	2.06667	3.30484E-002	3.26523E-002	5.67471E-004	...........
	8	2.325	3.29079E-002	3.25751E-002	5.74771E-004	...........
	9	2.58333	3.27863E-002	3.25140E-002	5.67071E-004	...........
	10	2.84167	3.26815E-002	3.24154E-002	5.66904E-004	...........
	11	3.1	3.25903E-002	3.23367E-002	5.66004E-004	...........
	12	3.35833	3.25071E-002	3.22894E-002	5.68538E-004	...........
	13	3.61667	3.24287E-002	3.22009E-002	5.68304E-004	...........
	14	3.875	3.23542E-002	3.21363E-002	5.68404E-004	...........
	15	4.13333	3.22828E-002	3.20820E-002	5.71571E-004	...........
	16	4.39167	3.22137E-002	3.20189E-002	5.68871E-004	...........
	17	4.65	3.21479E-002	3.19688E-002	5.71138E-004	...........
	18	4.90833	3.20869E-002	3.19560E-002	5.73171E-004	...........
	19	5.16667	3.20328E-002	3.18978E-002	5.67438E-004	...........
	20	5.425	3.19858E-002	3.18350E-002	5.68638E-004	...........
	21	5.68333	3.19419E-002	3.18111E-002	5.66471E-004	...........
	22	5.94167	3.18973E-002	3.17610E-002	5.68804E-004	...........
	23	6.2	3.18527E-002	3.17350E-002	5.71504E-004	...........
	24	6.45833	3.18105E-002	3.16990E-002	5.72638E-004	...........
	25	6.71667	3.17717E-002	3.16630E-002	5.74304E-004	...........
	26	6.975	3.17356E-002	3.16334E-002	5.72438E-004	...........
	27	7.23333	3.17013E-002	3.16021E-002	5.72838E-004	...........
	28	7.49167	3.16681E-002	3.15721E-002	5.75037E-004	...........
	29	7.75	3.16365E-002	3.15618E-002	5.70171E-004	...........
	30	8.00833	3.16061E-002	3.14670E-002	5.72138E-004	...........
	31	8.26667	3.15733E-002	3.14268E-002	5.74971E-004	...........
	32	8.525	3.15333E-002	3.13905E-002	5.68704E-004	...........
	33	8.78333	3.14867E-002	3.13567E-002	5.69038E-004	...........
	34	9.04167	3.14410E-002	3.13788E-002	5.71238E-004	...........
	35	9.3	3.14061E-002	3.14434E-002	5.72604E-004	...........
	36	9.5583	3.13931E-002	3.15427E-002	5.70038E-004	...........
	37	9.8167	3.14070E-002	3.14277E-002	5.69171E-004	...........
	38	10.075	3.14334E-002	3.13433E-002	5.75004E-004	...........
EOC	QUANT	0.0314334	Open Circuit (V)
PSTATMODEL	IQUANT	4	Pstat Model
PSTATSECTION	LABEL	REF600-11020	Pstat Section
PSTATSERIALNO	LABEL	11020	Pstat Serial Number
CTRLMODE	IQUANT	1	Control Mode
IESTAB	IQUANT	0	I/E Stability
CASPEED	IQUANT	1	Control Amp Speed
CONVENTION	IQUANT	1	Current Convention
ICHRANGE	IQUANT	2	Ich Range
ICHRANGEMODE	TOGGLE	F	Ich Auto Range
ICHOFFSETENABLE	TOGGLE	T	Ich Offset Enable
ICHOFFSET	QUANT	0	Ich Offset (V)
ICHFILTER	IQUANT	3	Ich Filter
VCHRANGE	IQUANT	2	Vch Range
VCHRANGEMODE	TOGGLE	F	Vch Auto Range
VCHOFFSETENABLE	TOGGLE	T	Vch Offset Enable
VCHOFFSET	QUANT	0	Vch Offset (V)
VCHFILTER	IQUANT	3	Vch Filter
ACHRANGE	IQUANT	2	Ach Range
ACHOFFSETENABLE	TOGGLE	F	Ach Offset Enable
ACHOFFSET	QUANT	0	Ach Offset (V)
ACHFILTER	IQUANT	3	Ach Filter
IERANGELOWERLIMIT	IQUANT	1	I/E Range Lower Limit
IERANGEMODE	TOGGLE	F	I/E AutoRange
IERANGE	IQUANT	7	I/E Range
POSFEEDENABLE	TOGGLE	F	Positive Feedback IR Comp
POSFEEDRESISTANCE	QUANT	0	Positive Feedback Resistance (ohm)
ACHSELECT	IQUANT	0	Ach Select
CABLEID	IQUANT	14	Cable ID
DCCALDATE	LABEL	1/27/2020	DC Calibration Date
ACCALDATE	LABEL	1/27/2020	AC Calibration Date
THERMOSELECT	IQUANT	1	Thermo Select
FRAMEWORKVERSION	QUANT	6.33	Framework Version
INSTRUMENTVERSION	LABEL	3.50	Instrument Version
ZCURVE	TABLE
	Pt	Time	Freq	Zreal	Zimag	Zsig	Zmod	Zphz	Idc	Vdc	IERange
	#	s	Hz	ohm	ohm	V	ohm	°	A	V	#
	0	2	1000078	1693.722	-2025.58	1	2640.392	-50.09877	-1.311508E-006	0.0337456	8
	1	3	794390.6	2075.145	-2187.252	1	3015.011	-46.50661	1.373734E-006	0.0331801	8
	2	4	630984.4	2496.031	-2306.354	1	3398.446	-42.7382	-1.003917E-006	0.0333444	8
	3	6	501234.4	2944.021	-2374.275	1	3782.121	-38.88525	9.081148E-007	0.0329819	8
	4	7	398109.4	3404.367	-2381.526	1	4154.682	-34.97472	3.723326E-007	0.0329937	8
	5	8	316265.6	3870.409	-2319.888	1	4512.421	-30.93809	-3.221043E-007	0.033148	8
	6	10	251203.1	4279.573	-2217.356	1	4819.897	-27.38983	1.711434E-006	0.0327021	8
	7	11	199546.9	4665.135	-2063.776	1	5101.241	-23.86378	6.452368E-007	0.0329064	8
	8	12	158578.1	4994.459	-1879.543	1	5336.414	-20.6226	2.584047E-007	0.0329686	8
	9	14	125953.1	5291.927	-1674.83	1	5550.635	-17.56194	-1.208226E-007	0.0331728	7
	10	15	100078.1	5511.399	-1488.948	1	5708.983	-15.118	-1.137424E-008	0.0329987	7
	11	16	79453.13	5689.696	-1322.817	1	5841.446	-13.08838	1.676401E-008	0.0329698	7
	12	18	63140.62	5828.574	-1182.459	1	5947.309	-11.46812	-9.692754E-009	0.0330186	7
	13	19	50203.12	5941.558	-1065.192	1	6036.285	-10.16391	-1.009942E-008	0.0330078	7
	14	20	39890.62	6038.226	-974.808	1	6116.406	-9.170676	4.532032E-008	0.0329027	7
	15	22	31640.63	6121.964	-909.3382	1	6189.131	-8.448769	1.92402E-008	0.0329856	7
	16	23	25171.88	6195.493	-868.7711	1	6256.109	-7.982327	-1.372789E-008	0.0330009	7
	17	24	20015.62	6266.93	-852.5526	1	6324.655	-7.746955	2.592971E-008	0.0329221	7
	18	26	15890.62	6335.881	-859.8444	1	6393.96	-7.728413	1.403559E-008	0.0329607	7
	19	27	12609.37	6406.768	-892.2075	1	6468.594	-7.928031	1.986794E-008	0.0329872	7
	20	28	10078.13	6473.599	-942.5814	1	6541.861	-8.284273	5.157986E-009	0.0329637	7
	21	30	8015.625	6551.104	-1020.543	1	6630.119	-8.85447	1.874185E-008	0.0329488	7
	22	31	6328.125	6633.701	-1129.16	1	6729.115	-9.66005	1.455597E-008	0.0329545	7
	23	33	5015.625	6723.328	-1268.956	1	6842.031	-10.68824	2.255375E-008	0.0329736	7
	24	34	3984.375	6817.611	-1441.506	1	6968.34	-11.9387	3.210982E-009	0.0329425	7
	25	35	3170.956	6923.32	-1659.634	1	7119.463	-13.48038	7.418275E-009	0.0329945	7
	26	37	2527.573	7038.896	-1921.348	1	7296.413	-15.26761	-1.252632E-008	0.0329883	7
	27	38	1976.103	7176.641	-2273.2	1	7528.055	-17.57559	1.735477E-008	0.0329424	7
	28	39	1577.524	7321.329	-2668.129	1	7792.353	-20.02337	1.472427E-008	0.0329485	7
	29	41	1265.625	7481.257	-3135.573	1	8111.783	-22.73972	1.001896E-008	0.0329257	7
	30	42	998.264	7672.53	-3761.032	1	8544.769	-26.11384	-8.351268E-009	0.0330043	7
	31	43	796.875	7886.121	-4478.267	1	9068.945	-29.59081	-8.761593E-009	0.0329839	7
	32	45	627.7902	8155.361	-5407.736	1	9785.37	-33.54795	-4.320921E-009	0.0330102	6
	33	46	505.5147	8436.322	-6442.003	1	10614.66	-37.36547	-6.667095E-010	0.0329958	6
	34	47	397.9953	8810.737	-7834.025	1	11789.87	-41.64174	1.403578E-009	0.0329802	6
	35	49	315.5048	9252.879	-9489.576	1	13253.97	-45.72355	8.999662E-010	0.0329755	6
	36	50	252.4038	9770.74	-11424.07	1	15032.52	-49.46042	1.209566E-009	0.0329697	6
	37	51	198.6229	10454.6	-13954.21	1	17436.13	-53.15919	1.047827E-009	0.0329746	6
	38	53	158.3615	11252.25	-16862.21	1	20271.83	-56.28459	1.046741E-009	0.0329702	6
	39	54	125.558	12273.63	-20470.52	1	23868.06	-59.05411	1.165357E-009	0.0329718	6
	40	56	100.4464	13466.97	-24641.69	1	28081.53	-61.34288	1.204129E-009	0.0329654	6
	41	57	79.00281	15056.8	-30111.45	1	33666.11	-63.4333	8.965742E-010	0.0329647	6
	42	58	63.3446	16759.41	-36240.46	1	39928.05	-65.1818	9.713708E-010	0.0329606	6
	43	60	49.86702	19395.53	-43924.31	1	48015.95	-66.17532	1.325795E-009	0.0329612	6
	44	61	39.72458	22393.12	-53172.54	1	57695.5	-67.16206	1.215232E-009	0.032971	6
	45	62	31.6723	26091.63	-64038.24	1	69149.61	-67.83214	1.118181E-009	0.0329699	6
	46	64	24.93351	31134.75	-78011.6	1	83995.13	-68.24286	1.051282E-009	0.0329627	6
	47	65	19.86229	37318.11	-93771.45	1	100924.4	-68.29899	1.465619E-009	0.0329692	6
	48	66	15.83615	45685.95	-112625.6	1	121539	-67.92034	-1.736294E-010	0.0329615	5
	49	68	12.40079	56234.21	-135867	1	147044.7	-67.51575	2.526627E-010	0.0329665	5
	50	69	9.93114	70221.66	-161238	1	175865.8	-66.46613	-4.759498E-011	0.0329703	5
	51	71	7.944915	87013.95	-189502.5	1	208524.8	-65.33681	8.459887E-010	0.032972	5
	52	73	6.317385	108689.1	-222894.6	1	247982.5	-64.00494	3.225702E-010	0.0329787	5
	53	75	5.008013	135795.3	-260142	1	293452.3	-62.43524	5.182125E-010	0.0329762	5
	54	77	3.945707	169727.6	-301963.3	1	346394.7	-60.66052	-6.078672E-011	0.0329696	5
	55	80	3.158693	206991.2	-344265.7	1	401701.6	-58.98343	3.770881E-010	0.0329818	5
	56	83	2.504006	251753.2	-391200.8	1	465207.2	-57.23712	-2.410599E-010	0.0329696	5
	57	86	1.998082	299676.9	-438864.6	1	531421.1	-55.67295	1.913297E-010	0.0329223	5
	58	89	1.584686	352070.5	-493539.8	1	606246.8	-54.49754	-6.328565E-011	0.0329578	5
	59	93	1.266892	408124.6	-550983.1	1	685673.4	-53.47189	2.00431E-010	0.0329211	5
	60	97	0.999041	469620.2	-621135.4	1	778686.3	-52.90826	1.192334E-010	0.0330011	5
