EXPLAIN
TAG	EISPOT
TITLE	LABEL	Potentiostatic EIS	Test &Identifier
DATE	LABEL	5/26/2020	Date
TIME	LABEL	18:12:46	Time
NOTES	NOTES	1	&Notes...
	
PSTAT	PSTAT	REF600-11020	Potentiostat
VDC	POTEN	0.00000E+000	T	DC &Voltage (V)
FREQINIT	QUANT	1.00000E+006	Initial Fre&q. (Hz)
FREQFINAL	QUANT	1.00000E+000	Final Fre&q. (Hz)
PTSPERDEC	QUANT	1.00000E+001	Points/&decade
VAC	QUANT	2.50000E+001	AC &Voltage (mV rms)
AREA	QUANT	5.00000E-004	&Area (cm^2)
CONDIT	TWOPARAM	F	5.00000E+000	0.00000E+000	Conditionin&g	Time(s)	E(V)
DELAY	TWOPARAM	T	3.00000E+000	0.00000E+000	Init. De&lay	Time(s)	Stab.(mV/s)
SPEED	SELECTOR	0	&Optimize for:
ZGUESS	QUANT	1.00000E+003	E&stimated Z (ohms)
OCVCURVE	TABLE	12
	Pt	T	Vf	Vm	Ach	Over
	#	s	V vs. Ref.	V	V	bits
	0	0.258333	1.20774E-001	1.20774E-001	5.66930E-004	...........
	1	0.516667	1.20773E-001	1.20756E-001	5.66397E-004	...........
	2	0.775	1.20771E-001	1.20736E-001	5.71097E-004	...........
	3	1.03333	1.20765E-001	1.20722E-001	5.69030E-004	...........
	4	1.29167	1.20754E-001	1.20706E-001	5.70030E-004	...........
	5	1.55	1.20739E-001	1.20689E-001	5.66963E-004	...........
	6	1.80833	1.20723E-001	1.20679E-001	5.67397E-004	...........
	7	2.06667	1.20708E-001	1.20666E-001	5.62430E-004	...........
	8	2.325	1.20693E-001	1.20657E-001	5.63763E-004	...........
	9	2.58333	1.20680E-001	1.20644E-001	5.64230E-004	...........
	10	2.84167	1.20668E-001	1.20634E-001	5.64030E-004	...........
	11	3.1	1.20657E-001	1.20621E-001	5.60264E-004	...........
EOC	QUANT	0.1206567	Open Circuit (V)
PSTATMODEL	IQUANT	4	Pstat Model
PSTATSECTION	LABEL	REF600-11020	Pstat Section
PSTATSERIALNO	LABEL	11020	Pstat Serial Number
CTRLMODE	IQUANT	1	Control Mode
IESTAB	IQUANT	0	I/E Stability
CASPEED	IQUANT	1	Control Amp Speed
CONVENTION	IQUANT	1	Current Convention
ICHRANGE	IQUANT	2	Ich Range
ICHRANGEMODE	TOGGLE	F	Ich Auto Range
ICHOFFSETENABLE	TOGGLE	T	Ich Offset Enable
ICHOFFSET	QUANT	0	Ich Offset (V)
ICHFILTER	IQUANT	3	Ich Filter
VCHRANGE	IQUANT	2	Vch Range
VCHRANGEMODE	TOGGLE	F	Vch Auto Range
VCHOFFSETENABLE	TOGGLE	T	Vch Offset Enable
VCHOFFSET	QUANT	0	Vch Offset (V)
VCHFILTER	IQUANT	3	Vch Filter
ACHRANGE	IQUANT	2	Ach Range
ACHOFFSETENABLE	TOGGLE	F	Ach Offset Enable
ACHOFFSET	QUANT	0	Ach Offset (V)
ACHFILTER	IQUANT	3	Ach Filter
IERANGELOWERLIMIT	IQUANT	1	I/E Range Lower Limit
IERANGEMODE	TOGGLE	F	I/E AutoRange
IERANGE	IQUANT	8	I/E Range
POSFEEDENABLE	TOGGLE	F	Positive Feedback IR Comp
POSFEEDRESISTANCE	QUANT	0	Positive Feedback Resistance (ohm)
ACHSELECT	IQUANT	0	Ach Select
CABLEID	IQUANT	14	Cable ID
DCCALDATE	LABEL	2/27/2020	DC Calibration Date
ACCALDATE	LABEL	2/27/2020	AC Calibration Date
THERMOSELECT	IQUANT	1	Thermo Select
FRAMEWORKVERSION	QUANT	6.33	Framework Version
INSTRUMENTVERSION	LABEL	3.50	Instrument Version
ZCURVE	TABLE
	Pt	Time	Freq	Zreal	Zimag	Zsig	Zmod	Zphz	Idc	Vdc	IERange
	#	s	Hz	ohm	ohm	V	ohm	°	A	V	#
	0	1	1000078	1986.232	-1685.668	1	2605.109	-40.32047	1.228342E-007	0.1230446	8
	1	1	794390.6	2263.43	-1764.084	1	2869.688	-37.93233	3.89019E-008	0.1227655	8
	2	2	630984.4	2544.758	-1828.855	1	3133.768	-35.70387	6.251464E-008	0.1226165	8
	3	2	501234.4	2824.202	-1890.381	1	3398.479	-33.79639	6.24329E-008	0.122504	8
	4	2	398109.4	3102.721	-1949.549	1	3664.372	-32.14259	5.93487E-008	0.122455	8
	5	2	316265.6	3377.574	-2010.208	1	3930.515	-30.75956	6.602829E-008	0.1224406	8
	6	3	251203.1	3667.486	-2080.43	1	4216.472	-29.56465	4.851506E-008	0.1224147	8
	7	3	199546.9	3956.622	-2168.302	1	4511.805	-28.72356	3.781253E-008	0.1224179	8
	8	3	158578.1	4259.528	-2257.592	1	4820.82	-27.92403	5.613904E-008	0.1224156	8
	9	4	125953.1	4622.489	-2301.913	1	5163.933	-26.47244	2.271231E-009	0.1223697	7
	10	4	100078.1	4934.018	-2418.163	1	5494.729	-26.10948	2.939016E-009	0.1223456	7
	11	4	79453.13	5275.163	-2557.411	1	5862.396	-25.86421	2.985907E-009	0.1223447	7
	12	5	63140.62	5637.072	-2701.435	1	6250.946	-25.60498	2.703044E-009	0.1223343	7
	13	5	50203.12	6013.591	-2851.423	1	6655.365	-25.36859	3.347278E-009	0.1223405	7
	14	5	39890.62	6411.993	-3013.843	1	7084.977	-25.17503	3.255098E-009	0.1223387	7
	15	6	31640.63	6832.99	-3187.022	1	7539.686	-25.00514	3.291042E-009	0.1223254	7
	16	6	25171.88	7262.46	-3372.295	1	8007.229	-24.90761	3.627955E-009	0.122332	7
	17	6	20015.62	7711.11	-3579.649	1	8501.477	-24.90166	4.234296E-009	0.1223234	7
	18	7	15890.62	8173.502	-3813.013	1	9019.157	-25.00948	4.351171E-009	0.122328	7
	19	7	12609.37	8730.483	-3980.379	1	9595.04	-24.50906	5.46306E-010	0.1223721	6
	20	7	10078.13	9201.591	-4303.341	1	10158.15	-25.06425	5.542735E-010	0.1223812	6
	21	8	8015.625	9718.8	-4690.461	1	10791.46	-25.76276	3.961275E-010	0.1223718	6
	22	8	6328.125	10301	-5161.796	1	11521.92	-26.6153	5.041032E-010	0.1223789	6
	23	8	5015.625	10932.82	-5694.517	1	12326.96	-27.51341	4.783156E-010	0.1223785	6
	24	8	3984.375	11636.17	-6296.104	1	13230.32	-28.41695	5.064351E-010	0.1223763	6
	25	9	3170.956	12404	-6954.868	1	14220.74	-29.27915	3.198562E-010	0.1223725	6
	26	9	2527.573	13241.58	-7678.462	1	15306.8	-30.10839	1.903089E-010	0.1223725	6
	27	9	1976.103	14209.86	-8545.696	1	16581.58	-31.02237	3.472054E-010	0.1223761	6
	28	10	1577.524	15141.92	-9437.42	1	17842.15	-31.93383	3.20008E-010	0.1223684	6
	29	10	1265.625	16078.86	-10456.53	1	19179.91	-33.03707	4.240794E-010	0.122375	6
	30	10	998.264	17116.67	-11766.02	1	20770.65	-34.50468	6.656385E-010	0.1223703	6
	31	11	796.875	18141.55	-13295.87	1	22492.13	-36.23755	3.881285E-010	0.1223728	6
	32	11	627.7902	19310.13	-15296.76	1	24634.77	-38.38495	2.091391E-010	0.1223724	6
	33	11	505.5147	20505.15	-17543.97	1	26986.15	-40.54992	1.749466E-010	0.1223696	6
	34	12	397.9953	22067.36	-20596.12	1	30185.57	-43.02495	3.996792E-010	0.1223938	6
	35	12	315.5048	23904.95	-24187.61	1	34007.16	-45.33675	4.887197E-010	0.1223862	6
	36	12	252.4038	26081.86	-28294.62	1	38481.8	-47.33028	4.538276E-010	0.1223841	6
	37	13	198.6229	28991.65	-33478.76	1	44287.06	-49.10837	3.868246E-010	0.1223825	6
	38	13	158.3615	32400.05	-39153.29	1	50820.7	-50.39163	3.508738E-010	0.1223829	6
	39	13	125.558	36677.68	-45803.78	1	58679.12	-51.31377	3.34196E-010	0.122388	6
	40	14	100.4464	41624.73	-53023.41	1	67409.95	-51.86718	5.203086E-010	0.1223821	6
	41	14	79.00281	47984.62	-61770.93	1	78218.74	-52.15939	3.601758E-010	0.1223799	6
	42	14	63.3446	54885.46	-70795.35	1	89578.99	-52.21468	2.975531E-010	0.1223784	6
	43	15	49.86702	63670.85	-81632.3	1	103526.9	-52.04679	1.220902E-010	0.1223773	5
	44	15	39.72458	73342.94	-93245.4	1	118633.4	-51.81289	5.380371E-011	0.1223843	5
	45	15	31.6723	84472.52	-106087.9	1	135610.7	-51.47143	1.867955E-010	0.1223804	5
	46	16	24.93351	98021.2	-121114.3	1	155810.3	-51.01579	-2.023671E-010	0.1223793	5
	47	16	19.86229	112726.6	-136979.3	1	177399.6	-50.54745	3.965459E-010	0.122382	5
	48	16	15.83615	129274.8	-154228.1	1	201241.9	-50.03008	-6.020069E-010	0.1223792	5
	49	16	12.40079	149284	-174996.8	1	230020.9	-49.53359	-1.220623E-009	0.1223811	5
	50	17	9.93114	168784.7	-196061	1	258704.8	-49.27555	-1.066282E-009	0.122378	5
	51	17	7.944915	191264.9	-220081.4	1	291578.6	-49.00725	4.113745E-010	0.1223829	5
	52	18	6.317385	216606.8	-248353.1	1	329541.8	-48.90595	-1.694345E-010	0.1223956	5
	53	18	5.008013	245599.5	-281075.7	1	373259.5	-48.85355	-3.736651E-010	0.1223766	5
	54	19	3.945707	278573.7	-318440.4	1	423092.9	-48.82036	1.998556E-010	0.1223834	5
	55	20	3.158693	313795	-358741.2	1	476615.7	-48.82344	-2.118751E-010	0.1223781	5
	56	21	2.504006	353447.2	-405811.2	1	538152.1	-48.94528	-4.1101E-011	0.1223649	5
	57	22	1.998082	396791.3	-458502	1	606355.9	-49.12683	1.892239E-010	0.1224101	5
	58	24	1.584686	443547.7	-520776	1	684063	-49.57878	1.155836E-010	0.1223773	5
	59	26	1.266892	495564.5	-590136.3	1	770613.4	-49.97828	3.876666E-011	0.1223484	5
	60	28	0.999041	557423.4	-678527.8	1	878134.8	-50.59625	8.515143E-012	0.122329	5
