EXPLAIN
TAG	EISPOT
TITLE	LABEL	Potentiostatic EIS	Test &Identifier
DATE	LABEL	2/21/2020	Date
TIME	LABEL	15:40:44	Time
NOTES	NOTES	1	&Notes...
	
PSTAT	PSTAT	REF600-11020	Potentiostat
VDC	POTEN	0.00000E+000	T	DC &Voltage (V)
FREQINIT	QUANT	1.00000E+006	Initial Fre&q. (Hz)
FREQFINAL	QUANT	1.00000E+000	Final Fre&q. (Hz)
PTSPERDEC	QUANT	1.00000E+001	Points/&decade
VAC	QUANT	2.50000E+001	AC &Voltage (mV rms)
AREA	QUANT	2.08200E-005	&Area (cm^2)
CONDIT	TWOPARAM	F	1.50000E+001	0.00000E+000	Conditionin&g	Time(s)	E(V)
DELAY	TWOPARAM	F	1.00000E+002	0.00000E+000	Init. De&lay	Time(s)	Stab.(mV/s)
SPEED	SELECTOR	1	&Optimize for:
ZGUESS	QUANT	2.00000E+003	E&stimated Z (ohms)
OCVCURVE	TABLE	39
	Pt	T	Vf	Vm	Ach	Over
	#	s	V vs. Ref.	V	V	bits
	0	0.258333	1.04732E-002	1.04732E-002	5.31771E-004	...........
	1	0.516667	1.04757E-002	1.06056E-002	5.33805E-004	...........
	2	0.775	1.04888E-002	1.06048E-002	5.36405E-004	...........
	3	1.03333	1.05198E-002	1.07038E-002	5.37038E-004	...........
	4	1.29167	1.05689E-002	1.08410E-002	5.36271E-004	...........
	5	1.55	1.06339E-002	1.08513E-002	5.32705E-004	...........
	6	1.80833	1.07092E-002	1.08807E-002	5.35705E-004	...........
	7	2.06667	1.07825E-002	1.09942E-002	5.37138E-004	...........
	8	2.325	1.08471E-002	1.10222E-002	5.36305E-004	...........
	9	2.58333	1.09051E-002	1.09804E-002	5.39238E-004	...........
	10	2.84167	1.09532E-002	1.10204E-002	5.33405E-004	...........
	11	3.1	1.09863E-002	1.10756E-002	5.33005E-004	...........
	12	3.35833	1.10096E-002	1.10961E-002	5.36005E-004	...........
	13	3.61667	1.10336E-002	1.11121E-002	5.33638E-004	...........
	14	3.875	1.10611E-002	1.11548E-002	5.30672E-004	...........
	15	4.13333	1.10893E-002	1.11549E-002	5.27272E-004	...........
	16	4.39167	1.11158E-002	1.11790E-002	5.32538E-004	...........
	17	4.65	1.11389E-002	1.11966E-002	5.34705E-004	...........
	18	4.90833	1.11594E-002	1.12359E-002	5.29538E-004	...........
	19	5.16667	1.11799E-002	1.12534E-002	5.31505E-004	...........
	20	5.425	1.12023E-002	1.12607E-002	5.24838E-004	...........
	21	5.68333	1.12246E-002	1.12607E-002	5.33938E-004	...........
	22	5.94167	1.12431E-002	1.12816E-002	5.41105E-004	...........
	23	6.2	1.12561E-002	1.12571E-002	5.34038E-004	...........
	24	6.45833	1.12646E-002	1.13077E-002	5.33571E-004	...........
	25	6.71667	1.12719E-002	1.13146E-002	5.38038E-004	...........
	26	6.975	1.12814E-002	1.12984E-002	5.32038E-004	...........
	27	7.23333	1.12923E-002	1.13082E-002	5.38071E-004	...........
	28	7.49167	1.13008E-002	1.13159E-002	5.32105E-004	...........
	29	7.75	1.13061E-002	1.13227E-002	5.30638E-004	...........
	30	8.00833	1.13104E-002	1.13272E-002	5.31805E-004	...........
	31	8.26667	1.13155E-002	1.13343E-002	5.36205E-004	...........
	32	8.525	1.13211E-002	1.13338E-002	5.27105E-004	...........
	33	8.78333	1.13266E-002	1.13388E-002	5.31838E-004	...........
	34	9.04167	1.13311E-002	1.13370E-002	5.30672E-004	...........
	35	9.3	1.13345E-002	1.13448E-002	5.33272E-004	...........
	36	9.5583	1.13372E-002	1.13473E-002	5.38405E-004	...........
	37	9.8167	1.13401E-002	1.13496E-002	5.35805E-004	...........
	38	10.075	1.13432E-002	1.13526E-002	5.37105E-004	...........
EOC	QUANT	0.0113432	Open Circuit (V)
PSTATMODEL	IQUANT	4	Pstat Model
PSTATSECTION	LABEL	REF600-11020	Pstat Section
PSTATSERIALNO	LABEL	11020	Pstat Serial Number
CTRLMODE	IQUANT	1	Control Mode
IESTAB	IQUANT	0	I/E Stability
CASPEED	IQUANT	1	Control Amp Speed
CONVENTION	IQUANT	1	Current Convention
ICHRANGE	IQUANT	2	Ich Range
ICHRANGEMODE	TOGGLE	F	Ich Auto Range
ICHOFFSETENABLE	TOGGLE	T	Ich Offset Enable
ICHOFFSET	QUANT	0	Ich Offset (V)
ICHFILTER	IQUANT	3	Ich Filter
VCHRANGE	IQUANT	2	Vch Range
VCHRANGEMODE	TOGGLE	F	Vch Auto Range
VCHOFFSETENABLE	TOGGLE	T	Vch Offset Enable
VCHOFFSET	QUANT	0	Vch Offset (V)
VCHFILTER	IQUANT	3	Vch Filter
ACHRANGE	IQUANT	2	Ach Range
ACHOFFSETENABLE	TOGGLE	F	Ach Offset Enable
ACHOFFSET	QUANT	0	Ach Offset (V)
ACHFILTER	IQUANT	3	Ach Filter
IERANGELOWERLIMIT	IQUANT	1	I/E Range Lower Limit
IERANGEMODE	TOGGLE	F	I/E AutoRange
IERANGE	IQUANT	7	I/E Range
POSFEEDENABLE	TOGGLE	F	Positive Feedback IR Comp
POSFEEDRESISTANCE	QUANT	0	Positive Feedback Resistance (ohm)
ACHSELECT	IQUANT	0	Ach Select
CABLEID	IQUANT	14	Cable ID
DCCALDATE	LABEL	1/27/2020	DC Calibration Date
ACCALDATE	LABEL	1/27/2020	AC Calibration Date
THERMOSELECT	IQUANT	1	Thermo Select
FRAMEWORKVERSION	QUANT	6.33	Framework Version
INSTRUMENTVERSION	LABEL	3.50	Instrument Version
ZCURVE	TABLE
	Pt	Time	Freq	Zreal	Zimag	Zsig	Zmod	Zphz	Idc	Vdc	IERange
	#	s	Hz	ohm	ohm	V	ohm	°	A	V	#
	0	2	1000078	1414.676	-2192.669	1	2609.427	-57.17052	4.631204E-007	0.0134376	8
	1	3	794390.6	1728.949	-2489.724	1	3031.17	-55.22258	-8.110808E-007	0.013331	8
	2	4	630984.4	2095.242	-2821.02	1	3513.999	-53.3978	1.002335E-006	0.0128876	8
	3	6	501234.4	2522.747	-3167.452	1	4049.322	-51.4641	5.275101E-008	0.0128774	8
	4	7	398109.4	3050.192	-3516.144	1	4654.776	-49.05894	-5.188975E-007	0.0129715	8
	5	9	316265.6	3675.919	-3854.152	1	5326.055	-46.35591	1.679905E-007	0.0127914	8
	6	10	251203.1	4388.04	-4151.856	1	6040.928	-43.4158	-8.827341E-007	0.0130233	8
	7	11	199546.9	5205.821	-4356.092	1	6787.939	-39.92169	-7.459756E-007	0.012941	8
	8	13	158578.1	6089.943	-4468.949	1	7553.735	-36.27213	6.197399E-008	0.0127938	8
	9	14	125953.1	6960.555	-4383.578	1	8225.878	-32.20166	3.72659E-008	0.0126137	7
	10	16	100078.1	7792.397	-4230.468	1	8866.696	-28.4974	3.377875E-009	0.0127567	7
	11	17	79453.13	8545.394	-3973.145	1	9423.886	-24.93587	-1.663513E-009	0.0127455	7
	12	19	63140.62	9197.782	-3661.817	1	9899.9	-21.70847	4.471266E-008	0.0127236	7
	13	20	50203.12	9733.09	-3323.377	1	10284.84	-18.85253	2.631007E-008	0.0127006	7
	14	22	39890.62	10175.36	-2998.571	1	10607.99	-16.41969	-1.006059E-008	0.01279	7
	15	23	31640.63	10549.48	-2696.453	1	10888.63	-14.33786	1.748434E-008	0.012736	7
	16	25	25171.88	10840.85	-2436.806	1	11111.35	-12.66839	6.022222E-009	0.0127365	7
	17	26	20015.62	11096.82	-2227.243	1	11318.12	-11.34905	-2.496833E-009	0.0128001	7
	18	28	15890.62	11315.37	-2054.433	1	11500.36	-10.2906	2.662121E-008	0.0126949	7
	19	30	12609.37	11524.72	-1897.563	1	11679.9	-9.349946	5.422525E-009	0.012718	6
	20	31	10078.13	11695.47	-1825.743	1	11837.12	-8.872653	-2.816344E-009	0.0127947	6
	21	33	8015.625	11844.88	-1788.968	1	11979.22	-8.588641	6.427247E-009	0.012651	6
	22	34	6328.125	11994.59	-1800.979	1	12129.05	-8.539129	1.083611E-009	0.0127163	6
	23	36	5015.625	12135.28	-1861.87	1	12277.28	-8.722655	4.148671E-010	0.0127219	6
	24	37	3984.375	12274.72	-1974.753	1	12432.56	-9.139414	4.318929E-010	0.0127876	6
	25	39	3170.956	12407.71	-2144.868	1	12591.73	-9.80755	6.339207E-009	0.0126477	6
	26	41	2527.573	12550.58	-2379.593	1	12774.17	-10.73586	-2.906963E-009	0.0127908	6
	27	42	1976.103	12709.43	-2720.657	1	12997.37	-12.08272	-4.314072E-010	0.0127892	6
	28	44	1577.524	12862.94	-3125.638	1	13237.25	-13.65791	-3.784345E-010	0.0127863	6
	29	45	1265.625	13029.16	-3623.792	1	13523.71	-15.54281	-1.5138E-009	0.0127465	6
	30	47	998.264	13228.32	-4302.636	1	13910.47	-18.0176	8.074003E-010	0.0127899	6
	31	48	796.875	13446.56	-5104.687	1	14382.9	-20.78815	5.178781E-010	0.0127862	6
	32	50	627.7902	13726.27	-6158.886	1	15044.68	-24.16545	3.923777E-009	0.0127389	6
	33	51	505.5147	14025.27	-7336.232	1	15828.09	-27.61282	3.921279E-009	0.012735	6
	34	53	397.9953	14425.92	-8930.284	1	16966.35	-31.75935	1.420598E-009	0.0127697	6
	35	54	315.5048	14910.23	-10835.71	1	18431.7	-36.00701	1.417056E-009	0.0127688	6
	36	55	252.4038	15481.19	-13066.97	1	20258.65	-40.1662	1.376382E-009	0.0127627	6
	37	57	198.6229	16257	-15987.69	1	22801.23	-44.52148	8.772995E-010	0.0127609	6
	38	58	158.3615	17178.09	-19349.8	1	25874.73	-48.40244	1.264401E-009	0.0127663	6
	39	59	125.558	18376.35	-23513.09	1	29842.17	-51.99105	9.125478E-010	0.0127662	6
	40	61	100.4464	19849.73	-28323.15	1	34586.31	-54.97605	9.520834E-010	0.012763	6
	41	62	79.00281	21842.36	-34620.28	1	40934.73	-57.75167	1.057272E-009	0.0127601	6
	42	64	63.3446	23852.49	-41616.97	1	47967.84	-60.18111	9.573072E-010	0.0127547	6
	43	65	49.86702	27235.49	-50221.99	1	57131.6	-61.52893	1.101545E-009	0.0127565	6
	44	66	39.72458	30911.47	-60545.37	1	67979.85	-62.95339	9.534808E-010	0.0127557	6
	45	68	31.6723	35498.59	-72724.38	1	80925.8	-63.98184	5.375972E-010	0.0127598	6
	46	69	24.93351	41512.76	-87681.52	1	97012.1	-64.66482	6.86611E-010	0.0127538	6
	47	70	19.86229	48700.25	-104644.3	1	115421.6	-65.04327	7.524693E-011	0.0127573	5
	48	72	15.83615	57809.82	-124995	1	137716.1	-65.1796	-3.492222E-010	0.0127584	5
	49	73	12.40079	70086.44	-150335.9	1	165870.4	-65.00512	-3.576456E-010	0.0127635	5
	50	75	9.93114	82903.55	-177174	1	195610.9	-64.92409	4.487261E-010	0.0127617	5
	51	76	7.944915	99187.5	-208663.3	1	231038	-64.57604	1.993097E-010	0.0127599	5
	52	78	6.317385	119971.1	-245495.6	1	273242	-63.95573	5.646567E-010	0.0127693	5
	53	80	5.008013	145881	-289498	1	324176.4	-63.256	3.952516E-010	0.0127766	5
	54	83	3.945707	178409.1	-341909.9	1	385658.1	-62.44439	1.824431E-010	0.0127705	5
	55	85	3.158693	215944.7	-397043.8	1	451968.8	-61.45906	2.236822E-010	0.0127851	5
	56	89	2.504006	263874.6	-461904.2	1	531963.6	-60.26173	2.555557E-010	0.0127661	5
	57	91	1.998082	319534.8	-531261.8	1	619952.9	-58.97461	-6.109126E-011	0.0128028	5
	58	94	1.584686	387408.7	-609975.6	1	722603.4	-57.57948	2.847791E-010	0.0127889	5
	59	98	1.266892	466158.3	-690183.1	1	832860.3	-55.96442	3.724151E-011	0.0128106	5
	60	102	0.999041	559226.4	-781148.1	1	960691	-54.401	2.0612E-010	0.0127339	5
