EXPLAIN
TAG	EISPOT
TITLE	LABEL	Potentiostatic EIS	Test &Identifier
DATE	LABEL	7/5/2020	Date
TIME	LABEL	17:04:05	Time
NOTES	NOTES	1	&Notes...
	
PSTAT	PSTAT	REF600-11020	Potentiostat
VDC	POTEN	0.00000E+000	T	DC &Voltage (V)
FREQINIT	QUANT	1.00000E+006	Initial Fre&q. (Hz)
FREQFINAL	QUANT	1.00000E+000	Final Fre&q. (Hz)
PTSPERDEC	QUANT	1.00000E+001	Points/&decade
VAC	QUANT	2.50000E+001	AC &Voltage (mV rms)
AREA	QUANT	4.00000E-004	&Area (cm^2)
CONDIT	TWOPARAM	F	5.00000E+000	0.00000E+000	Conditionin&g	Time(s)	E(V)
DELAY	TWOPARAM	F	3.00000E+000	0.00000E+000	Init. De&lay	Time(s)	Stab.(mV/s)
SPEED	SELECTOR	0	&Optimize for:
ZGUESS	QUANT	1.00000E+003	E&stimated Z (ohms)
OCVCURVE	TABLE	39
	Pt	T	Vf	Vm	Ach	Over
	#	s	V vs. Ref.	V	V	bits
	0	0.258333	2.82792E-001	2.82792E-001	5.02484E-004	...........
	1	0.516667	2.82756E-001	2.80912E-001	5.01250E-004	...........
	2	0.775	2.83593E-001	3.34495E-001	5.03350E-004	...........
	3	1.03333	2.88188E-001	3.18458E-001	5.00384E-004	...........
	4	1.29167	2.97562E-001	3.01435E-001	4.94350E-004	...........
	5	1.55	3.06634E-001	2.92411E-001	4.97950E-004	...........
	6	1.80833	3.09032E-001	2.79502E-001	4.97584E-004	...........
	7	2.06667	3.03648E-001	2.66428E-001	4.96650E-004	...........
	8	2.325	2.93336E-001	2.54214E-001	4.94784E-004	...........
	9	2.58333	2.81071E-001	2.47887E-001	5.01984E-004	...........
	10	2.84167	2.68945E-001	2.42496E-001	5.04584E-004	...........
	11	3.1	2.58173E-001	2.27101E-001	5.03417E-004	...........
	12	3.35833	2.48432E-001	2.08165E-001	5.05617E-004	...........
	13	3.61667	2.38031E-001	1.97794E-001	5.04750E-004	...........
	14	3.875	2.25845E-001	1.84023E-001	5.02750E-004	...........
	15	4.13333	2.12558E-001	1.79912E-001	5.05884E-004	...........
	16	4.39167	1.99701E-001	1.64162E-001	5.08283E-004	...........
	17	4.65	1.88017E-001	1.54945E-001	5.06284E-004	...........
	18	4.90833	1.77014E-001	1.39382E-001	5.03250E-004	...........
	19	5.16667	1.65951E-001	1.36164E-001	4.96917E-004	...........
	20	5.425	1.54890E-001	1.23859E-001	4.97950E-004	...........
	21	5.68333	1.44472E-001	1.19237E-001	4.94184E-004	...........
	22	5.94167	1.34915E-001	1.01670E-001	4.95184E-004	...........
	23	6.2	1.25673E-001	9.84428E-002	5.03384E-004	...........
	24	6.45833	1.16229E-001	8.71829E-002	5.06250E-004	...........
	25	6.71667	1.06830E-001	8.45546E-002	5.07283E-004	...........
	26	6.975	9.80654E-002	7.27057E-002	5.07450E-004	...........
	27	7.23333	9.01411E-002	7.19834E-002	5.08283E-004	...........
	28	7.49167	8.29303E-002	6.14765E-002	5.06550E-004	...........
	29	7.75	7.61679E-002	5.34609E-002	5.01484E-004	...........
	30	8.00833	6.90846E-002	3.14418E-002	5.08317E-004	...........
	31	8.26667	6.03451E-002	2.15310E-002	5.09784E-004	...........
	32	8.525	4.92337E-002	1.19383E-002	5.04884E-004	...........
	33	8.78333	3.67889E-002	7.03329E-003	5.03784E-004	...........
	34	9.04167	2.49974E-002	-1.65540E-003	5.05850E-004	...........
	35	9.3	1.50247E-002	-7.80017E-003	5.03984E-004	...........
	36	9.5583	6.64470E-003	-1.86385E-002	5.00584E-004	...........
	37	9.8167	-1.12330E-003	-2.82864E-002	5.05684E-004	...........
	38	10.075	-9.19743E-003	-3.68147E-002	5.04017E-004	...........
EOC	QUANT	-0.0091974	Open Circuit (V)
PSTATMODEL	IQUANT	4	Pstat Model
PSTATSECTION	LABEL	REF600-11020	Pstat Section
PSTATSERIALNO	LABEL	11020	Pstat Serial Number
CTRLMODE	IQUANT	1	Control Mode
IESTAB	IQUANT	0	I/E Stability
CASPEED	IQUANT	1	Control Amp Speed
CONVENTION	IQUANT	1	Current Convention
ICHRANGE	IQUANT	2	Ich Range
ICHRANGEMODE	TOGGLE	F	Ich Auto Range
ICHOFFSETENABLE	TOGGLE	T	Ich Offset Enable
ICHOFFSET	QUANT	0	Ich Offset (V)
ICHFILTER	IQUANT	3	Ich Filter
VCHRANGE	IQUANT	2	Vch Range
VCHRANGEMODE	TOGGLE	F	Vch Auto Range
VCHOFFSETENABLE	TOGGLE	T	Vch Offset Enable
VCHOFFSET	QUANT	0	Vch Offset (V)
VCHFILTER	IQUANT	3	Vch Filter
ACHRANGE	IQUANT	2	Ach Range
ACHOFFSETENABLE	TOGGLE	F	Ach Offset Enable
ACHOFFSET	QUANT	0	Ach Offset (V)
ACHFILTER	IQUANT	3	Ach Filter
IERANGELOWERLIMIT	IQUANT	1	I/E Range Lower Limit
IERANGEMODE	TOGGLE	F	I/E AutoRange
IERANGE	IQUANT	7	I/E Range
POSFEEDENABLE	TOGGLE	F	Positive Feedback IR Comp
POSFEEDRESISTANCE	QUANT	0	Positive Feedback Resistance (ohm)
ACHSELECT	IQUANT	0	Ach Select
CABLEID	IQUANT	14	Cable ID
DCCALDATE	LABEL	6/26/2020	DC Calibration Date
ACCALDATE	LABEL	6/26/2020	AC Calibration Date
THERMOSELECT	IQUANT	1	Thermo Select
FRAMEWORKVERSION	QUANT	6.33	Framework Version
INSTRUMENTVERSION	LABEL	3.50	Instrument Version
ZCURVE	TABLE
	Pt	Time	Freq	Zreal	Zimag	Zsig	Zmod	Zphz	Idc	Vdc	IERange
	#	s	Hz	ohm	ohm	V	ohm	°	A	V	#
	0	1	1000078	498.4924	-6256.69	1	6276.517	-85.44466	-7.583102E-006	-0.0064267	8
	1	2	794390.6	583.3155	-7825.173	1	7846.884	-85.73686	-4.492584E-006	-0.0072444	8
	2	2	630984.4	703.3989	-9829.36	1	9854.5	-85.90684	8.598102E-006	-0.0087965	8
	3	3	501234.4	782.3765	-12084.11	1	12109.41	-86.2956	-5.432075E-007	-0.0079068	8
	4	3	398109.4	1070.732	-15232.9	1	15270.49	-85.97925	-5.990323E-007	-0.0069838	8
	5	4	316265.6	1216.315	-18947.92	1	18986.92	-86.32708	-3.200543E-006	-0.0076237	8
	6	4	251203.1	1827.245	-23934.81	1	24004.46	-85.63436	-3.58863E-006	-0.0069192	8
	7	4	199546.9	1772.287	-29416.9	1	29470.24	-86.55225	-5.282195E-007	-0.0079332	8
	8	5	158578.1	2196.267	-37450.77	1	37515.11	-86.64378	-3.331199E-007	-0.0079859	8
	9	6	125953.1	2038.591	-46160.03	1	46205.02	-87.47126	1.469954E-006	-0.0041594	7
	10	6	100078.1	3811.246	-57453.5	1	57579.77	-86.20478	1.538032E-006	-0.0083752	7
	11	6	79453.13	4448.548	-71371.27	1	71509.77	-86.43339	1.169229E-006	-0.0075618	7
	12	7	63140.62	4583.853	-90822.66	1	90938.26	-87.11071	1.536957E-006	-0.0083839	7
	13	7	50203.12	6545.433	-112665.2	1	112855.2	-86.67506	3.656782E-007	-0.0063994	7
	14	8	39890.62	8099.842	-139717.8	1	139952.4	-86.68211	-1.528626E-006	-0.0071905	7
	15	8	31640.63	10191.54	-176005.2	1	176300	-86.686	-1.595963E-006	-0.0049572	7
	16	8	25171.88	10049.17	-221131.1	1	221359.4	-87.39802	-1.484489E-007	-0.0057855	7
	17	9	20015.62	11034.68	-274916.2	1	275137.6	-87.70148	-1.205523E-006	-0.0049837	7
	18	9	15890.62	17189.86	-380291.8	1	380680.2	-87.41189	-9.54186E-007	-0.00828	7
	19	10	12609.37	19423.37	-430451.5	1	430889.5	-87.41638	1.022525E-007	-0.0049815	6
	20	10	10078.13	17767.46	-536461.9	1	536756.1	-88.10307	-1.486928E-007	-0.0022627	6
	21	11	8015.625	34196.4	-673685.8	1	674553.2	-87.09415	-2.689964E-007	-0.0014612	6
	22	11	6328.125	39807.39	-833574.4	1	834524.4	-87.26591	1.022111E-007	-0.0049855	6
	23	11	5015.625	51756.66	-1059648	1	1060911	-87.2037	9.947083E-008	-0.0049858	6
	24	12	3984.375	97767.2	-1295911	1	1299594	-85.68562	3.769576E-007	-0.0113743	6
	25	12	3170.956	81406.04	-1609235	1	1611293	-87.10406	3.392124E-007	-0.0132387	6
	26	13	2527.573	74725.41	-2136188	1	2137495	-87.99657	-3.798393E-007	-0.0051436	6
	27	14	1976.103	92536.01	-2528684	1	2530377	-87.90422	-2.689938E-007	-0.0014686	6
	28	14	1577.524	52540.29	-3254557	1	3254981	-89.07512	-2.184539E-008	-0.0034627	6
	29	15	1265.625	217526	-3988734	1	3994661	-86.87846	-4.059455E-008	-0.0013566	5
	30	15	998.264	264256.6	-5048379	1	5055290	-87.00359	-4.069601E-008	-0.0013542	5
	31	16	796.875	434785.9	-6386622	1	6401404	-86.10545	-1.332555E-008	-0.0100996	5
	32	16	627.7902	442868.8	-8206213	1	8218155	-86.91089	-2.467841E-008	-0.008221	5
	33	16	505.5147	917642.1	-9.509163E+006	1	9.553337E+006	-84.48798	2.192747E-008	-0.0134187	5
	34	17	397.9953	656079.4	-1.216357E+007	1	1.218125E+007	-86.91257	-1.336268E-010	-0.007623	5
	35	17	315.5048	443374.5	-1.55084E+007	1	1.551474E+007	-88.3624	-1.199923E-010	-0.0076376	5
	36	18	252.4038	1964062	-1.949652E+007	1	1.95952E+007	-84.24748	-6.905334E-011	-0.0076273	5
	37	18	198.6229	1658784	-2.354747E+007	1	2.360583E+007	-85.9705	-2.517646E-012	-0.0076464	5
	38	19	158.3615	3369295	-2.813583E+007	1	2.833685E+007	-83.17129	-1.263147E-010	-0.0076526	5
	39	19	125.558	113953.9	-3.65856E+007	1	3.658578E+007	-89.82154	-6.297351E-011	-0.0076389	4
	40	19	100.4464	5.614951E+007	-7.801942E+007	1	9.612386E+007	-54.25795	1.273391E-010	-0.0076331	4
	41	20	79.00281	5.695997E+007	-1.216586E+007	1	5.824471E+007	-12.05643	-1.026087E-010	-0.0076378	4
	42	21	63.3446	8625437	-1.18319E+007	1	1.464213E+007	-53.90801	1.236166E-010	-0.0076582	4
	43	21	49.86702	1.114348E+008	-1.231584E+008	1	1.660894E+008	-47.86093	-3.323625E-011	-0.0076551	4
	44	22	39.72458	-8.870749E+007	-1.091655E+008	1	1.406632E+008	-129.0972	-2.397029E-011	-0.0076405	4
	45	23	31.6723	6367447	-5.914726E+007	1	5.948902E+007	-83.85554	9.128858E-011	-0.0076527	4
	46	23	24.93351	-3.226635E+007	-1.404165E+008	1	1.44076E+008	-102.9414	1.169743E-010	-0.0076527	5
	47	24	19.86229	-3.245051E+008	-9.716614E+008	1	1.024417E+009	-108.4677	5.397021E-011	-0.0076235	4
	48	24	15.83615	7280153	4.337946E+007	1	4.398612E+007	80.47312	-4.202823E-010	-0.0076516	4
	49	25	12.40079	-1.893602E+007	1.094984E+008	1	1.111237E+008	99.8114	-1.945159E-010	-0.0076267	4
	50	26	9.93114	-1.430549E+008	-1.127797E+008	1	1.821647E+008	-141.7489	8.689922E-011	-0.0076408	4
	51	27	7.944915	-2.545517E+008	-4810805	1	2.545972E+008	-178.9173	-6.365149E-011	-0.0076438	4
	52	28	6.317385	5.282605E+007	-6.865994E+008	1	6.886285E+008	-85.6004	1.329732E-011	-0.0076371	4
	53	29	5.008013	-4.562502E+008	-1.224228E+009	1	1.306483E+009	-110.4396	8.145944E-011	-0.0076486	5
	54	32	3.945707	7.935667E+008	1.065619E+008	1	8.006895E+008	7.648055	3.831833E-011	-0.0076566	4
	55	34	3.158693	4.03764E+007	-1.208034E+009	1	1.208708E+009	-88.0857	9.93528E-011	-0.0076546	5
	56	37	2.504006	1.018859E+008	-1.474872E+009	1	1.478387E+009	-86.04822	4.863836E-012	-0.0076371	3
	57	39	1.998082	1.898395E+008	-2.375271E+009	1	2.382846E+009	-85.43045	5.099505E-012	-0.0076351	3
	58	42	1.584686	2.061872E+008	-2.603946E+009	1	2.612096E+009	-85.47262	3.950082E-012	-0.0076107	3
	59	46	1.266892	3.852941E+008	-3.068613E+009	1	3.092707E+009	-82.84341	4.190304E-012	-0.0076488	2
	60	50	0.999041	1.736575E+009	-3.695869E+009	1	4.083521E+009	-64.83262	3.21931E-012	-0.0076752	2
