EXPLAIN
TAG	EISPOT
TITLE	LABEL	Potentiostatic EIS	Test &Identifier
DATE	LABEL	5/26/2020	Date
TIME	LABEL	17:57:07	Time
NOTES	NOTES	1	&Notes...
	
PSTAT	PSTAT	REF600-11020	Potentiostat
VDC	POTEN	0.00000E+000	T	DC &Voltage (V)
FREQINIT	QUANT	1.00000E+006	Initial Fre&q. (Hz)
FREQFINAL	QUANT	1.00000E+000	Final Fre&q. (Hz)
PTSPERDEC	QUANT	1.00000E+001	Points/&decade
VAC	QUANT	2.50000E+001	AC &Voltage (mV rms)
AREA	QUANT	5.00000E-004	&Area (cm^2)
CONDIT	TWOPARAM	F	5.00000E+000	0.00000E+000	Conditionin&g	Time(s)	E(V)
DELAY	TWOPARAM	T	3.00000E+000	0.00000E+000	Init. De&lay	Time(s)	Stab.(mV/s)
SPEED	SELECTOR	0	&Optimize for:
ZGUESS	QUANT	1.00000E+003	E&stimated Z (ohms)
OCVCURVE	TABLE	12
	Pt	T	Vf	Vm	Ach	Over
	#	s	V vs. Ref.	V	V	bits
	0	0.258333	1.00683E-001	1.00683E-001	5.81463E-004	...........
	1	0.516667	1.00682E-001	1.00647E-001	5.76263E-004	...........
	2	0.775	1.00678E-001	1.00619E-001	5.71897E-004	...........
	3	1.03333	1.00667E-001	1.00590E-001	5.79997E-004	...........
	4	1.29167	1.00647E-001	1.00568E-001	5.76297E-004	...........
	5	1.55	1.00623E-001	1.00544E-001	5.73930E-004	...........
	6	1.80833	1.00596E-001	1.00520E-001	5.74197E-004	...........
	7	2.06667	1.00570E-001	1.00500E-001	5.73963E-004	...........
	8	2.325	1.00546E-001	1.00480E-001	5.81630E-004	...........
	9	2.58333	1.00524E-001	1.00462E-001	5.75163E-004	...........
	10	2.84167	1.00503E-001	1.00448E-001	5.79563E-004	...........
	11	3.1	1.00483E-001	1.00433E-001	5.75497E-004	...........
EOC	QUANT	0.1004833	Open Circuit (V)
PSTATMODEL	IQUANT	4	Pstat Model
PSTATSECTION	LABEL	REF600-11020	Pstat Section
PSTATSERIALNO	LABEL	11020	Pstat Serial Number
CTRLMODE	IQUANT	1	Control Mode
IESTAB	IQUANT	0	I/E Stability
CASPEED	IQUANT	1	Control Amp Speed
CONVENTION	IQUANT	1	Current Convention
ICHRANGE	IQUANT	2	Ich Range
ICHRANGEMODE	TOGGLE	F	Ich Auto Range
ICHOFFSETENABLE	TOGGLE	T	Ich Offset Enable
ICHOFFSET	QUANT	0	Ich Offset (V)
ICHFILTER	IQUANT	3	Ich Filter
VCHRANGE	IQUANT	2	Vch Range
VCHRANGEMODE	TOGGLE	F	Vch Auto Range
VCHOFFSETENABLE	TOGGLE	T	Vch Offset Enable
VCHOFFSET	QUANT	0	Vch Offset (V)
VCHFILTER	IQUANT	3	Vch Filter
ACHRANGE	IQUANT	2	Ach Range
ACHOFFSETENABLE	TOGGLE	F	Ach Offset Enable
ACHOFFSET	QUANT	0	Ach Offset (V)
ACHFILTER	IQUANT	3	Ach Filter
IERANGELOWERLIMIT	IQUANT	1	I/E Range Lower Limit
IERANGEMODE	TOGGLE	F	I/E AutoRange
IERANGE	IQUANT	8	I/E Range
POSFEEDENABLE	TOGGLE	F	Positive Feedback IR Comp
POSFEEDRESISTANCE	QUANT	0	Positive Feedback Resistance (ohm)
ACHSELECT	IQUANT	0	Ach Select
CABLEID	IQUANT	14	Cable ID
DCCALDATE	LABEL	2/27/2020	DC Calibration Date
ACCALDATE	LABEL	2/27/2020	AC Calibration Date
THERMOSELECT	IQUANT	1	Thermo Select
FRAMEWORKVERSION	QUANT	6.33	Framework Version
INSTRUMENTVERSION	LABEL	3.50	Instrument Version
ZCURVE	TABLE
	Pt	Time	Freq	Zreal	Zimag	Zsig	Zmod	Zphz	Idc	Vdc	IERange
	#	s	Hz	ohm	ohm	V	ohm	°	A	V	#
	0	1	1000078	1878.702	-2571.379	1	3184.574	-53.84737	-8.846704E-009	0.1030459	8
	1	1	794390.6	2260.158	-2923.445	1	3695.246	-52.29186	6.231114E-008	0.1026658	8
	2	1	630984.4	2718.407	-3285.537	1	4264.327	-50.39612	3.007204E-008	0.1024661	8
	3	2	501234.4	3267.213	-3652.887	1	4900.843	-48.18994	8.951091E-008	0.1023372	8
	4	2	398109.4	3917.002	-3994.403	1	5594.476	-45.56054	4.503973E-008	0.1023025	8
	5	2	316265.6	4668.915	-4286.607	1	6338.278	-42.55555	1.251826E-008	0.1022738	8
	6	3	251203.1	5515.836	-4496.031	1	7116.09	-39.18393	4.657353E-008	0.1022416	8
	7	3	199546.9	6409.593	-4568.971	1	7871.365	-35.48254	4.643088E-008	0.1022398	8
	8	3	158578.1	7299.676	-4520.309	1	8585.945	-31.76777	2.867988E-008	0.102234	8
	9	4	125953.1	8270.235	-4221.239	1	9285.238	-27.04037	8.315255E-010	0.1021774	7
	10	4	100078.1	8989.415	-3946.871	1	9817.71	-23.70424	2.667198E-009	0.1021653	7
	11	4	79453.13	9638.28	-3624.398	1	10297.22	-20.60836	2.252295E-009	0.1021504	7
	12	5	63140.62	10176.96	-3278.456	1	10691.99	-17.85609	2.837858E-009	0.1021453	7
	13	5	50203.12	10605.56	-2938.67	1	11005.17	-15.48739	2.111201E-009	0.1021531	7
	14	5	39890.62	10953.09	-2627.503	1	11263.83	-13.48961	2.036954E-009	0.1021486	7
	15	6	31640.63	11239.98	-2362.528	1	11485.59	-11.87019	3.444179E-009	0.1021511	7
	16	6	25171.88	11465.96	-2151.061	1	11665.99	-10.62542	3.390262E-009	0.1021397	7
	17	6	20015.62	11656.02	-1991.49	1	11824.92	-9.69565	2.787681E-009	0.1021403	7
	18	6	15890.62	11827.69	-1886.058	1	11977.13	-9.060176	3.555925E-009	0.102149	7
	19	7	12609.37	12059.71	-1645.185	1	12171.41	-7.768336	1.4953E-010	0.1021992	6
	20	7	10078.13	12184.7	-1670.561	1	12298.69	-7.80676	3.393942E-010	0.1022014	6
	21	7	8015.625	12321.37	-1743.889	1	12444.17	-8.055779	1.906266E-010	0.1021963	6
	22	8	6328.125	12461.2	-1864.913	1	12599.97	-8.51158	2.00474E-010	0.1021999	6
	23	8	5015.625	12618.34	-2034.585	1	12781.31	-9.159554	-1.579736E-011	0.1021927	6
	24	8	3984.375	12784.51	-2256.414	1	12982.1	-10.00939	8.73355E-011	0.1021919	6
	25	9	3170.956	12959.13	-2534.463	1	13204.64	-11.06587	2.328235E-010	0.1021943	6
	26	9	2527.573	13159.68	-2878.936	1	13470.91	-12.34015	-1.271511E-012	0.1021857	6
	27	9	1976.103	13391.47	-3341.938	1	13802.18	-14.01236	-3.305828E-013	0.1021911	6
	28	10	1577.524	13638.54	-3861.678	1	14174.71	-15.80918	3.728379E-012	0.1021878	6
	29	10	1265.625	13897.09	-4479.564	1	14601.22	-17.86612	4.434816E-011	0.1021894	6
	30	10	998.264	14217.27	-5291.051	1	15169.9	-20.41308	-4.608338E-011	0.1021832	6
	31	11	796.875	14560.92	-6229.24	1	15837.42	-23.16149	-6.816417E-011	0.1021795	6
	32	11	627.7902	14982.63	-7435.824	1	16726.35	-26.39503	1.729758E-011	0.1021836	6
	33	11	505.5147	15428.72	-8768.463	1	17746.31	-29.61047	-1.755235E-010	0.102187	6
	34	12	397.9953	16005.5	-10553.24	1	19171.52	-33.3989	5.093821E-010	0.1022054	6
	35	12	315.5048	16684.37	-12661.63	1	20944.81	-37.19457	5.027563E-010	0.1022024	6
	36	12	252.4038	17462.89	-15111.47	1	23093.49	-40.87119	4.452173E-010	0.1022018	6
	37	12	198.6229	18473.57	-18293.98	1	25998.89	-44.72014	4.667109E-010	0.1021993	6
	38	13	158.3615	19629.12	-21935.64	1	29435.95	-48.17621	3.975479E-010	0.1022004	6
	39	13	125.558	21073.27	-26433.88	1	33805.81	-51.4379	4.309337E-010	0.1022038	6
	40	13	100.4464	22759.87	-31634.37	1	38971.08	-54.26625	4.453178E-010	0.1021978	6
	41	14	79.00281	24983.19	-38380.23	1	45795.22	-56.93832	4.165125E-010	0.1021988	6
	42	14	63.3446	27485.07	-45833.11	1	53442.52	-59.04985	4.290037E-010	0.1021979	6
	43	14	49.86702	30793.32	-55518.63	1	63486.59	-60.98513	4.711955E-010	0.1021958	6
	44	15	39.72458	34642.14	-66560.54	1	75035.88	-62.5048	4.094275E-010	0.1022004	6
	45	15	31.6723	39307.79	-79729.6	1	88892.7	-63.75607	5.556627E-010	0.1021963	6
	46	16	24.93351	45387.56	-96397.4	1	106548.1	-64.78717	-2.194856E-010	0.1021964	5
	47	16	19.86229	52483.7	-115523.8	1	126886.9	-65.56719	-2.791787E-010	0.1021934	5
	48	16	15.83615	61281.84	-138365.9	1	151329.4	-66.11159	2.559937E-010	0.1021892	5
	49	16	12.40079	73532.82	-167910.4	1	183305.7	-66.34999	-2.927765E-010	0.1021977	5
	50	17	9.93114	87569.7	-199823.5	1	218169.3	-66.33527	-8.448733E-011	0.1021908	5
	51	17	7.944915	105508.9	-237039.8	1	259460.9	-66.00565	6.902292E-010	0.102191	5
	52	17	6.317385	129113.4	-281868.1	1	310032.1	-65.38924	-1.484297E-010	0.1022137	5
	53	18	5.008013	159386.1	-334154.5	1	370220.4	-64.49964	-1.720255E-010	0.1021938	5
	54	19	3.945707	198019.1	-394320.2	1	441248.2	-63.33518	2.235145E-010	0.1022016	5
	55	20	3.158693	242906.9	-457730.6	1	518190.2	-62.04616	-8.91866E-011	0.1021958	5
	56	21	2.504006	297888.5	-529991	1	607970.4	-60.66125	-9.431439E-013	0.1021877	5
	57	22	1.998082	361227.9	-607092.1	1	706432.2	-59.24679	1.778105E-010	0.1022346	5
	58	24	1.584686	433587.4	-693585.6	1	817960.3	-57.98889	1.200861E-010	0.1022087	5
	59	26	1.266892	515293.1	-784526.6	1	938620.8	-56.70227	6.990573E-011	0.1021708	5
	60	28	0.999041	614008.4	-894861.9	1	1085258	-55.54408	-3.303804E-012	0.1021464	4
