EXPLAIN
TAG	EISPOT
TITLE	LABEL	Potentiostatic EIS	Test &Identifier
DATE	LABEL	5/26/2020	Date
TIME	LABEL	18:07:20	Time
NOTES	NOTES	1	&Notes...
	
PSTAT	PSTAT	REF600-11020	Potentiostat
VDC	POTEN	0.00000E+000	T	DC &Voltage (V)
FREQINIT	QUANT	1.00000E+006	Initial Fre&q. (Hz)
FREQFINAL	QUANT	1.00000E+000	Final Fre&q. (Hz)
PTSPERDEC	QUANT	1.00000E+001	Points/&decade
VAC	QUANT	2.50000E+001	AC &Voltage (mV rms)
AREA	QUANT	5.00000E-004	&Area (cm^2)
CONDIT	TWOPARAM	F	5.00000E+000	0.00000E+000	Conditionin&g	Time(s)	E(V)
DELAY	TWOPARAM	T	3.00000E+000	0.00000E+000	Init. De&lay	Time(s)	Stab.(mV/s)
SPEED	SELECTOR	0	&Optimize for:
ZGUESS	QUANT	1.00000E+003	E&stimated Z (ohms)
OCVCURVE	TABLE	12
	Pt	T	Vf	Vm	Ach	Over
	#	s	V vs. Ref.	V	V	bits
	0	0.258333	1.19310E-001	1.19310E-001	5.84930E-004	...........
	1	0.516667	1.19311E-001	1.19326E-001	5.88497E-004	...........
	2	0.775	1.19312E-001	1.19340E-001	5.84997E-004	...........
	3	1.03333	1.19318E-001	1.19352E-001	5.83197E-004	...........
	4	1.29167	1.19326E-001	1.19362E-001	5.86830E-004	...........
	5	1.55	1.19338E-001	1.19368E-001	5.82863E-004	...........
	6	1.80833	1.19349E-001	1.19378E-001	5.86197E-004	...........
	7	2.06667	1.19359E-001	1.19388E-001	5.83697E-004	...........
	8	2.325	1.19369E-001	1.19397E-001	5.86296E-004	...........
	9	2.58333	1.19378E-001	1.19406E-001	5.85663E-004	...........
	10	2.84167	1.19387E-001	1.19418E-001	5.86996E-004	...........
	11	3.1	1.19397E-001	1.19427E-001	5.86530E-004	...........
EOC	QUANT	0.1193966	Open Circuit (V)
PSTATMODEL	IQUANT	4	Pstat Model
PSTATSECTION	LABEL	REF600-11020	Pstat Section
PSTATSERIALNO	LABEL	11020	Pstat Serial Number
CTRLMODE	IQUANT	1	Control Mode
IESTAB	IQUANT	0	I/E Stability
CASPEED	IQUANT	1	Control Amp Speed
CONVENTION	IQUANT	1	Current Convention
ICHRANGE	IQUANT	2	Ich Range
ICHRANGEMODE	TOGGLE	F	Ich Auto Range
ICHOFFSETENABLE	TOGGLE	T	Ich Offset Enable
ICHOFFSET	QUANT	0	Ich Offset (V)
ICHFILTER	IQUANT	3	Ich Filter
VCHRANGE	IQUANT	2	Vch Range
VCHRANGEMODE	TOGGLE	F	Vch Auto Range
VCHOFFSETENABLE	TOGGLE	T	Vch Offset Enable
VCHOFFSET	QUANT	0	Vch Offset (V)
VCHFILTER	IQUANT	3	Vch Filter
ACHRANGE	IQUANT	2	Ach Range
ACHOFFSETENABLE	TOGGLE	F	Ach Offset Enable
ACHOFFSET	QUANT	0	Ach Offset (V)
ACHFILTER	IQUANT	3	Ach Filter
IERANGELOWERLIMIT	IQUANT	1	I/E Range Lower Limit
IERANGEMODE	TOGGLE	F	I/E AutoRange
IERANGE	IQUANT	8	I/E Range
POSFEEDENABLE	TOGGLE	F	Positive Feedback IR Comp
POSFEEDRESISTANCE	QUANT	0	Positive Feedback Resistance (ohm)
ACHSELECT	IQUANT	0	Ach Select
CABLEID	IQUANT	14	Cable ID
DCCALDATE	LABEL	2/27/2020	DC Calibration Date
ACCALDATE	LABEL	2/27/2020	AC Calibration Date
THERMOSELECT	IQUANT	1	Thermo Select
FRAMEWORKVERSION	QUANT	6.33	Framework Version
INSTRUMENTVERSION	LABEL	3.50	Instrument Version
ZCURVE	TABLE
	Pt	Time	Freq	Zreal	Zimag	Zsig	Zmod	Zphz	Idc	Vdc	IERange
	#	s	Hz	ohm	ohm	V	ohm	°	A	V	#
	0	1	1000078	1828.737	-2351.512	1	2978.907	-52.12831	5.980824E-008	0.1220468	8
	1	2	794390.6	2240.333	-2622.966	1	3449.499	-49.49864	6.144684E-008	0.1216136	8
	2	2	630984.4	2727.28	-2864.509	1	3955.182	-46.40583	5.698367E-008	0.1214456	8
	3	2	501234.4	3286.576	-3060.026	1	4490.584	-42.95562	5.383339E-008	0.1213061	8
	4	3	398109.4	3900.769	-3167.658	1	5024.943	-39.07867	1.724217E-008	0.1212604	8
	5	3	316265.6	4539.808	-3183.625	1	5544.847	-35.04077	1.960338E-008	0.1212194	8
	6	3	251203.1	5168.563	-3110.823	1	6032.518	-31.04263	5.298205E-008	0.12119	8
	7	4	199546.9	5748.199	-2935.069	1	6454.179	-27.04916	6.126239E-008	0.1211579	8
	8	4	158578.1	6245.593	-2700.477	1	6804.411	-23.38274	4.534162E-008	0.1211609	8
	9	4	125953.1	6736.266	-2349.677	1	7134.302	-19.22928	5.776161E-009	0.1211082	7
	10	5	100078.1	7040.843	-2098.18	1	7346.825	-16.59412	1.41029E-009	0.1210834	7
	11	5	79453.13	7303.899	-1877.361	1	7541.315	-14.415	1.649714E-009	0.1210858	7
	12	5	63140.62	7511.496	-1681.391	1	7697.379	-12.61723	2.001787E-009	0.1210814	7
	13	5	50203.12	7683.76	-1520.759	1	7832.808	-11.19522	2.42639E-009	0.1210797	7
	14	6	39890.62	7825.529	-1394.261	1	7948.765	-10.10228	2.905205E-009	0.1210827	7
	15	6	31640.63	7952.365	-1302.171	1	8058.272	-9.299451	2.410286E-009	0.1210753	7
	16	6	25171.88	8061.682	-1243.985	1	8157.096	-8.77203	2.078837E-009	0.121068	7
	17	7	20015.62	8169.326	-1219.041	1	8259.778	-8.487153	2.215714E-009	0.1210704	7
	18	7	15890.62	8275.135	-1225.104	1	8365.329	-8.421266	2.599077E-009	0.1210751	7
	19	7	12609.37	8382.275	-1261.936	1	8476.734	-8.561481	2.450448E-009	0.1210702	7
	20	8	10078.13	8488.673	-1326.193	1	8591.645	-8.879593	2.156972E-009	0.1210686	7
	21	8	8015.625	8601.316	-1424.603	1	8718.494	-9.404305	2.156969E-009	0.1210701	7
	22	8	6328.125	8748.575	-1496.01	1	8875.562	-9.70375	-1.734758E-010	0.1211225	6
	23	9	5015.625	8877.096	-1684.228	1	9035.455	-10.74289	-2.16296E-010	0.1211277	6
	24	9	3984.375	9019.316	-1914.276	1	9220.224	-11.98275	-3.163005E-010	0.1211194	6
	25	9	3170.956	9173.839	-2191.19	1	9431.895	-13.43353	-3.369348E-010	0.1211201	6
	26	10	2527.573	9341.051	-2525.191	1	9676.35	-15.12734	-2.559873E-010	0.1211202	6
	27	10	1976.103	9544.23	-2967.253	1	9994.85	-17.2702	-4.152373E-010	0.1211097	6
	28	10	1577.524	9752.79	-3460.192	1	10348.43	-19.53417	-3.67247E-010	0.1211116	6
	29	11	1265.625	9978.76	-4042.095	1	10766.34	-22.05139	-3.122373E-010	0.1211167	6
	30	11	998.264	10248.87	-4801.872	1	11318	-25.10437	-4.664322E-010	0.1211132	6
	31	11	796.875	10543.22	-5683.476	1	11977.53	-28.32754	-2.531949E-010	0.1211121	6
	32	11	627.7902	10899.27	-6823.839	1	12859.19	-32.04996	-1.550865E-011	0.1211126	6
	33	12	505.5147	11267.39	-8087.623	1	13869.53	-35.67041	-3.367885E-010	0.1211106	6
	34	12	397.9953	11748.55	-9791.04	1	15293.56	-39.80724	4.859334E-010	0.1211326	6
	35	12	315.5048	12306.81	-11822.19	1	17065.22	-43.84941	3.977308E-010	0.1211326	6
	36	13	252.4038	12955.7	-14197.7	1	19220.42	-47.61889	3.883597E-010	0.1211304	6
	37	13	198.6229	13807.2	-17307.8	1	22140.43	-51.41909	4.313433E-010	0.1211315	6
	38	13	158.3615	14796.54	-20886.45	1	25596.51	-54.68519	4.267829E-010	0.121124	6
	39	14	125.558	16047.86	-25326.54	1	29982.79	-57.64011	3.9343E-010	0.1211271	6
	40	14	100.4464	17526.19	-30478.3	1	35158.13	-60.09945	2.106897E-010	0.1211308	6
	41	14	79.00281	19487.43	-37186	1	41982.84	-62.34308	2.646754E-010	0.1211226	6
	42	15	63.3446	21700.83	-44628.6	1	49624.98	-64.06848	3.30874E-010	0.1211201	6
	43	15	49.86702	24646.13	-54369.68	1	59695.01	-65.61491	1.184155E-010	0.1211175	6
	44	15	39.72458	28099.65	-65573.84	1	71340.86	-66.80393	3.238292E-010	0.1211222	6
	45	16	31.6723	32359.7	-79035.2	1	85403.24	-67.73414	2.347292E-010	0.1211164	6
	46	16	24.93351	38013.12	-96235.6	1	103471.2	-68.44595	4.772022E-010	0.1211115	6
	47	16	19.86229	44893.48	-115891.9	1	124283.4	-68.82494	4.358491E-010	0.1211251	5
	48	17	15.83615	53568.29	-139464.9	1	149398.9	-68.98828	2.079445E-010	0.1211215	5
	49	17	12.40079	65775.84	-169875.5	1	182165.1	-68.83358	5.174626E-010	0.1211237	5
	50	17	9.93114	79953.11	-202788.4	1	217980.8	-68.48224	2.436894E-010	0.1211326	5
	51	18	7.944915	98197.6	-241322.6	1	260536.7	-67.85789	-1.853975E-010	0.1211332	5
	52	18	6.317385	122288.9	-287038.7	1	312002.9	-66.92425	2.023426E-010	0.1211201	5
	53	19	5.008013	153445.9	-340602.2	1	373571.3	-65.74779	5.89816E-011	0.1211203	5
	54	20	3.945707	193396.7	-403254.4	1	447231.9	-64.3781	-1.181035E-010	0.1211236	5
	55	21	3.158693	239812.8	-467859.8	1	525740.4	-62.8615	3.345218E-011	0.1211081	5
	56	22	2.504006	298404.3	-543049.9	1	619635.6	-61.21134	1.716456E-010	0.1211144	5
	57	23	1.998082	365609.4	-620960.7	1	720598.6	-59.51126	4.466685E-011	0.1210924	5
	58	24	1.584686	448116.6	-710829.3	1	840289.7	-57.77211	-2.513474E-011	0.1210643	5
	59	26	1.266892	537786.3	-802940.6	1	966399	-56.18697	-2.043342E-011	0.1210871	5
	60	29	0.999041	648870.7	-907430.6	1	1115555	-54.43282	-4.440359E-011	0.1211157	4
