EXPLAIN
TAG	EISPOT
TITLE	LABEL	Potentiostatic EIS	Test &Identifier
DATE	LABEL	9/1/2020	Date
TIME	LABEL	21:45:57	Time
NOTES	NOTES	1	&Notes...
	
PSTAT	PSTAT	REF600-11020	Potentiostat
VDC	POTEN	0.00000E+000	T	DC &Voltage (V)
FREQINIT	QUANT	1.00000E+006	Initial Fre&q. (Hz)
FREQFINAL	QUANT	1.00000E+000	Final Fre&q. (Hz)
PTSPERDEC	QUANT	1.00000E+001	Points/&decade
VAC	QUANT	2.50000E+001	AC &Voltage (mV rms)
AREA	QUANT	4.00000E-005	&Area (cm^2)
CONDIT	TWOPARAM	F	5.00000E+000	0.00000E+000	Conditionin&g	Time(s)	E(V)
DELAY	TWOPARAM	F	3.00000E+000	0.00000E+000	Init. De&lay	Time(s)	Stab.(mV/s)
SPEED	SELECTOR	0	&Optimize for:
ZGUESS	QUANT	1.00000E+003	E&stimated Z (ohms)
OCVCURVE	TABLE	39
	Pt	T	Vf	Vm	Ach	Over
	#	s	V vs. Ref.	V	V	bits
	0	0.258333	7.07696E-002	7.07696E-002	5.61892E-004	...........
	1	0.516667	7.07696E-002	7.07694E-002	5.63858E-004	...........
	2	0.775	7.07696E-002	7.07691E-002	5.65458E-004	...........
	3	1.03333	7.07695E-002	7.07692E-002	5.64292E-004	...........
	4	1.29167	7.07694E-002	7.07691E-002	5.61392E-004	...........
	5	1.55	7.07693E-002	7.07702E-002	5.63625E-004	...........
	6	1.80833	7.07693E-002	7.07674E-002	5.63459E-004	...........
	7	2.06667	7.07691E-002	7.07625E-002	5.67925E-004	...........
	8	2.325	7.07683E-002	7.07624E-002	5.69625E-004	...........
	9	2.58333	7.07666E-002	7.07590E-002	5.65758E-004	...........
	10	2.84167	7.07642E-002	7.07531E-002	5.64458E-004	...........
	11	3.1	7.07614E-002	7.07479E-002	5.63658E-004	...........
	12	3.35833	7.07580E-002	7.07552E-002	5.63492E-004	...........
	13	3.61667	7.07549E-002	7.07517E-002	5.68058E-004	...........
	14	3.875	7.07530E-002	7.07548E-002	5.65692E-004	...........
	15	4.13333	7.07527E-002	7.07610E-002	5.63392E-004	...........
	16	4.39167	7.07537E-002	7.07569E-002	5.67258E-004	...........
	17	4.65	7.07554E-002	7.07599E-002	5.64225E-004	...........
	18	4.90833	7.07572E-002	7.07645E-002	5.62992E-004	...........
	19	5.16667	7.07592E-002	7.07775E-002	5.62425E-004	...........
	20	5.425	7.07624E-002	7.07868E-002	5.67292E-004	...........
	21	5.68333	7.07681E-002	7.07954E-002	5.64958E-004	...........
	22	5.94167	7.07759E-002	7.07982E-002	5.69792E-004	...........
	23	6.2	7.07845E-002	7.08118E-002	5.66658E-004	...........
	24	6.45833	7.07930E-002	7.08273E-002	5.67992E-004	...........
	25	6.71667	7.08024E-002	7.08474E-002	5.72258E-004	...........
	26	6.975	7.08141E-002	7.08686E-002	5.69092E-004	...........
	27	7.23333	7.08287E-002	7.08728E-002	5.63958E-004	...........
	28	7.49167	7.08454E-002	7.09162E-002	5.62992E-004	...........
	29	7.75	7.08645E-002	7.09703E-002	5.64258E-004	...........
	30	8.00833	7.08889E-002	7.09919E-002	5.64558E-004	...........
	31	8.26667	7.09189E-002	7.09642E-002	5.66525E-004	...........
	32	8.525	7.09469E-002	7.09546E-002	5.64958E-004	...........
	33	8.78333	7.09636E-002	7.09718E-002	5.65192E-004	...........
	34	9.04167	7.09687E-002	7.09735E-002	5.64425E-004	...........
	35	9.3	7.09684E-002	7.09522E-002	5.65358E-004	...........
	36	9.5583	7.09669E-002	7.09521E-002	5.68192E-004	...........
	37	9.8167	7.09637E-002	7.09465E-002	5.65125E-004	...........
	38	10.075	7.09585E-002	7.09389E-002	5.61192E-004	...........
EOC	QUANT	0.0709585	Open Circuit (V)
PSTATMODEL	IQUANT	4	Pstat Model
PSTATSECTION	LABEL	REF600-11020	Pstat Section
PSTATSERIALNO	LABEL	11020	Pstat Serial Number
CTRLMODE	IQUANT	1	Control Mode
IESTAB	IQUANT	0	I/E Stability
CASPEED	IQUANT	1	Control Amp Speed
CONVENTION	IQUANT	1	Current Convention
ICHRANGE	IQUANT	2	Ich Range
ICHRANGEMODE	TOGGLE	F	Ich Auto Range
ICHOFFSETENABLE	TOGGLE	T	Ich Offset Enable
ICHOFFSET	QUANT	0	Ich Offset (V)
ICHFILTER	IQUANT	3	Ich Filter
VCHRANGE	IQUANT	2	Vch Range
VCHRANGEMODE	TOGGLE	F	Vch Auto Range
VCHOFFSETENABLE	TOGGLE	T	Vch Offset Enable
VCHOFFSET	QUANT	0	Vch Offset (V)
VCHFILTER	IQUANT	3	Vch Filter
ACHRANGE	IQUANT	2	Ach Range
ACHOFFSETENABLE	TOGGLE	F	Ach Offset Enable
ACHOFFSET	QUANT	0	Ach Offset (V)
ACHFILTER	IQUANT	3	Ach Filter
IERANGELOWERLIMIT	IQUANT	1	I/E Range Lower Limit
IERANGEMODE	TOGGLE	F	I/E AutoRange
IERANGE	IQUANT	8	I/E Range
POSFEEDENABLE	TOGGLE	F	Positive Feedback IR Comp
POSFEEDRESISTANCE	QUANT	0	Positive Feedback Resistance (ohm)
ACHSELECT	IQUANT	0	Ach Select
CABLEID	IQUANT	14	Cable ID
DCCALDATE	LABEL	9/1/2020	DC Calibration Date
ACCALDATE	LABEL	9/1/2020	AC Calibration Date
THERMOSELECT	IQUANT	1	Thermo Select
FRAMEWORKVERSION	QUANT	6.33	Framework Version
INSTRUMENTVERSION	LABEL	3.50	Instrument Version
ZCURVE	TABLE
	Pt	Time	Freq	Zreal	Zimag	Zsig	Zmod	Zphz	Idc	Vdc	IERange
	#	s	Hz	ohm	ohm	V	ohm	°	A	V	#
	0	1	1000078	1330.798	-6707.05	1	6837.802	-78.77726	7.513469E-008	0.0733086	8
	1	2	794390.6	1669.353	-8265.209	1	8432.106	-78.58138	4.733709E-008	0.0729848	8
	2	2	630984.4	2117.104	-10163.46	1	10381.62	-78.23325	1.005478E-007	0.0727632	8
	3	2	501234.4	2756.103	-12460.41	1	12761.58	-77.52763	7.777397E-008	0.0726523	8
	4	3	398109.4	3606.96	-15247.59	1	15668.41	-76.69081	1.151742E-007	0.0725596	8
	5	3	316265.6	4731.677	-18605.6	1	19197.84	-75.73132	8.890564E-008	0.0725594	8
	6	3	251203.1	6150.158	-22574.2	1	23396.98	-74.7601	7.955867E-008	0.072541	8
	7	4	199546.9	8152.919	-27283.24	1	28475.35	-73.36253	8.739973E-008	0.0725496	8
	8	4	158578.1	10814.2	-32658.02	1	34401.94	-71.6785	8.055785E-008	0.0725395	8
	9	4	125953.1	14471.15	-39094.89	1	41687.22	-69.68774	5.09998E-009	0.0725433	7
	10	5	100078.1	18721.14	-46318.56	1	49958.89	-67.99231	4.022906E-009	0.0725124	7
	11	5	79453.13	23995.93	-54448.51	1	59501.64	-66.2165	4.471247E-009	0.0725044	7
	12	5	63140.62	30491.24	-63290.19	1	70252.14	-64.27669	3.898743E-009	0.0725033	7
	13	5	50203.12	38064.32	-73338.34	1	82628.12	-62.56963	5.312171E-009	0.0724976	7
	14	6	39890.62	47120.96	-84271.97	1	96551.3	-60.78811	5.092173E-009	0.0724966	7
	15	6	31640.63	57820.04	-96383.9	1	112396.6	-59.04074	5.160542E-009	0.0724966	7
	16	6	25171.88	70070.63	-109377.2	1	129897.1	-57.35504	3.987038E-009	0.0724869	7
	17	7	20015.62	84136.74	-124400.3	1	150181.3	-55.92798	4.395844E-009	0.0724837	7
	18	7	15890.62	100395.9	-140448.5	1	172641.6	-54.44194	5.669408E-009	0.0724941	7
	19	7	12609.37	121215.7	-157881.4	1	199047.1	-52.48423	8.321472E-010	0.0724892	6
	20	8	10078.13	142538.1	-176545.4	1	226903.9	-51.0835	7.226804E-010	0.0724846	6
	21	8	8015.625	167925.4	-196939.7	1	258813.1	-49.54662	8.217553E-010	0.0724881	6
	22	8	6328.125	198231.5	-218951	1	295356.1	-47.84328	6.769246E-010	0.072485	6
	23	9	5015.625	232824	-240600	1	334806.5	-45.94099	6.767215E-010	0.0724839	6
	24	9	3984.375	271342	-262245.3	1	377358	-44.0233	8.063633E-010	0.0724875	6
	25	9	3170.956	314006.2	-282662.9	1	422490.5	-41.99299	6.943649E-010	0.0724748	6
	26	10	2527.573	360839.6	-300479.3	1	469566.8	-39.78491	7.178211E-010	0.072487	6
	27	10	1976.103	415020.6	-317672.3	1	522645	-37.4318	7.892515E-010	0.0724796	6
	28	10	1577.524	467418	-329222.9	1	571723.1	-35.15871	7.131167E-010	0.0724802	6
	29	11	1265.625	526218.4	-329885.5	1	621071.9	-32.08353	1.729039E-011	0.0724696	5
	30	11	998.264	580893	-336871.4	1	671505	-30.1103	2.012515E-011	0.072473	5
	31	11	796.875	632671.7	-341703.8	1	719051.4	-28.37333	1.948565E-011	0.072472	5
	32	11	627.7902	686542	-345436.8	1	768548.3	-26.70947	2.516186E-011	0.0724763	5
	33	12	505.5147	735051.4	-348495.9	1	813480.2	-25.36614	9.691612E-012	0.0724741	5
	34	12	397.9953	787669.3	-351954.7	1	862725.4	-24.07655	1.108781E-013	0.0724895	5
	35	12	315.5048	838451	-356142.7	1	910954.3	-23.01397	3.191966E-011	0.0724921	5
	36	13	252.4038	887112.7	-361244.3	1	957845	-22.15682	4.632366E-011	0.0724873	5
	37	13	198.6229	939849.3	-368185.5	1	1009395	-21.39274	1.915074E-011	0.0724835	5
	38	13	158.3615	990468	-376266.6	1	1059530	-20.80116	2.858098E-011	0.0724775	5
	39	14	125.558	1054975	-375131	1	1119685	-19.57452	6.30697E-012	0.0724828	4
	40	14	100.4464	1105952	-387226.9	1	1171783	-19.29668	-3.94948E-011	0.0724792	4
	41	14	79.00281	1163129	-401818.7	1	1230580	-19.05817	-4.44673E-011	0.0724782	4
	42	15	63.3446	1217786	-416268.5	1	1286967	-18.87166	-3.183768E-011	0.0724736	4
	43	15	49.86702	1279746	-433124.5	1	1351053	-18.69817	-9.563048E-011	0.0724735	4
	44	15	39.72458	1341016	-450047.4	1	1414520	-18.55184	-7.621367E-011	0.0724779	4
	45	16	31.6723	1404419	-467676.7	1	1480241	-18.41795	-1.172117E-010	0.0724734	4
	46	16	24.93351	1472333	-487856.2	1	1551054	-18.33256	8.780154E-011	0.0724727	4
	47	16	19.86229	1540782	-507694.2	1	1622270	-18.23728	9.145489E-011	0.0724808	4
	48	17	15.83615	1609831	-527224.4	1	1693966	-18.13378	-2.579414E-010	0.0724794	4
	49	17	12.40079	1685202	-552668.5	1	1773513	-18.1571	-3.976733E-010	0.0724809	4
	50	17	9.93114	1748129	-581571.1	1	1842330	-18.40135	-4.970991E-010	0.0724768	4
	51	18	7.944915	1824478	-617146.2	1	1926029	-18.68858	-1.031871E-010	0.0724726	4
	52	18	6.317385	1900968	-657430.1	1	2011440	-19.07742	-1.958855E-010	0.0724895	4
	53	19	5.008013	1985113	-708148.3	1	2107640	-19.63281	-3.110807E-010	0.07247	4
	54	20	3.945707	2074362	-762163.6	1	2209948	-20.17438	-8.325945E-011	0.0724817	4
	55	21	3.158693	2162328	-829696.4	1	2316044	-20.99207	-1.179591E-010	0.0724641	4
	56	22	2.504006	2260969	-900690.9	1	2433768	-21.72061	2.831807E-011	0.0724717	4
	57	23	1.998082	2365301	-990940	1	2564490	-22.7312	7.476261E-011	0.0724867	4
	58	25	1.584686	2474992	-1092104	1	2705231	-23.80974	7.867184E-012	0.0724432	4
	59	26	1.266892	2597792	-1206247	1	2864185	-24.90711	-3.314294E-011	0.0724254	4
	60	29	0.999041	2738393	-1353171	1	3054483	-26.29618	-5.619403E-011	0.0724343	4
