EXPLAIN
TAG	EISPOT
TITLE	LABEL	Potentiostatic EIS	Test &Identifier
DATE	LABEL	1/18/2020	Date
TIME	LABEL	22:38:28	Time
NOTES	NOTES	6	&Notes...
	
	
	
	
	
	
PSTAT	PSTAT	REF600-11020	Potentiostat
VDC	POTEN	0.00000E+000	T	DC &Voltage (V)
FREQINIT	QUANT	1.00000E+006	Initial Fre&q. (Hz)
FREQFINAL	QUANT	1.00000E+000	Final Fre&q. (Hz)
PTSPERDEC	QUANT	1.00000E+001	Points/&decade
VAC	QUANT	2.50000E+001	AC &Voltage (mV rms)
AREA	QUANT	1.00000E-001	&Area (cm^2)
CONDIT	TWOPARAM	F	5.00000E+000	0.00000E+000	Conditionin&g	Time(s)	E(V)
DELAY	TWOPARAM	F	5.00000E+000	0.00000E+000	Init. De&lay	Time(s)	Stab.(mV/s)
SPEED	SELECTOR	0	&Optimize for:
ZGUESS	QUANT	5.00000E+002	E&stimated Z (ohms)
OCVCURVE	TABLE	39
	Pt	T	Vf	Vm	Ach	Over
	#	s	V vs. Ref.	V	V	bits
	0	0.258333	5.49167E-003	5.49167E-003	6.42646E-004	...........
	1	0.516667	5.49615E-003	5.72617E-003	6.47113E-004	...........
	2	0.775	5.52765E-003	6.15729E-003	6.37546E-004	...........
	3	1.03333	5.62941E-003	6.53945E-003	6.41480E-004	...........
	4	1.29167	5.82920E-003	6.62738E-003	6.46513E-004	...........
	5	1.55	6.09538E-003	6.67985E-003	6.40880E-004	...........
	6	1.80833	6.35154E-003	6.70167E-003	6.45513E-004	...........
	7	2.06667	6.54296E-003	6.96392E-003	6.37246E-004	...........
	8	2.325	6.67407E-003	6.92194E-003	6.37613E-004	...........
	9	2.58333	6.77253E-003	6.82227E-003	6.38080E-004	...........
	10	2.84167	6.83974E-003	6.77753E-003	6.40680E-004	...........
	11	3.1	6.86171E-003	6.78697E-003	6.45146E-004	...........
	12	3.35833	6.84708E-003	6.85710E-003	6.42480E-004	...........
	13	3.61667	6.82675E-003	6.88894E-003	6.43813E-004	...........
	14	3.875	6.82505E-003	6.90102E-003	6.38713E-004	...........
	15	4.13333	6.84420E-003	6.94530E-003	6.41346E-004	...........
	16	4.39167	6.87472E-003	7.01554E-003	6.47046E-004	...........
	17	4.65	6.91092E-003	7.02462E-003	6.49746E-004	...........
	18	4.90833	6.95078E-003	7.07009E-003	6.45246E-004	...........
	19	5.16667	6.99091E-003	7.09669E-003	6.46346E-004	...........
	20	5.425	7.02825E-003	7.12388E-003	6.43680E-004	...........
	21	5.68333	7.06321E-003	7.20758E-003	6.34513E-004	...........
	22	5.94167	7.10186E-003	7.34971E-003	6.37746E-004	...........
	23	6.2	7.15485E-003	7.40059E-003	6.39213E-004	...........
	24	6.45833	7.22512E-003	7.39251E-003	6.38846E-004	...........
	25	6.71667	7.29840E-003	7.41156E-003	6.36680E-004	...........
	26	6.975	7.35550E-003	7.40959E-003	6.46846E-004	...........
	27	7.23333	7.38968E-003	7.42415E-003	6.36280E-004	...........
	28	7.49167	7.40684E-003	7.42885E-003	6.41180E-004	...........
	29	7.75	7.41587E-003	7.43608E-003	6.41380E-004	...........
	30	8.00833	7.42266E-003	7.45005E-003	6.41146E-004	...........
	31	8.26667	7.43059E-003	7.49802E-003	6.38980E-004	...........
	32	8.525	7.44091E-003	7.40202E-003	6.37580E-004	...........
	33	8.78333	7.44907E-003	7.43705E-003	6.38680E-004	...........
	34	9.04167	7.44854E-003	7.41655E-003	6.43080E-004	...........
	35	9.3	7.44050E-003	7.42984E-003	6.41813E-004	...........
	36	9.5583	7.43250E-003	7.45624E-003	6.37280E-004	...........
	37	9.8167	7.43070E-003	7.46225E-003	6.38113E-004	...........
	38	10.075	7.43650E-003	7.46350E-003	6.33780E-004	...........
EOC	QUANT	0.0074365	Open Circuit (V)
PSTATMODEL	IQUANT	4	Pstat Model
PSTATSECTION	LABEL	REF600-11020	Pstat Section
PSTATSERIALNO	LABEL	11020	Pstat Serial Number
CTRLMODE	IQUANT	1	Control Mode
IESTAB	IQUANT	0	I/E Stability
CASPEED	IQUANT	1	Control Amp Speed
CONVENTION	IQUANT	1	Current Convention
ICHRANGE	IQUANT	2	Ich Range
ICHRANGEMODE	TOGGLE	F	Ich Auto Range
ICHOFFSETENABLE	TOGGLE	T	Ich Offset Enable
ICHOFFSET	QUANT	0	Ich Offset (V)
ICHFILTER	IQUANT	3	Ich Filter
VCHRANGE	IQUANT	2	Vch Range
VCHRANGEMODE	TOGGLE	F	Vch Auto Range
VCHOFFSETENABLE	TOGGLE	T	Vch Offset Enable
VCHOFFSET	QUANT	0	Vch Offset (V)
VCHFILTER	IQUANT	3	Vch Filter
ACHRANGE	IQUANT	2	Ach Range
ACHOFFSETENABLE	TOGGLE	F	Ach Offset Enable
ACHOFFSET	QUANT	0	Ach Offset (V)
ACHFILTER	IQUANT	3	Ach Filter
IERANGELOWERLIMIT	IQUANT	1	I/E Range Lower Limit
IERANGEMODE	TOGGLE	F	I/E AutoRange
IERANGE	IQUANT	7	I/E Range
POSFEEDENABLE	TOGGLE	F	Positive Feedback IR Comp
POSFEEDRESISTANCE	QUANT	0	Positive Feedback Resistance (ohm)
ACHSELECT	IQUANT	0	Ach Select
CABLEID	IQUANT	14	Cable ID
DCCALDATE	LABEL	12/22/2019	DC Calibration Date
ACCALDATE	LABEL	12/22/2019	AC Calibration Date
THERMOSELECT	IQUANT	1	Thermo Select
FRAMEWORKVERSION	QUANT	6.33	Framework Version
INSTRUMENTVERSION	LABEL	3.50	Instrument Version
ZCURVE	TABLE
	Pt	Time	Freq	Zreal	Zimag	Zsig	Zmod	Zphz	Idc	Vdc	IERange
	#	s	Hz	ohm	ohm	V	ohm	°	A	V	#
	0	1	1000078	2047.566	-2789.127	1	3460.023	-53.71671	-2.983679E-006	0.0103921	8
	1	1	794390.6	2476.938	-3165.957	1	4019.764	-51.96157	3.638577E-007	0.0097168	8
	2	1	630984.4	2962.64	-3512.239	1	4594.895	-49.85173	4.657793E-007	0.0091286	8
	3	2	501234.4	3545.74	-3846.859	1	5231.691	-47.33252	-1.002182E-006	0.0095001	8
	4	2	398109.4	4207.356	-4137.943	1	5901.222	-44.52345	3.758665E-006	0.0084939	8
	5	2	316265.6	4935.131	-4451.679	1	6646.274	-42.05168	3.532142E-006	0.0084931	8
	6	3	251203.1	5643.372	-4626.331	1	7297.299	-39.34426	3.466612E-006	0.0085107	8
	7	3	199546.9	6457.747	-4800.989	1	8046.862	-36.62883	9.988335E-007	0.008946	8
	8	4	158578.1	7297.365	-4883.325	1	8780.569	-33.79005	4.310816E-007	0.0089475	8
	9	4	125953.1	8092.395	-4926.97	1	9474.274	-31.33471	-6.8001E-007	0.0103689	7
	10	5	100078.1	8793.901	-4962.849	1	10097.65	-29.43826	-3.496057E-009	0.0091132	7
	11	5	79453.13	9530.31	-5006.906	1	10765.49	-27.71594	-1.401225E-008	0.0091895	7
	12	5	63140.62	10212.66	-5071.196	1	11402.43	-26.40715	-2.49861E-008	0.0090687	7
	13	6	50203.12	10892.69	-5169.606	1	12057.18	-25.38873	3.255002E-008	0.0090309	7
	14	6	39890.62	11554.46	-5319.033	1	12719.97	-24.71872	-2.945468E-008	0.0091733	7
	15	6	31640.63	12227.78	-5510.164	1	13411.96	-24.25759	-3.115351E-008	0.0091053	7
	16	7	25171.88	12901.8	-5769.421	1	14133.03	-24.09322	-5.531024E-008	0.0091453	7
	17	7	20015.62	13621.28	-6077.131	1	14915.46	-24.04403	6.040334E-008	0.0090537	7
	18	7	15890.62	14360.24	-6484.983	1	15756.63	-24.3036	-5.08887E-008	0.0091651	7
	19	8	12609.37	15211.01	-6896.414	1	16701.36	-24.38873	2.931935E-009	0.0091217	6
	20	8	10078.13	16040.75	-7441.29	1	17682.72	-24.88654	-4.873276E-009	0.0090877	6
	21	8	8015.625	16929.22	-8088.209	1	18762.14	-25.53689	2.998975E-009	0.0089793	6
	22	8	6328.125	17942.59	-8865.775	1	20013.46	-26.29486	-4.920004E-009	0.009082	6
	23	9	5015.625	19024.43	-9748.32	1	21376.59	-27.13108	3.107114E-009	0.009098	6
	24	9	3984.375	20199.87	-10746.42	1	22880.56	-28.01317	2.557356E-009	0.0089695	6
	25	9	3170.956	21483.32	-11873.55	1	24546.17	-28.92885	1.402397E-008	0.0088973	6
	26	10	2527.573	22880.57	-13149.4	1	26389.9	-29.88586	-2.071828E-009	0.008973	6
	27	10	1976.103	24561.92	-14735.1	1	28642.82	-30.96024	4.749512E-009	0.009067	6
	28	10	1577.524	26266.07	-16412.59	1	30972.24	-31.99957	6.509734E-009	0.0090636	6
	29	11	1265.625	28114.4	-18239.74	1	33512.8	-32.97425	-4.340394E-009	0.0091374	6
	30	11	998.264	30335.46	-20469.62	1	36595.7	-34.0105	-1.911041E-009	0.0090233	6
	31	11	796.875	32655.18	-22914.54	1	39892.82	-35.05782	2.430466E-009	0.0089646	6
	32	12	627.7902	35396.73	-25861.18	1	43837.53	-36.15221	-4.294851E-009	0.0090636	6
	33	12	505.5147	38170.18	-28919.02	1	47888.13	-37.1488	7.337649E-009	0.0090412	6
	34	12	397.9953	41630.19	-32755.74	1	52971.8	-38.19661	6.577857E-010	0.0090623	6
	35	13	315.5048	45365.18	-37075.36	1	58588.24	-39.25792	3.561695E-010	0.0090565	6
	36	13	252.4038	49414.16	-41814.57	1	64731.89	-40.2381	3.743772E-010	0.0090553	6
	37	13	198.6229	54326.61	-47641.42	1	72257.08	-41.24897	7.489595E-010	0.0090586	6
	38	14	158.3615	59582.46	-54013.09	1	80420.66	-42.19314	7.908381E-010	0.0090547	6
	39	14	125.558	65790.09	-61491.73	1	90053.15	-43.06583	5.360128E-010	0.0090596	6
	40	14	100.4464	72557.02	-69433.84	1	100427	-43.73995	3.522483E-010	0.0090533	5
	41	15	79.00281	81611.16	-79496.15	1	113929.9	-44.24787	6.817705E-011	0.0090524	5
	42	15	63.3446	88272.63	-90615.46	1	126503.8	-45.75034	1.121503E-010	0.0090573	5
	43	15	49.86702	99861.4	-102339.5	1	142988.4	-45.70216	-7.678082E-011	0.0090522	5
	44	16	39.72458	112667	-115525.3	1	161369	-45.71765	-6.19953E-011	0.0090577	5
	45	16	31.6723	125722.2	-129935.3	1	180801.7	-45.94412	-2.12019E-010	0.0090538	5
	46	16	24.93351	139665.5	-147468.6	1	203109.4	-46.55666	3.42407E-010	0.0090489	5
	47	17	19.86229	154037.3	-167053.5	1	227232	-47.32137	7.723154E-010	0.0090575	5
	48	17	15.83615	169156.6	-191496.9	1	255509.3	-48.54459	7.744771E-011	0.0090533	5
	49	17	12.40079	188142.5	-222300.4	1	291230.2	-49.75732	-2.233187E-010	0.0090505	5
	50	18	9.93114	210450.5	-253768.2	1	329678.3	-50.33101	-2.480134E-010	0.0090547	5
	51	18	7.944915	233909.9	-293587.5	1	375376.4	-51.45463	-7.758629E-012	0.0090497	5
	52	19	6.317385	261942.8	-340847.5	1	429873.3	-52.45757	-3.075872E-011	0.0090567	5
	53	20	5.008013	297275.4	-397526.1	1	496386.7	-53.21036	-1.18496E-010	0.0090462	5
	54	21	3.945707	342007.4	-465189	1	577381.9	-53.67664	1.613149E-010	0.0090525	5
	55	22	3.158693	391805.3	-536572.9	1	664395.8	-53.8631	3.241578E-011	0.0090622	5
	56	24	2.504006	454352.5	-620222.7	1	768838.4	-53.77485	1.070883E-010	0.0090522	5
	57	25	1.998082	522895.9	-708961.8	1	880935.2	-53.58931	5.693548E-011	0.0090741	5
	58	27	1.584686	608165.9	-812877.5	1	1015202	-53.19748	8.621828E-011	0.0091415	4
	59	28	1.266892	695553.2	-923612.7	1	1156224	-53.01737	5.115101E-011	0.0091126	4
	60	31	0.999041	797047.1	-1051478	1	1319428	-52.83693	9.44964E-011	0.0090738	4
