EXPLAIN
TAG	EISPOT
TITLE	LABEL	Potentiostatic EIS	Test &Identifier
DATE	LABEL	3/19/2020	Date
TIME	LABEL	21:04:01	Time
NOTES	NOTES	1	&Notes...
	
PSTAT	PSTAT	REF600-11020	Potentiostat
VDC	POTEN	0.00000E+000	T	DC &Voltage (V)
FREQINIT	QUANT	1.00000E+006	Initial Fre&q. (Hz)
FREQFINAL	QUANT	1.00000E+000	Final Fre&q. (Hz)
PTSPERDEC	QUANT	1.00000E+001	Points/&decade
VAC	QUANT	2.50000E+001	AC &Voltage (mV rms)
AREA	QUANT	4.00000E-004	&Area (cm^2)
CONDIT	TWOPARAM	F	5.00000E+000	0.00000E+000	Conditionin&g	Time(s)	E(V)
DELAY	TWOPARAM	T	3.00000E+000	0.00000E+000	Init. De&lay	Time(s)	Stab.(mV/s)
SPEED	SELECTOR	0	&Optimize for:
ZGUESS	QUANT	1.00000E+003	E&stimated Z (ohms)
OCVCURVE	TABLE	12
	Pt	T	Vf	Vm	Ach	Over
	#	s	V vs. Ref.	V	V	bits
	0	0.258333	4.85461E-002	4.85461E-002	5.70663E-004	...........
	1	0.516667	4.85437E-002	4.84230E-002	5.68130E-004	...........
	2	0.775	4.85334E-002	4.85200E-002	5.72163E-004	...........
	3	1.03333	4.85025E-002	4.78179E-002	5.70663E-004	...........
	4	1.29167	4.84266E-002	4.81655E-002	5.73430E-004	...........
	5	1.55	4.83068E-002	4.82185E-002	5.73297E-004	...........
	6	1.80833	4.81993E-002	4.81666E-002	5.73897E-004	...........
	7	2.06667	4.81548E-002	4.83176E-002	5.68630E-004	...........
	8	2.325	4.81705E-002	4.84130E-002	5.71263E-004	...........
	9	2.58333	4.82228E-002	4.83776E-002	5.68097E-004	...........
	10	2.84167	4.82857E-002	4.82444E-002	5.71063E-004	...........
	11	3.1	4.83270E-002	4.82919E-002	5.71597E-004	...........
EOC	QUANT	0.048327	Open Circuit (V)
PSTATMODEL	IQUANT	4	Pstat Model
PSTATSECTION	LABEL	REF600-11020	Pstat Section
PSTATSERIALNO	LABEL	11020	Pstat Serial Number
CTRLMODE	IQUANT	1	Control Mode
IESTAB	IQUANT	0	I/E Stability
CASPEED	IQUANT	1	Control Amp Speed
CONVENTION	IQUANT	1	Current Convention
ICHRANGE	IQUANT	2	Ich Range
ICHRANGEMODE	TOGGLE	F	Ich Auto Range
ICHOFFSETENABLE	TOGGLE	T	Ich Offset Enable
ICHOFFSET	QUANT	0	Ich Offset (V)
ICHFILTER	IQUANT	3	Ich Filter
VCHRANGE	IQUANT	2	Vch Range
VCHRANGEMODE	TOGGLE	F	Vch Auto Range
VCHOFFSETENABLE	TOGGLE	T	Vch Offset Enable
VCHOFFSET	QUANT	0	Vch Offset (V)
VCHFILTER	IQUANT	3	Vch Filter
ACHRANGE	IQUANT	2	Ach Range
ACHOFFSETENABLE	TOGGLE	F	Ach Offset Enable
ACHOFFSET	QUANT	0	Ach Offset (V)
ACHFILTER	IQUANT	3	Ach Filter
IERANGELOWERLIMIT	IQUANT	1	I/E Range Lower Limit
IERANGEMODE	TOGGLE	F	I/E AutoRange
IERANGE	IQUANT	7	I/E Range
POSFEEDENABLE	TOGGLE	F	Positive Feedback IR Comp
POSFEEDRESISTANCE	QUANT	0	Positive Feedback Resistance (ohm)
ACHSELECT	IQUANT	0	Ach Select
CABLEID	IQUANT	14	Cable ID
DCCALDATE	LABEL	2/27/2020	DC Calibration Date
ACCALDATE	LABEL	2/27/2020	AC Calibration Date
THERMOSELECT	IQUANT	1	Thermo Select
FRAMEWORKVERSION	QUANT	6.33	Framework Version
INSTRUMENTVERSION	LABEL	3.50	Instrument Version
ZCURVE	TABLE
	Pt	Time	Freq	Zreal	Zimag	Zsig	Zmod	Zphz	Idc	Vdc	IERange
	#	s	Hz	ohm	ohm	V	ohm	°	A	V	#
	0	1	1000078	1813.253	-1584.35	1	2407.914	-41.1457	7.879398E-009	0.0505541	8
	1	1	794390.6	2067.941	-1649.843	1	2645.442	-38.58355	-2.095676E-007	0.0502919	8
	2	2	630984.4	2318.879	-1711.769	1	2882.248	-36.4343	5.79841E-007	0.0499974	8
	3	2	501234.4	2564.093	-1773.277	1	3117.545	-34.66699	1.638853E-007	0.0499523	8
	4	2	398109.4	2807.701	-1845.47	1	3359.903	-33.31647	1.53186E-007	0.0499249	8
	5	3	316265.6	3051.352	-1928.148	1	3609.502	-32.28878	4.778653E-009	0.0499277	8
	6	3	251203.1	3305.971	-2024.979	1	3876.853	-31.48837	-2.605863E-008	0.0499284	8
	7	3	199546.9	3568.644	-2143.521	1	4162.919	-30.99131	2.653848E-008	0.049921	8
	8	4	158578.1	3850.409	-2289.462	1	4479.653	-30.73581	1.024876E-007	0.0499155	8
	9	4	125953.1	4193.034	-2410.285	1	4836.425	-29.89162	-7.621206E-008	0.0500454	7
	10	4	100078.1	4499.754	-2591.63	1	5192.719	-29.93976	1.029463E-008	0.0498338	7
	11	4	79453.13	4846.823	-2811.682	1	5603.325	-30.11838	-3.391592E-009	0.0498579	7
	12	5	63140.62	5228.99	-3046.233	1	6051.601	-30.22363	8.788241E-009	0.0498313	7
	13	5	50203.12	5643.443	-3300.296	1	6537.615	-30.31918	8.552059E-009	0.0498298	7
	14	5	39890.62	6095.571	-3577.167	1	7067.681	-30.40641	3.520124E-009	0.0498426	7
	15	6	31640.63	6586.672	-3869.506	1	7639.196	-30.43317	1.163246E-009	0.0498405	7
	16	6	25171.88	7111.328	-4181.732	1	8249.72	-30.45715	1.937057E-008	0.049814	7
	17	6	20015.62	7670.239	-4518.155	1	8902.038	-30.50022	5.092068E-009	0.0498489	7
	18	7	15890.62	8258.543	-4874.968	1	9590.04	-30.5531	1.010416E-009	0.049826	7
	19	7	12609.37	8960.9	-5198.543	1	10359.66	-30.11958	2.30169E-009	0.0498617	6
	20	7	10078.13	9579.81	-5653.464	1	11123.59	-30.54672	1.725504E-009	0.0498657	6
	21	8	8015.625	10247.95	-6191.082	1	11972.89	-31.13738	8.649368E-010	0.0498825	6
	22	8	6328.125	10980.53	-6843.508	1	12938.53	-31.93283	5.100362E-010	0.0498996	6
	23	8	5015.625	11760.62	-7597.312	1	14001.12	-32.86229	1.515164E-009	0.0498646	6
	24	9	3984.375	12620.14	-8477.401	1	15203.1	-33.89068	6.009836E-010	0.0499007	6
	25	9	3170.956	13573.71	-9486.104	1	16559.94	-34.94811	1.387643E-009	0.0498581	6
	26	9	2527.573	14631.53	-10626.67	1	18083.35	-35.99037	1.324199E-009	0.0498653	6
	27	10	1976.103	15916.89	-12035.55	1	19954.99	-37.09473	1.40936E-009	0.0498801	6
	28	10	1577.524	17209.36	-13475.73	1	21857.66	-38.0626	5.45809E-010	0.0498782	6
	29	10	1265.625	18534.02	-15066.1	1	23885.08	-39.10728	1.497325E-009	0.0498817	6
	30	10	998.264	20010.32	-17031.37	1	26277	-40.40208	5.312192E-010	0.0498744	6
	31	11	796.875	21414.75	-19267.13	1	28806.49	-41.97812	1.482611E-009	0.0498803	6
	32	11	627.7902	22893.32	-22177.38	1	31873.82	-44.08994	1.526996E-009	0.0498798	6
	33	11	505.5147	24263.77	-25429.75	1	35148.3	-46.34411	5.88592E-010	0.0498687	6
	34	12	397.9953	25788.23	-29954.68	1	39526.14	-49.27457	9.276946E-010	0.0498888	6
	35	12	315.5048	27391.87	-35541.61	1	44872.27	-52.3786	1.003622E-009	0.0498914	6
	36	12	252.4038	29127.14	-42193.05	1	51270.3	-55.38151	8.237868E-010	0.0498888	6
	37	13	198.6229	31290.16	-51178.57	1	59986	-58.55872	8.636272E-010	0.04989	6
	38	13	158.3615	33753.6	-61748.51	1	70371.76	-61.33765	8.550988E-010	0.0498883	6
	39	13	125.558	36868.14	-75252.11	1	83798.21	-63.89846	8.375285E-010	0.0498899	6
	40	14	100.4464	40765.53	-91053.38	1	99762.5	-65.88145	8.014747E-010	0.0498902	6
	41	14	79.00281	46250.41	-111931.3	1	121110.3	-67.54941	4.051708E-010	0.0498883	5
	42	14	63.3446	53102.5	-135724.3	1	145742.8	-68.63194	3.668109E-010	0.0498863	5
	43	15	49.86702	62591.31	-167067.1	1	178407.1	-69.46165	3.660367E-010	0.0498791	5
	44	15	39.72458	74798.47	-203129.8	1	216463.6	-69.78478	3.92464E-010	0.0498818	5
	45	15	31.6723	91455.7	-246211	1	262648	-69.62235	3.843912E-010	0.0498807	5
	46	16	24.93351	116114.4	-301072.5	1	322687.5	-68.90991	3.008083E-010	0.0498816	5
	47	16	19.86229	149133.5	-361457.9	1	391014.9	-67.57951	4.893621E-010	0.0498825	5
	48	16	15.83615	192814.8	-429814.8	1	471082	-65.83901	1.028632E-010	0.0498835	5
	49	17	12.40079	256051	-513254	1	573578.1	-63.48641	-1.463647E-010	0.0498927	5
	50	17	9.93114	332123.8	-593667.2	1	680255.1	-60.77541	-1.03785E-010	0.0498826	5
	51	17	7.944915	424968.1	-672870.6	1	795834.6	-57.72452	4.132379E-010	0.0498853	5
	52	18	6.317385	547425.9	-748264.6	1	927132.7	-53.81102	1.156197E-010	0.0499034	5
	53	18	5.008013	687326.6	-814676.7	1	1065887	-49.84634	2.061485E-011	0.0498806	4
	54	19	3.945707	839084.9	-862043.5	1	1202989	-45.77322	2.541715E-010	0.0498865	4
	55	20	3.158693	987802	-902221.9	1	1337818	-42.40742	8.584881E-011	0.0498721	4
	56	22	2.504006	1140684	-918649.3	1	1464608	-38.84621	8.335353E-011	0.0498686	4
	57	23	1.998082	1285832	-940426.9	1	1593037	-36.18085	2.302399E-010	0.049906	4
	58	25	1.584686	1411401	-942815.7	1	1697338	-33.74291	1.373288E-010	0.0498632	4
	59	27	1.266892	1551840	-965795	1	1827831	-31.89625	2.583303E-011	0.0498365	4
	60	29	0.999041	1697245	-998837	1	1969344	-30.47703	2.991121E-011	0.0498278	4
