EXPLAIN
TAG	EISPOT
TITLE	LABEL	Potentiostatic EIS	Test &Identifier
DATE	LABEL	2/28/2020	Date
TIME	LABEL	17:16:58	Time
NOTES	NOTES	1	&Notes...
	
PSTAT	PSTAT	REF600-11020	Potentiostat
VDC	POTEN	0.00000E+000	T	DC &Voltage (V)
FREQINIT	QUANT	1.00000E+006	Initial Fre&q. (Hz)
FREQFINAL	QUANT	1.00000E+000	Final Fre&q. (Hz)
PTSPERDEC	QUANT	1.00000E+001	Points/&decade
VAC	QUANT	2.50000E+001	AC &Voltage (mV rms)
AREA	QUANT	1.60000E-004	&Area (cm^2)
CONDIT	TWOPARAM	F	1.50000E+001	0.00000E+000	Conditionin&g	Time(s)	E(V)
DELAY	TWOPARAM	F	1.00000E+002	0.00000E+000	Init. De&lay	Time(s)	Stab.(mV/s)
SPEED	SELECTOR	1	&Optimize for:
ZGUESS	QUANT	1.00000E+003	E&stimated Z (ohms)
OCVCURVE	TABLE	39
	Pt	T	Vf	Vm	Ach	Over
	#	s	V vs. Ref.	V	V	bits
	0	0.258333	-8.95986E-002	-8.95986E-002	5.71397E-004	...........
	1	0.516667	-8.95962E-002	-8.94718E-002	5.73963E-004	...........
	2	0.775	-8.95913E-002	-8.98741E-002	5.71830E-004	...........
	3	1.03333	-8.96131E-002	-9.03885E-002	5.68730E-004	...........
	4	1.29167	-8.97152E-002	-9.02658E-002	5.67630E-004	...........
	5	1.55	-8.98974E-002	-9.01374E-002	5.70497E-004	...........
	6	1.80833	-9.00762E-002	-9.01963E-002	5.72963E-004	...........
	7	2.06667	-9.01772E-002	-9.01480E-002	5.70697E-004	...........
	8	2.325	-9.02024E-002	-9.01796E-002	5.69663E-004	...........
	9	2.58333	-9.01927E-002	-9.01572E-002	5.70897E-004	...........
	10	2.84167	-9.01765E-002	-9.00820E-002	5.70563E-004	...........
	11	3.1	-9.01578E-002	-9.00212E-002	5.68697E-004	...........
	12	3.35833	-9.01286E-002	-8.99773E-002	5.66363E-004	...........
	13	3.61667	-9.00861E-002	-8.99391E-002	5.65897E-004	...........
	14	3.875	-9.00363E-002	-8.98759E-002	5.69597E-004	...........
	15	4.13333	-8.99854E-002	-8.98373E-002	5.71397E-004	...........
	16	4.39167	-8.99356E-002	-8.97873E-002	5.71497E-004	...........
	17	4.65	-8.98868E-002	-8.97434E-002	5.69397E-004	...........
	18	4.90833	-8.98389E-002	-8.96864E-002	5.74430E-004	...........
	19	5.16667	-8.97914E-002	-8.96527E-002	5.71997E-004	...........
	20	5.425	-8.97443E-002	-8.96107E-002	5.72730E-004	...........
	21	5.68333	-8.96986E-002	-8.95692E-002	5.74630E-004	...........
	22	5.94167	-8.96552E-002	-8.95313E-002	5.78330E-004	...........
	23	6.2	-8.96138E-002	-8.94960E-002	5.67197E-004	...........
	24	6.45833	-8.95740E-002	-8.94539E-002	5.70797E-004	...........
	25	6.71667	-8.95350E-002	-8.94114E-002	5.65297E-004	...........
	26	6.975	-8.94961E-002	-8.93795E-002	5.67830E-004	...........
	27	7.23333	-8.94567E-002	-8.93182E-002	5.68030E-004	...........
	28	7.49167	-8.94161E-002	-8.92891E-002	5.66097E-004	...........
	29	7.75	-8.93745E-002	-8.92653E-002	5.69263E-004	...........
	30	8.00833	-8.93340E-002	-8.92273E-002	5.70263E-004	...........
	31	8.26667	-8.92972E-002	-8.92050E-002	5.61564E-004	...........
	32	8.525	-8.92638E-002	-8.91482E-002	5.66230E-004	...........
	33	8.78333	-8.92306E-002	-8.91079E-002	5.70263E-004	...........
	34	9.04167	-8.91943E-002	-8.90557E-002	5.68330E-004	...........
	35	9.3	-8.91535E-002	-8.90217E-002	5.66363E-004	...........
	36	9.5583	-8.91100E-002	-8.89843E-002	5.66330E-004	...........
	37	9.8167	-8.90669E-002	-8.89468E-002	5.61964E-004	...........
	38	10.075	-8.90270E-002	-8.89690E-002	5.58030E-004	...........
EOC	QUANT	-0.089027	Open Circuit (V)
PSTATMODEL	IQUANT	4	Pstat Model
PSTATSECTION	LABEL	REF600-11020	Pstat Section
PSTATSERIALNO	LABEL	11020	Pstat Serial Number
CTRLMODE	IQUANT	1	Control Mode
IESTAB	IQUANT	0	I/E Stability
CASPEED	IQUANT	1	Control Amp Speed
CONVENTION	IQUANT	1	Current Convention
ICHRANGE	IQUANT	2	Ich Range
ICHRANGEMODE	TOGGLE	F	Ich Auto Range
ICHOFFSETENABLE	TOGGLE	T	Ich Offset Enable
ICHOFFSET	QUANT	0	Ich Offset (V)
ICHFILTER	IQUANT	3	Ich Filter
VCHRANGE	IQUANT	2	Vch Range
VCHRANGEMODE	TOGGLE	F	Vch Auto Range
VCHOFFSETENABLE	TOGGLE	T	Vch Offset Enable
VCHOFFSET	QUANT	0	Vch Offset (V)
VCHFILTER	IQUANT	3	Vch Filter
ACHRANGE	IQUANT	2	Ach Range
ACHOFFSETENABLE	TOGGLE	F	Ach Offset Enable
ACHOFFSET	QUANT	0	Ach Offset (V)
ACHFILTER	IQUANT	3	Ach Filter
IERANGELOWERLIMIT	IQUANT	1	I/E Range Lower Limit
IERANGEMODE	TOGGLE	F	I/E AutoRange
IERANGE	IQUANT	8	I/E Range
POSFEEDENABLE	TOGGLE	F	Positive Feedback IR Comp
POSFEEDRESISTANCE	QUANT	0	Positive Feedback Resistance (ohm)
ACHSELECT	IQUANT	0	Ach Select
CABLEID	IQUANT	14	Cable ID
DCCALDATE	LABEL	2/27/2020	DC Calibration Date
ACCALDATE	LABEL	2/27/2020	AC Calibration Date
THERMOSELECT	IQUANT	1	Thermo Select
FRAMEWORKVERSION	QUANT	6.33	Framework Version
INSTRUMENTVERSION	LABEL	3.50	Instrument Version
ZCURVE	TABLE
	Pt	Time	Freq	Zreal	Zimag	Zsig	Zmod	Zphz	Idc	Vdc	IERange
	#	s	Hz	ohm	ohm	V	ohm	°	A	V	#
	0	1	1000078	1821.335	-2295.853	1	2930.563	-51.57449	-5.248868E-006	-0.0858525	8
	1	2	794390.6	2181.125	-2530.761	1	3340.967	-49.24375	5.720424E-007	-0.0867283	8
	2	4	630984.4	2588.978	-2761.242	1	3785.138	-46.84415	-9.161474E-007	-0.0869247	8
	3	5	501234.4	3034.182	-2994.488	1	4263.006	-44.62276	-3.646792E-007	-0.0871684	8
	4	7	398109.4	3521.857	-3205.776	1	4762.403	-42.31008	-2.306371E-006	-0.0868099	8
	5	8	316265.6	4054.028	-3413.917	1	5299.997	-40.1009	-5.484583E-007	-0.0871793	8
	6	9	251203.1	4668.741	-3579.373	1	5882.946	-37.47622	2.35951E-006	-0.0878109	8
	7	11	199546.9	5259.715	-3753.564	1	6461.722	-35.51332	-2.223653E-006	-0.0869056	8
	8	12	158578.1	5971.675	-3806.337	1	7081.603	-32.51337	4.912005E-007	-0.0875389	8
	9	13	125953.1	6745.781	-3765.887	1	7725.766	-29.17279	9.215898E-007	-0.0895507	7
	10	15	100078.1	7412.467	-3694.274	1	8282.049	-26.49105	6.009409E-008	-0.0875838	7
	11	16	79453.13	8060.693	-3569.751	1	8815.775	-23.88659	1.105408E-007	-0.0876442	7
	12	18	63140.62	8664.928	-3375.798	1	9299.3	-21.28555	-3.658223E-008	-0.0874318	7
	13	19	50203.12	9202.696	-3146.26	1	9725.67	-18.87477	-4.347316E-008	-0.0874571	7
	14	21	39890.62	9664.34	-2898.473	1	10089.63	-16.69473	-1.830465E-008	-0.0875008	7
	15	22	31640.63	10062.63	-2653.06	1	10406.5	-14.77018	7.826407E-008	-0.0875289	7
	16	24	25171.88	10391.09	-2424.364	1	10670.16	-13.13285	-1.891929E-008	-0.0875081	7
	17	25	20015.62	10665.91	-2231.791	1	10896.91	-11.81835	1.1369E-007	-0.0876549	7
	18	27	15890.62	10902.29	-2064.541	1	11096.04	-10.723	1.430547E-009	-0.0875354	7
	19	28	12609.37	11153.27	-1817.332	1	11300.36	-9.254533	-5.523471E-009	-0.0874655	6
	20	30	10078.13	11306.68	-1762.53	1	11443.23	-8.860188	-7.211302E-010	-0.0875483	6
	21	31	8015.625	11450.75	-1754.348	1	11584.36	-8.710446	4.082697E-009	-0.0874293	6
	22	33	6328.125	11590.55	-1792.688	1	11728.37	-8.792157	-4.110075E-009	-0.0874149	6
	23	35	5015.625	11714.93	-1886.266	1	11865.81	-9.146911	4.25772E-009	-0.0874222	6
	24	36	3984.375	11842.3	-2038.415	1	12016.45	-9.76662	-5.589174E-009	-0.0873736	6
	25	38	3170.956	11968.2	-2257.471	1	12179.24	-10.68178	-8.391479E-009	-0.0873076	6
	26	39	2527.573	12103.41	-2550.183	1	12369.15	-11.89817	-6.060168E-009	-0.0874658	6
	27	41	1976.103	12257.95	-2967.956	1	12612.14	-13.6108	8.695541E-009	-0.0875088	6
	28	42	1577.524	12418.76	-3458.436	1	12891.33	-15.56171	8.556062E-009	-0.0875072	6
	29	44	1265.625	12595.93	-4050.926	1	13231.31	-17.82809	4.633922E-009	-0.0874251	6
	30	46	998.264	12815.96	-4852.672	1	13703.92	-20.73881	-6.494476E-010	-0.087351	6
	31	47	796.875	13072.44	-5793.333	1	14298.65	-23.90156	1.166412E-008	-0.0877041	6
	32	48	627.7902	13399.89	-7011.912	1	15123.62	-27.62222	-5.432167E-009	-0.0873419	6
	33	50	505.5147	13752.39	-8370.153	1	16099.31	-31.32606	4.745577E-009	-0.0874366	6
	34	51	397.9953	14230.96	-10200.11	1	17508.92	-35.63125	-1.358328E-010	-0.0874209	6
	35	52	315.5048	14800.97	-12373.1	1	19291.51	-39.89445	-3.464221E-010	-0.0874259	6
	36	54	252.4038	15473.66	-14906.14	1	21485.51	-43.92979	-7.849101E-011	-0.0874248	6
	37	55	198.6229	16373.42	-18215.71	1	24492.88	-48.04881	-6.187072E-011	-0.0874281	6
	38	56	158.3615	17438.91	-22014.68	1	28084.9	-51.61553	-2.808869E-010	-0.0874234	6
	39	58	125.558	18781.83	-26736.4	1	32674.03	-54.91267	-2.014408E-010	-0.0874261	6
	40	59	100.4464	20417.84	-32222.87	1	38147.1	-57.63984	-1.165849E-011	-0.0874265	6
	41	60	79.00281	22570.78	-39399.22	1	45406.37	-60.19273	-4.187491E-010	-0.0874264	6
	42	62	63.3446	25367.32	-47481.2	1	53832.75	-61.88618	-3.576624E-010	-0.0874304	6
	43	63	49.86702	28356.34	-57657.64	1	64253.29	-63.81179	-8.020156E-010	-0.0874244	6
	44	65	39.72458	32850.8	-69436.43	1	76815.31	-64.68089	-5.318257E-010	-0.0874218	6
	45	66	31.6723	38242.46	-83588.36	1	91921.16	-65.41546	-4.045481E-010	-0.0874257	6
	46	67	24.93351	45876.18	-101299.3	1	111203.3	-65.6353	-6.013744E-011	-0.0874273	5
	47	69	19.86229	55219.9	-121190.7	1	133178.2	-65.50387	-3.408632E-010	-0.0874267	5
	48	70	15.83615	67772.31	-145107.4	1	160153.8	-64.9651	-1.487899E-009	-0.087428	5
	49	71	12.40079	84660.23	-172018.6	1	191723.1	-63.79555	-9.011845E-010	-0.0874164	5
	50	73	9.93114	104164.8	-202310.2	1	227551.6	-62.75712	-5.254536E-010	-0.0874206	5
	51	74	7.944915	128885.9	-234525.2	1	267607.3	-61.20852	-9.156562E-011	-0.0874291	5
	52	76	6.317385	159073.9	-270694	1	313974.1	-59.55929	2.644207E-010	-0.0874334	5
	53	78	5.008013	196453.3	-309302.7	1	366417.9	-57.57837	-2.832881E-010	-0.0874253	5
	54	81	3.945707	240715.2	-351191.4	1	425768.9	-55.5723	1.363559E-010	-0.0874288	5
	55	83	3.158693	287170.3	-391712.8	1	485701.3	-53.75433	-3.15512E-010	-0.0874425	5
	56	87	2.504006	340337.3	-436832.3	1	553761.6	-52.07775	2.081645E-010	-0.0874197	5
	57	89	1.998082	396960.6	-482569	1	624860.4	-50.55933	3.582621E-010	-0.0874153	5
	58	92	1.584686	458189.2	-530498.4	1	700975	-49.18297	1.495819E-010	-0.0874669	5
	59	96	1.266892	521595.2	-585669.4	1	784264.1	-48.31185	2.471424E-010	-0.0874011	5
	60	100	0.999041	593598.3	-650512	1	880638.8	-47.61926	-3.745819E-010	-0.0874688	5
