EXPLAIN
TAG	EISPOT
TITLE	LABEL	Potentiostatic EIS	Test &Identifier
DATE	LABEL	2/28/2020	Date
TIME	LABEL	15:35:11	Time
NOTES	NOTES	1	&Notes...
	
PSTAT	PSTAT	REF600-11020	Potentiostat
VDC	POTEN	0.00000E+000	T	DC &Voltage (V)
FREQINIT	QUANT	1.00000E+006	Initial Fre&q. (Hz)
FREQFINAL	QUANT	1.00000E+000	Final Fre&q. (Hz)
PTSPERDEC	QUANT	1.00000E+001	Points/&decade
VAC	QUANT	2.50000E+001	AC &Voltage (mV rms)
AREA	QUANT	1.60000E-004	&Area (cm^2)
CONDIT	TWOPARAM	F	1.50000E+001	0.00000E+000	Conditionin&g	Time(s)	E(V)
DELAY	TWOPARAM	F	1.00000E+002	0.00000E+000	Init. De&lay	Time(s)	Stab.(mV/s)
SPEED	SELECTOR	1	&Optimize for:
ZGUESS	QUANT	1.00000E+003	E&stimated Z (ohms)
OCVCURVE	TABLE	39
	Pt	T	Vf	Vm	Ach	Over
	#	s	V vs. Ref.	V	V	bits
	0	0.258333	-6.71825E-002	-6.71825E-002	5.74463E-004	...........
	1	0.516667	-6.71907E-002	-6.76115E-002	5.76230E-004	...........
	2	0.775	-6.72378E-002	-6.78489E-002	5.69797E-004	...........
	3	1.03333	-6.73620E-002	-6.81691E-002	5.73030E-004	...........
	4	1.29167	-6.75649E-002	-6.81447E-002	5.79297E-004	...........
	5	1.55	-6.77917E-002	-6.79768E-002	5.74163E-004	...........
	6	1.80833	-6.79650E-002	-6.80280E-002	5.74297E-004	...........
	7	2.06667	-6.80439E-002	-6.79448E-002	5.76930E-004	...........
	8	2.325	-6.80466E-002	-6.79317E-002	5.73063E-004	...........
	9	2.58333	-6.80150E-002	-6.79783E-002	5.73497E-004	...........
	10	2.84167	-6.79801E-002	-6.78563E-002	5.71063E-004	...........
	11	3.1	-6.79501E-002	-6.77966E-002	5.70763E-004	...........
	12	3.35833	-6.79161E-002	-6.77878E-002	5.71597E-004	...........
	13	3.61667	-6.78767E-002	-6.79439E-002	5.76397E-004	...........
	14	3.875	-6.78523E-002	-6.79893E-002	5.73197E-004	...........
	15	4.13333	-6.78646E-002	-6.80663E-002	5.79497E-004	...........
	16	4.39167	-6.79134E-002	-6.81541E-002	5.79263E-004	...........
	17	4.65	-6.79852E-002	-6.83092E-002	5.79597E-004	...........
	18	4.90833	-6.80735E-002	-6.84825E-002	5.79863E-004	...........
	19	5.16667	-6.81767E-002	-6.83339E-002	5.79130E-004	...........
	20	5.425	-6.82763E-002	-6.83618E-002	5.75463E-004	...........
	21	5.68333	-6.83416E-002	-6.82901E-002	5.75930E-004	...........
	22	5.94167	-6.83600E-002	-6.82688E-002	5.75230E-004	...........
	23	6.2	-6.83464E-002	-6.83872E-002	5.71863E-004	...........
	24	6.45833	-6.83295E-002	-6.84023E-002	5.75497E-004	...........
	25	6.71667	-6.83317E-002	-6.83996E-002	5.79330E-004	...........
	26	6.975	-6.83513E-002	-6.83196E-002	5.77330E-004	...........
	27	7.23333	-6.83666E-002	-6.82788E-002	5.78630E-004	...........
	28	7.49167	-6.83609E-002	-6.82917E-002	5.80897E-004	...........
	29	7.75	-6.83384E-002	-6.83260E-002	5.73797E-004	...........
	30	8.00833	-6.83178E-002	-6.83722E-002	5.78730E-004	...........
	31	8.26667	-6.83141E-002	-6.83625E-002	5.80430E-004	...........
	32	8.525	-6.83266E-002	-6.83524E-002	5.75263E-004	...........
	33	8.78333	-6.83437E-002	-6.83921E-002	5.73497E-004	...........
	34	9.04167	-6.83570E-002	-6.83485E-002	5.82163E-004	...........
	35	9.3	-6.83661E-002	-6.84486E-002	5.83730E-004	...........
	36	9.5583	-6.83775E-002	-6.84953E-002	5.80230E-004	...........
	37	9.8167	-6.83987E-002	-6.84536E-002	5.80530E-004	...........
	38	10.075	-6.84244E-002	-6.83257E-002	5.84163E-004	...........
EOC	QUANT	-0.0684244	Open Circuit (V)
PSTATMODEL	IQUANT	4	Pstat Model
PSTATSECTION	LABEL	REF600-11020	Pstat Section
PSTATSERIALNO	LABEL	11020	Pstat Serial Number
CTRLMODE	IQUANT	1	Control Mode
IESTAB	IQUANT	0	I/E Stability
CASPEED	IQUANT	1	Control Amp Speed
CONVENTION	IQUANT	1	Current Convention
ICHRANGE	IQUANT	2	Ich Range
ICHRANGEMODE	TOGGLE	F	Ich Auto Range
ICHOFFSETENABLE	TOGGLE	T	Ich Offset Enable
ICHOFFSET	QUANT	0	Ich Offset (V)
ICHFILTER	IQUANT	3	Ich Filter
VCHRANGE	IQUANT	2	Vch Range
VCHRANGEMODE	TOGGLE	F	Vch Auto Range
VCHOFFSETENABLE	TOGGLE	T	Vch Offset Enable
VCHOFFSET	QUANT	0	Vch Offset (V)
VCHFILTER	IQUANT	3	Vch Filter
ACHRANGE	IQUANT	2	Ach Range
ACHOFFSETENABLE	TOGGLE	F	Ach Offset Enable
ACHOFFSET	QUANT	0	Ach Offset (V)
ACHFILTER	IQUANT	3	Ach Filter
IERANGELOWERLIMIT	IQUANT	1	I/E Range Lower Limit
IERANGEMODE	TOGGLE	F	I/E AutoRange
IERANGE	IQUANT	8	I/E Range
POSFEEDENABLE	TOGGLE	F	Positive Feedback IR Comp
POSFEEDRESISTANCE	QUANT	0	Positive Feedback Resistance (ohm)
ACHSELECT	IQUANT	0	Ach Select
CABLEID	IQUANT	14	Cable ID
DCCALDATE	LABEL	2/27/2020	DC Calibration Date
ACCALDATE	LABEL	2/27/2020	AC Calibration Date
THERMOSELECT	IQUANT	1	Thermo Select
FRAMEWORKVERSION	QUANT	6.33	Framework Version
INSTRUMENTVERSION	LABEL	3.50	Instrument Version
ZCURVE	TABLE
	Pt	Time	Freq	Zreal	Zimag	Zsig	Zmod	Zphz	Idc	Vdc	IERange
	#	s	Hz	ohm	ohm	V	ohm	°	A	V	#
	0	1	1000078	2144.369	-2152.531	1	3038.373	-45.10883	-5.708711E-007	-0.0657258	8
	1	3	794390.6	2606.419	-2233.631	1	3432.569	-40.59568	3.601651E-007	-0.0666992	8
	2	4	630984.4	3073.989	-2238.962	1	3802.941	-36.06799	-1.229467E-006	-0.0665699	8
	3	5	501234.4	3528.773	-2163.081	1	4138.98	-31.50762	-1.765707E-006	-0.0663926	8
	4	7	398109.4	3930.45	-2036.066	1	4426.511	-27.38522	1.423845E-006	-0.0671528	8
	5	8	316265.6	4295.411	-1855.564	1	4679.067	-23.36374	9.254084E-008	-0.067004	8
	6	9	251203.1	4568.323	-1658.541	1	4860.076	-19.95355	1.567436E-006	-0.0673036	8
	7	11	199546.9	4800.806	-1451.718	1	5015.498	-16.82482	1.58204E-006	-0.0673216	8
	8	12	158578.1	4946.14	-1273.633	1	5107.489	-14.43998	1.675174E-006	-0.0672158	8
	9	14	125953.1	5139.772	-1039.92	1	5243.919	-11.43814	4.931316E-007	-0.0677252	7
	10	15	100078.1	5227.416	-914.8537	1	5306.867	-9.92684	-4.696156E-008	-0.0669199	7
	11	16	79453.13	5307.846	-816.655	1	5370.303	-8.74683	2.154461E-008	-0.066959	7
	12	18	63140.62	5379.239	-739.7262	1	5429.863	-7.829921	1.653143E-008	-0.0671006	7
	13	19	50203.12	5440.516	-682.1094	1	5483.109	-7.146219	-3.811191E-008	-0.0669744	7
	14	21	39890.62	5495.152	-644.2192	1	5532.785	-6.686499	4.428682E-008	-0.0671283	7
	15	22	31640.63	5546.124	-623.7319	1	5581.087	-6.416674	-3.585535E-008	-0.0670175	7
	16	23	25171.88	5598.607	-621.6068	1	5633.009	-6.335535	-3.834632E-008	-0.0669785	7
	17	25	20015.62	5649.958	-632.4183	1	5685.243	-6.386719	-3.201733E-008	-0.0669441	7
	18	26	15890.62	5701.192	-665.183	1	5739.866	-6.65486	7.341424E-008	-0.0670745	7
	19	27	12609.37	5754.257	-711.5617	1	5798.085	-7.049314	-5.038653E-009	-0.0669835	7
	20	29	10078.13	5814.209	-774.7222	1	5865.597	-7.589747	-4.314227E-008	-0.0669724	7
	21	30	8015.625	5875.858	-863.1047	1	5938.911	-8.356417	-1.549476E-008	-0.0669217	7
	22	31	6328.125	5939.223	-976.177	1	6018.911	-9.333741	6.119537E-008	-0.0671306	7
	23	33	5015.625	6011.791	-1119.542	1	6115.145	-10.54904	-3.641169E-008	-0.0669733	7
	24	35	3984.375	6091.337	-1291.576	1	6226.761	-11.9714	-4.502289E-008	-0.0669354	7
	25	36	3170.956	6163.195	-1512.841	1	6346.153	-13.79137	3.244016E-008	-0.0670753	7
	26	38	2527.573	6253.043	-1779.07	1	6501.203	-15.88172	-3.847449E-009	-0.0669873	7
	27	39	1976.103	6357.185	-2141.062	1	6708.051	-18.61322	-3.099209E-008	-0.0670055	7
	28	40	1577.524	6479.26	-2569.593	1	6970.195	-21.63265	-3.724745E-008	-0.0669845	7
	29	42	1265.625	6593.94	-3042.819	1	7262.148	-24.77128	-3.889956E-008	-0.0669974	7
	30	43	998.264	6757.079	-3683.843	1	7696.025	-28.59846	1.90371E-010	-0.0670726	7
	31	44	796.875	6939.558	-4453.989	1	8245.937	-32.69341	-3.178596E-009	-0.0669918	7
	32	46	627.7902	7165.283	-5426.942	1	8988.492	-37.14007	-4.278806E-008	-0.0669441	7
	33	47	505.5147	7418.459	-6515.283	1	9873.32	-41.29131	1.135612E-008	-0.0671448	6
	34	49	397.9953	7755.613	-7988.083	1	11133.69	-45.84596	-2.535078E-010	-0.0669579	6
	35	50	315.5048	8156.714	-9746.66	1	12709.42	-50.07496	-5.089393E-011	-0.0669591	6
	36	51	252.4038	8630.891	-11804.61	1	14623.31	-53.82775	-3.070403E-010	-0.0669667	6
	37	53	198.6229	9262.586	-14506.73	1	17211.65	-57.44167	2.803384E-010	-0.0669619	6
	38	54	158.3615	10005.68	-17629.79	1	20271.24	-60.42318	-1.034943E-011	-0.0669655	6
	39	55	125.558	10961.23	-21519.31	1	24150.14	-63.00721	-1.06824E-010	-0.0669632	6
	40	57	100.4464	12112.04	-26049.12	1	28727.3	-65.06303	4.325996E-010	-0.0669662	6
	41	58	79.00281	13692.99	-32007.5	1	34813.47	-66.83848	3.438568E-010	-0.0669658	6
	42	60	63.3446	15684.31	-38574.28	1	41641	-67.87333	3.002526E-010	-0.066965	6
	43	61	49.86702	17784.69	-47545.57	1	50762.94	-69.49141	2.657064E-010	-0.066967	6
	44	62	39.72458	20845.9	-57469.53	1	61133.45	-70.06279	8.22797E-011	-0.0669629	6
	45	64	31.6723	24639.41	-69439.48	1	73681.36	-70.46365	1.166553E-010	-0.0669654	6
	46	65	24.93351	29834.42	-84903.3	1	89992.57	-70.63889	1.672256E-010	-0.0669667	6
	47	67	19.86229	36270.64	-102467.7	1	108697.7	-70.50749	-3.748418E-010	-0.0669573	5
	48	68	15.83615	44131.24	-122456.3	1	130165.7	-70.18167	4.392632E-013	-0.0669629	5
	49	69	12.40079	55248.82	-149297.1	1	159191.9	-69.69253	-5.284588E-011	-0.0669579	5
	50	71	9.93114	69542.73	-178092.8	1	191189	-68.67005	-3.546312E-011	-0.066958	5
	51	72	7.944915	86293.33	-210403.4	1	227411.8	-67.69986	-5.759275E-010	-0.0669534	5
	52	74	6.317385	108812.7	-248493.2	1	271273.1	-66.35188	-3.427786E-010	-0.0669576	5
	53	76	5.008013	136413.3	-292314.4	1	322577.5	-64.98312	-2.60871E-010	-0.0669607	5
	54	79	3.945707	171101	-342744.8	1	383079	-63.47126	5.590168E-011	-0.0669556	5
	55	81	3.158693	208529.4	-395161.2	1	446807.4	-62.17907	-5.220917E-011	-0.0669774	5
	56	85	2.504006	254235.4	-456352.2	1	522391.6	-60.87767	1.452744E-010	-0.0669505	5
	57	87	1.998082	304458.3	-522225.3	1	604494.9	-59.75774	2.6608E-010	-0.0669762	5
	58	90	1.584686	364308.4	-598523.3	1	700678.8	-58.67202	-1.103994E-011	-0.0670096	5
	59	94	1.266892	427894	-680238.5	1	803627.9	-57.82866	2.135127E-010	-0.0669952	5
	60	98	0.999041	502942.7	-780528.1	1	928534.1	-57.20381	-5.362363E-011	-0.0669457	5
