EXPLAIN
TAG	EISPOT
TITLE	LABEL	Potentiostatic EIS	Test &Identifier
DATE	LABEL	3/20/2020	Date
TIME	LABEL	15:11:17	Time
NOTES	NOTES	1	&Notes...
	
PSTAT	PSTAT	REF600-11020	Potentiostat
VDC	POTEN	0.00000E+000	T	DC &Voltage (V)
FREQINIT	QUANT	1.00000E+006	Initial Fre&q. (Hz)
FREQFINAL	QUANT	1.00000E+000	Final Fre&q. (Hz)
PTSPERDEC	QUANT	1.00000E+001	Points/&decade
VAC	QUANT	2.50000E+001	AC &Voltage (mV rms)
AREA	QUANT	4.00000E-004	&Area (cm^2)
CONDIT	TWOPARAM	F	5.00000E+000	0.00000E+000	Conditionin&g	Time(s)	E(V)
DELAY	TWOPARAM	T	3.00000E+000	0.00000E+000	Init. De&lay	Time(s)	Stab.(mV/s)
SPEED	SELECTOR	0	&Optimize for:
ZGUESS	QUANT	1.00000E+003	E&stimated Z (ohms)
OCVCURVE	TABLE	12
	Pt	T	Vf	Vm	Ach	Over
	#	s	V vs. Ref.	V	V	bits
	0	0.258333	9.87924E-002	9.87924E-002	5.80330E-004	...........
	1	0.516667	9.87938E-002	9.88636E-002	5.80130E-004	...........
	2	0.775	9.88038E-002	9.90147E-002	5.73563E-004	...........
	3	1.03333	9.88348E-002	9.90307E-002	5.72097E-004	...........
	4	1.29167	9.88929E-002	9.92128E-002	5.75130E-004	...........
	5	1.55	9.89720E-002	9.91913E-002	5.79463E-004	...........
	6	1.80833	9.90618E-002	9.94478E-002	5.80063E-004	...........
	7	2.06667	9.91570E-002	9.93848E-002	5.76063E-004	...........
	8	2.325	9.92565E-002	9.96712E-002	5.79297E-004	...........
	9	2.58333	9.93601E-002	9.96266E-002	5.81530E-004	...........
	10	2.84167	9.94673E-002	9.98473E-002	5.76563E-004	...........
	11	3.1	9.95765E-002	9.99096E-002	5.78763E-004	...........
EOC	QUANT	0.0995765	Open Circuit (V)
PSTATMODEL	IQUANT	4	Pstat Model
PSTATSECTION	LABEL	REF600-11020	Pstat Section
PSTATSERIALNO	LABEL	11020	Pstat Serial Number
CTRLMODE	IQUANT	1	Control Mode
IESTAB	IQUANT	0	I/E Stability
CASPEED	IQUANT	1	Control Amp Speed
CONVENTION	IQUANT	1	Current Convention
ICHRANGE	IQUANT	2	Ich Range
ICHRANGEMODE	TOGGLE	F	Ich Auto Range
ICHOFFSETENABLE	TOGGLE	T	Ich Offset Enable
ICHOFFSET	QUANT	0	Ich Offset (V)
ICHFILTER	IQUANT	3	Ich Filter
VCHRANGE	IQUANT	2	Vch Range
VCHRANGEMODE	TOGGLE	F	Vch Auto Range
VCHOFFSETENABLE	TOGGLE	T	Vch Offset Enable
VCHOFFSET	QUANT	0	Vch Offset (V)
VCHFILTER	IQUANT	3	Vch Filter
ACHRANGE	IQUANT	2	Ach Range
ACHOFFSETENABLE	TOGGLE	F	Ach Offset Enable
ACHOFFSET	QUANT	0	Ach Offset (V)
ACHFILTER	IQUANT	3	Ach Filter
IERANGELOWERLIMIT	IQUANT	1	I/E Range Lower Limit
IERANGEMODE	TOGGLE	F	I/E AutoRange
IERANGE	IQUANT	8	I/E Range
POSFEEDENABLE	TOGGLE	F	Positive Feedback IR Comp
POSFEEDRESISTANCE	QUANT	0	Positive Feedback Resistance (ohm)
ACHSELECT	IQUANT	0	Ach Select
CABLEID	IQUANT	14	Cable ID
DCCALDATE	LABEL	2/27/2020	DC Calibration Date
ACCALDATE	LABEL	2/27/2020	AC Calibration Date
THERMOSELECT	IQUANT	1	Thermo Select
FRAMEWORKVERSION	QUANT	6.33	Framework Version
INSTRUMENTVERSION	LABEL	3.50	Instrument Version
ZCURVE	TABLE
	Pt	Time	Freq	Zreal	Zimag	Zsig	Zmod	Zphz	Idc	Vdc	IERange
	#	s	Hz	ohm	ohm	V	ohm	°	A	V	#
	0	1	1000078	1710.43	-2177.586	1	2769.016	-51.8514	-3.76298E-007	0.1018566	8
	1	1	794390.6	2067.808	-2402.359	1	3169.726	-49.28008	-8.172205E-008	0.1015269	8
	2	2	630984.4	2466.765	-2604.979	1	3587.596	-46.56103	-2.299746E-007	0.101439	8
	3	2	501234.4	2895.243	-2796.755	1	4025.453	-44.00871	6.270374E-007	0.1012132	8
	4	2	398109.4	3356.696	-2977.207	1	4486.777	-41.57129	-1.107143E-007	0.1012178	8
	5	3	316265.6	3852.871	-3146.065	1	4974.167	-39.23339	-2.060749E-008	0.101192	8
	6	3	251203.1	4380.146	-3298.778	1	5483.395	-36.98415	2.936879E-007	0.1011358	8
	7	3	199546.9	4948.436	-3426.594	1	6019.017	-34.70106	-2.116804E-007	0.1012392	8
	8	4	158578.1	5554.652	-3501.04	1	6565.93	-32.22281	1.610327E-008	0.1011747	8
	9	4	125953.1	6299.605	-3441.575	1	7178.403	-28.64849	1.622922E-008	0.1010641	7
	10	4	100078.1	6905.938	-3390.833	1	7693.486	-26.15115	-2.348804E-009	0.1011089	7
	11	5	79453.13	7524.154	-3286.233	1	8210.494	-23.59368	2.545773E-009	0.101085	7
	12	5	63140.62	8097.627	-3108.62	1	8673.815	-21.00143	-4.195297E-009	0.1011037	7
	13	5	50203.12	8606.888	-2888.134	1	9078.537	-18.54973	1.515799E-009	0.1011044	7
	14	6	39890.62	9039.515	-2640.824	1	9417.366	-16.28531	1.997118E-009	0.1010966	7
	15	6	31640.63	9401.682	-2389.585	1	9700.6	-14.26066	-2.887151E-009	0.1010924	7
	16	6	25171.88	9698.67	-2162.097	1	9936.75	-12.56729	3.522154E-009	0.1010804	7
	17	7	20015.62	9935.87	-1963.519	1	10128.03	-11.17871	-2.771185E-009	0.1010942	7
	18	7	15890.62	10131.83	-1798.673	1	10290.25	-10.06667	-4.182149E-010	0.1010765	7
	19	7	12609.37	10361.34	-1521.145	1	10472.41	-8.35191	-3.094353E-010	0.1011169	6
	20	8	10078.13	10479.21	-1477.073	1	10582.8	-8.023143	5.083275E-010	0.1011036	6
	21	8	8015.625	10590.15	-1476.458	1	10692.58	-7.936901	-4.988296E-010	0.1011237	6
	22	8	6328.125	10695.91	-1524.494	1	10804.01	-8.111762	-1.487856E-009	0.1011391	6
	23	9	5015.625	10791.28	-1623.75	1	10912.76	-8.557027	-7.232425E-010	0.1011336	6
	24	9	3984.375	10891.24	-1781.339	1	11035.96	-9.288879	-6.219762E-010	0.1011164	6
	25	9	3170.956	10990.35	-2000.957	1	11171.02	-10.31853	-9.979559E-010	0.1011405	6
	26	9	2527.573	11096.87	-2291.756	1	11331.05	-11.66883	-9.257557E-010	0.101138	6
	27	10	1976.103	11225.18	-2703.176	1	11546.08	-13.5398	-8.69195E-010	0.1011229	6
	28	10	1577.524	11363.37	-3185.466	1	11801.42	-15.65965	-1.060307E-009	0.1011211	6
	29	10	1265.625	11508.27	-3773.122	1	12111.02	-18.15234	-2.270754E-010	0.1011075	6
	30	11	998.264	11701.8	-4561.455	1	12559.42	-21.29623	-2.311637E-010	0.1011068	6
	31	11	796.875	11915.79	-5486.822	1	13118.35	-24.72449	6.963146E-010	0.1010942	6
	32	11	627.7902	12195.03	-6696.228	1	13912.52	-28.77096	-2.26127E-010	0.1011238	6
	33	12	505.5147	12508.55	-8042.613	1	14871.03	-32.73976	-6.910484E-010	0.1011052	6
	34	12	397.9953	12928.92	-9858.85	1	16258.96	-37.32707	-2.356849E-010	0.1011357	6
	35	12	315.5048	13441.71	-12027.43	1	18037.15	-41.82167	-8.29471E-011	0.1011369	6
	36	13	252.4038	14057.31	-14568.35	1	20244.62	-46.02275	-2.122953E-010	0.101133	6
	37	13	198.6229	14893.44	-17902.65	1	23287.76	-50.2425	-2.626873E-010	0.1011346	6
	38	13	158.3615	15899.25	-21754.62	1	26945.31	-53.83899	-1.322086E-010	0.1011292	6
	39	14	125.558	17223.6	-26553.33	1	31650.14	-57.03087	-8.579697E-011	0.1011305	6
	40	14	100.4464	18871.38	-32147.72	1	37277.4	-59.58618	-2.418259E-010	0.101131	6
	41	14	79.00281	21189.49	-39435.43	1	44767.71	-61.74993	-3.919211E-010	0.1011284	6
	42	15	63.3446	23955.2	-47541.03	1	53235.34	-63.25716	-5.38703E-011	0.1011282	6
	43	15	49.86702	27961.77	-58005.84	1	64393.62	-64.26356	-5.308872E-010	0.1011251	6
	44	15	39.72458	33038.87	-69823.9	1	77245.99	-64.6777	-1.08197E-010	0.1011316	6
	45	16	31.6723	39687.32	-83627.34	1	92566.81	-64.61222	-7.94193E-011	0.1011306	6
	46	16	24.93351	48927.42	-100444	1	111726.9	-64.02876	-8.85543E-010	0.1011299	5
	47	16	19.86229	60284.69	-118765.8	1	133190	-63.08797	2.259932E-010	0.1011355	5
	48	17	15.83615	74750.85	-139091.4	1	157905.4	-61.74542	-1.799473E-009	0.1011308	5
	49	17	12.40079	94344.9	-162764.1	1	188130.6	-59.90162	-1.869919E-009	0.1011404	5
	50	17	9.93114	115549.3	-185383.3	1	218445.9	-58.06475	-2.185934E-009	0.1011335	5
	51	18	7.944915	140318.9	-209676.8	1	252296.9	-56.20895	-8.777978E-010	0.1011349	5
	52	18	6.317385	168983.1	-235042.2	1	289482.5	-54.28583	-5.672733E-010	0.1011273	5
	53	19	5.008013	201075.3	-261791.3	1	330099.9	-52.47305	-1.021093E-009	0.1011237	5
	54	20	3.945707	237228	-291165.8	1	375572.4	-50.8285	-1.007363E-009	0.1011337	5
	55	21	3.158693	271973	-320275.6	1	420173.5	-49.66261	-8.631661E-010	0.1011143	5
	56	22	2.504006	311235.4	-354434.4	1	471689.8	-48.71303	-4.510826E-010	0.1011227	5
	57	23	1.998082	349714	-392506.9	1	525701	-48.29975	-5.919135E-010	0.1011231	5
	58	24	1.584686	394228.5	-437445.3	1	588875.6	-47.97462	-7.826764E-010	0.1010723	5
	59	26	1.266892	439016.6	-490313.7	1	658136.1	-48.1594	-8.074995E-010	0.1010768	5
	60	29	0.999041	489520.1	-555676.9	1	740544.9	-48.62176	-7.931803E-010	0.1010959	5
