EXPLAIN
TAG	EISPOT
TITLE	LABEL	Potentiostatic EIS	Test &Identifier
DATE	LABEL	1/21/2020	Date
TIME	LABEL	16:44:38	Time
NOTES	NOTES	6	&Notes...
	
	
	
	
	
	
PSTAT	PSTAT	REF600-11020	Potentiostat
VDC	POTEN	0.00000E+000	T	DC &Voltage (V)
FREQINIT	QUANT	1.00000E+006	Initial Fre&q. (Hz)
FREQFINAL	QUANT	1.00000E+000	Final Fre&q. (Hz)
PTSPERDEC	QUANT	1.00000E+001	Points/&decade
VAC	QUANT	2.50000E+001	AC &Voltage (mV rms)
AREA	QUANT	1.00000E-001	&Area (cm^2)
CONDIT	TWOPARAM	F	5.00000E+000	0.00000E+000	Conditionin&g	Time(s)	E(V)
DELAY	TWOPARAM	F	5.00000E+000	0.00000E+000	Init. De&lay	Time(s)	Stab.(mV/s)
SPEED	SELECTOR	0	&Optimize for:
ZGUESS	QUANT	5.00000E+002	E&stimated Z (ohms)
OCVCURVE	TABLE	39
	Pt	T	Vf	Vm	Ach	Over
	#	s	V vs. Ref.	V	V	bits
	0	0.258333	-4.48677E-002	-4.48677E-002	6.69279E-004	...........
	1	0.516667	-4.48684E-002	-4.49020E-002	6.69079E-004	...........
	2	0.775	-4.48724E-002	-4.49342E-002	6.71613E-004	...........
	3	1.03333	-4.48836E-002	-4.49575E-002	6.69446E-004	...........
	4	1.29167	-4.49030E-002	-4.49838E-002	6.62913E-004	...........
	5	1.55	-4.49275E-002	-4.49913E-002	6.69713E-004	...........
	6	1.80833	-4.49525E-002	-4.50209E-002	6.66679E-004	...........
	7	2.06667	-4.49766E-002	-4.51029E-002	6.69313E-004	...........
	8	2.325	-4.50041E-002	-4.51244E-002	6.70913E-004	...........
	9	2.58333	-4.50386E-002	-4.51320E-002	6.76713E-004	...........
	10	2.84167	-4.50753E-002	-4.51264E-002	6.69446E-004	...........
	11	3.1	-4.51045E-002	-4.51315E-002	6.70479E-004	...........
	12	3.35833	-4.51220E-002	-4.51473E-002	6.71713E-004	...........
	13	3.61667	-4.51321E-002	-4.52029E-002	6.73813E-004	...........
	14	3.875	-4.51442E-002	-4.52438E-002	6.67979E-004	...........
	15	4.13333	-4.51650E-002	-4.52279E-002	6.67746E-004	...........
	16	4.39167	-4.51918E-002	-4.52569E-002	6.67279E-004	...........
	17	4.65	-4.52165E-002	-4.52426E-002	6.67713E-004	...........
	18	4.90833	-4.52329E-002	-4.52084E-002	6.67946E-004	...........
	19	5.16667	-4.52369E-002	-4.51316E-002	6.65513E-004	...........
	20	5.425	-4.52240E-002	-4.51099E-002	6.71146E-004	...........
	21	5.68333	-4.51952E-002	-4.51231E-002	6.74379E-004	...........
	22	5.94167	-4.51604E-002	-4.50548E-002	6.76112E-004	...........
	23	6.2	-4.51293E-002	-4.50953E-002	6.66013E-004	...........
	24	6.45833	-4.51066E-002	-4.51299E-002	6.67146E-004	...........
	25	6.71667	-4.50970E-002	-4.51512E-002	6.69246E-004	...........
	26	6.975	-4.51034E-002	-4.51648E-002	6.71613E-004	...........
	27	7.23333	-4.51210E-002	-4.51782E-002	6.68279E-004	...........
	28	7.49167	-4.51419E-002	-4.51984E-002	6.67813E-004	...........
	29	7.75	-4.51621E-002	-4.52444E-002	6.66546E-004	...........
	30	8.00833	-4.51825E-002	-4.52375E-002	6.71613E-004	...........
	31	8.26667	-4.52037E-002	-4.52531E-002	6.65379E-004	...........
	32	8.525	-4.52234E-002	-4.52611E-002	6.73613E-004	...........
	33	8.78333	-4.52389E-002	-4.52659E-002	6.67846E-004	...........
	34	9.04167	-4.52505E-002	-4.52780E-002	6.74246E-004	...........
	35	9.3	-4.52600E-002	-4.53012E-002	6.70046E-004	...........
	36	9.5583	-4.52696E-002	-4.52968E-002	6.73046E-004	...........
	37	9.8167	-4.52802E-002	-4.53067E-002	6.75913E-004	...........
	38	10.075	-4.52904E-002	-4.53176E-002	6.74846E-004	...........
EOC	QUANT	-0.0452904	Open Circuit (V)
PSTATMODEL	IQUANT	4	Pstat Model
PSTATSECTION	LABEL	REF600-11020	Pstat Section
PSTATSERIALNO	LABEL	11020	Pstat Serial Number
CTRLMODE	IQUANT	1	Control Mode
IESTAB	IQUANT	0	I/E Stability
CASPEED	IQUANT	1	Control Amp Speed
CONVENTION	IQUANT	1	Current Convention
ICHRANGE	IQUANT	2	Ich Range
ICHRANGEMODE	TOGGLE	F	Ich Auto Range
ICHOFFSETENABLE	TOGGLE	T	Ich Offset Enable
ICHOFFSET	QUANT	0	Ich Offset (V)
ICHFILTER	IQUANT	3	Ich Filter
VCHRANGE	IQUANT	2	Vch Range
VCHRANGEMODE	TOGGLE	F	Vch Auto Range
VCHOFFSETENABLE	TOGGLE	T	Vch Offset Enable
VCHOFFSET	QUANT	0	Vch Offset (V)
VCHFILTER	IQUANT	3	Vch Filter
ACHRANGE	IQUANT	2	Ach Range
ACHOFFSETENABLE	TOGGLE	F	Ach Offset Enable
ACHOFFSET	QUANT	0	Ach Offset (V)
ACHFILTER	IQUANT	3	Ach Filter
IERANGELOWERLIMIT	IQUANT	1	I/E Range Lower Limit
IERANGEMODE	TOGGLE	F	I/E AutoRange
IERANGE	IQUANT	8	I/E Range
POSFEEDENABLE	TOGGLE	F	Positive Feedback IR Comp
POSFEEDRESISTANCE	QUANT	0	Positive Feedback Resistance (ohm)
ACHSELECT	IQUANT	0	Ach Select
CABLEID	IQUANT	14	Cable ID
DCCALDATE	LABEL	12/22/2019	DC Calibration Date
ACCALDATE	LABEL	12/22/2019	AC Calibration Date
THERMOSELECT	IQUANT	1	Thermo Select
FRAMEWORKVERSION	QUANT	6.33	Framework Version
INSTRUMENTVERSION	LABEL	3.50	Instrument Version
ZCURVE	TABLE
	Pt	Time	Freq	Zreal	Zimag	Zsig	Zmod	Zphz	Idc	Vdc	IERange
	#	s	Hz	ohm	ohm	V	ohm	°	A	V	#
	0	1	1000078	2141.159	-1871.703	1	2843.912	-41.15847	4.479909E-006	-0.0438605	8
	1	1	794390.6	2523.048	-1882.619	1	3148.019	-36.72915	-3.28658E-006	-0.0430234	8
	2	2	630984.4	2897.122	-1847.24	1	3435.93	-32.52208	1.47102E-006	-0.0436199	8
	3	2	501234.4	3242.904	-1774.807	1	3696.804	-28.69142	1.691535E-006	-0.0439348	8
	4	2	398109.4	3566.704	-1648.309	1	3929.16	-24.80345	-1.552647E-006	-0.0433646	8
	5	3	316265.6	3814.596	-1517.547	1	4105.374	-21.69396	-6.723409E-007	-0.0434025	8
	6	3	251203.1	4043.287	-1358.642	1	4265.451	-18.5736	5.951615E-007	-0.0437702	8
	7	3	199546.9	4233.033	-1233.615	1	4409.124	-16.24748	-5.904637E-007	-0.0433928	8
	8	4	158578.1	4391.193	-1080.294	1	4522.125	-13.82108	-1.286772E-006	-0.0434174	8
	9	4	125953.1	4519.861	-926.8155	1	4613.906	-11.58809	-6.270467E-007	-0.0423895	7
	10	4	100078.1	4606.164	-818.7683	1	4678.368	-10.07933	-2.186777E-008	-0.0436614	7
	11	5	79453.13	4686.396	-743.2063	1	4744.961	-9.01138	-1.509339E-008	-0.0436795	7
	12	5	63140.62	4755.438	-680.4225	1	4803.869	-8.142787	-8.923785E-009	-0.0436472	7
	13	5	50203.12	4815.014	-632.5782	1	4856.389	-7.484437	-4.360824E-008	-0.0435827	7
	14	6	39890.62	4867.833	-600.9923	1	4904.792	-7.038234	-1.594664E-008	-0.0436893	7
	15	6	31640.63	4918.151	-586.8859	1	4953.044	-6.804961	-3.295053E-008	-0.0435676	7
	16	6	25171.88	4964.934	-587.7654	1	4999.604	-6.751443	-2.411972E-009	-0.0436477	7
	17	7	20015.62	5011.34	-602.4457	1	5047.422	-6.855	-4.448202E-009	-0.0436427	7
	18	7	15890.62	5057.96	-637.5127	1	5097.979	-7.183762	-4.098147E-009	-0.0436434	7
	19	7	12609.37	5107.699	-690.7045	1	5154.188	-7.701283	-1.421047E-008	-0.0435645	7
	20	7	10078.13	5157.184	-757.153	1	5212.468	-8.352223	-1.469022E-008	-0.0435674	7
	21	8	8015.625	5211.348	-851.3631	1	5280.433	-9.278285	-3.218948E-008	-0.0435656	7
	22	8	6328.125	5271.355	-973.005	1	5360.404	-10.45814	-4.709187E-009	-0.0436479	7
	23	8	5015.625	5336.479	-1125.717	1	5453.92	-11.91177	-4.354429E-009	-0.0436487	7
	24	9	3984.375	5406.698	-1313.485	1	5563.958	-13.65472	-4.414581E-008	-0.0435979	7
	25	9	3170.956	5485.716	-1545.33	1	5699.221	-15.73256	-1.4784E-008	-0.0435732	7
	26	9	2527.573	5573.417	-1826.368	1	5865.032	-18.14359	1.671093E-008	-0.0437559	7
	27	10	1976.103	5681.892	-2207.287	1	6095.573	-21.23003	-5.288291E-008	-0.0436037	7
	28	10	1577.524	5800.474	-2629.18	1	6368.523	-24.38336	3.262236E-008	-0.0437943	7
	29	10	1265.625	5933.939	-3149.253	1	6717.844	-27.95573	6.064275E-008	-0.0437932	7
	30	11	998.264	6104.537	-3820.747	1	7201.63	-32.04189	-3.408125E-009	-0.0437289	7
	31	11	796.875	6301.294	-4607.554	1	7806.143	-36.17455	-7.782205E-009	-0.043661	7
	32	11	627.7902	6551.272	-5624.581	1	8634.528	-40.64767	-1.346385E-008	-0.0435741	7
	33	12	505.5147	6829.828	-6736.965	1	9593.4	-44.60782	6.663936E-008	-0.043829	7
	34	12	397.9953	7199.892	-8245.41	1	10946.47	-48.87254	7.666361E-010	-0.0436765	6
	35	12	315.5048	7640.21	-10033.32	1	12611.12	-52.71131	4.014633E-010	-0.0436742	6
	36	13	252.4038	8156.29	-12116.37	1	14605.87	-56.05302	6.710705E-010	-0.0436788	6
	37	13	198.6229	8836.111	-14841.16	1	17272.43	-59.23133	7.445164E-010	-0.043681	6
	38	13	158.3615	9625.33	-17979.1	1	20393.5	-61.83709	7.390764E-010	-0.0436816	6
	39	14	125.558	10604.88	-21893.6	1	24326.8	-64.15526	5.70082E-010	-0.0436803	6
	40	14	100.4464	11783.98	-26470.65	1	28975.12	-66.00274	1.223961E-009	-0.0436824	6
	41	14	79.00281	13288.67	-32498.07	1	35110.02	-67.76004	1.131876E-009	-0.043687	6
	42	15	63.3446	15162.65	-38883.75	1	41735.5	-68.6968	3.241226E-010	-0.0436866	6
	43	15	49.86702	17663.02	-47860	1	51015.31	-69.74311	6.076009E-010	-0.0436856	6
	44	15	39.72458	20467.39	-58264.67	1	61755.05	-70.64449	6.501925E-010	-0.0436847	6
	45	16	31.6723	24255.8	-70836.16	1	74873.93	-71.09772	8.00794E-010	-0.0436816	6
	46	16	24.93351	29616.66	-86481.66	1	91412.38	-71.09563	2.929609E-010	-0.0436853	6
	47	16	19.86229	36267.71	-104400.1	1	110520.3	-70.84321	-6.543742E-010	-0.0436883	5
	48	16	15.83615	44523.95	-125485.1	1	133149.9	-70.46458	-1.879561E-010	-0.0436868	5
	49	17	12.40079	57070.5	-152103.6	1	162457.8	-69.4335	-1.021452E-009	-0.0436842	5
	50	17	9.93114	71568.95	-181930	1	195501	-68.52595	1.020741E-010	-0.0436823	5
	51	18	7.944915	90752.84	-214128.2	1	232566	-67.03156	3.643315E-010	-0.0436894	5
	52	18	6.317385	114756.6	-252739.1	1	277571.8	-65.57951	4.098372E-010	-0.0436985	5
	53	19	5.008013	145908.5	-296146.8	1	330139.7	-63.77101	9.140269E-011	-0.043692	5
	54	20	3.945707	184350	-345307.3	1	391435.9	-61.90348	2.802645E-010	-0.0436865	5
	55	21	3.158693	227700.1	-393918.7	1	454993.8	-59.97044	-6.068707E-011	-0.0436803	5
	56	23	2.504006	279782.6	-448815.8	1	528879.9	-58.06143	-6.826831E-011	-0.043698	5
	57	24	1.998082	337467.8	-504518.8	1	606979.2	-56.22182	1.887849E-010	-0.0436523	5
	58	26	1.584686	401105	-567109.4	1	694620.9	-54.729	1.554492E-010	-0.0436809	5
	59	28	1.266892	469418	-630800.3	1	786296.6	-53.34475	8.118362E-011	-0.0437162	5
	60	30	0.999041	549123.7	-706752.7	1	895006.3	-52.15396	2.935656E-011	-0.0437408	5
