EXPLAIN
TAG	EISPOT
TITLE	LABEL	Potentiostatic EIS	Test &Identifier
DATE	LABEL	6/6/2020	Date
TIME	LABEL	18:41:34	Time
NOTES	NOTES	1	&Notes...
	
PSTAT	PSTAT	REF600-11020	Potentiostat
VDC	POTEN	0.00000E+000	T	DC &Voltage (V)
FREQINIT	QUANT	1.00000E+006	Initial Fre&q. (Hz)
FREQFINAL	QUANT	1.00000E+000	Final Fre&q. (Hz)
PTSPERDEC	QUANT	1.00000E+001	Points/&decade
VAC	QUANT	2.50000E+001	AC &Voltage (mV rms)
AREA	QUANT	4.00000E-004	&Area (cm^2)
CONDIT	TWOPARAM	F	5.00000E+000	0.00000E+000	Conditionin&g	Time(s)	E(V)
DELAY	TWOPARAM	T	3.00000E+000	0.00000E+000	Init. De&lay	Time(s)	Stab.(mV/s)
SPEED	SELECTOR	0	&Optimize for:
ZGUESS	QUANT	1.00000E+003	E&stimated Z (ohms)
OCVCURVE	TABLE	12
	Pt	T	Vf	Vm	Ach	Over
	#	s	V vs. Ref.	V	V	bits
	0	0.258333	-1.15313E-002	-1.15313E-002	6.31862E-004	...........
	1	0.516667	-1.15303E-002	-1.14800E-002	6.41029E-004	...........
	2	0.775	-1.15280E-002	-1.16237E-002	6.20329E-004	...........
	3	1.03333	-1.15247E-002	-1.12968E-002	6.24729E-004	...........
	4	1.29167	-1.15111E-002	-1.13677E-002	6.32296E-004	...........
	5	1.55	-1.14730E-002	-1.12917E-002	6.30629E-004	...........
	6	1.80833	-1.14153E-002	-1.12458E-002	6.25829E-004	...........
	7	2.06667	-1.13550E-002	-1.11982E-002	6.23529E-004	...........
	8	2.325	-1.13001E-002	-1.11520E-002	6.34562E-004	...........
	9	2.58333	-1.12509E-002	-1.11651E-002	6.37462E-004	...........
	10	2.84167	-1.12078E-002	-1.10515E-002	6.28662E-004	...........
	11	3.1	-1.11695E-002	-1.11030E-002	6.28229E-004	...........
EOC	QUANT	-0.0111695	Open Circuit (V)
PSTATMODEL	IQUANT	4	Pstat Model
PSTATSECTION	LABEL	REF600-11020	Pstat Section
PSTATSERIALNO	LABEL	11020	Pstat Serial Number
CTRLMODE	IQUANT	1	Control Mode
IESTAB	IQUANT	0	I/E Stability
CASPEED	IQUANT	1	Control Amp Speed
CONVENTION	IQUANT	1	Current Convention
ICHRANGE	IQUANT	2	Ich Range
ICHRANGEMODE	TOGGLE	F	Ich Auto Range
ICHOFFSETENABLE	TOGGLE	T	Ich Offset Enable
ICHOFFSET	QUANT	0	Ich Offset (V)
ICHFILTER	IQUANT	3	Ich Filter
VCHRANGE	IQUANT	2	Vch Range
VCHRANGEMODE	TOGGLE	F	Vch Auto Range
VCHOFFSETENABLE	TOGGLE	T	Vch Offset Enable
VCHOFFSET	QUANT	0	Vch Offset (V)
VCHFILTER	IQUANT	3	Vch Filter
ACHRANGE	IQUANT	2	Ach Range
ACHOFFSETENABLE	TOGGLE	F	Ach Offset Enable
ACHOFFSET	QUANT	0	Ach Offset (V)
ACHFILTER	IQUANT	3	Ach Filter
IERANGELOWERLIMIT	IQUANT	1	I/E Range Lower Limit
IERANGEMODE	TOGGLE	F	I/E AutoRange
IERANGE	IQUANT	7	I/E Range
POSFEEDENABLE	TOGGLE	F	Positive Feedback IR Comp
POSFEEDRESISTANCE	QUANT	0	Positive Feedback Resistance (ohm)
ACHSELECT	IQUANT	0	Ach Select
CABLEID	IQUANT	14	Cable ID
DCCALDATE	LABEL	2/27/2020	DC Calibration Date
ACCALDATE	LABEL	2/27/2020	AC Calibration Date
THERMOSELECT	IQUANT	1	Thermo Select
FRAMEWORKVERSION	QUANT	6.33	Framework Version
INSTRUMENTVERSION	LABEL	3.50	Instrument Version
ZCURVE	TABLE
	Pt	Time	Freq	Zreal	Zimag	Zsig	Zmod	Zphz	Idc	Vdc	IERange
	#	s	Hz	ohm	ohm	V	ohm	°	A	V	#
	0	1	1000078	741.9291	-6566.192	1	6607.975	-83.55336	4.559583E-008	-0.0088502	8
	1	1	794390.6	838.6197	-8190.584	1	8233.405	-84.15395	4.215967E-008	-0.0092016	8
	2	2	630984.4	980.582	-10202.54	1	10249.55	-84.51007	1.196972E-007	-0.0093446	8
	3	2	501234.4	1144.392	-12729.39	1	12780.73	-84.86283	1.015509E-007	-0.0094426	8
	4	2	398109.4	1343.145	-15849.98	1	15906.79	-85.15627	4.508212E-008	-0.0095158	8
	5	3	316265.6	1613.076	-19742.77	1	19808.55	-85.32904	5.99852E-008	-0.0095486	8
	6	3	251203.1	1943.834	-24699.1	1	24775.47	-85.50006	4.646824E-008	-0.0095706	8
	7	3	199546.9	2291.314	-30787.84	1	30872.98	-85.74374	5.238676E-008	-0.00957	8
	8	3	158578.1	2784.742	-38497.35	1	38597.94	-85.86266	5.186068E-008	-0.0095681	8
	9	4	125953.1	3949.108	-47929.88	1	48092.29	-85.28984	2.056855E-009	-0.0096095	7
	10	4	100078.1	4543.428	-59592.52	1	59765.46	-85.64011	2.8991E-009	-0.0096371	7
	11	4	79453.13	5301.212	-74522.95	1	74711.26	-85.9311	3.3541E-009	-0.0096402	7
	12	5	63140.62	6538.324	-93071.07	1	93300.45	-85.98152	2.382842E-009	-0.0096592	7
	13	5	50203.12	7761.438	-115827.1	1	116086.9	-86.16641	3.142604E-009	-0.0096554	7
	14	5	39890.62	9535.34	-144865	1	145178.4	-86.23409	3.12871E-009	-0.0096542	7
	15	6	31640.63	12281	-180730.6	1	181147.3	-86.11262	3.353537E-009	-0.0096508	7
	16	6	25171.88	15310.06	-225601	1	226119.9	-86.11766	3.440175E-009	-0.0096571	7
	17	6	20015.62	17646.26	-281858.6	1	282410.4	-86.41757	4.063494E-009	-0.0096539	7
	18	7	15890.62	22559.56	-352149.5	1	352871.3	-86.3345	3.22041E-009	-0.0096599	7
	19	7	12609.37	32839.07	-440350.6	1	441573.4	-85.73507	6.323015E-010	-0.0096003	6
	20	7	10078.13	41138.53	-546327.5	1	547874.2	-85.69375	4.728122E-010	-0.0096031	6
	21	8	8015.625	53551.03	-679932.8	1	682038.4	-85.49672	6.170804E-010	-0.0096036	6
	22	8	6328.125	63462.7	-853269.6	1	855626.4	-85.74641	5.909683E-010	-0.0096001	6
	23	8	5015.625	82457.1	-1067012	1	1070193	-85.58105	5.269024E-010	-0.00961	6
	24	9	3984.375	110184.1	-1331130	1	1335683	-85.26814	6.186733E-010	-0.0096084	6
	25	9	3170.956	147942.2	-1652541	1	1659150	-84.88428	4.811074E-010	-0.0096072	6
	26	9	2527.573	190506.2	-2035411	1	2044307	-84.65293	4.601626E-010	-0.0096109	6
	27	10	1976.103	249137.7	-2551169	1	2563305	-84.42239	4.48172E-010	-0.0096117	6
	28	10	1577.524	353690.3	-3158778	1	3178518	-83.61117	6.123726E-010	-0.009609	6
	29	10	1265.625	489846.7	-3889844	1	3920566	-82.82255	2.709855E-011	-0.0096049	5
	30	11	998.264	648606.6	-4871571	1	4914560	-82.41618	1.580499E-011	-0.009604	5
	31	11	796.875	895750.7	-6017509	1	6083814	-81.53327	1.995912E-011	-0.0096083	5
	32	11	627.7902	1216716	-7528681	1	7626365	-80.81976	2.51884E-012	-0.0096023	5
	33	11	505.5147	1724522	-9209766	1	9369833	-79.39422	1.744744E-011	-0.009612	5
	34	12	397.9953	2428336	-1.143922E+007	1	1.169412E+007	-78.01508	6.405107E-012	-0.0095938	5
	35	12	315.5048	3481894	-1.407323E+007	1	1.449756E+007	-76.10337	1.563095E-012	-0.0095975	5
	36	12	252.4038	4930615	-1.706681E+007	1	1.776477E+007	-73.88595	3.787582E-012	-0.0095982	5
	37	13	198.6229	7156523	-2.077311E+007	1	2.19713E+007	-70.99072	5.071228E-012	-0.0095981	5
	38	13	158.3615	1.01409E+007	-2.468073E+007	1	2.668288E+007	-67.66306	5.02014E-012	-0.0095994	5
	39	13	125.558	1.456676E+007	-2.88727E+007	1	3.233919E+007	-63.2283	5.707079E-013	-0.0096033	4
	40	14	100.4464	1.979752E+007	-3.282599E+007	1	3.83339E+007	-58.90561	4.756459E-013	-0.0096057	4
	41	14	79.00281	2.681978E+007	-3.645117E+007	1	4.52547E+007	-53.65537	-1.43202E-013	-0.0096075	4
	42	14	63.3446	3.441567E+007	-3.876683E+007	1	5.183923E+007	-48.40258	1.923316E-013	-0.0096063	4
	43	15	49.86702	4.321618E+007	-3.965396E+007	1	5.865215E+007	-42.53862	-9.658532E-014	-0.0096074	4
	44	15	39.72458	5.173176E+007	-3.87605E+007	1	6.464171E+007	-36.84272	-8.755203E-013	-0.0096006	4
	45	16	31.6723	5.923451E+007	-3.661506E+007	1	6.963756E+007	-31.72176	-5.645389E-013	-0.0096046	4
	46	16	24.93351	6.640283E+007	-3.29408E+007	1	7.412444E+007	-26.38487	-9.343243E-013	-0.0096074	4
	47	16	19.86229	7.145544E+007	-2.906483E+007	1	7.714042E+007	-22.13426	-1.198804E-012	-0.0096092	4
	48	16	15.83615	7.560948E+007	-2.53641E+007	1	7.975043E+007	-18.54464	-2.368008E-014	-0.0096089	4
	49	17	12.40079	7.894646E+007	-2.083298E+007	1	8.164898E+007	-14.78265	-3.660741E-012	-0.0096041	3
	50	17	9.93114	8.151226E+007	-1.796215E+007	1	8.346788E+007	-12.42717	-4.474302E-012	-0.0096102	3
	51	17	7.944915	8.295804E+007	-1.523867E+007	1	8.434603E+007	-10.4087	-3.360188E-012	-0.009608	3
	52	18	6.317385	8.422649E+007	-1.278705E+007	1	8.519161E+007	-8.632575	-3.91548E-012	-0.0095979	3
	53	19	5.008013	8.522224E+007	-1.091759E+007	1	8.59187E+007	-7.300245	-5.949837E-012	-0.0096151	3
	54	20	3.945707	8.600586E+007	-9182070	1	8.649461E+007	-6.093872	-5.833395E-012	-0.0096076	3
	55	20	3.158693	8.674988E+007	-7932483	1	8.71118E+007	-5.224646	-7.313177E-012	-0.009625	3
	56	21	2.504006	8.714986E+007	-7080633	1	8.743702E+007	-4.644887	-6.711389E-012	-0.0096254	3
	57	23	1.998082	8.768258E+007	-6299317	1	8.790857E+007	-4.1092	-6.467454E-012	-0.0096084	3
	58	24	1.584686	8.811418E+007	-5792906	1	8.83044E+007	-3.761393	-7.868436E-012	-0.0096522	3
	59	26	1.266892	8.853801E+007	-5433450	1	8.870458E+007	-3.511756	-9.076563E-012	-0.0096645	3
	60	29	0.999041	8.900943E+007	-5191699	1	8.916071E+007	-3.338138	-1.015758E-011	-0.0096541	3
