EXPLAIN
TAG	EISPOT
TITLE	LABEL	Potentiostatic EIS	Test &Identifier
DATE	LABEL	1/25/2020	Date
TIME	LABEL	11:56:25	Time
NOTES	NOTES	6	&Notes...
	
	
	
	
	
	
PSTAT	PSTAT	REF600-11020	Potentiostat
VDC	POTEN	0.00000E+000	T	DC &Voltage (V)
FREQINIT	QUANT	1.00000E+006	Initial Fre&q. (Hz)
FREQFINAL	QUANT	1.00000E+000	Final Fre&q. (Hz)
PTSPERDEC	QUANT	1.00000E+001	Points/&decade
VAC	QUANT	2.50000E+001	AC &Voltage (mV rms)
AREA	QUANT	1.00000E-001	&Area (cm^2)
CONDIT	TWOPARAM	F	5.00000E+000	0.00000E+000	Conditionin&g	Time(s)	E(V)
DELAY	TWOPARAM	F	5.00000E+000	0.00000E+000	Init. De&lay	Time(s)	Stab.(mV/s)
SPEED	SELECTOR	0	&Optimize for:
ZGUESS	QUANT	5.00000E+002	E&stimated Z (ohms)
OCVCURVE	TABLE	39
	Pt	T	Vf	Vm	Ach	Over
	#	s	V vs. Ref.	V	V	bits
	0	0.258333	1.63403E-002	1.63403E-002	6.57180E-004	...........
	1	0.516667	1.63425E-002	1.64547E-002	6.57313E-004	...........
	2	0.775	1.63561E-002	1.65728E-002	6.52880E-004	...........
	3	1.03333	1.63950E-002	1.66775E-002	6.55213E-004	...........
	4	1.29167	1.64656E-002	1.68002E-002	6.58346E-004	...........
	5	1.55	1.65612E-002	1.69038E-002	6.55246E-004	...........
	6	1.80833	1.66701E-002	1.70178E-002	6.52380E-004	...........
	7	2.06667	1.67833E-002	1.71306E-002	6.54646E-004	...........
	8	2.325	1.68967E-002	1.72468E-002	6.57579E-004	...........
	9	2.58333	1.70098E-002	1.73591E-002	6.56280E-004	...........
	10	2.84167	1.71230E-002	1.74646E-002	6.56813E-004	...........
	11	3.1	1.72358E-002	1.75832E-002	6.62013E-004	...........
	12	3.35833	1.73481E-002	1.76940E-002	6.59346E-004	...........
	13	3.61667	1.74604E-002	1.78101E-002	6.55846E-004	...........
	14	3.875	1.75732E-002	1.79295E-002	6.54413E-004	...........
	15	4.13333	1.76871E-002	1.80312E-002	6.55279E-004	...........
	16	4.39167	1.78005E-002	1.81115E-002	6.51746E-004	...........
	17	4.65	1.79106E-002	1.82497E-002	6.47713E-004	...........
	18	4.90833	1.80171E-002	1.83416E-002	6.50046E-004	...........
	19	5.16667	1.81227E-002	1.84445E-002	6.55079E-004	...........
	20	5.425	1.82284E-002	1.85453E-002	6.57813E-004	...........
	21	5.68333	1.83327E-002	1.86295E-002	6.49046E-004	...........
	22	5.94167	1.84337E-002	1.87151E-002	6.55913E-004	...........
	23	6.2	1.85301E-002	1.88171E-002	6.52180E-004	...........
	24	6.45833	1.86229E-002	1.89039E-002	6.54713E-004	...........
	25	6.71667	1.87145E-002	1.89971E-002	6.48813E-004	...........
	26	6.975	1.88055E-002	1.90592E-002	6.50980E-004	...........
	27	7.23333	1.88944E-002	1.91477E-002	6.53113E-004	...........
	28	7.49167	1.89788E-002	1.92096E-002	6.54213E-004	...........
	29	7.75	1.90581E-002	1.92707E-002	6.58079E-004	...........
	30	8.00833	1.91344E-002	1.94488E-002	6.58513E-004	...........
	31	8.26667	1.92171E-002	1.96316E-002	6.61479E-004	...........
	32	8.525	1.93152E-002	1.94670E-002	6.56979E-004	...........
	33	8.78333	1.94119E-002	1.94106E-002	6.59713E-004	...........
	34	9.04167	1.94740E-002	1.96016E-002	6.61046E-004	...........
	35	9.3	1.95015E-002	1.97043E-002	6.51346E-004	...........
	36	9.5583	1.95327E-002	1.98000E-002	6.51713E-004	...........
	37	9.8167	1.95945E-002	1.98521E-002	6.55213E-004	...........
	38	10.075	1.96787E-002	1.98985E-002	6.58913E-004	...........
EOC	QUANT	0.0196787	Open Circuit (V)
PSTATMODEL	IQUANT	4	Pstat Model
PSTATSECTION	LABEL	REF600-11020	Pstat Section
PSTATSERIALNO	LABEL	11020	Pstat Serial Number
CTRLMODE	IQUANT	1	Control Mode
IESTAB	IQUANT	0	I/E Stability
CASPEED	IQUANT	1	Control Amp Speed
CONVENTION	IQUANT	1	Current Convention
ICHRANGE	IQUANT	2	Ich Range
ICHRANGEMODE	TOGGLE	F	Ich Auto Range
ICHOFFSETENABLE	TOGGLE	T	Ich Offset Enable
ICHOFFSET	QUANT	0	Ich Offset (V)
ICHFILTER	IQUANT	3	Ich Filter
VCHRANGE	IQUANT	2	Vch Range
VCHRANGEMODE	TOGGLE	F	Vch Auto Range
VCHOFFSETENABLE	TOGGLE	T	Vch Offset Enable
VCHOFFSET	QUANT	0	Vch Offset (V)
VCHFILTER	IQUANT	3	Vch Filter
ACHRANGE	IQUANT	2	Ach Range
ACHOFFSETENABLE	TOGGLE	F	Ach Offset Enable
ACHOFFSET	QUANT	0	Ach Offset (V)
ACHFILTER	IQUANT	3	Ach Filter
IERANGELOWERLIMIT	IQUANT	1	I/E Range Lower Limit
IERANGEMODE	TOGGLE	F	I/E AutoRange
IERANGE	IQUANT	7	I/E Range
POSFEEDENABLE	TOGGLE	F	Positive Feedback IR Comp
POSFEEDRESISTANCE	QUANT	0	Positive Feedback Resistance (ohm)
ACHSELECT	IQUANT	0	Ach Select
CABLEID	IQUANT	14	Cable ID
DCCALDATE	LABEL	12/22/2019	DC Calibration Date
ACCALDATE	LABEL	12/22/2019	AC Calibration Date
THERMOSELECT	IQUANT	1	Thermo Select
FRAMEWORKVERSION	QUANT	6.33	Framework Version
INSTRUMENTVERSION	LABEL	3.50	Instrument Version
ZCURVE	TABLE
	Pt	Time	Freq	Zreal	Zimag	Zsig	Zmod	Zphz	Idc	Vdc	IERange
	#	s	Hz	ohm	ohm	V	ohm	°	A	V	#
	0	1	1000078	1482.275	-2014.097	1	2500.745	-53.64879	-5.142291E-006	0.0226817	8
	1	1	794390.6	1674.527	-2331.773	1	2870.75	-54.31655	9.118054E-007	0.0218841	8
	2	1	630984.4	1882.169	-2714.49	1	3303.182	-55.26339	-6.353698E-007	0.0216724	8
	3	2	501234.4	2155.177	-3167.225	1	3830.94	-55.76619	1.579708E-006	0.021116	8
	4	2	398109.4	2476.967	-3719.571	1	4468.845	-56.33924	-2.76762E-007	0.0215964	8
	5	2	316265.6	2869.166	-4329.988	1	5194.315	-56.47048	3.440455E-006	0.0208483	8
	6	3	251203.1	3422.82	-5104.871	1	6146.17	-56.15811	2.108685E-007	0.0212828	8
	7	3	199546.9	4065.802	-5959.096	1	7213.984	-55.69487	-3.377749E-007	0.0214457	8
	8	4	158578.1	4962.544	-6809.809	1	8426.17	-53.91788	-3.660927E-007	0.0214372	8
	9	4	125953.1	6142.425	-7748.986	1	9888.18	-51.59703	-2.494078E-007	0.0219066	7
	10	5	100078.1	7478.895	-8659.667	1	11442.19	-49.18457	-1.629633E-008	0.021429	7
	11	5	79453.13	9089.952	-9450.965	1	13112.89	-46.11547	-2.658601E-008	0.0213621	7
	12	5	63140.62	10876.18	-10081.84	1	14830.2	-42.82944	8.744563E-008	0.0212182	7
	13	5	50203.12	12751.73	-10432.47	1	16475.53	-39.28737	-2.092915E-008	0.0213447	7
	14	6	39890.62	14647.36	-10608.56	1	18085.54	-35.91446	-1.588112E-008	0.0214061	7
	15	6	31640.63	16497.73	-10560.81	1	19588.4	-32.62481	2.941631E-008	0.0212395	7
	16	6	25171.88	18183.82	-10415.02	1	20955.29	-29.80247	-1.236626E-008	0.0213671	7
	17	7	20015.62	19739.69	-10240.16	1	22237.72	-27.41848	3.248413E-010	0.0213572	7
	18	7	15890.62	21181.1	-10042.59	1	23441.25	-25.36703	2.931238E-008	0.0212348	7
	19	7	12609.37	22622.38	-9880.93	1	24686.12	-23.5946	-6.81696E-009	0.0213922	6
	20	8	10078.13	23890.04	-9846.06	1	25839.48	-22.39856	5.263013E-009	0.0211982	6
	21	8	8015.625	25189.82	-9921.79	1	27073.4	-21.49853	-1.463308E-009	0.0212701	6
	22	8	6328.125	26524.75	-10063.56	1	28369.66	-20.77688	4.649498E-009	0.0213261	6
	23	9	5015.625	27859.88	-10264.06	1	29690.47	-20.22466	-1.452061E-009	0.0213237	6
	24	9	3984.375	29206.59	-10559.05	1	31056.7	-19.87643	-1.812106E-009	0.0214065	6
	25	9	3170.956	30567.31	-10902.38	1	32453.39	-19.62969	2.775823E-009	0.0213442	6
	26	10	2527.573	31950.42	-11340.25	1	33903.26	-19.54144	-2.439217E-009	0.021374	6
	27	10	1976.103	33470.7	-11898.98	1	35522.86	-19.57052	-3.085079E-009	0.0213772	6
	28	10	1577.524	34885.38	-12565.12	1	37079.27	-19.80815	-7.752861E-009	0.021381	6
	29	11	1265.625	36351.52	-13304.63	1	38709.77	-20.10259	-1.89399E-009	0.0212963	6
	30	11	998.264	37972.31	-14301.29	1	40576.14	-20.63759	4.824365E-009	0.0213179	6
	31	11	796.875	39576.92	-15457.23	1	42488.33	-21.33371	-1.731938E-009	0.0212597	6
	32	12	627.7902	41403.35	-16917.99	1	44726.46	-22.22561	-2.866024E-009	0.0213729	6
	33	12	505.5147	43159.95	-18454.95	1	46940.03	-23.15128	7.044648E-010	0.0212642	6
	34	12	397.9953	45239.53	-20523.35	1	49677.19	-24.40188	7.836578E-011	0.0213308	6
	35	13	315.5048	47460.44	-22903.23	1	52697.73	-25.7608	2.203683E-010	0.0213231	6
	36	13	252.4038	49783.64	-25628.99	1	55993.36	-27.23975	4.732162E-010	0.021325	6
	37	13	198.6229	52598.94	-29109.14	1	60116.47	-28.96088	2.770982E-010	0.0213228	6
	38	13	158.3615	55563.99	-33000.96	1	64625.23	-30.70722	3.612963E-010	0.0213223	6
	39	14	125.558	59076.93	-37659.16	1	70059.23	-32.51587	2.464981E-010	0.0213238	6
	40	14	100.4464	63089.65	-42808.32	1	76242.09	-34.15813	-2.055169E-010	0.0213249	6
	41	14	79.00281	68154.73	-49389.07	1	84168.56	-35.92937	4.651706E-010	0.0213216	6
	42	15	63.3446	72728.17	-57119.62	1	92477.23	-38.14556	-1.471266E-010	0.0213183	6
	43	15	49.86702	79565.44	-65177.21	1	102852.9	-39.32313	-3.766295E-010	0.0213128	5
	44	16	39.72458	87780.66	-74006.47	1	114814.6	-40.1337	-8.043817E-010	0.0213193	5
	45	16	31.6723	96553	-83920.7	1	127926.4	-40.9961	-4.112231E-010	0.0213175	5
	46	16	24.93351	107281.4	-96268.8	1	144142.3	-41.90316	-8.879829E-010	0.0213148	5
	47	17	19.86229	119374.7	-109391.6	1	161916.1	-42.50128	-2.440151E-009	0.021314	5
	48	17	15.83615	133623.3	-122735.5	1	181436.5	-42.56806	1.091154E-009	0.0213109	5
	49	17	12.40079	151948.4	-138533.6	1	205620.7	-42.35589	5.388944E-010	0.0213138	5
	50	17	9.93114	169782.5	-155198.5	1	230027.5	-42.43048	5.081255E-010	0.0213101	5
	51	18	7.944915	190185.2	-172315.9	1	256638.2	-42.17792	-8.409619E-010	0.0213177	5
	52	18	6.317385	213865.5	-190323.3	1	286289.1	-41.66654	-7.818926E-010	0.021327	5
	53	19	5.008013	239513.2	-208883.7	1	317803.3	-41.09226	-1.876356E-010	0.0213207	5
	54	20	3.945707	267372.1	-229192.1	1	352160.3	-40.60327	-5.25929E-010	0.021309	5
	55	21	3.158693	296062	-251019.8	1	388154.1	-40.29335	-1.157787E-010	0.0213091	5
	56	23	2.504006	325896.2	-275897.7	1	426998.6	-40.25063	-1.757146E-010	0.0213131	5
	57	24	1.998082	356338.4	-303429.6	1	468024.1	-40.41509	-5.026759E-010	0.0212638	5
	58	26	1.584686	387644	-338682.4	1	514755.9	-41.14353	-4.38195E-010	0.0212903	5
	59	28	1.266892	420298.2	-377563.7	1	564982.3	-41.9341	-3.181183E-010	0.0213254	5
	60	30	0.999041	460195.8	-429294.6	1	629344.1	-43.01032	-2.88597E-010	0.0213448	5
