EXPLAIN
TAG	EISPOT
TITLE	LABEL	Potentiostatic EIS	Test &Identifier
DATE	LABEL	3/17/2020	Date
TIME	LABEL	16:44:33	Time
NOTES	NOTES	1	&Notes...
	
PSTAT	PSTAT	REF600-11020	Potentiostat
VDC	POTEN	0.00000E+000	T	DC &Voltage (V)
FREQINIT	QUANT	1.00000E+006	Initial Fre&q. (Hz)
FREQFINAL	QUANT	1.00000E+000	Final Fre&q. (Hz)
PTSPERDEC	QUANT	1.00000E+001	Points/&decade
VAC	QUANT	2.50000E+001	AC &Voltage (mV rms)
AREA	QUANT	4.00000E-004	&Area (cm^2)
CONDIT	TWOPARAM	F	5.00000E+000	0.00000E+000	Conditionin&g	Time(s)	E(V)
DELAY	TWOPARAM	T	3.00000E+000	0.00000E+000	Init. De&lay	Time(s)	Stab.(mV/s)
SPEED	SELECTOR	0	&Optimize for:
ZGUESS	QUANT	5.00000E+003	E&stimated Z (ohms)
OCVCURVE	TABLE	12
	Pt	T	Vf	Vm	Ach	Over
	#	s	V vs. Ref.	V	V	bits
	0	0.258333	5.38872E-002	5.38872E-002	5.73230E-004	...........
	1	0.516667	5.38874E-002	5.38976E-002	5.67663E-004	...........
	2	0.775	5.38886E-002	5.39084E-002	5.76463E-004	...........
	3	1.03333	5.38922E-002	5.39161E-002	5.73097E-004	...........
	4	1.29167	5.38984E-002	5.39261E-002	5.74797E-004	...........
	5	1.55	5.39066E-002	5.39351E-002	5.74897E-004	...........
	6	1.80833	5.39156E-002	5.39420E-002	5.76430E-004	...........
	7	2.06667	5.39247E-002	5.39503E-002	5.76397E-004	...........
	8	2.325	5.39334E-002	5.39596E-002	5.70197E-004	...........
	9	2.58333	5.39418E-002	5.39680E-002	5.70530E-004	...........
	10	2.84167	5.39502E-002	5.39751E-002	5.76530E-004	...........
	11	3.1	5.39586E-002	5.39843E-002	5.73563E-004	...........
EOC	QUANT	0.0539586	Open Circuit (V)
PSTATMODEL	IQUANT	4	Pstat Model
PSTATSECTION	LABEL	REF600-11020	Pstat Section
PSTATSERIALNO	LABEL	11020	Pstat Serial Number
CTRLMODE	IQUANT	1	Control Mode
IESTAB	IQUANT	0	I/E Stability
CASPEED	IQUANT	1	Control Amp Speed
CONVENTION	IQUANT	1	Current Convention
ICHRANGE	IQUANT	2	Ich Range
ICHRANGEMODE	TOGGLE	F	Ich Auto Range
ICHOFFSETENABLE	TOGGLE	T	Ich Offset Enable
ICHOFFSET	QUANT	0	Ich Offset (V)
ICHFILTER	IQUANT	3	Ich Filter
VCHRANGE	IQUANT	2	Vch Range
VCHRANGEMODE	TOGGLE	F	Vch Auto Range
VCHOFFSETENABLE	TOGGLE	T	Vch Offset Enable
VCHOFFSET	QUANT	0	Vch Offset (V)
VCHFILTER	IQUANT	3	Vch Filter
ACHRANGE	IQUANT	2	Ach Range
ACHOFFSETENABLE	TOGGLE	F	Ach Offset Enable
ACHOFFSET	QUANT	0	Ach Offset (V)
ACHFILTER	IQUANT	3	Ach Filter
IERANGELOWERLIMIT	IQUANT	1	I/E Range Lower Limit
IERANGEMODE	TOGGLE	F	I/E AutoRange
IERANGE	IQUANT	7	I/E Range
POSFEEDENABLE	TOGGLE	F	Positive Feedback IR Comp
POSFEEDRESISTANCE	QUANT	0	Positive Feedback Resistance (ohm)
ACHSELECT	IQUANT	0	Ach Select
CABLEID	IQUANT	14	Cable ID
DCCALDATE	LABEL	2/27/2020	DC Calibration Date
ACCALDATE	LABEL	2/27/2020	AC Calibration Date
THERMOSELECT	IQUANT	1	Thermo Select
FRAMEWORKVERSION	QUANT	6.33	Framework Version
INSTRUMENTVERSION	LABEL	3.50	Instrument Version
ZCURVE	TABLE
	Pt	Time	Freq	Zreal	Zimag	Zsig	Zmod	Zphz	Idc	Vdc	IERange
	#	s	Hz	ohm	ohm	V	ohm	°	A	V	#
	0	1	1000078	1986.318	-2068.144	1	2867.521	-46.15616	-1.790572E-008	0.0563764	8
	1	1	794390.6	2355.689	-2205.41	1	3226.934	-43.1129	4.124169E-008	0.0560304	8
	2	1	630984.4	2749.401	-2312.216	1	3592.429	-40.06347	3.045838E-008	0.0558849	8
	3	2	501234.4	3154.621	-2383.543	1	3953.848	-37.07367	8.828803E-008	0.0557548	8
	4	2	398109.4	3565.392	-2426.411	1	4312.712	-34.23706	2.461163E-008	0.0557048	8
	5	2	316265.6	3970.789	-2448.959	1	4665.251	-31.66395	4.508882E-008	0.0556952	8
	6	3	251203.1	4383.133	-2448.611	1	5020.712	-29.18965	3.095878E-008	0.055682	8
	7	3	199546.9	4785.401	-2425.36	1	5364.926	-26.87702	3.253552E-008	0.0556748	8
	8	3	158578.1	5182.454	-2394.664	1	5708.961	-24.80031	2.922047E-008	0.0556812	8
	9	4	125953.1	5643.922	-2244.434	1	6073.824	-21.68637	2.054632E-009	0.0556286	7
	10	4	100078.1	5994.1	-2167.338	1	6373.899	-19.87891	1.550634E-009	0.0556076	7
	11	4	79453.13	6352.751	-2078.882	1	6684.25	-18.12023	1.646584E-009	0.0555992	7
	12	5	63140.62	6683.094	-1962.641	1	6965.322	-16.36606	1.084642E-009	0.0555958	7
	13	5	50203.12	6984.394	-1829.158	1	7219.943	-14.67572	9.036908E-010	0.0555894	7
	14	5	39890.62	7249.886	-1687.139	1	7443.607	-13.10028	1.80521E-009	0.0555943	7
	15	6	31640.63	7476.904	-1543.756	1	7634.611	-11.66593	1.797861E-009	0.0555911	7
	16	6	25171.88	7664.398	-1410.596	1	7793.124	-10.42832	8.616641E-010	0.0555845	7
	17	6	20015.62	7827.472	-1297.379	1	7934.261	-9.411036	2.284491E-009	0.055588	7
	18	7	15890.62	7959.775	-1202.404	1	8050.08	-8.590158	1.875532E-009	0.055583	7
	19	7	12609.37	8072.316	-1133.577	1	8151.521	-7.993642	1.833487E-009	0.0555798	7
	20	7	10078.13	8165.966	-1093.347	1	8238.835	-7.626018	2.970824E-009	0.0555824	7
	21	8	8015.625	8247.745	-1081.688	1	8318.374	-7.471673	2.190714E-009	0.0555794	7
	22	8	6328.125	8323.887	-1103.422	1	8396.703	-7.551154	1.65456E-009	0.0555766	7
	23	8	5015.625	8397.186	-1163.147	1	8477.36	-7.886218	1.43062E-009	0.0555821	7
	24	8	3984.375	8468.014	-1260.722	1	8561.348	-8.468023	1.320608E-009	0.0555708	7
	25	9	3170.956	8539.25	-1401.312	1	8653.466	-9.319315	1.458592E-009	0.0555713	7
	26	9	2527.573	8613.015	-1592.863	1	8759.065	-10.47771	2.144628E-009	0.0555706	7
	27	9	1976.103	8703.441	-1842.089	1	8896.245	-11.95033	-1.762752E-010	0.055635	6
	28	10	1577.524	8792.434	-2170.448	1	9056.364	-13.86647	-3.497499E-010	0.0556309	6
	29	10	1265.625	8889.298	-2572.55	1	9254.061	-16.14037	-4.939871E-010	0.0556275	6
	30	10	998.264	9010.083	-3113.984	1	9533.02	-19.06571	-5.35318E-011	0.0556298	6
	31	11	796.875	9147.613	-3752.806	1	9887.49	-22.30588	-3.044238E-010	0.0556323	6
	32	11	627.7902	9331.626	-4592.214	1	10400.37	-26.2024	-2.665901E-010	0.0556343	6
	33	11	505.5147	9540.34	-5529.328	1	11026.86	-30.09543	-3.994454E-010	0.0556257	6
	34	12	397.9953	9832.06	-6797.34	1	11952.96	-34.65784	4.899703E-010	0.0556361	6
	35	12	315.5048	10200.21	-8313.234	1	13158.81	-39.18024	6.149548E-010	0.0556364	6
	36	12	252.4038	10657.46	-10087.66	1	14674.55	-43.42669	3.391289E-010	0.0556336	6
	37	13	198.6229	11298.98	-12407.81	1	16781.56	-47.67791	5.080991E-010	0.0556317	6
	38	13	158.3615	12100.17	-15070.84	1	19327.29	-51.23951	2.178057E-010	0.0556337	6
	39	13	125.558	13185.63	-18356.8	1	22601.62	-54.31044	5.495043E-010	0.055631	6
	40	14	100.4464	14556.6	-22130.62	1	26488.84	-56.66475	5.616274E-010	0.0556283	6
	41	14	79.00281	16510.56	-26964.69	1	31617.92	-58.52074	2.506185E-010	0.0556325	6
	42	14	63.3446	18878.57	-32201.99	1	37327.85	-59.61883	1.258575E-010	0.055632	6
	43	15	49.86702	22219.68	-38801.45	1	44713.16	-60.20235	4.794151E-010	0.0556323	6
	44	15	39.72458	26333.31	-46019.77	1	53021.34	-60.22106	1.611977E-010	0.0556366	6
	45	15	31.6723	31544.35	-54143.03	1	62661.9	-59.77443	-1.431685E-010	0.0556358	6
	46	16	24.93351	38447.46	-63620.35	1	74335.43	-58.85432	1.241831E-009	0.055631	6
	47	16	19.86229	46417.68	-73414.08	1	86857.52	-57.69597	2.123317E-009	0.0556398	6
	48	16	15.83615	55936.42	-84057.2	1	100967.8	-56.35796	-1.019659E-010	0.0556316	6
	49	16	12.40079	68026.02	-95774.4	1	117474.5	-54.61482	2.572022E-009	0.0556336	5
	50	17	9.93114	79854.34	-107177.8	1	133655.5	-53.31152	2.075359E-009	0.0556408	5
	51	17	7.944915	93443.35	-119468.2	1	151671.8	-51.96888	-9.304249E-010	0.055637	5
	52	18	6.317385	107954.6	-133094.1	1	171371.6	-50.95397	3.15527E-010	0.0556299	5
	53	18	5.008013	123469.7	-148468.7	1	193100.3	-50.25238	8.15329E-010	0.0556427	5
	54	19	3.945707	140614.2	-166373.7	1	217836	-49.79648	1.541504E-010	0.0556295	5
	55	20	3.158693	157122.5	-186345.8	1	243746.3	-49.86319	4.409509E-010	0.055647	5
	56	21	2.504006	175958	-210653.9	1	274474.6	-50.12819	-7.002819E-011	0.0556417	5
	57	22	1.998082	195501.8	-239453.7	1	309126.3	-50.7701	-1.660256E-010	0.0556111	5
	58	24	1.584686	218245.6	-273735.5	1	350089	-51.43512	8.57481E-011	0.0556665	5
	59	26	1.266892	243815.3	-314406.9	1	397866.3	-52.20725	1.506405E-010	0.0556676	5
	60	28	0.999041	274283.3	-365787.5	1	457200	-53.13585	1.752105E-010	0.05566	5
