EXPLAIN
TAG	EISPOT
TITLE	LABEL	Potentiostatic EIS	Test &Identifier
DATE	LABEL	2/21/2020	Date
TIME	LABEL	18:19:01	Time
NOTES	NOTES	1	&Notes...
	
PSTAT	PSTAT	REF600-11020	Potentiostat
VDC	POTEN	0.00000E+000	T	DC &Voltage (V)
FREQINIT	QUANT	1.00000E+006	Initial Fre&q. (Hz)
FREQFINAL	QUANT	1.00000E+000	Final Fre&q. (Hz)
PTSPERDEC	QUANT	1.00000E+001	Points/&decade
VAC	QUANT	2.50000E+001	AC &Voltage (mV rms)
AREA	QUANT	2.08200E-005	&Area (cm^2)
CONDIT	TWOPARAM	F	1.50000E+001	0.00000E+000	Conditionin&g	Time(s)	E(V)
DELAY	TWOPARAM	F	1.00000E+002	0.00000E+000	Init. De&lay	Time(s)	Stab.(mV/s)
SPEED	SELECTOR	0	&Optimize for:
ZGUESS	QUANT	2.00000E+003	E&stimated Z (ohms)
OCVCURVE	TABLE	39
	Pt	T	Vf	Vm	Ach	Over
	#	s	V vs. Ref.	V	V	bits
	0	0.258333	-4.13620E-002	-4.13620E-002	5.76138E-004	...........
	1	0.516667	-4.13669E-002	-4.16174E-002	5.76371E-004	...........
	2	0.775	-4.13594E-002	-3.98988E-002	5.76304E-004	...........
	3	1.03333	-4.13132E-002	-4.34572E-002	5.78637E-004	...........
	4	1.29167	-4.12449E-002	-3.75210E-002	5.80404E-004	...........
	5	1.55	-4.11242E-002	-4.29766E-002	5.76871E-004	...........
	6	1.80833	-4.08958E-002	-3.79168E-002	5.74838E-004	...........
	7	2.06667	-4.06420E-002	-4.30341E-002	5.80671E-004	...........
	8	2.325	-4.05211E-002	-3.97782E-002	5.74071E-004	...........
	9	2.58333	-4.06318E-002	-4.35228E-002	5.78337E-004	...........
	10	2.84167	-4.09543E-002	-4.06018E-002	5.80537E-004	...........
	11	3.1	-4.13877E-002	-4.48939E-002	5.82371E-004	...........
	12	3.35833	-4.18548E-002	-4.07918E-002	5.76804E-004	...........
	13	3.61667	-4.23419E-002	-4.76860E-002	5.86737E-004	...........
	14	3.875	-4.29128E-002	-4.22762E-002	5.82304E-004	...........
	15	4.13333	-4.36340E-002	-4.96077E-002	5.82937E-004	...........
	16	4.39167	-4.44505E-002	-4.25312E-002	5.78104E-004	...........
	17	4.65	-4.51869E-002	-4.91064E-002	5.78171E-004	...........
	18	4.90833	-4.56838E-002	-4.32828E-002	5.76238E-004	...........
	19	5.16667	-4.59653E-002	-5.02611E-002	5.77837E-004	...........
	20	5.425	-4.61778E-002	-4.27186E-002	5.75571E-004	...........
	21	5.68333	-4.63455E-002	-4.91143E-002	5.81504E-004	...........
	22	5.94167	-4.63714E-002	-4.28164E-002	5.78604E-004	...........
	23	6.2	-4.61987E-002	-4.62608E-002	5.79604E-004	...........
	24	6.45833	-4.58172E-002	-4.26119E-002	5.78271E-004	...........
	25	6.71667	-4.52343E-002	-4.26852E-002	5.78171E-004	...........
	26	6.975	-4.44885E-002	-4.27351E-002	5.73937E-004	...........
	27	7.23333	-4.36693E-002	-4.03261E-002	5.74704E-004	...........
	28	7.49167	-4.28860E-002	-4.26112E-002	5.75771E-004	...........
	29	7.75	-4.21576E-002	-3.66446E-002	5.73638E-004	...........
	30	8.00833	-4.14142E-002	-4.28995E-002	5.75071E-004	...........
	31	8.26667	-4.06723E-002	-3.59202E-002	5.78504E-004	...........
	32	8.525	-4.00603E-002	-4.26038E-002	5.77904E-004	...........
	33	8.78333	-3.96504E-002	-3.61082E-002	5.81071E-004	...........
	34	9.04167	-3.94233E-002	-4.24558E-002	5.76671E-004	...........
	35	9.3	-3.93499E-002	-3.74197E-002	5.72738E-004	...........
	36	9.5583	-3.93998E-002	-4.13026E-002	5.73138E-004	...........
	37	9.8167	-3.94763E-002	-3.71050E-002	5.75171E-004	...........
	38	10.075	-3.94834E-002	-4.21176E-002	5.73937E-004	...........
EOC	QUANT	-0.0394834	Open Circuit (V)
PSTATMODEL	IQUANT	4	Pstat Model
PSTATSECTION	LABEL	REF600-11020	Pstat Section
PSTATSERIALNO	LABEL	11020	Pstat Serial Number
CTRLMODE	IQUANT	1	Control Mode
IESTAB	IQUANT	0	I/E Stability
CASPEED	IQUANT	1	Control Amp Speed
CONVENTION	IQUANT	1	Current Convention
ICHRANGE	IQUANT	2	Ich Range
ICHRANGEMODE	TOGGLE	F	Ich Auto Range
ICHOFFSETENABLE	TOGGLE	T	Ich Offset Enable
ICHOFFSET	QUANT	0	Ich Offset (V)
ICHFILTER	IQUANT	3	Ich Filter
VCHRANGE	IQUANT	2	Vch Range
VCHRANGEMODE	TOGGLE	F	Vch Auto Range
VCHOFFSETENABLE	TOGGLE	T	Vch Offset Enable
VCHOFFSET	QUANT	0	Vch Offset (V)
VCHFILTER	IQUANT	3	Vch Filter
ACHRANGE	IQUANT	2	Ach Range
ACHOFFSETENABLE	TOGGLE	F	Ach Offset Enable
ACHOFFSET	QUANT	0	Ach Offset (V)
ACHFILTER	IQUANT	3	Ach Filter
IERANGELOWERLIMIT	IQUANT	1	I/E Range Lower Limit
IERANGEMODE	TOGGLE	F	I/E AutoRange
IERANGE	IQUANT	7	I/E Range
POSFEEDENABLE	TOGGLE	F	Positive Feedback IR Comp
POSFEEDRESISTANCE	QUANT	0	Positive Feedback Resistance (ohm)
ACHSELECT	IQUANT	0	Ach Select
CABLEID	IQUANT	14	Cable ID
DCCALDATE	LABEL	1/27/2020	DC Calibration Date
ACCALDATE	LABEL	1/27/2020	AC Calibration Date
THERMOSELECT	IQUANT	1	Thermo Select
FRAMEWORKVERSION	QUANT	6.33	Framework Version
INSTRUMENTVERSION	LABEL	3.50	Instrument Version
ZCURVE	TABLE
	Pt	Time	Freq	Zreal	Zimag	Zsig	Zmod	Zphz	Idc	Vdc	IERange
	#	s	Hz	ohm	ohm	V	ohm	°	A	V	#
	0	1	1000078	500.9802	-5434.91	1	5457.951	-84.73346	5.841761E-007	-0.0371536	8
	1	1	794390.6	587.4702	-6781.059	1	6806.459	-85.0486	1.434997E-006	-0.0376899	8
	2	1	630984.4	670.0504	-8432.903	1	8459.481	-85.45702	2.535809E-007	-0.0377972	8
	3	2	501234.4	744.6144	-10561.83	1	10588.05	-85.96729	4.266742E-007	-0.0378526	8
	4	2	398109.4	910.4365	-13140.43	1	13171.94	-86.03659	4.615793E-007	-0.0379476	8
	5	2	316265.6	1113.681	-16353	1	16390.88	-86.10403	8.792917E-007	-0.0380463	8
	6	3	251203.1	1243.703	-20460.94	1	20498.7	-86.5216	-1.031796E-006	-0.0376901	8
	7	3	199546.9	1578.542	-25969.17	1	26017.11	-86.52155	1.821598E-007	-0.037941	8
	8	3	158578.1	2063.826	-31949.23	1	32015.82	-86.30399	2.124112E-007	-0.0379682	8
	9	4	125953.1	2184.511	-40359.54	1	40418.62	-86.90182	-2.705243E-007	-0.0373089	7
	10	4	100078.1	2605.664	-49933.8	1	50001.73	-87.01288	1.89289E-008	-0.0379352	7
	11	4	79453.13	3620.023	-62804.51	1	62908.75	-86.70115	-1.747872E-008	-0.0379105	7
	12	5	63140.62	4078.829	-78492.24	1	78598.15	-87.02531	4.230693E-008	-0.0379983	7
	13	5	50203.12	5500.241	-97777.9	1	97932.4	-86.78036	-1.400709E-008	-0.037944	7
	14	6	39890.62	7676.577	-122577	1	122817.1	-86.41644	-1.992263E-008	-0.0379482	7
	15	6	31640.63	7317.953	-154078.6	1	154252.3	-87.28078	-2.294949E-008	-0.0379351	7
	16	6	25171.88	8581.646	-188794.4	1	188989.4	-87.39742	2.892051E-008	-0.0380369	7
	17	6	20015.62	11447.54	-242147.4	1	242417.9	-87.29335	2.964991E-009	-0.0379846	7
	18	7	15890.62	7530.343	-300317	1	300411.4	-88.56363	2.281444E-009	-0.0380036	7
	19	7	12609.37	20928.47	-372045.6	1	372633.8	-86.78036	2.658954E-010	-0.0380119	6
	20	7	10078.13	22968.99	-463847.3	1	464415.6	-87.16512	-2.20807E-010	-0.0379257	6
	21	8	8015.625	34814.16	-578831.4	1	579877.4	-86.55806	9.678597E-010	-0.0379281	6
	22	8	6328.125	70001.22	-705789.9	1	709252.8	-84.33585	-3.52579E-009	-0.0379231	6
	23	8	5015.625	74914.44	-878603.2	1	881791.2	-85.12644	7.543167E-010	-0.0379325	6
	24	9	3984.375	62404.07	-1130279	1	1132001	-86.83984	5.599013E-010	-0.0380252	6
	25	9	3170.956	136926.3	-1425178	1	1431741	-84.51206	-8.955651E-010	-0.0379898	6
	26	10	2527.573	135518.9	-1782795	1	1787938	-85.65303	-1.640629E-009	-0.0380309	6
	27	10	1976.103	4412.338	-2060942	1	2060947	-89.87733	-3.022758E-009	-0.0379106	6
	28	10	1577.524	-79676.34	-2966153	1	2967223	-91.5387	9.771263E-010	-0.0380306	6
	29	11	1265.625	409566.1	-3439625	1	3463923	-83.20959	-4.974988E-011	-0.0380261	5
	30	11	998.264	581636.7	-4143468	1	4184092	-82.00935	1.266218E-009	-0.0381024	5
	31	12	796.875	723657.3	-5375700	1	5424190	-82.33314	9.41584E-010	-0.0381135	5
	32	12	627.7902	1112249	-6511020	1	6605337	-80.30598	2.015044E-010	-0.0379812	5
	33	12	505.5147	1554541	-7677302	1	7833107	-78.55321	-4.212621E-010	-0.0379109	5
	34	13	397.9953	1725769	-1.007843E+007	1	1.022512E+007	-80.28326	2.918855E-010	-0.0379729	5
	35	13	315.5048	2461112	-1.146164E+007	1	1.17229E+007	-77.88113	2.258396E-010	-0.0379736	5
	36	13	252.4038	2596703	-1.516248E+007	1	1.538322E+007	-80.28188	-3.837554E-010	-0.037979	5
	37	14	198.6229	3298700	-1.555337E+007	1	1.589933E+007	-78.02563	1.423014E-010	-0.0379776	5
	38	14	158.3615	6723243	-1.907615E+007	1	2.022625E+007	-70.58538	-1.176866E-010	-0.0379792	5
	39	15	125.558	1.033988E+007	-2.709347E+007	1	2.899947E+007	-69.11127	-9.870518E-011	-0.0380338	4
	40	15	100.4464	1.375555E+007	-1.221064E+007	1	1.839334E+007	-41.59508	1.850807E-010	-0.0380411	4
	41	16	79.00281	-4146533	-1.551689E+007	1	1.606137E+007	-104.9614	-2.123988E-010	-0.0380379	4
	42	16	63.3446	-8344818	1611361	1	8498968	169.0709	2.590443E-010	-0.0380389	4
	43	17	49.86702	2.021237E+007	-2.524071E+007	1	3.233625E+007	-51.3128	2.104682E-011	-0.0379856	5
	44	18	39.72458	1.52038E+008	4.532618E+007	1	1.586507E+008	16.60058	-6.585408E-011	-0.0380305	4
	45	18	31.6723	-2.195161E+007	-3.188659E+007	1	3.871212E+007	-124.5446	-2.589363E-010	-0.0380347	4
	46	19	24.93351	8.106302E+007	-1.18293E+008	1	1.434031E+008	-55.57821	-4.534547E-011	-0.038041	4
	47	19	19.86229	-6.137372E+007	-1.971852E+008	1	2.065157E+008	-107.2887	1.770459E-010	-0.0380353	4
	48	20	15.83615	1.248855E+007	-1.497344E+007	1	1.949789E+007	-50.1703	6.994643E-010	-0.0380449	4
	49	20	12.40079	1.109098E+007	4.498108E+007	1	4.632826E+007	76.14887	-3.905385E-010	-0.0380362	4
	50	21	9.93114	9.599858E+007	-3.197112E+007	1	1.011824E+008	-18.41969	1.777214E-011	-0.0380428	4
	51	22	7.944915	1.284776E+008	-9.942621E+007	1	1.624563E+008	-37.73557	6.987769E-011	-0.0380399	4
	52	23	6.317385	1.173116E+008	-2.585839E+007	1	1.201277E+008	-12.43063	8.845782E-012	-0.038051	4
	53	24	5.008013	1.170413E+008	-3.521451E+007	1	1.22224E+008	-16.7451	2.155644E-011	-0.0380365	4
	54	26	3.945707	1.210998E+008	-8.072003E+007	1	1.455366E+008	-33.68575	7.091785E-011	-0.0380389	4
	55	28	3.158693	1.25884E+008	-2.261243E+007	1	1.278988E+008	-10.18339	1.44528E-011	-0.038034	4
	56	31	2.504006	2.303802E+008	-3.981421E+007	1	2.337952E+008	-9.80499	1.47013E-010	-0.0379867	3
	57	33	1.998082	2.277131E+008	-1.173639E+007	1	2.280154E+008	-2.950427	1.470792E-010	-0.0380052	3
	58	35	1.584686	2.354157E+008	-2.612947E+007	1	2.368614E+008	-6.3335	1.483288E-010	-0.037959	3
	59	38	1.266892	5.122378E+008	-7.472846E+007	1	5.1766E+008	-8.300115	9.805399E-013	-0.0379589	2
	60	41	0.999041	5.144877E+008	-5.808377E+007	1	5.17756E+008	-6.44121	-1.232627E-012	-0.0379713	2
