EXPLAIN
TAG	EISPOT
TITLE	LABEL	Potentiostatic EIS	Test &Identifier
DATE	LABEL	1/7/2020	Date
TIME	LABEL	17:22:38	Time
NOTES	NOTES	5	&Notes...
	
	
	
	
	
PSTAT	PSTAT	REF600-11020	Potentiostat
VDC	POTEN	0.00000E+000	T	DC &Voltage (V)
FREQINIT	QUANT	1.00000E+006	Initial Fre&q. (Hz)
FREQFINAL	QUANT	1.00000E+000	Final Fre&q. (Hz)
PTSPERDEC	QUANT	1.00000E+001	Points/&decade
VAC	QUANT	2.50000E+001	AC &Voltage (mV rms)
AREA	QUANT	1.00000E-001	&Area (cm^2)
CONDIT	TWOPARAM	T	5.00000E+000	0.00000E+000	Conditionin&g	Time(s)	E(V)
DELAY	TWOPARAM	T	5.00000E+000	0.00000E+000	Init. De&lay	Time(s)	Stab.(mV/s)
SPEED	SELECTOR	0	&Optimize for:
ZGUESS	QUANT	1.00000E+003	E&stimated Z (ohms)
OCVCURVE	TABLE	19
	Pt	T	Vf	Vm	Ach	Over
	#	s	V vs. Ref.	V	V	bits
	0	0.258333	4.85296E-003	4.85296E-003	6.44680E-004	...........
	1	0.516667	4.84882E-003	4.63629E-003	6.40880E-004	...........
	2	0.775	4.82356E-003	4.43903E-003	6.42780E-004	...........
	3	1.03333	4.75319E-003	4.28010E-003	6.39846E-004	...........
	4	1.29167	4.62977E-003	4.07243E-003	6.38646E-004	...........
	5	1.55	4.46882E-003	3.96441E-003	6.37713E-004	...........
	6	1.80833	4.29447E-003	3.79768E-003	6.40180E-004	...........
	7	2.06667	4.12655E-003	3.75493E-003	6.44080E-004	...........
	8	2.325	3.97826E-003	3.67382E-003	6.44580E-004	...........
	9	2.58333	3.85616E-003	3.58369E-003	6.42480E-004	...........
	10	2.84167	3.75743E-003	3.50806E-003	6.44746E-004	...........
	11	3.1	3.67262E-003	3.44760E-003	6.39913E-004	...........
	12	3.35833	3.59396E-003	3.34744E-003	6.42546E-004	...........
	13	3.61667	3.51721E-003	3.27043E-003	6.46080E-004	...........
	14	3.875	3.43939E-003	3.19655E-003	6.43280E-004	...........
	15	4.13333	3.35928E-003	3.08734E-003	6.42546E-004	...........
	16	4.39167	3.27574E-003	2.96242E-003	6.43380E-004	...........
	17	4.65	3.18945E-003	3.08197E-003	6.40546E-004	...........
	18	4.90833	3.11240E-003	3.01331E-003	6.42380E-004	...........
EOC	QUANT	0.0031124	Open Circuit (V)
PSTATMODEL	IQUANT	4	Pstat Model
PSTATSECTION	LABEL	REF600-11020	Pstat Section
PSTATSERIALNO	LABEL	11020	Pstat Serial Number
CTRLMODE	IQUANT	1	Control Mode
IESTAB	IQUANT	0	I/E Stability
CASPEED	IQUANT	1	Control Amp Speed
CONVENTION	IQUANT	1	Current Convention
ICHRANGE	IQUANT	2	Ich Range
ICHRANGEMODE	TOGGLE	F	Ich Auto Range
ICHOFFSETENABLE	TOGGLE	T	Ich Offset Enable
ICHOFFSET	QUANT	0	Ich Offset (V)
ICHFILTER	IQUANT	3	Ich Filter
VCHRANGE	IQUANT	2	Vch Range
VCHRANGEMODE	TOGGLE	F	Vch Auto Range
VCHOFFSETENABLE	TOGGLE	T	Vch Offset Enable
VCHOFFSET	QUANT	0	Vch Offset (V)
VCHFILTER	IQUANT	3	Vch Filter
ACHRANGE	IQUANT	2	Ach Range
ACHOFFSETENABLE	TOGGLE	F	Ach Offset Enable
ACHOFFSET	QUANT	0	Ach Offset (V)
ACHFILTER	IQUANT	3	Ach Filter
IERANGELOWERLIMIT	IQUANT	1	I/E Range Lower Limit
IERANGEMODE	TOGGLE	F	I/E AutoRange
IERANGE	IQUANT	6	I/E Range
POSFEEDENABLE	TOGGLE	F	Positive Feedback IR Comp
POSFEEDRESISTANCE	QUANT	0	Positive Feedback Resistance (ohm)
ACHSELECT	IQUANT	0	Ach Select
CABLEID	IQUANT	14	Cable ID
DCCALDATE	LABEL	12/22/2019	DC Calibration Date
ACCALDATE	LABEL	12/22/2019	AC Calibration Date
THERMOSELECT	IQUANT	1	Thermo Select
FRAMEWORKVERSION	QUANT	6.33	Framework Version
INSTRUMENTVERSION	LABEL	3.50	Instrument Version
ZCURVE	TABLE
	Pt	Time	Freq	Zreal	Zimag	Zsig	Zmod	Zphz	Idc	Vdc	IERange
	#	s	Hz	ohm	ohm	V	ohm	°	A	V	#
	0	1	1000078	2251.708	-2172.081	1	3128.598	-43.9688	-1.183003E-005	0.0066012	8
	1	1	794390.6	2713.499	-2331.041	1	3577.266	-40.66434	1.959682E-006	0.005179	8
	2	2	630984.4	3172.655	-2359.539	1	3953.88	-36.63859	8.466753E-007	0.004201	8
	3	2	501234.4	3643.222	-2293.114	1	4304.816	-32.1871	-6.50499E-006	0.0059457	8
	4	2	398109.4	4057.479	-2203.713	1	4617.303	-28.50743	1.7126E-006	0.0041425	8
	5	3	316265.6	4471.605	-2058.888	1	4922.832	-24.72304	2.408153E-006	0.0039989	8
	6	3	251203.1	4852.021	-1830.501	1	5185.831	-20.66977	-7.757213E-007	0.0051777	8
	7	3	199546.9	5080.215	-1664.842	1	5346.053	-18.14453	-1.698646E-006	0.0048432	8
	8	4	158578.1	5306.565	-1403.261	1	5488.968	-14.81217	-1.171082E-006	0.0045195	8
	9	4	125953.1	5525.127	-1182.921	1	5650.339	-12.0845	7.645559E-007	0.0024034	7
	10	4	100078.1	5646.59	-1031.629	1	5740.056	-10.35372	-4.626327E-008	0.0047728	7
	11	5	79453.13	5749.542	-916.6171	1	5822.149	-9.058116	8.962867E-008	0.0042968	7
	12	5	63140.62	5830.967	-821.6348	1	5888.57	-8.020677	5.196888E-008	0.0045388	7
	13	5	50203.12	5903.843	-749.4034	1	5951.215	-7.234144	-1.023569E-007	0.0047049	7
	14	6	39890.62	5964.763	-695.9966	1	6005.232	-6.655445	-5.433118E-008	0.0045821	7
	15	6	31640.63	6018.964	-661.9138	1	6055.251	-6.275678	-4.594522E-008	0.0047604	7
	16	6	25171.88	6071.581	-648.6661	1	6106.133	-6.098146	-1.104348E-007	0.0047796	7
	17	6	20015.62	6125.772	-644.9306	1	6159.628	-6.010046	-9.393723E-008	0.0046451	7
	18	7	15890.62	6165.543	-673.0744	1	6202.173	-6.230143	8.870266E-008	0.0042889	7
	19	7	12609.37	6215.582	-711.9916	1	6256.228	-6.534718	-1.105348E-007	0.004777	7
	20	7	10078.13	6255.588	-774.5815	1	6303.361	-7.058569	5.349023E-008	0.0045266	7
	21	8	8015.625	6307.004	-873.3013	1	6367.178	-7.883351	-1.108761E-007	0.0047694	7
	22	8	6328.125	6361.556	-984.732	1	6437.32	-8.799213	5.435049E-008	0.0045197	7
	23	8	5015.625	6422.032	-1140.873	1	6522.583	-10.07349	-5.000358E-008	0.004692	7
	24	9	3984.375	6489.206	-1322.03	1	6622.503	-11.51514	1.522762E-007	0.0042893	7
	25	9	3170.956	6551.726	-1578.154	1	6739.116	-13.54318	5.357975E-008	0.0045245	7
	26	9	2527.573	6639.299	-1879.744	1	6900.27	-15.80809	-1.025284E-007	0.0046849	7
	27	10	1976.103	6743.462	-2284.459	1	7119.904	-18.71466	-8.250583E-008	0.0046049	7
	28	10	1577.524	6836.498	-2709.157	1	7353.723	-21.61736	-6.874146E-008	0.0045989	7
	29	10	1265.625	6995.652	-3277.29	1	7725.269	-25.10193	-9.210851E-008	0.0046206	7
	30	11	998.264	7168.247	-3990.113	1	8203.948	-29.10194	-1.065496E-008	0.0046142	7
	31	11	796.875	7366.876	-4815.473	1	8801.116	-33.17126	-9.31057E-008	0.0046273	7
	32	11	627.7902	7617.821	-5876.085	1	9620.79	-37.64517	8.773496E-010	0.0044259	7
	33	12	505.5147	7891.295	-7052.443	1	10583.45	-41.78713	-2.522663E-009	0.0043467	6
	34	12	397.9953	8239.186	-8635.107	1	11935.21	-46.34409	1.061456E-009	0.0045627	6
	35	12	315.5048	8640.468	-10526.78	1	13618.77	-50.62057	9.187169E-010	0.0045627	6
	36	12	252.4038	9096.625	-12754.08	1	15665.73	-54.5023	3.755282E-010	0.0045598	6
	37	13	198.6229	9681.96	-15698.87	1	18444.37	-58.33662	6.124699E-010	0.0045582	6
	38	13	158.3615	10363.7	-19138.75	1	21764.6	-61.56429	3.249634E-010	0.0045565	6
	39	13	125.558	11217.33	-23479.05	1	26021.04	-64.46343	5.660881E-010	0.0045596	6
	40	14	100.4464	12296.11	-28598.15	1	31129.55	-66.73415	1.060991E-009	0.004561	6
	41	14	79.00281	13785.06	-35463.54	1	38048.53	-68.75835	8.659602E-010	0.0045594	6
	42	14	63.3446	15123.38	-42911.2	1	45498.21	-70.5858	3.653782E-010	0.0045616	6
	43	15	49.86702	17842.25	-53005.52	1	55927.91	-71.39619	2.892089E-010	0.0045583	6
	44	15	39.72458	21216.51	-64982.04	1	68357.93	-71.91824	9.801162E-010	0.0045606	6
	45	16	31.6723	25360.08	-79271.3	1	83229.05	-72.25974	3.963668E-010	0.0045571	6
	46	16	24.93351	31732.02	-97224.3	1	102271.6	-71.92437	2.971163E-010	0.0045519	6
	47	16	19.86229	39498.46	-117462	1	123925.2	-71.41397	-2.937398E-010	0.0045535	5
	48	16	15.83615	49279.44	-142829.8	1	151092.1	-70.96443	9.533747E-010	0.0045538	5
	49	17	12.40079	65906.68	-171691	1	183906.2	-68.99979	-3.915048E-010	0.0045558	5
	50	17	9.93114	82206.2	-203767.9	1	219725.3	-68.02934	4.76933E-010	0.0045505	5
	51	18	7.944915	103877.8	-239168.3	1	260752.9	-66.52328	1.06789E-011	0.0045579	5
	52	18	6.317385	131822.8	-279243.9	1	308795.1	-64.72939	9.24148E-011	0.0045588	5
	53	19	5.008013	166362	-324327.9	1	364506.4	-62.84472	2.5252E-010	0.004563	5
	54	20	3.945707	207623.7	-375765.9	1	429310.7	-61.07783	-5.626047E-011	0.004547	5
	55	22	3.158693	252324.4	-426734.1	1	495751.5	-59.40451	2.259749E-010	0.0045398	5
	56	23	2.504006	304847.6	-486000.5	1	573697.3	-57.90169	3.142889E-010	0.0045483	5
	57	24	1.998082	361899.6	-548018.7	1	656731.1	-56.5601	8.185506E-011	0.004507	5
	58	26	1.584686	424924.3	-621338.3	1	752742.9	-55.63234	8.256831E-011	0.0045142	5
	59	28	1.266892	492962.1	-699009.2	1	855351.1	-54.80737	1.41054E-010	0.0045476	5
	60	30	0.999041	574607.3	-793954.4	1	980070	-54.10567	1.795346E-010	0.0045706	5
