EXPLAIN
TAG	EISPOT
TITLE	LABEL	Potentiostatic EIS	Test &Identifier
DATE	LABEL	2/18/2020	Date
TIME	LABEL	16:57:59	Time
NOTES	NOTES	1	&Notes...
	
PSTAT	PSTAT	REF600-11020	Potentiostat
VDC	POTEN	0.00000E+000	T	DC &Voltage (V)
FREQINIT	QUANT	1.00000E+006	Initial Fre&q. (Hz)
FREQFINAL	QUANT	1.00000E+000	Final Fre&q. (Hz)
PTSPERDEC	QUANT	1.00000E+001	Points/&decade
VAC	QUANT	2.50000E+001	AC &Voltage (mV rms)
AREA	QUANT	1.60000E-004	&Area (cm^2)
CONDIT	TWOPARAM	F	1.50000E+001	0.00000E+000	Conditionin&g	Time(s)	E(V)
DELAY	TWOPARAM	F	1.00000E+002	0.00000E+000	Init. De&lay	Time(s)	Stab.(mV/s)
SPEED	SELECTOR	1	&Optimize for:
ZGUESS	QUANT	1.00000E+003	E&stimated Z (ohms)
OCVCURVE	TABLE	39
	Pt	T	Vf	Vm	Ach	Over
	#	s	V vs. Ref.	V	V	bits
	0	0.258333	2.32718E-002	2.32718E-002	5.63504E-004	...........
	1	0.516667	2.32721E-002	2.32879E-002	5.60471E-004	...........
	2	0.775	2.32732E-002	2.32629E-002	5.60838E-004	...........
	3	1.03333	2.32739E-002	2.32420E-002	5.62404E-004	...........
	4	1.29167	2.32705E-002	2.32243E-002	5.63571E-004	...........
	5	1.55	2.32604E-002	2.32084E-002	5.66371E-004	...........
	6	1.80833	2.32452E-002	2.31893E-002	5.61571E-004	...........
	7	2.06667	2.32276E-002	2.31752E-002	5.61904E-004	...........
	8	2.325	2.32097E-002	2.31586E-002	5.68671E-004	...........
	9	2.58333	2.31926E-002	2.31485E-002	5.66538E-004	...........
	10	2.84167	2.31765E-002	2.31255E-002	5.66038E-004	...........
	11	3.1	2.31610E-002	2.31102E-002	5.62304E-004	...........
	12	3.35833	2.31454E-002	2.31053E-002	5.61104E-004	...........
	13	3.61667	2.31300E-002	2.30885E-002	5.65771E-004	...........
	14	3.875	2.31158E-002	2.30767E-002	5.59071E-004	...........
	15	4.13333	2.31028E-002	2.30651E-002	5.61338E-004	...........
	16	4.39167	2.30901E-002	2.30442E-002	5.66471E-004	...........
	17	4.65	2.30772E-002	2.30446E-002	5.70138E-004	...........
	18	4.90833	2.30644E-002	2.30310E-002	5.66104E-004	...........
	19	5.16667	2.30524E-002	2.30154E-002	5.63638E-004	...........
	20	5.425	2.30412E-002	2.30049E-002	5.66004E-004	...........
	21	5.68333	2.30298E-002	2.29921E-002	5.68404E-004	...........
	22	5.94167	2.30179E-002	2.29813E-002	5.65171E-004	...........
	23	6.2	2.30057E-002	2.29694E-002	5.63604E-004	...........
	24	6.45833	2.29937E-002	2.29574E-002	5.67204E-004	...........
	25	6.71667	2.29819E-002	2.29465E-002	5.63438E-004	...........
	26	6.975	2.29703E-002	2.29343E-002	5.61104E-004	...........
	27	7.23333	2.29587E-002	2.29262E-002	5.66538E-004	...........
	28	7.49167	2.29474E-002	2.29127E-002	5.61871E-004	...........
	29	7.75	2.29363E-002	2.29024E-002	5.64038E-004	...........
	30	8.00833	2.29254E-002	2.28944E-002	5.67104E-004	...........
	31	8.26667	2.29147E-002	2.28836E-002	5.61204E-004	...........
	32	8.525	2.29043E-002	2.28732E-002	5.60638E-004	...........
	33	8.78333	2.28943E-002	2.28661E-002	5.62271E-004	...........
	34	9.04167	2.28846E-002	2.28557E-002	5.62371E-004	...........
	35	9.3	2.28751E-002	2.28458E-002	5.64238E-004	...........
	36	9.5583	2.28657E-002	2.28340E-002	5.58271E-004	...........
	37	9.8167	2.28561E-002	2.28251E-002	5.62504E-004	...........
	38	10.075	2.28460E-002	2.28133E-002	5.61071E-004	...........
EOC	QUANT	0.022846	Open Circuit (V)
PSTATMODEL	IQUANT	4	Pstat Model
PSTATSECTION	LABEL	REF600-11020	Pstat Section
PSTATSERIALNO	LABEL	11020	Pstat Serial Number
CTRLMODE	IQUANT	1	Control Mode
IESTAB	IQUANT	0	I/E Stability
CASPEED	IQUANT	1	Control Amp Speed
CONVENTION	IQUANT	1	Current Convention
ICHRANGE	IQUANT	2	Ich Range
ICHRANGEMODE	TOGGLE	F	Ich Auto Range
ICHOFFSETENABLE	TOGGLE	T	Ich Offset Enable
ICHOFFSET	QUANT	0	Ich Offset (V)
ICHFILTER	IQUANT	3	Ich Filter
VCHRANGE	IQUANT	2	Vch Range
VCHRANGEMODE	TOGGLE	F	Vch Auto Range
VCHOFFSETENABLE	TOGGLE	T	Vch Offset Enable
VCHOFFSET	QUANT	0	Vch Offset (V)
VCHFILTER	IQUANT	3	Vch Filter
ACHRANGE	IQUANT	2	Ach Range
ACHOFFSETENABLE	TOGGLE	F	Ach Offset Enable
ACHOFFSET	QUANT	0	Ach Offset (V)
ACHFILTER	IQUANT	3	Ach Filter
IERANGELOWERLIMIT	IQUANT	1	I/E Range Lower Limit
IERANGEMODE	TOGGLE	F	I/E AutoRange
IERANGE	IQUANT	7	I/E Range
POSFEEDENABLE	TOGGLE	F	Positive Feedback IR Comp
POSFEEDRESISTANCE	QUANT	0	Positive Feedback Resistance (ohm)
ACHSELECT	IQUANT	0	Ach Select
CABLEID	IQUANT	14	Cable ID
DCCALDATE	LABEL	1/27/2020	DC Calibration Date
ACCALDATE	LABEL	1/27/2020	AC Calibration Date
THERMOSELECT	IQUANT	1	Thermo Select
FRAMEWORKVERSION	QUANT	6.33	Framework Version
INSTRUMENTVERSION	LABEL	3.50	Instrument Version
ZCURVE	TABLE
	Pt	Time	Freq	Zreal	Zimag	Zsig	Zmod	Zphz	Idc	Vdc	IERange
	#	s	Hz	ohm	ohm	V	ohm	°	A	V	#
	0	2	1000078	2036.053	-1638.503	1	2613.466	-38.82519	2.782545E-006	0.0245533	8
	1	3	794390.6	2346.212	-1649.914	1	2868.262	-35.11583	-8.891322E-007	0.0247475	8
	2	5	630984.4	2652.475	-1618.151	1	3107.094	-31.38541	-1.856189E-006	0.024988	8
	3	6	501234.4	2937.854	-1557.667	1	3325.254	-27.93279	2.955976E-006	0.0240396	8
	4	7	398109.4	3197.371	-1471.318	1	3519.653	-24.71024	-2.482641E-007	0.0243234	8
	5	9	316265.6	3434.682	-1367.09	1	3696.752	-21.7038	2.479545E-006	0.023784	8
	6	10	251203.1	3656.688	-1267.567	1	3870.154	-19.11854	2.465746E-006	0.0239517	8
	7	11	199546.9	3816.638	-1159.777	1	3988.961	-16.90267	1.943958E-006	0.0239652	8
	8	13	158578.1	3967.085	-1062.739	1	4106.967	-14.99679	-1.340605E-006	0.0245704	8
	9	14	125953.1	4116.198	-948.9521	1	4224.168	-12.9822	-5.334556E-008	0.0242249	7
	10	15	100078.1	4229.592	-869.166	1	4317.974	-11.61242	-2.985956E-008	0.0243264	7
	11	17	79453.13	4327.332	-808.9128	1	4402.288	-10.58816	5.255012E-008	0.0242691	7
	12	18	63140.62	4415.721	-759.5116	1	4480.564	-9.75948	-2.791085E-008	0.0243222	7
	13	20	50203.12	4497.866	-721.8338	1	4555.419	-9.117293	-1.506064E-008	0.0243789	7
	14	21	39890.62	4574.424	-694.3458	1	4626.821	-8.630969	-2.862033E-008	0.0243303	7
	15	22	31640.63	4649.342	-679.6401	1	4698.754	-8.316586	-3.640107E-008	0.0244224	7
	16	24	25171.88	4718.967	-674.662	1	4766.951	-8.136334	2.262573E-008	0.0243231	7
	17	25	20015.62	4787.918	-682.4319	1	4836.308	-8.111848	-2.249292E-008	0.0243518	7
	18	26	15890.62	4856.75	-702.377	1	4907.275	-8.228991	8.7894E-008	0.0241643	7
	19	28	12609.37	4924.667	-736.0385	1	4979.367	-8.500479	5.575681E-008	0.0242522	7
	20	29	10078.13	4990.537	-781.8544	1	5051.412	-8.904002	-2.661851E-008	0.0243179	7
	21	30	8015.625	5060.852	-848.0862	1	5131.42	-9.51311	-1.778604E-008	0.024323	7
	22	32	6328.125	5132.686	-936.3875	1	5217.402	-10.33912	-8.489442E-009	0.024252	7
	23	33	5015.625	5209.119	-1048.971	1	5313.686	-11.38551	-1.615456E-008	0.0243193	7
	24	35	3984.375	5288.374	-1188.962	1	5420.381	-12.67087	1.0485E-008	0.0242219	7
	25	36	3170.956	5370.729	-1363.784	1	5541.177	-14.24792	7.633617E-008	0.0242181	7
	26	37	2527.573	5460.063	-1578.369	1	5683.621	-16.12327	-2.039731E-008	0.0243372	7
	27	39	1976.103	5564.286	-1865.977	1	5868.828	-18.53882	-5.062425E-009	0.0242576	7
	28	40	1577.524	5666.833	-2199.705	1	6078.791	-21.21481	1.707963E-008	0.0243321	7
	29	41	1265.625	5781.708	-2598.004	1	6338.594	-24.19671	-1.072325E-008	0.0243094	7
	30	43	998.264	5920.574	-3130.682	1	6697.34	-27.869	-1.084067E-008	0.024308	7
	31	44	796.875	6077.34	-3751.221	1	7141.829	-31.68485	5.773889E-008	0.0241599	7
	32	46	627.7902	6272.008	-4564.817	1	7757.295	-36.04742	-4.246772E-008	0.0243286	7
	33	47	505.5147	6489.383	-5468.934	1	8486.538	-40.12254	7.233401E-009	0.0242969	7
	34	48	397.9953	6779.153	-6691.171	1	9525.16	-44.62577	1.080956E-008	0.0242875	7
	35	50	315.5048	7129.694	-8148.166	1	10827.06	-48.81388	1.378615E-009	0.0242813	6
	36	51	252.4038	7545.495	-9854.7	1	12411.67	-52.55963	-2.301126E-011	0.0242765	6
	37	52	198.6229	8097.645	-12087.88	1	14549.53	-56.18196	-7.385281E-010	0.0242796	6
	38	54	158.3615	8760.835	-14674.54	1	17090.77	-59.16242	-1.429688E-009	0.0242723	6
	39	55	125.558	9613.3	-17885.24	1	20305.11	-61.74202	1.829676E-009	0.0242814	6
	40	57	100.4464	10657.93	-21615.21	1	24099.97	-63.75323	1.505051E-009	0.0242732	6
	41	58	79.00281	12078.03	-26492.91	1	29116.2	-65.49191	1.126808E-009	0.0242718	6
	42	59	63.3446	13872.48	-32016.05	1	34892.31	-66.57302	1.251408E-009	0.0242741	6
	43	61	49.86702	15855.95	-39048.77	1	42145.19	-67.90015	1.094516E-009	0.0242715	6
	44	62	39.72458	18774.42	-47186.88	1	50784.65	-68.30369	1.368181E-009	0.0242795	6
	45	64	31.6723	22521.45	-56823.55	1	61123.9	-68.37959	1.346109E-009	0.0242769	6
	46	65	24.93351	27422.64	-68976.48	1	74227.73	-68.31895	1.666049E-009	0.0242801	6
	47	66	19.86229	33594.84	-82549.56	1	89123.75	-67.85536	1.717211E-009	0.0242753	6
	48	68	15.83615	41472.05	-98851.3	1	107198.5	-67.24001	1.947505E-009	0.0242753	5
	49	69	12.40079	52587.23	-118173.1	1	129345.7	-66.01086	1.328745E-009	0.0242819	5
	50	70	9.93114	64777.87	-138138.9	1	152573.1	-64.87658	-5.263506E-012	0.0242806	5
	51	72	7.944915	80082.62	-160423.3	1	179301	-63.47182	7.568908E-010	0.0242867	5
	52	74	6.317385	98441.6	-186022.5	1	210464.1	-62.11258	-1.888841E-010	0.0242755	5
	53	76	5.008013	120501	-215376.3	1	246794.3	-60.77341	5.762003E-010	0.0242739	5
	54	78	3.945707	145904.8	-246864.1	1	286757.9	-59.41551	2.187508E-010	0.0242898	5
	55	81	3.158693	172438.1	-281042	1	329726.4	-58.4681	-5.086753E-012	0.0242692	5
	56	84	2.504006	203070.8	-321066	1	379896.2	-57.68709	4.959262E-010	0.0242917	5
	57	87	1.998082	238266.7	-373253.8	1	442819.9	-57.44786	1.253985E-009	0.0242878	5
	58	90	1.584686	274441.9	-418667.3	1	500600.3	-56.75464	2.104511E-010	0.0242324	5
	59	94	1.266892	314771.7	-479531.5	1	573612.9	-56.7185	3.01332E-010	0.0242838	5
	60	98	0.999041	365010.6	-555577.8	1	664755.1	-56.69537	-1.503458E-010	0.0242671	5
