EXPLAIN
TAG	EISPOT
TITLE	LABEL	Potentiostatic EIS	Test &Identifier
DATE	LABEL	1/28/2020	Date
TIME	LABEL	12:34:58	Time
NOTES	NOTES	6	&Notes...
	
	
	
	
	
	
PSTAT	PSTAT	REF600-11020	Potentiostat
VDC	POTEN	0.00000E+000	T	DC &Voltage (V)
FREQINIT	QUANT	1.00000E+006	Initial Fre&q. (Hz)
FREQFINAL	QUANT	1.00000E+000	Final Fre&q. (Hz)
PTSPERDEC	QUANT	1.00000E+001	Points/&decade
VAC	QUANT	2.50000E+001	AC &Voltage (mV rms)
AREA	QUANT	1.60000E-004	&Area (cm^2)
CONDIT	TWOPARAM	F	5.00000E+000	0.00000E+000	Conditionin&g	Time(s)	E(V)
DELAY	TWOPARAM	F	5.00000E+000	0.00000E+000	Init. De&lay	Time(s)	Stab.(mV/s)
SPEED	SELECTOR	0	&Optimize for:
ZGUESS	QUANT	1.00000E+003	E&stimated Z (ohms)
OCVCURVE	TABLE	39
	Pt	T	Vf	Vm	Ach	Over
	#	s	V vs. Ref.	V	V	bits
	0	0.258333	5.63276E-002	5.63276E-002	5.66938E-004	...........
	1	0.516667	5.63277E-002	5.63336E-002	5.66804E-004	...........
	2	0.775	5.63335E-002	5.66059E-002	5.51405E-004	...........
	3	1.03333	5.63657E-002	5.68081E-002	5.53305E-004	...........
	4	1.29167	5.64505E-002	5.69661E-002	5.60404E-004	...........
	5	1.55	5.65877E-002	5.69621E-002	5.68571E-004	...........
	6	1.80833	5.67398E-002	5.69596E-002	5.54871E-004	...........
	7	2.06667	5.68614E-002	5.69661E-002	5.49138E-004	...........
	8	2.325	5.69325E-002	5.69757E-002	5.67771E-004	...........
	9	2.58333	5.69633E-002	5.69931E-002	5.66304E-004	...........
	10	2.84167	5.69754E-002	5.70280E-002	5.56504E-004	...........
	11	3.1	5.69844E-002	5.69905E-002	5.61671E-004	...........
	12	3.35833	5.69936E-002	5.69830E-002	5.73704E-004	...........
	13	3.61667	5.69986E-002	5.69970E-002	5.64838E-004	...........
	14	3.875	5.69979E-002	5.70008E-002	5.63071E-004	...........
	15	4.13333	5.69961E-002	5.70134E-002	5.65238E-004	...........
	16	4.39167	5.69976E-002	5.70200E-002	5.62238E-004	...........
	17	4.65	5.70027E-002	5.70170E-002	5.58438E-004	...........
	18	4.90833	5.70090E-002	5.70093E-002	5.48338E-004	...........
	19	5.16667	5.70126E-002	5.69758E-002	5.64204E-004	...........
	20	5.425	5.70107E-002	5.70067E-002	5.66204E-004	...........
	21	5.68333	5.70052E-002	5.70168E-002	5.60038E-004	...........
	22	5.94167	5.70018E-002	5.70139E-002	5.51805E-004	...........
	23	6.2	5.70037E-002	5.70114E-002	5.70238E-004	...........
	24	6.45833	5.70078E-002	5.70007E-002	5.68638E-004	...........
	25	6.71667	5.70101E-002	5.70124E-002	5.55338E-004	...........
	26	6.975	5.70105E-002	5.70425E-002	5.50838E-004	...........
	27	7.23333	5.70126E-002	5.70209E-002	5.64871E-004	...........
	28	7.49167	5.70168E-002	5.69772E-002	5.69138E-004	...........
	29	7.75	5.70169E-002	5.69645E-002	5.54104E-004	...........
	30	8.00833	5.70078E-002	5.69770E-002	5.59504E-004	...........
	31	8.26667	5.69938E-002	5.70006E-002	5.63538E-004	...........
	32	8.525	5.69845E-002	5.70048E-002	5.66204E-004	...........
	33	8.78333	5.69836E-002	5.69471E-002	5.52638E-004	...........
	34	9.04167	5.69846E-002	5.69569E-002	5.53938E-004	...........
	35	9.3	5.69800E-002	5.69614E-002	5.60604E-004	...........
	36	9.5583	5.69710E-002	5.69554E-002	5.62171E-004	...........
	37	9.8167	5.69631E-002	5.69543E-002	5.56671E-004	...........
	38	10.075	5.69584E-002	5.69510E-002	5.61904E-004	...........
EOC	QUANT	0.0569584	Open Circuit (V)
PSTATMODEL	IQUANT	4	Pstat Model
PSTATSECTION	LABEL	REF600-11020	Pstat Section
PSTATSERIALNO	LABEL	11020	Pstat Serial Number
CTRLMODE	IQUANT	1	Control Mode
IESTAB	IQUANT	0	I/E Stability
CASPEED	IQUANT	1	Control Amp Speed
CONVENTION	IQUANT	1	Current Convention
ICHRANGE	IQUANT	2	Ich Range
ICHRANGEMODE	TOGGLE	F	Ich Auto Range
ICHOFFSETENABLE	TOGGLE	T	Ich Offset Enable
ICHOFFSET	QUANT	0	Ich Offset (V)
ICHFILTER	IQUANT	3	Ich Filter
VCHRANGE	IQUANT	2	Vch Range
VCHRANGEMODE	TOGGLE	F	Vch Auto Range
VCHOFFSETENABLE	TOGGLE	T	Vch Offset Enable
VCHOFFSET	QUANT	0	Vch Offset (V)
VCHFILTER	IQUANT	3	Vch Filter
ACHRANGE	IQUANT	2	Ach Range
ACHOFFSETENABLE	TOGGLE	F	Ach Offset Enable
ACHOFFSET	QUANT	0	Ach Offset (V)
ACHFILTER	IQUANT	3	Ach Filter
IERANGELOWERLIMIT	IQUANT	1	I/E Range Lower Limit
IERANGEMODE	TOGGLE	F	I/E AutoRange
IERANGE	IQUANT	8	I/E Range
POSFEEDENABLE	TOGGLE	F	Positive Feedback IR Comp
POSFEEDRESISTANCE	QUANT	0	Positive Feedback Resistance (ohm)
ACHSELECT	IQUANT	0	Ach Select
CABLEID	IQUANT	14	Cable ID
DCCALDATE	LABEL	1/27/2020	DC Calibration Date
ACCALDATE	LABEL	1/27/2020	AC Calibration Date
THERMOSELECT	IQUANT	1	Thermo Select
FRAMEWORKVERSION	QUANT	6.33	Framework Version
INSTRUMENTVERSION	LABEL	3.50	Instrument Version
ZCURVE	TABLE
	Pt	Time	Freq	Zreal	Zimag	Zsig	Zmod	Zphz	Idc	Vdc	IERange
	#	s	Hz	ohm	ohm	V	ohm	°	A	V	#
	0	1	1000078	1886.802	-2011.399	1	2757.852	-46.8307	-6.591883E-007	0.0592333	8
	1	1	794390.6	2226.711	-2156.868	1	3100.052	-44.08719	4.677529E-007	0.0589953	8
	2	1	630984.4	2583.487	-2299.053	1	3458.331	-41.66599	-2.881546E-007	0.0588875	8
	3	2	501234.4	2961.978	-2440.307	1	3837.761	-39.48434	5.051355E-007	0.0586137	8
	4	2	398109.4	3367.529	-2563.71	1	4232.359	-37.28213	3.25045E-006	0.0580811	8
	5	2	316265.6	3804.157	-2666.184	1	4645.444	-35.02511	2.325619E-007	0.0585223	8
	6	3	251203.1	4274.618	-2757.338	1	5086.774	-32.82401	-1.004461E-006	0.0589626	8
	7	3	199546.9	4776.94	-2788.792	1	5531.412	-30.27651	-9.76058E-007	0.0589576	8
	8	3	158578.1	5278.497	-2772.79	1	5962.458	-27.71291	-4.709046E-008	0.0588	8
	9	3	125953.1	5833.356	-2642.583	1	6404.006	-24.37112	2.701406E-007	0.0576558	7
	10	4	100078.1	6298.855	-2498.968	1	6776.46	-21.63989	-4.906319E-008	0.0586459	7
	11	4	79453.13	6715.2	-2322.741	1	7105.563	-19.08015	3.440804E-008	0.0585292	7
	12	4	63140.62	7078.121	-2131.538	1	7392.107	-16.75939	6.835174E-008	0.0584312	7
	13	5	50203.12	7378.92	-1927.595	1	7626.539	-14.64021	-3.151078E-008	0.0585878	7
	14	5	39890.62	7619.601	-1725.336	1	7812.496	-12.75856	6.870256E-008	0.0584252	7
	15	5	31640.63	7827.29	-1550.697	1	7979.419	-11.206	1.738908E-009	0.0585026	7
	16	6	25171.88	7994.732	-1401.134	1	8116.583	-9.94054	-2.640695E-008	0.0586747	7
	17	6	20015.62	8126.419	-1277.647	1	8226.242	-8.934981	6.517895E-008	0.0585377	7
	18	6	15890.62	8236.5	-1178.196	1	8320.341	-8.140692	-1.723134E-008	0.058604	7
	19	7	12609.37	8326.739	-1113.646	1	8400.881	-7.617726	-1.645357E-008	0.0586023	7
	20	7	10078.13	8407.374	-1084.332	1	8477.011	-7.349093	1.979714E-009	0.0584933	7
	21	7	8015.625	8475.031	-1089.845	1	8544.818	-7.327725	-3.588965E-008	0.0585956	7
	22	8	6328.125	8543.464	-1131.396	1	8618.053	-7.543685	7.152796E-008	0.0584285	7
	23	8	5015.625	8610.803	-1215.524	1	8696.173	-8.034938	-2.557825E-008	0.0586672	7
	24	8	3984.375	8682.729	-1345.531	1	8786.367	-8.808851	-1.242911E-008	0.0586068	7
	25	9	3170.956	8746.742	-1502.904	1	8874.921	-9.74961	1.442894E-008	0.058299	6
	26	9	2527.573	8812.193	-1739.868	1	8982.31	-11.16875	-1.647478E-009	0.0584584	6
	27	9	1976.103	8906.08	-2073.787	1	9144.335	-13.10779	6.973454E-009	0.0585391	6
	28	9	1577.524	9017.206	-2470.427	1	9349.493	-15.32127	-5.05463E-009	0.0586761	6
	29	10	1265.625	9122.767	-2937.745	1	9584.11	-17.84978	-5.908327E-009	0.0586305	6
	30	10	998.264	9262.767	-3566.867	1	9925.79	-21.06049	-7.014485E-009	0.0586366	6
	31	10	796.875	9425.476	-4305.872	1	10362.44	-24.5525	1.513717E-009	0.0585959	6
	32	11	627.7902	9638.51	-5267.578	1	10984	-28.65722	3.750091E-009	0.0583894	6
	33	11	505.5147	9887.88	-6332.599	1	11741.89	-32.63716	-2.55303E-009	0.0586521	6
	34	11	397.9953	10221.53	-7762.016	1	12834.66	-37.21227	3.676855E-010	0.0585577	6
	35	12	315.5048	10628.11	-9461.227	1	14229.25	-41.67572	1.504244E-009	0.0585532	6
	36	12	252.4038	11101.45	-11444.4	1	15944.17	-45.87148	7.80996E-010	0.0585504	6
	37	12	198.6229	11745.68	-14031.77	1	18298.95	-50.06805	1.044706E-009	0.0585528	6
	38	13	158.3615	12481.57	-17010.98	1	21098.89	-53.73117	1.259942E-009	0.0585482	6
	39	13	125.558	13412.15	-20734.52	1	24694.25	-57.10315	1.322494E-009	0.0585489	6
	40	13	100.4464	14482.56	-25084.67	1	28965.24	-60.00013	4.962198E-010	0.0585488	6
	41	14	79.00281	16036.24	-30733.79	1	34665.93	-62.4454	5.777795E-010	0.0585468	6
	42	14	63.3446	17511.97	-37509.18	1	41395.74	-64.97347	8.810507E-010	0.0585447	6
	43	14	49.86702	19864.17	-45726.3	1	49854.59	-66.51917	7.936959E-010	0.0585438	6
	44	15	39.72458	23053.04	-55433.26	1	60035.73	-67.41903	1.145106E-009	0.058545	6
	45	15	31.6723	26896.38	-67257.03	1	72435.65	-68.20332	6.111548E-010	0.0585442	6
	46	15	24.93351	32152.59	-81897.13	1	87982.55	-68.56516	1.330599E-009	0.0585448	6
	47	16	19.86229	38823.44	-98827.4	1	106179.7	-68.55308	1.527293E-009	0.0585489	5
	48	16	15.83615	47172.59	-119758.2	1	128713.9	-68.50059	1.147788E-009	0.0585511	5
	49	16	12.40079	60084.45	-144563.1	1	156552.3	-67.43087	1.534142E-010	0.0585486	5
	50	17	9.93114	74530.63	-169518	1	185178.8	-66.26674	2.304492E-010	0.0585438	5
	51	17	7.944915	92985.66	-199355.9	1	219975.3	-64.99422	-4.783255E-010	0.0585552	5
	52	18	6.317385	116089.1	-233579.6	1	260837.3	-63.57262	-4.89876E-010	0.0585665	5
	53	19	5.008013	145318.7	-271785.8	1	308196.5	-61.86744	-1.874054E-010	0.0585514	5
	54	20	3.945707	180680.4	-314163.2	1	362414	-60.09609	-8.131579E-011	0.0585438	5
	55	21	3.158693	220031.9	-356479	1	418916.8	-58.31559	2.763201E-010	0.0585539	5
	56	23	2.504006	265674.8	-403413.7	1	483038	-56.63244	1.066481E-010	0.0585512	5
	57	24	1.998082	315142.5	-453795.2	1	552489.8	-55.22158	-6.656369E-011	0.0585082	5
	58	25	1.584686	369252.1	-508475.1	1	628405.9	-54.01303	4.862251E-011	0.0585436	5
	59	27	1.266892	427637.3	-567193.9	1	710339.8	-52.98544	1.352537E-010	0.0585765	5
	60	30	0.999041	493397.8	-639554.2	1	807756.7	-52.35084	1.836492E-010	0.0585823	5
