EXPLAIN
TAG	EISPOT
TITLE	LABEL	Potentiostatic EIS	Test &Identifier
DATE	LABEL	7/13/2020	Date
TIME	LABEL	21:03:15	Time
NOTES	NOTES	1	&Notes...
	
PSTAT	PSTAT	REF600-11020	Potentiostat
VDC	POTEN	0.00000E+000	T	DC &Voltage (V)
FREQINIT	QUANT	1.00000E+006	Initial Fre&q. (Hz)
FREQFINAL	QUANT	1.00000E+000	Final Fre&q. (Hz)
PTSPERDEC	QUANT	1.00000E+001	Points/&decade
VAC	QUANT	2.50000E+001	AC &Voltage (mV rms)
AREA	QUANT	4.00000E-004	&Area (cm^2)
CONDIT	TWOPARAM	F	5.00000E+000	0.00000E+000	Conditionin&g	Time(s)	E(V)
DELAY	TWOPARAM	F	3.00000E+000	0.00000E+000	Init. De&lay	Time(s)	Stab.(mV/s)
SPEED	SELECTOR	0	&Optimize for:
ZGUESS	QUANT	1.00000E+003	E&stimated Z (ohms)
OCVCURVE	TABLE	39
	Pt	T	Vf	Vm	Ach	Over
	#	s	V vs. Ref.	V	V	bits
	0	0.258333	1.62367E-001	1.62367E-001	5.39816E-004	...........
	1	0.516667	1.62369E-001	1.62497E-001	5.40650E-004	...........
	2	0.775	1.62384E-001	1.62612E-001	5.42783E-004	...........
	3	1.03333	1.62426E-001	1.62701E-001	5.42083E-004	...........
	4	1.29167	1.62498E-001	1.62785E-001	5.40750E-004	...........
	5	1.55	1.62589E-001	1.62855E-001	5.39683E-004	...........
	6	1.80833	1.62682E-001	1.62927E-001	5.38016E-004	...........
	7	2.06667	1.62769E-001	1.62981E-001	5.40383E-004	...........
	8	2.325	1.62846E-001	1.63036E-001	5.39850E-004	...........
	9	2.58333	1.62914E-001	1.63080E-001	5.40716E-004	...........
	10	2.84167	1.62974E-001	1.63123E-001	5.39783E-004	...........
	11	3.1	1.63027E-001	1.63161E-001	5.40383E-004	...........
	12	3.35833	1.63074E-001	1.63195E-001	5.37083E-004	...........
	13	3.61667	1.63117E-001	1.63229E-001	5.39583E-004	...........
	14	3.875	1.63156E-001	1.63260E-001	5.40550E-004	...........
	15	4.13333	1.63191E-001	1.63289E-001	5.38383E-004	...........
	16	4.39167	1.63225E-001	1.63320E-001	5.37450E-004	...........
	17	4.65	1.63256E-001	1.63343E-001	5.38750E-004	...........
	18	4.90833	1.63286E-001	1.63372E-001	5.41383E-004	...........
	19	5.16667	1.63315E-001	1.63398E-001	5.40716E-004	...........
	20	5.425	1.63343E-001	1.63423E-001	5.40716E-004	...........
	21	5.68333	1.63369E-001	1.63446E-001	5.39383E-004	...........
	22	5.94167	1.63395E-001	1.63468E-001	5.38316E-004	...........
	23	6.2	1.63420E-001	1.63495E-001	5.36516E-004	...........
	24	6.45833	1.63444E-001	1.63512E-001	5.38483E-004	...........
	25	6.71667	1.63467E-001	1.63531E-001	5.40283E-004	...........
	26	6.975	1.63489E-001	1.63553E-001	5.37950E-004	...........
	27	7.23333	1.63510E-001	1.63575E-001	5.40150E-004	...........
	28	7.49167	1.63531E-001	1.63591E-001	5.38450E-004	...........
	29	7.75	1.63551E-001	1.63612E-001	5.39650E-004	...........
	30	8.00833	1.63571E-001	1.63614E-001	5.41150E-004	...........
	31	8.26667	1.63589E-001	1.63629E-001	5.41783E-004	...........
	32	8.525	1.63604E-001	1.63647E-001	5.40550E-004	...........
	33	8.78333	1.63618E-001	1.63669E-001	5.40516E-004	...........
	34	9.04167	1.63632E-001	1.63687E-001	5.42316E-004	...........
	35	9.3	1.63648E-001	1.63706E-001	5.39883E-004	...........
	36	9.5583	1.63666E-001	1.63721E-001	5.40850E-004	...........
	37	9.8167	1.63685E-001	1.63746E-001	5.44350E-004	...........
	38	10.075	1.63704E-001	1.63760E-001	5.40316E-004	...........
EOC	QUANT	0.1637038	Open Circuit (V)
PSTATMODEL	IQUANT	4	Pstat Model
PSTATSECTION	LABEL	REF600-11020	Pstat Section
PSTATSERIALNO	LABEL	11020	Pstat Serial Number
CTRLMODE	IQUANT	1	Control Mode
IESTAB	IQUANT	0	I/E Stability
CASPEED	IQUANT	1	Control Amp Speed
CONVENTION	IQUANT	1	Current Convention
ICHRANGE	IQUANT	2	Ich Range
ICHRANGEMODE	TOGGLE	F	Ich Auto Range
ICHOFFSETENABLE	TOGGLE	T	Ich Offset Enable
ICHOFFSET	QUANT	0	Ich Offset (V)
ICHFILTER	IQUANT	3	Ich Filter
VCHRANGE	IQUANT	2	Vch Range
VCHRANGEMODE	TOGGLE	F	Vch Auto Range
VCHOFFSETENABLE	TOGGLE	T	Vch Offset Enable
VCHOFFSET	QUANT	0	Vch Offset (V)
VCHFILTER	IQUANT	3	Vch Filter
ACHRANGE	IQUANT	2	Ach Range
ACHOFFSETENABLE	TOGGLE	F	Ach Offset Enable
ACHOFFSET	QUANT	0	Ach Offset (V)
ACHFILTER	IQUANT	3	Ach Filter
IERANGELOWERLIMIT	IQUANT	1	I/E Range Lower Limit
IERANGEMODE	TOGGLE	F	I/E AutoRange
IERANGE	IQUANT	8	I/E Range
POSFEEDENABLE	TOGGLE	F	Positive Feedback IR Comp
POSFEEDRESISTANCE	QUANT	0	Positive Feedback Resistance (ohm)
ACHSELECT	IQUANT	0	Ach Select
CABLEID	IQUANT	14	Cable ID
DCCALDATE	LABEL	6/26/2020	DC Calibration Date
ACCALDATE	LABEL	6/26/2020	AC Calibration Date
THERMOSELECT	IQUANT	1	Thermo Select
FRAMEWORKVERSION	QUANT	6.33	Framework Version
INSTRUMENTVERSION	LABEL	3.50	Instrument Version
ZCURVE	TABLE
	Pt	Time	Freq	Zreal	Zimag	Zsig	Zmod	Zphz	Idc	Vdc	IERange
	#	s	Hz	ohm	ohm	V	ohm	°	A	V	#
	0	1	1000078	1709.455	-2163.966	1	2757.714	-51.69253	-1.361046E-008	0.1662095	8
	1	2	794390.6	2106.737	-2358.035	1	3162.067	-48.22148	5.475739E-009	0.1658016	8
	2	2	630984.4	2543.221	-2508.504	1	3572.193	-44.60626	5.838934E-008	0.1656586	8
	3	2	501234.4	3002.121	-2614.121	1	3980.748	-41.04799	7.32346E-008	0.1655003	8
	4	3	398109.4	3468.037	-2668.8	1	4376.046	-37.5798	3.281338E-008	0.1654542	8
	5	3	316265.6	3926.353	-2680.248	1	4753.943	-34.31863	2.085101E-008	0.1654281	8
	6	3	251203.1	4343.236	-2677.737	1	5102.35	-31.65509	4.502843E-008	0.1654293	8
	7	4	199546.9	4755.027	-2655.7	1	5446.377	-29.18352	3.311661E-008	0.1654013	8
	8	4	158578.1	5129.699	-2636.11	1	5767.398	-27.19826	5.289284E-008	0.1654182	8
	9	4	125953.1	5552.309	-2562.368	1	6115.052	-24.77313	2.75707E-008	0.1653994	7
	10	5	100078.1	5894.138	-2583.147	1	6435.333	-23.66577	1.308501E-008	0.1653474	7
	11	5	79453.13	6220.449	-2625.463	1	6751.818	-22.88314	3.705002E-009	0.1653479	7
	12	5	63140.62	6542.861	-2696.293	1	7076.653	-22.39641	1.686336E-008	0.1653461	7
	13	5	50203.12	6871.129	-2797.081	1	7418.631	-22.15012	1.643908E-008	0.1653466	7
	14	6	39890.62	7210.941	-2930.287	1	7783.589	-22.11519	4.299458E-009	0.1653696	7
	15	6	31640.63	7569.709	-3103.897	1	8181.362	-22.29568	1.486371E-008	0.1653496	7
	16	6	25171.88	7945.013	-3311.309	1	8607.438	-22.62531	-1.818049E-008	0.1653737	7
	17	7	20015.62	8344.343	-3562.318	1	9072.936	-23.11832	1.32091E-008	0.1653302	7
	18	7	15890.62	8778.649	-3857.018	1	9588.6	-23.71893	-1.722426E-008	0.1653662	7
	19	7	12609.37	9348.812	-4081.891	1	10201.08	-23.58711	5.82815E-010	0.1653122	6
	20	8	10078.13	9830.6	-4482.216	1	10804.21	-24.5104	2.739486E-009	0.1653394	6
	21	8	8015.625	10368.21	-4945.318	1	11487.21	-25.49972	-2.229589E-009	0.1653963	6
	22	8	6328.125	10981.61	-5489.43	1	12277.2	-26.5593	-2.88874E-009	0.1653719	6
	23	9	5015.625	11652.34	-6098.775	1	13151.89	-27.62733	1.067999E-009	0.1653546	6
	24	9	3984.375	12383.54	-6782.596	1	14119.33	-28.70999	2.951649E-009	0.1653237	6
	25	9	3170.956	13177.03	-7548.088	1	15185.77	-29.80502	-4.950397E-010	0.1653778	6
	26	10	2527.573	14043.97	-8413.666	1	16371.4	-30.9256	-1.882711E-009	0.1653616	6
	27	10	1976.103	15088.35	-9487.439	1	17823.3	-32.16136	-2.863463E-009	0.1653802	6
	28	10	1577.524	16144.9	-10614.68	1	19321.72	-33.32345	-2.81783E-009	0.1653835	6
	29	11	1265.625	17292.61	-11885.58	1	20983.36	-34.50158	2.86743E-009	0.1653186	6
	30	11	998.264	18652.24	-13459.84	1	23001.59	-35.81499	1.413883E-009	0.1653499	6
	31	11	796.875	20102.79	-15187.45	1	25194.86	-37.07068	2.827599E-009	0.1653009	6
	32	11	627.7902	21835.54	-17294.18	1	27854.62	-38.37991	-2.840621E-009	0.165381	6
	33	12	505.5147	23609.95	-19504.2	1	30624.23	-39.56015	-3.07361E-009	0.1653844	6
	34	12	397.9953	25850.61	-22294.27	1	34136.32	-40.77539	1.21105E-010	0.1653621	6
	35	12	315.5048	28306.42	-25392.1	1	38026.47	-41.89351	8.116548E-011	0.165364	6
	36	13	252.4038	30949.82	-28785.86	1	42267.21	-42.92534	1.214054E-010	0.1653576	6
	37	13	198.6229	34109.83	-32959	1	47431.81	-44.01696	1.350745E-010	0.1653597	6
	38	13	158.3615	37405.34	-37522.64	1	52982.15	-45.0897	1.49465E-010	0.165357	6
	39	14	125.558	41129.25	-42972.47	1	59483.18	-46.25552	1.759514E-010	0.1653557	6
	40	14	100.4464	45057.59	-49121.77	1	66656.84	-47.47099	1.945787E-010	0.165348	6
	41	14	79.00281	49789.13	-56976.01	1	75665.2	-48.85105	1.484643E-010	0.1653554	6
	42	15	63.3446	54751.13	-65519.91	1	85384.69	-50.11649	6.705807E-011	0.1653583	6
	43	15	49.86702	60792.17	-76500.91	1	97714.3	-51.52726	5.09362E-011	0.1653483	6
	44	15	39.72458	67328.02	-88681.87	1	111344.2	-52.79393	6.407918E-012	0.1653443	5
	45	16	31.6723	74579.29	-103108.7	1	127253.6	-54.12151	-7.474146E-011	0.16534	5
	46	16	24.93351	83099.02	-121184.9	1	146939.6	-55.56076	3.965935E-012	0.16534	5
	47	16	19.86229	91964.35	-141814.6	1	169023.1	-57.03727	3.082737E-010	0.1653439	5
	48	17	15.83615	101783.5	-166809.8	1	195410.8	-58.60944	-2.444038E-010	0.1653416	5
	49	17	12.40079	113637	-199659	1	229732.7	-60.3534	-1.582856E-011	0.1653459	5
	50	17	9.93114	126177.1	-236513.1	1	268065.5	-61.92057	-8.104154E-011	0.1653462	5
	51	18	7.944915	141016.9	-281400.4	1	314757	-63.38338	-2.80737E-010	0.1653458	5
	52	18	6.317385	159749.6	-337991.3	1	373842.3	-64.70251	4.154064E-011	0.1653268	5
	53	19	5.008013	183833.8	-408093.1	1	447587.8	-65.74986	6.365068E-011	0.1653409	5
	54	20	3.945707	215459.8	-495043.7	1	539899.2	-66.4797	-9.325814E-011	0.1653358	5
	55	21	3.158693	254632.6	-592647	1	645033.5	-66.74907	2.617754E-011	0.1653345	5
	56	22	2.504006	306584.3	-713104.5	1	776216.4	-66.73573	4.254724E-011	0.1653381	5
	57	23	1.998082	373402.9	-850267.1	1	928646.2	-66.29086	-4.403482E-011	0.1652931	5
	58	25	1.584686	460288.3	-1015334	1	1114795	-65.61346	-3.274754E-011	0.1653042	4
	59	27	1.266892	570453.8	-1194586	1	1323802	-64.47399	-1.800774E-011	0.1653426	4
	60	29	0.999041	719727.9	-1412096	1	1584937	-62.99262	-1.324216E-011	0.1653554	4
