EXPLAIN
TAG	EISPOT
TITLE	LABEL	Potentiostatic EIS	Test &Identifier
DATE	LABEL	6/14/2020	Date
TIME	LABEL	21:54:42	Time
NOTES	NOTES	1	&Notes...
	
PSTAT	PSTAT	REF600-10037	Potentiostat
VDC	POTEN	0.00000E+000	T	DC &Voltage (V)
FREQINIT	QUANT	1.00000E+006	Initial Fre&q. (Hz)
FREQFINAL	QUANT	1.00000E+000	Final Fre&q. (Hz)
PTSPERDEC	QUANT	1.00000E+001	Points/&decade
VAC	QUANT	2.50000E+001	AC &Voltage (mV rms)
AREA	QUANT	2.50000E-001	&Area (cm^2)
CONDIT	TWOPARAM	F	5.00000E+000	0.00000E+000	Conditionin&g	Time(s)	E(V)
DELAY	TWOPARAM	F	3.00000E+000	0.00000E+000	Init. De&lay	Time(s)	Stab.(mV/s)
SPEED	SELECTOR	0	&Optimize for:
ZGUESS	QUANT	1.00000E+003	E&stimated Z (ohms)
OCVCURVE	TABLE	39
	Pt	T	Vf	Vm	Ach	Over
	#	s	V vs. Ref.	V	V	bits
	0	0.258333	-6.37014E-002	-6.37014E-002	5.39954E-004	...........
	1	0.516667	-6.37010E-002	-6.36823E-002	5.39521E-004	...........
	2	0.775	-6.36989E-002	-6.36719E-002	5.36954E-004	...........
	3	1.03333	-6.36934E-002	-6.36578E-002	5.39854E-004	...........
	4	1.29167	-6.36842E-002	-6.36482E-002	5.39021E-004	...........
	5	1.55	-6.36728E-002	-6.36370E-002	5.39487E-004	...........
	6	1.80833	-6.36609E-002	-6.36302E-002	5.35754E-004	...........
	7	2.06667	-6.36497E-002	-6.36236E-002	5.40687E-004	...........
	8	2.325	-6.36400E-002	-6.36256E-002	5.32787E-004	...........
	9	2.58333	-6.36326E-002	-6.36250E-002	5.34954E-004	...........
	10	2.84167	-6.36279E-002	-6.36261E-002	5.33854E-004	...........
	11	3.1	-6.36258E-002	-6.36300E-002	5.37521E-004	...........
	12	3.35833	-6.36259E-002	-6.36368E-002	5.31921E-004	...........
	13	3.61667	-6.36277E-002	-6.36399E-002	5.36554E-004	...........
	14	3.875	-6.36311E-002	-6.36508E-002	5.33521E-004	...........
	15	4.13333	-6.36359E-002	-6.36558E-002	5.37987E-004	...........
	16	4.39167	-6.36418E-002	-6.36615E-002	5.37454E-004	...........
	17	4.65	-6.36484E-002	-6.36669E-002	5.33021E-004	...........
	18	4.90833	-6.36548E-002	-6.36749E-002	5.36687E-004	...........
	19	5.16667	-6.36611E-002	-6.36791E-002	5.31954E-004	...........
	20	5.425	-6.36671E-002	-6.36812E-002	5.30287E-004	...........
	21	5.68333	-6.36728E-002	-6.36884E-002	5.37787E-004	...........
	22	5.94167	-6.36779E-002	-6.36969E-002	5.34354E-004	...........
	23	6.2	-6.36831E-002	-6.37022E-002	5.40187E-004	...........
	24	6.45833	-6.36889E-002	-6.37078E-002	5.39154E-004	...........
	25	6.71667	-6.36952E-002	-6.37181E-002	5.37254E-004	...........
	26	6.975	-6.37019E-002	-6.37233E-002	5.36254E-004	...........
	27	7.23333	-6.37089E-002	-6.37360E-002	5.39621E-004	...........
	28	7.49167	-6.37166E-002	-6.37409E-002	5.39887E-004	...........
	29	7.75	-6.37247E-002	-6.37502E-002	5.37254E-004	...........
	30	8.00833	-6.37330E-002	-6.37585E-002	5.37187E-004	...........
	31	8.26667	-6.37412E-002	-6.37652E-002	5.32687E-004	...........
	32	8.525	-6.37493E-002	-6.37698E-002	5.39654E-004	...........
	33	8.78333	-6.37568E-002	-6.37766E-002	5.37021E-004	...........
	34	9.04167	-6.37637E-002	-6.37820E-002	5.41021E-004	...........
	35	9.3	-6.37699E-002	-6.37876E-002	5.43554E-004	...........
	36	9.5583	-6.37760E-002	-6.37998E-002	5.39154E-004	...........
	37	9.8167	-6.37824E-002	-6.38088E-002	5.36254E-004	...........
	38	10.075	-6.37900E-002	-6.38216E-002	5.33087E-004	...........
EOC	QUANT	-0.06379	Open Circuit (V)
PSTATMODEL	IQUANT	4	Pstat Model
PSTATSECTION	LABEL	REF600-10037	Pstat Section
PSTATSERIALNO	LABEL	10037	Pstat Serial Number
CTRLMODE	IQUANT	1	Control Mode
IESTAB	IQUANT	0	I/E Stability
CASPEED	IQUANT	1	Control Amp Speed
CONVENTION	IQUANT	1	Current Convention
ICHRANGE	IQUANT	2	Ich Range
ICHRANGEMODE	TOGGLE	F	Ich Auto Range
ICHOFFSETENABLE	TOGGLE	T	Ich Offset Enable
ICHOFFSET	QUANT	0	Ich Offset (V)
ICHFILTER	IQUANT	3	Ich Filter
VCHRANGE	IQUANT	2	Vch Range
VCHRANGEMODE	TOGGLE	F	Vch Auto Range
VCHOFFSETENABLE	TOGGLE	T	Vch Offset Enable
VCHOFFSET	QUANT	0	Vch Offset (V)
VCHFILTER	IQUANT	3	Vch Filter
ACHRANGE	IQUANT	2	Ach Range
ACHOFFSETENABLE	TOGGLE	F	Ach Offset Enable
ACHOFFSET	QUANT	0	Ach Offset (V)
ACHFILTER	IQUANT	3	Ach Filter
IERANGELOWERLIMIT	IQUANT	1	I/E Range Lower Limit
IERANGEMODE	TOGGLE	F	I/E AutoRange
IERANGE	IQUANT	8	I/E Range
POSFEEDENABLE	TOGGLE	F	Positive Feedback IR Comp
POSFEEDRESISTANCE	QUANT	0	Positive Feedback Resistance (ohm)
ACHSELECT	IQUANT	0	Ach Select
CABLEID	IQUANT	14	Cable ID
DCCALDATE	LABEL	6/8/2020	DC Calibration Date
ACCALDATE	LABEL	6/8/2020	AC Calibration Date
THERMOSELECT	IQUANT	1	Thermo Select
FRAMEWORKVERSION	QUANT	6.33	Framework Version
INSTRUMENTVERSION	LABEL	3.50	Instrument Version
ZCURVE	TABLE
	Pt	Time	Freq	Zreal	Zimag	Zsig	Zmod	Zphz	Idc	Vdc	IERange
	#	s	Hz	ohm	ohm	V	ohm	°	A	V	#
	0	1	1000078	1337.555	-547.1649	1	1445.145	-22.24841	3.922758E-007	-0.054706	8
	1	1	794390.6	1415.106	-555.8542	1	1520.361	-21.44492	6.108176E-008	-0.0548834	8
	2	2	630984.4	1492.643	-566.9207	1	1596.679	-20.79727	-3.147935E-008	-0.0550799	8
	3	2	501234.4	1572.11	-579.9976	1	1675.687	-20.2505	-4.580328E-008	-0.0551506	8
	4	2	398109.4	1654.08	-595.7465	1	1758.094	-19.80739	-1.034042E-007	-0.0551579	8
	5	3	316265.6	1736.67	-611.2803	1	1841.11	-19.39126	3.072186E-007	-0.0552268	8
	6	3	251203.1	1822.767	-634.1903	1	1929.942	-19.18418	-2.028945E-008	-0.0552124	8
	7	3	199546.9	1910.569	-652.8594	1	2019.035	-18.86578	7.462959E-008	-0.0551848	8
	8	4	158578.1	2002.312	-679.6437	1	2114.514	-18.74872	1.063947E-007	-0.0551235	8
	9	4	125953.1	2137.428	-633.9672	1	2229.464	-16.52051	-1.090799E-007	-0.0550137	7
	10	4	100078.1	2228.094	-670.1786	1	2326.702	-16.74053	-1.882606E-008	-0.0551229	7
	11	5	79453.13	2316.92	-714.3257	1	2424.537	-17.13497	-4.955374E-008	-0.0551449	7
	12	5	63140.62	2409.021	-763.6434	1	2527.159	-17.58827	4.871904E-008	-0.0552504	7
	13	5	50203.12	2504.383	-818.0044	1	2634.59	-18.08855	3.812073E-008	-0.0551968	7
	14	6	39890.62	2603.697	-878.8209	1	2748.011	-18.65098	-3.935704E-008	-0.0551341	7
	15	6	31640.63	2705.905	-951.032	1	2868.168	-19.36482	-1.334095E-008	-0.0552222	7
	16	6	25171.88	2808.586	-1034.998	1	2993.221	-20.22946	5.559652E-008	-0.0552503	7
	17	7	20015.62	2913.188	-1136.437	1	3127.004	-21.3108	-3.575811E-008	-0.0551322	7
	18	7	15890.62	3021.41	-1263.106	1	3274.806	-22.68745	5.550588E-008	-0.0552546	7
	19	7	12609.37	3134.28	-1418.799	1	3440.451	-24.35491	1.355796E-008	-0.0551646	7
	20	7	10078.13	3251.146	-1607.92	1	3627.031	-26.31563	3.823007E-008	-0.0552638	7
	21	8	8015.625	3380.254	-1845.918	1	3851.432	-28.63845	5.106301E-008	-0.0552521	7
	22	8	6328.125	3531.006	-2149.489	1	4133.801	-31.33083	4.178989E-008	-0.0552018	7
	23	8	5015.625	3703.521	-2518.397	1	4478.659	-34.21574	-4.753322E-008	-0.0551505	7
	24	9	3984.375	3908.759	-2962.001	1	4904.268	-37.15432	-1.663217E-008	-0.0551465	7
	25	9	3170.956	4158.125	-3497.806	1	5433.66	-40.07047	-3.791485E-008	-0.0551427	7
	26	9	2527.573	4468.085	-4131.325	1	6085.362	-42.75739	-1.977124E-009	-0.0551624	7
	27	10	1976.103	4897.091	-4954.662	1	6966.36	-45.33482	4.966298E-008	-0.0552337	7
	28	10	1577.524	5400.979	-5831.259	1	7948.217	-47.19379	5.38459E-008	-0.0552353	7
	29	10	1265.625	6018.021	-6820.818	1	9096.161	-48.57798	2.360396E-008	-0.0552533	7
	30	11	998.264	6891.418	-7979.401	1	10543.36	-49.18444	3.495363E-009	-0.055291	6
	31	11	796.875	7882.066	-9218.118	1	12128.51	-49.46749	4.77699E-009	-0.0552838	6
	32	11	627.7902	9152.055	-10606.76	1	14009.41	-49.2107	3.429708E-009	-0.0552834	6
	33	12	505.5147	10481.22	-11908.7	1	15864.21	-48.64798	7.843457E-009	-0.0552896	6
	34	12	397.9953	12107.12	-13397.9	1	18057.85	-47.8972	3.779074E-010	-0.0551874	6
	35	12	315.5048	13777.71	-14895.71	1	20290.58	-47.23288	4.464941E-010	-0.0551896	6
	36	13	252.4038	15395.23	-16441.3	1	22523.98	-46.88193	5.224909E-010	-0.055193	6
	37	13	198.6229	17110.35	-18364.62	1	25100.26	-47.02494	5.764122E-010	-0.055193	6
	38	13	158.3615	18682.64	-20559.66	1	27780.22	-47.73845	5.237663E-010	-0.0551956	6
	39	14	125.558	20250.61	-23358.98	1	30914.86	-49.07699	7.571604E-010	-0.0551938	6
	40	14	100.4464	21795.76	-26762.34	1	34514.9	-50.83997	5.577022E-010	-0.0551935	6
	41	14	79.00281	23571.36	-31419.74	1	39278.61	-53.12246	5.387238E-010	-0.0551929	6
	42	15	63.3446	25364.58	-36760.66	1	44662.16	-55.39462	6.609247E-010	-0.055198	6
	43	15	49.86702	27705.63	-44007.18	1	52002.25	-57.80668	5.387145E-010	-0.0551988	6
	44	15	39.72458	30425.13	-52553.58	1	60725.34	-59.93193	6.918522E-010	-0.0551947	6
	45	16	31.6723	33751.21	-62951.93	1	71428.91	-61.80235	1.053006E-009	-0.0551943	6
	46	16	24.93351	38195.77	-76331.42	1	85354.57	-63.4169	4.68305E-010	-0.0551984	6
	47	16	19.86229	42819.56	-91284.06	1	100828	-64.86964	-4.275252E-009	-0.0638349	6
	48	17	15.83615	49184.18	-109168.9	1	119737	-65.74688	-3.246699E-009	-0.0638341	5
	49	17	12.40079	58579.48	-132918.3	1	145254.3	-66.21604	-2.426433E-009	-0.0638206	5
	50	17	9.93114	69371.42	-158485.7	1	173003.2	-66.36034	-1.857935E-009	-0.0638272	5
	51	18	7.944915	82992.67	-188449.7	1	205915.2	-66.23145	-1.47371E-009	-0.0638267	5
	52	18	6.317385	100949.6	-224543.4	1	246192.1	-65.79239	-1.042564E-009	-0.0638209	5
	53	19	5.008013	123571	-266777.7	1	294007	-65.1465	-7.733247E-010	-0.0638207	5
	54	20	3.945707	152410.4	-316440	1	351231	-64.28265	-5.614915E-010	-0.0638198	5
	55	21	3.158693	185697.2	-369229.8	1	413296.7	-63.30074	-4.80618E-010	-0.0638196	5
	56	23	2.504006	228537	-431629	1	488398.2	-62.09987	-2.966231E-010	-0.0638229	5
	57	24	1.998082	276738.4	-498589.7	1	570241.9	-60.96787	-2.466699E-010	-0.0638214	5
	58	26	1.584686	334474.8	-575032.7	1	665233.8	-59.81506	-1.438113E-010	-0.0638258	5
	59	29	1.266892	398312.2	-657152.8	1	768441.5	-58.77918	-7.831399E-011	-0.0638267	5
	60	32	0.999041	474746.2	-754593.2	1	891512.7	-57.82428	-7.294139E-011	-0.0638252	5
