EXPLAIN
TAG	EISPOT
TITLE	LABEL	Potentiostatic EIS	Test &Identifier
DATE	LABEL	7/30/2020	Date
TIME	LABEL	22:58:49	Time
NOTES	NOTES	1	&Notes...
	
PSTAT	PSTAT	REF600-11020	Potentiostat
VDC	POTEN	0.00000E+000	T	DC &Voltage (V)
FREQINIT	QUANT	1.00000E+006	Initial Fre&q. (Hz)
FREQFINAL	QUANT	1.00000E+000	Final Fre&q. (Hz)
PTSPERDEC	QUANT	1.00000E+001	Points/&decade
VAC	QUANT	2.50000E+001	AC &Voltage (mV rms)
AREA	QUANT	4.00000E-005	&Area (cm^2)
CONDIT	TWOPARAM	F	5.00000E+000	0.00000E+000	Conditionin&g	Time(s)	E(V)
DELAY	TWOPARAM	F	3.00000E+000	0.00000E+000	Init. De&lay	Time(s)	Stab.(mV/s)
SPEED	SELECTOR	0	&Optimize for:
ZGUESS	QUANT	1.00000E+003	E&stimated Z (ohms)
OCVCURVE	TABLE	39
	Pt	T	Vf	Vm	Ach	Over
	#	s	V vs. Ref.	V	V	bits
	0	0.258333	-7.58502E-002	-7.58502E-002	5.24283E-004	...........
	1	0.516667	-7.58497E-002	-7.58231E-002	5.27417E-004	...........
	2	0.775	-7.58464E-002	-7.57908E-002	5.27917E-004	...........
	3	1.03333	-7.58367E-002	-7.57644E-002	5.26617E-004	...........
	4	1.29167	-7.58192E-002	-7.57528E-002	5.24450E-004	...........
	5	1.55	-7.57969E-002	-7.57402E-002	5.22850E-004	...........
	6	1.80833	-7.57750E-002	-7.57238E-002	5.21817E-004	...........
	7	2.06667	-7.57562E-002	-7.57162E-002	5.14217E-004	...........
	8	2.325	-7.57408E-002	-7.57112E-002	5.19250E-004	...........
	9	2.58333	-7.57287E-002	-7.57134E-002	5.18583E-004	...........
	10	2.84167	-7.57198E-002	-7.56995E-002	5.23317E-004	...........
	11	3.1	-7.57134E-002	-7.56912E-002	5.16917E-004	...........
	12	3.35833	-7.57073E-002	-7.56791E-002	5.18117E-004	...........
	13	3.61667	-7.56998E-002	-7.56645E-002	5.20150E-004	...........
	14	3.875	-7.56901E-002	-7.56480E-002	5.18483E-004	...........
	15	4.13333	-7.56783E-002	-7.56323E-002	5.25017E-004	...........
	16	4.39167	-7.56644E-002	-7.56131E-002	5.22450E-004	...........
	17	4.65	-7.56490E-002	-7.55955E-002	5.16117E-004	...........
	18	4.90833	-7.56318E-002	-7.55509E-002	5.21183E-004	...........
	19	5.16667	-7.56115E-002	-7.55214E-002	5.23417E-004	...........
	20	5.425	-7.55865E-002	-7.55000E-002	5.20183E-004	...........
	21	5.68333	-7.55583E-002	-7.54835E-002	5.21617E-004	...........
	22	5.94167	-7.55306E-002	-7.54681E-002	5.23283E-004	...........
	23	6.2	-7.55066E-002	-7.54599E-002	5.16350E-004	...........
	24	6.45833	-7.54875E-002	-7.54575E-002	5.17050E-004	...........
	25	6.71667	-7.54734E-002	-7.54516E-002	5.24117E-004	...........
	26	6.975	-7.54636E-002	-7.54415E-002	5.19583E-004	...........
	27	7.23333	-7.54563E-002	-7.54337E-002	5.19083E-004	...........
	28	7.49167	-7.54496E-002	-7.54296E-002	5.18983E-004	...........
	29	7.75	-7.54427E-002	-7.54216E-002	5.15217E-004	...........
	30	8.00833	-7.54358E-002	-7.54148E-002	5.13983E-004	...........
	31	8.26667	-7.54289E-002	-7.54015E-002	5.17417E-004	...........
	32	8.525	-7.54213E-002	-7.53898E-002	5.19417E-004	...........
	33	8.78333	-7.54126E-002	-7.53824E-002	5.21450E-004	...........
	34	9.04167	-7.54028E-002	-7.53754E-002	5.20150E-004	...........
	35	9.3	-7.53930E-002	-7.53647E-002	5.19950E-004	...........
	36	9.5583	-7.53836E-002	-7.53542E-002	5.26683E-004	...........
	37	9.8167	-7.53745E-002	-7.53471E-002	5.25550E-004	...........
	38	10.075	-7.53653E-002	-7.53367E-002	5.24383E-004	...........
EOC	QUANT	-0.0753653	Open Circuit (V)
PSTATMODEL	IQUANT	4	Pstat Model
PSTATSECTION	LABEL	REF600-11020	Pstat Section
PSTATSERIALNO	LABEL	11020	Pstat Serial Number
CTRLMODE	IQUANT	1	Control Mode
IESTAB	IQUANT	0	I/E Stability
CASPEED	IQUANT	1	Control Amp Speed
CONVENTION	IQUANT	1	Current Convention
ICHRANGE	IQUANT	2	Ich Range
ICHRANGEMODE	TOGGLE	F	Ich Auto Range
ICHOFFSETENABLE	TOGGLE	T	Ich Offset Enable
ICHOFFSET	QUANT	0	Ich Offset (V)
ICHFILTER	IQUANT	3	Ich Filter
VCHRANGE	IQUANT	2	Vch Range
VCHRANGEMODE	TOGGLE	F	Vch Auto Range
VCHOFFSETENABLE	TOGGLE	T	Vch Offset Enable
VCHOFFSET	QUANT	0	Vch Offset (V)
VCHFILTER	IQUANT	3	Vch Filter
ACHRANGE	IQUANT	2	Ach Range
ACHOFFSETENABLE	TOGGLE	F	Ach Offset Enable
ACHOFFSET	QUANT	0	Ach Offset (V)
ACHFILTER	IQUANT	3	Ach Filter
IERANGELOWERLIMIT	IQUANT	1	I/E Range Lower Limit
IERANGEMODE	TOGGLE	F	I/E AutoRange
IERANGE	IQUANT	8	I/E Range
POSFEEDENABLE	TOGGLE	F	Positive Feedback IR Comp
POSFEEDRESISTANCE	QUANT	0	Positive Feedback Resistance (ohm)
ACHSELECT	IQUANT	0	Ach Select
CABLEID	IQUANT	14	Cable ID
DCCALDATE	LABEL	6/26/2020	DC Calibration Date
ACCALDATE	LABEL	6/26/2020	AC Calibration Date
THERMOSELECT	IQUANT	1	Thermo Select
FRAMEWORKVERSION	QUANT	6.33	Framework Version
INSTRUMENTVERSION	LABEL	3.50	Instrument Version
ZCURVE	TABLE
	Pt	Time	Freq	Zreal	Zimag	Zsig	Zmod	Zphz	Idc	Vdc	IERange
	#	s	Hz	ohm	ohm	V	ohm	°	A	V	#
	0	2	1000078	1651.909	-1853.896	1	2483.09	-48.29745	1.057684E-007	-0.0729686	8
	1	2	794390.6	1930.639	-2016.943	1	2792.029	-46.25243	6.584324E-008	-0.0732957	8
	2	2	630984.4	2228.625	-2185.613	1	3121.486	-44.44173	9.527529E-008	-0.0734546	8
	3	3	501234.4	2544.402	-2356.349	1	3467.904	-42.80251	3.452813E-008	-0.073523	8
	4	3	398109.4	2879.72	-2543.654	1	3842.26	-41.45413	5.676375E-008	-0.0735571	8
	5	3	316265.6	3245.434	-2743.39	1	4249.591	-40.20809	8.455359E-008	-0.0736238	8
	6	4	251203.1	3638.923	-2970.551	1	4697.438	-39.22569	3.872858E-008	-0.0736085	8
	7	4	199546.9	4079.739	-3201.07	1	5185.665	-38.11866	2.346715E-008	-0.0736236	8
	8	4	158578.1	4568.372	-3430.153	1	5712.79	-36.90099	-2.606946E-008	-0.0735959	8
	9	4	125953.1	5164.784	-3633.745	1	6314.99	-35.12875	2.083695E-010	-0.0736175	7
	10	5	100078.1	5765.392	-3864.711	1	6940.875	-33.83511	9.346206E-010	-0.0736388	7
	11	5	79453.13	6408.376	-4062.12	1	7587.365	-32.36966	1.035407E-009	-0.0736412	7
	12	5	63140.62	7084.215	-4217.031	1	8244.359	-30.76413	6.423941E-010	-0.0736425	7
	13	6	50203.12	7794.043	-4335.63	1	8918.789	-29.08609	2.014605E-009	-0.0736402	7
	14	6	39890.62	8517.146	-4404.357	1	9588.54	-27.34423	1.291088E-009	-0.0736507	7
	15	6	31640.63	9248.604	-4426.045	1	10253.12	-25.57408	5.100292E-010	-0.0736498	7
	16	7	25171.88	9956.92	-4418.944	1	10893.46	-23.93194	2.130423E-009	-0.0736489	7
	17	7	20015.62	10638.93	-4371.201	1	11501.93	-22.33621	7.283343E-010	-0.0736598	7
	18	7	15890.62	11314.63	-4319.68	1	12111.18	-20.89577	2.382157E-009	-0.0736542	7
	19	8	12609.37	12013.94	-4161.836	1	12714.38	-19.10697	4.107197E-010	-0.0736756	6
	20	8	10078.13	12596.98	-4101.778	1	13247.96	-18.03608	4.818179E-010	-0.0736766	6
	21	8	8015.625	13165.3	-4044.263	1	13772.48	-17.07649	4.755532E-010	-0.0736724	6
	22	9	6328.125	13715.16	-3994.604	1	14285.04	-16.23845	3.386496E-010	-0.0736706	6
	23	9	5015.625	14225.33	-3968.582	1	14768.54	-15.58803	4.31332E-010	-0.0736778	6
	24	9	3984.375	14690.18	-3978.771	1	15219.46	-15.15473	3.960186E-010	-0.0736736	6
	25	10	3170.956	15117	-4039.321	1	15647.36	-14.96015	1.370797E-010	-0.073677	6
	26	10	2527.573	15515.17	-4171.075	1	16066.06	-15.04753	3.221023E-010	-0.0736763	6
	27	10	1976.103	15920.67	-4412.229	1	16520.76	-15.4901	1.141036E-010	-0.0736756	6
	28	10	1577.524	16287.1	-4746.262	1	16964.57	-16.24678	2.198968E-010	-0.0736806	6
	29	11	1265.625	16643.73	-5192.12	1	17434.79	-17.32565	2.224008E-010	-0.0736776	6
	30	11	998.264	17047.43	-5836.583	1	18018.89	-18.89984	2.361154E-010	-0.0736817	6
	31	11	796.875	17461.37	-6626.944	1	18676.61	-20.78277	1.620794E-010	-0.0736801	6
	32	12	627.7902	17948.24	-7686.325	1	19524.82	-23.18301	3.12694E-010	-0.0736811	6
	33	12	505.5147	18452.24	-8877.306	1	20476.61	-25.69204	3.973276E-011	-0.0736851	6
	34	12	397.9953	19107.47	-10498.9	1	21801.89	-28.78728	3.006208E-010	-0.0736525	6
	35	13	315.5048	19873.39	-12425.7	1	23438.21	-32.01539	2.349163E-010	-0.0736589	6
	36	13	252.4038	20763.28	-14661.59	1	25418.03	-35.22709	2.669252E-010	-0.0736604	6
	37	13	198.6229	21933.14	-17554.45	1	28093.08	-38.67245	2.333386E-010	-0.0736597	6
	38	14	158.3615	23310.32	-20833.46	1	31263.46	-41.78857	1.704685E-010	-0.0736651	6
	39	14	125.558	25049.25	-24832.32	1	35271.93	-44.75082	1.886482E-010	-0.0736673	6
	40	14	100.4464	27114.99	-29374.28	1	39975.88	-47.29033	2.338638E-010	-0.0736672	6
	41	15	79.00281	29886.77	-35155.67	1	46142.61	-49.63126	2.837915E-010	-0.0736645	6
	42	15	63.3446	33047.5	-41404.88	1	52976.42	-51.40472	7.583975E-011	-0.0736685	6
	43	15	49.86702	37311.25	-49313.66	1	61838.23	-52.88845	3.827499E-010	-0.0736701	6
	44	16	39.72458	42373.45	-58043.91	1	71865.19	-53.86966	2.550485E-010	-0.073663	6
	45	16	31.6723	48644.43	-68038.15	1	83638.92	-54.43682	-1.889083E-010	-0.0736669	6
	46	16	24.93351	56922.53	-79962.73	1	98154	-54.55434	1.06212E-009	-0.0736644	6
	47	17	19.86229	66486.49	-92544.86	1	113951.8	-54.30561	2.054824E-009	-0.0736678	5
	48	17	15.83615	78225.62	-106484.3	1	132129.3	-53.69821	-4.960518E-010	-0.0736736	5
	49	17	12.40079	93249.15	-122381.9	1	153859.5	-52.69434	8.882696E-010	-0.0736705	5
	50	17	9.93114	109222.4	-138015.3	1	176005	-51.64267	-3.156554E-010	-0.0736693	5
	51	18	7.944915	126792.6	-154536	1	199894.3	-50.63204	-1.068576E-009	-0.0736667	5
	52	18	6.317385	147442.1	-172408.1	1	226856.2	-49.46319	7.752428E-010	-0.0736764	5
	53	19	5.008013	170452	-191664.2	1	256493.7	-48.35247	2.43346E-010	-0.0736818	5
	54	20	3.945707	195759.9	-213410.7	1	289596.4	-47.4701	-1.800941E-010	-0.0736762	5
	55	21	3.158693	220761.5	-235095.4	1	322498.8	-46.80102	1.653903E-010	-0.0736933	5
	56	22	2.504006	248831.6	-261188.4	1	360744.4	-46.38789	6.023303E-010	-0.0736962	5
	57	23	1.998082	276591.7	-289263	1	400220	-46.28282	2.752618E-010	-0.0737143	5
	58	25	1.584686	308341.8	-323902.2	1	447199.4	-46.40984	9.392549E-011	-0.0737417	5
	59	27	1.266892	339722.2	-364054.8	1	497942.9	-46.98017	1.143462E-010	-0.0737234	5
	60	29	0.999041	375620.7	-414028.8	1	559026.6	-47.78464	1.219425E-010	-0.0736996	5
