EXPLAIN
TAG	EISPOT
TITLE	LABEL	Potentiostatic EIS	Test &Identifier
DATE	LABEL	1/10/2020	Date
TIME	LABEL	12:32:24	Time
NOTES	NOTES	5	&Notes...
	
	
	
	
	
PSTAT	PSTAT	REF600-11020	Potentiostat
VDC	POTEN	0.00000E+000	T	DC &Voltage (V)
FREQINIT	QUANT	1.00000E+006	Initial Fre&q. (Hz)
FREQFINAL	QUANT	1.00000E+000	Final Fre&q. (Hz)
PTSPERDEC	QUANT	1.00000E+001	Points/&decade
VAC	QUANT	2.50000E+001	AC &Voltage (mV rms)
AREA	QUANT	1.00000E-001	&Area (cm^2)
CONDIT	TWOPARAM	T	5.00000E+000	0.00000E+000	Conditionin&g	Time(s)	E(V)
DELAY	TWOPARAM	T	5.00000E+000	0.00000E+000	Init. De&lay	Time(s)	Stab.(mV/s)
SPEED	SELECTOR	0	&Optimize for:
ZGUESS	QUANT	5.00000E+002	E&stimated Z (ohms)
OCVCURVE	TABLE	19
	Pt	T	Vf	Vm	Ach	Over
	#	s	V vs. Ref.	V	V	bits
	0	0.258333	-2.43692E-002	-2.43692E-002	6.53780E-004	...........
	1	0.516667	-2.44029E-002	-2.61338E-002	6.47113E-004	...........
	2	0.775	-2.46088E-002	-2.77501E-002	6.49346E-004	...........
	3	1.03333	-2.51864E-002	-2.92274E-002	6.45880E-004	...........
	4	1.29167	-2.62059E-002	-3.06093E-002	6.49246E-004	...........
	5	1.55	-2.75368E-002	-3.18934E-002	6.46846E-004	...........
	6	1.80833	-2.89789E-002	-3.31067E-002	6.43613E-004	...........
	7	2.06667	-3.03925E-002	-3.42436E-002	6.45713E-004	...........
	8	2.325	-3.17206E-002	-3.53295E-002	6.50580E-004	...........
	9	2.58333	-3.29575E-002	-3.63679E-002	6.46113E-004	...........
	10	2.84167	-3.41160E-002	-3.73446E-002	6.49480E-004	...........
	11	3.1	-3.52103E-002	-3.83012E-002	6.49113E-004	...........
	12	3.35833	-3.62503E-002	-3.91854E-002	6.50446E-004	...........
	13	3.61667	-3.72422E-002	-4.00674E-002	6.47580E-004	...........
	14	3.875	-3.81900E-002	-4.08840E-002	6.46980E-004	...........
	15	4.13333	-3.90975E-002	-4.17025E-002	6.48946E-004	...........
	16	4.39167	-3.99680E-002	-4.24562E-002	6.51613E-004	...........
	17	4.65	-4.08045E-002	-4.32119E-002	6.50380E-004	...........
	18	4.90833	-4.16089E-002	-4.39160E-002	6.55079E-004	...........
EOC	QUANT	-0.0416089	Open Circuit (V)
PSTATMODEL	IQUANT	4	Pstat Model
PSTATSECTION	LABEL	REF600-11020	Pstat Section
PSTATSERIALNO	LABEL	11020	Pstat Serial Number
CTRLMODE	IQUANT	1	Control Mode
IESTAB	IQUANT	0	I/E Stability
CASPEED	IQUANT	1	Control Amp Speed
CONVENTION	IQUANT	1	Current Convention
ICHRANGE	IQUANT	2	Ich Range
ICHRANGEMODE	TOGGLE	F	Ich Auto Range
ICHOFFSETENABLE	TOGGLE	T	Ich Offset Enable
ICHOFFSET	QUANT	0	Ich Offset (V)
ICHFILTER	IQUANT	3	Ich Filter
VCHRANGE	IQUANT	2	Vch Range
VCHRANGEMODE	TOGGLE	F	Vch Auto Range
VCHOFFSETENABLE	TOGGLE	T	Vch Offset Enable
VCHOFFSET	QUANT	0	Vch Offset (V)
VCHFILTER	IQUANT	3	Vch Filter
ACHRANGE	IQUANT	2	Ach Range
ACHOFFSETENABLE	TOGGLE	F	Ach Offset Enable
ACHOFFSET	QUANT	0	Ach Offset (V)
ACHFILTER	IQUANT	3	Ach Filter
IERANGELOWERLIMIT	IQUANT	1	I/E Range Lower Limit
IERANGEMODE	TOGGLE	F	I/E AutoRange
IERANGE	IQUANT	8	I/E Range
POSFEEDENABLE	TOGGLE	F	Positive Feedback IR Comp
POSFEEDRESISTANCE	QUANT	0	Positive Feedback Resistance (ohm)
ACHSELECT	IQUANT	0	Ach Select
CABLEID	IQUANT	14	Cable ID
DCCALDATE	LABEL	12/22/2019	DC Calibration Date
ACCALDATE	LABEL	12/22/2019	AC Calibration Date
THERMOSELECT	IQUANT	1	Thermo Select
FRAMEWORKVERSION	QUANT	6.33	Framework Version
INSTRUMENTVERSION	LABEL	3.50	Instrument Version
ZCURVE	TABLE
	Pt	Time	Freq	Zreal	Zimag	Zsig	Zmod	Zphz	Idc	Vdc	IERange
	#	s	Hz	ohm	ohm	V	ohm	°	A	V	#
	0	1	1000078	2132.755	-1626.033	1	2681.907	-37.32225	-4.279877E-006	-0.0387786	8
	1	2	794390.6	2426.817	-1642.431	1	2930.362	-34.08951	2.405776E-006	-0.0398334	8
	2	2	630984.4	2718.178	-1653.287	1	3181.486	-31.30936	2.949901E-006	-0.0404505	8
	3	2	501234.4	3021.87	-1640.24	1	3438.326	-28.49265	-2.082563E-006	-0.0394892	8
	4	3	398109.4	3309.964	-1586.833	1	3670.681	-25.61356	1.19672E-006	-0.0401117	8
	5	3	316265.6	3582.76	-1509.974	1	3887.955	-22.85326	-9.155846E-007	-0.0397952	8
	6	3	251203.1	3841.658	-1420.411	1	4095.84	-20.29132	-1.970961E-006	-0.0394651	8
	7	4	199546.9	4070.786	-1297.402	1	4272.534	-17.67763	-2.235996E-006	-0.0396035	8
	8	4	158578.1	4233.12	-1184.293	1	4395.664	-15.62994	-7.701066E-007	-0.0398164	8
	9	4	125953.1	4419.982	-1046.237	1	4542.12	-13.31715	-8.508571E-007	-0.0377948	7
	10	5	100078.1	4527.63	-932.6579	1	4622.693	-11.63969	2.872975E-008	-0.0400835	7
	11	5	79453.13	4633.907	-849.0289	1	4711.045	-10.38263	7.461882E-008	-0.0401235	7
	12	5	63140.62	4724.331	-779.0875	1	4788.14	-9.364343	4.951506E-009	-0.0400186	7
	13	6	50203.12	4801.137	-725.4618	1	4855.637	-8.59251	5.397882E-011	-0.0399422	7
	14	6	39890.62	4867.273	-683.5723	1	4915.041	-7.994477	2.989241E-008	-0.0400888	7
	15	6	31640.63	4934.123	-661.95	1	4978.327	-7.64104	-2.337422E-008	-0.039993	7
	16	7	25171.88	4992.513	-652.0304	1	5034.911	-7.440809	-2.840457E-008	-0.0399496	7
	17	7	20015.62	5052.516	-657.5853	1	5095.129	-7.415367	4.777922E-008	-0.0401239	7
	18	7	15890.62	5115.159	-680.6672	1	5160.248	-7.579741	8.267588E-009	-0.0399998	7
	19	8	12609.37	5173.02	-715.5733	1	5222.277	-7.87563	-1.123507E-008	-0.0399419	7
	20	8	10078.13	5235.544	-762.8796	1	5290.833	-8.290317	2.784683E-008	-0.0399816	7
	21	8	8015.625	5301.461	-832.302	1	5366.397	-8.922314	2.867663E-008	-0.0399844	7
	22	8	6328.125	5374.503	-924.2789	1	5453.4	-9.75798	-1.407919E-008	-0.0400177	7
	23	9	5015.625	5445.516	-1039.404	1	5543.826	-10.80626	2.928297E-008	-0.0400974	7
	24	9	3984.375	5520.276	-1180.231	1	5645.032	-12.06811	-6.901661E-009	-0.0400321	7
	25	9	3170.956	5603.67	-1360.096	1	5766.366	-13.64274	-1.77875E-008	-0.0399614	7
	26	10	2527.573	5689.075	-1577.664	1	5903.778	-15.49947	-2.256003E-008	-0.0399896	7
	27	10	1976.103	5797.103	-1870.998	1	6091.555	-17.88733	7.461546E-008	-0.0401373	7
	28	10	1577.524	5902.591	-2207.28	1	6301.798	-20.50334	1.02326E-008	-0.0400021	7
	29	11	1265.625	6025.875	-2612.045	1	6567.645	-23.43535	2.943568E-008	-0.0399923	7
	30	11	998.264	6172.93	-3140.601	1	6925.925	-26.96562	5.046969E-008	-0.0400953	7
	31	11	796.875	6343.761	-3766.593	1	7377.705	-30.69962	-1.093324E-008	-0.0399472	7
	32	12	627.7902	6560.954	-4575.359	1	7998.751	-34.89045	-1.144568E-008	-0.039944	7
	33	12	505.5147	6795.648	-5452.167	1	8712.46	-38.74017	4.692135E-008	-0.0401268	7
	34	12	397.9953	7106.547	-6644.698	1	9729.08	-43.07639	8.911561E-009	-0.0400155	7
	35	13	315.5048	7476.349	-8051.574	1	10987.43	-47.12153	2.610338E-009	-0.0400126	6
	36	13	252.4038	7896.344	-9692.66	1	12502	-50.83125	3.417314E-009	-0.0400185	6
	37	13	198.6229	8442.664	-11835.59	1	14538.22	-54.49866	3.189944E-009	-0.0400143	6
	38	14	158.3615	9055.294	-14313.33	1	16937.23	-57.68061	3.534518E-009	-0.0400195	6
	39	14	125.558	9817.98	-17403.31	1	19981.69	-60.57072	3.281011E-009	-0.0400158	6
	40	14	100.4464	10721.66	-21015.6	1	23592.57	-62.9704	3.78857E-009	-0.0400194	6
	41	15	79.00281	11942.73	-25811.18	1	28440.21	-65.17021	3.178226E-009	-0.0400188	6
	42	15	63.3446	13013.69	-31197.86	1	33803.29	-67.35733	2.480953E-009	-0.040021	6
	43	15	49.86702	14934.5	-38222.84	1	41036.87	-68.65832	2.299215E-009	-0.0400216	6
	44	16	39.72458	17425.31	-46504.35	1	49661.81	-69.45889	2.750843E-009	-0.0400175	6
	45	16	31.6723	20520.58	-56337.49	1	59958.38	-69.98617	2.239961E-009	-0.0400176	6
	46	16	24.93351	24372.74	-68848.3	1	73035.05	-70.50571	3.234524E-009	-0.04002	6
	47	17	19.86229	29363.75	-83366.92	1	88387.07	-70.59656	2.643495E-009	-0.0400192	6
	48	17	15.83615	36255.59	-99820	1	106200.3	-70.03848	3.928375E-009	-0.0400277	5
	49	17	12.40079	43636.77	-122190.8	1	129748.9	-70.34734	2.793119E-009	-0.0400196	5
	50	18	9.93114	54800.8	-145359.3	1	155346.2	-69.34344	2.841902E-009	-0.0400275	5
	51	18	7.944915	67683.5	-172795.6	1	185578.5	-68.60987	2.485971E-009	-0.0400222	5
	52	19	6.317385	84223.55	-205493.4	1	222083.6	-67.71323	2.369942E-009	-0.0400235	5
	53	20	5.008013	105506.5	-243968.3	1	265804.7	-66.61346	2.469199E-009	-0.0400123	5
	54	21	3.945707	132739	-290017	1	318950.6	-65.40672	1.990008E-009	-0.0400299	5
	55	22	3.158693	164649	-337525.8	1	375543.5	-63.99633	2.3038E-009	-0.0400344	5
	56	24	2.504006	205047	-393975.9	1	444141.1	-62.50503	2.341445E-009	-0.0400253	5
	57	25	1.998082	252674	-453941.2	1	519525.5	-60.89869	2.068421E-009	-0.0400689	5
	58	27	1.584686	309159.4	-522324	1	606961.3	-59.37905	2.035288E-009	-0.0400609	5
	59	29	1.266892	373617.4	-592214.4	1	700219.9	-57.75291	2.044586E-009	-0.0400231	5
	60	31	0.999041	453399.5	-673461.1	1	811862.7	-56.05007	2.048127E-009	-0.0400008	5
