EXPLAIN
TAG	EISPOT
TITLE	LABEL	Potentiostatic EIS	Test &Identifier
DATE	LABEL	2/21/2020	Date
TIME	LABEL	15:53:23	Time
NOTES	NOTES	1	&Notes...
	
PSTAT	PSTAT	REF600-11020	Potentiostat
VDC	POTEN	0.00000E+000	T	DC &Voltage (V)
FREQINIT	QUANT	1.00000E+006	Initial Fre&q. (Hz)
FREQFINAL	QUANT	1.00000E+000	Final Fre&q. (Hz)
PTSPERDEC	QUANT	1.00000E+001	Points/&decade
VAC	QUANT	2.50000E+001	AC &Voltage (mV rms)
AREA	QUANT	2.08200E-005	&Area (cm^2)
CONDIT	TWOPARAM	F	1.50000E+001	0.00000E+000	Conditionin&g	Time(s)	E(V)
DELAY	TWOPARAM	F	1.00000E+002	0.00000E+000	Init. De&lay	Time(s)	Stab.(mV/s)
SPEED	SELECTOR	1	&Optimize for:
ZGUESS	QUANT	2.00000E+003	E&stimated Z (ohms)
OCVCURVE	TABLE	39
	Pt	T	Vf	Vm	Ach	Over
	#	s	V vs. Ref.	V	V	bits
	0	0.258333	3.55942E-002	3.55942E-002	5.65238E-004	...........
	1	0.516667	3.55932E-002	3.55398E-002	5.66538E-004	...........
	2	0.775	3.55927E-002	3.57987E-002	5.68804E-004	...........
	3	1.03333	3.56077E-002	3.58633E-002	5.65704E-004	...........
	4	1.29167	3.56581E-002	3.59728E-002	5.64504E-004	...........
	5	1.55	3.57559E-002	3.66509E-002	5.61704E-004	...........
	6	1.80833	3.59146E-002	3.65486E-002	5.63938E-004	...........
	7	2.06667	3.61280E-002	3.65479E-002	5.67204E-004	...........
	8	2.325	3.63376E-002	3.65716E-002	5.65004E-004	...........
	9	2.58333	3.64797E-002	3.65087E-002	5.68304E-004	...........
	10	2.84167	3.65436E-002	3.65684E-002	5.66104E-004	...........
	11	3.1	3.65571E-002	3.64859E-002	5.64671E-004	...........
	12	3.35833	3.65526E-002	3.67243E-002	5.67371E-004	...........
	13	3.61667	3.65579E-002	3.66740E-002	5.67004E-004	...........
	14	3.875	3.65859E-002	3.66524E-002	5.63604E-004	...........
	15	4.13333	3.66215E-002	3.65147E-002	5.64204E-004	...........
	16	4.39167	3.66342E-002	3.65101E-002	5.67271E-004	...........
	17	4.65	3.66124E-002	3.65192E-002	5.65104E-004	...........
	18	4.90833	3.65731E-002	3.65230E-002	5.67504E-004	...........
	19	5.16667	3.65398E-002	3.64965E-002	5.66271E-004	...........
	20	5.425	3.65208E-002	3.65055E-002	5.63371E-004	...........
	21	5.68333	3.65112E-002	3.64898E-002	5.64304E-004	...........
	22	5.94167	3.65050E-002	3.64860E-002	5.63671E-004	...........
	23	6.2	3.64993E-002	3.64863E-002	5.57104E-004	...........
	24	6.45833	3.64940E-002	3.64938E-002	5.65204E-004	...........
	25	6.71667	3.64901E-002	3.64755E-002	5.64504E-004	...........
	26	6.975	3.64877E-002	3.64805E-002	5.62871E-004	...........
	27	7.23333	3.64852E-002	3.64742E-002	5.60371E-004	...........
	28	7.49167	3.64821E-002	3.64786E-002	5.63171E-004	...........
	29	7.75	3.64794E-002	3.64759E-002	5.55204E-004	...........
	30	8.00833	3.64776E-002	3.64741E-002	5.56071E-004	...........
	31	8.26667	3.64764E-002	3.64655E-002	5.63171E-004	...........
	32	8.525	3.64746E-002	3.64596E-002	5.62638E-004	...........
	33	8.78333	3.64713E-002	3.64577E-002	5.58504E-004	...........
	34	9.04167	3.64669E-002	3.64551E-002	5.63638E-004	...........
	35	9.3	3.64623E-002	3.64539E-002	5.63904E-004	...........
	36	9.5583	3.64587E-002	3.64570E-002	5.64604E-004	...........
	37	9.8167	3.64566E-002	3.64633E-002	5.62004E-004	...........
	38	10.075	3.64562E-002	3.64487E-002	5.62371E-004	...........
EOC	QUANT	0.0364562	Open Circuit (V)
PSTATMODEL	IQUANT	4	Pstat Model
PSTATSECTION	LABEL	REF600-11020	Pstat Section
PSTATSERIALNO	LABEL	11020	Pstat Serial Number
CTRLMODE	IQUANT	1	Control Mode
IESTAB	IQUANT	0	I/E Stability
CASPEED	IQUANT	1	Control Amp Speed
CONVENTION	IQUANT	1	Current Convention
ICHRANGE	IQUANT	2	Ich Range
ICHRANGEMODE	TOGGLE	F	Ich Auto Range
ICHOFFSETENABLE	TOGGLE	T	Ich Offset Enable
ICHOFFSET	QUANT	0	Ich Offset (V)
ICHFILTER	IQUANT	3	Ich Filter
VCHRANGE	IQUANT	2	Vch Range
VCHRANGEMODE	TOGGLE	F	Vch Auto Range
VCHOFFSETENABLE	TOGGLE	T	Vch Offset Enable
VCHOFFSET	QUANT	0	Vch Offset (V)
VCHFILTER	IQUANT	3	Vch Filter
ACHRANGE	IQUANT	2	Ach Range
ACHOFFSETENABLE	TOGGLE	F	Ach Offset Enable
ACHOFFSET	QUANT	0	Ach Offset (V)
ACHFILTER	IQUANT	3	Ach Filter
IERANGELOWERLIMIT	IQUANT	1	I/E Range Lower Limit
IERANGEMODE	TOGGLE	F	I/E AutoRange
IERANGE	IQUANT	7	I/E Range
POSFEEDENABLE	TOGGLE	F	Positive Feedback IR Comp
POSFEEDRESISTANCE	QUANT	0	Positive Feedback Resistance (ohm)
ACHSELECT	IQUANT	0	Ach Select
CABLEID	IQUANT	14	Cable ID
DCCALDATE	LABEL	1/27/2020	DC Calibration Date
ACCALDATE	LABEL	1/27/2020	AC Calibration Date
THERMOSELECT	IQUANT	1	Thermo Select
FRAMEWORKVERSION	QUANT	6.33	Framework Version
INSTRUMENTVERSION	LABEL	3.50	Instrument Version
ZCURVE	TABLE
	Pt	Time	Freq	Zreal	Zimag	Zsig	Zmod	Zphz	Idc	Vdc	IERange
	#	s	Hz	ohm	ohm	V	ohm	°	A	V	#
	0	1	1000078	1508.316	-1882.331	1	2412.092	-51.29474	1.167237E-006	0.0385283	8
	1	3	794390.6	1754.996	-2084.277	1	2724.742	-49.90206	-1.902005E-007	0.0383364	8
	2	4	630984.4	2021.752	-2295.55	1	3058.926	-48.62877	9.475132E-007	0.038084	8
	3	5	501234.4	2305.147	-2541.611	1	3431.252	-47.79314	1.666284E-007	0.0380679	8
	4	7	398109.4	2604.392	-2820.678	1	3839.151	-47.28305	6.184196E-007	0.0380054	8
	5	8	316265.6	2962.161	-3153.263	1	4326.369	-46.78986	-8.183923E-007	0.0382386	8
	6	9	251203.1	3355.873	-3530.379	1	4870.879	-46.45164	-1.390035E-006	0.0383382	8
	7	11	199546.9	3814.52	-3959.898	1	5498.305	-46.07128	2.229638E-006	0.0375801	8
	8	12	158578.1	4328.242	-4427.667	1	6191.762	-45.65058	-5.548748E-007	0.0381114	8
	9	13	125953.1	4998.514	-4919.375	1	7013.229	-44.54282	1.572842E-007	0.0376579	7
	10	15	100078.1	5737.351	-5456.521	1	7917.753	-43.56287	2.749757E-008	0.0379403	7
	11	16	79453.13	6556.577	-5991.166	1	8881.598	-42.41995	-9.501213E-009	0.0379967	7
	12	17	63140.62	7489.478	-6527.488	1	9934.81	-41.07393	1.344675E-008	0.0379902	7
	13	19	50203.12	8501.719	-7025.183	1	11028.71	-39.56777	5.482301E-008	0.0378821	7
	14	20	39890.62	9572.42	-7505.501	1	12164.04	-38.09912	2.15178E-009	0.0380076	7
	15	21	31640.63	10705.62	-7950.218	1	13334.78	-36.59835	-2.585938E-008	0.0380109	7
	16	23	25171.88	11846.47	-8404.147	1	14524.76	-35.35272	-8.217764E-009	0.0379858	7
	17	24	20015.62	13010.41	-8891.531	1	15758.49	-34.34935	-1.16637E-008	0.0380063	7
	18	26	15890.62	14195.13	-9394.503	1	17022.29	-33.49705	2.967365E-008	0.0379197	7
	19	27	12609.37	15456.12	-10013.52	1	18416.36	-32.93789	5.444287E-009	0.0379489	6
	20	28	10078.13	16705.99	-10710.39	1	19844.46	-32.66437	7.935343E-010	0.0379649	6
	21	30	8015.625	18038.29	-11537.07	1	21412.23	-32.60248	6.280436E-010	0.0379621	6
	22	31	6328.125	19544.8	-12538.08	1	23220.73	-32.68036	5.253946E-009	0.0379558	6
	23	32	5015.625	21198.16	-13712.17	1	25246.5	-32.89707	7.257167E-010	0.0380026	6
	24	34	3984.375	22968.91	-14938.22	1	27399.29	-33.03865	-2.270644E-010	0.0380119	6
	25	35	3170.956	24939.9	-16322.62	1	29806.49	-33.20387	2.363422E-009	0.0379094	6
	26	36	2527.573	27102.22	-17842.11	1	32447.97	-33.35798	1.653957E-009	0.037949	6
	27	38	1976.103	29645.11	-19585.24	1	35530.47	-33.45102	1.499405E-009	0.0379495	6
	28	39	1577.524	32152.91	-21350.24	1	38595.89	-33.58504	4.682936E-009	0.0379725	6
	29	40	1265.625	34713.19	-23096.35	1	41694.69	-33.63772	1.580509E-009	0.0379434	6
	30	42	998.264	37699.84	-25354.58	1	45432.73	-33.92234	1.682865E-009	0.0379428	6
	31	43	796.875	40555.37	-27632.33	1	49074.27	-34.2685	1.385171E-009	0.0379932	6
	32	44	627.7902	43717.72	-30563.04	1	53341.71	-34.95738	1.17221E-009	0.0379969	6
	33	46	505.5147	46617.48	-33644.38	1	57490.29	-35.81842	1.564256E-009	0.0379863	6
	34	47	397.9953	50021.27	-37768.52	1	62678.46	-37.0546	2.861406E-009	0.0379691	6
	35	48	315.5048	53633.94	-42982.89	1	68732.3	-38.70911	2.227182E-009	0.0379671	6
	36	50	252.4038	57557.55	-49147.27	1	75685.7	-40.49337	2.138848E-009	0.0379654	6
	37	51	198.6229	62608.7	-57344.8	1	84901.56	-42.48731	2.743066E-009	0.0379637	6
	38	53	158.3615	68650.69	-67069.8	1	95975.4	-44.33265	2.436901E-009	0.0379604	6
	39	54	125.558	76301.38	-78024.56	1	109131.7	-45.63973	1.820578E-009	0.0379625	5
	40	55	100.4464	85747.28	-89483.39	1	123935	-46.22142	1.532406E-009	0.0379659	5
	41	57	79.00281	98984.1	-103372.4	1	143121.3	-46.24231	1.165522E-009	0.0379608	5
	42	58	63.3446	116357.3	-118348.8	1	165968.2	-45.48614	1.52631E-009	0.03796	5
	43	60	49.86702	133759.5	-131691.5	1	187707.9	-44.55364	1.199998E-009	0.0379548	5
	44	62	39.72458	155530.2	-144768	1	212479.2	-42.9475	2.171929E-009	0.0379581	5
	45	63	31.6723	177458.3	-154756.9	1	235459.4	-41.09087	1.41496E-009	0.0379579	5
	46	65	24.93351	205541.3	-167099.3	1	264895	-39.11014	1.311712E-009	0.0379524	5
	47	66	19.86229	231002.8	-174570.4	1	289546.4	-37.07859	2.612573E-009	0.0379697	5
	48	68	15.83615	257158	-181674.9	1	314858.8	-35.24013	7.318002E-010	0.0379591	5
	49	69	12.40079	284733.4	-193573.1	1	344301.7	-34.20943	1.100538E-009	0.0379656	5
	50	70	9.93114	303298.9	-198128.9	1	362277.9	-33.15443	6.299744E-010	0.0379693	5
	51	72	7.944915	321811.4	-205397	1	381772.8	-32.54816	1.198729E-009	0.0379628	5
	52	74	6.317385	347495.8	-224100.3	1	413490.3	-32.81799	5.098837E-010	0.0379806	5
	53	76	5.008013	367775.3	-244744.8	1	441767.7	-33.64273	2.251436E-010	0.0379615	5
	54	78	3.945707	395350.2	-273853.9	1	480934.3	-34.70984	5.783075E-010	0.0379692	5
	55	81	3.158693	418594.7	-306121.4	1	518586.4	-36.17828	1.353658E-010	0.037961	5
	56	85	2.504006	439577.5	-347335.2	1	560241.1	-38.31427	3.799293E-010	0.0379599	5
	57	88	1.998082	473055.1	-399430.7	1	619133.3	-40.17654	1.018992E-010	0.0380041	5
	58	93	1.584686	500980.9	-462989.7	1	682159.3	-42.74308	2.011663E-010	0.0379899	5
	59	99	1.266892	544475.1	-536873.7	1	764648	-44.59724	5.863932E-011	0.037993	5
	60	105	0.999041	605007.8	-631596.1	1	874613.1	-46.23173	2.145349E-010	0.0379447	5
