EXPLAIN
TAG	EISPOT
TITLE	LABEL	Potentiostatic EIS	Test &Identifier
DATE	LABEL	7/13/2020	Date
TIME	LABEL	20:27:36	Time
NOTES	NOTES	1	&Notes...
	
PSTAT	PSTAT	REF600-11020	Potentiostat
VDC	POTEN	0.00000E+000	T	DC &Voltage (V)
FREQINIT	QUANT	1.00000E+006	Initial Fre&q. (Hz)
FREQFINAL	QUANT	1.00000E+000	Final Fre&q. (Hz)
PTSPERDEC	QUANT	1.00000E+001	Points/&decade
VAC	QUANT	2.50000E+001	AC &Voltage (mV rms)
AREA	QUANT	4.00000E-004	&Area (cm^2)
CONDIT	TWOPARAM	F	5.00000E+000	0.00000E+000	Conditionin&g	Time(s)	E(V)
DELAY	TWOPARAM	F	3.00000E+000	0.00000E+000	Init. De&lay	Time(s)	Stab.(mV/s)
SPEED	SELECTOR	0	&Optimize for:
ZGUESS	QUANT	1.00000E+003	E&stimated Z (ohms)
OCVCURVE	TABLE	39
	Pt	T	Vf	Vm	Ach	Over
	#	s	V vs. Ref.	V	V	bits
	0	0.258333	1.81055E-001	1.81055E-001	5.35816E-004	...........
	1	0.516667	1.81055E-001	1.81018E-001	5.40716E-004	...........
	2	0.775	1.81050E-001	1.80984E-001	5.40416E-004	...........
	3	1.03333	1.81038E-001	1.80940E-001	5.38316E-004	...........
	4	1.29167	1.81015E-001	1.80899E-001	5.40816E-004	...........
	5	1.55	1.80982E-001	1.80865E-001	5.39083E-004	...........
	6	1.80833	1.80945E-001	1.80819E-001	5.37516E-004	...........
	7	2.06667	1.80905E-001	1.80790E-001	5.39216E-004	...........
	8	2.325	1.80866E-001	1.80748E-001	5.36850E-004	...........
	9	2.58333	1.80827E-001	1.80713E-001	5.40216E-004	...........
	10	2.84167	1.80790E-001	1.80680E-001	5.36350E-004	...........
	11	3.1	1.80753E-001	1.80654E-001	5.41283E-004	...........
	12	3.35833	1.80718E-001	1.80615E-001	5.39550E-004	...........
	13	3.61667	1.80685E-001	1.80585E-001	5.41350E-004	...........
	14	3.875	1.80652E-001	1.80554E-001	5.38916E-004	...........
	15	4.13333	1.80620E-001	1.80529E-001	5.40483E-004	...........
	16	4.39167	1.80589E-001	1.80502E-001	5.37150E-004	...........
	17	4.65	1.80559E-001	1.80476E-001	5.38683E-004	...........
	18	4.90833	1.80531E-001	1.80449E-001	5.37683E-004	...........
	19	5.16667	1.80504E-001	1.80422E-001	5.37350E-004	...........
	20	5.425	1.80477E-001	1.80390E-001	5.34750E-004	...........
	21	5.68333	1.80450E-001	1.80365E-001	5.39750E-004	...........
	22	5.94167	1.80423E-001	1.80341E-001	5.34317E-004	...........
	23	6.2	1.80395E-001	1.80313E-001	5.37183E-004	...........
	24	6.45833	1.80368E-001	1.80289E-001	5.37783E-004	...........
	25	6.71667	1.80342E-001	1.80261E-001	5.40183E-004	...........
	26	6.975	1.80316E-001	1.80238E-001	5.35550E-004	...........
	27	7.23333	1.80290E-001	1.80212E-001	5.39150E-004	...........
	28	7.49167	1.80265E-001	1.80188E-001	5.40383E-004	...........
	29	7.75	1.80239E-001	1.80159E-001	5.38883E-004	...........
	30	8.00833	1.80214E-001	1.80144E-001	5.38716E-004	...........
	31	8.26667	1.80190E-001	1.80121E-001	5.34283E-004	...........
	32	8.525	1.80166E-001	1.80100E-001	5.37216E-004	...........
	33	8.78333	1.80144E-001	1.80078E-001	5.38450E-004	...........
	34	9.04167	1.80123E-001	1.80071E-001	5.42283E-004	...........
	35	9.3	1.80103E-001	1.80046E-001	5.39983E-004	...........
	36	9.5583	1.80085E-001	1.80032E-001	5.34983E-004	...........
	37	9.8167	1.80067E-001	1.80004E-001	5.38083E-004	...........
	38	10.075	1.80049E-001	1.79990E-001	5.33983E-004	...........
EOC	QUANT	0.1800488	Open Circuit (V)
PSTATMODEL	IQUANT	4	Pstat Model
PSTATSECTION	LABEL	REF600-11020	Pstat Section
PSTATSERIALNO	LABEL	11020	Pstat Serial Number
CTRLMODE	IQUANT	1	Control Mode
IESTAB	IQUANT	0	I/E Stability
CASPEED	IQUANT	1	Control Amp Speed
CONVENTION	IQUANT	1	Current Convention
ICHRANGE	IQUANT	2	Ich Range
ICHRANGEMODE	TOGGLE	F	Ich Auto Range
ICHOFFSETENABLE	TOGGLE	T	Ich Offset Enable
ICHOFFSET	QUANT	0	Ich Offset (V)
ICHFILTER	IQUANT	3	Ich Filter
VCHRANGE	IQUANT	2	Vch Range
VCHRANGEMODE	TOGGLE	F	Vch Auto Range
VCHOFFSETENABLE	TOGGLE	T	Vch Offset Enable
VCHOFFSET	QUANT	0	Vch Offset (V)
VCHFILTER	IQUANT	3	Vch Filter
ACHRANGE	IQUANT	2	Ach Range
ACHOFFSETENABLE	TOGGLE	F	Ach Offset Enable
ACHOFFSET	QUANT	0	Ach Offset (V)
ACHFILTER	IQUANT	3	Ach Filter
IERANGELOWERLIMIT	IQUANT	1	I/E Range Lower Limit
IERANGEMODE	TOGGLE	F	I/E AutoRange
IERANGE	IQUANT	8	I/E Range
POSFEEDENABLE	TOGGLE	F	Positive Feedback IR Comp
POSFEEDRESISTANCE	QUANT	0	Positive Feedback Resistance (ohm)
ACHSELECT	IQUANT	0	Ach Select
CABLEID	IQUANT	14	Cable ID
DCCALDATE	LABEL	6/26/2020	DC Calibration Date
ACCALDATE	LABEL	6/26/2020	AC Calibration Date
THERMOSELECT	IQUANT	1	Thermo Select
FRAMEWORKVERSION	QUANT	6.33	Framework Version
INSTRUMENTVERSION	LABEL	3.50	Instrument Version
ZCURVE	TABLE
	Pt	Time	Freq	Zreal	Zimag	Zsig	Zmod	Zphz	Idc	Vdc	IERange
	#	s	Hz	ohm	ohm	V	ohm	°	A	V	#
	0	1	1000078	1408.427	-2084.027	1	2515.32	-55.94838	1.119171E-007	0.1823224	8
	1	1	794390.6	1645.834	-2368.371	1	2884.086	-55.2037	4.196123E-009	0.1820282	8
	2	2	630984.4	1912.012	-2692.616	1	3302.419	-54.62165	1.741319E-007	0.1818631	8
	3	2	501234.4	2200.748	-3068.679	1	3776.253	-54.35324	6.157733E-009	0.1817614	8
	4	2	398109.4	2530.895	-3494.688	1	4314.89	-54.08749	7.035023E-008	0.1817077	8
	5	3	316265.6	2894.45	-3995.578	1	4933.811	-54.07993	5.422767E-008	0.1816823	8
	6	3	251203.1	3315.014	-4579.843	1	5653.696	-54.10196	3.237321E-008	0.181653	8
	7	3	199546.9	3794.158	-5250.046	1	6477.547	-54.14472	8.953045E-009	0.1816488	8
	8	4	158578.1	4354.444	-6021.092	1	7430.662	-54.1256	-3.140224E-008	0.1816518	8
	9	4	125953.1	5089.183	-6870.308	1	8549.907	-53.47079	-1.404412E-008	0.1816762	7
	10	4	100078.1	5781.099	-7921.408	1	9806.62	-53.87777	-4.905239E-009	0.1816308	7
	11	5	79453.13	6574.653	-9119.542	1	11242.42	-54.21062	-8.394942E-009	0.1816434	7
	12	5	63140.62	7451.306	-10537.98	1	12906.24	-54.73624	1.083597E-008	0.1816064	7
	13	5	50203.12	8484.913	-12182.14	1	14845.82	-55.14263	-1.020738E-008	0.1816352	7
	14	6	39890.62	9669.29	-14138.43	1	17128.64	-55.63174	-1.277116E-008	0.1816318	7
	15	6	31640.63	11050.38	-16443.8	1	19811.86	-56.09856	8.95618E-009	0.1816027	7
	16	6	25171.88	12691.73	-19073.51	1	22910.23	-56.35975	-9.990622E-009	0.181623	7
	17	7	20015.62	14613.81	-22130.28	1	26520.04	-56.56107	-8.578139E-010	0.1816185	7
	18	7	15890.62	16851.11	-25780.05	1	30798.88	-56.82939	9.390145E-009	0.1815932	7
	19	7	12609.37	20055.65	-29725.3	1	35858.37	-55.99247	1.888427E-009	0.1815739	6
	20	7	10078.13	23055.66	-34286.15	1	41317.11	-56.08121	3.833906E-010	0.1816197	6
	21	8	8015.625	26600.66	-39610.9	1	47713.93	-56.1167	9.581476E-010	0.1816165	6
	22	8	6328.125	30762.64	-45976.92	1	55319.23	-56.21396	1.707449E-009	0.1815705	6
	23	8	5015.625	35490.48	-53159.04	1	63917.59	-56.2718	2.875099E-009	0.1815722	6
	24	9	3984.375	40788.77	-61372.02	1	73690.23	-56.39139	-1.096383E-009	0.1816174	6
	25	9	3170.956	46669.94	-71045.59	1	85003.28	-56.69904	1.85065E-009	0.1815693	6
	26	9	2527.573	53482.28	-82209.05	1	98074.9	-56.95341	-7.114093E-010	0.1816164	6
	27	10	1976.103	62016.64	-96802.7	1	114964.4	-57.35434	9.908674E-010	0.1815647	6
	28	10	1577.524	71525.16	-112565	1	133366.9	-57.56764	8.943236E-010	0.1816047	6
	29	10	1265.625	85794.22	-129727.2	1	155530.7	-56.52161	3.996834E-010	0.1815959	5
	30	11	998.264	100712.3	-153022.5	1	183190.8	-56.64895	2.971635E-010	0.181585	5
	31	11	796.875	119195.2	-178351	1	214514.8	-56.24449	7.156625E-010	0.1815537	5
	32	11	627.7902	144399.2	-208814	1	253878.7	-55.33534	3.64091E-010	0.1815969	5
	33	12	505.5147	173564.2	-238619.8	1	295066	-53.96909	2.256257E-010	0.1815927	5
	34	12	397.9953	214396.1	-272120.5	1	346432.2	-51.76642	4.627109E-010	0.1815964	5
	35	12	315.5048	263230.5	-303215.3	1	401534.3	-49.03776	4.296488E-010	0.1815964	5
	36	13	252.4038	318187.7	-329072.5	1	457746.8	-45.96344	4.620053E-010	0.1815957	5
	37	13	198.6229	384094.3	-349544.9	1	519336.2	-42.30375	4.511849E-010	0.1815972	5
	38	13	158.3615	449884.9	-361364	1	577044.6	-38.77271	4.127934E-010	0.1815939	5
	39	14	125.558	516838	-362278.9	1	631163.6	-35.02863	4.395155E-010	0.1815926	5
	40	14	100.4464	579781.8	-359288.3	1	682081.4	-31.78632	4.337619E-010	0.1815898	5
	41	14	79.00281	642437.3	-350222.5	1	731697.7	-28.59686	4.736304E-010	0.1815891	5
	42	15	63.3446	696198.7	-338490.3	1	774124.2	-25.92892	4.777534E-010	0.1815865	5
	43	15	49.86702	748422.4	-322706.4	1	815031	-23.32484	3.670039E-010	0.1815847	5
	44	15	39.72458	795191.7	-309267.1	1	853215.1	-21.25213	2.685179E-010	0.1815884	5
	45	16	31.6723	837301.1	-295387.7	1	887877.8	-19.4321	3.110812E-010	0.1815878	5
	46	16	24.93351	881981.1	-282091.5	1	925994.8	-17.73628	1.50715E-010	0.1815842	4
	47	16	19.86229	915108.1	-273609.8	1	955136	-16.64623	-6.920589E-011	0.1815824	4
	48	17	15.83615	942156.1	-265298.2	1	978796	-15.72649	4.353916E-010	0.1815839	4
	49	17	12.40079	976351	-266509.9	1	1012072	-15.2678	-3.445459E-011	0.1815847	4
	50	17	9.93114	1005582	-268012.9	1	1040685	-14.92385	2.898296E-012	0.1815784	4
	51	17	7.944915	1025680	-272624.8	1	1061293	-14.885	8.064026E-010	0.1815809	4
	52	18	6.317385	1064475	-284755.6	1	1101905	-14.97641	5.409124E-011	0.1816002	4
	53	19	5.008013	1098193	-301525.9	1	1138835	-15.3531	-9.454541E-011	0.1815778	4
	54	20	3.945707	1122140	-321364.2	1	1167250	-15.98093	2.025807E-010	0.1815831	4
	55	20	3.158693	1161612	-349683.6	1	1213104	-16.75353	-3.743465E-011	0.1815825	4
	56	22	2.504006	1193342	-384758.2	1	1253835	-17.8704	2.390235E-011	0.1815789	4
	57	23	1.998082	1231125	-424657	1	1302306	-19.03106	2.917849E-010	0.1816228	4
	58	24	1.584686	1279627	-479201.8	1	1366412	-20.53019	1.946317E-010	0.1815869	4
	59	26	1.266892	1330480	-537144.5	1	1434818	-21.98503	9.857389E-011	0.1815483	4
	60	29	0.999041	1394475	-607882.4	1	1521210	-23.55346	1.438491E-011	0.1815331	4
