EXPLAIN
TAG	EISPOT
TITLE	LABEL	Potentiostatic EIS	Test &Identifier
DATE	LABEL	6/1/2020	Date
TIME	LABEL	14:01:16	Time
NOTES	NOTES	1	&Notes...
	
PSTAT	PSTAT	REF600-11020	Potentiostat
VDC	POTEN	0.00000E+000	T	DC &Voltage (V)
FREQINIT	QUANT	1.00000E+006	Initial Fre&q. (Hz)
FREQFINAL	QUANT	1.00000E+000	Final Fre&q. (Hz)
PTSPERDEC	QUANT	1.00000E+001	Points/&decade
VAC	QUANT	2.50000E+001	AC &Voltage (mV rms)
AREA	QUANT	4.00000E-004	&Area (cm^2)
CONDIT	TWOPARAM	F	5.00000E+000	0.00000E+000	Conditionin&g	Time(s)	E(V)
DELAY	TWOPARAM	T	3.00000E+000	0.00000E+000	Init. De&lay	Time(s)	Stab.(mV/s)
SPEED	SELECTOR	0	&Optimize for:
ZGUESS	QUANT	1.00000E+003	E&stimated Z (ohms)
OCVCURVE	TABLE	12
	Pt	T	Vf	Vm	Ach	Over
	#	s	V vs. Ref.	V	V	bits
	0	0.258333	-5.99184E-002	-5.99184E-002	5.87230E-004	...........
	1	0.516667	-5.99215E-002	-6.00771E-002	5.84397E-004	...........
	2	0.775	-5.99399E-002	-6.02194E-002	5.86863E-004	...........
	3	1.03333	-5.99914E-002	-6.03444E-002	5.83730E-004	...........
	4	1.29167	-6.00815E-002	-6.04631E-002	5.81963E-004	...........
	5	1.55	-6.01979E-002	-6.05713E-002	5.79130E-004	...........
	6	1.80833	-6.03226E-002	-6.06684E-002	5.82197E-004	...........
	7	2.06667	-6.04429E-002	-6.07526E-002	5.80397E-004	...........
	8	2.325	-6.05532E-002	-6.08350E-002	5.81597E-004	...........
	9	2.58333	-6.06526E-002	-6.09111E-002	5.78863E-004	...........
	10	2.84167	-6.07426E-002	-6.09827E-002	5.84097E-004	...........
	11	3.1	-6.08252E-002	-6.10511E-002	5.85130E-004	...........
EOC	QUANT	-0.0608252	Open Circuit (V)
PSTATMODEL	IQUANT	4	Pstat Model
PSTATSECTION	LABEL	REF600-11020	Pstat Section
PSTATSERIALNO	LABEL	11020	Pstat Serial Number
CTRLMODE	IQUANT	1	Control Mode
IESTAB	IQUANT	0	I/E Stability
CASPEED	IQUANT	1	Control Amp Speed
CONVENTION	IQUANT	1	Current Convention
ICHRANGE	IQUANT	2	Ich Range
ICHRANGEMODE	TOGGLE	F	Ich Auto Range
ICHOFFSETENABLE	TOGGLE	T	Ich Offset Enable
ICHOFFSET	QUANT	0	Ich Offset (V)
ICHFILTER	IQUANT	3	Ich Filter
VCHRANGE	IQUANT	2	Vch Range
VCHRANGEMODE	TOGGLE	F	Vch Auto Range
VCHOFFSETENABLE	TOGGLE	T	Vch Offset Enable
VCHOFFSET	QUANT	0	Vch Offset (V)
VCHFILTER	IQUANT	3	Vch Filter
ACHRANGE	IQUANT	2	Ach Range
ACHOFFSETENABLE	TOGGLE	F	Ach Offset Enable
ACHOFFSET	QUANT	0	Ach Offset (V)
ACHFILTER	IQUANT	3	Ach Filter
IERANGELOWERLIMIT	IQUANT	1	I/E Range Lower Limit
IERANGEMODE	TOGGLE	F	I/E AutoRange
IERANGE	IQUANT	8	I/E Range
POSFEEDENABLE	TOGGLE	F	Positive Feedback IR Comp
POSFEEDRESISTANCE	QUANT	0	Positive Feedback Resistance (ohm)
ACHSELECT	IQUANT	0	Ach Select
CABLEID	IQUANT	14	Cable ID
DCCALDATE	LABEL	2/27/2020	DC Calibration Date
ACCALDATE	LABEL	2/27/2020	AC Calibration Date
THERMOSELECT	IQUANT	1	Thermo Select
FRAMEWORKVERSION	QUANT	6.33	Framework Version
INSTRUMENTVERSION	LABEL	3.50	Instrument Version
ZCURVE	TABLE
	Pt	Time	Freq	Zreal	Zimag	Zsig	Zmod	Zphz	Idc	Vdc	IERange
	#	s	Hz	ohm	ohm	V	ohm	°	A	V	#
	0	1	1000078	1591.725	-2286.364	1	2785.866	-55.15506	-1.275147E-008	-0.0583229	8
	1	1	794390.6	1905.074	-2587.783	1	3213.398	-53.64024	1.990178E-008	-0.0586332	8
	2	1	630984.4	2255.644	-2901.953	1	3675.494	-52.14262	6.824085E-008	-0.0588238	8
	3	2	501234.4	2648.734	-3241.669	1	4186.193	-50.7481	1.62164E-008	-0.0589177	8
	4	2	398109.4	3079.576	-3612.547	1	4747.029	-49.55351	8.135878E-008	-0.0590353	8
	5	2	316265.6	3553.907	-4027.429	1	5371.261	-48.57399	1.793693E-008	-0.0590432	8
	6	3	251203.1	4098.009	-4491.823	1	6080.309	-47.62497	4.303253E-008	-0.059054	8
	7	3	199546.9	4725.993	-4993.65	1	6875.431	-46.5774	5.414133E-008	-0.0590604	8
	8	3	158578.1	5456.394	-5565.751	1	7794.217	-45.56845	5.211239E-008	-0.0590511	8
	9	4	125953.1	6463.31	-6062.036	1	8861.301	-43.16505	2.051028E-009	-0.0591205	7
	10	4	100078.1	7467.54	-6628.737	1	9985.2	-41.59461	2.173541E-009	-0.0591343	7
	11	4	79453.13	8648.151	-7163.126	1	11229.47	-39.63441	2.800498E-009	-0.0591359	7
	12	5	63140.62	9973.1	-7556.222	1	12512.37	-37.14975	2.287612E-009	-0.0591418	7
	13	5	50203.12	11409.48	-7843.655	1	13845.54	-34.50729	2.547342E-009	-0.0591441	7
	14	5	39890.62	12924.7	-7961.216	1	15179.88	-31.63179	3.788447E-009	-0.0591366	7
	15	6	31640.63	14459.81	-7866.911	1	16461.3	-28.54856	2.323702E-009	-0.0591498	7
	16	6	25171.88	15903.77	-7558.411	1	17608.51	-25.41983	2.971456E-009	-0.0591479	7
	17	6	20015.62	17244.61	-7095.873	1	18647.46	-22.36636	2.706113E-009	-0.0591504	7
	18	7	15890.62	18423.29	-6522.041	1	19543.65	-19.49451	3.363855E-009	-0.0591532	7
	19	7	12609.37	19562.9	-5612.523	1	20352.09	-16.00799	2.757778E-010	-0.0591011	6
	20	7	10078.13	20315.8	-5055.294	1	20935.32	-13.97344	3.817248E-010	-0.0590973	6
	21	7	8015.625	20830.87	-4483.338	1	21307.87	-12.14624	3.943839E-010	-0.0591015	6
	22	8	6328.125	21303.7	-4029.358	1	21681.41	-10.71034	3.615694E-010	-0.0591004	6
	23	8	5015.625	21640.83	-3686.055	1	21952.51	-9.66635	3.925058E-010	-0.0591017	6
	24	8	3984.375	21925.46	-3461.45	1	22197.01	-8.971441	3.885946E-010	-0.0591066	6
	25	9	3170.956	22143.96	-3359.583	1	22397.36	-8.626874	2.074805E-010	-0.0591014	6
	26	9	2527.573	22285.15	-3366.788	1	22538.04	-8.591143	3.962478E-010	-0.0590976	6
	27	9	1976.103	22464	-3530.272	1	22739.7	-8.931127	1.388742E-010	-0.059109	6
	28	10	1577.524	22680.35	-3823.096	1	23000.31	-9.56808	2.631094E-010	-0.0591024	6
	29	10	1265.625	22814.86	-4239.454	1	23205.4	-10.52663	8.214961E-011	-0.0591058	6
	30	10	998.264	23006.16	-4864.957	1	23514.91	-11.94005	1.98895E-010	-0.0591144	6
	31	11	796.875	23255.41	-5657.203	1	23933.62	-13.67243	1.884137E-010	-0.0591088	6
	32	11	627.7902	23486.81	-6727.795	1	24431.4	-15.98436	3.376287E-010	-0.0591024	6
	33	11	505.5147	23755.11	-7958.536	1	25052.81	-18.52209	4.11713E-010	-0.0591021	6
	34	12	397.9953	24278.35	-9640.21	1	26122.25	-21.65655	5.904935E-010	-0.0590888	6
	35	12	315.5048	24737.3	-11672.86	1	27353.06	-25.26134	5.94982E-010	-0.0590904	6
	36	12	252.4038	25318.44	-14068.68	1	28964.65	-29.0596	6.075621E-010	-0.0590887	6
	37	13	198.6229	26165.61	-17220.28	1	31323.75	-33.34998	5.136063E-010	-0.0590915	6
	38	13	158.3615	27159.72	-20864.61	1	34248.83	-37.53215	5.035852E-010	-0.0590953	6
	39	13	125.558	28395.86	-25399.75	1	38098.19	-41.81224	4.559348E-010	-0.0590959	6
	40	13	100.4464	29961.71	-30662.96	1	42870.98	-45.66271	5.768043E-010	-0.0590983	6
	41	14	79.00281	32085.12	-37526.51	1	49373.01	-49.46959	3.224858E-010	-0.0590994	6
	42	14	63.3446	34522.77	-45129.49	1	56819.82	-52.58505	5.340161E-010	-0.0591035	6
	43	14	49.86702	37832	-55027.15	1	66777.6	-55.49088	2.832773E-010	-0.0590993	6
	44	15	39.72458	41951.78	-66311.45	1	78467.57	-57.6806	4.130011E-010	-0.059099	6
	45	15	31.6723	47293.53	-79708.13	1	92682.6	-59.31791	5.593908E-010	-0.0591016	6
	46	15	24.93351	54584.64	-96431	1	110808	-60.48803	-2.212363E-010	-0.0591031	5
	47	16	19.86229	63669.96	-115192.7	1	131617.7	-61.06944	6.977313E-010	-0.0590936	5
	48	16	15.83615	75364.62	-136960.4	1	156326.5	-61.17752	-5.802872E-010	-0.0590973	5
	49	16	12.40079	91532.1	-163846.1	1	187679.7	-60.81023	-1.02546E-009	-0.0590939	5
	50	17	9.93114	109825.2	-191193.8	1	220491.8	-60.12616	-8.38735E-010	-0.0591005	5
	51	17	7.944915	132633.2	-221492	1	258167.2	-59.08611	5.97163E-010	-0.0591028	5
	52	17	6.317385	160953.9	-255591.7	1	302048.5	-57.80013	-1.378488E-010	-0.0590861	5
	53	18	5.008013	194849.9	-292700.5	1	351624.9	-56.34841	-3.293925E-010	-0.0591102	5
	54	19	3.945707	235269.9	-332500.4	1	407318.6	-54.71762	1.286669E-010	-0.0590932	5
	55	20	3.158693	277227.8	-373010.3	1	464749.3	-53.37962	-1.719406E-010	-0.0591137	5
	56	21	2.504006	325787.1	-417057.1	1	529220.1	-52.00458	1.202202E-010	-0.0591176	5
	57	22	1.998082	376649.7	-464864.6	1	598301.1	-50.98439	2.578476E-010	-0.0590843	5
	58	24	1.584686	432902.3	-517059.9	1	674355.6	-50.06264	1.26344E-010	-0.0591322	5
	59	26	1.266892	493522.8	-575449.7	1	758094.4	-49.38263	6.143504E-011	-0.0591525	5
	60	28	0.999041	562154.4	-647328	1	857351.2	-49.02821	2.282161E-011	-0.0591555	5
