EXPLAIN
TAG	EISPOT
TITLE	LABEL	Potentiostatic EIS	Test &Identifier
DATE	LABEL	3/20/2020	Date
TIME	LABEL	15:24:33	Time
NOTES	NOTES	1	&Notes...
	
PSTAT	PSTAT	REF600-11020	Potentiostat
VDC	POTEN	0.00000E+000	T	DC &Voltage (V)
FREQINIT	QUANT	1.00000E+006	Initial Fre&q. (Hz)
FREQFINAL	QUANT	1.00000E+000	Final Fre&q. (Hz)
PTSPERDEC	QUANT	1.00000E+001	Points/&decade
VAC	QUANT	2.50000E+001	AC &Voltage (mV rms)
AREA	QUANT	4.00000E-004	&Area (cm^2)
CONDIT	TWOPARAM	F	5.00000E+000	0.00000E+000	Conditionin&g	Time(s)	E(V)
DELAY	TWOPARAM	T	3.00000E+000	0.00000E+000	Init. De&lay	Time(s)	Stab.(mV/s)
SPEED	SELECTOR	0	&Optimize for:
ZGUESS	QUANT	1.00000E+003	E&stimated Z (ohms)
OCVCURVE	TABLE	12
	Pt	T	Vf	Vm	Ach	Over
	#	s	V vs. Ref.	V	V	bits
	0	0.258333	1.57156E-001	1.57156E-001	5.90830E-004	...........
	1	0.516667	1.57157E-001	1.57177E-001	5.93130E-004	...........
	2	0.775	1.57159E-001	1.57208E-001	5.88796E-004	...........
	3	1.03333	1.57168E-001	1.57240E-001	5.90230E-004	...........
	4	1.29167	1.57183E-001	1.57237E-001	5.89930E-004	...........
	5	1.55	1.57203E-001	1.57228E-001	5.83363E-004	...........
	6	1.80833	1.57220E-001	1.57220E-001	5.82463E-004	...........
	7	2.06667	1.57228E-001	1.57214E-001	5.80297E-004	...........
	8	2.325	1.57227E-001	1.57205E-001	5.79197E-004	...........
	9	2.58333	1.57222E-001	1.57198E-001	5.83063E-004	...........
	10	2.84167	1.57215E-001	1.57199E-001	5.83730E-004	...........
	11	3.1	1.57207E-001	1.57190E-001	5.84130E-004	...........
EOC	QUANT	0.1572075	Open Circuit (V)
PSTATMODEL	IQUANT	4	Pstat Model
PSTATSECTION	LABEL	REF600-11020	Pstat Section
PSTATSERIALNO	LABEL	11020	Pstat Serial Number
CTRLMODE	IQUANT	1	Control Mode
IESTAB	IQUANT	0	I/E Stability
CASPEED	IQUANT	1	Control Amp Speed
CONVENTION	IQUANT	1	Current Convention
ICHRANGE	IQUANT	2	Ich Range
ICHRANGEMODE	TOGGLE	F	Ich Auto Range
ICHOFFSETENABLE	TOGGLE	T	Ich Offset Enable
ICHOFFSET	QUANT	0	Ich Offset (V)
ICHFILTER	IQUANT	3	Ich Filter
VCHRANGE	IQUANT	2	Vch Range
VCHRANGEMODE	TOGGLE	F	Vch Auto Range
VCHOFFSETENABLE	TOGGLE	T	Vch Offset Enable
VCHOFFSET	QUANT	0	Vch Offset (V)
VCHFILTER	IQUANT	3	Vch Filter
ACHRANGE	IQUANT	2	Ach Range
ACHOFFSETENABLE	TOGGLE	F	Ach Offset Enable
ACHOFFSET	QUANT	0	Ach Offset (V)
ACHFILTER	IQUANT	3	Ach Filter
IERANGELOWERLIMIT	IQUANT	1	I/E Range Lower Limit
IERANGEMODE	TOGGLE	F	I/E AutoRange
IERANGE	IQUANT	8	I/E Range
POSFEEDENABLE	TOGGLE	F	Positive Feedback IR Comp
POSFEEDRESISTANCE	QUANT	0	Positive Feedback Resistance (ohm)
ACHSELECT	IQUANT	0	Ach Select
CABLEID	IQUANT	14	Cable ID
DCCALDATE	LABEL	2/27/2020	DC Calibration Date
ACCALDATE	LABEL	2/27/2020	AC Calibration Date
THERMOSELECT	IQUANT	1	Thermo Select
FRAMEWORKVERSION	QUANT	6.33	Framework Version
INSTRUMENTVERSION	LABEL	3.50	Instrument Version
ZCURVE	TABLE
	Pt	Time	Freq	Zreal	Zimag	Zsig	Zmod	Zphz	Idc	Vdc	IERange
	#	s	Hz	ohm	ohm	V	ohm	°	A	V	#
	0	1	1000078	1581.639	-2150.15	1	2669.219	-53.66199	1.594314E-007	0.1595484	8
	1	1	794390.6	1898.478	-2399.05	1	3059.356	-51.64381	1.533181E-007	0.1591746	8
	2	2	630984.4	2251.657	-2648.996	1	3476.656	-49.63534	-2.468588E-008	0.1590717	8
	3	2	501234.4	2635.698	-2911.495	1	3927.302	-47.84631	2.00248E-007	0.1589423	8
	4	2	398109.4	3056.106	-3185.531	1	4414.453	-46.1879	-4.770624E-008	0.1589184	8
	5	3	316265.6	3512.86	-3479.754	1	4944.58	-44.72874	1.466108E-007	0.1588573	8
	6	3	251203.1	4017.79	-3792.775	1	5525.195	-43.34982	2.157343E-007	0.1588529	8
	7	3	199546.9	4602.064	-4145.896	1	6194.146	-42.01498	2.933945E-007	0.1588432	8
	8	4	158578.1	5267.503	-4480.735	1	6915.459	-40.38573	2.9389E-007	0.1588322	8
	9	4	125953.1	6110.718	-4758.602	1	7745.009	-37.90898	2.587751E-008	0.1587357	7
	10	4	100078.1	6939.979	-5016.138	1	8562.998	-35.85897	3.194763E-009	0.1587849	7
	11	5	79453.13	7877.641	-5213.461	1	9446.555	-33.49678	8.676466E-009	0.1587746	7
	12	5	63140.62	8858.437	-5302.437	1	10324.13	-30.90368	7.693663E-009	0.1587736	7
	13	5	50203.12	9849.44	-5282.128	1	11176.42	-28.2041	1.280373E-008	0.1587757	7
	14	5	39890.62	10804.69	-5122.658	1	11957.55	-25.36629	8.025117E-009	0.1587685	7
	15	6	31640.63	11714.07	-4888.285	1	12693.1	-22.65079	9.070726E-009	0.1587662	7
	16	6	25171.88	12534.41	-4580.815	1	13345.24	-20.07529	-2.869597E-010	0.1587853	7
	17	6	20015.62	13252.46	-4211.687	1	13905.61	-17.63048	8.631609E-009	0.1587645	7
	18	7	15890.62	13834.51	-3802.226	1	14347.49	-15.36754	2.991925E-009	0.1587893	7
	19	7	12609.37	14434.69	-3306.875	1	14808.64	-12.90336	5.125346E-010	0.1588123	6
	20	7	10078.13	14813.71	-2984.204	1	15111.3	-11.38973	9.111888E-010	0.1588333	6
	21	8	8015.625	15095.54	-2695.052	1	15334.23	-10.12254	5.975452E-010	0.1588325	6
	22	8	6328.125	15351.25	-2476.077	1	15549.66	-9.162597	1.38107E-010	0.1588223	6
	23	8	5015.625	15525.35	-2329.761	1	15699.18	-8.534225	7.242844E-010	0.1588107	6
	24	9	3984.375	15664.64	-2265.592	1	15827.63	-8.229674	1.773332E-010	0.158823	6
	25	9	3170.956	15802	-2293.414	1	15967.56	-8.257929	-6.277709E-010	0.1588244	6
	26	9	2527.573	15910.41	-2401.296	1	16090.6	-8.58265	1.287382E-010	0.1588357	6
	27	10	1976.103	16001.41	-2624.927	1	16215.28	-9.316027	6.802026E-010	0.1588319	6
	28	10	1577.524	16104.57	-2941.386	1	16370.98	-10.35058	-4.577489E-010	0.1588225	6
	29	10	1265.625	16243.07	-3366.393	1	16588.25	-11.70885	4.75503E-010	0.1588038	6
	30	10	998.264	16390.77	-3967.341	1	16864.08	-13.60659	1.271799E-009	0.1587934	6
	31	11	796.875	16591.23	-4698.685	1	17243.74	-15.81228	1.688769E-009	0.1588023	6
	32	11	627.7902	16808.96	-5675.997	1	17741.43	-18.65863	-1.44356E-010	0.1588157	6
	33	11	505.5147	17040.71	-6775.297	1	18338.22	-21.68252	6.783348E-010	0.1588307	6
	34	12	397.9953	17416.74	-8271.59	1	19281.13	-25.40407	6.76251E-010	0.1588372	6
	35	12	315.5048	17868.03	-10062.15	1	20506.42	-29.38547	6.996531E-010	0.1588378	6
	36	12	252.4038	18384.56	-12164.09	1	22044.44	-33.4905	6.206295E-010	0.158834	6
	37	13	198.6229	19017.31	-14912.93	1	24167.2	-38.1027	6.270784E-010	0.158837	6
	38	13	158.3615	19878.69	-18084.35	1	26873.89	-42.2939	5.694401E-010	0.1588385	6
	39	13	125.558	20938.68	-22029.34	1	30392.76	-46.45403	6.827064E-010	0.1588423	6
	40	14	100.4464	22193.24	-26616.11	1	34654.82	-50.17773	5.370729E-010	0.1588384	6
	41	14	79.00281	23944.25	-32594.72	1	40444.32	-53.6988	6.665493E-010	0.158836	6
	42	14	63.3446	26042.81	-39273.71	1	47123.8	-56.45122	7.209259E-010	0.1588344	6
	43	15	49.86702	28853.4	-47982.26	1	55989.43	-58.98004	5.669114E-010	0.1588309	6
	44	15	39.72458	32351.63	-57946.73	1	66366.04	-60.8254	4.684598E-010	0.1588356	6
	45	15	31.6723	36806.55	-69799.25	1	78909.17	-62.19642	5.842371E-010	0.1588334	6
	46	16	24.93351	43014.59	-84762.96	1	95052.7	-63.09361	6.643178E-010	0.158831	6
	47	16	19.86229	50736.82	-101559	1	113527.3	-63.4542	-4.183227E-010	0.1588382	5
	48	16	15.83615	60672.25	-120980.8	1	135342.1	-63.3661	1.301111E-009	0.1588359	5
	49	17	12.40079	74812.76	-145102.9	1	163253.8	-62.72509	7.378866E-010	0.1588367	5
	50	17	9.93114	91266.01	-169816.8	1	192788.1	-61.74473	1.184076E-009	0.1588339	5
	51	17	7.944915	111596.8	-197577	1	226915.3	-60.54108	5.660057E-010	0.1588338	5
	52	18	6.317385	136808.8	-228102.2	1	265983.6	-59.04595	5.300669E-010	0.1588217	5
	53	18	5.008013	167536.4	-261600.2	1	310649.5	-57.36332	7.927849E-010	0.1588379	5
	54	19	3.945707	204622.5	-297367.9	1	360968.2	-55.46766	1.689595E-010	0.1588293	5
	55	20	3.158693	243525.5	-333109.7	1	412633.9	-53.83069	5.60665E-010	0.1588371	5
	56	21	2.504006	288515.8	-371477.8	1	470358.5	-52.16457	2.487829E-010	0.1588314	5
	57	23	1.998082	335942.7	-412199.5	1	531757.4	-50.81996	4.033536E-011	0.1587941	5
	58	24	1.584686	387274.1	-455814.6	1	598120.6	-49.64775	1.790376E-010	0.1588404	5
	59	26	1.266892	442207.7	-503162.3	1	669865.6	-48.68914	2.972203E-010	0.1588596	5
	60	29	0.999041	503434.1	-561685.4	1	754278.8	-48.13039	3.377534E-010	0.1588513	5
