EXPLAIN
TAG	EISPOT
TITLE	LABEL	Potentiostatic EIS	Test &Identifier
DATE	LABEL	2/13/2020	Date
TIME	LABEL	10:37:39	Time
NOTES	NOTES	1	&Notes...
	
PSTAT	PSTAT	REF600-11020	Potentiostat
VDC	POTEN	0.00000E+000	T	DC &Voltage (V)
FREQINIT	QUANT	1.00000E+006	Initial Fre&q. (Hz)
FREQFINAL	QUANT	1.00000E+000	Final Fre&q. (Hz)
PTSPERDEC	QUANT	1.00000E+001	Points/&decade
VAC	QUANT	2.50000E+001	AC &Voltage (mV rms)
AREA	QUANT	5.00000E-004	&Area (cm^2)
CONDIT	TWOPARAM	F	1.50000E+001	0.00000E+000	Conditionin&g	Time(s)	E(V)
DELAY	TWOPARAM	F	1.00000E+002	0.00000E+000	Init. De&lay	Time(s)	Stab.(mV/s)
SPEED	SELECTOR	0	&Optimize for:
ZGUESS	QUANT	1.00000E+003	E&stimated Z (ohms)
OCVCURVE	TABLE	39
	Pt	T	Vf	Vm	Ach	Over
	#	s	V vs. Ref.	V	V	bits
	0	0.258333	3.39124E-002	3.39124E-002	5.92604E-004	...........
	1	0.516667	3.39113E-002	3.38556E-002	5.93137E-004	...........
	2	0.775	3.39085E-002	3.40047E-002	5.87937E-004	...........
	3	1.03333	3.39084E-002	3.38816E-002	5.87371E-004	...........
	4	1.29167	3.39113E-002	3.37742E-002	5.88637E-004	...........
	5	1.55	3.39060E-002	3.39736E-002	5.92571E-004	...........
	6	1.80833	3.38916E-002	3.38324E-002	5.89871E-004	...........
	7	2.06667	3.38788E-002	3.37741E-002	5.95104E-004	...........
	8	2.325	3.38685E-002	3.39857E-002	5.91204E-004	...........
	9	2.58333	3.38605E-002	3.37662E-002	5.90937E-004	...........
	10	2.84167	3.38561E-002	3.37696E-002	5.90504E-004	...........
	11	3.1	3.38487E-002	3.39789E-002	5.93637E-004	...........
	12	3.35833	3.38404E-002	3.37251E-002	5.89004E-004	...........
	13	3.61667	3.38365E-002	3.37875E-002	5.95237E-004	...........
	14	3.875	3.38314E-002	3.39724E-002	5.89737E-004	...........
	15	4.13333	3.38272E-002	3.37016E-002	5.88737E-004	...........
	16	4.39167	3.38275E-002	3.38068E-002	5.87571E-004	...........
	17	4.65	3.38248E-002	3.39462E-002	5.94370E-004	...........
	18	4.90833	3.38218E-002	3.37153E-002	5.94504E-004	...........
	19	5.16667	3.38236E-002	3.38330E-002	5.96104E-004	...........
	20	5.425	3.38253E-002	3.39790E-002	5.96037E-004	...........
	21	5.68333	3.38310E-002	3.37573E-002	5.96237E-004	...........
	22	5.94167	3.38427E-002	3.38209E-002	5.92704E-004	...........
	23	6.2	3.38484E-002	3.39457E-002	5.93471E-004	...........
	24	6.45833	3.38474E-002	3.37430E-002	5.88604E-004	...........
	25	6.71667	3.38454E-002	3.38255E-002	5.94504E-004	...........
	26	6.975	3.38407E-002	3.39575E-002	5.93471E-004	...........
	27	7.23333	3.38390E-002	3.37658E-002	5.92571E-004	...........
	28	7.49167	3.38440E-002	3.38422E-002	5.93171E-004	...........
	29	7.75	3.38479E-002	3.39495E-002	5.91237E-004	...........
	30	8.00833	3.38511E-002	3.38028E-002	5.90804E-004	...........
	31	8.26667	3.38578E-002	3.38712E-002	5.90104E-004	...........
	32	8.525	3.38652E-002	3.40154E-002	5.86671E-004	...........
	33	8.78333	3.38759E-002	3.38123E-002	5.90071E-004	...........
	34	9.04167	3.38899E-002	3.38929E-002	5.92171E-004	...........
	35	9.3	3.38990E-002	3.40505E-002	5.90304E-004	...........
	36	9.5583	3.39069E-002	3.38337E-002	5.91171E-004	...........
	37	9.8167	3.39177E-002	3.39121E-002	5.89071E-004	...........
	38	10.075	3.39243E-002	3.40506E-002	5.88571E-004	...........
EOC	QUANT	0.0339243	Open Circuit (V)
PSTATMODEL	IQUANT	4	Pstat Model
PSTATSECTION	LABEL	REF600-11020	Pstat Section
PSTATSERIALNO	LABEL	11020	Pstat Serial Number
CTRLMODE	IQUANT	1	Control Mode
IESTAB	IQUANT	0	I/E Stability
CASPEED	IQUANT	1	Control Amp Speed
CONVENTION	IQUANT	1	Current Convention
ICHRANGE	IQUANT	2	Ich Range
ICHRANGEMODE	TOGGLE	F	Ich Auto Range
ICHOFFSETENABLE	TOGGLE	T	Ich Offset Enable
ICHOFFSET	QUANT	0	Ich Offset (V)
ICHFILTER	IQUANT	3	Ich Filter
VCHRANGE	IQUANT	2	Vch Range
VCHRANGEMODE	TOGGLE	F	Vch Auto Range
VCHOFFSETENABLE	TOGGLE	T	Vch Offset Enable
VCHOFFSET	QUANT	0	Vch Offset (V)
VCHFILTER	IQUANT	3	Vch Filter
ACHRANGE	IQUANT	2	Ach Range
ACHOFFSETENABLE	TOGGLE	F	Ach Offset Enable
ACHOFFSET	QUANT	0	Ach Offset (V)
ACHFILTER	IQUANT	3	Ach Filter
IERANGELOWERLIMIT	IQUANT	1	I/E Range Lower Limit
IERANGEMODE	TOGGLE	F	I/E AutoRange
IERANGE	IQUANT	7	I/E Range
POSFEEDENABLE	TOGGLE	F	Positive Feedback IR Comp
POSFEEDRESISTANCE	QUANT	0	Positive Feedback Resistance (ohm)
ACHSELECT	IQUANT	0	Ach Select
CABLEID	IQUANT	14	Cable ID
DCCALDATE	LABEL	1/27/2020	DC Calibration Date
ACCALDATE	LABEL	1/27/2020	AC Calibration Date
THERMOSELECT	IQUANT	1	Thermo Select
FRAMEWORKVERSION	QUANT	6.33	Framework Version
INSTRUMENTVERSION	LABEL	3.50	Instrument Version
ZCURVE	TABLE
	Pt	Time	Freq	Zreal	Zimag	Zsig	Zmod	Zphz	Idc	Vdc	IERange
	#	s	Hz	ohm	ohm	V	ohm	°	A	V	#
	0	1	1000078	1975.587	-1976.96	1	2794.873	-45.01991	-1.918043E-006	0.0371167	8
	1	2	794390.6	2356.762	-2086.31	1	3147.541	-41.51668	-1.248378E-006	0.0361838	8
	2	2	630984.4	2765.993	-2130.192	1	3491.194	-37.60118	-4.818014E-007	0.0358859	8
	3	2	501234.4	3195.137	-2134.328	1	3842.429	-33.74264	9.41269E-007	0.0355186	8
	4	3	398109.4	3593.069	-2067.53	1	4145.458	-29.91706	-2.366228E-006	0.0361395	8
	5	3	316265.6	3977.543	-1962.418	1	4435.306	-26.26055	2.347127E-006	0.0350995	8
	6	3	251203.1	4307.407	-1802.196	1	4669.225	-22.70418	-2.5662E-006	0.0361596	8
	7	4	199546.9	4592.222	-1641.615	1	4876.823	-19.67082	-2.407319E-006	0.0361427	8
	8	4	158578.1	4806.883	-1466.635	1	5025.648	-16.96754	4.833219E-007	0.0354365	8
	9	4	125953.1	5036.296	-1259.196	1	5191.325	-14.03755	1.12003E-007	0.0356522	7
	10	4	100078.1	5177.405	-1103.119	1	5293.619	-12.02782	-2.468321E-009	0.0355054	7
	11	5	79453.13	5291.64	-986.635	1	5382.834	-10.56162	-5.517174E-009	0.0354734	7
	12	5	63140.62	5387.063	-890.0468	1	5460.094	-9.381617	1.848297E-008	0.035484	7
	13	5	50203.12	5464.824	-813.8149	1	5525.087	-8.47017	-2.207367E-009	0.0354902	7
	14	6	39890.62	5533.41	-760.0729	1	5585.368	-7.821241	8.628754E-008	0.0353579	7
	15	6	31640.63	5597.055	-727.9241	1	5644.192	-7.410002	2.66544E-008	0.0355316	7
	16	6	25171.88	5654.286	-714.2443	1	5699.218	-7.199421	1.359167E-008	0.0354307	7
	17	7	20015.62	5712.978	-721.2083	1	5758.32	-7.194979	-3.836384E-008	0.0355459	7
	18	7	15890.62	5773.778	-747.4732	1	5821.961	-7.376483	-4.362322E-009	0.0354631	7
	19	7	12609.37	5832.748	-793.874	1	5886.525	-7.750693	-4.623294E-009	0.0354597	7
	20	8	10078.13	5894.268	-855.5612	1	5956.038	-8.258883	-4.539606E-008	0.0355651	7
	21	8	8015.625	5960.156	-943.9302	1	6034.439	-8.999384	-2.420854E-008	0.035497	7
	22	8	6328.125	6030.791	-1063.441	1	6123.834	-10.00046	5.95902E-009	0.035548	7
	23	9	5015.625	6104.509	-1212.78	1	6223.814	-11.23662	-2.364018E-008	0.0354988	7
	24	9	3984.375	6183.984	-1401.672	1	6340.847	-12.77096	7.096991E-009	0.0355479	7
	25	9	3170.956	6266.533	-1634.12	1	6476.093	-14.6155	-2.22953E-008	0.0354956	7
	26	10	2527.573	6358.519	-1922.919	1	6642.919	-16.82616	1.48424E-008	0.0354253	7
	27	10	1976.103	6474.231	-2313.927	1	6875.313	-19.66718	-1.501849E-009	0.035477	7
	28	10	1577.524	6596.701	-2761.295	1	7151.309	-22.71357	4.42494E-008	0.0353766	7
	29	10	1265.625	6742.169	-3295.708	1	7504.568	-26.05031	-1.901157E-008	0.0355165	7
	30	11	998.264	6922.511	-3999.003	1	7994.572	-30.01421	-1.129871E-008	0.0355641	7
	31	11	796.875	7129.067	-4812.035	1	8601.121	-34.01888	3.334556E-008	0.0354212	7
	32	11	627.7902	7405.093	-5868.999	1	9448.839	-38.39902	-3.78829E-008	0.0355314	7
	33	12	505.5147	7708.683	-7033.253	1	10435.06	-42.37672	-3.227042E-009	0.035495	6
	34	12	397.9953	8111.549	-8596.724	1	11819.51	-46.66329	4.553753E-010	0.0355041	6
	35	12	315.5048	8598.593	-10455.89	1	13537.41	-50.5672	1.310622E-009	0.0355037	6
	36	13	252.4038	9176.836	-12627.99	1	15610.27	-53.99387	8.046336E-010	0.035499	6
	37	13	198.6229	9954.21	-15466.14	1	18392.6	-57.23414	8.93516E-010	0.0354994	6
	38	13	158.3615	10890.16	-18735.52	1	21670.61	-59.83239	9.873565E-010	0.0354961	6
	39	14	125.558	12114.8	-22799.09	1	25817.96	-62.01507	8.161787E-010	0.0355019	6
	40	14	100.4464	13614.47	-27479.96	1	30667.61	-63.64467	4.862313E-011	0.0355018	6
	41	14	79.00281	15777.23	-33513.44	1	37041.49	-64.79019	5.186573E-010	0.0355006	6
	42	15	63.3446	18196.17	-40551.37	1	44446.76	-65.83331	1.201714E-009	0.0354988	6
	43	15	49.86702	21641.94	-48981.23	1	53549.36	-66.16216	1.076542E-009	0.0354989	6
	44	15	39.72458	26049.1	-58245.92	1	63805.51	-65.90456	7.280607E-010	0.0354975	6
	45	16	31.6723	31321.27	-69169.5	1	75930.51	-65.63808	3.973116E-010	0.0354986	6
	46	16	24.93351	38155.6	-82785.13	1	91154.96	-65.25506	7.496508E-010	0.0354984	6
	47	16	19.86229	46237.75	-97717.1	1	108104.4	-64.67744	-1.297227E-010	0.0354965	5
	48	17	15.83615	55108.22	-114750.1	1	127296.9	-64.34757	2.102139E-010	0.0354922	5
	49	17	12.40079	70137.39	-135530.5	1	152603.3	-62.63831	1.402212E-009	0.0354925	5
	50	17	9.93114	83971.72	-157761.5	1	178717.5	-61.97497	-7.334148E-010	0.0355002	5
	51	18	7.944915	101505.9	-181972.3	1	208368.4	-60.84682	-5.940487E-010	0.0354967	5
	52	19	6.317385	122987.3	-210078.9	1	243431.7	-59.65384	-3.083628E-010	0.0355066	5
	53	19	5.008013	148077.8	-241313.9	1	283124.5	-58.46541	-3.166425E-010	0.0354856	5
	54	20	3.945707	177511.4	-276487	1	328565.6	-57.29855	1.786402E-010	0.0354893	5
	55	22	3.158693	207963.8	-312762.6	1	375592	-56.37906	3.56386E-011	0.0355059	5
	56	23	2.504006	243115.4	-355770.1	1	430903.1	-55.65326	-1.698812E-010	0.0354946	5
	57	25	1.998082	279283.7	-402313.6	1	489750.6	-55.23185	5.035978E-011	0.0355066	5
	58	26	1.584686	321254.7	-459440.7	1	560616.1	-55.0376	1.409426E-010	0.0355327	5
	59	28	1.266892	363555.4	-524110.9	1	637859.6	-55.25246	9.887987E-011	0.0355105	5
	60	31	0.999041	413597.4	-604245.8	1	732240.3	-55.60893	7.439989E-011	0.035486	5
