EXPLAIN
TAG	EISPOT
TITLE	LABEL	Potentiostatic EIS	Test &Identifier
DATE	LABEL	1/7/2020	Date
TIME	LABEL	16:37:08	Time
NOTES	NOTES	5	&Notes...
	
	
	
	
	
PSTAT	PSTAT	REF600-11020	Potentiostat
VDC	POTEN	0.00000E+000	T	DC &Voltage (V)
FREQINIT	QUANT	1.00000E+006	Initial Fre&q. (Hz)
FREQFINAL	QUANT	1.00000E+000	Final Fre&q. (Hz)
PTSPERDEC	QUANT	1.00000E+001	Points/&decade
VAC	QUANT	2.50000E+001	AC &Voltage (mV rms)
AREA	QUANT	1.00000E-001	&Area (cm^2)
CONDIT	TWOPARAM	T	5.00000E+000	0.00000E+000	Conditionin&g	Time(s)	E(V)
DELAY	TWOPARAM	T	5.00000E+000	0.00000E+000	Init. De&lay	Time(s)	Stab.(mV/s)
SPEED	SELECTOR	0	&Optimize for:
ZGUESS	QUANT	1.00000E+003	E&stimated Z (ohms)
OCVCURVE	TABLE	19
	Pt	T	Vf	Vm	Ach	Over
	#	s	V vs. Ref.	V	V	bits
	0	0.258333	1.39988E-003	1.39988E-003	5.98614E-004	...........
	1	0.516667	1.39323E-003	1.05185E-003	6.00580E-004	...........
	2	0.775	1.36113E-003	1.17907E-003	6.01247E-004	...........
	3	1.03333	1.28604E-003	6.03418E-004	6.00447E-004	...........
	4	1.29167	1.15704E-003	4.34167E-004	6.04914E-004	...........
	5	1.55	9.66199E-004	1.88146E-004	6.07280E-004	...........
	6	1.80833	7.26194E-004	-3.95896E-005	5.96980E-004	...........
	7	2.06667	4.68172E-004	-3.41732E-004	6.01847E-004	...........
	8	2.325	2.11602E-004	-5.24378E-004	5.98614E-004	...........
	9	2.58333	-3.93086E-005	-7.60309E-004	6.04914E-004	...........
	10	2.84167	-2.81418E-004	-9.53055E-004	6.02814E-004	...........
	11	3.1	-5.10961E-004	-1.13490E-003	5.94614E-004	...........
	12	3.35833	-7.26152E-004	-1.30873E-003	5.97414E-004	...........
	13	3.61667	-9.26933E-004	-1.48652E-003	5.98280E-004	...........
	14	3.875	-1.11877E-003	-1.83024E-003	5.98247E-004	...........
	15	4.13333	-1.31576E-003	-1.98271E-003	6.01880E-004	...........
	16	4.39167	-1.52111E-003	-1.82489E-003	5.98214E-004	...........
	17	4.65	-1.70225E-003	-1.84150E-003	5.96080E-004	...........
	18	4.90833	-1.82102E-003	-2.09500E-003	6.03380E-004	...........
EOC	QUANT	-0.001821	Open Circuit (V)
PSTATMODEL	IQUANT	4	Pstat Model
PSTATSECTION	LABEL	REF600-11020	Pstat Section
PSTATSERIALNO	LABEL	11020	Pstat Serial Number
CTRLMODE	IQUANT	1	Control Mode
IESTAB	IQUANT	0	I/E Stability
CASPEED	IQUANT	1	Control Amp Speed
CONVENTION	IQUANT	1	Current Convention
ICHRANGE	IQUANT	2	Ich Range
ICHRANGEMODE	TOGGLE	F	Ich Auto Range
ICHOFFSETENABLE	TOGGLE	T	Ich Offset Enable
ICHOFFSET	QUANT	0	Ich Offset (V)
ICHFILTER	IQUANT	3	Ich Filter
VCHRANGE	IQUANT	2	Vch Range
VCHRANGEMODE	TOGGLE	F	Vch Auto Range
VCHOFFSETENABLE	TOGGLE	T	Vch Offset Enable
VCHOFFSET	QUANT	0	Vch Offset (V)
VCHFILTER	IQUANT	3	Vch Filter
ACHRANGE	IQUANT	2	Ach Range
ACHOFFSETENABLE	TOGGLE	F	Ach Offset Enable
ACHOFFSET	QUANT	0	Ach Offset (V)
ACHFILTER	IQUANT	3	Ach Filter
IERANGELOWERLIMIT	IQUANT	1	I/E Range Lower Limit
IERANGEMODE	TOGGLE	F	I/E AutoRange
IERANGE	IQUANT	6	I/E Range
POSFEEDENABLE	TOGGLE	F	Positive Feedback IR Comp
POSFEEDRESISTANCE	QUANT	0	Positive Feedback Resistance (ohm)
ACHSELECT	IQUANT	0	Ach Select
CABLEID	IQUANT	14	Cable ID
DCCALDATE	LABEL	12/22/2019	DC Calibration Date
ACCALDATE	LABEL	12/22/2019	AC Calibration Date
THERMOSELECT	IQUANT	1	Thermo Select
FRAMEWORKVERSION	QUANT	6.33	Framework Version
INSTRUMENTVERSION	LABEL	3.50	Instrument Version
ZCURVE	TABLE
	Pt	Time	Freq	Zreal	Zimag	Zsig	Zmod	Zphz	Idc	Vdc	IERange
	#	s	Hz	ohm	ohm	V	ohm	°	A	V	#
	0	1	1000078	2379.357	-1731.856	1	2942.901	-36.04964	1.024206E-005	-0.0015214	8
	1	2	794390.6	2692.21	-1662.197	1	3164	-31.69159	-5.56406E-006	0.0011173	8
	2	2	630984.4	3017.286	-1597.64	1	3414.157	-27.90102	6.146872E-007	0.0002059	8
	3	2	501234.4	3285.391	-1444.899	1	3589.084	-23.73965	-2.546768E-006	0.0006324	8
	4	3	398109.4	3497.392	-1301.085	1	3731.564	-20.40599	-1.136825E-006	0.0004251	8
	5	3	316265.6	3669.957	-1144.099	1	3844.157	-17.31472	4.542339E-006	-0.0011197	8
	6	3	251203.1	3801.814	-1031.672	1	3939.307	-15.18233	-4.431409E-006	0.0008041	8
	7	4	199546.9	3948.671	-935.4576	1	4057.966	-13.32791	8.559505E-007	-0.0005171	8
	8	4	158578.1	4011.763	-798.8034	1	4090.517	-11.26118	2.591873E-006	-0.0008639	8
	9	4	125953.1	4136.623	-672.8797	1	4190.992	-9.239042	-1.09974E-006	0.0026842	7
	10	4	100078.1	4194.588	-615.8959	1	4239.563	-8.353113	-6.900701E-008	-0.0001147	7
	11	5	79453.13	4248.072	-590.4359	1	4288.908	-7.912797	-4.437861E-008	-0.0002093	7
	12	5	63140.62	4300.228	-577.5985	1	4338.845	-7.650075	7.976924E-009	-0.0003218	7
	13	5	50203.12	4352.313	-578.0797	1	4390.536	-7.565814	-2.182403E-008	-0.0001481	7
	14	6	39890.62	4403.982	-593.7821	1	4443.831	-7.678795	-6.331287E-009	-0.0001587	7
	15	6	31640.63	4459.168	-622.668	1	4502.433	-7.949249	-7.25845E-010	-6.24993E-005	7
	16	6	25171.88	4518.581	-666.9969	1	4567.544	-8.39691	-6.09184E-008	-4.93776E-006	7
	17	7	20015.62	4586.137	-724.5931	1	4643.025	-8.97831	-5.550515E-008	-0.0002003	7
	18	7	15890.62	4658.689	-798.4144	1	4726.611	-9.72497	-5.57974E-008	-0.0002008	7
	19	7	12609.37	4739.985	-888.8568	1	4822.605	-10.62093	1.287355E-007	-0.0004448	7
	20	8	10078.13	4829.26	-991.368	1	4929.966	-11.60072	1.121427E-007	-0.0004473	7
	21	8	8015.625	4927.864	-1115.598	1	5052.564	-12.75593	1.33384E-009	-7.531157E-005	7
	22	8	6328.125	5042.88	-1267.214	1	5199.661	-14.10567	-8.770018E-008	-0.0000976	7
	23	9	5015.625	5166.555	-1443.694	1	5364.47	-15.612	9.704063E-008	-0.0002444	7
	24	9	3984.375	5305.211	-1645.786	1	5554.626	-17.23497	-8.818931E-008	-0.0000987	7
	25	9	3170.956	5454.695	-1887.232	1	5771.944	-19.08476	-4.828541E-008	-0.0002119	7
	26	10	2527.573	5615.668	-2167.574	1	6019.477	-21.10593	1.121568E-007	-0.0004578	7
	27	10	1976.103	5807.218	-2534.071	1	6336.032	-23.57481	6.225798E-008	-0.0004232	7
	28	10	1577.524	6004.275	-2954.309	1	6691.73	-26.19876	-2.050408E-008	-0.000148	7
	29	11	1265.625	6209.484	-3408.658	1	7083.548	-28.76431	5.655987E-008	-0.0002907	7
	30	11	998.264	6458.907	-4024.554	1	7610.159	-31.92709	-4.116894E-009	-0.0001821	7
	31	11	796.875	6719.898	-4733.009	1	8219.392	-35.15809	1.139111E-007	-0.0004609	7
	32	11	627.7902	7030.225	-5653.884	1	9021.667	-38.80712	1.846838E-007	-0.0004843	7
	33	12	505.5147	7346.164	-6669.454	1	9922.08	-42.23576	-7.491229E-008	-8.406919E-005	7
	34	12	397.9953	7759.367	-8027.11	1	11164.33	-45.97166	9.289756E-010	-0.0002184	6
	35	12	315.5048	8213.711	-9654.17	1	12675.49	-49.60906	4.1568E-010	-0.0002241	6
	36	13	252.4038	8724.814	-11558.59	1	14481.83	-52.95326	5.019047E-010	-0.0002292	6
	37	13	198.6229	9371.894	-14061.33	1	16898.32	-56.31649	1.027169E-009	-0.0002286	6
	38	13	158.3615	10093.78	-16952.07	1	19729.6	-59.22913	5.176188E-010	-0.00023	6
	39	14	125.558	10984.94	-20577.07	1	23325.62	-61.90474	7.911142E-010	-0.0002295	6
	40	14	100.4464	11979.73	-24841.03	1	27578.81	-64.25404	1.236235E-009	-0.0002333	6
	41	14	79.00281	13333.16	-30381.9	1	33178.8	-66.30563	7.37555E-010	-0.0002323	6
	42	15	63.3446	14821.74	-37029.95	1	39886.1	-68.18558	9.81077E-010	-0.0002275	6
	43	15	49.86702	16789.46	-45337.79	1	48346.68	-69.67944	7.040958E-010	-0.0002317	6
	44	15	39.72458	19362.19	-54970.79	1	58281.06	-70.59637	7.980625E-010	-0.0002291	6
	45	16	31.6723	22548.79	-66693.66	1	70402.37	-71.31986	1.202773E-009	-0.0002332	6
	46	16	24.93351	26830.79	-82044.32	1	86320.11	-71.8908	6.706963E-010	-0.0002379	6
	47	16	19.86229	32149.33	-99539.7	1	104602.7	-72.10058	2.678002E-010	-0.000236	6
	48	17	15.83615	39102.04	-119984.1	1	126194.9	-71.94955	1.950284E-010	-0.0002358	5
	49	17	12.40079	49201.88	-148115.7	1	156074	-71.62427	3.763347E-010	-0.0002305	5
	50	17	9.93114	61325.92	-177210.2	1	187521.5	-70.91115	-2.086214E-010	-0.0002299	5
	51	18	7.944915	77016.84	-212530.2	1	226054.6	-70.08046	3.343458E-010	-0.0002351	5
	52	18	6.317385	97792.8	-253688	1	271884.2	-68.91912	2.253096E-010	-0.0002289	5
	53	19	5.008013	124885.6	-302333.5	1	327111.5	-67.55583	5.594595E-011	-0.0002383	5
	54	20	3.945707	160861.7	-358264.4	1	392721.1	-65.81979	4.333809E-010	-0.0002287	5
	55	22	3.158693	203077.5	-417278.9	1	464071.3	-64.04916	2.963714E-010	-0.0002149	5
	56	23	2.504006	256850.5	-484476	1	548351.3	-62.06919	1.762936E-010	-0.0002279	5
	57	25	1.998082	318786.5	-552922.2	1	638238	-60.03447	3.961637E-010	-0.0001942	5
	58	26	1.584686	391897.7	-630319.6	1	742217.3	-58.12894	4.430972E-010	-0.0001892	5
	59	28	1.266892	469861.2	-705933.1	1	848004.2	-56.35271	3.902204E-010	-0.0002314	5
	60	31	0.999041	563206.7	-794310	1	973720	-54.6614	3.289227E-010	-0.000252	5
