EXPLAIN
TAG	EISPOT
TITLE	LABEL	Potentiostatic EIS	Test &Identifier
DATE	LABEL	3/3/2020	Date
TIME	LABEL	16:17:44	Time
NOTES	NOTES	1	&Notes...
	
PSTAT	PSTAT	REF600-11020	Potentiostat
VDC	POTEN	0.00000E+000	T	DC &Voltage (V)
FREQINIT	QUANT	1.00000E+006	Initial Fre&q. (Hz)
FREQFINAL	QUANT	1.00000E+000	Final Fre&q. (Hz)
PTSPERDEC	QUANT	1.00000E+001	Points/&decade
VAC	QUANT	2.50000E+001	AC &Voltage (mV rms)
AREA	QUANT	1.60000E-004	&Area (cm^2)
CONDIT	TWOPARAM	F	1.50000E+001	0.00000E+000	Conditionin&g	Time(s)	E(V)
DELAY	TWOPARAM	F	1.00000E+002	0.00000E+000	Init. De&lay	Time(s)	Stab.(mV/s)
SPEED	SELECTOR	1	&Optimize for:
ZGUESS	QUANT	1.00000E+004	E&stimated Z (ohms)
OCVCURVE	TABLE	39
	Pt	T	Vf	Vm	Ach	Over
	#	s	V vs. Ref.	V	V	bits
	0	0.258333	1.21508E-001	1.21508E-001	5.74063E-004	...........
	1	0.516667	1.21507E-001	1.21450E-001	5.81097E-004	...........
	2	0.775	1.21501E-001	1.21439E-001	5.75330E-004	...........
	3	1.03333	1.21488E-001	1.21472E-001	5.72830E-004	...........
	4	1.29167	1.21472E-001	1.21453E-001	5.76297E-004	...........
	5	1.55	1.21461E-001	1.21422E-001	5.71730E-004	...........
	6	1.80833	1.21453E-001	1.21394E-001	5.68063E-004	...........
	7	2.06667	1.21441E-001	1.21377E-001	5.70897E-004	...........
	8	2.325	1.21423E-001	1.21362E-001	5.73130E-004	...........
	9	2.58333	1.21404E-001	1.21422E-001	5.73930E-004	...........
	10	2.84167	1.21391E-001	1.21413E-001	5.76630E-004	...........
	11	3.1	1.21390E-001	1.21395E-001	5.74230E-004	...........
	12	3.35833	1.21397E-001	1.21425E-001	5.71963E-004	...........
	13	3.61667	1.21403E-001	1.21370E-001	5.77163E-004	...........
	14	3.875	1.21405E-001	1.21408E-001	5.77063E-004	...........
	15	4.13333	1.21402E-001	1.21379E-001	5.73197E-004	...........
	16	4.39167	1.21397E-001	1.21367E-001	5.76197E-004	...........
	17	4.65	1.21390E-001	1.21351E-001	5.75563E-004	...........
	18	4.90833	1.21380E-001	1.21355E-001	5.78263E-004	...........
	19	5.16667	1.21370E-001	1.21381E-001	5.73197E-004	...........
	20	5.425	1.21364E-001	1.21366E-001	5.73563E-004	...........
	21	5.68333	1.21364E-001	1.21364E-001	5.74330E-004	...........
	22	5.94167	1.21364E-001	1.21286E-001	5.65430E-004	...........
	23	6.2	1.21357E-001	1.21274E-001	5.69263E-004	...........
	24	6.45833	1.21339E-001	1.21295E-001	5.68430E-004	...........
	25	6.71667	1.21316E-001	1.21318E-001	5.69197E-004	...........
	26	6.975	1.21301E-001	1.21319E-001	5.72330E-004	...........
	27	7.23333	1.21300E-001	1.21324E-001	5.72530E-004	...........
	28	7.49167	1.21307E-001	1.21322E-001	5.69630E-004	...........
	29	7.75	1.21314E-001	1.21295E-001	5.68263E-004	...........
	30	8.00833	1.21317E-001	1.21344E-001	5.70063E-004	...........
	31	8.26667	1.21319E-001	1.21378E-001	5.69063E-004	...........
	32	8.525	1.21326E-001	1.21338E-001	5.66797E-004	...........
	33	8.78333	1.21337E-001	1.21364E-001	5.69497E-004	...........
	34	9.04167	1.21347E-001	1.21320E-001	5.69630E-004	...........
	35	9.3	1.21350E-001	1.21324E-001	5.66797E-004	...........
	36	9.5583	1.21345E-001	1.21331E-001	5.70497E-004	...........
	37	9.8167	1.21337E-001	1.21345E-001	5.70297E-004	...........
	38	10.075	1.21333E-001	1.21359E-001	5.67197E-004	...........
EOC	QUANT	0.1213333	Open Circuit (V)
PSTATMODEL	IQUANT	4	Pstat Model
PSTATSECTION	LABEL	REF600-11020	Pstat Section
PSTATSERIALNO	LABEL	11020	Pstat Serial Number
CTRLMODE	IQUANT	1	Control Mode
IESTAB	IQUANT	0	I/E Stability
CASPEED	IQUANT	1	Control Amp Speed
CONVENTION	IQUANT	1	Current Convention
ICHRANGE	IQUANT	2	Ich Range
ICHRANGEMODE	TOGGLE	F	Ich Auto Range
ICHOFFSETENABLE	TOGGLE	T	Ich Offset Enable
ICHOFFSET	QUANT	0	Ich Offset (V)
ICHFILTER	IQUANT	3	Ich Filter
VCHRANGE	IQUANT	2	Vch Range
VCHRANGEMODE	TOGGLE	F	Vch Auto Range
VCHOFFSETENABLE	TOGGLE	T	Vch Offset Enable
VCHOFFSET	QUANT	0	Vch Offset (V)
VCHFILTER	IQUANT	3	Vch Filter
ACHRANGE	IQUANT	2	Ach Range
ACHOFFSETENABLE	TOGGLE	F	Ach Offset Enable
ACHOFFSET	QUANT	0	Ach Offset (V)
ACHFILTER	IQUANT	3	Ach Filter
IERANGELOWERLIMIT	IQUANT	1	I/E Range Lower Limit
IERANGEMODE	TOGGLE	F	I/E AutoRange
IERANGE	IQUANT	7	I/E Range
POSFEEDENABLE	TOGGLE	F	Positive Feedback IR Comp
POSFEEDRESISTANCE	QUANT	0	Positive Feedback Resistance (ohm)
ACHSELECT	IQUANT	0	Ach Select
CABLEID	IQUANT	14	Cable ID
DCCALDATE	LABEL	2/27/2020	DC Calibration Date
ACCALDATE	LABEL	2/27/2020	AC Calibration Date
THERMOSELECT	IQUANT	1	Thermo Select
FRAMEWORKVERSION	QUANT	6.33	Framework Version
INSTRUMENTVERSION	LABEL	3.50	Instrument Version
ZCURVE	TABLE
	Pt	Time	Freq	Zreal	Zimag	Zsig	Zmod	Zphz	Idc	Vdc	IERange
	#	s	Hz	ohm	ohm	V	ohm	°	A	V	#
	0	2	1000078	2321.62	-1986.682	1	3055.621	-40.55462	-3.307091E-006	0.1241035	8
	1	3	794390.6	2707.623	-2014.178	1	3374.631	-36.64525	4.371615E-006	0.1225156	8
	2	5	630984.4	3090.513	-2001.679	1	3682.118	-32.93052	-1.318631E-006	0.123082	8
	3	6	501234.4	3466.425	-1920.059	1	3962.667	-28.98215	4.386449E-007	0.1228424	8
	4	7	398109.4	3806.008	-1802.264	1	4211.158	-25.33903	4.051847E-007	0.1227777	8
	5	9	316265.6	4096.909	-1658.681	1	4419.942	-22.04113	-3.191748E-007	0.1228844	8
	6	10	251203.1	4321.864	-1542.376	1	4588.837	-19.64034	-1.736468E-006	0.1232331	8
	7	11	199546.9	4541.013	-1405.165	1	4753.45	-17.19409	-2.483048E-007	0.122873	8
	8	13	158578.1	4710.128	-1284.866	1	4882.232	-15.25836	4.393715E-007	0.1227242	8
	9	14	125953.1	4853.619	-1131.973	1	4983.872	-13.128	3.628562E-007	0.122435	7
	10	15	100078.1	4961.27	-1051.031	1	5071.376	-11.9611	7.829139E-008	0.1225925	7
	11	17	79453.13	5064.522	-1005.358	1	5163.345	-11.22782	-3.305817E-008	0.1227896	7
	12	18	63140.62	5161.093	-979.908	1	5253.294	-10.75047	2.969571E-008	0.1227471	7
	13	19	50203.12	5252.552	-978.854	1	5342.982	-10.55642	3.061305E-008	0.1227499	7
	14	21	39890.62	5343.632	-997.847	1	5436.001	-10.57734	-3.327844E-008	0.122776	7
	15	22	31640.63	5436.922	-1039.271	1	5535.36	-10.82158	1.364984E-008	0.1226978	7
	16	24	25171.88	5535.95	-1109.573	1	5646.051	-11.33365	3.154917E-008	0.1227436	7
	17	25	20015.62	5640.686	-1203.976	1	5767.747	-12.0487	-1.214683E-009	0.1227821	7
	18	26	15890.62	5755.108	-1320.613	1	5904.683	-12.92381	-5.637378E-008	0.1227794	7
	19	28	12609.37	5880.686	-1471.24	1	6061.932	-14.04604	3.182197E-008	0.1227333	7
	20	29	10078.13	6023.038	-1646.908	1	6244.14	-15.29284	-3.283765E-008	0.1227031	7
	21	30	8015.625	6182.961	-1867.294	1	6458.776	-16.80465	8.018603E-008	0.1225719	7
	22	32	6328.125	6367.204	-2134.276	1	6715.387	-18.53106	-3.321504E-008	0.122795	7
	23	33	5015.625	6576.358	-2449.483	1	7017.724	-20.42875	-1.366322E-010	0.1227825	7
	24	34	3984.375	6810.197	-2815.244	1	7369.151	-22.45954	8.006957E-010	0.1227783	7
	25	36	3170.956	7077.978	-3242.549	1	7785.364	-24.61337	2.111971E-008	0.1227494	7
	26	37	2527.573	7382.398	-3740.156	1	8275.782	-26.86821	-5.477065E-008	0.1227782	7
	27	38	1976.103	7766.035	-4388.129	1	8920.032	-29.46824	-4.948554E-008	0.1227748	7
	28	40	1577.524	8179.564	-5067.318	1	9622	-31.77861	-3.564695E-009	0.1228645	6
	29	41	1265.625	8631.723	-5855.867	1	10430.62	-34.15345	-1.014381E-008	0.122886	6
	30	43	998.264	9203.04	-6849.231	1	11472.05	-36.65794	-2.036426E-009	0.1228562	6
	31	44	796.875	9835.3	-7951.867	1	12647.74	-38.95562	-4.022093E-009	0.1227812	6
	32	45	627.7902	10616.3	-9327.628	1	14131.9	-41.30297	-1.032133E-008	0.1228867	6
	33	47	505.5147	11442.83	-10785.72	1	15724.82	-43.30673	-4.395277E-009	0.1227851	6
	34	48	397.9953	12499.42	-12670	1	17797.88	-45.3883	-8.570158E-012	0.1227866	6
	35	49	315.5048	13716.84	-14817.14	1	20191.56	-47.20829	3.566447E-011	0.1227815	6
	36	51	252.4038	15089.51	-17215.15	1	22892.24	-48.76463	3.979435E-010	0.1227789	6
	37	52	198.6229	16827.39	-20219.8	1	26305.92	-50.23198	2.006679E-010	0.1227784	6
	38	53	158.3615	18753.08	-23518.28	1	30079.69	-51.43173	5.107318E-010	0.122781	6
	39	55	125.558	21059.98	-27446.55	1	34595.32	-52.50066	5.866391E-011	0.1227848	6
	40	56	100.4464	23649.14	-31807.14	1	39635.54	-53.36858	5.259067E-010	0.1227768	6
	41	58	79.00281	26890.09	-37224.54	1	45921.05	-54.15658	4.402149E-010	0.1227749	6
	42	59	63.3446	30364.96	-42694.18	1	52391.06	-54.57879	1.195908E-010	0.1227764	6
	43	60	49.86702	34283.92	-50438.59	1	60987.2	-55.79543	-4.527872E-011	0.1227767	6
	44	62	39.72458	38556.29	-58389.52	1	69970.88	-56.56207	1.406816E-010	0.1227832	6
	45	63	31.6723	43468.37	-68109.96	1	80798.92	-57.45362	-2.233198E-010	0.1227791	6
	46	64	24.93351	49121.49	-80142.19	1	93998.35	-58.49465	1.329699E-010	0.122773	6
	47	66	19.86229	55420.92	-94146.85	1	109247.9	-59.51619	7.548655E-011	0.1227742	5
	48	67	15.83615	63294.8	-110913.7	1	127703.1	-60.28802	9.631326E-010	0.1227788	5
	49	69	12.40079	71948.1	-133395.4	1	151561.4	-61.65937	-1.077437E-010	0.1227757	5
	50	70	9.93114	82574.48	-156882.7	1	177287.1	-62.24013	3.397208E-010	0.1227808	5
	51	72	7.944915	95633.7	-185304.2	1	208526.8	-62.70219	-2.436653E-010	0.1227771	5
	52	73	6.317385	111983.8	-220042.5	1	246898.9	-63.02761	4.318542E-010	0.1227715	5
	53	75	5.008013	133075.5	-261650.9	1	293547.8	-63.04213	1.955204E-010	0.1227872	5
	54	78	3.945707	160175.8	-310876.8	1	349715.2	-62.74072	-1.471599E-010	0.1227684	5
	55	80	3.158693	191691.5	-364249.2	1	411610.4	-62.24375	1.899199E-010	0.1227816	5
	56	84	2.504006	231644.3	-427203.8	1	485965.1	-61.53196	-1.965365E-010	0.1227805	5
	57	86	1.998082	278120	-495449.8	1	568173.6	-60.69239	1.913494E-010	0.1227367	5
	58	90	1.584686	334680.2	-576127.5	1	666283.5	-59.84712	-4.178121E-011	0.1227521	5
	59	93	1.266892	400830.2	-661220.1	1	773224.9	-58.77584	1.840593E-010	0.1227384	5
	60	98	0.999041	481949.9	-762428.4	1	901982.7	-57.702	-6.5546E-011	0.1228049	5
