EXPLAIN
TAG	EISPOT
TITLE	LABEL	Potentiostatic EIS	Test &Identifier
DATE	LABEL	6/14/2020	Date
TIME	LABEL	21:02:08	Time
NOTES	NOTES	1	&Notes...
	
PSTAT	PSTAT	REF600-10037	Potentiostat
VDC	POTEN	0.00000E+000	T	DC &Voltage (V)
FREQINIT	QUANT	1.00000E+006	Initial Fre&q. (Hz)
FREQFINAL	QUANT	1.00000E+000	Final Fre&q. (Hz)
PTSPERDEC	QUANT	1.00000E+001	Points/&decade
VAC	QUANT	2.50000E+001	AC &Voltage (mV rms)
AREA	QUANT	2.50000E-001	&Area (cm^2)
CONDIT	TWOPARAM	F	5.00000E+000	0.00000E+000	Conditionin&g	Time(s)	E(V)
DELAY	TWOPARAM	F	3.00000E+000	0.00000E+000	Init. De&lay	Time(s)	Stab.(mV/s)
SPEED	SELECTOR	0	&Optimize for:
ZGUESS	QUANT	1.00000E+003	E&stimated Z (ohms)
OCVCURVE	TABLE	39
	Pt	T	Vf	Vm	Ach	Over
	#	s	V vs. Ref.	V	V	bits
	0	0.258333	-1.23291E-001	-1.23291E-001	5.52954E-004	...........
	1	0.516667	-1.23284E-001	-1.22899E-001	5.49220E-004	...........
	2	0.775	-1.23238E-001	-1.22530E-001	5.53120E-004	...........
	3	1.03333	-1.23108E-001	-1.22183E-001	5.47487E-004	...........
	4	1.29167	-1.22877E-001	-1.21854E-001	5.52887E-004	...........
	5	1.55	-1.22572E-001	-1.21533E-001	5.55554E-004	...........
	6	1.80833	-1.22235E-001	-1.21240E-001	5.54120E-004	...........
	7	2.06667	-1.21899E-001	-1.20958E-001	5.47854E-004	...........
	8	2.325	-1.21577E-001	-1.20683E-001	5.53954E-004	...........
	9	2.58333	-1.21274E-001	-1.20424E-001	5.60754E-004	...........
	10	2.84167	-1.20987E-001	-1.20178E-001	5.55054E-004	...........
	11	3.1	-1.20714E-001	-1.19938E-001	5.57954E-004	...........
	12	3.35833	-1.20453E-001	-1.19703E-001	5.58787E-004	...........
	13	3.61667	-1.20202E-001	-1.19475E-001	5.54454E-004	...........
	14	3.875	-1.19961E-001	-1.19256E-001	5.54787E-004	...........
	15	4.13333	-1.19726E-001	-1.19041E-001	5.52454E-004	...........
	16	4.39167	-1.19498E-001	-1.18820E-001	5.51587E-004	...........
	17	4.65	-1.19276E-001	-1.18628E-001	5.54687E-004	...........
	18	4.90833	-1.19059E-001	-1.18424E-001	5.54020E-004	...........
	19	5.16667	-1.18848E-001	-1.18238E-001	5.60820E-004	...........
	20	5.425	-1.18644E-001	-1.18043E-001	5.57954E-004	...........
	21	5.68333	-1.18446E-001	-1.17858E-001	5.57320E-004	...........
	22	5.94167	-1.18252E-001	-1.17683E-001	5.55520E-004	...........
	23	6.2	-1.18063E-001	-1.17511E-001	5.57387E-004	...........
	24	6.45833	-1.17879E-001	-1.17334E-001	5.54987E-004	...........
	25	6.71667	-1.17699E-001	-1.17168E-001	5.54620E-004	...........
	26	6.975	-1.17524E-001	-1.17000E-001	5.57420E-004	...........
	27	7.23333	-1.17352E-001	-1.16838E-001	5.52687E-004	...........
	28	7.49167	-1.17182E-001	-1.16679E-001	5.55220E-004	...........
	29	7.75	-1.17016E-001	-1.16512E-001	5.57620E-004	...........
	30	8.00833	-1.16852E-001	-1.16356E-001	5.60020E-004	...........
	31	8.26667	-1.16690E-001	-1.16209E-001	5.56754E-004	...........
	32	8.525	-1.16530E-001	-1.16063E-001	5.59054E-004	...........
	33	8.78333	-1.16374E-001	-1.15918E-001	5.60187E-004	...........
	34	9.04167	-1.16223E-001	-1.15772E-001	5.50587E-004	...........
	35	9.3	-1.16075E-001	-1.15629E-001	5.60254E-004	...........
	36	9.5583	-1.15929E-001	-1.15496E-001	5.54420E-004	...........
	37	9.8167	-1.15786E-001	-1.15360E-001	5.55554E-004	...........
	38	10.075	-1.15645E-001	-1.15225E-001	5.52054E-004	...........
EOC	QUANT	-0.1156451	Open Circuit (V)
PSTATMODEL	IQUANT	4	Pstat Model
PSTATSECTION	LABEL	REF600-10037	Pstat Section
PSTATSERIALNO	LABEL	10037	Pstat Serial Number
CTRLMODE	IQUANT	1	Control Mode
IESTAB	IQUANT	0	I/E Stability
CASPEED	IQUANT	1	Control Amp Speed
CONVENTION	IQUANT	1	Current Convention
ICHRANGE	IQUANT	2	Ich Range
ICHRANGEMODE	TOGGLE	F	Ich Auto Range
ICHOFFSETENABLE	TOGGLE	T	Ich Offset Enable
ICHOFFSET	QUANT	0	Ich Offset (V)
ICHFILTER	IQUANT	3	Ich Filter
VCHRANGE	IQUANT	2	Vch Range
VCHRANGEMODE	TOGGLE	F	Vch Auto Range
VCHOFFSETENABLE	TOGGLE	T	Vch Offset Enable
VCHOFFSET	QUANT	0	Vch Offset (V)
VCHFILTER	IQUANT	3	Vch Filter
ACHRANGE	IQUANT	2	Ach Range
ACHOFFSETENABLE	TOGGLE	F	Ach Offset Enable
ACHOFFSET	QUANT	0	Ach Offset (V)
ACHFILTER	IQUANT	3	Ach Filter
IERANGELOWERLIMIT	IQUANT	1	I/E Range Lower Limit
IERANGEMODE	TOGGLE	F	I/E AutoRange
IERANGE	IQUANT	8	I/E Range
POSFEEDENABLE	TOGGLE	F	Positive Feedback IR Comp
POSFEEDRESISTANCE	QUANT	0	Positive Feedback Resistance (ohm)
ACHSELECT	IQUANT	0	Ach Select
CABLEID	IQUANT	14	Cable ID
DCCALDATE	LABEL	6/8/2020	DC Calibration Date
ACCALDATE	LABEL	6/8/2020	AC Calibration Date
THERMOSELECT	IQUANT	1	Thermo Select
FRAMEWORKVERSION	QUANT	6.33	Framework Version
INSTRUMENTVERSION	LABEL	3.50	Instrument Version
ZCURVE	TABLE
	Pt	Time	Freq	Zreal	Zimag	Zsig	Zmod	Zphz	Idc	Vdc	IERange
	#	s	Hz	ohm	ohm	V	ohm	°	A	V	#
	0	1	1000078	1770.881	-2031.571	1	2695.051	-48.92196	-3.62486E-007	-0.1066095	8
	1	1	794390.6	2116.715	-2245.463	1	3085.868	-46.69057	8.28867E-008	-0.1068771	8
	2	1	630984.4	2511.572	-2445.115	1	3505.222	-44.23186	2.760434E-007	-0.107062	8
	3	2	501234.4	2957.644	-2619.073	1	3950.595	-41.52575	-7.366702E-008	-0.1071183	8
	4	2	398109.4	3441.652	-2744.647	1	4402.051	-38.57165	6.628444E-008	-0.107114	8
	5	2	316265.6	3958.553	-2820.438	1	4860.557	-35.46958	7.046702E-008	-0.1071457	8
	6	3	251203.1	4494.589	-2835.923	1	5314.489	-32.25044	-1.075757E-007	-0.1071772	8
	7	3	199546.9	5022.145	-2782.183	1	5741.296	-28.98571	-1.634854E-007	-0.1071308	8
	8	3	158578.1	5515.902	-2678.716	1	6131.941	-25.90284	2.633613E-007	-0.1071711	8
	9	3	125953.1	6128.06	-2317.627	1	6551.68	-20.71658	-1.887451E-007	-0.1068766	7
	10	4	100078.1	6499.302	-2153.999	1	6846.943	-18.33623	-4.082952E-008	-0.107046	7
	11	4	79453.13	6824.824	-1980.94	1	7106.5	-16.18564	3.644757E-008	-0.1072598	7
	12	4	63140.62	7099.258	-1795.331	1	7322.75	-14.19198	5.495776E-008	-0.1071594	7
	13	5	50203.12	7336.251	-1622.318	1	7513.488	-12.46955	7.501612E-008	-0.107296	7
	14	5	39890.62	7528.862	-1456.017	1	7668.36	-10.94539	1.322741E-008	-0.1071169	7
	15	5	31640.63	7697.531	-1311.85	1	7808.517	-9.6717	3.726488E-008	-0.1072819	7
	16	6	25171.88	7829.709	-1186.858	1	7919.153	-8.619501	3.706565E-008	-0.1071447	7
	17	6	20015.62	7939.954	-1088.836	1	8014.264	-7.808482	8.240463E-008	-0.1072299	7
	18	6	15890.62	8035.844	-1014.738	1	8099.66	-7.197013	8.725483E-008	-0.1072561	7
	19	7	12609.37	8120.763	-963.758	1	8177.752	-6.768109	-3.998502E-008	-0.1070669	7
	20	7	10078.13	8189.281	-945.8532	1	8243.723	-6.588408	-1.513569E-008	-0.107092	7
	21	7	8015.625	8257.239	-954.719	1	8312.249	-6.595371	8.613907E-008	-0.1072553	7
	22	8	6328.125	8325.438	-993.558	1	8384.514	-6.805493	3.677794E-008	-0.1072801	7
	23	8	5015.625	8388.117	-1062.896	1	8455.191	-7.221716	-7.560394E-008	-0.1071243	7
	24	8	3984.375	8449.13	-1172.836	1	8530.143	-7.90281	3.656917E-008	-0.107281	7
	25	8	3170.956	8506.895	-1315.97	1	8608.079	-8.793643	8.27939E-008	-0.1072336	7
	26	9	2527.573	8581.215	-1508.89	1	8712.864	-9.97274	8.725991E-009	-0.1072595	7
	27	9	1976.103	8660.064	-1780.187	1	8841.142	-11.61607	8.422144E-008	-0.1072764	7
	28	9	1577.524	8742.52	-2097.639	1	8990.647	-13.49223	8.696057E-008	-0.1072561	7
	29	10	1265.625	8847.238	-2447.528	1	9179.544	-15.46374	-1.357686E-009	-0.1072928	6
	30	10	998.264	8964.757	-2970.426	1	9444.062	-18.33235	9.199209E-009	-0.1072017	6
	31	10	796.875	9094.674	-3583.965	1	9775.37	-21.50806	-1.349098E-009	-0.1072962	6
	32	11	627.7902	9265.636	-4381.32	1	10249.29	-25.30745	-7.2666E-009	-0.1069971	6
	33	11	505.5147	9460.777	-5264.115	1	10826.69	-29.0922	5.278147E-009	-0.1071484	6
	34	11	397.9953	9708.59	-6485.558	1	11675.58	-33.74383	1.013541E-010	-0.1071602	6
	35	12	315.5048	10028.16	-7934.105	1	12787.26	-38.35044	5.177006E-011	-0.107161	6
	36	12	252.4038	10413.35	-9634.89	1	14186.93	-42.77638	-3.268005E-011	-0.1071617	6
	37	12	198.6229	10947.06	-11867.81	1	16145.68	-47.31106	-9.263802E-011	-0.1071597	6
	38	13	158.3615	11599.18	-14444.88	1	18525.54	-51.23568	-1.149661E-010	-0.1071697	6
	39	13	125.558	12460.59	-17648.22	1	21603.84	-54.77584	-1.316943E-010	-0.1071608	6
	40	13	100.4464	13531.38	-21368.92	1	25292.86	-57.65691	-2.308042E-010	-0.1071662	6
	41	14	79.00281	15031.87	-26203.55	1	30208.99	-60.15892	-4.806486E-011	-0.107171	6
	42	14	63.3446	16798.63	-31505.4	1	35704.12	-61.93354	2.491108E-011	-0.1071693	6
	43	14	49.86702	19290.24	-38399.32	1	42972.34	-63.32692	-3.813165E-010	-0.1071732	6
	44	15	39.72458	22345.14	-46212.98	1	51331.71	-64.19507	-2.549397E-010	-0.1071661	6
	45	15	31.6723	26225.08	-55370.19	1	61266.73	-64.65627	-2.984507E-010	-0.1071684	6
	46	15	24.93351	31455.26	-66687.29	1	73733.49	-64.74754	-4.129943E-010	-0.1071673	6
	47	16	19.86229	37353.28	-78700.8	1	87115.35	-64.60987	-7.132413E-009	-0.1158061	6
	48	16	15.83615	45164.29	-93055.67	1	103436.8	-64.11052	-4.99136E-009	-0.1158167	6
	49	16	12.40079	55447.13	-110659.5	1	123773.6	-63.38634	-4.037328E-009	-0.1157997	5
	50	17	9.93114	66808.23	-128918.2	1	145200.7	-62.60582	-3.149586E-009	-0.1158016	5
	51	17	7.944915	80404.2	-149562.7	1	169805.3	-61.73774	-2.547344E-009	-0.1158035	5
	52	17	6.317385	96844.9	-173358.9	1	198575.5	-60.81061	-1.764266E-009	-0.1157998	5
	53	18	5.008013	116071.2	-200619.2	1	231777	-59.94783	-1.332382E-009	-0.1158017	5
	54	19	3.945707	138709.3	-232361.5	1	270614.3	-59.16471	-1.027439E-009	-0.115801	5
	55	21	3.158693	162992	-266192	1	312129.1	-58.52045	-8.884291E-010	-0.1157999	5
	56	22	2.504006	192602	-306755.5	1	362207.8	-57.8766	-7.421651E-010	-0.1158088	5
	57	24	1.998082	224904.1	-351716.7	1	417476.3	-57.40325	-6.68523E-010	-0.1158087	5
	58	26	1.584686	263109.6	-404357.6	1	482422.8	-56.94853	-5.356255E-010	-0.1158058	5
	59	28	1.266892	305488.7	-462210.4	1	554041.4	-56.53809	-4.593629E-010	-0.1158094	5
	60	31	0.999041	356702.1	-532093.4	1	640593.3	-56.16309	-4.551899E-010	-0.1158073	5
