EXPLAIN
TAG	EISPOT
TITLE	LABEL	Potentiostatic EIS	Test &Identifier
DATE	LABEL	1/25/2020	Date
TIME	LABEL	13:40:46	Time
NOTES	NOTES	6	&Notes...
	
	
	
	
	
	
PSTAT	PSTAT	REF600-11020	Potentiostat
VDC	POTEN	0.00000E+000	T	DC &Voltage (V)
FREQINIT	QUANT	1.00000E+006	Initial Fre&q. (Hz)
FREQFINAL	QUANT	1.00000E+000	Final Fre&q. (Hz)
PTSPERDEC	QUANT	1.00000E+001	Points/&decade
VAC	QUANT	2.50000E+001	AC &Voltage (mV rms)
AREA	QUANT	1.00000E-001	&Area (cm^2)
CONDIT	TWOPARAM	F	5.00000E+000	0.00000E+000	Conditionin&g	Time(s)	E(V)
DELAY	TWOPARAM	F	5.00000E+000	0.00000E+000	Init. De&lay	Time(s)	Stab.(mV/s)
SPEED	SELECTOR	0	&Optimize for:
ZGUESS	QUANT	5.00000E+002	E&stimated Z (ohms)
OCVCURVE	TABLE	39
	Pt	T	Vf	Vm	Ach	Over
	#	s	V vs. Ref.	V	V	bits
	0	0.258333	-3.61646E-002	-3.61646E-002	6.43313E-004	...........
	1	0.516667	-3.61668E-002	-3.62798E-002	6.43546E-004	...........
	2	0.775	-3.61802E-002	-3.63850E-002	6.41180E-004	...........
	3	1.03333	-3.62178E-002	-3.64754E-002	6.41980E-004	...........
	4	1.29167	-3.62836E-002	-3.65594E-002	6.42813E-004	...........
	5	1.55	-3.63683E-002	-3.66369E-002	6.46813E-004	...........
	6	1.80833	-3.64585E-002	-3.67076E-002	6.43380E-004	...........
	7	2.06667	-3.65453E-002	-3.67730E-002	6.38446E-004	...........
	8	2.325	-3.66252E-002	-3.68361E-002	6.41080E-004	...........
	9	2.58333	-3.66982E-002	-3.68938E-002	6.47446E-004	...........
	10	2.84167	-3.67657E-002	-3.69548E-002	6.43280E-004	...........
	11	3.1	-3.68289E-002	-3.70071E-002	6.41613E-004	...........
	12	3.35833	-3.68891E-002	-3.70549E-002	6.40713E-004	...........
	13	3.61667	-3.69460E-002	-3.71005E-002	6.44846E-004	...........
	14	3.875	-3.69994E-002	-3.71443E-002	6.42813E-004	...........
	15	4.13333	-3.70490E-002	-3.71828E-002	6.47646E-004	...........
	16	4.39167	-3.70952E-002	-3.72207E-002	6.50513E-004	...........
	17	4.65	-3.71382E-002	-3.72541E-002	6.44413E-004	...........
	18	4.90833	-3.71783E-002	-3.72916E-002	6.49313E-004	...........
	19	5.16667	-3.72161E-002	-3.73235E-002	6.48413E-004	...........
	20	5.425	-3.72522E-002	-3.73567E-002	6.41846E-004	...........
	21	5.68333	-3.72870E-002	-3.73877E-002	6.44780E-004	...........
	22	5.94167	-3.73207E-002	-3.74224E-002	6.40780E-004	...........
	23	6.2	-3.73536E-002	-3.74479E-002	6.47013E-004	...........
	24	6.45833	-3.73856E-002	-3.74756E-002	6.48246E-004	...........
	25	6.71667	-3.74162E-002	-3.75009E-002	6.46046E-004	...........
	26	6.975	-3.74451E-002	-3.75247E-002	6.48413E-004	...........
	27	7.23333	-3.74724E-002	-3.75511E-002	6.41180E-004	...........
	28	7.49167	-3.74982E-002	-3.75693E-002	6.44546E-004	...........
	29	7.75	-3.75227E-002	-3.75836E-002	6.48080E-004	...........
	30	8.00833	-3.75446E-002	-3.75714E-002	6.47446E-004	...........
	31	8.26667	-3.75627E-002	-3.76445E-002	6.44680E-004	...........
	32	8.525	-3.75774E-002	-3.75409E-002	6.42480E-004	...........
	33	8.78333	-3.75871E-002	-3.75858E-002	6.46813E-004	...........
	34	9.04167	-3.75907E-002	-3.76896E-002	6.48246E-004	...........
	35	9.3	-3.75965E-002	-3.76415E-002	6.46813E-004	...........
	36	9.5583	-3.76137E-002	-3.77217E-002	6.49480E-004	...........
	37	9.8167	-3.76393E-002	-3.76757E-002	6.46746E-004	...........
	38	10.075	-3.76630E-002	-3.76428E-002	6.47613E-004	...........
EOC	QUANT	-0.037663	Open Circuit (V)
PSTATMODEL	IQUANT	4	Pstat Model
PSTATSECTION	LABEL	REF600-11020	Pstat Section
PSTATSERIALNO	LABEL	11020	Pstat Serial Number
CTRLMODE	IQUANT	1	Control Mode
IESTAB	IQUANT	0	I/E Stability
CASPEED	IQUANT	1	Control Amp Speed
CONVENTION	IQUANT	1	Current Convention
ICHRANGE	IQUANT	2	Ich Range
ICHRANGEMODE	TOGGLE	F	Ich Auto Range
ICHOFFSETENABLE	TOGGLE	T	Ich Offset Enable
ICHOFFSET	QUANT	0	Ich Offset (V)
ICHFILTER	IQUANT	3	Ich Filter
VCHRANGE	IQUANT	2	Vch Range
VCHRANGEMODE	TOGGLE	F	Vch Auto Range
VCHOFFSETENABLE	TOGGLE	T	Vch Offset Enable
VCHOFFSET	QUANT	0	Vch Offset (V)
VCHFILTER	IQUANT	3	Vch Filter
ACHRANGE	IQUANT	2	Ach Range
ACHOFFSETENABLE	TOGGLE	F	Ach Offset Enable
ACHOFFSET	QUANT	0	Ach Offset (V)
ACHFILTER	IQUANT	3	Ach Filter
IERANGELOWERLIMIT	IQUANT	1	I/E Range Lower Limit
IERANGEMODE	TOGGLE	F	I/E AutoRange
IERANGE	IQUANT	8	I/E Range
POSFEEDENABLE	TOGGLE	F	Positive Feedback IR Comp
POSFEEDRESISTANCE	QUANT	0	Positive Feedback Resistance (ohm)
ACHSELECT	IQUANT	0	Ach Select
CABLEID	IQUANT	14	Cable ID
DCCALDATE	LABEL	12/22/2019	DC Calibration Date
ACCALDATE	LABEL	12/22/2019	AC Calibration Date
THERMOSELECT	IQUANT	1	Thermo Select
FRAMEWORKVERSION	QUANT	6.33	Framework Version
INSTRUMENTVERSION	LABEL	3.50	Instrument Version
ZCURVE	TABLE
	Pt	Time	Freq	Zreal	Zimag	Zsig	Zmod	Zphz	Idc	Vdc	IERange
	#	s	Hz	ohm	ohm	V	ohm	°	A	V	#
	0	1	1000078	2034.509	-2069.059	1	2901.763	-45.4824	-3.936058E-006	-0.0347174	8
	1	1	794390.6	2414.012	-2203.584	1	3268.522	-42.39079	2.150578E-006	-0.0360417	8
	2	2	630984.4	2809.605	-2298.606	1	3630.079	-39.28744	1.930052E-006	-0.0364145	8
	3	2	501234.4	3242.801	-2355.057	1	4007.749	-35.98872	5.333547E-007	-0.0362606	8
	4	2	398109.4	3673.302	-2373.467	1	4373.385	-32.86811	-5.123571E-007	-0.0360696	8
	5	3	316265.6	4095.228	-2332.082	1	4712.695	-29.65992	3.880459E-007	-0.0362751	8
	6	3	251203.1	4528.008	-2263.904	1	5062.422	-26.56404	-2.048671E-006	-0.0357854	8
	7	3	199546.9	4863.223	-2156.943	1	5320.088	-23.91831	1.196797E-006	-0.0364017	8
	8	4	158578.1	5270.277	-1995.907	1	5635.553	-20.74218	-7.17937E-007	-0.0360655	8
	9	4	125953.1	5606.149	-1817.289	1	5893.339	-17.96062	3.886829E-007	-0.0367006	7
	10	4	100078.1	5843.361	-1640.123	1	6069.174	-15.67844	3.978752E-008	-0.0361864	7
	11	5	79453.13	6065.028	-1481.909	1	6243.446	-13.73044	2.182261E-008	-0.0362069	7
	12	5	63140.62	6246.354	-1333.812	1	6387.173	-12.05359	-1.962851E-008	-0.0361112	7
	13	6	50203.12	6394.154	-1201.583	1	6506.074	-10.64284	-4.164655E-009	-0.0361577	7
	14	6	39890.62	6517.337	-1089.639	1	6607.798	-9.491542	1.922445E-008	-0.0362191	7
	15	6	31640.63	6617.407	-1001.851	1	6692.816	-8.608994	-1.991557E-008	-0.0361975	7
	16	7	25171.88	6703.313	-940.6979	1	6768.997	-7.988337	-3.045935E-009	-0.0361706	7
	17	7	20015.62	6774.79	-901.8007	1	6834.546	-7.58214	-2.359684E-008	-0.0361821	7
	18	7	15890.62	6843.701	-893.2846	1	6901.753	-7.436578	2.081514E-008	-0.0362201	7
	19	7	12609.37	6906.916	-909.2822	1	6966.512	-7.499751	6.499127E-009	-0.0362286	7
	20	8	10078.13	6964.935	-957.519	1	7030.445	-7.82779	2.104251E-008	-0.036222	7
	21	8	8015.625	7023.016	-1032.97	1	7098.576	-8.367274	9.673773E-009	-0.0362032	7
	22	8	6328.125	7085.685	-1154.922	1	7179.19	-9.257444	-1.047647E-008	-0.0361166	7
	23	9	5015.625	7147.912	-1312.239	1	7267.366	-10.40272	-1.560749E-008	-0.0362038	7
	24	9	3984.375	7218.175	-1518.45	1	7376.161	-11.8798	-1.085854E-008	-0.0361697	7
	25	9	3170.956	7294.559	-1780.653	1	7508.749	-13.71802	3.338544E-008	-0.0362031	7
	26	10	2527.573	7376.562	-2109.665	1	7672.311	-15.9603	5.837119E-008	-0.0363009	7
	27	10	1976.103	7487.39	-2552.874	1	7910.637	-18.82714	3.369794E-009	-0.0361907	7
	28	10	1577.524	7588.666	-3056.049	1	8180.91	-21.93525	5.429938E-008	-0.0362952	7
	29	11	1265.625	7740.438	-3678.928	1	8570.233	-25.42112	-1.998274E-009	-0.0361732	7
	30	11	998.264	7919.158	-4487.834	1	9102.401	-29.54049	3.037339E-008	-0.0362967	7
	31	11	796.875	8129.816	-5431.06	1	9777.03	-33.74459	5.286136E-009	-0.0363301	6
	32	12	627.7902	8401.333	-6663.453	1	10723.06	-38.41943	8.741529E-009	-0.0362995	6
	33	12	505.5147	8704.37	-8027.713	1	11841.04	-42.68418	1.45144E-009	-0.0361568	6
	34	12	397.9953	9124.494	-9868.67	1	13440.5	-47.24377	5.579235E-010	-0.0361957	6
	35	13	315.5048	9636.51	-12063.71	1	15440.05	-51.38209	5.899298E-010	-0.0361945	6
	36	13	252.4038	10255.41	-14635.85	1	17871.25	-54.98091	1.762845E-010	-0.0361997	6
	37	13	198.6229	11102.4	-18013.38	1	21159.99	-58.35274	5.390226E-010	-0.0361942	6
	38	13	158.3615	12136.03	-21916.98	1	25052.69	-61.0255	7.408626E-010	-0.0361984	6
	39	14	125.558	13519.25	-26773.99	1	29993.61	-63.20898	6.410957E-010	-0.0361981	6
	40	14	100.4464	15248.51	-32452.97	1	35856.83	-64.83282	3.609083E-010	-0.0362011	6
	41	14	79.00281	17695.33	-39793.09	1	43550.14	-66.02608	5.934851E-011	-0.0361995	6
	42	15	63.3446	20968.08	-47641.26	1	52051.42	-66.24454	3.794491E-010	-0.0362056	6
	43	15	49.86702	25370.69	-58086.29	1	63385.25	-66.40546	6.791029E-010	-0.0362087	6
	44	16	39.72458	30693.3	-69776.8	1	76229.13	-66.25635	6.466011E-010	-0.0362056	6
	45	16	31.6723	37861.14	-83147.1	1	91361.41	-65.51779	7.348267E-010	-0.0362078	6
	46	16	24.93351	47813.73	-98845.6	1	109802.5	-64.18594	2.036872E-010	-0.0362124	5
	47	17	19.86229	59433.96	-115414.7	1	129818.9	-62.75334	1.409522E-009	-0.0362034	5
	48	17	15.83615	73953.63	-133269	1	152413.2	-60.97324	-9.779855E-010	-0.0362097	5
	49	17	12.40079	92648.65	-153645.2	1	179417.4	-58.90985	-1.636501E-009	-0.0362021	5
	50	17	9.93114	111306.2	-174329.1	1	206832.6	-57.44246	-1.067363E-009	-0.0362019	5
	51	18	7.944915	131920.5	-196201.3	1	236427.5	-56.08416	1.138839E-010	-0.0362078	5
	52	18	6.317385	154879	-220405.7	1	269381.1	-54.90429	1.581757E-010	-0.0362095	5
	53	19	5.008013	179899.1	-248111.3	1	306468.4	-54.05511	2.923172E-010	-0.0361983	5
	54	20	3.945707	208110.8	-281678.5	1	350218.4	-53.54213	-2.351797E-010	-0.0362106	5
	55	25	3.158693	235611.1	-316892.3	1	394883.9	-53.369	4.191931E-011	-0.036208	5
	56	27	2.504006	267068.8	-361092.2	1	449125	-53.51286	-5.055828E-011	-0.036215	5
	57	28	1.998082	301204.9	-411625.6	1	510058.8	-53.80539	9.195201E-010	-0.0361742	5
	58	29	1.584686	338599.4	-474136.6	1	582627.8	-54.46789	2.233375E-010	-0.0361962	5
	59	31	1.266892	380478.3	-543946.6	1	663808.4	-55.02808	8.078161E-011	-0.0362379	5
	60	34	0.999041	432029.4	-633585.5	1	766863.8	-55.7107	1.618884E-011	-0.0362518	5
