EXPLAIN
TAG	EISPOT
TITLE	LABEL	Potentiostatic EIS	Test &Identifier
DATE	LABEL	2/18/2020	Date
TIME	LABEL	15:21:59	Time
NOTES	NOTES	1	&Notes...
	
PSTAT	PSTAT	REF600-11020	Potentiostat
VDC	POTEN	0.00000E+000	T	DC &Voltage (V)
FREQINIT	QUANT	1.00000E+006	Initial Fre&q. (Hz)
FREQFINAL	QUANT	1.00000E+000	Final Fre&q. (Hz)
PTSPERDEC	QUANT	1.00000E+001	Points/&decade
VAC	QUANT	2.50000E+001	AC &Voltage (mV rms)
AREA	QUANT	1.60000E-004	&Area (cm^2)
CONDIT	TWOPARAM	F	1.50000E+001	0.00000E+000	Conditionin&g	Time(s)	E(V)
DELAY	TWOPARAM	F	1.00000E+002	0.00000E+000	Init. De&lay	Time(s)	Stab.(mV/s)
SPEED	SELECTOR	1	&Optimize for:
ZGUESS	QUANT	1.00000E+003	E&stimated Z (ohms)
OCVCURVE	TABLE	39
	Pt	T	Vf	Vm	Ach	Over
	#	s	V vs. Ref.	V	V	bits
	0	0.258333	-6.87127E-002	-6.87127E-002	5.70671E-004	...........
	1	0.516667	-6.87147E-002	-6.88167E-002	5.67704E-004	...........
	2	0.775	-6.87342E-002	-6.92966E-002	5.71171E-004	...........
	3	1.03333	-6.88117E-002	-6.96590E-002	5.67871E-004	...........
	4	1.29167	-6.89845E-002	-6.97743E-002	5.70638E-004	...........
	5	1.55	-6.92318E-002	-6.97424E-002	5.65971E-004	...........
	6	1.80833	-6.94759E-002	-6.98044E-002	5.67404E-004	...........
	7	2.06667	-6.96512E-002	-6.98079E-002	5.67304E-004	...........
	8	2.325	-6.97498E-002	-6.99052E-002	5.67738E-004	...........
	9	2.58333	-6.98031E-002	-6.99299E-002	5.67938E-004	...........
	10	2.84167	-6.98406E-002	-6.98390E-002	5.68404E-004	...........
	11	3.1	-6.98699E-002	-6.99564E-002	5.63538E-004	...........
	12	3.35833	-6.98903E-002	-6.99823E-002	5.70504E-004	...........
	13	3.61667	-6.99135E-002	-7.01683E-002	5.71304E-004	...........
	14	3.875	-6.99555E-002	-7.01100E-002	5.68071E-004	...........
	15	4.13333	-7.00179E-002	-7.02891E-002	5.68571E-004	...........
	16	4.39167	-7.00873E-002	-7.01331E-002	5.67438E-004	...........
	17	4.65	-7.01458E-002	-7.02328E-002	5.67571E-004	...........
	18	4.90833	-7.01826E-002	-7.02302E-002	5.63438E-004	...........
	19	5.16667	-7.02023E-002	-7.02477E-002	5.66938E-004	...........
	20	5.425	-7.02167E-002	-7.02724E-002	5.67371E-004	...........
	21	5.68333	-7.02314E-002	-7.02498E-002	5.65804E-004	...........
	22	5.94167	-7.02458E-002	-7.03133E-002	5.65838E-004	...........
	23	6.2	-7.02600E-002	-7.03133E-002	5.67338E-004	...........
	24	6.45833	-7.02756E-002	-7.02988E-002	5.68771E-004	...........
	25	6.71667	-7.02921E-002	-7.03879E-002	5.70938E-004	...........
	26	6.975	-7.03105E-002	-7.04059E-002	5.70004E-004	...........
	27	7.23333	-7.03346E-002	-7.04050E-002	5.66004E-004	...........
	28	7.49167	-7.03624E-002	-7.04050E-002	5.64138E-004	...........
	29	7.75	-7.03862E-002	-7.04350E-002	5.70471E-004	...........
	30	8.00833	-7.04030E-002	-7.04391E-002	5.65971E-004	...........
	31	8.26667	-7.04160E-002	-7.04602E-002	5.71904E-004	...........
	32	8.525	-7.04275E-002	-7.04082E-002	5.73571E-004	...........
	33	8.78333	-7.04355E-002	-7.04607E-002	5.76904E-004	...........
	34	9.04167	-7.04404E-002	-7.05184E-002	5.72838E-004	...........
	35	9.3	-7.04496E-002	-7.05252E-002	5.68104E-004	...........
	36	9.5583	-7.04706E-002	-7.06189E-002	5.70738E-004	...........
	37	9.8167	-7.05030E-002	-7.05882E-002	5.75571E-004	...........
	38	10.075	-7.05405E-002	-7.06377E-002	5.66038E-004	...........
EOC	QUANT	-0.0705405	Open Circuit (V)
PSTATMODEL	IQUANT	4	Pstat Model
PSTATSECTION	LABEL	REF600-11020	Pstat Section
PSTATSERIALNO	LABEL	11020	Pstat Serial Number
CTRLMODE	IQUANT	1	Control Mode
IESTAB	IQUANT	0	I/E Stability
CASPEED	IQUANT	1	Control Amp Speed
CONVENTION	IQUANT	1	Current Convention
ICHRANGE	IQUANT	2	Ich Range
ICHRANGEMODE	TOGGLE	F	Ich Auto Range
ICHOFFSETENABLE	TOGGLE	T	Ich Offset Enable
ICHOFFSET	QUANT	0	Ich Offset (V)
ICHFILTER	IQUANT	3	Ich Filter
VCHRANGE	IQUANT	2	Vch Range
VCHRANGEMODE	TOGGLE	F	Vch Auto Range
VCHOFFSETENABLE	TOGGLE	T	Vch Offset Enable
VCHOFFSET	QUANT	0	Vch Offset (V)
VCHFILTER	IQUANT	3	Vch Filter
ACHRANGE	IQUANT	2	Ach Range
ACHOFFSETENABLE	TOGGLE	F	Ach Offset Enable
ACHOFFSET	QUANT	0	Ach Offset (V)
ACHFILTER	IQUANT	3	Ach Filter
IERANGELOWERLIMIT	IQUANT	1	I/E Range Lower Limit
IERANGEMODE	TOGGLE	F	I/E AutoRange
IERANGE	IQUANT	8	I/E Range
POSFEEDENABLE	TOGGLE	F	Positive Feedback IR Comp
POSFEEDRESISTANCE	QUANT	0	Positive Feedback Resistance (ohm)
ACHSELECT	IQUANT	0	Ach Select
CABLEID	IQUANT	14	Cable ID
DCCALDATE	LABEL	1/27/2020	DC Calibration Date
ACCALDATE	LABEL	1/27/2020	AC Calibration Date
THERMOSELECT	IQUANT	1	Thermo Select
FRAMEWORKVERSION	QUANT	6.33	Framework Version
INSTRUMENTVERSION	LABEL	3.50	Instrument Version
ZCURVE	TABLE
	Pt	Time	Freq	Zreal	Zimag	Zsig	Zmod	Zphz	Idc	Vdc	IERange
	#	s	Hz	ohm	ohm	V	ohm	°	A	V	#
	0	1	1000078	1654.651	-2137.55	1	2703.144	-52.257	-4.527063E-007	-0.0681843	8
	1	2	794390.6	2000.907	-2371.265	1	3102.665	-49.84185	-8.717377E-007	-0.0685851	8
	2	4	630984.4	2394.35	-2592.81	1	3529.246	-47.27884	7.654536E-007	-0.0689526	8
	3	5	501234.4	2859.61	-2783.971	1	3990.973	-44.23213	-2.804535E-007	-0.068872	8
	4	6	398109.4	3379.167	-2938.075	1	4477.84	-41.0059	-1.552981E-007	-0.0689145	8
	5	8	316265.6	3925.097	-3061.399	1	4977.806	-37.95263	7.602436E-007	-0.0690853	8
	6	9	251203.1	4498.678	-3095.383	1	5460.724	-34.5305	1.775751E-006	-0.0693395	8
	7	11	199546.9	5092.104	-3079.315	1	5950.773	-31.16234	-7.511848E-007	-0.0689144	8
	8	12	158578.1	5648.079	-2945.247	1	6369.873	-27.54024	7.083371E-007	-0.0690445	8
	9	14	125953.1	6167.457	-2817.226	1	6780.435	-24.5504	2.143816E-007	-0.0696483	7
	10	15	100078.1	6628.478	-2631.534	1	7131.738	-21.65329	-2.088136E-008	-0.0690027	7
	11	16	79453.13	7045.274	-2430.511	1	7452.736	-19.03365	-2.741773E-008	-0.0690023	7
	12	18	63140.62	7395.492	-2214.989	1	7720.07	-16.67324	-1.104845E-008	-0.0690427	7
	13	19	50203.12	7695.937	-2003.581	1	7952.471	-14.59261	4.865234E-008	-0.0690881	7
	14	21	39890.62	7936.107	-1803.09	1	8138.362	-12.80035	1.496047E-008	-0.0691009	7
	15	23	31640.63	8146.585	-1629.89	1	8308.031	-11.3138	4.916529E-008	-0.069093	7
	16	24	25171.88	8306.892	-1485.652	1	8438.697	-10.1399	-6.14286E-009	-0.0689972	7
	17	26	20015.62	8438.93	-1372.703	1	8549.845	-9.238994	5.723517E-009	-0.0690874	7
	18	27	15890.62	8557.474	-1296.74	1	8655.165	-8.61665	8.560857E-009	-0.0690127	7
	19	29	12609.37	8649.542	-1252.865	1	8739.809	-8.241829	3.495446E-008	-0.0691201	7
	20	30	10078.13	8746.121	-1253.572	1	8835.501	-8.15659	-1.903791E-008	-0.0690306	7
	21	32	8015.625	8840.038	-1279.052	1	8932.091	-8.232905	6.369243E-009	-0.0691886	6
	22	33	6328.125	8933.832	-1360.354	1	9036.809	-8.657916	-1.950415E-009	-0.0689997	6
	23	35	5015.625	9024.104	-1483.888	1	9145.292	-9.337929	4.703659E-010	-0.0691226	6
	24	37	3984.375	9116.917	-1655.848	1	9266.067	-10.29406	6.183522E-009	-0.0691896	6
	25	38	3170.956	9220.564	-1880.662	1	9410.403	-11.52814	-2.203315E-009	-0.0689993	6
	26	40	2527.573	9331.521	-2167.152	1	9579.87	-13.0746	-2.8778E-010	-0.0690817	6
	27	41	1976.103	9470.829	-2560.213	1	9810.77	-15.12699	-9.020683E-010	-0.0690169	6
	28	43	1577.524	9614.58	-3011.306	1	10075.12	-17.39067	7.93231E-010	-0.0690962	6
	29	44	1265.625	9781.08	-3552.05	1	10406.09	-19.95875	-3.559812E-009	-0.0690227	6
	30	46	998.264	9985.82	-4261.249	1	10857.02	-23.10939	6.920621E-009	-0.069159	6
	31	47	796.875	10216.23	-5084.855	1	11411.71	-26.4606	4.725042E-010	-0.0691248	6
	32	49	627.7902	10508.99	-6151.961	1	12177.25	-30.34471	-5.20583E-010	-0.0690155	6
	33	50	505.5147	10808.72	-7324.676	1	13056.77	-34.12406	-3.213396E-009	-0.0690668	6
	34	51	397.9953	11190.41	-8906.804	1	14302.32	-38.5174	1.576356E-009	-0.0690451	6
	35	53	315.5048	11637.08	-10792.46	1	15871.32	-42.84346	9.165304E-010	-0.0690447	6
	36	54	252.4038	12143.51	-13011.86	1	17798.13	-46.97703	9.628569E-010	-0.0690484	6
	37	56	198.6229	12785.12	-15936.42	1	20431.07	-51.26141	1.034741E-009	-0.0690499	6
	38	57	158.3615	13523.76	-19348.6	1	23606.36	-55.04827	4.975607E-010	-0.0690494	6
	39	58	125.558	14454.01	-23635.74	1	27704.99	-58.55289	8.894522E-010	-0.0690529	6
	40	60	100.4464	15539.98	-28696.14	1	32633.71	-61.56288	8.583231E-010	-0.0690536	6
	41	61	79.00281	17011.58	-35390.86	1	39267.12	-64.32746	1.426586E-009	-0.069055	6
	42	62	63.3446	18625.21	-43043.1	1	46899.96	-66.60134	7.907225E-010	-0.0690443	6
	43	64	49.86702	21380.43	-52651.24	1	56826.71	-67.89909	6.264877E-010	-0.0690485	6
	44	65	39.72458	24390.43	-64359.14	1	68825.8	-69.24461	3.909104E-010	-0.0690425	6
	45	67	31.6723	28285.05	-78143.93	1	83105.46	-70.10172	7.862002E-010	-0.0690457	6
	46	68	24.93351	33766.08	-96007.4	1	101772.1	-70.62307	1.082569E-009	-0.0690498	6
	47	69	19.86229	40531.11	-116246.2	1	123109.5	-70.77807	1.019343E-009	-0.0690478	5
	48	71	15.83615	49305.81	-139945	1	148376.7	-70.59148	5.383514E-010	-0.0690493	5
	49	72	12.40079	61529.49	-171964.5	1	182640.8	-70.31261	2.201892E-010	-0.0690481	5
	50	73	9.93114	76783.56	-205007.7	1	218915.2	-69.46707	3.112349E-010	-0.0690476	5
	51	75	7.944915	95947.9	-243838.4	1	262036.5	-68.52087	2.517658E-010	-0.0690547	5
	52	77	6.317385	120943.8	-289798.3	1	314023	-67.34738	4.166549E-010	-0.0690658	5
	53	79	5.008013	153480	-343331.7	1	376075.5	-65.91386	-2.580066E-011	-0.069056	5
	54	81	3.945707	195214.4	-404805.3	1	449417.4	-64.25465	6.12948E-010	-0.0690504	5
	55	84	3.158693	242918.8	-469069.6	1	528238.4	-62.62154	-3.495736E-010	-0.0690678	5
	56	87	2.504006	303562.8	-540853.9	1	620220.4	-60.696	7.306428E-010	-0.0690543	5
	57	90	1.998082	372635.1	-616081.8	1	720009.5	-58.83249	3.376677E-011	-0.0690182	5
	58	93	1.584686	450907.7	-698194.5	1	831139.8	-57.14483	4.384937E-010	-0.0690747	5
	59	97	1.266892	542779.7	-783625.2	1	953246	-55.29151	2.234228E-010	-0.0690216	5
	60	101	0.999041	647473.9	-880308.1	1	1092778	-53.66521	2.411591E-011	-0.0691465	4
