EXPLAIN
TAG	EISPOT
TITLE	LABEL	Potentiostatic EIS	Test &Identifier
DATE	LABEL	7/13/2020	Date
TIME	LABEL	20:13:52	Time
NOTES	NOTES	1	&Notes...
	
PSTAT	PSTAT	REF600-11020	Potentiostat
VDC	POTEN	0.00000E+000	T	DC &Voltage (V)
FREQINIT	QUANT	1.00000E+006	Initial Fre&q. (Hz)
FREQFINAL	QUANT	1.00000E+000	Final Fre&q. (Hz)
PTSPERDEC	QUANT	1.00000E+001	Points/&decade
VAC	QUANT	2.50000E+001	AC &Voltage (mV rms)
AREA	QUANT	4.00000E-004	&Area (cm^2)
CONDIT	TWOPARAM	F	5.00000E+000	0.00000E+000	Conditionin&g	Time(s)	E(V)
DELAY	TWOPARAM	F	3.00000E+000	0.00000E+000	Init. De&lay	Time(s)	Stab.(mV/s)
SPEED	SELECTOR	0	&Optimize for:
ZGUESS	QUANT	1.00000E+003	E&stimated Z (ohms)
OCVCURVE	TABLE	39
	Pt	T	Vf	Vm	Ach	Over
	#	s	V vs. Ref.	V	V	bits
	0	0.258333	2.04381E-001	2.04381E-001	5.26150E-004	...........
	1	0.516667	2.04382E-001	2.04432E-001	5.29550E-004	...........
	2	0.775	2.04388E-001	2.04476E-001	5.28750E-004	...........
	3	1.03333	2.04404E-001	2.04511E-001	5.30183E-004	...........
	4	1.29167	2.04432E-001	2.04541E-001	5.30883E-004	...........
	5	1.55	2.04467E-001	2.04568E-001	5.27450E-004	...........
	6	1.80833	2.04502E-001	2.04587E-001	5.30317E-004	...........
	7	2.06667	2.04534E-001	2.04609E-001	5.29816E-004	...........
	8	2.325	2.04562E-001	2.04629E-001	5.26117E-004	...........
	9	2.58333	2.04585E-001	2.04643E-001	5.28517E-004	...........
	10	2.84167	2.04606E-001	2.04655E-001	5.31683E-004	...........
	11	3.1	2.04624E-001	2.04670E-001	5.31583E-004	...........
	12	3.35833	2.04640E-001	2.04679E-001	5.32450E-004	...........
	13	3.61667	2.04654E-001	2.04691E-001	5.30050E-004	...........
	14	3.875	2.04667E-001	2.04694E-001	5.30950E-004	...........
	15	4.13333	2.04677E-001	2.04698E-001	5.27483E-004	...........
	16	4.39167	2.04686E-001	2.04705E-001	5.32717E-004	...........
	17	4.65	2.04693E-001	2.04708E-001	5.24483E-004	...........
	18	4.90833	2.04699E-001	2.04713E-001	5.32450E-004	...........
	19	5.16667	2.04704E-001	2.04721E-001	5.33050E-004	...........
	20	5.425	2.04709E-001	2.04730E-001	5.29550E-004	...........
	21	5.68333	2.04714E-001	2.04728E-001	5.32417E-004	...........
	22	5.94167	2.04720E-001	2.04727E-001	5.26383E-004	...........
	23	6.2	2.04724E-001	2.04726E-001	5.29683E-004	...........
	24	6.45833	2.04727E-001	2.04721E-001	5.31250E-004	...........
	25	6.71667	2.04727E-001	2.04730E-001	5.30950E-004	...........
	26	6.975	2.04726E-001	2.04726E-001	5.30916E-004	...........
	27	7.23333	2.04726E-001	2.04722E-001	5.28750E-004	...........
	28	7.49167	2.04726E-001	2.04728E-001	5.32083E-004	...........
	29	7.75	2.04726E-001	2.04723E-001	5.28850E-004	...........
	30	8.00833	2.04725E-001	2.04724E-001	5.32050E-004	...........
	31	8.26667	2.04725E-001	2.04727E-001	5.32083E-004	...........
	32	8.525	2.04725E-001	2.04723E-001	5.29783E-004	...........
	33	8.78333	2.04725E-001	2.04724E-001	5.23117E-004	...........
	34	9.04167	2.04725E-001	2.04720E-001	5.29816E-004	...........
	35	9.3	2.04724E-001	2.04720E-001	5.25383E-004	...........
	36	9.5583	2.04723E-001	2.04721E-001	5.26683E-004	...........
	37	9.8167	2.04722E-001	2.04719E-001	5.26783E-004	...........
	38	10.075	2.04721E-001	2.04717E-001	5.33117E-004	...........
EOC	QUANT	0.2047207	Open Circuit (V)
PSTATMODEL	IQUANT	4	Pstat Model
PSTATSECTION	LABEL	REF600-11020	Pstat Section
PSTATSERIALNO	LABEL	11020	Pstat Serial Number
CTRLMODE	IQUANT	1	Control Mode
IESTAB	IQUANT	0	I/E Stability
CASPEED	IQUANT	1	Control Amp Speed
CONVENTION	IQUANT	1	Current Convention
ICHRANGE	IQUANT	2	Ich Range
ICHRANGEMODE	TOGGLE	F	Ich Auto Range
ICHOFFSETENABLE	TOGGLE	T	Ich Offset Enable
ICHOFFSET	QUANT	0	Ich Offset (V)
ICHFILTER	IQUANT	3	Ich Filter
VCHRANGE	IQUANT	2	Vch Range
VCHRANGEMODE	TOGGLE	F	Vch Auto Range
VCHOFFSETENABLE	TOGGLE	T	Vch Offset Enable
VCHOFFSET	QUANT	0	Vch Offset (V)
VCHFILTER	IQUANT	3	Vch Filter
ACHRANGE	IQUANT	2	Ach Range
ACHOFFSETENABLE	TOGGLE	F	Ach Offset Enable
ACHOFFSET	QUANT	0	Ach Offset (V)
ACHFILTER	IQUANT	3	Ach Filter
IERANGELOWERLIMIT	IQUANT	1	I/E Range Lower Limit
IERANGEMODE	TOGGLE	F	I/E AutoRange
IERANGE	IQUANT	8	I/E Range
POSFEEDENABLE	TOGGLE	F	Positive Feedback IR Comp
POSFEEDRESISTANCE	QUANT	0	Positive Feedback Resistance (ohm)
ACHSELECT	IQUANT	0	Ach Select
CABLEID	IQUANT	14	Cable ID
DCCALDATE	LABEL	6/26/2020	DC Calibration Date
ACCALDATE	LABEL	6/26/2020	AC Calibration Date
THERMOSELECT	IQUANT	1	Thermo Select
FRAMEWORKVERSION	QUANT	6.33	Framework Version
INSTRUMENTVERSION	LABEL	3.50	Instrument Version
ZCURVE	TABLE
	Pt	Time	Freq	Zreal	Zimag	Zsig	Zmod	Zphz	Idc	Vdc	IERange
	#	s	Hz	ohm	ohm	V	ohm	°	A	V	#
	0	1	1000078	1952.252	-1749.767	1	2621.635	-41.86928	1.044967E-009	0.2071359	8
	1	1	794390.6	2310.488	-1782.425	1	2918.115	-37.64838	-3.143914E-008	0.2067911	8
	2	1	630984.4	2670.863	-1755.798	1	3196.3	-33.32051	1.502121E-008	0.2066316	8
	3	2	501234.4	3001.541	-1673.996	1	3436.788	-29.14895	-9.227255E-009	0.2065389	8
	4	2	398109.4	3302.052	-1551.951	1	3648.575	-25.17333	1.819773E-007	0.2064843	8
	5	2	316265.6	3543.049	-1414.167	1	3814.848	-21.75883	1.510227E-008	0.2064573	8
	6	3	251203.1	3749.507	-1271.801	1	3959.328	-18.7365	1.119579E-008	0.2064406	8
	7	3	199546.9	3910.396	-1137.365	1	4072.444	-16.21742	1.826497E-008	0.2064322	8
	8	3	158578.1	4044.085	-1017.647	1	4170.16	-14.12456	-2.25206E-008	0.2064367	8
	9	4	125953.1	4189.857	-857.9226	1	4276.791	-11.57203	4.671882E-008	0.2063699	7
	10	4	100078.1	4278.053	-781.4606	1	4348.841	-10.35194	6.443846E-009	0.2064158	7
	11	4	79453.13	4348.743	-727.9996	1	4409.257	-9.50346	-6.682923E-009	0.2063996	7
	12	5	63140.62	4413.221	-692.514	1	4467.224	-8.91802	-1.366825E-008	0.2064066	7
	13	5	50203.12	4475.04	-673.0431	1	4525.37	-8.553142	-6.897037E-009	0.2063989	7
	14	5	39890.62	4534.454	-669.379	1	4583.595	-8.397391	-1.436992E-008	0.2064039	7
	15	6	31640.63	4595.628	-682.2624	1	4645.997	-8.444396	1.205246E-008	0.2063956	7
	16	6	25171.88	4656.77	-709.8066	1	4710.556	-8.666583	3.310623E-009	0.2064021	7
	17	6	20015.62	4721.498	-753.4548	1	4781.238	-9.06679	-1.436365E-008	0.2064075	7
	18	6	15890.62	4790.555	-816.1321	1	4859.577	-9.66825	-6.336539E-010	0.2063799	7
	19	7	12609.37	4863.09	-897.2023	1	4945.161	-10.45308	1.429182E-008	0.2063788	7
	20	7	10078.13	4940.912	-996.793	1	5040.457	-11.40591	1.412616E-008	0.2063702	7
	21	7	8015.625	5026.191	-1122.669	1	5150.047	-12.59112	1.117536E-010	0.20638	7
	22	8	6328.125	5124.299	-1282.224	1	5282.285	-14.04834	1.331668E-008	0.206386	7
	23	8	5015.625	5230.978	-1475.115	1	5434.987	-15.74824	-1.179612E-008	0.2063921	7
	24	8	3984.375	5350.117	-1705.383	1	5615.344	-17.68001	-1.324633E-008	0.206401	7
	25	9	3170.956	5483.005	-1983.671	1	5830.806	-19.88939	6.903308E-009	0.2063753	7
	26	9	2527.573	5631.385	-2313.551	1	6088.104	-22.3344	1.552479E-008	0.2063822	7
	27	9	1976.103	5814.701	-2747.14	1	6430.981	-25.28827	1.457773E-008	0.2063778	7
	28	10	1577.524	6007.867	-3227.13	1	6819.738	-28.2425	1.113397E-008	0.2063857	7
	29	10	1265.625	6221.725	-3793.581	1	7287.052	-31.37197	1.005835E-008	0.2063621	7
	30	10	998.264	6483.858	-4522.448	1	7905.249	-34.89552	-9.180085E-009	0.2064001	7
	31	11	796.875	6771.666	-5363.249	1	8638.281	-38.37969	-8.068697E-010	0.206391	7
	32	11	627.7902	7127.958	-6448.086	1	9611.74	-42.13309	-8.38328E-009	0.2064016	7
	33	11	505.5147	7506.753	-7642.018	1	10712.23	-45.51159	6.790801E-010	0.2063753	6
	34	12	397.9953	7993.612	-9250.896	1	12226.08	-49.17002	3.127947E-010	0.2064016	6
	35	12	315.5048	8566.437	-11159.84	1	14068.61	-52.48968	3.811625E-010	0.2063946	6
	36	12	252.4038	9237.312	-13386.82	1	16264.53	-55.39315	2.68656E-010	0.2063932	6
	37	13	198.6229	10130.76	-16293.95	1	19186.59	-58.12872	3.128081E-010	0.2063942	6
	38	13	158.3615	11191.14	-19629.29	1	22595.37	-60.31149	3.981481E-010	0.206391	6
	39	13	125.558	12562.16	-23752.58	1	26869.93	-62.12673	4.622937E-010	0.2063946	6
	40	14	100.4464	14230.12	-28509.48	1	31863.56	-63.47454	4.553239E-010	0.2063898	6
	41	14	79.00281	16528.86	-34647.67	1	38388.33	-64.49627	2.108698E-010	0.2063912	6
	42	14	63.3446	19230.49	-41374.46	1	45625.18	-65.0714	1.649212E-010	0.2063895	6
	43	15	49.86702	22978.48	-50016.4	1	55042.27	-65.32505	-1.098911E-010	0.206389	6
	44	15	39.72458	27553.49	-59685.02	1	65738.09	-65.21967	1.463918E-010	0.2063908	6
	45	15	31.6723	33358.43	-70880.75	1	78338.15	-64.79704	4.483149E-010	0.2063864	6
	46	16	24.93351	41254.66	-84538.59	1	94067.63	-63.98772	-5.689622E-010	0.2063883	6
	47	16	19.86229	50661	-99138.6	1	111332.8	-62.93243	-1.545153E-009	0.2063785	5
	48	16	15.83615	62353.64	-115471.7	1	131231.4	-61.63136	3.481199E-010	0.2063827	5
	49	16	12.40079	77908.49	-134608.7	1	155528.9	-59.93871	-1.306239E-009	0.2063827	5
	50	17	9.93114	94030.23	-153389.2	1	179916.5	-58.49099	-7.966892E-010	0.2063775	5
	51	17	7.944915	112836.7	-173175.8	1	206692.9	-56.91282	1.129413E-009	0.206374	5
	52	18	6.317385	134108.3	-195760.1	1	237291.1	-55.58633	-2.355213E-010	0.2063868	5
	53	18	5.008013	157503.4	-220686.7	1	271127.2	-54.48466	-4.157511E-010	0.2063732	5
	54	19	3.945707	183163.9	-248699.9	1	308869.9	-53.62888	1.717232E-010	0.2063793	5
	55	20	3.158693	208709.6	-279665.5	1	348959.1	-53.26664	-2.252829E-010	0.2063718	5
	56	21	2.504006	236904.3	-316642.7	1	395457	-53.19707	3.247337E-011	0.2063698	5
	57	22	1.998082	266639.3	-360073.3	1	448050.6	-53.47955	2.140562E-010	0.2064068	5
	58	24	1.584686	299560.7	-412177.3	1	509535.8	-53.99124	6.189511E-011	0.2063627	5
	59	26	1.266892	337079.6	-473218.2	1	580997.6	-54.53722	7.002137E-012	0.2063303	5
	60	28	0.999041	381884	-551805.2	1	671062.1	-55.31432	-2.260049E-011	0.2063262	5
