EXPLAIN
TAG	EISPOT
TITLE	LABEL	Potentiostatic EIS	Test &Identifier
DATE	LABEL	3/9/2020	Date
TIME	LABEL	20:37:59	Time
NOTES	NOTES	1	&Notes...
	
PSTAT	PSTAT	REF600-11020	Potentiostat
VDC	POTEN	0.00000E+000	T	DC &Voltage (V)
FREQINIT	QUANT	1.00000E+006	Initial Fre&q. (Hz)
FREQFINAL	QUANT	1.00000E+000	Final Fre&q. (Hz)
PTSPERDEC	QUANT	1.00000E+001	Points/&decade
VAC	QUANT	2.50000E+001	AC &Voltage (mV rms)
AREA	QUANT	4.00000E-005	&Area (cm^2)
CONDIT	TWOPARAM	F	5.00000E+000	0.00000E+000	Conditionin&g	Time(s)	E(V)
DELAY	TWOPARAM	T	3.00000E+000	0.00000E+000	Init. De&lay	Time(s)	Stab.(mV/s)
SPEED	SELECTOR	0	&Optimize for:
ZGUESS	QUANT	1.00000E+003	E&stimated Z (ohms)
OCVCURVE	TABLE	12
	Pt	T	Vf	Vm	Ach	Over
	#	s	V vs. Ref.	V	V	bits
	0	0.258333	-9.45668E-002	-9.45668E-002	5.75463E-004	...........
	1	0.516667	-9.45669E-002	-9.45724E-002	5.73563E-004	...........
	2	0.775	-9.45675E-002	-9.45767E-002	5.79897E-004	...........
	3	1.03333	-9.45693E-002	-9.45794E-002	5.77397E-004	...........
	4	1.29167	-9.45721E-002	-9.45816E-002	5.78597E-004	...........
	5	1.55	-9.45754E-002	-9.45846E-002	5.75830E-004	...........
	6	1.80833	-9.45787E-002	-9.45897E-002	5.83297E-004	...........
	7	2.06667	-9.45819E-002	-9.45918E-002	5.81530E-004	...........
	8	2.325	-9.45852E-002	-9.45965E-002	5.75930E-004	...........
	9	2.58333	-9.45887E-002	-9.46010E-002	5.78897E-004	...........
	10	2.84167	-9.45924E-002	-9.46038E-002	5.80163E-004	...........
	11	3.1	-9.45962E-002	-9.46055E-002	5.75697E-004	...........
EOC	QUANT	-0.0945962	Open Circuit (V)
PSTATMODEL	IQUANT	4	Pstat Model
PSTATSECTION	LABEL	REF600-11020	Pstat Section
PSTATSERIALNO	LABEL	11020	Pstat Serial Number
CTRLMODE	IQUANT	1	Control Mode
IESTAB	IQUANT	0	I/E Stability
CASPEED	IQUANT	1	Control Amp Speed
CONVENTION	IQUANT	1	Current Convention
ICHRANGE	IQUANT	2	Ich Range
ICHRANGEMODE	TOGGLE	F	Ich Auto Range
ICHOFFSETENABLE	TOGGLE	T	Ich Offset Enable
ICHOFFSET	QUANT	0	Ich Offset (V)
ICHFILTER	IQUANT	3	Ich Filter
VCHRANGE	IQUANT	2	Vch Range
VCHRANGEMODE	TOGGLE	F	Vch Auto Range
VCHOFFSETENABLE	TOGGLE	T	Vch Offset Enable
VCHOFFSET	QUANT	0	Vch Offset (V)
VCHFILTER	IQUANT	3	Vch Filter
ACHRANGE	IQUANT	2	Ach Range
ACHOFFSETENABLE	TOGGLE	F	Ach Offset Enable
ACHOFFSET	QUANT	0	Ach Offset (V)
ACHFILTER	IQUANT	3	Ach Filter
IERANGELOWERLIMIT	IQUANT	1	I/E Range Lower Limit
IERANGEMODE	TOGGLE	F	I/E AutoRange
IERANGE	IQUANT	8	I/E Range
POSFEEDENABLE	TOGGLE	F	Positive Feedback IR Comp
POSFEEDRESISTANCE	QUANT	0	Positive Feedback Resistance (ohm)
ACHSELECT	IQUANT	0	Ach Select
CABLEID	IQUANT	14	Cable ID
DCCALDATE	LABEL	2/27/2020	DC Calibration Date
ACCALDATE	LABEL	2/27/2020	AC Calibration Date
THERMOSELECT	IQUANT	1	Thermo Select
FRAMEWORKVERSION	QUANT	6.33	Framework Version
INSTRUMENTVERSION	LABEL	3.50	Instrument Version
ZCURVE	TABLE
	Pt	Time	Freq	Zreal	Zimag	Zsig	Zmod	Zphz	Idc	Vdc	IERange
	#	s	Hz	ohm	ohm	V	ohm	°	A	V	#
	0	1	1000078	1904.556	-2148.301	1	2870.981	-48.44172	2.825501E-008	-0.0921942	8
	1	1	794390.6	2326.228	-2328.664	1	3291.506	-45.02998	4.777316E-008	-0.0925286	8
	2	2	630984.4	2799.759	-2445.519	1	3717.42	-41.1364	3.767384E-008	-0.0926627	8
	3	2	501234.4	3302.264	-2490.265	1	4135.984	-37.02026	4.313912E-008	-0.0927566	8
	4	2	398109.4	3800.951	-2447.295	1	4520.673	-32.77602	3.711807E-008	-0.0928206	8
	5	3	316265.6	4266.64	-2338.554	1	4865.497	-28.72724	4.573188E-008	-0.0928236	8
	6	3	251203.1	4686.575	-2166.115	1	5162.949	-24.80618	3.102675E-008	-0.0928382	8
	7	3	199546.9	5044.604	-1965.705	1	5414.058	-21.28912	4.039827E-008	-0.0928491	8
	8	4	158578.1	5333.225	-1757.109	1	5615.222	-18.23523	3.613436E-008	-0.0928453	8
	9	4	125953.1	5618.342	-1449.852	1	5802.399	-14.46988	-1.180407E-009	-0.0928974	7
	10	4	100078.1	5773.376	-1275.069	1	5912.501	-12.45404	1.445058E-009	-0.0929066	7
	11	5	79453.13	5913.031	-1129.81	1	6020.001	-10.81719	1.082492E-009	-0.092912	7
	12	5	63140.62	6021.637	-1005.074	1	6104.939	-9.475907	9.705566E-010	-0.0929236	7
	13	5	50203.12	6111.171	-904.827	1	6177.793	-8.422091	8.752456E-010	-0.0929235	7
	14	6	39890.62	6188.652	-828.4283	1	6243.854	-7.62443	1.191696E-009	-0.0929255	7
	15	6	31640.63	6257.494	-773.3892	1	6305.106	-7.045688	5.856576E-010	-0.0929283	7
	16	6	25171.88	6317.289	-741.0617	1	6360.606	-6.690613	2.10916E-009	-0.092926	7
	17	7	20015.62	6375.114	-728.6149	1	6416.616	-6.520072	1.16904E-009	-0.0929282	7
	18	7	15890.62	6432.446	-736.4684	1	6474.469	-6.531511	1.143551E-009	-0.0929253	7
	19	7	12609.37	6489.305	-765.1287	1	6534.256	-6.724476	2.42934E-009	-0.0929209	7
	20	8	10078.13	6544.219	-811.8275	1	6594.381	-7.071565	2.322457E-009	-0.0929279	7
	21	8	8015.625	6602.346	-883.6063	1	6661.211	-7.622724	1.8227E-009	-0.092926	7
	22	8	6328.125	6664.137	-983.507	1	6736.32	-8.39523	7.656978E-010	-0.0929349	7
	23	9	5015.625	6728.67	-1115.064	1	6820.438	-9.409447	1.241067E-009	-0.0929318	7
	24	9	3984.375	6797.312	-1283.533	1	6917.435	-10.69323	2.971145E-009	-0.0929231	7
	25	9	3170.956	6870.534	-1493.787	1	7031.048	-12.2663	2.243386E-009	-0.0929269	7
	26	9	2527.573	6948.561	-1753.559	1	7166.412	-14.16359	1.991497E-009	-0.0929307	7
	27	10	1976.103	7047.422	-2110.094	1	7356.539	-16.66842	1.270304E-009	-0.092936	7
	28	10	1577.524	7151.858	-2517.484	1	7582.005	-19.39228	2.119298E-009	-0.0929324	7
	29	10	1265.625	7269.389	-3006.094	1	7866.423	-22.46645	2.833632E-009	-0.0929336	7
	30	11	998.264	7420.281	-3652.021	1	8270.298	-26.20491	1.829289E-009	-0.0929353	7
	31	11	796.875	7589.673	-4406.386	1	8776.068	-30.13844	1.942884E-009	-0.0929338	7
	32	11	627.7902	7815.933	-5385.443	1	9491.67	-34.56816	-2.75445E-010	-0.0928807	6
	33	12	505.5147	8057.854	-6477.446	1	10338.58	-38.79467	-5.322722E-010	-0.0928761	6
	34	12	397.9953	8387.937	-7952.794	1	11558.74	-43.47461	4.482963E-010	-0.0928705	6
	35	12	315.5048	8784.582	-9711.55	1	13095.16	-47.86908	4.205707E-010	-0.0928729	6
	36	13	252.4038	9257.399	-11769.86	1	14974.28	-51.81374	3.121688E-010	-0.0928741	6
	37	13	198.6229	9889.83	-14470.14	1	17526.94	-55.64878	3.322949E-010	-0.0928739	6
	38	13	158.3615	10639.4	-17586.52	1	20554.38	-58.82713	2.497342E-010	-0.0928754	6
	39	14	125.558	11602.36	-21470.76	1	24405.08	-61.61411	4.310923E-010	-0.0928742	6
	40	14	100.4464	12760.29	-25997.7	1	28960.41	-63.85711	5.073901E-010	-0.0928782	6
	41	14	79.00281	14336.56	-31925.3	1	34996.6	-65.81678	3.537583E-010	-0.0928855	6
	42	15	63.3446	16168.8	-38538.74	1	41793.12	-67.23967	1.324162E-010	-0.0928809	6
	43	15	49.86702	18687.28	-47216.99	1	50780.49	-68.40761	1.496762E-010	-0.092884	6
	44	15	39.72458	21759.18	-57210.92	1	61209.08	-69.17655	4.112274E-010	-0.0928769	6
	45	16	31.6723	25675.96	-69173.69	1	73785.19	-69.63603	5.15658E-010	-0.0928799	6
	46	16	24.93351	31054.84	-84385.37	1	89918.26	-69.79578	1.325319E-010	-0.0928802	6
	47	16	19.86229	37723.71	-101610.8	1	108387.4	-69.6322	3.235811E-010	-0.0928714	5
	48	17	15.83615	46245.68	-122002.7	1	130473.5	-69.24056	-8.774831E-010	-0.0928733	5
	49	17	12.40079	58288.5	-147782.2	1	158862	-68.47465	-4.159056E-010	-0.0928699	5
	50	17	9.93114	72338.72	-174953	1	189318.4	-67.53613	-7.2998E-010	-0.0928697	5
	51	18	7.944915	89618.97	-206136.4	1	224775	-66.50273	-5.838814E-010	-0.0928662	5
	52	18	6.317385	111959.1	-242254.8	1	266874.9	-65.19578	1.323734E-010	-0.0928866	5
	53	19	5.008013	139606.4	-283552.1	1	316056.6	-63.78675	-5.617901E-011	-0.0928779	5
	54	20	3.945707	173168.5	-331231.8	1	373767.1	-62.39936	-2.635281E-010	-0.0928791	5
	55	21	3.158693	210172.8	-379875.8	1	434140.8	-61.04568	-1.675028E-011	-0.0928928	5
	56	22	2.504006	254338.1	-437107.5	1	505718.1	-59.80632	1.755208E-010	-0.092884	5
	57	23	1.998082	302925.7	-497895.3	1	582806.7	-58.68314	-3.545161E-011	-0.0929215	5
	58	24	1.584686	359354.7	-570787.4	1	674488	-57.80642	-7.846918E-011	-0.0929364	5
	59	26	1.266892	418854.4	-648512.4	1	772015.1	-57.14281	-3.919367E-011	-0.0929014	5
	60	29	0.999041	491156.3	-742247.9	1	890037.3	-56.50681	-1.444728E-011	-0.0928796	5
