EXPLAIN
TAG	EISPOT
TITLE	LABEL	Potentiostatic EIS	Test &Identifier
DATE	LABEL	1/21/2020	Date
TIME	LABEL	18:07:34	Time
NOTES	NOTES	6	&Notes...
	
	
	
	
	
	
PSTAT	PSTAT	REF600-11020	Potentiostat
VDC	POTEN	0.00000E+000	T	DC &Voltage (V)
FREQINIT	QUANT	1.00000E+006	Initial Fre&q. (Hz)
FREQFINAL	QUANT	1.00000E+000	Final Fre&q. (Hz)
PTSPERDEC	QUANT	1.00000E+001	Points/&decade
VAC	QUANT	2.50000E+001	AC &Voltage (mV rms)
AREA	QUANT	1.00000E-001	&Area (cm^2)
CONDIT	TWOPARAM	F	5.00000E+000	0.00000E+000	Conditionin&g	Time(s)	E(V)
DELAY	TWOPARAM	F	5.00000E+000	0.00000E+000	Init. De&lay	Time(s)	Stab.(mV/s)
SPEED	SELECTOR	0	&Optimize for:
ZGUESS	QUANT	5.00000E+002	E&stimated Z (ohms)
OCVCURVE	TABLE	39
	Pt	T	Vf	Vm	Ach	Over
	#	s	V vs. Ref.	V	V	bits
	0	0.258333	-4.35176E-002	-4.35176E-002	6.61079E-004	...........
	1	0.516667	-4.35190E-002	-4.35904E-002	6.63079E-004	...........
	2	0.775	-4.35259E-002	-4.35726E-002	6.65179E-004	...........
	3	1.03333	-4.35412E-002	-4.36307E-002	6.63413E-004	...........
	4	1.29167	-4.35623E-002	-4.35790E-002	6.64013E-004	...........
	5	1.55	-4.35811E-002	-4.35650E-002	6.66013E-004	...........
	6	1.80833	-4.35895E-002	-4.35716E-002	6.63179E-004	...........
	7	2.06667	-4.35874E-002	-4.36104E-002	6.66079E-004	...........
	8	2.325	-4.35865E-002	-4.37395E-002	6.67846E-004	...........
	9	2.58333	-4.36021E-002	-4.37283E-002	6.68213E-004	...........
	10	2.84167	-4.36388E-002	-4.37801E-002	6.64446E-004	...........
	11	3.1	-4.36913E-002	-4.40798E-002	6.68913E-004	...........
	12	3.35833	-4.37627E-002	-4.40568E-002	6.64246E-004	...........
	13	3.61667	-4.38585E-002	-4.41868E-002	6.63113E-004	...........
	14	3.875	-4.39605E-002	-4.39085E-002	6.66479E-004	...........
	15	4.13333	-4.40319E-002	-4.40791E-002	6.65813E-004	...........
	16	4.39167	-4.40547E-002	-4.39882E-002	6.68246E-004	...........
	17	4.65	-4.40432E-002	-4.38962E-002	6.68846E-004	...........
	18	4.90833	-4.40170E-002	-4.39824E-002	6.71013E-004	...........
	19	5.16667	-4.39863E-002	-4.38893E-002	6.67913E-004	...........
	20	5.425	-4.39581E-002	-4.38800E-002	6.64213E-004	...........
	21	5.68333	-4.39343E-002	-4.39186E-002	6.63646E-004	...........
	22	5.94167	-4.39155E-002	-4.38982E-002	6.66646E-004	...........
	23	6.2	-4.38986E-002	-4.35765E-002	6.62813E-004	...........
	24	6.45833	-4.38679E-002	-4.38380E-002	6.63346E-004	...........
	25	6.71667	-4.38252E-002	-4.40120E-002	6.71813E-004	...........
	26	6.975	-4.38056E-002	-4.37813E-002	6.72513E-004	...........
	27	7.23333	-4.38281E-002	-4.41423E-002	6.68013E-004	...........
	28	7.49167	-4.38730E-002	-4.37579E-002	6.64246E-004	...........
	29	7.75	-4.39049E-002	-4.36527E-002	6.65946E-004	...........
	30	8.00833	-4.38927E-002	-4.38353E-002	6.66679E-004	...........
	31	8.26667	-4.38457E-002	-4.39186E-002	6.61579E-004	...........
	32	8.525	-4.38152E-002	-4.39708E-002	6.66213E-004	...........
	33	8.78333	-4.38329E-002	-4.40056E-002	6.69313E-004	...........
	34	9.04167	-4.38843E-002	-4.40057E-002	6.71246E-004	...........
	35	9.3	-4.39379E-002	-4.39316E-002	6.75313E-004	...........
	36	9.5583	-4.39697E-002	-4.39187E-002	6.68546E-004	...........
	37	9.8167	-4.39707E-002	-4.38193E-002	6.65479E-004	...........
	38	10.075	-4.39476E-002	-4.39713E-002	6.61913E-004	...........
EOC	QUANT	-0.0439476	Open Circuit (V)
PSTATMODEL	IQUANT	4	Pstat Model
PSTATSECTION	LABEL	REF600-11020	Pstat Section
PSTATSERIALNO	LABEL	11020	Pstat Serial Number
CTRLMODE	IQUANT	1	Control Mode
IESTAB	IQUANT	0	I/E Stability
CASPEED	IQUANT	1	Control Amp Speed
CONVENTION	IQUANT	1	Current Convention
ICHRANGE	IQUANT	2	Ich Range
ICHRANGEMODE	TOGGLE	F	Ich Auto Range
ICHOFFSETENABLE	TOGGLE	T	Ich Offset Enable
ICHOFFSET	QUANT	0	Ich Offset (V)
ICHFILTER	IQUANT	3	Ich Filter
VCHRANGE	IQUANT	2	Vch Range
VCHRANGEMODE	TOGGLE	F	Vch Auto Range
VCHOFFSETENABLE	TOGGLE	T	Vch Offset Enable
VCHOFFSET	QUANT	0	Vch Offset (V)
VCHFILTER	IQUANT	3	Vch Filter
ACHRANGE	IQUANT	2	Ach Range
ACHOFFSETENABLE	TOGGLE	F	Ach Offset Enable
ACHOFFSET	QUANT	0	Ach Offset (V)
ACHFILTER	IQUANT	3	Ach Filter
IERANGELOWERLIMIT	IQUANT	1	I/E Range Lower Limit
IERANGEMODE	TOGGLE	F	I/E AutoRange
IERANGE	IQUANT	8	I/E Range
POSFEEDENABLE	TOGGLE	F	Positive Feedback IR Comp
POSFEEDRESISTANCE	QUANT	0	Positive Feedback Resistance (ohm)
ACHSELECT	IQUANT	0	Ach Select
CABLEID	IQUANT	14	Cable ID
DCCALDATE	LABEL	12/22/2019	DC Calibration Date
ACCALDATE	LABEL	12/22/2019	AC Calibration Date
THERMOSELECT	IQUANT	1	Thermo Select
FRAMEWORKVERSION	QUANT	6.33	Framework Version
INSTRUMENTVERSION	LABEL	3.50	Instrument Version
ZCURVE	TABLE
	Pt	Time	Freq	Zreal	Zimag	Zsig	Zmod	Zphz	Idc	Vdc	IERange
	#	s	Hz	ohm	ohm	V	ohm	°	A	V	#
	0	1	1000078	1832.755	-1814.177	1	2578.804	-44.70813	-1.22578E-006	-0.0415807	8
	1	2	794390.6	2110.953	-1927.739	1	2858.724	-42.40258	3.796516E-006	-0.0427821	8
	2	2	630984.4	2379.944	-2025.669	1	3125.295	-40.40249	-6.058355E-007	-0.0421899	8
	3	2	501234.4	2655.319	-2137.663	1	3408.859	-38.83578	3.52109E-006	-0.042872	8
	4	3	398109.4	2909.804	-2273.269	1	3692.521	-37.99854	-9.534301E-008	-0.0423418	8
	5	3	316265.6	3174.171	-2447.489	1	4008.187	-37.63453	-6.404476E-007	-0.0422804	8
	6	3	251203.1	3436.619	-2670.75	1	4352.385	-37.85238	8.775746E-007	-0.0425563	8
	7	4	199546.9	3724.455	-2955.39	1	4754.566	-38.43233	-2.01879E-006	-0.0419876	8
	8	4	158578.1	4070.015	-3277.765	1	5225.778	-38.84605	8.541165E-007	-0.0425543	8
	9	4	125953.1	4534.169	-3699.454	1	5851.893	-39.2112	1.487576E-007	-0.0431541	7
	10	5	100078.1	5032.162	-4180.397	1	6542.047	-39.71762	-2.052068E-008	-0.0424258	7
	11	5	79453.13	5676.673	-4729.301	1	7388.565	-39.79807	-4.551249E-008	-0.0423683	7
	12	5	63140.62	6490.325	-5272.167	1	8361.821	-39.08736	-4.547891E-008	-0.0423722	7
	13	6	50203.12	7498.195	-5766.198	1	9458.962	-37.5607	6.620962E-008	-0.0424806	7
	14	6	39890.62	8660.887	-6115.721	1	10602.5	-35.2271	-3.998222E-008	-0.042365	7
	15	6	31640.63	9945.5	-6265.297	1	11754.45	-32.2094	-3.922868E-008	-0.0423709	7
	16	7	25171.88	11246.47	-6176.393	1	12830.85	-28.77494	5.13129E-008	-0.0425218	7
	17	7	20015.62	12448.86	-5861.345	1	13759.7	-25.21265	-2.080241E-008	-0.0424433	7
	18	7	15890.62	13487.8	-5402.364	1	14529.49	-21.82794	-1.583111E-008	-0.0424563	7
	19	7	12609.37	14408.13	-4802.836	1	15187.55	-18.4354	8.413584E-010	-0.0423691	6
	20	8	10078.13	15032.29	-4266.47	1	15626.02	-15.84502	4.102071E-010	-0.0423914	6
	21	8	8015.625	15530.89	-3775.829	1	15983.29	-13.66449	-8.85745E-010	-0.042502	6
	22	8	6328.125	15914.73	-3357.851	1	16265.11	-11.9141	2.976316E-009	-0.0425742	6
	23	9	5015.625	16194.04	-3039.125	1	16476.75	-10.62903	5.008603E-009	-0.0425568	6
	24	9	3984.375	16408.12	-2816.719	1	16648.13	-9.7408	1.961345E-009	-0.0424231	6
	25	9	3170.956	16587.36	-2709.467	1	16807.19	-9.277065	-5.644781E-009	-0.042369	6
	26	10	2527.573	16728.81	-2696.085	1	16944.68	-9.155301	-1.399244E-009	-0.0425061	6
	27	10	1976.103	16867.83	-2803.343	1	17099.19	-9.436007	4.521514E-009	-0.0425653	6
	28	10	1577.524	16992.41	-2999.025	1	17255.04	-10.00917	-1.854141E-009	-0.0424632	6
	29	11	1265.625	17114.99	-3315.536	1	17433.18	-10.9636	-3.96145E-010	-0.0423994	6
	30	11	998.264	17265.48	-3792.199	1	17677.03	-12.38777	-5.065092E-009	-0.0424084	6
	31	11	796.875	17412.67	-4400.27	1	17960.05	-14.18202	-2.093707E-009	-0.0424699	6
	32	12	627.7902	17602.69	-5223.533	1	18361.37	-16.52806	1.073883E-008	-0.0426393	6
	33	12	505.5147	17795.9	-6172.848	1	18836.08	-19.13008	-6.952452E-009	-0.0424029	6
	34	12	397.9953	18071.61	-7486.543	1	19560.96	-22.50281	8.395606E-010	-0.0424437	6
	35	13	315.5048	18382.74	-9088.934	1	20506.92	-26.30906	3.473919E-010	-0.0424381	6
	36	13	252.4038	18750.4	-10989.57	1	21733.57	-30.37449	6.388361E-010	-0.0424395	6
	37	13	198.6229	19247.47	-13512.35	1	23516.99	-35.07011	5.288662E-010	-0.0424426	6
	38	14	158.3615	19836.54	-16459.82	1	25776.23	-39.68495	4.865894E-010	-0.0424479	6
	39	14	125.558	20620.32	-20170.91	1	28845.5	-44.36878	2.624036E-010	-0.0424436	6
	40	14	100.4464	21563.03	-24520.64	1	32653.12	-48.67216	1.950398E-010	-0.0424473	6
	41	14	79.00281	22940.07	-30235.47	1	37953	-52.81191	4.216312E-010	-0.042453	6
	42	15	63.3446	24572.88	-36920.25	1	44350.1	-56.3536	3.197474E-010	-0.0424524	6
	43	15	49.86702	26873.11	-45315.78	1	52684.76	-59.33126	5.396258E-010	-0.0424553	6
	44	16	39.72458	29875.26	-54962.72	1	62557.43	-61.47349	3.458585E-010	-0.0424549	6
	45	16	31.6723	33688.56	-66498.35	1	74544.95	-63.13289	7.542049E-010	-0.0424494	6
	46	16	24.93351	38992.7	-81383.32	1	90242.32	-64.3998	9.984271E-011	-0.0424441	6
	47	17	19.86229	45598.43	-98141.6	1	108217.4	-65.07954	-1.198223E-009	-0.042453	5
	48	17	15.83615	53649.26	-117152.2	1	128852.1	-65.39482	-1.924856E-010	-0.0424538	5
	49	17	12.40079	66041.1	-142187.9	1	156776.4	-65.08685	-5.750552E-010	-0.0424465	5
	50	17	9.93114	80718.04	-168520.6	1	186854.4	-64.40649	1.477591E-010	-0.0424533	5
	51	18	7.944915	99940.8	-197844.4	1	221654.2	-63.19943	5.275402E-010	-0.0424543	5
	52	18	6.317385	122378.1	-232902.5	1	263096.9	-62.28042	-1.296708E-010	-0.0424349	5
	53	19	5.008013	152246.4	-271284.4	1	311085.5	-60.6986	4.323227E-011	-0.0424397	5
	54	20	3.945707	189351.4	-314937.5	1	367477.3	-58.98425	-3.663869E-010	-0.0424517	5
	55	21	3.158693	230826.7	-355987.4	1	424273.5	-57.04011	7.439548E-011	-0.0424582	5
	56	23	2.504006	280428.2	-402018.2	1	490161.8	-55.10226	2.459842E-010	-0.0424591	5
	57	24	1.998082	333832.8	-447348.4	1	558180	-53.26794	-5.610189E-011	-0.0424963	5
	58	26	1.584686	392637.6	-498065.8	1	634219.1	-51.75041	-1.312907E-010	-0.0424908	5
	59	28	1.266892	452305.3	-548524.6	1	710956.6	-50.49151	-4.184119E-011	-0.0424536	5
	60	30	0.999041	520195.6	-607863.1	1	800063.1	-49.44383	2.318884E-011	-0.0424288	5
