EXPLAIN
TAG	EISPOT
TITLE	LABEL	Potentiostatic EIS	Test &Identifier
DATE	LABEL	3/3/2020	Date
TIME	LABEL	17:26:15	Time
NOTES	NOTES	1	&Notes...
	
PSTAT	PSTAT	REF600-11020	Potentiostat
VDC	POTEN	0.00000E+000	T	DC &Voltage (V)
FREQINIT	QUANT	1.00000E+006	Initial Fre&q. (Hz)
FREQFINAL	QUANT	1.00000E+000	Final Fre&q. (Hz)
PTSPERDEC	QUANT	1.00000E+001	Points/&decade
VAC	QUANT	2.50000E+001	AC &Voltage (mV rms)
AREA	QUANT	1.60000E-004	&Area (cm^2)
CONDIT	TWOPARAM	F	1.50000E+001	0.00000E+000	Conditionin&g	Time(s)	E(V)
DELAY	TWOPARAM	F	1.00000E+002	0.00000E+000	Init. De&lay	Time(s)	Stab.(mV/s)
SPEED	SELECTOR	1	&Optimize for:
ZGUESS	QUANT	1.00000E+004	E&stimated Z (ohms)
OCVCURVE	TABLE	39
	Pt	T	Vf	Vm	Ach	Over
	#	s	V vs. Ref.	V	V	bits
	0	0.258333	1.06845E-001	1.06845E-001	5.70230E-004	...........
	1	0.516667	1.06846E-001	1.06927E-001	5.66230E-004	...........
	2	0.775	1.06855E-001	1.06954E-001	5.68163E-004	...........
	3	1.03333	1.06875E-001	1.06900E-001	5.65864E-004	...........
	4	1.29167	1.06897E-001	1.06856E-001	5.65730E-004	...........
	5	1.55	1.06906E-001	1.06816E-001	5.62664E-004	...........
	6	1.80833	1.06895E-001	1.06908E-001	5.60064E-004	...........
	7	2.06667	1.06879E-001	1.06929E-001	5.64963E-004	...........
	8	2.325	1.06876E-001	1.06953E-001	5.62963E-004	...........
	9	2.58333	1.06890E-001	1.06901E-001	5.60597E-004	...........
	10	2.84167	1.06907E-001	1.06770E-001	5.62597E-004	...........
	11	3.1	1.06902E-001	1.06717E-001	5.62564E-004	...........
	12	3.35833	1.06866E-001	1.06752E-001	5.60897E-004	...........
	13	3.61667	1.06816E-001	1.06835E-001	5.71963E-004	...........
	14	3.875	1.06783E-001	1.06857E-001	5.65897E-004	...........
	15	4.13333	1.06783E-001	1.06858E-001	5.63363E-004	...........
	16	4.39167	1.06805E-001	1.06812E-001	5.57564E-004	...........
	17	4.65	1.06826E-001	1.06799E-001	5.59664E-004	...........
	18	4.90833	1.06832E-001	1.06795E-001	5.57597E-004	...........
	19	5.16667	1.06825E-001	1.06828E-001	5.59164E-004	...........
	20	5.425	1.06815E-001	1.06844E-001	5.59464E-004	...........
	21	5.68333	1.06814E-001	1.06839E-001	5.67363E-004	...........
	22	5.94167	1.06821E-001	1.06805E-001	5.64797E-004	...........
	23	6.2	1.06826E-001	1.06797E-001	5.63897E-004	...........
	24	6.45833	1.06825E-001	1.06823E-001	5.65763E-004	...........
	25	6.71667	1.06819E-001	1.06828E-001	5.59697E-004	...........
	26	6.975	1.06816E-001	1.06830E-001	5.64797E-004	...........
	27	7.23333	1.06818E-001	1.06829E-001	5.61697E-004	...........
	28	7.49167	1.06823E-001	1.06829E-001	5.60930E-004	...........
	29	7.75	1.06827E-001	1.06836E-001	5.60364E-004	...........
	30	8.00833	1.06830E-001	1.06840E-001	5.65364E-004	...........
	31	8.26667	1.06832E-001	1.06830E-001	5.68663E-004	...........
	32	8.525	1.06834E-001	1.06842E-001	5.66697E-004	...........
	33	8.78333	1.06835E-001	1.06848E-001	5.64397E-004	...........
	34	9.04167	1.06838E-001	1.06850E-001	5.63497E-004	...........
	35	9.3	1.06841E-001	1.06852E-001	5.60597E-004	...........
	36	9.5583	1.06845E-001	1.06856E-001	5.62730E-004	...........
	37	9.8167	1.06849E-001	1.06853E-001	5.60697E-004	...........
	38	10.075	1.06852E-001	1.06858E-001	5.62397E-004	...........
EOC	QUANT	0.1068517	Open Circuit (V)
PSTATMODEL	IQUANT	4	Pstat Model
PSTATSECTION	LABEL	REF600-11020	Pstat Section
PSTATSERIALNO	LABEL	11020	Pstat Serial Number
CTRLMODE	IQUANT	1	Control Mode
IESTAB	IQUANT	0	I/E Stability
CASPEED	IQUANT	1	Control Amp Speed
CONVENTION	IQUANT	1	Current Convention
ICHRANGE	IQUANT	2	Ich Range
ICHRANGEMODE	TOGGLE	F	Ich Auto Range
ICHOFFSETENABLE	TOGGLE	T	Ich Offset Enable
ICHOFFSET	QUANT	0	Ich Offset (V)
ICHFILTER	IQUANT	3	Ich Filter
VCHRANGE	IQUANT	2	Vch Range
VCHRANGEMODE	TOGGLE	F	Vch Auto Range
VCHOFFSETENABLE	TOGGLE	T	Vch Offset Enable
VCHOFFSET	QUANT	0	Vch Offset (V)
VCHFILTER	IQUANT	3	Vch Filter
ACHRANGE	IQUANT	2	Ach Range
ACHOFFSETENABLE	TOGGLE	F	Ach Offset Enable
ACHOFFSET	QUANT	0	Ach Offset (V)
ACHFILTER	IQUANT	3	Ach Filter
IERANGELOWERLIMIT	IQUANT	1	I/E Range Lower Limit
IERANGEMODE	TOGGLE	F	I/E AutoRange
IERANGE	IQUANT	7	I/E Range
POSFEEDENABLE	TOGGLE	F	Positive Feedback IR Comp
POSFEEDRESISTANCE	QUANT	0	Positive Feedback Resistance (ohm)
ACHSELECT	IQUANT	0	Ach Select
CABLEID	IQUANT	14	Cable ID
DCCALDATE	LABEL	2/27/2020	DC Calibration Date
ACCALDATE	LABEL	2/27/2020	AC Calibration Date
THERMOSELECT	IQUANT	1	Thermo Select
FRAMEWORKVERSION	QUANT	6.33	Framework Version
INSTRUMENTVERSION	LABEL	3.50	Instrument Version
ZCURVE	TABLE
	Pt	Time	Freq	Zreal	Zimag	Zsig	Zmod	Zphz	Idc	Vdc	IERange
	#	s	Hz	ohm	ohm	V	ohm	°	A	V	#
	0	2	1000078	2346.322	-1829.129	1	2975.053	-37.93902	7.458111E-007	0.1090043	8
	1	3	794390.6	2614.258	-1867.029	1	3212.498	-35.53334	1.816426E-006	0.1083058	8
	2	5	630984.4	2887.378	-1901.243	1	3457.12	-33.36359	-7.504558E-007	0.1087605	8
	3	6	501234.4	3127.996	-1941.896	1	3681.755	-31.83249	-1.456321E-006	0.1086056	8
	4	7	398109.4	3348.691	-1996.819	1	3898.848	-30.80756	3.181545E-006	0.1080007	8
	5	9	316265.6	3569.314	-2093.849	1	4138.14	-30.39695	-9.635231E-009	0.1083608	8
	6	10	251203.1	3770.091	-2219.636	1	4374.971	-30.48739	-4.483484E-007	0.1083724	8
	7	11	199546.9	3987.248	-2432.35	1	4670.597	-31.38454	1.989327E-006	0.1078667	8
	8	13	158578.1	4187.716	-2691.77	1	4978.212	-32.732	2.848984E-006	0.1079723	8
	9	14	125953.1	4439.128	-2988.604	1	5351.413	-33.95006	-2.600086E-007	0.1085861	7
	10	16	100078.1	4671.425	-3415.448	1	5786.838	-36.17189	5.224886E-008	0.1082641	7
	11	17	79453.13	4971.604	-3944.904	1	6346.583	-38.43155	-1.258967E-008	0.1081624	7
	12	18	63140.62	5286.748	-4607.093	1	7012.49	-41.07026	-1.025998E-007	0.1083036	7
	13	20	50203.12	5690.651	-5407.057	1	7849.826	-43.53616	1.089201E-007	0.1081462	7
	14	21	39890.62	6197.169	-6355.46	1	8876.755	-45.72247	-5.509941E-008	0.1083684	7
	15	22	31640.63	6839.469	-7506.028	1	10154.74	-47.66032	-2.405083E-008	0.1083396	7
	16	24	25171.88	7643.994	-8844.033	1	11689.63	-49.16279	-4.866839E-008	0.1081841	7
	17	25	20015.62	8686.731	-10415.82	1	13562.76	-50.17209	3.345258E-009	0.1083142	7
	18	26	15890.62	10055.58	-12190.02	1	15802.26	-50.48068	-5.433822E-008	0.1083601	7
	19	28	12609.37	11921.17	-14141.99	1	18496.21	-49.87036	1.885276E-008	0.1080779	6
	20	29	10078.13	14173.84	-16114.34	1	21460.89	-48.66581	-1.044794E-008	0.1082924	6
	21	31	8015.625	17054.74	-18135.28	1	24894.83	-46.75876	1.595674E-008	0.1081608	6
	22	33	6328.125	20719.07	-19860.68	1	28700.63	-43.78819	-9.237182E-009	0.1082999	6
	23	34	5015.625	24874.92	-21342.68	1	32776.09	-40.62959	1.753676E-008	0.1081099	6
	24	36	3984.375	29325.06	-21709.26	1	36486.31	-36.51244	8.069018E-010	0.1080959	6
	25	37	3170.956	33823.35	-21529.31	1	40094.02	-32.47765	6.863424E-010	0.1080933	6
	26	39	2527.573	38012.52	-20533.69	1	43203.98	-28.37713	1.468305E-008	0.1081875	6
	27	40	1976.103	41874.53	-18902.92	1	45943.41	-24.29527	-3.155474E-009	0.1083801	6
	28	42	1577.524	44740.58	-16975.44	1	47852.74	-20.77771	1.423205E-008	0.10819	6
	29	44	1265.625	46954.33	-15148.91	1	49337.6	-17.88129	4.735832E-010	0.1084199	6
	30	45	998.264	48770.2	-13378.11	1	50571.79	-15.33944	1.183161E-008	0.1082613	6
	31	46	796.875	50119.33	-12098.15	1	51558.82	-13.57084	-3.597091E-009	0.1083725	6
	32	48	627.7902	50935.78	-10906.53	1	52090.36	-12.08585	5.320882E-009	0.1083594	6
	33	49	505.5147	51646.57	-10262.23	1	52656.26	-11.23835	-3.812742E-009	0.1083567	6
	34	51	397.9953	52544.28	-10101.6	1	53506.48	-10.8823	3.378513E-009	0.1082752	6
	35	52	315.5048	53034.41	-10261.02	1	54017.93	-10.9502	2.771958E-009	0.1082718	6
	36	53	252.4038	53322.24	-10785.55	1	54402.11	-11.43499	2.783601E-009	0.1082723	6
	37	55	198.6229	53621.37	-11854.01	1	54916.02	-12.46582	2.970542E-009	0.1082745	6
	38	56	158.3615	54261.87	-13389.88	1	55889.52	-13.86161	1.934775E-009	0.1082705	6
	39	58	125.558	54781.4	-15504.25	1	56933.15	-15.80259	2.634666E-009	0.1082745	6
	40	59	100.4464	55567.72	-18163.45	1	58460.95	-18.10105	1.958439E-009	0.1082712	6
	41	60	79.00281	56446.07	-21861.02	1	60531.5	-21.17091	1.70716E-009	0.1082698	6
	42	62	63.3446	57838.31	-25634.31	1	63264.43	-23.90323	1.404125E-009	0.1082699	6
	43	64	49.86702	59578.28	-31493.36	1	67389.94	-27.86114	1.256155E-009	0.1082667	6
	44	65	39.72458	61958.59	-37856.36	1	72608.34	-31.4247	1.770968E-009	0.1082686	6
	45	67	31.6723	64799.75	-45748.78	1	79321.87	-35.22218	1.894447E-009	0.1082664	6
	46	68	24.93351	68970.96	-55270.36	1	88384.42	-38.70718	1.655835E-009	0.1082706	6
	47	70	19.86229	72295.3	-66262.41	1	98067.9	-42.50688	2.868012E-009	0.1082821	5
	48	71	15.83615	79540.94	-78620.3	1	111838.8	-44.66649	1.168926E-009	0.1082776	5
	49	73	12.40079	89538.11	-94627.98	1	130274.8	-46.5831	1.461015E-009	0.1082794	5
	50	74	9.93114	99340.4	-110018	1	148231.2	-47.91964	1.705873E-010	0.1082754	5
	51	76	7.944915	112017.7	-127516.3	1	169730.3	-48.70207	7.643055E-010	0.1082684	5
	52	77	6.317385	127627.3	-147618.4	1	195140.7	-49.15409	8.425524E-010	0.1082605	5
	53	80	5.008013	146163.1	-169570.2	1	223869.9	-49.2399	7.541058E-010	0.1082814	5
	54	82	3.945707	168677.9	-193772.6	1	256904.8	-48.96061	-2.274701E-010	0.108271	5
	55	85	3.158693	191720.2	-217974.8	1	290292.3	-48.66669	5.183642E-010	0.1082884	5
	56	88	2.504006	218765.1	-245811.3	1	329061.4	-48.33183	-4.523741E-010	0.1082724	5
	57	91	1.998082	246428.4	-274336.4	1	368764.7	-48.06757	-3.152581E-012	0.1082328	5
	58	94	1.584686	274611.5	-307814.8	1	412506.3	-48.26282	-6.755283E-011	0.1082898	5
	59	98	1.266892	305988.2	-345515.3	1	461529.7	-48.47192	1.551848E-011	0.1082298	5
	60	102	0.999041	338615.3	-392722.3	1	518547.2	-49.23124	1.513275E-010	0.1083118	5
