EXPLAIN
TAG	EISPOT
TITLE	LABEL	Potentiostatic EIS	Test &Identifier
DATE	LABEL	1/28/2020	Date
TIME	LABEL	12:26:46	Time
NOTES	NOTES	6	&Notes...
	
	
	
	
	
	
PSTAT	PSTAT	REF600-11020	Potentiostat
VDC	POTEN	0.00000E+000	T	DC &Voltage (V)
FREQINIT	QUANT	1.00000E+006	Initial Fre&q. (Hz)
FREQFINAL	QUANT	1.00000E+000	Final Fre&q. (Hz)
PTSPERDEC	QUANT	1.00000E+001	Points/&decade
VAC	QUANT	2.50000E+001	AC &Voltage (mV rms)
AREA	QUANT	1.60000E-004	&Area (cm^2)
CONDIT	TWOPARAM	F	5.00000E+000	0.00000E+000	Conditionin&g	Time(s)	E(V)
DELAY	TWOPARAM	F	5.00000E+000	0.00000E+000	Init. De&lay	Time(s)	Stab.(mV/s)
SPEED	SELECTOR	0	&Optimize for:
ZGUESS	QUANT	1.00000E+003	E&stimated Z (ohms)
OCVCURVE	TABLE	39
	Pt	T	Vf	Vm	Ach	Over
	#	s	V vs. Ref.	V	V	bits
	0	0.258333	4.73702E-002	4.73702E-002	5.61738E-004	...........
	1	0.516667	4.73707E-002	4.73994E-002	5.61138E-004	...........
	2	0.775	4.73740E-002	4.74194E-002	5.58238E-004	...........
	3	1.03333	4.73830E-002	4.74504E-002	5.59604E-004	...........
	4	1.29167	4.73989E-002	4.74645E-002	5.55504E-004	...........
	5	1.55	4.74194E-002	4.74701E-002	5.60271E-004	...........
	6	1.80833	4.74398E-002	4.74774E-002	5.57238E-004	...........
	7	2.06667	4.74561E-002	4.74631E-002	5.57938E-004	...........
	8	2.325	4.74662E-002	4.74845E-002	5.54771E-004	...........
	9	2.58333	4.74722E-002	4.75231E-002	5.63071E-004	...........
	10	2.84167	4.74799E-002	4.75339E-002	5.59971E-004	...........
	11	3.1	4.74929E-002	4.75176E-002	5.58104E-004	...........
	12	3.35833	4.75075E-002	4.75187E-002	5.60604E-004	...........
	13	3.61667	4.75177E-002	4.75312E-002	5.56938E-004	...........
	14	3.875	4.75229E-002	4.75519E-002	5.61638E-004	...........
	15	4.13333	4.75275E-002	4.75481E-002	5.61504E-004	...........
	16	4.39167	4.75344E-002	4.75642E-002	5.60504E-004	...........
	17	4.65	4.74901E-002	4.47988E-002	5.61471E-004	...........
	18	4.90833	4.72439E-002	4.58340E-002	5.65304E-004	...........
	19	5.16667	4.67567E-002	4.65239E-002	5.58871E-004	...........
	20	5.425	4.62960E-002	4.68848E-002	5.59338E-004	...........
	21	5.68333	4.61567E-002	4.69649E-002	5.61171E-004	...........
	22	5.94167	4.63324E-002	4.70496E-002	5.55704E-004	...........
	23	6.2	4.66192E-002	4.71017E-002	5.58604E-004	...........
	24	6.45833	4.68600E-002	4.71755E-002	5.62671E-004	...........
	25	6.71667	4.70143E-002	4.72092E-002	5.55571E-004	...........
	26	6.975	4.71052E-002	4.72481E-002	5.63904E-004	...........
	27	7.23333	4.71633E-002	4.72779E-002	5.60238E-004	...........
	28	7.49167	4.72055E-002	4.72528E-002	5.59771E-004	...........
	29	7.75	4.72359E-002	4.72687E-002	5.56504E-004	...........
	30	8.00833	4.72547E-002	4.72868E-002	5.61238E-004	...........
	31	8.26667	4.72654E-002	4.72958E-002	5.63404E-004	...........
	32	8.525	4.72741E-002	4.73098E-002	5.56404E-004	...........
	33	8.78333	4.72841E-002	4.73157E-002	5.58171E-004	...........
	34	9.04167	4.72950E-002	4.73209E-002	5.57271E-004	...........
	35	9.3	4.73053E-002	4.73361E-002	5.58238E-004	...........
	36	9.5583	4.73146E-002	4.73372E-002	5.60604E-004	...........
	37	9.8167	4.73231E-002	4.73406E-002	5.57904E-004	...........
	38	10.075	4.73305E-002	4.73476E-002	5.57371E-004	...........
EOC	QUANT	0.0473305	Open Circuit (V)
PSTATMODEL	IQUANT	4	Pstat Model
PSTATSECTION	LABEL	REF600-11020	Pstat Section
PSTATSERIALNO	LABEL	11020	Pstat Serial Number
CTRLMODE	IQUANT	1	Control Mode
IESTAB	IQUANT	0	I/E Stability
CASPEED	IQUANT	1	Control Amp Speed
CONVENTION	IQUANT	1	Current Convention
ICHRANGE	IQUANT	2	Ich Range
ICHRANGEMODE	TOGGLE	F	Ich Auto Range
ICHOFFSETENABLE	TOGGLE	T	Ich Offset Enable
ICHOFFSET	QUANT	0	Ich Offset (V)
ICHFILTER	IQUANT	3	Ich Filter
VCHRANGE	IQUANT	2	Vch Range
VCHRANGEMODE	TOGGLE	F	Vch Auto Range
VCHOFFSETENABLE	TOGGLE	T	Vch Offset Enable
VCHOFFSET	QUANT	0	Vch Offset (V)
VCHFILTER	IQUANT	3	Vch Filter
ACHRANGE	IQUANT	2	Ach Range
ACHOFFSETENABLE	TOGGLE	F	Ach Offset Enable
ACHOFFSET	QUANT	0	Ach Offset (V)
ACHFILTER	IQUANT	3	Ach Filter
IERANGELOWERLIMIT	IQUANT	1	I/E Range Lower Limit
IERANGEMODE	TOGGLE	F	I/E AutoRange
IERANGE	IQUANT	7	I/E Range
POSFEEDENABLE	TOGGLE	F	Positive Feedback IR Comp
POSFEEDRESISTANCE	QUANT	0	Positive Feedback Resistance (ohm)
ACHSELECT	IQUANT	0	Ach Select
CABLEID	IQUANT	14	Cable ID
DCCALDATE	LABEL	1/27/2020	DC Calibration Date
ACCALDATE	LABEL	1/27/2020	AC Calibration Date
THERMOSELECT	IQUANT	1	Thermo Select
FRAMEWORKVERSION	QUANT	6.33	Framework Version
INSTRUMENTVERSION	LABEL	3.50	Instrument Version
ZCURVE	TABLE
	Pt	Time	Freq	Zreal	Zimag	Zsig	Zmod	Zphz	Idc	Vdc	IERange
	#	s	Hz	ohm	ohm	V	ohm	°	A	V	#
	0	1	1000078	2176.021	-1684.372	1	2751.759	-37.74203	7.851521E-006	0.0482718	8
	1	2	794390.6	2464.52	-1673.518	1	2979.013	-34.17824	-1.187842E-006	0.0488085	8
	2	2	630984.4	2741.037	-1664.136	1	3206.655	-31.26274	-3.438414E-006	0.049775	8
	3	2	501234.4	3005.846	-1649.03	1	3428.47	-28.74951	-4.657462E-007	0.0490424	8
	4	3	398109.4	3272.879	-1608.094	1	3646.602	-26.1667	-8.932838E-007	0.0489831	8
	5	3	316265.6	3494.956	-1584.908	1	3837.532	-24.39355	1.43569E-006	0.0486015	8
	6	3	251203.1	3714.94	-1574.672	1	4034.894	-22.9709	-3.539205E-006	0.0494995	8
	7	4	199546.9	3941.943	-1569.206	1	4242.797	-21.70648	-3.332931E-006	0.0494873	8
	8	4	158578.1	4171.653	-1552.32	1	4451.111	-20.41082	1.876361E-006	0.0483574	8
	9	4	125953.1	4414.306	-1491.149	1	4659.359	-18.66492	-1.443454E-008	0.0485323	7
	10	4	100078.1	4655.833	-1489.578	1	4888.315	-17.74145	4.54429E-008	0.0486643	7
	11	5	79453.13	4887.936	-1476.536	1	5106.083	-16.80839	-4.378646E-008	0.0488319	7
	12	5	63140.62	5122.104	-1450.803	1	5323.606	-15.81444	7.510476E-008	0.0486365	7
	13	5	50203.12	5346.449	-1411.992	1	5529.759	-14.79398	-7.88468E-009	0.0488245	7
	14	6	39890.62	5557.692	-1363.923	1	5722.606	-13.78855	-2.350869E-008	0.048798	7
	15	6	31640.63	5752.914	-1310.147	1	5900.212	-12.82951	-3.280528E-008	0.0488011	7
	16	6	25171.88	5929.522	-1256.462	1	6061.183	-11.96396	2.804516E-008	0.0487664	7
	17	7	20015.62	6085.608	-1207.979	1	6204.34	-11.22714	-2.085292E-008	0.0488746	7
	18	7	15890.62	6226.632	-1180.186	1	6337.491	-10.73244	-6.309695E-009	0.0488222	7
	19	7	12609.37	6354.534	-1166.524	1	6460.718	-10.40217	5.412496E-008	0.048786	7
	20	8	10078.13	6464.835	-1170.484	1	6569.941	-10.26246	2.749759E-008	0.0487663	7
	21	8	8015.625	6572.352	-1201.453	1	6681.265	-10.35952	-1.451408E-008	0.0487685	7
	22	8	6328.125	6672.63	-1271.258	1	6792.649	-10.78663	3.98251E-009	0.0487977	7
	23	9	5015.625	6774.506	-1370.501	1	6911.744	-11.43674	-4.929103E-008	0.0488774	7
	24	9	3984.375	6870.907	-1511.584	1	7035.215	-12.4073	-1.881593E-008	0.0487722	7
	25	9	3170.956	6973.3	-1692.552	1	7175.768	-13.64294	-1.959711E-008	0.0487742	7
	26	10	2527.573	7075.934	-1925.667	1	7333.283	-15.22397	-2.580547E-008	0.0487881	7
	27	10	1976.103	7195.465	-2252.643	1	7539.835	-17.38348	2.840176E-008	0.0487502	7
	28	10	1577.524	7318.861	-2627.341	1	7776.159	-19.74723	-4.009038E-008	0.0488293	7
	29	11	1265.625	7439.086	-3103.7	1	8060.58	-22.64664	-1.274481E-009	0.048804	7
	30	11	998.264	7597.605	-3733.79	1	8465.507	-26.17149	-4.679074E-010	0.0488699	7
	31	11	796.875	7772.792	-4473.471	1	8968.179	-29.9217	-2.733693E-008	0.0487851	7
	32	11	627.7902	7992.314	-5445.147	1	9670.92	-34.26653	2.011651E-009	0.0488114	6
	33	12	505.5147	8238.589	-6535.038	1	10515.75	-38.42226	-3.366581E-009	0.048756	6
	34	12	397.9953	8574.354	-8012.683	1	11735.53	-43.06059	1.468165E-009	0.0487804	6
	35	12	315.5048	8987.213	-9782.61	1	13284.18	-47.42653	1.591609E-009	0.048777	6
	36	13	252.4038	9492.058	-11859.22	1	15190.13	-51.3264	1.130259E-009	0.0487744	6
	37	13	198.6229	10182.22	-14582.86	1	17785.87	-55.07603	1.015206E-009	0.0487779	6
	38	13	158.3615	11028.15	-17729.04	1	20879.15	-58.11678	1.051648E-009	0.0487747	6
	39	14	125.558	12146.1	-21633.64	1	24810.12	-60.68819	1.190703E-009	0.0487748	6
	40	14	100.4464	13573.81	-26147.33	1	29460.67	-62.56492	1.411517E-009	0.0487701	6
	41	14	79.00281	15590.8	-32095.21	1	35681.58	-64.09104	8.681813E-010	0.0487687	6
	42	15	63.3446	17516.02	-38392.27	1	42199.26	-65.47572	3.334811E-010	0.0487696	6
	43	15	49.86702	20994.66	-46684.87	1	51188.41	-65.78607	2.756579E-010	0.0487695	6
	44	16	39.72458	25500.11	-56197.91	1	61712.73	-65.59357	9.071853E-010	0.0487718	6
	45	16	31.6723	31094.84	-66912.15	1	73784.31	-65.07517	3.511443E-010	0.0487703	6
	46	16	24.93351	38201.37	-79826.78	1	88496.66	-64.4264	1.429426E-009	0.0487696	6
	47	16	19.86229	46754.56	-93812.54	1	104817.9	-63.50912	1.863401E-009	0.0487714	5
	48	17	15.83615	57815.03	-108560.8	1	122996	-61.96206	1.1806E-009	0.0487713	5
	49	17	12.40079	71302.23	-127400.6	1	145996.3	-60.76559	-1.531153E-009	0.0487718	5
	50	18	9.93114	85943.91	-147198.2	1	170451.4	-59.72083	5.026279E-010	0.0487752	5
	51	18	7.944915	102829.9	-167528.7	1	196570.2	-58.4582	1.342117E-009	0.0487594	5
	52	19	6.317385	123041.2	-190955.9	1	227163.6	-57.20456	9.269954E-010	0.0487607	5
	53	19	5.008013	146063.5	-217669	1	262134.2	-56.13701	4.996336E-010	0.0487732	5
	54	21	3.945707	172458.1	-248136.5	1	302181.3	-55.2002	1.219795E-010	0.0487678	5
	55	22	3.158693	200133.8	-280225.2	1	344354.1	-54.46598	-8.877485E-011	0.0487492	5
	56	24	2.504006	232878.9	-317511.7	1	393759.1	-53.74181	2.96074E-010	0.0487539	5
	57	25	1.998082	267107.1	-358900.5	1	447387.8	-53.34201	2.328462E-010	0.0487642	5
	58	26	1.584686	307929.1	-405974.7	1	509544.7	-52.81993	-5.999645E-012	0.0487174	5
	59	28	1.266892	350887.8	-459431.1	1	578099.6	-52.62943	-3.48159E-011	0.0487146	5
	60	31	0.999041	399276.4	-523784.8	1	658613.8	-52.68205	-3.824421E-011	0.0487327	5
