EXPLAIN
TAG	EISPOT
TITLE	LABEL	Potentiostatic EIS	Test &Identifier
DATE	LABEL	1/10/2020	Date
TIME	LABEL	14:07:54	Time
NOTES	NOTES	5	&Notes...
	
	
	
	
	
PSTAT	PSTAT	REF600-11020	Potentiostat
VDC	POTEN	0.00000E+000	T	DC &Voltage (V)
FREQINIT	QUANT	1.00000E+006	Initial Fre&q. (Hz)
FREQFINAL	QUANT	1.00000E+000	Final Fre&q. (Hz)
PTSPERDEC	QUANT	1.00000E+001	Points/&decade
VAC	QUANT	2.50000E+001	AC &Voltage (mV rms)
AREA	QUANT	1.00000E-001	&Area (cm^2)
CONDIT	TWOPARAM	T	5.00000E+000	0.00000E+000	Conditionin&g	Time(s)	E(V)
DELAY	TWOPARAM	T	5.00000E+000	0.00000E+000	Init. De&lay	Time(s)	Stab.(mV/s)
SPEED	SELECTOR	0	&Optimize for:
ZGUESS	QUANT	5.00000E+002	E&stimated Z (ohms)
OCVCURVE	TABLE	19
	Pt	T	Vf	Vm	Ach	Over
	#	s	V vs. Ref.	V	V	bits
	0	0.258333	9.11636E-003	9.11636E-003	6.62813E-004	...........
	1	0.516667	9.11693E-003	9.14625E-003	6.62779E-004	...........
	2	0.775	9.12069E-003	9.18774E-003	6.64346E-004	...........
	3	1.03333	9.13051E-003	9.14166E-003	6.61046E-004	...........
	4	1.29167	9.14171E-003	9.05340E-003	6.61613E-004	...........
	5	1.55	9.13773E-003	8.88202E-003	6.69579E-004	...........
	6	1.80833	9.09928E-003	8.77141E-003	6.60679E-004	...........
	7	2.06667	9.02217E-003	8.77678E-003	6.65446E-004	...........
	8	2.325	8.93212E-003	9.02688E-003	6.62746E-004	...........
	9	2.58333	8.88154E-003	9.29615E-003	6.62713E-004	...........
	10	2.84167	8.92150E-003	9.64726E-003	6.56846E-004	...........
	11	3.1	9.06701E-003	9.76062E-003	6.59013E-004	...........
	12	3.35833	9.28464E-003	9.91568E-003	6.63479E-004	...........
	13	3.61667	9.51393E-003	9.90674E-003	6.67013E-004	...........
	14	3.875	9.70495E-003	1.00335E-002	6.63179E-004	...........
	15	4.13333	9.84182E-003	1.00783E-002	6.62746E-004	...........
	16	4.39167	9.93898E-003	1.02169E-002	6.60879E-004	...........
	17	4.65	1.00213E-002	1.03148E-002	6.60813E-004	...........
	18	4.90833	1.01076E-002	1.04347E-002	6.61579E-004	...........
EOC	QUANT	0.0101076	Open Circuit (V)
PSTATMODEL	IQUANT	4	Pstat Model
PSTATSECTION	LABEL	REF600-11020	Pstat Section
PSTATSERIALNO	LABEL	11020	Pstat Serial Number
CTRLMODE	IQUANT	1	Control Mode
IESTAB	IQUANT	0	I/E Stability
CASPEED	IQUANT	1	Control Amp Speed
CONVENTION	IQUANT	1	Current Convention
ICHRANGE	IQUANT	2	Ich Range
ICHRANGEMODE	TOGGLE	F	Ich Auto Range
ICHOFFSETENABLE	TOGGLE	T	Ich Offset Enable
ICHOFFSET	QUANT	0	Ich Offset (V)
ICHFILTER	IQUANT	3	Ich Filter
VCHRANGE	IQUANT	2	Vch Range
VCHRANGEMODE	TOGGLE	F	Vch Auto Range
VCHOFFSETENABLE	TOGGLE	T	Vch Offset Enable
VCHOFFSET	QUANT	0	Vch Offset (V)
VCHFILTER	IQUANT	3	Vch Filter
ACHRANGE	IQUANT	2	Ach Range
ACHOFFSETENABLE	TOGGLE	F	Ach Offset Enable
ACHOFFSET	QUANT	0	Ach Offset (V)
ACHFILTER	IQUANT	3	Ach Filter
IERANGELOWERLIMIT	IQUANT	1	I/E Range Lower Limit
IERANGEMODE	TOGGLE	F	I/E AutoRange
IERANGE	IQUANT	7	I/E Range
POSFEEDENABLE	TOGGLE	F	Positive Feedback IR Comp
POSFEEDRESISTANCE	QUANT	0	Positive Feedback Resistance (ohm)
ACHSELECT	IQUANT	0	Ach Select
CABLEID	IQUANT	14	Cable ID
DCCALDATE	LABEL	12/22/2019	DC Calibration Date
ACCALDATE	LABEL	12/22/2019	AC Calibration Date
THERMOSELECT	IQUANT	1	Thermo Select
FRAMEWORKVERSION	QUANT	6.33	Framework Version
INSTRUMENTVERSION	LABEL	3.50	Instrument Version
ZCURVE	TABLE
	Pt	Time	Freq	Zreal	Zimag	Zsig	Zmod	Zphz	Idc	Vdc	IERange
	#	s	Hz	ohm	ohm	V	ohm	°	A	V	#
	0	1	1000078	2080.287	-2277.937	1	3084.898	-47.59664	3.338569E-006	0.011453	8
	1	2	794390.6	2508.347	-2435.813	1	3496.425	-44.1595	-4.13747E-006	0.0125174	8
	2	2	630984.4	2993.733	-2552.021	1	3933.859	-40.44608	3.45622E-007	0.0118744	8
	3	2	501234.4	3511.417	-2551.845	1	4340.733	-36.00695	5.154079E-007	0.0115746	8
	4	3	398109.4	4006.874	-2524.597	1	4735.887	-32.21365	-3.16728E-006	0.0123329	8
	5	3	316265.6	4487.746	-2430.521	1	5103.656	-28.43956	6.886248E-007	0.0115013	8
	6	3	251203.1	4892.631	-2213.498	1	5370.048	-24.34269	-7.853771E-007	0.01184	8
	7	4	199546.9	5263.058	-2054.578	1	5649.873	-21.32454	2.873869E-006	0.011079	8
	8	4	158578.1	5564.68	-1794.901	1	5846.994	-17.87723	1.624981E-006	0.0112792	8
	9	4	125953.1	5845.201	-1586.84	1	6056.768	-15.18844	2.384371E-007	0.0110133	7
	10	5	100078.1	6017.897	-1370.874	1	6172.065	-12.83297	9.197436E-008	0.0114403	7
	11	5	79453.13	6167.567	-1204.521	1	6284.088	-11.05073	-1.261458E-008	0.0115655	7
	12	5	63140.62	6285.812	-1063.686	1	6375.175	-9.60461	4.742299E-008	0.0115513	7
	13	6	50203.12	6378.11	-947.8657	1	6448.158	-8.452991	3.119295E-008	0.0114749	7
	14	6	39890.62	6458.634	-860.0297	1	6515.644	-7.584868	2.477177E-008	0.0115398	7
	15	6	31640.63	6525.625	-796.569	1	6574.063	-6.959541	5.433093E-010	0.0115814	7
	16	7	25171.88	6585.698	-756.4117	1	6628.996	-6.552094	-2.153095E-008	0.0115867	7
	17	7	20015.62	6642.858	-743.712	1	6684.36	-6.388041	-3.712574E-008	0.0116358	7
	18	7	15890.62	6694.978	-740.8813	1	6735.847	-6.314787	-2.983067E-008	0.0115799	7
	19	7	12609.37	6750.237	-768.9602	1	6793.894	-6.498893	9.142383E-008	0.0114294	7
	20	8	10078.13	6803.311	-814.965	1	6851.949	-6.830882	-1.408884E-008	0.0115527	7
	21	8	8015.625	6857.875	-884.3813	1	6914.665	-7.348222	-4.072904E-008	0.0116169	7
	22	8	6328.125	6919.276	-989.51	1	6989.671	-8.138558	4.859143E-008	0.0115427	7
	23	9	5015.625	6983.306	-1123.013	1	7073.027	-9.135747	4.849049E-008	0.0115372	7
	24	9	3984.375	7050.332	-1293.022	1	7167.92	-10.39248	4.882318E-008	0.0115406	7
	25	9	3170.956	7120.414	-1508.932	1	7278.542	-11.96489	-1.36316E-008	0.0115459	7
	26	10	2527.573	7200.883	-1777.547	1	7417.034	-13.86632	-3.701759E-008	0.0116269	7
	27	10	1976.103	7305.616	-2141.428	1	7612.999	-16.33696	-4.053447E-008	0.0116083	7
	28	10	1577.524	7419.251	-2543.326	1	7843.073	-18.92176	5.27412E-008	0.0114622	7
	29	11	1265.625	7532.592	-3053.076	1	8127.805	-22.06347	-1.014549E-008	0.0116367	7
	30	11	998.264	7690.333	-3705.228	1	8536.389	-25.72492	2.428645E-008	0.0115245	7
	31	11	796.875	7867.055	-4467.203	1	9046.903	-29.5895	3.117561E-008	0.0114525	7
	32	12	627.7902	8092.371	-5459.386	1	9761.73	-34.00493	1.144728E-009	0.0115811	6
	33	12	505.5147	8336.636	-6556.319	1	10605.89	-38.18316	9.173018E-010	0.0116076	6
	34	12	397.9953	8666.31	-8036.848	1	11819.3	-42.84182	-1.296566E-010	0.011559	6
	35	13	315.5048	9052.896	-9801	1	13342.21	-47.27224	8.768342E-010	0.0115581	6
	36	13	252.4038	9497.922	-11875.75	1	15206.71	-51.34806	1.115855E-009	0.0115545	6
	37	13	198.6229	10079.13	-14609.29	1	17748.81	-55.39772	8.156122E-010	0.0115566	6
	38	14	158.3615	10764.06	-17775.14	1	20780.29	-58.80223	1.149845E-009	0.011554	6
	39	14	125.558	11629.84	-21765.55	1	24677.77	-61.88337	9.461689E-010	0.0115562	6
	40	14	100.4464	12682.14	-26484.48	1	29364.34	-64.41249	1.271735E-009	0.0115521	6
	41	15	79.00281	14104.53	-32734.35	1	35643.73	-66.68982	9.189936E-011	0.0115529	6
	42	15	63.3446	15917.17	-39220.26	1	42327.12	-67.9107	4.147586E-010	0.0115503	6
	43	15	49.86702	18429.01	-48573.67	1	51952.18	-69.22309	5.435354E-010	0.0115479	6
	44	16	39.72458	21356.89	-59481.1	1	63199.04	-70.24915	6.55856E-010	0.0115529	6
	45	16	31.6723	25513.9	-72548.91	1	76904.51	-70.62431	-2.978075E-011	0.0115485	6
	46	16	24.93351	31368.33	-88472.73	1	93869.03	-70.47785	5.599627E-010	0.0115467	6
	47	17	19.86229	38618.8	-106687.1	1	113461.7	-70.10067	-4.185836E-010	0.0115493	5
	48	17	15.83615	48519.48	-128517.4	1	137371.2	-69.31686	8.749743E-010	0.0115471	5
	49	17	12.40079	61457.92	-155563.1	1	167263.2	-68.44264	-1.064168E-010	0.0115497	5
	50	18	9.93114	77423.59	-182190.6	1	197959.1	-66.97648	5.835966E-010	0.0115472	5
	51	18	7.944915	97185.5	-213380.1	1	234469.8	-65.51276	4.662885E-010	0.0115483	5
	52	19	6.317385	121477.5	-249224.3	1	277253.6	-64.01436	2.211802E-010	0.0115403	5
	53	20	5.008013	150768.6	-289592.9	1	326489.2	-62.4975	2.497977E-010	0.0115564	5
	54	21	3.945707	185574.3	-334665.7	1	382673.4	-60.99135	-1.586829E-010	0.0115445	5
	55	22	3.158693	223296	-381732.4	1	442245.2	-59.67432	-6.76439E-011	0.0115363	5
	56	24	2.504006	267181.9	-437295.2	1	512458	-58.57559	1.04121E-010	0.0115441	5
	57	25	1.998082	313852.1	-496707	1	587555.1	-57.71262	-7.268856E-011	0.0115228	5
	58	27	1.584686	369338.3	-569031.8	1	678386.3	-57.01383	-1.424494E-010	0.0114964	5
	59	28	1.266892	427082.3	-648700.8	1	776667.3	-56.64046	-1.19931E-010	0.01152	5
	60	31	0.999041	499336.9	-745815.1	1	897539.7	-56.19697	-7.360059E-011	0.0115449	5
