EXPLAIN
TAG	EISPOT
TITLE	LABEL	Potentiostatic EIS	Test &Identifier
DATE	LABEL	7/5/2020	Date
TIME	LABEL	17:13:41	Time
NOTES	NOTES	1	&Notes...
	
PSTAT	PSTAT	REF600-11020	Potentiostat
VDC	POTEN	0.00000E+000	T	DC &Voltage (V)
FREQINIT	QUANT	1.00000E+006	Initial Fre&q. (Hz)
FREQFINAL	QUANT	1.00000E+000	Final Fre&q. (Hz)
PTSPERDEC	QUANT	1.00000E+001	Points/&decade
VAC	QUANT	2.50000E+001	AC &Voltage (mV rms)
AREA	QUANT	4.00000E-004	&Area (cm^2)
CONDIT	TWOPARAM	F	5.00000E+000	0.00000E+000	Conditionin&g	Time(s)	E(V)
DELAY	TWOPARAM	F	3.00000E+000	0.00000E+000	Init. De&lay	Time(s)	Stab.(mV/s)
SPEED	SELECTOR	0	&Optimize for:
ZGUESS	QUANT	1.00000E+003	E&stimated Z (ohms)
OCVCURVE	TABLE	39
	Pt	T	Vf	Vm	Ach	Over
	#	s	V vs. Ref.	V	V	bits
	0	0.258333	7.32643E-002	7.32643E-002	5.07184E-004	...........
	1	0.516667	7.32641E-002	7.32500E-002	5.03550E-004	...........
	2	0.775	7.32625E-002	7.32429E-002	5.04384E-004	...........
	3	1.03333	7.32584E-002	7.32306E-002	5.02150E-004	...........
	4	1.29167	7.32515E-002	7.32234E-002	5.02884E-004	...........
	5	1.55	7.32427E-002	7.32145E-002	5.03884E-004	...........
	6	1.80833	7.32335E-002	7.32140E-002	5.04850E-004	...........
	7	2.06667	7.32250E-002	7.32008E-002	5.00050E-004	...........
	8	2.325	7.32177E-002	7.32069E-002	5.00417E-004	...........
	9	2.58333	7.32119E-002	7.32066E-002	5.00717E-004	...........
	10	2.84167	7.32080E-002	7.32052E-002	5.01984E-004	...........
	11	3.1	7.32059E-002	7.31903E-002	5.01984E-004	...........
	12	3.35833	7.32038E-002	7.31915E-002	5.01517E-004	...........
	13	3.61667	7.32003E-002	7.31803E-002	5.05050E-004	...........
	14	3.875	7.31952E-002	7.31819E-002	5.05984E-004	...........
	15	4.13333	7.31897E-002	7.31760E-002	4.99750E-004	...........
	16	4.39167	7.31849E-002	7.31784E-002	5.00184E-004	...........
	17	4.65	7.31811E-002	7.31698E-002	4.99917E-004	...........
	18	4.90833	7.31780E-002	7.31657E-002	4.97384E-004	...........
	19	5.16667	7.31747E-002	7.31604E-002	5.02250E-004	...........
	20	5.425	7.31707E-002	7.31564E-002	4.98850E-004	...........
	21	5.68333	7.31663E-002	7.31595E-002	4.98117E-004	...........
	22	5.94167	7.31623E-002	7.31563E-002	4.96017E-004	...........
	23	6.2	7.31594E-002	7.31464E-002	5.02684E-004	...........
	24	6.45833	7.31569E-002	7.31517E-002	5.01384E-004	...........
	25	6.71667	7.31543E-002	7.31503E-002	5.04517E-004	...........
	26	6.975	7.31520E-002	7.31466E-002	5.03784E-004	...........
	27	7.23333	7.31502E-002	7.31408E-002	5.02817E-004	...........
	28	7.49167	7.31484E-002	7.31393E-002	5.01817E-004	...........
	29	7.75	7.31457E-002	7.31352E-002	4.98417E-004	...........
	30	8.00833	7.31427E-002	7.31398E-002	5.00084E-004	...........
	31	8.26667	7.31404E-002	7.31563E-002	4.98684E-004	...........
	32	8.525	7.31403E-002	7.31358E-002	5.05650E-004	...........
	33	8.78333	7.31419E-002	7.31371E-002	5.04284E-004	...........
	34	9.04167	7.31427E-002	7.31481E-002	4.99017E-004	...........
	35	9.3	7.31424E-002	7.31452E-002	5.02450E-004	...........
	36	9.5583	7.31426E-002	7.31445E-002	5.00684E-004	...........
	37	9.8167	7.31437E-002	7.31554E-002	5.03750E-004	...........
	38	10.075	7.31456E-002	7.31490E-002	5.01117E-004	...........
EOC	QUANT	0.0731456	Open Circuit (V)
PSTATMODEL	IQUANT	4	Pstat Model
PSTATSECTION	LABEL	REF600-11020	Pstat Section
PSTATSERIALNO	LABEL	11020	Pstat Serial Number
CTRLMODE	IQUANT	1	Control Mode
IESTAB	IQUANT	0	I/E Stability
CASPEED	IQUANT	1	Control Amp Speed
CONVENTION	IQUANT	1	Current Convention
ICHRANGE	IQUANT	2	Ich Range
ICHRANGEMODE	TOGGLE	F	Ich Auto Range
ICHOFFSETENABLE	TOGGLE	T	Ich Offset Enable
ICHOFFSET	QUANT	0	Ich Offset (V)
ICHFILTER	IQUANT	3	Ich Filter
VCHRANGE	IQUANT	2	Vch Range
VCHRANGEMODE	TOGGLE	F	Vch Auto Range
VCHOFFSETENABLE	TOGGLE	T	Vch Offset Enable
VCHOFFSET	QUANT	0	Vch Offset (V)
VCHFILTER	IQUANT	3	Vch Filter
ACHRANGE	IQUANT	2	Ach Range
ACHOFFSETENABLE	TOGGLE	F	Ach Offset Enable
ACHOFFSET	QUANT	0	Ach Offset (V)
ACHFILTER	IQUANT	3	Ach Filter
IERANGELOWERLIMIT	IQUANT	1	I/E Range Lower Limit
IERANGEMODE	TOGGLE	F	I/E AutoRange
IERANGE	IQUANT	8	I/E Range
POSFEEDENABLE	TOGGLE	F	Positive Feedback IR Comp
POSFEEDRESISTANCE	QUANT	0	Positive Feedback Resistance (ohm)
ACHSELECT	IQUANT	0	Ach Select
CABLEID	IQUANT	14	Cable ID
DCCALDATE	LABEL	6/26/2020	DC Calibration Date
ACCALDATE	LABEL	6/26/2020	AC Calibration Date
THERMOSELECT	IQUANT	1	Thermo Select
FRAMEWORKVERSION	QUANT	6.33	Framework Version
INSTRUMENTVERSION	LABEL	3.50	Instrument Version
ZCURVE	TABLE
	Pt	Time	Freq	Zreal	Zimag	Zsig	Zmod	Zphz	Idc	Vdc	IERange
	#	s	Hz	ohm	ohm	V	ohm	°	A	V	#
	0	1	1000078	1807.101	-1678.296	1	2466.23	-42.88356	5.100557E-006	0.0761632	8
	1	2	794390.6	2155.246	-1721.333	1	2758.273	-38.61335	-2.13374E-006	0.0760235	8
	2	2	630984.4	2518.925	-1694.205	1	3035.674	-33.9244	-1.930485E-006	0.0749198	8
	3	2	501234.4	2834.992	-1613.593	1	3262.033	-29.64725	-4.440795E-006	0.0757963	8
	4	3	398109.4	3125.428	-1489.442	1	3462.187	-25.48043	1.113146E-007	0.0755681	8
	5	3	316265.6	3361.26	-1350.263	1	3622.331	-21.88598	9.398246E-007	0.0754632	8
	6	3	251203.1	3549.24	-1218.461	1	3752.566	-18.94744	-2.963696E-007	0.0754949	8
	7	4	199546.9	3695.209	-1084.495	1	3851.064	-16.35626	2.354271E-006	0.0752604	8
	8	4	158578.1	3819.492	-984.842	1	3944.418	-14.45857	7.568834E-007	0.0753901	8
	9	4	125953.1	3926.398	-888.2301	1	4025.612	-12.7469	-2.009149E-006	0.0745419	7
	10	5	100078.1	4019.932	-811.9659	1	4101.115	-11.41925	5.747713E-007	0.0730319	7
	11	5	79453.13	4088.798	-763.1604	1	4159.409	-10.57241	1.251646E-006	0.0733098	7
	12	5	63140.62	4155.398	-731.222	1	4219.244	-9.98012	1.144063E-006	0.0730393	7
	13	6	50203.12	4217.098	-716.7557	1	4277.576	-9.64605	6.593094E-007	0.0752393	7
	14	6	39890.62	4280.143	-718.1276	1	4339.969	-9.52445	3.951765E-007	0.0756121	7
	15	6	31640.63	4344.561	-741.1047	1	4407.317	-9.68046	3.967783E-007	0.0756056	7
	16	6	25171.88	4411.27	-774.694	1	4478.778	-9.96054	-1.15576E-006	0.0754366	7
	17	7	20015.62	4487.133	-837.1006	1	4564.548	-10.56738	9.317543E-007	0.0729188	7
	18	7	15890.62	4564.583	-912.9763	1	4654.991	-11.31065	1.254019E-006	0.0736957	7
	19	7	12609.37	4648.129	-1009.472	1	4756.483	-12.25311	-1.063153E-006	0.0768492	7
	20	8	10078.13	4743.418	-1125.617	1	4875.145	-13.34941	6.079867E-007	0.0730055	7
	21	8	8015.625	4844.574	-1270.859	1	5008.491	-14.69899	-1.3698E-006	0.0760909	7
	22	8	6328.125	4965.946	-1447.447	1	5172.594	-16.25006	6.613175E-007	0.0752195	7
	23	9	5015.625	5098.332	-1658.961	1	5361.449	-18.02452	-3.845938E-007	0.076522	7
	24	9	3984.375	5243.686	-1909.155	1	5580.423	-20.00588	-1.062206E-006	0.0768484	7
	25	9	3170.956	5414.469	-2209.184	1	5847.817	-22.19619	1.131788E-006	0.0741984	7
	26	10	2527.573	5592.699	-2552.972	1	6147.841	-24.53589	-3.852533E-007	0.0765114	7
	27	10	1976.103	5819.929	-3004.307	1	6549.613	-27.30325	2.990607E-008	0.0760871	7
	28	10	1577.524	6053.62	-3500.563	1	6992.872	-30.03905	-2.936985E-007	0.0738816	7
	29	11	1265.625	6318.227	-4079.76	1	7520.933	-32.85085	9.119415E-007	0.0747618	7
	30	11	998.264	6630.822	-4836.288	1	8207.16	-36.10569	1.254216E-006	0.0733033	7
	31	11	796.875	6965.479	-5689.728	1	8993.937	-39.24355	9.283091E-007	0.0729119	7
	32	12	627.7902	7372.223	-6770.588	1	10009.52	-42.56411	-1.057749E-006	0.0768445	7
	33	12	505.5147	7800.095	-7985.118	1	11162.6	-45.67155	6.044258E-007	0.0729956	7
	34	12	397.9953	8340.805	-9585.9	1	12706.63	-48.97309	6.869649E-010	0.0749424	6
	35	12	315.5048	8970.368	-11495.55	1	14581.33	-52.03387	2.152101E-010	0.0749564	6
	36	13	252.4038	9698.47	-13723.58	1	16804.68	-54.7511	8.236035E-010	0.0749376	6
	37	13	198.6229	10657.09	-16630.47	1	19752.12	-57.34755	8.841713E-010	0.0749382	6
	38	13	158.3615	11792.53	-19966.05	1	23188.51	-59.43266	2.101787E-010	0.0749443	6
	39	14	125.558	13253.91	-24087.78	1	27493.4	-61.17893	7.720592E-010	0.0749362	6
	40	14	100.4464	15025.01	-28821.84	1	32503.06	-62.46668	1.421135E-010	0.0749422	6
	41	14	79.00281	17482.65	-34889.4	1	39024.52	-63.38512	8.08602E-010	0.0749323	6
	42	15	63.3446	20471.12	-41682.12	1	46437.77	-63.8432	5.943518E-010	0.0749339	6
	43	15	49.86702	24383.49	-50141.31	1	55755.77	-64.06656	2.389828E-010	0.0749313	6
	44	15	39.72458	29135.63	-59419.34	1	66178.12	-63.87948	3.442686E-010	0.0749312	6
	45	16	31.6723	35099.82	-70191.52	1	78478.32	-63.43229	2.252087E-010	0.0749376	6
	46	16	24.93351	43194.78	-83295.17	1	93828.97	-62.58988	5.571195E-010	0.0749416	6
	47	16	19.86229	52742.08	-97176.6	1	110566.8	-61.50933	1.026192E-009	0.0749224	5
	48	17	15.83615	64008.2	-112882.4	1	129767	-60.44526	4.332794E-010	0.0749318	5
	49	17	12.40079	79268.77	-130157.3	1	152395.7	-58.65762	2.038156E-009	0.074924	5
	50	17	9.93114	94807.4	-148152.1	1	175890.5	-57.38348	1.540468E-009	0.074933	5
	51	18	7.944915	112597.8	-167797	1	202074.5	-56.13698	-1.596353E-010	0.074923	5
	52	18	6.317385	132497.9	-189462.5	1	231196.3	-55.03354	7.42272E-010	0.0749232	5
	53	19	5.008013	155097	-214177.9	1	264437.7	-54.08981	4.517484E-010	0.0749157	5
	54	20	3.945707	179787.7	-242581.1	1	301942.4	-53.45621	-2.214451E-010	0.0749292	5
	55	21	3.158693	206045	-273304.2	1	342271.4	-52.98722	1.97743E-010	0.0749186	5
	56	22	2.504006	235545.3	-310419.7	1	389669.1	-52.80891	2.905737E-010	0.0749225	5
	57	24	1.998082	267878.2	-351164.7	1	441673.3	-52.66261	-6.280824E-011	0.0748745	5
	58	25	1.584686	303938.2	-401297.4	1	503406.4	-52.86012	-6.038029E-011	0.0748706	5
	59	27	1.266892	342484.3	-455524.4	1	569910.5	-53.06246	3.738947E-011	0.0749084	5
	60	30	0.999041	388865.3	-522755.8	1	651528.9	-53.35534	8.721653E-011	0.0749358	5
