EXPLAIN
TAG	EISPOT
TITLE	LABEL	Potentiostatic EIS	Test &Identifier
DATE	LABEL	1/18/2020	Date
TIME	LABEL	22:17:50	Time
NOTES	NOTES	6	&Notes...
	
	
	
	
	
	
PSTAT	PSTAT	REF600-11020	Potentiostat
VDC	POTEN	0.00000E+000	T	DC &Voltage (V)
FREQINIT	QUANT	1.00000E+006	Initial Fre&q. (Hz)
FREQFINAL	QUANT	1.00000E+000	Final Fre&q. (Hz)
PTSPERDEC	QUANT	1.00000E+001	Points/&decade
VAC	QUANT	2.50000E+001	AC &Voltage (mV rms)
AREA	QUANT	1.00000E-001	&Area (cm^2)
CONDIT	TWOPARAM	F	5.00000E+000	0.00000E+000	Conditionin&g	Time(s)	E(V)
DELAY	TWOPARAM	F	5.00000E+000	0.00000E+000	Init. De&lay	Time(s)	Stab.(mV/s)
SPEED	SELECTOR	0	&Optimize for:
ZGUESS	QUANT	5.00000E+002	E&stimated Z (ohms)
OCVCURVE	TABLE	39
	Pt	T	Vf	Vm	Ach	Over
	#	s	V vs. Ref.	V	V	bits
	0	0.258333	1.66519E-002	1.66519E-002	6.39313E-004	...........
	1	0.516667	1.66553E-002	1.68297E-002	6.46413E-004	...........
	2	0.775	1.66728E-002	1.68226E-002	6.44680E-004	...........
	3	1.03333	1.67173E-002	1.71356E-002	6.46946E-004	...........
	4	1.29167	1.67994E-002	1.73050E-002	6.48846E-004	...........
	5	1.55	1.69161E-002	1.69459E-002	6.48846E-004	...........
	6	1.80833	1.70256E-002	1.69825E-002	6.45413E-004	...........
	7	2.06667	1.70749E-002	1.70302E-002	6.47513E-004	...........
	8	2.325	1.70661E-002	1.70996E-002	6.43713E-004	...........
	9	2.58333	1.70482E-002	1.71702E-002	6.46646E-004	...........
	10	2.84167	1.70579E-002	1.72335E-002	6.48413E-004	...........
	11	3.1	1.70968E-002	1.71892E-002	6.48180E-004	...........
	12	3.35833	1.71448E-002	1.72107E-002	6.42646E-004	...........
	13	3.61667	1.71819E-002	1.72254E-002	6.47513E-004	...........
	14	3.875	1.72030E-002	1.72414E-002	6.50713E-004	...........
	15	4.13333	1.72154E-002	1.72438E-002	6.50013E-004	...........
	16	4.39167	1.72256E-002	1.72477E-002	6.48680E-004	...........
	17	4.65	1.72348E-002	1.72566E-002	6.51246E-004	...........
	18	4.90833	1.72426E-002	1.72653E-002	6.54446E-004	...........
	19	5.16667	1.72496E-002	1.72739E-002	6.50646E-004	...........
	20	5.425	1.72569E-002	1.72807E-002	6.50413E-004	...........
	21	5.68333	1.72645E-002	1.72855E-002	6.48346E-004	...........
	22	5.94167	1.72721E-002	1.72944E-002	6.52480E-004	...........
	23	6.2	1.72793E-002	1.72978E-002	6.51513E-004	...........
	24	6.45833	1.72859E-002	1.72993E-002	6.45913E-004	...........
	25	6.71667	1.72916E-002	1.73024E-002	6.47146E-004	...........
	26	6.975	1.72962E-002	1.73140E-002	6.46113E-004	...........
	27	7.23333	1.73005E-002	1.73194E-002	6.41546E-004	...........
	28	7.49167	1.73055E-002	1.73142E-002	6.45646E-004	...........
	29	7.75	1.73103E-002	1.73116E-002	6.46980E-004	...........
	30	8.00833	1.73135E-002	1.73178E-002	6.45880E-004	...........
	31	8.26667	1.73150E-002	1.73261E-002	6.46646E-004	...........
	32	8.525	1.73167E-002	1.73419E-002	6.47113E-004	...........
	33	8.78333	1.73211E-002	1.73533E-002	6.47513E-004	...........
	34	9.04167	1.73289E-002	1.73551E-002	6.45946E-004	...........
	35	9.3	1.73383E-002	1.73524E-002	6.48713E-004	...........
	36	9.5583	1.73465E-002	1.73601E-002	6.45880E-004	...........
	37	9.8167	1.73522E-002	1.73663E-002	6.42246E-004	...........
	38	10.075	1.73563E-002	1.73688E-002	6.49080E-004	...........
EOC	QUANT	0.0173563	Open Circuit (V)
PSTATMODEL	IQUANT	4	Pstat Model
PSTATSECTION	LABEL	REF600-11020	Pstat Section
PSTATSERIALNO	LABEL	11020	Pstat Serial Number
CTRLMODE	IQUANT	1	Control Mode
IESTAB	IQUANT	0	I/E Stability
CASPEED	IQUANT	1	Control Amp Speed
CONVENTION	IQUANT	1	Current Convention
ICHRANGE	IQUANT	2	Ich Range
ICHRANGEMODE	TOGGLE	F	Ich Auto Range
ICHOFFSETENABLE	TOGGLE	T	Ich Offset Enable
ICHOFFSET	QUANT	0	Ich Offset (V)
ICHFILTER	IQUANT	3	Ich Filter
VCHRANGE	IQUANT	2	Vch Range
VCHRANGEMODE	TOGGLE	F	Vch Auto Range
VCHOFFSETENABLE	TOGGLE	T	Vch Offset Enable
VCHOFFSET	QUANT	0	Vch Offset (V)
VCHFILTER	IQUANT	3	Vch Filter
ACHRANGE	IQUANT	2	Ach Range
ACHOFFSETENABLE	TOGGLE	F	Ach Offset Enable
ACHOFFSET	QUANT	0	Ach Offset (V)
ACHFILTER	IQUANT	3	Ach Filter
IERANGELOWERLIMIT	IQUANT	1	I/E Range Lower Limit
IERANGEMODE	TOGGLE	F	I/E AutoRange
IERANGE	IQUANT	7	I/E Range
POSFEEDENABLE	TOGGLE	F	Positive Feedback IR Comp
POSFEEDRESISTANCE	QUANT	0	Positive Feedback Resistance (ohm)
ACHSELECT	IQUANT	0	Ach Select
CABLEID	IQUANT	14	Cable ID
DCCALDATE	LABEL	12/22/2019	DC Calibration Date
ACCALDATE	LABEL	12/22/2019	AC Calibration Date
THERMOSELECT	IQUANT	1	Thermo Select
FRAMEWORKVERSION	QUANT	6.33	Framework Version
INSTRUMENTVERSION	LABEL	3.50	Instrument Version
ZCURVE	TABLE
	Pt	Time	Freq	Zreal	Zimag	Zsig	Zmod	Zphz	Idc	Vdc	IERange
	#	s	Hz	ohm	ohm	V	ohm	°	A	V	#
	0	1	1000078	1887.094	-1868.723	1	2655.796	-44.71975	5.168635E-007	0.019466	8
	1	2	794390.6	2161.964	-2017.032	1	2956.773	-43.01371	-1.533963E-006	0.0195205	8
	2	2	630984.4	2438.225	-2166.312	1	3261.572	-41.62042	5.783855E-006	0.0180941	8
	3	2	501234.4	2754.989	-2324.363	1	3604.528	-40.15407	1.122749E-006	0.0184564	8
	4	2	398109.4	3071.954	-2508.302	1	3965.915	-39.23221	1.121258E-007	0.0188453	8
	5	3	316265.6	3446.326	-2714.002	1	4386.681	-38.22065	1.788841E-006	0.0185346	8
	6	3	251203.1	3832.296	-2946.876	1	4834.312	-37.55878	1.401847E-006	0.0184947	8
	7	3	199546.9	4278.131	-3193.976	1	5338.903	-36.74436	4.54055E-006	0.0180529	8
	8	4	158578.1	4764.005	-3400.526	1	5853.147	-35.51908	1.917231E-006	0.0184695	8
	9	4	125953.1	5377.081	-3601.212	1	6471.609	-33.81155	-7.666125E-007	0.0208397	7
	10	4	100078.1	5971.448	-3770.501	1	7062.214	-32.2692	-2.096996E-008	0.0188317	7
	11	5	79453.13	6628.061	-3934.64	1	7707.956	-30.69479	1.825359E-009	0.0188528	7
	12	5	63140.62	7312.085	-4038.831	1	8353.367	-28.91407	1.190542E-007	0.0186567	7
	13	5	50203.12	8003.146	-4090.936	1	8988.108	-27.07458	3.114561E-008	0.0187878	7
	14	6	39890.62	8685.148	-4088.31	1	9599.27	-25.2075	-3.249071E-009	0.0188502	7
	15	6	31640.63	9357.205	-4049.066	1	10195.7	-23.39918	-1.151083E-008	0.0188637	7
	16	6	25171.88	9992.33	-3977.386	1	10754.82	-21.70473	-1.104451E-008	0.0189346	7
	17	7	20015.62	10598.06	-3888.346	1	11288.84	-20.1477	3.007625E-008	0.0187867	7
	18	7	15890.62	11159.86	-3789.706	1	11785.77	-18.75665	1.191893E-007	0.0186439	7
	19	7	12609.37	11739.44	-3633.062	1	12288.76	-17.19598	-3.513104E-009	0.0188764	6
	20	8	10078.13	12214.61	-3563.332	1	12723.76	-16.26339	5.719166E-009	0.0188341	6
	21	8	8015.625	12690.11	-3511.875	1	13167.08	-15.46896	2.632371E-009	0.0188779	6
	22	8	6328.125	13150.26	-3477.106	1	13602.19	-14.81083	7.539082E-009	0.0186452	6
	23	9	5015.625	13600.51	-3470.385	1	14036.29	-14.31447	4.665436E-009	0.0188138	6
	24	9	3984.375	14018.93	-3496.191	1	14448.31	-14.00338	7.402817E-009	0.0186419	6
	25	9	3170.956	14433.59	-3553.11	1	14864.49	-13.8295	4.643562E-009	0.0188143	6
	26	9	2527.573	14822.5	-3650.744	1	15265.47	-13.83641	-5.190656E-009	0.0189442	6
	27	10	1976.103	15238.9	-3821.683	1	15710.8	-14.07856	-4.488226E-009	0.0188677	6
	28	10	1577.524	15597.32	-4030.552	1	16109.68	-14.48901	2.124487E-009	0.0187289	6
	29	10	1265.625	15971.4	-4341.008	1	16550.83	-15.2056	-5.016573E-009	0.018823	6
	30	11	998.264	16374.27	-4761.98	1	17052.66	-16.21553	-5.57574E-009	0.0189445	6
	31	11	796.875	16756.43	-5282.345	1	17569.32	-17.49709	-5.273011E-009	0.0188189	6
	32	11	627.7902	17184.11	-5981.507	1	18195.38	-19.19217	2.07488E-009	0.0187316	6
	33	12	505.5147	17599.51	-6780.503	1	18860.48	-21.07001	4.645911E-009	0.0186415	6
	34	12	397.9953	18107.72	-7879.681	1	19747.88	-23.51655	8.357386E-010	0.0188168	6
	35	12	315.5048	18649.35	-9210.797	1	20799.93	-26.28448	4.094308E-010	0.0188145	6
	36	13	252.4038	19262.15	-10787.06	1	22076.93	-29.2494	8.203053E-010	0.0188083	6
	37	13	198.6229	20041.95	-12869.26	1	23818.01	-32.70518	5.653905E-010	0.0188065	6
	38	13	158.3615	20933.63	-15275.92	1	25914.68	-36.1194	3.155872E-010	0.0188079	6
	39	14	125.558	22068.04	-18264.46	1	28645.93	-39.61262	3.469672E-010	0.0188101	6
	40	14	100.4464	23401.97	-21695.87	1	31911.8	-42.83347	9.344205E-010	0.0188026	6
	41	14	79.00281	25293.88	-26082.75	1	36333.05	-45.87968	6.581184E-010	0.0188079	6
	42	15	63.3446	27616.25	-31111.88	1	41600.55	-48.40636	9.440428E-011	0.0188036	6
	43	15	49.86702	30514.18	-37193.29	1	48108.79	-50.63381	-3.366627E-010	0.0188059	6
	44	15	39.72458	33986.67	-43751.66	1	55401.27	-52.15963	6.040944E-010	0.0188036	6
	45	16	31.6723	38261.51	-51362.88	1	64047.55	-53.31664	1.863505E-010	0.0188054	6
	46	16	24.93351	43829.39	-60743.29	1	74905.02	-54.18762	6.579771E-010	0.018799	6
	47	16	19.86229	50160.25	-70836.49	1	86797.8	-54.69719	1.859176E-009	0.0188138	6
	48	17	15.83615	57947.1	-81558.65	1	100048.4	-54.60635	-1.757145E-009	0.018802	6
	49	17	12.40079	66745.85	-95740.5	1	116710.1	-55.11756	-1.096943E-009	0.0188046	5
	50	17	9.93114	76349.45	-109967.8	1	133873.6	-55.22817	-1.229127E-009	0.0188054	5
	51	18	7.944915	87074.7	-126532	1	153598	-55.46566	-7.952303E-010	0.0188052	5
	52	18	6.317385	99411.2	-146019.4	1	176647.2	-55.75265	2.177844E-010	0.0187946	5
	53	19	5.008013	113906.6	-169263	1	204021.2	-56.06116	2.594516E-011	0.0187948	5
	54	20	3.945707	130764.2	-196911.5	1	236375.5	-56.41281	1.159586E-010	0.0188059	5
	55	21	3.158693	149253.5	-228250.5	1	272717.6	-56.81924	-1.355655E-010	0.018802	5
	56	23	2.504006	171584.3	-265842.3	1	316406.9	-57.16033	-8.307425E-012	0.0187924	5
	57	24	1.998082	197149.5	-308399.5	1	366030.3	-57.41058	2.596457E-010	0.0188342	5
	58	25	1.584686	226896	-358973.3	1	424668.9	-57.70427	1.407925E-010	0.0188057	5
	59	27	1.266892	262434.5	-415413.9	1	491366	-57.71767	7.596832E-011	0.0187697	5
	60	30	0.999041	306138.8	-485850.1	1	574257.1	-57.78458	2.519194E-011	0.0187525	5
