EXPLAIN
TAG	EISPOT
TITLE	LABEL	Potentiostatic EIS	Test &Identifier
DATE	LABEL	1/21/2020	Date
TIME	LABEL	17:52:21	Time
NOTES	NOTES	6	&Notes...
	
	
	
	
	
	
PSTAT	PSTAT	REF600-11020	Potentiostat
VDC	POTEN	0.00000E+000	T	DC &Voltage (V)
FREQINIT	QUANT	1.00000E+006	Initial Fre&q. (Hz)
FREQFINAL	QUANT	1.00000E+000	Final Fre&q. (Hz)
PTSPERDEC	QUANT	1.00000E+001	Points/&decade
VAC	QUANT	2.50000E+001	AC &Voltage (mV rms)
AREA	QUANT	1.00000E-001	&Area (cm^2)
CONDIT	TWOPARAM	F	5.00000E+000	0.00000E+000	Conditionin&g	Time(s)	E(V)
DELAY	TWOPARAM	F	5.00000E+000	0.00000E+000	Init. De&lay	Time(s)	Stab.(mV/s)
SPEED	SELECTOR	0	&Optimize for:
ZGUESS	QUANT	5.00000E+002	E&stimated Z (ohms)
OCVCURVE	TABLE	39
	Pt	T	Vf	Vm	Ach	Over
	#	s	V vs. Ref.	V	V	bits
	0	0.258333	-5.98124E-002	-5.98124E-002	6.55113E-004	...........
	1	0.516667	-5.98124E-002	-5.98153E-002	6.60979E-004	...........
	2	0.775	-5.98120E-002	-5.97753E-002	6.52180E-004	...........
	3	1.03333	-5.98082E-002	-5.97537E-002	6.58579E-004	...........
	4	1.29167	-5.97970E-002	-5.96961E-002	6.52980E-004	...........
	5	1.55	-5.97752E-002	-5.96530E-002	6.51246E-004	...........
	6	1.80833	-5.97424E-002	-5.95836E-002	6.57046E-004	...........
	7	2.06667	-5.97012E-002	-5.96288E-002	6.62879E-004	...........
	8	2.325	-5.96610E-002	-5.96181E-002	6.60513E-004	...........
	9	2.58333	-5.96311E-002	-5.95306E-002	6.57246E-004	...........
	10	2.84167	-5.96094E-002	-5.95324E-002	6.57213E-004	...........
	11	3.1	-5.95867E-002	-5.95148E-002	6.58646E-004	...........
	12	3.35833	-5.95601E-002	-5.94506E-002	6.56280E-004	...........
	13	3.61667	-5.95319E-002	-5.94673E-002	6.53646E-004	...........
	14	3.875	-5.95043E-002	-5.94509E-002	6.55446E-004	...........
	15	4.13333	-5.94792E-002	-5.93462E-002	6.60513E-004	...........
	16	4.39167	-5.94520E-002	-5.93011E-002	6.55113E-004	...........
	17	4.65	-5.94151E-002	-5.92844E-002	6.59913E-004	...........
	18	4.90833	-5.93714E-002	-5.93413E-002	6.57913E-004	...........
	19	5.16667	-5.93371E-002	-5.93971E-002	6.56346E-004	...........
	20	5.425	-5.93278E-002	-5.94133E-002	6.57779E-004	...........
	21	5.68333	-5.93448E-002	-5.94616E-002	6.59513E-004	...........
	22	5.94167	-5.93764E-002	-5.94367E-002	6.55446E-004	...........
	23	6.2	-5.94077E-002	-5.94200E-002	6.55146E-004	...........
	24	6.45833	-5.94273E-002	-5.94094E-002	6.57246E-004	...........
	25	6.71667	-5.94314E-002	-5.93911E-002	6.57113E-004	...........
	26	6.975	-5.94235E-002	-5.93669E-002	6.55113E-004	...........
	27	7.23333	-5.94085E-002	-5.93354E-002	6.57546E-004	...........
	28	7.49167	-5.93890E-002	-5.93210E-002	6.57480E-004	...........
	29	7.75	-5.93670E-002	-5.93096E-002	6.58679E-004	...........
	30	8.00833	-5.93453E-002	-5.92982E-002	6.57946E-004	...........
	31	8.26667	-5.93266E-002	-5.92857E-002	6.53613E-004	...........
	32	8.525	-5.93104E-002	-5.92200E-002	6.55380E-004	...........
	33	8.78333	-5.92921E-002	-5.92079E-002	6.56213E-004	...........
	34	9.04167	-5.92682E-002	-5.91976E-002	6.58179E-004	...........
	35	9.3	-5.92420E-002	-5.92119E-002	6.58079E-004	...........
	36	9.5583	-5.92214E-002	-5.92146E-002	6.56013E-004	...........
	37	9.8167	-5.92106E-002	-5.92052E-002	6.56080E-004	...........
	38	10.075	-5.92076E-002	-5.92007E-002	6.61679E-004	...........
EOC	QUANT	-0.0592076	Open Circuit (V)
PSTATMODEL	IQUANT	4	Pstat Model
PSTATSECTION	LABEL	REF600-11020	Pstat Section
PSTATSERIALNO	LABEL	11020	Pstat Serial Number
CTRLMODE	IQUANT	1	Control Mode
IESTAB	IQUANT	0	I/E Stability
CASPEED	IQUANT	1	Control Amp Speed
CONVENTION	IQUANT	1	Current Convention
ICHRANGE	IQUANT	2	Ich Range
ICHRANGEMODE	TOGGLE	F	Ich Auto Range
ICHOFFSETENABLE	TOGGLE	T	Ich Offset Enable
ICHOFFSET	QUANT	0	Ich Offset (V)
ICHFILTER	IQUANT	3	Ich Filter
VCHRANGE	IQUANT	2	Vch Range
VCHRANGEMODE	TOGGLE	F	Vch Auto Range
VCHOFFSETENABLE	TOGGLE	T	Vch Offset Enable
VCHOFFSET	QUANT	0	Vch Offset (V)
VCHFILTER	IQUANT	3	Vch Filter
ACHRANGE	IQUANT	2	Ach Range
ACHOFFSETENABLE	TOGGLE	F	Ach Offset Enable
ACHOFFSET	QUANT	0	Ach Offset (V)
ACHFILTER	IQUANT	3	Ach Filter
IERANGELOWERLIMIT	IQUANT	1	I/E Range Lower Limit
IERANGEMODE	TOGGLE	F	I/E AutoRange
IERANGE	IQUANT	8	I/E Range
POSFEEDENABLE	TOGGLE	F	Positive Feedback IR Comp
POSFEEDRESISTANCE	QUANT	0	Positive Feedback Resistance (ohm)
ACHSELECT	IQUANT	0	Ach Select
CABLEID	IQUANT	14	Cable ID
DCCALDATE	LABEL	12/22/2019	DC Calibration Date
ACCALDATE	LABEL	12/22/2019	AC Calibration Date
THERMOSELECT	IQUANT	1	Thermo Select
FRAMEWORKVERSION	QUANT	6.33	Framework Version
INSTRUMENTVERSION	LABEL	3.50	Instrument Version
ZCURVE	TABLE
	Pt	Time	Freq	Zreal	Zimag	Zsig	Zmod	Zphz	Idc	Vdc	IERange
	#	s	Hz	ohm	ohm	V	ohm	°	A	V	#
	0	1	1000078	1716.06	-861.2497	1	1920.055	-26.65099	-5.973874E-006	-0.0563825	8
	1	2	794390.6	1859.158	-808.6484	1	2027.407	-23.50683	4.964502E-006	-0.057818	8
	2	2	630984.4	1981.8	-748.4555	1	2118.423	-20.68977	2.018745E-006	-0.0581733	8
	3	2	501234.4	2087.086	-696.734	1	2200.31	-18.46061	2.135009E-006	-0.057968	8
	4	2	398109.4	2174.971	-643.7408	1	2268.237	-16.48753	2.088311E-006	-0.0579984	8
	5	3	316265.6	2252.945	-597.3691	1	2330.796	-14.85028	6.652269E-007	-0.0577878	8
	6	3	251203.1	2323.939	-560.6027	1	2390.6	-13.56232	7.278025E-007	-0.0577954	8
	7	3	199546.9	2382.84	-539.4233	1	2443.134	-12.75553	-6.320195E-007	-0.0575694	8
	8	4	158578.1	2440.938	-519.2625	1	2495.558	-12.00955	-5.44493E-007	-0.0574297	8
	9	4	125953.1	2506.726	-493.4574	1	2554.834	-11.13647	-4.215878E-008	-0.0574947	7
	10	4	100078.1	2558.578	-489.0069	1	2604.889	-10.82014	8.233562E-008	-0.0577892	7
	11	5	79453.13	2614.451	-502.7851	1	2662.357	-10.88566	-3.841044E-008	-0.0576359	7
	12	5	63140.62	2673.425	-522.9631	1	2724.094	-11.06817	5.550379E-008	-0.0577101	7
	13	5	50203.12	2735.329	-548.4583	1	2789.773	-11.33798	5.945382E-009	-0.0576213	7
	14	6	39890.62	2801.507	-579.3278	1	2860.78	-11.6836	1.398866E-008	-0.0577467	7
	15	6	31640.63	2871.323	-617.1627	1	2936.901	-12.1306	-1.357131E-009	-0.057661	7
	16	6	25171.88	2944.266	-661.0907	1	3017.572	-12.65502	-4.142514E-008	-0.0576329	7
	17	7	20015.62	3021.172	-713.4058	1	3104.26	-13.28619	-8.758514E-010	-0.0577029	7
	18	7	15890.62	3101.521	-775.4218	1	3196.985	-14.03696	3.346321E-008	-0.0577883	7
	19	7	12609.37	3187.189	-850.065	1	3298.603	-14.9339	5.583183E-008	-0.0577851	7
	20	7	10078.13	3273.344	-937.2062	1	3404.87	-15.97719	6.456434E-009	-0.0576339	7
	21	8	8015.625	3367.465	-1041.632	1	3524.885	-17.18801	-4.083758E-008	-0.0576378	7
	22	8	6328.125	3471.665	-1175.11	1	3665.153	-18.70025	-3.693392E-008	-0.057633	7
	23	8	5015.625	3584.446	-1332.595	1	3824.142	-20.3937	8.307149E-008	-0.0578088	7
	24	9	3984.375	3707.718	-1520.747	1	4007.473	-22.30133	7.540232E-010	-0.0576938	7
	25	9	3170.956	3847.178	-1740.638	1	4222.629	-24.34415	-1.214458E-008	-0.057716	7
	26	9	2527.573	4000.382	-2000.218	1	4472.576	-26.56536	-3.871071E-008	-0.0576571	7
	27	10	1976.103	4187.18	-2334.217	1	4793.855	-29.13825	-1.044594E-009	-0.057705	7
	28	10	1577.524	4370.348	-2699.745	1	5136.98	-31.70535	4.774746E-010	-0.0577005	7
	29	10	1265.625	4575.731	-3118.392	1	5537.299	-34.27469	-1.759841E-008	-0.0576487	7
	30	11	998.264	4808.397	-3660.817	1	6043.365	-37.28341	1.932478E-010	-0.0576772	7
	31	11	796.875	5051.648	-4290.974	1	6628.092	-40.34525	1.453038E-008	-0.0577755	7
	32	11	627.7902	5339.998	-5106.058	1	7388.329	-43.71707	1.555142E-008	-0.057774	7
	33	12	505.5147	5625.101	-6025.724	1	8243.246	-46.96938	-3.507092E-008	-0.0575871	7
	34	12	397.9953	6010.024	-7248.833	1	9416.261	-50.3378	5.440433E-009	-0.0576982	7
	35	12	315.5048	6451.289	-8715.116	1	10843.08	-53.48963	8.757379E-010	-0.0576957	6
	36	13	252.4038	6959.256	-10430.27	1	12538.81	-56.2881	8.757773E-010	-0.0576982	6
	37	13	198.6229	7627.154	-12671.77	1	14790.11	-58.95621	4.706566E-010	-0.0576968	6
	38	13	158.3615	8404.547	-15247.6	1	17410.51	-61.13625	4.280994E-010	-0.0576981	6
	39	14	125.558	9386.741	-18432.46	1	20684.94	-63.01251	7.183665E-010	-0.0576955	6
	40	14	100.4464	10545.22	-22130.82	1	24514.79	-64.52245	2.037402E-010	-0.0577006	6
	41	14	79.00281	12084.25	-26939.89	1	29526.03	-65.84074	5.213809E-010	-0.0577046	6
	42	15	63.3446	13943.38	-32103.91	1	35001.13	-66.52372	1.428456E-010	-0.0577002	6
	43	15	49.86702	16375.2	-39071.33	1	42364.09	-67.26093	-3.028466E-012	-0.0577063	6
	44	15	39.72458	19215.72	-47000.69	1	50777.05	-67.76334	7.037085E-010	-0.0577011	6
	45	16	31.6723	22817.2	-56289.67	1	60738.38	-67.93467	6.446669E-010	-0.0577091	6
	46	16	24.93351	27719.89	-68046.68	1	73476.14	-67.8357	2.303291E-010	-0.0577053	6
	47	16	19.86229	33601.64	-81179.46	1	87858.84	-67.51445	1.051249E-010	-0.0577084	6
	48	16	15.83615	40834.12	-95778.3	1	104119.7	-66.90951	-9.325102E-010	-0.0577064	5
	49	17	12.40079	50445.54	-115717.6	1	126235.2	-66.44585	-9.992873E-010	-0.0577013	5
	50	17	9.93114	61345.39	-135591.1	1	148822.7	-65.6566	-1.075959E-009	-0.0577073	5
	51	17	7.944915	74596.69	-158675	1	175335.2	-64.82072	2.527162E-010	-0.0577049	5
	52	18	6.317385	90583.48	-186235.4	1	207096.5	-64.06207	-1.625422E-010	-0.0576928	5
	53	19	5.008013	110177.8	-218085.6	1	244336.8	-63.19691	-2.605181E-010	-0.0577125	5
	54	20	3.945707	133885.6	-255240	1	288223.5	-62.32084	1.016465E-010	-0.0577165	5
	55	21	3.158693	160196.7	-294993.4	1	335684.5	-61.49575	9.748234E-011	-0.0576983	5
	56	22	2.504006	192648.9	-342555.9	1	393011.6	-60.64718	-9.691367E-011	-0.057711	5
	57	24	1.998082	227966.4	-394519.8	1	455647.4	-59.97928	1.367492E-011	-0.0577173	5
	58	25	1.584686	272140.5	-455765.3	1	530831.9	-59.15829	1.344524E-010	-0.0576747	5
	59	27	1.266892	320324.3	-524828.8	1	614860.1	-58.60259	1.359314E-010	-0.0576851	5
	60	30	0.999041	379305.9	-607155.1	1	715898.3	-58.00589	1.276074E-010	-0.0577099	5
