EXPLAIN
TAG	EISPOT
TITLE	LABEL	Potentiostatic EIS	Test &Identifier
DATE	LABEL	3/9/2020	Date
TIME	LABEL	20:44:14	Time
NOTES	NOTES	1	&Notes...
	
PSTAT	PSTAT	REF600-11020	Potentiostat
VDC	POTEN	0.00000E+000	T	DC &Voltage (V)
FREQINIT	QUANT	1.00000E+006	Initial Fre&q. (Hz)
FREQFINAL	QUANT	1.00000E+000	Final Fre&q. (Hz)
PTSPERDEC	QUANT	1.00000E+001	Points/&decade
VAC	QUANT	2.50000E+001	AC &Voltage (mV rms)
AREA	QUANT	4.00000E-005	&Area (cm^2)
CONDIT	TWOPARAM	F	5.00000E+000	0.00000E+000	Conditionin&g	Time(s)	E(V)
DELAY	TWOPARAM	T	3.00000E+000	0.00000E+000	Init. De&lay	Time(s)	Stab.(mV/s)
SPEED	SELECTOR	0	&Optimize for:
ZGUESS	QUANT	1.00000E+003	E&stimated Z (ohms)
OCVCURVE	TABLE	12
	Pt	T	Vf	Vm	Ach	Over
	#	s	V vs. Ref.	V	V	bits
	0	0.258333	6.48585E-002	6.48585E-002	6.42229E-004	...........
	1	0.516667	6.48581E-002	6.48374E-002	6.45596E-004	...........
	2	0.775	6.48556E-002	6.48168E-002	6.46229E-004	...........
	3	1.03333	6.48485E-002	6.47951E-002	6.44696E-004	...........
	4	1.29167	6.48356E-002	6.47769E-002	6.44929E-004	...........
	5	1.55	6.48182E-002	6.47569E-002	6.53229E-004	...........
	6	1.80833	6.47986E-002	6.47359E-002	6.52229E-004	...........
	7	2.06667	6.47784E-002	6.47174E-002	6.52129E-004	...........
	8	2.325	6.47583E-002	6.46986E-002	6.47162E-004	...........
	9	2.58333	6.47385E-002	6.46804E-002	6.47596E-004	...........
	10	2.84167	6.47192E-002	6.46612E-002	6.48596E-004	...........
	11	3.1	6.47002E-002	6.46431E-002	6.45229E-004	...........
EOC	QUANT	0.0647002	Open Circuit (V)
PSTATMODEL	IQUANT	4	Pstat Model
PSTATSECTION	LABEL	REF600-11020	Pstat Section
PSTATSERIALNO	LABEL	11020	Pstat Serial Number
CTRLMODE	IQUANT	1	Control Mode
IESTAB	IQUANT	0	I/E Stability
CASPEED	IQUANT	1	Control Amp Speed
CONVENTION	IQUANT	1	Current Convention
ICHRANGE	IQUANT	2	Ich Range
ICHRANGEMODE	TOGGLE	F	Ich Auto Range
ICHOFFSETENABLE	TOGGLE	T	Ich Offset Enable
ICHOFFSET	QUANT	0	Ich Offset (V)
ICHFILTER	IQUANT	3	Ich Filter
VCHRANGE	IQUANT	2	Vch Range
VCHRANGEMODE	TOGGLE	F	Vch Auto Range
VCHOFFSETENABLE	TOGGLE	T	Vch Offset Enable
VCHOFFSET	QUANT	0	Vch Offset (V)
VCHFILTER	IQUANT	3	Vch Filter
ACHRANGE	IQUANT	2	Ach Range
ACHOFFSETENABLE	TOGGLE	F	Ach Offset Enable
ACHOFFSET	QUANT	0	Ach Offset (V)
ACHFILTER	IQUANT	3	Ach Filter
IERANGELOWERLIMIT	IQUANT	1	I/E Range Lower Limit
IERANGEMODE	TOGGLE	F	I/E AutoRange
IERANGE	IQUANT	8	I/E Range
POSFEEDENABLE	TOGGLE	F	Positive Feedback IR Comp
POSFEEDRESISTANCE	QUANT	0	Positive Feedback Resistance (ohm)
ACHSELECT	IQUANT	0	Ach Select
CABLEID	IQUANT	14	Cable ID
DCCALDATE	LABEL	2/27/2020	DC Calibration Date
ACCALDATE	LABEL	2/27/2020	AC Calibration Date
THERMOSELECT	IQUANT	1	Thermo Select
FRAMEWORKVERSION	QUANT	6.33	Framework Version
INSTRUMENTVERSION	LABEL	3.50	Instrument Version
ZCURVE	TABLE
	Pt	Time	Freq	Zreal	Zimag	Zsig	Zmod	Zphz	Idc	Vdc	IERange
	#	s	Hz	ohm	ohm	V	ohm	°	A	V	#
	0	1	1000078	2104.903	-1633.616	1	2664.455	-37.81506	4.391299E-008	0.0670545	8
	1	2	794390.6	2438.119	-1624.477	1	2929.736	-33.67484	4.029488E-008	0.0667367	8
	2	2	630984.4	2751.636	-1567.87	1	3166.973	-29.67429	4.236295E-008	0.0665945	8
	3	2	501234.4	3036.59	-1469.644	1	3373.534	-25.82598	3.957579E-008	0.0664915	8
	4	3	398109.4	3280.49	-1350.094	1	3547.445	-22.36974	5.082765E-008	0.0664349	8
	5	3	316265.6	3480.958	-1218.52	1	3688.07	-19.29276	7.058397E-009	0.0664325	8
	6	3	251203.1	3646.935	-1090.758	1	3806.558	-16.65135	3.585474E-008	0.0663914	8
	7	3	199546.9	3776.171	-974.952	1	3900	-14.47679	3.736502E-008	0.0664028	8
	8	4	158578.1	3884.474	-875.6148	1	3981.939	-12.70296	4.415461E-008	0.0664103	8
	9	4	125953.1	4004.742	-720.554	1	4069.049	-10.19982	5.272711E-010	0.066347	7
	10	4	100078.1	4058.674	-664.3207	1	4112.683	-9.295701	3.853771E-010	0.0663399	7
	11	5	79453.13	4118.699	-633.6188	1	4167.151	-8.745792	9.870024E-010	0.066327	7
	12	5	63140.62	4175.044	-618.1588	1	4220.559	-8.42205	1.216763E-009	0.0663271	7
	13	5	50203.12	4228.024	-616.5157	1	4272.737	-8.296202	4.900555E-010	0.0663146	7
	14	6	39890.62	4281.782	-630.8132	1	4328	-8.380808	2.460667E-009	0.0663231	7
	15	6	31640.63	4337.059	-661.9845	1	4387.289	-8.678329	9.495241E-010	0.0663214	7
	16	6	25171.88	4394.903	-708.567	1	4451.656	-9.158684	3.525832E-010	0.0663127	7
	17	7	20015.62	4457.573	-772.4914	1	4524.014	-9.83163	9.276622E-010	0.0663147	7
	18	7	15890.62	4527.391	-856.4822	1	4607.693	-10.7125	1.443351E-009	0.0663202	7
	19	7	12609.37	4605.909	-961.552	1	4705.208	-11.79198	1.154264E-009	0.0663223	7
	20	8	10078.13	4690.172	-1085.678	1	4814.189	-13.03324	6.682712E-010	0.0663172	7
	21	8	8015.625	4788.032	-1238.94	1	4945.728	-14.50752	1.554341E-009	0.0663205	7
	22	8	6328.125	4903.732	-1428.892	1	5107.673	-16.24553	1.371532E-009	0.0663169	7
	23	9	5015.625	5034.417	-1653.855	1	5299.112	-18.18585	1.576276E-009	0.0663145	7
	24	9	3984.375	5182.988	-1917.429	1	5526.292	-20.30178	2.556139E-009	0.0663164	7
	25	9	3170.956	5353.222	-2226.091	1	5797.626	-22.57956	2.424879E-009	0.0663165	7
	26	10	2527.573	5549.871	-2589.13	1	6124.105	-25.01003	1.931061E-009	0.066308	7
	27	10	1976.103	5796.941	-3055.541	1	6552.927	-27.79351	2.152131E-009	0.0663072	7
	28	10	1577.524	6063.688	-3564.257	1	7033.651	-30.44716	3.06711E-009	0.066316	7
	29	10	1265.625	6364.789	-4140.794	1	7593.202	-33.04716	3.569659E-009	0.0663117	7
	30	11	998.264	6744.821	-4873.22	1	8321.11	-35.84859	2.461501E-009	0.0663103	7
	31	11	796.875	7167.352	-5693.946	1	9153.795	-38.46462	2.439194E-009	0.0663021	7
	32	11	627.7902	7694.42	-6712.216	1	10210.68	-41.09977	-6.74293E-011	0.066364	6
	33	12	505.5147	8243.83	-7800.985	1	11349.72	-43.41901	-4.592959E-010	0.0663587	6
	34	12	397.9953	8945.271	-9210.965	1	12839.77	-45.83839	4.312621E-010	0.0663741	6
	35	12	315.5048	9737.15	-10830.7	1	14564.21	-48.04342	4.897733E-010	0.0663718	6
	36	13	252.4038	10612.39	-12662.44	1	16521.51	-50.03364	4.875821E-010	0.0663728	6
	37	13	198.6229	11693.02	-14990.05	1	19011.27	-52.04392	5.411154E-010	0.0663686	6
	38	13	158.3615	12863.13	-17608.69	1	21806.56	-53.85191	3.037624E-010	0.0663662	6
	39	14	125.558	14234.87	-20807.56	1	25210.83	-55.62318	2.779493E-010	0.0663647	6
	40	14	100.4464	15744.53	-24483.65	1	29109.1	-57.25643	3.598204E-010	0.0663631	6
	41	14	79.00281	17630.25	-29262.06	1	34162.75	-58.93124	2.451474E-010	0.0663639	6
	42	15	63.3446	19669.71	-34573.05	1	39776.79	-60.36308	9.491456E-011	0.0663623	6
	43	15	49.86702	22319.87	-41538.17	1	47155.02	-61.74935	4.817539E-010	0.0663574	6
	44	15	39.72458	25409.42	-49564.24	1	55697.87	-62.85777	2.545651E-010	0.0663656	6
	45	16	31.6723	29249.24	-59177.8	1	66011.59	-63.69864	5.194467E-011	0.0663639	6
	46	16	24.93351	34386.46	-71332.2	1	79187.83	-64.2631	3.452034E-011	0.0663649	6
	47	16	19.86229	40658.02	-85153.66	1	94362.18	-64.47709	-1.173821E-009	0.0663594	6
	48	17	15.83615	48765.89	-101127.2	1	112271.2	-64.25555	1.343696E-009	0.0663672	5
	49	17	12.40079	59947.58	-121198.3	1	135213.7	-63.6819	3.723006E-010	0.0663681	5
	50	17	9.93114	72849.8	-142021.4	1	159615.7	-62.84447	4.872522E-010	0.0663623	5
	51	18	7.944915	88622.68	-164996.3	1	187290.6	-61.7589	1.676141E-009	0.0663606	5
	52	18	6.317385	108654.6	-191626.7	1	220287.6	-60.44625	-3.999126E-010	0.0663842	5
	53	19	5.008013	132789.8	-220996.7	1	257822.9	-58.99969	-3.784305E-010	0.0663673	5
	54	20	3.945707	161152.4	-252921.1	1	299898.6	-57.49615	4.260429E-010	0.0663732	5
	55	21	3.158693	191585.4	-285488.1	1	343814.5	-56.13523	-2.172658E-010	0.0663756	5
	56	22	2.504006	225486.9	-321779.9	1	392920.7	-54.97919	-2.441379E-011	0.0663635	5
	57	23	1.998082	261262.3	-360811.6	1	445469.5	-54.09184	2.886005E-010	0.0664089	5
	58	25	1.584686	297979.8	-406261.3	1	503825.6	-53.74114	1.600357E-010	0.0663801	5
	59	27	1.266892	335977.2	-456405.4	1	566733.3	-53.64182	6.229196E-011	0.0663448	5
	60	29	0.999041	377944.8	-521515.6	1	644065.8	-54.06898	1.323226E-011	0.0663277	5
