EXPLAIN
TAG	EISPOT
TITLE	LABEL	Potentiostatic EIS	Test &Identifier
DATE	LABEL	5/26/2020	Date
TIME	LABEL	18:03:26	Time
NOTES	NOTES	1	&Notes...
	
PSTAT	PSTAT	REF600-11020	Potentiostat
VDC	POTEN	0.00000E+000	T	DC &Voltage (V)
FREQINIT	QUANT	1.00000E+006	Initial Fre&q. (Hz)
FREQFINAL	QUANT	1.00000E+000	Final Fre&q. (Hz)
PTSPERDEC	QUANT	1.00000E+001	Points/&decade
VAC	QUANT	2.50000E+001	AC &Voltage (mV rms)
AREA	QUANT	5.00000E-004	&Area (cm^2)
CONDIT	TWOPARAM	F	5.00000E+000	0.00000E+000	Conditionin&g	Time(s)	E(V)
DELAY	TWOPARAM	T	3.00000E+000	0.00000E+000	Init. De&lay	Time(s)	Stab.(mV/s)
SPEED	SELECTOR	0	&Optimize for:
ZGUESS	QUANT	1.00000E+003	E&stimated Z (ohms)
OCVCURVE	TABLE	12
	Pt	T	Vf	Vm	Ach	Over
	#	s	V vs. Ref.	V	V	bits
	0	0.258333	9.13919E-002	9.13919E-002	5.89296E-004	...........
	1	0.516667	9.13913E-002	9.13571E-002	5.82630E-004	...........
	2	0.775	9.13872E-002	9.13265E-002	5.78830E-004	...........
	3	1.03333	9.13759E-002	9.12958E-002	5.84930E-004	...........
	4	1.29167	9.13560E-002	9.12725E-002	5.79397E-004	...........
	5	1.55	9.13303E-002	9.12519E-002	5.82163E-004	...........
	6	1.80833	9.13031E-002	9.12318E-002	5.81730E-004	...........
	7	2.06667	9.12776E-002	9.12133E-002	5.81730E-004	...........
	8	2.325	9.12547E-002	9.11935E-002	5.83797E-004	...........
	9	2.58333	9.12339E-002	9.11754E-002	5.85463E-004	...........
	10	2.84167	9.12145E-002	9.11639E-002	5.89096E-004	...........
	11	3.1	9.11963E-002	9.11480E-002	5.90730E-004	...........
EOC	QUANT	0.0911963	Open Circuit (V)
PSTATMODEL	IQUANT	4	Pstat Model
PSTATSECTION	LABEL	REF600-11020	Pstat Section
PSTATSERIALNO	LABEL	11020	Pstat Serial Number
CTRLMODE	IQUANT	1	Control Mode
IESTAB	IQUANT	0	I/E Stability
CASPEED	IQUANT	1	Control Amp Speed
CONVENTION	IQUANT	1	Current Convention
ICHRANGE	IQUANT	2	Ich Range
ICHRANGEMODE	TOGGLE	F	Ich Auto Range
ICHOFFSETENABLE	TOGGLE	T	Ich Offset Enable
ICHOFFSET	QUANT	0	Ich Offset (V)
ICHFILTER	IQUANT	3	Ich Filter
VCHRANGE	IQUANT	2	Vch Range
VCHRANGEMODE	TOGGLE	F	Vch Auto Range
VCHOFFSETENABLE	TOGGLE	T	Vch Offset Enable
VCHOFFSET	QUANT	0	Vch Offset (V)
VCHFILTER	IQUANT	3	Vch Filter
ACHRANGE	IQUANT	2	Ach Range
ACHOFFSETENABLE	TOGGLE	F	Ach Offset Enable
ACHOFFSET	QUANT	0	Ach Offset (V)
ACHFILTER	IQUANT	3	Ach Filter
IERANGELOWERLIMIT	IQUANT	1	I/E Range Lower Limit
IERANGEMODE	TOGGLE	F	I/E AutoRange
IERANGE	IQUANT	8	I/E Range
POSFEEDENABLE	TOGGLE	F	Positive Feedback IR Comp
POSFEEDRESISTANCE	QUANT	0	Positive Feedback Resistance (ohm)
ACHSELECT	IQUANT	0	Ach Select
CABLEID	IQUANT	14	Cable ID
DCCALDATE	LABEL	2/27/2020	DC Calibration Date
ACCALDATE	LABEL	2/27/2020	AC Calibration Date
THERMOSELECT	IQUANT	1	Thermo Select
FRAMEWORKVERSION	QUANT	6.33	Framework Version
INSTRUMENTVERSION	LABEL	3.50	Instrument Version
ZCURVE	TABLE
	Pt	Time	Freq	Zreal	Zimag	Zsig	Zmod	Zphz	Idc	Vdc	IERange
	#	s	Hz	ohm	ohm	V	ohm	°	A	V	#
	0	1	1000078	1897.888	-2204.169	1	2908.667	-49.27008	5.558098E-008	0.0937368	8
	1	1	794390.6	2219.818	-2409.215	1	3275.959	-47.34295	5.268149E-008	0.0933684	8
	2	2	630984.4	2552.017	-2618.521	1	3656.425	-45.73691	3.874208E-008	0.0931761	8
	3	2	501234.4	2888.09	-2836.666	1	4048.177	-44.48534	4.041664E-008	0.0930684	8
	4	2	398109.4	3232.332	-3085.639	1	4468.685	-43.66993	4.129159E-008	0.0930175	8
	5	2	316265.6	3581.024	-3385.931	1	4928.312	-43.39599	5.061256E-008	0.0929718	8
	6	3	251203.1	3938.432	-3748.848	1	5437.381	-43.58726	5.376178E-008	0.092966	8
	7	3	199546.9	4317.193	-4177.449	1	6007.432	-44.05752	7.774557E-009	0.092987	8
	8	3	158578.1	4741.839	-4711.315	1	6684.424	-44.81499	5.049118E-008	0.0929777	8
	9	4	125953.1	5335.901	-5302.175	1	7522.293	-44.81836	-3.037427E-010	0.0929203	7
	10	4	100078.1	5879.405	-6066.431	1	8448.018	-45.89696	2.930051E-009	0.0928912	7
	11	4	79453.13	6542.69	-7009.511	1	9588.54	-46.97284	2.949735E-009	0.0928839	7
	12	5	63140.62	7340.664	-8087.141	1	10921.87	-47.77011	2.996757E-009	0.092893	7
	13	5	50203.12	8332.645	-9334.986	1	12512.99	-48.24709	4.048327E-009	0.0928901	7
	14	5	39890.62	9570.27	-10741.7	1	14386.59	-48.3007	3.789852E-009	0.0928828	7
	15	6	31640.63	11118.79	-12275.14	1	16562.2	-47.82981	3.393391E-009	0.0928831	7
	16	6	25171.88	13018.9	-13904.96	1	19048.35	-46.88492	3.036155E-009	0.092873	7
	17	6	20015.62	15340	-15540.5	1	21836.27	-45.37201	3.188985E-009	0.0928758	7
	18	7	15890.62	18142.62	-17145.1	1	24962.15	-43.38079	4.149119E-009	0.0928762	7
	19	7	12609.37	21803.63	-18169.54	1	28381.87	-39.80535	1.003337E-009	0.092924	6
	20	7	10078.13	25318.56	-19046.33	1	31682.68	-36.95296	1.067094E-009	0.0929283	6
	21	8	8015.625	29139.05	-19333.33	1	34969.44	-33.56369	1.066468E-009	0.0929277	6
	22	8	6328.125	33072.49	-19026.29	1	38154.81	-29.91141	1.123975E-009	0.0929258	6
	23	8	5015.625	36702.71	-18173.59	1	40955.69	-26.34262	9.500468E-010	0.092922	6
	24	8	3984.375	39841.78	-16906.18	1	43280.32	-22.99311	7.859661E-010	0.0929201	6
	25	9	3170.956	42367.39	-15389	1	45075.68	-19.96241	1.047872E-009	0.0929261	6
	26	9	2527.573	44401.58	-13925.05	1	46533.94	-17.41226	8.673799E-010	0.0929251	6
	27	9	1976.103	46140.77	-12525.65	1	47810.7	-15.18784	7.381458E-010	0.0929217	6
	28	10	1577.524	47453.16	-11491.42	1	48824.74	-13.61288	8.384722E-010	0.0929259	6
	29	10	1265.625	48353.58	-10683.96	1	49519.85	-12.45959	6.822023E-010	0.0929162	6
	30	10	998.264	49224.31	-10202.24	1	50270.45	-11.70935	5.97017E-010	0.0929094	6
	31	11	796.875	49921.37	-10058.67	1	50924.65	-11.39201	8.014363E-010	0.0929169	6
	32	11	627.7902	50621.8	-10247.66	1	51648.63	-11.44406	8.253447E-010	0.0929167	6
	33	11	505.5147	51195.52	-10743.3	1	52310.61	-11.85146	8.311253E-010	0.092915	6
	34	12	397.9953	51832.21	-11654.06	1	53126.22	-12.67177	7.925959E-010	0.0929337	6
	35	12	315.5048	52498.55	-12983.18	1	54080.13	-13.89085	7.812389E-010	0.0929336	6
	36	12	252.4038	53198.43	-14702.42	1	55192.7	-15.44917	6.913434E-010	0.0929265	6
	37	13	198.6229	53972.78	-17098.32	1	56616.37	-17.57796	6.749365E-010	0.0929302	6
	38	13	158.3615	54914.54	-19985.75	1	58438.32	-19.99861	5.488816E-010	0.0929261	6
	39	13	125.558	56038.54	-23675.82	1	60834.71	-22.90365	5.191166E-010	0.0929303	6
	40	14	100.4464	57264.68	-28049.68	1	63765.42	-26.09678	5.118828E-010	0.0929251	6
	41	14	79.00281	58880.15	-33864.61	1	67924.1	-29.90514	4.018491E-010	0.0929243	6
	42	14	63.3446	60660.32	-40439.16	1	72904.05	-33.68938	2.939275E-010	0.0929267	6
	43	15	49.86702	63121.76	-49183.62	1	80021.15	-37.92524	1.540434E-010	0.0929231	6
	44	15	39.72458	65941.69	-59343.98	1	88713.1	-41.98551	2.608151E-010	0.0929314	6
	45	15	31.6723	69705.97	-71573.82	1	99908.6	-45.75746	-3.29601E-011	0.092929	5
	46	16	24.93351	74965.18	-87392.72	1	115140.2	-49.37712	-3.677426E-010	0.0929272	5
	47	16	19.86229	81346.96	-105540.5	1	133252.1	-52.3762	2.126343E-010	0.0929267	5
	48	16	15.83615	89995.64	-127177.8	1	155799.2	-54.71538	-1.032648E-009	0.0929279	5
	49	16	12.40079	102175.3	-154698.1	1	185394.9	-56.55597	-4.802316E-010	0.0929326	5
	50	17	9.93114	116896.2	-184073.9	1	218054.9	-57.58241	-6.745098E-010	0.092934	5
	51	17	7.944915	135545.1	-217827.1	1	256556.2	-58.10765	-9.922404E-010	0.0929308	5
	52	18	6.317385	160502.5	-257073.5	1	303064.1	-58.02161	-1.309964E-010	0.0929188	5
	53	18	5.008013	192515.3	-301498.2	1	357719.6	-57.44059	-2.527749E-010	0.0929231	5
	54	19	3.945707	233126.5	-351764.6	1	422002.7	-56.46619	-3.920772E-010	0.0929242	5
	55	20	3.158693	278666	-400806.4	1	488160.3	-55.19052	-1.118208E-010	0.0929107	5
	56	21	2.504006	334295.9	-455686.7	1	565158.5	-53.73589	1.599653E-010	0.0929172	5
	57	22	1.998082	395302.5	-509524.8	1	644887.3	-52.19476	-5.753805E-011	0.0928849	5
	58	24	1.584686	465429.7	-569697.5	1	735649.4	-50.75197	-1.228427E-010	0.092868	5
	59	26	1.266892	536935.6	-630091.3	1	827837.5	-49.56385	-6.792011E-011	0.0928994	5
	60	28	0.999041	619276	-698376.3	1	933398.2	-48.43541	-2.765269E-011	0.0929276	5
