EXPLAIN
TAG	EISPOT
TITLE	LABEL	Potentiostatic EIS	Test &Identifier
DATE	LABEL	9/11/2020	Date
TIME	LABEL	20:14:45	Time
NOTES	NOTES	1	&Notes...
	
PSTAT	PSTAT	REF600-11020	Potentiostat
VDC	POTEN	0.00000E+000	T	DC &Voltage (V)
FREQINIT	QUANT	1.00000E+006	Initial Fre&q. (Hz)
FREQFINAL	QUANT	1.00000E+000	Final Fre&q. (Hz)
PTSPERDEC	QUANT	1.00000E+001	Points/&decade
VAC	QUANT	2.50000E+001	AC &Voltage (mV rms)
AREA	QUANT	4.00000E-005	&Area (cm^2)
CONDIT	TWOPARAM	F	5.00000E+000	0.00000E+000	Conditionin&g	Time(s)	E(V)
DELAY	TWOPARAM	F	3.00000E+000	0.00000E+000	Init. De&lay	Time(s)	Stab.(mV/s)
SPEED	SELECTOR	0	&Optimize for:
ZGUESS	QUANT	1.00000E+003	E&stimated Z (ohms)
OCVCURVE	TABLE	39
	Pt	T	Vf	Vm	Ach	Over
	#	s	V vs. Ref.	V	V	bits
	0	0.258333	-1.46918E-001	-1.46918E-001	5.58392E-004	...........
	1	0.516667	-1.46918E-001	-1.46920E-001	5.52592E-004	...........
	2	0.775	-1.46919E-001	-1.46922E-001	5.50559E-004	...........
	3	1.03333	-1.46919E-001	-1.46921E-001	5.54659E-004	...........
	4	1.29167	-1.46920E-001	-1.46925E-001	5.58325E-004	...........
	5	1.55	-1.46921E-001	-1.46926E-001	5.53225E-004	...........
	6	1.80833	-1.46922E-001	-1.46926E-001	5.51692E-004	...........
	7	2.06667	-1.46924E-001	-1.46927E-001	5.50859E-004	...........
	8	2.325	-1.46925E-001	-1.46932E-001	5.56159E-004	...........
	9	2.58333	-1.46927E-001	-1.46934E-001	5.57859E-004	...........
	10	2.84167	-1.46929E-001	-1.46935E-001	5.58359E-004	...........
	11	3.1	-1.46931E-001	-1.46938E-001	5.57125E-004	...........
	12	3.35833	-1.46933E-001	-1.46941E-001	5.59192E-004	...........
	13	3.61667	-1.46936E-001	-1.46941E-001	5.60659E-004	...........
	14	3.875	-1.46938E-001	-1.46942E-001	5.55825E-004	...........
	15	4.13333	-1.46940E-001	-1.46944E-001	5.60459E-004	...........
	16	4.39167	-1.46941E-001	-1.46950E-001	5.57825E-004	...........
	17	4.65	-1.46943E-001	-1.46955E-001	5.52525E-004	...........
	18	4.90833	-1.46946E-001	-1.46957E-001	5.52925E-004	...........
	19	5.16667	-1.46949E-001	-1.46960E-001	5.56759E-004	...........
	20	5.425	-1.46953E-001	-1.46966E-001	5.52225E-004	...........
	21	5.68333	-1.46957E-001	-1.46965E-001	5.60559E-004	...........
	22	5.94167	-1.46960E-001	-1.46966E-001	5.59225E-004	...........
	23	6.2	-1.46963E-001	-1.46972E-001	5.57525E-004	...........
	24	6.45833	-1.46966E-001	-1.46973E-001	5.56692E-004	...........
	25	6.71667	-1.46968E-001	-1.46974E-001	5.56359E-004	...........
	26	6.975	-1.46970E-001	-1.46978E-001	5.54325E-004	...........
	27	7.23333	-1.46973E-001	-1.46982E-001	5.55192E-004	...........
	28	7.49167	-1.46975E-001	-1.46984E-001	5.61292E-004	...........
	29	7.75	-1.46978E-001	-1.46991E-001	5.57825E-004	...........
	30	8.00833	-1.46981E-001	-1.46993E-001	5.58425E-004	...........
	31	8.26667	-1.46985E-001	-1.46997E-001	5.55325E-004	...........
	32	8.525	-1.46989E-001	-1.46998E-001	5.60559E-004	...........
	33	8.78333	-1.46993E-001	-1.46997E-001	5.56125E-004	...........
	34	9.04167	-1.46995E-001	-1.46997E-001	5.55292E-004	...........
	35	9.3	-1.46997E-001	-1.47004E-001	5.55525E-004	...........
	36	9.5583	-1.46998E-001	-1.47003E-001	5.55525E-004	...........
	37	9.8167	-1.47000E-001	-1.47008E-001	5.57959E-004	...........
	38	10.075	-1.47002E-001	-1.47009E-001	5.56025E-004	...........
EOC	QUANT	-0.1470017	Open Circuit (V)
PSTATMODEL	IQUANT	4	Pstat Model
PSTATSECTION	LABEL	REF600-11020	Pstat Section
PSTATSERIALNO	LABEL	11020	Pstat Serial Number
CTRLMODE	IQUANT	1	Control Mode
IESTAB	IQUANT	0	I/E Stability
CASPEED	IQUANT	1	Control Amp Speed
CONVENTION	IQUANT	1	Current Convention
ICHRANGE	IQUANT	2	Ich Range
ICHRANGEMODE	TOGGLE	F	Ich Auto Range
ICHOFFSETENABLE	TOGGLE	T	Ich Offset Enable
ICHOFFSET	QUANT	0	Ich Offset (V)
ICHFILTER	IQUANT	3	Ich Filter
VCHRANGE	IQUANT	2	Vch Range
VCHRANGEMODE	TOGGLE	F	Vch Auto Range
VCHOFFSETENABLE	TOGGLE	T	Vch Offset Enable
VCHOFFSET	QUANT	0	Vch Offset (V)
VCHFILTER	IQUANT	3	Vch Filter
ACHRANGE	IQUANT	2	Ach Range
ACHOFFSETENABLE	TOGGLE	F	Ach Offset Enable
ACHOFFSET	QUANT	0	Ach Offset (V)
ACHFILTER	IQUANT	3	Ach Filter
IERANGELOWERLIMIT	IQUANT	1	I/E Range Lower Limit
IERANGEMODE	TOGGLE	F	I/E AutoRange
IERANGE	IQUANT	8	I/E Range
POSFEEDENABLE	TOGGLE	F	Positive Feedback IR Comp
POSFEEDRESISTANCE	QUANT	0	Positive Feedback Resistance (ohm)
ACHSELECT	IQUANT	0	Ach Select
CABLEID	IQUANT	14	Cable ID
DCCALDATE	LABEL	9/1/2020	DC Calibration Date
ACCALDATE	LABEL	9/1/2020	AC Calibration Date
THERMOSELECT	IQUANT	1	Thermo Select
FRAMEWORKVERSION	QUANT	6.33	Framework Version
INSTRUMENTVERSION	LABEL	3.50	Instrument Version
ZCURVE	TABLE
	Pt	Time	Freq	Zreal	Zimag	Zsig	Zmod	Zphz	Idc	Vdc	IERange
	#	s	Hz	ohm	ohm	V	ohm	°	A	V	#
	0	1	1000078	1807.189	-2334.654	1	2952.379	-52.25758	7.889194E-008	-0.1447976	8
	1	1	794390.6	2240.358	-2565.511	1	3406.032	-48.87059	1.108326E-007	-0.1451744	8
	2	2	630984.4	2735.726	-2750.896	1	3879.642	-45.15842	1.29938E-007	-0.1452868	8
	3	2	501234.4	3267.444	-2881.429	1	4356.469	-41.40779	7.286981E-008	-0.1454119	8
	4	2	398109.4	3828.08	-2935.005	1	4823.738	-37.47754	7.39673E-008	-0.1454865	8
	5	3	316265.6	4380.433	-2918.413	1	5263.585	-33.67308	7.027023E-008	-0.1455188	8
	6	3	251203.1	4913.391	-2835.074	1	5672.658	-29.98536	4.870509E-008	-0.1455417	8
	7	3	199546.9	5400.538	-2707.769	1	6041.343	-26.62867	5.828685E-008	-0.1455423	8
	8	4	158578.1	5838.754	-2545.511	1	6369.511	-23.55567	8.031831E-008	-0.1455257	8
	9	4	125953.1	6267.587	-2336.477	1	6688.929	-20.44481	-4.897224E-009	-0.1455207	7
	10	4	100078.1	6596.908	-2147.442	1	6937.629	-18.03123	2.059062E-009	-0.1455473	7
	11	4	79453.13	6882.888	-1977.631	1	7161.366	-16.03072	-3.042822E-011	-0.1455625	7
	12	5	63140.62	7128.99	-1825.261	1	7358.946	-14.36114	8.114011E-010	-0.1455658	7
	13	5	50203.12	7339.598	-1694.219	1	7532.601	-12.99807	6.147983E-010	-0.1455636	7
	14	5	39890.62	7527.952	-1586.907	1	7693.395	-11.90378	1.009775E-010	-0.1455693	7
	15	6	31640.63	7698.838	-1507.191	1	7844.981	-11.07663	4.673792E-009	-0.1455645	7
	16	6	25171.88	7850.078	-1454.197	1	7983.634	-10.49485	9.088906E-010	-0.1455689	7
	17	6	20015.62	7994.465	-1430.042	1	8121.36	-10.14175	4.634728E-009	-0.145564	7
	18	7	15890.62	8132.172	-1435.769	1	8257.945	-10.01263	5.004786E-009	-0.14556	7
	19	7	12609.37	8264.422	-1470.985	1	8394.312	-10.09239	1.148928E-009	-0.1455667	7
	20	7	10078.13	8396.406	-1539.588	1	8536.391	-10.39049	4.51564E-009	-0.1455656	7
	21	8	8015.625	8530.472	-1644.394	1	8687.519	-10.9109	4.759274E-009	-0.1455736	7
	22	8	6328.125	8672.52	-1794.959	1	8856.324	-11.69346	5.282628E-009	-0.1455734	7
	23	8	5015.625	8844.387	-1956.312	1	9058.164	-12.47257	2.51287E-010	-0.1455783	6
	24	9	3984.375	8996.438	-2211.557	1	9264.279	-13.81093	-4.469383E-010	-0.1455799	6
	25	9	3170.956	9160.775	-2528.985	1	9503.45	-15.43305	1.565837E-010	-0.1455803	6
	26	9	2527.573	9347.172	-2918.869	1	9792.31	-17.34217	-3.369182E-010	-0.1455827	6
	27	10	1976.103	9569.46	-3441.375	1	10169.44	-19.77963	-6.300859E-010	-0.1455788	6
	28	10	1577.524	9799.49	-4028.009	1	10595.04	-22.34476	-2.750378E-010	-0.1455869	6
	29	10	1265.625	10061.73	-4723.776	1	11115.42	-25.14909	-2.764449E-010	-0.1455867	6
	30	11	998.264	10385.93	-5637.326	1	11817.24	-28.49243	-4.67114E-010	-0.145594	6
	31	11	796.875	10746.51	-6693.725	1	12660.71	-31.91771	3.000404E-010	-0.1455881	6
	32	11	627.7902	11204.02	-8055.635	1	13799.39	-35.71595	-4.236981E-010	-0.1455874	6
	33	11	505.5147	11696.12	-9551.22	1	15100.5	-39.23559	-4.908478E-010	-0.1455919	6
	34	12	397.9953	12359.2	-11554.88	1	16919.37	-43.07363	4.279307E-010	-0.1455732	6
	35	12	315.5048	13156.2	-13917.7	1	19151.71	-46.61112	3.622645E-010	-0.1455718	6
	36	12	252.4038	14106.33	-16649.37	1	21821.78	-49.72676	3.61762E-010	-0.1455777	6
	37	13	198.6229	15388.02	-20175.1	1	25373.72	-52.66638	5.494928E-010	-0.1455796	6
	38	13	158.3615	16913.87	-24165.14	1	29496.32	-55.01074	2.389858E-010	-0.1455822	6
	39	13	125.558	18879.14	-29026.58	1	34626.06	-56.95967	2.689199E-010	-0.1455856	6
	40	14	100.4464	21241.08	-34543.55	1	40551.7	-58.41233	2.146421E-010	-0.145584	6
	41	14	79.00281	24425.05	-41547.11	1	48194.87	-59.54924	4.43498E-010	-0.1455838	6
	42	14	63.3446	28072.91	-49102.86	1	56561.28	-60.24269	5.651142E-010	-0.1455838	6
	43	15	49.86702	32981.98	-58645.37	1	67283.65	-60.64673	1.185762E-010	-0.1455855	6
	44	15	39.72458	38773.64	-69194.87	1	79317.88	-60.73572	5.218692E-010	-0.1455812	6
	45	15	31.6723	45883.24	-81329.98	1	93380.07	-60.56998	8.531903E-010	-0.1455846	6
	46	16	24.93351	55247.39	-95930.2	1	110701.8	-60.06182	-5.468543E-010	-0.1455927	5
	47	16	19.86229	66132.62	-111836.2	1	129926.3	-59.4027	4.487332E-010	-0.1455882	5
	48	16	15.83615	79516.93	-129619.7	1	152066.5	-58.47242	-1.432585E-009	-0.145592	5
	49	17	12.40079	97010.2	-150709.5	1	179232.6	-57.23103	-1.324273E-009	-0.1455852	5
	50	17	9.93114	115971.1	-171100.2	1	206699.3	-55.87073	-1.563488E-009	-0.1455847	5
	51	17	7.944915	137425	-193424.1	1	237273.1	-54.60676	-1.418725E-009	-0.1455847	5
	52	18	6.317385	163497	-217636.6	1	272207.5	-53.08472	2.829367E-010	-0.1455995	5
	53	18	5.008013	192830.1	-243176.6	1	310352	-51.58688	2.23653E-011	-0.1455987	5
	54	19	3.945707	224969.8	-271572.6	1	352651.6	-50.36176	-4.011896E-010	-0.1455976	5
	55	20	3.158693	257115.9	-299282.6	1	394561.3	-49.33389	6.913419E-011	-0.1456075	5
	56	21	2.504006	291999.8	-332576.2	1	442572.9	-48.71707	2.962691E-010	-0.1456019	5
	57	23	1.998082	326782.1	-368606.4	1	492602.5	-48.44192	-2.739742E-011	-0.1456318	5
	58	24	1.584686	364757	-414625.2	1	552233.4	-48.66104	-8.072276E-011	-0.1456422	5
	59	26	1.266892	402163.4	-466703	1	616074	-49.24814	-5.978703E-012	-0.1456125	5
	60	29	0.999041	446012.4	-532563.9	1	694659.3	-50.05445	4.050279E-011	-0.1455861	5
