EXPLAIN
TAG	EISPOT
TITLE	LABEL	Potentiostatic EIS	Test &Identifier
DATE	LABEL	2/6/2020	Date
TIME	LABEL	18:25:05	Time
NOTES	NOTES	6	&Notes...
	
	
	
	
	
	
PSTAT	PSTAT	REF600-11020	Potentiostat
VDC	POTEN	0.00000E+000	T	DC &Voltage (V)
FREQINIT	QUANT	1.00000E+006	Initial Fre&q. (Hz)
FREQFINAL	QUANT	1.00000E+000	Final Fre&q. (Hz)
PTSPERDEC	QUANT	1.00000E+001	Points/&decade
VAC	QUANT	2.50000E+001	AC &Voltage (mV rms)
AREA	QUANT	1.60000E-004	&Area (cm^2)
CONDIT	TWOPARAM	F	5.00000E+000	0.00000E+000	Conditionin&g	Time(s)	E(V)
DELAY	TWOPARAM	F	5.00000E+000	0.00000E+000	Init. De&lay	Time(s)	Stab.(mV/s)
SPEED	SELECTOR	0	&Optimize for:
ZGUESS	QUANT	1.00000E+003	E&stimated Z (ohms)
OCVCURVE	TABLE	39
	Pt	T	Vf	Vm	Ach	Over
	#	s	V vs. Ref.	V	V	bits
	0	0.258333	-4.30451E-002	-4.30451E-002	5.80004E-004	...........
	1	0.516667	-4.30450E-002	-4.30404E-002	5.69404E-004	...........
	2	0.775	-4.30445E-002	-4.30385E-002	5.74871E-004	...........
	3	1.03333	-4.30434E-002	-4.30449E-002	5.71938E-004	...........
	4	1.29167	-4.30425E-002	-4.30566E-002	5.73538E-004	...........
	5	1.55	-4.30436E-002	-4.30592E-002	5.74471E-004	...........
	6	1.80833	-4.30471E-002	-4.30549E-002	5.70438E-004	...........
	7	2.06667	-4.30516E-002	-4.30577E-002	5.78437E-004	...........
	8	2.325	-4.30549E-002	-4.30585E-002	5.75671E-004	...........
	9	2.58333	-4.30567E-002	-4.30605E-002	5.71771E-004	...........
	10	2.84167	-4.30578E-002	-4.30615E-002	5.78037E-004	...........
	11	3.1	-4.30590E-002	-4.30672E-002	5.78071E-004	...........
	12	3.35833	-4.30606E-002	-4.30658E-002	5.76838E-004	...........
	13	3.61667	-4.30626E-002	-4.30698E-002	5.74771E-004	...........
	14	3.875	-4.30647E-002	-4.30676E-002	5.73804E-004	...........
	15	4.13333	-4.30667E-002	-4.30807E-002	5.76404E-004	...........
	16	4.39167	-4.30691E-002	-4.30786E-002	5.79504E-004	...........
	17	4.65	-4.30722E-002	-4.30834E-002	5.78904E-004	...........
	18	4.90833	-4.30758E-002	-4.30806E-002	5.76338E-004	...........
	19	5.16667	-4.30785E-002	-4.30676E-002	5.77104E-004	...........
	20	5.425	-4.30789E-002	-4.30653E-002	5.75771E-004	...........
	21	5.68333	-4.30765E-002	-4.30726E-002	5.71871E-004	...........
	22	5.94167	-4.30732E-002	-4.30792E-002	5.74304E-004	...........
	23	6.2	-4.30717E-002	-4.30794E-002	5.74604E-004	...........
	24	6.45833	-4.30728E-002	-4.30701E-002	5.74571E-004	...........
	25	6.71667	-4.30746E-002	-4.30766E-002	5.74537E-004	...........
	26	6.975	-4.30754E-002	-4.30760E-002	5.78071E-004	...........
	27	7.23333	-4.30755E-002	-4.30781E-002	5.80904E-004	...........
	28	7.49167	-4.30758E-002	-4.30826E-002	5.79804E-004	...........
	29	7.75	-4.30770E-002	-4.30852E-002	5.78671E-004	...........
	30	8.00833	-4.30790E-002	-4.30837E-002	5.83504E-004	...........
	31	8.26667	-4.30812E-002	-4.30853E-002	5.78237E-004	...........
	32	8.525	-4.30831E-002	-4.30869E-002	5.74504E-004	...........
	33	8.78333	-4.30844E-002	-4.30857E-002	5.74904E-004	...........
	34	9.04167	-4.30853E-002	-4.30866E-002	5.77771E-004	...........
	35	9.3	-4.30859E-002	-4.30900E-002	5.76904E-004	...........
	36	9.5583	-4.30867E-002	-4.30969E-002	5.79304E-004	...........
	37	9.8167	-4.30884E-002	-4.30986E-002	5.77004E-004	...........
	38	10.075	-4.30911E-002	-4.30955E-002	5.74704E-004	...........
EOC	QUANT	-0.0430911	Open Circuit (V)
PSTATMODEL	IQUANT	4	Pstat Model
PSTATSECTION	LABEL	REF600-11020	Pstat Section
PSTATSERIALNO	LABEL	11020	Pstat Serial Number
CTRLMODE	IQUANT	1	Control Mode
IESTAB	IQUANT	0	I/E Stability
CASPEED	IQUANT	1	Control Amp Speed
CONVENTION	IQUANT	1	Current Convention
ICHRANGE	IQUANT	2	Ich Range
ICHRANGEMODE	TOGGLE	F	Ich Auto Range
ICHOFFSETENABLE	TOGGLE	T	Ich Offset Enable
ICHOFFSET	QUANT	0	Ich Offset (V)
ICHFILTER	IQUANT	3	Ich Filter
VCHRANGE	IQUANT	2	Vch Range
VCHRANGEMODE	TOGGLE	F	Vch Auto Range
VCHOFFSETENABLE	TOGGLE	T	Vch Offset Enable
VCHOFFSET	QUANT	0	Vch Offset (V)
VCHFILTER	IQUANT	3	Vch Filter
ACHRANGE	IQUANT	2	Ach Range
ACHOFFSETENABLE	TOGGLE	F	Ach Offset Enable
ACHOFFSET	QUANT	0	Ach Offset (V)
ACHFILTER	IQUANT	3	Ach Filter
IERANGELOWERLIMIT	IQUANT	1	I/E Range Lower Limit
IERANGEMODE	TOGGLE	F	I/E AutoRange
IERANGE	IQUANT	7	I/E Range
POSFEEDENABLE	TOGGLE	F	Positive Feedback IR Comp
POSFEEDRESISTANCE	QUANT	0	Positive Feedback Resistance (ohm)
ACHSELECT	IQUANT	0	Ach Select
CABLEID	IQUANT	14	Cable ID
DCCALDATE	LABEL	1/27/2020	DC Calibration Date
ACCALDATE	LABEL	1/27/2020	AC Calibration Date
THERMOSELECT	IQUANT	1	Thermo Select
FRAMEWORKVERSION	QUANT	6.33	Framework Version
INSTRUMENTVERSION	LABEL	3.50	Instrument Version
ZCURVE	TABLE
	Pt	Time	Freq	Zreal	Zimag	Zsig	Zmod	Zphz	Idc	Vdc	IERange
	#	s	Hz	ohm	ohm	V	ohm	°	A	V	#
	0	1	1000078	1602.288	-811.2118	1	1795.938	-26.85233	-1.286579E-006	-0.0404647	8
	1	1	794390.6	1728.242	-819.0726	1	1912.511	-25.35787	-2.049071E-006	-0.0405301	8
	2	2	630984.4	1851.804	-822.1569	1	2026.11	-23.94007	2.080404E-007	-0.0411669	8
	3	2	501234.4	1978.11	-821.8212	1	2142.034	-22.56082	-3.04704E-007	-0.0412664	8
	4	2	398109.4	2097.479	-816.7325	1	2250.882	-21.27532	-1.544792E-006	-0.040985	8
	5	3	316265.6	2215.956	-819.1696	1	2362.52	-20.28778	-2.042159E-006	-0.0409931	8
	6	3	251203.1	2336.811	-813.9725	1	2474.517	-19.20457	-1.440909E-006	-0.0410457	8
	7	3	199546.9	2448.148	-805.9196	1	2577.389	-18.22132	2.728456E-006	-0.0419598	8
	8	4	158578.1	2557.388	-817.2908	1	2684.808	-17.72286	-2.59494E-007	-0.0412763	8
	9	4	125953.1	2678.476	-798.3092	1	2794.912	-16.59648	3.293457E-007	-0.0424383	7
	10	4	100078.1	2783.575	-813.1862	1	2899.925	-16.28505	-1.171176E-008	-0.0414731	7
	11	4	79453.13	2885.407	-843.4138	1	3006.147	-16.29381	-3.561971E-008	-0.0414038	7
	12	5	63140.62	2989.995	-880.0569	1	3116.821	-16.40094	8.14056E-008	-0.0415812	7
	13	5	50203.12	3096.525	-924.5945	1	3231.616	-16.62515	1.263533E-008	-0.0414207	7
	14	5	39890.62	3204.756	-978.161	1	3350.71	-16.97333	-1.929247E-008	-0.0414727	7
	15	6	31640.63	3315.896	-1045.251	1	3476.74	-17.49611	2.816868E-008	-0.0415562	7
	16	6	25171.88	3428.639	-1128.842	1	3609.688	-18.22356	-1.129296E-008	-0.0414304	7
	17	6	20015.62	3545.06	-1233.989	1	3753.689	-19.19234	3.652837E-009	-0.0414731	7
	18	7	15890.62	3670.09	-1365.258	1	3915.8	-20.40499	1.280564E-008	-0.0414285	7
	19	7	12609.37	3806.447	-1528.776	1	4101.975	-21.88178	-1.8944E-008	-0.0414751	7
	20	7	10078.13	3954.588	-1723.234	1	4313.734	-23.54543	-1.917684E-008	-0.0414805	7
	21	8	8015.625	4132.933	-1961.956	1	4574.976	-25.39429	-3.229269E-008	-0.0414408	7
	22	8	6328.125	4349.431	-2256.761	1	4900.053	-27.42315	-2.89391E-008	-0.0413682	7
	23	8	5015.625	4607.042	-2590.785	1	5285.546	-29.35136	-1.216026E-008	-0.0415044	7
	24	9	3984.375	4919.649	-2972.622	1	5747.994	-31.14182	-3.601508E-008	-0.0414508	7
	25	9	3170.956	5293.704	-3397.191	1	6290.009	-32.68998	5.602716E-008	-0.0415236	7
	26	9	2527.573	5735.08	-3844.868	1	6904.647	-33.83838	1.088749E-008	-0.0415408	7
	27	10	1976.103	6302.449	-4360.176	1	7663.68	-34.67636	-1.767193E-009	-0.0415077	7
	28	10	1577.524	6891.934	-4846.381	1	8425.329	-35.11474	5.00658E-008	-0.0415908	7
	29	10	1265.625	7519.784	-5323.6	1	9213.462	-35.29643	1.236022E-009	-0.0414655	7
	30	10	998.264	8222.802	-5845.045	1	10088.56	-35.4065	-3.650701E-009	-0.0414464	6
	31	11	796.875	8882.312	-6380.497	1	10936.46	-35.6911	-3.257824E-009	-0.041471	6
	32	11	627.7902	9554.26	-7031.488	1	11862.79	-36.35133	-2.238473E-010	-0.0413846	6
	33	11	505.5147	10133.63	-7753.018	1	12759.3	-37.41881	-6.36055E-010	-0.0414889	6
	34	12	397.9953	10738.59	-8764.618	1	13861.31	-39.22061	7.036666E-010	-0.0414787	6
	35	12	315.5048	11316.74	-10034.33	1	15124.7	-41.56278	5.116241E-010	-0.0414822	6
	36	12	252.4038	11882.68	-11598.99	1	16605.26	-44.30784	9.189082E-010	-0.0414855	6
	37	13	198.6229	12547.37	-13737.28	1	18605.09	-47.592	4.57128E-010	-0.0414819	6
	38	13	158.3615	13279.93	-16290.38	1	21017.45	-50.81305	7.574163E-010	-0.0414836	6
	39	13	125.558	14164.18	-19555.44	1	24146.21	-54.08385	7.830162E-010	-0.0414854	6
	40	14	100.4464	15198.08	-23407.73	1	27908.84	-57.00529	1.948443E-010	-0.041487	6
	41	14	79.00281	16619.54	-28484.17	1	32978.13	-59.7379	8.986568E-010	-0.0414862	6
	42	14	63.3446	18561.78	-34456.64	1	39138.22	-61.68867	1.187638E-010	-0.0414897	6
	43	15	49.86702	20720.44	-41992.53	1	46826.37	-63.73682	1.100374E-009	-0.041489	6
	44	15	39.72458	23450.04	-50448.14	1	55632	-65.06937	5.200255E-010	-0.0414792	6
	45	15	31.6723	27013.38	-60759.07	1	66493.52	-66.03014	9.014091E-010	-0.0414875	6
	46	16	24.93351	31694.04	-73865.25	1	80377.78	-66.77684	1.410423E-010	-0.0414877	6
	47	16	19.86229	37429.74	-88693.3	1	96267.8	-67.11961	-4.649424E-010	-0.0414895	6
	48	16	15.83615	44802.78	-106527.3	1	115565.4	-67.18958	9.099252E-010	-0.0414954	5
	49	17	12.40079	55303.13	-129095.5	1	140442.5	-66.81023	4.64052E-010	-0.0414869	5
	50	17	9.93114	66330.27	-151865.6	1	165719.2	-66.40575	-2.816409E-010	-0.0414839	5
	51	17	7.944915	80842.98	-178948.6	1	196362.4	-65.68814	4.001282E-010	-0.0414965	5
	52	18	6.317385	98637	-211475.1	1	233347.4	-64.99454	4.019422E-010	-0.0415036	5
	53	19	5.008013	121157.1	-249018.8	1	276928.6	-64.05532	2.346165E-011	-0.0414998	5
	54	20	3.945707	149022.6	-292784.5	1	328527.8	-63.02464	2.089505E-010	-0.0414917	5
	55	21	3.158693	180434.1	-338519.9	1	383604.2	-61.94199	-1.002201E-010	-0.0414903	5
	56	23	2.504006	218002.8	-392040.6	1	448576.7	-60.92279	-9.83768E-011	-0.0415045	5
	57	24	1.998082	260569.3	-449857.8	1	519873.4	-59.91946	1.482603E-010	-0.0414571	5
	58	26	1.584686	308274.1	-517706.8	1	602539	-59.22786	1.046374E-010	-0.0414705	5
	59	28	1.266892	361095.1	-590261.6	1	691952.6	-58.54361	4.395827E-011	-0.0415148	5
	60	30	0.999041	424557.3	-680006.8	1	801659.6	-58.02171	1.743738E-011	-0.0415417	5
