EXPLAIN
TAG	EISPOT
TITLE	LABEL	Potentiostatic EIS	Test &Identifier
DATE	LABEL	6/1/2020	Date
TIME	LABEL	12:35:08	Time
NOTES	NOTES	1	&Notes...
	
PSTAT	PSTAT	REF600-11020	Potentiostat
VDC	POTEN	0.00000E+000	T	DC &Voltage (V)
FREQINIT	QUANT	1.00000E+006	Initial Fre&q. (Hz)
FREQFINAL	QUANT	1.00000E+000	Final Fre&q. (Hz)
PTSPERDEC	QUANT	1.00000E+001	Points/&decade
VAC	QUANT	2.50000E+001	AC &Voltage (mV rms)
AREA	QUANT	4.00000E-004	&Area (cm^2)
CONDIT	TWOPARAM	F	5.00000E+000	0.00000E+000	Conditionin&g	Time(s)	E(V)
DELAY	TWOPARAM	T	3.00000E+000	0.00000E+000	Init. De&lay	Time(s)	Stab.(mV/s)
SPEED	SELECTOR	0	&Optimize for:
ZGUESS	QUANT	1.00000E+003	E&stimated Z (ohms)
OCVCURVE	TABLE	12
	Pt	T	Vf	Vm	Ach	Over
	#	s	V vs. Ref.	V	V	bits
	0	0.258333	-1.57163E-001	-1.57163E-001	5.77263E-004	...........
	1	0.516667	-1.57162E-001	-1.57140E-001	5.74997E-004	...........
	2	0.775	-1.57160E-001	-1.57126E-001	5.77697E-004	...........
	3	1.03333	-1.57153E-001	-1.57127E-001	5.80097E-004	...........
	4	1.29167	-1.57144E-001	-1.57122E-001	5.80030E-004	...........
	5	1.55	-1.57135E-001	-1.57116E-001	5.81463E-004	...........
	6	1.80833	-1.57127E-001	-1.57114E-001	5.88463E-004	...........
	7	2.06667	-1.57122E-001	-1.57111E-001	5.83030E-004	...........
	8	2.325	-1.57118E-001	-1.57107E-001	5.78297E-004	...........
	9	2.58333	-1.57114E-001	-1.57109E-001	5.75630E-004	...........
	10	2.84167	-1.57111E-001	-1.57110E-001	5.80030E-004	...........
	11	3.1	-1.57110E-001	-1.57110E-001	5.78063E-004	...........
EOC	QUANT	-0.1571098	Open Circuit (V)
PSTATMODEL	IQUANT	4	Pstat Model
PSTATSECTION	LABEL	REF600-11020	Pstat Section
PSTATSERIALNO	LABEL	11020	Pstat Serial Number
CTRLMODE	IQUANT	1	Control Mode
IESTAB	IQUANT	0	I/E Stability
CASPEED	IQUANT	1	Control Amp Speed
CONVENTION	IQUANT	1	Current Convention
ICHRANGE	IQUANT	2	Ich Range
ICHRANGEMODE	TOGGLE	F	Ich Auto Range
ICHOFFSETENABLE	TOGGLE	T	Ich Offset Enable
ICHOFFSET	QUANT	0	Ich Offset (V)
ICHFILTER	IQUANT	3	Ich Filter
VCHRANGE	IQUANT	2	Vch Range
VCHRANGEMODE	TOGGLE	F	Vch Auto Range
VCHOFFSETENABLE	TOGGLE	T	Vch Offset Enable
VCHOFFSET	QUANT	0	Vch Offset (V)
VCHFILTER	IQUANT	3	Vch Filter
ACHRANGE	IQUANT	2	Ach Range
ACHOFFSETENABLE	TOGGLE	F	Ach Offset Enable
ACHOFFSET	QUANT	0	Ach Offset (V)
ACHFILTER	IQUANT	3	Ach Filter
IERANGELOWERLIMIT	IQUANT	1	I/E Range Lower Limit
IERANGEMODE	TOGGLE	F	I/E AutoRange
IERANGE	IQUANT	8	I/E Range
POSFEEDENABLE	TOGGLE	F	Positive Feedback IR Comp
POSFEEDRESISTANCE	QUANT	0	Positive Feedback Resistance (ohm)
ACHSELECT	IQUANT	0	Ach Select
CABLEID	IQUANT	14	Cable ID
DCCALDATE	LABEL	2/27/2020	DC Calibration Date
ACCALDATE	LABEL	2/27/2020	AC Calibration Date
THERMOSELECT	IQUANT	1	Thermo Select
FRAMEWORKVERSION	QUANT	6.33	Framework Version
INSTRUMENTVERSION	LABEL	3.50	Instrument Version
ZCURVE	TABLE
	Pt	Time	Freq	Zreal	Zimag	Zsig	Zmod	Zphz	Idc	Vdc	IERange
	#	s	Hz	ohm	ohm	V	ohm	°	A	V	#
	0	1	1000078	1368.713	-2901.776	1	3208.376	-64.74763	5.311449E-008	-0.15444	8
	1	2	794390.6	1640.658	-3473.963	1	3841.898	-64.71991	1.445414E-008	-0.1547904	8
	2	2	630984.4	1991.771	-4146.27	1	4599.859	-64.34145	4.86767E-008	-0.1550005	8
	3	2	501234.4	2460.016	-4926.13	1	5506.218	-63.46333	4.175019E-008	-0.1551334	8
	4	2	398109.4	3070.573	-5808.451	1	6570.123	-62.13733	4.941887E-008	-0.1551995	8
	5	3	316265.6	3868.317	-6781.764	1	7807.445	-60.29958	4.370822E-008	-0.1552409	8
	6	3	251203.1	4875.282	-7802.535	1	9200.431	-58.0015	5.248469E-008	-0.1552449	8
	7	3	199546.9	6117.797	-8866.901	1	10772.62	-55.39592	3.09224E-008	-0.1552733	8
	8	4	158578.1	7579.969	-9880.92	1	12453.45	-52.50702	2.125147E-008	-0.1552746	8
	9	4	125953.1	9425.406	-10722.44	1	14276.17	-48.68337	2.494571E-009	-0.155331	7
	10	4	100078.1	11198.38	-11503.37	1	16054.01	-45.76971	2.238073E-009	-0.1553375	7
	11	5	79453.13	13141.89	-12191	1	17925.68	-42.85037	2.206199E-009	-0.1553547	7
	12	5	63140.62	15104.45	-12782.05	1	19786.99	-40.23937	2.63735E-009	-0.1553562	7
	13	5	50203.12	17090.79	-13274.38	1	21640.34	-37.83642	2.793619E-009	-0.1553564	7
	14	6	39890.62	19045.84	-13735.14	1	23481.87	-35.79771	2.602658E-009	-0.155355	7
	15	6	31640.63	21029.57	-14262.7	1	25409.99	-34.14594	3.076468E-009	-0.1553657	7
	16	6	25171.88	22964.08	-14819.18	1	27330.51	-32.83496	2.64235E-009	-0.155361	7
	17	7	20015.62	24976.42	-15540.91	1	29416.69	-31.89084	3.835949E-009	-0.1553623	7
	18	7	15890.62	27050.64	-16372.35	1	31619.47	-31.18434	3.87377E-009	-0.1553592	7
	19	7	12609.37	29479.92	-17067.54	1	34064.15	-30.0689	9.019137E-010	-0.1553166	6
	20	8	10078.13	31728.97	-18194.34	1	36575.42	-29.83125	8.481603E-010	-0.1553157	6
	21	8	8015.625	34247.11	-19484.59	1	39401.95	-29.63733	8.848803E-010	-0.1553153	6
	22	8	6328.125	37124.57	-20940.49	1	42623.21	-29.42561	1.051779E-009	-0.1553104	6
	23	9	5015.625	40287.97	-22423.63	1	46107.91	-29.09961	9.853655E-010	-0.1553151	6
	24	9	3984.375	43743.34	-23896.7	1	49845.08	-28.64749	9.844267E-010	-0.1553204	6
	25	9	3170.956	47470.66	-25289.7	1	53786.92	-28.04618	1.136481E-009	-0.1553075	6
	26	10	2527.573	51422.18	-26524.63	1	57860.15	-27.28562	1.112414E-009	-0.1553187	6
	27	10	1976.103	55903.12	-27682.54	1	62381.74	-26.34405	1.024904E-009	-0.1553177	6
	28	10	1577.524	60085.42	-28590.55	1	66540.8	-25.44659	1.086883E-009	-0.1553188	6
	29	10	1265.625	64180.89	-29398.67	1	70593.69	-24.6106	1.132266E-009	-0.1553184	6
	30	11	998.264	68593.03	-30234.72	1	74960.94	-23.78712	1.14222E-009	-0.1553174	6
	31	11	796.875	72731.14	-31051.89	1	79082.48	-23.11961	1.026393E-009	-0.1553254	6
	32	11	627.7902	77103.96	-32100.74	1	83519.33	-22.60346	1.052608E-009	-0.1553285	6
	33	12	505.5147	81121.6	-33257.8	1	87674.37	-22.29238	1.072414E-009	-0.1553198	6
	34	12	397.9953	85639.45	-34316.45	1	92259.05	-21.83639	5.674197E-010	-0.1553003	5
	35	12	315.5048	89918.01	-36196.5	1	96930	-21.92725	6.033113E-010	-0.1553009	5
	36	13	252.4038	94135.58	-38422.76	1	101675	-22.20352	5.006595E-010	-0.1553046	5
	37	13	198.6229	98747.3	-41311.83	1	107040.6	-22.70245	5.019083E-010	-0.1553053	5
	38	13	158.3615	103283.4	-44685.02	1	112535.4	-23.39546	5.274612E-010	-0.1553034	5
	39	14	125.558	108145.1	-48896.84	1	118685.5	-24.32969	4.929856E-010	-0.1553037	5
	40	14	100.4464	113154.2	-53859.75	1	125318.6	-25.45376	3.876988E-010	-0.1553055	5
	41	14	79.00281	118906.3	-60272.87	1	133309.8	-26.88018	4.947806E-010	-0.155311	5
	42	15	63.3446	124747.1	-67427.95	1	141803.9	-28.39199	4.932214E-010	-0.155312	5
	43	15	49.86702	131797.5	-76694.93	1	152488.4	-30.19576	3.282224E-010	-0.1553133	5
	44	15	39.72458	139337.2	-87180.91	1	164363.5	-32.03352	3.236922E-010	-0.1553088	5
	45	16	31.6723	147908.1	-99583.3	1	178307.7	-33.95153	2.068401E-010	-0.1553117	5
	46	16	24.93351	158210	-114922.6	1	195544.4	-35.99438	2.452747E-010	-0.155314	5
	47	16	19.86229	169596.7	-132360.2	1	215133.1	-37.96993	-3.037145E-010	-0.1553129	5
	48	17	15.83615	182905.5	-152182.4	1	237936.8	-39.76139	8.886744E-010	-0.1553117	5
	49	17	12.40079	199455.8	-177433.1	1	266955.3	-41.65585	9.856568E-010	-0.1553116	5
	50	17	9.93114	216758.6	-204026.2	1	297676	-43.26683	1.09083E-009	-0.155314	5
	51	18	7.944915	237861.1	-235985.8	1	335063	-44.77324	4.25594E-010	-0.1553162	5
	52	18	6.317385	263592.2	-273418.1	1	379787.2	-46.04825	2.565296E-010	-0.1553126	5
	53	19	5.008013	295063.2	-316679.8	1	432837.6	-47.02376	4.362E-010	-0.1553041	5
	54	20	3.945707	334665.7	-367136.7	1	496780.1	-47.64907	3.784985E-010	-0.1553157	5
	55	21	3.158693	378015.2	-419907	1	564993.3	-48.00534	3.164428E-010	-0.1552984	5
	56	22	2.504006	433040.8	-480515.7	1	646853.6	-47.97482	1.224122E-010	-0.1553129	5
	57	23	1.998082	493965.1	-544471.6	1	735153.6	-47.7845	1.795622E-010	-0.1553178	5
	58	24	1.584686	569493.3	-614684.9	1	837949.9	-47.18551	2.581435E-010	-0.1552788	5
	59	26	1.266892	651626.5	-688617.9	1	948056.8	-46.58099	2.753192E-010	-0.1552864	5
	60	29	0.999041	751807.5	-772201.4	1	1077734	-45.76667	2.244186E-010	-0.1553096	4
