EXPLAIN
TAG	EISPOT
TITLE	LABEL	Potentiostatic EIS	Test &Identifier
DATE	LABEL	1/7/2020	Date
TIME	LABEL	15:53:55	Time
NOTES	NOTES	5	&Notes...
	
	
	
	
	
PSTAT	PSTAT	REF600-11020	Potentiostat
VDC	POTEN	0.00000E+000	T	DC &Voltage (V)
FREQINIT	QUANT	1.00000E+006	Initial Fre&q. (Hz)
FREQFINAL	QUANT	1.00000E+000	Final Fre&q. (Hz)
PTSPERDEC	QUANT	1.00000E+001	Points/&decade
VAC	QUANT	2.50000E+001	AC &Voltage (mV rms)
AREA	QUANT	1.00000E-001	&Area (cm^2)
CONDIT	TWOPARAM	T	5.00000E+000	0.00000E+000	Conditionin&g	Time(s)	E(V)
DELAY	TWOPARAM	T	5.00000E+000	0.00000E+000	Init. De&lay	Time(s)	Stab.(mV/s)
SPEED	SELECTOR	0	&Optimize for:
ZGUESS	QUANT	1.00000E+003	E&stimated Z (ohms)
OCVCURVE	TABLE	19
	Pt	T	Vf	Vm	Ach	Over
	#	s	V vs. Ref.	V	V	bits
	0	0.258333	4.08183E-002	4.08183E-002	6.44413E-004	...........
	1	0.516667	4.08707E-002	4.35631E-002	6.51246E-004	...........
	2	0.775	4.11915E-002	4.61018E-002	6.48946E-004	...........
	3	1.03333	4.20939E-002	4.84845E-002	6.51480E-004	...........
	4	1.29167	4.36953E-002	5.07182E-002	6.52913E-004	...........
	5	1.55	4.58008E-002	5.27968E-002	6.53613E-004	...........
	6	1.80833	4.81017E-002	5.47868E-002	6.57779E-004	...........
	7	2.06667	5.03762E-002	5.66723E-002	6.52480E-004	...........
	8	2.325	5.25308E-002	5.84519E-002	6.47746E-004	...........
	9	2.58333	5.45521E-002	6.01602E-002	6.49613E-004	...........
	10	2.84167	5.64548E-002	6.17860E-002	6.49546E-004	...........
	11	3.1	5.82568E-002	6.33436E-002	6.47013E-004	...........
	12	3.35833	5.99717E-002	6.48367E-002	6.45480E-004	...........
	13	3.61667	6.16089E-002	6.62666E-002	6.47413E-004	...........
	14	3.875	6.31753E-002	6.76564E-002	6.47246E-004	...........
	15	4.13333	6.46776E-002	6.90087E-002	6.47013E-004	...........
	16	4.39167	6.61240E-002	7.03457E-002	6.45246E-004	...........
	17	4.65	6.75241E-002	7.16299E-002	6.47313E-004	...........
	18	4.90833	6.88856E-002	7.28855E-002	6.48880E-004	...........
EOC	QUANT	0.0688856	Open Circuit (V)
PSTATMODEL	IQUANT	4	Pstat Model
PSTATSECTION	LABEL	REF600-11020	Pstat Section
PSTATSERIALNO	LABEL	11020	Pstat Serial Number
CTRLMODE	IQUANT	1	Control Mode
IESTAB	IQUANT	0	I/E Stability
CASPEED	IQUANT	1	Control Amp Speed
CONVENTION	IQUANT	1	Current Convention
ICHRANGE	IQUANT	2	Ich Range
ICHRANGEMODE	TOGGLE	F	Ich Auto Range
ICHOFFSETENABLE	TOGGLE	T	Ich Offset Enable
ICHOFFSET	QUANT	0	Ich Offset (V)
ICHFILTER	IQUANT	3	Ich Filter
VCHRANGE	IQUANT	2	Vch Range
VCHRANGEMODE	TOGGLE	F	Vch Auto Range
VCHOFFSETENABLE	TOGGLE	T	Vch Offset Enable
VCHOFFSET	QUANT	0	Vch Offset (V)
VCHFILTER	IQUANT	3	Vch Filter
ACHRANGE	IQUANT	2	Ach Range
ACHOFFSETENABLE	TOGGLE	F	Ach Offset Enable
ACHOFFSET	QUANT	0	Ach Offset (V)
ACHFILTER	IQUANT	3	Ach Filter
IERANGELOWERLIMIT	IQUANT	1	I/E Range Lower Limit
IERANGEMODE	TOGGLE	F	I/E AutoRange
IERANGE	IQUANT	8	I/E Range
POSFEEDENABLE	TOGGLE	F	Positive Feedback IR Comp
POSFEEDRESISTANCE	QUANT	0	Positive Feedback Resistance (ohm)
ACHSELECT	IQUANT	0	Ach Select
CABLEID	IQUANT	14	Cable ID
DCCALDATE	LABEL	12/22/2019	DC Calibration Date
ACCALDATE	LABEL	12/22/2019	AC Calibration Date
THERMOSELECT	IQUANT	1	Thermo Select
FRAMEWORKVERSION	QUANT	6.33	Framework Version
INSTRUMENTVERSION	LABEL	3.50	Instrument Version
ZCURVE	TABLE
	Pt	Time	Freq	Zreal	Zimag	Zsig	Zmod	Zphz	Idc	Vdc	IERange
	#	s	Hz	ohm	ohm	V	ohm	°	A	V	#
	0	1	1000078	2106.777	-1449.586	1	2557.305	-34.53024	-3.260091E-006	0.071849	8
	1	2	794390.6	2373.601	-1451.285	1	2782.123	-31.44277	-1.049251E-006	0.0714256	8
	2	2	630984.4	2640.157	-1430.409	1	3002.749	-28.44837	-1.06582E-006	0.0711383	8
	3	2	501234.4	2895.309	-1377.293	1	3206.205	-25.44034	2.024881E-006	0.0700955	8
	4	3	398109.4	3126.33	-1306.854	1	3388.481	-22.68567	3.839025E-006	0.0698909	8
	5	3	316265.6	3357.36	-1207.128	1	3567.776	-19.77589	-4.447094E-006	0.0713727	8
	6	3	251203.1	3531.846	-1076.321	1	3692.208	-16.94846	-1.550067E-007	0.0702498	8
	7	4	199546.9	3683.324	-1018.192	1	3821.465	-15.45255	-4.860141E-007	0.0704156	8
	8	4	158578.1	3797.917	-868.4976	1	3895.955	-12.88077	-2.902775E-007	0.0702528	8
	9	4	125953.1	3937.025	-728.5024	1	4003.858	-10.48337	-1.028663E-008	0.0704052	7
	10	4	100078.1	4013.101	-654.8895	1	4066.185	-9.268281	-8.289949E-008	0.070518	7
	11	5	79453.13	4078.582	-600.6841	1	4122.578	-8.37816	-2.327733E-008	0.0705829	7
	12	5	63140.62	4137.27	-558.7488	1	4174.83	-7.691403	-8.18619E-008	0.0705076	7
	13	5	50203.12	4189.505	-527.3941	1	4222.57	-7.174913	1.802267E-011	0.070374	7
	14	6	39890.62	4238.496	-508.3548	1	4268.873	-6.839245	1.075123E-007	0.0702018	7
	15	6	31640.63	4285.095	-500.4539	1	4314.22	-6.661366	1.079874E-007	0.0702	7
	16	6	25171.88	4332.935	-504.4901	1	4362.206	-6.641131	8.317155E-008	0.0701641	7
	17	7	20015.62	4378.102	-518.8248	1	4408.736	-6.758289	8.103176E-010	0.0703693	7
	18	7	15890.62	4426.058	-545.0905	1	4459.497	-7.020899	-1.086499E-007	0.0705687	7
	19	7	12609.37	4477.104	-580.663	1	4514.602	-7.38979	1.694223E-007	0.0701875	7
	20	8	10078.13	4526.073	-629.8505	1	4569.688	-7.922429	-2.061903E-008	0.0705725	7
	21	8	8015.625	4579.185	-692.9501	1	4631.319	-8.605058	-1.364951E-009	0.0704483	7
	22	8	6328.125	4636.169	-775.7853	1	4700.628	-9.499479	3.936557E-008	0.0703768	7
	23	9	5015.625	4696.416	-879.1458	1	4777.993	-10.60278	7.75614E-008	0.0701825	7
	24	9	3984.375	4756.698	-1007.594	1	4862.244	-11.95997	-1.628577E-008	0.0704062	7
	25	9	3170.956	4822.949	-1166.901	1	4962.106	-13.6012	1.685488E-007	0.0701789	7
	26	10	2527.573	4895.262	-1362.697	1	5081.391	-15.55564	1.671502E-007	0.0701798	7
	27	10	1976.103	4979.648	-1626.569	1	5238.57	-18.08928	1.040775E-007	0.0701957	7
	28	10	1577.524	5073.471	-1928.683	1	5427.7	-20.81433	-1.065637E-007	0.0705551	7
	29	10	1265.625	5175.065	-2290.179	1	5659.171	-23.87136	-1.686862E-008	0.0705763	7
	30	11	998.264	5307.975	-2763.425	1	5984.239	-27.50228	-5.258477E-008	0.070404	7
	31	11	796.875	5450.215	-3310.728	1	6376.971	-31.27654	1.682252E-007	0.0701794	7
	32	11	627.7902	5625.098	-4015.431	1	6911.252	-35.52084	-1.33336E-008	0.0705801	7
	33	12	505.5147	5814.14	-4807.526	1	7544.305	-39.58626	8.694823E-008	0.0703899	7
	34	12	397.9953	6062.765	-5864.104	1	8434.739	-44.04574	2.777217E-009	0.0703974	7
	35	12	315.5048	6345.31	-7132.282	1	9546.33	-48.34177	3.401236E-009	0.0703948	7
	36	13	252.4038	6673.74	-8623.043	1	10903.93	-52.26219	-3.223188E-009	0.070397	6
	37	13	198.6229	7096.424	-10595.47	1	12752.38	-56.18739	-3.125315E-009	0.0703994	6
	38	13	158.3615	7592.705	-12889.64	1	14959.68	-59.49959	-3.190896E-009	0.0703984	6
	39	14	125.558	8229.955	-15778.69	1	17796.04	-62.45405	-3.091674E-009	0.0703984	6
	40	14	100.4464	9010.916	-19158.82	1	21172.08	-64.81112	-3.463245E-009	0.0703961	6
	41	14	79.00281	10091.42	-23651	1	25713.93	-66.893	-3.552316E-009	0.0703916	6
	42	15	63.3446	11229.55	-28525.39	1	30656.17	-68.51199	-3.355098E-009	0.0703918	6
	43	15	49.86702	13058.06	-35105.33	1	37455.27	-69.59641	-3.431983E-009	0.0703871	6
	44	15	39.72458	15308.46	-42797.64	1	45453.14	-70.31817	-2.692627E-009	0.0703954	6
	45	16	31.6723	18235.02	-51913.05	1	55022.55	-70.64563	-3.414556E-009	0.0703926	6
	46	16	24.93351	22043.23	-63316.98	1	67044.34	-70.8049	-2.789074E-009	0.0703895	6
	47	16	19.86229	26827.56	-76346.62	1	80922.95	-70.63895	-2.635067E-009	0.0703971	6
	48	17	15.83615	32294.04	-91405.25	1	96942.4	-70.54137	-2.775713E-009	0.0703925	6
	49	17	12.40079	41201.34	-111390.7	1	118766.4	-69.70152	-3.919915E-009	0.070399	5
	50	17	9.93114	50746.12	-132243	1	141645.3	-69.0065	-4.451749E-009	0.0703924	5
	51	18	7.944915	62291.69	-156877.6	1	168792.3	-68.34336	-4.201231E-009	0.0703966	5
	52	18	6.317385	77564.52	-186034.6	1	201556.8	-67.36699	-3.901152E-009	0.070406	5
	53	19	5.008013	96690.5	-220520.5	1	240787	-66.32425	-3.432299E-009	0.0703991	5
	54	20	3.945707	121212.8	-261117.8	1	287880.3	-65.09893	-3.503972E-009	0.0703877	5
	55	21	3.158693	149779.1	-304347.3	1	339206.5	-63.79671	-3.132214E-009	0.0703906	5
	56	23	2.504006	185413.1	-354658.9	1	400201.2	-62.39975	-3.16455E-009	0.0703967	5
	57	24	1.998082	227127.8	-408702.6	1	467573.4	-60.93782	-3.398667E-009	0.0703515	5
	58	26	1.584686	275925.1	-469867.2	1	544894.3	-59.57682	-3.119983E-009	0.0703729	5
	59	28	1.266892	332572.9	-534038.3	1	629127.7	-58.08737	-2.998117E-009	0.0704127	5
	60	30	0.999041	401042.2	-610140.3	1	730141.1	-56.68328	-2.886806E-009	0.0704323	5
