EXPLAIN
TAG	EISPOT
TITLE	LABEL	Potentiostatic EIS	Test &Identifier
DATE	LABEL	6/26/2020	Date
TIME	LABEL	12:42:22	Time
NOTES	NOTES	1	&Notes...
	
PSTAT	PSTAT	REF600-11020	Potentiostat
VDC	POTEN	0.00000E+000	T	DC &Voltage (V)
FREQINIT	QUANT	1.00000E+006	Initial Fre&q. (Hz)
FREQFINAL	QUANT	1.00000E+000	Final Fre&q. (Hz)
PTSPERDEC	QUANT	1.00000E+001	Points/&decade
VAC	QUANT	2.50000E+001	AC &Voltage (mV rms)
AREA	QUANT	4.00000E-004	&Area (cm^2)
CONDIT	TWOPARAM	F	5.00000E+000	0.00000E+000	Conditionin&g	Time(s)	E(V)
DELAY	TWOPARAM	F	3.00000E+000	0.00000E+000	Init. De&lay	Time(s)	Stab.(mV/s)
SPEED	SELECTOR	0	&Optimize for:
ZGUESS	QUANT	1.00000E+003	E&stimated Z (ohms)
OCVCURVE	TABLE	39
	Pt	T	Vf	Vm	Ach	Over
	#	s	V vs. Ref.	V	V	bits
	0	0.258333	4.24277E-002	4.24277E-002	5.10617E-004	...........
	1	0.516667	4.24277E-002	4.24316E-002	5.12717E-004	...........
	2	0.775	4.24282E-002	4.24340E-002	5.10184E-004	...........
	3	1.03333	4.24293E-002	4.24362E-002	5.08850E-004	...........
	4	1.29167	4.24312E-002	4.24400E-002	5.12783E-004	...........
	5	1.55	4.24337E-002	4.24450E-002	5.08183E-004	...........
	6	1.80833	4.24369E-002	4.24542E-002	5.08917E-004	...........
	7	2.06667	4.24409E-002	4.24562E-002	5.08850E-004	...........
	8	2.325	4.24459E-002	4.24585E-002	5.07517E-004	...........
	9	2.58333	4.24509E-002	4.24643E-002	5.07417E-004	...........
	10	2.84167	4.24554E-002	4.24670E-002	5.18483E-004	...........
	11	3.1	4.24594E-002	4.24705E-002	5.16783E-004	...........
	12	3.35833	4.24632E-002	4.24729E-002	5.11084E-004	...........
	13	3.61667	4.24666E-002	4.24744E-002	5.12484E-004	...........
	14	3.875	4.24697E-002	4.24803E-002	5.14450E-004	...........
	15	4.13333	4.24727E-002	4.24848E-002	5.14650E-004	...........
	16	4.39167	4.24760E-002	4.24896E-002	5.14650E-004	...........
	17	4.65	4.24800E-002	4.24941E-002	5.11850E-004	...........
	18	4.90833	4.24844E-002	4.24989E-002	5.09517E-004	...........
	19	5.16667	4.24891E-002	4.25034E-002	5.07983E-004	...........
	20	5.425	4.24937E-002	4.25044E-002	5.10850E-004	...........
	21	5.68333	4.24980E-002	4.25088E-002	5.11817E-004	...........
	22	5.94167	4.25018E-002	4.25108E-002	5.11217E-004	...........
	23	6.2	4.25050E-002	4.25135E-002	5.13250E-004	...........
	24	6.45833	4.25080E-002	4.25159E-002	5.13983E-004	...........
	25	6.71667	4.25107E-002	4.25221E-002	5.11483E-004	...........
	26	6.975	4.25137E-002	4.25269E-002	5.15250E-004	...........
	27	7.23333	4.25173E-002	4.25308E-002	5.14717E-004	...........
	28	7.49167	4.25215E-002	4.25354E-002	5.16283E-004	...........
	29	7.75	4.25260E-002	4.25381E-002	5.15650E-004	...........
	30	8.00833	4.25303E-002	4.25402E-002	5.12484E-004	...........
	31	8.26667	4.25342E-002	4.25439E-002	5.18017E-004	...........
	32	8.525	4.25375E-002	4.25482E-002	5.15250E-004	...........
	33	8.78333	4.25407E-002	4.25509E-002	5.17883E-004	...........
	34	9.04167	4.25440E-002	4.25524E-002	5.19617E-004	...........
	35	9.3	4.25472E-002	4.25559E-002	5.12183E-004	...........
	36	9.5583	4.25501E-002	4.25580E-002	5.13184E-004	...........
	37	9.8167	4.25528E-002	4.25625E-002	5.10117E-004	...........
	38	10.075	4.25557E-002	4.25678E-002	5.13483E-004	...........
EOC	QUANT	0.0425557	Open Circuit (V)
PSTATMODEL	IQUANT	4	Pstat Model
PSTATSECTION	LABEL	REF600-11020	Pstat Section
PSTATSERIALNO	LABEL	11020	Pstat Serial Number
CTRLMODE	IQUANT	1	Control Mode
IESTAB	IQUANT	0	I/E Stability
CASPEED	IQUANT	1	Control Amp Speed
CONVENTION	IQUANT	1	Current Convention
ICHRANGE	IQUANT	2	Ich Range
ICHRANGEMODE	TOGGLE	F	Ich Auto Range
ICHOFFSETENABLE	TOGGLE	T	Ich Offset Enable
ICHOFFSET	QUANT	0	Ich Offset (V)
ICHFILTER	IQUANT	3	Ich Filter
VCHRANGE	IQUANT	2	Vch Range
VCHRANGEMODE	TOGGLE	F	Vch Auto Range
VCHOFFSETENABLE	TOGGLE	T	Vch Offset Enable
VCHOFFSET	QUANT	0	Vch Offset (V)
VCHFILTER	IQUANT	3	Vch Filter
ACHRANGE	IQUANT	2	Ach Range
ACHOFFSETENABLE	TOGGLE	F	Ach Offset Enable
ACHOFFSET	QUANT	0	Ach Offset (V)
ACHFILTER	IQUANT	3	Ach Filter
IERANGELOWERLIMIT	IQUANT	1	I/E Range Lower Limit
IERANGEMODE	TOGGLE	F	I/E AutoRange
IERANGE	IQUANT	7	I/E Range
POSFEEDENABLE	TOGGLE	F	Positive Feedback IR Comp
POSFEEDRESISTANCE	QUANT	0	Positive Feedback Resistance (ohm)
ACHSELECT	IQUANT	0	Ach Select
CABLEID	IQUANT	14	Cable ID
DCCALDATE	LABEL	6/26/2020	DC Calibration Date
ACCALDATE	LABEL	6/26/2020	AC Calibration Date
THERMOSELECT	IQUANT	1	Thermo Select
FRAMEWORKVERSION	QUANT	6.33	Framework Version
INSTRUMENTVERSION	LABEL	3.50	Instrument Version
ZCURVE	TABLE
	Pt	Time	Freq	Zreal	Zimag	Zsig	Zmod	Zphz	Idc	Vdc	IERange
	#	s	Hz	ohm	ohm	V	ohm	°	A	V	#
	0	1	1000078	1805.046	-1796.652	1	2546.792	-44.86646	-9.663827E-008	0.044974	8
	1	1	794390.6	2024.462	-1950.05	1	2810.897	-43.92742	-2.624374E-008	0.0446171	8
	2	1	630984.4	2243.46	-2126.267	1	3090.975	-43.46373	-4.365749E-008	0.0444357	8
	3	2	501234.4	2462.671	-2344.712	1	3400.356	-43.59441	3.631776E-009	0.0443152	8
	4	2	398109.4	2691.509	-2616.708	1	3753.849	-44.19267	4.254438E-008	0.0442381	8
	5	2	316265.6	2936.696	-2944.27	1	4158.474	-45.07378	2.190112E-007	0.0442039	8
	6	3	251203.1	3213.618	-3365.224	1	4653.179	-46.32012	-2.423133E-009	0.0442061	8
	7	3	199546.9	3532.295	-3865.248	1	5236.148	-47.57706	7.372901E-008	0.0442073	8
	8	3	158578.1	3895.901	-4484.034	1	5940.084	-49.01463	1.826959E-008	0.0441901	8
	9	4	125953.1	4430.205	-5175.363	1	6812.569	-49.43587	-5.650407E-008	0.0442584	7
	10	4	100078.1	4983.876	-6026.212	1	7820.119	-50.40813	8.758539E-010	0.0441833	7
	11	4	79453.13	5662.638	-7033.559	1	9029.752	-51.16285	-1.626586E-008	0.0441581	7
	12	5	63140.62	6493.411	-8164.187	1	10431.6	-51.50291	2.007879E-008	0.0441444	7
	13	5	50203.12	7546.374	-9453.539	1	12096.16	-51.40106	-1.712129E-008	0.0441806	7
	14	5	39890.62	8849.977	-10871.31	1	14018.11	-50.85209	1.261136E-008	0.0441542	7
	15	6	31640.63	10500.73	-12426.19	1	16268.85	-49.80056	1.237623E-009	0.0441641	7
	16	6	25171.88	12499.37	-14064.83	1	18816.31	-48.37261	1.910725E-008	0.0441217	7
	17	6	20015.62	14962.9	-15608.39	1	21621.98	-46.20956	2.244239E-008	0.0441198	7
	18	6	15890.62	17939.87	-16929.47	1	24666.7	-43.34023	1.291828E-008	0.044148	7
	19	7	12609.37	21597.43	-17848.14	1	28017.94	-39.57036	3.875248E-009	0.0440902	6
	20	7	10078.13	25153.73	-18405.58	1	31168.5	-36.19381	2.026574E-009	0.0441447	6
	21	7	8015.625	28861.46	-18286.25	1	34166.81	-32.35782	-2.468448E-010	0.0441712	6
	22	8	6328.125	32526.53	-17569.4	1	36968.35	-28.37596	2.668996E-009	0.044081	6
	23	8	5015.625	35734.44	-16337.65	1	39292.1	-24.5697	4.013072E-009	0.0441015	6
	24	8	3984.375	38422.81	-14887.2	1	41206.08	-21.17922	3.719594E-009	0.0440859	6
	25	9	3170.956	40501.37	-13297.51	1	42628.45	-18.17617	8.595448E-010	0.0441526	6
	26	9	2527.573	42154.14	-11866.81	1	43792.61	-15.72243	3.356267E-009	0.0441139	6
	27	9	1976.103	43394.62	-10451.44	1	44635.48	-13.54158	3.797574E-009	0.0440917	6
	28	10	1577.524	44326.55	-9491.204	1	45331.29	-12.08568	3.922433E-009	0.0440951	6
	29	10	1265.625	45159.71	-8826.152	1	46014.13	-11.05866	-3.20707E-009	0.044175	6
	30	10	998.264	45833.42	-8384.018	1	46593.93	-10.36615	3.205967E-009	0.0440784	6
	31	11	796.875	46381.39	-8239.175	1	47107.51	-10.07293	-3.657732E-010	0.044164	6
	32	11	627.7902	46843.86	-8436.678	1	47597.53	-10.20964	-1.361109E-009	0.0441237	6
	33	11	505.5147	47305.15	-8878.247	1	48131.07	-10.62964	1.750122E-009	0.0441344	6
	34	12	397.9953	47636.33	-9738.96	1	48621.68	-11.55455	4.957947E-010	0.0441489	6
	35	12	315.5048	48169.33	-10969.03	1	49402.47	-12.82853	4.698034E-010	0.0441483	6
	36	12	252.4038	48775.11	-12563.28	1	50367.13	-14.44403	4.683133E-010	0.0441442	6
	37	13	198.6229	49464.02	-14790.05	1	51627.84	-16.64699	3.589211E-010	0.0441431	6
	38	13	158.3615	50201.78	-17452.94	1	53149.07	-19.17031	3.76279E-010	0.0441411	6
	39	13	125.558	51011.67	-20843.76	1	55105.83	-22.2253	2.787438E-010	0.0441433	6
	40	14	100.4464	52321.14	-24872.61	1	57932.27	-25.42565	1.965652E-010	0.0441419	6
	41	14	79.00281	53840.51	-30195.09	1	61729.6	-29.28479	2.053847E-010	0.0441381	6
	42	14	63.3446	55545.24	-36174.62	1	66286.32	-33.07476	1.376293E-010	0.0441414	6
	43	15	49.86702	57732.69	-44072.09	1	72632.03	-37.35746	2.586998E-010	0.0441394	6
	44	15	39.72458	60650.8	-53203.97	1	80679.51	-41.25782	2.812005E-010	0.044143	6
	45	15	31.6723	64280.49	-64222.24	1	90865.16	-44.97403	3.535496E-010	0.0441364	6
	46	16	24.93351	69416.26	-78158.28	1	104533.9	-48.39013	-8.463924E-013	0.0441271	5
	47	16	19.86229	75661.29	-94116.48	1	120758.2	-51.20381	9.479081E-010	0.0441383	5
	48	16	15.83615	84012.24	-112982.5	1	140794.6	-53.36602	-9.914624E-010	0.0441258	5
	49	16	12.40079	95976.2	-136646.4	1	166984	-54.917	-7.697614E-010	0.0441304	5
	50	17	9.93114	109939	-161540.5	1	195401.9	-55.76212	-1.124788E-009	0.0441308	5
	51	17	7.944915	127381.5	-189972.3	1	228725.9	-56.1571	-8.616308E-010	0.0441366	5
	52	18	6.317385	150105.8	-222076.3	1	268047.8	-55.94445	7.403098E-011	0.0441223	5
	53	18	5.008013	178693.4	-257934.8	1	313786.1	-55.28636	-2.309957E-010	0.0441215	5
	54	19	3.945707	214163	-297930.7	1	366917.6	-54.2901	-4.174967E-010	0.0441266	5
	55	20	3.158693	252454.7	-336394.4	1	420588.3	-53.11279	-1.051894E-010	0.0441097	5
	56	21	2.504006	298010.8	-379126.9	1	482232	-51.83106	2.400453E-010	0.0441046	5
	57	22	1.998082	344961.5	-421385.8	1	544577.3	-50.69501	8.158056E-012	0.0440883	5
	58	24	1.584686	398221.1	-469468.3	1	615613.9	-49.69411	-1.378167E-010	0.0440618	5
	59	26	1.266892	449356.1	-521103.2	1	688091.1	-49.22824	-8.589605E-011	0.0440766	5
	60	28	0.999041	505166.5	-583036.7	1	771443.4	-49.09303	-5.563932E-011	0.044107	5
