EXPLAIN
TAG	EISPOT
TITLE	LABEL	Potentiostatic EIS	Test &Identifier
DATE	LABEL	1/18/2020	Date
TIME	LABEL	22:14:56	Time
NOTES	NOTES	6	&Notes...
	
	
	
	
	
	
PSTAT	PSTAT	REF600-11020	Potentiostat
VDC	POTEN	0.00000E+000	T	DC &Voltage (V)
FREQINIT	QUANT	1.00000E+006	Initial Fre&q. (Hz)
FREQFINAL	QUANT	1.00000E+000	Final Fre&q. (Hz)
PTSPERDEC	QUANT	1.00000E+001	Points/&decade
VAC	QUANT	2.50000E+001	AC &Voltage (mV rms)
AREA	QUANT	1.00000E-001	&Area (cm^2)
CONDIT	TWOPARAM	F	5.00000E+000	0.00000E+000	Conditionin&g	Time(s)	E(V)
DELAY	TWOPARAM	F	5.00000E+000	0.00000E+000	Init. De&lay	Time(s)	Stab.(mV/s)
SPEED	SELECTOR	0	&Optimize for:
ZGUESS	QUANT	5.00000E+002	E&stimated Z (ohms)
OCVCURVE	TABLE	39
	Pt	T	Vf	Vm	Ach	Over
	#	s	V vs. Ref.	V	V	bits
	0	0.258333	-4.70850E-003	-4.70850E-003	6.70179E-004	...........
	1	0.516667	-4.70323E-003	-4.43264E-003	6.72613E-004	...........
	2	0.775	-4.67286E-003	-4.27564E-003	6.73013E-004	...........
	3	1.03333	-4.59169E-003	-4.02516E-003	6.71179E-004	...........
	4	1.29167	-4.45110E-003	-3.79055E-003	6.75346E-004	...........
	5	1.55	-4.26462E-003	-3.64907E-003	6.75979E-004	...........
	6	1.80833	-4.05750E-003	-3.49007E-003	6.72846E-004	...........
	7	2.06667	-3.85961E-003	-3.56655E-003	6.68746E-004	...........
	8	2.325	-3.70219E-003	-3.61155E-003	6.74779E-004	...........
	9	2.58333	-3.61257E-003	-3.82430E-003	6.67446E-004	...........
	10	2.84167	-3.60237E-003	-3.83025E-003	6.65079E-004	...........
	11	3.1	-3.65009E-003	-3.57527E-003	6.65113E-004	...........
	12	3.35833	-3.69622E-003	-3.40098E-003	6.73213E-004	...........
	13	3.61667	-3.67931E-003	-3.25090E-003	6.75179E-004	...........
	14	3.875	-3.58473E-003	-3.13916E-003	6.69346E-004	...........
	15	4.13333	-3.44687E-003	-3.17366E-003	6.74913E-004	...........
	16	4.39167	-3.31527E-003	-3.17242E-003	6.70479E-004	...........
	17	4.65	-3.22365E-003	-3.12892E-003	6.72146E-004	...........
	18	4.90833	-3.17426E-003	-3.08713E-003	6.69513E-004	...........
	19	5.16667	-3.14607E-003	-3.02264E-003	6.73579E-004	...........
	20	5.425	-3.11744E-003	-2.97654E-003	6.74046E-004	...........
	21	5.68333	-3.07917E-003	-2.93124E-003	6.83379E-004	...........
	22	5.94167	-3.03330E-003	-2.90165E-003	6.75246E-004	...........
	23	6.2	-2.98641E-003	-2.87344E-003	6.81612E-004	...........
	24	6.45833	-2.94319E-003	-2.80919E-003	6.76913E-004	...........
	25	6.71667	-2.90288E-003	-2.76476E-003	6.73946E-004	...........
	26	6.975	-2.86176E-003	-2.73780E-003	6.73813E-004	...........
	27	7.23333	-2.81998E-003	-2.74574E-003	6.73779E-004	...........
	28	7.49167	-2.78321E-003	-2.71906E-003	6.71479E-004	...........
	29	7.75	-2.75533E-003	-2.67194E-003	6.75546E-004	...........
	30	8.00833	-2.73241E-003	-2.63886E-003	6.72813E-004	...........
	31	8.26667	-2.70702E-003	-2.59424E-003	6.77212E-004	...........
	32	8.525	-2.67813E-003	-2.69090E-003	6.72779E-004	...........
	33	8.78333	-2.65518E-003	-2.66583E-003	6.73346E-004	...........
	34	9.04167	-2.64721E-003	-2.63404E-003	6.76679E-004	...........
	35	9.3	-2.64910E-003	-2.61966E-003	6.77979E-004	...........
	36	9.5583	-2.64812E-003	-2.60998E-003	6.82846E-004	...........
	37	9.8167	-2.63925E-003	-2.59584E-003	6.79313E-004	...........
	38	10.075	-2.62560E-003	-2.57865E-003	6.76346E-004	...........
EOC	QUANT	-0.0026256	Open Circuit (V)
PSTATMODEL	IQUANT	4	Pstat Model
PSTATSECTION	LABEL	REF600-11020	Pstat Section
PSTATSERIALNO	LABEL	11020	Pstat Serial Number
CTRLMODE	IQUANT	1	Control Mode
IESTAB	IQUANT	0	I/E Stability
CASPEED	IQUANT	1	Control Amp Speed
CONVENTION	IQUANT	1	Current Convention
ICHRANGE	IQUANT	2	Ich Range
ICHRANGEMODE	TOGGLE	F	Ich Auto Range
ICHOFFSETENABLE	TOGGLE	T	Ich Offset Enable
ICHOFFSET	QUANT	0	Ich Offset (V)
ICHFILTER	IQUANT	3	Ich Filter
VCHRANGE	IQUANT	2	Vch Range
VCHRANGEMODE	TOGGLE	F	Vch Auto Range
VCHOFFSETENABLE	TOGGLE	T	Vch Offset Enable
VCHOFFSET	QUANT	0	Vch Offset (V)
VCHFILTER	IQUANT	3	Vch Filter
ACHRANGE	IQUANT	2	Ach Range
ACHOFFSETENABLE	TOGGLE	F	Ach Offset Enable
ACHOFFSET	QUANT	0	Ach Offset (V)
ACHFILTER	IQUANT	3	Ach Filter
IERANGELOWERLIMIT	IQUANT	1	I/E Range Lower Limit
IERANGEMODE	TOGGLE	F	I/E AutoRange
IERANGE	IQUANT	6	I/E Range
POSFEEDENABLE	TOGGLE	F	Positive Feedback IR Comp
POSFEEDRESISTANCE	QUANT	0	Positive Feedback Resistance (ohm)
ACHSELECT	IQUANT	0	Ach Select
CABLEID	IQUANT	14	Cable ID
DCCALDATE	LABEL	12/22/2019	DC Calibration Date
ACCALDATE	LABEL	12/22/2019	AC Calibration Date
THERMOSELECT	IQUANT	1	Thermo Select
FRAMEWORKVERSION	QUANT	6.33	Framework Version
INSTRUMENTVERSION	LABEL	3.50	Instrument Version
ZCURVE	TABLE
	Pt	Time	Freq	Zreal	Zimag	Zsig	Zmod	Zphz	Idc	Vdc	IERange
	#	s	Hz	ohm	ohm	V	ohm	°	A	V	#
	0	1	1000078	2239.953	-2225.542	1	3157.598	-44.81509	-6.23283E-007	-0.0008218	8
	1	1	794390.6	2644.44	-2345.426	1	3534.698	-41.57068	1.18999E-006	-0.0009974	8
	2	1	630984.4	3051.864	-2439.274	1	3906.908	-38.63441	-1.553971E-006	-0.0007552	8
	3	2	501234.4	3436.003	-2491.034	1	4243.98	-35.94137	1.845012E-006	-0.0013369	8
	4	2	398109.4	3838.241	-2520.551	1	4591.87	-33.29268	1.637087E-006	-0.0014766	8
	5	2	316265.6	4223.818	-2559.441	1	4938.763	-31.21395	-7.229216E-007	-0.0009699	8
	6	3	251203.1	4579.523	-2545.812	1	5239.579	-29.0702	4.141471E-006	-0.0018641	8
	7	3	199546.9	4976.478	-2630.533	1	5628.946	-27.86063	-2.294952E-006	-0.0007516	8
	8	3	158578.1	5307.977	-2682.489	1	5947.299	-26.81064	-1.069632E-006	-0.000812	8
	9	4	125953.1	5728.671	-2691.298	1	6329.357	-25.16388	8.332179E-007	-0.0025494	7
	10	4	100078.1	6066.737	-2770.069	1	6669.227	-24.54141	6.014019E-008	-0.0011953	7
	11	4	79453.13	6433.406	-2877.127	1	7047.452	-24.095	-3.334616E-008	-0.0011716	7
	12	5	63140.62	6815.469	-3007.717	1	7449.629	-23.81223	-1.419214E-008	-0.0011262	7
	13	5	50203.12	7209.937	-3151.654	1	7868.68	-23.61141	1.161592E-008	-0.0012509	7
	14	5	39890.62	7623.119	-3328.93	1	8318.275	-23.59035	6.221843E-008	-0.0012039	7
	15	6	31640.63	8051.479	-3527.117	1	8790.157	-23.65682	-2.906306E-008	-0.0011857	7
	16	6	25171.88	8498.984	-3758.181	1	9292.828	-23.85462	-3.98311E-008	-0.0011121	7
	17	6	20015.62	8967.923	-4027.375	1	9830.74	-24.18422	-3.968639E-008	-0.0011207	7
	18	7	15890.62	9473.43	-4334.9	1	10418.12	-24.58813	-4.801941E-008	-0.0011263	7
	19	7	12609.37	10044.41	-4640.686	1	11064.64	-24.79773	4.710283E-009	-0.0013538	6
	20	7	10078.13	10580.91	-5045.604	1	11722.36	-25.49457	3.411679E-009	-0.0011183	6
	21	8	8015.625	11176.4	-5525.818	1	12467.83	-26.30863	1.384676E-008	-0.0013401	6
	22	8	6328.125	11823.36	-6110.535	1	13309.04	-27.33077	7.462823E-009	-0.0011967	6
	23	8	5015.625	12520.6	-6789.563	1	14243.02	-28.46971	1.290226E-008	-0.0013394	6
	24	9	3984.375	13285.84	-7578.837	1	15295.5	-29.70237	2.635491E-009	-0.0012839	6
	25	9	3170.956	14129.12	-8495.556	1	16486.55	-31.01765	8.439674E-009	-0.0013728	6
	26	9	2527.573	15084.44	-9549.79	1	17853.25	-32.33744	-2.081984E-009	-0.0012264	6
	27	9	1976.103	16259.08	-10866.88	1	19556.25	-33.75708	2.996319E-009	-0.0011472	6
	28	10	1577.524	17484.74	-12205.32	1	21323.37	-34.91718	8.068837E-009	-0.001373	6
	29	10	1265.625	18837.04	-13716.17	1	23301.66	-36.0602	-1.943527E-009	-0.0010876	6
	30	10	998.264	20443.93	-15523.65	1	25669.78	-37.21042	-6.945193E-009	-0.0011136	6
	31	11	796.875	22108.5	-17466.34	1	28175.5	-38.30973	1.476782E-008	-0.0014534	6
	32	11	627.7902	24040.28	-19854.61	1	31179.17	-39.55294	1.323221E-008	-0.0013434	6
	33	11	505.5147	25982.46	-22399.7	1	34305.02	-40.76491	1.703811E-009	-0.0011437	6
	34	12	397.9953	28324.65	-25702.05	1	38247.63	-42.22089	5.824152E-010	-0.0011926	6
	35	12	315.5048	30946.38	-29526.68	1	42772.69	-43.65514	5.993138E-010	-0.0011905	6
	36	12	252.4038	33849.72	-33892.28	1	47900.84	-45.036	1.956312E-010	-0.0011936	6
	37	13	198.6229	37566.95	-39375.05	1	54421.23	-46.34617	3.733997E-010	-0.0011926	6
	38	13	158.3615	41799.59	-45383.76	1	61700.01	-47.35415	2.332301E-010	-0.0012006	6
	39	13	125.558	46940.07	-52355.66	1	70317.03	-48.12182	2.964705E-010	-0.0011935	6
	40	14	100.4464	52608.76	-59804.56	1	79650.91	-48.66262	5.842271E-010	-0.0011962	6
	41	14	79.00281	59799.01	-68603.85	1	91007.75	-48.92274	1.849003E-010	-0.0011999	6
	42	14	63.3446	68965.84	-77935.81	1	104068.6	-48.4942	2.510027E-010	-0.0012032	5
	43	15	49.86702	77350.84	-89042.13	1	117947.7	-49.01918	-4.090939E-010	-0.0012047	5
	44	15	39.72458	85658.09	-100246.6	1	131858.6	-49.48697	8.762061E-011	-0.001205	5
	45	15	31.6723	94989.61	-113390.3	1	147920.2	-50.04632	3.184901E-010	-0.0012043	5
	46	16	24.93351	105733.1	-131057.7	1	168391.2	-51.10454	-3.973264E-011	-0.0012064	5
	47	16	19.86229	116626.1	-150686	1	190546.4	-52.26127	-2.28973E-010	-0.0012078	5
	48	16	15.83615	127480.2	-173410.7	1	215226.5	-53.67911	-3.409304E-010	-0.0012081	5
	49	17	12.40079	143929.2	-206169.6	1	251438.9	-55.0807	-1.556355E-010	-0.0012087	5
	50	17	9.93114	158416.1	-242405.9	1	289579.5	-56.83474	1.358289E-010	-0.0012076	5
	51	18	7.944915	176669.9	-286104.6	1	336256	-58.30463	-2.760025E-010	-0.001199	5
	52	18	6.317385	201240.7	-338765.9	1	394030.6	-59.28797	-1.262536E-010	-0.0011962	5
	53	19	5.008013	232720.6	-403504.6	1	465805.6	-60.02588	4.546146E-012	-0.0012009	5
	54	20	3.945707	274057.6	-481248.4	1	553811.9	-60.33969	1.346503E-011	-0.0012118	5
	55	21	3.158693	323569.4	-567507.9	1	653270.5	-60.31001	1.152482E-010	-0.0012082	5
	56	23	2.504006	389207.9	-668106.6	1	773207.1	-59.77691	7.913143E-011	-0.0012067	5
	57	24	1.998082	469062.8	-777879	1	908358.8	-58.90992	-2.246335E-011	-0.001249	5
	58	26	1.584686	568560.4	-900019.9	1	1064564	-57.71859	3.759344E-012	-0.0011704	4
	59	28	1.266892	687429.6	-1026428	1	1235360	-56.18859	5.108769E-011	-0.0011399	4
	60	30	0.999041	834037.6	-1170509	1	1437258	-54.5285	7.405796E-011	-0.0011358	4
