EXPLAIN
TAG	EISPOT
TITLE	LABEL	Potentiostatic EIS	Test &Identifier
DATE	LABEL	2/28/2020	Date
TIME	LABEL	16:02:35	Time
NOTES	NOTES	1	&Notes...
	
PSTAT	PSTAT	REF600-11020	Potentiostat
VDC	POTEN	0.00000E+000	T	DC &Voltage (V)
FREQINIT	QUANT	1.00000E+006	Initial Fre&q. (Hz)
FREQFINAL	QUANT	1.00000E+000	Final Fre&q. (Hz)
PTSPERDEC	QUANT	1.00000E+001	Points/&decade
VAC	QUANT	2.50000E+001	AC &Voltage (mV rms)
AREA	QUANT	1.60000E-004	&Area (cm^2)
CONDIT	TWOPARAM	F	1.50000E+001	0.00000E+000	Conditionin&g	Time(s)	E(V)
DELAY	TWOPARAM	F	1.00000E+002	0.00000E+000	Init. De&lay	Time(s)	Stab.(mV/s)
SPEED	SELECTOR	1	&Optimize for:
ZGUESS	QUANT	1.00000E+003	E&stimated Z (ohms)
OCVCURVE	TABLE	39
	Pt	T	Vf	Vm	Ach	Over
	#	s	V vs. Ref.	V	V	bits
	0	0.258333	-1.05824E-001	-1.05824E-001	5.77697E-004	...........
	1	0.516667	-1.05824E-001	-1.05793E-001	5.78697E-004	...........
	2	0.775	-1.05820E-001	-1.05745E-001	5.77930E-004	...........
	3	1.03333	-1.05807E-001	-1.05697E-001	5.79263E-004	...........
	4	1.29167	-1.05782E-001	-1.05651E-001	5.77163E-004	...........
	5	1.55	-1.05746E-001	-1.05604E-001	5.75163E-004	...........
	6	1.80833	-1.05702E-001	-1.05556E-001	5.77497E-004	...........
	7	2.06667	-1.05655E-001	-1.05507E-001	5.72330E-004	...........
	8	2.325	-1.05607E-001	-1.05438E-001	5.72097E-004	...........
	9	2.58333	-1.05558E-001	-1.05420E-001	5.80397E-004	...........
	10	2.84167	-1.05508E-001	-1.05365E-001	5.78563E-004	...........
	11	3.1	-1.05460E-001	-1.05319E-001	5.76363E-004	...........
	12	3.35833	-1.05414E-001	-1.05266E-001	5.77863E-004	...........
	13	3.61667	-1.05368E-001	-1.05219E-001	5.76030E-004	...........
	14	3.875	-1.05321E-001	-1.05169E-001	5.73297E-004	...........
	15	4.13333	-1.05272E-001	-1.05120E-001	5.74897E-004	...........
	16	4.39167	-1.05223E-001	-1.05071E-001	5.73197E-004	...........
	17	4.65	-1.05173E-001	-1.05022E-001	5.75463E-004	...........
	18	4.90833	-1.05124E-001	-1.04971E-001	5.72130E-004	...........
	19	5.16667	-1.05074E-001	-1.04923E-001	5.76063E-004	...........
	20	5.425	-1.05025E-001	-1.04876E-001	5.80163E-004	...........
	21	5.68333	-1.04976E-001	-1.04827E-001	5.81697E-004	...........
	22	5.94167	-1.04927E-001	-1.04779E-001	5.72997E-004	...........
	23	6.2	-1.04879E-001	-1.04729E-001	5.76397E-004	...........
	24	6.45833	-1.04830E-001	-1.04677E-001	5.74363E-004	...........
	25	6.71667	-1.04781E-001	-1.04627E-001	5.80763E-004	...........
	26	6.975	-1.04732E-001	-1.04574E-001	5.78997E-004	...........
	27	7.23333	-1.04681E-001	-1.04531E-001	5.76263E-004	...........
	28	7.49167	-1.04631E-001	-1.04476E-001	5.73330E-004	...........
	29	7.75	-1.04581E-001	-1.04428E-001	5.78230E-004	...........
	30	8.00833	-1.04531E-001	-1.04371E-001	5.74630E-004	...........
	31	8.26667	-1.04481E-001	-1.04327E-001	5.75930E-004	...........
	32	8.525	-1.04430E-001	-1.04255E-001	5.80163E-004	...........
	33	8.78333	-1.04377E-001	-1.04227E-001	5.77663E-004	...........
	34	9.04167	-1.04325E-001	-1.04174E-001	5.76097E-004	...........
	35	9.3	-1.04274E-001	-1.04123E-001	5.75897E-004	...........
	36	9.5583	-1.04224E-001	-1.04074E-001	5.74130E-004	...........
	37	9.8167	-1.04176E-001	-1.04029E-001	5.76830E-004	...........
	38	10.075	-1.04127E-001	-1.03962E-001	5.77997E-004	...........
EOC	QUANT	-0.1041271	Open Circuit (V)
PSTATMODEL	IQUANT	4	Pstat Model
PSTATSECTION	LABEL	REF600-11020	Pstat Section
PSTATSERIALNO	LABEL	11020	Pstat Serial Number
CTRLMODE	IQUANT	1	Control Mode
IESTAB	IQUANT	0	I/E Stability
CASPEED	IQUANT	1	Control Amp Speed
CONVENTION	IQUANT	1	Current Convention
ICHRANGE	IQUANT	2	Ich Range
ICHRANGEMODE	TOGGLE	F	Ich Auto Range
ICHOFFSETENABLE	TOGGLE	T	Ich Offset Enable
ICHOFFSET	QUANT	0	Ich Offset (V)
ICHFILTER	IQUANT	3	Ich Filter
VCHRANGE	IQUANT	2	Vch Range
VCHRANGEMODE	TOGGLE	F	Vch Auto Range
VCHOFFSETENABLE	TOGGLE	T	Vch Offset Enable
VCHOFFSET	QUANT	0	Vch Offset (V)
VCHFILTER	IQUANT	3	Vch Filter
ACHRANGE	IQUANT	2	Ach Range
ACHOFFSETENABLE	TOGGLE	F	Ach Offset Enable
ACHOFFSET	QUANT	0	Ach Offset (V)
ACHFILTER	IQUANT	3	Ach Filter
IERANGELOWERLIMIT	IQUANT	1	I/E Range Lower Limit
IERANGEMODE	TOGGLE	F	I/E AutoRange
IERANGE	IQUANT	8	I/E Range
POSFEEDENABLE	TOGGLE	F	Positive Feedback IR Comp
POSFEEDRESISTANCE	QUANT	0	Positive Feedback Resistance (ohm)
ACHSELECT	IQUANT	0	Ach Select
CABLEID	IQUANT	14	Cable ID
DCCALDATE	LABEL	2/27/2020	DC Calibration Date
ACCALDATE	LABEL	2/27/2020	AC Calibration Date
THERMOSELECT	IQUANT	1	Thermo Select
FRAMEWORKVERSION	QUANT	6.33	Framework Version
INSTRUMENTVERSION	LABEL	3.50	Instrument Version
ZCURVE	TABLE
	Pt	Time	Freq	Zreal	Zimag	Zsig	Zmod	Zphz	Idc	Vdc	IERange
	#	s	Hz	ohm	ohm	V	ohm	°	A	V	#
	0	1	1000078	2065.419	-2174.919	1	2999.371	-46.47925	2.717385E-006	-0.1025241	8
	1	2	794390.6	2481.499	-2251.513	1	3350.694	-42.21808	-1.615644E-006	-0.1020694	8
	2	4	630984.4	2930.149	-2262.516	1	3701.993	-37.67355	4.822385E-006	-0.103228	8
	3	5	501234.4	3423.624	-2200.877	1	4070.02	-32.73494	-1.336893E-006	-0.1023729	8
	4	6	398109.4	3824.541	-2078.643	1	4352.915	-28.52414	-3.874812E-008	-0.1026221	8
	5	8	316265.6	4175.455	-1890.368	1	4583.439	-24.35785	-4.947875E-007	-0.1025657	8
	6	9	251203.1	4474.241	-1703.746	1	4787.649	-20.84633	1.871988E-006	-0.1029135	8
	7	11	199546.9	4719.875	-1518.482	1	4958.125	-17.83406	4.420798E-007	-0.1027485	8
	8	12	158578.1	4886.926	-1344.766	1	5068.574	-15.38565	-5.145831E-007	-0.1024142	8
	9	13	125953.1	5084.573	-1140.09	1	5210.824	-12.63813	3.188833E-007	-0.1033672	7
	10	15	100078.1	5169.155	-1036.694	1	5272.087	-11.34044	-7.392099E-009	-0.1025966	7
	11	16	79453.13	5267.275	-950.481	1	5352.346	-10.22896	-4.435812E-008	-0.1026469	7
	12	17	63140.62	5353.485	-893.2931	1	5427.501	-9.47321	-1.2846E-008	-0.1026382	7
	13	19	50203.12	5433.699	-856.0023	1	5500.711	-8.952561	-3.386446E-008	-0.1026558	7
	14	20	39890.62	5505.968	-842.0455	1	5569.984	-8.695058	1.015571E-007	-0.1028379	7
	15	21	31640.63	5585.024	-847.9621	1	5649.029	-8.633161	9.96178E-008	-0.1028407	7
	16	23	25171.88	5659.201	-873.3718	1	5726.197	-8.773116	2.444664E-008	-0.1026442	7
	17	24	20015.62	5740.443	-916.5411	1	5813.152	-9.071496	-4.329182E-009	-0.102736	7
	18	26	15890.62	5825.995	-991.63	1	5909.784	-9.65961	-3.284086E-008	-0.1026128	7
	19	27	12609.37	5919.533	-1082.558	1	6017.708	-10.36367	-8.605894E-009	-0.1027398	7
	20	28	10078.13	6012.168	-1196.538	1	6130.08	-11.2559	2.299513E-009	-0.1026994	7
	21	30	8015.625	6121.02	-1339.052	1	6265.776	-12.33979	-3.048935E-008	-0.102619	7
	22	31	6328.125	6249.226	-1520.61	1	6431.569	-13.67588	-3.772238E-008	-0.1026296	7
	23	32	5015.625	6386.151	-1738.443	1	6618.543	-15.2281	-3.117804E-008	-0.1026556	7
	24	34	3984.375	6546.017	-1995.576	1	6843.439	-16.95403	1.006834E-007	-0.102848	7
	25	35	3170.956	6713.527	-2296.482	1	7095.44	-18.88417	-4.155727E-008	-0.102667	7
	26	37	2527.573	6908.029	-2656.562	1	7401.229	-21.03482	-3.057343E-008	-0.102666	7
	27	38	1976.103	7146.303	-3130.424	1	7801.872	-23.65573	-3.718901E-008	-0.1026973	7
	28	39	1577.524	7392.089	-3624.542	1	8232.879	-26.11997	-4.52509E-008	-0.1026438	7
	29	41	1265.625	7676.784	-4235.045	1	8767.476	-28.88417	-3.159325E-008	-0.1026694	7
	30	42	998.264	8003.507	-5005.707	1	9439.98	-32.02348	-3.381132E-008	-0.1026707	7
	31	43	796.875	8379.664	-5871.377	1	10231.9	-35.01777	-9.120395E-009	-0.1025529	6
	32	45	627.7902	8823.205	-6997.333	1	11261.07	-38.41654	4.693076E-009	-0.1026416	6
	33	46	505.5147	9294.814	-8220.311	1	12408.35	-41.48946	-6.033835E-010	-0.1025731	6
	34	47	397.9953	9900.08	-9847.2	1	13963.49	-44.84656	4.946173E-010	-0.1026404	6
	35	49	315.5048	10601.61	-11765.62	1	15837.42	-47.97905	4.135175E-010	-0.1026391	6
	36	50	252.4038	11410.79	-13982.19	1	18047.38	-50.78232	1.545641E-011	-0.1026456	6
	37	52	198.6229	12470.6	-16852.5	1	20964.79	-53.49912	1.080546E-010	-0.1026403	6
	38	53	158.3615	13700.61	-20103.67	1	24328.26	-55.72565	2.843435E-010	-0.1026409	6
	39	54	125.558	15250.96	-24085.63	1	28508.05	-57.65812	1.472179E-010	-0.1026348	6
	40	56	100.4464	17056.95	-28607.01	1	33306.16	-59.19445	-2.875868E-010	-0.1026366	6
	41	57	79.00281	19433.77	-34435.25	1	39540.59	-60.56149	2.386332E-010	-0.1026408	6
	42	58	63.3446	21833.19	-40659.98	1	46151.08	-61.76553	-3.573131E-011	-0.102643	6
	43	60	49.86702	25680.53	-48584.35	1	54953.88	-62.14014	-1.02313E-010	-0.1026459	6
	44	61	39.72458	29378.27	-57672.63	1	64724.15	-63.00584	4.545898E-010	-0.1026405	6
	45	63	31.6723	33832.02	-68504.62	1	76403.45	-63.71686	-2.532348E-010	-0.1026399	6
	46	64	24.93351	39556.95	-82031.16	1	91070.66	-64.25578	3.881283E-010	-0.1026502	6
	47	65	19.86229	46278.66	-97616.8	1	108031.2	-64.63506	-5.766786E-012	-0.1026449	5
	48	67	15.83615	54058.17	-116304.6	1	128253.9	-65.07109	8.239077E-010	-0.1026434	5
	49	68	12.40079	66044.86	-140153	1	154934.8	-64.7686	-5.998192E-011	-0.1026367	5
	50	70	9.93114	79574.77	-164807.4	1	183012.6	-64.22713	-3.617824E-011	-0.1026357	5
	51	71	7.944915	97282.4	-193794.5	1	216841.4	-63.34392	-4.521573E-010	-0.1026359	5
	52	73	6.317385	119347.1	-227216.1	1	256653.2	-62.28892	-2.978268E-010	-0.1026523	5
	53	75	5.008013	147220.8	-264909.1	1	303069	-60.93728	-3.246003E-010	-0.102643	5
	54	78	3.945707	182367.7	-307050.6	1	357124.7	-59.2925	2.814525E-011	-0.1026441	5
	55	80	3.158693	220742.7	-348534.8	1	412557.6	-57.65209	-9.346378E-013	-0.1026532	5
	56	84	2.504006	265711.4	-394683.4	1	475791.5	-56.05051	-3.740407E-011	-0.102634	5
	57	86	1.998082	312616.2	-441541.1	1	541005.9	-54.70107	2.837164E-010	-0.1026838	5
	58	89	1.584686	365196.6	-495596.1	1	615616.8	-53.61411	-6.243765E-011	-0.1026899	5
	59	93	1.266892	416431.9	-551520.6	1	691079.3	-52.94495	1.960391E-010	-0.1026868	5
	60	97	0.999041	472360.4	-623046	1	781863.6	-52.83252	-5.855882E-011	-0.102623	5
