EXPLAIN
TAG	EISPOT
TITLE	LABEL	Potentiostatic EIS	Test &Identifier
DATE	LABEL	5/26/2020	Date
TIME	LABEL	18:47:55	Time
NOTES	NOTES	1	&Notes...
	
PSTAT	PSTAT	REF600-11020	Potentiostat
VDC	POTEN	0.00000E+000	T	DC &Voltage (V)
FREQINIT	QUANT	1.00000E+006	Initial Fre&q. (Hz)
FREQFINAL	QUANT	1.00000E+000	Final Fre&q. (Hz)
PTSPERDEC	QUANT	1.00000E+001	Points/&decade
VAC	QUANT	2.50000E+001	AC &Voltage (mV rms)
AREA	QUANT	5.00000E-004	&Area (cm^2)
CONDIT	TWOPARAM	F	5.00000E+000	0.00000E+000	Conditionin&g	Time(s)	E(V)
DELAY	TWOPARAM	T	3.00000E+000	0.00000E+000	Init. De&lay	Time(s)	Stab.(mV/s)
SPEED	SELECTOR	0	&Optimize for:
ZGUESS	QUANT	1.00000E+003	E&stimated Z (ohms)
OCVCURVE	TABLE	12
	Pt	T	Vf	Vm	Ach	Over
	#	s	V vs. Ref.	V	V	bits
	0	0.258333	9.85767E-002	9.85767E-002	5.86596E-004	...........
	1	0.516667	9.85765E-002	9.85638E-002	5.80763E-004	...........
	2	0.775	9.85750E-002	9.85537E-002	5.89530E-004	...........
	3	1.03333	9.85710E-002	9.85444E-002	5.87697E-004	...........
	4	1.29167	9.85641E-002	9.85368E-002	5.89496E-004	...........
	5	1.55	9.85555E-002	9.85341E-002	5.88730E-004	...........
	6	1.80833	9.85470E-002	9.85275E-002	5.83730E-004	...........
	7	2.06667	9.85397E-002	9.85226E-002	5.87196E-004	...........
	8	2.325	9.85336E-002	9.85169E-002	5.88197E-004	...........
	9	2.58333	9.85281E-002	9.85116E-002	5.86530E-004	...........
	10	2.84167	9.85227E-002	9.85050E-002	5.86963E-004	...........
	11	3.1	9.85173E-002	9.85020E-002	5.83663E-004	...........
EOC	QUANT	0.0985173	Open Circuit (V)
PSTATMODEL	IQUANT	4	Pstat Model
PSTATSECTION	LABEL	REF600-11020	Pstat Section
PSTATSERIALNO	LABEL	11020	Pstat Serial Number
CTRLMODE	IQUANT	1	Control Mode
IESTAB	IQUANT	0	I/E Stability
CASPEED	IQUANT	1	Control Amp Speed
CONVENTION	IQUANT	1	Current Convention
ICHRANGE	IQUANT	2	Ich Range
ICHRANGEMODE	TOGGLE	F	Ich Auto Range
ICHOFFSETENABLE	TOGGLE	T	Ich Offset Enable
ICHOFFSET	QUANT	0	Ich Offset (V)
ICHFILTER	IQUANT	3	Ich Filter
VCHRANGE	IQUANT	2	Vch Range
VCHRANGEMODE	TOGGLE	F	Vch Auto Range
VCHOFFSETENABLE	TOGGLE	T	Vch Offset Enable
VCHOFFSET	QUANT	0	Vch Offset (V)
VCHFILTER	IQUANT	3	Vch Filter
ACHRANGE	IQUANT	2	Ach Range
ACHOFFSETENABLE	TOGGLE	F	Ach Offset Enable
ACHOFFSET	QUANT	0	Ach Offset (V)
ACHFILTER	IQUANT	3	Ach Filter
IERANGELOWERLIMIT	IQUANT	1	I/E Range Lower Limit
IERANGEMODE	TOGGLE	F	I/E AutoRange
IERANGE	IQUANT	8	I/E Range
POSFEEDENABLE	TOGGLE	F	Positive Feedback IR Comp
POSFEEDRESISTANCE	QUANT	0	Positive Feedback Resistance (ohm)
ACHSELECT	IQUANT	0	Ach Select
CABLEID	IQUANT	14	Cable ID
DCCALDATE	LABEL	2/27/2020	DC Calibration Date
ACCALDATE	LABEL	2/27/2020	AC Calibration Date
THERMOSELECT	IQUANT	1	Thermo Select
FRAMEWORKVERSION	QUANT	6.33	Framework Version
INSTRUMENTVERSION	LABEL	3.50	Instrument Version
ZCURVE	TABLE
	Pt	Time	Freq	Zreal	Zimag	Zsig	Zmod	Zphz	Idc	Vdc	IERange
	#	s	Hz	ohm	ohm	V	ohm	°	A	V	#
	0	1	1000078	1465.886	-720.3074	1	1633.299	-26.16859	6.070618E-008	0.1009772	8
	1	1	794390.6	1575.724	-723.6964	1	1733.967	-24.66831	5.96206E-008	0.1006204	8
	2	1	630984.4	1683.907	-725.7264	1	1833.637	-23.31496	4.069241E-008	0.1004352	8
	3	2	501234.4	1789.815	-728.0498	1	1932.225	-22.13521	6.369804E-008	0.1003584	8
	4	2	398109.4	1896.286	-730.322	1	2032.061	-21.06334	4.923173E-008	0.1002827	8
	5	2	316265.6	2000.007	-734.6196	1	2130.656	-20.16871	4.493081E-008	0.1002442	8
	6	3	251203.1	2102.756	-739.7376	1	2229.079	-19.38158	5.30206E-008	0.1002286	8
	7	3	199546.9	2202.51	-747.5729	1	2325.923	-18.74817	5.229015E-008	0.1002387	8
	8	3	158578.1	2304.155	-758.4185	1	2425.763	-18.21909	4.998838E-008	0.1002257	8
	9	4	125953.1	2426.328	-738.3304	1	2536.178	-16.92498	2.035538E-009	0.100178	7
	10	4	100078.1	2518.51	-758.6109	1	2630.282	-16.76304	3.982837E-009	0.1001521	7
	11	4	79453.13	2614.94	-795.0095	1	2733.121	-16.91063	4.156242E-009	0.1001466	7
	12	5	63140.62	2713.537	-837.3091	1	2839.783	-17.14852	2.340268E-009	0.1001357	7
	13	5	50203.12	2814.147	-886.8137	1	2950.57	-17.49105	2.163699E-009	0.1001408	7
	14	5	39890.62	2915.756	-946.145	1	3065.424	-17.97793	1.965226E-009	0.1001339	7
	15	5	31640.63	3020.543	-1020.01	1	3188.118	-18.65936	2.946638E-009	0.1001427	7
	16	6	25171.88	3125.375	-1109.774	1	3316.56	-19.54919	3.563885E-009	0.10014	7
	17	6	20015.62	3233.698	-1222.188	1	3456.956	-20.70427	2.906013E-009	0.1001362	7
	18	6	15890.62	3347.439	-1361.291	1	3613.649	-22.12992	1.23231E-009	0.100133	7
	19	7	12609.37	3469.17	-1535.798	1	3793.918	-23.87892	1.249534E-009	0.1001269	7
	20	7	10078.13	3597.46	-1744.806	1	3998.258	-25.87387	2.871622E-009	0.1001335	7
	21	7	8015.625	3743.463	-2007.31	1	4247.683	-28.20098	4.139013E-009	0.1001315	7
	22	8	6328.125	3914.75	-2338.996	1	4560.282	-30.8576	2.551325E-009	0.1001295	7
	23	8	5015.625	4113.751	-2735.529	1	4940.25	-33.62279	2.699823E-009	0.1001247	7
	24	8	3984.375	4351.542	-3211.036	1	5408.019	-36.4239	2.653036E-009	0.1001248	7
	25	9	3170.956	4641.083	-3777.366	1	5983.991	-39.14205	1.896671E-009	0.1001233	7
	26	9	2527.573	4998.869	-4442.051	1	6687.339	-41.62465	3.433095E-009	0.1001185	7
	27	9	1976.103	5493.254	-5299.068	1	7632.56	-43.96919	3.369952E-009	0.1001195	7
	28	10	1577.524	6071.706	-6199.457	1	8677.492	-45.59647	3.727654E-009	0.1001225	7
	29	10	1265.625	6768.304	-7188.249	1	9873.24	-46.72348	4.257266E-009	0.1001185	7
	30	10	998.264	7727.572	-8346.772	1	11374.71	-47.206	1.057374E-009	0.1001688	6
	31	11	796.875	8809.776	-9537.55	1	12983.72	-47.27153	6.666194E-010	0.1001623	6
	32	11	627.7902	10146.36	-10838.98	1	14846.96	-46.89034	1.06848E-009	0.1001668	6
	33	11	505.5147	11504.12	-12051.55	1	16660.88	-46.3313	8.872705E-010	0.1001691	6
	34	12	397.9953	13084.8	-13434	1	18753.25	-45.75445	4.498236E-010	0.1001902	6
	35	12	315.5048	14652.78	-14860.34	1	20869.44	-45.40295	3.271049E-010	0.1001861	6
	36	12	252.4038	16145.99	-16420.55	1	23028.84	-45.48304	2.270266E-010	0.100184	6
	37	12	198.6229	17696.41	-18422.1	1	25544.8	-46.15102	2.498887E-010	0.1001853	6
	38	13	158.3615	19116.63	-20775.59	1	28232.44	-47.38133	1.82117E-010	0.1001807	6
	39	13	125.558	20580.75	-23831.39	1	31488.13	-49.18616	9.130681E-011	0.1001895	6
	40	13	100.4464	22053.29	-27545.29	1	35285.84	-51.31856	1.245177E-010	0.10018	6
	41	14	79.00281	23801.89	-32592.44	1	40358.36	-53.85976	1.563279E-010	0.1001785	6
	42	14	63.3446	25665.94	-38399.28	1	46187.06	-56.24138	2.146262E-011	0.1001776	6
	43	14	49.86702	28080.38	-46190.34	1	54056.03	-58.70343	1.38341E-010	0.1001761	6
	44	15	39.72458	30922.36	-55318.16	1	63374.22	-60.7952	2.256562E-010	0.1001829	6
	45	15	31.6723	34451.2	-66373.55	1	74781.91	-62.56843	3.638746E-010	0.1001784	6
	46	15	24.93351	39139.05	-80590.02	1	89591.38	-64.09618	3.452655E-012	0.1001754	6
	47	16	19.86229	44860.52	-96835	1	106721.5	-65.14323	-1.772194E-010	0.1001764	5
	48	16	15.83615	52073.04	-116303.4	1	127428.8	-65.88029	-4.136373E-010	0.1001797	5
	49	16	12.40079	62106.13	-141500.3	1	154529.9	-66.30276	-7.995142E-010	0.1001854	5
	50	17	9.93114	73659.02	-168423.2	1	183826	-66.37807	-8.760404E-010	0.1001773	5
	51	17	7.944915	88286.98	-200239.5	1	218838.9	-66.20699	-2.91727E-011	0.1001862	5
	52	17	6.317385	107110.6	-238334.3	1	261296.6	-65.80021	-2.206087E-010	0.1001862	5
	53	18	5.008013	131195.2	-283179.3	1	312094.1	-65.14201	-3.757397E-010	0.1001723	5
	54	19	3.945707	162454.8	-335783.1	1	373017.3	-64.18189	-1.018603E-010	0.1001877	5
	55	20	3.158693	197782.9	-392073.9	1	439135.5	-63.2312	-2.466479E-010	0.1001665	5
	56	21	2.504006	243123.1	-457242.5	1	517860.6	-61.99971	2.444782E-011	0.1001683	5
	57	22	1.998082	294435.2	-528311.1	1	604817.9	-60.86847	8.464131E-011	0.100193	5
	58	24	1.584686	358500.2	-607727.3	1	705588.3	-59.46352	-1.00979E-011	0.1001474	5
	59	26	1.266892	430532.9	-695035.4	1	817577.4	-58.22426	-2.85615E-011	0.1001328	5
	60	28	0.999041	516577.9	-797243.9	1	949974	-57.05859	-5.371771E-011	0.1001382	5
