EXPLAIN
TAG	EISPOT
TITLE	LABEL	Potentiostatic EIS	Test &Identifier
DATE	LABEL	3/17/2020	Date
TIME	LABEL	15:50:05	Time
NOTES	NOTES	1	&Notes...
	
PSTAT	PSTAT	REF600-11020	Potentiostat
VDC	POTEN	0.00000E+000	T	DC &Voltage (V)
FREQINIT	QUANT	1.00000E+006	Initial Fre&q. (Hz)
FREQFINAL	QUANT	1.00000E+000	Final Fre&q. (Hz)
PTSPERDEC	QUANT	1.00000E+001	Points/&decade
VAC	QUANT	2.50000E+001	AC &Voltage (mV rms)
AREA	QUANT	4.00000E-004	&Area (cm^2)
CONDIT	TWOPARAM	F	5.00000E+000	0.00000E+000	Conditionin&g	Time(s)	E(V)
DELAY	TWOPARAM	T	3.00000E+000	0.00000E+000	Init. De&lay	Time(s)	Stab.(mV/s)
SPEED	SELECTOR	0	&Optimize for:
ZGUESS	QUANT	5.00000E+003	E&stimated Z (ohms)
OCVCURVE	TABLE	12
	Pt	T	Vf	Vm	Ach	Over
	#	s	V vs. Ref.	V	V	bits
	0	0.258333	-2.38411E-002	-2.38411E-002	5.73497E-004	...........
	1	0.516667	-2.38412E-002	-2.38417E-002	5.72530E-004	...........
	2	0.775	-2.38412E-002	-2.38409E-002	5.68830E-004	...........
	3	1.03333	-2.38412E-002	-2.38399E-002	5.74797E-004	...........
	4	1.29167	-2.38411E-002	-2.38404E-002	5.78930E-004	...........
	5	1.55	-2.38409E-002	-2.38414E-002	5.79797E-004	...........
	6	1.80833	-2.38407E-002	-2.38455E-002	5.73930E-004	...........
	7	2.06667	-2.38412E-002	-2.38434E-002	5.72997E-004	...........
	8	2.325	-2.38421E-002	-2.38453E-002	5.70497E-004	...........
	9	2.58333	-2.38433E-002	-2.38467E-002	5.74697E-004	...........
	10	2.84167	-2.38443E-002	-2.38463E-002	5.72063E-004	...........
	11	3.1	-2.38452E-002	-2.38491E-002	5.78063E-004	...........
EOC	QUANT	-0.0238452	Open Circuit (V)
PSTATMODEL	IQUANT	4	Pstat Model
PSTATSECTION	LABEL	REF600-11020	Pstat Section
PSTATSERIALNO	LABEL	11020	Pstat Serial Number
CTRLMODE	IQUANT	1	Control Mode
IESTAB	IQUANT	0	I/E Stability
CASPEED	IQUANT	1	Control Amp Speed
CONVENTION	IQUANT	1	Current Convention
ICHRANGE	IQUANT	2	Ich Range
ICHRANGEMODE	TOGGLE	F	Ich Auto Range
ICHOFFSETENABLE	TOGGLE	T	Ich Offset Enable
ICHOFFSET	QUANT	0	Ich Offset (V)
ICHFILTER	IQUANT	3	Ich Filter
VCHRANGE	IQUANT	2	Vch Range
VCHRANGEMODE	TOGGLE	F	Vch Auto Range
VCHOFFSETENABLE	TOGGLE	T	Vch Offset Enable
VCHOFFSET	QUANT	0	Vch Offset (V)
VCHFILTER	IQUANT	3	Vch Filter
ACHRANGE	IQUANT	2	Ach Range
ACHOFFSETENABLE	TOGGLE	F	Ach Offset Enable
ACHOFFSET	QUANT	0	Ach Offset (V)
ACHFILTER	IQUANT	3	Ach Filter
IERANGELOWERLIMIT	IQUANT	1	I/E Range Lower Limit
IERANGEMODE	TOGGLE	F	I/E AutoRange
IERANGE	IQUANT	6	I/E Range
POSFEEDENABLE	TOGGLE	F	Positive Feedback IR Comp
POSFEEDRESISTANCE	QUANT	0	Positive Feedback Resistance (ohm)
ACHSELECT	IQUANT	0	Ach Select
CABLEID	IQUANT	14	Cable ID
DCCALDATE	LABEL	2/27/2020	DC Calibration Date
ACCALDATE	LABEL	2/27/2020	AC Calibration Date
THERMOSELECT	IQUANT	1	Thermo Select
FRAMEWORKVERSION	QUANT	6.33	Framework Version
INSTRUMENTVERSION	LABEL	3.50	Instrument Version
ZCURVE	TABLE
	Pt	Time	Freq	Zreal	Zimag	Zsig	Zmod	Zphz	Idc	Vdc	IERange
	#	s	Hz	ohm	ohm	V	ohm	°	A	V	#
	0	1	1000078	2035.206	-1654.828	1	2623.075	-39.11459	6.31325E-008	-0.021282	8
	1	2	794390.6	2372.708	-1659.348	1	2895.371	-34.96693	3.391487E-008	-0.0216744	8
	2	2	630984.4	2701.709	-1610.411	1	3145.26	-30.79796	4.089693E-008	-0.0218811	8
	3	2	501234.4	2998.552	-1516.483	1	3360.213	-26.82748	4.051659E-008	-0.0219977	8
	4	3	398109.4	3256.278	-1394.549	1	3542.331	-23.18375	3.416258E-008	-0.0220646	8
	5	3	316265.6	3467.937	-1259.481	1	3689.563	-19.95995	3.06504E-008	-0.0220956	8
	6	3	251203.1	3637.238	-1124.588	1	3807.125	-17.18095	1.338925E-008	-0.0220834	8
	7	4	199546.9	3775.498	-1003.24	1	3906.517	-14.88097	3.964525E-008	-0.0221271	8
	8	4	158578.1	3883.362	-898.5966	1	3985.972	-13.02874	1.401685E-008	-0.022094	8
	9	4	125953.1	3995.77	-764.5377	1	4068.255	-10.83187	2.250327E-009	-0.0221802	7
	10	5	100078.1	4055.096	-702.7443	1	4115.538	-9.83166	1.190191E-009	-0.0222048	7
	11	5	79453.13	4119.21	-668.325	1	4173.074	-9.215702	2.128392E-011	-0.0222057	7
	12	5	63140.62	4179.443	-649.4185	1	4229.597	-8.832215	9.557475E-010	-0.0222016	7
	13	6	50203.12	4237.445	-645.218	1	4286.286	-8.657688	1.137062E-009	-0.022214	7
	14	6	39890.62	4296.476	-656.929	1	4346.408	-8.693169	8.198382E-010	-0.0222067	7
	15	6	31640.63	4357.771	-683.8806	1	4411.107	-8.918887	1.532401E-009	-0.022209	7
	16	7	25171.88	4421.847	-726.3008	1	4481.099	-9.327704	1.557427E-009	-0.0222061	7
	17	7	20015.62	4491.892	-784.1489	1	4559.822	-9.90233	2.478751E-010	-0.0222172	7
	18	7	15890.62	4568.594	-859.2586	1	4648.696	-10.65172	6.401331E-010	-0.0222115	7
	19	8	12609.37	4654.135	-953.359	1	4750.775	-11.5764	9.464244E-010	-0.0222106	7
	20	8	10078.13	4745.624	-1063.303	1	4863.287	-12.6291	2.077877E-009	-0.022208	7
	21	8	8015.625	4849.258	-1197.026	1	4994.815	-13.86611	2.413854E-009	-0.022209	7
	22	8	6328.125	4968.469	-1361.095	1	5151.53	-15.32012	-8.177792E-011	-0.0222134	7
	23	9	5015.625	5098.832	-1555.01	1	5330.68	-16.96033	1.04186E-009	-0.0222076	7
	24	9	3984.375	5244.27	-1781.665	1	5538.655	-18.76445	8.340413E-010	-0.022217	7
	25	9	3170.956	5406.852	-2050.235	1	5782.518	-20.76633	2.873361E-009	-0.022214	7
	26	10	2527.573	5587.418	-2361.684	1	6066.036	-22.91276	2.029518E-009	-0.0222185	7
	27	10	1976.103	5808.947	-2766.561	1	6434.106	-25.46652	1.952871E-009	-0.0222227	7
	28	10	1577.524	6042.104	-3208.012	1	6840.933	-27.96575	3.135388E-009	-0.0222194	7
	29	11	1265.625	6295.809	-3715.57	1	7310.449	-30.54765	2.45747E-009	-0.0222245	7
	30	11	998.264	6606.55	-4367.802	1	7919.861	-33.46997	2.724912E-009	-0.0222209	7
	31	11	796.875	6937.635	-5111.238	1	8617.165	-36.38058	2.770492E-009	-0.02222	7
	32	12	627.7902	7337.876	-6041.876	1	9505.19	-39.46743	2.450397E-009	-0.0222274	7
	33	12	505.5147	7749.581	-7061.289	1	10484.17	-42.33926	-4.36633E-010	-0.0221712	6
	34	12	397.9953	8260.51	-8417.535	1	11793.68	-45.53943	5.149811E-010	-0.0221601	6
	35	13	315.5048	8827.646	-10019.57	1	13353.62	-48.61863	5.39328E-010	-0.0221622	6
	36	13	252.4038	9454.334	-11886.88	1	15188.23	-51.50272	4.643417E-010	-0.0221656	6
	37	13	198.6229	10241.74	-14333.41	1	17616.47	-54.45283	5.352533E-010	-0.0221623	6
	38	14	158.3615	11132.89	-17164.45	1	20458.73	-57.03249	5.060107E-010	-0.022165	6
	39	14	125.558	12246.5	-20700.43	1	24051.7	-59.39119	5.670436E-010	-0.0221635	6
	40	14	100.4464	13578.93	-24826.84	1	28297.69	-61.32375	5.935523E-010	-0.0221638	6
	41	15	79.00281	15406.71	-30221.41	1	33921.98	-62.98776	3.279701E-010	-0.0221648	6
	42	15	63.3446	17562.16	-36196.28	1	40231.83	-64.11768	3.108798E-010	-0.0221647	6
	43	15	49.86702	20587.59	-43940.43	1	48524.33	-64.8953	5.657503E-010	-0.0221689	6
	44	16	39.72458	24323.35	-52685.07	1	58028.8	-65.21844	4.331027E-010	-0.0221577	6
	45	16	31.6723	29109.36	-62890.13	1	69300.24	-65.16245	1.997316E-010	-0.0221655	6
	46	16	24.93351	35615.86	-75401.2	1	83389.63	-64.71622	1.04496E-009	-0.0221667	6
	47	17	19.86229	43399.19	-89082.02	1	99091.4	-64.02547	2.128396E-009	-0.0221582	6
	48	17	15.83615	53160.39	-104622.3	1	117353.5	-63.06409	-9.246683E-010	-0.0221589	5
	49	17	12.40079	66271.81	-123232.3	1	139922	-61.72955	1.019564E-009	-0.022163	5
	50	17	9.93114	80448.4	-142128.3	1	163316.8	-60.48898	7.21519E-010	-0.0221515	5
	51	18	7.944915	97478.8	-162572.5	1	189557.2	-59.05301	-1.220061E-009	-0.0221665	5
	52	18	6.317385	117679.2	-185815.7	1	219945.2	-57.65347	5.493088E-010	-0.0221755	5
	53	19	5.008013	141080.6	-211393	1	254147.1	-56.28144	6.743859E-010	-0.0221622	5
	54	20	3.945707	167855.7	-239190	1	292211.2	-54.94008	-2.449954E-011	-0.0221757	5
	55	21	3.158693	195162.9	-268381	1	331838.7	-53.97589	4.292987E-010	-0.0221626	5
	56	22	2.504006	225408.6	-301699.9	1	376605.7	-53.23555	1.347977E-010	-0.0221595	5
	57	23	1.998082	256757.3	-339523.8	1	425676.8	-52.90242	-7.824705E-011	-0.0221941	5
	58	25	1.584686	290171	-383946.8	1	481263.3	-52.91953	7.941521E-011	-0.0221584	5
	59	27	1.266892	326686.8	-435395.4	1	544328.4	-53.11829	1.524096E-010	-0.022135	5
	60	29	0.999041	368838.4	-502058	1	622979.9	-53.69703	1.895228E-010	-0.0221301	5
