EXPLAIN
TAG	EISPOT
TITLE	LABEL	Potentiostatic EIS	Test &Identifier
DATE	LABEL	2/28/2020	Date
TIME	LABEL	17:02:58	Time
NOTES	NOTES	1	&Notes...
	
PSTAT	PSTAT	REF600-11020	Potentiostat
VDC	POTEN	0.00000E+000	T	DC &Voltage (V)
FREQINIT	QUANT	1.00000E+006	Initial Fre&q. (Hz)
FREQFINAL	QUANT	1.00000E+000	Final Fre&q. (Hz)
PTSPERDEC	QUANT	1.00000E+001	Points/&decade
VAC	QUANT	2.50000E+001	AC &Voltage (mV rms)
AREA	QUANT	1.60000E-004	&Area (cm^2)
CONDIT	TWOPARAM	F	1.50000E+001	0.00000E+000	Conditionin&g	Time(s)	E(V)
DELAY	TWOPARAM	F	1.00000E+002	0.00000E+000	Init. De&lay	Time(s)	Stab.(mV/s)
SPEED	SELECTOR	1	&Optimize for:
ZGUESS	QUANT	1.00000E+003	E&stimated Z (ohms)
OCVCURVE	TABLE	39
	Pt	T	Vf	Vm	Ach	Over
	#	s	V vs. Ref.	V	V	bits
	0	0.258333	-8.88834E-002	-8.88834E-002	5.81797E-004	...........
	1	0.516667	-8.88901E-002	-8.92335E-002	5.84263E-004	...........
	2	0.775	-8.89266E-002	-8.93273E-002	5.83830E-004	...........
	3	1.03333	-8.90163E-002	-8.94954E-002	5.81963E-004	...........
	4	1.29167	-8.91447E-002	-8.91677E-002	5.77763E-004	...........
	5	1.55	-8.92476E-002	-8.88554E-002	5.77797E-004	...........
	6	1.80833	-8.92493E-002	-8.85713E-002	5.80330E-004	...........
	7	2.06667	-8.91238E-002	-8.84802E-002	5.77030E-004	...........
	8	2.325	-8.89173E-002	-8.83996E-002	5.81630E-004	...........
	9	2.58333	-8.87071E-002	-8.84170E-002	5.76130E-004	...........
	10	2.84167	-8.85447E-002	-8.82029E-002	5.80963E-004	...........
	11	3.1	-8.84319E-002	-8.81779E-002	5.82630E-004	...........
	12	3.35833	-8.83455E-002	-8.82579E-002	5.87763E-004	...........
	13	3.61667	-8.82745E-002	-8.80081E-002	5.82763E-004	...........
	14	3.875	-8.82115E-002	-8.78753E-002	5.83497E-004	...........
	15	4.13333	-8.81356E-002	-8.78234E-002	5.78863E-004	...........
	16	4.39167	-8.80376E-002	-8.77485E-002	5.79430E-004	...........
	17	4.65	-8.79326E-002	-8.76759E-002	5.79863E-004	...........
	18	4.90833	-8.78366E-002	-8.75609E-002	5.80663E-004	...........
	19	5.16667	-8.77492E-002	-8.74537E-002	5.80130E-004	...........
	20	5.425	-8.76615E-002	-8.73873E-002	5.82430E-004	...........
	21	5.68333	-8.75704E-002	-8.73080E-002	5.82697E-004	...........
	22	5.94167	-8.74803E-002	-8.72433E-002	5.80697E-004	...........
	23	6.2	-8.73959E-002	-8.71553E-002	5.77963E-004	...........
	24	6.45833	-8.73168E-002	-8.70636E-002	5.78297E-004	...........
	25	6.71667	-8.72388E-002	-8.70000E-002	5.80597E-004	...........
	26	6.975	-8.71592E-002	-8.68976E-002	5.83897E-004	...........
	27	7.23333	-8.70788E-002	-8.68708E-002	5.81397E-004	...........
	28	7.49167	-8.69984E-002	-8.66569E-002	5.74863E-004	...........
	29	7.75	-8.69160E-002	-8.67539E-002	5.74397E-004	...........
	30	8.00833	-8.68344E-002	-8.66329E-002	5.75363E-004	...........
	31	8.26667	-8.67618E-002	-8.65491E-002	5.76930E-004	...........
	32	8.525	-8.66961E-002	-8.64099E-002	5.79897E-004	...........
	33	8.78333	-8.66224E-002	-8.62774E-002	5.78863E-004	...........
	34	9.04167	-8.65292E-002	-8.61539E-002	5.76397E-004	...........
	35	9.3	-8.64190E-002	-8.61380E-002	5.76630E-004	...........
	36	9.5583	-8.63052E-002	-8.59499E-002	5.75630E-004	...........
	37	9.8167	-8.62015E-002	-8.61182E-002	5.69563E-004	...........
	38	10.075	-8.61197E-002	-8.59670E-002	5.74730E-004	...........
EOC	QUANT	-0.0861197	Open Circuit (V)
PSTATMODEL	IQUANT	4	Pstat Model
PSTATSECTION	LABEL	REF600-11020	Pstat Section
PSTATSERIALNO	LABEL	11020	Pstat Serial Number
CTRLMODE	IQUANT	1	Control Mode
IESTAB	IQUANT	0	I/E Stability
CASPEED	IQUANT	1	Control Amp Speed
CONVENTION	IQUANT	1	Current Convention
ICHRANGE	IQUANT	2	Ich Range
ICHRANGEMODE	TOGGLE	F	Ich Auto Range
ICHOFFSETENABLE	TOGGLE	T	Ich Offset Enable
ICHOFFSET	QUANT	0	Ich Offset (V)
ICHFILTER	IQUANT	3	Ich Filter
VCHRANGE	IQUANT	2	Vch Range
VCHRANGEMODE	TOGGLE	F	Vch Auto Range
VCHOFFSETENABLE	TOGGLE	T	Vch Offset Enable
VCHOFFSET	QUANT	0	Vch Offset (V)
VCHFILTER	IQUANT	3	Vch Filter
ACHRANGE	IQUANT	2	Ach Range
ACHOFFSETENABLE	TOGGLE	F	Ach Offset Enable
ACHOFFSET	QUANT	0	Ach Offset (V)
ACHFILTER	IQUANT	3	Ach Filter
IERANGELOWERLIMIT	IQUANT	1	I/E Range Lower Limit
IERANGEMODE	TOGGLE	F	I/E AutoRange
IERANGE	IQUANT	8	I/E Range
POSFEEDENABLE	TOGGLE	F	Positive Feedback IR Comp
POSFEEDRESISTANCE	QUANT	0	Positive Feedback Resistance (ohm)
ACHSELECT	IQUANT	0	Ach Select
CABLEID	IQUANT	14	Cable ID
DCCALDATE	LABEL	2/27/2020	DC Calibration Date
ACCALDATE	LABEL	2/27/2020	AC Calibration Date
THERMOSELECT	IQUANT	1	Thermo Select
FRAMEWORKVERSION	QUANT	6.33	Framework Version
INSTRUMENTVERSION	LABEL	3.50	Instrument Version
ZCURVE	TABLE
	Pt	Time	Freq	Zreal	Zimag	Zsig	Zmod	Zphz	Idc	Vdc	IERange
	#	s	Hz	ohm	ohm	V	ohm	°	A	V	#
	0	1	1000078	1903.808	-2016.37	1	2773.126	-46.64471	-1.260368E-006	-0.0833036	8
	1	2	794390.6	2319.917	-2160.281	1	3169.989	-42.95932	3.430246E-007	-0.0840508	8
	2	4	630984.4	2768.721	-2207.351	1	3540.935	-38.56345	-1.753915E-007	-0.0842635	8
	3	5	501234.4	3234.949	-2174.786	1	3898.023	-33.91208	-1.381223E-007	-0.0843236	8
	4	6	398109.4	3658.81	-2080.08	1	4208.755	-29.61878	-3.367546E-007	-0.0843287	8
	5	8	316265.6	4023.756	-1948.404	1	4470.67	-25.83743	3.704587E-006	-0.0849932	8
	6	9	251203.1	4383.019	-1784.324	1	4732.3	-22.1512	1.995114E-006	-0.0849068	8
	7	10	199546.9	4605.373	-1558.892	1	4862.058	-18.70066	4.769189E-007	-0.0845349	8
	8	12	158578.1	4833.779	-1358.929	1	5021.166	-15.70236	-2.740929E-006	-0.083748	8
	9	13	125953.1	4997.298	-1150.212	1	5127.96	-12.96184	-1.196434E-007	-0.0842402	7
	10	15	100078.1	5101.553	-1003.727	1	5199.357	-11.13074	-3.513653E-008	-0.0844224	7
	11	16	79453.13	5198.759	-901.8573	1	5276.404	-9.84147	2.506069E-008	-0.0845924	7
	12	17	63140.62	5278.83	-810.7517	1	5340.727	-8.731573	-3.474746E-008	-0.084431	7
	13	19	50203.12	5348.786	-744.6781	1	5400.375	-7.925986	1.975688E-008	-0.0845297	7
	14	20	39890.62	5408.082	-699.8063	1	5453.171	-7.373109	-6.661975E-010	-0.084446	7
	15	21	31640.63	5464.661	-672.9879	1	5505.945	-7.02078	-4.786642E-010	-0.0844486	7
	16	23	25171.88	5517.931	-664.2555	1	5557.769	-6.864307	-3.524276E-008	-0.0844633	7
	17	24	20015.62	5566.445	-671.7603	1	5606.833	-6.881195	2.282296E-008	-0.0845328	7
	18	26	15890.62	5626.642	-702.4912	1	5670.325	-7.116604	-3.394418E-008	-0.0844682	7
	19	27	12609.37	5682.623	-743.0339	1	5730.995	-7.449472	6.653205E-008	-0.084628	7
	20	28	10078.13	5735.015	-812.419	1	5792.273	-8.06284	5.200226E-009	-0.0845066	7
	21	30	8015.625	5796.054	-900.4792	1	5865.586	-8.830916	-3.428171E-008	-0.0844995	7
	22	31	6328.125	5862.931	-1019.999	1	5950.996	-9.86921	6.418286E-010	-0.0844619	7
	23	32	5015.625	5932.452	-1169.321	1	6046.594	-11.1504	-4.094531E-008	-0.0844728	7
	24	34	3984.375	6005.385	-1352.401	1	6155.781	-12.69118	2.616194E-008	-0.0845495	7
	25	35	3170.956	6089.034	-1581.495	1	6291.063	-14.55964	-9.508843E-009	-0.0845412	7
	26	36	2527.573	6180.464	-1859.653	1	6454.18	-16.74613	3.695327E-009	-0.0845056	7
	27	38	1976.103	6291.188	-2237.025	1	6677.075	-19.5744	2.703443E-008	-0.0845499	7
	28	39	1577.524	6417.291	-2667.45	1	6949.598	-22.571	-4.091374E-008	-0.0844706	7
	29	41	1265.625	6538.658	-3175.453	1	7268.944	-25.9032	1.044642E-007	-0.0846707	7
	30	42	998.264	6722.398	-3850.944	1	7747.284	-29.80635	-8.254549E-009	-0.0845517	7
	31	43	796.875	6912.206	-4639.482	1	8324.866	-33.86957	4.882802E-008	-0.0846357	7
	32	45	627.7902	7163.541	-5657.492	1	9128.173	-38.30033	2.326365E-008	-0.0846104	7
	33	46	505.5147	7440.72	-6784.517	1	10069.46	-42.35884	1.911788E-009	-0.0844321	6
	34	47	397.9953	7812.031	-8305.163	1	11401.91	-46.75251	3.901386E-010	-0.0844429	6
	35	49	315.5048	8254.217	-10113.09	1	13053.99	-50.77898	-1.288853E-010	-0.0844442	6
	36	50	252.4038	8776.882	-12225.06	1	15049.44	-54.32384	2.215287E-010	-0.0844432	6
	37	52	198.6229	9472.002	-14984.74	1	17727.41	-57.70261	8.070604E-011	-0.0844481	6
	38	53	158.3615	10287.41	-18166.66	1	20877.22	-60.478	-2.880597E-010	-0.0844512	6
	39	54	125.558	11325.33	-22119.48	1	24850.25	-62.88723	2.090177E-010	-0.0844462	6
	40	56	100.4464	12577.04	-26728.96	1	29540.13	-64.80116	2.723095E-010	-0.0844468	6
	41	57	79.00281	14257.94	-32702.9	1	35675.89	-66.44357	-3.854062E-010	-0.0844529	6
	42	59	63.3446	16309.63	-39586.98	1	42815.11	-67.6086	1.049112E-010	-0.084453	6
	43	60	49.86702	18625.61	-48205.74	1	51678.88	-68.87459	-5.21893E-010	-0.0844523	6
	44	61	39.72458	21977.22	-58316.94	1	62320.66	-69.35067	-3.599637E-010	-0.0844528	6
	45	63	31.6723	26159.5	-70407.91	1	75110.55	-69.61785	-2.085196E-010	-0.084448	6
	46	64	24.93351	31630.42	-85914.09	1	91551.7	-69.78814	-6.694126E-010	-0.0844547	6
	47	65	19.86229	38581.62	-103342.9	1	110310	-69.52759	-8.488466E-010	-0.0844478	5
	48	67	15.83615	46989.54	-123997.9	1	132602.8	-69.24558	7.884053E-011	-0.084445	5
	49	68	12.40079	60254.27	-150128.6	1	161768.9	-68.1319	-6.89901E-010	-0.0844465	5
	50	70	9.93114	75428.54	-177991.2	1	193314	-67.03389	1.122774E-010	-0.0844504	5
	51	71	7.944915	94650.55	-208984	1	229419	-65.63385	-8.842363E-010	-0.0844462	5
	52	73	6.317385	119652.4	-245341.4	1	272963.6	-64.00163	1.128471E-010	-0.0844617	5
	53	75	5.008013	150674.7	-285483.2	1	322805.7	-62.17543	-2.359452E-010	-0.0844427	5
	54	78	3.945707	188774.1	-329580.1	1	379814	-60.19714	-3.794419E-010	-0.0844498	5
	55	80	3.158693	230884.7	-373863.4	1	439410.5	-58.302	3.656781E-010	-0.0844405	5
	56	84	2.504006	280096.2	-422618.8	1	507011.3	-56.46505	-2.173119E-010	-0.0844466	5
	57	86	1.998082	332924.5	-473833.6	1	579100.2	-54.9074	-7.023641E-010	-0.0844844	5
	58	89	1.584686	388956.5	-527776.7	1	655618.3	-53.61084	-1.133791E-010	-0.0844236	5
	59	93	1.266892	450691	-588337.2	1	741122.8	-52.54637	-1.043389E-010	-0.0844829	5
	60	97	0.999041	518423.6	-660916	1	839983.9	-51.88931	1.895764E-010	-0.0844126	5
