EXPLAIN
TAG	EISPOT
TITLE	LABEL	Potentiostatic EIS	Test &Identifier
DATE	LABEL	2/6/2020	Date
TIME	LABEL	17:52:42	Time
NOTES	NOTES	6	&Notes...
	
	
	
	
	
	
PSTAT	PSTAT	REF600-11020	Potentiostat
VDC	POTEN	0.00000E+000	T	DC &Voltage (V)
FREQINIT	QUANT	1.00000E+006	Initial Fre&q. (Hz)
FREQFINAL	QUANT	1.00000E+000	Final Fre&q. (Hz)
PTSPERDEC	QUANT	1.00000E+001	Points/&decade
VAC	QUANT	2.50000E+001	AC &Voltage (mV rms)
AREA	QUANT	1.60000E-004	&Area (cm^2)
CONDIT	TWOPARAM	F	5.00000E+000	0.00000E+000	Conditionin&g	Time(s)	E(V)
DELAY	TWOPARAM	F	5.00000E+000	0.00000E+000	Init. De&lay	Time(s)	Stab.(mV/s)
SPEED	SELECTOR	0	&Optimize for:
ZGUESS	QUANT	1.00000E+003	E&stimated Z (ohms)
OCVCURVE	TABLE	39
	Pt	T	Vf	Vm	Ach	Over
	#	s	V vs. Ref.	V	V	bits
	0	0.258333	9.11982E-003	9.11982E-003	6.34937E-004	...........
	1	0.516667	9.12001E-003	9.12970E-003	6.34370E-004	...........
	2	0.775	9.12108E-003	9.13472E-003	6.35370E-004	...........
	3	1.03333	9.12380E-003	9.13654E-003	6.35537E-004	...........
	4	1.29167	9.12781E-003	9.13544E-003	6.33570E-004	...........
	5	1.55	9.13178E-003	9.13952E-003	6.40836E-004	...........
	6	1.80833	9.13465E-003	9.13261E-003	6.37637E-004	...........
	7	2.06667	9.13621E-003	9.14358E-003	6.40470E-004	...........
	8	2.325	9.13768E-003	9.17047E-003	6.40003E-004	...........
	9	2.58333	9.14128E-003	9.14896E-003	6.36303E-004	...........
	10	2.84167	9.14691E-003	9.14592E-003	6.35303E-004	...........
	11	3.1	9.15100E-003	9.14269E-003	6.38037E-004	...........
	12	3.35833	9.15111E-003	9.14378E-003	6.37737E-004	...........
	13	3.61667	9.14857E-003	9.14498E-003	6.40070E-004	...........
	14	3.875	9.14605E-003	9.14839E-003	6.38837E-004	...........
	15	4.13333	9.14500E-003	9.14517E-003	6.38137E-004	...........
	16	4.39167	9.14513E-003	9.14199E-003	6.32137E-004	...........
	17	4.65	9.14522E-003	9.14052E-003	6.37370E-004	...........
	18	4.90833	9.14445E-003	9.13988E-003	6.36703E-004	...........
	19	5.16667	9.14293E-003	9.13621E-003	6.39036E-004	...........
	20	5.425	9.14109E-003	9.13623E-003	6.35103E-004	...........
	21	5.68333	9.13924E-003	9.13427E-003	6.33970E-004	...........
	22	5.94167	9.13762E-003	9.13921E-003	6.37670E-004	...........
	23	6.2	9.13660E-003	9.13410E-003	6.32837E-004	...........
	24	6.45833	9.13610E-003	9.13029E-003	6.28470E-004	...........
	25	6.71667	9.13545E-003	9.13316E-003	6.38637E-004	...........
	26	6.975	9.13427E-003	9.12915E-003	6.35703E-004	...........
	27	7.23333	9.13275E-003	9.12442E-003	6.30837E-004	...........
	28	7.49167	9.13091E-003	9.12251E-003	6.33937E-004	...........
	29	7.75	9.12855E-003	9.12175E-003	6.32837E-004	...........
	30	8.00833	9.12590E-003	9.11754E-003	6.35703E-004	...........
	31	8.26667	9.12327E-003	9.11335E-003	6.36170E-004	...........
	32	8.525	9.12060E-003	9.11460E-003	6.34937E-004	...........
	33	8.78333	9.11796E-003	9.11214E-003	6.35870E-004	...........
	34	9.04167	9.11570E-003	9.11231E-003	6.39403E-004	...........
	35	9.3	9.11400E-003	9.10864E-003	6.41070E-004	...........
	36	9.5583	9.11266E-003	9.11151E-003	6.41303E-004	...........
	37	9.8167	9.11150E-003	9.10631E-003	6.39703E-004	...........
	38	10.075	9.11028E-003	9.10031E-003	6.38003E-004	...........
EOC	QUANT	0.0091103	Open Circuit (V)
PSTATMODEL	IQUANT	4	Pstat Model
PSTATSECTION	LABEL	REF600-11020	Pstat Section
PSTATSERIALNO	LABEL	11020	Pstat Serial Number
CTRLMODE	IQUANT	1	Control Mode
IESTAB	IQUANT	0	I/E Stability
CASPEED	IQUANT	1	Control Amp Speed
CONVENTION	IQUANT	1	Current Convention
ICHRANGE	IQUANT	2	Ich Range
ICHRANGEMODE	TOGGLE	F	Ich Auto Range
ICHOFFSETENABLE	TOGGLE	T	Ich Offset Enable
ICHOFFSET	QUANT	0	Ich Offset (V)
ICHFILTER	IQUANT	3	Ich Filter
VCHRANGE	IQUANT	2	Vch Range
VCHRANGEMODE	TOGGLE	F	Vch Auto Range
VCHOFFSETENABLE	TOGGLE	T	Vch Offset Enable
VCHOFFSET	QUANT	0	Vch Offset (V)
VCHFILTER	IQUANT	3	Vch Filter
ACHRANGE	IQUANT	2	Ach Range
ACHOFFSETENABLE	TOGGLE	F	Ach Offset Enable
ACHOFFSET	QUANT	0	Ach Offset (V)
ACHFILTER	IQUANT	3	Ach Filter
IERANGELOWERLIMIT	IQUANT	1	I/E Range Lower Limit
IERANGEMODE	TOGGLE	F	I/E AutoRange
IERANGE	IQUANT	7	I/E Range
POSFEEDENABLE	TOGGLE	F	Positive Feedback IR Comp
POSFEEDRESISTANCE	QUANT	0	Positive Feedback Resistance (ohm)
ACHSELECT	IQUANT	0	Ach Select
CABLEID	IQUANT	14	Cable ID
DCCALDATE	LABEL	1/27/2020	DC Calibration Date
ACCALDATE	LABEL	1/27/2020	AC Calibration Date
THERMOSELECT	IQUANT	1	Thermo Select
FRAMEWORKVERSION	QUANT	6.33	Framework Version
INSTRUMENTVERSION	LABEL	3.50	Instrument Version
ZCURVE	TABLE
	Pt	Time	Freq	Zreal	Zimag	Zsig	Zmod	Zphz	Idc	Vdc	IERange
	#	s	Hz	ohm	ohm	V	ohm	°	A	V	#
	0	1	1000078	2141.052	-1783.189	1	2786.372	-39.78945	-7.128364E-007	0.0111369	8
	1	2	794390.6	2475.282	-1807.998	1	3065.27	-36.14517	-6.814064E-007	0.0111586	8
	2	2	630984.4	2810.875	-1787.834	1	3331.271	-32.45806	2.095822E-007	0.010731	8
	3	2	501234.4	3144.614	-1733.979	1	3591	-28.87289	2.422586E-006	0.0102451	8
	4	2	398109.4	3438.715	-1636.567	1	3808.296	-25.4509	-4.711163E-007	0.0106933	8
	5	3	316265.6	3702.036	-1533.474	1	4007.07	-22.50053	1.657899E-006	0.0102687	8
	6	3	251203.1	3936.436	-1412.712	1	4182.258	-19.7421	-1.780117E-006	0.0109083	8
	7	3	199546.9	4137.844	-1289.036	1	4333.979	-17.30304	2.233068E-006	0.0102103	8
	8	4	158578.1	4300.372	-1177.393	1	4458.638	-15.3117	1.568908E-006	0.0102896	8
	9	4	125953.1	4464.783	-1038.365	1	4583.938	-13.09243	5.176642E-008	0.0103935	7
	10	4	100078.1	4585.544	-962.414	1	4685.451	-11.8532	-2.471978E-008	0.0106132	7
	11	5	79453.13	4693.962	-903.2419	1	4780.076	-10.89208	5.739455E-008	0.0104602	7
	12	5	63140.62	4790.827	-856.1129	1	4866.719	-10.13172	-1.29635E-008	0.010602	7
	13	5	50203.12	4881.796	-822.2926	1	4950.565	-9.56118	-2.208348E-008	0.0105553	7
	14	6	39890.62	4968.925	-804.528	1	5033.635	-9.197053	2.860781E-008	0.0105158	7
	15	6	31640.63	5052.814	-799.3489	1	5115.652	-8.989621	-3.498681E-008	0.0105979	7
	16	6	25171.88	5137.686	-806.2958	1	5200.57	-8.919109	3.373349E-008	0.0104518	7
	17	7	20015.62	5221.58	-828.6381	1	5286.921	-9.017351	-2.599809E-008	0.0105951	7
	18	7	15890.62	5304.244	-863.6826	1	5374.1	-9.248229	5.295017E-008	0.0104292	7
	19	7	12609.37	5389.817	-917.3582	1	5467.328	-9.6593	-2.082551E-008	0.0105474	7
	20	8	10078.13	5472.969	-979.994	1	5560.016	-10.15184	8.867597E-009	0.0104973	7
	21	8	8015.625	5562.486	-1074.156	1	5665.25	-10.92969	1.173207E-008	0.0104908	7
	22	8	6328.125	5658.297	-1196.829	1	5783.487	-11.94303	6.029804E-008	0.0104425	7
	23	8	5015.625	5757.166	-1346.4	1	5912.508	-13.16291	8.630315E-008	0.0104212	7
	24	9	3984.375	5858.871	-1531.63	1	6055.762	-14.65043	-1.799082E-008	0.0105341	7
	25	9	3170.956	5967.291	-1759.874	1	6221.392	-16.43184	9.94299E-009	0.0104917	7
	26	9	2527.573	6084.003	-2040.925	1	6417.201	-18.54442	-2.063759E-008	0.0105366	7
	27	10	1976.103	6216.813	-2420.519	1	6671.407	-21.27348	5.116258E-009	0.0105984	7
	28	10	1577.524	6352.461	-2855.078	1	6964.57	-24.20127	6.002763E-008	0.0104335	7
	29	10	1265.625	6500.196	-3376.048	1	7324.633	-27.4463	-2.077713E-008	0.0105267	7
	30	11	998.264	6689.573	-4072.563	1	7831.74	-31.33275	1.112187E-008	0.0104859	7
	31	11	796.875	6904.252	-4896.714	1	8464.427	-35.34547	-2.504333E-008	0.0105812	7
	32	11	627.7902	7181.454	-5959.895	1	9332.396	-39.68931	-1.742612E-008	0.0105227	7
	33	12	505.5147	7503.771	-7151.455	1	10365.8	-43.62286	-4.930058E-009	0.0105993	6
	34	12	397.9953	7943.583	-8745.872	1	11814.85	-47.75218	7.804167E-010	0.0105426	6
	35	12	315.5048	8499.681	-10634.05	1	13613.51	-51.36504	8.58695E-010	0.0105386	6
	36	13	252.4038	9179.314	-12823.42	1	15770.22	-54.404	5.001054E-010	0.0105312	6
	37	13	198.6229	10118.37	-15649.47	1	18635.65	-57.11477	6.7708E-010	0.0105313	6
	38	13	158.3615	11254.47	-18856.97	1	21960.16	-59.16983	9.960623E-010	0.0105337	6
	39	14	125.558	12743.56	-22758.47	1	26083.44	-60.75344	1.008911E-009	0.010534	6
	40	14	100.4464	14585.71	-27178.41	1	30844.92	-61.77909	6.344126E-010	0.010532	6
	41	14	79.00281	17059.78	-32851.56	1	37017.04	-62.5572	3.233233E-010	0.0105278	6
	42	15	63.3446	19552.79	-38783.01	1	43433.09	-63.24465	9.826242E-010	0.0105301	6
	43	15	49.86702	23509.53	-46388.89	1	52006.03	-63.12446	2.256533E-010	0.0105278	6
	44	15	39.72458	28216.47	-55069.51	1	61877.46	-62.87034	9.519179E-010	0.0105346	6
	45	16	31.6723	33878.82	-64906.37	1	73216.2	-62.43705	1.023061E-009	0.0105329	6
	46	16	24.93351	41269.02	-76502.8	1	86924.16	-61.65559	1.057347E-009	0.0105258	6
	47	16	19.86229	49974.02	-89016.77	1	102085.2	-60.69014	8.673374E-010	0.0105317	6
	48	16	15.83615	60907.99	-102979	1	119643	-59.39736	1.427368E-009	0.010526	5
	49	17	12.40079	73214.19	-119396.6	1	140056.6	-58.4833	1.958115E-010	0.0105261	5
	50	17	9.93114	86531.63	-135536.1	1	160803.4	-57.44422	-7.279252E-010	0.010529	5
	51	18	7.944915	101688.5	-154179.4	1	184693.9	-56.59329	2.334967E-010	0.0105202	5
	52	18	6.317385	118518.3	-174746.7	1	211146.8	-55.85373	-4.55529E-011	0.0105257	5
	53	19	5.008013	137306.6	-198856.9	1	241655.1	-55.37572	-1.934013E-010	0.0105165	5
	54	20	3.945707	158136	-227618.6	1	277159.2	-55.21071	1.23538E-010	0.0105218	5
	55	21	3.158693	179869.7	-259146.2	1	315451.8	-55.23603	5.015081E-011	0.0105358	5
	56	23	2.504006	204820.1	-298090.2	1	361675.4	-55.50674	-1.524152E-010	0.0105218	5
	57	24	1.998082	231228.4	-342127.8	1	412938.2	-55.94705	7.782018E-011	0.0105501	5
	58	26	1.584686	263040.3	-397523.3	1	476670.7	-56.50748	1.726841E-010	0.01057	5
	59	28	1.266892	296813.7	-460698.1	1	548033.8	-57.20756	1.25251E-010	0.0105366	5
	60	30	0.999041	339288.8	-539163.4	1	637035.4	-57.81831	1.042882E-010	0.0105059	5
