EXPLAIN
TAG	EISPOT
TITLE	LABEL	Potentiostatic EIS	Test &Identifier
DATE	LABEL	7/13/2020	Date
TIME	LABEL	20:08:26	Time
NOTES	NOTES	1	&Notes...
	
PSTAT	PSTAT	REF600-11020	Potentiostat
VDC	POTEN	0.00000E+000	T	DC &Voltage (V)
FREQINIT	QUANT	1.00000E+006	Initial Fre&q. (Hz)
FREQFINAL	QUANT	1.00000E+000	Final Fre&q. (Hz)
PTSPERDEC	QUANT	1.00000E+001	Points/&decade
VAC	QUANT	2.50000E+001	AC &Voltage (mV rms)
AREA	QUANT	4.00000E-004	&Area (cm^2)
CONDIT	TWOPARAM	F	5.00000E+000	0.00000E+000	Conditionin&g	Time(s)	E(V)
DELAY	TWOPARAM	F	3.00000E+000	0.00000E+000	Init. De&lay	Time(s)	Stab.(mV/s)
SPEED	SELECTOR	0	&Optimize for:
ZGUESS	QUANT	1.00000E+003	E&stimated Z (ohms)
OCVCURVE	TABLE	39
	Pt	T	Vf	Vm	Ach	Over
	#	s	V vs. Ref.	V	V	bits
	0	0.258333	1.76151E-001	1.76151E-001	5.27683E-004	...........
	1	0.516667	1.76151E-001	1.76148E-001	5.28383E-004	...........
	2	0.775	1.76150E-001	1.76145E-001	5.32250E-004	...........
	3	1.03333	1.76149E-001	1.76141E-001	5.31650E-004	...........
	4	1.29167	1.76148E-001	1.76138E-001	5.25350E-004	...........
	5	1.55	1.76145E-001	1.76136E-001	5.24050E-004	...........
	6	1.80833	1.76142E-001	1.76131E-001	5.25017E-004	...........
	7	2.06667	1.76139E-001	1.76129E-001	5.24717E-004	...........
	8	2.325	1.76135E-001	1.76126E-001	5.22783E-004	...........
	9	2.58333	1.76132E-001	1.76124E-001	5.23417E-004	...........
	10	2.84167	1.76129E-001	1.76123E-001	5.26450E-004	...........
	11	3.1	1.76127E-001	1.76121E-001	5.23817E-004	...........
	12	3.35833	1.76125E-001	1.76120E-001	5.22517E-004	...........
	13	3.61667	1.76123E-001	1.76118E-001	5.22417E-004	...........
	14	3.875	1.76121E-001	1.76117E-001	5.23383E-004	...........
	15	4.13333	1.76120E-001	1.76110E-001	5.19983E-004	...........
	16	4.39167	1.76118E-001	1.76112E-001	5.18417E-004	...........
	17	4.65	1.76116E-001	1.76105E-001	5.20983E-004	...........
	18	4.90833	1.76113E-001	1.76105E-001	5.21917E-004	...........
	19	5.16667	1.76110E-001	1.76103E-001	5.24117E-004	...........
	20	5.425	1.76107E-001	1.76101E-001	5.19750E-004	...........
	21	5.68333	1.76105E-001	1.76095E-001	5.19850E-004	...........
	22	5.94167	1.76103E-001	1.76098E-001	5.24083E-004	...........
	23	6.2	1.76100E-001	1.76093E-001	5.26550E-004	...........
	24	6.45833	1.76098E-001	1.76095E-001	5.26883E-004	...........
	25	6.71667	1.76096E-001	1.76091E-001	5.21150E-004	...........
	26	6.975	1.76095E-001	1.76091E-001	5.26317E-004	...........
	27	7.23333	1.76094E-001	1.76089E-001	5.22983E-004	...........
	28	7.49167	1.76092E-001	1.76089E-001	5.25750E-004	...........
	29	7.75	1.76091E-001	1.76086E-001	5.30116E-004	...........
	30	8.00833	1.76089E-001	1.76085E-001	5.22650E-004	...........
	31	8.26667	1.76088E-001	1.76081E-001	5.27450E-004	...........
	32	8.525	1.76086E-001	1.76081E-001	5.26750E-004	...........
	33	8.78333	1.76084E-001	1.76078E-001	5.29916E-004	...........
	34	9.04167	1.76082E-001	1.76079E-001	5.30250E-004	...........
	35	9.3	1.76081E-001	1.76078E-001	5.26617E-004	...........
	36	9.5583	1.76079E-001	1.76076E-001	5.25583E-004	...........
	37	9.8167	1.76078E-001	1.76075E-001	5.26750E-004	...........
	38	10.075	1.76077E-001	1.76070E-001	5.25150E-004	...........
EOC	QUANT	0.1760773	Open Circuit (V)
PSTATMODEL	IQUANT	4	Pstat Model
PSTATSECTION	LABEL	REF600-11020	Pstat Section
PSTATSERIALNO	LABEL	11020	Pstat Serial Number
CTRLMODE	IQUANT	1	Control Mode
IESTAB	IQUANT	0	I/E Stability
CASPEED	IQUANT	1	Control Amp Speed
CONVENTION	IQUANT	1	Current Convention
ICHRANGE	IQUANT	2	Ich Range
ICHRANGEMODE	TOGGLE	F	Ich Auto Range
ICHOFFSETENABLE	TOGGLE	T	Ich Offset Enable
ICHOFFSET	QUANT	0	Ich Offset (V)
ICHFILTER	IQUANT	3	Ich Filter
VCHRANGE	IQUANT	2	Vch Range
VCHRANGEMODE	TOGGLE	F	Vch Auto Range
VCHOFFSETENABLE	TOGGLE	T	Vch Offset Enable
VCHOFFSET	QUANT	0	Vch Offset (V)
VCHFILTER	IQUANT	3	Vch Filter
ACHRANGE	IQUANT	2	Ach Range
ACHOFFSETENABLE	TOGGLE	F	Ach Offset Enable
ACHOFFSET	QUANT	0	Ach Offset (V)
ACHFILTER	IQUANT	3	Ach Filter
IERANGELOWERLIMIT	IQUANT	1	I/E Range Lower Limit
IERANGEMODE	TOGGLE	F	I/E AutoRange
IERANGE	IQUANT	8	I/E Range
POSFEEDENABLE	TOGGLE	F	Positive Feedback IR Comp
POSFEEDRESISTANCE	QUANT	0	Positive Feedback Resistance (ohm)
ACHSELECT	IQUANT	0	Ach Select
CABLEID	IQUANT	14	Cable ID
DCCALDATE	LABEL	6/26/2020	DC Calibration Date
ACCALDATE	LABEL	6/26/2020	AC Calibration Date
THERMOSELECT	IQUANT	1	Thermo Select
FRAMEWORKVERSION	QUANT	6.33	Framework Version
INSTRUMENTVERSION	LABEL	3.50	Instrument Version
ZCURVE	TABLE
	Pt	Time	Freq	Zreal	Zimag	Zsig	Zmod	Zphz	Idc	Vdc	IERange
	#	s	Hz	ohm	ohm	V	ohm	°	A	V	#
	0	1	1000078	1696.469	-1948.883	1	2583.825	-48.961	8.462175E-008	0.1783389	8
	1	2	794390.6	2002.539	-2129.095	1	2922.877	-46.75448	2.200875E-007	0.1780387	8
	2	2	630984.4	2331.739	-2306.772	1	3279.97	-44.69161	-9.613271E-009	0.1778606	8
	3	2	501234.4	2695.409	-2479.813	1	3662.609	-42.61448	2.031024E-007	0.1777796	8
	4	3	398109.4	3077.987	-2653.681	1	4063.991	-40.76621	2.74217E-008	0.177712	8
	5	3	316265.6	3489.197	-2819.817	1	4486.186	-38.94364	3.935089E-008	0.1776749	8
	6	3	251203.1	3939.026	-2977.136	1	4937.537	-37.08218	1.032861E-007	0.1776489	8
	7	4	199546.9	4407.188	-3129.864	1	5405.493	-35.38132	7.879174E-008	0.1776711	8
	8	4	158578.1	4907.77	-3279.489	1	5902.648	-33.75179	7.044876E-008	0.1776798	8
	9	4	125953.1	5532.661	-3352.805	1	6469.284	-31.21596	3.968479E-008	0.1776546	7
	10	5	100078.1	6105.538	-3461.906	1	7018.717	-29.55371	-1.254737E-008	0.1776564	7
	11	5	79453.13	6686.18	-3537.108	1	7564.135	-27.87964	1.835402E-008	0.1776224	7
	12	5	63140.62	7283.955	-3569.722	1	8111.653	-26.10856	1.300627E-008	0.1776196	7
	13	6	50203.12	7878.539	-3556.712	1	8644.165	-24.29647	1.615467E-008	0.1776077	7
	14	6	39890.62	8459.628	-3502.874	1	9156.169	-22.49295	1.927588E-008	0.1776122	7
	15	6	31640.63	9020.17	-3420.177	1	9646.82	-20.76522	7.888227E-009	0.1776069	7
	16	6	25171.88	9531.9	-3314.587	1	10091.76	-19.17441	1.652941E-008	0.1775957	7
	17	7	20015.62	10002.3	-3198.572	1	10501.28	-17.73343	7.182993E-009	0.1776281	7
	18	7	15890.62	10447.68	-3098.137	1	10897.36	-16.51711	1.355979E-008	0.1776014	7
	19	7	12609.37	10966.12	-2850.813	1	11330.62	-14.57237	4.485585E-010	0.177631	6
	20	8	10078.13	11302.8	-2807.602	1	11646.29	-13.94986	-2.002684E-009	0.1776271	6
	21	8	8015.625	11627.97	-2792.699	1	11958.63	-13.50499	-1.697186E-009	0.1776128	6
	22	8	6328.125	11950.51	-2817.768	1	12278.22	-13.26724	2.000783E-009	0.1775725	6
	23	9	5015.625	12256.57	-2886.222	1	12591.82	-13.2508	2.555228E-009	0.1775763	6
	24	9	3984.375	12547.32	-3005.392	1	12902.23	-13.46998	4.769887E-011	0.1775944	6
	25	9	3170.956	12832.85	-3183.486	1	13221.82	-13.9323	-2.190077E-009	0.1776307	6
	26	10	2527.573	13126.63	-3429.35	1	13567.2	-14.64135	-7.578694E-010	0.1776388	6
	27	10	1976.103	13460.3	-3783.481	1	13981.93	-15.69985	-1.467967E-009	0.1776384	6
	28	10	1577.524	13784.44	-4197.679	1	14409.42	-16.93669	-1.955533E-009	0.1776113	6
	29	11	1265.625	14129.22	-4699.708	1	14890.34	-18.39832	1.665545E-009	0.1775677	6
	30	11	998.264	14525.8	-5360.021	1	15483.17	-20.25406	-1.397255E-009	0.177636	6
	31	11	796.875	14928.33	-6132.554	1	16138.88	-22.33284	8.559182E-010	0.1776108	6
	32	12	627.7902	15402.29	-7132.788	1	16973.72	-24.84882	1.540792E-009	0.1776024	6
	33	12	505.5147	15867.62	-8243.134	1	17881.01	-27.4516	2.534971E-010	0.1775676	6
	34	12	397.9953	16441.21	-9742.55	1	19111	-30.64967	3.943766E-010	0.1776239	6
	35	13	315.5048	17078.41	-11534.45	1	20608.63	-34.03439	4.486856E-010	0.1776181	6
	36	13	252.4038	17781.91	-13634.58	1	22407.55	-37.47979	4.302089E-010	0.1776112	6
	37	13	198.6229	18672.26	-16391.63	1	24846.3	-41.2786	5.357027E-010	0.1776163	6
	38	13	158.3615	19681.01	-19577.01	1	27759.71	-44.84822	5.301116E-010	0.1776155	6
	39	14	125.558	20920.35	-23551.77	1	31501.54	-48.38625	5.920021E-010	0.177616	6
	40	14	100.4464	22377.07	-28190.4	1	35992.11	-51.55804	6.557941E-010	0.1776122	6
	41	14	79.00281	24313.28	-34265.35	1	42014.88	-54.64205	7.687521E-010	0.1776129	6
	42	15	63.3446	26565.68	-41068.48	1	48911.71	-57.10266	6.893605E-010	0.1776146	6
	43	15	49.86702	29670.69	-49997.79	1	58138.88	-59.31342	1.596727E-010	0.177615	6
	44	16	39.72458	33519.85	-60235.58	1	68934.06	-60.90497	3.739614E-010	0.1776198	6
	45	16	31.6723	38537.32	-72425.63	1	82040.22	-61.98278	5.436855E-010	0.1776154	6
	46	16	24.93351	45618.66	-87708.35	1	98862.6	-62.52026	-7.974377E-011	0.1776172	6
	47	17	19.86229	54550.87	-104583.6	1	117955.6	-62.45343	-5.24101E-010	0.177605	5
	48	17	15.83615	66120.77	-124008.3	1	140534.7	-61.93362	-6.937156E-010	0.1776073	5
	49	17	12.40079	82549.58	-147442	1	168978	-60.75648	-1.645002E-009	0.1776116	5
	50	17	9.93114	101133.4	-170372	1	198127.7	-59.30647	-1.747272E-009	0.177605	5
	51	18	7.944915	123896.3	-195195.7	1	231196.1	-57.59553	1.10937E-010	0.1776087	5
	52	18	6.317385	151707.4	-221568.3	1	268528.7	-55.60064	6.685131E-012	0.1776082	5
	53	19	5.008013	184035.4	-248456.2	1	309191.8	-53.47207	-5.040092E-010	0.1775997	5
	54	20	3.945707	221491.9	-276141.8	1	353995.7	-51.26708	-1.865716E-010	0.1776104	5
	55	21	3.158693	257770.1	-301928.3	1	396996.4	-49.51108	-2.472142E-010	0.1775882	5
	56	22	2.504006	298021.5	-329353.4	1	444173.9	-47.85905	2.890671E-010	0.1775927	5
	57	23	1.998082	335569	-358780.6	1	491253.5	-46.91464	2.170153E-010	0.1776015	5
	58	25	1.584686	375217.4	-391987.9	1	542625.6	-46.25224	-2.532322E-011	0.1775553	5
	59	27	1.266892	412618	-432796.1	1	597968.3	-46.36726	-4.586296E-011	0.1775631	5
	60	29	0.999041	450426.5	-486221.4	1	662793.5	-47.18855	-3.848492E-011	0.1775745	5
