EXPLAIN
TAG	EISPOT
TITLE	LABEL	Potentiostatic EIS	Test &Identifier
DATE	LABEL	1/21/2020	Date
TIME	LABEL	17:37:35	Time
NOTES	NOTES	6	&Notes...
	
	
	
	
	
	
PSTAT	PSTAT	REF600-11020	Potentiostat
VDC	POTEN	0.00000E+000	T	DC &Voltage (V)
FREQINIT	QUANT	1.00000E+006	Initial Fre&q. (Hz)
FREQFINAL	QUANT	1.00000E+000	Final Fre&q. (Hz)
PTSPERDEC	QUANT	1.00000E+001	Points/&decade
VAC	QUANT	2.50000E+001	AC &Voltage (mV rms)
AREA	QUANT	1.00000E-001	&Area (cm^2)
CONDIT	TWOPARAM	F	5.00000E+000	0.00000E+000	Conditionin&g	Time(s)	E(V)
DELAY	TWOPARAM	F	5.00000E+000	0.00000E+000	Init. De&lay	Time(s)	Stab.(mV/s)
SPEED	SELECTOR	0	&Optimize for:
ZGUESS	QUANT	5.00000E+002	E&stimated Z (ohms)
OCVCURVE	TABLE	39
	Pt	T	Vf	Vm	Ach	Over
	#	s	V vs. Ref.	V	V	bits
	0	0.258333	-3.24819E-002	-3.24819E-002	7.09879E-004	...........
	1	0.516667	-3.24829E-002	-3.25319E-002	7.07179E-004	...........
	2	0.775	-3.24882E-002	-3.25507E-002	7.09612E-004	...........
	3	1.03333	-3.25012E-002	-3.25574E-002	7.08045E-004	...........
	4	1.29167	-3.25203E-002	-3.25774E-002	7.09279E-004	...........
	5	1.55	-3.25404E-002	-3.25919E-002	7.13112E-004	...........
	6	1.80833	-3.25587E-002	-3.26083E-002	7.12312E-004	...........
	7	2.06667	-3.25752E-002	-3.26146E-002	7.07479E-004	...........
	8	2.325	-3.25901E-002	-3.26283E-002	7.11212E-004	...........
	9	2.58333	-3.26036E-002	-3.26421E-002	7.15712E-004	...........
	10	2.84167	-3.26139E-002	-3.25469E-002	7.14045E-004	...........
	11	3.1	-3.26225E-002	-3.29257E-002	7.08612E-004	...........
	12	3.35833	-3.26607E-002	-3.36242E-002	7.04645E-004	...........
	13	3.61667	-3.27888E-002	-3.34578E-002	7.10012E-004	...........
	14	3.875	-3.30167E-002	-3.36863E-002	7.09912E-004	...........
	15	4.13333	-3.32690E-002	-3.36123E-002	7.06879E-004	...........
	16	4.39167	-3.34696E-002	-3.39053E-002	7.08012E-004	...........
	17	4.65	-3.36189E-002	-3.43910E-002	7.07612E-004	...........
	18	4.90833	-3.37829E-002	-3.48006E-002	7.06112E-004	...........
	19	5.16667	-3.40046E-002	-3.40554E-002	7.10912E-004	...........
	20	5.425	-3.42158E-002	-3.40131E-002	7.05612E-004	...........
	21	5.68333	-3.43105E-002	-3.45398E-002	7.11479E-004	...........
	22	5.94167	-3.43095E-002	-3.46469E-002	7.10345E-004	...........
	23	6.2	-3.43293E-002	-3.46041E-002	7.08112E-004	...........
	24	6.45833	-3.44136E-002	-3.45788E-002	7.03779E-004	...........
	25	6.71667	-3.45095E-002	-3.45337E-002	7.11112E-004	...........
	26	6.975	-3.45655E-002	-3.45748E-002	7.08479E-004	...........
	27	7.23333	-3.45779E-002	-3.44992E-002	7.11479E-004	...........
	28	7.49167	-3.45527E-002	-3.37888E-002	7.14512E-004	...........
	29	7.75	-3.44650E-002	-3.39624E-002	7.09479E-004	...........
	30	8.00833	-3.43001E-002	-3.37218E-002	7.11912E-004	...........
	31	8.26667	-3.41042E-002	-3.38494E-002	7.05879E-004	...........
	32	8.525	-3.39445E-002	-3.38090E-002	7.13212E-004	...........
	33	8.78333	-3.38489E-002	-3.36872E-002	7.10512E-004	...........
	34	9.04167	-3.37957E-002	-3.34958E-002	7.11879E-004	...........
	35	9.3	-3.37409E-002	-3.34654E-002	7.11079E-004	...........
	36	9.5583	-3.36627E-002	-3.34761E-002	7.12545E-004	...........
	37	9.8167	-3.35782E-002	-3.34646E-002	7.12379E-004	...........
	38	10.075	-3.35137E-002	-3.34356E-002	7.09112E-004	...........
EOC	QUANT	-0.0335137	Open Circuit (V)
PSTATMODEL	IQUANT	4	Pstat Model
PSTATSECTION	LABEL	REF600-11020	Pstat Section
PSTATSERIALNO	LABEL	11020	Pstat Serial Number
CTRLMODE	IQUANT	1	Control Mode
IESTAB	IQUANT	0	I/E Stability
CASPEED	IQUANT	1	Control Amp Speed
CONVENTION	IQUANT	1	Current Convention
ICHRANGE	IQUANT	2	Ich Range
ICHRANGEMODE	TOGGLE	F	Ich Auto Range
ICHOFFSETENABLE	TOGGLE	T	Ich Offset Enable
ICHOFFSET	QUANT	0	Ich Offset (V)
ICHFILTER	IQUANT	3	Ich Filter
VCHRANGE	IQUANT	2	Vch Range
VCHRANGEMODE	TOGGLE	F	Vch Auto Range
VCHOFFSETENABLE	TOGGLE	T	Vch Offset Enable
VCHOFFSET	QUANT	0	Vch Offset (V)
VCHFILTER	IQUANT	3	Vch Filter
ACHRANGE	IQUANT	2	Ach Range
ACHOFFSETENABLE	TOGGLE	F	Ach Offset Enable
ACHOFFSET	QUANT	0	Ach Offset (V)
ACHFILTER	IQUANT	3	Ach Filter
IERANGELOWERLIMIT	IQUANT	1	I/E Range Lower Limit
IERANGEMODE	TOGGLE	F	I/E AutoRange
IERANGE	IQUANT	8	I/E Range
POSFEEDENABLE	TOGGLE	F	Positive Feedback IR Comp
POSFEEDRESISTANCE	QUANT	0	Positive Feedback Resistance (ohm)
ACHSELECT	IQUANT	0	Ach Select
CABLEID	IQUANT	14	Cable ID
DCCALDATE	LABEL	12/22/2019	DC Calibration Date
ACCALDATE	LABEL	12/22/2019	AC Calibration Date
THERMOSELECT	IQUANT	1	Thermo Select
FRAMEWORKVERSION	QUANT	6.33	Framework Version
INSTRUMENTVERSION	LABEL	3.50	Instrument Version
ZCURVE	TABLE
	Pt	Time	Freq	Zreal	Zimag	Zsig	Zmod	Zphz	Idc	Vdc	IERange
	#	s	Hz	ohm	ohm	V	ohm	°	A	V	#
	0	1	1000078	1896.954	-1604.603	1	2484.589	-40.22735	-2.006057E-006	-0.0308859	8
	1	2	794390.6	2137.734	-1686.169	1	2722.696	-38.26514	-1.445409E-007	-0.0312	8
	2	2	630984.4	2392.955	-1751.465	1	2965.445	-36.20135	-7.520529E-007	-0.0313977	8
	3	2	501234.4	2621.837	-1823.755	1	3193.761	-34.82256	3.751589E-006	-0.0324692	8
	4	3	398109.4	2863.759	-1911.759	1	3443.245	-33.72588	3.142228E-006	-0.0324927	8
	5	3	316265.6	3109.896	-1999.537	1	3697.242	-32.73936	-3.075319E-006	-0.031289	8
	6	3	251203.1	3373.659	-2114.842	1	3981.725	-32.08232	-3.557102E-006	-0.0310702	8
	7	4	199546.9	3627.912	-2285.478	1	4287.792	-32.20972	-2.693915E-006	-0.0313576	8
	8	4	158578.1	3907.597	-2451.894	1	4613.144	-32.10697	-2.750688E-006	-0.0313292	8
	9	4	125953.1	4234.016	-2652.615	1	4996.324	-32.06718	-4.794005E-007	-0.0309087	7
	10	5	100078.1	4554.26	-2891.899	1	5394.846	-32.41505	-3.069395E-008	-0.0318923	7
	11	5	79453.13	4918.995	-3184.692	1	5859.93	-32.92012	-7.092308E-009	-0.0319068	7
	12	5	63140.62	5325.215	-3508.22	1	6376.953	-33.37665	5.92355E-008	-0.0319573	7
	13	6	50203.12	5774.614	-3867.054	1	6949.839	-33.80882	3.504504E-008	-0.0320543	7
	14	6	39890.62	6277.738	-4269.573	1	7592.052	-34.22014	-1.135112E-008	-0.031836	7
	15	6	31640.63	6843.739	-4709.634	1	8307.673	-34.53446	-2.655069E-008	-0.0318449	7
	16	6	25171.88	7455.862	-5178.475	1	9077.802	-34.78194	-3.413318E-009	-0.0319917	7
	17	7	20015.62	8136.046	-5690.312	1	9928.49	-34.96875	-3.479604E-008	-0.0319268	7
	18	7	15890.62	8879.481	-6259.215	1	10863.84	-35.18031	-2.829018E-009	-0.0319933	7
	19	7	12609.37	9727.09	-6839.085	1	11890.73	-35.11092	-2.654875E-009	-0.0319356	6
	20	8	10078.13	10554.87	-7506.989	1	12952.23	-35.42175	6.510515E-009	-0.03211	6
	21	8	8015.625	11477.99	-8290.219	1	14158.82	-35.83948	-6.536454E-009	-0.0318718	6
	22	8	6328.125	12484.78	-9203.432	1	15510.41	-36.39661	-3.535607E-009	-0.0319411	6
	23	9	5015.625	13585.42	-10256.21	1	17022.15	-37.05068	-1.618801E-009	-0.031845	6
	24	9	3984.375	14811.47	-11441.48	1	18715.96	-37.68515	-3.352925E-009	-0.0318934	6
	25	9	3170.956	16171	-12785.11	1	20614.57	-38.33059	-5.938771E-011	-0.0319965	6
	26	10	2527.573	17696.07	-14273.53	1	22735.1	-38.8894	3.158684E-009	-0.0319321	6
	27	10	1976.103	19532.57	-16067.29	1	25291.88	-39.44035	1.017292E-010	-0.0319992	6
	28	10	1577.524	21400.59	-17859.45	1	27873.74	-39.84603	-7.188571E-011	-0.0320344	6
	29	11	1265.625	23297.51	-19808.17	1	30580.02	-40.37208	2.526727E-009	-0.0320264	6
	30	11	998.264	25450.46	-22241.39	1	33799.49	-41.1505	2.687809E-009	-0.0320281	6
	31	11	796.875	27540.99	-24992.81	1	37190.68	-42.22301	-4.764513E-009	-0.0318281	6
	32	12	627.7902	29870.77	-28486.57	1	41276.48	-43.64124	-5.894188E-009	-0.031869	6
	33	12	505.5147	32105.23	-32489.62	1	45676.27	-45.34095	3.897841E-009	-0.0319452	6
	34	12	397.9953	34909.32	-37841.84	1	51484.61	-47.30828	9.673697E-010	-0.031945	6
	35	12	315.5048	38095.19	-44338.74	1	58456.54	-49.33131	9.415588E-010	-0.0319433	6
	36	13	252.4038	41793.73	-51906.41	1	66640.77	-51.15987	1.148498E-009	-0.0319531	6
	37	13	198.6229	46803.09	-61708.73	1	77449.97	-52.82144	1.085134E-009	-0.0319503	6
	38	13	158.3615	52856.63	-72745.73	1	89920.88	-53.99806	8.243226E-010	-0.031951	6
	39	14	125.558	61069.27	-85821.75	1	105332	-54.56501	4.041364E-010	-0.0319502	5
	40	14	100.4464	70792.75	-100259.1	1	122733.5	-54.77417	2.69318E-010	-0.0319559	5
	41	14	79.00281	84847.56	-117276.6	1	144751.2	-54.11491	3.752929E-010	-0.0319524	5
	42	15	63.3446	102352.3	-138091.4	1	171887.3	-53.45445	1.855882E-010	-0.0319591	5
	43	15	49.86702	123298.9	-156824.4	1	199490.6	-51.82476	2.786635E-010	-0.0319598	5
	44	16	39.72458	148371.1	-173868.3	1	228569.8	-49.52411	-1.995765E-010	-0.0319528	5
	45	16	31.6723	178553.3	-190985.1	1	261451	-46.92678	-4.712901E-010	-0.0319579	5
	46	16	24.93351	212043.5	-205145.6	1	295037.6	-44.05275	7.42051E-010	-0.0319595	5
	47	16	19.86229	246403.4	-216541.1	1	328031.6	-41.30925	9.958419E-010	-0.0319502	5
	48	17	15.83615	286775	-228452.8	1	366647.8	-38.54178	-5.04995E-010	-0.0319596	5
	49	17	12.40079	322301.3	-230151.8	1	396040.4	-35.53021	3.937375E-011	-0.0319599	5
	50	17	9.93114	355902.5	-237163	1	427683.1	-33.67832	-5.022801E-010	-0.0319572	5
	51	18	7.944915	383522.3	-241355.5	1	453146.6	-32.18273	-6.710367E-011	-0.0319603	5
	52	19	6.317385	411590	-248784	1	480936.3	-31.15071	-1.056724E-010	-0.0319563	5
	53	19	5.008013	437297	-260196.1	1	508852.3	-30.75307	-2.244077E-010	-0.0319737	5
	54	20	3.945707	463085.9	-279280.4	1	540782.9	-31.09357	2.594864E-010	-0.0319613	5
	55	22	3.158693	487252.8	-303520.2	1	574055.6	-31.91966	-7.819084E-011	-0.0319536	5
	56	23	2.504006	514709.5	-338018.7	1	615778	-33.2936	-2.000661E-010	-0.0319611	5
	57	25	1.998082	541593.9	-378600.5	1	660804.3	-34.95542	8.098398E-011	-0.0319235	5
	58	26	1.584686	576408.2	-433092.1	1	720982.1	-36.91986	1.458665E-010	-0.0319178	5
	59	28	1.266892	615631.8	-494852.1	1	789861.4	-38.79273	7.607939E-011	-0.0319613	5
	60	31	0.999041	667818.8	-571436.8	1	878932.3	-40.55282	-5.779714E-012	-0.0319897	5
