EXPLAIN
TAG	EISPOT
TITLE	LABEL	Potentiostatic EIS	Test &Identifier
DATE	LABEL	1/25/2020	Date
TIME	LABEL	14:07:18	Time
NOTES	NOTES	6	&Notes...
	
	
	
	
	
	
PSTAT	PSTAT	REF600-11020	Potentiostat
VDC	POTEN	0.00000E+000	T	DC &Voltage (V)
FREQINIT	QUANT	1.00000E+006	Initial Fre&q. (Hz)
FREQFINAL	QUANT	1.00000E+000	Final Fre&q. (Hz)
PTSPERDEC	QUANT	1.00000E+001	Points/&decade
VAC	QUANT	2.50000E+001	AC &Voltage (mV rms)
AREA	QUANT	1.00000E-001	&Area (cm^2)
CONDIT	TWOPARAM	F	5.00000E+000	0.00000E+000	Conditionin&g	Time(s)	E(V)
DELAY	TWOPARAM	F	5.00000E+000	0.00000E+000	Init. De&lay	Time(s)	Stab.(mV/s)
SPEED	SELECTOR	0	&Optimize for:
ZGUESS	QUANT	5.00000E+002	E&stimated Z (ohms)
OCVCURVE	TABLE	39
	Pt	T	Vf	Vm	Ach	Over
	#	s	V vs. Ref.	V	V	bits
	0	0.258333	1.71525E-002	1.71525E-002	6.16147E-004	...........
	1	0.516667	1.71490E-002	1.69665E-002	6.19047E-004	...........
	2	0.775	1.71269E-002	1.67775E-002	6.17313E-004	...........
	3	1.03333	1.70640E-002	1.66106E-002	6.21880E-004	...........
	4	1.29167	1.69510E-002	1.64512E-002	6.19080E-004	...........
	5	1.55	1.68016E-002	1.63098E-002	6.20247E-004	...........
	6	1.80833	1.66386E-002	1.61752E-002	6.22580E-004	...........
	7	2.06667	1.64789E-002	1.60490E-002	6.22080E-004	...........
	8	2.325	1.63297E-002	1.59260E-002	6.22580E-004	...........
	9	2.58333	1.61915E-002	1.58155E-002	6.20247E-004	...........
	10	2.84167	1.60628E-002	1.57120E-002	6.25280E-004	...........
	11	3.1	1.59424E-002	1.56140E-002	6.20847E-004	...........
	12	3.35833	1.58298E-002	1.55217E-002	6.16513E-004	...........
	13	3.61667	1.57243E-002	1.54270E-002	6.18380E-004	...........
	14	3.875	1.56247E-002	1.53432E-002	6.22080E-004	...........
	15	4.13333	1.55296E-002	1.52539E-002	6.18980E-004	...........
	16	4.39167	1.54384E-002	1.51833E-002	6.17113E-004	...........
	17	4.65	1.53512E-002	1.51166E-002	6.24413E-004	...........
	18	4.90833	1.52692E-002	1.50430E-002	6.20980E-004	...........
	19	5.16667	1.51925E-002	1.49712E-002	6.22047E-004	...........
	20	5.425	1.51197E-002	1.49103E-002	6.18080E-004	...........
	21	5.68333	1.50494E-002	1.48485E-002	6.16980E-004	...........
	22	5.94167	1.49816E-002	1.47853E-002	6.20180E-004	...........
	23	6.2	1.49164E-002	1.47320E-002	6.18647E-004	...........
	24	6.45833	1.48537E-002	1.46658E-002	6.17713E-004	...........
	25	6.71667	1.47931E-002	1.46239E-002	6.21980E-004	...........
	26	6.975	1.47347E-002	1.45756E-002	6.22580E-004	...........
	27	7.23333	1.46795E-002	1.45261E-002	6.16947E-004	...........
	28	7.49167	1.46278E-002	1.44812E-002	6.13380E-004	...........
	29	7.75	1.45786E-002	1.44264E-002	6.16847E-004	...........
	30	8.00833	1.45302E-002	1.43817E-002	6.23047E-004	...........
	31	8.26667	1.44822E-002	1.43516E-002	6.15947E-004	...........
	32	8.525	1.44351E-002	1.42851E-002	6.19680E-004	...........
	33	8.78333	1.43887E-002	1.42244E-002	6.20247E-004	...........
	34	9.04167	1.43403E-002	1.41723E-002	6.20380E-004	...........
	35	9.3	1.42873E-002	1.40801E-002	6.17680E-004	...........
	36	9.5583	1.42282E-002	1.40097E-002	6.16780E-004	...........
	37	9.8167	1.41637E-002	1.40085E-002	6.16180E-004	...........
	38	10.075	1.41013E-002	1.40292E-002	6.17480E-004	...........
EOC	QUANT	0.0141013	Open Circuit (V)
PSTATMODEL	IQUANT	4	Pstat Model
PSTATSECTION	LABEL	REF600-11020	Pstat Section
PSTATSERIALNO	LABEL	11020	Pstat Serial Number
CTRLMODE	IQUANT	1	Control Mode
IESTAB	IQUANT	0	I/E Stability
CASPEED	IQUANT	1	Control Amp Speed
CONVENTION	IQUANT	1	Current Convention
ICHRANGE	IQUANT	2	Ich Range
ICHRANGEMODE	TOGGLE	F	Ich Auto Range
ICHOFFSETENABLE	TOGGLE	T	Ich Offset Enable
ICHOFFSET	QUANT	0	Ich Offset (V)
ICHFILTER	IQUANT	3	Ich Filter
VCHRANGE	IQUANT	2	Vch Range
VCHRANGEMODE	TOGGLE	F	Vch Auto Range
VCHOFFSETENABLE	TOGGLE	T	Vch Offset Enable
VCHOFFSET	QUANT	0	Vch Offset (V)
VCHFILTER	IQUANT	3	Vch Filter
ACHRANGE	IQUANT	2	Ach Range
ACHOFFSETENABLE	TOGGLE	F	Ach Offset Enable
ACHOFFSET	QUANT	0	Ach Offset (V)
ACHFILTER	IQUANT	3	Ach Filter
IERANGELOWERLIMIT	IQUANT	1	I/E Range Lower Limit
IERANGEMODE	TOGGLE	F	I/E AutoRange
IERANGE	IQUANT	7	I/E Range
POSFEEDENABLE	TOGGLE	F	Positive Feedback IR Comp
POSFEEDRESISTANCE	QUANT	0	Positive Feedback Resistance (ohm)
ACHSELECT	IQUANT	0	Ach Select
CABLEID	IQUANT	14	Cable ID
DCCALDATE	LABEL	12/22/2019	DC Calibration Date
ACCALDATE	LABEL	12/22/2019	AC Calibration Date
THERMOSELECT	IQUANT	1	Thermo Select
FRAMEWORKVERSION	QUANT	6.33	Framework Version
INSTRUMENTVERSION	LABEL	3.50	Instrument Version
ZCURVE	TABLE
	Pt	Time	Freq	Zreal	Zimag	Zsig	Zmod	Zphz	Idc	Vdc	IERange
	#	s	Hz	ohm	ohm	V	ohm	°	A	V	#
	0	1	1000078	2150.122	-2302.783	1	3150.529	-46.96354	1.499505E-006	0.0165247	8
	1	1	794390.6	2559.544	-2471.984	1	3558.366	-44.00301	-4.073662E-006	0.0167324	8
	2	1	630984.4	3073.709	-2589.111	1	4018.854	-40.10881	1.317637E-008	0.0159354	8
	3	2	501234.4	3562.506	-2645.186	1	4437.167	-36.59415	-2.329499E-006	0.0161811	8
	4	2	398109.4	4097.559	-2611.053	1	4858.764	-32.50616	1.476673E-006	0.0153774	8
	5	2	316265.6	4621.142	-2508.895	1	5258.28	-28.49827	3.351661E-006	0.0150637	8
	6	3	251203.1	5056.893	-2326.652	1	5566.459	-24.70693	-2.908481E-007	0.0157758	8
	7	3	199546.9	5441.266	-2127.323	1	5842.335	-21.35357	3.348374E-006	0.0150732	8
	8	3	158578.1	5775.468	-1897.699	1	6079.251	-18.18945	7.104109E-007	0.0154492	8
	9	4	125953.1	6033.276	-1625.058	1	6248.298	-15.07481	7.652887E-007	0.0143179	7
	10	4	100078.1	6219.356	-1421.588	1	6379.757	-12.87518	-1.997833E-009	0.0155466	7
	11	4	79453.13	6377.029	-1249.282	1	6498.247	-11.08407	-1.167992E-008	0.0156171	7
	12	5	63140.62	6498.173	-1098.241	1	6590.325	-9.59278	5.512137E-008	0.0154722	7
	13	5	50203.12	6593.923	-978.176	1	6666.082	-8.438012	2.262054E-008	0.0155566	7
	14	5	39890.62	6673.278	-879.4013	1	6730.973	-7.507153	-1.533604E-008	0.0155789	7
	15	6	31640.63	6744.693	-813.239	1	6793.544	-6.875228	2.195388E-008	0.0155592	7
	16	6	25171.88	6803.004	-769.5962	1	6846.396	-6.4542	1.932523E-011	0.0155341	7
	17	6	20015.62	6855.886	-746.5637	1	6896.415	-6.21467	1.937384E-010	0.0155315	7
	18	6	15890.62	6910.375	-751.3716	1	6951.104	-6.205446	-2.023327E-008	0.015646	7
	19	7	12609.37	6959.964	-774.4235	1	7002.916	-6.349089	5.579492E-008	0.0154649	7
	20	7	10078.13	7015.783	-818.2174	1	7063.334	-6.652083	-2.507924E-008	0.0156037	7
	21	7	8015.625	7069.811	-894.6082	1	7126.188	-7.211832	-3.927475E-010	0.0155884	7
	22	8	6328.125	7129.573	-995.755	1	7198.774	-7.950812	4.120526E-008	0.0155597	7
	23	8	5015.625	7185.278	-1132.976	1	7274.053	-8.960633	-1.635758E-008	0.0155586	7
	24	8	3984.375	7245.518	-1313.085	1	7363.54	-10.27207	5.34427E-008	0.0154527	7
	25	9	3170.956	7322.353	-1530.109	1	7480.513	-11.80293	8.690196E-008	0.0154349	7
	26	9	2527.573	7396.367	-1807.465	1	7614.012	-13.73235	8.698698E-008	0.015437	7
	27	9	1976.103	7491.177	-2183.622	1	7802.944	-16.25101	3.031145E-008	0.0154669	7
	28	10	1577.524	7604.774	-2619.899	1	8043.411	-19.00919	-1.900012E-008	0.0156311	7
	29	10	1265.625	7708.703	-3128.304	1	8319.277	-22.08803	-1.469437E-008	0.0155535	7
	30	10	998.264	7867.582	-3807.067	1	8740.286	-25.82201	-1.448238E-008	0.0155587	7
	31	11	796.875	8040.726	-4604.158	1	9265.611	-29.79566	2.257327E-009	0.015432	6
	32	11	627.7902	8265.944	-5643.541	1	10008.77	-34.32315	-3.680015E-009	0.0156214	6
	33	11	505.5147	8513.147	-6794.911	1	10892.41	-38.5957	-3.905962E-009	0.0156074	6
	34	12	397.9953	8851.754	-8342.578	1	12163.56	-43.30379	4.856952E-010	0.0155702	6
	35	12	315.5048	9252.024	-10190.25	1	13763.76	-47.76277	4.464698E-010	0.0155668	6
	36	12	252.4038	9721.94	-12356.15	1	15722.3	-51.80399	3.880262E-010	0.0155663	6
	37	13	198.6229	10343.75	-15203.97	1	18388.96	-55.77129	4.915563E-010	0.0155658	6
	38	13	158.3615	11069.62	-18502.45	1	21561.01	-59.10883	4.653788E-010	0.0155664	6
	39	13	125.558	11996.46	-22635.72	1	25618.18	-62.07734	5.737269E-010	0.0155608	6
	40	13	100.4464	13119.99	-27477.36	1	30448.96	-64.4763	3.220594E-010	0.0155615	6
	41	14	79.00281	14606.23	-33856.75	1	36873.04	-66.66402	2.434845E-010	0.0155528	6
	42	14	63.3446	16559.52	-41176.45	1	44381.51	-68.09198	4.788266E-010	0.0155539	6
	43	15	49.86702	19003.93	-50679.86	1	54125.75	-69.44497	4.564185E-010	0.0155531	6
	44	15	39.72458	22140.89	-61562.8	1	65423.22	-70.21902	5.230273E-010	0.0155573	6
	45	15	31.6723	26192.81	-74761.98	1	79217.52	-70.69212	5.23104E-010	0.0155581	6
	46	16	24.93351	32117.68	-91608.61	1	97075.7	-70.6795	9.605982E-011	0.0155585	6
	47	16	19.86229	39555.74	-110560.5	1	117423.5	-70.31408	-3.139717E-010	0.0155641	5
	48	16	15.83615	49481.58	-132716.4	1	141640.6	-69.55269	-5.059335E-012	0.015557	5
	49	16	12.40079	63105.88	-160869.3	1	172804.2	-68.5809	6.851488E-010	0.0155551	5
	50	17	9.93114	78995.65	-189848.4	1	205627.7	-67.40788	3.040551E-010	0.0155671	5
	51	17	7.944915	100388.7	-222349.8	1	243961.7	-65.70131	-1.911414E-010	0.0155651	5
	52	17	6.317385	124006.2	-260433.1	1	288449.2	-64.53838	3.655612E-010	0.0155476	5
	53	18	5.008013	154481	-303089.7	1	340187.8	-62.99263	2.37463E-010	0.0155576	5
	54	19	3.945707	189856	-351220.5	1	399250.8	-61.60608	1.394792E-010	0.0155614	5
	55	20	3.158693	228698.5	-401282.1	1	461876.9	-60.32034	-6.047263E-011	0.0155437	5
	56	22	2.504006	273538.3	-459482.6	1	534740.6	-59.2339	8.562601E-011	0.0155412	5
	57	23	1.998082	320917.9	-524382.9	1	614789.2	-58.53373	1.717634E-010	0.0155736	5
	58	25	1.584686	375102.1	-599215.8	1	706937.9	-57.95391	4.287588E-011	0.0155305	5
	59	27	1.266892	435374.4	-685668.3	1	812214.2	-57.58594	7.111641E-012	0.0155047	5
	60	29	0.999041	506318.8	-793952.3	1	941657.6	-57.47355	-1.377181E-011	0.0155077	5
