EXPLAIN
TAG	EISPOT
TITLE	LABEL	Potentiostatic EIS	Test &Identifier
DATE	LABEL	5/26/2020	Date
TIME	LABEL	18:01:25	Time
NOTES	NOTES	1	&Notes...
	
PSTAT	PSTAT	REF600-11020	Potentiostat
VDC	POTEN	0.00000E+000	T	DC &Voltage (V)
FREQINIT	QUANT	1.00000E+006	Initial Fre&q. (Hz)
FREQFINAL	QUANT	1.00000E+000	Final Fre&q. (Hz)
PTSPERDEC	QUANT	1.00000E+001	Points/&decade
VAC	QUANT	2.50000E+001	AC &Voltage (mV rms)
AREA	QUANT	5.00000E-004	&Area (cm^2)
CONDIT	TWOPARAM	F	5.00000E+000	0.00000E+000	Conditionin&g	Time(s)	E(V)
DELAY	TWOPARAM	T	3.00000E+000	0.00000E+000	Init. De&lay	Time(s)	Stab.(mV/s)
SPEED	SELECTOR	0	&Optimize for:
ZGUESS	QUANT	1.00000E+003	E&stimated Z (ohms)
OCVCURVE	TABLE	12
	Pt	T	Vf	Vm	Ach	Over
	#	s	V vs. Ref.	V	V	bits
	0	0.258333	9.48527E-002	9.48527E-002	6.09463E-004	...........
	1	0.516667	9.48516E-002	9.47994E-002	6.09663E-004	...........
	2	0.775	9.48454E-002	9.47494E-002	6.12263E-004	...........
	3	1.03333	9.48278E-002	9.47014E-002	6.10429E-004	...........
	4	1.29167	9.47964E-002	9.46599E-002	6.06030E-004	...........
	5	1.55	9.47552E-002	9.46194E-002	6.07596E-004	...........
	6	1.80833	9.47103E-002	9.45833E-002	6.07896E-004	...........
	7	2.06667	9.46665E-002	9.45504E-002	6.07263E-004	...........
	8	2.325	9.46258E-002	9.45188E-002	6.07430E-004	...........
	9	2.58333	9.45885E-002	9.44871E-002	6.09596E-004	...........
	10	2.84167	9.45540E-002	9.44571E-002	6.06796E-004	...........
	11	3.1	9.45215E-002	9.44290E-002	6.11729E-004	...........
EOC	QUANT	0.0945215	Open Circuit (V)
PSTATMODEL	IQUANT	4	Pstat Model
PSTATSECTION	LABEL	REF600-11020	Pstat Section
PSTATSERIALNO	LABEL	11020	Pstat Serial Number
CTRLMODE	IQUANT	1	Control Mode
IESTAB	IQUANT	0	I/E Stability
CASPEED	IQUANT	1	Control Amp Speed
CONVENTION	IQUANT	1	Current Convention
ICHRANGE	IQUANT	2	Ich Range
ICHRANGEMODE	TOGGLE	F	Ich Auto Range
ICHOFFSETENABLE	TOGGLE	T	Ich Offset Enable
ICHOFFSET	QUANT	0	Ich Offset (V)
ICHFILTER	IQUANT	3	Ich Filter
VCHRANGE	IQUANT	2	Vch Range
VCHRANGEMODE	TOGGLE	F	Vch Auto Range
VCHOFFSETENABLE	TOGGLE	T	Vch Offset Enable
VCHOFFSET	QUANT	0	Vch Offset (V)
VCHFILTER	IQUANT	3	Vch Filter
ACHRANGE	IQUANT	2	Ach Range
ACHOFFSETENABLE	TOGGLE	F	Ach Offset Enable
ACHOFFSET	QUANT	0	Ach Offset (V)
ACHFILTER	IQUANT	3	Ach Filter
IERANGELOWERLIMIT	IQUANT	1	I/E Range Lower Limit
IERANGEMODE	TOGGLE	F	I/E AutoRange
IERANGE	IQUANT	8	I/E Range
POSFEEDENABLE	TOGGLE	F	Positive Feedback IR Comp
POSFEEDRESISTANCE	QUANT	0	Positive Feedback Resistance (ohm)
ACHSELECT	IQUANT	0	Ach Select
CABLEID	IQUANT	14	Cable ID
DCCALDATE	LABEL	2/27/2020	DC Calibration Date
ACCALDATE	LABEL	2/27/2020	AC Calibration Date
THERMOSELECT	IQUANT	1	Thermo Select
FRAMEWORKVERSION	QUANT	6.33	Framework Version
INSTRUMENTVERSION	LABEL	3.50	Instrument Version
ZCURVE	TABLE
	Pt	Time	Freq	Zreal	Zimag	Zsig	Zmod	Zphz	Idc	Vdc	IERange
	#	s	Hz	ohm	ohm	V	ohm	°	A	V	#
	0	1	1000078	2175.528	-2211.238	1	3102.015	-45.4664	8.545727E-008	0.0969909	8
	1	1	794390.6	2636.811	-2312.574	1	3507.246	-41.25187	3.277466E-008	0.0966429	8
	2	2	630984.4	3113.828	-2336.453	1	3892.934	-36.88264	4.580994E-008	0.0964644	8
	3	2	501234.4	3582.282	-2283.56	1	4248.222	-32.51587	1.692633E-008	0.0963418	8
	4	2	398109.4	4008.326	-2153.615	1	4550.246	-28.2485	4.982064E-008	0.0962906	8
	5	3	316265.6	4376.728	-1987.867	1	4807.012	-24.42709	3.237474E-008	0.0962347	8
	6	3	251203.1	4680.689	-1804.294	1	5016.406	-21.08047	3.717358E-008	0.0962249	8
	7	3	199546.9	4923.064	-1625.836	1	5184.583	-18.27575	4.498168E-008	0.0962187	8
	8	4	158578.1	5111.276	-1463.828	1	5316.76	-15.98128	5.27867E-008	0.0962354	8
	9	4	125953.1	5318.791	-1243.503	1	5462.219	-13.15907	-9.897244E-010	0.0961732	7
	10	4	100078.1	5423.406	-1147.938	1	5543.563	-11.95104	1.627901E-009	0.0961403	7
	11	4	79453.13	5530.723	-1089.866	1	5637.083	-11.14769	1.921631E-009	0.0961378	7
	12	5	63140.62	5629.492	-1057.793	1	5728.011	-10.6419	1.485692E-009	0.0961306	7
	13	5	50203.12	5724.475	-1052.306	1	5820.392	-10.41616	1.612274E-009	0.0961307	7
	14	5	39890.62	5819.826	-1072.425	1	5917.81	-10.44083	3.085897E-009	0.0961396	7
	15	6	31640.63	5917.777	-1117.908	1	6022.442	-10.6975	2.48874E-009	0.0961343	7
	16	6	25171.88	6021.443	-1190.385	1	6137.979	-11.18267	3.061318E-009	0.0961309	7
	17	6	20015.62	6133.629	-1288.148	1	6267.435	-11.86055	2.359034E-009	0.0961308	7
	18	7	15890.62	6258.476	-1417.457	1	6416.985	-12.76139	4.484476E-009	0.0961383	7
	19	7	12609.37	6397.235	-1576.391	1	6588.598	-13.84289	3.264635E-009	0.0961332	7
	20	7	10078.13	6546.977	-1764.675	1	6780.633	-15.08503	3.271981E-009	0.0961277	7
	21	8	8015.625	6719.049	-1994.258	1	7008.758	-16.53124	4.195847E-009	0.0961287	7
	22	8	6328.125	6920.906	-2278.278	1	7286.253	-18.22091	4.028947E-009	0.0961243	7
	23	8	5015.625	7145.893	-2607.535	1	7606.774	-20.04702	3.405734E-009	0.096124	7
	24	9	3984.375	7401.842	-2992.333	1	7983.816	-22.01194	3.992221E-009	0.0961238	7
	25	9	3170.956	7689.745	-3438.664	1	8423.573	-24.09301	3.265719E-009	0.0961157	7
	26	9	2527.573	8019.138	-3960.625	1	8943.888	-26.28461	4.853733E-009	0.0961278	7
	27	9	1976.103	8441.795	-4600.115	1	9613.79	-28.58691	3.008063E-010	0.0961696	6
	28	10	1577.524	8872.133	-5314.261	1	10341.96	-30.92091	1.037387E-010	0.0961695	6
	29	10	1265.625	9355.591	-6129.824	1	11184.89	-33.23299	9.280876E-011	0.0961726	6
	30	10	998.264	9948.48	-7152.081	1	12252.53	-35.7128	4.152755E-010	0.0961753	6
	31	11	796.875	10597.51	-8290.12	1	13454.87	-38.03502	-1.276966E-010	0.0961652	6
	32	11	627.7902	11380.25	-9699	1	14952.61	-40.43983	2.458064E-010	0.0961714	6
	33	11	505.5147	12195.83	-11197.22	1	16556.45	-42.55564	-1.220804E-010	0.0961663	6
	34	12	397.9953	13222.84	-13147.37	1	18646.63	-44.83603	5.934174E-010	0.0961893	6
	35	12	315.5048	14358.29	-15389.48	1	21047.49	-46.98532	5.930795E-010	0.0961895	6
	36	12	252.4038	15600.8	-17944.89	1	23778.23	-48.9972	5.618322E-010	0.0961816	6
	37	13	198.6229	17129.63	-21221.67	1	27272.39	-51.09034	5.427152E-010	0.096185	6
	38	13	158.3615	18808.04	-24941.13	1	31237.83	-52.98016	4.245639E-010	0.0961834	6
	39	13	125.558	20831.75	-29512.45	1	36124.04	-54.78315	4.743371E-010	0.0961851	6
	40	14	100.4464	23150.82	-34761.83	1	41765.36	-56.33702	3.872737E-010	0.0961826	6
	41	14	79.00281	26182.27	-41515.7	1	49082.22	-57.76202	4.196343E-010	0.0961778	6
	42	14	63.3446	29587.69	-48883.6	1	57140.51	-58.81482	2.783583E-010	0.0961768	6
	43	15	49.86702	34105.37	-58281.41	1	67527.02	-59.6645	4.46582E-010	0.0961721	6
	44	15	39.72458	39339.41	-68735.05	1	79196.57	-60.21602	6.064456E-010	0.0961823	6
	45	15	31.6723	45615.5	-80844.84	1	92825.97	-60.56678	6.267643E-010	0.0961792	6
	46	16	24.93351	53575.16	-95633.4	1	109617.7	-60.74185	-4.429011E-010	0.0961741	5
	47	16	19.86229	62528.81	-112103.9	1	128363.3	-60.84828	-7.082565E-010	0.0961799	5
	48	16	15.83615	73080.05	-131254.1	1	150227.6	-60.89169	4.777213E-010	0.0961781	5
	49	17	12.40079	86742.34	-155326.4	1	177906	-60.81874	-2.105343E-010	0.0961819	5
	50	17	9.93114	101545.7	-181062.6	1	207593.8	-60.71489	2.125548E-010	0.0961772	5
	51	17	7.944915	119121.7	-210626.3	1	241978.1	-60.50926	8.941111E-010	0.0961769	5
	52	18	6.317385	141431.5	-246027.1	1	283782	-60.10705	3.000385E-011	0.0961867	5
	53	18	5.008013	168652.8	-286869.5	1	332773	-59.5484	1.356422E-010	0.0961874	5
	54	19	3.945707	201914.2	-334592.3	1	390795.8	-58.89056	3.692297E-010	0.0961789	5
	55	20	3.158693	238740.3	-383975.6	1	452144	-58.12834	1.25258E-010	0.0961927	5
	56	21	2.504006	283325.5	-442382.7	1	525334	-57.36234	-3.927837E-011	0.0961793	5
	57	22	1.998082	332717.9	-504287.6	1	604158.3	-56.58404	1.304005E-010	0.096204	5
	58	24	1.584686	391004.3	-578555.9	1	698291.7	-55.94807	1.643292E-010	0.096222	5
	59	26	1.266892	453321.3	-658523.1	1	799470.4	-55.45683	1.582726E-010	0.0961938	5
	60	29	0.999041	530035.3	-753909.2	1	921583.7	-54.89089	1.528153E-010	0.0961578	5
