EXPLAIN
TAG	EISPOT
TITLE	LABEL	Potentiostatic EIS	Test &Identifier
DATE	LABEL	3/20/2020	Date
TIME	LABEL	15:10:15	Time
NOTES	NOTES	1	&Notes...
	
PSTAT	PSTAT	REF600-11020	Potentiostat
VDC	POTEN	0.00000E+000	T	DC &Voltage (V)
FREQINIT	QUANT	1.00000E+006	Initial Fre&q. (Hz)
FREQFINAL	QUANT	1.00000E+000	Final Fre&q. (Hz)
PTSPERDEC	QUANT	1.00000E+001	Points/&decade
VAC	QUANT	2.50000E+001	AC &Voltage (mV rms)
AREA	QUANT	4.00000E-004	&Area (cm^2)
CONDIT	TWOPARAM	F	5.00000E+000	0.00000E+000	Conditionin&g	Time(s)	E(V)
DELAY	TWOPARAM	T	3.00000E+000	0.00000E+000	Init. De&lay	Time(s)	Stab.(mV/s)
SPEED	SELECTOR	0	&Optimize for:
ZGUESS	QUANT	1.00000E+003	E&stimated Z (ohms)
OCVCURVE	TABLE	12
	Pt	T	Vf	Vm	Ach	Over
	#	s	V vs. Ref.	V	V	bits
	0	0.258333	3.54530E-002	3.54530E-002	5.82630E-004	...........
	1	0.516667	3.54524E-002	3.54221E-002	5.83163E-004	...........
	2	0.775	3.54508E-002	3.54953E-002	5.86230E-004	...........
	3	1.03333	3.54495E-002	3.54035E-002	5.83130E-004	...........
	4	1.29167	3.54496E-002	3.54902E-002	5.84363E-004	...........
	5	1.55	3.54515E-002	3.54962E-002	5.79697E-004	...........
	6	1.80833	3.54570E-002	3.54321E-002	5.77597E-004	...........
	7	2.06667	3.54655E-002	3.55533E-002	5.75330E-004	...........
	8	2.325	3.54746E-002	3.54654E-002	5.80430E-004	...........
	9	2.58333	3.54831E-002	3.54588E-002	5.84696E-004	...........
	10	2.84167	3.54885E-002	3.55823E-002	5.86296E-004	...........
	11	3.1	3.54930E-002	3.54677E-002	5.84630E-004	...........
EOC	QUANT	0.035493	Open Circuit (V)
PSTATMODEL	IQUANT	4	Pstat Model
PSTATSECTION	LABEL	REF600-11020	Pstat Section
PSTATSERIALNO	LABEL	11020	Pstat Serial Number
CTRLMODE	IQUANT	1	Control Mode
IESTAB	IQUANT	0	I/E Stability
CASPEED	IQUANT	1	Control Amp Speed
CONVENTION	IQUANT	1	Current Convention
ICHRANGE	IQUANT	2	Ich Range
ICHRANGEMODE	TOGGLE	F	Ich Auto Range
ICHOFFSETENABLE	TOGGLE	T	Ich Offset Enable
ICHOFFSET	QUANT	0	Ich Offset (V)
ICHFILTER	IQUANT	3	Ich Filter
VCHRANGE	IQUANT	2	Vch Range
VCHRANGEMODE	TOGGLE	F	Vch Auto Range
VCHOFFSETENABLE	TOGGLE	T	Vch Offset Enable
VCHOFFSET	QUANT	0	Vch Offset (V)
VCHFILTER	IQUANT	3	Vch Filter
ACHRANGE	IQUANT	2	Ach Range
ACHOFFSETENABLE	TOGGLE	F	Ach Offset Enable
ACHOFFSET	QUANT	0	Ach Offset (V)
ACHFILTER	IQUANT	3	Ach Filter
IERANGELOWERLIMIT	IQUANT	1	I/E Range Lower Limit
IERANGEMODE	TOGGLE	F	I/E AutoRange
IERANGE	IQUANT	7	I/E Range
POSFEEDENABLE	TOGGLE	F	Positive Feedback IR Comp
POSFEEDRESISTANCE	QUANT	0	Positive Feedback Resistance (ohm)
ACHSELECT	IQUANT	0	Ach Select
CABLEID	IQUANT	14	Cable ID
DCCALDATE	LABEL	2/27/2020	DC Calibration Date
ACCALDATE	LABEL	2/27/2020	AC Calibration Date
THERMOSELECT	IQUANT	1	Thermo Select
FRAMEWORKVERSION	QUANT	6.33	Framework Version
INSTRUMENTVERSION	LABEL	3.50	Instrument Version
ZCURVE	TABLE
	Pt	Time	Freq	Zreal	Zimag	Zsig	Zmod	Zphz	Idc	Vdc	IERange
	#	s	Hz	ohm	ohm	V	ohm	°	A	V	#
	0	1	1000078	1568.714	-1521.895	1	2185.641	-44.13211	4.164487E-007	0.0376979	8
	1	1	794390.6	1788.664	-1651.538	1	2434.522	-42.71741	-1.766328E-007	0.037459	8
	2	2	630984.4	2023.49	-1787.02	1	2699.621	-41.44893	2.288699E-007	0.0372701	8
	3	2	501234.4	2274.341	-1932.709	1	2984.626	-40.35751	2.821145E-007	0.0371987	8
	4	2	398109.4	2542.321	-2092.007	1	3292.399	-39.45004	-2.730121E-007	0.0372127	8
	5	3	316265.6	2840.672	-2259.468	1	3629.685	-38.4987	-1.450755E-008	0.037148	8
	6	3	251203.1	3163.122	-2447.341	1	3999.352	-37.7295	-3.346302E-008	0.0371501	8
	7	3	199546.9	3518.385	-2637.974	1	4397.492	-36.86141	2.739E-008	0.0371552	8
	8	4	158578.1	3910.692	-2852.434	1	4840.443	-36.10678	5.931733E-007	0.0370542	8
	9	4	125953.1	4407.336	-2999.244	1	5331.048	-34.23574	-1.845188E-008	0.0371303	7
	10	4	100078.1	4856.741	-3199.133	1	5815.702	-33.37288	1.173156E-009	0.0370671	7
	11	5	79453.13	5358.023	-3413.164	1	6352.803	-32.49792	-3.598966E-010	0.0370711	7
	12	5	63140.62	5897.467	-3607.363	1	6913.261	-31.45329	4.374294E-009	0.0370594	7
	13	5	50203.12	6467.862	-3784.175	1	7493.545	-30.33077	5.842498E-010	0.0370525	7
	14	6	39890.62	7064.435	-3949.145	1	8093.33	-29.20597	6.59852E-009	0.0370694	7
	15	6	31640.63	7681.414	-4091.453	1	8703.109	-28.04169	4.507461E-009	0.0370686	7
	16	6	25171.88	8298.989	-4215.453	1	9308.236	-26.92819	5.303812E-009	0.0370563	7
	17	7	20015.62	8924.059	-4337.02	1	9922.13	-25.91938	-3.188332E-010	0.0370704	7
	18	7	15890.62	9554.42	-4456.911	1	10542.82	-25.00793	4.723272E-009	0.0370709	7
	19	7	12609.37	10278.77	-4446.624	1	11199.35	-23.39344	8.677385E-010	0.0371027	6
	20	8	10078.13	10870.43	-4609.698	1	11807.43	-22.97979	5.466957E-011	0.0371163	6
	21	8	8015.625	11479.63	-4803.768	1	12444.2	-22.70737	6.544321E-010	0.0371157	6
	22	8	6328.125	12124.96	-5041.651	1	13131.37	-22.57791	5.941104E-010	0.0371172	6
	23	8	5015.625	12780.68	-5321.106	1	13844.13	-22.6039	4.000215E-010	0.037101	6
	24	9	3984.375	13456.04	-5647.922	1	14593.28	-22.76933	2.968772E-010	0.0370952	6
	25	9	3170.956	14164.68	-6029.517	1	15394.59	-23.05812	1.90146E-009	0.0370758	6
	26	9	2527.573	14903.07	-6461.304	1	16243.46	-23.4394	-2.5178E-010	0.0371146	6
	27	10	1976.103	15740.08	-7010.233	1	17230.6	-24.00698	6.903699E-010	0.0371055	6
	28	10	1577.524	16536.81	-7607.641	1	18202.81	-24.70445	-1.691155E-010	0.0371076	6
	29	10	1265.625	17368.63	-8303.567	1	19251.46	-25.55146	2.267126E-010	0.0371012	6
	30	11	998.264	18336.56	-9208.779	1	20519.04	-26.66619	1.046261E-010	0.0371152	6
	31	11	796.875	19361.07	-10246.98	1	21905.52	-27.89035	2.785867E-010	0.0371012	6
	32	11	627.7902	20602.54	-11534.91	1	23611.83	-29.2435	1.036853E-009	0.0371092	6
	33	12	505.5147	21947.86	-12872.06	1	25444.03	-30.39092	1.426178E-010	0.0370984	6
	34	12	397.9953	23668.26	-14522.82	1	27768.67	-31.53324	5.30252E-010	0.0371197	6
	35	12	315.5048	25617.75	-16228.99	1	30325.72	-32.3545	5.3701E-010	0.0371203	6
	36	13	252.4038	27749.4	-17962.09	1	33055.5	-32.91483	4.702397E-010	0.0371154	6
	37	13	198.6229	30213.66	-19857.88	1	36155.23	-33.31485	4.721949E-010	0.0371178	6
	38	13	158.3615	32645.92	-21737.18	1	39220.67	-33.65754	4.745626E-010	0.0371132	6
	39	14	125.558	35163.88	-23852.78	1	42490.62	-34.1503	3.375102E-010	0.0371204	6
	40	14	100.4464	37519.16	-26189.76	1	45755.77	-34.91647	1.57776E-010	0.0371184	6
	41	14	79.00281	39941.13	-29259.59	1	49511.79	-36.2253	3.27438E-010	0.0371157	6
	42	15	63.3446	42100.2	-32869.53	1	53411.92	-37.98077	2.721103E-010	0.0371156	6
	43	15	49.86702	44502.9	-37824.52	1	58405.5	-40.36233	1.879073E-011	0.0371067	6
	44	15	39.72458	46905.5	-43835.31	1	64200.16	-43.06215	2.504405E-011	0.0371131	6
	45	16	31.6723	49576.05	-51398.3	1	71411.28	-46.03389	-1.607019E-010	0.0371103	6
	46	16	24.93351	52905.14	-61420.96	1	81064.71	-49.25993	-2.67299E-010	0.0371093	6
	47	16	19.86229	56799.73	-73256.85	1	92697.23	-52.21177	-1.042305E-010	0.0371104	6
	48	17	15.83615	61703.36	-87639.13	1	107181.7	-54.85209	-1.604616E-009	0.0371151	5
	49	17	12.40079	68440.76	-106345.8	1	126465.7	-57.23597	2.229094E-011	0.0371107	5
	50	17	9.93114	76241.41	-126894.6	1	148037.2	-59.00152	3.314259E-010	0.0371174	5
	51	18	7.944915	86499.72	-151605.9	1	174546.7	-60.2928	-8.001079E-010	0.037109	5
	52	18	6.317385	99511.2	-181228.1	1	206751.3	-61.2291	-3.223307E-010	0.0371087	5
	53	19	5.008013	116443.6	-216511.2	1	245837.8	-61.72784	-6.415687E-011	0.037115	5
	54	20	3.945707	139022.2	-258596.7	1	293597.4	-61.73742	-9.639855E-011	0.0371023	5
	55	21	3.158693	164613	-303782.1	1	345515.6	-61.54768	-1.4906E-010	0.0371225	5
	56	22	2.504006	198022	-357309.6	1	408512.9	-61.00465	-4.300152E-010	0.0371084	5
	57	23	1.998082	236020.2	-415464.8	1	477824.8	-60.39965	-3.230044E-010	0.0370999	5
	58	24	1.584686	284780.1	-482579.1	1	560341.3	-59.45425	-1.853616E-010	0.0371432	5
	59	26	1.266892	338769.1	-556616.1	1	651602.6	-58.67437	-1.701656E-010	0.0371373	5
	60	29	0.999041	404737	-642919.8	1	759709.1	-57.80837	-1.420559E-010	0.0371152	5
