EXPLAIN
TAG	EISPOT
TITLE	LABEL	Potentiostatic EIS	Test &Identifier
DATE	LABEL	6/26/2020	Date
TIME	LABEL	14:21:52	Time
NOTES	NOTES	1	&Notes...
	
PSTAT	PSTAT	REF600-11020	Potentiostat
VDC	POTEN	0.00000E+000	T	DC &Voltage (V)
FREQINIT	QUANT	1.00000E+006	Initial Fre&q. (Hz)
FREQFINAL	QUANT	1.00000E+000	Final Fre&q. (Hz)
PTSPERDEC	QUANT	1.00000E+001	Points/&decade
VAC	QUANT	2.50000E+001	AC &Voltage (mV rms)
AREA	QUANT	4.00000E-004	&Area (cm^2)
CONDIT	TWOPARAM	F	5.00000E+000	0.00000E+000	Conditionin&g	Time(s)	E(V)
DELAY	TWOPARAM	F	3.00000E+000	0.00000E+000	Init. De&lay	Time(s)	Stab.(mV/s)
SPEED	SELECTOR	0	&Optimize for:
ZGUESS	QUANT	1.00000E+003	E&stimated Z (ohms)
OCVCURVE	TABLE	39
	Pt	T	Vf	Vm	Ach	Over
	#	s	V vs. Ref.	V	V	bits
	0	0.258333	1.05875E-001	1.05875E-001	5.33050E-004	...........
	1	0.516667	1.05875E-001	1.05863E-001	5.24383E-004	...........
	2	0.775	1.05874E-001	1.05854E-001	5.31350E-004	...........
	3	1.03333	1.05870E-001	1.05842E-001	5.31383E-004	...........
	4	1.29167	1.05863E-001	1.05831E-001	5.31717E-004	...........
	5	1.55	1.05854E-001	1.05822E-001	5.37216E-004	...........
	6	1.80833	1.05843E-001	1.05811E-001	5.34783E-004	...........
	7	2.06667	1.05833E-001	1.05801E-001	5.31016E-004	...........
	8	2.325	1.05822E-001	1.05787E-001	5.34383E-004	...........
	9	2.58333	1.05812E-001	1.05777E-001	5.33083E-004	...........
	10	2.84167	1.05801E-001	1.05767E-001	5.31283E-004	...........
	11	3.1	1.05790E-001	1.05757E-001	5.32150E-004	...........
	12	3.35833	1.05779E-001	1.05747E-001	5.29250E-004	...........
	13	3.61667	1.05768E-001	1.05739E-001	5.26150E-004	...........
	14	3.875	1.05758E-001	1.05728E-001	5.28883E-004	...........
	15	4.13333	1.05748E-001	1.05717E-001	5.29450E-004	...........
	16	4.39167	1.05739E-001	1.05707E-001	5.26717E-004	...........
	17	4.65	1.05729E-001	1.05700E-001	5.28517E-004	...........
	18	4.90833	1.05719E-001	1.05689E-001	5.31717E-004	...........
	19	5.16667	1.05709E-001	1.05677E-001	5.28117E-004	...........
	20	5.425	1.05699E-001	1.05669E-001	5.31583E-004	...........
	21	5.68333	1.05689E-001	1.05658E-001	5.33317E-004	...........
	22	5.94167	1.05679E-001	1.05647E-001	5.32317E-004	...........
	23	6.2	1.05669E-001	1.05636E-001	5.30350E-004	...........
	24	6.45833	1.05658E-001	1.05624E-001	5.30150E-004	...........
	25	6.71667	1.05648E-001	1.05616E-001	5.32883E-004	...........
	26	6.975	1.05637E-001	1.05609E-001	5.29617E-004	...........
	27	7.23333	1.05627E-001	1.05599E-001	5.29717E-004	...........
	28	7.49167	1.05618E-001	1.05588E-001	5.31083E-004	...........
	29	7.75	1.05608E-001	1.05577E-001	5.34117E-004	...........
	30	8.00833	1.05599E-001	1.05571E-001	5.28683E-004	...........
	31	8.26667	1.05589E-001	1.05560E-001	5.26550E-004	...........
	32	8.525	1.05580E-001	1.05551E-001	5.25083E-004	...........
	33	8.78333	1.05570E-001	1.05543E-001	5.27517E-004	...........
	34	9.04167	1.05561E-001	1.05533E-001	5.26783E-004	...........
	35	9.3	1.05552E-001	1.05521E-001	5.27050E-004	...........
	36	9.5583	1.05543E-001	1.05515E-001	5.27850E-004	...........
	37	9.8167	1.05533E-001	1.05510E-001	5.27950E-004	...........
	38	10.075	1.05524E-001	1.05504E-001	5.24083E-004	...........
EOC	QUANT	0.1055244	Open Circuit (V)
PSTATMODEL	IQUANT	4	Pstat Model
PSTATSECTION	LABEL	REF600-11020	Pstat Section
PSTATSERIALNO	LABEL	11020	Pstat Serial Number
CTRLMODE	IQUANT	1	Control Mode
IESTAB	IQUANT	0	I/E Stability
CASPEED	IQUANT	1	Control Amp Speed
CONVENTION	IQUANT	1	Current Convention
ICHRANGE	IQUANT	2	Ich Range
ICHRANGEMODE	TOGGLE	F	Ich Auto Range
ICHOFFSETENABLE	TOGGLE	T	Ich Offset Enable
ICHOFFSET	QUANT	0	Ich Offset (V)
ICHFILTER	IQUANT	3	Ich Filter
VCHRANGE	IQUANT	2	Vch Range
VCHRANGEMODE	TOGGLE	F	Vch Auto Range
VCHOFFSETENABLE	TOGGLE	T	Vch Offset Enable
VCHOFFSET	QUANT	0	Vch Offset (V)
VCHFILTER	IQUANT	3	Vch Filter
ACHRANGE	IQUANT	2	Ach Range
ACHOFFSETENABLE	TOGGLE	F	Ach Offset Enable
ACHOFFSET	QUANT	0	Ach Offset (V)
ACHFILTER	IQUANT	3	Ach Filter
IERANGELOWERLIMIT	IQUANT	1	I/E Range Lower Limit
IERANGEMODE	TOGGLE	F	I/E AutoRange
IERANGE	IQUANT	8	I/E Range
POSFEEDENABLE	TOGGLE	F	Positive Feedback IR Comp
POSFEEDRESISTANCE	QUANT	0	Positive Feedback Resistance (ohm)
ACHSELECT	IQUANT	0	Ach Select
CABLEID	IQUANT	14	Cable ID
DCCALDATE	LABEL	6/26/2020	DC Calibration Date
ACCALDATE	LABEL	6/26/2020	AC Calibration Date
THERMOSELECT	IQUANT	1	Thermo Select
FRAMEWORKVERSION	QUANT	6.33	Framework Version
INSTRUMENTVERSION	LABEL	3.50	Instrument Version
ZCURVE	TABLE
	Pt	Time	Freq	Zreal	Zimag	Zsig	Zmod	Zphz	Idc	Vdc	IERange
	#	s	Hz	ohm	ohm	V	ohm	°	A	V	#
	0	1	1000078	1606.385	-1996.719	1	2562.686	-51.1829	6.083054E-008	0.1079881	8
	1	1	794390.6	1900.97	-2211.207	1	2916.011	-49.31442	6.794805E-008	0.1076551	8
	2	1	630984.4	2223.972	-2436.041	1	3298.537	-47.60564	-5.165481E-010	0.1075027	8
	3	2	501234.4	2575.591	-2661.395	1	3703.606	-45.93866	7.647478E-008	0.1073953	8
	4	2	398109.4	2964.338	-2911.138	1	4154.759	-44.48122	4.831166E-008	0.1073158	8
	5	2	316265.6	3394.551	-3167.228	1	4642.662	-43.01587	3.307012E-008	0.1072877	8
	6	3	251203.1	3875.118	-3450.495	1	5188.686	-41.68262	5.347215E-008	0.1072749	8
	7	3	199546.9	4417.546	-3740.68	1	5788.558	-40.25719	2.380147E-008	0.1072829	8
	8	3	158578.1	5049.096	-4012.37	1	6449.224	-38.47314	-2.771116E-009	0.1072814	8
	9	3	125953.1	5796.369	-4213.917	1	7166.24	-36.01688	1.589267E-008	0.1072786	7
	10	4	100078.1	6568.419	-4414	1	7913.755	-33.90123	1.22574E-008	0.1072374	7
	11	4	79453.13	7387.946	-4529.602	1	8665.971	-31.51275	-6.226202E-009	0.1072402	7
	12	4	63140.62	8212.398	-4542.964	1	9385.202	-28.95065	9.733473E-009	0.1072266	7
	13	5	50203.12	9016.427	-4460.248	1	10059.31	-26.32069	5.863737E-009	0.1072344	7
	14	5	39890.62	9783.41	-4317.049	1	10693.55	-23.81007	1.133731E-008	0.1072119	7
	15	5	31640.63	10483.12	-4105.207	1	11258.27	-21.38539	-1.07265E-008	0.1072302	7
	16	6	25171.88	11100.3	-3880.049	1	11758.89	-19.26679	-3.124213E-009	0.107217	7
	17	6	20015.62	11640.24	-3650.972	1	12199.38	-17.41408	1.22682E-008	0.1072106	7
	18	6	15890.62	12112.14	-3432.578	1	12589.14	-15.82272	3.332928E-010	0.1072301	7
	19	7	12609.37	12600.86	-3144.625	1	12987.32	-14.01232	-5.094037E-010	0.1072112	6
	20	7	10078.13	12954.56	-3022.743	1	13302.54	-13.13407	2.425727E-010	0.107236	6
	21	7	8015.625	13282.69	-2945.593	1	13605.38	-12.50366	-9.136792E-010	0.1072378	6
	22	8	6328.125	13604.7	-2920.911	1	13914.73	-12.11738	1.806039E-009	0.1071912	6
	23	8	5015.625	13907.08	-2948.262	1	14216.16	-11.96934	-9.94786E-010	0.1072322	6
	24	8	3984.375	14212.72	-3032.942	1	14532.73	-12.04603	1.591937E-009	0.1072016	6
	25	9	3170.956	14512.71	-3172.888	1	14855.51	-12.33242	1.060473E-009	0.1071849	6
	26	9	2527.573	14823.63	-3369.163	1	15201.68	-12.80484	5.143094E-010	0.1071832	6
	27	9	1976.103	15189.54	-3654.513	1	15622.98	-13.52791	1.759148E-009	0.1071909	6
	28	9	1577.524	15532.62	-3984.619	1	16035.57	-14.38796	-7.320918E-010	0.1072009	6
	29	10	1265.625	15886.66	-4379.698	1	16479.31	-15.41268	1.419112E-009	0.1071765	6
	30	10	998.264	16284.85	-4903.37	1	17007.04	-16.75705	-7.391817E-010	0.107195	6
	31	10	796.875	16681.91	-5516.251	1	17570.29	-18.29764	-6.938062E-010	0.1071993	6
	32	11	627.7902	17132.95	-6323.515	1	18262.66	-20.25835	1.335564E-009	0.1071763	6
	33	11	505.5147	17562.95	-7219.438	1	18988.88	-22.34564	-4.218984E-010	0.1072153	6
	34	11	397.9953	18081.46	-8445.411	1	19956.56	-25.03613	2.808161E-010	0.1072291	6
	35	12	315.5048	18652.09	-9918.22	1	21125.14	-28.00175	3.561758E-010	0.1072279	6
	36	12	252.4038	19272.23	-11654.65	1	22522.2	-31.16296	2.331126E-010	0.1072266	6
	37	12	198.6229	20060.76	-13946.92	1	24432.58	-34.80834	2.755097E-010	0.1072233	6
	38	13	158.3615	20959.53	-16598.18	1	26735.77	-38.37625	1.590774E-010	0.1072198	6
	39	13	125.558	22088.44	-19896.54	1	29728.3	-42.01149	1.275323E-010	0.1072214	6
	40	13	100.4464	23429.96	-23721.62	1	33341.84	-45.3544	2.81139E-012	0.1072199	6
	41	14	79.00281	25236.65	-28675.85	1	38199.38	-48.65008	1.079957E-010	0.1072185	6
	42	14	63.3446	27297.2	-34134.39	1	43706.91	-51.35075	7.334924E-011	0.1072166	6
	43	14	49.86702	30066.09	-41176.47	1	50985.02	-53.86396	7.138945E-011	0.1072134	6
	44	15	39.72458	33347.93	-49152.36	1	59397.29	-55.84466	6.80609E-011	0.107222	6
	45	15	31.6723	37373.37	-58557.72	1	69467.8	-57.45271	3.020641E-011	0.1072201	6
	46	15	24.93351	42691.25	-70364.86	1	82302.84	-58.75428	1.702121E-011	0.1072154	6
	47	16	19.86229	49060.21	-83676.87	1	96998.6	-59.61667	-6.956047E-010	0.1072162	6
	48	16	15.83615	57091.34	-98955.6	1	114243.7	-60.01767	7.921985E-010	0.1072018	5
	49	16	12.40079	68066.02	-118184.9	1	136384.3	-60.06115	1.528294E-009	0.1071993	5
	50	16	9.93114	80364.23	-137695.3	1	159431.5	-59.73053	1.504178E-009	0.1072089	5
	51	17	7.944915	95257.7	-160071.4	1	186271	-59.24332	2.433487E-010	0.107204	5
	52	17	6.317385	113376.5	-185237.4	1	217179.9	-58.53085	5.27058E-011	0.1072101	5
	53	18	5.008013	134549.3	-213406.6	1	252281.4	-57.76925	4.046548E-010	0.1072194	5
	54	19	3.945707	159386.9	-245801.5	1	292954.9	-57.03911	2.80612E-010	0.1072005	5
	55	20	3.158693	184386.8	-279651.5	1	334967.9	-56.60134	2.517997E-010	0.1072283	5
	56	21	2.504006	213539.6	-319986.5	1	384695.3	-56.28325	-3.402635E-011	0.1072037	5
	57	22	1.998082	243098.9	-365366.4	1	438850.4	-56.36194	6.272313E-011	0.1071945	5
	58	24	1.584686	278054.3	-420045.2	1	503738.2	-56.49693	1.859029E-010	0.1072383	5
	59	26	1.266892	314432	-484431.6	1	577530.5	-57.01344	1.679412E-010	0.1072373	5
	60	28	0.999041	356726.9	-565282.2	1	668429.5	-57.74562	1.578271E-010	0.1072195	5
