EXPLAIN
TAG	EISPOT
TITLE	LABEL	Potentiostatic EIS	Test &Identifier
DATE	LABEL	1/10/2020	Date
TIME	LABEL	13:58:43	Time
NOTES	NOTES	5	&Notes...
	
	
	
	
	
PSTAT	PSTAT	REF600-11020	Potentiostat
VDC	POTEN	0.00000E+000	T	DC &Voltage (V)
FREQINIT	QUANT	1.00000E+006	Initial Fre&q. (Hz)
FREQFINAL	QUANT	1.00000E+000	Final Fre&q. (Hz)
PTSPERDEC	QUANT	1.00000E+001	Points/&decade
VAC	QUANT	2.50000E+001	AC &Voltage (mV rms)
AREA	QUANT	1.00000E-001	&Area (cm^2)
CONDIT	TWOPARAM	T	5.00000E+000	0.00000E+000	Conditionin&g	Time(s)	E(V)
DELAY	TWOPARAM	T	5.00000E+000	0.00000E+000	Init. De&lay	Time(s)	Stab.(mV/s)
SPEED	SELECTOR	0	&Optimize for:
ZGUESS	QUANT	5.00000E+002	E&stimated Z (ohms)
OCVCURVE	TABLE	19
	Pt	T	Vf	Vm	Ach	Over
	#	s	V vs. Ref.	V	V	bits
	0	0.258333	1.97125E-003	1.97125E-003	6.45780E-004	...........
	1	0.516667	1.96188E-003	1.48090E-003	6.51080E-004	...........
	2	0.775	1.90514E-003	1.05718E-003	6.54113E-004	...........
	3	1.03333	1.74832E-003	7.06427E-004	6.51280E-004	...........
	4	1.29167	1.47739E-003	3.67470E-004	6.53513E-004	...........
	5	1.55	1.13408E-003	1.05055E-004	6.51713E-004	...........
	6	1.80833	7.76121E-004	-1.69444E-004	6.53146E-004	...........
	7	2.06667	4.41355E-004	-3.78513E-004	6.47913E-004	...........
	8	2.325	1.42540E-004	-6.21083E-004	6.45846E-004	...........
	9	2.58333	-1.22988E-004	-8.06371E-004	6.54013E-004	...........
	10	2.84167	-3.63334E-004	-1.03173E-003	6.53913E-004	...........
	11	3.1	-5.86383E-004	-1.20680E-003	6.50746E-004	...........
	12	3.35833	-7.97502E-004	-1.39976E-003	6.42080E-004	...........
	13	3.61667	-9.98916E-004	-1.56024E-003	6.45446E-004	...........
	14	3.875	-1.19010E-003	-1.69825E-003	6.45746E-004	...........
	15	4.13333	-1.36869E-003	-1.83791E-003	6.49913E-004	...........
	16	4.39167	-1.53198E-003	-1.92885E-003	6.45880E-004	...........
	17	4.65	-1.67816E-003	-2.04077E-003	6.48813E-004	...........
	18	4.90833	-1.80658E-003	-2.09578E-003	6.48713E-004	...........
EOC	QUANT	-0.0018066	Open Circuit (V)
PSTATMODEL	IQUANT	4	Pstat Model
PSTATSECTION	LABEL	REF600-11020	Pstat Section
PSTATSERIALNO	LABEL	11020	Pstat Serial Number
CTRLMODE	IQUANT	1	Control Mode
IESTAB	IQUANT	0	I/E Stability
CASPEED	IQUANT	1	Control Amp Speed
CONVENTION	IQUANT	1	Current Convention
ICHRANGE	IQUANT	2	Ich Range
ICHRANGEMODE	TOGGLE	F	Ich Auto Range
ICHOFFSETENABLE	TOGGLE	T	Ich Offset Enable
ICHOFFSET	QUANT	0	Ich Offset (V)
ICHFILTER	IQUANT	3	Ich Filter
VCHRANGE	IQUANT	2	Vch Range
VCHRANGEMODE	TOGGLE	F	Vch Auto Range
VCHOFFSETENABLE	TOGGLE	T	Vch Offset Enable
VCHOFFSET	QUANT	0	Vch Offset (V)
VCHFILTER	IQUANT	3	Vch Filter
ACHRANGE	IQUANT	2	Ach Range
ACHOFFSETENABLE	TOGGLE	F	Ach Offset Enable
ACHOFFSET	QUANT	0	Ach Offset (V)
ACHFILTER	IQUANT	3	Ach Filter
IERANGELOWERLIMIT	IQUANT	1	I/E Range Lower Limit
IERANGEMODE	TOGGLE	F	I/E AutoRange
IERANGE	IQUANT	6	I/E Range
POSFEEDENABLE	TOGGLE	F	Positive Feedback IR Comp
POSFEEDRESISTANCE	QUANT	0	Positive Feedback Resistance (ohm)
ACHSELECT	IQUANT	0	Ach Select
CABLEID	IQUANT	14	Cable ID
DCCALDATE	LABEL	12/22/2019	DC Calibration Date
ACCALDATE	LABEL	12/22/2019	AC Calibration Date
THERMOSELECT	IQUANT	1	Thermo Select
FRAMEWORKVERSION	QUANT	6.33	Framework Version
INSTRUMENTVERSION	LABEL	3.50	Instrument Version
ZCURVE	TABLE
	Pt	Time	Freq	Zreal	Zimag	Zsig	Zmod	Zphz	Idc	Vdc	IERange
	#	s	Hz	ohm	ohm	V	ohm	°	A	V	#
	0	2	1000078	2061.175	-2283.624	1	3076.261	-47.93093	8.105511E-007	0.0004241	8
	1	2	794390.6	2487.553	-2442.156	1	3485.979	-44.47239	-2.728146E-007	0.0002905	8
	2	2	630984.4	2936.987	-2549.708	1	3889.332	-40.96246	-7.267521E-008	0.0001644	8
	3	3	501234.4	3387.631	-2615.052	1	4279.55	-37.66603	2.958707E-006	-0.0004865	8
	4	3	398109.4	3840.154	-2610.558	1	4643.468	-34.20809	-3.528969E-007	-3.301402E-005	8
	5	3	316265.6	4302.135	-2593.143	1	5023.221	-31.07977	-1.19534E-006	0.0001759	8
	6	4	251203.1	4712.891	-2558.194	1	5362.434	-28.49345	1.703398E-006	-0.0004462	8
	7	4	199546.9	5090.153	-2496.317	1	5669.326	-26.12429	-5.185637E-007	6.91903E-006	8
	8	4	158578.1	5429.441	-2425.978	1	5946.78	-24.076	5.211199E-007	-0.0002702	8
	9	4	125953.1	5784.173	-2347.714	1	6242.469	-22.09154	7.509029E-007	-0.0017807	7
	10	5	100078.1	6061.032	-2327.489	1	6492.558	-21.00722	-3.6265E-008	-0.0001479	7
	11	5	79453.13	6343.141	-2341.409	1	6761.482	-20.26034	4.940718E-008	-0.0002739	7
	12	6	63140.62	6614.554	-2386.997	1	7032.075	-19.84302	3.200307E-008	-0.0002423	7
	13	6	50203.12	6886.676	-2468.178	1	7315.614	-19.71763	1.127151E-008	-0.0001472	7
	14	6	39890.62	7167.149	-2588.261	1	7620.179	-19.85609	7.706829E-008	-0.0003059	7
	15	7	31640.63	7458.226	-2746.251	1	7947.769	-20.2146	4.205996E-009	-0.0001889	7
	16	7	25171.88	7764.735	-2948.762	1	8305.8	-20.79494	-2.763304E-008	-0.000176	7
	17	7	20015.62	8095.918	-3203.426	1	8706.654	-21.58792	-3.711838E-008	-0.0001684	7
	18	8	15890.62	8456.553	-3509.249	1	9155.77	-22.53718	-3.280077E-008	-8.885043E-005	7
	19	8	12609.37	8882.078	-3835.903	1	9674.99	-23.35806	-4.175538E-009	-0.0001709	6
	20	8	10078.13	9301.445	-4248.076	1	10225.61	-24.54672	-3.902217E-009	-0.0001087	6
	21	8	8015.625	9782.8	-4734.914	1	10868.42	-25.82716	-4.616369E-009	-0.0001099	6
	22	9	6328.125	10332.07	-5326.372	1	11624.19	-27.27194	3.329951E-009	-0.0003249	6
	23	9	5015.625	10942.41	-5996.866	1	12477.93	-28.72445	-3.358549E-009	-0.000173	6
	24	9	3984.375	11621.34	-6760.089	1	13444.49	-30.1864	4.996025E-010	-0.0002222	6
	25	10	3170.956	12372.7	-7621.501	1	14531.72	-31.6328	-4.19444E-009	-0.0001462	6
	26	10	2527.573	13206.07	-8606.931	1	15763.24	-33.09391	5.585239E-009	-0.0003214	6
	27	10	1976.103	14240.33	-9833.34	1	17305.54	-34.62614	-5.245822E-009	-0.0001866	6
	28	11	1577.524	15325.69	-11155.74	1	18955.93	-36.05128	-4.996731E-009	-0.0001439	6
	29	11	1265.625	16485.76	-12578.61	1	20736.48	-37.34357	-4.288049E-009	-0.0001498	6
	30	11	998.264	17926.95	-14356.72	1	22967.17	-38.68933	-3.58762E-010	-0.0001523	6
	31	12	796.875	19481.45	-16308.12	1	25406.33	-39.93304	-5.143309E-009	-0.0001098	6
	32	12	627.7902	21310.61	-18656.53	1	28323.28	-41.20075	7.413929E-009	-0.0002347	6
	33	12	505.5147	23221.3	-21148	1	31408.07	-42.3246	-4.3068E-009	-0.0001509	6
	34	13	397.9953	25630.44	-24278.98	1	35304.23	-43.44891	5.443876E-010	-0.0002083	6
	35	13	315.5048	28276.76	-27793.29	1	39648.99	-44.50597	1.186572E-009	-0.0002075	6
	36	13	252.4038	31239.71	-31688.93	1	44498.4	-45.40901	9.87723E-010	-0.0002095	6
	37	14	198.6229	34918.91	-36488.91	1	50505.16	-46.25952	5.046598E-010	-0.0002136	6
	38	14	158.3615	38873.84	-41707.16	1	57014.59	-47.01376	4.570652E-011	-0.0002144	6
	39	14	125.558	43647.91	-47762.52	1	64702.38	-47.57728	3.78586E-010	-0.0002128	6
	40	15	100.4464	48795.27	-54451.64	1	73116.07	-48.13581	1.296997E-009	-0.0002164	6
	41	15	79.00281	55089.2	-62125.78	1	83032.72	-48.43542	9.792203E-010	-0.0002168	6
	42	15	63.3446	64016.81	-70978.55	1	95583	-47.95214	3.415601E-010	-0.000218	6
	43	16	49.86702	71737.46	-81143.33	1	108307.4	-48.52064	-7.183635E-010	-0.0002216	5
	44	16	39.72458	79251.42	-91222.42	1	120840.1	-49.01683	4.10018E-010	-0.0002167	5
	45	16	31.6723	88289.54	-103317.3	1	135902.6	-49.48455	-5.355345E-011	-0.000226	5
	46	17	24.93351	100073.5	-119443.9	1	155825.4	-50.04276	3.722205E-010	-0.0002264	5
	47	17	19.86229	112359.4	-136458.4	1	176764.1	-50.53207	1.163577E-009	-0.0002169	5
	48	17	15.83615	123742.6	-156521.5	1	199527.5	-51.67086	7.31492E-010	-0.0002258	5
	49	18	12.40079	143122.2	-182698	1	232083	-51.92552	-1.806113E-010	-0.0002259	5
	50	18	9.93114	165310	-209617.6	1	266958.7	-51.73975	-2.160603E-010	-0.0002186	5
	51	19	7.944915	188715.7	-241151.1	1	306214.7	-51.95462	3.684426E-010	-0.0002265	5
	52	19	6.317385	218115.8	-274411.9	1	350537.3	-51.52063	1.43455E-010	-0.0002264	5
	53	20	5.008013	252106.5	-312376.6	1	401418.5	-51.0944	-4.872862E-011	-0.0002306	5
	54	21	3.945707	292910.9	-354125.7	1	459567	-50.40455	3.20465E-010	-0.0002187	5
	55	22	3.158693	335206.7	-396596.1	1	519280.2	-49.7952	8.86676E-011	-0.0002182	5
	56	24	2.504006	381657.5	-445390.2	1	586544.9	-49.40653	2.587834E-010	-0.000233	5
	57	25	1.998082	430517.8	-496607.8	1	657240.4	-49.07743	2.72032E-010	-0.0001801	5
	58	27	1.584686	479837.2	-561011.9	1	738226.3	-49.45942	2.464363E-010	-0.0002028	5
	59	29	1.266892	532070.9	-632312.8	1	826389	-49.92047	1.870898E-010	-0.0002459	5
	60	31	0.999041	593764.9	-726343.8	1	938153.6	-50.735	1.459995E-010	-0.0002641	5
