EXPLAIN
TAG	EISPOT
TITLE	LABEL	Potentiostatic EIS	Test &Identifier
DATE	LABEL	2/21/2020	Date
TIME	LABEL	16:16:55	Time
NOTES	NOTES	1	&Notes...
	
PSTAT	PSTAT	REF600-11020	Potentiostat
VDC	POTEN	0.00000E+000	T	DC &Voltage (V)
FREQINIT	QUANT	1.00000E+006	Initial Fre&q. (Hz)
FREQFINAL	QUANT	1.00000E+000	Final Fre&q. (Hz)
PTSPERDEC	QUANT	1.00000E+001	Points/&decade
VAC	QUANT	2.50000E+001	AC &Voltage (mV rms)
AREA	QUANT	2.08200E-005	&Area (cm^2)
CONDIT	TWOPARAM	F	1.50000E+001	0.00000E+000	Conditionin&g	Time(s)	E(V)
DELAY	TWOPARAM	F	1.00000E+002	0.00000E+000	Init. De&lay	Time(s)	Stab.(mV/s)
SPEED	SELECTOR	1	&Optimize for:
ZGUESS	QUANT	2.00000E+003	E&stimated Z (ohms)
OCVCURVE	TABLE	39
	Pt	T	Vf	Vm	Ach	Over
	#	s	V vs. Ref.	V	V	bits
	0	0.258333	-6.29081E-003	-6.29081E-003	5.74038E-004	...........
	1	0.516667	-6.29049E-003	-6.27415E-003	5.67304E-004	...........
	2	0.775	-6.28755E-003	-6.20659E-003	5.66804E-004	...........
	3	1.03333	-6.27572E-003	-6.13068E-003	5.69804E-004	...........
	4	1.29167	-6.24782E-003	-6.08608E-003	5.69871E-004	...........
	5	1.55	-6.20288E-003	-6.01909E-003	5.67138E-004	...........
	6	1.80833	-6.14396E-003	-5.79825E-003	5.70671E-004	...........
	7	2.06667	-6.06794E-003	-5.74511E-003	5.73638E-004	...........
	8	2.325	-5.97264E-003	-5.72101E-003	5.69404E-004	...........
	9	2.58333	-5.87430E-003	-5.78339E-003	5.66804E-004	...........
	10	2.84167	-5.80238E-003	-5.86268E-003	5.70071E-004	...........
	11	3.1	-5.77649E-003	-5.88857E-003	5.69271E-004	...........
	12	3.35833	-5.79064E-003	-5.78359E-003	5.77304E-004	...........
	13	3.61667	-5.81671E-003	-5.81838E-003	5.75504E-004	...........
	14	3.875	-5.83019E-003	-5.84662E-003	5.75571E-004	...........
	15	4.13333	-5.83155E-003	-5.87855E-003	5.71804E-004	...........
	16	4.39167	-5.83479E-003	-5.86773E-003	5.69704E-004	...........
	17	4.65	-5.84450E-003	-5.82842E-003	5.72304E-004	...........
	18	4.90833	-5.85371E-003	-5.88502E-003	5.70804E-004	...........
	19	5.16667	-5.85907E-003	-5.91455E-003	5.66671E-004	...........
	20	5.425	-5.86587E-003	-5.87526E-003	5.70204E-004	...........
	21	5.68333	-5.87582E-003	-5.87354E-003	5.69771E-004	...........
	22	5.94167	-5.88258E-003	-5.86738E-003	5.67838E-004	...........
	23	6.2	-5.88192E-003	-5.85748E-003	5.72804E-004	...........
	24	6.45833	-5.87544E-003	-5.82829E-003	5.74071E-004	...........
	25	6.71667	-5.86492E-003	-5.81136E-003	5.74904E-004	...........
	26	6.975	-5.85097E-003	-5.81803E-003	5.72871E-004	...........
	27	7.23333	-5.83617E-003	-5.81563E-003	5.72804E-004	...........
	28	7.49167	-5.82460E-003	-5.81341E-003	5.74337E-004	...........
	29	7.75	-5.81820E-003	-5.82510E-003	5.76938E-004	...........
	30	8.00833	-5.81646E-003	-5.82875E-003	5.70771E-004	...........
	31	8.26667	-5.81778E-003	-5.80438E-003	5.72038E-004	...........
	32	8.525	-5.81882E-003	-5.79374E-003	5.72338E-004	...........
	33	8.78333	-5.81598E-003	-5.79708E-003	5.70038E-004	...........
	34	9.04167	-5.80941E-003	-5.79542E-003	5.70838E-004	...........
	35	9.3	-5.80249E-003	-5.79190E-003	5.68038E-004	...........
	36	9.5583	-5.79758E-003	-5.79088E-003	5.65171E-004	...........
	37	9.8167	-5.79455E-003	-5.78847E-003	5.71071E-004	...........
	38	10.075	-5.79248E-003	-5.78949E-003	5.65004E-004	...........
EOC	QUANT	-0.0057925	Open Circuit (V)
PSTATMODEL	IQUANT	4	Pstat Model
PSTATSECTION	LABEL	REF600-11020	Pstat Section
PSTATSERIALNO	LABEL	11020	Pstat Serial Number
CTRLMODE	IQUANT	1	Control Mode
IESTAB	IQUANT	0	I/E Stability
CASPEED	IQUANT	1	Control Amp Speed
CONVENTION	IQUANT	1	Current Convention
ICHRANGE	IQUANT	2	Ich Range
ICHRANGEMODE	TOGGLE	F	Ich Auto Range
ICHOFFSETENABLE	TOGGLE	T	Ich Offset Enable
ICHOFFSET	QUANT	0	Ich Offset (V)
ICHFILTER	IQUANT	3	Ich Filter
VCHRANGE	IQUANT	2	Vch Range
VCHRANGEMODE	TOGGLE	F	Vch Auto Range
VCHOFFSETENABLE	TOGGLE	T	Vch Offset Enable
VCHOFFSET	QUANT	0	Vch Offset (V)
VCHFILTER	IQUANT	3	Vch Filter
ACHRANGE	IQUANT	2	Ach Range
ACHOFFSETENABLE	TOGGLE	F	Ach Offset Enable
ACHOFFSET	QUANT	0	Ach Offset (V)
ACHFILTER	IQUANT	3	Ach Filter
IERANGELOWERLIMIT	IQUANT	1	I/E Range Lower Limit
IERANGEMODE	TOGGLE	F	I/E AutoRange
IERANGE	IQUANT	6	I/E Range
POSFEEDENABLE	TOGGLE	F	Positive Feedback IR Comp
POSFEEDRESISTANCE	QUANT	0	Positive Feedback Resistance (ohm)
ACHSELECT	IQUANT	0	Ach Select
CABLEID	IQUANT	14	Cable ID
DCCALDATE	LABEL	1/27/2020	DC Calibration Date
ACCALDATE	LABEL	1/27/2020	AC Calibration Date
THERMOSELECT	IQUANT	1	Thermo Select
FRAMEWORKVERSION	QUANT	6.33	Framework Version
INSTRUMENTVERSION	LABEL	3.50	Instrument Version
ZCURVE	TABLE
	Pt	Time	Freq	Zreal	Zimag	Zsig	Zmod	Zphz	Idc	Vdc	IERange
	#	s	Hz	ohm	ohm	V	ohm	°	A	V	#
	0	1	1000078	1888.685	-2086.558	1	2814.401	-47.84962	-1.841968E-006	-0.003557	8
	1	3	794390.6	2320.028	-2191.751	1	3191.599	-43.37144	-8.596929E-007	-0.0036646	8
	2	4	630984.4	2795.026	-2215.145	1	3566.376	-38.39792	1.110816E-006	-0.0041821	8
	3	5	501234.4	3246.325	-2138.032	1	3887.134	-33.36893	-1.344356E-006	-0.0039871	8
	4	7	398109.4	3663.398	-2006.773	1	4177.035	-28.7135	1.751593E-006	-0.0045493	8
	5	8	316265.6	3996.871	-1841.794	1	4400.816	-24.74067	-1.391433E-006	-0.003934	8
	6	10	251203.1	4272.408	-1648.009	1	4579.236	-21.09327	8.158407E-007	-0.0043189	8
	7	11	199546.9	4493.559	-1450.474	1	4721.858	-17.88953	6.11821E-007	-0.0043475	8
	8	12	158578.1	4673.96	-1288.708	1	4848.368	-15.41464	7.465567E-007	-0.0043234	8
	9	14	125953.1	4813.748	-1113.755	1	4940.913	-13.02727	-5.170837E-007	-0.0030769	7
	10	15	100078.1	4919.567	-996.604	1	5019.498	-11.45197	-1.986445E-008	-0.004194	7
	11	16	79453.13	5005.381	-911.5985	1	5087.715	-10.32179	6.248499E-009	-0.004279	7
	12	18	63140.62	5081.431	-853.2534	1	5152.57	-9.53195	8.947313E-009	-0.0042396	7
	13	19	50203.12	5150.98	-817.8244	1	5215.5	-9.021585	5.17922E-008	-0.0043219	7
	14	20	39890.62	5217.635	-805.9431	1	5279.513	-8.780808	5.985736E-008	-0.0043724	7
	15	22	31640.63	5285.438	-815.833	1	5348.031	-8.774632	5.2747E-008	-0.0043311	7
	16	23	25171.88	5354.276	-846.1825	1	5420.729	-8.98067	-3.599708E-009	-0.0042995	7
	17	25	20015.62	5427.909	-899.1901	1	5501.885	-9.406222	8.689449E-009	-0.0042991	7
	18	26	15890.62	5508.957	-973.113	1	5594.243	-10.0175	8.730089E-009	-0.0043024	7
	19	27	12609.37	5599.095	-1073.137	1	5701.008	-10.84988	1.352918E-008	-0.0042634	7
	20	29	10078.13	5694.618	-1192.345	1	5818.106	-11.82581	1.411831E-008	-0.0042599	7
	21	30	8015.625	5803.105	-1338.522	1	5955.474	-12.98847	8.87229E-009	-0.0042979	7
	22	31	6328.125	5925.492	-1526.116	1	6118.863	-14.4427	-5.317994E-009	-0.004271	7
	23	33	5015.625	6063.501	-1749.714	1	6310.907	-16.09629	-1.410668E-008	-0.0042576	7
	24	34	3984.375	6218.071	-2013.325	1	6535.892	-17.94123	-1.177795E-008	-0.0042833	7
	25	35	3170.956	6389.894	-2326.05	1	6800.092	-20.00253	5.469175E-008	-0.0043353	7
	26	37	2527.573	6584.385	-2694.558	1	7114.405	-22.25607	-4.008274E-009	-0.0043063	7
	27	38	1976.103	6825.042	-3177.122	1	7528.3	-24.96242	1.432438E-008	-0.0043025	7
	28	40	1577.524	7080.233	-3709.673	1	7993.208	-27.65219	1.122988E-008	-0.0042629	7
	29	41	1265.625	7364.377	-4319.174	1	8537.523	-30.39143	4.18049E-009	-0.0042763	7
	30	42	998.264	7718.413	-5108.146	1	9255.649	-33.49711	-3.459114E-009	-0.0043075	7
	31	44	796.875	8106.605	-6005.224	1	10088.6	-36.53036	1.381504E-009	-0.0043793	6
	32	45	627.7902	8582.417	-7143.662	1	11166.46	-39.77265	3.936227E-009	-0.0043048	6
	33	46	505.5147	9087.856	-8380.629	1	12362.2	-42.68159	-1.978589E-009	-0.0042517	6
	34	48	397.9953	9739.5	-10018.27	1	13972.24	-45.80836	7.262428E-010	-0.0042781	6
	35	49	315.5048	10496.77	-11938.56	1	15896.9	-48.67701	1.331258E-009	-0.0042796	6
	36	50	252.4038	11369.37	-14152.81	1	18153.92	-51.22407	1.292975E-009	-0.0042785	6
	37	52	198.6229	12511.41	-17008.03	1	21114.17	-53.66114	8.806199E-010	-0.0042762	6
	38	53	158.3615	13845.59	-20248.13	1	24529.31	-55.63584	1.163498E-009	-0.0042763	6
	39	55	125.558	15536.57	-24203.02	1	28760.58	-57.30251	7.764153E-010	-0.0042757	6
	40	56	100.4464	17584.98	-28705.73	1	33663.78	-58.50859	7.00712E-010	-0.0042809	6
	41	57	79.00281	20257.75	-34329.99	1	39861.32	-59.45561	6.572203E-010	-0.0042771	6
	42	59	63.3446	23676.82	-40347.62	1	46781.65	-59.59471	5.932009E-010	-0.0042816	6
	43	60	49.86702	27433.13	-48201.56	1	55461.41	-60.35434	2.631577E-010	-0.0042813	6
	44	62	39.72458	32376.14	-56376.62	1	65011.83	-60.13197	6.905551E-010	-0.0042803	6
	45	63	31.6723	38242.79	-65711.48	1	76029.66	-59.80144	7.012562E-010	-0.0042837	6
	46	64	24.93351	45366.84	-77171.19	1	89518.39	-59.54989	3.729151E-010	-0.0042839	6
	47	66	19.86229	53395.33	-89506.85	1	104223.5	-59.1818	4.642452E-010	-0.0042796	5
	48	67	15.83615	63125.26	-103276.4	1	121040.5	-58.56561	6.376905E-010	-0.0042845	5
	49	68	12.40079	74210.08	-121262.1	1	142167.6	-58.53416	3.843613E-010	-0.0042827	5
	50	70	9.93114	87455.88	-139188	1	164383.2	-57.85766	1.504866E-010	-0.0042805	5
	51	72	7.944915	101823.9	-160045.1	1	189690.7	-57.53465	5.246007E-010	-0.0042839	5
	52	73	6.317385	119719.7	-183995	1	219515.2	-56.94923	6.456668E-010	-0.0042861	5
	53	75	5.008013	140633.4	-211926	1	254343	-56.43187	5.202899E-010	-0.0042756	5
	54	78	3.945707	165760.4	-244177.8	1	295125.9	-55.82933	7.661785E-011	-0.004288	5
	55	80	3.158693	192405.6	-277983.2	1	338074.8	-55.31102	2.835399E-010	-0.0042666	5
	56	84	2.504006	224033.2	-317749	1	388787	-54.81374	1.346256E-010	-0.0042924	5
	57	87	1.998082	258099.8	-361362	1	444069.8	-54.46399	-8.971174E-011	-0.0042665	5
	58	90	1.584686	298555.4	-413412.5	1	509946.3	-54.1642	2.85986E-010	-0.0042504	5
	59	93	1.266892	341354.9	-469580.4	1	580541.9	-53.98525	4.486228E-011	-0.0042577	5
	60	98	0.999041	393497.5	-539888.7	1	668071.9	-53.91359	2.688733E-010	-0.004312	5
