EXPLAIN
TAG	EISPOT
TITLE	LABEL	Potentiostatic EIS	Test &Identifier
DATE	LABEL	3/3/2020	Date
TIME	LABEL	19:24:09	Time
NOTES	NOTES	1	&Notes...
	
PSTAT	PSTAT	REF600-11020	Potentiostat
VDC	POTEN	0.00000E+000	T	DC &Voltage (V)
FREQINIT	QUANT	1.00000E+006	Initial Fre&q. (Hz)
FREQFINAL	QUANT	1.00000E+000	Final Fre&q. (Hz)
PTSPERDEC	QUANT	1.00000E+001	Points/&decade
VAC	QUANT	2.50000E+001	AC &Voltage (mV rms)
AREA	QUANT	1.60000E-004	&Area (cm^2)
CONDIT	TWOPARAM	F	1.50000E+001	0.00000E+000	Conditionin&g	Time(s)	E(V)
DELAY	TWOPARAM	F	1.00000E+002	0.00000E+000	Init. De&lay	Time(s)	Stab.(mV/s)
SPEED	SELECTOR	1	&Optimize for:
ZGUESS	QUANT	1.00000E+004	E&stimated Z (ohms)
OCVCURVE	TABLE	39
	Pt	T	Vf	Vm	Ach	Over
	#	s	V vs. Ref.	V	V	bits
	0	0.258333	1.02902E-001	1.02902E-001	5.79797E-004	...........
	1	0.516667	1.02902E-001	1.02886E-001	5.79230E-004	...........
	2	0.775	1.02900E-001	1.02878E-001	5.75230E-004	...........
	3	1.03333	1.02895E-001	1.02869E-001	5.77097E-004	...........
	4	1.29167	1.02888E-001	1.02854E-001	5.75797E-004	...........
	5	1.55	1.02878E-001	1.02842E-001	5.76397E-004	...........
	6	1.80833	1.02868E-001	1.02832E-001	5.75263E-004	...........
	7	2.06667	1.02856E-001	1.02817E-001	5.73563E-004	...........
	8	2.325	1.02844E-001	1.02800E-001	5.77630E-004	...........
	9	2.58333	1.02831E-001	1.02794E-001	5.83863E-004	...........
	10	2.84167	1.02818E-001	1.02790E-001	5.79530E-004	...........
	11	3.1	1.02806E-001	1.02777E-001	5.80530E-004	...........
	12	3.35833	1.02796E-001	1.02767E-001	5.83630E-004	...........
	13	3.61667	1.02787E-001	1.02759E-001	5.86696E-004	...........
	14	3.875	1.02778E-001	1.02746E-001	5.78530E-004	...........
	15	4.13333	1.02768E-001	1.02736E-001	5.82963E-004	...........
	16	4.39167	1.02758E-001	1.02726E-001	5.85563E-004	...........
	17	4.65	1.02748E-001	1.02719E-001	5.81197E-004	...........
	18	4.90833	1.02738E-001	1.02711E-001	5.77763E-004	...........
	19	5.16667	1.02728E-001	1.02698E-001	5.83363E-004	...........
	20	5.425	1.02719E-001	1.02686E-001	5.81963E-004	...........
	21	5.68333	1.02709E-001	1.02678E-001	5.80330E-004	...........
	22	5.94167	1.02699E-001	1.02670E-001	5.81463E-004	...........
	23	6.2	1.02689E-001	1.02663E-001	5.80697E-004	...........
	24	6.45833	1.02680E-001	1.02647E-001	5.81630E-004	...........
	25	6.71667	1.02670E-001	1.02643E-001	5.78963E-004	...........
	26	6.975	1.02661E-001	1.02630E-001	5.82130E-004	...........
	27	7.23333	1.02651E-001	1.02628E-001	5.88630E-004	...........
	28	7.49167	1.02642E-001	1.02611E-001	5.84530E-004	...........
	29	7.75	1.02633E-001	1.02614E-001	5.76530E-004	...........
	30	8.00833	1.02625E-001	1.02601E-001	5.75997E-004	...........
	31	8.26667	1.02618E-001	1.02593E-001	5.77897E-004	...........
	32	8.525	1.02610E-001	1.02580E-001	5.72730E-004	...........
	33	8.78333	1.02602E-001	1.02577E-001	5.74763E-004	...........
	34	9.04167	1.02593E-001	1.02568E-001	5.79197E-004	...........
	35	9.3	1.02584E-001	1.02561E-001	5.80530E-004	...........
	36	9.5583	1.02576E-001	1.02557E-001	5.77263E-004	...........
	37	9.8167	1.02569E-001	1.02546E-001	5.83697E-004	...........
	38	10.075	1.02562E-001	1.02541E-001	5.76797E-004	...........
EOC	QUANT	0.1025622	Open Circuit (V)
PSTATMODEL	IQUANT	4	Pstat Model
PSTATSECTION	LABEL	REF600-11020	Pstat Section
PSTATSERIALNO	LABEL	11020	Pstat Serial Number
CTRLMODE	IQUANT	1	Control Mode
IESTAB	IQUANT	0	I/E Stability
CASPEED	IQUANT	1	Control Amp Speed
CONVENTION	IQUANT	1	Current Convention
ICHRANGE	IQUANT	2	Ich Range
ICHRANGEMODE	TOGGLE	F	Ich Auto Range
ICHOFFSETENABLE	TOGGLE	T	Ich Offset Enable
ICHOFFSET	QUANT	0	Ich Offset (V)
ICHFILTER	IQUANT	3	Ich Filter
VCHRANGE	IQUANT	2	Vch Range
VCHRANGEMODE	TOGGLE	F	Vch Auto Range
VCHOFFSETENABLE	TOGGLE	T	Vch Offset Enable
VCHOFFSET	QUANT	0	Vch Offset (V)
VCHFILTER	IQUANT	3	Vch Filter
ACHRANGE	IQUANT	2	Ach Range
ACHOFFSETENABLE	TOGGLE	F	Ach Offset Enable
ACHOFFSET	QUANT	0	Ach Offset (V)
ACHFILTER	IQUANT	3	Ach Filter
IERANGELOWERLIMIT	IQUANT	1	I/E Range Lower Limit
IERANGEMODE	TOGGLE	F	I/E AutoRange
IERANGE	IQUANT	7	I/E Range
POSFEEDENABLE	TOGGLE	F	Positive Feedback IR Comp
POSFEEDRESISTANCE	QUANT	0	Positive Feedback Resistance (ohm)
ACHSELECT	IQUANT	0	Ach Select
CABLEID	IQUANT	14	Cable ID
DCCALDATE	LABEL	2/27/2020	DC Calibration Date
ACCALDATE	LABEL	2/27/2020	AC Calibration Date
THERMOSELECT	IQUANT	1	Thermo Select
FRAMEWORKVERSION	QUANT	6.33	Framework Version
INSTRUMENTVERSION	LABEL	3.50	Instrument Version
ZCURVE	TABLE
	Pt	Time	Freq	Zreal	Zimag	Zsig	Zmod	Zphz	Idc	Vdc	IERange
	#	s	Hz	ohm	ohm	V	ohm	°	A	V	#
	0	1	1000078	2138.774	-2099.272	1	2996.881	-44.46597	-3.14977E-006	0.1050893	8
	1	3	794390.6	2588.248	-2184.175	1	3386.687	-40.16041	4.47975E-006	0.1037764	8
	2	4	630984.4	3028.749	-2190.986	1	3738.146	-35.88183	-1.323047E-006	0.1043475	8
	3	5	501234.4	3463.267	-2129.01	1	4065.329	-31.58072	-1.256846E-007	0.1042426	8
	4	7	398109.4	3866.775	-2008.43	1	4357.263	-27.44769	-1.225051E-006	0.1045879	8
	5	8	316265.6	4212.181	-1861.884	1	4605.332	-23.84657	4.483401E-007	0.1040284	8
	6	9	251203.1	4499.851	-1678.566	1	4802.733	-20.45688	-1.145274E-006	0.1045096	8
	7	11	199546.9	4726.632	-1481.106	1	4953.254	-17.39856	-1.937631E-007	0.1041416	8
	8	12	158578.1	4936.755	-1299.177	1	5104.842	-14.74389	-1.132473E-006	0.1045037	8
	9	13	125953.1	5099.25	-1106.594	1	5217.94	-12.24397	5.628327E-008	0.1037069	7
	10	15	100078.1	5199.832	-963.268	1	5288.302	-10.49506	9.167295E-008	0.1040028	7
	11	16	79453.13	5297.411	-850.1989	1	5365.203	-9.117833	-5.046367E-008	0.1041548	7
	12	17	63140.62	5367.716	-760.9598	1	5421.387	-8.068827	-9.553369E-009	0.1038666	7
	13	19	50203.12	5428.963	-690.701	1	5472.724	-7.250516	-9.803884E-008	0.1040852	7
	14	20	39890.62	5485.414	-641.5504	1	5522.803	-6.670762	-7.122892E-008	0.1040825	7
	15	22	31640.63	5530.32	-610.1354	1	5563.875	-6.295725	2.652189E-008	0.1039067	7
	16	23	25171.88	5576.141	-597.3918	1	5608.05	-6.114977	-7.740789E-008	0.1040916	7
	17	24	20015.62	5617.241	-602.7566	1	5649.488	-6.124673	-2.111741E-008	0.1039615	7
	18	26	15890.62	5659.733	-622.9263	1	5693.911	-6.280855	6.27487E-008	0.1039981	7
	19	27	12609.37	5698.176	-671.7047	1	5737.63	-6.723037	3.310719E-008	0.1040574	7
	20	28	10078.13	5744.353	-726.2883	1	5790.084	-7.205967	-7.16493E-008	0.1040329	7
	21	30	8015.625	5790.229	-816.0198	1	5847.448	-8.021892	-8.225016E-009	0.103918	7
	22	31	6328.125	5840.817	-932.9019	1	5914.85	-9.074697	-8.232815E-009	0.1039152	7
	23	32	5015.625	5893.223	-1084.594	1	5992.196	-10.42807	-7.281857E-008	0.1040358	7
	24	34	3984.375	5953.616	-1273.22	1	6088.237	-12.07125	-6.76044E-008	0.1041238	7
	25	35	3170.956	6022.248	-1508.128	1	6208.213	-14.05922	9.150602E-008	0.103943	7
	26	36	2527.573	6098.855	-1795.742	1	6357.729	-16.4065	9.368266E-009	0.1040849	7
	27	38	1976.103	6199.042	-2181.264	1	6571.608	-19.3855	-7.492245E-008	0.1041053	7
	28	39	1577.524	6310.065	-2619.553	1	6832.202	-22.54523	-3.764565E-008	0.1040135	7
	29	40	1265.625	6435.037	-3147.637	1	7163.611	-26.06513	6.701723E-008	0.1039804	7
	30	42	998.264	6597.169	-3835.04	1	7630.87	-30.17012	-3.056557E-008	0.1041067	7
	31	43	796.875	6784.01	-4636.446	1	8217.021	-34.35016	1.820932E-008	0.1040769	7
	32	44	627.7902	7025.745	-5678.212	1	9033.448	-38.94517	1.886149E-008	0.1039535	7
	33	46	505.5147	7302.778	-6825.346	1	9995.79	-43.06454	-3.947385E-009	0.1040044	6
	34	47	397.9953	7667.3	-8373.124	1	11353.27	-47.51955	5.86346E-010	0.1040682	6
	35	49	315.5048	8110.713	-10218.73	1	13046.31	-51.56061	6.323082E-010	0.1040685	6
	36	50	252.4038	8639.448	-12377.53	1	15094.48	-55.08516	5.289956E-010	0.1040712	6
	37	51	198.6229	9353.813	-15204.74	1	17851.55	-58.40056	5.245094E-010	0.1040673	6
	38	53	158.3615	10216.12	-18466.6	1	21104.13	-61.04768	3.359071E-010	0.1040675	6
	39	54	125.558	11338.27	-22526.83	1	25219.33	-63.28284	7.868687E-010	0.1040698	6
	40	55	100.4464	12711.68	-27236.78	1	30057.09	-64.98106	8.210629E-011	0.1040631	6
	41	57	79.00281	14613.45	-33374.25	1	36433.41	-66.35303	4.344906E-010	0.1040593	6
	42	58	63.3446	16841.72	-40405.02	1	43774.53	-67.37253	4.012E-010	0.1040601	6
	43	60	49.86702	20243.49	-48728.37	1	52766.02	-67.44027	5.247202E-010	0.1040543	6
	44	61	39.72458	24295.66	-58842.94	1	63661.38	-67.56476	8.145966E-010	0.1040616	6
	45	62	31.6723	29366.11	-70310.6	1	76196.78	-67.33154	5.090928E-010	0.1040593	6
	46	64	24.93351	36395.38	-84877.37	1	92351.45	-66.79037	2.74144E-010	0.1040621	6
	47	65	19.86229	44774.06	-100632.4	1	110143.5	-66.01443	-2.840209E-010	0.1040669	5
	48	66	15.83615	56038.37	-119172.6	1	131690.6	-64.81575	1.315449E-009	0.1040639	5
	49	68	12.40079	70077.73	-140820.9	1	157294	-63.54335	2.003934E-010	0.1040689	5
	50	69	9.93114	86548.94	-163768.8	1	185232.1	-62.14433	3.708549E-010	0.1040697	5
	51	71	7.944915	106753.4	-188578.1	1	216697.9	-60.48597	4.686119E-010	0.1040738	5
	52	72	6.317385	131315.9	-216346.6	1	253080.4	-58.7435	-6.176328E-011	0.1040859	5
	53	74	5.008013	160712.4	-245996.7	1	293841.6	-56.84296	5.79481E-010	0.104073	5
	54	77	3.945707	195880.7	-277999.8	1	340078.1	-54.8312	-6.820845E-011	0.1040687	5
	55	80	3.158693	231869.6	-308905.3	1	386246	-53.10748	3.280278E-010	0.1040839	5
	56	83	2.504006	272733.3	-343408.3	1	438534.7	-51.54355	-3.087886E-010	0.1040633	5
	57	86	1.998082	314941.8	-378412.5	1	492325.4	-50.23037	-2.127865E-010	0.1040436	5
	58	89	1.584686	359031.3	-416644.7	1	549996.6	-49.24786	8.026621E-012	0.1041116	5
	59	92	1.266892	402973.3	-461644.1	1	612782.8	-48.882	-1.445018E-010	0.1040478	5
	60	97	0.999041	450996.2	-516251.3	1	685502	-48.85959	3.058809E-010	0.1040986	5
