EXPLAIN
TAG	EISPOT
TITLE	LABEL	Potentiostatic EIS	Test &Identifier
DATE	LABEL	2/21/2020	Date
TIME	LABEL	15:34:49	Time
NOTES	NOTES	1	&Notes...
	
PSTAT	PSTAT	REF600-11020	Potentiostat
VDC	POTEN	0.00000E+000	T	DC &Voltage (V)
FREQINIT	QUANT	1.00000E+006	Initial Fre&q. (Hz)
FREQFINAL	QUANT	1.00000E+000	Final Fre&q. (Hz)
PTSPERDEC	QUANT	1.00000E+001	Points/&decade
VAC	QUANT	2.50000E+001	AC &Voltage (mV rms)
AREA	QUANT	2.08200E-005	&Area (cm^2)
CONDIT	TWOPARAM	F	1.50000E+001	0.00000E+000	Conditionin&g	Time(s)	E(V)
DELAY	TWOPARAM	F	1.00000E+002	0.00000E+000	Init. De&lay	Time(s)	Stab.(mV/s)
SPEED	SELECTOR	1	&Optimize for:
ZGUESS	QUANT	2.00000E+003	E&stimated Z (ohms)
OCVCURVE	TABLE	39
	Pt	T	Vf	Vm	Ach	Over
	#	s	V vs. Ref.	V	V	bits
	0	0.258333	6.52704E-002	6.52704E-002	5.60604E-004	...........
	1	0.516667	6.52737E-002	6.54397E-002	5.64304E-004	...........
	2	0.775	6.52942E-002	6.56356E-002	5.61371E-004	...........
	3	1.03333	6.53543E-002	6.58105E-002	5.65404E-004	...........
	4	1.29167	6.54695E-002	6.62116E-002	5.59071E-004	...........
	5	1.55	6.56430E-002	6.63611E-002	5.68771E-004	...........
	6	1.80833	6.58660E-002	6.67146E-002	5.63704E-004	...........
	7	2.06667	6.61149E-002	6.66646E-002	5.63404E-004	...........
	8	2.325	6.63289E-002	6.55591E-002	5.69271E-004	...........
	9	2.58333	6.63771E-002	6.45326E-002	5.59071E-004	...........
	10	2.84167	6.61193E-002	6.38761E-002	5.62004E-004	...........
	11	3.1	6.55448E-002	6.31031E-002	5.59971E-004	...........
	12	3.35833	6.47995E-002	6.31739E-002	5.61038E-004	...........
	13	3.61667	6.40927E-002	6.35072E-002	5.62171E-004	...........
	14	3.875	6.36151E-002	6.41558E-002	5.63071E-004	...........
	15	4.13333	6.34825E-002	6.50015E-002	5.59071E-004	...........
	16	4.39167	6.37031E-002	6.55124E-002	5.57904E-004	...........
	17	4.65	6.41709E-002	6.52690E-002	5.61271E-004	...........
	18	4.90833	6.46881E-002	6.52468E-002	5.58171E-004	...........
	19	5.16667	6.50757E-002	6.57077E-002	5.55738E-004	...........
	20	5.425	6.53007E-002	6.56448E-002	5.57038E-004	...........
	21	5.68333	6.54370E-002	6.55545E-002	5.59471E-004	...........
	22	5.94167	6.55330E-002	6.56774E-002	5.58871E-004	...........
	23	6.2	6.55989E-002	6.59951E-002	5.57804E-004	...........
	24	6.45833	6.56874E-002	6.72124E-002	5.60071E-004	...........
	25	6.71667	6.59010E-002	6.72121E-002	5.63671E-004	...........
	26	6.975	6.62710E-002	6.70732E-002	5.63038E-004	...........
	27	7.23333	6.66771E-002	6.71676E-002	5.67304E-004	...........
	28	7.49167	6.69668E-002	6.70031E-002	5.64538E-004	...........
	29	7.75	6.70966E-002	6.70610E-002	5.64571E-004	...........
	30	8.00833	6.71171E-002	6.71138E-002	5.65604E-004	...........
	31	8.26667	6.71036E-002	6.73528E-002	5.66538E-004	...........
	32	8.525	6.71155E-002	6.73027E-002	5.65538E-004	...........
	33	8.78333	6.71678E-002	6.73032E-002	5.62771E-004	...........
	34	9.04167	6.72329E-002	6.72834E-002	5.65104E-004	...........
	35	9.3	6.72769E-002	6.72254E-002	5.63571E-004	...........
	36	9.5583	6.72889E-002	6.72680E-002	5.63004E-004	...........
	37	9.8167	6.72803E-002	6.72760E-002	5.64204E-004	...........
	38	10.075	6.72709E-002	6.73660E-002	5.62871E-004	...........
EOC	QUANT	0.0672709	Open Circuit (V)
PSTATMODEL	IQUANT	4	Pstat Model
PSTATSECTION	LABEL	REF600-11020	Pstat Section
PSTATSERIALNO	LABEL	11020	Pstat Serial Number
CTRLMODE	IQUANT	1	Control Mode
IESTAB	IQUANT	0	I/E Stability
CASPEED	IQUANT	1	Control Amp Speed
CONVENTION	IQUANT	1	Current Convention
ICHRANGE	IQUANT	2	Ich Range
ICHRANGEMODE	TOGGLE	F	Ich Auto Range
ICHOFFSETENABLE	TOGGLE	T	Ich Offset Enable
ICHOFFSET	QUANT	0	Ich Offset (V)
ICHFILTER	IQUANT	3	Ich Filter
VCHRANGE	IQUANT	2	Vch Range
VCHRANGEMODE	TOGGLE	F	Vch Auto Range
VCHOFFSETENABLE	TOGGLE	T	Vch Offset Enable
VCHOFFSET	QUANT	0	Vch Offset (V)
VCHFILTER	IQUANT	3	Vch Filter
ACHRANGE	IQUANT	2	Ach Range
ACHOFFSETENABLE	TOGGLE	F	Ach Offset Enable
ACHOFFSET	QUANT	0	Ach Offset (V)
ACHFILTER	IQUANT	3	Ach Filter
IERANGELOWERLIMIT	IQUANT	1	I/E Range Lower Limit
IERANGEMODE	TOGGLE	F	I/E AutoRange
IERANGE	IQUANT	7	I/E Range
POSFEEDENABLE	TOGGLE	F	Positive Feedback IR Comp
POSFEEDRESISTANCE	QUANT	0	Positive Feedback Resistance (ohm)
ACHSELECT	IQUANT	0	Ach Select
CABLEID	IQUANT	14	Cable ID
DCCALDATE	LABEL	1/27/2020	DC Calibration Date
ACCALDATE	LABEL	1/27/2020	AC Calibration Date
THERMOSELECT	IQUANT	1	Thermo Select
FRAMEWORKVERSION	QUANT	6.33	Framework Version
INSTRUMENTVERSION	LABEL	3.50	Instrument Version
ZCURVE	TABLE
	Pt	Time	Freq	Zreal	Zimag	Zsig	Zmod	Zphz	Idc	Vdc	IERange
	#	s	Hz	ohm	ohm	V	ohm	°	A	V	#
	0	1	1000078	1780.883	-2156.244	1	2796.593	-50.44604	1.21372E-006	0.0694452	8
	1	2	794390.6	2206.011	-2322.71	1	3203.352	-46.4761	1.516923E-007	0.0690894	8
	2	4	630984.4	2669.231	-2428.097	1	3608.386	-42.29159	3.810465E-007	0.0689276	8
	3	5	501234.4	3149.048	-2467.662	1	4000.732	-38.08301	4.402179E-007	0.0688303	8
	4	6	398109.4	3629.018	-2437.037	1	4371.375	-33.88301	7.875135E-007	0.0687114	8
	5	8	316265.6	4084.067	-2347.88	1	4710.854	-29.89406	1.926316E-007	0.0687459	8
	6	9	251203.1	4492.627	-2210.529	1	5007.009	-26.1988	2.252953E-007	0.0687366	8
	7	10	199546.9	4877.57	-2044.905	1	5288.887	-22.74571	-6.729323E-007	0.0688826	8
	8	12	158578.1	5162.432	-1855.962	1	5485.918	-19.77418	3.358228E-007	0.0687271	8
	9	13	125953.1	5438.664	-1661.655	1	5686.841	-16.98929	2.224943E-007	0.0682045	7
	10	15	100078.1	5640.827	-1493.233	1	5835.124	-14.82717	1.008729E-009	0.0687527	7
	11	16	79453.13	5811.557	-1351.325	1	5966.596	-13.09003	1.980724E-009	0.0687451	7
	12	17	63140.62	5953.497	-1232.186	1	6079.672	-11.69332	-7.726432E-009	0.0687734	7
	13	19	50203.12	6074.382	-1139.177	1	6180.278	-10.62176	-7.343882E-009	0.0687653	7
	14	20	39890.62	6181.163	-1070.084	1	6273.106	-9.8217	3.596658E-009	0.0687325	7
	15	21	31640.63	6279.913	-1028.389	1	6363.56	-9.300125	-1.163806E-008	0.068758	7
	16	23	25171.88	6372.952	-1011.859	1	6452.78	-9.021771	-8.649693E-009	0.068776	7
	17	24	20015.62	6461.289	-1019.471	1	6541.221	-8.96629	-1.316733E-008	0.0687663	7
	18	25	15890.62	6554.034	-1050.331	1	6637.662	-9.104646	3.205054E-009	0.0687277	7
	19	27	12609.37	6650.735	-1108.412	1	6742.466	-9.461955	-7.467971E-009	0.0687651	7
	20	28	10078.13	6748.632	-1190.864	1	6852.896	-10.0074	5.145865E-008	0.0686601	7
	21	30	8015.625	6854.375	-1302.314	1	6976.996	-10.75783	1.974153E-008	0.0687043	7
	22	31	6328.125	6975.76	-1450.375	1	7124.943	-11.7454	2.468314E-008	0.0687382	7
	23	32	5015.625	7104.14	-1631.02	1	7288.966	-12.9303	6.783977E-009	0.0687011	7
	24	34	3984.375	7248.987	-1853.965	1	7482.313	-14.34616	2.169381E-008	0.0687103	7
	25	35	3170.956	7408.574	-2121.933	1	7706.462	-15.98255	1.076231E-008	0.0687611	7
	26	36	2527.573	7584.371	-2438.211	1	7966.653	-17.82148	-5.916031E-009	0.068753	7
	27	38	1976.103	7803.96	-2858.143	1	8310.883	-20.11488	-5.350346E-009	0.0687527	7
	28	39	1577.524	8025.56	-3312.845	1	8682.428	-22.43019	-6.410956E-009	0.0687498	7
	29	41	1265.625	8273.388	-3839.961	1	9121.088	-24.89762	-1.721196E-008	0.0687543	7
	30	42	998.264	8574.615	-4531.916	1	9698.57	-27.85766	2.775822E-010	0.0686752	6
	31	43	796.875	8894.25	-5320.76	1	10364.27	-30.88891	9.114582E-010	0.0686905	6
	32	45	627.7902	9280.478	-6333.146	1	11235.48	-34.31025	4.837039E-010	0.068688	6
	33	46	505.5147	9682.48	-7446.751	1	12214.93	-37.56373	-2.729919E-009	0.0687765	6
	34	47	397.9953	10192.74	-8930.963	1	13551.9	-41.22512	1.522174E-009	0.0687438	6
	35	49	315.5048	10777.93	-10690.28	1	15180.45	-44.76608	1.653487E-009	0.0687422	6
	36	50	252.4038	11444.84	-12738.41	1	17124.59	-48.06185	1.642044E-009	0.0687401	6
	37	51	198.6229	12303.9	-15412.06	1	19720.99	-51.39862	1.361734E-009	0.0687431	6
	38	53	158.3615	13288.42	-18480.56	1	22762.1	-54.28203	1.494342E-009	0.0687399	6
	39	54	125.558	14531.6	-22297.23	1	26614.54	-56.90682	1.386391E-009	0.0687402	6
	40	56	100.4464	16020.64	-26733.62	1	31166.44	-59.06704	1.109922E-009	0.068735	6
	41	57	79.00281	18007.89	-32516.58	1	37170.05	-61.02203	9.095963E-010	0.0687339	6
	42	58	63.3446	20171.09	-38996.62	1	43904.55	-62.64963	1.32048E-009	0.0687312	6
	43	60	49.86702	23613.3	-46985.28	1	52585.21	-63.31736	1.285554E-009	0.0687317	6
	44	61	39.72458	27541.22	-56495.61	1	62851.2	-64.01109	1.218356E-009	0.0687321	6
	45	63	31.6723	32716.69	-67616.53	1	75115.76	-64.17969	1.10258E-009	0.0687296	6
	46	64	24.93351	39745.98	-81128.27	1	90341.24	-63.89906	1.670455E-009	0.0687265	6
	47	65	19.86229	48390.74	-95943.5	1	107456.1	-63.23512	1.050712E-009	0.068726	5
	48	67	15.83615	58764.04	-113054.8	1	127415.1	-62.53533	1.682261E-009	0.0687269	5
	49	68	12.40079	73909.58	-133342.9	1	152456.4	-61.00119	7.556253E-010	0.068729	5
	50	70	9.93114	90477.34	-152553.2	1	177365.8	-59.32837	8.265757E-012	0.0687276	5
	51	71	7.944915	109911.1	-173899.2	1	205721.6	-57.70551	1.015071E-010	0.0687273	5
	52	73	6.317385	132740.7	-197186.9	1	237703.1	-56.05266	-7.848344E-011	0.0687205	5
	53	75	5.008013	159283	-222352.5	1	273517.3	-54.38394	1.06402E-010	0.0687311	5
	54	77	3.945707	189619.4	-249801.4	1	313618	-52.79857	3.256048E-010	0.0687237	5
	55	80	3.158693	220620.8	-277048.6	1	354160.2	-51.4688	4.682454E-010	0.0687153	5
	56	83	2.504006	254959.3	-307829.3	1	399703.7	-50.36678	3.014458E-010	0.0687316	5
	57	86	1.998082	289762.3	-341026.1	1	447505.3	-49.64618	7.00224E-010	0.0686943	5
	58	89	1.584686	328835.6	-380500.6	1	502905.1	-49.16582	2.514373E-010	0.0686812	5
	59	93	1.266892	366691.2	-422978.5	1	559797.5	-49.07713	5.53557E-010	0.0686818	5
	60	97	0.999041	408925.9	-478127.5	1	629147.3	-49.46077	2.734131E-010	0.0687473	5
