EXPLAIN
TAG	EISPOT
TITLE	LABEL	Potentiostatic EIS	Test &Identifier
DATE	LABEL	1/7/2020	Date
TIME	LABEL	16:31:58	Time
NOTES	NOTES	5	&Notes...
	
	
	
	
	
PSTAT	PSTAT	REF600-11020	Potentiostat
VDC	POTEN	0.00000E+000	T	DC &Voltage (V)
FREQINIT	QUANT	1.00000E+006	Initial Fre&q. (Hz)
FREQFINAL	QUANT	1.00000E+000	Final Fre&q. (Hz)
PTSPERDEC	QUANT	1.00000E+001	Points/&decade
VAC	QUANT	2.50000E+001	AC &Voltage (mV rms)
AREA	QUANT	1.00000E-001	&Area (cm^2)
CONDIT	TWOPARAM	T	5.00000E+000	0.00000E+000	Conditionin&g	Time(s)	E(V)
DELAY	TWOPARAM	T	5.00000E+000	0.00000E+000	Init. De&lay	Time(s)	Stab.(mV/s)
SPEED	SELECTOR	0	&Optimize for:
ZGUESS	QUANT	1.00000E+003	E&stimated Z (ohms)
OCVCURVE	TABLE	19
	Pt	T	Vf	Vm	Ach	Over
	#	s	V vs. Ref.	V	V	bits
	0	0.258333	9.47709E-004	9.47709E-004	6.37713E-004	...........
	1	0.516667	9.41823E-004	6.39618E-004	6.36513E-004	...........
	2	0.775	9.06012E-004	3.64846E-004	6.38080E-004	...........
	3	1.03333	8.06824E-004	1.54755E-004	6.45746E-004	...........
	4	1.29167	6.37925E-004	5.63883E-005	6.39546E-004	...........
	5	1.55	4.33089E-004	-1.29076E-004	6.39913E-004	...........
	6	1.80833	2.31497E-004	-3.46235E-004	6.38246E-004	...........
	7	2.06667	4.34243E-005	-5.75320E-004	6.46746E-004	...........
	8	2.325	-1.43834E-004	-7.66718E-004	6.41813E-004	...........
	9	2.58333	-3.39316E-004	-9.13977E-004	6.38513E-004	...........
	10	2.84167	-5.36839E-004	-1.07218E-003	6.38613E-004	...........
	11	3.1	-7.24393E-004	-1.21438E-003	6.42546E-004	...........
	12	3.35833	-8.96095E-004	-1.35413E-003	6.42680E-004	...........
	13	3.61667	-1.05350E-003	-1.49075E-003	6.43046E-004	...........
	14	3.875	-1.20100E-003	-1.63364E-003	6.46913E-004	...........
	15	4.13333	-1.34273E-003	-1.76036E-003	6.45113E-004	...........
	16	4.39167	-1.48124E-003	-1.89456E-003	6.44813E-004	...........
	17	4.65	-1.61707E-003	-2.01452E-003	6.48446E-004	...........
	18	4.90833	-1.74957E-003	-2.12856E-003	6.46146E-004	...........
EOC	QUANT	-0.0017496	Open Circuit (V)
PSTATMODEL	IQUANT	4	Pstat Model
PSTATSECTION	LABEL	REF600-11020	Pstat Section
PSTATSERIALNO	LABEL	11020	Pstat Serial Number
CTRLMODE	IQUANT	1	Control Mode
IESTAB	IQUANT	0	I/E Stability
CASPEED	IQUANT	1	Control Amp Speed
CONVENTION	IQUANT	1	Current Convention
ICHRANGE	IQUANT	2	Ich Range
ICHRANGEMODE	TOGGLE	F	Ich Auto Range
ICHOFFSETENABLE	TOGGLE	T	Ich Offset Enable
ICHOFFSET	QUANT	0	Ich Offset (V)
ICHFILTER	IQUANT	3	Ich Filter
VCHRANGE	IQUANT	2	Vch Range
VCHRANGEMODE	TOGGLE	F	Vch Auto Range
VCHOFFSETENABLE	TOGGLE	T	Vch Offset Enable
VCHOFFSET	QUANT	0	Vch Offset (V)
VCHFILTER	IQUANT	3	Vch Filter
ACHRANGE	IQUANT	2	Ach Range
ACHOFFSETENABLE	TOGGLE	F	Ach Offset Enable
ACHOFFSET	QUANT	0	Ach Offset (V)
ACHFILTER	IQUANT	3	Ach Filter
IERANGELOWERLIMIT	IQUANT	1	I/E Range Lower Limit
IERANGEMODE	TOGGLE	F	I/E AutoRange
IERANGE	IQUANT	6	I/E Range
POSFEEDENABLE	TOGGLE	F	Positive Feedback IR Comp
POSFEEDRESISTANCE	QUANT	0	Positive Feedback Resistance (ohm)
ACHSELECT	IQUANT	0	Ach Select
CABLEID	IQUANT	14	Cable ID
DCCALDATE	LABEL	12/22/2019	DC Calibration Date
ACCALDATE	LABEL	12/22/2019	AC Calibration Date
THERMOSELECT	IQUANT	1	Thermo Select
FRAMEWORKVERSION	QUANT	6.33	Framework Version
INSTRUMENTVERSION	LABEL	3.50	Instrument Version
ZCURVE	TABLE
	Pt	Time	Freq	Zreal	Zimag	Zsig	Zmod	Zphz	Idc	Vdc	IERange
	#	s	Hz	ohm	ohm	V	ohm	°	A	V	#
	0	1	1000078	1662.616	-2481.825	1	2987.265	-56.18121	2.778155E-006	0.0001069	8
	1	2	794390.6	1846.177	-2859.585	1	3403.763	-57.1533	3.101675E-006	-0.0009104	8
	2	2	630984.4	2039.261	-3306.273	1	3884.588	-58.33432	1.017294E-006	-0.0003641	8
	3	2	501234.4	2250.268	-3876.528	1	4482.318	-59.86546	1.405004E-006	-0.0004078	8
	4	3	398109.4	2480.68	-4604.459	1	5230.184	-61.68617	-6.715754E-007	0.0003078	8
	5	3	316265.6	2694.092	-5499.679	1	6124.1	-63.90145	-5.954314E-007	-0.0001355	8
	6	3	251203.1	2930.846	-6582.697	1	7205.676	-65.99971	-4.26191E-006	0.0007509	8
	7	4	199546.9	3589.583	-8389.919	1	9125.56	-66.83659	-4.264899E-006	0.0004074	8
	8	4	158578.1	3615.556	-9484.548	1	10150.31	-69.13291	-3.116542E-006	0.0006003	8
	9	5	125953.1	4546.257	-11921.04	1	12758.51	-69.12495	-6.437973E-007	0.001019	7
	10	5	100078.1	5256.946	-14382.02	1	15312.67	-69.92152	-1.665423E-009	-0.0002662	7
	11	5	79453.13	6224.436	-17570.52	1	18640.46	-70.49308	-7.484275E-008	-0.0001746	7
	12	5	63140.62	7532.889	-21450.25	1	22734.5	-70.64977	3.879993E-008	-8.507111E-005	7
	13	6	50203.12	9378.249	-26032.1	1	27669.87	-70.18809	8.31391E-008	-0.0003199	7
	14	6	39890.62	11847.16	-31458.47	1	33615.34	-69.36379	-1.076889E-007	-3.526712E-005	7
	15	6	31640.63	15365.36	-37751.71	1	40758.88	-67.85313	1.175008E-007	-0.0004599	7
	16	7	25171.88	19640.48	-44782.22	1	48899.85	-66.31882	-6.539022E-008	-7.238377E-005	7
	17	7	20015.62	25272.6	-52539.74	1	58302.05	-64.31158	-1.079957E-007	-3.364992E-005	7
	18	7	15890.62	32388.69	-60686.93	1	68789.02	-61.91111	-7.514545E-008	-0.0001354	7
	19	8	12609.37	41940.16	-69475.23	1	81152.85	-58.88186	-7.667905E-009	-0.0001871	6
	20	8	10078.13	52067.77	-78960.77	1	94582.54	-56.59862	2.000744E-008	-0.000344	6
	21	8	8015.625	63902.78	-88921.41	1	109501.5	-54.29734	-1.135214E-008	-2.151036E-005	6
	22	9	6328.125	77595.48	-99511.9	1	126189	-52.05429	-6.124037E-009	3.641839E-005	6
	23	9	5015.625	94447.02	-110052.7	1	145023.5	-49.36386	-1.375948E-009	-0.000252	6
	24	9	3984.375	114248.1	-119977.3	1	165671.9	-46.40119	-1.692591E-008	-9.433759E-005	6
	25	10	3170.956	135313.7	-128351.9	1	186504.7	-43.48753	-5.932278E-009	-0.0003268	6
	26	10	2527.573	158839.9	-134194.2	1	207938	-40.19243	7.24471E-009	-0.0000968	6
	27	10	1976.103	188869.4	-137901.7	1	233855.8	-36.1348	1.227924E-008	-0.0005252	6
	28	11	1577.524	212364.9	-142404.3	1	255690.9	-33.84439	-1.132471E-008	-6.611118E-005	6
	29	11	1265.625	236893.2	-132433.9	1	271398.5	-29.20714	2.505959E-009	-0.0003882	5
	30	11	998.264	258693.8	-128406.7	1	288809.2	-26.39822	1.417568E-009	-0.0002129	5
	31	12	796.875	277836.1	-124420.7	1	304423.1	-24.12382	2.232903E-009	-0.0006948	5
	32	12	627.7902	296010.4	-120088.9	1	319442.5	-22.08197	-1.611763E-009	3.187824E-006	5
	33	12	505.5147	311375.8	-116982.3	1	332625.5	-20.59095	1.185411E-009	-0.0005232	5
	34	12	397.9953	325720.7	-114297.9	1	345192.7	-19.33636	6.842502E-010	-0.0002243	5
	35	13	315.5048	340382.4	-113316.2	1	358748.8	-18.41303	-1.368877E-010	-0.0002229	5
	36	13	252.4038	353832.8	-113453.6	1	371576.8	-17.77802	-1.268757E-010	-0.0002248	5
	37	13	198.6229	368068.7	-115683.1	1	385820.1	-17.4478	3.958195E-010	-0.0002218	5
	38	14	158.3615	381166.4	-118755.4	1	399237.7	-17.30484	6.847807E-010	-0.0002273	5
	39	14	125.558	396204.5	-123017.9	1	414863.1	-17.2491	5.492106E-010	-0.0002235	5
	40	14	100.4464	404580.8	-131913.7	1	425543.1	-18.05858	4.536566E-010	-0.0002243	5
	41	15	79.00281	418317.7	-133352.8	1	439058.9	-17.68143	-8.101868E-012	-0.0002301	5
	42	15	63.3446	480941.6	-160654.5	1	507064.8	-18.47146	6.972682E-010	-0.0002321	5
	43	15	49.86702	483435.1	-173775.7	1	513719.3	-19.7715	8.893535E-010	-0.0002281	5
	44	16	39.72458	480774.5	-174266.3	1	511383.3	-19.92406	4.091988E-010	-0.000227	5
	45	16	31.6723	492554.9	-192231.1	1	528737.3	-21.31938	6.602935E-010	-0.0002263	5
	46	16	24.93351	526763.8	-219225.1	1	570560.8	-22.59578	2.242314E-012	-0.0002286	5
	47	17	19.86229	560175.2	-242008.9	1	610216.8	-23.36548	-7.118001E-010	-0.0002305	5
	48	17	15.83615	578966.6	-274966.8	1	640943.9	-25.4043	1.782288E-009	-0.0002288	6
	49	18	12.40079	639266.7	-304584	1	708119.6	-25.47586	1.448496E-009	-0.0002206	6
	50	18	9.93114	680757.8	-316218.9	1	750616.8	-24.91535	7.276618E-010	-0.0002238	6
	51	19	7.944915	727732.3	-327996.7	1	798233.1	-24.2616	4.692305E-010	-0.0002196	6
	52	20	6.317385	776603.3	-352709.5	1	852945.9	-24.4261	2.708346E-010	-0.0002077	6
	53	21	5.008013	825883.3	-369140.6	1	904625.9	-24.08295	9.261767E-010	-0.0002176	6
	54	22	3.945707	877281.8	-388637.5	1	959511	-23.89343	2.469397E-010	-0.000231	5
	55	24	3.158693	922646.5	-410062	1	1009667	-23.96233	1.851866E-010	-0.0002239	5
	56	26	2.504006	969136	-439153.2	1	1063993	-24.37712	1.406087E-010	-0.0001868	4
	57	27	1.998082	1014558	-473127.7	1	1119454	-25.00147	3.692898E-010	-0.0001471	4
	58	29	1.584686	1057647	-523395.4	1	1180068	-26.32932	3.386849E-010	-0.0001697	4
	59	31	1.266892	1099543	-581928.7	1	1244040	-27.88984	2.375986E-010	-0.0002106	4
	60	33	0.999041	1150597	-659404.5	1	1326155	-29.81692	1.7025E-010	-0.0002282	4
