EXPLAIN
TAG	EISPOT
TITLE	LABEL	Potentiostatic EIS	Test &Identifier
DATE	LABEL	2/21/2020	Date
TIME	LABEL	16:22:25	Time
NOTES	NOTES	1	&Notes...
	
PSTAT	PSTAT	REF600-11020	Potentiostat
VDC	POTEN	0.00000E+000	T	DC &Voltage (V)
FREQINIT	QUANT	1.00000E+006	Initial Fre&q. (Hz)
FREQFINAL	QUANT	1.00000E+000	Final Fre&q. (Hz)
PTSPERDEC	QUANT	1.00000E+001	Points/&decade
VAC	QUANT	2.50000E+001	AC &Voltage (mV rms)
AREA	QUANT	2.08200E-005	&Area (cm^2)
CONDIT	TWOPARAM	F	1.50000E+001	0.00000E+000	Conditionin&g	Time(s)	E(V)
DELAY	TWOPARAM	F	1.00000E+002	0.00000E+000	Init. De&lay	Time(s)	Stab.(mV/s)
SPEED	SELECTOR	1	&Optimize for:
ZGUESS	QUANT	2.00000E+003	E&stimated Z (ohms)
OCVCURVE	TABLE	39
	Pt	T	Vf	Vm	Ach	Over
	#	s	V vs. Ref.	V	V	bits
	0	0.258333	3.79022E-002	3.79022E-002	5.74271E-004	...........
	1	0.516667	3.79003E-002	3.78044E-002	5.73971E-004	...........
	2	0.775	3.78854E-002	3.75314E-002	5.74704E-004	...........
	3	1.03333	3.78378E-002	3.75845E-002	5.73504E-004	...........
	4	1.29167	3.77462E-002	3.70853E-002	5.65871E-004	...........
	5	1.55	3.76117E-002	3.71440E-002	5.69504E-004	...........
	6	1.80833	3.74585E-002	3.76226E-002	5.76871E-004	...........
	7	2.06667	3.73591E-002	3.78634E-002	5.69604E-004	...........
	8	2.325	3.73848E-002	3.77426E-002	5.67571E-004	...........
	9	2.58333	3.75152E-002	3.78927E-002	5.70271E-004	...........
	10	2.84167	3.76641E-002	3.78598E-002	5.74571E-004	...........
	11	3.1	3.77685E-002	3.76095E-002	5.72238E-004	...........
	12	3.35833	3.78049E-002	3.76281E-002	5.76604E-004	...........
	13	3.61667	3.77763E-002	3.76100E-002	5.73971E-004	...........
	14	3.875	3.77149E-002	3.76181E-002	5.71004E-004	...........
	15	4.13333	3.76608E-002	3.76817E-002	5.70004E-004	...........
	16	4.39167	3.76346E-002	3.76426E-002	5.72371E-004	...........
	17	4.65	3.76313E-002	3.75512E-002	5.69438E-004	...........
	18	4.90833	3.76298E-002	3.75507E-002	5.70704E-004	...........
	19	5.16667	3.76149E-002	3.75821E-002	5.66271E-004	...........
	20	5.425	3.75946E-002	3.76717E-002	5.65938E-004	...........
	21	5.68333	3.75716E-002	3.67882E-002	5.69304E-004	...........
	22	5.94167	3.75030E-002	3.69425E-002	5.66004E-004	...........
	23	6.2	3.73557E-002	3.71949E-002	5.69304E-004	...........
	24	6.45833	3.71943E-002	3.72960E-002	5.70038E-004	...........
	25	6.71667	3.71189E-002	3.73372E-002	5.70971E-004	...........
	26	6.975	3.71466E-002	3.73313E-002	5.67038E-004	...........
	27	7.23333	3.72199E-002	3.73070E-002	5.71904E-004	...........
	28	7.49167	3.72817E-002	3.72948E-002	5.69438E-004	...........
	29	7.75	3.73112E-002	3.73175E-002	5.74704E-004	...........
	30	8.00833	3.73171E-002	3.73392E-002	5.72371E-004	...........
	31	8.26667	3.73168E-002	3.73235E-002	5.68804E-004	...........
	32	8.525	3.73183E-002	3.72775E-002	5.69904E-004	...........
	33	8.78333	3.73172E-002	3.72575E-002	5.67338E-004	...........
	34	9.04167	3.73074E-002	3.72799E-002	5.68638E-004	...........
	35	9.3	3.72921E-002	3.72634E-002	5.70104E-004	...........
	36	9.5583	3.72788E-002	3.72573E-002	5.75871E-004	...........
	37	9.8167	3.72696E-002	3.72270E-002	5.73271E-004	...........
	38	10.075	3.72606E-002	3.72055E-002	5.71604E-004	...........
EOC	QUANT	0.0372606	Open Circuit (V)
PSTATMODEL	IQUANT	4	Pstat Model
PSTATSECTION	LABEL	REF600-11020	Pstat Section
PSTATSERIALNO	LABEL	11020	Pstat Serial Number
CTRLMODE	IQUANT	1	Control Mode
IESTAB	IQUANT	0	I/E Stability
CASPEED	IQUANT	1	Control Amp Speed
CONVENTION	IQUANT	1	Current Convention
ICHRANGE	IQUANT	2	Ich Range
ICHRANGEMODE	TOGGLE	F	Ich Auto Range
ICHOFFSETENABLE	TOGGLE	T	Ich Offset Enable
ICHOFFSET	QUANT	0	Ich Offset (V)
ICHFILTER	IQUANT	3	Ich Filter
VCHRANGE	IQUANT	2	Vch Range
VCHRANGEMODE	TOGGLE	F	Vch Auto Range
VCHOFFSETENABLE	TOGGLE	T	Vch Offset Enable
VCHOFFSET	QUANT	0	Vch Offset (V)
VCHFILTER	IQUANT	3	Vch Filter
ACHRANGE	IQUANT	2	Ach Range
ACHOFFSETENABLE	TOGGLE	F	Ach Offset Enable
ACHOFFSET	QUANT	0	Ach Offset (V)
ACHFILTER	IQUANT	3	Ach Filter
IERANGELOWERLIMIT	IQUANT	1	I/E Range Lower Limit
IERANGEMODE	TOGGLE	F	I/E AutoRange
IERANGE	IQUANT	7	I/E Range
POSFEEDENABLE	TOGGLE	F	Positive Feedback IR Comp
POSFEEDRESISTANCE	QUANT	0	Positive Feedback Resistance (ohm)
ACHSELECT	IQUANT	0	Ach Select
CABLEID	IQUANT	14	Cable ID
DCCALDATE	LABEL	1/27/2020	DC Calibration Date
ACCALDATE	LABEL	1/27/2020	AC Calibration Date
THERMOSELECT	IQUANT	1	Thermo Select
FRAMEWORKVERSION	QUANT	6.33	Framework Version
INSTRUMENTVERSION	LABEL	3.50	Instrument Version
ZCURVE	TABLE
	Pt	Time	Freq	Zreal	Zimag	Zsig	Zmod	Zphz	Idc	Vdc	IERange
	#	s	Hz	ohm	ohm	V	ohm	°	A	V	#
	0	1	1000078	1869.412	-1974.666	1	2719.193	-46.56841	-1.051935E-007	0.0394197	8
	1	3	794390.6	2280.496	-2066.658	1	3077.619	-42.18387	1.05453E-006	0.0390011	8
	2	4	630984.4	2706.552	-2073.4	1	3409.459	-37.45452	-1.635912E-006	0.0393446	8
	3	5	501234.4	3127.783	-2026.555	1	3726.923	-32.94003	1.11684E-006	0.0387723	8
	4	7	398109.4	3517.952	-1909.624	1	4002.83	-28.4941	-5.653125E-007	0.0389137	8
	5	8	316265.6	3832.039	-1746.709	1	4211.355	-24.50431	-5.745429E-007	0.0389073	8
	6	9	251203.1	4108.611	-1586.445	1	4404.258	-21.11291	2.451605E-006	0.0382971	8
	7	11	199546.9	4317.596	-1402.41	1	4539.646	-17.99445	1.387109E-006	0.0384943	8
	8	12	158578.1	4479.424	-1227.604	1	4644.593	-15.32584	-1.791215E-006	0.0391582	8
	9	13	125953.1	4633.859	-1089.252	1	4760.16	-13.22801	1.189479E-007	0.0384388	7
	10	15	100078.1	4738.471	-974.249	1	4837.589	-11.61834	-6.303209E-009	0.0387502	7
	11	16	79453.13	4822.663	-894.2319	1	4904.868	-10.50464	-3.201766E-008	0.0387807	7
	12	17	63140.62	4899.042	-839.9066	1	4970.519	-9.72838	9.878657E-009	0.038765	7
	13	19	50203.12	4967.585	-807.3806	1	5032.769	-9.23155	-2.225696E-008	0.0387653	7
	14	20	39890.62	5034.67	-798.6874	1	5097.627	-9.014142	3.921549E-008	0.0386341	7
	15	21	31640.63	5102.055	-810.9368	1	5166.1	-9.031227	2.749671E-008	0.0386822	7
	16	23	25171.88	5171.541	-844.1212	1	5239.979	-9.270313	2.714196E-008	0.0386795	7
	17	24	20015.62	5247.262	-898.3564	1	5323.608	-9.71512	1.737814E-008	0.0386653	7
	18	25	15890.62	5329.583	-974.196	1	5417.888	-10.35876	5.622248E-008	0.0386305	7
	19	27	12609.37	5421.451	-1072.103	1	5526.439	-11.18604	1.300878E-008	0.0387063	7
	20	28	10078.13	5521.944	-1191.157	1	5648.958	-12.17294	-2.195379E-008	0.038745	7
	21	30	8015.625	5634.172	-1337.813	1	5790.823	-13.3573	3.815354E-009	0.0387288	7
	22	31	6328.125	5764.492	-1520.164	1	5961.566	-14.77323	3.502798E-009	0.038729	7
	23	32	5015.625	5908.819	-1735.729	1	6158.482	-16.37027	1.6144E-008	0.0386672	7
	24	34	3984.375	6070.359	-1988.494	1	6387.751	-18.13747	-2.027066E-008	0.0387537	7
	25	35	3170.956	6251.076	-2286.069	1	6655.979	-20.08787	5.470705E-008	0.0386597	7
	26	36	2527.573	6452.378	-2633.926	1	6969.271	-22.20578	1.150555E-008	0.0386902	7
	27	38	1976.103	6701.239	-3086.975	1	7378.077	-24.73351	1.082108E-008	0.0387372	7
	28	39	1577.524	6964.7	-3577.024	1	7829.569	-27.18473	5.53667E-008	0.0386589	7
	29	40	1265.625	7244.9	-4141.711	1	8345.199	-29.75542	-1.149086E-008	0.0387207	7
	30	42	998.264	7596.61	-4874.097	1	9025.813	-32.68483	1.540405E-008	0.0387494	7
	31	43	796.875	7975.081	-5694.31	1	9799.34	-35.52732	-5.225118E-009	0.0387827	6
	32	44	627.7902	8428.542	-6737.918	1	10790.73	-38.63943	-3.451354E-009	0.0387601	6
	33	46	505.5147	8901.327	-7868.472	1	11880.51	-41.47559	-5.340256E-009	0.0387825	6
	34	47	397.9953	9493.091	-9368.088	1	13337.16	-44.62028	9.839043E-010	0.0387358	6
	35	48	315.5048	10158.88	-11126.79	1	15066.79	-47.60358	1.134826E-009	0.038732	6
	36	50	252.4038	10896.78	-13157.5	1	17083.9	-50.36911	1.225195E-009	0.0387331	6
	37	51	198.6229	11816.05	-15796.88	1	19727.15	-53.20356	9.76529E-010	0.0387329	6
	38	52	158.3615	12835.63	-18821.72	1	22781.8	-55.70765	1.146978E-009	0.0387301	6
	39	54	125.558	14061.43	-22584.49	1	26604.19	-58.093	8.951779E-010	0.0387285	6
	40	55	100.4464	15488	-26964.99	1	31096.44	-60.12804	8.784189E-010	0.0387269	6
	41	57	79.00281	17290.29	-32633.07	1	36930.63	-62.08359	8.517735E-010	0.0387286	6
	42	58	63.3446	19160.03	-38997.84	1	43450.41	-63.83465	8.291703E-010	0.0387259	6
	43	59	49.86702	22345.21	-47397.74	1	52400.9	-64.75892	3.584814E-010	0.038728	6
	44	61	39.72458	25548.79	-57111.87	1	62566.02	-65.89882	5.217848E-010	0.0387322	6
	45	62	31.6723	29836.55	-68608.78	1	74815.67	-66.49677	1.118631E-009	0.0387322	6
	46	63	24.93351	35463.09	-83087.02	1	90338.71	-66.88631	9.694915E-010	0.0387276	6
	47	65	19.86229	42499.08	-99530.9	1	108224.6	-66.87782	-1.504648E-010	0.0387304	5
	48	66	15.83615	51097.34	-118196.4	1	128768.5	-66.62074	1.469294E-010	0.0387271	5
	49	68	12.40079	64440.01	-143020	1	156866.9	-65.74527	1.255749E-009	0.0387271	5
	50	69	9.93114	78107.16	-168853.2	1	186043.4	-65.17595	5.141586E-010	0.0387244	5
	51	71	7.944915	96694.1	-197853.7	1	220217.7	-63.95453	-3.097571E-010	0.0387262	5
	52	72	6.317385	119442.9	-230838.3	1	259909.5	-62.64155	-2.323219E-010	0.0387258	5
	53	74	5.008013	147954.6	-268200.5	1	306303.9	-61.11638	-1.410417E-010	0.0387213	5
	54	77	3.945707	182510.1	-309983	1	359721.2	-59.5115	2.88643E-010	0.0387294	5
	55	79	3.158693	219870	-352362.4	1	415333.7	-58.03632	-9.321523E-011	0.0387139	5
	56	83	2.504006	264407.9	-400683.2	1	480061	-56.57947	5.199087E-010	0.0387319	5
	57	85	1.998082	312877.5	-450692.3	1	548649.1	-55.23103	2.31313E-010	0.0387698	5
	58	89	1.584686	366177	-507061.9	1	625457.7	-54.1649	2.730414E-010	0.0387175	5
	59	92	1.266892	424209.1	-568529.4	1	709351.1	-53.27148	1.903447E-010	0.0387661	5
	60	96	0.999041	489322.1	-641259.6	1	806628.8	-52.65405	5.745348E-011	0.0386866	5
