EXPLAIN
TAG	EISPOT
TITLE	LABEL	Potentiostatic EIS	Test &Identifier
DATE	LABEL	6/6/2020	Date
TIME	LABEL	14:04:07	Time
NOTES	NOTES	1	&Notes...
	
PSTAT	PSTAT	REF600-11020	Potentiostat
VDC	POTEN	0.00000E+000	T	DC &Voltage (V)
FREQINIT	QUANT	1.00000E+006	Initial Fre&q. (Hz)
FREQFINAL	QUANT	1.00000E+000	Final Fre&q. (Hz)
PTSPERDEC	QUANT	1.00000E+001	Points/&decade
VAC	QUANT	2.50000E+001	AC &Voltage (mV rms)
AREA	QUANT	2.50000E-001	&Area (cm^2)
CONDIT	TWOPARAM	F	5.00000E+000	0.00000E+000	Conditionin&g	Time(s)	E(V)
DELAY	TWOPARAM	T	3.00000E+000	0.00000E+000	Init. De&lay	Time(s)	Stab.(mV/s)
SPEED	SELECTOR	0	&Optimize for:
ZGUESS	QUANT	1.00000E+003	E&stimated Z (ohms)
OCVCURVE	TABLE	12
	Pt	T	Vf	Vm	Ach	Over
	#	s	V vs. Ref.	V	V	bits
	0	0.258333	3.53479E-002	3.53479E-002	5.63630E-004	...........
	1	0.516667	3.53479E-002	3.53460E-002	5.65297E-004	...........
	2	0.775	3.53476E-002	3.53443E-002	5.67463E-004	...........
	3	1.03333	3.53471E-002	3.53445E-002	5.60930E-004	...........
	4	1.29167	3.53461E-002	3.53424E-002	5.65830E-004	...........
	5	1.55	3.53451E-002	3.53415E-002	5.62730E-004	...........
	6	1.80833	3.53439E-002	3.53384E-002	5.62230E-004	...........
	7	2.06667	3.53425E-002	3.53372E-002	5.70463E-004	...........
	8	2.325	3.53410E-002	3.53376E-002	5.66730E-004	...........
	9	2.58333	3.53394E-002	3.53355E-002	5.61030E-004	...........
	10	2.84167	3.53380E-002	3.53341E-002	5.63497E-004	...........
	11	3.1	3.53368E-002	3.53318E-002	5.63430E-004	...........
EOC	QUANT	0.0353368	Open Circuit (V)
PSTATMODEL	IQUANT	4	Pstat Model
PSTATSECTION	LABEL	REF600-11020	Pstat Section
PSTATSERIALNO	LABEL	11020	Pstat Serial Number
CTRLMODE	IQUANT	1	Control Mode
IESTAB	IQUANT	0	I/E Stability
CASPEED	IQUANT	1	Control Amp Speed
CONVENTION	IQUANT	1	Current Convention
ICHRANGE	IQUANT	2	Ich Range
ICHRANGEMODE	TOGGLE	F	Ich Auto Range
ICHOFFSETENABLE	TOGGLE	T	Ich Offset Enable
ICHOFFSET	QUANT	0	Ich Offset (V)
ICHFILTER	IQUANT	3	Ich Filter
VCHRANGE	IQUANT	2	Vch Range
VCHRANGEMODE	TOGGLE	F	Vch Auto Range
VCHOFFSETENABLE	TOGGLE	T	Vch Offset Enable
VCHOFFSET	QUANT	0	Vch Offset (V)
VCHFILTER	IQUANT	3	Vch Filter
ACHRANGE	IQUANT	2	Ach Range
ACHOFFSETENABLE	TOGGLE	F	Ach Offset Enable
ACHOFFSET	QUANT	0	Ach Offset (V)
ACHFILTER	IQUANT	3	Ach Filter
IERANGELOWERLIMIT	IQUANT	1	I/E Range Lower Limit
IERANGEMODE	TOGGLE	F	I/E AutoRange
IERANGE	IQUANT	7	I/E Range
POSFEEDENABLE	TOGGLE	F	Positive Feedback IR Comp
POSFEEDRESISTANCE	QUANT	0	Positive Feedback Resistance (ohm)
ACHSELECT	IQUANT	0	Ach Select
CABLEID	IQUANT	14	Cable ID
DCCALDATE	LABEL	2/27/2020	DC Calibration Date
ACCALDATE	LABEL	2/27/2020	AC Calibration Date
THERMOSELECT	IQUANT	1	Thermo Select
FRAMEWORKVERSION	QUANT	6.33	Framework Version
INSTRUMENTVERSION	LABEL	3.50	Instrument Version
ZCURVE	TABLE
	Pt	Time	Freq	Zreal	Zimag	Zsig	Zmod	Zphz	Idc	Vdc	IERange
	#	s	Hz	ohm	ohm	V	ohm	°	A	V	#
	0	1	1000078	1810.493	-2085.736	1	2761.916	-49.04086	2.285729E-008	0.0376984	8
	1	2	794390.6	2194.874	-2265.748	1	3154.534	-45.91028	5.757338E-008	0.037306	8
	2	2	630984.4	2627.647	-2404.437	1	3561.72	-42.46017	6.759832E-008	0.0371495	8
	3	2	501234.4	3091.355	-2492.424	1	3970.976	-38.8777	5.385481E-008	0.0370388	8
	4	3	398109.4	3570.035	-2520.832	1	4370.325	-35.22624	5.212422E-008	0.0369783	8
	5	3	316265.6	4042.065	-2477.979	1	4741.167	-31.51029	9.928485E-008	0.0369249	8
	6	3	251203.1	4489.151	-2398.45	1	5089.699	-28.11456	6.603868E-008	0.0369497	8
	7	4	199546.9	4903.802	-2263.791	1	5401.113	-24.77993	4.745907E-008	0.0369299	8
	8	4	158578.1	5262.766	-2108.165	1	5669.309	-21.8301	9.606438E-008	0.036903	8
	9	4	125953.1	5642.728	-1862.838	1	5942.268	-18.26965	9.858874E-009	0.0368555	7
	10	5	100078.1	5888.458	-1698.688	1	6128.58	-16.09167	4.066619E-009	0.0368682	7
	11	5	79453.13	6116.475	-1552.799	1	6310.503	-14.24483	3.132105E-009	0.0368553	7
	12	5	63140.62	6310.42	-1414.595	1	6467.03	-12.63501	3.539817E-009	0.0368511	7
	13	6	50203.12	6475.25	-1290.902	1	6602.673	-11.27463	3.029881E-009	0.036846	7
	14	6	39890.62	6617.643	-1186.085	1	6723.094	-10.16128	3.025698E-009	0.0368416	7
	15	6	31640.63	6740.457	-1101.382	1	6829.847	-9.280049	2.965967E-009	0.0368402	7
	16	6	25171.88	6843.7	-1039.634	1	6922.215	-8.63782	2.919436E-009	0.0368368	7
	17	7	20015.62	6937.834	-1000.984	1	7009.672	-8.209925	3.420921E-009	0.0368418	7
	18	7	15890.62	7025.078	-987.396	1	7094.129	-8.000684	3.459328E-009	0.0368425	7
	19	7	12609.37	7106.249	-1000.199	1	7176.292	-8.011707	4.456171E-009	0.0368493	7
	20	8	10078.13	7182.207	-1037.15	1	7256.705	-8.217021	4.544804E-009	0.0368516	7
	21	8	8015.625	7261.478	-1105.742	1	7345.184	-8.658204	4.391504E-009	0.0368498	7
	22	8	6328.125	7344.219	-1208.004	1	7442.904	-9.340584	3.355901E-009	0.0368398	7
	23	9	5015.625	7432.878	-1347.788	1	7554.086	-10.27765	4.469944E-009	0.0368414	7
	24	9	3984.375	7526.704	-1527.479	1	7680.134	-11.47189	4.211008E-009	0.0368422	7
	25	9	3170.956	7631.271	-1755.487	1	7830.583	-12.95487	4.554335E-009	0.036839	7
	26	10	2527.573	7745.167	-2036.789	1	8008.503	-14.73379	4.235535E-009	0.0368337	7
	27	10	1976.103	7885.343	-2414.913	1	8246.845	-17.02738	3.940034E-009	0.0368326	7
	28	10	1577.524	8035.234	-2845.299	1	8524.125	-19.4992	4.744672E-009	0.0368276	7
	29	11	1265.625	8201.92	-3355.47	1	8861.753	-22.24986	3.698905E-009	0.0368267	7
	30	11	998.264	8420.567	-4016.386	1	9329.379	-25.4999	7.930075E-011	0.0368792	6
	31	11	796.875	8656.306	-4798.434	1	9897.3	-29.00084	-6.831004E-011	0.036883	6
	32	12	627.7902	8958.45	-5803.152	1	10673.82	-32.93457	1.42675E-010	0.0368884	6
	33	12	505.5147	9281.405	-6910.155	1	11571.29	-36.66827	-3.674109E-010	0.0368831	6
	34	12	397.9953	9715.95	-8394.004	1	12839.74	-40.82508	7.450165E-010	0.0369019	6
	35	13	315.5048	10232.49	-10150	1	14412.72	-44.76812	6.421366E-010	0.0368981	6
	36	13	252.4038	10839.73	-12190.3	1	16312.67	-48.35619	6.444425E-010	0.036895	6
	37	13	198.6229	11646.5	-14848.04	1	18870.75	-51.89009	6.29218E-010	0.036896	6
	38	14	158.3615	12600.44	-17892.05	1	21883.71	-54.84496	6.609459E-010	0.0368954	6
	39	14	125.558	13822.8	-21655.01	1	25690.64	-57.44914	5.507253E-010	0.0368989	6
	40	14	100.4464	15300.79	-25993.98	1	30162.91	-59.51773	6.377557E-010	0.0368921	6
	41	15	79.00281	17320.45	-31601.21	1	36036.57	-61.2731	4.535075E-010	0.0368908	6
	42	15	63.3446	19674.77	-37752.56	1	42571.73	-62.4737	4.70274E-010	0.0368926	6
	43	15	49.86702	22911.52	-45664.11	1	51089.61	-63.35524	4.317422E-010	0.0368865	6
	44	16	39.72458	26805.22	-54548.77	1	60779.02	-63.83054	5.280363E-010	0.0368945	6
	45	16	31.6723	31665.34	-64897.12	1	72210.31	-63.9908	6.34288E-010	0.0368945	6
	46	16	24.93351	38105.34	-77672.29	1	86515.91	-63.86784	1.391285E-012	0.0368936	6
	47	17	19.86229	45751.84	-91764.63	1	102537.7	-63.50016	7.61052E-011	0.0368941	6
	48	17	15.83615	55127.69	-107919.8	1	121184.8	-62.9411	-1.15171E-009	0.0368968	5
	49	17	12.40079	67573.88	-127909.5	1	144662	-62.15276	-1.024158E-009	0.0369018	5
	50	17	9.93114	81468.81	-148457.4	1	169342.2	-61.24339	-1.187497E-009	0.036899	5
	51	18	7.944915	97784.7	-171730.3	1	197618.7	-60.34243	-9.718013E-010	0.0369034	5
	52	18	6.317385	118316	-198244.5	1	230867	-59.17047	3.393784E-010	0.0368821	5
	53	19	5.008013	143174.4	-228127.8	1	269334.7	-57.88736	1.024558E-010	0.0368898	5
	54	20	3.945707	172638	-261966.5	1	313736.1	-56.6148	-3.49803E-010	0.036892	5
	55	21	3.158693	204814.1	-295573.4	1	359600.4	-55.28043	1.567269E-010	0.0368804	5
	56	22	2.504006	242180.8	-334221.2	1	412741.3	-54.07245	3.253474E-010	0.0368859	5
	57	23	1.998082	282531.7	-373835	1	468590.2	-52.91926	-1.484415E-011	0.0368423	5
	58	25	1.584686	327376.6	-420715.4	1	533082.5	-52.11199	-6.741599E-011	0.0368394	5
	59	27	1.266892	373181.1	-469698.2	1	599900.4	-51.53242	1.754829E-011	0.0368743	5
	60	29	0.999041	426513.8	-528992.6	1	679519.9	-51.12162	7.493242E-011	0.0369049	5
