EXPLAIN
TAG	EISPOT
TITLE	LABEL	Potentiostatic EIS	Test &Identifier
DATE	LABEL	6/19/2020	Date
TIME	LABEL	16:25:08	Time
NOTES	NOTES	1	&Notes...
	
PSTAT	PSTAT	REF600-10037	Potentiostat
VDC	POTEN	0.00000E+000	T	DC &Voltage (V)
FREQINIT	QUANT	1.00000E+006	Initial Fre&q. (Hz)
FREQFINAL	QUANT	1.00000E+000	Final Fre&q. (Hz)
PTSPERDEC	QUANT	1.00000E+001	Points/&decade
VAC	QUANT	1.00000E+002	AC &Voltage (mV rms)
AREA	QUANT	2.50000E-001	&Area (cm^2)
CONDIT	TWOPARAM	F	5.00000E+000	0.00000E+000	Conditionin&g	Time(s)	E(V)
DELAY	TWOPARAM	F	5.00000E+000	0.00000E+000	Init. De&lay	Time(s)	Stab.(mV/s)
SPEED	SELECTOR	0	&Optimize for:
ZGUESS	QUANT	1.00000E+003	E&stimated Z (ohms)
OCVCURVE	TABLE	39
	Pt	T	Vf	Vm	Ach	Over
	#	s	V vs. Ref.	V	V	bits
	0	0.258333	1.50205E-001	1.50205E-001	5.27154E-004	...........
	1	0.516667	1.50205E-001	1.50204E-001	5.19621E-004	...........
	2	0.775	1.50205E-001	1.50200E-001	5.16154E-004	...........
	3	1.03333	1.50204E-001	1.50199E-001	5.16821E-004	...........
	4	1.29167	1.50203E-001	1.50202E-001	5.24587E-004	...........
	5	1.55	1.50202E-001	1.50200E-001	5.21054E-004	...........
	6	1.80833	1.50201E-001	1.50197E-001	5.27554E-004	...........
	7	2.06667	1.50200E-001	1.50197E-001	5.25354E-004	...........
	8	2.325	1.50199E-001	1.50197E-001	5.27087E-004	...........
	9	2.58333	1.50198E-001	1.50196E-001	5.17888E-004	...........
	10	2.84167	1.50197E-001	1.50195E-001	5.23587E-004	...........
	11	3.1	1.50197E-001	1.50192E-001	5.25054E-004	...........
	12	3.35833	1.50196E-001	1.50187E-001	5.18154E-004	...........
	13	3.61667	1.50194E-001	1.50187E-001	5.19121E-004	...........
	14	3.875	1.50192E-001	1.50188E-001	5.15121E-004	...........
	15	4.13333	1.50189E-001	1.50186E-001	5.22154E-004	...........
	16	4.39167	1.50188E-001	1.50188E-001	5.24754E-004	...........
	17	4.65	1.50187E-001	1.50185E-001	5.18321E-004	...........
	18	4.90833	1.50187E-001	1.50201E-001	5.24087E-004	...........
	19	5.16667	1.50188E-001	1.50197E-001	5.21188E-004	...........
	20	5.425	1.50191E-001	1.50191E-001	5.25421E-004	...........
	21	5.68333	1.50193E-001	1.50188E-001	5.20221E-004	...........
	22	5.94167	1.50194E-001	1.50188E-001	5.22254E-004	...........
	23	6.2	1.50192E-001	1.50187E-001	5.19654E-004	...........
	24	6.45833	1.50190E-001	1.50188E-001	5.17121E-004	...........
	25	6.71667	1.50189E-001	1.50184E-001	5.22954E-004	...........
	26	6.975	1.50187E-001	1.50183E-001	5.14354E-004	...........
	27	7.23333	1.50186E-001	1.50181E-001	5.18421E-004	...........
	28	7.49167	1.50184E-001	1.50178E-001	5.20021E-004	...........
	29	7.75	1.50183E-001	1.50174E-001	5.27654E-004	...........
	30	8.00833	1.50180E-001	1.50171E-001	5.22887E-004	...........
	31	8.26667	1.50178E-001	1.50172E-001	5.23254E-004	...........
	32	8.525	1.50175E-001	1.50176E-001	5.29287E-004	...........
	33	8.78333	1.50173E-001	1.50171E-001	5.33421E-004	...........
	34	9.04167	1.50173E-001	1.50169E-001	5.30821E-004	...........
	35	9.3	1.50172E-001	1.50168E-001	5.27621E-004	...........
	36	9.5583	1.50171E-001	1.50168E-001	5.29887E-004	...........
	37	9.8167	1.50170E-001	1.50167E-001	5.29221E-004	...........
	38	10.075	1.50169E-001	1.50164E-001	5.29187E-004	...........
EOC	QUANT	0.1501686	Open Circuit (V)
PSTATMODEL	IQUANT	4	Pstat Model
PSTATSECTION	LABEL	REF600-10037	Pstat Section
PSTATSERIALNO	LABEL	10037	Pstat Serial Number
CTRLMODE	IQUANT	1	Control Mode
IESTAB	IQUANT	0	I/E Stability
CASPEED	IQUANT	1	Control Amp Speed
CONVENTION	IQUANT	1	Current Convention
ICHRANGE	IQUANT	2	Ich Range
ICHRANGEMODE	TOGGLE	F	Ich Auto Range
ICHOFFSETENABLE	TOGGLE	T	Ich Offset Enable
ICHOFFSET	QUANT	0	Ich Offset (V)
ICHFILTER	IQUANT	3	Ich Filter
VCHRANGE	IQUANT	2	Vch Range
VCHRANGEMODE	TOGGLE	F	Vch Auto Range
VCHOFFSETENABLE	TOGGLE	T	Vch Offset Enable
VCHOFFSET	QUANT	0	Vch Offset (V)
VCHFILTER	IQUANT	3	Vch Filter
ACHRANGE	IQUANT	2	Ach Range
ACHOFFSETENABLE	TOGGLE	F	Ach Offset Enable
ACHOFFSET	QUANT	0	Ach Offset (V)
ACHFILTER	IQUANT	3	Ach Filter
IERANGELOWERLIMIT	IQUANT	1	I/E Range Lower Limit
IERANGEMODE	TOGGLE	F	I/E AutoRange
IERANGE	IQUANT	8	I/E Range
POSFEEDENABLE	TOGGLE	F	Positive Feedback IR Comp
POSFEEDRESISTANCE	QUANT	0	Positive Feedback Resistance (ohm)
ACHSELECT	IQUANT	0	Ach Select
CABLEID	IQUANT	14	Cable ID
DCCALDATE	LABEL	6/8/2020	DC Calibration Date
ACCALDATE	LABEL	6/8/2020	AC Calibration Date
THERMOSELECT	IQUANT	1	Thermo Select
FRAMEWORKVERSION	QUANT	6.33	Framework Version
INSTRUMENTVERSION	LABEL	3.50	Instrument Version
ZCURVE	TABLE
	Pt	Time	Freq	Zreal	Zimag	Zsig	Zmod	Zphz	Idc	Vdc	IERange
	#	s	Hz	ohm	ohm	V	ohm	°	A	V	#
	0	2	1000078	1995.557	-1875.715	1	2738.714	-43.22687	7.872649E-008	0.1591141	8
	1	2	794390.6	2271.71	-1999.496	1	3026.327	-41.35334	7.753304E-008	0.15883	8
	2	3	630984.4	2544.576	-2125.753	1	3315.674	-39.87557	7.52018E-008	0.1586789	8
	3	3	501234.4	2812.683	-2262.353	1	3609.63	-38.81111	6.337574E-008	0.1585974	8
	4	3	398109.4	3078.645	-2432.371	1	3923.581	-38.3115	6.936013E-008	0.1585549	8
	5	4	316265.6	3346.824	-2638.661	1	4261.897	-38.25251	7.799652E-008	0.1585381	8
	6	4	251203.1	3623.23	-2900.582	1	4641.247	-38.67907	9.560599E-008	0.1585867	8
	7	4	199546.9	3920.628	-3234.31	1	5082.528	-39.52082	7.19041E-008	0.1586461	8
	8	5	158578.1	4261.125	-3638.011	1	5602.885	-40.48963	7.949751E-008	0.1586253	8
	9	5	125953.1	4772.003	-4073.171	1	6273.973	-40.48261	3.111801E-008	0.1586468	7
	10	5	100078.1	5247.557	-4658.103	1	7016.75	-41.59453	1.183597E-008	0.1586078	7
	11	5	79453.13	5806.042	-5350.032	1	7895.123	-42.65931	1.294078E-008	0.1585909	7
	12	6	63140.62	6511.799	-6124.277	1	8939.256	-43.24341	2.537059E-008	0.1585633	7
	13	6	50203.12	7328.174	-6997.551	1	10132.51	-43.67791	-3.892236E-010	0.1585483	7
	14	6	39890.62	8362.742	-7907.875	1	11509.56	-43.39864	9.3949E-009	0.1585422	7
	15	7	31640.63	9614.43	-8892.655	1	13096.43	-42.76661	1.107805E-009	0.1585369	7
	16	7	25171.88	11080.77	-9842.77	1	14821.05	-41.6139	1.282872E-009	0.1585353	7
	17	7	20015.62	12787.84	-10699.16	1	16673.36	-39.91809	1.011839E-008	0.1585419	7
	18	8	15890.62	14729.18	-11461.72	1	18663.33	-37.88879	1.693803E-008	0.1585503	7
	19	8	12609.37	16921.25	-11988.31	1	20737.6	-35.31668	1.242963E-008	0.1585279	7
	20	8	10078.13	19098.72	-12451.06	1	22798.9	-33.1016	1.59128E-008	0.1585497	7
	21	9	8015.625	21427.99	-12527.76	1	24821.43	-30.31247	4.126812E-009	0.158537	7
	22	9	6328.125	23736.34	-12280.2	1	26724.84	-27.35517	5.320722E-009	0.1585383	7
	23	9	5015.625	25882.78	-11855.16	1	28468.63	-24.60933	1.25637E-008	0.1585433	7
	24	10	3984.375	27690.35	-11197.41	1	29868.67	-22.0174	1.929712E-008	0.1585534	7
	25	10	3170.956	29190.82	-10472.1	1	31012.4	-19.73527	1.816745E-008	0.1585476	7
	26	10	2527.573	30724.85	-10005.44	1	32312.93	-18.03766	1.194003E-008	0.1585425	7
	27	11	1976.103	31935.84	-9427.945	1	33298.41	-16.4474	1.801884E-008	0.158542	7
	28	11	1577.524	32833.3	-9010.519	1	34047.25	-15.34601	1.193148E-008	0.1585407	7
	29	11	1265.625	33618.43	-8847.94	1	34763.27	-14.74513	1.630082E-008	0.1585428	7
	30	12	998.264	34495.95	-8858.852	1	35615.3	-14.4028	1.554844E-009	0.1585341	7
	31	12	796.875	35200.86	-9033.499	1	36341.5	-14.39306	6.403753E-009	0.158535	6
	32	12	627.7902	35936.03	-9534.3	1	37179.31	-14.85899	1.718736E-009	0.1585364	6
	33	13	505.5147	36500.34	-10237.08	1	37908.74	-15.66696	3.174606E-009	0.1585248	6
	34	13	397.9953	37265.39	-11290.99	1	38938.36	-16.85621	2.528914E-009	0.1585642	6
	35	13	315.5048	37847.2	-12796.78	1	39952.07	-18.68126	7.972047E-009	0.158546	6
	36	14	252.4038	38829.59	-14359.01	1	41399.5	-20.29417	-1.678737E-009	0.158557	6
	37	14	198.6229	39624.48	-16641.58	1	42977.22	-22.78155	-3.770124E-010	0.1585593	6
	38	14	158.3615	40554.72	-19334.11	1	44927.64	-25.48906	7.995436E-011	0.158558	6
	39	15	125.558	41732.35	-22731.46	1	47521.66	-28.57697	-4.000519E-011	0.1585567	6
	40	15	100.4464	43128.02	-26705.33	1	50726.73	-31.76623	1.784006E-010	0.158554	6
	41	15	79.00281	45138.15	-31895.94	1	55270.28	-35.24615	5.452888E-011	0.1585561	6
	42	16	63.3446	47569.96	-37609.71	1	60641.5	-38.33056	1.75219E-010	0.1585524	6
	43	16	49.86702	50910.88	-44930.57	1	67901.95	-41.42949	1.202061E-009	0.1585565	6
	44	17	39.72458	55218.42	-53796.46	1	77091.72	-44.25269	4.203805E-009	0.1585398	6
	45	17	31.6723	60072.54	-62490.53	1	86682.04	-46.13022	-7.891419E-010	0.1585519	6
	46	18	24.93351	66849.88	-73864.8	1	99623.9	-47.85395	1.656359E-009	0.1585571	6
	47	18	19.86229	76501.34	-86778.82	1	115685	-48.60166	-3.189092E-009	0.1499829	6
	48	18	15.83615	86485.39	-100367.1	1	132488.8	-49.24883	-2.8746E-009	0.1499746	6
	49	19	12.40079	99516.5	-116516.8	1	153230.9	-49.4995	-3.028396E-009	0.1499826	6
	50	19	9.93114	113313.5	-132334.7	1	174219.4	-49.42773	-2.813075E-009	0.1499869	6
	51	20	7.944915	129218	-149450.6	1	197567.1	-49.15264	-2.461512E-009	0.1499884	6
	52	21	6.317385	147151.9	-168171.4	1	223462.1	-48.8137	-1.235957E-009	0.1499848	6
	53	22	5.008013	167163.2	-189127.4	1	252413.7	-48.52764	-9.597451E-010	0.149988	6
	54	23	3.945707	189402.3	-213325	1	285273.2	-48.39948	-1.233076E-009	0.1499832	6
	55	24	3.158693	211491.2	-238785.8	1	318978.4	-48.46888	-9.440306E-010	0.1499889	6
	56	25	2.504006	236750.3	-269357.5	1	358614.2	-48.68631	-7.210428E-010	0.1499842	6
	57	27	1.998082	262655.8	-303723.9	1	401542.4	-49.14725	-9.098217E-010	0.1499929	5
	58	29	1.584686	291052.9	-345437.8	1	451706.9	-49.88377	-6.698101E-010	0.1499899	5
	59	32	1.266892	320646.3	-393113.1	1	507298.6	-50.79728	-4.784011E-010	0.1499856	5
	60	35	0.999041	354626.7	-453847.5	1	575966.8	-51.9967	-5.25347E-010	0.1499909	5
