EXPLAIN
TAG	EISPOT
TITLE	LABEL	Potentiostatic EIS	Test &Identifier
DATE	LABEL	5/26/2020	Date
TIME	LABEL	17:55:03	Time
NOTES	NOTES	1	&Notes...
	
PSTAT	PSTAT	REF600-11020	Potentiostat
VDC	POTEN	0.00000E+000	T	DC &Voltage (V)
FREQINIT	QUANT	1.00000E+006	Initial Fre&q. (Hz)
FREQFINAL	QUANT	1.00000E+000	Final Fre&q. (Hz)
PTSPERDEC	QUANT	1.00000E+001	Points/&decade
VAC	QUANT	2.50000E+001	AC &Voltage (mV rms)
AREA	QUANT	5.00000E-004	&Area (cm^2)
CONDIT	TWOPARAM	F	5.00000E+000	0.00000E+000	Conditionin&g	Time(s)	E(V)
DELAY	TWOPARAM	T	3.00000E+000	0.00000E+000	Init. De&lay	Time(s)	Stab.(mV/s)
SPEED	SELECTOR	0	&Optimize for:
ZGUESS	QUANT	1.00000E+003	E&stimated Z (ohms)
OCVCURVE	TABLE	12
	Pt	T	Vf	Vm	Ach	Over
	#	s	V vs. Ref.	V	V	bits
	0	0.258333	1.45029E-001	1.45029E-001	5.82997E-004	...........
	1	0.516667	1.45029E-001	1.44996E-001	5.79597E-004	...........
	2	0.775	1.45025E-001	1.44965E-001	5.77630E-004	...........
	3	1.03333	1.45014E-001	1.44939E-001	5.82197E-004	...........
	4	1.29167	1.44995E-001	1.44915E-001	5.82630E-004	...........
	5	1.55	1.44970E-001	1.44890E-001	5.83630E-004	...........
	6	1.80833	1.44944E-001	1.44869E-001	5.83563E-004	...........
	7	2.06667	1.44918E-001	1.44848E-001	5.87496E-004	...........
	8	2.325	1.44894E-001	1.44828E-001	5.83263E-004	...........
	9	2.58333	1.44871E-001	1.44807E-001	5.81797E-004	...........
	10	2.84167	1.44850E-001	1.44792E-001	5.80663E-004	...........
	11	3.1	1.44830E-001	1.44773E-001	5.77797E-004	...........
EOC	QUANT	0.1448298	Open Circuit (V)
PSTATMODEL	IQUANT	4	Pstat Model
PSTATSECTION	LABEL	REF600-11020	Pstat Section
PSTATSERIALNO	LABEL	11020	Pstat Serial Number
CTRLMODE	IQUANT	1	Control Mode
IESTAB	IQUANT	0	I/E Stability
CASPEED	IQUANT	1	Control Amp Speed
CONVENTION	IQUANT	1	Current Convention
ICHRANGE	IQUANT	2	Ich Range
ICHRANGEMODE	TOGGLE	F	Ich Auto Range
ICHOFFSETENABLE	TOGGLE	T	Ich Offset Enable
ICHOFFSET	QUANT	0	Ich Offset (V)
ICHFILTER	IQUANT	3	Ich Filter
VCHRANGE	IQUANT	2	Vch Range
VCHRANGEMODE	TOGGLE	F	Vch Auto Range
VCHOFFSETENABLE	TOGGLE	T	Vch Offset Enable
VCHOFFSET	QUANT	0	Vch Offset (V)
VCHFILTER	IQUANT	3	Vch Filter
ACHRANGE	IQUANT	2	Ach Range
ACHOFFSETENABLE	TOGGLE	F	Ach Offset Enable
ACHOFFSET	QUANT	0	Ach Offset (V)
ACHFILTER	IQUANT	3	Ach Filter
IERANGELOWERLIMIT	IQUANT	1	I/E Range Lower Limit
IERANGEMODE	TOGGLE	F	I/E AutoRange
IERANGE	IQUANT	8	I/E Range
POSFEEDENABLE	TOGGLE	F	Positive Feedback IR Comp
POSFEEDRESISTANCE	QUANT	0	Positive Feedback Resistance (ohm)
ACHSELECT	IQUANT	0	Ach Select
CABLEID	IQUANT	14	Cable ID
DCCALDATE	LABEL	2/27/2020	DC Calibration Date
ACCALDATE	LABEL	2/27/2020	AC Calibration Date
THERMOSELECT	IQUANT	1	Thermo Select
FRAMEWORKVERSION	QUANT	6.33	Framework Version
INSTRUMENTVERSION	LABEL	3.50	Instrument Version
ZCURVE	TABLE
	Pt	Time	Freq	Zreal	Zimag	Zsig	Zmod	Zphz	Idc	Vdc	IERange
	#	s	Hz	ohm	ohm	V	ohm	°	A	V	#
	0	1	1000078	1864.215	-2580.014	1	3183.044	-54.14963	1.19578E-007	0.1470722	8
	1	2	794390.6	2311.885	-2873.799	1	3688.297	-51.18436	3.580167E-008	0.1467917	8
	2	2	630984.4	2842.118	-3137.633	1	4233.483	-47.82921	5.966096E-008	0.1466166	8
	3	2	501234.4	3429.858	-3347.005	1	4792.323	-44.29955	5.428681E-008	0.1465264	8
	4	3	398109.4	4072.416	-3484.874	1	5359.937	-40.55448	9.445903E-008	0.1464479	8
	5	3	316265.6	4742.821	-3551.763	1	5925.316	-36.82849	4.189181E-008	0.1464404	8
	6	3	251203.1	5415	-3533.732	1	6466.025	-33.12775	5.622913E-008	0.1464416	8
	7	4	199546.9	6053.604	-3430.541	1	6958.07	-29.53996	4.560926E-008	0.146435	8
	8	4	158578.1	6650.409	-3269.529	1	7410.652	-26.18004	8.106163E-008	0.146399	8
	9	4	125953.1	7283.547	-2968.674	1	7865.309	-22.17513	3.866329E-010	0.1463663	7
	10	4	100078.1	7721.95	-2738.462	1	8193.148	-19.52621	1.353413E-009	0.1463502	7
	11	5	79453.13	8125.701	-2512.024	1	8505.132	-17.17876	1.780043E-009	0.1463438	7
	12	5	63140.62	8464.875	-2286.559	1	8768.265	-15.11616	1.485619E-009	0.1463434	7
	13	5	50203.12	8752.593	-2073.889	1	8994.938	-13.33015	1.487363E-009	0.1463345	7
	14	6	39890.62	8996.511	-1885.397	1	9191.949	-11.83617	2.885824E-009	0.1463436	7
	15	6	31640.63	9202.736	-1721.391	1	9362.347	-10.59486	2.542807E-009	0.1463367	7
	16	6	25171.88	9374.543	-1591.932	1	9508.75	-9.63771	2.025874E-009	0.146341	7
	17	7	20015.62	9530.04	-1496.137	1	9646.77	-8.922137	2.725959E-009	0.1463358	7
	18	7	15890.62	9662.61	-1429.524	1	9767.78	-8.41552	1.995706E-009	0.1463263	7
	19	7	12609.37	9841.01	-1264.716	1	9921.95	-7.323219	-6.221426E-011	0.1463881	6
	20	8	10078.13	9943.43	-1292.113	1	10027.03	-7.403893	2.514355E-011	0.1463822	6
	21	8	8015.625	10045.54	-1352.711	1	10136.21	-7.669199	-1.036238E-010	0.1463857	6
	22	8	6328.125	10149.86	-1453.648	1	10253.43	-8.150392	-6.347056E-011	0.1463779	6
	23	9	5015.625	10255.62	-1595.076	1	10378.93	-8.840489	-9.002908E-011	0.1463794	6
	24	9	3984.375	10361.26	-1783.919	1	10513.71	-9.76895	-9.971751E-011	0.1463841	6
	25	9	3170.956	10476.27	-2029.294	1	10671.01	-10.96265	-2.494293E-010	0.1463835	6
	26	10	2527.573	10594.81	-2339.376	1	10850.01	-12.45135	-5.125817E-010	0.1463758	6
	27	10	1976.103	10738.07	-2768.866	1	11089.31	-14.45904	-5.772835E-010	0.1463744	6
	28	10	1577.524	10881.03	-3262.815	1	11359.7	-16.69202	-2.520784E-010	0.1463827	6
	29	11	1265.625	11044.93	-3861.174	1	11700.39	-19.269	-4.119521E-010	0.1463716	6
	30	11	998.264	11254.32	-4656.339	1	12179.54	-22.47674	-2.037286E-010	0.1463741	6
	31	11	796.875	11491.27	-5588.336	1	12778.06	-25.93418	-2.988125E-010	0.1463779	6
	32	11	627.7902	11784.7	-6799.796	1	13605.75	-29.98503	-1.927857E-010	0.1463815	6
	33	12	505.5147	12111.06	-8144.73	1	14595.01	-33.92097	-2.93034E-010	0.1463717	6
	34	12	397.9953	12555.41	-9953.96	1	16022.47	-38.40749	3.102242E-010	0.1464011	6
	35	12	315.5048	13083.56	-12105.08	1	17824.49	-42.77539	3.416354E-010	0.1463973	6
	36	13	252.4038	13704.75	-14614.26	1	20034.89	-46.83953	3.285888E-010	0.146394	6
	37	13	198.6229	14522.12	-17895.83	1	23046.75	-50.94133	2.879713E-010	0.1463939	6
	38	13	158.3615	15471.29	-21678.03	1	26632.65	-54.48511	3.723191E-010	0.1463901	6
	39	14	125.558	16662.96	-26389.86	1	31210.23	-57.73106	4.149606E-010	0.1463941	6
	40	14	100.4464	18071.7	-31886.03	1	36651.12	-60.45721	3.424039E-010	0.1463951	6
	41	14	79.00281	19959.56	-39103.47	1	43902.91	-62.9589	2.693616E-010	0.1463934	6
	42	15	63.3446	22129.64	-47179.74	1	52111.89	-64.87109	2.580481E-010	0.1463876	6
	43	15	49.86702	25102.31	-57815.66	1	63029.97	-66.53056	2.719503E-010	0.1463904	6
	44	15	39.72458	28718.03	-70098.75	1	75753.28	-67.72209	1.178465E-010	0.1463952	6
	45	16	31.6723	33349.88	-84876.46	1	91193.35	-68.54902	3.097386E-010	0.1463927	6
	46	16	24.93351	39734.26	-103632.6	1	110988.9	-69.02245	-2.056729E-010	0.1463913	5
	47	16	19.86229	47602.41	-125107	1	133857.2	-69.1685	3.109964E-010	0.1463968	5
	48	17	15.83615	57836	-150569.3	1	161295.1	-68.98744	-5.420052E-010	0.1463916	5
	49	17	12.40079	72252.64	-183058.5	1	196801.6	-68.46101	-5.539323E-010	0.1463951	5
	50	17	9.93114	89253.14	-217429.7	1	235035.8	-67.68225	-6.592357E-010	0.1463934	5
	51	18	7.944915	110677.1	-257322.4	1	280114.7	-66.72694	-2.668693E-010	0.1463978	5
	52	18	6.317385	138664.5	-303921.1	1	334059.7	-65.47507	-9.44991E-011	0.1463937	5
	53	19	5.008013	174254.3	-357588.8	1	397786.7	-64.01987	-2.168275E-010	0.1463878	5
	54	20	3.945707	219808.9	-418460.4	1	472678.6	-62.28796	2.124093E-011	0.146396	5
	55	21	3.158693	270881.5	-481781.7	1	552711.9	-60.65315	-1.647411E-010	0.1463761	5
	56	22	2.504006	334815.8	-552046.1	1	645644.3	-58.7632	5.862066E-011	0.1463811	5
	57	23	1.998082	406445.3	-626039.8	1	746407.1	-57.00706	1.630448E-010	0.1464112	5
	58	24	1.584686	491784.8	-704434	1	859115.6	-55.08005	7.789478E-011	0.1463663	5
	59	26	1.266892	586952.9	-786619.6	1	981470	-53.27076	2.691972E-011	0.1463327	5
	60	29	0.999041	698592.8	-880206.9	1	1123742	-51.56206	-3.668375E-011	0.1463365	4
