EXPLAIN
TAG	EISPOT
TITLE	LABEL	Potentiostatic EIS	Test &Identifier
DATE	LABEL	3/12/2020	Date
TIME	LABEL	13:15:18	Time
NOTES	NOTES	1	&Notes...
	
PSTAT	PSTAT	REF600-11020	Potentiostat
VDC	POTEN	0.00000E+000	T	DC &Voltage (V)
FREQINIT	QUANT	1.00000E+006	Initial Fre&q. (Hz)
FREQFINAL	QUANT	1.00000E+000	Final Fre&q. (Hz)
PTSPERDEC	QUANT	1.00000E+001	Points/&decade
VAC	QUANT	2.50000E+001	AC &Voltage (mV rms)
AREA	QUANT	2.50000E-001	&Area (cm^2)
CONDIT	TWOPARAM	F	5.00000E+000	0.00000E+000	Conditionin&g	Time(s)	E(V)
DELAY	TWOPARAM	T	5.00000E+000	0.00000E+000	Init. De&lay	Time(s)	Stab.(mV/s)
SPEED	SELECTOR	1	&Optimize for:
ZGUESS	QUANT	5.00000E+003	E&stimated Z (ohms)
OCVCURVE	TABLE	19
	Pt	T	Vf	Vm	Ach	Over
	#	s	V vs. Ref.	V	V	bits
	0	0.258333	2.81304E-002	2.81304E-002	6.01463E-004	...........
	1	0.516667	2.81296E-002	2.80878E-002	6.04763E-004	...........
	2	0.775	2.81243E-002	2.80354E-002	6.04030E-004	...........
	3	1.03333	2.81089E-002	2.79925E-002	6.03830E-004	...........
	4	1.29167	2.80805E-002	2.79483E-002	6.05863E-004	...........
	5	1.55	2.80418E-002	2.79095E-002	5.99963E-004	...........
	6	1.80833	2.79986E-002	2.78700E-002	6.06396E-004	...........
	7	2.06667	2.79552E-002	2.78273E-002	6.01396E-004	...........
	8	2.325	2.79131E-002	2.77877E-002	6.01163E-004	...........
	9	2.58333	2.78720E-002	2.77512E-002	6.03063E-004	...........
	10	2.84167	2.78317E-002	2.77117E-002	6.05230E-004	...........
	11	3.1	2.77923E-002	2.76772E-002	6.04663E-004	...........
	12	3.35833	2.77539E-002	2.76441E-002	6.03896E-004	...........
	13	3.61667	2.77168E-002	2.76079E-002	5.99930E-004	...........
	14	3.875	2.76809E-002	2.75727E-002	6.02263E-004	...........
	15	4.13333	2.76457E-002	2.75419E-002	6.02696E-004	...........
	16	4.39167	2.76110E-002	2.75040E-002	6.00230E-004	...........
	17	4.65	2.75767E-002	2.74722E-002	6.00130E-004	...........
	18	4.90833	2.75425E-002	2.74397E-002	6.02063E-004	...........
EOC	QUANT	0.0275425	Open Circuit (V)
PSTATMODEL	IQUANT	4	Pstat Model
PSTATSECTION	LABEL	REF600-11020	Pstat Section
PSTATSERIALNO	LABEL	11020	Pstat Serial Number
CTRLMODE	IQUANT	1	Control Mode
IESTAB	IQUANT	0	I/E Stability
CASPEED	IQUANT	1	Control Amp Speed
CONVENTION	IQUANT	1	Current Convention
ICHRANGE	IQUANT	2	Ich Range
ICHRANGEMODE	TOGGLE	F	Ich Auto Range
ICHOFFSETENABLE	TOGGLE	T	Ich Offset Enable
ICHOFFSET	QUANT	0	Ich Offset (V)
ICHFILTER	IQUANT	3	Ich Filter
VCHRANGE	IQUANT	2	Vch Range
VCHRANGEMODE	TOGGLE	F	Vch Auto Range
VCHOFFSETENABLE	TOGGLE	T	Vch Offset Enable
VCHOFFSET	QUANT	0	Vch Offset (V)
VCHFILTER	IQUANT	3	Vch Filter
ACHRANGE	IQUANT	2	Ach Range
ACHOFFSETENABLE	TOGGLE	F	Ach Offset Enable
ACHOFFSET	QUANT	0	Ach Offset (V)
ACHFILTER	IQUANT	3	Ach Filter
IERANGELOWERLIMIT	IQUANT	1	I/E Range Lower Limit
IERANGEMODE	TOGGLE	F	I/E AutoRange
IERANGE	IQUANT	7	I/E Range
POSFEEDENABLE	TOGGLE	F	Positive Feedback IR Comp
POSFEEDRESISTANCE	QUANT	0	Positive Feedback Resistance (ohm)
ACHSELECT	IQUANT	0	Ach Select
CABLEID	IQUANT	14	Cable ID
DCCALDATE	LABEL	2/27/2020	DC Calibration Date
ACCALDATE	LABEL	2/27/2020	AC Calibration Date
THERMOSELECT	IQUANT	1	Thermo Select
FRAMEWORKVERSION	QUANT	6.33	Framework Version
INSTRUMENTVERSION	LABEL	3.50	Instrument Version
ZCURVE	TABLE
	Pt	Time	Freq	Zreal	Zimag	Zsig	Zmod	Zphz	Idc	Vdc	IERange
	#	s	Hz	ohm	ohm	V	ohm	°	A	V	#
	0	2	1000078	1166.113	-2228.05	1	2514.761	-62.37342	4.910126E-007	0.0303828	8
	1	3	794390.6	1315.082	-2627.139	1	2937.907	-63.40857	7.559602E-006	0.028037	8
	2	5	630984.4	1565.351	-3091.272	1	3465.009	-63.14337	-1.041685E-006	0.0291607	8
	3	6	501234.4	1819.957	-3672.943	1	4099.116	-63.64141	2.266765E-006	0.0287261	8
	4	8	398109.4	2108.574	-4329.861	1	4815.993	-64.03465	5.026735E-007	0.0288816	8
	5	9	316265.6	2459.229	-5163.036	1	5718.807	-64.53086	4.099835E-006	0.0281341	8
	6	11	251203.1	2957.958	-6086.396	1	6767.107	-64.08047	-1.260978E-007	0.0290805	8
	7	12	199546.9	3433.169	-7302.977	1	8069.704	-64.82153	3.501501E-007	0.0289197	8
	8	14	158578.1	4175.975	-8459.001	1	9433.635	-63.72572	-5.234074E-007	0.0295063	8
	9	16	125953.1	5171.917	-10060.79	1	11312.31	-62.79382	1.121075E-006	0.0274416	7
	10	17	100078.1	6248.499	-11840.48	1	13388.08	-62.17834	-1.647433E-008	0.028972	7
	11	19	79453.13	7508.826	-14018.87	1	15903.18	-61.82547	-2.457214E-008	0.0291363	7
	12	20	63140.62	9203.502	-16455.4	1	18854.3	-60.78173	-1.470955E-008	0.0289584	7
	13	21	50203.12	11365.42	-19260.5	1	22363.8	-59.45559	7.511269E-008	0.0288583	7
	14	23	39890.62	14119.92	-22186.89	1	26298.87	-57.52699	-6.226681E-008	0.0290892	7
	15	24	31640.63	17483.27	-25528.69	1	30941.54	-55.59478	1.119176E-007	0.0288367	7
	16	26	25171.88	21684.64	-28542.04	1	35845.1	-52.77447	-6.345025E-010	0.0291107	7
	17	27	20015.62	26674.55	-31546.06	1	41312.05	-49.78299	1.561677E-008	0.0290175	7
	18	28	15890.62	32191.34	-33947.83	1	46783.95	-46.52127	-6.026482E-008	0.0290834	7
	19	30	12609.37	39028.7	-35432.27	1	52713.23	-42.23479	-9.190773E-009	0.0292539	6
	20	31	10078.13	44924.13	-36985.42	1	58190.2	-39.46415	-3.072807E-009	0.0292138	6
	21	32	8015.625	51063.13	-38277.32	1	63816.9	-36.85551	1.318458E-008	0.0289751	6
	22	34	6328.125	57420.19	-39231.07	1	69542.48	-34.34198	-5.747219E-009	0.0291333	6
	23	35	5015.625	63610.48	-40131.4	1	75211.85	-32.24754	9.795977E-009	0.0290617	6
	24	36	3984.375	69658.92	-40751.41	1	80703.43	-30.32821	-1.48645E-008	0.0292107	6
	25	38	3170.956	75897.84	-41531.66	1	86517.98	-28.68769	6.87245E-009	0.0291166	6
	26	39	2527.573	82047.28	-42284.86	1	92302.58	-27.26531	-3.229475E-009	0.0292154	6
	27	41	1976.103	89074.71	-42890.99	1	98863.2	-25.71161	1.71907E-008	0.0288423	6
	28	42	1577.524	95303.6	-43402.31	1	104721.2	-24.48505	-1.265457E-009	0.0292187	6
	29	43	1265.625	103114.3	-40879.32	1	110921.9	-21.62569	1.278429E-009	0.0291778	5
	30	45	998.264	109342.2	-41156.11	1	116831.2	-20.6262	2.299781E-009	0.0290972	5
	31	46	796.875	114955.2	-41715.23	1	122290.1	-19.94494	2.099834E-009	0.0289529	5
	32	47	627.7902	120826.2	-42410.18	1	128053.1	-19.34115	6.840769E-010	0.0292132	5
	33	49	505.5147	125808	-42831.28	1	132899.1	-18.80112	1.006323E-009	0.0288411	5
	34	50	397.9953	131374.1	-44501.79	1	138706.7	-18.71335	6.823487E-010	0.0290797	5
	35	51	315.5048	136317.1	-46468	1	144019.5	-18.8233	-2.407425E-010	0.0290772	5
	36	53	252.4038	141690.5	-49044.94	1	149938.7	-19.09285	-1.500553E-010	0.0290786	5
	37	54	198.6229	147168.3	-52841.36	1	156367.2	-19.75088	7.044091E-010	0.0290764	5
	38	56	158.3615	153152.6	-57060.76	1	163437	-20.43411	7.400745E-010	0.0290789	5
	39	57	125.558	159402.9	-62873.24	1	171354.4	-21.52575	6.461645E-010	0.0290806	5
	40	59	100.4464	166085.5	-69038.22	1	179863	-22.57161	4.441814E-010	0.0290827	5
	41	60	79.00281	175111.5	-75829.91	1	190825.1	-23.41444	5.095197E-010	0.029077	5
	42	62	63.3446	187387.2	-76944.08	1	202569.4	-22.32381	-1.909131E-010	0.0290735	5
	43	63	49.86702	193466.1	-96168.8	1	216049.9	-26.4312	2.310121E-010	0.0290809	5
	44	65	39.72458	202841.2	-107490.4	1	229562	-27.92019	9.127176E-010	0.0290821	5
	45	66	31.6723	216836.1	-121006.7	1	248315.3	-29.16397	-2.157236E-011	0.0290836	5
	46	68	24.93351	231532.9	-138802.7	1	269951.2	-30.94245	8.658921E-010	0.0290788	5
	47	69	19.86229	249406.5	-158387	1	295448.9	-32.41781	-2.25743E-010	0.0290792	5
	48	71	15.83615	266428.3	-173926.3	1	318173.5	-33.13679	1.655218E-010	0.0290777	5
	49	72	12.40079	300099.2	-193577.1	1	357115.8	-32.82379	-1.394744E-009	0.0290792	5
	50	74	9.93114	319705.4	-222918.4	1	389748.8	-34.88659	6.423493E-010	0.0290784	5
	51	75	7.944915	351316	-248525.1	1	430334.4	-35.27604	-8.316458E-011	0.0290733	5
	52	77	6.317385	383657.8	-273264.5	1	471027.3	-35.46079	6.211195E-010	0.0290724	5
	53	79	5.008013	422175.6	-301028.6	1	518507.9	-35.49043	3.487722E-010	0.0290851	5
	54	82	3.945707	464137.1	-330799.8	1	569957.6	-35.47823	-1.806011E-010	0.0290765	5
	55	84	3.158693	506171.9	-358270.8	1	620135.4	-35.29104	4.129383E-010	0.0290974	5
	56	88	2.504006	552276.1	-391881.3	1	677185.2	-35.35856	-1.727818E-010	0.0290745	5
	57	91	1.998082	599232.6	-426036.2	1	735245.9	-35.41167	-2.253414E-010	0.0290679	5
	58	94	1.584686	646475.6	-465153.7	1	796428.7	-35.73586	1.199608E-010	0.0291269	5
	59	97	1.266892	690993.3	-513904.6	1	861144.4	-36.63887	-1.562152E-010	0.0290791	5
	60	102	0.999041	744732.3	-575712.3	1	941313.4	-37.70567	4.298107E-010	0.0291005	5
