EXPLAIN
TAG	EISPOT
TITLE	LABEL	Potentiostatic EIS	Test &Identifier
DATE	LABEL	6/6/2020	Date
TIME	LABEL	18:51:50	Time
NOTES	NOTES	1	&Notes...
	
PSTAT	PSTAT	REF600-11020	Potentiostat
VDC	POTEN	0.00000E+000	T	DC &Voltage (V)
FREQINIT	QUANT	1.00000E+006	Initial Fre&q. (Hz)
FREQFINAL	QUANT	1.00000E+000	Final Fre&q. (Hz)
PTSPERDEC	QUANT	1.00000E+001	Points/&decade
VAC	QUANT	2.50000E+001	AC &Voltage (mV rms)
AREA	QUANT	4.00000E-004	&Area (cm^2)
CONDIT	TWOPARAM	F	5.00000E+000	0.00000E+000	Conditionin&g	Time(s)	E(V)
DELAY	TWOPARAM	T	3.00000E+000	0.00000E+000	Init. De&lay	Time(s)	Stab.(mV/s)
SPEED	SELECTOR	0	&Optimize for:
ZGUESS	QUANT	1.00000E+003	E&stimated Z (ohms)
OCVCURVE	TABLE	12
	Pt	T	Vf	Vm	Ach	Over
	#	s	V vs. Ref.	V	V	bits
	0	0.258333	6.41936E-002	6.41936E-002	6.08096E-004	...........
	1	0.516667	6.41930E-002	6.41633E-002	6.09129E-004	...........
	2	0.775	6.41894E-002	6.41325E-002	6.20596E-004	...........
	3	1.03333	6.41791E-002	6.41043E-002	6.22829E-004	...........
	4	1.29167	6.41605E-002	6.40737E-002	6.11296E-004	...........
	5	1.55	6.41354E-002	6.40439E-002	6.10230E-004	...........
	6	1.80833	6.41066E-002	6.40110E-002	6.23096E-004	...........
	7	2.06667	6.40764E-002	6.39811E-002	6.23529E-004	...........
	8	2.325	6.40455E-002	6.39535E-002	6.17163E-004	...........
	9	2.58333	6.40148E-002	6.39222E-002	6.13129E-004	...........
	10	2.84167	6.39845E-002	6.38932E-002	6.24163E-004	...........
	11	3.1	6.39547E-002	6.38664E-002	6.15763E-004	...........
EOC	QUANT	0.0639547	Open Circuit (V)
PSTATMODEL	IQUANT	4	Pstat Model
PSTATSECTION	LABEL	REF600-11020	Pstat Section
PSTATSERIALNO	LABEL	11020	Pstat Serial Number
CTRLMODE	IQUANT	1	Control Mode
IESTAB	IQUANT	0	I/E Stability
CASPEED	IQUANT	1	Control Amp Speed
CONVENTION	IQUANT	1	Current Convention
ICHRANGE	IQUANT	2	Ich Range
ICHRANGEMODE	TOGGLE	F	Ich Auto Range
ICHOFFSETENABLE	TOGGLE	T	Ich Offset Enable
ICHOFFSET	QUANT	0	Ich Offset (V)
ICHFILTER	IQUANT	3	Ich Filter
VCHRANGE	IQUANT	2	Vch Range
VCHRANGEMODE	TOGGLE	F	Vch Auto Range
VCHOFFSETENABLE	TOGGLE	T	Vch Offset Enable
VCHOFFSET	QUANT	0	Vch Offset (V)
VCHFILTER	IQUANT	3	Vch Filter
ACHRANGE	IQUANT	2	Ach Range
ACHOFFSETENABLE	TOGGLE	F	Ach Offset Enable
ACHOFFSET	QUANT	0	Ach Offset (V)
ACHFILTER	IQUANT	3	Ach Filter
IERANGELOWERLIMIT	IQUANT	1	I/E Range Lower Limit
IERANGEMODE	TOGGLE	F	I/E AutoRange
IERANGE	IQUANT	8	I/E Range
POSFEEDENABLE	TOGGLE	F	Positive Feedback IR Comp
POSFEEDRESISTANCE	QUANT	0	Positive Feedback Resistance (ohm)
ACHSELECT	IQUANT	0	Ach Select
CABLEID	IQUANT	14	Cable ID
DCCALDATE	LABEL	2/27/2020	DC Calibration Date
ACCALDATE	LABEL	2/27/2020	AC Calibration Date
THERMOSELECT	IQUANT	1	Thermo Select
FRAMEWORKVERSION	QUANT	6.33	Framework Version
INSTRUMENTVERSION	LABEL	3.50	Instrument Version
ZCURVE	TABLE
	Pt	Time	Freq	Zreal	Zimag	Zsig	Zmod	Zphz	Idc	Vdc	IERange
	#	s	Hz	ohm	ohm	V	ohm	°	A	V	#
	0	1	1000078	1712.302	-1445.886	1	2241.108	-40.17812	4.9239E-008	0.0664218	8
	1	2	794390.6	1931.222	-1519.921	1	2457.596	-38.20366	4.693342E-008	0.066083	8
	2	2	630984.4	2147.593	-1591.955	1	2673.29	-36.54859	3.965094E-008	0.0659168	8
	3	2	501234.4	2364.156	-1671.144	1	2895.161	-35.25522	7.853706E-008	0.0658252	8
	4	3	398109.4	2580.238	-1768.173	1	3127.949	-34.42187	7.201601E-008	0.0657583	8
	5	3	316265.6	2808.517	-1884.985	1	3382.445	-33.86823	7.74998E-008	0.0656915	8
	6	3	251203.1	3044.21	-2030.66	1	3659.344	-33.70553	4.199074E-008	0.0657106	8
	7	3	199546.9	3298.051	-2195.348	1	3961.905	-33.64972	5.986018E-008	0.0657219	8
	8	4	158578.1	3582.445	-2388.249	1	4305.537	-33.68954	5.514448E-008	0.0657194	8
	9	4	125953.1	3938.063	-2571.626	1	4703.36	-33.14526	2.728539E-009	0.0656725	7
	10	4	100078.1	4277.115	-2808.936	1	5117.014	-33.29435	2.879553E-009	0.0656376	7
	11	5	79453.13	4676.827	-3084.567	1	5602.433	-33.40656	3.832819E-009	0.0656367	7
	12	5	63140.62	5120.481	-3366.811	1	6128.193	-33.32566	2.913995E-009	0.0656264	7
	13	5	50203.12	5619.149	-3662.428	1	6707.325	-33.09535	3.950347E-009	0.0656234	7
	14	6	39890.62	6174.178	-3961.145	1	7335.608	-32.68287	3.677493E-009	0.0656264	7
	15	6	31640.63	6785.222	-4255.943	1	8009.512	-32.09746	3.924385E-009	0.0656247	7
	16	6	25171.88	7444.251	-4539.868	1	8719.362	-31.37688	3.743442E-009	0.0656226	7
	17	7	20015.62	8152.967	-4816.401	1	9469.35	-30.57266	4.261948E-009	0.0656227	7
	18	7	15890.62	8894.309	-5059.281	1	10232.55	-29.63218	2.735801E-009	0.0656149	7
	19	7	12609.37	9745.2	-5217.997	1	11054.25	-28.16649	1.083077E-009	0.0656717	6
	20	8	10078.13	10500.68	-5442.945	1	11827.51	-27.39961	1.123716E-009	0.0656629	6
	21	8	8015.625	11281.46	-5674.975	1	12628.41	-26.70402	1.358897E-009	0.0656652	6
	22	8	6328.125	12098.63	-5928.342	1	13473.01	-26.1049	7.541452E-010	0.0656605	6
	23	9	5015.625	12906.36	-6197.256	1	14317.13	-25.64895	8.78063E-010	0.0656611	6
	24	9	3984.375	13708.46	-6503.562	1	15172.95	-25.38057	9.152403E-010	0.0656677	6
	25	9	3170.956	14522.46	-6865.121	1	16063.37	-25.30124	1.106046E-009	0.0656624	6
	26	10	2527.573	15328.6	-7287.013	1	16972.52	-25.42579	9.13058E-010	0.065658	6
	27	10	1976.103	16218.45	-7854.761	1	18020.42	-25.84138	6.920881E-010	0.0656571	6
	28	10	1577.524	17060	-8508.632	1	19064.11	-26.50761	9.944618E-010	0.0656573	6
	29	11	1265.625	17910.79	-9298.171	1	20180.5	-27.43553	8.441261E-010	0.065655	6
	30	11	998.264	18892.75	-10348.5	1	21541.29	-28.7117	7.435905E-010	0.0656542	6
	31	11	796.875	19951.36	-11600.69	1	23078.84	-30.17581	8.983482E-010	0.0656599	6
	32	11	627.7902	21229.04	-13182.94	1	24989.24	-31.83972	7.513937E-010	0.0656578	6
	33	12	505.5147	22613.83	-14877.92	1	27069.13	-33.3414	6.111002E-010	0.0656566	6
	34	12	397.9953	24403.57	-17007.23	1	29745.26	-34.87324	7.950449E-010	0.065665	6
	35	12	315.5048	26494.83	-19331.31	1	32797.49	-36.11545	9.35336E-010	0.0656667	6
	36	13	252.4038	28836.82	-21765.56	1	36128.96	-37.04491	8.400149E-010	0.0656641	6
	37	13	198.6229	31641.09	-24527.49	1	40034.44	-37.78206	7.984018E-010	0.0656661	6
	38	13	158.3615	34493.85	-27311.94	1	43997.36	-38.37189	8.237098E-010	0.0656631	6
	39	14	125.558	37606.32	-30516.64	1	48430.36	-39.05851	6.556032E-010	0.0656653	6
	40	14	100.4464	40595.73	-33996.55	1	52950.71	-39.94421	6.265741E-010	0.065665	6
	41	14	79.00281	43903.46	-38531.41	1	58413.89	-41.27147	4.683291E-010	0.0656648	6
	42	15	63.3446	47012.19	-43652.93	1	64153.91	-42.87809	3.75559E-010	0.0656656	6
	43	15	49.86702	50640.43	-50552.23	1	71554.05	-44.95006	3.011711E-010	0.0656577	6
	44	16	39.72458	54624.81	-58746.89	1	80218.88	-47.0823	4.864694E-010	0.0656626	6
	45	16	31.6723	59403.1	-68787.12	1	90886.72	-49.18681	2.339477E-010	0.0656565	6
	46	16	24.93351	65474.21	-81498.39	1	104541.2	-51.22229	3.218782E-010	0.0656607	5
	47	16	19.86229	72858.67	-96222.4	1	120694.4	-52.86736	-5.702829E-010	0.0656604	5
	48	17	15.83615	82157.7	-113282.9	1	139938.9	-54.04874	1.314159E-009	0.0656621	5
	49	17	12.40079	95109.4	-134711.4	1	164902.8	-54.77701	7.152297E-010	0.0656629	5
	50	17	9.93114	110080.1	-156784.1	1	191569.5	-54.92683	1.052586E-009	0.0656582	5
	51	18	7.944915	127628.1	-181479	1	221863.8	-54.88255	1.261875E-009	0.065658	5
	52	18	6.317385	150719.9	-209597.5	1	258162	-54.28039	-4.60071E-010	0.0656805	5
	53	19	5.008013	178296.8	-240303.4	1	299224.8	-53.42587	-3.382904E-010	0.0656631	5
	54	20	3.945707	210336.7	-273431.3	1	344972.7	-52.43076	3.870146E-010	0.0656659	5
	55	21	3.158693	245126.3	-306419.4	1	392402.5	-51.34125	-2.483047E-010	0.0656703	5
	56	22	2.504006	283479.9	-342972.1	1	444961.5	-50.42493	-1.194519E-010	0.0656626	5
	57	23	1.998082	324050.5	-381269.6	1	500375.1	-49.63796	2.03466E-010	0.0657007	5
	58	25	1.584686	365960.3	-426471	1	561964.8	-49.36668	1.439665E-010	0.0656745	5
	59	27	1.266892	409459.7	-475432.9	1	627450.1	-49.2638	2.994719E-011	0.0656357	5
	60	29	0.999041	459215.8	-538319.9	1	707578.6	-49.53404	-1.75668E-011	0.065618	5
