EXPLAIN
TAG	EISPOT
TITLE	LABEL	Potentiostatic EIS	Test &Identifier
DATE	LABEL	3/12/2020	Date
TIME	LABEL	13:19:24	Time
NOTES	NOTES	1	&Notes...
	
PSTAT	PSTAT	REF600-11020	Potentiostat
VDC	POTEN	0.00000E+000	T	DC &Voltage (V)
FREQINIT	QUANT	1.00000E+006	Initial Fre&q. (Hz)
FREQFINAL	QUANT	1.00000E+000	Final Fre&q. (Hz)
PTSPERDEC	QUANT	1.00000E+001	Points/&decade
VAC	QUANT	2.50000E+001	AC &Voltage (mV rms)
AREA	QUANT	2.50000E-001	&Area (cm^2)
CONDIT	TWOPARAM	F	5.00000E+000	0.00000E+000	Conditionin&g	Time(s)	E(V)
DELAY	TWOPARAM	T	5.00000E+000	0.00000E+000	Init. De&lay	Time(s)	Stab.(mV/s)
SPEED	SELECTOR	1	&Optimize for:
ZGUESS	QUANT	5.00000E+003	E&stimated Z (ohms)
OCVCURVE	TABLE	19
	Pt	T	Vf	Vm	Ach	Over
	#	s	V vs. Ref.	V	V	bits
	0	0.258333	-4.21065E-002	-4.21065E-002	5.72630E-004	...........
	1	0.516667	-4.21081E-002	-4.21863E-002	5.67697E-004	...........
	2	0.775	-4.21178E-002	-4.22829E-002	5.73963E-004	...........
	3	1.03333	-4.21480E-002	-4.24419E-002	5.76530E-004	...........
	4	1.29167	-4.22054E-002	-4.23459E-002	5.71630E-004	...........
	5	1.55	-4.22706E-002	-4.20843E-002	5.73397E-004	...........
	6	1.80833	-4.22991E-002	-4.20893E-002	5.68597E-004	...........
	7	2.06667	-4.22677E-002	-4.21762E-002	5.66930E-004	...........
	8	2.325	-4.22106E-002	-4.23472E-002	5.62630E-004	...........
	9	2.58333	-4.21826E-002	-4.22131E-002	5.60630E-004	...........
	10	2.84167	-4.21948E-002	-4.21325E-002	5.64397E-004	...........
	11	3.1	-4.22125E-002	-4.21924E-002	5.64863E-004	...........
	12	3.35833	-4.22108E-002	-4.22162E-002	5.66263E-004	...........
	13	3.61667	-4.22006E-002	-4.22526E-002	5.66130E-004	...........
	14	3.875	-4.22013E-002	-4.22674E-002	5.65230E-004	...........
	15	4.13333	-4.22148E-002	-4.21833E-002	5.66930E-004	...........
	16	4.39167	-4.22286E-002	-4.22614E-002	5.72330E-004	...........
	17	4.65	-4.22348E-002	-4.22623E-002	5.70097E-004	...........
	18	4.90833	-4.22386E-002	-4.22753E-002	5.74330E-004	...........
EOC	QUANT	-0.0422386	Open Circuit (V)
PSTATMODEL	IQUANT	4	Pstat Model
PSTATSECTION	LABEL	REF600-11020	Pstat Section
PSTATSERIALNO	LABEL	11020	Pstat Serial Number
CTRLMODE	IQUANT	1	Control Mode
IESTAB	IQUANT	0	I/E Stability
CASPEED	IQUANT	1	Control Amp Speed
CONVENTION	IQUANT	1	Current Convention
ICHRANGE	IQUANT	2	Ich Range
ICHRANGEMODE	TOGGLE	F	Ich Auto Range
ICHOFFSETENABLE	TOGGLE	T	Ich Offset Enable
ICHOFFSET	QUANT	0	Ich Offset (V)
ICHFILTER	IQUANT	3	Ich Filter
VCHRANGE	IQUANT	2	Vch Range
VCHRANGEMODE	TOGGLE	F	Vch Auto Range
VCHOFFSETENABLE	TOGGLE	T	Vch Offset Enable
VCHOFFSET	QUANT	0	Vch Offset (V)
VCHFILTER	IQUANT	3	Vch Filter
ACHRANGE	IQUANT	2	Ach Range
ACHOFFSETENABLE	TOGGLE	F	Ach Offset Enable
ACHOFFSET	QUANT	0	Ach Offset (V)
ACHFILTER	IQUANT	3	Ach Filter
IERANGELOWERLIMIT	IQUANT	1	I/E Range Lower Limit
IERANGEMODE	TOGGLE	F	I/E AutoRange
IERANGE	IQUANT	7	I/E Range
POSFEEDENABLE	TOGGLE	F	Positive Feedback IR Comp
POSFEEDRESISTANCE	QUANT	0	Positive Feedback Resistance (ohm)
ACHSELECT	IQUANT	0	Ach Select
CABLEID	IQUANT	14	Cable ID
DCCALDATE	LABEL	2/27/2020	DC Calibration Date
ACCALDATE	LABEL	2/27/2020	AC Calibration Date
THERMOSELECT	IQUANT	1	Thermo Select
FRAMEWORKVERSION	QUANT	6.33	Framework Version
INSTRUMENTVERSION	LABEL	3.50	Instrument Version
ZCURVE	TABLE
	Pt	Time	Freq	Zreal	Zimag	Zsig	Zmod	Zphz	Idc	Vdc	IERange
	#	s	Hz	ohm	ohm	V	ohm	°	A	V	#
	0	1	1000078	1743.571	-1905.217	1	2582.613	-47.53662	2.121717E-007	-0.0401703	8
	1	3	794390.6	2119.725	-2011.633	1	2922.311	-43.50126	-1.022607E-006	-0.0399621	8
	2	4	630984.4	2577.259	-2016.927	1	3272.653	-38.04623	9.070687E-007	-0.0406499	8
	3	6	501234.4	2967.745	-1991.337	1	3573.924	-33.86135	-9.717583E-007	-0.0402797	8
	4	7	398109.4	3358.922	-1873.463	1	3846.065	-29.15091	7.906058E-007	-0.0407446	8
	5	8	316265.6	3698.645	-1735.615	1	4085.625	-25.13864	2.79378E-006	-0.0409861	8
	6	10	251203.1	3966.813	-1557.805	1	4261.731	-21.4404	-3.430027E-007	-0.040649	8
	7	11	199546.9	4175.1	-1378.947	1	4396.925	-18.27729	7.427868E-007	-0.0408096	8
	8	13	158578.1	4341.971	-1215.752	1	4508.965	-15.64225	-9.040739E-007	-0.0404805	8
	9	14	125953.1	4513.748	-991.147	1	4621.287	-12.38468	3.570959E-007	-0.0418462	7
	10	16	100078.1	4605.176	-896.221	1	4691.573	-11.01277	-4.921511E-008	-0.0406416	7
	11	17	79453.13	4687.057	-828.9937	1	4759.804	-10.0301	-4.508952E-008	-0.0406442	7
	12	18	63140.62	4758.379	-783.8168	1	4822.503	-9.353961	-4.660222E-008	-0.0406753	7
	13	20	50203.12	4827.793	-760.5082	1	4887.327	-8.952073	-2.874375E-009	-0.040623	7
	14	21	39890.62	4890.242	-753.5601	1	4947.961	-8.76007	-4.171448E-009	-0.040763	7
	15	22	31640.63	4956.644	-769.5552	1	5016.027	-8.82513	6.537864E-009	-0.0406877	7
	16	24	25171.88	5023.226	-803.1671	1	5087.03	-9.08417	2.110547E-008	-0.040615	7
	17	25	20015.62	5094.259	-856.0832	1	5165.69	-9.53935	1.932555E-008	-0.0406125	7
	18	27	15890.62	5171.473	-931.4109	1	5254.68	-10.20983	-4.998858E-008	-0.040581	7
	19	28	12609.37	5255.788	-1029.666	1	5355.699	-11.08447	-5.660975E-008	-0.0406496	7
	20	29	10078.13	5348.626	-1147.607	1	5470.357	-12.10984	8.209354E-008	-0.0407252	7
	21	31	8015.625	5450.504	-1294.963	1	5602.225	-13.36488	1.438551E-007	-0.0409038	7
	22	32	6328.125	5566.479	-1480.99	1	5760.124	-14.8987	4.064415E-008	-0.0408431	7
	23	33	5015.625	5698.553	-1702.605	1	5947.468	-16.63502	1.456647E-007	-0.0409029	7
	24	35	3984.375	5843.032	-1962.404	1	6163.769	-18.56482	7.124295E-008	-0.0408563	7
	25	36	3170.956	6003.938	-2276.429	1	6421.012	-20.76453	3.55123E-008	-0.0407486	7
	26	37	2527.573	6189.474	-2646.007	1	6731.34	-23.14676	-4.585503E-008	-0.040679	7
	27	39	1976.103	6415.931	-3132.354	1	7139.734	-26.02233	-4.871185E-008	-0.0405775	7
	28	40	1577.524	6655.104	-3661.842	1	7596.018	-28.82094	3.840409E-008	-0.0408489	7
	29	42	1265.625	6923.574	-4281.768	1	8140.603	-31.73402	3.959784E-008	-0.0408499	7
	30	43	998.264	7257.751	-5087.857	1	8863.479	-35.03138	-4.816084E-008	-0.0406572	7
	31	44	796.875	7629.234	-5987.689	1	9698.33	-38.12606	6.009186E-009	-0.0406149	6
	32	46	627.7902	8080.684	-7156.238	1	10793.94	-41.52804	1.023562E-008	-0.0406908	6
	33	47	505.5147	8559.827	-8431.109	1	12014.75	-44.56596	1.727999E-008	-0.0409814	6
	34	48	397.9953	9177.959	-10126.5	1	13666.78	-47.813	1.354968E-009	-0.0406468	6
	35	50	315.5048	9902.05	-12118.79	1	15649.78	-50.74836	4.222711E-010	-0.0406466	6
	36	51	252.4038	10741.36	-14423.7	1	17983.88	-53.32488	7.376177E-010	-0.0406449	6
	37	52	198.6229	11849.54	-17418.22	1	21066.7	-55.77271	4.358385E-010	-0.0406437	6
	38	54	158.3615	13160.68	-20815.9	1	24627.33	-57.69722	1.095434E-010	-0.0406459	6
	39	55	125.558	14828.06	-24999.89	1	29066.58	-59.32677	3.811028E-010	-0.0406446	6
	40	57	100.4464	16863.81	-29702.24	1	34155.69	-60.41372	-5.349418E-010	-0.0406456	6
	41	58	79.00281	19747.29	-35711.07	1	40807.3	-61.05856	1.21662E-009	-0.0406487	6
	42	59	63.3446	23477.78	-41838.77	1	47975.91	-60.70109	1.264755E-010	-0.0406512	6
	43	61	49.86702	27237.83	-50871.94	1	57704.88	-61.83454	3.633689E-010	-0.0406512	6
	44	62	39.72458	32239.78	-59334.09	1	67527.31	-61.48211	9.777047E-010	-0.0406455	6
	45	64	31.6723	37988.87	-69323.13	1	79049.67	-61.27739	1.17688E-009	-0.0406433	6
	46	65	24.93351	45950.18	-81299.66	1	93386.59	-60.52508	9.462291E-010	-0.0406433	6
	47	67	19.86229	54500.53	-94465.56	1	109059.8	-60.01783	-2.068921E-011	-0.0406397	5
	48	68	15.83615	62876.04	-107924.8	1	124904.6	-59.7753	-1.346367E-009	-0.0406398	5
	49	69	12.40079	75046.16	-127613.7	1	148044.6	-59.54137	-3.144701E-010	-0.0406398	5
	50	71	9.93114	89539.57	-147071.7	1	172184.2	-58.66628	-1.645689E-010	-0.0406381	5
	51	72	7.944915	105120.8	-168783.6	1	198842.3	-58.08478	5.683596E-010	-0.0406387	5
	52	74	6.317385	122988.2	-194603.6	1	230210	-57.70739	-1.101692E-010	-0.0406236	5
	53	76	5.008013	144404.5	-224394.8	1	266843.9	-57.23754	1.284284E-011	-0.0406468	5
	54	79	3.945707	169302.2	-259397.1	1	309758.1	-56.86849	4.829748E-010	-0.0406332	5
	55	82	3.158693	196442	-295782	1	355072.5	-56.41009	-1.15054E-010	-0.0406478	5
	56	85	2.504006	228068.4	-339953.2	1	409369.5	-56.14307	4.820679E-010	-0.0406327	5
	57	88	1.998082	262358.2	-388325.8	1	468645.7	-55.95651	3.017619E-010	-0.0406169	5
	58	91	1.584686	301664.6	-444706.9	1	537369.3	-55.8492	1.624916E-010	-0.0406812	5
	59	94	1.266892	343254.1	-510176.4	1	614901.1	-56.06676	2.253093E-010	-0.0406203	5
	60	99	0.999041	392804.4	-591086.7	1	709703.3	-56.39412	-8.801344E-011	-0.0406642	5
