EXPLAIN
TAG	EISPOT
TITLE	LABEL	Potentiostatic EIS	Test &Identifier
DATE	LABEL	6/19/2020	Date
TIME	LABEL	16:51:35	Time
NOTES	NOTES	1	&Notes...
	
PSTAT	PSTAT	REF600-10037	Potentiostat
VDC	POTEN	0.00000E+000	T	DC &Voltage (V)
FREQINIT	QUANT	1.00000E+006	Initial Fre&q. (Hz)
FREQFINAL	QUANT	1.00000E+000	Final Fre&q. (Hz)
PTSPERDEC	QUANT	1.00000E+001	Points/&decade
VAC	QUANT	1.00000E+002	AC &Voltage (mV rms)
AREA	QUANT	2.50000E-001	&Area (cm^2)
CONDIT	TWOPARAM	F	5.00000E+000	0.00000E+000	Conditionin&g	Time(s)	E(V)
DELAY	TWOPARAM	F	5.00000E+000	0.00000E+000	Init. De&lay	Time(s)	Stab.(mV/s)
SPEED	SELECTOR	0	&Optimize for:
ZGUESS	QUANT	1.00000E+003	E&stimated Z (ohms)
OCVCURVE	TABLE	39
	Pt	T	Vf	Vm	Ach	Over
	#	s	V vs. Ref.	V	V	bits
	0	0.258333	7.33049E-002	7.33049E-002	5.60020E-004	...........
	1	0.516667	7.33054E-002	7.33340E-002	5.55687E-004	...........
	2	0.775	7.33087E-002	7.33514E-002	5.58520E-004	...........
	3	1.03333	7.33170E-002	7.33636E-002	5.59354E-004	...........
	4	1.29167	7.33305E-002	7.33826E-002	5.58720E-004	...........
	5	1.55	7.33470E-002	7.34117E-002	5.66420E-004	...........
	6	1.80833	7.33652E-002	7.34235E-002	5.57987E-004	...........
	7	2.06667	7.33845E-002	7.34403E-002	5.61720E-004	...........
	8	2.325	7.34038E-002	7.34555E-002	5.60320E-004	...........
	9	2.58333	7.34220E-002	7.34795E-002	5.61120E-004	...........
	10	2.84167	7.34398E-002	7.35035E-002	5.65853E-004	...........
	11	3.1	7.34583E-002	7.35144E-002	5.65653E-004	...........
	12	3.35833	7.34775E-002	7.35261E-002	5.62687E-004	...........
	13	3.61667	7.34958E-002	7.35429E-002	5.64220E-004	...........
	14	3.875	7.35124E-002	7.35720E-002	5.66320E-004	...........
	15	4.13333	7.35287E-002	7.35804E-002	5.56120E-004	...........
	16	4.39167	7.35459E-002	7.35971E-002	5.59354E-004	...........
	17	4.65	7.35633E-002	7.36086E-002	5.59787E-004	...........
	18	4.90833	7.35797E-002	7.36272E-002	5.58720E-004	...........
	19	5.16667	7.35951E-002	7.36482E-002	5.59620E-004	...........
	20	5.425	7.36108E-002	7.36641E-002	5.58387E-004	...........
	21	5.68333	7.36274E-002	7.36777E-002	5.62654E-004	...........
	22	5.94167	7.36443E-002	7.36849E-002	5.62187E-004	...........
	23	6.2	7.36601E-002	7.36993E-002	5.61887E-004	...........
	24	6.45833	7.36741E-002	7.37241E-002	5.62587E-004	...........
	25	6.71667	7.36879E-002	7.37387E-002	5.66320E-004	...........
	26	6.975	7.37029E-002	7.37462E-002	5.57320E-004	...........
	27	7.23333	7.37186E-002	7.37585E-002	5.62087E-004	...........
	28	7.49167	7.37332E-002	7.37698E-002	5.63120E-004	...........
	29	7.75	7.37462E-002	7.37876E-002	5.59287E-004	...........
	30	8.00833	7.37587E-002	7.38031E-002	5.61620E-004	...........
	31	8.26667	7.37719E-002	7.38197E-002	5.63520E-004	...........
	32	8.525	7.37864E-002	7.38312E-002	5.57520E-004	...........
	33	8.78333	7.38014E-002	7.38431E-002	5.65753E-004	...........
	34	9.04167	7.38160E-002	7.38528E-002	5.63320E-004	...........
	35	9.3	7.38294E-002	7.38692E-002	5.61020E-004	...........
	36	9.5583	7.38421E-002	7.38872E-002	5.62654E-004	...........
	37	9.8167	7.38551E-002	7.38980E-002	5.59987E-004	...........
	38	10.075	7.38688E-002	7.39035E-002	5.65553E-004	...........
EOC	QUANT	0.0738688	Open Circuit (V)
PSTATMODEL	IQUANT	4	Pstat Model
PSTATSECTION	LABEL	REF600-10037	Pstat Section
PSTATSERIALNO	LABEL	10037	Pstat Serial Number
CTRLMODE	IQUANT	1	Control Mode
IESTAB	IQUANT	0	I/E Stability
CASPEED	IQUANT	1	Control Amp Speed
CONVENTION	IQUANT	1	Current Convention
ICHRANGE	IQUANT	2	Ich Range
ICHRANGEMODE	TOGGLE	F	Ich Auto Range
ICHOFFSETENABLE	TOGGLE	T	Ich Offset Enable
ICHOFFSET	QUANT	0	Ich Offset (V)
ICHFILTER	IQUANT	3	Ich Filter
VCHRANGE	IQUANT	2	Vch Range
VCHRANGEMODE	TOGGLE	F	Vch Auto Range
VCHOFFSETENABLE	TOGGLE	T	Vch Offset Enable
VCHOFFSET	QUANT	0	Vch Offset (V)
VCHFILTER	IQUANT	3	Vch Filter
ACHRANGE	IQUANT	2	Ach Range
ACHOFFSETENABLE	TOGGLE	F	Ach Offset Enable
ACHOFFSET	QUANT	0	Ach Offset (V)
ACHFILTER	IQUANT	3	Ach Filter
IERANGELOWERLIMIT	IQUANT	1	I/E Range Lower Limit
IERANGEMODE	TOGGLE	F	I/E AutoRange
IERANGE	IQUANT	8	I/E Range
POSFEEDENABLE	TOGGLE	F	Positive Feedback IR Comp
POSFEEDRESISTANCE	QUANT	0	Positive Feedback Resistance (ohm)
ACHSELECT	IQUANT	0	Ach Select
CABLEID	IQUANT	14	Cable ID
DCCALDATE	LABEL	6/8/2020	DC Calibration Date
ACCALDATE	LABEL	6/8/2020	AC Calibration Date
THERMOSELECT	IQUANT	1	Thermo Select
FRAMEWORKVERSION	QUANT	6.33	Framework Version
INSTRUMENTVERSION	LABEL	3.50	Instrument Version
ZCURVE	TABLE
	Pt	Time	Freq	Zreal	Zimag	Zsig	Zmod	Zphz	Idc	Vdc	IERange
	#	s	Hz	ohm	ohm	V	ohm	°	A	V	#
	0	2	1000078	2010.157	-1980.614	1	2821.978	-44.57586	6.205936E-008	0.082679	8
	1	2	794390.6	2414.576	-2076.49	1	3184.649	-40.69492	8.461399E-008	0.0824075	8
	2	2	630984.4	2842.556	-2108.296	1	3539.073	-36.56396	7.275947E-008	0.0822622	8
	3	3	501234.4	3263.208	-2066.73	1	3862.628	-32.34785	5.103125E-008	0.0821917	8
	4	3	398109.4	3652.342	-1963.456	1	4146.656	-28.26195	8.930675E-008	0.082205	8
	5	3	316265.6	3994.321	-1821.179	1	4389.908	-24.51024	8.918125E-008	0.0821291	8
	6	4	251203.1	4285.323	-1657.507	1	4594.706	-21.14583	7.884978E-008	0.0821404	8
	7	4	199546.9	4522.247	-1489.664	1	4761.283	-18.23229	5.484869E-008	0.0821742	8
	8	4	158578.1	4706.049	-1324.166	1	4888.794	-15.71529	1.381491E-007	0.0822322	8
	9	5	125953.1	4927.542	-1081.333	1	5044.794	-12.37718	4.551646E-008	0.0822489	7
	10	5	100078.1	5046.833	-957.095	1	5136.784	-10.73821	1.826964E-008	0.0821996	7
	11	5	79453.13	5141.247	-878.0165	1	5215.681	-9.69141	2.247492E-008	0.0821678	7
	12	6	63140.62	5212.952	-814.7405	1	5276.236	-8.882986	-3.944351E-009	0.0821469	7
	13	6	50203.12	5284.531	-775.4589	1	5341.124	-8.348077	1.488946E-008	0.0821393	7
	14	6	39890.62	5360.137	-755.4318	1	5413.108	-8.022155	1.79305E-008	0.0821249	7
	15	7	31640.63	5418.848	-751.0534	1	5470.648	-7.890934	4.31146E-009	0.082126	7
	16	7	25171.88	5483.374	-764.5703	1	5536.421	-7.937818	1.691637E-008	0.0821269	7
	17	7	20015.62	5548.985	-796.0087	1	5605.789	-8.163456	-5.724239E-009	0.082126	7
	18	7	15890.62	5617.067	-848.0061	1	5680.718	-8.585087	9.123058E-009	0.0821239	7
	19	8	12609.37	5687.888	-921.4999	1	5762.051	-9.202581	1.673343E-008	0.0821265	7
	20	8	10078.13	5761.391	-1016.298	1	5850.34	-10.00395	1.048546E-009	0.0821211	7
	21	8	8015.625	5841.824	-1139.134	1	5951.852	-11.034	-4.625641E-009	0.0821277	7
	22	9	6328.125	5940.765	-1298.964	1	6081.118	-12.33376	2.125284E-009	0.0821108	7
	23	9	5015.625	6033.566	-1496.009	1	6216.266	-13.92552	1.71538E-008	0.0821261	7
	24	9	3984.375	6145.791	-1735.024	1	6386.004	-15.76496	5.069383E-009	0.082125	7
	25	10	3170.956	6270.33	-2020.927	1	6587.957	-17.86413	-4.983547E-009	0.0821287	7
	26	10	2527.573	6412.015	-2366.5	1	6834.783	-20.25773	1.642092E-008	0.0821304	7
	27	10	1976.103	6588.375	-2820.085	1	7166.559	-23.17284	8.605831E-009	0.0821286	7
	28	11	1577.524	6775.152	-3332.767	1	7550.498	-26.19304	1.059198E-008	0.0821259	7
	29	11	1265.625	6985.625	-3924.81	1	8012.683	-29.32906	1.789925E-008	0.0821309	7
	30	11	998.264	7247.104	-4704.161	1	8640.003	-32.98796	1.844686E-008	0.082136	7
	31	12	796.875	7547	-5570.765	1	9380.332	-36.43262	1.458469E-008	0.0821236	7
	32	12	627.7902	7910.84	-6734.765	1	10389.34	-40.40887	-7.18957E-010	0.0821286	7
	33	12	505.5147	8313.574	-7988.519	1	11529.61	-43.8577	4.475488E-009	0.0821302	7
	34	13	397.9953	8832.31	-9674.52	1	13099.85	-47.60561	7.834331E-009	0.0821586	7
	35	13	315.5048	9457.339	-11659.41	1	15012.77	-50.95333	7.625301E-009	0.0821561	7
	36	13	252.4038	10195.26	-13964.81	1	17290.44	-53.868	6.241932E-009	0.082144	7
	37	13	198.6229	11182.21	-16964.28	1	20318.18	-56.60862	5.876641E-009	0.082144	7
	38	14	158.3615	12358.57	-20391.12	1	23843.91	-58.78094	7.020764E-009	0.0821461	7
	39	14	125.558	13894.49	-24620.09	1	28270.22	-60.56153	7.534105E-009	0.0821444	7
	40	14	100.4464	15777.99	-29472.58	1	33430.2	-61.83786	8.134672E-009	0.0821475	7
	41	15	79.00281	18351.38	-35485.91	1	39950.25	-62.65446	7.532193E-009	0.0821336	7
	42	15	63.3446	21509.98	-42470.12	1	47606.63	-63.139	1.958776E-010	0.0821433	6
	43	15	49.86702	25848.83	-51033.99	1	57206.9	-63.13769	-8.796036E-011	0.0821387	6
	44	16	39.72458	31146.21	-60430.7	1	67984.97	-62.73325	3.63948E-009	0.0821461	6
	45	16	31.6723	37846.57	-71120.74	1	80563.78	-61.98054	4.652166E-009	0.0821439	6
	46	16	24.93351	46820.73	-83802.27	1	95994.8	-60.80769	-2.336968E-009	0.0821411	6
	47	17	19.86229	57477.73	-97408.2	1	113101.9	-59.45639	-1.158001E-008	0.0735705	6
	48	17	15.83615	70426.68	-111729.9	1	132073.8	-57.77554	-8.704637E-009	0.0735623	6
	49	18	12.40079	86514.5	-127816.9	1	154343.5	-55.90739	-7.197158E-009	0.0735742	6
	50	18	9.93114	103361.9	-142967.8	1	176418.5	-54.13407	-5.967967E-009	0.0735721	6
	51	18	7.944915	121948.3	-158603.8	1	200066.3	-52.44379	-5.131693E-009	0.0735718	6
	52	19	6.317385	142042.5	-174990.6	1	225383.6	-50.93325	-2.531326E-009	0.0735722	6
	53	20	5.008013	163068.9	-193210	1	252827.1	-49.83569	-1.738487E-009	0.0735732	6
	54	21	3.945707	184871.3	-214460	1	283143.9	-49.23763	-1.054837E-009	0.0735714	6
	55	22	3.158693	205208.4	-237960.8	1	314222.6	-49.22677	-7.483647E-010	0.0735735	6
	56	23	2.504006	227150.5	-267805.9	1	351165.7	-49.69569	-2.820189E-010	0.0735694	6
	57	25	1.998082	248156	-303179.9	1	391790.1	-50.69931	-5.441751E-010	0.0735787	5
	58	27	1.584686	271591.5	-349305.2	1	442465.8	-52.13425	-3.998992E-010	0.0735737	5
	59	29	1.266892	296379.3	-404455	1	501422.5	-53.76652	-3.048828E-010	0.0735727	5
	60	33	0.999041	326326.5	-476898.9	1	577859.4	-55.61743	-3.522084E-010	0.0735733	5
