EXPLAIN
TAG	EISPOT
TITLE	LABEL	Potentiostatic EIS	Test &Identifier
DATE	LABEL	5/26/2020	Date
TIME	LABEL	17:36:23	Time
NOTES	NOTES	1	&Notes...
	
PSTAT	PSTAT	REF600-11020	Potentiostat
VDC	POTEN	0.00000E+000	T	DC &Voltage (V)
FREQINIT	QUANT	1.00000E+006	Initial Fre&q. (Hz)
FREQFINAL	QUANT	1.00000E+000	Final Fre&q. (Hz)
PTSPERDEC	QUANT	1.00000E+001	Points/&decade
VAC	QUANT	2.50000E+001	AC &Voltage (mV rms)
AREA	QUANT	5.00000E-004	&Area (cm^2)
CONDIT	TWOPARAM	F	5.00000E+000	0.00000E+000	Conditionin&g	Time(s)	E(V)
DELAY	TWOPARAM	T	3.00000E+000	0.00000E+000	Init. De&lay	Time(s)	Stab.(mV/s)
SPEED	SELECTOR	0	&Optimize for:
ZGUESS	QUANT	1.00000E+003	E&stimated Z (ohms)
OCVCURVE	TABLE	12
	Pt	T	Vf	Vm	Ach	Over
	#	s	V vs. Ref.	V	V	bits
	0	0.258333	-7.03346E-002	-7.03346E-002	5.82930E-004	...........
	1	0.516667	-7.03359E-002	-7.04027E-002	5.89896E-004	...........
	2	0.775	-7.03439E-002	-7.04662E-002	5.79863E-004	...........
	3	1.03333	-7.03664E-002	-7.05326E-002	5.87430E-004	...........
	4	1.29167	-7.04072E-002	-7.05955E-002	5.88696E-004	...........
	5	1.55	-7.04621E-002	-7.06602E-002	5.86496E-004	...........
	6	1.80833	-7.05245E-002	-7.07207E-002	5.87663E-004	...........
	7	2.06667	-7.05890E-002	-7.07806E-002	5.89830E-004	...........
	8	2.325	-7.06528E-002	-7.08432E-002	5.92963E-004	...........
	9	2.58333	-7.07152E-002	-7.08999E-002	5.86096E-004	...........
	10	2.84167	-7.07764E-002	-7.09629E-002	5.87363E-004	...........
	11	3.1	-7.08370E-002	-7.10253E-002	5.86696E-004	...........
EOC	QUANT	-0.070837	Open Circuit (V)
PSTATMODEL	IQUANT	4	Pstat Model
PSTATSECTION	LABEL	REF600-11020	Pstat Section
PSTATSERIALNO	LABEL	11020	Pstat Serial Number
CTRLMODE	IQUANT	1	Control Mode
IESTAB	IQUANT	0	I/E Stability
CASPEED	IQUANT	1	Control Amp Speed
CONVENTION	IQUANT	1	Current Convention
ICHRANGE	IQUANT	2	Ich Range
ICHRANGEMODE	TOGGLE	F	Ich Auto Range
ICHOFFSETENABLE	TOGGLE	T	Ich Offset Enable
ICHOFFSET	QUANT	0	Ich Offset (V)
ICHFILTER	IQUANT	3	Ich Filter
VCHRANGE	IQUANT	2	Vch Range
VCHRANGEMODE	TOGGLE	F	Vch Auto Range
VCHOFFSETENABLE	TOGGLE	T	Vch Offset Enable
VCHOFFSET	QUANT	0	Vch Offset (V)
VCHFILTER	IQUANT	3	Vch Filter
ACHRANGE	IQUANT	2	Ach Range
ACHOFFSETENABLE	TOGGLE	F	Ach Offset Enable
ACHOFFSET	QUANT	0	Ach Offset (V)
ACHFILTER	IQUANT	3	Ach Filter
IERANGELOWERLIMIT	IQUANT	1	I/E Range Lower Limit
IERANGEMODE	TOGGLE	F	I/E AutoRange
IERANGE	IQUANT	8	I/E Range
POSFEEDENABLE	TOGGLE	F	Positive Feedback IR Comp
POSFEEDRESISTANCE	QUANT	0	Positive Feedback Resistance (ohm)
ACHSELECT	IQUANT	0	Ach Select
CABLEID	IQUANT	14	Cable ID
DCCALDATE	LABEL	2/27/2020	DC Calibration Date
ACCALDATE	LABEL	2/27/2020	AC Calibration Date
THERMOSELECT	IQUANT	1	Thermo Select
FRAMEWORKVERSION	QUANT	6.33	Framework Version
INSTRUMENTVERSION	LABEL	3.50	Instrument Version
ZCURVE	TABLE
	Pt	Time	Freq	Zreal	Zimag	Zsig	Zmod	Zphz	Idc	Vdc	IERange
	#	s	Hz	ohm	ohm	V	ohm	°	A	V	#
	0	1	1000078	2136.277	-2137.056	1	3021.703	-45.01044	9.370008E-008	-0.0682955	8
	1	2	794390.6	2398.228	-2320.615	1	3337.177	-44.05771	9.219417E-008	-0.0686594	8
	2	2	630984.4	2658.375	-2533.856	1	3672.517	-43.62622	6.182263E-008	-0.0688223	8
	3	2	501234.4	2920.986	-2795.449	1	4043.104	-43.74194	9.62205E-008	-0.0689259	8
	4	3	398109.4	3197.383	-3108.104	1	4459.099	-44.18881	7.72442E-008	-0.0689777	8
	5	3	316265.6	3474.284	-3503.394	1	4934.006	-45.23903	8.227315E-008	-0.0690297	8
	6	3	251203.1	3784.476	-3972.357	1	5486.518	-46.38751	1.207371E-007	-0.0690586	8
	7	4	199546.9	4113.509	-4552.832	1	6135.897	-47.90201	8.574293E-008	-0.0690372	8
	8	4	158578.1	4472.144	-5255.457	1	6900.717	-49.6038	7.685002E-008	-0.069043	8
	9	4	125953.1	5017.618	-6080.832	1	7883.718	-50.47214	6.89674E-009	-0.0690935	7
	10	5	100078.1	5457.606	-7115.956	1	8967.848	-52.51348	8.027456E-009	-0.0691127	7
	11	5	79453.13	5975.053	-8409.047	1	10315.68	-54.60428	7.895243E-009	-0.0691098	7
	12	5	63140.62	6571.394	-9952.96	1	11926.64	-56.56541	8.151066E-009	-0.0691104	7
	13	6	50203.12	7286.924	-11799.18	1	13867.95	-58.3014	7.448782E-009	-0.0691273	7
	14	6	39890.62	8118.999	-14029.07	1	16209.04	-59.94088	7.037016E-009	-0.069125	7
	15	6	31640.63	9112.943	-16770.11	1	19086.18	-61.48018	7.72101E-009	-0.0691288	7
	16	6	25171.88	10282.89	-19997.19	1	22486.12	-62.78702	7.627875E-009	-0.069127	7
	17	7	20015.62	11694.93	-23921.01	1	26626.79	-63.94609	7.768674E-009	-0.0691287	7
	18	7	15890.62	13464.84	-28656.75	1	31662.46	-64.83275	7.809931E-009	-0.0691271	7
	19	7	12609.37	16288.87	-34306.09	1	37976.77	-64.60117	2.229898E-009	-0.0690755	6
	20	8	10078.13	18890.46	-40954.82	1	45101.52	-65.23843	1.822345E-009	-0.0690832	6
	21	8	8015.625	22236.04	-49095.22	1	53896.03	-65.63344	1.89767E-009	-0.0690824	6
	22	8	6328.125	26707.8	-59158.62	1	64908.01	-65.70268	1.745933E-009	-0.069083	6
	23	9	5015.625	32458.83	-70905.85	1	77982.15	-65.40294	1.912897E-009	-0.069088	6
	24	9	3984.375	39899.38	-84614.68	1	93550.01	-64.75415	2.118892E-009	-0.0690828	6
	25	9	3170.956	49511.2	-100245.4	1	111805.6	-63.71524	1.930967E-009	-0.0690886	6
	26	10	2527.573	62106.9	-118160.4	1	133488.3	-62.27289	2.039449E-009	-0.0690844	6
	27	10	1976.103	80342.38	-139296.6	1	160805.6	-60.02486	2.038402E-009	-0.0690858	6
	28	10	1577.524	101791.9	-159795.7	1	189463.1	-57.50233	1.693937E-009	-0.0690951	6
	29	11	1265.625	133065	-177325	1	221698.9	-53.11538	1.031121E-009	-0.0690872	5
	30	11	998.264	167368.3	-196716.5	1	258281.9	-49.60855	1.043102E-009	-0.0690839	5
	31	11	796.875	205646.4	-212084.1	1	295415.1	-45.88293	1.036952E-009	-0.0690863	5
	32	12	627.7902	250790.6	-222043.1	1	334961.3	-41.52079	1.009612E-009	-0.0690853	5
	33	12	505.5147	293820	-224767.6	1	369933.3	-37.41541	1.014029E-009	-0.0690933	5
	34	12	397.9953	340949.4	-221143	1	406387.4	-32.96783	1.049739E-009	-0.0690692	5
	35	12	315.5048	382318.6	-208397.2	1	435427.3	-28.59427	9.662706E-010	-0.0690702	5
	36	13	252.4038	418178.6	-193633.3	1	460833.2	-24.846	9.947131E-010	-0.0690765	5
	37	13	198.6229	450066.7	-174387.4	1	482670.7	-21.17986	9.249057E-010	-0.0690748	5
	38	13	158.3615	473698.7	-155775.5	1	498654.7	-18.20342	9.341443E-010	-0.0690787	5
	39	14	125.558	492290.3	-137324	1	511084.7	-15.5864	9.37495E-010	-0.0690743	5
	40	14	100.4464	506534	-122612.7	1	521162.7	-13.60739	8.244306E-010	-0.0690779	5
	41	14	79.00281	518685.7	-109200.3	1	530056.2	-11.88901	8.658606E-010	-0.06908	5
	42	15	63.3446	525647.1	-100000.8	1	535074.8	-10.77142	8.239214E-010	-0.0690816	5
	43	15	49.86702	533472.9	-93705.2	1	541640.1	-9.96245	1.031921E-009	-0.0690847	5
	44	16	39.72458	541360.2	-91075.82	1	548967.8	-9.54974	7.699977E-010	-0.0690786	5
	45	16	31.6723	549206	-92380.07	1	556921.3	-9.54815	7.564368E-010	-0.0690814	5
	46	16	24.93351	555263	-94678.61	1	563277.1	-9.67651	1.268844E-009	-0.069078	5
	47	16	19.86229	558385.4	-102841.8	1	567776.9	-10.43562	1.877539E-009	-0.069074	5
	48	17	15.83615	572965.3	-112363.9	1	583879.2	-11.09543	6.557745E-010	-0.0690802	5
	49	17	12.40079	577787.8	-128279.2	1	591856.6	-12.51765	1.21603E-009	-0.0690792	5
	50	17	9.93114	591867.8	-146188.7	1	609654.5	-13.87411	1.484165E-009	-0.0690782	5
	51	18	7.944915	608757.1	-162656.2	1	630112.9	-14.95962	3.121092E-010	-0.0690811	5
	52	18	6.317385	624002.9	-186727.6	1	651342.4	-16.65937	7.070323E-010	-0.0690839	5
	53	19	5.008013	648251.4	-214151.7	1	682708.4	-18.28112	1.0574E-009	-0.0690754	5
	54	20	3.945707	685307.5	-243180.4	1	727174.7	-19.53716	5.868403E-010	-0.0690932	5
	55	21	3.158693	711389.1	-273527.9	1	762162.7	-21.03167	8.702482E-010	-0.0690787	5
	56	22	2.504006	742576.3	-304404.5	1	802546.9	-22.29021	5.423978E-010	-0.0690894	5
	57	23	1.998082	778095	-339690.8	1	849012.2	-23.58451	3.830735E-010	-0.0691234	5
	58	25	1.584686	822925.4	-379291.4	1	906128.2	-24.74527	5.422269E-010	-0.0690789	5
	59	27	1.266892	868634.4	-420181.7	1	964924	-25.81429	5.995416E-010	-0.0690618	4
	60	29	0.999041	917334.4	-471711.2	1	1031511	-27.21311	6.462019E-010	-0.0690618	4
