EXPLAIN
TAG	EISPOT
TITLE	LABEL	Potentiostatic EIS	Test &Identifier
DATE	LABEL	3/12/2020	Date
TIME	LABEL	13:13:15	Time
NOTES	NOTES	1	&Notes...
	
PSTAT	PSTAT	REF600-11020	Potentiostat
VDC	POTEN	0.00000E+000	T	DC &Voltage (V)
FREQINIT	QUANT	1.00000E+006	Initial Fre&q. (Hz)
FREQFINAL	QUANT	1.00000E+000	Final Fre&q. (Hz)
PTSPERDEC	QUANT	1.00000E+001	Points/&decade
VAC	QUANT	2.50000E+001	AC &Voltage (mV rms)
AREA	QUANT	2.50000E-001	&Area (cm^2)
CONDIT	TWOPARAM	F	5.00000E+000	0.00000E+000	Conditionin&g	Time(s)	E(V)
DELAY	TWOPARAM	T	5.00000E+000	0.00000E+000	Init. De&lay	Time(s)	Stab.(mV/s)
SPEED	SELECTOR	1	&Optimize for:
ZGUESS	QUANT	5.00000E+003	E&stimated Z (ohms)
OCVCURVE	TABLE	19
	Pt	T	Vf	Vm	Ach	Over
	#	s	V vs. Ref.	V	V	bits
	0	0.258333	6.89898E-002	6.89898E-002	5.75097E-004	...........
	1	0.516667	6.89895E-002	6.89729E-002	5.74763E-004	...........
	2	0.775	6.89876E-002	6.89632E-002	5.74597E-004	...........
	3	1.03333	6.89829E-002	6.89639E-002	5.72897E-004	...........
	4	1.29167	6.89755E-002	6.89292E-002	5.72297E-004	...........
	5	1.55	6.89692E-002	6.91119E-002	5.73897E-004	...........
	6	1.80833	6.89824E-002	6.94651E-002	5.75630E-004	...........
	7	2.06667	6.90512E-002	6.97197E-002	5.71697E-004	...........
	8	2.325	6.91925E-002	6.94880E-002	5.71063E-004	...........
	9	2.58333	6.93588E-002	6.94029E-002	5.70763E-004	...........
	10	2.84167	6.94685E-002	6.93336E-002	5.71730E-004	...........
	11	3.1	6.94855E-002	6.92892E-002	5.72930E-004	...........
	12	3.35833	6.94375E-002	6.92528E-002	5.76663E-004	...........
	13	3.61667	6.93711E-002	6.93071E-002	5.75363E-004	...........
	14	3.875	6.93184E-002	6.92623E-002	5.72897E-004	...........
	15	4.13333	6.92881E-002	6.92029E-002	5.71197E-004	...........
	16	4.39167	6.92687E-002	6.91705E-002	5.70797E-004	...........
	17	4.65	6.92453E-002	6.91340E-002	5.69930E-004	...........
	18	4.90833	6.92134E-002	6.91152E-002	5.71530E-004	...........
EOC	QUANT	0.0692134	Open Circuit (V)
PSTATMODEL	IQUANT	4	Pstat Model
PSTATSECTION	LABEL	REF600-11020	Pstat Section
PSTATSERIALNO	LABEL	11020	Pstat Serial Number
CTRLMODE	IQUANT	1	Control Mode
IESTAB	IQUANT	0	I/E Stability
CASPEED	IQUANT	1	Control Amp Speed
CONVENTION	IQUANT	1	Current Convention
ICHRANGE	IQUANT	2	Ich Range
ICHRANGEMODE	TOGGLE	F	Ich Auto Range
ICHOFFSETENABLE	TOGGLE	T	Ich Offset Enable
ICHOFFSET	QUANT	0	Ich Offset (V)
ICHFILTER	IQUANT	3	Ich Filter
VCHRANGE	IQUANT	2	Vch Range
VCHRANGEMODE	TOGGLE	F	Vch Auto Range
VCHOFFSETENABLE	TOGGLE	T	Vch Offset Enable
VCHOFFSET	QUANT	0	Vch Offset (V)
VCHFILTER	IQUANT	3	Vch Filter
ACHRANGE	IQUANT	2	Ach Range
ACHOFFSETENABLE	TOGGLE	F	Ach Offset Enable
ACHOFFSET	QUANT	0	Ach Offset (V)
ACHFILTER	IQUANT	3	Ach Filter
IERANGELOWERLIMIT	IQUANT	1	I/E Range Lower Limit
IERANGEMODE	TOGGLE	F	I/E AutoRange
IERANGE	IQUANT	7	I/E Range
POSFEEDENABLE	TOGGLE	F	Positive Feedback IR Comp
POSFEEDRESISTANCE	QUANT	0	Positive Feedback Resistance (ohm)
ACHSELECT	IQUANT	0	Ach Select
CABLEID	IQUANT	14	Cable ID
DCCALDATE	LABEL	2/27/2020	DC Calibration Date
ACCALDATE	LABEL	2/27/2020	AC Calibration Date
THERMOSELECT	IQUANT	1	Thermo Select
FRAMEWORKVERSION	QUANT	6.33	Framework Version
INSTRUMENTVERSION	LABEL	3.50	Instrument Version
ZCURVE	TABLE
	Pt	Time	Freq	Zreal	Zimag	Zsig	Zmod	Zphz	Idc	Vdc	IERange
	#	s	Hz	ohm	ohm	V	ohm	°	A	V	#
	0	2	1000078	1843.016	-1776.714	1	2559.965	-43.95064	-5.917702E-006	0.0731042	8
	1	4	794390.6	2207.538	-1839.017	1	2873.188	-39.79641	5.071469E-006	0.0706164	8
	2	5	630984.4	2556.468	-1803.125	1	3128.385	-35.19604	-1.550604E-006	0.0715398	8
	3	7	501234.4	2929.452	-1744.179	1	3409.376	-30.76933	-1.354003E-007	0.0709596	8
	4	8	398109.4	3263.101	-1615.935	1	3641.302	-26.34529	3.962196E-006	0.0699939	8
	5	10	316265.6	3534.462	-1501.866	1	3840.316	-23.02164	-4.30058E-007	0.0709227	8
	6	11	251203.1	3734.085	-1326.195	1	3962.598	-19.55297	-1.871925E-007	0.0709069	8
	7	12	199546.9	3890.322	-1168.426	1	4061.997	-16.7172	-1.045361E-006	0.0711319	8
	8	14	158578.1	4055.379	-1057.782	1	4191.063	-14.61899	-4.115968E-006	0.0718441	8
	9	15	125953.1	4210.083	-854.2443	1	4295.875	-11.46985	5.126554E-007	0.0697942	7
	10	17	100078.1	4276.043	-782.3263	1	4347.02	-10.36792	-8.009461E-009	0.0707476	7
	11	18	79453.13	4346.593	-732.0585	1	4407.809	-9.56011	-6.055417E-008	0.0708582	7
	12	19	63140.62	4410.566	-699.8604	1	4465.748	-9.016414	-4.653663E-008	0.0708433	7
	13	21	50203.12	4470.35	-684.6091	1	4522.468	-8.70688	1.704393E-008	0.0708947	7
	14	22	39890.62	4527.121	-687.4585	1	4579.02	-8.634589	6.738985E-008	0.0706475	7
	15	24	31640.63	4587.523	-708.4388	1	4641.902	-8.778687	-7.647562E-010	0.0708642	7
	16	25	25171.88	4648.837	-747.8662	1	4708.608	-9.138968	3.388842E-008	0.0707491	7
	17	26	20015.62	4713.207	-805.3227	1	4781.512	-9.69621	-4.632095E-008	0.0708388	7
	18	28	15890.62	4786.243	-886.3531	1	4867.622	-10.49161	3.256168E-008	0.0707534	7
	19	29	12609.37	4866.16	-984.388	1	4964.729	-11.43618	7.934152E-008	0.0707674	7
	20	30	10078.13	4952.569	-1105.568	1	5074.468	-12.58389	-6.210766E-009	0.070733	7
	21	32	8015.625	5054.049	-1258.613	1	5208.409	-13.98396	1.809883E-008	0.0708854	7
	22	33	6328.125	5170.102	-1444.732	1	5368.166	-15.61247	-4.187025E-008	0.0708382	7
	23	35	5015.625	5304.158	-1666.447	1	5559.778	-17.44154	-4.276724E-008	0.0708444	7
	24	36	3984.375	5454.48	-1928.449	1	5785.35	-19.47121	3.378382E-008	0.0707491	7
	25	37	3170.956	5628.359	-2235.642	1	6056.114	-21.66348	-1.580575E-008	0.0708683	7
	26	39	2527.573	5827.146	-2596.015	1	6379.258	-24.01315	1.912491E-008	0.0708819	7
	27	40	1976.103	6079.34	-3056.331	1	6804.376	-26.69053	-6.358825E-008	0.0708787	7
	28	41	1577.524	6350.173	-3561.892	1	7280.918	-29.28861	1.986592E-008	0.0708878	7
	29	43	1265.625	6658.624	-4133.56	1	7837.32	-31.8313	3.244301E-009	0.0708101	7
	30	44	998.264	7045.477	-4856.201	1	8556.952	-34.57714	-3.994027E-008	0.0708335	7
	31	46	796.875	7479.555	-5661.191	1	9380.449	-37.12167	1.403001E-008	0.0707134	7
	32	47	627.7902	8022.166	-6663.369	1	10428.6	-39.71369	-3.340418E-009	0.0708124	6
	33	48	505.5147	8581.896	-7738.177	1	11555.45	-42.04054	-7.378147E-009	0.0709544	6
	34	50	397.9953	9303.875	-9114.761	1	13024.63	-44.41173	1.245769E-009	0.07085	6
	35	51	315.5048	10123.41	-10696.62	1	14727.56	-46.57707	6.679198E-010	0.0708518	6
	36	52	252.4038	11036.96	-12474.66	1	16656.28	-48.4992	1.481271E-009	0.0708471	6
	37	54	198.6229	12166.13	-14720.34	1	19097.2	-50.42682	9.245578E-010	0.0708487	6
	38	55	158.3615	13402.07	-17231.95	1	21830.15	-52.12618	1.342504E-009	0.0708463	6
	39	56	125.558	14840.51	-20265.3	1	25118.19	-53.78427	6.998816E-010	0.0708543	6
	40	58	100.4464	16490.4	-23725.03	1	28893.08	-55.19824	-6.255399E-011	0.070856	6
	41	59	79.00281	18500.89	-28263.82	1	33780.57	-56.7921	1.622145E-009	0.0708518	6
	42	61	63.3446	20508.32	-33601.91	1	39365.96	-58.60295	-2.785693E-010	0.0708529	6
	43	62	49.86702	23166.71	-39218.86	1	45550.14	-59.42951	-7.742625E-010	0.0708514	6
	44	63	39.72458	26513.6	-46824.04	1	53809.49	-60.47977	6.544238E-010	0.0708538	6
	45	65	31.6723	30354.03	-55271.5	1	63057.96	-61.22527	-3.362729E-010	0.0708486	6
	46	66	24.93351	35550.62	-66327.91	1	75254.49	-61.80946	6.043426E-010	0.0708516	6
	47	68	19.86229	41585.02	-78594.9	1	88918.34	-62.11642	1.87817E-009	0.0708553	6
	48	69	15.83615	49369.82	-93328.8	1	105582.4	-62.12169	-1.440743E-009	0.0708501	5
	49	70	12.40079	59419.76	-110100.4	1	125111.1	-61.64483	7.328623E-010	0.0708519	5
	50	72	9.93114	71301.42	-128626.6	1	147067	-60.99913	6.366738E-010	0.0708587	5
	51	73	7.944915	84134.09	-149588.2	1	171625.1	-60.64494	8.030246E-010	0.0708496	5
	52	75	6.317385	101991.7	-172786.4	1	200642.6	-59.44765	7.363299E-010	0.0708536	5
	53	77	5.008013	122332.8	-199578.3	1	234087.1	-58.49352	5.527072E-010	0.0708604	5
	54	80	3.945707	146956	-230084.8	1	273011.2	-57.43347	2.292124E-010	0.0708541	5
	55	82	3.158693	172701.4	-261152.3	1	313091.5	-56.52312	1.917433E-010	0.0708679	5
	56	86	2.504006	202778.8	-297271.7	1	359846.8	-55.70082	1.719868E-010	0.0708478	5
	57	88	1.998082	233951.1	-336227.3	1	409611.9	-55.16933	-9.347748E-011	0.0708803	5
	58	92	1.584686	269480.6	-382699.1	1	468058.1	-54.8484	2.774067E-010	0.0708963	5
	59	95	1.266892	305678.5	-432688.3	1	529772.1	-54.76019	4.671416E-011	0.070894	5
	60	99	0.999041	345565.9	-496317.9	1	604770.4	-55.15208	2.32641E-010	0.0708219	5
