EXPLAIN
TAG	EISPOT
TITLE	LABEL	Potentiostatic EIS	Test &Identifier
DATE	LABEL	1/18/2020	Date
TIME	LABEL	22:28:37	Time
NOTES	NOTES	6	&Notes...
	
	
	
	
	
	
PSTAT	PSTAT	REF600-11020	Potentiostat
VDC	POTEN	0.00000E+000	T	DC &Voltage (V)
FREQINIT	QUANT	1.00000E+006	Initial Fre&q. (Hz)
FREQFINAL	QUANT	1.00000E+000	Final Fre&q. (Hz)
PTSPERDEC	QUANT	1.00000E+001	Points/&decade
VAC	QUANT	2.50000E+001	AC &Voltage (mV rms)
AREA	QUANT	1.00000E-001	&Area (cm^2)
CONDIT	TWOPARAM	F	5.00000E+000	0.00000E+000	Conditionin&g	Time(s)	E(V)
DELAY	TWOPARAM	F	5.00000E+000	0.00000E+000	Init. De&lay	Time(s)	Stab.(mV/s)
SPEED	SELECTOR	0	&Optimize for:
ZGUESS	QUANT	5.00000E+002	E&stimated Z (ohms)
OCVCURVE	TABLE	39
	Pt	T	Vf	Vm	Ach	Over
	#	s	V vs. Ref.	V	V	bits
	0	0.258333	6.55444E-003	6.55444E-003	6.58913E-004	...........
	1	0.516667	6.55873E-003	6.77923E-003	6.59013E-004	...........
	2	0.775	6.58486E-003	6.97982E-003	6.53480E-004	...........
	3	1.03333	6.65671E-003	7.10511E-003	6.57080E-004	...........
	4	1.29167	6.77858E-003	7.24957E-003	6.49913E-004	...........
	5	1.55	6.92896E-003	7.37715E-003	6.57480E-004	...........
	6	1.80833	7.08224E-003	7.46728E-003	6.57513E-004	...........
	7	2.06667	7.22500E-003	7.63832E-003	6.54146E-004	...........
	8	2.325	7.35402E-003	7.58806E-003	6.53146E-004	...........
	9	2.58333	7.46393E-003	7.60828E-003	6.56046E-004	...........
	10	2.84167	7.54657E-003	7.78455E-003	6.54713E-004	...........
	11	3.1	7.60802E-003	7.77314E-003	6.54146E-004	...........
	12	3.35833	7.66477E-003	7.82006E-003	6.52180E-004	...........
	13	3.61667	7.72032E-003	7.80264E-003	6.55246E-004	...........
	14	3.875	7.76757E-003	7.93187E-003	6.54613E-004	...........
	15	4.13333	7.80924E-003	8.02009E-003	6.50413E-004	...........
	16	4.39167	7.86143E-003	8.21056E-003	6.54379E-004	...........
	17	4.65	7.93547E-003	8.08870E-003	6.52446E-004	...........
	18	4.90833	8.01523E-003	7.95735E-003	6.56746E-004	...........
	19	5.16667	8.06399E-003	8.03438E-003	6.59546E-004	...........
	20	5.425	8.07239E-003	8.30815E-003	6.55446E-004	...........
	21	5.68333	8.07880E-003	8.22192E-003	6.49980E-004	...........
	22	5.94167	8.11290E-003	8.05874E-003	6.51680E-004	...........
	23	6.2	8.14954E-003	8.04375E-003	6.49680E-004	...........
	24	6.45833	8.15091E-003	8.05563E-003	6.54746E-004	...........
	25	6.71667	8.12204E-003	8.18460E-003	6.52646E-004	...........
	26	6.975	8.10012E-003	8.22100E-003	6.49313E-004	...........
	27	7.23333	8.11158E-003	8.27855E-003	6.50780E-004	...........
	28	7.49167	8.15417E-003	8.33667E-003	6.51113E-004	...........
	29	7.75	8.20508E-003	8.05264E-003	6.46813E-004	...........
	30	8.00833	8.22940E-003	7.99463E-003	6.52413E-004	...........
	31	8.26667	8.20267E-003	8.08209E-003	6.54079E-004	...........
	32	8.525	8.14338E-003	8.13200E-003	6.49513E-004	...........
	33	8.78333	8.09756E-003	8.14446E-003	6.57313E-004	...........
	34	9.04167	8.08851E-003	8.13770E-003	6.53780E-004	...........
	35	9.3	8.10534E-003	8.20143E-003	6.54946E-004	...........
	36	9.5583	8.13371E-003	8.36902E-003	6.54413E-004	...........
	37	9.8167	8.17706E-003	8.43652E-003	6.57279E-004	...........
	38	10.075	8.24368E-003	8.49702E-003	6.54046E-004	...........
EOC	QUANT	0.0082437	Open Circuit (V)
PSTATMODEL	IQUANT	4	Pstat Model
PSTATSECTION	LABEL	REF600-11020	Pstat Section
PSTATSERIALNO	LABEL	11020	Pstat Serial Number
CTRLMODE	IQUANT	1	Control Mode
IESTAB	IQUANT	0	I/E Stability
CASPEED	IQUANT	1	Control Amp Speed
CONVENTION	IQUANT	1	Current Convention
ICHRANGE	IQUANT	2	Ich Range
ICHRANGEMODE	TOGGLE	F	Ich Auto Range
ICHOFFSETENABLE	TOGGLE	T	Ich Offset Enable
ICHOFFSET	QUANT	0	Ich Offset (V)
ICHFILTER	IQUANT	3	Ich Filter
VCHRANGE	IQUANT	2	Vch Range
VCHRANGEMODE	TOGGLE	F	Vch Auto Range
VCHOFFSETENABLE	TOGGLE	T	Vch Offset Enable
VCHOFFSET	QUANT	0	Vch Offset (V)
VCHFILTER	IQUANT	3	Vch Filter
ACHRANGE	IQUANT	2	Ach Range
ACHOFFSETENABLE	TOGGLE	F	Ach Offset Enable
ACHOFFSET	QUANT	0	Ach Offset (V)
ACHFILTER	IQUANT	3	Ach Filter
IERANGELOWERLIMIT	IQUANT	1	I/E Range Lower Limit
IERANGEMODE	TOGGLE	F	I/E AutoRange
IERANGE	IQUANT	7	I/E Range
POSFEEDENABLE	TOGGLE	F	Positive Feedback IR Comp
POSFEEDRESISTANCE	QUANT	0	Positive Feedback Resistance (ohm)
ACHSELECT	IQUANT	0	Ach Select
CABLEID	IQUANT	14	Cable ID
DCCALDATE	LABEL	12/22/2019	DC Calibration Date
ACCALDATE	LABEL	12/22/2019	AC Calibration Date
THERMOSELECT	IQUANT	1	Thermo Select
FRAMEWORKVERSION	QUANT	6.33	Framework Version
INSTRUMENTVERSION	LABEL	3.50	Instrument Version
ZCURVE	TABLE
	Pt	Time	Freq	Zreal	Zimag	Zsig	Zmod	Zphz	Idc	Vdc	IERange
	#	s	Hz	ohm	ohm	V	ohm	°	A	V	#
	0	1	1000078	2144.053	-1324.547	1	2520.196	-31.70684	-2.159598E-006	0.0108263	8
	1	2	794390.6	2377.085	-1292.631	1	2705.813	-28.53683	-4.155044E-007	0.0104503	8
	2	2	630984.4	2598.251	-1234.774	1	2876.73	-25.41859	3.527268E-007	0.0098744	8
	3	2	501234.4	2786.096	-1173.615	1	3023.194	-22.84277	1.612181E-006	0.0096318	8
	4	3	398109.4	2957.955	-1099.481	1	3155.686	-20.39025	3.296353E-006	0.0092441	8
	5	3	316265.6	3108.906	-1022.397	1	3272.704	-18.20401	1.063652E-006	0.0095419	8
	6	3	251203.1	3248.954	-965.869	1	3389.484	-16.55648	4.221622E-006	0.0091341	8
	7	4	199546.9	3365.667	-901.394	1	3484.282	-14.99311	-8.087413E-007	0.009983	8
	8	4	158578.1	3488.337	-858.1498	1	3592.342	-13.82063	1.16802E-006	0.0095655	8
	9	4	125953.1	3596.886	-803.8584	1	3685.617	-12.59786	-8.264785E-007	0.011733	7
	10	4	100078.1	3680.957	-774.0167	1	3761.455	-11.87492	-7.873649E-009	0.009863	7
	11	5	79453.13	3772.705	-766.6575	1	3849.814	-11.48676	6.578791E-008	0.0096967	7
	12	5	63140.62	3862.895	-769.8219	1	3938.856	-11.27061	-3.151284E-008	0.0098639	7
	13	5	50203.12	3953.215	-781.1608	1	4029.655	-11.17773	-8.525331E-009	0.0098572	7
	14	6	39890.62	4046.014	-802.449	1	4124.822	-11.21794	6.654113E-008	0.0096888	7
	15	6	31640.63	4142.698	-833.6267	1	4225.74	-11.37757	6.436583E-008	0.0096877	7
	16	6	25171.88	4243.434	-875.0266	1	4332.713	-11.65149	1.063216E-007	0.0096715	7
	17	7	20015.62	4347.678	-925.2853	1	4445.048	-12.0146	-4.940902E-008	0.0098932	7
	18	7	15890.62	4458.692	-984.276	1	4566.042	-12.44864	-1.601542E-008	0.0098124	7
	19	7	12609.37	4574.301	-1056.834	1	4694.798	-13.00919	-8.672195E-009	0.0098464	7
	20	8	10078.13	4687.453	-1137.789	1	4823.564	-13.64358	-3.894824E-008	0.0098494	7
	21	8	8015.625	4813.635	-1238.338	1	4970.368	-14.42687	6.504096E-008	0.009698	7
	22	8	6328.125	4944.177	-1362.247	1	5128.411	-15.40424	-1.852668E-008	0.0098025	7
	23	9	5015.625	5077.037	-1511.013	1	5297.119	-16.5739	2.571061E-008	0.0097878	7
	24	9	3984.375	5212.992	-1689.235	1	5479.854	-17.95457	5.282365E-008	0.0097986	7
	25	9	3170.956	5351.029	-1908.958	1	5681.341	-19.63366	-2.948441E-008	0.0099084	7
	26	10	2527.573	5491.795	-2172.505	1	5905.895	-21.58331	-4.93715E-008	0.0098831	7
	27	10	1976.103	5650.783	-2531.191	1	6191.791	-24.12934	6.676876E-008	0.0096713	7
	28	10	1577.524	5795.423	-2950.449	1	6503.236	-26.98064	-3.526437E-008	0.0098427	7
	29	11	1265.625	5962.595	-3444.691	1	6886.104	-30.01575	1.780049E-009	0.0098275	7
	30	11	998.264	6148.463	-4106.376	1	7393.641	-33.73779	1.900101E-008	0.0097387	7
	31	11	796.875	6345.966	-4895.666	1	8014.913	-37.64879	-3.550567E-008	0.0098418	7
	32	11	627.7902	6592.809	-5930.246	1	8867.521	-41.97145	-6.190105E-009	0.0098442	7
	33	12	505.5147	6847.758	-7088.39	1	9855.81	-45.98921	-4.397426E-009	0.0098127	6
	34	12	397.9953	7181.77	-8664.669	1	11254.08	-50.34613	7.79994E-010	0.0098228	6
	35	12	315.5048	7573.704	-10559.66	1	12994.9	-54.35078	9.404331E-010	0.0098152	6
	36	13	252.4038	8028.059	-12795.24	1	15105.22	-57.89479	3.946676E-010	0.0098102	6
	37	13	198.6229	8630.939	-15752.29	1	17961.84	-61.28094	6.101234E-010	0.0098137	6
	38	13	158.3615	9335.687	-19191.67	1	21341.86	-64.05964	2.729433E-010	0.0098097	6
	39	14	125.558	10240.7	-23518.25	1	25651.12	-66.46995	4.375978E-010	0.0098127	6
	40	14	100.4464	11347.56	-28619.4	1	30786.96	-68.37173	6.189746E-010	0.0098075	6
	41	14	79.00281	12845.02	-35347.19	1	37608.75	-70.02908	6.611842E-011	0.0098129	6
	42	15	63.3446	14411.9	-42661.41	1	45029.98	-71.33398	6.250966E-010	0.0098085	6
	43	15	49.86702	16931.31	-52625.85	1	55282.45	-72.16547	3.849266E-010	0.0098111	6
	44	15	39.72458	20022.08	-64308.63	1	67353.42	-72.70636	3.435122E-010	0.0098099	6
	45	16	31.6723	23941.81	-78330.2	1	81907.45	-73.0041	-2.95567E-011	0.0098087	6
	46	16	24.93351	29334.51	-95960.6	1	100344.2	-73.00196	3.534049E-010	0.0098035	6
	47	16	19.86229	35853.08	-116248.6	1	121651.9	-72.85934	-3.633501E-010	0.0098032	5
	48	17	15.83615	44855.03	-140850.5	1	147820.3	-72.33549	1.20061E-009	0.0098008	5
	49	17	12.40079	55940.23	-172660.9	1	181496.9	-72.04825	8.02081E-010	0.0098011	5
	50	17	9.93114	71133.55	-205359.1	1	217330	-70.89462	8.706193E-010	0.0098052	5
	51	18	7.944915	90179.66	-244749.7	1	260834.8	-69.77335	6.966415E-010	0.0098025	5
	52	18	6.317385	114872.3	-292101.1	1	313876.8	-68.53217	6.869572E-010	0.0097912	5
	53	19	5.008013	147202.6	-346969.8	1	376904	-67.01082	4.163887E-010	0.0098091	5
	54	20	3.945707	189227.6	-409608.2	1	451205	-65.20438	1.933163E-011	0.0097968	5
	55	22	3.158693	237989.2	-474471.5	1	530812.6	-63.36221	-2.041561E-011	0.0097902	5
	56	23	2.504006	299824.4	-548308.6	1	624929.6	-61.32942	2.005563E-010	0.0097932	5
	57	25	1.998082	367987.2	-623285	1	723808.5	-59.44241	8.223318E-011	0.0097836	5
	58	26	1.584686	451045.5	-706646.6	1	838326.6	-57.45031	-2.616075E-012	0.0097526	5
	59	28	1.266892	537840.3	-794529.1	1	959452	-55.90477	-2.91402E-011	0.0097642	5
	60	31	0.999041	638406.4	-894212.4	1	1098717	-54.47576	-4.337009E-011	0.0098316	4
