EXPLAIN
TAG	EISPOT
TITLE	LABEL	Potentiostatic EIS	Test &Identifier
DATE	LABEL	6/6/2020	Date
TIME	LABEL	18:13:14	Time
NOTES	NOTES	1	&Notes...
	
PSTAT	PSTAT	REF600-11020	Potentiostat
VDC	POTEN	0.00000E+000	T	DC &Voltage (V)
FREQINIT	QUANT	1.00000E+006	Initial Fre&q. (Hz)
FREQFINAL	QUANT	1.00000E+000	Final Fre&q. (Hz)
PTSPERDEC	QUANT	1.00000E+001	Points/&decade
VAC	QUANT	2.50000E+001	AC &Voltage (mV rms)
AREA	QUANT	4.00000E-004	&Area (cm^2)
CONDIT	TWOPARAM	F	5.00000E+000	0.00000E+000	Conditionin&g	Time(s)	E(V)
DELAY	TWOPARAM	T	3.00000E+000	0.00000E+000	Init. De&lay	Time(s)	Stab.(mV/s)
SPEED	SELECTOR	0	&Optimize for:
ZGUESS	QUANT	1.00000E+003	E&stimated Z (ohms)
OCVCURVE	TABLE	12
	Pt	T	Vf	Vm	Ach	Over
	#	s	V vs. Ref.	V	V	bits
	0	0.258333	-3.76556E-002	-3.76556E-002	5.66830E-004	...........
	1	0.516667	-3.76556E-002	-3.76586E-002	5.67197E-004	...........
	2	0.775	-3.76561E-002	-3.76666E-002	5.68697E-004	...........
	3	1.03333	-3.76576E-002	-3.76703E-002	5.68397E-004	...........
	4	1.29167	-3.76607E-002	-3.76738E-002	5.70997E-004	...........
	5	1.55	-3.76648E-002	-3.76769E-002	5.72797E-004	...........
	6	1.80833	-3.76691E-002	-3.76799E-002	5.71363E-004	...........
	7	2.06667	-3.76731E-002	-3.76841E-002	5.68997E-004	...........
	8	2.325	-3.76766E-002	-3.76845E-002	5.71030E-004	...........
	9	2.58333	-3.76798E-002	-3.76888E-002	5.71430E-004	...........
	10	2.84167	-3.76827E-002	-3.76913E-002	5.74663E-004	...........
	11	3.1	-3.76855E-002	-3.76932E-002	5.70663E-004	...........
EOC	QUANT	-0.0376855	Open Circuit (V)
PSTATMODEL	IQUANT	4	Pstat Model
PSTATSECTION	LABEL	REF600-11020	Pstat Section
PSTATSERIALNO	LABEL	11020	Pstat Serial Number
CTRLMODE	IQUANT	1	Control Mode
IESTAB	IQUANT	0	I/E Stability
CASPEED	IQUANT	1	Control Amp Speed
CONVENTION	IQUANT	1	Current Convention
ICHRANGE	IQUANT	2	Ich Range
ICHRANGEMODE	TOGGLE	F	Ich Auto Range
ICHOFFSETENABLE	TOGGLE	T	Ich Offset Enable
ICHOFFSET	QUANT	0	Ich Offset (V)
ICHFILTER	IQUANT	3	Ich Filter
VCHRANGE	IQUANT	2	Vch Range
VCHRANGEMODE	TOGGLE	F	Vch Auto Range
VCHOFFSETENABLE	TOGGLE	T	Vch Offset Enable
VCHOFFSET	QUANT	0	Vch Offset (V)
VCHFILTER	IQUANT	3	Vch Filter
ACHRANGE	IQUANT	2	Ach Range
ACHOFFSETENABLE	TOGGLE	F	Ach Offset Enable
ACHOFFSET	QUANT	0	Ach Offset (V)
ACHFILTER	IQUANT	3	Ach Filter
IERANGELOWERLIMIT	IQUANT	1	I/E Range Lower Limit
IERANGEMODE	TOGGLE	F	I/E AutoRange
IERANGE	IQUANT	7	I/E Range
POSFEEDENABLE	TOGGLE	F	Positive Feedback IR Comp
POSFEEDRESISTANCE	QUANT	0	Positive Feedback Resistance (ohm)
ACHSELECT	IQUANT	0	Ach Select
CABLEID	IQUANT	14	Cable ID
DCCALDATE	LABEL	2/27/2020	DC Calibration Date
ACCALDATE	LABEL	2/27/2020	AC Calibration Date
THERMOSELECT	IQUANT	1	Thermo Select
FRAMEWORKVERSION	QUANT	6.33	Framework Version
INSTRUMENTVERSION	LABEL	3.50	Instrument Version
ZCURVE	TABLE
	Pt	Time	Freq	Zreal	Zimag	Zsig	Zmod	Zphz	Idc	Vdc	IERange
	#	s	Hz	ohm	ohm	V	ohm	°	A	V	#
	0	1	1000078	1844.231	-1860.585	1	2619.726	-45.25293	4.817676E-008	-0.0353833	8
	1	2	794390.6	2169.116	-1989.111	1	2943.065	-42.52127	3.44456E-008	-0.0357208	8
	2	2	630984.4	2515.984	-2088.205	1	3269.675	-39.69184	6.705254E-008	-0.0358632	8
	3	2	501234.4	2874.92	-2166.392	1	3599.78	-36.9998	4.770284E-008	-0.035951	8
	4	3	398109.4	3238.31	-2219.161	1	3925.726	-34.42221	3.875851E-008	-0.0360093	8
	5	3	316265.6	3602.188	-2251.02	1	4247.687	-32.00141	3.960745E-008	-0.0360163	8
	6	3	251203.1	3967.066	-2270.675	1	4570.949	-29.78601	5.601876E-008	-0.0360434	8
	7	4	199546.9	4327.886	-2285.068	1	4894.091	-27.83347	4.227959E-008	-0.0360416	8
	8	4	158578.1	4680.337	-2280.864	1	5206.524	-25.98132	5.563024E-008	-0.0360383	8
	9	4	125953.1	5075.447	-2213.985	1	5537.318	-23.56754	8.971464E-009	-0.0360978	7
	10	5	100078.1	5396.209	-2195.792	1	5825.854	-22.14209	3.370318E-009	-0.0361077	7
	11	5	79453.13	5727.219	-2184.966	1	6129.854	-20.88213	2.996847E-009	-0.0361125	7
	12	5	63140.62	6050.004	-2167.427	1	6426.53	-19.71017	2.82801E-009	-0.0361169	7
	13	6	50203.12	6363.908	-2148.586	1	6716.825	-18.65574	3.294158E-009	-0.0361262	7
	14	6	39890.62	6666.693	-2132.175	1	6999.354	-17.73558	3.75203E-009	-0.0361223	7
	15	6	31640.63	6961.551	-2118.142	1	7276.655	-16.92306	3.884082E-009	-0.0361266	7
	16	6	25171.88	7246.901	-2115.542	1	7549.376	-16.27377	4.19631E-009	-0.0361258	7
	17	7	20015.62	7524.169	-2124.248	1	7818.283	-15.7656	3.64733E-009	-0.0361252	7
	18	7	15890.62	7796.778	-2145.633	1	8086.624	-15.38663	2.749719E-009	-0.0361313	7
	19	7	12609.37	8072.054	-2189.827	1	8363.815	-15.17818	3.95113E-009	-0.0361266	7
	20	8	10078.13	8333.885	-2249.043	1	8632.023	-15.10249	3.051164E-009	-0.0361331	7
	21	8	8015.625	8603.256	-2337.117	1	8915.051	-15.19792	3.635466E-009	-0.0361291	7
	22	8	6328.125	8904.904	-2407.391	1	9224.578	-15.12796	2.182925E-010	-0.0360772	6
	23	9	5015.625	9183.881	-2566.442	1	9535.74	-15.61306	3.967558E-010	-0.0360698	6
	24	9	3984.375	9473.468	-2761.28	1	9867.69	-16.25009	2.647033E-010	-0.0360774	6
	25	9	3170.956	9770.71	-2994.727	1	10219.36	-17.04032	2.639966E-011	-0.0360722	6
	26	10	2527.573	10089.2	-3277.774	1	10608.29	-17.99792	4.06439E-010	-0.0360773	6
	27	10	1976.103	10443.88	-3644.842	1	11061.62	-19.23864	1.415572E-010	-0.0360797	6
	28	10	1577.524	10784.79	-4050.58	1	11520.36	-20.58532	7.85805E-011	-0.0360841	6
	29	11	1265.625	11136.36	-4527.479	1	12021.5	-22.12417	5.447698E-012	-0.0360848	6
	30	11	998.264	11533.8	-5153.309	1	12632.7	-24.07512	5.152859E-010	-0.0360804	6
	31	11	796.875	11927.14	-5883.731	1	13299.44	-26.2574	9.873402E-011	-0.0360801	6
	32	12	627.7902	12375.56	-6841	1	14140.5	-28.93308	1.640335E-010	-0.0360784	6
	33	12	505.5147	12830.51	-7909.418	1	15072.52	-31.65192	1.224873E-010	-0.0360808	6
	34	12	397.9953	13390.31	-9366.895	1	16341.33	-34.97385	5.295128E-010	-0.0360652	6
	35	13	315.5048	14032.67	-11112.82	1	17900.02	-38.37659	5.608861E-010	-0.0360644	6
	36	13	252.4038	14778.98	-13159.76	1	19788.83	-41.68308	4.737229E-010	-0.0360724	6
	37	13	198.6229	15754.18	-15831.38	1	22334.43	-45.14003	6.012865E-010	-0.0360713	6
	38	14	158.3615	16902.83	-18888.49	1	25347.21	-48.17545	5.674228E-010	-0.036073	6
	39	14	125.558	18371.62	-22641.66	1	29157.52	-50.94386	7.512887E-010	-0.0360754	6
	40	14	100.4464	20131.03	-26931.97	1	33624.24	-53.22273	8.33539E-010	-0.0360725	6
	41	15	79.00281	22509.19	-32420.88	1	39468.68	-55.2285	4.230308E-010	-0.0360745	6
	42	15	63.3446	25234.38	-38381.48	1	45933.77	-56.67659	4.677715E-010	-0.0360734	6
	43	15	49.86702	28923.71	-45975.99	1	54317.34	-57.82581	3.07506E-010	-0.0360782	6
	44	16	39.72458	33327.14	-54424.4	1	63817.82	-58.51851	6.29807E-010	-0.036077	6
	45	16	31.6723	38784.6	-64157.85	1	74969.83	-58.84626	8.263887E-010	-0.0360809	6
	46	16	24.93351	46035.68	-75975.26	1	88834.25	-58.78708	7.330603E-011	-0.0360833	6
	47	17	19.86229	54589.51	-88624.42	1	104088	-58.3684	3.731936E-010	-0.0360764	5
	48	17	15.83615	64972.73	-102770.6	1	121586.4	-57.69847	-1.330232E-009	-0.0360797	5
	49	17	12.40079	78304.05	-119498.3	1	142868.4	-56.76425	-1.095359E-009	-0.0360757	5
	50	17	9.93114	92473.49	-135893.2	1	164372.5	-55.76524	-1.337034E-009	-0.0360758	5
	51	18	7.944915	108163.5	-154159.6	1	188320.3	-54.94521	-8.478908E-010	-0.0360703	5
	52	18	6.317385	126554.4	-174533.2	1	215587.3	-54.05405	4.176855E-010	-0.0360877	5
	53	19	5.008013	147434.4	-197795.3	1	246698	-53.29956	1.815294E-010	-0.0360809	5
	54	20	3.945707	170796.3	-225072.5	1	282540.3	-52.80695	-3.159948E-010	-0.0360814	5
	55	21	3.158693	195386.8	-253613.8	1	320149.8	-52.38895	2.047699E-010	-0.0360891	5
	56	22	2.504006	223780.2	-288419.8	1	365052.8	-52.19271	3.549056E-010	-0.0360839	5
	57	23	1.998082	255226.3	-326451.7	1	414380.4	-51.98101	-1.468491E-011	-0.0361246	5
	58	25	1.584686	291251.7	-372914	1	473172.7	-52.0096	-2.787068E-011	-0.0361221	5
	59	27	1.266892	330511.6	-422662.3	1	536545.8	-51.97546	7.011328E-011	-0.0360834	5
	60	29	0.999041	379308.5	-483318.2	1	614387.1	-51.87515	1.32673E-010	-0.0360558	5
