EXPLAIN
TAG	EISPOT
TITLE	LABEL	Potentiostatic EIS	Test &Identifier
DATE	LABEL	1/21/2020	Date
TIME	LABEL	16:35:50	Time
NOTES	NOTES	6	&Notes...
	
	
	
	
	
	
PSTAT	PSTAT	REF600-11020	Potentiostat
VDC	POTEN	0.00000E+000	T	DC &Voltage (V)
FREQINIT	QUANT	1.00000E+006	Initial Fre&q. (Hz)
FREQFINAL	QUANT	1.00000E+000	Final Fre&q. (Hz)
PTSPERDEC	QUANT	1.00000E+001	Points/&decade
VAC	QUANT	2.50000E+001	AC &Voltage (mV rms)
AREA	QUANT	1.00000E-001	&Area (cm^2)
CONDIT	TWOPARAM	F	5.00000E+000	0.00000E+000	Conditionin&g	Time(s)	E(V)
DELAY	TWOPARAM	F	5.00000E+000	0.00000E+000	Init. De&lay	Time(s)	Stab.(mV/s)
SPEED	SELECTOR	0	&Optimize for:
ZGUESS	QUANT	5.00000E+002	E&stimated Z (ohms)
OCVCURVE	TABLE	39
	Pt	T	Vf	Vm	Ach	Over
	#	s	V vs. Ref.	V	V	bits
	0	0.258333	-5.73481E-002	-5.73481E-002	6.10980E-004	...........
	1	0.516667	-5.73484E-002	-5.73679E-002	6.21580E-004	...........
	2	0.775	-5.73511E-002	-5.74025E-002	6.23113E-004	...........
	3	1.03333	-5.73590E-002	-5.74111E-002	6.10580E-004	...........
	4	1.29167	-5.73730E-002	-5.74073E-002	6.12080E-004	...........
	5	1.55	-5.73889E-002	-5.74294E-002	6.18880E-004	...........
	6	1.80833	-5.74034E-002	-5.74560E-002	6.18780E-004	...........
	7	2.06667	-5.74171E-002	-5.74685E-002	6.05180E-004	...........
	8	2.325	-5.74323E-002	-5.74786E-002	6.11847E-004	...........
	9	2.58333	-5.74485E-002	-5.74844E-002	6.17347E-004	...........
	10	2.84167	-5.74638E-002	-5.75219E-002	6.22880E-004	...........
	11	3.1	-5.74784E-002	-5.75257E-002	6.11580E-004	...........
	12	3.35833	-5.74939E-002	-5.75364E-002	6.06180E-004	...........
	13	3.61667	-5.75094E-002	-5.75448E-002	6.20013E-004	...........
	14	3.875	-5.75233E-002	-5.75562E-002	6.21880E-004	...........
	15	4.13333	-5.75351E-002	-5.75721E-002	6.07747E-004	...........
	16	4.39167	-5.75462E-002	-5.75905E-002	6.06680E-004	...........
	17	4.65	-5.75584E-002	-5.76055E-002	6.18313E-004	...........
	18	4.90833	-5.75723E-002	-5.76069E-002	6.15847E-004	...........
	19	5.16667	-5.75861E-002	-5.76103E-002	6.12014E-004	...........
	20	5.425	-5.75975E-002	-5.76189E-002	6.21647E-004	...........
	21	5.68333	-5.76060E-002	-5.76326E-002	6.21313E-004	...........
	22	5.94167	-5.76132E-002	-5.76361E-002	6.10180E-004	...........
	23	6.2	-5.76207E-002	-5.76471E-002	6.10480E-004	...........
	24	6.45833	-5.76289E-002	-5.76560E-002	6.23947E-004	...........
	25	6.71667	-5.76373E-002	-5.76623E-002	6.19247E-004	...........
	26	6.975	-5.76458E-002	-5.76646E-002	6.09347E-004	...........
	27	7.23333	-5.76535E-002	-5.76742E-002	6.05814E-004	...........
	28	7.49167	-5.76604E-002	-5.76835E-002	6.26147E-004	...........
	29	7.75	-5.76673E-002	-5.76986E-002	6.16513E-004	...........
	30	8.00833	-5.76753E-002	-5.77088E-002	6.11147E-004	...........
	31	8.26667	-5.76850E-002	-5.77142E-002	6.08080E-004	...........
	32	8.525	-5.76953E-002	-5.77197E-002	6.18613E-004	...........
	33	8.78333	-5.77049E-002	-5.77295E-002	6.21113E-004	...........
	34	9.04167	-5.77132E-002	-5.77341E-002	6.05714E-004	...........
	35	9.3	-5.77206E-002	-5.77393E-002	6.06714E-004	...........
	36	9.5583	-5.77271E-002	-5.77374E-002	6.14380E-004	...........
	37	9.8167	-5.77327E-002	-5.77527E-002	6.18580E-004	...........
	38	10.075	-5.77375E-002	-5.77506E-002	6.04214E-004	...........
EOC	QUANT	-0.0577375	Open Circuit (V)
PSTATMODEL	IQUANT	4	Pstat Model
PSTATSECTION	LABEL	REF600-11020	Pstat Section
PSTATSERIALNO	LABEL	11020	Pstat Serial Number
CTRLMODE	IQUANT	1	Control Mode
IESTAB	IQUANT	0	I/E Stability
CASPEED	IQUANT	1	Control Amp Speed
CONVENTION	IQUANT	1	Current Convention
ICHRANGE	IQUANT	2	Ich Range
ICHRANGEMODE	TOGGLE	F	Ich Auto Range
ICHOFFSETENABLE	TOGGLE	T	Ich Offset Enable
ICHOFFSET	QUANT	0	Ich Offset (V)
ICHFILTER	IQUANT	3	Ich Filter
VCHRANGE	IQUANT	2	Vch Range
VCHRANGEMODE	TOGGLE	F	Vch Auto Range
VCHOFFSETENABLE	TOGGLE	T	Vch Offset Enable
VCHOFFSET	QUANT	0	Vch Offset (V)
VCHFILTER	IQUANT	3	Vch Filter
ACHRANGE	IQUANT	2	Ach Range
ACHOFFSETENABLE	TOGGLE	F	Ach Offset Enable
ACHOFFSET	QUANT	0	Ach Offset (V)
ACHFILTER	IQUANT	3	Ach Filter
IERANGELOWERLIMIT	IQUANT	1	I/E Range Lower Limit
IERANGEMODE	TOGGLE	F	I/E AutoRange
IERANGE	IQUANT	8	I/E Range
POSFEEDENABLE	TOGGLE	F	Positive Feedback IR Comp
POSFEEDRESISTANCE	QUANT	0	Positive Feedback Resistance (ohm)
ACHSELECT	IQUANT	0	Ach Select
CABLEID	IQUANT	14	Cable ID
DCCALDATE	LABEL	12/22/2019	DC Calibration Date
ACCALDATE	LABEL	12/22/2019	AC Calibration Date
THERMOSELECT	IQUANT	1	Thermo Select
FRAMEWORKVERSION	QUANT	6.33	Framework Version
INSTRUMENTVERSION	LABEL	3.50	Instrument Version
ZCURVE	TABLE
	Pt	Time	Freq	Zreal	Zimag	Zsig	Zmod	Zphz	Idc	Vdc	IERange
	#	s	Hz	ohm	ohm	V	ohm	°	A	V	#
	0	1	1000078	2275.045	-1813.127	1	2909.168	-38.55355	1.695397E-006	-0.0558139	8
	1	2	794390.6	2632.195	-1810.556	1	3194.771	-34.52215	2.930331E-006	-0.0564936	8
	2	2	630984.4	2973.69	-1765.303	1	3458.197	-30.69509	-7.031242E-007	-0.0560138	8
	3	2	501234.4	3310.067	-1651.433	1	3699.158	-26.51517	1.917497E-006	-0.0564702	8
	4	3	398109.4	3576.354	-1527.66	1	3888.966	-23.13003	-2.279826E-006	-0.0557942	8
	5	3	316265.6	3821.394	-1389.519	1	4066.179	-19.98207	1.581706E-006	-0.056427	8
	6	3	251203.1	3997.682	-1243.91	1	4186.738	-17.28394	-1.000683E-006	-0.0558637	8
	7	3	199546.9	4157.518	-1105.419	1	4301.966	-14.88956	-3.411316E-007	-0.0559253	8
	8	4	158578.1	4280.407	-993.095	1	4394.101	-13.06207	8.878211E-007	-0.0564324	8
	9	4	125953.1	4406.962	-873.8013	1	4492.754	-11.215	4.106914E-007	-0.0565806	7
	10	4	100078.1	4473.681	-798.7911	1	4544.435	-10.12367	-2.732632E-008	-0.0561805	7
	11	5	79453.13	4548.655	-753.3938	1	4610.625	-9.404522	-2.577301E-008	-0.0561964	7
	12	5	63140.62	4616.271	-725.8773	1	4672.993	-8.936201	4.003753E-008	-0.0563194	7
	13	5	50203.12	4679.488	-716.5829	1	4734.037	-8.706227	-8.87382E-009	-0.0561642	7
	14	6	39890.62	4743.37	-723.566	1	4798.24	-8.673187	5.219233E-008	-0.05622	7
	15	6	31640.63	4805.765	-750.6042	1	4864.03	-8.877208	1.380428E-008	-0.0562668	7
	16	6	25171.88	4873.523	-796.3063	1	4938.15	-9.279805	6.931497E-008	-0.0563349	7
	17	7	20015.62	4945.814	-862.1935	1	5020.404	-9.88888	-8.575331E-009	-0.0561681	7
	18	7	15890.62	5026.013	-946.7665	1	5114.409	-10.66798	-7.08294E-009	-0.0561183	7
	19	7	12609.37	5115.346	-1054.678	1	5222.94	-11.64995	6.915871E-008	-0.0563312	7
	20	8	10078.13	5211.855	-1181.181	1	5344.027	-12.76944	-1.332598E-008	-0.0561755	7
	21	8	8015.625	5322.469	-1340.647	1	5488.717	-14.13781	-2.957661E-008	-0.0562022	7
	22	8	6328.125	5455.987	-1527.835	1	5665.869	-15.64379	1.077827E-007	-0.0563713	7
	23	9	5015.625	5601.81	-1750.192	1	5868.854	-17.35054	-3.391471E-008	-0.0561691	7
	24	9	3984.375	5759.965	-2020.356	1	6104.018	-19.32874	-1.750935E-009	-0.0561926	7
	25	9	3170.956	5942.979	-2320.153	1	6379.82	-21.32579	-1.388818E-009	-0.0561943	7
	26	9	2527.573	6143.112	-2677.04	1	6701.072	-23.54656	1.868172E-008	-0.0562843	7
	27	10	1976.103	6389.294	-3141.663	1	7119.91	-26.18369	5.8123E-009	-0.0562829	7
	28	10	1577.524	6604.677	-3629.904	1	7536.442	-28.79302	-3.010836E-008	-0.0562057	7
	29	10	1265.625	6928.376	-4232.204	1	8118.741	-31.4187	-3.415564E-008	-0.0561719	7
	30	11	998.264	7267.545	-4991.211	1	8816.429	-34.48054	1.102133E-007	-0.0563711	7
	31	11	796.875	7631.141	-5846.58	1	9613.37	-37.45744	1.947277E-008	-0.0562914	7
	32	11	627.7902	8069.18	-6946.06	1	10647.04	-40.72232	-6.920883E-009	-0.0561411	6
	33	12	505.5147	8522.993	-8143.615	1	11788.12	-43.69601	-4.099116E-009	-0.0562238	6
	34	12	397.9953	9086.275	-9736.68	1	13317.79	-46.97901	5.238909E-010	-0.0562102	6
	35	12	315.5048	9720.8	-11622.06	1	15151.44	-50.09056	8.698051E-010	-0.0562117	6
	36	13	252.4038	10427.72	-13819.03	1	17311.93	-52.96212	5.728131E-010	-0.0562147	6
	37	13	198.6229	11315.36	-16685.8	1	20160.69	-55.8571	5.882492E-010	-0.0562102	6
	38	13	158.3615	12310.29	-19993.71	1	23479.6	-58.37906	3.106739E-010	-0.0562208	6
	39	14	125.558	13540.41	-24109.46	1	27651.56	-60.68047	8.673453E-010	-0.0562141	6
	40	14	100.4464	14934.31	-28906.74	1	32536.64	-62.67742	3.575603E-010	-0.0562186	6
	41	14	79.00281	16836.17	-35129.57	1	38955.66	-64.3935	1.775896E-010	-0.0562235	6
	42	15	63.3446	19172.07	-42505.98	1	46629.68	-65.72253	8.663785E-010	-0.0562221	6
	43	15	49.86702	21875.71	-51633.12	1	56076.07	-67.0388	1.025629E-009	-0.0562222	6
	44	15	39.72458	25332.2	-61856.11	1	66842.34	-67.72922	7.800912E-010	-0.0562181	6
	45	16	31.6723	29539.74	-74500.41	1	80143.04	-68.37145	8.445047E-010	-0.056221	6
	46	16	24.93351	35105.34	-90340.49	1	96921.6	-68.76441	5.167381E-010	-0.056223	6
	47	16	19.86229	41748.96	-108522.6	1	116276.1	-68.95813	-5.675763E-010	-0.0562233	5
	48	17	15.83615	50438.63	-129408.8	1	138891	-68.70606	-2.850689E-010	-0.0562235	5
	49	17	12.40079	62907.75	-159296	1	171267.6	-68.45039	4.152688E-010	-0.056222	5
	50	17	9.93114	76201.95	-188545.4	1	203362	-67.99355	-7.592122E-011	-0.0562211	5
	51	18	7.944915	94292.65	-223736.4	1	242794.3	-67.14724	5.043528E-010	-0.0562288	5
	52	18	6.317385	118038.6	-265716.2	1	290754.6	-66.04787	5.060015E-010	-0.0562376	5
	53	19	5.008013	149353.2	-314124.4	1	347822.5	-64.57083	2.495987E-010	-0.0562279	5
	54	20	3.945707	189317.5	-369164	1	414877.3	-62.84999	2.331752E-010	-0.0562224	5
	55	22	3.158693	235790.8	-425644.4	1	486590.7	-61.01521	-5.919467E-011	-0.056237	5
	56	23	2.504006	294098.5	-487859.8	1	569650	-58.917	1.09772E-010	-0.0562383	5
	57	25	1.998082	359611	-551941.3	1	658755.9	-56.91421	2.548576E-010	-0.0561989	5
	58	26	1.584686	435241.2	-618461.8	1	756260.4	-54.86411	1.378605E-010	-0.0562324	5
	59	28	1.266892	518871	-686516.8	1	860541.9	-52.91793	6.642642E-011	-0.0562703	5
	60	31	0.999041	614588.4	-764251.2	1	980713	-51.19478	4.856316E-012	-0.0562728	5
