EXPLAIN
TAG	EISPOT
TITLE	LABEL	Potentiostatic EIS	Test &Identifier
DATE	LABEL	2/25/2020	Date
TIME	LABEL	16:29:12	Time
NOTES	NOTES	1	&Notes...
	
PSTAT	PSTAT	REF600-11020	Potentiostat
VDC	POTEN	0.00000E+000	T	DC &Voltage (V)
FREQINIT	QUANT	1.00000E+006	Initial Fre&q. (Hz)
FREQFINAL	QUANT	1.00000E+000	Final Fre&q. (Hz)
PTSPERDEC	QUANT	1.00000E+001	Points/&decade
VAC	QUANT	2.50000E+001	AC &Voltage (mV rms)
AREA	QUANT	1.60000E-004	&Area (cm^2)
CONDIT	TWOPARAM	F	1.50000E+001	0.00000E+000	Conditionin&g	Time(s)	E(V)
DELAY	TWOPARAM	F	1.00000E+002	0.00000E+000	Init. De&lay	Time(s)	Stab.(mV/s)
SPEED	SELECTOR	1	&Optimize for:
ZGUESS	QUANT	1.00000E+003	E&stimated Z (ohms)
OCVCURVE	TABLE	39
	Pt	T	Vf	Vm	Ach	Over
	#	s	V vs. Ref.	V	V	bits
	0	0.258333	8.79524E-002	8.79524E-002	5.64471E-004	...........
	1	0.516667	8.79532E-002	8.79973E-002	5.61604E-004	...........
	2	0.775	8.79557E-002	8.78943E-002	5.62938E-004	...........
	3	1.03333	8.79547E-002	8.78551E-002	5.63571E-004	...........
	4	1.29167	8.79399E-002	8.78231E-002	5.64171E-004	...........
	5	1.55	8.79090E-002	8.77927E-002	5.67771E-004	...........
	6	1.80833	8.78701E-002	8.77763E-002	5.70704E-004	...........
	7	2.06667	8.78334E-002	8.77651E-002	5.67604E-004	...........
	8	2.325	8.78036E-002	8.77451E-002	5.69104E-004	...........
	9	2.58333	8.77809E-002	8.77202E-002	5.72171E-004	...........
	10	2.84167	8.77619E-002	8.77066E-002	5.73804E-004	...........
	11	3.1	8.77438E-002	8.76937E-002	5.70104E-004	...........
	12	3.35833	8.77261E-002	8.76764E-002	5.71304E-004	...........
	13	3.61667	8.77092E-002	8.76589E-002	5.64371E-004	...........
	14	3.875	8.76927E-002	8.76228E-002	5.66004E-004	...........
	15	4.13333	8.76731E-002	8.75284E-002	5.64038E-004	...........
	16	4.39167	8.76433E-002	8.74450E-002	5.66404E-004	...........
	17	4.65	8.75964E-002	8.73736E-002	5.68304E-004	...........
	18	4.90833	8.75342E-002	8.73887E-002	5.69338E-004	...........
	19	5.16667	8.74717E-002	8.74488E-002	5.65438E-004	...........
	20	5.425	8.74292E-002	8.74331E-002	5.64138E-004	...........
	21	5.68333	8.74150E-002	8.74410E-002	5.68738E-004	...........
	22	5.94167	8.74199E-002	8.74449E-002	5.67638E-004	...........
	23	6.2	8.74301E-002	8.74567E-002	5.63238E-004	...........
	24	6.45833	8.74399E-002	8.74853E-002	5.63038E-004	...........
	25	6.71667	8.74508E-002	8.75305E-002	5.68071E-004	...........
	26	6.975	8.74672E-002	8.75494E-002	5.68538E-004	...........
	27	7.23333	8.74898E-002	8.75260E-002	5.63104E-004	...........
	28	7.49167	8.75117E-002	8.75091E-002	5.65804E-004	...........
	29	7.75	8.75239E-002	8.74963E-002	5.64404E-004	...........
	30	8.00833	8.75229E-002	8.74729E-002	5.65938E-004	...........
	31	8.26667	8.75119E-002	8.74574E-002	5.66638E-004	...........
	32	8.525	8.74956E-002	8.74410E-002	5.65571E-004	...........
	33	8.78333	8.74779E-002	8.74444E-002	5.66038E-004	...........
	34	9.04167	8.74621E-002	8.74319E-002	5.70338E-004	...........
	35	9.3	8.74498E-002	8.74249E-002	5.73038E-004	...........
	36	9.5583	8.74408E-002	8.74246E-002	5.67204E-004	...........
	37	9.8167	8.74338E-002	8.74202E-002	5.69571E-004	...........
	38	10.075	8.74282E-002	8.74147E-002	5.69404E-004	...........
EOC	QUANT	0.0874282	Open Circuit (V)
PSTATMODEL	IQUANT	4	Pstat Model
PSTATSECTION	LABEL	REF600-11020	Pstat Section
PSTATSERIALNO	LABEL	11020	Pstat Serial Number
CTRLMODE	IQUANT	1	Control Mode
IESTAB	IQUANT	0	I/E Stability
CASPEED	IQUANT	1	Control Amp Speed
CONVENTION	IQUANT	1	Current Convention
ICHRANGE	IQUANT	2	Ich Range
ICHRANGEMODE	TOGGLE	F	Ich Auto Range
ICHOFFSETENABLE	TOGGLE	T	Ich Offset Enable
ICHOFFSET	QUANT	0	Ich Offset (V)
ICHFILTER	IQUANT	3	Ich Filter
VCHRANGE	IQUANT	2	Vch Range
VCHRANGEMODE	TOGGLE	F	Vch Auto Range
VCHOFFSETENABLE	TOGGLE	T	Vch Offset Enable
VCHOFFSET	QUANT	0	Vch Offset (V)
VCHFILTER	IQUANT	3	Vch Filter
ACHRANGE	IQUANT	2	Ach Range
ACHOFFSETENABLE	TOGGLE	F	Ach Offset Enable
ACHOFFSET	QUANT	0	Ach Offset (V)
ACHFILTER	IQUANT	3	Ach Filter
IERANGELOWERLIMIT	IQUANT	1	I/E Range Lower Limit
IERANGEMODE	TOGGLE	F	I/E AutoRange
IERANGE	IQUANT	8	I/E Range
POSFEEDENABLE	TOGGLE	F	Positive Feedback IR Comp
POSFEEDRESISTANCE	QUANT	0	Positive Feedback Resistance (ohm)
ACHSELECT	IQUANT	0	Ach Select
CABLEID	IQUANT	14	Cable ID
DCCALDATE	LABEL	1/27/2020	DC Calibration Date
ACCALDATE	LABEL	1/27/2020	AC Calibration Date
THERMOSELECT	IQUANT	1	Thermo Select
FRAMEWORKVERSION	QUANT	6.33	Framework Version
INSTRUMENTVERSION	LABEL	3.50	Instrument Version
ZCURVE	TABLE
	Pt	Time	Freq	Zreal	Zimag	Zsig	Zmod	Zphz	Idc	Vdc	IERange
	#	s	Hz	ohm	ohm	V	ohm	°	A	V	#
	0	1	1000078	1664.705	-2164.898	1	2730.938	-52.4414	-1.663718E-006	0.0901404	8
	1	3	794390.6	2068.978	-2374.257	1	3149.248	-48.93042	1.527211E-006	0.0891848	8
	2	4	630984.4	2529.481	-2529.465	1	3577.215	-44.99982	-5.128637E-007	0.0892056	8
	3	5	501234.4	3031.758	-2632.759	1	4015.343	-40.97083	-1.116636E-006	0.0892543	8
	4	7	398109.4	3543.897	-2658.295	1	4430.094	-36.87374	-1.54157E-007	0.0890847	8
	5	8	316265.6	4026.162	-2620.105	1	4803.638	-33.05486	-7.532827E-007	0.089254	8
	6	9	251203.1	4515.626	-2514.546	1	5168.542	-29.11144	-1.811344E-007	0.0890449	8
	7	11	199546.9	4931.977	-2382.397	1	5477.245	-25.78292	3.703445E-007	0.0889093	8
	8	12	158578.1	5324.516	-2218.952	1	5768.381	-22.62357	-6.596384E-007	0.0892192	8
	9	13	125953.1	5671.358	-2011.612	1	6017.548	-19.52943	-1.022152E-007	0.0890097	7
	10	15	100078.1	5951.127	-1843.362	1	6230.08	-17.21037	8.139168E-009	0.0889621	7
	11	16	79453.13	6186.584	-1689.97	1	6413.253	-15.27856	1.661892E-008	0.0889392	7
	12	18	63140.62	6387.193	-1552.878	1	6573.254	-13.66484	1.186592E-008	0.0889205	7
	13	19	50203.12	6560.911	-1437.283	1	6716.498	-12.35645	1.424595E-008	0.0889819	7
	14	20	39890.62	6712.603	-1345.113	1	6846.047	-11.33121	2.811765E-008	0.0889014	7
	15	22	31640.63	6850.941	-1280.281	1	6969.542	-10.58515	1.405214E-008	0.0889593	7
	16	23	25171.88	6977.443	-1240.211	1	7086.807	-10.07882	5.628558E-008	0.0888798	7
	17	24	20015.62	7094.666	-1226.263	1	7199.861	-9.80628	5.570003E-008	0.0888829	7
	18	26	15890.62	7213.5	-1239.001	1	7319.132	-9.7461	-1.147024E-008	0.0889462	7
	19	27	12609.37	7333.75	-1278.641	1	7444.381	-9.89012	-4.352544E-009	0.0889895	7
	20	28	10078.13	7452.858	-1345.142	1	7573.276	-10.23098	-1.213984E-008	0.0889418	7
	21	30	8015.625	7584.772	-1439.603	1	7720.183	-10.747	-1.943474E-008	0.0889663	7
	22	31	6328.125	7730.255	-1569.901	1	7888.057	-11.47981	3.389875E-008	0.0888823	7
	23	33	5015.625	7887.324	-1729.7	1	8074.759	-12.36923	5.915767E-008	0.0888735	7
	24	34	3984.375	8054.912	-1922.583	1	8281.179	-13.42445	-1.337831E-008	0.0889447	7
	25	35	3170.956	8242.219	-2154.476	1	8519.151	-14.64906	-9.854238E-009	0.0889503	7
	26	37	2527.573	8447.436	-2428.201	1	8789.501	-16.03721	3.016418E-008	0.0889367	7
	27	38	1976.103	8687.358	-2772.512	1	9119.047	-17.70014	-2.31053E-009	0.0889661	6
	28	39	1577.524	8924.553	-3163.499	1	9468.651	-19.51796	-2.425545E-009	0.0889653	6
	29	41	1265.625	9172.058	-3613.938	1	9858.36	-21.50524	1.492924E-009	0.0889439	6
	30	42	998.264	9459.979	-4198.317	1	10349.74	-23.93154	7.673679E-009	0.0887906	6
	31	44	796.875	9756.34	-4877.938	1	10907.81	-26.56397	-1.33179E-009	0.088995	6
	32	45	627.7902	10104.62	-5754.254	1	11628.19	-29.6601	-3.66404E-009	0.088985	6
	33	46	505.5147	10452.63	-6729.191	1	12431.39	-32.77261	-4.481394E-009	0.0889598	6
	34	48	397.9953	10880.68	-8045.548	1	13532.19	-36.4805	7.529781E-010	0.0889479	6
	35	49	315.5048	11368.7	-9618.55	1	14891.74	-40.23306	5.846063E-010	0.0889464	6
	36	50	252.4038	11915.52	-11464.51	1	16535.25	-43.89489	6.473889E-010	0.0889398	6
	37	52	198.6229	12617.82	-13891.84	1	18766.8	-47.75145	8.55225E-010	0.0889485	6
	38	53	158.3615	13424.26	-16698.26	1	21425.29	-51.20309	1.109917E-009	0.0889518	6
	39	54	125.558	14433.16	-20192.34	1	24820.28	-54.44342	1.179425E-009	0.0889448	6
	40	56	100.4464	15616.24	-24272.57	1	28862.17	-57.244	1.279137E-009	0.0889432	6
	41	57	79.00281	17240.08	-29595.52	1	34250.77	-59.7782	5.371484E-010	0.0889485	6
	42	59	63.3446	18988.17	-35638.41	1	40381.27	-61.95127	1.157648E-009	0.0889437	6
	43	60	49.86702	21388.1	-42957.16	1	47987.17	-63.53158	4.409142E-010	0.0889483	6
	44	61	39.72458	24288.3	-51843.38	1	57250.83	-64.8972	6.364496E-010	0.0889485	6
	45	63	31.6723	27737.37	-62485.61	1	68365.29	-66.06356	4.555921E-010	0.0889453	6
	46	64	24.93351	32209.67	-75803.66	1	82362.97	-66.97892	7.993132E-010	0.088946	6
	47	66	19.86229	37651.29	-91336.87	1	98792.9	-67.59735	7.687296E-010	0.0889431	6
	48	67	15.83615	44993.25	-109693.6	1	118562.5	-67.69793	1.028604E-009	0.0889384	5
	49	68	12.40079	54094.94	-133559.5	1	144098.5	-67.95081	4.764729E-010	0.0889417	5
	50	70	9.93114	65036.46	-159227.8	1	171997.8	-67.78248	2.312824E-010	0.0889394	5
	51	71	7.944915	79516.19	-189416.2	1	205429.6	-67.22752	3.39126E-010	0.08894	5
	52	73	6.317385	98564.4	-224794	1	245453.2	-66.3242	5.468476E-010	0.0889443	5
	53	75	5.008013	122888.8	-266127.2	1	293130.3	-65.21407	3.765258E-010	0.0889494	5
	54	78	3.945707	153651.6	-313952.9	1	349535.7	-63.92242	3.19772E-011	0.0889411	5
	55	80	3.158693	188227.8	-363581.1	1	409415.3	-62.62916	2.342352E-010	0.0889646	5
	56	84	2.504006	230758	-420902.9	1	480008.9	-61.26646	6.217472E-011	0.0889348	5
	57	86	1.998082	277826.7	-482348.9	1	556640	-60.05862	-1.067658E-010	0.0889572	5
	58	89	1.584686	334389.4	-553995.6	1	647091.4	-58.88499	2.180164E-010	0.0889897	5
	59	93	1.266892	394367	-628834.8	1	742265.8	-57.90656	-2.633094E-011	0.0889767	5
	60	97	0.999041	465803.7	-721086.8	1	858451.6	-57.13857	2.665851E-010	0.0889279	5
