EXPLAIN
TAG	EISPOT
TITLE	LABEL	Potentiostatic EIS	Test &Identifier
DATE	LABEL	2/11/2020	Date
TIME	LABEL	12:15:09	Time
NOTES	NOTES	6	&Notes...
	
	
	
	
	
	
PSTAT	PSTAT	REF600-11020	Potentiostat
VDC	POTEN	0.00000E+000	T	DC &Voltage (V)
FREQINIT	QUANT	1.00000E+006	Initial Fre&q. (Hz)
FREQFINAL	QUANT	1.00000E+000	Final Fre&q. (Hz)
PTSPERDEC	QUANT	1.00000E+001	Points/&decade
VAC	QUANT	2.50000E+001	AC &Voltage (mV rms)
AREA	QUANT	4.00000E-005	&Area (cm^2)
CONDIT	TWOPARAM	F	5.00000E+000	0.00000E+000	Conditionin&g	Time(s)	E(V)
DELAY	TWOPARAM	F	5.00000E+000	0.00000E+000	Init. De&lay	Time(s)	Stab.(mV/s)
SPEED	SELECTOR	0	&Optimize for:
ZGUESS	QUANT	1.00000E+003	E&stimated Z (ohms)
OCVCURVE	TABLE	39
	Pt	T	Vf	Vm	Ach	Over
	#	s	V vs. Ref.	V	V	bits
	0	0.258333	3.20248E-003	3.20248E-003	5.53471E-004	...........
	1	0.516667	3.20434E-003	3.29949E-003	5.53338E-004	...........
	2	0.775	3.21483E-003	3.34496E-003	5.54971E-004	...........
	3	1.03333	3.24074E-003	3.34601E-003	5.55138E-004	...........
	4	1.29167	3.27882E-003	3.39785E-003	5.54271E-004	...........
	5	1.55	3.31928E-003	3.43822E-003	5.47338E-004	...........
	6	1.80833	3.35732E-003	3.45525E-003	5.54005E-004	...........
	7	2.06667	3.39285E-003	3.48209E-003	5.55504E-004	...........
	8	2.325	3.42475E-003	3.48119E-003	5.53005E-004	...........
	9	2.58333	3.45077E-003	3.49459E-003	5.56438E-004	...........
	10	2.84167	3.46983E-003	3.50072E-003	5.58038E-004	...........
	11	3.1	3.48309E-003	3.51188E-003	5.50538E-004	...........
	12	3.35833	3.49320E-003	3.52607E-003	5.49505E-004	...........
	13	3.61667	3.50262E-003	3.53393E-003	5.47071E-004	...........
	14	3.875	3.51239E-003	3.53383E-003	5.46638E-004	...........
	15	4.13333	3.52168E-003	3.53968E-003	5.46538E-004	...........
	16	4.39167	3.52933E-003	3.55004E-003	5.44471E-004	...........
	17	4.65	3.53569E-003	3.55966E-003	5.50305E-004	...........
	18	4.90833	3.54228E-003	3.57014E-003	5.51905E-004	...........
	19	5.16667	3.55013E-003	3.57997E-003	5.47005E-004	...........
	20	5.425	3.55926E-003	3.59200E-003	5.46071E-004	...........
	21	5.68333	3.56923E-003	3.60029E-003	5.45905E-004	...........
	22	5.94167	3.57968E-003	3.61684E-003	5.48771E-004	...........
	23	6.2	3.59068E-003	3.63121E-003	5.50671E-004	...........
	24	6.45833	3.60293E-003	3.65999E-003	5.49671E-004	...........
	25	6.71667	3.61635E-003	3.61225E-003	5.50571E-004	...........
	26	6.975	3.62717E-003	3.61400E-003	5.50238E-004	...........
	27	7.23333	3.63040E-003	3.61624E-003	5.49138E-004	...........
	28	7.49167	3.62653E-003	3.61394E-003	5.49271E-004	...........
	29	7.75	3.62090E-003	3.62323E-003	5.45771E-004	...........
	30	8.00833	3.61772E-003	3.62389E-003	5.48805E-004	...........
	31	8.26667	3.61772E-003	3.61809E-003	5.46338E-004	...........
	32	8.525	3.61966E-003	3.64312E-003	5.48205E-004	...........
	33	8.78333	3.62304E-003	3.64513E-003	5.47038E-004	...........
	34	9.04167	3.62816E-003	3.62823E-003	5.51705E-004	...........
	35	9.3	3.63321E-003	3.63278E-003	5.52771E-004	...........
	36	9.5583	3.63549E-003	3.63263E-003	5.53338E-004	...........
	37	9.8167	3.63503E-003	3.63414E-003	5.49038E-004	...........
	38	10.075	3.63423E-003	3.65172E-003	5.50938E-004	...........
EOC	QUANT	0.0036342	Open Circuit (V)
PSTATMODEL	IQUANT	4	Pstat Model
PSTATSECTION	LABEL	REF600-11020	Pstat Section
PSTATSERIALNO	LABEL	11020	Pstat Serial Number
CTRLMODE	IQUANT	1	Control Mode
IESTAB	IQUANT	0	I/E Stability
CASPEED	IQUANT	1	Control Amp Speed
CONVENTION	IQUANT	1	Current Convention
ICHRANGE	IQUANT	2	Ich Range
ICHRANGEMODE	TOGGLE	F	Ich Auto Range
ICHOFFSETENABLE	TOGGLE	T	Ich Offset Enable
ICHOFFSET	QUANT	0	Ich Offset (V)
ICHFILTER	IQUANT	3	Ich Filter
VCHRANGE	IQUANT	2	Vch Range
VCHRANGEMODE	TOGGLE	F	Vch Auto Range
VCHOFFSETENABLE	TOGGLE	T	Vch Offset Enable
VCHOFFSET	QUANT	0	Vch Offset (V)
VCHFILTER	IQUANT	3	Vch Filter
ACHRANGE	IQUANT	2	Ach Range
ACHOFFSETENABLE	TOGGLE	F	Ach Offset Enable
ACHOFFSET	QUANT	0	Ach Offset (V)
ACHFILTER	IQUANT	3	Ach Filter
IERANGELOWERLIMIT	IQUANT	1	I/E Range Lower Limit
IERANGEMODE	TOGGLE	F	I/E AutoRange
IERANGE	IQUANT	6	I/E Range
POSFEEDENABLE	TOGGLE	F	Positive Feedback IR Comp
POSFEEDRESISTANCE	QUANT	0	Positive Feedback Resistance (ohm)
ACHSELECT	IQUANT	0	Ach Select
CABLEID	IQUANT	14	Cable ID
DCCALDATE	LABEL	1/27/2020	DC Calibration Date
ACCALDATE	LABEL	1/27/2020	AC Calibration Date
THERMOSELECT	IQUANT	1	Thermo Select
FRAMEWORKVERSION	QUANT	6.33	Framework Version
INSTRUMENTVERSION	LABEL	3.50	Instrument Version
ZCURVE	TABLE
	Pt	Time	Freq	Zreal	Zimag	Zsig	Zmod	Zphz	Idc	Vdc	IERange
	#	s	Hz	ohm	ohm	V	ohm	°	A	V	#
	0	1	1000078	2093.36	-2101.259	1	2966.049	-45.10788	8.678786E-007	0.0056755	8
	1	2	794390.6	2535.381	-2213.817	1	3365.879	-41.12647	1.872801E-006	0.0053689	8
	2	2	630984.4	2993.736	-2272.979	1	3758.841	-37.2074	-3.81686E-007	0.0058406	8
	3	2	501234.4	3433.416	-2227.024	1	4092.429	-32.96874	-1.37394E-006	0.0056163	8
	4	3	398109.4	3888.215	-2093.724	1	4416.095	-28.30155	2.8041E-006	0.0048743	8
	5	3	316265.6	4223.645	-1911.966	1	4636.248	-24.35538	-4.912567E-006	0.0064194	8
	6	3	251203.1	4605.864	-1728.222	1	4919.424	-20.5672	-4.50565E-006	0.0064026	8
	7	4	199546.9	4833.557	-1551.314	1	5076.401	-17.79386	2.825844E-007	0.005352	8
	8	4	158578.1	4986.446	-1324.167	1	5159.27	-14.87184	4.031154E-006	0.0046207	8
	9	4	125953.1	5182.763	-1113.261	1	5300.979	-12.12296	1.374494E-006	0.0022091	7
	10	5	100078.1	5290.731	-965.031	1	5378.022	-10.33713	-1.552562E-009	0.0053546	7
	11	5	79453.13	5369.358	-849.6086	1	5436.161	-8.991524	-4.31676E-008	0.0053404	7
	12	5	63140.62	5437.524	-761.4913	1	5490.586	-7.972069	8.235888E-008	0.0051402	7
	13	5	50203.12	5496.588	-694.6112	1	5540.304	-7.202366	8.328242E-008	0.0051377	7
	14	6	39890.62	5550.39	-647.4913	1	5588.03	-6.653872	6.389229E-008	0.0052918	7
	15	6	31640.63	5600.521	-621.1367	1	5634.86	-6.328636	-3.002052E-008	0.0054158	7
	16	6	25171.88	5645.679	-612.7113	1	5678.83	-6.193925	-4.273005E-008	0.0053219	7
	17	7	20015.62	5691.565	-622.2309	1	5725.477	-6.239089	-2.080988E-008	0.005438	7
	18	7	15890.62	5738.179	-645.529	1	5774.375	-6.418628	3.13941E-008	0.0052695	7
	19	7	12609.37	5787.296	-691.6293	1	5828.478	-6.814993	-2.998925E-008	0.0054081	7
	20	8	10078.13	5830.844	-767.5182	1	5881.141	-7.498774	-4.236749E-008	0.0053123	7
	21	8	8015.625	5883.445	-836.6455	1	5942.634	-8.093389	2.501666E-008	0.0051925	7
	22	8	6328.125	5938.675	-954.119	1	6014.832	-9.12725	-4.420893E-008	0.0053161	7
	23	9	5015.625	5996.426	-1102.586	1	6096.952	-10.41882	8.060217E-008	0.0051441	7
	24	9	3984.375	6058.282	-1288.617	1	6193.813	-12.00805	-5.967134E-008	0.0053675	7
	25	9	3170.956	6129.596	-1516.458	1	6314.396	-13.89592	-1.814662E-008	0.0054298	7
	26	10	2527.573	6206.175	-1799.913	1	6461.912	-16.1732	3.301584E-008	0.0052572	7
	27	10	1976.103	6303.527	-2184.731	1	6671.395	-19.11573	-4.777798E-008	0.00533	7
	28	10	1577.524	6410.044	-2628.352	1	6927.979	-22.29541	-5.859353E-008	0.005404	7
	29	11	1265.625	6529.466	-3145.446	1	7247.604	-25.72156	-5.905156E-008	0.0054016	7
	30	11	998.264	6693.264	-3837.901	1	7715.521	-29.82986	2.695737E-008	0.0051875	7
	31	11	796.875	6878.034	-4652.351	1	8303.717	-34.0747	1.369953E-007	0.005089	7
	32	12	627.7902	7120.227	-5697.112	1	9118.921	-38.66438	1.380041E-007	0.0050945	7
	33	12	505.5147	7396.542	-6852.337	1	10082.83	-42.81277	3.252371E-009	0.0053091	6
	34	12	397.9953	7768.529	-8406.023	1	11446.02	-47.25705	1.309648E-009	0.0052994	6
	35	12	315.5048	8221.251	-10250.91	1	13140.4	-51.27032	2.919036E-010	0.0052928	6
	36	13	252.4038	8757.994	-12398.85	1	15180.05	-54.76432	3.3602E-010	0.0052957	6
	37	13	198.6229	9468.189	-15197.57	1	17905.66	-58.07681	1.018135E-009	0.0052975	6
	38	13	158.3615	10295.98	-18407.52	1	21091.33	-60.78018	4.625096E-010	0.0052894	6
	39	14	125.558	11345.79	-22398.1	1	25107.8	-63.13545	8.1913E-010	0.0052955	6
	40	14	100.4464	12554.63	-27080.06	1	29848.76	-65.12702	8.565357E-010	0.0052962	6
	41	14	79.00281	14123.46	-33118.65	1	36004.41	-66.90415	1.280738E-009	0.0052928	6
	42	15	63.3446	16461.96	-39711.45	1	42988.32	-67.48406	5.885125E-010	0.0052912	6
	43	15	49.86702	18907.11	-48829.21	1	52361.91	-68.83315	1.482064E-009	0.0052905	6
	44	15	39.72458	21610.54	-59130.99	1	62956.25	-69.92422	8.88434E-010	0.0052972	6
	45	16	31.6723	25446.41	-71618.63	1	76004.91	-70.43965	1.973525E-010	0.0053013	6
	46	16	24.93351	30447.49	-87433.86	1	92583.63	-70.80012	7.17772E-010	0.0052993	6
	47	16	19.86229	36717.34	-105591.7	1	111793.4	-70.82594	7.87812E-010	0.0052986	5
	48	17	15.83615	45261.88	-126462.7	1	134318.4	-70.30736	9.982504E-010	0.0052874	5
	49	17	12.40079	56618.88	-155389.1	1	165382.8	-69.97985	-4.116523E-012	0.005286	5
	50	17	9.93114	70343.94	-184354.6	1	197319.2	-69.11471	-4.102575E-010	0.005294	5
	51	18	7.944915	87869.48	-219118	1	236079.9	-68.1485	3.207671E-010	0.0052824	5
	52	19	6.317385	110491.2	-259971	1	282477	-66.97385	2.952539E-010	0.0052841	5
	53	19	5.008013	139898.8	-307201.9	1	337556.9	-65.51563	6.33334E-011	0.0052818	5
	54	20	3.945707	176725	-361887.9	1	402733.8	-63.97181	2.919755E-010	0.0052865	5
	55	22	3.158693	219957.6	-417671.3	1	472049.4	-62.22743	3.53377E-012	0.0052795	5
	56	23	2.504006	272486	-481512.4	1	553265.6	-60.49465	-3.781454E-011	0.0052632	5
	57	25	1.998082	332768.9	-548071.7	1	641184.6	-58.73542	1.951207E-010	0.0053091	5
	58	26	1.584686	401455.4	-622875.2	1	741039.8	-57.19742	1.665774E-010	0.0052957	5
	59	28	1.266892	477919.2	-699053.1	1	846807	-55.64089	9.364962E-011	0.0052529	5
	60	31	0.999041	569229.6	-788809.1	1	972750	-54.18459	4.891014E-011	0.0052397	5
