EXPLAIN
TAG	EISPOT
TITLE	LABEL	Potentiostatic EIS	Test &Identifier
DATE	LABEL	7/30/2020	Date
TIME	LABEL	22:53:03	Time
NOTES	NOTES	1	&Notes...
	
PSTAT	PSTAT	REF600-11020	Potentiostat
VDC	POTEN	0.00000E+000	T	DC &Voltage (V)
FREQINIT	QUANT	1.00000E+006	Initial Fre&q. (Hz)
FREQFINAL	QUANT	1.00000E+000	Final Fre&q. (Hz)
PTSPERDEC	QUANT	1.00000E+001	Points/&decade
VAC	QUANT	2.50000E+001	AC &Voltage (mV rms)
AREA	QUANT	4.00000E-005	&Area (cm^2)
CONDIT	TWOPARAM	F	5.00000E+000	0.00000E+000	Conditionin&g	Time(s)	E(V)
DELAY	TWOPARAM	F	3.00000E+000	0.00000E+000	Init. De&lay	Time(s)	Stab.(mV/s)
SPEED	SELECTOR	0	&Optimize for:
ZGUESS	QUANT	1.00000E+003	E&stimated Z (ohms)
OCVCURVE	TABLE	39
	Pt	T	Vf	Vm	Ach	Over
	#	s	V vs. Ref.	V	V	bits
	0	0.258333	-6.38178E-002	-6.38178E-002	5.26150E-004	...........
	1	0.516667	-6.38175E-002	-6.38039E-002	5.33850E-004	...........
	2	0.775	-6.38160E-002	-6.37952E-002	5.31383E-004	...........
	3	1.03333	-6.38118E-002	-6.37814E-002	5.33483E-004	...........
	4	1.29167	-6.38044E-002	-6.37702E-002	5.36683E-004	...........
	5	1.55	-6.37945E-002	-6.37548E-002	5.34250E-004	...........
	6	1.80833	-6.37828E-002	-6.37449E-002	5.23717E-004	...........
	7	2.06667	-6.37702E-002	-6.37285E-002	5.29617E-004	...........
	8	2.325	-6.37572E-002	-6.37121E-002	5.27483E-004	...........
	9	2.58333	-6.37435E-002	-6.36971E-002	5.27217E-004	...........
	10	2.84167	-6.37290E-002	-6.36849E-002	5.25783E-004	...........
	11	3.1	-6.37143E-002	-6.36737E-002	5.26517E-004	...........
	12	3.35833	-6.37000E-002	-6.36609E-002	5.37316E-004	...........
	13	3.61667	-6.36867E-002	-6.36514E-002	5.27250E-004	...........
	14	3.875	-6.36744E-002	-6.36389E-002	5.35483E-004	...........
	15	4.13333	-6.36626E-002	-6.36245E-002	5.34716E-004	...........
	16	4.39167	-6.36509E-002	-6.36116E-002	5.36383E-004	...........
	17	4.65	-6.36387E-002	-6.35991E-002	5.38783E-004	...........
	18	4.90833	-6.36260E-002	-6.35895E-002	5.36683E-004	...........
	19	5.16667	-6.36134E-002	-6.35763E-002	5.34250E-004	...........
	20	5.425	-6.36011E-002	-6.35630E-002	5.34416E-004	...........
	21	5.68333	-6.35890E-002	-6.35478E-002	5.35950E-004	...........
	22	5.94167	-6.35765E-002	-6.35363E-002	5.32117E-004	...........
	23	6.2	-6.35635E-002	-6.35284E-002	5.35450E-004	...........
	24	6.45833	-6.35508E-002	-6.35132E-002	5.33783E-004	...........
	25	6.71667	-6.35386E-002	-6.35021E-002	5.36583E-004	...........
	26	6.975	-6.35268E-002	-6.34904E-002	5.34917E-004	...........
	27	7.23333	-6.35150E-002	-6.34764E-002	5.35983E-004	...........
	28	7.49167	-6.35028E-002	-6.34613E-002	5.31117E-004	...........
	29	7.75	-6.34902E-002	-6.34518E-002	5.32483E-004	...........
	30	8.00833	-6.34773E-002	-6.34388E-002	5.28983E-004	...........
	31	8.26667	-6.34645E-002	-6.34291E-002	5.33583E-004	...........
	32	8.525	-6.34523E-002	-6.34175E-002	5.35350E-004	...........
	33	8.78333	-6.34407E-002	-6.34082E-002	5.33483E-004	...........
	34	9.04167	-6.34297E-002	-6.33990E-002	5.29650E-004	...........
	35	9.3	-6.34191E-002	-6.33856E-002	5.32950E-004	...........
	36	9.5583	-6.34088E-002	-6.33784E-002	5.34650E-004	...........
	37	9.8167	-6.33986E-002	-6.33694E-002	5.38350E-004	...........
	38	10.075	-6.33885E-002	-6.33570E-002	5.28950E-004	...........
EOC	QUANT	-0.0633885	Open Circuit (V)
PSTATMODEL	IQUANT	4	Pstat Model
PSTATSECTION	LABEL	REF600-11020	Pstat Section
PSTATSERIALNO	LABEL	11020	Pstat Serial Number
CTRLMODE	IQUANT	1	Control Mode
IESTAB	IQUANT	0	I/E Stability
CASPEED	IQUANT	1	Control Amp Speed
CONVENTION	IQUANT	1	Current Convention
ICHRANGE	IQUANT	2	Ich Range
ICHRANGEMODE	TOGGLE	F	Ich Auto Range
ICHOFFSETENABLE	TOGGLE	T	Ich Offset Enable
ICHOFFSET	QUANT	0	Ich Offset (V)
ICHFILTER	IQUANT	3	Ich Filter
VCHRANGE	IQUANT	2	Vch Range
VCHRANGEMODE	TOGGLE	F	Vch Auto Range
VCHOFFSETENABLE	TOGGLE	T	Vch Offset Enable
VCHOFFSET	QUANT	0	Vch Offset (V)
VCHFILTER	IQUANT	3	Vch Filter
ACHRANGE	IQUANT	2	Ach Range
ACHOFFSETENABLE	TOGGLE	F	Ach Offset Enable
ACHOFFSET	QUANT	0	Ach Offset (V)
ACHFILTER	IQUANT	3	Ach Filter
IERANGELOWERLIMIT	IQUANT	1	I/E Range Lower Limit
IERANGEMODE	TOGGLE	F	I/E AutoRange
IERANGE	IQUANT	8	I/E Range
POSFEEDENABLE	TOGGLE	F	Positive Feedback IR Comp
POSFEEDRESISTANCE	QUANT	0	Positive Feedback Resistance (ohm)
ACHSELECT	IQUANT	0	Ach Select
CABLEID	IQUANT	14	Cable ID
DCCALDATE	LABEL	6/26/2020	DC Calibration Date
ACCALDATE	LABEL	6/26/2020	AC Calibration Date
THERMOSELECT	IQUANT	1	Thermo Select
FRAMEWORKVERSION	QUANT	6.33	Framework Version
INSTRUMENTVERSION	LABEL	3.50	Instrument Version
ZCURVE	TABLE
	Pt	Time	Freq	Zreal	Zimag	Zsig	Zmod	Zphz	Idc	Vdc	IERange
	#	s	Hz	ohm	ohm	V	ohm	°	A	V	#
	0	1	1000078	1623.164	-1680.046	1	2336.069	-45.98655	5.67967E-008	-0.0613406	8
	1	1	794390.6	1956.926	-1782.008	1	2646.717	-42.3215	4.0761E-008	-0.0616138	8
	2	2	630984.4	2314.662	-1833.771	1	2953.029	-38.38772	2.28847E-008	-0.0617396	8
	3	2	501234.4	2683.695	-1829.765	1	3248.116	-34.28648	-3.265509E-008	-0.0617596	8
	4	2	398109.4	3037.46	-1777.565	1	3519.36	-30.33678	4.283346E-008	-0.0618377	8
	5	3	316265.6	3362.162	-1676.314	1	3756.882	-26.50002	2.278347E-008	-0.0618665	8
	6	3	251203.1	3648.146	-1544.962	1	3961.802	-22.95228	2.236925E-008	-0.0618712	8
	7	3	199546.9	3886.347	-1394.419	1	4128.934	-19.73795	3.19497E-008	-0.0618691	8
	8	4	158578.1	4079.966	-1243.409	1	4265.23	-16.9491	5.288332E-008	-0.0618538	8
	9	4	125953.1	4257.837	-1075.388	1	4391.542	-14.17457	-9.590678E-011	-0.0618552	7
	10	4	100078.1	4387.502	-950.951	1	4489.375	-12.22919	7.040521E-010	-0.0618829	7
	11	5	79453.13	4483.675	-847.157	1	4563.005	-10.69948	-8.562789E-012	-0.0618992	7
	12	5	63140.62	4561.383	-762.8253	1	4624.729	-9.494033	4.696011E-010	-0.061898	7
	13	5	50203.12	4626.57	-698.5969	1	4679.016	-8.586609	-1.391548E-009	-0.0619019	7
	14	6	39890.62	4683.821	-653.0344	1	4729.126	-7.937208	3.961489E-010	-0.0618981	7
	15	6	31640.63	4737.23	-626.2436	1	4778.445	-7.530616	-2.757826E-010	-0.0619001	7
	16	6	25171.88	4786.464	-616.4356	1	4825.995	-7.338572	7.884057E-010	-0.0618986	7
	17	6	20015.62	4834.647	-623.7414	1	4874.717	-7.3514	-2.086107E-010	-0.0619094	7
	18	7	15890.62	4883.916	-647.9327	1	4926.708	-7.557108	7.884191E-010	-0.0619022	7
	19	7	12609.37	4935.617	-690.1689	1	4983.638	-7.960302	-3.514436E-011	-0.0619126	7
	20	7	10078.13	4986.774	-748.0643	1	5042.57	-8.531307	-6.664744E-010	-0.0619061	7
	21	8	8015.625	5042.64	-828.9312	1	5110.318	-9.335043	9.040277E-010	-0.061906	7
	22	8	6328.125	5104.291	-937.1039	1	5189.6	-10.40316	4.19609E-010	-0.0619131	7
	23	8	5015.625	5168.907	-1073.051	1	5279.113	-11.72786	1.630715E-009	-0.0619057	7
	24	9	3984.375	5237.884	-1241.525	1	5383.012	-13.33461	5.164971E-010	-0.0619121	7
	25	9	3170.956	5313.206	-1450.681	1	5507.688	-15.27143	1.235355E-009	-0.06191	7
	26	9	2527.573	5397.247	-1707.965	1	5661.044	-17.56004	3.164656E-010	-0.0619162	7
	27	10	1976.103	5500.708	-2056.771	1	5872.657	-20.50128	2.735728E-011	-0.061916	7
	28	10	1577.524	5610.498	-2451.334	1	6122.641	-23.60143	7.149658E-010	-0.0619162	7
	29	10	1265.625	5733.726	-2921.361	1	6435.058	-26.99906	-5.441852E-010	-0.0619223	7
	30	11	998.264	5896.645	-3543.715	1	6879.559	-31.00467	5.413719E-010	-0.0619223	7
	31	11	796.875	6080.292	-4267.346	1	7428.336	-35.06242	4.898794E-010	-0.0619185	7
	32	11	627.7902	6314.849	-5204.324	1	8183.05	-39.49332	1.840517E-009	-0.0619193	7
	33	12	505.5147	6579.12	-6248.043	1	9073.194	-43.52149	1.389052E-009	-0.0619206	7
	34	12	397.9953	6940.727	-7632.695	1	10316.58	-47.71845	3.916385E-010	-0.0618957	6
	35	12	315.5048	7372.314	-9280.599	1	11852.45	-51.53711	3.996425E-010	-0.0618973	6
	36	12	252.4038	7882.983	-11197.75	1	13694.2	-54.85526	3.374141E-010	-0.0618998	6
	37	13	198.6229	8560.335	-13696.42	1	16151.5	-57.99439	2.559518E-010	-0.0619018	6
	38	13	158.3615	9354.239	-16565.33	1	19023.98	-60.54712	1.972183E-010	-0.0619001	6
	39	13	125.558	10363.54	-20124.3	1	22636.04	-62.75261	2.289016E-010	-0.0619052	6
	40	14	100.4464	11566.2	-24255.05	1	26871.63	-64.50552	9.880283E-011	-0.0619056	6
	41	14	79.00281	13193.8	-29637.09	1	32441.23	-66.0024	1.861301E-010	-0.0619046	6
	42	14	63.3446	15080.52	-35606.73	1	38668.61	-67.04588	7.522843E-011	-0.0619099	6
	43	15	49.86702	17659.16	-43381.19	1	46837.74	-67.85026	1.678918E-010	-0.0619145	6
	44	15	39.72458	20762.31	-52252.96	1	56226.73	-68.32999	2.983654E-010	-0.0619112	6
	45	16	31.6723	24653.33	-62770.97	1	67438.73	-68.55756	4.849963E-010	-0.0619119	6
	46	16	24.93351	29878.27	-76032.03	1	81691.99	-68.54668	-2.70361E-010	-0.0619128	6
	47	16	19.86229	36084.96	-90941.3	1	97838.9	-68.35712	-7.224036E-010	-0.0619172	6
	48	16	15.83615	43888.09	-108392.7	1	116940.7	-67.95702	4.83907E-010	-0.0619189	5
	49	17	12.40079	54524.68	-130581.3	1	141507.7	-67.33685	-3.17556E-010	-0.0619197	5
	50	17	9.93114	66491.23	-154132.9	1	167863.2	-66.66517	-2.233868E-010	-0.0619243	5
	51	17	7.944915	81314.21	-181188.8	1	198598.6	-65.83033	7.720246E-010	-0.0619201	5
	52	18	6.317385	100123.2	-213666	1	235961.4	-64.89236	-2.731E-010	-0.0619031	5
	53	19	5.008013	123632.5	-251275.8	1	280043.8	-63.80194	-3.388467E-010	-0.0619128	5
	54	19	3.945707	153062.8	-294485.7	1	331888.6	-62.53625	1.578731E-010	-0.0619117	5
	55	20	3.158693	186622.8	-340392.8	1	388194.9	-61.26593	-2.114319E-010	-0.0619122	5
	56	21	2.504006	227508.1	-393031.4	1	454129.5	-59.93539	-1.388005E-010	-0.0619223	5
	57	23	1.998082	274718.9	-449266.2	1	526602.9	-58.55489	1.12286E-010	-0.0618806	5
	58	24	1.584686	328989.9	-513107.6	1	609519.3	-57.33317	5.883674E-011	-0.0619032	5
	59	26	1.266892	390484.6	-579783.8	1	699018.9	-56.03972	5.616822E-013	-0.0619428	5
	60	29	0.999041	465125.3	-659217.5	1	806789.5	-54.79428	-4.975511E-011	-0.0619576	5
