EXPLAIN
TAG	EISPOT
TITLE	LABEL	Potentiostatic EIS	Test &Identifier
DATE	LABEL	3/20/2020	Date
TIME	LABEL	14:27:23	Time
NOTES	NOTES	1	&Notes...
	
PSTAT	PSTAT	REF600-11020	Potentiostat
VDC	POTEN	0.00000E+000	T	DC &Voltage (V)
FREQINIT	QUANT	1.00000E+006	Initial Fre&q. (Hz)
FREQFINAL	QUANT	1.00000E+000	Final Fre&q. (Hz)
PTSPERDEC	QUANT	1.00000E+001	Points/&decade
VAC	QUANT	2.50000E+001	AC &Voltage (mV rms)
AREA	QUANT	4.00000E-004	&Area (cm^2)
CONDIT	TWOPARAM	F	5.00000E+000	0.00000E+000	Conditionin&g	Time(s)	E(V)
DELAY	TWOPARAM	T	3.00000E+000	0.00000E+000	Init. De&lay	Time(s)	Stab.(mV/s)
SPEED	SELECTOR	0	&Optimize for:
ZGUESS	QUANT	1.00000E+003	E&stimated Z (ohms)
OCVCURVE	TABLE	12
	Pt	T	Vf	Vm	Ach	Over
	#	s	V vs. Ref.	V	V	bits
	0	0.258333	2.80989E-002	2.80989E-002	5.55564E-004	...........
	1	0.516667	2.81038E-002	2.83561E-002	5.58564E-004	...........
	2	0.775	2.81336E-002	2.85784E-002	5.60230E-004	...........
	3	1.03333	2.82160E-002	2.87715E-002	5.60197E-004	...........
	4	1.29167	2.83589E-002	2.89414E-002	5.56130E-004	...........
	5	1.55	2.85410E-002	2.91187E-002	5.59197E-004	...........
	6	1.80833	2.87338E-002	2.92794E-002	5.56397E-004	...........
	7	2.06667	2.89205E-002	2.94333E-002	5.57597E-004	...........
	8	2.325	2.90959E-002	2.95731E-002	5.55897E-004	...........
	9	2.58333	2.92602E-002	2.97271E-002	5.60730E-004	...........
	10	2.84167	2.94155E-002	2.98590E-002	5.58997E-004	...........
	11	3.1	2.95634E-002	2.99520E-002	5.56464E-004	...........
EOC	QUANT	0.0295634	Open Circuit (V)
PSTATMODEL	IQUANT	4	Pstat Model
PSTATSECTION	LABEL	REF600-11020	Pstat Section
PSTATSERIALNO	LABEL	11020	Pstat Serial Number
CTRLMODE	IQUANT	1	Control Mode
IESTAB	IQUANT	0	I/E Stability
CASPEED	IQUANT	1	Control Amp Speed
CONVENTION	IQUANT	1	Current Convention
ICHRANGE	IQUANT	2	Ich Range
ICHRANGEMODE	TOGGLE	F	Ich Auto Range
ICHOFFSETENABLE	TOGGLE	T	Ich Offset Enable
ICHOFFSET	QUANT	0	Ich Offset (V)
ICHFILTER	IQUANT	3	Ich Filter
VCHRANGE	IQUANT	2	Vch Range
VCHRANGEMODE	TOGGLE	F	Vch Auto Range
VCHOFFSETENABLE	TOGGLE	T	Vch Offset Enable
VCHOFFSET	QUANT	0	Vch Offset (V)
VCHFILTER	IQUANT	3	Vch Filter
ACHRANGE	IQUANT	2	Ach Range
ACHOFFSETENABLE	TOGGLE	F	Ach Offset Enable
ACHOFFSET	QUANT	0	Ach Offset (V)
ACHFILTER	IQUANT	3	Ach Filter
IERANGELOWERLIMIT	IQUANT	1	I/E Range Lower Limit
IERANGEMODE	TOGGLE	F	I/E AutoRange
IERANGE	IQUANT	7	I/E Range
POSFEEDENABLE	TOGGLE	F	Positive Feedback IR Comp
POSFEEDRESISTANCE	QUANT	0	Positive Feedback Resistance (ohm)
ACHSELECT	IQUANT	0	Ach Select
CABLEID	IQUANT	14	Cable ID
DCCALDATE	LABEL	2/27/2020	DC Calibration Date
ACCALDATE	LABEL	2/27/2020	AC Calibration Date
THERMOSELECT	IQUANT	1	Thermo Select
FRAMEWORKVERSION	QUANT	6.33	Framework Version
INSTRUMENTVERSION	LABEL	3.50	Instrument Version
ZCURVE	TABLE
	Pt	Time	Freq	Zreal	Zimag	Zsig	Zmod	Zphz	Idc	Vdc	IERange
	#	s	Hz	ohm	ohm	V	ohm	°	A	V	#
	0	1	1000078	2020.091	-6096.384	1	6422.357	-71.66693	-7.052428E-007	0.0317516	8
	1	1	794390.6	2638.703	-7366.814	1	7825.132	-70.2931	-1.775015E-008	0.0315152	8
	2	1	630984.4	3500.272	-8832.458	1	9500.75	-68.38175	2.208015E-007	0.0312676	8
	3	2	501234.4	4657.622	-10465.94	1	11455.54	-66.00966	-2.420264E-007	0.0312087	8
	4	2	398109.4	6163.51	-12245.09	1	13708.8	-63.28181	-3.428709E-008	0.0311705	8
	5	2	316265.6	8144.376	-14090.79	1	16275.17	-59.97239	-5.755442E-009	0.0311199	8
	6	3	251203.1	10563.89	-15939.06	1	19121.96	-56.46489	2.123454E-007	0.0310943	8
	7	3	199546.9	13406.38	-17650.91	1	22164.97	-52.78227	-1.104682E-007	0.0311743	8
	8	3	158578.1	16776.23	-19074.88	1	25402.62	-48.66858	4.931394E-007	0.0310539	8
	9	4	125953.1	20717.04	-19861.77	1	28699.92	-43.79256	1.84437E-008	0.031003	7
	10	4	100078.1	24297.02	-20306.38	1	31665.35	-39.8874	4.426501E-009	0.0310451	7
	11	4	79453.13	28016.58	-20541.11	1	34739.98	-36.24801	-3.077396E-010	0.0310428	7
	12	5	63140.62	31602.5	-20395.68	1	37612.52	-32.83747	-4.666678E-010	0.0310534	7
	13	5	50203.12	35064.96	-19999.83	1	40367.62	-29.69893	2.713921E-009	0.0310431	7
	14	5	39890.62	38268.83	-19409.29	1	42909.48	-26.89333	1.052131E-009	0.0310559	7
	15	6	31640.63	41302.73	-18702.44	1	45339.8	-24.36167	1.257339E-008	0.0310354	7
	16	6	25171.88	44047.16	-17928.87	1	47556.25	-22.14819	7.928381E-009	0.0310238	7
	17	6	20015.62	46601.71	-17200.96	1	49674.86	-20.25939	2.528581E-009	0.0310464	7
	18	6	15890.62	48986.59	-16482.97	1	51685.34	-18.59702	3.323442E-010	0.0310303	7
	19	7	12609.37	51564.6	-15211.55	1	53761.5	-16.43605	1.151791E-009	0.0310911	6
	20	7	10078.13	53525.67	-14753.37	1	55521.7	-15.40989	3.559124E-010	0.0310811	6
	21	7	8015.625	55441.44	-14396.73	1	57280.18	-14.55675	-5.648315E-010	0.0311023	6
	22	8	6328.125	57321.02	-14114.25	1	59033.14	-13.83286	4.110758E-010	0.0310996	6
	23	8	5015.625	59083.76	-13944.92	1	60707.1	-13.2799	1.554413E-009	0.0310546	6
	24	8	3984.375	60830.24	-13922.64	1	62403.19	-12.89164	3.936036E-011	0.0310806	6
	25	9	3170.956	62473.23	-14025.67	1	64028.3	-12.65349	1.613249E-009	0.0310578	6
	26	9	2527.573	64099.2	-14287.84	1	65672.29	-12.56592	1.395924E-009	0.0310779	6
	27	9	1976.103	65851.99	-14770.29	1	67488.12	-12.64194	2.03205E-009	0.0310592	6
	28	10	1577.524	67473.28	-15417.75	1	69212.36	-12.8712	1.787403E-011	0.0310766	6
	29	10	1265.625	69035.59	-16292.89	1	70932.16	-13.27923	8.949222E-010	0.0310884	6
	30	10	998.264	70804.74	-17507	1	72937	-13.88825	-1.01295E-009	0.031094	6
	31	11	796.875	72506.44	-18978.62	1	74949.13	-14.66814	-3.689956E-011	0.031094	6
	32	11	627.7902	74411.78	-20983.96	1	77313.91	-15.74834	-7.315999E-011	0.0310738	6
	33	11	505.5147	76229.98	-23214.66	1	79686.45	-16.93731	8.412139E-010	0.0310912	6
	34	12	397.9953	78398.34	-26270.75	1	82682.84	-18.52565	4.360181E-010	0.0310954	6
	35	12	315.5048	80687.38	-29917.85	1	86055.4	-20.34413	4.407122E-010	0.0310952	6
	36	12	252.4038	83127.02	-34191.34	1	89884.09	-22.35807	3.912998E-010	0.0310891	6
	37	13	198.6229	86138.03	-39488.99	1	94758.33	-24.62855	-4.131451E-011	0.0310946	5
	38	13	158.3615	89290.63	-45946.66	1	100418.7	-27.22919	-1.304423E-010	0.0310934	5
	39	13	125.558	93021.85	-53922.25	1	107520.6	-30.09971	-1.352811E-010	0.0310957	5
	40	14	100.4464	97223.1	-63103.97	1	115907	-32.98614	-1.316049E-010	0.031094	5
	41	14	79.00281	102611.6	-74982.88	1	127088.8	-36.15726	-1.178966E-010	0.0310913	5
	42	14	63.3446	108326.8	-88099.09	1	139628.6	-39.12047	-1.709911E-010	0.0310904	5
	43	15	49.86702	116076.3	-104888.8	1	156446	-42.10156	-1.936831E-011	0.0310868	5
	44	15	39.72458	125047.5	-123975.5	1	176087.5	-44.75336	2.395372E-011	0.0310931	5
	45	15	31.6723	135846	-146367.8	1	199693.9	-47.13518	3.948998E-011	0.0310892	5
	46	16	24.93351	149735.6	-174147.7	1	229669.7	-49.31042	-9.301904E-011	0.0310865	5
	47	16	19.86229	165950.7	-205154.6	1	263871.3	-51.03041	-1.323537E-011	0.0310875	5
	48	16	15.83615	185566.5	-241295.2	1	304398.2	-52.43815	-2.191798E-010	0.031087	5
	49	16	12.40079	211453.7	-285732.4	1	355465.5	-53.49704	-5.755992E-010	0.0310883	5
	50	17	9.93114	239087.5	-332445.7	1	409491.1	-54.27716	-5.233317E-010	0.031085	5
	51	17	7.944915	272849.9	-385980.6	1	472681.8	-54.74348	1.258329E-010	0.0310845	5
	52	18	6.317385	313472.9	-449330.7	1	547871.6	-55.09868	-7.42749E-011	0.0310835	5
	53	18	5.008013	361901.8	-522171	1	635323.1	-55.27527	-1.821818E-010	0.0310801	5
	54	19	3.945707	421308.5	-607135.8	1	738995.8	-55.24213	-1.100734E-010	0.0310888	5
	55	20	3.158693	483418.2	-698179.4	1	849204.1	-55.30134	-1.268519E-010	0.031066	5
	56	21	2.504006	560319.1	-804818.6	1	980658	-55.15416	2.136303E-011	0.0310746	5
	57	22	1.998082	644354.1	-924225.8	1	1126670	-55.11646	-1.522585E-011	0.0310842	4
	58	24	1.584686	746691.4	-1062212	1	1298400	-54.89436	-8.293975E-011	0.0310347	4
	59	26	1.266892	857710.5	-1219642	1	1491038	-54.88328	-7.671407E-011	0.0310314	4
	60	28	0.999041	991029	-1409295	1	1722861	-54.88477	-7.15159E-011	0.0310478	4
