EXPLAIN
TAG	EISPOT
TITLE	LABEL	Potentiostatic EIS	Test &Identifier
DATE	LABEL	2/25/2020	Date
TIME	LABEL	16:13:23	Time
NOTES	NOTES	1	&Notes...
	
PSTAT	PSTAT	REF600-11020	Potentiostat
VDC	POTEN	0.00000E+000	T	DC &Voltage (V)
FREQINIT	QUANT	1.00000E+006	Initial Fre&q. (Hz)
FREQFINAL	QUANT	1.00000E+000	Final Fre&q. (Hz)
PTSPERDEC	QUANT	1.00000E+001	Points/&decade
VAC	QUANT	2.50000E+001	AC &Voltage (mV rms)
AREA	QUANT	1.60000E-004	&Area (cm^2)
CONDIT	TWOPARAM	F	1.50000E+001	0.00000E+000	Conditionin&g	Time(s)	E(V)
DELAY	TWOPARAM	F	1.00000E+002	0.00000E+000	Init. De&lay	Time(s)	Stab.(mV/s)
SPEED	SELECTOR	1	&Optimize for:
ZGUESS	QUANT	1.00000E+003	E&stimated Z (ohms)
OCVCURVE	TABLE	39
	Pt	T	Vf	Vm	Ach	Over
	#	s	V vs. Ref.	V	V	bits
	0	0.258333	6.19040E-002	6.19040E-002	5.58038E-004	...........
	1	0.516667	6.19038E-002	6.18920E-002	5.54504E-004	...........
	2	0.775	6.19011E-002	6.18136E-002	5.52271E-004	...........
	3	1.03333	6.18901E-002	6.17830E-002	5.49171E-004	...........
	4	1.29167	6.18663E-002	6.17749E-002	5.51105E-004	...........
	5	1.55	6.18338E-002	6.17483E-002	5.55804E-004	...........
	6	1.80833	6.18013E-002	6.17212E-002	5.52471E-004	...........
	7	2.06667	6.17720E-002	6.16367E-002	5.58571E-004	...........
	8	2.325	6.17386E-002	6.14999E-002	5.55804E-004	...........
	9	2.58333	6.16888E-002	6.14314E-002	5.55571E-004	...........
	10	2.84167	6.16175E-002	6.13547E-002	5.50438E-004	...........
	11	3.1	6.15355E-002	6.14394E-002	5.51571E-004	...........
	12	3.35833	6.14655E-002	6.14080E-002	5.58138E-004	...........
	13	3.61667	6.14235E-002	6.13741E-002	5.53671E-004	...........
	14	3.875	6.14033E-002	6.12799E-002	5.55804E-004	...........
	15	4.13333	6.13822E-002	6.11803E-002	5.55938E-004	...........
	16	4.39167	6.13408E-002	6.10761E-002	5.53271E-004	...........
	17	4.65	6.12750E-002	6.10595E-002	5.53371E-004	...........
	18	4.90833	6.11977E-002	6.10633E-002	5.55504E-004	...........
	19	5.16667	6.11291E-002	6.10043E-002	5.59004E-004	...........
	20	5.425	6.10819E-002	6.11193E-002	5.53271E-004	...........
	21	5.68333	6.10619E-002	6.12134E-002	5.54504E-004	...........
	22	5.94167	6.10730E-002	6.11347E-002	5.51038E-004	...........
	23	6.2	6.11040E-002	6.10933E-002	5.47071E-004	...........
	24	6.45833	6.11279E-002	6.10675E-002	5.51038E-004	...........
	25	6.71667	6.11273E-002	6.10454E-002	5.50438E-004	...........
	26	6.975	6.11065E-002	6.10290E-002	5.54038E-004	...........
	27	7.23333	6.10787E-002	6.10076E-002	5.53938E-004	...........
	28	7.49167	6.10524E-002	6.09864E-002	5.53271E-004	...........
	29	7.75	6.10294E-002	6.09656E-002	5.49338E-004	...........
	30	8.00833	6.10082E-002	6.09407E-002	5.51905E-004	...........
	31	8.26667	6.09874E-002	6.09275E-002	5.48438E-004	...........
	32	8.525	6.09667E-002	6.09100E-002	5.48505E-004	...........
	33	8.78333	6.09469E-002	6.08909E-002	5.52038E-004	...........
	34	9.04167	6.09283E-002	6.08783E-002	5.48971E-004	...........
	35	9.3	6.09109E-002	6.08589E-002	5.50405E-004	...........
	36	9.5583	6.08941E-002	6.08437E-002	5.47938E-004	...........
	37	9.8167	6.08775E-002	6.08241E-002	5.51438E-004	...........
	38	10.075	6.08604E-002	6.07849E-002	5.50905E-004	...........
EOC	QUANT	0.0608604	Open Circuit (V)
PSTATMODEL	IQUANT	4	Pstat Model
PSTATSECTION	LABEL	REF600-11020	Pstat Section
PSTATSERIALNO	LABEL	11020	Pstat Serial Number
CTRLMODE	IQUANT	1	Control Mode
IESTAB	IQUANT	0	I/E Stability
CASPEED	IQUANT	1	Control Amp Speed
CONVENTION	IQUANT	1	Current Convention
ICHRANGE	IQUANT	2	Ich Range
ICHRANGEMODE	TOGGLE	F	Ich Auto Range
ICHOFFSETENABLE	TOGGLE	T	Ich Offset Enable
ICHOFFSET	QUANT	0	Ich Offset (V)
ICHFILTER	IQUANT	3	Ich Filter
VCHRANGE	IQUANT	2	Vch Range
VCHRANGEMODE	TOGGLE	F	Vch Auto Range
VCHOFFSETENABLE	TOGGLE	T	Vch Offset Enable
VCHOFFSET	QUANT	0	Vch Offset (V)
VCHFILTER	IQUANT	3	Vch Filter
ACHRANGE	IQUANT	2	Ach Range
ACHOFFSETENABLE	TOGGLE	F	Ach Offset Enable
ACHOFFSET	QUANT	0	Ach Offset (V)
ACHFILTER	IQUANT	3	Ach Filter
IERANGELOWERLIMIT	IQUANT	1	I/E Range Lower Limit
IERANGEMODE	TOGGLE	F	I/E AutoRange
IERANGE	IQUANT	8	I/E Range
POSFEEDENABLE	TOGGLE	F	Positive Feedback IR Comp
POSFEEDRESISTANCE	QUANT	0	Positive Feedback Resistance (ohm)
ACHSELECT	IQUANT	0	Ach Select
CABLEID	IQUANT	14	Cable ID
DCCALDATE	LABEL	1/27/2020	DC Calibration Date
ACCALDATE	LABEL	1/27/2020	AC Calibration Date
THERMOSELECT	IQUANT	1	Thermo Select
FRAMEWORKVERSION	QUANT	6.33	Framework Version
INSTRUMENTVERSION	LABEL	3.50	Instrument Version
ZCURVE	TABLE
	Pt	Time	Freq	Zreal	Zimag	Zsig	Zmod	Zphz	Idc	Vdc	IERange
	#	s	Hz	ohm	ohm	V	ohm	°	A	V	#
	0	2	1000078	1886.679	-1737.88	1	2565.109	-42.64915	1.135468E-006	0.063102	8
	1	3	794390.6	2208.933	-1786.457	1	2840.918	-38.96393	1.878995E-006	0.0621657	8
	2	4	630984.4	2556.149	-1786.794	1	3118.739	-34.95424	-1.34152E-006	0.0625944	8
	3	6	501234.4	2880.101	-1747.686	1	3368.885	-31.24996	2.759508E-006	0.0620836	8
	4	7	398109.4	3195.34	-1693.882	1	3616.55	-27.92851	-2.513265E-006	0.062817	8
	5	9	316265.6	3463.609	-1599.385	1	3815.052	-24.78601	-2.058997E-006	0.0627716	8
	6	10	251203.1	3717.094	-1490.22	1	4004.69	-21.84634	-2.058273E-006	0.062752	8
	7	11	199546.9	3951.724	-1381.558	1	4186.266	-19.27008	4.987427E-007	0.0622318	8
	8	13	158578.1	4133.348	-1258.92	1	4320.815	-16.93949	6.362191E-007	0.0621415	8
	9	14	125953.1	4311.444	-1129.196	1	4456.863	-14.6765	1.029156E-007	0.0621466	7
	10	15	100078.1	4453.569	-1041.944	1	4573.83	-13.16792	-4.067352E-008	0.0623199	7
	11	17	79453.13	4577.361	-971.272	1	4679.273	-11.97993	-2.271017E-008	0.0622938	7
	12	18	63140.62	4688.041	-910.0881	1	4775.562	-10.98617	-1.624053E-008	0.0622638	7
	13	19	50203.12	4788.77	-862.6713	1	4865.852	-10.212	3.492115E-008	0.0621798	7
	14	21	39890.62	4883.22	-828.2324	1	4952.959	-9.62621	1.209773E-008	0.0622043	7
	15	22	31640.63	4973.834	-807.0899	1	5038.891	-9.216888	-1.487314E-008	0.0622588	7
	16	23	25171.88	5061.789	-797.1556	1	5124.175	-8.949717	-2.177876E-008	0.0622796	7
	17	25	20015.62	5145.682	-800.0814	1	5207.511	-8.837921	6.087535E-009	0.0622435	7
	18	26	15890.62	5231.056	-817.4047	1	5294.534	-8.881217	1.431677E-008	0.0622236	7
	19	27	12609.37	5312.21	-844.9109	1	5378.982	-9.037238	-1.000216E-008	0.0622456	7
	20	29	10078.13	5395.118	-891.6838	1	5468.308	-9.384783	3.515087E-008	0.0621711	7
	21	30	8015.625	5477.812	-950.6	1	5559.682	-9.84486	-1.32651E-008	0.0622452	7
	22	31	6328.125	5568.714	-1039.299	1	5664.867	-10.57159	1.368855E-008	0.0622467	7
	23	33	5015.625	5657.253	-1147.799	1	5772.518	-11.46905	-9.153589E-009	0.0622041	7
	24	34	3984.375	5749.101	-1286.658	1	5891.319	-12.61501	1.238683E-008	0.0621877	7
	25	35	3170.956	5846.011	-1458.39	1	6025.176	-14.00753	-1.014536E-008	0.0622036	7
	26	37	2527.573	5948.411	-1669.006	1	6178.12	-15.67307	4.779238E-008	0.0621105	7
	27	38	1976.103	6066.821	-1957.375	1	6374.765	-17.88157	7.076519E-009	0.0622334	7
	28	40	1577.524	6183.377	-2281.564	1	6590.879	-20.25323	1.432531E-008	0.06219	7
	29	41	1265.625	6311.514	-2679.858	1	6856.884	-23.006	7.273217E-008	0.0621464	7
	30	42	998.264	6458.995	-3206.885	1	7211.292	-26.40436	7.157248E-008	0.0621453	7
	31	44	796.875	6623.455	-3824.297	1	7648.229	-30.00158	7.568622E-009	0.062231	7
	32	45	627.7902	6830.541	-4632.648	1	8253.346	-34.14613	9.417645E-009	0.0622369	7
	33	46	505.5147	7045.806	-5540.653	1	8963.382	-38.18066	-2.062882E-008	0.0622895	7
	34	48	397.9953	7341.017	-6762.969	1	9981.4	-42.65306	1.826379E-009	0.0622469	6
	35	49	315.5048	7692.391	-8227.525	1	11263.44	-46.92522	1.639119E-009	0.0622456	6
	36	50	252.4038	8112.822	-9943.71	1	12833.36	-50.78985	8.06795E-010	0.0622407	6
	37	52	198.6229	8671.674	-12194.7	1	14963.58	-54.5833	1.064039E-009	0.0622428	6
	38	53	158.3615	9333.064	-14796.33	1	17493.93	-57.75755	1.598371E-009	0.0622465	6
	39	54	125.558	10194.08	-18027.78	1	20710.38	-60.51335	4.927E-010	0.06225	6
	40	56	100.4464	11225.45	-21801.35	1	24521.62	-62.75621	4.915344E-010	0.0622389	6
	41	57	79.00281	12637.94	-26738.77	1	29574.98	-64.70249	6.543546E-010	0.062244	6
	42	59	63.3446	14470.1	-32250.75	1	35348.19	-65.83543	7.016512E-010	0.0622445	6
	43	60	49.86702	16336.61	-39259.57	1	42522.92	-67.40693	1.597703E-009	0.0622348	6
	44	61	39.72458	19267.52	-47444.14	1	51207.27	-67.89746	1.576996E-009	0.0622376	6
	45	63	31.6723	22697.01	-57226.19	1	61562.91	-68.36577	1.510193E-009	0.0622428	6
	46	64	24.93351	27617.01	-69557.11	1	74839.09	-68.34491	6.011313E-010	0.0622416	6
	47	65	19.86229	33508.5	-83527.63	1	89998.24	-68.14099	3.316447E-010	0.0622412	6
	48	67	15.83615	40582.27	-99211.3	1	107190.5	-67.75304	6.621833E-010	0.0622403	5
	49	68	12.40079	52310.09	-119361.9	1	130321.2	-66.33468	-9.733714E-010	0.0622417	5
	50	70	9.93114	63885.89	-141101.6	1	154890.5	-65.64064	-7.223035E-011	0.0622445	5
	51	71	7.944915	79201.18	-164563.5	1	182630.7	-64.2994	7.877045E-010	0.0622341	5
	52	73	6.317385	97381.3	-191741.3	1	215053.2	-63.07496	6.186627E-010	0.062237	5
	53	75	5.008013	119894.8	-222972.5	1	253163	-61.73259	2.764315E-010	0.0622445	5
	54	77	3.945707	146502.5	-257883.7	1	296592.2	-60.3993	-1.226456E-010	0.0622418	5
	55	80	3.158693	175095.9	-294198.2	1	342361.2	-59.24046	1.473061E-010	0.0622315	5
	56	83	2.504006	208551.9	-336745.2	1	396095	-58.22938	9.92754E-012	0.0622407	5
	57	86	1.998082	244630.1	-382936	1	454404.9	-57.42843	5.20932E-010	0.062205	5
	58	89	1.584686	286400	-438719.3	1	523927.1	-56.86313	-7.143758E-011	0.0622165	5
	59	93	1.266892	333118.1	-498667.4	1	599697.3	-56.25642	2.627323E-010	0.0621978	5
	60	97	0.999041	389089.2	-573276.9	1	692846.9	-55.83484	1.444768E-010	0.0622763	5
