EXPLAIN
TAG	EISPOT
TITLE	LABEL	Potentiostatic EIS	Test &Identifier
DATE	LABEL	2/25/2020	Date
TIME	LABEL	14:55:16	Time
NOTES	NOTES	1	&Notes...
	
PSTAT	PSTAT	REF600-11020	Potentiostat
VDC	POTEN	0.00000E+000	T	DC &Voltage (V)
FREQINIT	QUANT	1.00000E+006	Initial Fre&q. (Hz)
FREQFINAL	QUANT	1.00000E+000	Final Fre&q. (Hz)
PTSPERDEC	QUANT	1.00000E+001	Points/&decade
VAC	QUANT	2.50000E+001	AC &Voltage (mV rms)
AREA	QUANT	1.60000E-004	&Area (cm^2)
CONDIT	TWOPARAM	F	1.50000E+001	0.00000E+000	Conditionin&g	Time(s)	E(V)
DELAY	TWOPARAM	F	1.00000E+002	0.00000E+000	Init. De&lay	Time(s)	Stab.(mV/s)
SPEED	SELECTOR	1	&Optimize for:
ZGUESS	QUANT	1.00000E+003	E&stimated Z (ohms)
OCVCURVE	TABLE	39
	Pt	T	Vf	Vm	Ach	Over
	#	s	V vs. Ref.	V	V	bits
	0	0.258333	9.46820E-002	9.46820E-002	5.73304E-004	...........
	1	0.516667	9.46965E-002	9.54442E-002	5.72804E-004	...........
	2	0.775	9.47760E-002	9.56462E-002	5.75137E-004	...........
	3	1.03333	9.49694E-002	9.59234E-002	5.71371E-004	...........
	4	1.29167	9.52475E-002	9.56246E-002	5.64904E-004	...........
	5	1.55	9.55030E-002	9.54980E-002	5.66138E-004	...........
	6	1.80833	9.56409E-002	9.55598E-002	5.69404E-004	...........
	7	2.06667	9.56537E-002	9.54370E-002	5.70471E-004	...........
	8	2.325	9.55991E-002	9.53681E-002	5.68438E-004	...........
	9	2.58333	9.55266E-002	9.53281E-002	5.62304E-004	...........
	10	2.84167	9.54553E-002	9.52947E-002	5.67404E-004	...........
	11	3.1	9.53922E-002	9.52620E-002	5.67871E-004	...........
	12	3.35833	9.53408E-002	9.52339E-002	5.71138E-004	...........
	13	3.61667	9.52996E-002	9.51924E-002	5.72638E-004	...........
	14	3.875	9.52642E-002	9.51536E-002	5.69038E-004	...........
	15	4.13333	9.52300E-002	9.51182E-002	5.71371E-004	...........
	16	4.39167	9.51949E-002	9.50963E-002	5.67638E-004	...........
	17	4.65	9.51601E-002	9.50737E-002	5.70471E-004	...........
	18	4.90833	9.51278E-002	9.50335E-002	5.68038E-004	...........
	19	5.16667	9.50984E-002	9.50243E-002	5.67171E-004	...........
	20	5.425	9.50709E-002	9.49902E-002	5.62971E-004	...........
	21	5.68333	9.50447E-002	9.49615E-002	5.66771E-004	...........
	22	5.94167	9.50184E-002	9.49174E-002	5.70104E-004	...........
	23	6.2	9.49903E-002	9.49031E-002	5.73671E-004	...........
	24	6.45833	9.49603E-002	9.48711E-002	5.70104E-004	...........
	25	6.71667	9.49302E-002	9.48387E-002	5.69604E-004	...........
	26	6.975	9.49009E-002	9.48105E-002	5.69238E-004	...........
	27	7.23333	9.48718E-002	9.47859E-002	5.62671E-004	...........
	28	7.49167	9.48428E-002	9.47494E-002	5.65438E-004	...........
	29	7.75	9.48139E-002	9.47353E-002	5.69904E-004	...........
	30	8.00833	9.47860E-002	9.47195E-002	5.59971E-004	...........
	31	8.26667	9.47604E-002	9.46924E-002	5.61338E-004	...........
	32	8.525	9.47376E-002	9.46669E-002	5.62571E-004	...........
	33	8.78333	9.47158E-002	9.46459E-002	5.67571E-004	...........
	34	9.04167	9.46936E-002	9.46265E-002	5.63038E-004	...........
	35	9.3	9.46710E-002	9.46048E-002	5.63171E-004	...........
	36	9.5583	9.46490E-002	9.45855E-002	5.65704E-004	...........
	37	9.8167	9.46275E-002	9.45545E-002	5.69338E-004	...........
	38	10.075	9.46054E-002	9.45142E-002	5.69604E-004	...........
EOC	QUANT	0.0946054	Open Circuit (V)
PSTATMODEL	IQUANT	4	Pstat Model
PSTATSECTION	LABEL	REF600-11020	Pstat Section
PSTATSERIALNO	LABEL	11020	Pstat Serial Number
CTRLMODE	IQUANT	1	Control Mode
IESTAB	IQUANT	0	I/E Stability
CASPEED	IQUANT	1	Control Amp Speed
CONVENTION	IQUANT	1	Current Convention
ICHRANGE	IQUANT	2	Ich Range
ICHRANGEMODE	TOGGLE	F	Ich Auto Range
ICHOFFSETENABLE	TOGGLE	T	Ich Offset Enable
ICHOFFSET	QUANT	0	Ich Offset (V)
ICHFILTER	IQUANT	3	Ich Filter
VCHRANGE	IQUANT	2	Vch Range
VCHRANGEMODE	TOGGLE	F	Vch Auto Range
VCHOFFSETENABLE	TOGGLE	T	Vch Offset Enable
VCHOFFSET	QUANT	0	Vch Offset (V)
VCHFILTER	IQUANT	3	Vch Filter
ACHRANGE	IQUANT	2	Ach Range
ACHOFFSETENABLE	TOGGLE	F	Ach Offset Enable
ACHOFFSET	QUANT	0	Ach Offset (V)
ACHFILTER	IQUANT	3	Ach Filter
IERANGELOWERLIMIT	IQUANT	1	I/E Range Lower Limit
IERANGEMODE	TOGGLE	F	I/E AutoRange
IERANGE	IQUANT	8	I/E Range
POSFEEDENABLE	TOGGLE	F	Positive Feedback IR Comp
POSFEEDRESISTANCE	QUANT	0	Positive Feedback Resistance (ohm)
ACHSELECT	IQUANT	0	Ach Select
CABLEID	IQUANT	14	Cable ID
DCCALDATE	LABEL	1/27/2020	DC Calibration Date
ACCALDATE	LABEL	1/27/2020	AC Calibration Date
THERMOSELECT	IQUANT	1	Thermo Select
FRAMEWORKVERSION	QUANT	6.33	Framework Version
INSTRUMENTVERSION	LABEL	3.50	Instrument Version
ZCURVE	TABLE
	Pt	Time	Freq	Zreal	Zimag	Zsig	Zmod	Zphz	Idc	Vdc	IERange
	#	s	Hz	ohm	ohm	V	ohm	°	A	V	#
	0	2	1000078	1728.958	-2109.271	1	2727.329	-50.65871	5.258018E-008	0.0966874	8
	1	3	794390.6	2172.052	-2247.881	1	3125.824	-45.98288	-1.283761E-008	0.0962018	8
	2	4	630984.4	2651.4	-2303.775	1	3512.449	-40.98706	7.241321E-007	0.096028	8
	3	6	501234.4	3131.807	-2270.793	1	3868.426	-35.9449	-1.793744E-006	0.0965256	8
	4	7	398109.4	3580.577	-2169.253	1	4186.429	-31.20911	-9.340969E-007	0.0962977	8
	5	8	316265.6	3974.416	-2000.395	1	4449.445	-26.71693	-4.029941E-007	0.0961085	8
	6	10	251203.1	4292.644	-1817.579	1	4661.586	-22.94863	-2.81795E-008	0.0959995	8
	7	11	199546.9	4563.701	-1612.326	1	4840.141	-19.45798	2.44306E-006	0.0956567	8
	8	13	158578.1	4743.691	-1426.168	1	4953.439	-16.73315	-1.504252E-006	0.096411	8
	9	14	125953.1	4930.175	-1239.074	1	5083.496	-14.10765	7.626249E-008	0.0958931	7
	10	15	100078.1	5054.814	-1108.685	1	5174.972	-12.37094	3.640321E-009	0.0959668	7
	11	17	79453.13	5156.399	-1007.585	1	5253.92	-11.05654	3.731991E-008	0.0959253	7
	12	18	63140.62	5244.051	-937.8911	1	5327.261	-10.14006	2.379464E-008	0.0959284	7
	13	19	50203.12	5323.472	-890.0437	1	5397.363	-9.491625	-1.005217E-008	0.0960492	7
	14	21	39890.62	5398.959	-867.3278	1	5468.183	-9.12643	-4.387324E-009	0.0960077	7
	15	22	31640.63	5473.1	-866.0526	1	5541.198	-8.991817	5.374931E-009	0.0959464	7
	16	23	25171.88	5547.472	-886.6231	1	5617.877	-9.080484	-8.386324E-009	0.0959723	7
	17	25	20015.62	5626.228	-929.843	1	5702.548	-9.384408	4.798295E-009	0.0959432	7
	18	26	15890.62	5712.603	-996.906	1	5798.936	-9.899	-1.460356E-009	0.0960043	7
	19	28	12609.37	5802.73	-1082.244	1	5902.79	-10.56463	4.259137E-009	0.0959426	7
	20	29	10078.13	5898.8	-1194.602	1	6018.548	-11.44848	-1.319797E-008	0.0959877	7
	21	30	8015.625	6007.029	-1333.209	1	6153.198	-12.51348	-1.494978E-008	0.0960048	7
	22	32	6328.125	6133.714	-1511.608	1	6317.231	-13.84424	-2.200059E-009	0.0959993	7
	23	33	5015.625	6271.799	-1723.299	1	6504.246	-15.36397	4.206142E-008	0.0959597	7
	24	34	3984.375	6424.41	-1974.402	1	6720.96	-17.08367	-1.286151E-008	0.0959824	7
	25	36	3170.956	6594.814	-2271.725	1	6975.121	-19.00736	-7.691124E-009	0.0959664	7
	26	37	2527.573	6787.832	-2626.688	1	7278.334	-21.15495	-7.773167E-009	0.0959641	7
	27	38	1976.103	7026.44	-3089.914	1	7675.834	-23.73774	9.720779E-009	0.0959755	7
	28	40	1577.524	7271.39	-3589.059	1	8108.913	-26.27032	4.031073E-008	0.0958932	7
	29	41	1265.625	7543.824	-4178.319	1	8623.667	-28.98088	-6.366102E-009	0.0960382	7
	30	43	998.264	7875.333	-4932.784	1	9292.644	-32.06133	-1.340179E-008	0.0959885	7
	31	44	796.875	8247.225	-5789.458	1	10076.43	-35.06842	-3.492228E-009	0.0960191	6
	32	45	627.7902	8687.628	-6885.853	1	11085.57	-38.4005	-3.327716E-009	0.0960176	6
	33	47	505.5147	9152.66	-8085.426	1	12212.51	-41.45726	-4.376692E-009	0.0960105	6
	34	48	397.9953	9748.93	-9675.83	1	13735.48	-44.7844	8.868494E-010	0.0959834	6
	35	49	315.5048	10441.14	-11553.7	1	15572.59	-47.89571	8.905808E-010	0.0959878	6
	36	51	252.4038	11236.42	-13725.83	1	17738.53	-50.69511	8.605002E-010	0.0959799	6
	37	52	198.6229	12273.73	-16534.73	1	20592.28	-53.41349	1.219527E-009	0.0959812	6
	38	53	158.3615	13478.66	-19729.55	1	23894.13	-55.66024	1.139165E-009	0.0959869	6
	39	55	125.558	14986.21	-23622.18	1	27974.88	-57.60844	1.078717E-009	0.0959875	6
	40	56	100.4464	16745.38	-28069.42	1	32684.86	-59.18096	1.368656E-009	0.095983	6
	41	58	79.00281	19083.24	-33672.48	1	38704.08	-60.45843	6.444572E-010	0.095982	6
	42	59	63.3446	21481.46	-39624.14	1	45072.45	-61.53652	9.073035E-010	0.0959843	6
	43	60	49.86702	25247.65	-47749.63	1	54013.62	-62.13232	6.944635E-010	0.0959789	6
	44	62	39.72458	28788.27	-56583.14	1	63485.56	-63.034	9.919625E-010	0.0959845	6
	45	63	31.6723	33141.84	-66984.98	1	74735.33	-63.6754	9.500392E-010	0.0959784	6
	46	65	24.93351	38750.7	-80541.8	1	89378.96	-64.30661	4.753657E-010	0.0959747	6
	47	66	19.86229	45444.68	-95698.4	1	105940.6	-64.59818	5.690153E-010	0.0959772	5
	48	67	15.83615	53704.65	-114249.8	1	126242.7	-64.82351	-4.166854E-010	0.095974	5
	49	69	12.40079	65502.89	-137711.7	1	152496.4	-64.5618	-1.004285E-009	0.0959727	5
	50	70	9.93114	78284.31	-162131.3	1	180041.7	-64.22665	1.278009E-010	0.0959769	5
	51	72	7.944915	94509.29	-190564.5	1	212713	-63.62117	-2.485518E-010	0.0959785	5
	52	73	6.317385	116609.1	-223402.8	1	252005	-62.43688	-3.6572E-010	0.0959728	5
	53	75	5.008013	144011.8	-260745.9	1	297872.2	-61.08783	-2.031511E-010	0.0959667	5
	54	78	3.945707	178313.5	-302392.8	1	351051.5	-59.4732	3.064677E-010	0.0959793	5
	55	81	3.158693	215886.7	-343887.2	1	406036.3	-57.88008	-6.444428E-011	0.0959651	5
	56	84	2.504006	260350.7	-389826.6	1	468772.1	-56.26252	3.688093E-010	0.0959849	5
	57	87	1.998082	307570.4	-437121.6	1	534485.6	-54.86876	4.330071E-010	0.0959705	5
	58	90	1.584686	361070.3	-489007.2	1	607864.9	-53.5588	4.557431E-011	0.0959207	5
	59	93	1.266892	411964.7	-544767.1	1	682997.9	-52.90264	3.086403E-010	0.0959534	5
	60	98	0.999041	468658.8	-614418.8	1	772755.8	-52.66478	-8.964748E-011	0.095975	5
