EXPLAIN
TAG	EISPOT
TITLE	LABEL	Potentiostatic EIS	Test &Identifier
DATE	LABEL	2/18/2020	Date
TIME	LABEL	16:11:09	Time
NOTES	NOTES	1	&Notes...
	
PSTAT	PSTAT	REF600-11020	Potentiostat
VDC	POTEN	0.00000E+000	T	DC &Voltage (V)
FREQINIT	QUANT	1.00000E+006	Initial Fre&q. (Hz)
FREQFINAL	QUANT	1.00000E+000	Final Fre&q. (Hz)
PTSPERDEC	QUANT	1.00000E+001	Points/&decade
VAC	QUANT	2.50000E+001	AC &Voltage (mV rms)
AREA	QUANT	1.60000E-004	&Area (cm^2)
CONDIT	TWOPARAM	F	1.50000E+001	0.00000E+000	Conditionin&g	Time(s)	E(V)
DELAY	TWOPARAM	F	1.00000E+002	0.00000E+000	Init. De&lay	Time(s)	Stab.(mV/s)
SPEED	SELECTOR	1	&Optimize for:
ZGUESS	QUANT	1.00000E+003	E&stimated Z (ohms)
OCVCURVE	TABLE	39
	Pt	T	Vf	Vm	Ach	Over
	#	s	V vs. Ref.	V	V	bits
	0	0.258333	1.00907E-002	1.00907E-002	5.58704E-004	...........
	1	0.516667	1.00897E-002	1.00402E-002	5.56304E-004	...........
	2	0.775	1.00843E-002	1.00179E-002	5.57138E-004	...........
	3	1.03333	1.00706E-002	1.00005E-002	5.55171E-004	...........
	4	1.29167	1.00501E-002	1.00081E-002	5.61904E-004	...........
	5	1.55	1.00294E-002	1.00005E-002	5.54938E-004	...........
	6	1.80833	1.00144E-002	1.00032E-002	5.58171E-004	...........
	7	2.06667	1.00064E-002	1.00091E-002	5.55638E-004	...........
	8	2.325	1.00027E-002	9.95561E-003	5.53105E-004	...........
	9	2.58333	9.99747E-003	9.92482E-003	5.51671E-004	...........
	10	2.84167	9.98349E-003	9.87229E-003	5.59938E-004	...........
	11	3.1	9.95740E-003	9.82630E-003	5.57904E-004	...........
	12	3.35833	9.92095E-003	9.78976E-003	5.54671E-004	...........
	13	3.61667	9.88074E-003	9.85381E-003	5.51705E-004	...........
	14	3.875	9.84826E-003	9.84265E-003	5.49105E-004	...........
	15	4.13333	9.83137E-003	9.77137E-003	5.49205E-004	...........
	16	4.39167	9.82388E-003	9.78612E-003	5.48305E-004	...........
	17	4.65	9.81588E-003	9.86153E-003	5.44005E-004	...........
	18	4.90833	9.81206E-003	9.93059E-003	5.55104E-004	...........
	19	5.16667	9.82614E-003	9.96582E-003	5.51638E-004	...........
	20	5.425	9.86126E-003	9.98861E-003	5.54305E-004	...........
	21	5.68333	9.90472E-003	9.92478E-003	5.50105E-004	...........
	22	5.94167	9.93852E-003	9.95598E-003	5.53571E-004	...........
	23	6.2	9.95430E-003	9.98125E-003	5.53105E-004	...........
	24	6.45833	9.95939E-003	9.99943E-003	5.57338E-004	...........
	25	6.71667	9.96259E-003	9.84058E-003	5.56271E-004	...........
	26	6.975	9.95383E-003	9.64219E-003	5.54138E-004	...........
	27	7.23333	9.91374E-003	9.82067E-003	5.53171E-004	...........
	28	7.49167	9.84962E-003	9.73648E-003	5.60304E-004	...........
	29	7.75	9.79763E-003	9.94907E-003	5.59171E-004	...........
	30	8.00833	9.78476E-003	9.82898E-003	5.63138E-004	...........
	31	8.26667	9.80416E-003	9.78148E-003	5.55204E-004	...........
	32	8.525	9.82520E-003	9.78510E-003	5.57471E-004	...........
	33	8.78333	9.82501E-003	9.72318E-003	5.59438E-004	...........
	34	9.04167	9.80485E-003	9.74042E-003	5.55771E-004	...........
	35	9.3	9.77667E-003	9.67967E-003	5.53405E-004	...........
	36	9.5583	9.74853E-003	9.68575E-003	5.56838E-004	...........
	37	9.8167	9.72395E-003	9.71211E-003	5.53571E-004	...........
	38	10.075	9.70786E-003	9.76319E-003	5.51971E-004	...........
EOC	QUANT	0.0097079	Open Circuit (V)
PSTATMODEL	IQUANT	4	Pstat Model
PSTATSECTION	LABEL	REF600-11020	Pstat Section
PSTATSERIALNO	LABEL	11020	Pstat Serial Number
CTRLMODE	IQUANT	1	Control Mode
IESTAB	IQUANT	0	I/E Stability
CASPEED	IQUANT	1	Control Amp Speed
CONVENTION	IQUANT	1	Current Convention
ICHRANGE	IQUANT	2	Ich Range
ICHRANGEMODE	TOGGLE	F	Ich Auto Range
ICHOFFSETENABLE	TOGGLE	T	Ich Offset Enable
ICHOFFSET	QUANT	0	Ich Offset (V)
ICHFILTER	IQUANT	3	Ich Filter
VCHRANGE	IQUANT	2	Vch Range
VCHRANGEMODE	TOGGLE	F	Vch Auto Range
VCHOFFSETENABLE	TOGGLE	T	Vch Offset Enable
VCHOFFSET	QUANT	0	Vch Offset (V)
VCHFILTER	IQUANT	3	Vch Filter
ACHRANGE	IQUANT	2	Ach Range
ACHOFFSETENABLE	TOGGLE	F	Ach Offset Enable
ACHOFFSET	QUANT	0	Ach Offset (V)
ACHFILTER	IQUANT	3	Ach Filter
IERANGELOWERLIMIT	IQUANT	1	I/E Range Lower Limit
IERANGEMODE	TOGGLE	F	I/E AutoRange
IERANGE	IQUANT	7	I/E Range
POSFEEDENABLE	TOGGLE	F	Positive Feedback IR Comp
POSFEEDRESISTANCE	QUANT	0	Positive Feedback Resistance (ohm)
ACHSELECT	IQUANT	0	Ach Select
CABLEID	IQUANT	14	Cable ID
DCCALDATE	LABEL	1/27/2020	DC Calibration Date
ACCALDATE	LABEL	1/27/2020	AC Calibration Date
THERMOSELECT	IQUANT	1	Thermo Select
FRAMEWORKVERSION	QUANT	6.33	Framework Version
INSTRUMENTVERSION	LABEL	3.50	Instrument Version
ZCURVE	TABLE
	Pt	Time	Freq	Zreal	Zimag	Zsig	Zmod	Zphz	Idc	Vdc	IERange
	#	s	Hz	ohm	ohm	V	ohm	°	A	V	#
	0	2	1000078	1953.045	-1857.488	1	2695.301	-43.56349	-5.61661E-006	0.0127257	8
	1	3	794390.6	2288.032	-1926.016	1	2990.757	-40.08994	3.207528E-006	0.0114134	8
	2	4	630984.4	2627.24	-1966.512	1	3281.701	-36.81517	-1.577903E-006	0.011789	8
	3	6	501234.4	2941.019	-1991.757	1	3551.998	-34.10718	4.784982E-007	0.0115303	8
	4	7	398109.4	3257.148	-1998.986	1	3821.644	-31.53838	-8.736227E-010	0.0113339	8
	5	9	316265.6	3556.641	-1990.901	1	4075.952	-29.2388	-2.201097E-006	0.0117652	8
	6	10	251203.1	3837.781	-2009.659	1	4332.124	-27.63886	-3.509916E-007	0.0114346	8
	7	11	199546.9	4110.103	-2011.685	1	4576.005	-26.07938	-3.998416E-007	0.0114339	8
	8	13	158578.1	4370.271	-2063.604	1	4832.984	-25.27627	-4.927834E-008	0.011432	8
	9	14	125953.1	4664.604	-2091.472	1	5112.024	-24.15007	-6.010237E-007	0.0126718	7
	10	15	100078.1	4931.311	-2158.994	1	5383.222	-23.64445	9.493354E-010	0.0112305	7
	11	17	79453.13	5207.88	-2255.631	1	5675.376	-23.41835	-2.336491E-008	0.0112824	7
	12	18	63140.62	5497.881	-2373.628	1	5988.389	-23.35155	-1.651711E-008	0.011253	7
	13	19	50203.12	5800.984	-2511.335	1	6321.251	-23.40853	5.642776E-008	0.011166	7
	14	21	39890.62	6121.593	-2670.055	1	6678.555	-23.56539	-3.159814E-008	0.0113791	7
	15	22	31640.63	6463.98	-2852.112	1	7065.238	-23.80858	5.221571E-009	0.011223	7
	16	23	25171.88	6821.883	-3062.311	1	7477.689	-24.17508	-3.239263E-008	0.0112858	7
	17	25	20015.62	7201.99	-3299.943	1	7922.013	-24.61719	4.833556E-009	0.0112148	7
	18	26	15890.62	7603.245	-3578.445	1	8403.249	-25.20388	-3.977863E-008	0.0113234	7
	19	28	12609.37	8033.486	-3899.426	1	8929.861	-25.89177	-1.224315E-008	0.0112334	7
	20	29	10078.13	8493.495	-4237.892	1	9492.059	-26.51724	-2.523534E-009	0.011244	6
	21	30	8015.625	8975.899	-4682.12	1	10123.69	-27.548	-3.397365E-009	0.0112989	6
	22	32	6328.125	9525.7	-5217.948	1	10861.21	-28.71287	-4.895687E-009	0.0113439	6
	23	33	5015.625	10125.62	-5836.692	1	11687.39	-29.96036	1.229573E-008	0.0110416	6
	24	34	3984.375	10800.06	-6547.771	1	12629.91	-31.22726	1.898018E-009	0.0112964	6
	25	36	3170.956	11563.67	-7356.04	1	13705.1	-32.46183	-3.749069E-009	0.0113043	6
	26	37	2527.573	12417.85	-8251.244	1	14909.26	-33.6027	9.765908E-011	0.0112335	6
	27	38	1976.103	13462.92	-9347.042	1	16389.55	-34.7715	1.621456E-009	0.0113431	6
	28	40	1577.524	14515.97	-10460.8	1	17892.5	-35.77806	8.272143E-009	0.0112211	6
	29	41	1265.625	15635.16	-11686.56	1	19520.09	-36.77641	-1.337652E-010	0.0113213	6
	30	43	998.264	16925.88	-13198.38	1	21463.52	-37.94622	1.183763E-008	0.0110945	6
	31	44	796.875	18232.57	-14866.77	1	23525.46	-39.19368	-4.509642E-009	0.011292	6
	32	45	627.7902	19717.9	-16975.56	1	26018.56	-40.72585	-1.369601E-009	0.0111921	6
	33	47	505.5147	21189.9	-19290.44	1	28655.42	-42.31349	-3.753447E-009	0.011362	6
	34	48	397.9953	23008.34	-22358.93	1	32082.79	-44.17989	1.161359E-009	0.0112662	6
	35	49	315.5048	25074.69	-25980.41	1	36107.09	-46.01633	1.240157E-009	0.0112635	6
	36	51	252.4038	27418.58	-30132.97	1	40740.34	-47.70033	5.667153E-010	0.0112568	6
	37	52	198.6229	30487.92	-35416.78	1	46731.8	-49.27706	6.06954E-010	0.0112599	6
	38	53	158.3615	33993.58	-41237.73	1	53442.62	-50.50015	8.134506E-010	0.0112577	6
	39	55	125.558	38423.15	-48114.93	1	61574.22	-51.39017	6.335158E-010	0.0112599	6
	40	56	100.4464	43391.86	-55504.98	1	70453.23	-51.98294	3.273696E-010	0.0112578	6
	41	58	79.00281	50042.31	-64940.66	1	81984.89	-52.38268	1.002119E-009	0.0112499	6
	42	59	63.3446	57711.84	-75073.6	1	94692.67	-52.4492	3.46756E-010	0.0112506	6
	43	60	49.86702	64436.02	-85141.31	1	106775.7	-52.88111	1.85133E-010	0.0112495	5
	44	62	39.72458	74198.19	-97579	1	122584.8	-52.75098	1.735409E-011	0.0112518	5
	45	63	31.6723	84501.43	-111789.1	1	140133.2	-52.91436	2.22368E-010	0.0112494	5
	46	65	24.93351	96138.8	-128621.9	1	160581	-53.22361	1.456605E-011	0.0112463	5
	47	66	19.86229	108349.2	-147718.7	1	183194.9	-53.74058	4.640137E-010	0.0112571	5
	48	67	15.83615	123125.5	-169695.6	1	209658	-54.0366	3.059863E-011	0.0112519	5
	49	69	12.40079	139836.3	-199929.3	1	243979.3	-55.02996	-4.176976E-010	0.0112518	5
	50	70	9.93114	157947.7	-230710.8	1	279597.8	-55.60393	2.196581E-010	0.0112497	5
	51	72	7.944915	179655.8	-268322	1	322913.2	-56.19559	-2.499083E-010	0.011254	5
	52	73	6.317385	208421.6	-312569	1	375684.6	-56.30456	-2.109356E-010	0.0112497	5
	53	75	5.008013	243228	-365138	1	438731.8	-56.33138	-2.058333E-010	0.0112435	5
	54	78	3.945707	288375.9	-425824.8	1	514283.4	-55.89347	1.334011E-010	0.0112555	5
	55	81	3.158693	338960.8	-488496.8	1	594578.4	-55.24378	-3.209548E-011	0.0112435	5
	56	84	2.504006	401702.2	-559267.9	1	688582.1	-54.31166	1.917078E-010	0.0112653	5
	57	87	1.998082	471385.4	-633056.3	1	789281	-53.32795	3.407477E-010	0.0112542	5
	58	90	1.584686	554786.5	-714069.3	1	904258.3	-52.15506	-3.776577E-012	0.011217	5
	59	93	1.266892	640105.8	-796744.1	1	1022026	-51.22154	1.736746E-010	0.0111753	4
	60	98	0.999041	738211.6	-895115	1	1160253	-50.48721	-1.473236E-010	0.0112302	4
