EXPLAIN
TAG	EISPOT
TITLE	LABEL	Potentiostatic EIS	Test &Identifier
DATE	LABEL	1/14/2020	Date
TIME	LABEL	14:49:39	Time
NOTES	NOTES	5	&Notes...
	
	
	
	
	
PSTAT	PSTAT	REF600-11020	Potentiostat
VDC	POTEN	0.00000E+000	T	DC &Voltage (V)
FREQINIT	QUANT	1.00000E+006	Initial Fre&q. (Hz)
FREQFINAL	QUANT	1.00000E+000	Final Fre&q. (Hz)
PTSPERDEC	QUANT	1.00000E+001	Points/&decade
VAC	QUANT	2.50000E+001	AC &Voltage (mV rms)
AREA	QUANT	1.00000E-001	&Area (cm^2)
CONDIT	TWOPARAM	T	5.00000E+000	0.00000E+000	Conditionin&g	Time(s)	E(V)
DELAY	TWOPARAM	T	5.00000E+000	0.00000E+000	Init. De&lay	Time(s)	Stab.(mV/s)
SPEED	SELECTOR	0	&Optimize for:
ZGUESS	QUANT	5.00000E+002	E&stimated Z (ohms)
OCVCURVE	TABLE	19
	Pt	T	Vf	Vm	Ach	Over
	#	s	V vs. Ref.	V	V	bits
	0	0.258333	-4.68193E-003	-4.68193E-003	6.44380E-004	...........
	1	0.516667	-4.69227E-003	-5.22328E-003	6.45646E-004	...........
	2	0.775	-4.75581E-003	-5.73843E-003	6.45280E-004	...........
	3	1.03333	-4.93524E-003	-6.20897E-003	6.46413E-004	...........
	4	1.29167	-5.25446E-003	-6.65668E-003	6.51013E-004	...........
	5	1.55	-5.67452E-003	-7.06298E-003	6.51746E-004	...........
	6	1.80833	-6.13295E-003	-7.45696E-003	6.50380E-004	...........
	7	2.06667	-6.58478E-003	-7.82960E-003	6.44546E-004	...........
	8	2.325	-7.01155E-003	-8.18661E-003	6.42313E-004	...........
	9	2.58333	-7.41156E-003	-8.52362E-003	6.44613E-004	...........
	10	2.84167	-7.78847E-003	-8.84175E-003	6.38513E-004	...........
	11	3.1	-8.14559E-003	-9.15417E-003	6.39813E-004	...........
	12	3.35833	-8.48507E-003	-9.44118E-003	6.40980E-004	...........
	13	3.61667	-8.80833E-003	-9.71682E-003	6.38513E-004	...........
	14	3.875	-9.11603E-003	-9.98497E-003	6.37913E-004	...........
	15	4.13333	-9.40869E-003	-1.02283E-002	6.35280E-004	...........
	16	4.39167	-9.68742E-003	-1.04941E-002	6.42713E-004	...........
	17	4.65	-9.95440E-003	-1.07261E-002	6.38880E-004	...........
	18	4.90833	-1.02119E-002	-1.09475E-002	6.36346E-004	...........
EOC	QUANT	-0.0102119	Open Circuit (V)
PSTATMODEL	IQUANT	4	Pstat Model
PSTATSECTION	LABEL	REF600-11020	Pstat Section
PSTATSERIALNO	LABEL	11020	Pstat Serial Number
CTRLMODE	IQUANT	1	Control Mode
IESTAB	IQUANT	0	I/E Stability
CASPEED	IQUANT	1	Control Amp Speed
CONVENTION	IQUANT	1	Current Convention
ICHRANGE	IQUANT	2	Ich Range
ICHRANGEMODE	TOGGLE	F	Ich Auto Range
ICHOFFSETENABLE	TOGGLE	T	Ich Offset Enable
ICHOFFSET	QUANT	0	Ich Offset (V)
ICHFILTER	IQUANT	3	Ich Filter
VCHRANGE	IQUANT	2	Vch Range
VCHRANGEMODE	TOGGLE	F	Vch Auto Range
VCHOFFSETENABLE	TOGGLE	T	Vch Offset Enable
VCHOFFSET	QUANT	0	Vch Offset (V)
VCHFILTER	IQUANT	3	Vch Filter
ACHRANGE	IQUANT	2	Ach Range
ACHOFFSETENABLE	TOGGLE	F	Ach Offset Enable
ACHOFFSET	QUANT	0	Ach Offset (V)
ACHFILTER	IQUANT	3	Ach Filter
IERANGELOWERLIMIT	IQUANT	1	I/E Range Lower Limit
IERANGEMODE	TOGGLE	F	I/E AutoRange
IERANGE	IQUANT	7	I/E Range
POSFEEDENABLE	TOGGLE	F	Positive Feedback IR Comp
POSFEEDRESISTANCE	QUANT	0	Positive Feedback Resistance (ohm)
ACHSELECT	IQUANT	0	Ach Select
CABLEID	IQUANT	14	Cable ID
DCCALDATE	LABEL	12/22/2019	DC Calibration Date
ACCALDATE	LABEL	12/22/2019	AC Calibration Date
THERMOSELECT	IQUANT	1	Thermo Select
FRAMEWORKVERSION	QUANT	6.33	Framework Version
INSTRUMENTVERSION	LABEL	3.50	Instrument Version
ZCURVE	TABLE
	Pt	Time	Freq	Zreal	Zimag	Zsig	Zmod	Zphz	Idc	Vdc	IERange
	#	s	Hz	ohm	ohm	V	ohm	°	A	V	#
	0	2	1000078	1448.804	-2588.711	1	2966.557	-60.7659	-7.570658E-007	-0.0081184	8
	1	2	794390.6	1682.655	-3045.961	1	3479.829	-61.08278	1.444809E-006	-0.0086263	8
	2	2	630984.4	1965.878	-3608.702	1	4109.429	-61.4202	-2.925197E-007	-0.0085812	8
	3	3	501234.4	2336.908	-4265.614	1	4863.806	-61.28395	-2.654233E-006	-0.0080268	8
	4	3	398109.4	2794.315	-5008.277	1	5735.071	-60.84113	-2.299155E-006	-0.0081138	8
	5	3	316265.6	3392.997	-5886.511	1	6794.368	-60.04076	-1.651121E-006	-0.008398	8
	6	3	251203.1	4116.009	-6847.305	1	7989.188	-58.98935	2.023648E-007	-0.0088439	8
	7	4	199546.9	5050.934	-7927.579	1	9399.917	-57.49738	1.51222E-006	-0.0089598	8
	8	4	158578.1	6127.391	-8959.135	1	10854.08	-55.63074	6.30112E-007	-0.0088136	8
	9	5	125953.1	7513.215	-10056.38	1	12553.05	-53.23625	-2.719168E-008	-0.0087149	7
	10	5	100078.1	8938.117	-11177.72	1	14311.93	-51.35288	1.627264E-008	-0.0087856	7
	11	5	79453.13	10515.35	-12344.15	1	16215.75	-49.57402	4.92634E-008	-0.0088696	7
	12	6	63140.62	12188.84	-13523.63	1	18205.94	-47.97168	-1.464032E-008	-0.0087651	7
	13	6	50203.12	13909.13	-14785.07	1	20299.31	-46.74851	5.561253E-010	-0.0087254	7
	14	6	39890.62	15747.44	-16208.34	1	22598.5	-45.82631	1.616028E-008	-0.0088107	7
	15	7	31640.63	17583.19	-17807.47	1	25025.47	-45.36309	-1.533213E-008	-0.0087707	7
	16	7	25171.88	19459.5	-19732.77	1	27713.79	-45.3995	-3.839481E-008	-0.0086803	7
	17	7	20015.62	21501.1	-22058.48	1	30803.79	-45.73311	-3.112945E-008	-0.008722	7
	18	8	15890.62	23634.37	-25060.62	1	34447.32	-46.67769	-1.953569E-008	-0.0087581	7
	19	8	12609.37	26685.58	-28858.51	1	39305.65	-47.24031	6.285174E-009	-0.0087562	6
	20	8	10078.13	29505.74	-32317	1	43760.45	-47.60361	-1.039188E-010	-0.008773	6
	21	9	8015.625	33102.66	-37157.83	1	49764.34	-48.30323	1.14249E-009	-0.0087752	6
	22	9	6328.125	37619	-42987.81	1	57123.91	-48.81055	-1.35486E-009	-0.0086919	6
	23	9	5015.625	43195.66	-49323.61	1	65564.34	-48.78941	-5.876218E-009	-0.0087037	6
	24	10	3984.375	50114.8	-56582.52	1	75584.88	-48.46888	-4.192481E-010	-0.0087824	6
	25	10	3170.956	58708.75	-64489.37	1	87210.07	-47.68643	7.14076E-009	-0.0087631	6
	26	10	2527.573	69423.1	-71946.36	1	99979.2	-46.02254	9.368794E-009	-0.0089349	6
	27	11	1976.103	82876.77	-79529.69	1	114863.1	-43.81934	-4.681932E-009	-0.0086772	6
	28	11	1577.524	98546.2	-85086.23	1	130196.1	-40.80779	-1.15006E-009	-0.0086902	6
	29	11	1265.625	115489.5	-87491.78	1	144888.3	-37.14661	2.020765E-009	-0.0089394	5
	30	11	998.264	133210.1	-88530.17	1	159945.4	-33.60764	4.786923E-010	-0.008699	5
	31	12	796.875	149440.4	-87156.7	1	172999.2	-30.25162	1.886855E-009	-0.0087884	5
	32	12	627.7902	165377.5	-83798.49	1	185396.6	-26.87181	9.677223E-010	-0.0087774	5
	33	12	505.5147	178051.3	-79720.32	1	195083.6	-24.11987	5.338521E-010	-0.0086765	5
	34	13	397.9953	190152.3	-75155.38	1	204465.7	-21.56581	1.094626E-009	-0.0087701	5
	35	13	315.5048	199560.6	-70164.66	1	211536.1	-19.37146	1.089717E-009	-0.0087711	5
	36	13	252.4038	207733.4	-67065.34	1	218291	-17.89232	9.371646E-010	-0.008776	5
	37	14	198.6229	215535.1	-65055.84	1	225139.2	-16.7956	1.181666E-009	-0.0087759	5
	38	14	158.3615	222104.7	-64432.71	1	231261.9	-16.17747	9.163942E-010	-0.008773	5
	39	14	125.558	227923.1	-65323.43	1	237099.3	-15.99246	8.95281E-010	-0.0087701	5
	40	15	100.4464	233021.6	-68366.69	1	242843.7	-16.35127	9.788083E-010	-0.0087711	5
	41	15	79.00281	239054.7	-73428.41	1	250077.7	-17.07495	9.139101E-010	-0.0087755	5
	42	15	63.3446	244386.8	-74212.72	1	255406.4	-16.89192	1.114189E-009	-0.008778	5
	43	16	49.86702	254212.1	-84447.45	1	267871.5	-18.37612	1.401052E-009	-0.0087811	5
	44	16	39.72458	262255.4	-97599.7	1	279827.8	-20.41302	1.054555E-009	-0.0087731	5
	45	16	31.6723	275381	-111085.3	1	296942.1	-21.96854	1.065465E-009	-0.0087778	5
	46	17	24.93351	288574.6	-123729.6	1	313981.4	-23.20777	1.453828E-009	-0.0087786	5
	47	17	19.86229	306461.9	-139834	1	336856.7	-24.52652	2.609496E-009	-0.0087745	5
	48	17	15.83615	324788.3	-157387	1	360912.9	-25.85406	9.465041E-010	-0.0087823	5
	49	18	12.40079	345942.7	-174888.1	1	387636.7	-26.81845	1.674617E-009	-0.0087819	5
	50	18	9.93114	377578.5	-194635.3	1	424792.2	-27.27034	6.86826E-010	-0.008781	5
	51	19	7.944915	404229.5	-216517.2	1	458564.3	-28.17481	6.930097E-012	-0.0087688	5
	52	19	6.317385	434754.6	-237820	1	495550.1	-28.67959	1.069135E-010	-0.0087579	5
	53	20	5.008013	467670	-260616.2	1	535384	-29.1294	5.515806E-010	-0.0087721	5
	54	21	3.945707	501777.6	-284426.1	1	576783.3	-29.54617	6.747409E-010	-0.0087816	5
	55	22	3.158693	536727.4	-310802.1	1	620221.2	-30.07379	9.631508E-010	-0.0087745	5
	56	24	2.504006	573923.4	-339717.6	1	666930.4	-30.6222	8.240958E-010	-0.008773	5
	57	25	1.998082	612197.9	-371496.8	1	716097.9	-31.2504	5.341043E-010	-0.0088202	5
	58	27	1.584686	656813.1	-410576.6	1	774581.5	-32.00967	6.387011E-010	-0.0087874	5
	59	29	1.266892	698453.8	-451469.2	1	831662.2	-32.87797	7.755115E-010	-0.0087555	5
	60	31	0.999041	749396.3	-503671.4	1	902928.4	-33.90516	8.52634E-010	-0.008743	5
