EXPLAIN
TAG	EISPOT
TITLE	LABEL	Potentiostatic EIS	Test &Identifier
DATE	LABEL	3/9/2020	Date
TIME	LABEL	20:57:54	Time
NOTES	NOTES	1	&Notes...
	
PSTAT	PSTAT	REF600-11020	Potentiostat
VDC	POTEN	0.00000E+000	T	DC &Voltage (V)
FREQINIT	QUANT	1.00000E+006	Initial Fre&q. (Hz)
FREQFINAL	QUANT	1.00000E+000	Final Fre&q. (Hz)
PTSPERDEC	QUANT	1.00000E+001	Points/&decade
VAC	QUANT	2.50000E+001	AC &Voltage (mV rms)
AREA	QUANT	4.00000E-005	&Area (cm^2)
CONDIT	TWOPARAM	F	5.00000E+000	0.00000E+000	Conditionin&g	Time(s)	E(V)
DELAY	TWOPARAM	T	3.00000E+000	0.00000E+000	Init. De&lay	Time(s)	Stab.(mV/s)
SPEED	SELECTOR	0	&Optimize for:
ZGUESS	QUANT	1.00000E+003	E&stimated Z (ohms)
OCVCURVE	TABLE	12
	Pt	T	Vf	Vm	Ach	Over
	#	s	V vs. Ref.	V	V	bits
	0	0.258333	6.18335E-002	6.18335E-002	5.60064E-004	...........
	1	0.516667	6.18335E-002	6.18317E-002	5.64863E-004	...........
	2	0.775	6.18333E-002	6.18327E-002	5.60197E-004	...........
	3	1.03333	6.18331E-002	6.18354E-002	5.61730E-004	...........
	4	1.29167	6.18330E-002	6.18324E-002	5.64797E-004	...........
	5	1.55	6.18333E-002	6.18377E-002	5.64464E-004	...........
	6	1.80833	6.18339E-002	6.18402E-002	5.62864E-004	...........
	7	2.06667	6.18352E-002	6.18426E-002	5.67663E-004	...........
	8	2.325	6.18372E-002	6.18441E-002	5.59764E-004	...........
	9	2.58333	6.18396E-002	6.18491E-002	5.67930E-004	...........
	10	2.84167	6.18422E-002	6.18489E-002	5.65230E-004	...........
	11	3.1	6.18448E-002	6.18511E-002	5.62097E-004	...........
EOC	QUANT	0.0618448	Open Circuit (V)
PSTATMODEL	IQUANT	4	Pstat Model
PSTATSECTION	LABEL	REF600-11020	Pstat Section
PSTATSERIALNO	LABEL	11020	Pstat Serial Number
CTRLMODE	IQUANT	1	Control Mode
IESTAB	IQUANT	0	I/E Stability
CASPEED	IQUANT	1	Control Amp Speed
CONVENTION	IQUANT	1	Current Convention
ICHRANGE	IQUANT	2	Ich Range
ICHRANGEMODE	TOGGLE	F	Ich Auto Range
ICHOFFSETENABLE	TOGGLE	T	Ich Offset Enable
ICHOFFSET	QUANT	0	Ich Offset (V)
ICHFILTER	IQUANT	3	Ich Filter
VCHRANGE	IQUANT	2	Vch Range
VCHRANGEMODE	TOGGLE	F	Vch Auto Range
VCHOFFSETENABLE	TOGGLE	T	Vch Offset Enable
VCHOFFSET	QUANT	0	Vch Offset (V)
VCHFILTER	IQUANT	3	Vch Filter
ACHRANGE	IQUANT	2	Ach Range
ACHOFFSETENABLE	TOGGLE	F	Ach Offset Enable
ACHOFFSET	QUANT	0	Ach Offset (V)
ACHFILTER	IQUANT	3	Ach Filter
IERANGELOWERLIMIT	IQUANT	1	I/E Range Lower Limit
IERANGEMODE	TOGGLE	F	I/E AutoRange
IERANGE	IQUANT	8	I/E Range
POSFEEDENABLE	TOGGLE	F	Positive Feedback IR Comp
POSFEEDRESISTANCE	QUANT	0	Positive Feedback Resistance (ohm)
ACHSELECT	IQUANT	0	Ach Select
CABLEID	IQUANT	14	Cable ID
DCCALDATE	LABEL	2/27/2020	DC Calibration Date
ACCALDATE	LABEL	2/27/2020	AC Calibration Date
THERMOSELECT	IQUANT	1	Thermo Select
FRAMEWORKVERSION	QUANT	6.33	Framework Version
INSTRUMENTVERSION	LABEL	3.50	Instrument Version
ZCURVE	TABLE
	Pt	Time	Freq	Zreal	Zimag	Zsig	Zmod	Zphz	Idc	Vdc	IERange
	#	s	Hz	ohm	ohm	V	ohm	°	A	V	#
	0	1	1000078	2013.698	-2007.808	1	2843.637	-44.91608	9.926454E-008	0.0638754	8
	1	1	794390.6	2424.001	-2100.872	1	3207.716	-40.91534	3.653346E-008	0.0636298	8
	2	1	630984.4	2849.891	-2121.634	1	3552.915	-36.66626	5.154788E-008	0.0635188	8
	3	2	501234.4	3265.394	-2073.781	1	3868.251	-32.41875	4.264166E-008	0.0634555	8
	4	2	398109.4	3643.767	-1974.938	1	4144.565	-28.4579	8.685616E-008	0.0633799	8
	5	2	316265.6	3975.968	-1843.191	1	4382.428	-24.87164	-1.850173E-009	0.0634069	8
	6	3	251203.1	4254.867	-1697.975	1	4581.158	-21.75529	1.071935E-009	0.0634041	8
	7	3	199546.9	4486.473	-1554.548	1	4748.164	-19.11103	3.731013E-008	0.0633728	8
	8	3	158578.1	4685.061	-1430.038	1	4898.449	-16.97396	4.422911E-008	0.0633934	8
	9	4	125953.1	4895.231	-1233.231	1	5048.183	-14.14001	5.089266E-009	0.0633333	7
	10	4	100078.1	5011.817	-1155.747	1	5143.351	-12.98565	1.262155E-009	0.0633151	7
	11	4	79453.13	5131.788	-1110.631	1	5250.595	-12.21173	2.137247E-009	0.0633238	7
	12	5	63140.62	5242.039	-1086.429	1	5353.438	-11.70896	3.526656E-010	0.0633109	7
	13	5	50203.12	5348.319	-1084.935	1	5457.252	-11.46715	3.382808E-009	0.0633159	7
	14	5	39890.62	5452.38	-1105.156	1	5563.256	-11.45818	5.871236E-010	0.0633086	7
	15	6	31640.63	5558.831	-1151.173	1	5676.777	-11.69995	1.20439E-009	0.0633075	7
	16	6	25171.88	5667.465	-1221.08	1	5797.517	-12.15876	7.012007E-010	0.0633047	7
	17	6	20015.62	5783.658	-1318.187	1	5931.974	-12.83929	1.756033E-009	0.0633007	7
	18	6	15890.62	5907.004	-1445.054	1	6081.19	-13.74652	1.209335E-009	0.0633022	7
	19	7	12609.37	6043.612	-1606	1	6253.358	-14.88158	1.05839E-009	0.0632945	7
	20	7	10078.13	6188.952	-1798.76	1	6445.049	-16.20601	1.411867E-009	0.0632967	7
	21	7	8015.625	6353.344	-2036.017	1	6671.607	-17.76877	2.428099E-009	0.0633029	7
	22	8	6328.125	6543.878	-2333.664	1	6947.541	-19.62714	3.793128E-009	0.0633122	7
	23	8	5015.625	6755.17	-2683.102	1	7268.519	-21.6626	1.885695E-009	0.0632966	7
	24	8	3984.375	6993.119	-3101.639	1	7650.09	-23.91859	4.142709E-009	0.0633044	7
	25	9	3170.956	7262.111	-3589.651	1	8100.855	-26.30312	1.938199E-009	0.063298	7
	26	9	2527.573	7568.674	-4171.937	1	8642.331	-28.86404	2.254635E-009	0.0632962	7
	27	9	1976.103	7952.664	-4921.408	1	9352.279	-31.75078	2.463415E-009	0.0632914	7
	28	10	1577.524	8378.721	-5728.989	1	10150.09	-34.36255	1.064069E-010	0.0633447	6
	29	10	1265.625	8842.203	-6680.187	1	11081.94	-37.07064	-6.483737E-013	0.0633516	6
	30	10	998.264	9431.422	-7897.839	1	12301.53	-39.94269	1.258276E-010	0.0633472	6
	31	11	796.875	10088.75	-9269.641	1	13700.7	-42.57709	3.186044E-010	0.0633519	6
	32	11	627.7902	10905.25	-10983.34	1	15477.67	-45.20441	-3.079805E-011	0.063354	6
	33	11	505.5147	11788.55	-12826.06	1	17420.61	-47.41358	2.414053E-010	0.0633464	6
	34	12	397.9953	12942.35	-15213.19	1	19973.63	-49.61111	3.781149E-010	0.063363	6
	35	12	315.5048	14272.73	-17954.45	1	22936.28	-51.51737	3.633691E-010	0.0633619	6
	36	12	252.4038	15778.44	-21043.83	1	26302.13	-53.13784	2.60047E-010	0.0633619	6
	37	13	198.6229	17677.14	-24940.33	1	30569.61	-54.67186	3.352582E-010	0.0633586	6
	38	13	158.3615	19779.94	-29281.29	1	35336.09	-55.9604	2.83692E-010	0.0633559	6
	39	13	125.558	22280.61	-34518.46	1	41084.66	-57.15899	2.30209E-010	0.0633587	6
	40	14	100.4464	25063.92	-40456.08	1	47590.91	-58.22037	2.698418E-010	0.0633564	6
	41	14	79.00281	28549.87	-48052.06	1	55893.61	-59.28357	2.537191E-010	0.0633543	6
	42	14	63.3446	32290	-56365.7	1	64959.5	-60.19306	1.917832E-010	0.0633502	6
	43	15	49.86702	37052.58	-67107.45	1	76657.05	-61.09524	3.102349E-010	0.0633503	6
	44	15	39.72458	42465.04	-79333.98	1	89984.23	-61.84123	2.846066E-010	0.0633506	6
	45	15	31.6723	48943.2	-93740.22	1	105748.1	-62.43025	-1.046384E-010	0.0633561	5
	46	16	24.93351	57241.46	-112010.3	1	125789	-62.93125	-1.288709E-011	0.0633578	5
	47	16	19.86229	66911.63	-132772.8	1	148680.1	-63.2539	-4.814552E-010	0.063358	5
	48	16	15.83615	78919.37	-157057.7	1	175770.8	-63.32109	5.353019E-010	0.0633534	5
	49	16	12.40079	95118.8	-188064.1	1	210750.3	-63.17068	7.598671E-010	0.0633531	5
	50	17	9.93114	113695.1	-220706.5	1	248269.9	-62.74512	9.83404E-010	0.0633538	5
	51	17	7.944915	136611.2	-258846.4	1	292684.2	-62.17628	4.770024E-010	0.0633519	5
	52	18	6.317385	166414.1	-302966.5	1	345662.3	-61.22079	-2.007054E-012	0.0633651	5
	53	18	5.008013	203969.6	-352794.3	1	407513.7	-59.96545	1.757742E-010	0.0633671	5
	54	19	3.945707	250847.9	-409355.8	1	480100.8	-58.50058	3.286602E-010	0.0633577	5
	55	20	3.158693	302855.3	-465153	1	555057.3	-56.93236	1.101908E-010	0.0633743	5
	56	21	2.504006	366158.6	-527945.8	1	642494.3	-55.25663	-1.219547E-010	0.0633599	5
	57	22	1.998082	434073.1	-590401.1	1	732798	-53.67603	4.796064E-011	0.0633793	5
	58	24	1.584686	513977.9	-661282.5	1	837536.7	-52.14408	1.693139E-010	0.0634013	5
	59	26	1.266892	595653.3	-734343.4	1	945549.1	-50.9532	1.514324E-010	0.0633796	5
	60	28	0.999041	691179.3	-817406.6	1	1070459	-49.78295	9.37455E-011	0.0633492	4
