EXPLAIN
TAG	EISPOT
TITLE	LABEL	Potentiostatic EIS	Test &Identifier
DATE	LABEL	2/25/2020	Date
TIME	LABEL	15:19:57	Time
NOTES	NOTES	1	&Notes...
	
PSTAT	PSTAT	REF600-11020	Potentiostat
VDC	POTEN	0.00000E+000	T	DC &Voltage (V)
FREQINIT	QUANT	1.00000E+006	Initial Fre&q. (Hz)
FREQFINAL	QUANT	1.00000E+000	Final Fre&q. (Hz)
PTSPERDEC	QUANT	1.00000E+001	Points/&decade
VAC	QUANT	2.50000E+001	AC &Voltage (mV rms)
AREA	QUANT	1.60000E-004	&Area (cm^2)
CONDIT	TWOPARAM	F	1.50000E+001	0.00000E+000	Conditionin&g	Time(s)	E(V)
DELAY	TWOPARAM	F	1.00000E+002	0.00000E+000	Init. De&lay	Time(s)	Stab.(mV/s)
SPEED	SELECTOR	1	&Optimize for:
ZGUESS	QUANT	1.00000E+003	E&stimated Z (ohms)
OCVCURVE	TABLE	39
	Pt	T	Vf	Vm	Ach	Over
	#	s	V vs. Ref.	V	V	bits
	0	0.258333	3.57459E-002	3.57459E-002	6.01070E-004	...........
	1	0.516667	3.57406E-002	3.54669E-002	5.96770E-004	...........
	2	0.775	3.57077E-002	3.51947E-002	6.00504E-004	...........
	3	1.03333	3.56158E-002	3.50176E-002	5.97237E-004	...........
	4	1.29167	3.54586E-002	3.49072E-002	5.97570E-004	...........
	5	1.55	3.52684E-002	3.47919E-002	5.94704E-004	...........
	6	1.80833	3.50866E-002	3.46900E-002	5.98504E-004	...........
	7	2.06667	3.49337E-002	3.46018E-002	5.97971E-004	...........
	8	2.325	3.48091E-002	3.45244E-002	5.99304E-004	...........
	9	2.58333	3.47049E-002	3.44458E-002	6.04837E-004	...........
	10	2.84167	3.46140E-002	3.43754E-002	5.98970E-004	...........
	11	3.1	3.45317E-002	3.43049E-002	5.93204E-004	...........
	12	3.35833	3.44547E-002	3.42291E-002	5.95471E-004	...........
	13	3.61667	3.43811E-002	3.41679E-002	5.94871E-004	...........
	14	3.875	3.43096E-002	3.41077E-002	5.97937E-004	...........
	15	4.13333	3.42404E-002	3.40252E-002	5.96337E-004	...........
	16	4.39167	3.41689E-002	3.37620E-002	5.98504E-004	...........
	17	4.65	3.40699E-002	3.31073E-002	5.99570E-004	...........
	18	4.90833	3.38951E-002	3.28398E-002	5.96437E-004	...........
	19	5.16667	3.36089E-002	3.21000E-002	5.96437E-004	...........
	20	5.425	3.32087E-002	3.13201E-002	5.99204E-004	...........
	21	5.68333	3.27024E-002	3.08021E-002	6.04004E-004	...........
	22	5.94167	3.21203E-002	3.06780E-002	5.97604E-004	...........
	23	6.2	3.15510E-002	3.07470E-002	6.04004E-004	...........
	24	6.45833	3.11112E-002	3.09078E-002	5.98504E-004	...........
	25	6.71667	3.08698E-002	3.10257E-002	5.94937E-004	...........
	26	6.975	3.08140E-002	3.11590E-002	6.00870E-004	...........
	27	7.23333	3.08787E-002	3.12408E-002	6.01204E-004	...........
	28	7.49167	3.09929E-002	3.12504E-002	5.95637E-004	...........
	29	7.75	3.11044E-002	3.12276E-002	5.98004E-004	...........
	30	8.00833	3.11779E-002	3.09264E-002	5.97070E-004	...........
	31	8.26667	3.11836E-002	3.06904E-002	5.92504E-004	...........
	32	8.525	3.11119E-002	3.10260E-002	5.95137E-004	...........
	33	8.78333	3.10079E-002	3.09970E-002	5.92471E-004	...........
	34	9.04167	3.09425E-002	3.09907E-002	5.94337E-004	...........
	35	9.3	3.09374E-002	3.10187E-002	5.94237E-004	...........
	36	9.5583	3.09628E-002	3.10151E-002	5.95471E-004	...........
	37	9.8167	3.09890E-002	3.10133E-002	5.94537E-004	...........
	38	10.075	3.10056E-002	3.10152E-002	5.96404E-004	...........
EOC	QUANT	0.0310056	Open Circuit (V)
PSTATMODEL	IQUANT	4	Pstat Model
PSTATSECTION	LABEL	REF600-11020	Pstat Section
PSTATSERIALNO	LABEL	11020	Pstat Serial Number
CTRLMODE	IQUANT	1	Control Mode
IESTAB	IQUANT	0	I/E Stability
CASPEED	IQUANT	1	Control Amp Speed
CONVENTION	IQUANT	1	Current Convention
ICHRANGE	IQUANT	2	Ich Range
ICHRANGEMODE	TOGGLE	F	Ich Auto Range
ICHOFFSETENABLE	TOGGLE	T	Ich Offset Enable
ICHOFFSET	QUANT	0	Ich Offset (V)
ICHFILTER	IQUANT	3	Ich Filter
VCHRANGE	IQUANT	2	Vch Range
VCHRANGEMODE	TOGGLE	F	Vch Auto Range
VCHOFFSETENABLE	TOGGLE	T	Vch Offset Enable
VCHOFFSET	QUANT	0	Vch Offset (V)
VCHFILTER	IQUANT	3	Vch Filter
ACHRANGE	IQUANT	2	Ach Range
ACHOFFSETENABLE	TOGGLE	F	Ach Offset Enable
ACHOFFSET	QUANT	0	Ach Offset (V)
ACHFILTER	IQUANT	3	Ach Filter
IERANGELOWERLIMIT	IQUANT	1	I/E Range Lower Limit
IERANGEMODE	TOGGLE	F	I/E AutoRange
IERANGE	IQUANT	7	I/E Range
POSFEEDENABLE	TOGGLE	F	Positive Feedback IR Comp
POSFEEDRESISTANCE	QUANT	0	Positive Feedback Resistance (ohm)
ACHSELECT	IQUANT	0	Ach Select
CABLEID	IQUANT	14	Cable ID
DCCALDATE	LABEL	1/27/2020	DC Calibration Date
ACCALDATE	LABEL	1/27/2020	AC Calibration Date
THERMOSELECT	IQUANT	1	Thermo Select
FRAMEWORKVERSION	QUANT	6.33	Framework Version
INSTRUMENTVERSION	LABEL	3.50	Instrument Version
ZCURVE	TABLE
	Pt	Time	Freq	Zreal	Zimag	Zsig	Zmod	Zphz	Idc	Vdc	IERange
	#	s	Hz	ohm	ohm	V	ohm	°	A	V	#
	0	1	1000078	1527.071	-877.2438	1	1761.109	-29.87572	-1.235632E-006	0.0332137	8
	1	2	794390.6	1677.083	-834.2598	1	1873.124	-26.44791	1.733579E-006	0.0325949	8
	2	4	630984.4	1808.724	-786.4708	1	1972.313	-23.5004	-1.981821E-006	0.0330892	8
	3	5	501234.4	1920.725	-730.5849	1	2054.979	-20.82528	-5.384517E-008	0.0326919	8
	4	6	398109.4	2019.467	-685.426	1	2132.617	-18.74769	-3.653664E-007	0.0326482	8
	5	8	316265.6	2107.865	-648.1316	1	2205.259	-17.09175	9.591198E-007	0.0324043	8
	6	9	251203.1	2179.909	-615.5063	1	2265.138	-15.76725	-3.578226E-007	0.0326112	8
	7	11	199546.9	2255.001	-595.1995	1	2332.229	-14.78581	6.382105E-007	0.0323846	8
	8	12	158578.1	2325.015	-587.3568	1	2398.058	-14.17771	-4.444277E-007	0.0325541	8
	9	13	125953.1	2402.738	-563.8707	1	2468.015	-13.20709	-7.335619E-007	0.0342929	7
	10	15	100078.1	2474.372	-564.0115	1	2537.839	-12.84069	-1.454293E-009	0.0325243	7
	11	16	79453.13	2541.745	-578.3022	1	2606.703	-12.81783	5.37719E-008	0.0324181	7
	12	17	63140.62	2612.335	-598.5481	1	2680.029	-12.90507	1.303519E-008	0.0324873	7
	13	19	50203.12	2686.529	-622.9263	1	2757.803	-13.0545	5.374401E-008	0.0324121	7
	14	20	39890.62	2763.016	-652.979	1	2839.126	-13.29666	6.419076E-008	0.0323641	7
	15	21	31640.63	2842.539	-689.5305	1	2924.975	-13.63518	6.809522E-009	0.0324447	7
	16	23	25171.88	2924.086	-733.1785	1	3014.603	-14.07602	6.404543E-008	0.0323539	7
	17	24	20015.62	3008.809	-786.1344	1	3109.814	-14.64276	-1.039598E-008	0.0324909	7
	18	26	15890.62	3096.888	-850.4022	1	3211.526	-15.35489	1.474966E-008	0.0324715	7
	19	27	12609.37	3187.357	-927.8712	1	3319.667	-16.2308	1.589201E-008	0.0324421	7
	20	28	10078.13	3281.156	-1020.271	1	3436.122	-17.27302	8.046902E-011	0.0325003	7
	21	30	8015.625	3381.469	-1135.198	1	3566.933	-18.55749	-1.563487E-009	0.0324687	7
	22	31	6328.125	3493.783	-1279.358	1	3720.656	-20.11179	9.041093E-009	0.0324384	7
	23	32	5015.625	3616.365	-1452.429	1	3897.133	-21.88171	7.464278E-009	0.0324364	7
	24	34	3984.375	3752.896	-1658.43	1	4103.001	-23.84096	1.982533E-008	0.0324079	7
	25	35	3170.956	3907.344	-1901.307	1	4345.378	-25.94748	6.207641E-008	0.0323644	7
	26	36	2527.573	4081.317	-2182.802	1	4628.366	-28.13911	-3.088156E-008	0.0325198	7
	27	38	1976.103	4295.108	-2545.01	1	4992.498	-30.64831	-2.197975E-009	0.0324732	7
	28	39	1577.524	4509.634	-2933.478	1	5379.785	-33.04366	-1.138203E-008	0.0325019	7
	29	41	1265.625	4735.431	-3375.063	1	5815.097	-35.47845	1.253684E-008	0.032483	7
	30	42	998.264	4991.956	-3944.497	1	6362.286	-38.31475	1.249794E-008	0.0324907	7
	31	43	796.875	5253.671	-4595.188	1	6979.743	-41.17496	-3.109589E-008	0.0325144	7
	32	45	627.7902	5552.691	-5455.313	1	7784.138	-44.49317	-8.450749E-009	0.0324721	7
	33	46	505.5147	5845.681	-6413.172	1	8677.601	-47.65046	5.928129E-008	0.0323491	7
	34	47	397.9953	6203.617	-7717.805	1	9901.99	-51.20747	9.990362E-009	0.0324721	7
	35	49	315.5048	6613.124	-9291.973	1	11405.01	-54.56043	1.615674E-009	0.0324691	6
	36	50	252.4038	7077.85	-11153.17	1	13209.43	-57.60061	7.899804E-010	0.0324638	6
	37	52	198.6229	7681.231	-13612.33	1	15630	-60.56463	1.25235E-009	0.0324682	6
	38	53	158.3615	8385.769	-16470.44	1	18482.33	-63.01751	1.067279E-009	0.0324665	6
	39	54	125.558	9269.956	-20046.61	1	22086.16	-65.18322	1.204771E-009	0.0324666	6
	40	56	100.4464	10327.38	-24245.11	1	26352.99	-66.92806	6.582987E-010	0.0324582	6
	41	57	79.00281	11748.19	-29709.49	1	31947.99	-68.42439	1.345587E-009	0.032461	6
	42	58	63.3446	13636.41	-35739.48	1	38252.61	-69.11562	1.23047E-009	0.0324577	6
	43	60	49.86702	15706.08	-44119.47	1	46831.7	-70.40479	1.390645E-009	0.0324634	6
	44	61	39.72458	18569.07	-53284.78	1	56427.64	-70.7872	1.305869E-009	0.032462	6
	45	63	31.6723	22180.71	-64336.07	1	68052.28	-70.97768	1.372226E-009	0.0324594	6
	46	64	24.93351	27140.15	-78545.48	1	83102.23	-70.93822	1.201957E-009	0.0324564	6
	47	65	19.86229	33256.89	-94677.16	1	100348.3	-70.64535	1.174877E-009	0.0324662	6
	48	67	15.83615	41552.38	-113730.5	1	121083.5	-69.9298	-8.010365E-010	0.0324563	5
	49	68	12.40079	51398.07	-137145.7	1	146460.6	-69.45551	2.680531E-010	0.0324548	5
	50	70	9.93114	63971.27	-162740.3	1	174862	-68.54079	4.937667E-010	0.0324509	5
	51	71	7.944915	79097.52	-191924.2	1	207584.4	-67.60202	4.139698E-011	0.0324636	5
	52	73	6.317385	98193.1	-226423.9	1	246798.8	-66.5551	-4.410072E-011	0.0324523	5
	53	75	5.008013	121517.4	-266567	1	292958.1	-65.49363	1.2572E-011	0.0324487	5
	54	77	3.945707	150561.2	-313411.5	1	347700.2	-64.34062	1.831878E-010	0.0324534	5
	55	80	3.158693	182189.9	-363118.5	1	406261.3	-63.35539	9.539047E-011	0.0324474	5
	56	83	2.504006	220473	-421847.1	1	475986.7	-62.40675	1.344607E-010	0.0324655	5
	57	86	1.998082	262895.9	-486423.6	1	552921.5	-61.61024	3.185965E-010	0.0324214	5
	58	89	1.584686	312938.8	-564850.7	1	645745.3	-61.01266	3.177383E-011	0.0324234	5
	59	93	1.266892	368313.7	-648570.9	1	745854.7	-60.40841	1.990452E-010	0.0324174	5
	60	97	0.999041	434673.2	-754693.9	1	870921.1	-60.0598	4.530323E-011	0.032481	5
