EXPLAIN
TAG	EISPOT
TITLE	LABEL	Potentiostatic EIS	Test &Identifier
DATE	LABEL	6/14/2020	Date
TIME	LABEL	20:44:25	Time
NOTES	NOTES	1	&Notes...
	
PSTAT	PSTAT	REF600-10037	Potentiostat
VDC	POTEN	0.00000E+000	T	DC &Voltage (V)
FREQINIT	QUANT	1.00000E+006	Initial Fre&q. (Hz)
FREQFINAL	QUANT	1.00000E+000	Final Fre&q. (Hz)
PTSPERDEC	QUANT	1.00000E+001	Points/&decade
VAC	QUANT	2.50000E+001	AC &Voltage (mV rms)
AREA	QUANT	2.50000E-001	&Area (cm^2)
CONDIT	TWOPARAM	F	5.00000E+000	0.00000E+000	Conditionin&g	Time(s)	E(V)
DELAY	TWOPARAM	F	3.00000E+000	0.00000E+000	Init. De&lay	Time(s)	Stab.(mV/s)
SPEED	SELECTOR	0	&Optimize for:
ZGUESS	QUANT	1.00000E+003	E&stimated Z (ohms)
OCVCURVE	TABLE	39
	Pt	T	Vf	Vm	Ach	Over
	#	s	V vs. Ref.	V	V	bits
	0	0.258333	-1.02043E-001	-1.02043E-001	5.18854E-004	...........
	1	0.516667	-1.02052E-001	-1.02520E-001	5.26921E-004	...........
	2	0.775	-1.02108E-001	-1.02953E-001	5.26421E-004	...........
	3	1.03333	-1.02263E-001	-1.03353E-001	5.18554E-004	...........
	4	1.29167	-1.02538E-001	-1.03721E-001	5.25354E-004	...........
	5	1.55	-1.02896E-001	-1.04071E-001	5.21854E-004	...........
	6	1.80833	-1.03285E-001	-1.04389E-001	5.23188E-004	...........
	7	2.06667	-1.03664E-001	-1.04686E-001	5.24287E-004	...........
	8	2.325	-1.04019E-001	-1.04970E-001	5.23621E-004	...........
	9	2.58333	-1.04347E-001	-1.05228E-001	5.26487E-004	...........
	10	2.84167	-1.04651E-001	-1.05482E-001	5.25487E-004	...........
	11	3.1	-1.04934E-001	-1.05718E-001	5.27754E-004	...........
	12	3.35833	-1.05201E-001	-1.05943E-001	5.27554E-004	...........
	13	3.61667	-1.05453E-001	-1.06168E-001	5.28887E-004	...........
	14	3.875	-1.05693E-001	-1.06385E-001	5.27954E-004	...........
	15	4.13333	-1.05923E-001	-1.06585E-001	5.26721E-004	...........
	16	4.39167	-1.06145E-001	-1.06777E-001	5.23888E-004	...........
	17	4.65	-1.06358E-001	-1.06964E-001	5.27054E-004	...........
	18	4.90833	-1.06562E-001	-1.07145E-001	5.26621E-004	...........
	19	5.16667	-1.06758E-001	-1.07319E-001	5.22387E-004	...........
	20	5.425	-1.06945E-001	-1.07489E-001	5.28254E-004	...........
	21	5.68333	-1.07127E-001	-1.07653E-001	5.28354E-004	...........
	22	5.94167	-1.07302E-001	-1.07813E-001	5.29554E-004	...........
	23	6.2	-1.07472E-001	-1.07970E-001	5.30254E-004	...........
	24	6.45833	-1.07637E-001	-1.08121E-001	5.32721E-004	...........
	25	6.71667	-1.07798E-001	-1.08266E-001	5.31087E-004	...........
	26	6.975	-1.07954E-001	-1.08411E-001	5.36521E-004	...........
	27	7.23333	-1.08106E-001	-1.08556E-001	5.25354E-004	...........
	28	7.49167	-1.08254E-001	-1.08701E-001	5.30587E-004	...........
	29	7.75	-1.08400E-001	-1.08824E-001	5.33421E-004	...........
	30	8.00833	-1.08543E-001	-1.08971E-001	5.29221E-004	...........
	31	8.26667	-1.08683E-001	-1.09102E-001	5.32387E-004	...........
	32	8.525	-1.08820E-001	-1.09229E-001	5.25521E-004	...........
	33	8.78333	-1.08956E-001	-1.09353E-001	5.26087E-004	...........
	34	9.04167	-1.09088E-001	-1.09474E-001	5.27854E-004	...........
	35	9.3	-1.09216E-001	-1.09598E-001	5.24387E-004	...........
	36	9.5583	-1.09342E-001	-1.09708E-001	5.25587E-004	...........
	37	9.8167	-1.09464E-001	-1.09826E-001	5.24354E-004	...........
	38	10.075	-1.09583E-001	-1.09938E-001	5.26254E-004	...........
EOC	QUANT	-0.1095833	Open Circuit (V)
PSTATMODEL	IQUANT	4	Pstat Model
PSTATSECTION	LABEL	REF600-10037	Pstat Section
PSTATSERIALNO	LABEL	10037	Pstat Serial Number
CTRLMODE	IQUANT	1	Control Mode
IESTAB	IQUANT	0	I/E Stability
CASPEED	IQUANT	1	Control Amp Speed
CONVENTION	IQUANT	1	Current Convention
ICHRANGE	IQUANT	2	Ich Range
ICHRANGEMODE	TOGGLE	F	Ich Auto Range
ICHOFFSETENABLE	TOGGLE	T	Ich Offset Enable
ICHOFFSET	QUANT	0	Ich Offset (V)
ICHFILTER	IQUANT	3	Ich Filter
VCHRANGE	IQUANT	2	Vch Range
VCHRANGEMODE	TOGGLE	F	Vch Auto Range
VCHOFFSETENABLE	TOGGLE	T	Vch Offset Enable
VCHOFFSET	QUANT	0	Vch Offset (V)
VCHFILTER	IQUANT	3	Vch Filter
ACHRANGE	IQUANT	2	Ach Range
ACHOFFSETENABLE	TOGGLE	F	Ach Offset Enable
ACHOFFSET	QUANT	0	Ach Offset (V)
ACHFILTER	IQUANT	3	Ach Filter
IERANGELOWERLIMIT	IQUANT	1	I/E Range Lower Limit
IERANGEMODE	TOGGLE	F	I/E AutoRange
IERANGE	IQUANT	8	I/E Range
POSFEEDENABLE	TOGGLE	F	Positive Feedback IR Comp
POSFEEDRESISTANCE	QUANT	0	Positive Feedback Resistance (ohm)
ACHSELECT	IQUANT	0	Ach Select
CABLEID	IQUANT	14	Cable ID
DCCALDATE	LABEL	6/8/2020	DC Calibration Date
ACCALDATE	LABEL	6/8/2020	AC Calibration Date
THERMOSELECT	IQUANT	1	Thermo Select
FRAMEWORKVERSION	QUANT	6.33	Framework Version
INSTRUMENTVERSION	LABEL	3.50	Instrument Version
ZCURVE	TABLE
	Pt	Time	Freq	Zreal	Zimag	Zsig	Zmod	Zphz	Idc	Vdc	IERange
	#	s	Hz	ohm	ohm	V	ohm	°	A	V	#
	0	1	1000078	2319.414	-1840.896	1	2961.178	-38.43869	-1.985345E-007	-0.1003709	8
	1	2	794390.6	2701.677	-1838.155	1	3267.702	-34.23042	3.367322E-007	-0.1006469	8
	2	2	630984.4	3067.838	-1779.699	1	3546.683	-30.11867	-9.405923E-008	-0.1007077	8
	3	2	501234.4	3392.649	-1667.459	1	3780.276	-26.17373	-1.058151E-007	-0.1008533	8
	4	3	398109.4	3673.726	-1524.608	1	3977.523	-22.53861	7.786237E-008	-0.1008821	8
	5	3	316265.6	3903.121	-1371.88	1	4137.198	-19.3657	2.465838E-007	-0.1008882	8
	6	3	251203.1	4085.669	-1220.46	1	4264.061	-16.63179	4.640833E-008	-0.1008347	8
	7	4	199546.9	4232.565	-1089.488	1	4370.537	-14.43492	7.832875E-008	-0.100846	8
	8	4	158578.1	4348.444	-974.327	1	4456.263	-12.62929	4.352516E-007	-0.1008983	8
	9	4	125953.1	4521.232	-712.118	1	4576.97	-8.950854	-1.587127E-007	-0.1007653	7
	10	5	100078.1	4583.411	-664.0043	1	4631.258	-8.243161	-1.243628E-008	-0.1009194	7
	11	5	79453.13	4639.666	-637.7667	1	4683.294	-7.826805	-4.72441E-008	-0.1008061	7
	12	5	63140.62	4695.242	-627.2153	1	4736.95	-7.608828	5.378215E-008	-0.1009147	7
	13	6	50203.12	4751.106	-630.196	1	4792.719	-7.555719	-2.773991E-008	-0.1008237	7
	14	6	39890.62	4808.218	-648.4116	1	4851.742	-7.68028	-5.584686E-008	-0.1008203	7
	15	6	31640.63	4870.1	-681.1776	1	4917.507	-7.962266	-6.489187E-008	-0.1008411	7
	16	7	25171.88	4933.787	-728.726	1	4987.313	-8.401906	1.201238E-008	-0.100969	7
	17	7	20015.62	5002.178	-791.2656	1	5064.375	-8.988808	4.353852E-008	-0.1008903	7
	18	7	15890.62	5076.092	-872.8204	1	5150.585	-9.75645	-4.820055E-008	-0.1008158	7
	19	7	12609.37	5158.555	-973.367	1	5249.584	-10.6855	-3.017624E-008	-0.1008202	7
	20	8	10078.13	5244.954	-1094.868	1	5358.01	-11.791	5.778885E-008	-0.1009841	7
	21	8	8015.625	5342.332	-1242.956	1	5485.02	-13.09752	4.233668E-008	-0.1008982	7
	22	8	6328.125	5454.809	-1429.905	1	5639.11	-14.68883	4.801872E-008	-0.1009862	7
	23	9	5015.625	5578.456	-1650.379	1	5817.467	-16.48078	-3.455816E-008	-0.1009021	7
	24	9	3984.375	5718.349	-1911.737	1	6029.449	-18.48562	1.050893E-008	-0.100958	7
	25	9	3170.956	5874.363	-2223.727	1	6281.17	-20.73404	1.076268E-008	-0.1009561	7
	26	10	2527.573	6050.086	-2591.013	1	6581.557	-23.18354	-4.409448E-008	-0.1008177	7
	27	10	1976.103	6268.385	-3073.757	1	6981.449	-26.12142	-5.597655E-008	-0.1008137	7
	28	10	1577.524	6499.146	-3605.032	1	7432.035	-29.01683	-4.413137E-008	-0.1008195	7
	29	11	1265.625	6757.189	-4225.569	1	7969.633	-32.01956	6.253583E-008	-0.1009368	7
	30	11	998.264	7077.268	-5020.612	1	8677.227	-35.35188	1.229619E-008	-0.1008533	7
	31	11	796.875	7425.487	-5931.118	1	9503.47	-38.61616	3.00786E-008	-0.1008777	7
	32	12	627.7902	7864.291	-7076.909	1	10579.68	-41.98338	9.213791E-009	-0.1009502	6
	33	12	505.5147	8303.5	-8347.902	1	11774.36	-45.15278	1.33718E-009	-0.1010242	6
	34	12	397.9953	8873.188	-10041.25	1	13400.01	-48.53383	6.970478E-010	-0.1008907	6
	35	13	315.5048	9523.22	-12046.84	1	15356.37	-51.67307	7.876299E-010	-0.1008868	6
	36	13	252.4038	10265.15	-14382	1	17669.61	-54.48266	8.330683E-010	-0.1008924	6
	37	13	198.6229	11223.93	-17429.1	1	20730.41	-57.21942	7.408724E-010	-0.1008918	6
	38	13	158.3615	12334.65	-20931.38	1	24295.39	-59.48957	7.972245E-010	-0.1008922	6
	39	14	125.558	13741.72	-25271.89	1	28766.35	-61.46464	7.983084E-010	-0.1008904	6
	40	14	100.4464	15427.3	-30295.59	1	33997.41	-63.01361	8.53501E-010	-0.100889	6
	41	14	79.00281	17708.3	-36808.49	1	40846.65	-64.30813	9.890405E-010	-0.1008944	6
	42	15	63.3446	20298.17	-43987.91	1	48445.35	-65.2291	8.125031E-010	-0.1008938	6
	43	15	49.86702	23898.8	-53234.11	1	58352.58	-65.82288	7.76236E-010	-0.1008951	6
	44	16	39.72458	28244.19	-63719.62	1	69698.81	-66.09433	7.492814E-010	-0.1008867	6
	45	16	31.6723	33665.54	-76075.31	1	83191.48	-66.12922	7.592393E-010	-0.1008874	6
	46	16	24.93351	40852.54	-91430.3	1	100142	-65.92414	3.008143E-010	-0.1008922	6
	47	17	19.86229	48977.49	-107855.5	1	118455.1	-65.57707	-4.906838E-009	-0.1095213	5
	48	17	15.83615	59388.71	-127269.8	1	140444.3	-64.98453	-3.167867E-009	-0.1095285	5
	49	17	12.40079	74397.65	-152061.6	1	169286	-63.92935	-2.466227E-009	-0.1095253	5
	50	18	9.93114	91110.62	-177279.3	1	199321.6	-62.79964	-1.904617E-009	-0.1095215	5
	51	18	7.944915	111683	-205376.5	1	233779	-61.46281	-1.60534E-009	-0.1095207	5
	52	18	6.317385	136822.7	-236811.7	1	273496.3	-59.98196	-9.808658E-010	-0.1095199	5
	53	19	5.008013	166687.7	-271408.9	1	318508.4	-58.44354	-6.720273E-010	-0.1095226	5
	54	20	3.945707	201489.8	-309610.2	1	369400.3	-56.94452	-4.162018E-010	-0.1095197	5
	55	21	3.158693	237982.3	-348437.9	1	421953.2	-55.66702	-3.320185E-010	-0.1095217	5
	56	23	2.504006	280210.9	-393061.8	1	482717	-54.51521	-1.733591E-010	-0.1095251	5
	57	24	1.998082	322883.8	-441483.1	1	546956.4	-53.8197	-1.027959E-010	-0.1095224	5
	58	27	1.584686	369524.1	-498687.1	1	620674.6	-53.46178	-1.80446E-012	-0.1095233	5
	59	29	1.266892	417757.8	-563644.6	1	701581.6	-53.45517	6.138794E-011	-0.1095265	5
	60	32	0.999041	473178.6	-646062.7	1	800809	-53.78082	6.938793E-011	-0.1095297	5
