EXPLAIN
TAG	EISPOT
TITLE	LABEL	Potentiostatic EIS	Test &Identifier
DATE	LABEL	3/17/2020	Date
TIME	LABEL	15:21:59	Time
NOTES	NOTES	1	&Notes...
	
PSTAT	PSTAT	REF600-11020	Potentiostat
VDC	POTEN	0.00000E+000	T	DC &Voltage (V)
FREQINIT	QUANT	1.00000E+006	Initial Fre&q. (Hz)
FREQFINAL	QUANT	1.00000E+000	Final Fre&q. (Hz)
PTSPERDEC	QUANT	1.00000E+001	Points/&decade
VAC	QUANT	2.50000E+001	AC &Voltage (mV rms)
AREA	QUANT	4.00000E-004	&Area (cm^2)
CONDIT	TWOPARAM	F	5.00000E+000	0.00000E+000	Conditionin&g	Time(s)	E(V)
DELAY	TWOPARAM	T	3.00000E+000	0.00000E+000	Init. De&lay	Time(s)	Stab.(mV/s)
SPEED	SELECTOR	0	&Optimize for:
ZGUESS	QUANT	5.00000E+003	E&stimated Z (ohms)
OCVCURVE	TABLE	12
	Pt	T	Vf	Vm	Ach	Over
	#	s	V vs. Ref.	V	V	bits
	0	0.258333	7.96725E-002	7.96725E-002	5.91611E-004	...........
	1	0.516667	7.96725E-002	7.96727E-002	5.94211E-004	...........
	2	0.775	7.96725E-002	7.96725E-002	5.86445E-004	...........
	3	1.03333	7.96725E-002	7.96708E-002	5.85311E-004	...........
	4	1.29167	7.96723E-002	7.96662E-002	5.90611E-004	...........
	5	1.55	7.96714E-002	7.96665E-002	5.93178E-004	...........
	6	1.80833	7.96699E-002	7.96655E-002	5.94111E-004	...........
	7	2.06667	7.96682E-002	7.96627E-002	5.91645E-004	...........
	8	2.325	7.96665E-002	7.96626E-002	5.93511E-004	...........
	9	2.58333	7.96650E-002	7.96608E-002	5.92945E-004	...........
	10	2.84167	7.96636E-002	7.96615E-002	5.94178E-004	...........
	11	3.1	7.96625E-002	7.96591E-002	5.93245E-004	...........
EOC	QUANT	0.0796625	Open Circuit (V)
PSTATMODEL	IQUANT	4	Pstat Model
PSTATSECTION	LABEL	REF600-11020	Pstat Section
PSTATSERIALNO	LABEL	11020	Pstat Serial Number
CTRLMODE	IQUANT	1	Control Mode
IESTAB	IQUANT	0	I/E Stability
CASPEED	IQUANT	1	Control Amp Speed
CONVENTION	IQUANT	1	Current Convention
ICHRANGE	IQUANT	2	Ich Range
ICHRANGEMODE	TOGGLE	F	Ich Auto Range
ICHOFFSETENABLE	TOGGLE	T	Ich Offset Enable
ICHOFFSET	QUANT	0	Ich Offset (V)
ICHFILTER	IQUANT	3	Ich Filter
VCHRANGE	IQUANT	2	Vch Range
VCHRANGEMODE	TOGGLE	F	Vch Auto Range
VCHOFFSETENABLE	TOGGLE	T	Vch Offset Enable
VCHOFFSET	QUANT	0	Vch Offset (V)
VCHFILTER	IQUANT	3	Vch Filter
ACHRANGE	IQUANT	2	Ach Range
ACHOFFSETENABLE	TOGGLE	F	Ach Offset Enable
ACHOFFSET	QUANT	0	Ach Offset (V)
ACHFILTER	IQUANT	1	Ach Filter
IERANGELOWERLIMIT	IQUANT	1	I/E Range Lower Limit
IERANGEMODE	TOGGLE	F	I/E AutoRange
IERANGE	IQUANT	7	I/E Range
POSFEEDENABLE	TOGGLE	F	Positive Feedback IR Comp
POSFEEDRESISTANCE	QUANT	0	Positive Feedback Resistance (ohm)
ACHSELECT	IQUANT	0	Ach Select
CABLEID	IQUANT	14	Cable ID
DCCALDATE	LABEL	2/27/2020	DC Calibration Date
ACCALDATE	LABEL	2/27/2020	AC Calibration Date
THERMOSELECT	IQUANT	1	Thermo Select
FRAMEWORKVERSION	QUANT	6.33	Framework Version
INSTRUMENTVERSION	LABEL	3.50	Instrument Version
ZCURVE	TABLE
	Pt	Time	Freq	Zreal	Zimag	Zsig	Zmod	Zphz	Idc	Vdc	IERange
	#	s	Hz	ohm	ohm	V	ohm	°	A	V	#
	0	1	1000078	1933.987	-2219.295	1	2943.736	-48.92974	7.604059E-008	0.0822033	8
	1	1	794390.6	2261.364	-2458.546	1	3340.392	-47.39223	1.397832E-007	0.0817861	8
	2	2	630984.4	2626.245	-2702.348	1	3768.268	-45.81824	6.607592E-008	0.0816474	8
	3	2	501234.4	3020.712	-2948.985	1	4221.518	-44.31161	7.669705E-008	0.0815218	8
	4	2	398109.4	3447.801	-3202.234	1	4705.489	-42.88519	8.972535E-008	0.0814653	8
	5	3	316265.6	3908.25	-3456.301	1	5217.32	-41.48827	5.023715E-008	0.0814586	8
	6	3	251203.1	4393.674	-3741.519	1	5770.904	-40.41671	5.172848E-008	0.0814198	8
	7	3	199546.9	4915.97	-4026.36	1	6354.395	-39.31873	1.207232E-007	0.0813889	8
	8	3	158578.1	5466.756	-4361.14	1	6993.208	-38.58134	5.144481E-008	0.0814107	8
	9	4	125953.1	6187.87	-4614.854	1	7719.236	-36.71522	3.843323E-009	0.0813545	7
	10	4	100078.1	6811.178	-5004.876	1	8452.273	-36.30857	4.34289E-009	0.0813443	7
	11	4	79453.13	7533.069	-5450.34	1	9298.028	-35.88656	4.727951E-009	0.0813353	7
	12	5	63140.62	8337.028	-5907.187	1	10217.68	-35.31941	4.062391E-009	0.0813229	7
	13	5	50203.12	9228.513	-6383.358	1	11221.08	-34.67159	5.093458E-009	0.0813294	7
	14	5	39890.62	10213.27	-6831.718	1	12287.52	-33.77881	5.176924E-009	0.0813247	7
	15	6	31640.63	11290.39	-7269.424	1	13428.23	-32.77585	4.979225E-009	0.0813216	7
	16	6	25171.88	12421.82	-7669.326	1	14598.63	-31.6915	5.001112E-009	0.0813226	7
	17	6	20015.62	13590.65	-8026.978	1	15784.11	-30.56716	4.547921E-009	0.0813168	7
	18	7	15890.62	14799.72	-8380.298	1	17007.68	-29.52058	5.884511E-009	0.0813252	7
	19	7	12609.37	16209.28	-8457.445	1	18283.03	-27.554	6.219194E-010	0.081374	6
	20	7	10078.13	17319.45	-8832.418	1	19441.58	-27.02027	5.926888E-010	0.0813714	6
	21	8	8015.625	18445.57	-9275.383	1	20646.35	-26.69561	5.419017E-010	0.0813741	6
	22	8	6328.125	19619.79	-9839.4	1	21948.81	-26.63395	5.108029E-010	0.0813676	6
	23	8	5015.625	20811.37	-10527.82	1	23322.7	-26.83343	5.086102E-010	0.0813638	6
	24	9	3984.375	22039.46	-11369.57	1	24799.29	-27.28801	6.806566E-010	0.0813672	6
	25	9	3170.956	23360.46	-12383.45	1	26439.76	-27.92819	6.20798E-010	0.0813689	6
	26	9	2527.573	24786.93	-13566.74	1	28256.83	-28.69341	3.865307E-010	0.0813685	6
	27	9	1976.103	26511.27	-15070.31	1	30495.27	-29.61603	5.313993E-010	0.08137	6
	28	10	1577.524	28261.89	-16632.35	1	32792.82	-30.47715	5.873474E-010	0.0813712	6
	29	10	1265.625	30123.53	-18340.18	1	35267.4	-31.33441	4.290456E-010	0.0813692	6
	30	10	998.264	32276.21	-20436.91	1	38202.36	-32.3415	5.023837E-010	0.0813699	6
	31	11	796.875	34464.37	-22686.18	1	41260.82	-33.35492	3.56064E-010	0.0813629	6
	32	11	627.7902	36873.64	-25515.1	1	44840.67	-34.6817	5.105475E-010	0.0813599	6
	33	11	505.5147	39169.23	-28576.83	1	48485.71	-36.1135	3.11997E-010	0.0813619	6
	34	12	397.9953	41951.65	-32732.35	1	53210.41	-37.96277	5.015841E-010	0.081379	6
	35	12	315.5048	44991.22	-37681.18	1	58686.3	-39.94695	4.951047E-010	0.0813754	6
	36	12	252.4038	48420.09	-43453.82	1	65059.51	-41.90588	5.458141E-010	0.0813683	6
	37	13	198.6229	52881.42	-50868.01	1	73375.74	-43.88823	5.09459E-010	0.0813643	6
	38	13	158.3615	58108.53	-59122.54	1	82897.98	-45.49557	5.54256E-010	0.0813672	6
	39	13	125.558	64724.29	-68831.8	1	94483.07	-46.76158	5.624237E-010	0.0813703	6
	40	14	100.4464	72568.65	-79135.59	1	107371.5	-47.47866	1.082047E-010	0.0813736	5
	41	14	79.00281	82523.66	-91689.33	1	123357.6	-48.01166	1.588338E-010	0.0813624	5
	42	14	63.3446	93247.36	-104350.4	1	139943.1	-48.21607	1.124892E-010	0.08136	5
	43	15	49.86702	106600.7	-119407.8	1	160068.5	-48.24328	-4.741506E-011	0.0813663	5
	44	15	39.72458	120972.9	-135157.7	1	181389.3	-48.16986	2.684494E-011	0.0813653	5
	45	15	31.6723	137038.7	-152587.3	1	205091.4	-48.07298	7.323891E-012	0.0813695	5
	46	16	24.93351	155925.1	-173122.6	1	232989.4	-47.9918	-8.23626E-011	0.0813648	5
	47	16	19.86229	175868.8	-195463	1	262936.5	-48.02054	-5.809905E-010	0.0813636	5
	48	16	15.83615	198642.9	-220405.9	1	296711.6	-47.97294	5.627241E-010	0.0813611	5
	49	17	12.40079	225877.9	-251129.6	1	337767.5	-48.03028	5.047015E-010	0.08136	5
	50	17	9.93114	253774.3	-282739.3	1	379924.8	-48.09026	7.163238E-010	0.0813642	5
	51	17	7.944915	285501.4	-320071.5	1	428901.9	-48.26727	3.707483E-010	0.0813562	5
	52	18	6.317385	323287.5	-363140.1	1	486195	-48.32275	6.785085E-011	0.0813689	5
	53	18	5.008013	367814.4	-412710.2	1	552826.5	-48.29203	2.06765E-010	0.0813703	5
	54	19	3.945707	421808.7	-470782.2	1	632106.4	-48.14048	2.770743E-010	0.0813576	5
	55	20	3.158693	479944.7	-529909.6	1	714948.3	-47.83253	1.604167E-010	0.0813784	5
	56	21	2.504006	551996.3	-598365.5	1	814089.1	-47.30825	-2.03509E-011	0.08136	5
	57	23	1.998082	630845.1	-668163.9	1	918917.1	-46.64558	5.738543E-011	0.0813733	5
	58	24	1.584686	728463.6	-745548.5	1	1042354	-45.66407	1.664029E-010	0.0814033	4
	59	26	1.266892	830290	-824538	1	1170147	-44.80085	1.819789E-010	0.0813795	4
	60	29	0.999041	949445.4	-908938.3	1	1314388	-43.75132	1.648688E-010	0.0813477	4
