EXPLAIN
TAG	EISPOT
TITLE	LABEL	Potentiostatic EIS	Test &Identifier
DATE	LABEL	2/21/2020	Date
TIME	LABEL	16:54:35	Time
NOTES	NOTES	1	&Notes...
	
PSTAT	PSTAT	REF600-11020	Potentiostat
VDC	POTEN	0.00000E+000	T	DC &Voltage (V)
FREQINIT	QUANT	1.00000E+006	Initial Fre&q. (Hz)
FREQFINAL	QUANT	1.00000E+000	Final Fre&q. (Hz)
PTSPERDEC	QUANT	1.00000E+001	Points/&decade
VAC	QUANT	2.50000E+001	AC &Voltage (mV rms)
AREA	QUANT	2.08200E-005	&Area (cm^2)
CONDIT	TWOPARAM	F	1.50000E+001	0.00000E+000	Conditionin&g	Time(s)	E(V)
DELAY	TWOPARAM	F	1.00000E+002	0.00000E+000	Init. De&lay	Time(s)	Stab.(mV/s)
SPEED	SELECTOR	1	&Optimize for:
ZGUESS	QUANT	2.00000E+003	E&stimated Z (ohms)
OCVCURVE	TABLE	39
	Pt	T	Vf	Vm	Ach	Over
	#	s	V vs. Ref.	V	V	bits
	0	0.258333	1.37828E-002	1.37828E-002	5.79137E-004	...........
	1	0.516667	1.37866E-002	1.39789E-002	5.76938E-004	...........
	2	0.775	1.38093E-002	1.41494E-002	5.77937E-004	...........
	3	1.03333	1.38726E-002	1.43147E-002	5.74404E-004	...........
	4	1.29167	1.39819E-002	1.43575E-002	5.77637E-004	...........
	5	1.55	1.41176E-002	1.45573E-002	5.78571E-004	...........
	6	1.80833	1.42536E-002	1.44975E-002	5.84171E-004	...........
	7	2.06667	1.43664E-002	1.43105E-002	5.81971E-004	...........
	8	2.325	1.44248E-002	1.41152E-002	5.76138E-004	...........
	9	2.58333	1.43978E-002	1.37489E-002	5.75938E-004	...........
	10	2.84167	1.42754E-002	1.35795E-002	5.79337E-004	...........
	11	3.1	1.40786E-002	1.34258E-002	5.74637E-004	...........
	12	3.35833	1.38557E-002	1.34668E-002	5.75471E-004	...........
	13	3.61667	1.36656E-002	1.36055E-002	5.74004E-004	...........
	14	3.875	1.35544E-002	1.36969E-002	5.76004E-004	...........
	15	4.13333	1.35316E-002	1.35750E-002	5.77404E-004	...........
	16	4.39167	1.35610E-002	1.35826E-002	5.76437E-004	...........
	17	4.65	1.35946E-002	1.37404E-002	5.77704E-004	...........
	18	4.90833	1.36203E-002	1.37899E-002	5.78737E-004	...........
	19	5.16667	1.36543E-002	1.37677E-002	5.78171E-004	...........
	20	5.425	1.37022E-002	1.39056E-002	5.77637E-004	...........
	21	5.68333	1.37556E-002	1.39011E-002	5.74437E-004	...........
	22	5.94167	1.38072E-002	1.38445E-002	5.77471E-004	...........
	23	6.2	1.38456E-002	1.37864E-002	5.78571E-004	...........
	24	6.45833	1.38607E-002	1.39539E-002	5.78937E-004	...........
	25	6.71667	1.38625E-002	1.39121E-002	5.81337E-004	...........
	26	6.975	1.38702E-002	1.38718E-002	5.81237E-004	...........
	27	7.23333	1.38863E-002	1.39985E-002	5.77837E-004	...........
	28	7.49167	1.39062E-002	1.40364E-002	5.74537E-004	...........
	29	7.75	1.39330E-002	1.39722E-002	5.79604E-004	...........
	30	8.00833	1.39647E-002	1.40574E-002	5.79104E-004	...........
	31	8.26667	1.39949E-002	1.41786E-002	5.72338E-004	...........
	32	8.525	1.40314E-002	1.42855E-002	5.73604E-004	...........
	33	8.78333	1.40888E-002	1.43483E-002	5.77937E-004	...........
	34	9.04167	1.41762E-002	1.48855E-002	5.77571E-004	...........
	35	9.3	1.42999E-002	1.44839E-002	5.74071E-004	...........
	36	9.5583	1.44525E-002	1.52804E-002	5.76304E-004	...........
	37	9.8167	1.46253E-002	1.52945E-002	5.72471E-004	...........
	38	10.075	1.48215E-002	1.51848E-002	5.81604E-004	...........
EOC	QUANT	0.0148215	Open Circuit (V)
PSTATMODEL	IQUANT	4	Pstat Model
PSTATSECTION	LABEL	REF600-11020	Pstat Section
PSTATSERIALNO	LABEL	11020	Pstat Serial Number
CTRLMODE	IQUANT	1	Control Mode
IESTAB	IQUANT	0	I/E Stability
CASPEED	IQUANT	1	Control Amp Speed
CONVENTION	IQUANT	1	Current Convention
ICHRANGE	IQUANT	2	Ich Range
ICHRANGEMODE	TOGGLE	F	Ich Auto Range
ICHOFFSETENABLE	TOGGLE	T	Ich Offset Enable
ICHOFFSET	QUANT	0	Ich Offset (V)
ICHFILTER	IQUANT	3	Ich Filter
VCHRANGE	IQUANT	2	Vch Range
VCHRANGEMODE	TOGGLE	F	Vch Auto Range
VCHOFFSETENABLE	TOGGLE	T	Vch Offset Enable
VCHOFFSET	QUANT	0	Vch Offset (V)
VCHFILTER	IQUANT	3	Vch Filter
ACHRANGE	IQUANT	2	Ach Range
ACHOFFSETENABLE	TOGGLE	F	Ach Offset Enable
ACHOFFSET	QUANT	0	Ach Offset (V)
ACHFILTER	IQUANT	3	Ach Filter
IERANGELOWERLIMIT	IQUANT	1	I/E Range Lower Limit
IERANGEMODE	TOGGLE	F	I/E AutoRange
IERANGE	IQUANT	7	I/E Range
POSFEEDENABLE	TOGGLE	F	Positive Feedback IR Comp
POSFEEDRESISTANCE	QUANT	0	Positive Feedback Resistance (ohm)
ACHSELECT	IQUANT	0	Ach Select
CABLEID	IQUANT	14	Cable ID
DCCALDATE	LABEL	1/27/2020	DC Calibration Date
ACCALDATE	LABEL	1/27/2020	AC Calibration Date
THERMOSELECT	IQUANT	1	Thermo Select
FRAMEWORKVERSION	QUANT	6.33	Framework Version
INSTRUMENTVERSION	LABEL	3.50	Instrument Version
ZCURVE	TABLE
	Pt	Time	Freq	Zreal	Zimag	Zsig	Zmod	Zphz	Idc	Vdc	IERange
	#	s	Hz	ohm	ohm	V	ohm	°	A	V	#
	0	1	1000078	1746.963	-1980.927	1	2641.203	-48.59119	-1.926068E-006	0.0170683	8
	1	2	794390.6	2108.819	-2112.479	1	2984.91	-45.04967	2.727827E-006	0.0162534	8
	2	4	630984.4	2485.498	-2201.573	1	3320.335	-41.53348	-2.217047E-006	0.0168802	8
	3	5	501234.4	2874.772	-2271.975	1	3664.176	-38.31985	2.045647E-006	0.0160606	8
	4	6	398109.4	3248.498	-2291.998	1	3975.675	-35.20512	6.60696E-007	0.0161983	8
	5	8	316265.6	3628.401	-2295.338	1	4293.468	-32.31758	1.052549E-006	0.0160969	8
	6	9	251203.1	3956.842	-2299.737	1	4576.614	-30.16537	-1.114417E-006	0.01651	8
	7	10	199546.9	4282.66	-2305.131	1	4863.621	-28.29124	1.607268E-006	0.0159853	8
	8	12	158578.1	4603.066	-2310.311	1	5150.316	-26.6524	1.027612E-006	0.016086	8
	9	13	125953.1	4926.475	-2314.769	1	5443.189	-25.16711	-1.958751E-007	0.0165802	7
	10	15	100078.1	5226.506	-2382.209	1	5743.805	-24.50321	1.186487E-008	0.0162853	7
	11	16	79453.13	5531.034	-2459.33	1	6053.151	-23.97194	-2.786868E-008	0.0163167	7
	12	17	63140.62	5843.559	-2560.64	1	6379.973	-23.66297	-2.716941E-008	0.016314	7
	13	19	50203.12	6171.123	-2687.291	1	6730.846	-23.53131	1.678751E-008	0.0162044	7
	14	20	39890.62	6516.822	-2838.895	1	7108.325	-23.53918	-1.658578E-008	0.0163031	7
	15	21	31640.63	6880.39	-3014.652	1	7511.851	-23.66069	-5.443644E-009	0.016265	7
	16	23	25171.88	7260.732	-3215.179	1	7940.756	-23.8846	-1.872513E-008	0.0162857	7
	17	24	20015.62	7661.847	-3446.828	1	8401.46	-24.22151	-1.586101E-008	0.0163098	7
	18	25	15890.62	8084.963	-3714.755	1	8897.53	-24.67711	-1.471662E-008	0.0162956	7
	19	27	12609.37	8550.831	-4008.172	1	9443.63	-25.11467	-4.548331E-010	0.0162843	6
	20	28	10078.13	9009.068	-4365.316	1	10010.96	-25.85236	1.12123E-010	0.0162304	6
	21	30	8015.625	9510.79	-4798.261	1	10652.63	-26.77126	8.869905E-011	0.0162319	6
	22	31	6328.125	10071.96	-5325.286	1	11393.11	-27.86648	3.587418E-009	0.0162368	6
	23	32	5015.625	10689.23	-5936.126	1	12226.91	-29.04504	3.833721E-009	0.0162331	6
	24	34	3984.375	11376.04	-6640.46	1	13172.32	-30.2731	-4.936799E-010	0.0162783	6
	25	35	3170.956	12152	-7440.678	1	14249.03	-31.47917	-8.749586E-010	0.0162805	6
	26	36	2527.573	13017.03	-8333.188	1	15455.91	-32.62639	6.578177E-009	0.0161459	6
	27	38	1976.103	14078.61	-9424.902	1	16942.14	-33.80027	-6.113282E-010	0.0162918	6
	28	39	1577.524	15149.49	-10529.83	1	18449.51	-34.80169	4.797173E-009	0.0162102	6
	29	41	1265.625	16293.81	-11736.32	1	20080.57	-35.76497	1.358607E-009	0.0161933	6
	30	42	998.264	17599.79	-13237.3	1	22022.23	-36.94785	-8.233558E-010	0.0162837	6
	31	43	796.875	18916.71	-14892.67	1	24075.58	-38.21251	-5.721065E-010	0.0162284	6
	32	45	627.7902	20405.36	-16966.57	1	26537.58	-39.74272	-1.468918E-009	0.0162829	6
	33	46	505.5147	21857.91	-19236.95	1	29117.49	-41.35071	6.561299E-009	0.0161423	6
	34	47	397.9953	23667.65	-22286.64	1	32509.26	-43.27869	7.569714E-010	0.016266	6
	35	49	315.5048	25701.2	-25884.58	1	36476.88	-45.20368	8.763624E-010	0.0162663	6
	36	50	252.4038	28008.3	-30020.51	1	41057.23	-46.98599	3.076954E-010	0.0162579	6
	37	51	198.6229	31016.89	-35299.73	1	46990.62	-48.69513	7.362636E-010	0.0162617	6
	38	53	158.3615	34467.58	-41163.8	1	53688.66	-50.05964	6.520472E-010	0.0162583	6
	39	54	125.558	38795.93	-48048.67	1	61755.96	-51.08156	7.349191E-010	0.0162618	6
	40	56	100.4464	43666.96	-55637.56	1	70727.23	-51.87352	8.748492E-010	0.0162577	6
	41	57	79.00281	50210.53	-64749.41	1	81936.45	-52.20788	7.078645E-010	0.0162561	6
	42	58	63.3446	57093.82	-75326.16	1	94518.44	-52.83952	7.424312E-010	0.0162511	6
	43	60	49.86702	64648.71	-85700.26	1	107349.9	-52.97062	3.671326E-010	0.0162491	5
	44	61	39.72458	74220.37	-98614	1	123423.6	-53.03359	-7.091073E-011	0.0162548	5
	45	63	31.6723	84835.95	-113286.4	1	141530.8	-53.17184	-3.507116E-010	0.0162534	5
	46	64	24.93351	96512.2	-130736.9	1	162501.5	-53.56462	-7.703129E-011	0.0162525	5
	47	65	19.86229	109265.3	-150270.5	1	185795.9	-53.97821	-3.581274E-010	0.0162547	5
	48	67	15.83615	123367.5	-172099.7	1	211749.5	-54.36563	7.33362E-011	0.0162492	5
	49	68	12.40079	140749	-202027.2	1	246222	-55.13571	1.247708E-010	0.0162502	5
	50	70	9.93114	161057	-234090.8	1	284144.1	-55.47161	2.753503E-010	0.016252	5
	51	71	7.944915	184962.5	-271644.8	1	328636.7	-55.74911	-3.347861E-010	0.0162515	5
	52	73	6.317385	213645.1	-315897.9	1	381360.3	-55.9291	-4.638714E-011	0.0162423	5
	53	75	5.008013	249894.1	-368003.5	1	444829.8	-55.82139	-4.39025E-011	0.0162585	5
	54	77	3.945707	294803.6	-427794.7	1	519535.8	-55.42834	-1.871784E-010	0.0162508	5
	55	80	3.158693	346407.9	-490136.2	1	600193.3	-54.74892	1.68572E-010	0.0162537	5
	56	83	2.504006	409656	-559966.9	1	693816.3	-53.81185	-2.488978E-010	0.0162545	5
	57	86	1.998082	480189.4	-631965.4	1	793701.6	-52.77116	1.37047E-011	0.0162117	5
	58	89	1.584686	559284.8	-711067.3	1	904663.6	-51.81344	-3.306489E-011	0.0162672	5
	59	93	1.266892	647673.8	-796153.8	1	1026325	-50.87153	-5.812259E-011	0.0161651	4
	60	97	0.999041	746154.9	-893117.3	1	1163789	-50.12293	1.205493E-010	0.0162361	4
