EXPLAIN
TAG	EISPOT
TITLE	LABEL	Potentiostatic EIS	Test &Identifier
DATE	LABEL	3/12/2020	Date
TIME	LABEL	13:00:35	Time
NOTES	NOTES	1	&Notes...
	
PSTAT	PSTAT	REF600-11020	Potentiostat
VDC	POTEN	0.00000E+000	T	DC &Voltage (V)
FREQINIT	QUANT	1.00000E+006	Initial Fre&q. (Hz)
FREQFINAL	QUANT	1.00000E+000	Final Fre&q. (Hz)
PTSPERDEC	QUANT	1.00000E+001	Points/&decade
VAC	QUANT	2.50000E+001	AC &Voltage (mV rms)
AREA	QUANT	2.50000E-001	&Area (cm^2)
CONDIT	TWOPARAM	F	5.00000E+000	0.00000E+000	Conditionin&g	Time(s)	E(V)
DELAY	TWOPARAM	T	5.00000E+000	0.00000E+000	Init. De&lay	Time(s)	Stab.(mV/s)
SPEED	SELECTOR	1	&Optimize for:
ZGUESS	QUANT	5.00000E+003	E&stimated Z (ohms)
OCVCURVE	TABLE	19
	Pt	T	Vf	Vm	Ach	Over
	#	s	V vs. Ref.	V	V	bits
	0	0.258333	7.04430E-002	7.04430E-002	5.69830E-004	...........
	1	0.516667	7.04384E-002	7.02025E-002	5.74663E-004	...........
	2	0.775	7.04106E-002	6.99924E-002	5.68230E-004	...........
	3	1.03333	7.03347E-002	6.98898E-002	5.69030E-004	...........
	4	1.29167	7.02110E-002	6.98683E-002	5.72763E-004	...........
	5	1.55	7.00718E-002	6.97490E-002	5.70097E-004	...........
	6	1.80833	6.99517E-002	6.98143E-002	5.63797E-004	...........
	7	2.06667	6.98636E-002	6.96444E-002	5.70897E-004	...........
	8	2.325	6.97961E-002	6.94409E-002	5.75030E-004	...........
	9	2.58333	6.97188E-002	6.92356E-002	5.70763E-004	...........
	10	2.84167	6.96037E-002	6.90649E-002	5.70963E-004	...........
	11	3.1	6.94497E-002	6.89694E-002	5.74197E-004	...........
	12	3.35833	6.92803E-002	6.88455E-002	5.74097E-004	...........
	13	3.61667	6.91196E-002	6.86790E-002	5.70597E-004	...........
	14	3.875	6.89741E-002	6.85550E-002	5.68430E-004	...........
	15	4.13333	6.88393E-002	6.85662E-002	5.72997E-004	...........
	16	4.39167	6.87225E-002	6.86813E-002	5.69297E-004	...........
	17	4.65	6.86460E-002	6.86451E-002	5.71730E-004	...........
	18	4.90833	6.86168E-002	6.85221E-002	5.66263E-004	...........
EOC	QUANT	0.0686168	Open Circuit (V)
PSTATMODEL	IQUANT	4	Pstat Model
PSTATSECTION	LABEL	REF600-11020	Pstat Section
PSTATSERIALNO	LABEL	11020	Pstat Serial Number
CTRLMODE	IQUANT	1	Control Mode
IESTAB	IQUANT	0	I/E Stability
CASPEED	IQUANT	1	Control Amp Speed
CONVENTION	IQUANT	1	Current Convention
ICHRANGE	IQUANT	2	Ich Range
ICHRANGEMODE	TOGGLE	F	Ich Auto Range
ICHOFFSETENABLE	TOGGLE	T	Ich Offset Enable
ICHOFFSET	QUANT	0	Ich Offset (V)
ICHFILTER	IQUANT	3	Ich Filter
VCHRANGE	IQUANT	2	Vch Range
VCHRANGEMODE	TOGGLE	F	Vch Auto Range
VCHOFFSETENABLE	TOGGLE	T	Vch Offset Enable
VCHOFFSET	QUANT	0	Vch Offset (V)
VCHFILTER	IQUANT	3	Vch Filter
ACHRANGE	IQUANT	2	Ach Range
ACHOFFSETENABLE	TOGGLE	F	Ach Offset Enable
ACHOFFSET	QUANT	0	Ach Offset (V)
ACHFILTER	IQUANT	3	Ach Filter
IERANGELOWERLIMIT	IQUANT	1	I/E Range Lower Limit
IERANGEMODE	TOGGLE	F	I/E AutoRange
IERANGE	IQUANT	7	I/E Range
POSFEEDENABLE	TOGGLE	F	Positive Feedback IR Comp
POSFEEDRESISTANCE	QUANT	0	Positive Feedback Resistance (ohm)
ACHSELECT	IQUANT	0	Ach Select
CABLEID	IQUANT	14	Cable ID
DCCALDATE	LABEL	2/27/2020	DC Calibration Date
ACCALDATE	LABEL	2/27/2020	AC Calibration Date
THERMOSELECT	IQUANT	1	Thermo Select
FRAMEWORKVERSION	QUANT	6.33	Framework Version
INSTRUMENTVERSION	LABEL	3.50	Instrument Version
ZCURVE	TABLE
	Pt	Time	Freq	Zreal	Zimag	Zsig	Zmod	Zphz	Idc	Vdc	IERange
	#	s	Hz	ohm	ohm	V	ohm	°	A	V	#
	0	1	1000078	1378.922	-1589.568	1	2104.318	-49.05894	1.454964E-006	0.0709397	8
	1	3	794390.6	1602.629	-1743.516	1	2368.178	-47.41097	-1.216384E-006	0.0704	8
	2	4	630984.4	1827.254	-1923.961	1	2653.39	-46.47677	2.840956E-007	0.0701764	8
	3	5	501234.4	2066.25	-2129.604	1	2967.255	-45.86505	8.865979E-007	0.0700226	8
	4	7	398109.4	2350.503	-2368.448	1	3336.827	-45.21788	8.224363E-007	0.069986	8
	5	8	316265.6	2662.02	-2605.979	1	3725.249	-44.39052	-4.473709E-007	0.0702122	8
	6	9	251203.1	2995.934	-2902.3	1	4171.207	-44.09052	-3.9378E-006	0.0710757	8
	7	11	199546.9	3395.37	-3212.385	1	4674.179	-43.41375	5.94886E-007	0.0699872	8
	8	12	158578.1	3874.306	-3557.577	1	5259.905	-42.55967	4.754772E-007	0.0699853	8
	9	14	125953.1	4506.414	-3843.683	1	5922.978	-40.46206	1.991852E-007	0.0694367	7
	10	15	100078.1	5084.177	-4188.214	1	6587.108	-39.48082	2.28726E-008	0.0699478	7
	11	17	79453.13	5739.825	-4537.368	1	7316.645	-38.3266	8.356411E-009	0.0700613	7
	12	18	63140.62	6446.053	-4860.087	1	8072.92	-37.01495	5.725668E-008	0.0699132	7
	13	19	50203.12	7182.044	-5170.238	1	8849.47	-35.7495	-3.987617E-009	0.0701181	7
	14	21	39890.62	7940.22	-5456.059	1	9634.09	-34.49459	-5.102622E-008	0.0701607	7
	15	22	31640.63	8714.514	-5731.796	1	10430.54	-33.33411	-5.864538E-008	0.0701334	7
	16	23	25171.88	9496.867	-6085.916	1	11279.58	-32.65313	4.03328E-008	0.0701107	7
	17	25	20015.62	10277.9	-6447.514	1	12132.84	-32.10079	-4.316725E-009	0.0701205	7
	18	26	15890.62	11096.05	-6886.495	1	13059.33	-31.8248	-5.792637E-008	0.0701338	7
	19	27	12609.37	12169.51	-7185.265	1	14132.41	-30.55894	-3.316688E-009	0.0701578	6
	20	29	10078.13	13034.96	-7818.682	1	15200.06	-30.95635	8.642006E-009	0.0701332	6
	21	30	8015.625	14004.14	-8507.011	1	16385.52	-31.27717	7.8977E-009	0.0699335	6
	22	32	6328.125	15149.19	-9415.223	1	17836.6	-31.86096	7.795173E-009	0.0701214	6
	23	33	5015.625	16381.07	-10349.96	1	19376.82	-32.28569	-2.191096E-009	0.0702159	6
	24	34	3984.375	17750.4	-11374.73	1	21082.25	-32.65238	1.926768E-009	0.0701974	6
	25	36	3170.956	19241.78	-12457.66	1	22922.46	-32.92014	1.795049E-010	0.0702357	6
	26	37	2527.573	20856.72	-13614.27	1	24906.85	-33.13458	-9.472671E-009	0.0702145	6
	27	38	1976.103	22749.54	-15005.37	1	27252.57	-33.40844	-7.932954E-010	0.0702125	6
	28	40	1577.524	24588.82	-16408.57	1	29560.98	-33.71591	2.194812E-010	0.0701007	6
	29	41	1265.625	26458.5	-17820.06	1	31899.95	-33.96066	-2.482888E-009	0.0701458	6
	30	42	998.264	28502.48	-19598.97	1	34590.62	-34.51332	-9.240869E-009	0.0702454	6
	31	44	796.875	30558.93	-21674.52	1	37465.09	-35.34692	1.600165E-008	0.0699156	6
	32	45	627.7902	32803.02	-24287.03	1	40815.41	-36.51587	1.639017E-008	0.0699144	6
	33	46	505.5147	34909.31	-27211.64	1	44262.09	-37.93624	1.740417E-008	0.0698131	6
	34	48	397.9953	37501.91	-31252.39	1	48817.05	-39.80629	3.146893E-009	0.0701187	6
	35	49	315.5048	40305.86	-36029.94	1	54062.17	-41.79395	2.145162E-009	0.0701152	6
	36	51	252.4038	43565.82	-41464.98	1	60144.2	-43.58469	3.063909E-009	0.070115	6
	37	52	198.6229	48000.65	-48898.94	1	68521.3	-45.53113	2.896834E-009	0.0701126	6
	38	53	158.3615	53399.11	-57202.62	1	78253.46	-46.96958	2.235429E-009	0.0701139	6
	39	55	125.558	60405.27	-67127.34	1	90304.36	-48.01719	2.707385E-009	0.0701143	6
	40	56	100.4464	69225.76	-76849.24	1	103431.2	-47.98749	1.923754E-009	0.0701189	5
	41	58	79.00281	81066.18	-89983.08	1	121114.3	-47.98416	1.508701E-009	0.0701144	5
	42	59	63.3446	98009.6	-105231.5	1	143803.9	-47.03508	1.07787E-009	0.0701123	5
	43	61	49.86702	112532.7	-113690.9	1	159966.3	-45.29333	1.50233E-009	0.0701149	5
	44	63	39.72458	130970	-122460.6	1	179303.5	-43.07691	1.674934E-009	0.0701195	5
	45	64	31.6723	148195.8	-131462.1	1	198101.7	-41.57572	1.998995E-009	0.0701149	5
	46	66	24.93351	168689	-135011.5	1	216065	-38.6723	1.779113E-009	0.0701069	5
	47	67	19.86229	185655.6	-138473.2	1	231609.2	-36.7178	2.57026E-009	0.0701176	5
	48	69	15.83615	202930.3	-147767.1	1	251029.6	-36.06086	1.90586E-009	0.0701123	5
	49	70	12.40079	225614.6	-150019.6	1	270938.8	-33.62141	-1.546721E-010	0.0701215	5
	50	71	9.93114	247437.7	-167696.4	1	298910.5	-34.12674	9.738983E-010	0.0701222	5
	51	73	7.944915	263837.4	-177415.7	1	317941	-33.9186	1.233541E-009	0.0701167	5
	52	75	6.317385	283657.4	-194680.1	1	344037.6	-34.46264	5.006867E-010	0.0701285	5
	53	77	5.008013	299611.9	-214015.1	1	368198	-35.53851	2.114811E-010	0.0701061	5
	54	79	3.945707	315388.3	-239065.3	1	395755	-37.16224	8.195399E-010	0.0701239	5
	55	82	3.158693	342443.6	-270445.4	1	436358.1	-38.29997	2.184647E-010	0.0701117	5
	56	86	2.504006	359098.2	-306808.6	1	472316.7	-40.51013	6.158797E-010	0.0701073	5
	57	89	1.998082	383444.1	-352171.2	1	520628.4	-42.56568	1.575415E-010	0.0701492	5
	58	94	1.584686	412358.2	-408869.8	1	580701.2	-44.75662	3.992337E-010	0.0701594	5
	59	98	1.266892	449290.5	-472604	1	652086.3	-46.44863	4.695818E-011	0.0701319	5
	60	102	0.999041	491348.4	-552428.5	1	739324.3	-48.34904	5.776691E-010	0.0701182	5
