EXPLAIN
TAG	EISPOT
TITLE	LABEL	Potentiostatic EIS	Test &Identifier
DATE	LABEL	2/11/2020	Date
TIME	LABEL	12:02:48	Time
NOTES	NOTES	6	&Notes...
	
	
	
	
	
	
PSTAT	PSTAT	REF600-11020	Potentiostat
VDC	POTEN	0.00000E+000	T	DC &Voltage (V)
FREQINIT	QUANT	1.00000E+006	Initial Fre&q. (Hz)
FREQFINAL	QUANT	1.00000E+000	Final Fre&q. (Hz)
PTSPERDEC	QUANT	1.00000E+001	Points/&decade
VAC	QUANT	2.50000E+001	AC &Voltage (mV rms)
AREA	QUANT	4.00000E-005	&Area (cm^2)
CONDIT	TWOPARAM	F	5.00000E+000	0.00000E+000	Conditionin&g	Time(s)	E(V)
DELAY	TWOPARAM	F	5.00000E+000	0.00000E+000	Init. De&lay	Time(s)	Stab.(mV/s)
SPEED	SELECTOR	0	&Optimize for:
ZGUESS	QUANT	1.00000E+003	E&stimated Z (ohms)
OCVCURVE	TABLE	39
	Pt	T	Vf	Vm	Ach	Over
	#	s	V vs. Ref.	V	V	bits
	0	0.258333	-3.97238E-002	-3.97238E-002	5.53771E-004	...........
	1	0.516667	-3.97210E-002	-3.95742E-002	5.56538E-004	...........
	2	0.775	-3.97025E-002	-3.93842E-002	5.59871E-004	...........
	3	1.03333	-3.96510E-002	-3.94004E-002	5.55838E-004	...........
	4	1.29167	-3.95691E-002	-3.93986E-002	5.60104E-004	...........
	5	1.55	-3.94851E-002	-3.93384E-002	5.56804E-004	...........
	6	1.80833	-3.94208E-002	-3.92522E-002	5.56604E-004	...........
	7	2.06667	-3.93711E-002	-3.91802E-002	5.57171E-004	...........
	8	2.325	-3.93199E-002	-3.91445E-002	5.56638E-004	...........
	9	2.58333	-3.92625E-002	-3.91144E-002	5.61238E-004	...........
	10	2.84167	-3.92060E-002	-3.90817E-002	5.63204E-004	...........
	11	3.1	-3.91567E-002	-3.90113E-002	5.59571E-004	...........
	12	3.35833	-3.91125E-002	-3.89451E-002	5.59304E-004	...........
	13	3.61667	-3.90672E-002	-3.89605E-002	5.59804E-004	...........
	14	3.875	-3.90219E-002	-3.89404E-002	5.62471E-004	...........
	15	4.13333	-3.89838E-002	-3.89051E-002	5.60538E-004	...........
	16	4.39167	-3.89563E-002	-3.89293E-002	5.63871E-004	...........
	17	4.65	-3.89369E-002	-3.88757E-002	5.61004E-004	...........
	18	4.90833	-3.89206E-002	-3.88205E-002	5.66938E-004	...........
	19	5.16667	-3.88976E-002	-3.86671E-002	5.63238E-004	...........
	20	5.425	-3.88573E-002	-3.87191E-002	5.62571E-004	...........
	21	5.68333	-3.88047E-002	-3.88069E-002	5.62804E-004	...........
	22	5.94167	-3.87649E-002	-3.88309E-002	5.57738E-004	...........
	23	6.2	-3.87568E-002	-3.87648E-002	5.65904E-004	...........
	24	6.45833	-3.87701E-002	-3.87610E-002	5.58971E-004	...........
	25	6.71667	-3.87813E-002	-3.87751E-002	5.62804E-004	...........
	26	6.975	-3.87795E-002	-3.86786E-002	5.61238E-004	...........
	27	7.23333	-3.87649E-002	-3.86541E-002	5.62404E-004	...........
	28	7.49167	-3.87389E-002	-3.86851E-002	5.62004E-004	...........
	29	7.75	-3.87091E-002	-3.86678E-002	5.61404E-004	...........
	30	8.00833	-3.86862E-002	-3.86504E-002	5.62671E-004	...........
	31	8.26667	-3.86726E-002	-3.86519E-002	5.58771E-004	...........
	32	8.525	-3.86640E-002	-3.86451E-002	5.59738E-004	...........
	33	8.78333	-3.86568E-002	-3.86266E-002	5.58738E-004	...........
	34	9.04167	-3.86495E-002	-3.86280E-002	5.59438E-004	...........
	35	9.3	-3.86407E-002	-3.85686E-002	5.60004E-004	...........
	36	9.5583	-3.86281E-002	-3.85734E-002	5.60171E-004	...........
	37	9.8167	-3.86111E-002	-3.85826E-002	5.63104E-004	...........
	38	10.075	-3.85945E-002	-3.85864E-002	5.57638E-004	...........
EOC	QUANT	-0.0385945	Open Circuit (V)
PSTATMODEL	IQUANT	4	Pstat Model
PSTATSECTION	LABEL	REF600-11020	Pstat Section
PSTATSERIALNO	LABEL	11020	Pstat Serial Number
CTRLMODE	IQUANT	1	Control Mode
IESTAB	IQUANT	0	I/E Stability
CASPEED	IQUANT	1	Control Amp Speed
CONVENTION	IQUANT	1	Current Convention
ICHRANGE	IQUANT	2	Ich Range
ICHRANGEMODE	TOGGLE	F	Ich Auto Range
ICHOFFSETENABLE	TOGGLE	T	Ich Offset Enable
ICHOFFSET	QUANT	0	Ich Offset (V)
ICHFILTER	IQUANT	3	Ich Filter
VCHRANGE	IQUANT	2	Vch Range
VCHRANGEMODE	TOGGLE	F	Vch Auto Range
VCHOFFSETENABLE	TOGGLE	T	Vch Offset Enable
VCHOFFSET	QUANT	0	Vch Offset (V)
VCHFILTER	IQUANT	3	Vch Filter
ACHRANGE	IQUANT	2	Ach Range
ACHOFFSETENABLE	TOGGLE	F	Ach Offset Enable
ACHOFFSET	QUANT	0	Ach Offset (V)
ACHFILTER	IQUANT	3	Ach Filter
IERANGELOWERLIMIT	IQUANT	1	I/E Range Lower Limit
IERANGEMODE	TOGGLE	F	I/E AutoRange
IERANGE	IQUANT	7	I/E Range
POSFEEDENABLE	TOGGLE	F	Positive Feedback IR Comp
POSFEEDRESISTANCE	QUANT	0	Positive Feedback Resistance (ohm)
ACHSELECT	IQUANT	0	Ach Select
CABLEID	IQUANT	14	Cable ID
DCCALDATE	LABEL	1/27/2020	DC Calibration Date
ACCALDATE	LABEL	1/27/2020	AC Calibration Date
THERMOSELECT	IQUANT	1	Thermo Select
FRAMEWORKVERSION	QUANT	6.33	Framework Version
INSTRUMENTVERSION	LABEL	3.50	Instrument Version
ZCURVE	TABLE
	Pt	Time	Freq	Zreal	Zimag	Zsig	Zmod	Zphz	Idc	Vdc	IERange
	#	s	Hz	ohm	ohm	V	ohm	°	A	V	#
	0	1	1000078	2220.473	-2327.593	1	3216.86	-46.34923	-9.327447E-007	-0.0358105	8
	1	1	794390.6	2650.443	-2482.263	1	3631.319	-43.12331	3.600527E-006	-0.0372985	8
	2	2	630984.4	3086.782	-2600.364	1	4036.102	-40.11142	1.392563E-006	-0.0371778	8
	3	2	501234.4	3585.909	-2710.135	1	4494.838	-37.08103	1.08067E-007	-0.0370385	8
	4	2	398109.4	4124.189	-2731.524	1	4946.732	-33.51721	4.88099E-006	-0.0377581	8
	5	3	316265.6	4606.539	-2657.128	1	5317.944	-29.97706	2.286234E-007	-0.0370062	8
	6	3	251203.1	5115.977	-2545.62	1	5714.315	-26.45413	-3.347402E-006	-0.0362854	8
	7	3	199546.9	5520.392	-2427.251	1	6030.446	-23.73453	-4.75081E-007	-0.0368624	8
	8	4	158578.1	5973.666	-2304.183	1	6402.651	-21.0928	-3.978975E-006	-0.0360422	8
	9	4	125953.1	6289.094	-1962.286	1	6588.115	-17.32866	1.392518E-007	-0.0372625	7
	10	4	100078.1	6567.629	-1783.837	1	6805.573	-15.19555	1.336767E-007	-0.0371553	7
	11	5	79453.13	6807.096	-1605.555	1	6993.88	-13.2715	-3.391643E-008	-0.0368436	7
	12	5	63140.62	6994.878	-1443.371	1	7142.244	-11.65916	-3.279939E-008	-0.036849	7
	13	5	50203.12	7143.827	-1310.263	1	7262.992	-10.39322	4.781847E-008	-0.0371268	7
	14	6	39890.62	7273.467	-1199.705	1	7371.745	-9.366188	-3.20911E-009	-0.0370385	7
	15	6	31640.63	7392.006	-1115.949	1	7475.767	-8.584941	-9.1192E-010	-0.0370411	7
	16	6	25171.88	7487.509	-1060.506	1	7562.239	-8.061561	-4.292657E-008	-0.0369454	7
	17	7	20015.62	7581.644	-1028.547	1	7651.093	-7.725741	2.992899E-008	-0.0370765	7
	18	7	15890.62	7673.316	-1024.836	1	7741.452	-7.607312	-3.159125E-008	-0.0369684	7
	19	7	12609.37	7764.538	-1047.976	1	7834.941	-7.686731	4.598213E-009	-0.0368756	7
	20	8	10078.13	7849.526	-1085.511	1	7924.229	-7.873494	-1.713149E-008	-0.0369315	7
	21	8	8015.625	7934.622	-1153.095	1	8017.97	-8.268599	-2.166296E-009	-0.037049	7
	22	8	6328.125	8029.757	-1265.714	1	8128.901	-8.95771	-1.245897E-008	-0.0368434	7
	23	8	5015.625	8123.967	-1404.609	1	8244.5	-9.80929	4.31358E-008	-0.0370245	7
	24	9	3984.375	8219.395	-1586.309	1	8371.07	-10.92354	4.30858E-008	-0.0370289	7
	25	9	3170.956	8318.49	-1814.336	1	8514.053	-12.30402	2.3678E-008	-0.0370746	7
	26	9	2527.573	8430.688	-2103.639	1	8689.177	-14.01045	2.202995E-008	-0.0370736	7
	27	10	1976.103	8564.72	-2501.929	1	8922.672	-16.28416	-3.343541E-008	-0.0368628	7
	28	10	1577.524	8709.476	-2948.007	1	9194.874	-18.70007	-1.681553E-009	-0.0370982	6
	29	10	1265.625	8862.067	-3487.688	1	9523.67	-21.48224	7.624643E-009	-0.0369749	6
	30	11	998.264	9056.872	-4210.482	1	9987.75	-24.93341	5.537118E-009	-0.0372024	6
	31	11	796.875	9284.095	-5055.241	1	10571.18	-28.56854	-5.304182E-009	-0.0369103	6
	32	11	627.7902	9571.45	-6144.916	1	11374.21	-32.70065	-7.430501E-009	-0.0368227	6
	33	12	505.5147	9894.92	-7350.162	1	12326.17	-36.60576	1.568211E-008	-0.0371816	6
	34	12	397.9953	10329.38	-8967.415	1	13678.84	-40.96276	2.444015E-010	-0.0369779	6
	35	12	315.5048	10853.99	-10885.35	1	15372.05	-45.08267	1.376268E-009	-0.0369794	6
	36	13	252.4038	11473.57	-13112.94	1	17423.89	-48.8147	1.475419E-009	-0.0369835	6
	37	13	198.6229	12300.34	-16017.98	1	20195.89	-52.47904	7.460295E-010	-0.0369813	6
	38	13	158.3615	13278.08	-19349.67	1	23467.36	-55.54142	1.364195E-009	-0.0369837	6
	39	14	125.558	14531.82	-23487.98	1	27619.91	-58.25526	8.946598E-010	-0.0369802	6
	40	14	100.4464	16099.56	-28293.53	1	32553.33	-60.35929	1.115761E-010	-0.036986	6
	41	14	79.00281	18196.71	-34603.79	1	39096.58	-62.26197	5.592878E-010	-0.036987	6
	42	15	63.3446	20157.43	-41457.44	1	46098.17	-64.07005	1.040132E-009	-0.0369875	6
	43	15	49.86702	23726.13	-50121.55	1	55453.58	-64.66845	8.343249E-010	-0.0369911	6
	44	15	39.72458	28287.15	-60117.81	1	66440.3	-64.80167	1.051343E-009	-0.0369877	6
	45	16	31.6723	33546.82	-71771.7	1	79224.77	-64.94814	1.779081E-010	-0.0369898	6
	46	16	24.93351	40435.18	-85655.88	1	94720.3	-64.72962	7.482122E-010	-0.036989	6
	47	16	19.86229	48398.74	-101242	1	112215.8	-64.44987	-2.429289E-010	-0.0369907	5
	48	17	15.83615	59764.91	-119609.9	1	133710	-63.45029	2.295213E-009	-0.0369935	5
	49	17	12.40079	70890.1	-142593	1	159242.5	-63.56574	5.614692E-011	-0.0369882	5
	50	17	9.93114	85079.36	-165161	1	185786.6	-62.74565	1.028272E-009	-0.0369899	5
	51	18	7.944915	102506.1	-192016.6	1	217664.6	-61.90492	5.745573E-010	-0.0369808	5
	52	18	6.317385	123900.5	-223773.3	1	255784.7	-61.02724	2.059307E-010	-0.0369899	5
	53	19	5.008013	149645	-259275.4	1	299361.6	-60.00791	2.833105E-010	-0.0369786	5
	54	20	3.945707	180348.2	-300242.8	1	350244.5	-59.00782	1.935182E-011	-0.0369931	5
	55	22	3.158693	214171.4	-342863	1	404257.8	-58.0088	5.593234E-011	-0.0370135	5
	56	23	2.504006	253835.4	-392431.7	1	467370.3	-57.10413	2.425734E-010	-0.0370009	5
	57	25	1.998082	296354.5	-445304.8	1	534904.1	-56.35587	7.545763E-012	-0.0370343	5
	58	26	1.584686	345676.2	-509258.8	1	615496.9	-55.832	-5.076172E-011	-0.0370545	5
	59	28	1.266892	396519.3	-578698.9	1	701512.7	-55.58141	1.338451E-012	-0.0370235	5
	60	31	0.999041	457844.2	-663520.3	1	806151.6	-55.39344	3.048422E-011	-0.0369955	5
