EXPLAIN
TAG	EISPOT
TITLE	LABEL	Potentiostatic EIS	Test &Identifier
DATE	LABEL	1/7/2020	Date
TIME	LABEL	16:30:44	Time
NOTES	NOTES	5	&Notes...
	
	
	
	
	
PSTAT	PSTAT	REF600-11020	Potentiostat
VDC	POTEN	0.00000E+000	T	DC &Voltage (V)
FREQINIT	QUANT	1.00000E+006	Initial Fre&q. (Hz)
FREQFINAL	QUANT	1.00000E+000	Final Fre&q. (Hz)
PTSPERDEC	QUANT	1.00000E+001	Points/&decade
VAC	QUANT	2.50000E+001	AC &Voltage (mV rms)
AREA	QUANT	1.00000E-001	&Area (cm^2)
CONDIT	TWOPARAM	T	5.00000E+000	0.00000E+000	Conditionin&g	Time(s)	E(V)
DELAY	TWOPARAM	T	5.00000E+000	0.00000E+000	Init. De&lay	Time(s)	Stab.(mV/s)
SPEED	SELECTOR	0	&Optimize for:
ZGUESS	QUANT	1.00000E+003	E&stimated Z (ohms)
OCVCURVE	TABLE	19
	Pt	T	Vf	Vm	Ach	Over
	#	s	V vs. Ref.	V	V	bits
	0	0.258333	2.15721E-004	2.15721E-004	6.49946E-004	...........
	1	0.516667	2.03094E-004	-4.45239E-004	6.43880E-004	...........
	2	0.775	1.31553E-004	-7.57976E-004	6.43746E-004	...........
	3	1.03333	-5.32753E-005	-1.18194E-003	6.43813E-004	...........
	4	1.29167	-3.54713E-004	-1.53712E-003	6.49280E-004	...........
	5	1.55	-7.24515E-004	-1.87489E-003	6.42613E-004	...........
	6	1.80833	-1.11100E-003	-2.20895E-003	6.49313E-004	...........
	7	2.06667	-1.48607E-003	-2.57396E-003	6.50380E-004	...........
	8	2.325	-1.84520E-003	-2.92411E-003	6.45813E-004	...........
	9	2.58333	-2.19407E-003	-3.17208E-003	6.46013E-004	...........
	10	2.84167	-2.53180E-003	-3.43458E-003	6.46980E-004	...........
	11	3.1	-2.84953E-003	-3.71371E-003	6.51380E-004	...........
	12	3.35833	-3.14374E-003	-3.97562E-003	6.48080E-004	...........
	13	3.61667	-3.42218E-003	-4.30038E-003	6.47413E-004	...........
	14	3.875	-3.69826E-003	-4.62602E-003	6.50013E-004	...........
	15	4.13333	-3.98310E-003	-4.88385E-003	6.53313E-004	...........
	16	4.39167	-4.27689E-003	-5.13439E-003	6.49646E-004	...........
	17	4.65	-4.56689E-003	-5.30064E-003	6.45846E-004	...........
	18	4.90833	-4.83483E-003	-5.42264E-003	6.50646E-004	...........
EOC	QUANT	-0.0048348	Open Circuit (V)
PSTATMODEL	IQUANT	4	Pstat Model
PSTATSECTION	LABEL	REF600-11020	Pstat Section
PSTATSERIALNO	LABEL	11020	Pstat Serial Number
CTRLMODE	IQUANT	1	Control Mode
IESTAB	IQUANT	0	I/E Stability
CASPEED	IQUANT	1	Control Amp Speed
CONVENTION	IQUANT	1	Current Convention
ICHRANGE	IQUANT	2	Ich Range
ICHRANGEMODE	TOGGLE	F	Ich Auto Range
ICHOFFSETENABLE	TOGGLE	T	Ich Offset Enable
ICHOFFSET	QUANT	0	Ich Offset (V)
ICHFILTER	IQUANT	3	Ich Filter
VCHRANGE	IQUANT	2	Vch Range
VCHRANGEMODE	TOGGLE	F	Vch Auto Range
VCHOFFSETENABLE	TOGGLE	T	Vch Offset Enable
VCHOFFSET	QUANT	0	Vch Offset (V)
VCHFILTER	IQUANT	3	Vch Filter
ACHRANGE	IQUANT	2	Ach Range
ACHOFFSETENABLE	TOGGLE	F	Ach Offset Enable
ACHOFFSET	QUANT	0	Ach Offset (V)
ACHFILTER	IQUANT	3	Ach Filter
IERANGELOWERLIMIT	IQUANT	1	I/E Range Lower Limit
IERANGEMODE	TOGGLE	F	I/E AutoRange
IERANGE	IQUANT	6	I/E Range
POSFEEDENABLE	TOGGLE	F	Positive Feedback IR Comp
POSFEEDRESISTANCE	QUANT	0	Positive Feedback Resistance (ohm)
ACHSELECT	IQUANT	0	Ach Select
CABLEID	IQUANT	14	Cable ID
DCCALDATE	LABEL	12/22/2019	DC Calibration Date
ACCALDATE	LABEL	12/22/2019	AC Calibration Date
THERMOSELECT	IQUANT	1	Thermo Select
FRAMEWORKVERSION	QUANT	6.33	Framework Version
INSTRUMENTVERSION	LABEL	3.50	Instrument Version
ZCURVE	TABLE
	Pt	Time	Freq	Zreal	Zimag	Zsig	Zmod	Zphz	Idc	Vdc	IERange
	#	s	Hz	ohm	ohm	V	ohm	°	A	V	#
	0	1	1000078	2331.67	-1494.107	1	2769.304	-32.65128	-1.05102E-006	-0.00183	8
	1	1	794390.6	2638.119	-1447.498	1	3009.14	-28.75294	1.74553E-006	-0.0030448	8
	2	1	630984.4	2897.954	-1331.666	1	3189.275	-24.6797	-1.936061E-007	-0.0032361	8
	3	2	501234.4	3120.054	-1208.903	1	3346.07	-21.17946	-1.834956E-006	-0.0027168	8
	4	2	398109.4	3270.436	-1089.118	1	3447.018	-18.41875	2.105125E-007	-0.0030743	8
	5	2	316265.6	3439.802	-950.194	1	3568.628	-15.44202	8.958414E-008	-0.0031174	8
	6	3	251203.1	3528.656	-838.3019	1	3626.866	-13.364	4.283516E-006	-0.0039166	8
	7	3	199546.9	3622.887	-726.218	1	3694.956	-11.33488	-6.103897E-007	-0.0033282	8
	8	3	158578.1	3691.048	-655.6393	1	3748.826	-10.07237	-5.512397E-007	-0.0028836	8
	9	4	125953.1	3779.744	-534.3268	1	3817.325	-8.046351	1.853791E-006	-0.0071403	7
	10	4	100078.1	3817.323	-494.5833	1	3849.23	-7.382281	-7.983192E-008	-0.0029402	7
	11	4	79453.13	3858.103	-479.2094	1	3887.75	-7.080362	1.146508E-007	-0.003394	7
	12	5	63140.62	3900.738	-473.6324	1	3929.387	-6.923035	-5.093891E-008	-0.0032035	7
	13	5	50203.12	3942.159	-479.0308	1	3971.157	-6.928319	1.278852E-008	-0.0030727	7
	14	5	39890.62	3984.812	-496.8039	1	4015.661	-7.106646	-8.239323E-008	-0.0031222	7
	15	5	31640.63	4030.586	-525.4659	1	4064.695	-7.427735	-4.329414E-008	-0.0030975	7
	16	6	25171.88	4078.773	-567.4668	1	4118.059	-7.920537	-5.230785E-008	-0.00311	7
	17	6	20015.62	4132.704	-620.2844	1	4178.995	-8.535901	1.149884E-007	-0.0034093	7
	18	6	15890.62	4193.653	-688.6145	1	4249.814	-9.324979	-3.56603E-008	-0.0032411	7
	19	7	12609.37	4260.497	-774.4275	1	4330.309	-10.30213	-5.1078E-008	-0.0031154	7
	20	7	10078.13	4335.35	-871.327	1	4422.044	-11.36402	-1.295092E-008	-0.0031835	7
	21	7	8015.625	4416.961	-989.212	1	4526.376	-12.62353	-1.216333E-008	-0.0031871	7
	22	8	6328.125	4519.058	-1136.499	1	4659.776	-14.11658	-8.95848E-008	-0.0030796	7
	23	8	5015.625	4630.939	-1305.236	1	4811.366	-15.74055	1.260257E-008	-0.00309	7
	24	8	3984.375	4756.811	-1502.946	1	4988.597	-17.53428	-5.11405E-008	-0.0032225	7
	25	9	3170.956	4900.122	-1732.666	1	5197.434	-19.47341	-8.811271E-008	-0.0030871	7
	26	9	2527.573	5062.853	-1995.552	1	5441.939	-21.51216	1.933318E-008	-0.0033501	7
	27	9	1976.103	5260.159	-2335.771	1	5755.44	-23.94359	1.071701E-007	-0.0034451	7
	28	10	1577.524	5460.909	-2696.071	1	6090.183	-26.27573	6.26688E-008	-0.00342	7
	29	10	1265.625	5697.061	-3110.598	1	6490.941	-28.63456	6.254347E-008	-0.0033015	7
	30	10	998.264	5973.918	-3635.272	1	6993.061	-31.32151	-5.087484E-008	-0.0032223	7
	31	11	796.875	6259.321	-4221.311	1	7549.739	-33.99588	-5.066631E-008	-0.0032193	7
	32	11	627.7902	6591.543	-4966.786	1	8253.326	-36.99835	-1.187179E-008	-0.0031915	7
	33	11	505.5147	6911.37	-5772.13	1	9004.694	-39.86743	1.443349E-008	-0.0030907	7
	34	11	397.9953	7313.103	-6847.348	1	10018.37	-43.11615	9.840095E-010	-0.0032196	6
	35	12	315.5048	7728.107	-8137.749	1	11222.59	-46.479	9.488692E-010	-0.0032181	6
	36	12	252.4038	8171.401	-9658.52	1	12651.43	-49.76777	8.497947E-010	-0.0032207	6
	37	12	198.6229	8709.014	-11674.98	1	14565.44	-53.27871	1.146129E-009	-0.0032186	6
	38	13	158.3615	9303.391	-14037.25	1	16840.35	-56.465	6.265561E-010	-0.0032245	6
	39	13	125.558	10027.63	-17022.73	1	19756.69	-59.49882	7.058577E-010	-0.003222	6
	40	13	100.4464	10875.57	-20535.29	1	23237.39	-62.09413	1.251418E-009	-0.0032239	6
	41	14	79.00281	12079.53	-25228.92	1	27971.65	-64.41504	1.202197E-009	-0.0032268	6
	42	14	63.3446	13232.88	-30451.19	1	33202.17	-66.51214	7.957385E-010	-0.003227	6
	43	14	49.86702	15238.78	-37381.18	1	40367.97	-67.82129	8.115272E-010	-0.0032305	6
	44	15	39.72458	17754.13	-45482.74	1	48825.09	-68.67687	1.382502E-009	-0.0032239	6
	45	15	31.6723	20882.31	-55181.19	1	59000.3	-69.27177	1.088028E-009	-0.0032292	6
	46	15	24.93351	25386.4	-67330.33	1	71957.23	-69.34142	4.078512E-010	-0.0032278	6
	47	16	19.86229	30940.63	-81078.91	1	86781.98	-69.11258	2.095911E-010	-0.003229	6
	48	16	15.83615	37961.44	-97623.8	1	104744.8	-68.75121	1.329497E-009	-0.0032286	6
	49	16	12.40079	48202.81	-118272.1	1	127717.7	-67.82623	-2.925941E-010	-0.0032288	5
	50	17	9.93114	59895.26	-138669.3	1	151051.7	-66.63909	-6.621153E-010	-0.0032347	5
	51	17	7.944915	74746.39	-162817.4	1	179155	-65.34103	-4.337627E-010	-0.0032244	5
	52	18	6.317385	93087.85	-190464.5	1	211995.4	-63.95333	-1.436457E-010	-0.0032144	5
	53	19	5.008013	115771.6	-221644.6	1	250058.8	-62.42059	2.610861E-011	-0.0032396	5
	54	20	3.945707	143392	-256790.6	1	294113.4	-60.82098	5.147722E-010	-0.003235	5
	55	21	3.158693	172940.3	-292739.3	1	340006.8	-59.42687	5.520502E-010	-0.0032175	5
	56	23	2.504006	208363.3	-334024.6	1	393684.8	-58.04425	2.57075E-010	-0.0032232	5
	57	24	1.998082	244763.6	-378232.7	1	450521	-57.09211	3.905875E-010	-0.0032311	5
	58	25	1.584686	287930.3	-429225.6	1	516854.4	-56.14576	5.652878E-010	-0.0031868	5
	59	27	1.266892	329264	-485874.4	1	586931.6	-55.87556	7.006718E-010	-0.0031932	5
	60	30	0.999041	382884.7	-556092.9	1	675159.3	-55.45156	5.330643E-010	-0.0032159	5
