EXPLAIN
TAG	EISPOT
TITLE	LABEL	Potentiostatic EIS	Test &Identifier
DATE	LABEL	1/14/2020	Date
TIME	LABEL	15:51:34	Time
NOTES	NOTES	5	&Notes...
	
	
	
	
	
PSTAT	PSTAT	REF600-11020	Potentiostat
VDC	POTEN	0.00000E+000	T	DC &Voltage (V)
FREQINIT	QUANT	1.00000E+006	Initial Fre&q. (Hz)
FREQFINAL	QUANT	1.00000E+000	Final Fre&q. (Hz)
PTSPERDEC	QUANT	1.00000E+001	Points/&decade
VAC	QUANT	2.50000E+001	AC &Voltage (mV rms)
AREA	QUANT	1.00000E-001	&Area (cm^2)
CONDIT	TWOPARAM	T	5.00000E+000	0.00000E+000	Conditionin&g	Time(s)	E(V)
DELAY	TWOPARAM	T	5.00000E+000	0.00000E+000	Init. De&lay	Time(s)	Stab.(mV/s)
SPEED	SELECTOR	0	&Optimize for:
ZGUESS	QUANT	5.00000E+002	E&stimated Z (ohms)
OCVCURVE	TABLE	19
	Pt	T	Vf	Vm	Ach	Over
	#	s	V vs. Ref.	V	V	bits
	0	0.258333	3.31386E-003	3.31386E-003	6.90346E-004	...........
	1	0.516667	3.31255E-003	3.24528E-003	6.85612E-004	...........
	2	0.775	3.30425E-003	3.16688E-003	6.92746E-004	...........
	3	1.03333	3.28009E-003	3.10099E-003	6.87046E-004	...........
	4	1.29167	3.23623E-003	3.04906E-003	6.82179E-004	...........
	5	1.55	3.17873E-003	3.01218E-003	6.81146E-004	...........
	6	1.80833	3.11928E-003	3.00414E-003	6.80279E-004	...........
	7	2.06667	3.06887E-003	3.01659E-003	6.83612E-004	...........
	8	2.325	3.03376E-003	2.97221E-003	6.82879E-004	...........
	9	2.58333	3.01004E-003	2.85627E-003	6.83846E-004	...........
	10	2.84167	2.98324E-003	2.82006E-003	6.77879E-004	...........
	11	3.1	2.94426E-003	2.91489E-003	6.82679E-004	...........
	12	3.35833	2.90052E-003	2.66731E-003	6.81246E-004	...........
	13	3.61667	2.85566E-003	2.61985E-003	6.78279E-004	...........
	14	3.875	2.80009E-003	2.67812E-003	6.79512E-004	...........
	15	4.13333	2.73815E-003	2.67804E-003	6.82679E-004	...........
	16	4.39167	2.69277E-003	2.72277E-003	6.81146E-004	...........
	17	4.65	2.67271E-003	2.48639E-003	6.73979E-004	...........
	18	4.90833	2.65741E-003	2.51564E-003	6.75846E-004	...........
EOC	QUANT	0.0026574	Open Circuit (V)
PSTATMODEL	IQUANT	4	Pstat Model
PSTATSECTION	LABEL	REF600-11020	Pstat Section
PSTATSERIALNO	LABEL	11020	Pstat Serial Number
CTRLMODE	IQUANT	1	Control Mode
IESTAB	IQUANT	0	I/E Stability
CASPEED	IQUANT	1	Control Amp Speed
CONVENTION	IQUANT	1	Current Convention
ICHRANGE	IQUANT	2	Ich Range
ICHRANGEMODE	TOGGLE	F	Ich Auto Range
ICHOFFSETENABLE	TOGGLE	T	Ich Offset Enable
ICHOFFSET	QUANT	0	Ich Offset (V)
ICHFILTER	IQUANT	3	Ich Filter
VCHRANGE	IQUANT	2	Vch Range
VCHRANGEMODE	TOGGLE	F	Vch Auto Range
VCHOFFSETENABLE	TOGGLE	T	Vch Offset Enable
VCHOFFSET	QUANT	0	Vch Offset (V)
VCHFILTER	IQUANT	3	Vch Filter
ACHRANGE	IQUANT	2	Ach Range
ACHOFFSETENABLE	TOGGLE	F	Ach Offset Enable
ACHOFFSET	QUANT	0	Ach Offset (V)
ACHFILTER	IQUANT	3	Ach Filter
IERANGELOWERLIMIT	IQUANT	1	I/E Range Lower Limit
IERANGEMODE	TOGGLE	F	I/E AutoRange
IERANGE	IQUANT	6	I/E Range
POSFEEDENABLE	TOGGLE	F	Positive Feedback IR Comp
POSFEEDRESISTANCE	QUANT	0	Positive Feedback Resistance (ohm)
ACHSELECT	IQUANT	0	Ach Select
CABLEID	IQUANT	14	Cable ID
DCCALDATE	LABEL	12/22/2019	DC Calibration Date
ACCALDATE	LABEL	12/22/2019	AC Calibration Date
THERMOSELECT	IQUANT	1	Thermo Select
FRAMEWORKVERSION	QUANT	6.33	Framework Version
INSTRUMENTVERSION	LABEL	3.50	Instrument Version
ZCURVE	TABLE
	Pt	Time	Freq	Zreal	Zimag	Zsig	Zmod	Zphz	Idc	Vdc	IERange
	#	s	Hz	ohm	ohm	V	ohm	°	A	V	#
	0	1	1000078	2336.081	-1343.83	1	2695.023	-29.90965	1.822712E-006	0.004594	8
	1	1	794390.6	2512.675	-1329.528	1	2842.742	-27.8846	1.306144E-006	0.0043416	8
	2	2	630984.4	2661.881	-1328.954	1	2975.185	-26.53084	-2.947378E-006	0.0050946	8
	3	2	501234.4	2795.367	-1349.676	1	3104.142	-25.77246	-2.052232E-006	0.0049592	8
	4	2	398109.4	2918.744	-1409.121	1	3241.094	-25.77048	-2.080215E-006	0.0048506	8
	5	3	316265.6	3033.391	-1505.046	1	3386.24	-26.38876	3.481821E-006	0.0038575	8
	6	3	251203.1	3145.992	-1648.901	1	3551.92	-27.66026	-2.244801E-006	0.0047932	8
	7	3	199546.9	3287.438	-1845.674	1	3770.115	-29.31126	-6.310523E-007	0.0045474	8
	8	4	158578.1	3451.354	-2099.474	1	4039.757	-31.31233	-1.063064E-006	0.0045178	8
	9	4	125953.1	3630.758	-2431.587	1	4369.785	-33.81096	-4.599089E-007	0.0052707	7
	10	4	100078.1	3853.488	-2834.571	1	4783.739	-36.33767	-2.04207E-008	0.0044321	7
	11	4	79453.13	4146.144	-3348.289	1	5329.31	-38.9232	1.450282E-008	0.0042952	7
	12	5	63140.62	4543.24	-3952.854	1	6022.132	-41.02496	9.126328E-008	0.0042167	7
	13	5	50203.12	5068.824	-4630.682	1	6865.581	-42.41362	-4.499414E-010	0.0043046	7
	14	5	39890.62	5780.292	-5376.853	1	7894.448	-42.9291	-1.687406E-008	0.0043386	7
	15	6	31640.63	6717.972	-6147.827	1	9106.422	-42.46261	3.312572E-008	0.0042425	7
	16	6	25171.88	7885.347	-6860.226	1	10451.86	-41.02316	4.157384E-009	0.004359	7
	17	6	20015.62	9287.518	-7406.62	1	11879.23	-38.5717	-2.813481E-008	0.0043669	7
	18	7	15890.62	10876.11	-7751.891	1	13355.96	-35.47917	-4.278128E-009	0.0043625	7
	19	7	12609.37	12577.32	-7723.608	1	14759.51	-31.55368	8.402634E-010	0.004408	6
	20	7	10078.13	14108.73	-7433.824	1	15947.35	-27.78454	-5.707129E-009	0.0043975	6
	21	8	8015.625	15502.17	-6911.567	1	16973.13	-24.02946	1.020083E-008	0.0042349	6
	22	8	6328.125	16693.34	-6224.867	1	17816.19	-20.45025	-4.206941E-009	0.0043909	6
	23	8	5015.625	17589.52	-5515.923	1	18434.12	-17.41097	3.008974E-009	0.004347	6
	24	9	3984.375	18260.54	-4856.126	1	18895.22	-14.8923	2.852394E-009	0.0043481	6
	25	9	3170.956	18744.11	-4298.702	1	19230.71	-12.91664	6.082342E-009	0.0042111	6
	26	9	2527.573	19090.74	-3866.632	1	19478.38	-11.44978	4.704501E-009	0.004201	6
	27	10	1976.103	19381.1	-3545.04	1	19702.64	-10.36551	-2.638778E-009	0.0043369	6
	28	10	1577.524	19573.01	-3375.975	1	19862.02	-9.78615	5.551018E-009	0.0042073	6
	29	10	1265.625	19736.51	-3362.719	1	20020.94	-9.66924	-5.089708E-009	0.0043832	6
	30	10	998.264	19867.89	-3471.882	1	20168.97	-9.91225	-9.600548E-010	0.0043461	6
	31	11	796.875	20023.19	-3728.927	1	20367.45	-10.54937	-4.99532E-009	0.0043942	6
	32	11	627.7902	20200.78	-4164.132	1	20625.5	-11.64764	9.745647E-009	0.0042276	6
	33	11	505.5147	20379.38	-4710.638	1	20916.72	-13.01518	-7.768151E-010	0.0042907	6
	34	12	397.9953	20571.04	-5522.59	1	21299.45	-15.02754	8.87482E-010	0.0043444	6
	35	12	315.5048	20792.6	-6542.979	1	21797.77	-17.46766	8.101115E-010	0.004333	6
	36	12	252.4038	21075.54	-7791.166	1	22469.55	-20.28824	9.582185E-010	0.0043353	6
	37	13	198.6229	21440.45	-9468.12	1	23437.97	-23.82629	7.507676E-010	0.0043358	6
	38	13	158.3615	21866.53	-11445.81	1	24681	-27.62934	6.129404E-010	0.0043309	6
	39	13	125.558	22419.16	-13948.47	1	26404.14	-31.88853	8.473756E-010	0.0043332	6
	40	14	100.4464	23090.77	-16903.97	1	28616.91	-36.20659	5.22977E-010	0.0043347	6
	41	14	79.00281	24022.3	-20795.1	1	31772.74	-40.88136	4.395949E-010	0.0043317	6
	42	14	63.3446	25365.07	-25144.02	1	35715.66	-44.74925	4.281947E-010	0.0043292	6
	43	15	49.86702	27017.56	-30912.13	1	41054.95	-48.84617	1.03304E-009	0.0043276	6
	44	15	39.72458	29103.6	-37494.3	1	47464.11	-52.18088	6.279151E-010	0.0043323	6
	45	15	31.6723	31920.73	-45312.14	1	55426.74	-54.83672	-4.299911E-012	0.0043269	6
	46	16	24.93351	35951.45	-55234.55	1	65904.19	-56.94043	1.409508E-011	0.0043227	6
	47	16	19.86229	40885.3	-66298.62	1	77891.69	-58.33852	-9.281313E-010	0.0043212	6
	48	16	15.83615	47532.89	-79207.12	1	92375.02	-59.03166	1.299025E-009	0.0043187	6
	49	17	12.40079	56597.81	-94960.63	1	110547.9	-59.20449	-1.13028E-009	0.004327	5
	50	17	9.93114	66820.54	-111031.4	1	129587.6	-58.95977	-1.197289E-009	0.0043214	5
	51	17	7.944915	79181.66	-129655.8	1	151922.2	-58.5873	1.167719E-009	0.0043191	5
	52	18	6.317385	95610.1	-149553.7	1	177503.8	-57.40911	-7.820417E-010	0.0043374	5
	53	18	5.008013	115068.5	-171707.4	1	206698.3	-56.17228	-1.106447E-010	0.0043316	5
	54	19	3.945707	138050	-196428.1	1	240087.1	-54.90037	6.420482E-010	0.0043311	5
	55	20	3.158693	162028.1	-220315.2	1	273481.1	-53.66784	-7.039803E-011	0.0043422	5
	56	21	2.504006	189689	-247758.5	1	312035.5	-52.56159	-3.30915E-010	0.0043276	5
	57	23	1.998082	217895	-275827.9	1	351510	-51.69241	9.713272E-011	0.0043588	5
	58	24	1.584686	248677.7	-309707.8	1	397189.6	-51.23752	2.098418E-010	0.0043688	5
	59	26	1.266892	277652.8	-347552.6	1	444841.4	-51.37934	1.322949E-010	0.0043336	5
	60	29	0.999041	311155.6	-394798.9	1	502676.8	-51.75705	2.34151E-010	0.0043054	5
