EXPLAIN
TAG	EISPOT
TITLE	LABEL	Potentiostatic EIS	Test &Identifier
DATE	LABEL	1/7/2020	Date
TIME	LABEL	16:05:26	Time
NOTES	NOTES	5	&Notes...
	
	
	
	
	
PSTAT	PSTAT	REF600-11020	Potentiostat
VDC	POTEN	0.00000E+000	T	DC &Voltage (V)
FREQINIT	QUANT	1.00000E+006	Initial Fre&q. (Hz)
FREQFINAL	QUANT	1.00000E+000	Final Fre&q. (Hz)
PTSPERDEC	QUANT	1.00000E+001	Points/&decade
VAC	QUANT	2.50000E+001	AC &Voltage (mV rms)
AREA	QUANT	1.00000E-001	&Area (cm^2)
CONDIT	TWOPARAM	T	5.00000E+000	0.00000E+000	Conditionin&g	Time(s)	E(V)
DELAY	TWOPARAM	T	5.00000E+000	0.00000E+000	Init. De&lay	Time(s)	Stab.(mV/s)
SPEED	SELECTOR	0	&Optimize for:
ZGUESS	QUANT	1.00000E+003	E&stimated Z (ohms)
OCVCURVE	TABLE	19
	Pt	T	Vf	Vm	Ach	Over
	#	s	V vs. Ref.	V	V	bits
	0	0.258333	6.73999E-003	6.73999E-003	6.59413E-004	...........
	1	0.516667	6.74136E-003	6.81198E-003	6.60946E-004	...........
	2	0.775	6.75071E-003	6.92744E-003	6.55713E-004	...........
	3	1.03333	6.77954E-003	7.00640E-003	6.58379E-004	...........
	4	1.29167	6.83176E-003	6.95014E-003	6.53013E-004	...........
	5	1.55	6.89312E-003	7.02117E-003	6.52946E-004	...........
	6	1.80833	6.94624E-003	7.12351E-003	6.53580E-004	...........
	7	2.06667	6.99406E-003	7.26843E-003	6.53146E-004	...........
	8	2.325	7.05416E-003	7.31519E-003	6.49780E-004	...........
	9	2.58333	7.13473E-003	7.45739E-003	6.47180E-004	...........
	10	2.84167	7.22946E-003	7.52880E-003	6.57713E-004	...........
	11	3.1	7.32932E-003	7.62527E-003	6.51346E-004	...........
	12	3.35833	7.42764E-003	7.66992E-003	6.48580E-004	...........
	13	3.61667	7.51868E-003	7.74274E-003	6.57046E-004	...........
	14	3.875	7.60055E-003	7.87378E-003	6.57579E-004	...........
	15	4.13333	7.67763E-003	7.87873E-003	6.60079E-004	...........
	16	4.39167	7.75322E-003	7.95090E-003	6.52146E-004	...........
	17	4.65	7.82467E-003	8.03840E-003	6.58713E-004	...........
	18	4.90833	7.89098E-003	8.08057E-003	6.55646E-004	...........
EOC	QUANT	0.007891	Open Circuit (V)
PSTATMODEL	IQUANT	4	Pstat Model
PSTATSECTION	LABEL	REF600-11020	Pstat Section
PSTATSERIALNO	LABEL	11020	Pstat Serial Number
CTRLMODE	IQUANT	1	Control Mode
IESTAB	IQUANT	0	I/E Stability
CASPEED	IQUANT	1	Control Amp Speed
CONVENTION	IQUANT	1	Current Convention
ICHRANGE	IQUANT	2	Ich Range
ICHRANGEMODE	TOGGLE	F	Ich Auto Range
ICHOFFSETENABLE	TOGGLE	T	Ich Offset Enable
ICHOFFSET	QUANT	0	Ich Offset (V)
ICHFILTER	IQUANT	3	Ich Filter
VCHRANGE	IQUANT	2	Vch Range
VCHRANGEMODE	TOGGLE	F	Vch Auto Range
VCHOFFSETENABLE	TOGGLE	T	Vch Offset Enable
VCHOFFSET	QUANT	0	Vch Offset (V)
VCHFILTER	IQUANT	3	Vch Filter
ACHRANGE	IQUANT	2	Ach Range
ACHOFFSETENABLE	TOGGLE	F	Ach Offset Enable
ACHOFFSET	QUANT	0	Ach Offset (V)
ACHFILTER	IQUANT	3	Ach Filter
IERANGELOWERLIMIT	IQUANT	1	I/E Range Lower Limit
IERANGEMODE	TOGGLE	F	I/E AutoRange
IERANGE	IQUANT	7	I/E Range
POSFEEDENABLE	TOGGLE	F	Positive Feedback IR Comp
POSFEEDRESISTANCE	QUANT	0	Positive Feedback Resistance (ohm)
ACHSELECT	IQUANT	0	Ach Select
CABLEID	IQUANT	14	Cable ID
DCCALDATE	LABEL	12/22/2019	DC Calibration Date
ACCALDATE	LABEL	12/22/2019	AC Calibration Date
THERMOSELECT	IQUANT	1	Thermo Select
FRAMEWORKVERSION	QUANT	6.33	Framework Version
INSTRUMENTVERSION	LABEL	3.50	Instrument Version
ZCURVE	TABLE
	Pt	Time	Freq	Zreal	Zimag	Zsig	Zmod	Zphz	Idc	Vdc	IERange
	#	s	Hz	ohm	ohm	V	ohm	°	A	V	#
	0	1	1000078	2301.984	-1672.365	1	2845.336	-35.99797	1.81627E-006	0.0099939	8
	1	2	794390.6	2648.304	-1640.499	1	3115.245	-31.77626	-2.77997E-006	0.010091	8
	2	2	630984.4	2916.741	-1556.997	1	3306.299	-28.09392	-7.358028E-007	0.0102597	8
	3	2	501234.4	3180.808	-1423.807	1	3484.934	-24.11446	4.648502E-006	0.0086525	8
	4	3	398109.4	3422.296	-1333.001	1	3672.737	-21.28115	-4.558911E-006	0.0104993	8
	5	3	316265.6	3605.977	-1184.49	1	3795.535	-18.18429	-8.857638E-007	0.0097382	8
	6	3	251203.1	3755.621	-1058.802	1	3902.019	-15.74445	1.997895E-007	0.0093478	8
	7	4	199546.9	3897.276	-926.0356	1	4005.784	-13.36624	-2.67322E-007	0.0094025	8
	8	4	158578.1	3950.424	-824.0145	1	4035.449	-11.78232	-1.939311E-006	0.010309	8
	9	4	125953.1	4101.499	-664.2518	1	4154.94	-9.199373	-1.032034E-006	0.0123279	7
	10	4	100078.1	4154.987	-615.2802	1	4200.296	-8.423279	-5.462849E-008	0.0095502	7
	11	5	79453.13	4211.675	-578.4903	1	4251.219	-7.820864	3.216303E-008	0.0093762	7
	12	5	63140.62	4262.717	-554.3822	1	4298.615	-7.409939	-5.53036E-008	0.0095411	7
	13	5	50203.12	4312.138	-542.8427	1	4346.172	-7.175058	1.725275E-007	0.0092977	7
	14	6	39890.62	4361.169	-544.0897	1	4394.978	-7.111351	-8.369808E-008	0.009639	7
	15	6	31640.63	4410.689	-560.1098	1	4446.111	-7.237207	1.109832E-007	0.0093143	7
	16	6	25171.88	4463.167	-588.0822	1	4501.744	-7.506248	1.266477E-007	0.0093116	7
	17	7	20015.62	4517.321	-627.6819	1	4560.721	-7.9106	-1.052439E-009	0.0094816	7
	18	7	15890.62	4578.096	-683.184	1	4628.791	-8.48755	3.268968E-008	0.0093751	7
	19	7	12609.37	4643.563	-755.0551	1	4704.549	-9.235611	-3.432727E-008	0.0096182	7
	20	8	10078.13	4710.821	-837.7761	1	4784.737	-10.0841	1.958913E-009	0.0095682	7
	21	8	8015.625	4789.475	-941.0763	1	4881.055	-11.11634	1.259946E-007	0.0093062	7
	22	8	6328.125	4877.908	-1071.829	1	4994.277	-12.39273	3.027684E-008	0.0093737	7
	23	9	5015.625	4972.564	-1225.785	1	5121.42	-13.84787	-8.183374E-008	0.0096306	7
	24	9	3984.375	5075.273	-1410.048	1	5267.508	-15.52673	1.256148E-007	0.0093053	7
	25	9	3170.956	5188.664	-1627.696	1	5437.98	-17.41677	5.028095E-009	0.0096608	7
	26	10	2527.573	5311.05	-1886.157	1	5636.031	-19.5519	-2.448998E-008	0.009471	7
	27	10	1976.103	5456.387	-2228.948	1	5894.096	-22.22014	-2.453061E-008	0.0094682	7
	28	10	1577.524	5605.668	-2616.71	1	6186.331	-25.02304	-8.047272E-008	0.0095885	7
	29	11	1265.625	5767.672	-3070.574	1	6534.1	-28.0298	-9.464193E-010	0.00956	7
	30	11	998.264	5963.933	-3665.032	1	7000.068	-31.57209	-4.755424E-008	0.0095087	7
	31	11	796.875	6174.5	-4353.702	1	7555.076	-35.18805	6.054444E-008	0.0094432	7
	32	11	627.7902	6429.521	-5248.524	1	8299.744	-39.22533	6.540958E-009	0.0096586	7
	33	12	505.5147	6690.54	-6227.7	1	9140.436	-42.94806	1.120251E-007	0.0092914	7
	34	12	397.9953	7030.019	-7569.601	1	10330.54	-47.11661	1.130915E-009	0.0095119	6
	35	12	315.5048	7410.238	-9173.732	1	11792.75	-51.06987	9.229306E-010	0.0095105	6
	36	13	252.4038	7842.848	-11064.91	1	13562.54	-54.67086	1.108224E-009	0.0095094	6
	37	13	198.6229	8403.892	-13569.84	1	15961.39	-58.2298	6.413768E-010	0.0095122	6
	38	13	158.3615	9062.496	-16493.49	1	18819.24	-61.21301	5.88833E-010	0.0095106	6
	39	14	125.558	9911	-20162.8	1	22467.01	-63.82364	5.50284E-010	0.0095121	6
	40	14	100.4464	10966	-24494.53	1	26837.2	-65.88232	1.292495E-009	0.0095083	6
	41	14	79.00281	12388.73	-30207.92	1	32649.64	-67.70071	1.199073E-009	0.009506	6
	42	15	63.3446	14315.81	-36320.09	1	39039.61	-68.48778	5.988416E-010	0.0095059	6
	43	15	49.86702	16867.7	-44785.75	1	47856.9	-69.36208	1.180845E-010	0.0095064	6
	44	15	39.72458	19949.87	-54495.55	1	58032.43	-69.8932	1.028563E-009	0.0095095	6
	45	16	31.6723	24061.27	-65837.91	1	70096.91	-69.92455	7.654412E-010	0.0095088	6
	46	16	24.93351	30006.76	-80276.23	1	85701.1	-69.50457	7.624284E-010	0.009511	6
	47	16	19.86229	37546.71	-96399.4	1	103453.3	-68.71952	1.44295E-009	0.009507	6
	48	17	15.83615	45999.24	-114908.7	1	123773.7	-68.18322	1.20105E-010	0.0095014	5
	49	17	12.40079	60732.7	-137125.5	1	149972.9	-66.11151	-1.050672E-009	0.0095093	5
	50	17	9.93114	76353.53	-160763.4	1	177973.9	-64.59492	5.229095E-010	0.0095021	5
	51	18	7.944915	95292.1	-186615.5	1	209537.4	-62.94963	3.363296E-010	0.0095082	5
	52	18	6.317385	118333.1	-214863.1	1	245293.4	-61.15679	4.124917E-010	0.0094982	5
	53	19	5.008013	146084	-246259.8	1	286329.2	-59.32313	3.557657E-010	0.0095102	5
	54	20	3.945707	178423.4	-281044.5	1	332897.8	-57.59024	-3.214452E-010	0.0094976	5
	55	22	3.158693	213632.7	-315517.5	1	381038.3	-55.8986	3.431862E-011	0.0094879	5
	56	23	2.504006	253771.2	-355581.8	1	436850.3	-54.48536	3.057702E-010	0.0094943	5
	57	25	1.998082	295848.3	-396874.1	1	495010.3	-53.29745	2.508449E-011	0.0094614	5
	58	26	1.584686	343828.3	-446502	1	563544.1	-52.40197	-7.35434E-011	0.0094467	5
	59	28	1.266892	393032.8	-499577.2	1	635651.1	-51.80678	-8.868999E-012	0.0094725	5
	60	31	0.999041	450125	-562916.4	1	720754.7	-51.35311	2.746252E-011	0.0095008	5
