EXPLAIN
TAG	EISPOT
TITLE	LABEL	Potentiostatic EIS	Test &Identifier
DATE	LABEL	3/20/2020	Date
TIME	LABEL	15:16:19	Time
NOTES	NOTES	1	&Notes...
	
PSTAT	PSTAT	REF600-11020	Potentiostat
VDC	POTEN	0.00000E+000	T	DC &Voltage (V)
FREQINIT	QUANT	1.00000E+006	Initial Fre&q. (Hz)
FREQFINAL	QUANT	1.00000E+000	Final Fre&q. (Hz)
PTSPERDEC	QUANT	1.00000E+001	Points/&decade
VAC	QUANT	2.50000E+001	AC &Voltage (mV rms)
AREA	QUANT	4.00000E-004	&Area (cm^2)
CONDIT	TWOPARAM	F	5.00000E+000	0.00000E+000	Conditionin&g	Time(s)	E(V)
DELAY	TWOPARAM	T	3.00000E+000	0.00000E+000	Init. De&lay	Time(s)	Stab.(mV/s)
SPEED	SELECTOR	0	&Optimize for:
ZGUESS	QUANT	1.00000E+003	E&stimated Z (ohms)
OCVCURVE	TABLE	12
	Pt	T	Vf	Vm	Ach	Over
	#	s	V vs. Ref.	V	V	bits
	0	0.258333	1.23423E-001	1.23423E-001	5.73463E-004	...........
	1	0.516667	1.23424E-001	1.23448E-001	5.70930E-004	...........
	2	0.775	1.23427E-001	1.23482E-001	5.69630E-004	...........
	3	1.03333	1.23436E-001	1.23506E-001	5.75797E-004	...........
	4	1.29167	1.23454E-001	1.23544E-001	5.74463E-004	...........
	5	1.55	1.23477E-001	1.23536E-001	5.75997E-004	...........
	6	1.80833	1.23503E-001	1.23565E-001	5.73663E-004	...........
	7	2.06667	1.23526E-001	1.23614E-001	5.71697E-004	...........
	8	2.325	1.23548E-001	1.23614E-001	5.66230E-004	...........
	9	2.58333	1.23572E-001	1.23639E-001	5.63264E-004	...........
	10	2.84167	1.23596E-001	1.23706E-001	5.63430E-004	...........
	11	3.1	1.23622E-001	1.23701E-001	5.65097E-004	...........
EOC	QUANT	0.1236219	Open Circuit (V)
PSTATMODEL	IQUANT	4	Pstat Model
PSTATSECTION	LABEL	REF600-11020	Pstat Section
PSTATSERIALNO	LABEL	11020	Pstat Serial Number
CTRLMODE	IQUANT	1	Control Mode
IESTAB	IQUANT	0	I/E Stability
CASPEED	IQUANT	1	Control Amp Speed
CONVENTION	IQUANT	1	Current Convention
ICHRANGE	IQUANT	2	Ich Range
ICHRANGEMODE	TOGGLE	F	Ich Auto Range
ICHOFFSETENABLE	TOGGLE	T	Ich Offset Enable
ICHOFFSET	QUANT	0	Ich Offset (V)
ICHFILTER	IQUANT	3	Ich Filter
VCHRANGE	IQUANT	2	Vch Range
VCHRANGEMODE	TOGGLE	F	Vch Auto Range
VCHOFFSETENABLE	TOGGLE	T	Vch Offset Enable
VCHOFFSET	QUANT	0	Vch Offset (V)
VCHFILTER	IQUANT	3	Vch Filter
ACHRANGE	IQUANT	2	Ach Range
ACHOFFSETENABLE	TOGGLE	F	Ach Offset Enable
ACHOFFSET	QUANT	0	Ach Offset (V)
ACHFILTER	IQUANT	3	Ach Filter
IERANGELOWERLIMIT	IQUANT	1	I/E Range Lower Limit
IERANGEMODE	TOGGLE	F	I/E AutoRange
IERANGE	IQUANT	8	I/E Range
POSFEEDENABLE	TOGGLE	F	Positive Feedback IR Comp
POSFEEDRESISTANCE	QUANT	0	Positive Feedback Resistance (ohm)
ACHSELECT	IQUANT	0	Ach Select
CABLEID	IQUANT	14	Cable ID
DCCALDATE	LABEL	2/27/2020	DC Calibration Date
ACCALDATE	LABEL	2/27/2020	AC Calibration Date
THERMOSELECT	IQUANT	1	Thermo Select
FRAMEWORKVERSION	QUANT	6.33	Framework Version
INSTRUMENTVERSION	LABEL	3.50	Instrument Version
ZCURVE	TABLE
	Pt	Time	Freq	Zreal	Zimag	Zsig	Zmod	Zphz	Idc	Vdc	IERange
	#	s	Hz	ohm	ohm	V	ohm	°	A	V	#
	0	1	1000078	2052.329	-2532.227	1	3259.483	-50.97578	-3.330775E-007	0.1258291	8
	1	1	794390.6	2515.717	-2759.128	1	3733.848	-47.64207	5.80904E-007	0.125362	8
	2	1	630984.4	3024.425	-2937.596	1	4216.232	-44.16562	4.287282E-007	0.1252157	8
	3	2	501234.4	3568.578	-3064.641	1	4703.911	-40.65549	-1.395673E-007	0.1252193	8
	4	2	398109.4	4112.421	-3126.84	1	5166.152	-37.24719	2.16439E-007	0.1251221	8
	5	2	316265.6	4647.625	-3139.215	1	5608.484	-34.03686	5.939939E-007	0.125028	8
	6	3	251203.1	5152.614	-3111.529	1	6019.223	-31.12668	2.230388E-007	0.1250603	8
	7	3	199546.9	5629.809	-3070.877	1	6412.88	-28.61102	3.574053E-007	0.1250732	8
	8	4	158578.1	6063.792	-3026.241	1	6776.999	-26.52229	2.394455E-007	0.1250824	8
	9	4	125953.1	6533.087	-2917.799	1	7155.053	-24.06643	-8.162904E-009	0.1250557	7
	10	4	100078.1	6886.908	-2926.327	1	7482.84	-23.0212	1.830684E-008	0.1250118	7
	11	5	79453.13	7245.042	-2976.781	1	7832.743	-22.33636	3.790784E-009	0.1250467	7
	12	5	63140.62	7598.617	-3061.715	1	8192.257	-21.94601	1.893207E-008	0.1250084	7
	13	5	50203.12	7951.13	-3191.201	1	8567.627	-21.86815	-5.136833E-009	0.1250523	7
	14	5	39890.62	8315.885	-3366.144	1	8971.336	-22.03736	-5.062907E-009	0.1250375	7
	15	6	31640.63	8703.587	-3599.176	1	9418.412	-22.46646	4.811876E-009	0.125046	7
	16	6	25171.88	9108.463	-3883.211	1	9901.69	-23.09001	6.478333E-009	0.1250435	7
	17	6	20015.62	9543.83	-4227.856	1	10438.37	-23.89303	1.16156E-008	0.1250084	7
	18	7	15890.62	10023.05	-4644.682	1	11046.93	-24.86301	1.211208E-008	0.1250071	7
	19	7	12609.37	10643.71	-5023.749	1	11769.74	-25.26694	2.284638E-009	0.1250412	6
	20	7	10078.13	11201.29	-5599.999	1	12523.14	-26.5624	1.121369E-009	0.1250548	6
	21	8	8015.625	11836.53	-6279.068	1	13398.88	-27.94516	-1.861422E-011	0.1250882	6
	22	8	6328.125	12577.92	-7083.72	1	14435.48	-29.38765	5.607724E-011	0.1250955	6
	23	8	5015.625	13409.54	-7994.627	1	15611.85	-30.80295	-1.161428E-009	0.1251014	6
	24	9	3984.375	14337.39	-9021.877	1	16939.74	-32.18037	9.018091E-010	0.1250543	6
	25	9	3170.956	15382.46	-10181.29	1	18446.64	-33.49964	2.33117E-010	0.1250671	6
	26	9	2527.573	16559.46	-11483.11	1	20151.37	-34.73925	3.736012E-010	0.1250719	6
	27	10	1976.103	18019.15	-13089.06	1	22271.35	-35.99454	1.359095E-010	0.1250659	6
	28	10	1577.524	19544.64	-14757.67	1	24490.44	-37.05554	3.08112E-010	0.1250843	6
	29	10	1265.625	21236.09	-16581.27	1	26942.71	-37.98294	-8.336851E-011	0.1250816	6
	30	10	998.264	23289.66	-18786.67	1	29922.36	-38.89149	1.335303E-009	0.1250655	6
	31	11	796.875	25519.07	-21142.63	1	33139.61	-39.64185	2.0766E-009	0.1250252	6
	32	11	627.7902	28185.41	-23944.94	1	36983.48	-40.3496	1.974884E-010	0.12506	6
	33	11	505.5147	30931	-26799.36	1	40925.94	-40.90644	4.946776E-010	0.1250836	6
	34	12	397.9953	34335.08	-30304.24	1	45795.68	-41.43172	4.118254E-010	0.1250786	6
	35	12	315.5048	38097.43	-34141.95	1	51157.47	-41.86589	4.472928E-010	0.1250802	6
	36	12	252.4038	42189.59	-38271.29	1	56961.85	-42.212	2.715601E-010	0.1250738	6
	37	13	198.6229	47178.22	-43233.52	1	63991.58	-42.50174	3.764536E-010	0.1250773	6
	38	13	158.3615	52539.29	-48463.29	1	71477.73	-42.68906	3.472436E-010	0.1250724	6
	39	13	125.558	58802.35	-54421.02	1	80120.93	-42.78397	3.706288E-010	0.1250723	6
	40	14	100.4464	65656.7	-60742.88	1	89445.52	-42.77373	3.615306E-010	0.125075	6
	41	14	79.00281	74061.91	-68065.55	1	100588.7	-42.58412	-8.810017E-011	0.1250796	5
	42	14	63.3446	83034.05	-75690.48	1	112355.3	-42.35104	-1.491711E-010	0.1250737	5
	43	15	49.86702	93755.7	-84362.52	1	126123.6	-41.98127	-4.635206E-010	0.1250687	5
	44	15	39.72458	105213.8	-93062.7	1	140465.7	-41.4931	9.893741E-011	0.1250758	5
	45	15	31.6723	117938.4	-102280.6	1	156111.4	-40.93306	2.321092E-010	0.1250725	5
	46	16	24.93351	132656	-112515.6	1	173946.5	-40.30381	-9.447696E-010	0.125069	5
	47	16	19.86229	147847.3	-123188.9	1	192443	-39.80162	-2.024716E-009	0.1250709	5
	48	16	15.83615	164837.4	-133706.1	1	212246.8	-39.04687	1.296423E-009	0.1250653	5
	49	17	12.40079	183428.4	-146326.3	1	234643.1	-38.58041	1.350045E-009	0.125072	5
	50	17	9.93114	201389	-159525.7	1	256916.3	-38.3837	9.768806E-010	0.1250725	5
	51	17	7.944915	220800.8	-173686	1	280926.7	-38.18924	-1.33244E-009	0.1250744	5
	52	18	6.317385	243025.8	-189977	1	308468.5	-38.01528	5.274878E-010	0.1250525	5
	53	18	5.008013	267106.7	-208753.9	1	339004.7	-38.00895	4.856296E-010	0.1250726	5
	54	19	3.945707	292458.8	-230094.3	1	372123.1	-38.19418	-2.828757E-010	0.1250641	5
	55	20	3.158693	318929.2	-253410.2	1	407348.2	-38.46945	2.872338E-010	0.1250677	5
	56	21	2.504006	347374.7	-281365.3	1	447029.8	-39.00666	1.55793E-010	0.1250729	5
	57	22	1.998082	378048.8	-312991.8	1	490800.1	-39.62182	-1.50508E-010	0.1250323	5
	58	24	1.584686	410815.8	-352255.6	1	541159.6	-40.61156	-2.919216E-011	0.1250578	5
	59	26	1.266892	447063.2	-395622	1	596977.6	-41.50675	7.412134E-011	0.1250921	5
	60	29	0.999041	491333.9	-451053.4	1	666976.9	-42.55249	1.659632E-010	0.1251102	5
