EXPLAIN
TAG	EISPOT
TITLE	LABEL	Potentiostatic EIS	Test &Identifier
DATE	LABEL	2/28/2020	Date
TIME	LABEL	16:17:38	Time
NOTES	NOTES	1	&Notes...
	
PSTAT	PSTAT	REF600-11020	Potentiostat
VDC	POTEN	0.00000E+000	T	DC &Voltage (V)
FREQINIT	QUANT	1.00000E+006	Initial Fre&q. (Hz)
FREQFINAL	QUANT	1.00000E+000	Final Fre&q. (Hz)
PTSPERDEC	QUANT	1.00000E+001	Points/&decade
VAC	QUANT	2.50000E+001	AC &Voltage (mV rms)
AREA	QUANT	1.60000E-004	&Area (cm^2)
CONDIT	TWOPARAM	F	1.50000E+001	0.00000E+000	Conditionin&g	Time(s)	E(V)
DELAY	TWOPARAM	F	1.00000E+002	0.00000E+000	Init. De&lay	Time(s)	Stab.(mV/s)
SPEED	SELECTOR	1	&Optimize for:
ZGUESS	QUANT	1.00000E+003	E&stimated Z (ohms)
OCVCURVE	TABLE	39
	Pt	T	Vf	Vm	Ach	Over
	#	s	V vs. Ref.	V	V	bits
	0	0.258333	-8.64747E-002	-8.64747E-002	5.84163E-004	...........
	1	0.516667	-8.64754E-002	-8.65094E-002	5.79063E-004	...........
	2	0.775	-8.64790E-002	-8.65210E-002	5.81263E-004	...........
	3	1.03333	-8.64881E-002	-8.65352E-002	5.78297E-004	...........
	4	1.29167	-8.65054E-002	-8.67302E-002	5.78063E-004	...........
	5	1.55	-8.65385E-002	-8.67089E-002	5.78530E-004	...........
	6	1.80833	-8.65915E-002	-8.67805E-002	5.82130E-004	...........
	7	2.06667	-8.66550E-002	-8.68228E-002	5.86596E-004	...........
	8	2.325	-8.67205E-002	-8.71047E-002	5.81463E-004	...........
	9	2.58333	-8.67916E-002	-8.68096E-002	5.79130E-004	...........
	10	2.84167	-8.68562E-002	-8.67145E-002	5.82430E-004	...........
	11	3.1	-8.68779E-002	-8.66922E-002	5.86830E-004	...........
	12	3.35833	-8.68415E-002	-8.66240E-002	5.86696E-004	...........
	13	3.61667	-8.67743E-002	-8.66754E-002	5.80597E-004	...........
	14	3.875	-8.67144E-002	-8.67618E-002	5.77197E-004	...........
	15	4.13333	-8.66869E-002	-8.67530E-002	5.82063E-004	...........
	16	4.39167	-8.66936E-002	-8.67465E-002	5.81063E-004	...........
	17	4.65	-8.67162E-002	-8.67226E-002	5.83697E-004	...........
	18	4.90833	-8.67337E-002	-8.67278E-002	5.84563E-004	...........
	19	5.16667	-8.67386E-002	-8.67303E-002	5.83097E-004	...........
	20	5.425	-8.67364E-002	-8.67656E-002	5.86630E-004	...........
	21	5.68333	-8.67363E-002	-8.67772E-002	5.81430E-004	...........
	22	5.94167	-8.67433E-002	-8.67711E-002	5.80230E-004	...........
	23	6.2	-8.67545E-002	-8.67636E-002	5.86397E-004	...........
	24	6.45833	-8.67631E-002	-8.67290E-002	5.83230E-004	...........
	25	6.71667	-8.67641E-002	-8.67616E-002	5.84997E-004	...........
	26	6.975	-8.67597E-002	-8.67812E-002	5.84330E-004	...........
	27	7.23333	-8.67570E-002	-8.67509E-002	5.79963E-004	...........
	28	7.49167	-8.67584E-002	-8.67523E-002	5.84063E-004	...........
	29	7.75	-8.67603E-002	-8.67813E-002	5.88297E-004	...........
	30	8.00833	-8.67614E-002	-8.67611E-002	5.89196E-004	...........
	31	8.26667	-8.67631E-002	-8.67628E-002	5.87697E-004	...........
	32	8.525	-8.67649E-002	-8.67735E-002	5.87396E-004	...........
	33	8.78333	-8.67662E-002	-8.67716E-002	5.84663E-004	...........
	34	9.04167	-8.67676E-002	-8.67764E-002	5.89296E-004	...........
	35	9.3	-8.67699E-002	-8.67791E-002	5.84463E-004	...........
	36	9.5583	-8.67728E-002	-8.67874E-002	5.86030E-004	...........
	37	9.8167	-8.67763E-002	-8.67876E-002	5.86263E-004	...........
	38	10.075	-8.67803E-002	-8.67907E-002	5.84730E-004	...........
EOC	QUANT	-0.0867803	Open Circuit (V)
PSTATMODEL	IQUANT	4	Pstat Model
PSTATSECTION	LABEL	REF600-11020	Pstat Section
PSTATSERIALNO	LABEL	11020	Pstat Serial Number
CTRLMODE	IQUANT	1	Control Mode
IESTAB	IQUANT	0	I/E Stability
CASPEED	IQUANT	1	Control Amp Speed
CONVENTION	IQUANT	1	Current Convention
ICHRANGE	IQUANT	2	Ich Range
ICHRANGEMODE	TOGGLE	F	Ich Auto Range
ICHOFFSETENABLE	TOGGLE	T	Ich Offset Enable
ICHOFFSET	QUANT	0	Ich Offset (V)
ICHFILTER	IQUANT	3	Ich Filter
VCHRANGE	IQUANT	2	Vch Range
VCHRANGEMODE	TOGGLE	F	Vch Auto Range
VCHOFFSETENABLE	TOGGLE	T	Vch Offset Enable
VCHOFFSET	QUANT	0	Vch Offset (V)
VCHFILTER	IQUANT	3	Vch Filter
ACHRANGE	IQUANT	2	Ach Range
ACHOFFSETENABLE	TOGGLE	F	Ach Offset Enable
ACHOFFSET	QUANT	0	Ach Offset (V)
ACHFILTER	IQUANT	3	Ach Filter
IERANGELOWERLIMIT	IQUANT	1	I/E Range Lower Limit
IERANGEMODE	TOGGLE	F	I/E AutoRange
IERANGE	IQUANT	8	I/E Range
POSFEEDENABLE	TOGGLE	F	Positive Feedback IR Comp
POSFEEDRESISTANCE	QUANT	0	Positive Feedback Resistance (ohm)
ACHSELECT	IQUANT	0	Ach Select
CABLEID	IQUANT	14	Cable ID
DCCALDATE	LABEL	2/27/2020	DC Calibration Date
ACCALDATE	LABEL	2/27/2020	AC Calibration Date
THERMOSELECT	IQUANT	1	Thermo Select
FRAMEWORKVERSION	QUANT	6.33	Framework Version
INSTRUMENTVERSION	LABEL	3.50	Instrument Version
ZCURVE	TABLE
	Pt	Time	Freq	Zreal	Zimag	Zsig	Zmod	Zphz	Idc	Vdc	IERange
	#	s	Hz	ohm	ohm	V	ohm	°	A	V	#
	0	1	1000078	1614.824	-1753.714	1	2383.94	-47.36104	-1.048969E-006	-0.0840049	8
	1	3	794390.6	1850.527	-1929.473	1	2673.447	-46.19646	-1.612873E-006	-0.0844017	8
	2	4	630984.4	2120.588	-2119.511	1	2998.203	-44.98545	-1.409514E-006	-0.0846016	8
	3	5	501234.4	2415.957	-2322.879	1	3351.51	-43.87477	-4.131335E-007	-0.0848878	8
	4	7	398109.4	2737.644	-2545.659	1	3738.325	-42.9189	8.630208E-009	-0.08512	8
	5	8	316265.6	3087.624	-2802.673	1	4169.94	-42.2304	1.10654E-006	-0.0853478	8
	6	10	251203.1	3494.61	-3050.99	1	4639.056	-41.12278	-3.366286E-006	-0.0843673	8
	7	11	199546.9	3956.822	-3338.035	1	5176.768	-40.15149	5.101767E-007	-0.0852451	8
	8	13	158578.1	4467.286	-3623.77	1	5752.248	-39.04825	-3.289111E-006	-0.0843883	8
	9	14	125953.1	5132.09	-3822.291	1	6399.083	-36.6781	3.511751E-007	-0.0857357	7
	10	16	100078.1	5759.057	-4070.85	1	7052.557	-35.25498	-5.998885E-008	-0.0851252	7
	11	17	79453.13	6458.616	-4304.659	1	7761.688	-33.6834	3.131327E-009	-0.0852181	7
	12	18	63140.62	7209.18	-4477.305	1	8486.374	-31.8426	-7.609822E-008	-0.0851114	7
	13	20	50203.12	7985.106	-4590.958	1	9210.8	-29.89633	-3.058233E-008	-0.0851668	7
	14	21	39890.62	8790.284	-4644.557	1	9941.88	-27.8508	9.101674E-008	-0.0853974	7
	15	23	31640.63	9586.62	-4636.557	1	10648.99	-25.81067	-2.437939E-008	-0.0851377	7
	16	24	25171.88	10342.3	-4563.428	1	11304.34	-23.80894	-3.253143E-008	-0.0851387	7
	17	26	20015.62	11075.05	-4455.924	1	11937.84	-21.91684	1.700819E-009	-0.0851626	7
	18	27	15890.62	11731.99	-4310.772	1	12498.89	-20.17522	5.589297E-008	-0.0852256	7
	19	29	12609.37	12449.11	-4029.823	1	13085.1	-17.93695	-2.397031E-009	-0.0852492	6
	20	30	10078.13	12975.67	-3929.138	1	13557.51	-16.84673	1.49602E-009	-0.0851129	6
	21	32	8015.625	13485.53	-3846.228	1	14023.3	-15.91876	-3.829566E-009	-0.0851639	6
	22	33	6328.125	13970.73	-3803.442	1	14479.21	-15.22932	-2.577611E-009	-0.085084	6
	23	35	5015.625	14435.92	-3807.707	1	14929.64	-14.77615	-4.161739E-010	-0.0852599	6
	24	37	3984.375	14887.76	-3860.84	1	15380.23	-14.53824	-1.201398E-008	-0.0850036	6
	25	38	3170.956	15336.1	-3958.049	1	15838.63	-14.4715	-1.460531E-009	-0.0852617	6
	26	40	2527.573	15799.51	-4118.759	1	16327.54	-14.61119	-3.484531E-009	-0.0852616	6
	27	41	1976.103	16302.23	-4333.629	1	16868.4	-14.88668	1.247694E-008	-0.0854385	6
	28	43	1577.524	16761.15	-4595.527	1	17379.73	-15.33242	2.106803E-009	-0.0851268	6
	29	44	1265.625	17256.31	-4904.748	1	17939.81	-15.8667	-4.79846E-009	-0.0851858	6
	30	46	998.264	17797.86	-5328.598	1	18578.42	-16.66746	-1.110443E-008	-0.0851677	6
	31	47	796.875	18309.61	-5820.342	1	19212.45	-17.63465	-5.699201E-009	-0.0851634	6
	32	49	627.7902	18902.63	-6462.812	1	19976.92	-18.87557	1.239942E-008	-0.0854388	6
	33	50	505.5147	19467.18	-7176.227	1	20747.76	-20.2355	1.232309E-008	-0.0854377	6
	34	51	397.9953	20124.85	-8127.638	1	21704.11	-21.99185	1.508382E-010	-0.0851677	6
	35	53	315.5048	20815.87	-9258.246	1	22781.91	-23.978	-2.028007E-010	-0.0851711	6
	36	54	252.4038	21556.15	-10577.83	1	24011.63	-26.13768	7.193175E-011	-0.0851723	6
	37	55	198.6229	22383.05	-12290.7	1	25535.51	-28.77152	8.853854E-011	-0.0851691	6
	38	57	158.3615	23233.34	-14275.87	1	27268.82	-31.5689	7.997938E-011	-0.0851737	6
	39	58	125.558	24197.71	-16752.15	1	29430.66	-34.69497	-1.609789E-010	-0.0851719	6
	40	60	100.4464	25194.47	-19671.13	1	31964.27	-37.98171	6.581184E-011	-0.0851743	6
	41	61	79.00281	26379.86	-23554.11	1	35365.14	-41.7611	2.91767E-010	-0.0851754	6
	42	63	63.3446	27461.76	-27934.07	1	39172.19	-45.48849	3.6159E-011	-0.0851769	6
	43	65	49.86702	29153.06	-33778.95	1	44619.71	-49.20403	1.268285E-010	-0.0851802	6
	44	66	39.72458	30910.47	-40701.06	1	51108.06	-52.7851	-1.116846E-010	-0.0851745	6
	45	68	31.6723	33091.59	-49178.57	1	59275.51	-56.06393	1.249453E-010	-0.0851782	6
	46	69	24.93351	35941.85	-60102.39	1	70029.38	-59.12014	3.032413E-010	-0.085179	6
	47	71	19.86229	39454.8	-72848.71	1	82846.94	-61.56006	3.796181E-010	-0.0851675	6
	48	72	15.83615	44007.11	-87954.57	1	98349.5	-63.41941	7.261097E-010	-0.0851774	6
	49	73	12.40079	49886.41	-108455.1	1	119378.2	-65.29885	-3.307162E-010	-0.0851711	5
	50	75	9.93114	57233.07	-130521.5	1	142518.3	-66.32277	-2.746893E-010	-0.085168	5
	51	76	7.944915	66332.02	-156793.6	1	170247.4	-67.06905	4.0139E-010	-0.0851762	5
	52	78	6.317385	78592.71	-189048.2	1	204734	-67.42595	2.740526E-010	-0.0851743	5
	53	80	5.008013	94349.2	-228097.1	1	246840.1	-67.52824	1.462361E-010	-0.0851664	5
	54	82	3.945707	114874.6	-274955.2	1	297987.5	-67.32512	-1.63107E-010	-0.0851781	5
	55	85	3.158693	139551.5	-326518.6	1	355090.2	-66.85852	1.409195E-010	-0.0851771	5
	56	88	2.504006	170964	-388053.7	1	424045.2	-66.22326	-8.111289E-011	-0.0851634	5
	57	91	1.998082	210178.9	-455736	1	501866.9	-65.24153	3.559485E-010	-0.0852024	5
	58	94	1.584686	257373.8	-539560.2	1	597801.4	-64.49854	-3.896332E-011	-0.0852103	5
	59	98	1.266892	313742	-627332.6	1	701413	-63.42941	1.855501E-010	-0.0852059	5
	60	102	0.999041	383995.2	-734007.9	1	828383.9	-62.38374	-9.053218E-011	-0.0851602	5
