EXPLAIN
TAG	EISPOT
TITLE	LABEL	Potentiostatic EIS	Test &Identifier
DATE	LABEL	3/9/2020	Date
TIME	LABEL	21:11:57	Time
NOTES	NOTES	1	&Notes...
	
PSTAT	PSTAT	REF600-11020	Potentiostat
VDC	POTEN	0.00000E+000	T	DC &Voltage (V)
FREQINIT	QUANT	1.00000E+006	Initial Fre&q. (Hz)
FREQFINAL	QUANT	1.00000E+000	Final Fre&q. (Hz)
PTSPERDEC	QUANT	1.00000E+001	Points/&decade
VAC	QUANT	2.50000E+001	AC &Voltage (mV rms)
AREA	QUANT	4.00000E-005	&Area (cm^2)
CONDIT	TWOPARAM	F	5.00000E+000	0.00000E+000	Conditionin&g	Time(s)	E(V)
DELAY	TWOPARAM	T	3.00000E+000	0.00000E+000	Init. De&lay	Time(s)	Stab.(mV/s)
SPEED	SELECTOR	0	&Optimize for:
ZGUESS	QUANT	1.00000E+003	E&stimated Z (ohms)
OCVCURVE	TABLE	12
	Pt	T	Vf	Vm	Ach	Over
	#	s	V vs. Ref.	V	V	bits
	0	0.258333	5.12914E-002	5.12914E-002	5.75730E-004	...........
	1	0.516667	5.12910E-002	5.12717E-002	5.69963E-004	...........
	2	0.775	5.12888E-002	5.12564E-002	5.65630E-004	...........
	3	1.03333	5.12826E-002	5.12379E-002	5.70997E-004	...........
	4	1.29167	5.12715E-002	5.12170E-002	5.70630E-004	...........
	5	1.55	5.12564E-002	5.12006E-002	5.71063E-004	...........
	6	1.80833	5.12388E-002	5.11802E-002	5.71130E-004	...........
	7	2.06667	5.12202E-002	5.11649E-002	5.72097E-004	...........
	8	2.325	5.12015E-002	5.11458E-002	5.74297E-004	...........
	9	2.58333	5.11833E-002	5.11293E-002	5.73530E-004	...........
	10	2.84167	5.11654E-002	5.11115E-002	5.70697E-004	...........
	11	3.1	5.11478E-002	5.10933E-002	5.66697E-004	...........
EOC	QUANT	0.0511478	Open Circuit (V)
PSTATMODEL	IQUANT	4	Pstat Model
PSTATSECTION	LABEL	REF600-11020	Pstat Section
PSTATSERIALNO	LABEL	11020	Pstat Serial Number
CTRLMODE	IQUANT	1	Control Mode
IESTAB	IQUANT	0	I/E Stability
CASPEED	IQUANT	1	Control Amp Speed
CONVENTION	IQUANT	1	Current Convention
ICHRANGE	IQUANT	2	Ich Range
ICHRANGEMODE	TOGGLE	F	Ich Auto Range
ICHOFFSETENABLE	TOGGLE	T	Ich Offset Enable
ICHOFFSET	QUANT	0	Ich Offset (V)
ICHFILTER	IQUANT	3	Ich Filter
VCHRANGE	IQUANT	2	Vch Range
VCHRANGEMODE	TOGGLE	F	Vch Auto Range
VCHOFFSETENABLE	TOGGLE	T	Vch Offset Enable
VCHOFFSET	QUANT	0	Vch Offset (V)
VCHFILTER	IQUANT	3	Vch Filter
ACHRANGE	IQUANT	2	Ach Range
ACHOFFSETENABLE	TOGGLE	F	Ach Offset Enable
ACHOFFSET	QUANT	0	Ach Offset (V)
ACHFILTER	IQUANT	3	Ach Filter
IERANGELOWERLIMIT	IQUANT	1	I/E Range Lower Limit
IERANGEMODE	TOGGLE	F	I/E AutoRange
IERANGE	IQUANT	7	I/E Range
POSFEEDENABLE	TOGGLE	F	Positive Feedback IR Comp
POSFEEDRESISTANCE	QUANT	0	Positive Feedback Resistance (ohm)
ACHSELECT	IQUANT	0	Ach Select
CABLEID	IQUANT	14	Cable ID
DCCALDATE	LABEL	2/27/2020	DC Calibration Date
ACCALDATE	LABEL	2/27/2020	AC Calibration Date
THERMOSELECT	IQUANT	1	Thermo Select
FRAMEWORKVERSION	QUANT	6.33	Framework Version
INSTRUMENTVERSION	LABEL	3.50	Instrument Version
ZCURVE	TABLE
	Pt	Time	Freq	Zreal	Zimag	Zsig	Zmod	Zphz	Idc	Vdc	IERange
	#	s	Hz	ohm	ohm	V	ohm	°	A	V	#
	0	1	1000078	1872.255	-1970.063	1	2717.809	-46.45818	4.332771E-008	0.053679	8
	1	1	794390.6	2211.13	-2115.539	1	3060.164	-43.73434	2.652043E-008	0.0533103	8
	2	2	630984.4	2566.125	-2239.622	1	3406.01	-41.11328	2.819009E-008	0.0531482	8
	3	2	501234.4	2933.38	-2350.074	1	3758.666	-38.69993	3.466926E-008	0.0530322	8
	4	2	398109.4	3313.333	-2438.66	1	4114.029	-36.3536	4.891977E-008	0.0529839	8
	5	3	316265.6	3700.161	-2528.697	1	4481.685	-34.34878	4.831839E-008	0.0529597	8
	6	3	251203.1	4109.631	-2610.835	1	4868.832	-32.42766	4.010535E-008	0.0529301	8
	7	3	199546.9	4528.722	-2688.847	1	5266.804	-30.69896	1.473726E-008	0.0529112	8
	8	3	158578.1	4976.463	-2744.544	1	5683.107	-28.87695	1.326945E-008	0.0529306	8
	9	4	125953.1	5523.527	-2677.506	1	6138.273	-25.86159	-4.540479E-010	0.052872	7
	10	4	100078.1	5976.503	-2681.536	1	6550.513	-24.16481	1.518277E-009	0.0528573	7
	11	4	79453.13	6454.398	-2647.978	1	6976.464	-22.30635	6.502118E-010	0.0528472	7
	12	5	63140.62	6917.624	-2564.852	1	7377.804	-20.3433	1.390942E-009	0.0528569	7
	13	5	50203.12	7351.849	-2433.261	1	7744.059	-18.31314	9.269632E-010	0.0528507	7
	14	5	39890.62	7744.319	-2269.916	1	8070.13	-16.33624	1.176378E-009	0.0528441	7
	15	6	31640.63	8089.512	-2088.666	1	8354.803	-14.47727	1.575161E-009	0.0528498	7
	16	6	25171.88	8376.413	-1903.666	1	8590.008	-12.80385	1.458907E-009	0.0528398	7
	17	6	20015.62	8609.796	-1727.783	1	8781.447	-11.34719	1.230133E-009	0.0528381	7
	18	7	15890.62	8806.376	-1576.174	1	8946.316	-10.14741	1.960538E-009	0.0528398	7
	19	7	12609.37	9029.305	-1293.844	1	9121.533	-8.154625	-2.269167E-010	0.0528909	6
	20	7	10078.13	9141.497	-1227.937	1	9223.6	-7.650497	-7.76867E-011	0.0528936	6
	21	8	8015.625	9237.427	-1195.043	1	9314.407	-7.371396	-1.923785E-010	0.0528907	6
	22	8	6328.125	9320.553	-1197.616	1	9397.18	-7.321925	-1.417528E-010	0.052889	6
	23	8	5015.625	9397.648	-1239.158	1	9478.993	-7.511593	-2.095708E-010	0.0528917	6
	24	9	3984.375	9469.748	-1325.114	1	9562.01	-7.965748	-1.981621E-010	0.0528911	6
	25	9	3170.956	9541.24	-1457.823	1	9651.97	-8.687137	-1.925294E-010	0.0528897	6
	26	9	2527.573	9606.74	-1642.589	1	9746.16	-9.70277	-4.983645E-010	0.0528909	6
	27	10	1976.103	9689.61	-1915.999	1	9877.22	-11.18524	-4.494477E-010	0.0528888	6
	28	10	1577.524	9773.36	-2245.452	1	10027.99	-12.93929	-1.553504E-010	0.0528914	6
	29	10	1265.625	9867.27	-2651.05	1	10217.2	-15.03858	-2.806839E-010	0.0528782	6
	30	11	998.264	9987.37	-3202.365	1	10488.22	-17.77801	-2.383702E-011	0.0528967	6
	31	11	796.875	10121.5	-3855.224	1	10830.86	-20.85157	-4.516426E-010	0.0528859	6
	32	11	627.7902	10299.7	-4714.728	1	11327.51	-24.59612	-1.660487E-010	0.0528833	6
	33	11	505.5147	10508.33	-5677.234	1	11943.87	-28.38059	-4.705524E-010	0.0528861	6
	34	12	397.9953	10801.77	-6980.661	1	12861.1	-32.87263	5.271156E-010	0.0528986	6
	35	12	315.5048	11165.59	-8539.62	1	14056.87	-37.40933	5.352442E-010	0.0528992	6
	36	12	252.4038	11623.63	-10364.11	1	15573.17	-41.72151	5.004797E-010	0.052897	6
	37	13	198.6229	12269.08	-12751.63	1	17695.61	-46.10487	5.625975E-010	0.0528991	6
	38	13	158.3615	13073.52	-15493.94	1	20272.62	-49.8429	1.720456E-010	0.052898	6
	39	13	125.558	14164.96	-18881.68	1	23604.32	-53.12291	1.088224E-010	0.052902	6
	40	14	100.4464	15541.77	-22777.55	1	27574.69	-55.69317	1.54658E-010	0.052892	6
	41	14	79.00281	17497.69	-27776.01	1	32827.97	-57.79084	3.956866E-010	0.0528944	6
	42	14	63.3446	19868.2	-33202.98	1	38693.45	-59.10429	3.568201E-010	0.052896	6
	43	15	49.86702	23222.15	-40072.93	1	46315.32	-59.90783	1.215552E-010	0.0528944	6
	44	15	39.72458	27357.76	-47606.44	1	54907.38	-60.11552	2.029978E-010	0.0528918	6
	45	15	31.6723	32590.3	-56112.21	1	64889.96	-59.85173	6.61843E-010	0.0528948	6
	46	16	24.93351	39550.88	-66153	1	77074.59	-59.12607	-7.861779E-010	0.0528931	6
	47	16	19.86229	47632.09	-76612.29	1	90212.3	-58.12958	-1.526757E-009	0.0528922	6
	48	16	15.83615	57208.83	-87832.02	1	104820.4	-56.92205	6.482811E-010	0.0529028	5
	49	17	12.40079	69566.88	-100786.7	1	122464.3	-55.38506	-2.255137E-009	0.0529029	5
	50	17	9.93114	81627.36	-113224.7	1	139581	-54.21094	-1.789355E-009	0.0528945	5
	51	17	7.944915	95232	-126562.1	1	158389.1	-53.04028	9.075808E-010	0.0529007	5
	52	18	6.317385	110033.5	-141905.8	1	179567.9	-52.21004	-1.589317E-010	0.0529064	5
	53	19	5.008013	125821.4	-159266.7	1	202970.2	-51.69111	-6.156974E-010	0.05289	5
	54	19	3.945707	143141.5	-179667.5	1	229717	-51.45558	-1.06655E-010	0.0528997	5
	55	20	3.158693	159696	-202497.5	1	257891.6	-51.73956	-2.940487E-010	0.0528857	5
	56	21	2.504006	178581.8	-230597.8	1	291662.2	-52.24473	2.090144E-010	0.0528879	5
	57	23	1.998082	197710.8	-263834.7	1	329694.3	-53.15308	1.647606E-010	0.0529054	5
	58	24	1.584686	220572.8	-304350.9	1	375874.8	-54.06796	-4.972564E-011	0.0528557	5
	59	26	1.266892	245084.8	-352859.1	1	429623.2	-55.21738	-4.079344E-011	0.0528428	5
	60	29	0.999041	273856.4	-414352.6	1	496674.3	-56.53824	-2.699108E-011	0.0528612	5
