EXPLAIN
TAG	EISPOT
TITLE	LABEL	Potentiostatic EIS	Test &Identifier
DATE	LABEL	1/25/2020	Date
TIME	LABEL	14:09:28	Time
NOTES	NOTES	6	&Notes...
	
	
	
	
	
	
PSTAT	PSTAT	REF600-11020	Potentiostat
VDC	POTEN	0.00000E+000	T	DC &Voltage (V)
FREQINIT	QUANT	1.00000E+006	Initial Fre&q. (Hz)
FREQFINAL	QUANT	1.00000E+000	Final Fre&q. (Hz)
PTSPERDEC	QUANT	1.00000E+001	Points/&decade
VAC	QUANT	2.50000E+001	AC &Voltage (mV rms)
AREA	QUANT	1.00000E-001	&Area (cm^2)
CONDIT	TWOPARAM	F	5.00000E+000	0.00000E+000	Conditionin&g	Time(s)	E(V)
DELAY	TWOPARAM	F	5.00000E+000	0.00000E+000	Init. De&lay	Time(s)	Stab.(mV/s)
SPEED	SELECTOR	0	&Optimize for:
ZGUESS	QUANT	5.00000E+002	E&stimated Z (ohms)
OCVCURVE	TABLE	39
	Pt	T	Vf	Vm	Ach	Over
	#	s	V vs. Ref.	V	V	bits
	0	0.258333	8.92657E-003	8.92657E-003	6.47913E-004	...........
	1	0.516667	8.92191E-003	8.68258E-003	6.48846E-004	...........
	2	0.775	8.89337E-003	8.45539E-003	6.46046E-004	...........
	3	1.03333	8.81417E-003	8.30498E-003	6.46180E-004	...........
	4	1.29167	8.67962E-003	8.21352E-003	6.47846E-004	...........
	5	1.55	8.51792E-003	8.11916E-003	6.50980E-004	...........
	6	1.80833	8.36433E-003	8.02800E-003	6.48680E-004	...........
	7	2.06667	8.23455E-003	7.89545E-003	6.52646E-004	...........
	8	2.325	8.12174E-003	7.72981E-003	6.53480E-004	...........
	9	2.58333	8.00996E-003	7.63791E-003	6.59846E-004	...........
	10	2.84167	7.89081E-003	7.52998E-003	6.53746E-004	...........
	11	3.1	7.76902E-003	7.44454E-003	6.56446E-004	...........
	12	3.35833	7.65403E-003	7.38163E-003	6.57413E-004	...........
	13	3.61667	7.55154E-003	7.29434E-003	6.53280E-004	...........
	14	3.875	7.46225E-003	7.25358E-003	6.58046E-004	...........
	15	4.13333	7.38653E-003	7.30897E-003	6.55146E-004	...........
	16	4.39167	7.33093E-003	7.32503E-003	6.55613E-004	...........
	17	4.65	7.30252E-003	7.28218E-003	6.44913E-004	...........
	18	4.90833	7.29449E-003	7.22824E-003	6.47380E-004	...........
	19	5.16667	7.28669E-003	7.13062E-003	6.51980E-004	...........
	20	5.425	7.26069E-003	7.05179E-003	6.55779E-004	...........
	21	5.68333	7.21028E-003	6.97014E-003	6.53880E-004	...........
	22	5.94167	7.14139E-003	6.92896E-003	6.56013E-004	...........
	23	6.2	7.06716E-003	6.91832E-003	6.52280E-004	...........
	24	6.45833	7.00260E-003	6.94977E-003	6.54313E-004	...........
	25	6.71667	6.95956E-003	6.95305E-003	6.52046E-004	...........
	26	6.975	6.94069E-003	6.93533E-003	6.56680E-004	...........
	27	7.23333	6.93659E-003	6.87597E-003	6.55713E-004	...........
	28	7.49167	6.93061E-003	6.79814E-003	6.49580E-004	...........
	29	7.75	6.90844E-003	6.73085E-003	6.51680E-004	...........
	30	8.00833	6.86669E-003	6.73295E-003	6.50846E-004	...........
	31	8.26667	6.81566E-003	6.72538E-003	6.54313E-004	...........
	32	8.525	6.77159E-003	6.74012E-003	6.57213E-004	...........
	33	8.78333	6.74465E-003	6.74232E-003	6.55146E-004	...........
	34	9.04167	6.73402E-003	6.71653E-003	6.57813E-004	...........
	35	9.3	6.73051E-003	6.66343E-003	6.59079E-004	...........
	36	9.5583	6.72210E-003	6.62250E-003	6.48413E-004	...........
	37	9.8167	6.70106E-003	6.57584E-003	6.56879E-004	...........
	38	10.075	6.66880E-003	6.60443E-003	6.52346E-004	...........
EOC	QUANT	0.0066688	Open Circuit (V)
PSTATMODEL	IQUANT	4	Pstat Model
PSTATSECTION	LABEL	REF600-11020	Pstat Section
PSTATSERIALNO	LABEL	11020	Pstat Serial Number
CTRLMODE	IQUANT	1	Control Mode
IESTAB	IQUANT	0	I/E Stability
CASPEED	IQUANT	1	Control Amp Speed
CONVENTION	IQUANT	1	Current Convention
ICHRANGE	IQUANT	2	Ich Range
ICHRANGEMODE	TOGGLE	F	Ich Auto Range
ICHOFFSETENABLE	TOGGLE	T	Ich Offset Enable
ICHOFFSET	QUANT	0	Ich Offset (V)
ICHFILTER	IQUANT	3	Ich Filter
VCHRANGE	IQUANT	2	Vch Range
VCHRANGEMODE	TOGGLE	F	Vch Auto Range
VCHOFFSETENABLE	TOGGLE	T	Vch Offset Enable
VCHOFFSET	QUANT	0	Vch Offset (V)
VCHFILTER	IQUANT	3	Vch Filter
ACHRANGE	IQUANT	2	Ach Range
ACHOFFSETENABLE	TOGGLE	F	Ach Offset Enable
ACHOFFSET	QUANT	0	Ach Offset (V)
ACHFILTER	IQUANT	3	Ach Filter
IERANGELOWERLIMIT	IQUANT	1	I/E Range Lower Limit
IERANGEMODE	TOGGLE	F	I/E AutoRange
IERANGE	IQUANT	7	I/E Range
POSFEEDENABLE	TOGGLE	F	Positive Feedback IR Comp
POSFEEDRESISTANCE	QUANT	0	Positive Feedback Resistance (ohm)
ACHSELECT	IQUANT	0	Ach Select
CABLEID	IQUANT	14	Cable ID
DCCALDATE	LABEL	12/22/2019	DC Calibration Date
ACCALDATE	LABEL	12/22/2019	AC Calibration Date
THERMOSELECT	IQUANT	1	Thermo Select
FRAMEWORKVERSION	QUANT	6.33	Framework Version
INSTRUMENTVERSION	LABEL	3.50	Instrument Version
ZCURVE	TABLE
	Pt	Time	Freq	Zreal	Zimag	Zsig	Zmod	Zphz	Idc	Vdc	IERange
	#	s	Hz	ohm	ohm	V	ohm	°	A	V	#
	0	1	1000078	2092.56	-1989.417	1	2887.315	-43.55257	-3.838019E-006	0.0099226	8
	1	2	794390.6	2472.573	-2067.197	1	3222.874	-39.89734	-1.380499E-006	0.0092633	8
	2	2	630984.4	2872.355	-2090.207	1	3552.377	-36.0433	7.670629E-007	0.008428	8
	3	2	501234.4	3275.212	-2079.925	1	3879.833	-32.41761	1.665205E-006	0.0081456	8
	4	3	398109.4	3653.168	-2020.786	1	4174.831	-28.9496	9.058931E-007	0.008243	8
	5	3	316265.6	4000.229	-1909.944	1	4432.8	-25.52255	3.436714E-006	0.0078203	8
	6	3	251203.1	4305.624	-1780.563	1	4659.271	-22.46722	-7.817723E-007	0.008461	8
	7	4	199546.9	4608.955	-1624.599	1	4886.899	-19.41692	1.251222E-006	0.0081204	8
	8	4	158578.1	4820.263	-1481.841	1	5042.895	-17.08843	7.691629E-007	0.0082178	8
	9	4	125953.1	5038.93	-1314.626	1	5207.596	-14.62218	8.729649E-007	0.0064267	7
	10	5	100078.1	5187.562	-1194.779	1	5323.373	-12.96996	3.96203E-008	0.0083586	7
	11	5	79453.13	5321.54	-1089.141	1	5431.852	-11.56679	-4.881083E-009	0.008383	7
	12	5	63140.62	5440.811	-1001.694	1	5532.252	-10.43176	5.315028E-008	0.0082629	7
	13	6	50203.12	5540.77	-932.8569	1	5618.75	-9.55682	6.212437E-010	0.0083041	7
	14	6	39890.62	5633.332	-884.9753	1	5702.421	-8.927985	1.466222E-008	0.0082922	7
	15	6	31640.63	5715.504	-852.7559	1	5778.77	-8.485958	-3.624317E-008	0.0084199	7
	16	7	25171.88	5796.007	-843.3549	1	5857.042	-8.278791	-2.707473E-008	0.0083646	7
	17	7	20015.62	5875.226	-853.1703	1	5936.85	-8.262445	-2.005657E-008	0.0084182	7
	18	7	15890.62	5950.281	-885.1121	1	6015.752	-8.460782	-1.071118E-008	0.0083777	7
	19	8	12609.37	6038.753	-935.0153	1	6110.711	-8.801547	5.277107E-008	0.0082348	7
	20	8	10078.13	6123.672	-1004.113	1	6205.45	-9.31206	-1.248268E-008	0.0083382	7
	21	8	8015.625	6221.606	-1092.307	1	6316.765	-9.95774	-3.706697E-008	0.0083912	7
	22	8	6328.125	6332.647	-1207.136	1	6446.674	-10.79231	1.809336E-008	0.0082819	7
	23	9	5015.625	6449.624	-1345.061	1	6588.387	-11.78012	-3.728496E-008	0.0083903	7
	24	9	3984.375	6572.675	-1515.951	1	6745.232	-12.98783	-4.013704E-009	0.0083624	7
	25	9	3170.956	6703.196	-1703.671	1	6916.31	-14.26025	-1.349846E-008	0.0083316	7
	26	10	2527.573	6843.118	-1938.503	1	7112.387	-15.81625	5.320784E-008	0.0082394	7
	27	10	1976.103	7001.752	-2250.767	1	7354.623	-17.8204	5.409998E-008	0.0082385	7
	28	10	1577.524	7147.702	-2603.882	1	7607.223	-20.0165	-1.457608E-008	0.0083252	7
	29	11	1265.625	7315.601	-3016.541	1	7913.125	-22.40849	-2.666101E-008	0.0083429	7
	30	11	998.264	7505.039	-3577.048	1	8313.896	-25.48338	-3.112059E-008	0.0083535	7
	31	11	796.875	7705.147	-4235.885	1	8792.725	-28.79968	-1.794732E-008	0.0083954	7
	32	12	627.7902	7950.181	-5092.048	1	9441.098	-32.63934	9.759548E-010	0.0083625	6
	33	12	505.5147	8204.962	-6052.645	1	10195.88	-36.41549	1.089936E-008	0.0081381	6
	34	12	397.9953	8542.404	-7350.388	1	11269.47	-40.71064	4.714537E-010	0.0083379	6
	35	13	315.5048	8940.326	-8906.764	1	12619.82	-44.89225	7.033695E-010	0.0083394	6
	36	13	252.4038	9408.482	-10732.24	1	14272.37	-48.76038	4.112583E-010	0.0083381	6
	37	13	198.6229	10032.7	-13131.78	1	16525.7	-52.62011	4.370525E-010	0.0083365	6
	38	14	158.3615	10775.4	-15893.69	1	19202.05	-55.86403	3.184843E-010	0.0083361	6
	39	14	125.558	11727.92	-19329.57	1	22609.21	-58.75335	5.782421E-010	0.0083328	6
	40	14	100.4464	12873.88	-23308.96	1	26627.89	-61.08748	6.258933E-010	0.0083341	6
	41	15	79.00281	14464.87	-28505.77	1	31965.79	-63.09509	4.815284E-010	0.0083308	6
	42	15	63.3446	16115.59	-34245.1	1	37847.57	-64.79854	4.360091E-010	0.0083349	6
	43	15	49.86702	18594.47	-41679.88	1	45639.53	-65.95711	3.059942E-010	0.0083297	6
	44	16	39.72458	21595.59	-50246.71	1	54690.96	-66.7424	4.534885E-010	0.0083325	6
	45	16	31.6723	25286.7	-60400.59	1	65480.14	-67.28338	-2.238139E-011	0.0083311	6
	46	16	24.93351	30043.56	-73227.66	1	79151.16	-67.69283	9.613593E-010	0.0083273	6
	47	17	19.86229	35825.26	-87831.41	1	94856.76	-67.81011	1.865427E-009	0.0083427	6
	48	17	15.83615	43644.76	-105532.1	1	114201.1	-67.53155	-1.312447E-009	0.0083251	5
	49	17	12.40079	53808.18	-126905	1	137841.2	-67.02287	8.760931E-010	0.0083235	5
	50	17	9.93114	65888.56	-150072.5	1	163899.5	-66.29636	5.585558E-010	0.0083314	5
	51	18	7.944915	81607.79	-176876.4	1	194795	-65.23219	-4.459344E-010	0.0083285	5
	52	18	6.317385	100135	-207436.5	1	230340.9	-64.2322	2.911588E-010	0.0083129	5
	53	19	5.008013	123904.4	-242409.5	1	272240.1	-62.92676	3.562167E-010	0.0083238	5
	54	20	3.945707	151962	-282069.2	1	320399	-61.68687	-2.231741E-010	0.0083198	5
	55	21	3.158693	182732.7	-322740	1	370880.6	-60.48182	1.801249E-010	0.0083189	5
	56	22	2.504006	218226.5	-370671.6	1	430139.8	-59.51329	2.004838E-010	0.0083234	5
	57	24	1.998082	256506.8	-422904.3	1	494614.8	-58.76167	-1.974385E-011	0.0082745	5
	58	25	1.584686	297909.1	-485579.7	1	569681.9	-58.47037	2.303913E-011	0.0082931	5
	59	27	1.266892	343038.5	-555038.3	1	652489.8	-58.28207	8.353088E-011	0.0083288	5
	60	30	0.999041	397244	-643617.3	1	756337.2	-58.31689	1.036245E-010	0.0083512	5
