EXPLAIN
TAG	EISPOT
TITLE	LABEL	Potentiostatic EIS	Test &Identifier
DATE	LABEL	2/21/2020	Date
TIME	LABEL	17:52:19	Time
NOTES	NOTES	1	&Notes...
	
PSTAT	PSTAT	REF600-11020	Potentiostat
VDC	POTEN	0.00000E+000	T	DC &Voltage (V)
FREQINIT	QUANT	1.00000E+006	Initial Fre&q. (Hz)
FREQFINAL	QUANT	1.00000E+000	Final Fre&q. (Hz)
PTSPERDEC	QUANT	1.00000E+001	Points/&decade
VAC	QUANT	2.50000E+001	AC &Voltage (mV rms)
AREA	QUANT	2.08200E-005	&Area (cm^2)
CONDIT	TWOPARAM	F	1.50000E+001	0.00000E+000	Conditionin&g	Time(s)	E(V)
DELAY	TWOPARAM	F	1.00000E+002	0.00000E+000	Init. De&lay	Time(s)	Stab.(mV/s)
SPEED	SELECTOR	1	&Optimize for:
ZGUESS	QUANT	2.00000E+003	E&stimated Z (ohms)
OCVCURVE	TABLE	39
	Pt	T	Vf	Vm	Ach	Over
	#	s	V vs. Ref.	V	V	bits
	0	0.258333	4.70237E-002	4.70237E-002	5.73404E-004	...........
	1	0.516667	4.70234E-002	4.70056E-002	5.68938E-004	...........
	2	0.775	4.70213E-002	4.69887E-002	5.73871E-004	...........
	3	1.03333	4.70153E-002	4.69742E-002	5.70138E-004	...........
	4	1.29167	4.70048E-002	4.69563E-002	5.75938E-004	...........
	5	1.55	4.69908E-002	4.69413E-002	5.75371E-004	...........
	6	1.80833	4.69751E-002	4.69297E-002	5.72904E-004	...........
	7	2.06667	4.69593E-002	4.69180E-002	5.74937E-004	...........
	8	2.325	4.69446E-002	4.69057E-002	5.71504E-004	...........
	9	2.58333	4.69312E-002	4.68945E-002	5.70871E-004	...........
	10	2.84167	4.69189E-002	4.68874E-002	5.76437E-004	...........
	11	3.1	4.69074E-002	4.68756E-002	5.76204E-004	...........
	12	3.35833	4.68969E-002	4.68696E-002	5.73004E-004	...........
	13	3.61667	4.68871E-002	4.68579E-002	5.76371E-004	...........
	14	3.875	4.68778E-002	4.68518E-002	5.75671E-004	...........
	15	4.13333	4.68689E-002	4.68444E-002	5.74838E-004	...........
	16	4.39167	4.68603E-002	4.68340E-002	5.75571E-004	...........
	17	4.65	4.68520E-002	4.68232E-002	5.76637E-004	...........
	18	4.90833	4.68435E-002	4.68209E-002	5.73104E-004	...........
	19	5.16667	4.68351E-002	4.68162E-002	5.73337E-004	...........
	20	5.425	4.68276E-002	4.68096E-002	5.74871E-004	...........
	21	5.68333	4.68211E-002	4.67981E-002	5.72738E-004	...........
	22	5.94167	4.68149E-002	4.67954E-002	5.72571E-004	...........
	23	6.2	4.68083E-002	4.67866E-002	5.72838E-004	...........
	24	6.45833	4.68015E-002	4.67847E-002	5.70838E-004	...........
	25	6.71667	4.67950E-002	4.67774E-002	5.73304E-004	...........
	26	6.975	4.67891E-002	4.67733E-002	5.74104E-004	...........
	27	7.23333	4.67836E-002	4.67645E-002	5.73871E-004	...........
	28	7.49167	4.67781E-002	4.67596E-002	5.75538E-004	...........
	29	7.75	4.67725E-002	4.67660E-002	5.74471E-004	...........
	30	8.00833	4.67680E-002	4.67793E-002	5.77404E-004	...........
	31	8.26667	4.67696E-002	4.69321E-002	5.73871E-004	...........
	32	8.525	4.67875E-002	4.69523E-002	5.79237E-004	...........
	33	8.78333	4.68273E-002	4.69522E-002	5.78737E-004	...........
	34	9.04167	4.68771E-002	4.69148E-002	5.75137E-004	...........
	35	9.3	4.69144E-002	4.68802E-002	5.74138E-004	...........
	36	9.5583	4.69257E-002	4.68375E-002	5.72238E-004	...........
	37	9.8167	4.69130E-002	4.68550E-002	5.72071E-004	...........
	38	10.075	4.68890E-002	4.68527E-002	5.71804E-004	...........
EOC	QUANT	0.046889	Open Circuit (V)
PSTATMODEL	IQUANT	4	Pstat Model
PSTATSECTION	LABEL	REF600-11020	Pstat Section
PSTATSERIALNO	LABEL	11020	Pstat Serial Number
CTRLMODE	IQUANT	1	Control Mode
IESTAB	IQUANT	0	I/E Stability
CASPEED	IQUANT	1	Control Amp Speed
CONVENTION	IQUANT	1	Current Convention
ICHRANGE	IQUANT	2	Ich Range
ICHRANGEMODE	TOGGLE	F	Ich Auto Range
ICHOFFSETENABLE	TOGGLE	T	Ich Offset Enable
ICHOFFSET	QUANT	0	Ich Offset (V)
ICHFILTER	IQUANT	3	Ich Filter
VCHRANGE	IQUANT	2	Vch Range
VCHRANGEMODE	TOGGLE	F	Vch Auto Range
VCHOFFSETENABLE	TOGGLE	T	Vch Offset Enable
VCHOFFSET	QUANT	0	Vch Offset (V)
VCHFILTER	IQUANT	3	Vch Filter
ACHRANGE	IQUANT	2	Ach Range
ACHOFFSETENABLE	TOGGLE	F	Ach Offset Enable
ACHOFFSET	QUANT	0	Ach Offset (V)
ACHFILTER	IQUANT	3	Ach Filter
IERANGELOWERLIMIT	IQUANT	1	I/E Range Lower Limit
IERANGEMODE	TOGGLE	F	I/E AutoRange
IERANGE	IQUANT	7	I/E Range
POSFEEDENABLE	TOGGLE	F	Positive Feedback IR Comp
POSFEEDRESISTANCE	QUANT	0	Positive Feedback Resistance (ohm)
ACHSELECT	IQUANT	0	Ach Select
CABLEID	IQUANT	14	Cable ID
DCCALDATE	LABEL	1/27/2020	DC Calibration Date
ACCALDATE	LABEL	1/27/2020	AC Calibration Date
THERMOSELECT	IQUANT	1	Thermo Select
FRAMEWORKVERSION	QUANT	6.33	Framework Version
INSTRUMENTVERSION	LABEL	3.50	Instrument Version
ZCURVE	TABLE
	Pt	Time	Freq	Zreal	Zimag	Zsig	Zmod	Zphz	Idc	Vdc	IERange
	#	s	Hz	ohm	ohm	V	ohm	°	A	V	#
	0	1	1000078	1790.372	-1627.252	1	2419.376	-42.26741	-2.632609E-006	0.0496521	8
	1	2	794390.6	2092.477	-1679.667	1	2683.233	-38.7546	-1.763806E-009	0.0490993	8
	2	4	630984.4	2385.99	-1689.776	1	2923.746	-35.3064	-8.338471E-007	0.0489012	8
	3	5	501234.4	2671.232	-1677.514	1	3154.289	-32.12852	-3.656834E-007	0.0487242	8
	4	6	398109.4	2931.466	-1654.661	1	3366.213	-29.44248	3.238496E-007	0.0485335	8
	5	8	316265.6	3175.03	-1623.786	1	3566.16	-27.08628	8.914009E-007	0.0484033	8
	6	9	251203.1	3406.009	-1605.707	1	3765.527	-25.24077	1.980209E-007	0.0484955	8
	7	11	199546.9	3612.609	-1600.175	1	3951.14	-23.89055	1.336319E-006	0.0484137	8
	8	12	158578.1	3821.939	-1614.827	1	4149.083	-22.90479	-7.434406E-007	0.0487093	8
	9	13	125953.1	4056.477	-1615.193	1	4366.217	-21.71127	-7.45226E-008	0.0486736	7
	10	15	100078.1	4277.222	-1656.844	1	4586.912	-21.1746	8.626939E-009	0.0484718	7
	11	16	79453.13	4512.31	-1709.455	1	4825.265	-20.74882	-1.454652E-008	0.0485221	7
	12	17	63140.62	4764.545	-1765.76	1	5081.22	-20.33491	-1.544509E-008	0.0485272	7
	13	19	50203.12	5030.186	-1817.987	1	5348.63	-19.87064	-3.571109E-010	0.0484863	7
	14	20	39890.62	5314.054	-1864.435	1	5631.633	-19.33341	1.911431E-008	0.0484655	7
	15	21	31640.63	5606.074	-1899.086	1	5919.003	-18.71407	1.371256E-009	0.0484874	7
	16	23	25171.88	5896.65	-1921.709	1	6201.891	-18.05071	4.994214E-009	0.0484521	7
	17	24	20015.62	6188.665	-1937.856	1	6484.972	-17.3869	-1.551381E-009	0.0485265	7
	18	26	15890.62	6471.796	-1945.898	1	6758.007	-16.73465	-1.279103E-008	0.0484973	7
	19	27	12609.37	6750.194	-1954.579	1	7027.481	-16.14885	-1.326E-008	0.0485063	7
	20	28	10078.13	7000.582	-1969.248	1	7272.282	-15.71117	1.233046E-009	0.0484747	7
	21	30	8015.625	7255.53	-1999.4	1	7525.976	-15.40656	9.752192E-009	0.0485132	7
	22	31	6328.125	7508.239	-2045.041	1	7781.764	-15.23622	-3.495873E-009	0.0485055	7
	23	32	5015.625	7744.021	-2105.906	1	8025.254	-15.2131	-2.087277E-008	0.0485133	7
	24	34	3984.375	7975.807	-2199.708	1	8273.585	-15.41873	-2.113968E-008	0.0485101	7
	25	35	3170.956	8199.068	-2326.328	1	8522.706	-15.84027	-1.222456E-008	0.0484959	7
	26	36	2527.573	8409.999	-2494.052	1	8772.022	-16.51814	5.14624E-008	0.0484035	7
	27	38	1976.103	8633.548	-2743.309	1	9058.912	-17.62765	2.133597E-008	0.0484865	7
	28	39	1577.524	8828.957	-3036.403	1	9336.5	-18.97882	-1.887353E-009	0.0484681	6
	29	41	1265.625	9014.082	-3422.088	1	9641.8	-20.78866	-1.375716E-009	0.0484661	6
	30	42	998.264	9213.101	-3957.329	1	10027.05	-23.24511	4.380018E-009	0.0484416	6
	31	43	796.875	9420.962	-4612.14	1	10489.34	-26.08459	-2.731827E-009	0.0485185	6
	32	45	627.7902	9658.84	-5493.863	1	11111.96	-29.63083	1.822754E-009	0.0485079	6
	33	46	505.5147	9912.36	-6497.156	1	11851.92	-33.24323	-1.177075E-009	0.0484803	6
	34	47	397.9953	10236.21	-7874.613	1	12914.7	-37.57072	9.625432E-010	0.0484916	6
	35	49	315.5048	10624.79	-9536.86	1	14277.18	-41.91129	1.555981E-009	0.0484897	6
	36	50	252.4038	11088.36	-11503.09	1	15977.26	-46.05173	1.438309E-009	0.0484854	6
	37	52	198.6229	11708.49	-14097.68	1	18325.75	-50.28949	1.200782E-009	0.0484907	6
	38	53	158.3615	12457.77	-17107.38	1	21162.67	-53.93752	7.846591E-010	0.04849	6
	39	54	125.558	13435.13	-20871.01	1	24821.4	-57.22972	1.149901E-009	0.0484914	6
	40	56	100.4464	14631.18	-25270.56	1	29200.56	-59.92997	6.022651E-010	0.0484879	6
	41	57	79.00281	16339.4	-31027.62	1	35066.92	-62.22834	1.193224E-009	0.0484858	6
	42	59	63.3446	18230.76	-37587.34	1	41775.22	-64.1255	9.394977E-010	0.0484814	6
	43	60	49.86702	21129.31	-45552.88	1	50214.67	-65.11618	1.049196E-009	0.0484839	6
	44	61	39.72458	24555.76	-55171.17	1	60389.1	-66.00696	9.736014E-010	0.0484898	6
	45	63	31.6723	29075.5	-66257.8	1	72356.63	-66.30699	1.180022E-009	0.0484851	6
	46	64	24.93351	35242.75	-80335.3	1	87725.77	-66.31315	9.850568E-010	0.0484776	6
	47	66	19.86229	42824.51	-95799.5	1	104935.6	-65.91431	9.063713E-010	0.0484836	5
	48	67	15.83615	52255.99	-113314	1	124782.8	-65.24269	2.54785E-010	0.0484822	5
	49	68	12.40079	65861.48	-136155.8	1	151248.6	-64.18595	-5.539816E-010	0.0484837	5
	50	70	9.93114	80771.53	-158036.4	1	177481.1	-62.92867	4.697163E-010	0.0484822	5
	51	71	7.944915	98286.8	-182830.9	1	207575.1	-61.73827	6.075582E-010	0.0484795	5
	52	73	6.317385	120589.7	-211220.2	1	243219.7	-60.27712	2.882945E-010	0.0484957	5
	53	75	5.008013	146566.3	-242769.5	1	283582	-58.87952	2.428172E-010	0.0484804	5
	54	78	3.945707	177173.8	-278284.3	1	329898	-57.51653	5.489596E-010	0.0484928	5
	55	80	3.158693	209949.2	-315042.9	1	378590.5	-56.31993	-1.286315E-010	0.0484694	5
	56	84	2.504006	248250.3	-357478.4	1	435222.9	-55.22202	5.448139E-010	0.0484888	5
	57	86	1.998082	289981	-403413.6	1	496821.4	-54.29074	4.675174E-010	0.0484925	5
	58	90	1.584686	339333.5	-455241	1	567795.4	-53.29941	8.756768E-011	0.0484313	5
	59	93	1.266892	389934.5	-511942.1	1	643532.1	-52.70431	4.051505E-010	0.0484663	5
	60	97	0.999041	451309.7	-580185.4	1	735048	-52.12167	-2.147322E-010	0.0484785	5
