EXPLAIN
TAG	EISPOT
TITLE	LABEL	Potentiostatic EIS	Test &Identifier
DATE	LABEL	1/25/2020	Date
TIME	LABEL	13:31:10	Time
NOTES	NOTES	6	&Notes...
	
	
	
	
	
	
PSTAT	PSTAT	REF600-11020	Potentiostat
VDC	POTEN	0.00000E+000	T	DC &Voltage (V)
FREQINIT	QUANT	1.00000E+006	Initial Fre&q. (Hz)
FREQFINAL	QUANT	1.00000E+000	Final Fre&q. (Hz)
PTSPERDEC	QUANT	1.00000E+001	Points/&decade
VAC	QUANT	2.50000E+001	AC &Voltage (mV rms)
AREA	QUANT	1.00000E-001	&Area (cm^2)
CONDIT	TWOPARAM	F	5.00000E+000	0.00000E+000	Conditionin&g	Time(s)	E(V)
DELAY	TWOPARAM	F	5.00000E+000	0.00000E+000	Init. De&lay	Time(s)	Stab.(mV/s)
SPEED	SELECTOR	0	&Optimize for:
ZGUESS	QUANT	5.00000E+002	E&stimated Z (ohms)
OCVCURVE	TABLE	39
	Pt	T	Vf	Vm	Ach	Over
	#	s	V vs. Ref.	V	V	bits
	0	0.258333	3.04917E-002	3.04917E-002	6.52713E-004	...........
	1	0.516667	3.04926E-002	3.05378E-002	6.44113E-004	...........
	2	0.775	3.04981E-002	3.05867E-002	6.35646E-004	...........
	3	1.03333	3.05135E-002	3.06057E-002	6.42980E-004	...........
	4	1.29167	3.05390E-002	3.06103E-002	6.44146E-004	...........
	5	1.55	3.05678E-002	3.06233E-002	6.29947E-004	...........
	6	1.80833	3.05922E-002	3.06380E-002	6.31613E-004	...........
	7	2.06667	3.06102E-002	3.06444E-002	6.49780E-004	...........
	8	2.325	3.06235E-002	3.06512E-002	6.52846E-004	...........
	9	2.58333	3.06342E-002	3.06574E-002	6.38880E-004	...........
	10	2.84167	3.06429E-002	3.06590E-002	6.41646E-004	...........
	11	3.1	3.06498E-002	3.06650E-002	6.50446E-004	...........
	12	3.35833	3.06553E-002	3.06671E-002	6.46746E-004	...........
	13	3.61667	3.06602E-002	3.06911E-002	6.31280E-004	...........
	14	3.875	3.06659E-002	3.06847E-002	6.30047E-004	...........
	15	4.13333	3.06721E-002	3.06465E-002	6.42280E-004	...........
	16	4.39167	3.06742E-002	3.06175E-002	6.35880E-004	...........
	17	4.65	3.06677E-002	3.06535E-002	6.37013E-004	...........
	18	4.90833	3.06565E-002	3.06882E-002	6.41313E-004	...........
	19	5.16667	3.06507E-002	3.06474E-002	6.50246E-004	...........
	20	5.425	3.06527E-002	3.06357E-002	6.44780E-004	...........
	21	5.68333	3.06549E-002	3.06343E-002	6.33246E-004	...........
	22	5.94167	3.06512E-002	3.06265E-002	6.38113E-004	...........
	23	6.2	3.06439E-002	3.06404E-002	6.47580E-004	...........
	24	6.45833	3.06378E-002	3.06527E-002	6.44313E-004	...........
	25	6.71667	3.06370E-002	3.06705E-002	6.36613E-004	...........
	26	6.975	3.06429E-002	3.06931E-002	6.44780E-004	...........
	27	7.23333	3.06544E-002	3.06880E-002	6.41080E-004	...........
	28	7.49167	3.06677E-002	3.06710E-002	6.28813E-004	...........
	29	7.75	3.06774E-002	3.06778E-002	6.38346E-004	...........
	30	8.00833	3.06807E-002	3.06667E-002	6.48313E-004	...........
	31	8.26667	3.06788E-002	3.06666E-002	6.42080E-004	...........
	32	8.525	3.06748E-002	3.06661E-002	6.32047E-004	...........
	33	8.78333	3.06707E-002	3.06617E-002	6.32580E-004	...........
	34	9.04167	3.06674E-002	3.06569E-002	6.46446E-004	...........
	35	9.3	3.06646E-002	3.06574E-002	6.46180E-004	...........
	36	9.5583	3.06619E-002	3.06612E-002	6.29380E-004	...........
	37	9.8167	3.06600E-002	3.06614E-002	6.32346E-004	...........
	38	10.075	3.06594E-002	3.06611E-002	6.44313E-004	...........
EOC	QUANT	0.0306594	Open Circuit (V)
PSTATMODEL	IQUANT	4	Pstat Model
PSTATSECTION	LABEL	REF600-11020	Pstat Section
PSTATSERIALNO	LABEL	11020	Pstat Serial Number
CTRLMODE	IQUANT	1	Control Mode
IESTAB	IQUANT	0	I/E Stability
CASPEED	IQUANT	1	Control Amp Speed
CONVENTION	IQUANT	1	Current Convention
ICHRANGE	IQUANT	2	Ich Range
ICHRANGEMODE	TOGGLE	F	Ich Auto Range
ICHOFFSETENABLE	TOGGLE	T	Ich Offset Enable
ICHOFFSET	QUANT	0	Ich Offset (V)
ICHFILTER	IQUANT	3	Ich Filter
VCHRANGE	IQUANT	2	Vch Range
VCHRANGEMODE	TOGGLE	F	Vch Auto Range
VCHOFFSETENABLE	TOGGLE	T	Vch Offset Enable
VCHOFFSET	QUANT	0	Vch Offset (V)
VCHFILTER	IQUANT	3	Vch Filter
ACHRANGE	IQUANT	2	Ach Range
ACHOFFSETENABLE	TOGGLE	F	Ach Offset Enable
ACHOFFSET	QUANT	0	Ach Offset (V)
ACHFILTER	IQUANT	3	Ach Filter
IERANGELOWERLIMIT	IQUANT	1	I/E Range Lower Limit
IERANGEMODE	TOGGLE	F	I/E AutoRange
IERANGE	IQUANT	8	I/E Range
POSFEEDENABLE	TOGGLE	F	Positive Feedback IR Comp
POSFEEDRESISTANCE	QUANT	0	Positive Feedback Resistance (ohm)
ACHSELECT	IQUANT	0	Ach Select
CABLEID	IQUANT	14	Cable ID
DCCALDATE	LABEL	12/22/2019	DC Calibration Date
ACCALDATE	LABEL	12/22/2019	AC Calibration Date
THERMOSELECT	IQUANT	1	Thermo Select
FRAMEWORKVERSION	QUANT	6.33	Framework Version
INSTRUMENTVERSION	LABEL	3.50	Instrument Version
ZCURVE	TABLE
	Pt	Time	Freq	Zreal	Zimag	Zsig	Zmod	Zphz	Idc	Vdc	IERange
	#	s	Hz	ohm	ohm	V	ohm	°	A	V	#
	0	1	1000078	2057.521	-2119.758	1	2954.11	-45.85358	7.21992E-007	0.0324649	8
	1	1	794390.6	2465.48	-2260.341	1	3344.807	-42.51446	2.83462E-008	0.0325521	8
	2	2	630984.4	2911.604	-2338.668	1	3734.542	-38.77224	-1.157818E-006	0.0327014	8
	3	2	501234.4	3400.286	-2364.031	1	4141.327	-34.80875	5.256653E-007	0.0323286	8
	4	2	398109.4	3845.62	-2278.002	1	4469.686	-30.64092	-8.523713E-007	0.0325763	8
	5	3	316265.6	4262.175	-2140.571	1	4769.505	-26.66695	1.190089E-007	0.032475	8
	6	3	251203.1	4639.357	-1991.394	1	5048.692	-23.23091	-2.069941E-006	0.0327627	8
	7	3	199546.9	4937.219	-1784.595	1	5249.849	-19.87277	-5.280204E-007	0.0325401	8
	8	4	158578.1	5181.059	-1603.073	1	5423.396	-17.19261	-2.389461E-006	0.032877	8
	9	4	125953.1	5422.999	-1361.824	1	5591.376	-14.09663	6.362023E-008	0.0323014	7
	10	4	100078.1	5569.859	-1195.76	1	5696.769	-12.11657	4.88997E-008	0.0322354	7
	11	5	79453.13	5693.903	-1057.349	1	5791.245	-10.51991	-2.137237E-008	0.0323953	7
	12	5	63140.62	5794.739	-940.622	1	5870.585	-9.220031	1.489196E-008	0.0322509	7
	13	5	50203.12	5876.447	-849.3667	1	5937.513	-8.224429	-2.674341E-008	0.0323259	7
	14	6	39890.62	5946.009	-779.4883	1	5996.885	-7.468564	-2.160159E-008	0.0323889	7
	15	6	31640.63	6006.713	-731.9872	1	6051.149	-6.947894	-9.364924E-009	0.0323354	7
	16	6	25171.88	6061.135	-706.6293	1	6102.187	-6.649733	8.496637E-008	0.032182	7
	17	7	20015.62	6110.532	-700.8002	1	6150.587	-6.542511	-2.555693E-009	0.0323321	7
	18	7	15890.62	6158.569	-718.3098	1	6200.318	-6.652682	-1.418058E-008	0.0323039	7
	19	7	12609.37	6208.149	-758.3196	1	6254.292	-6.964127	-2.95472E-008	0.0323279	7
	20	7	10078.13	6251.765	-819.5652	1	6305.256	-7.468511	-3.988407E-008	0.0323599	7
	21	8	8015.625	6299.878	-907.631	1	6364.924	-8.19826	-1.407571E-008	0.0322972	7
	22	8	6328.125	6353.376	-1034.362	1	6437.025	-9.246913	2.786125E-008	0.0322076	7
	23	8	5015.625	6411.653	-1199.151	1	6522.826	-10.59347	5.035074E-008	0.0322122	7
	24	9	3984.375	6474.55	-1404.92	1	6625.224	-12.24288	-8.35978E-009	0.0323248	7
	25	9	3170.956	6546.241	-1662.759	1	6754.112	-14.25186	4.91701E-008	0.0322095	7
	26	9	2527.573	6629.915	-1982.811	1	6920.066	-16.65036	-2.909963E-008	0.0323169	7
	27	10	1976.103	6737.41	-2417.004	1	7157.835	-19.73514	8.555567E-008	0.0321689	7
	28	10	1577.524	6856.415	-2901.7	1	7445.152	-22.93854	-2.497885E-009	0.0323168	7
	29	10	1265.625	6994.675	-3488.236	1	7816.218	-26.50538	-2.005932E-008	0.0323687	7
	30	11	998.264	7179.949	-4257.11	1	8347.135	-30.6644	5.026603E-008	0.0322057	7
	31	11	796.875	7390.977	-5144.714	1	9005.255	-34.84102	-2.627584E-009	0.0323133	7
	32	11	627.7902	7669.13	-6292.707	1	9920.37	-39.36971	-5.900791E-009	0.0323645	6
	33	12	505.5147	7967.019	-7559.231	1	10982.5	-43.49551	1.93727E-009	0.0323093	6
	34	12	397.9953	8373.069	-9259.947	1	12484.19	-47.87935	9.149144E-010	0.0323025	6
	35	12	315.5048	8849.152	-11280.05	1	14336.91	-51.88596	2.983174E-010	0.0322992	6
	36	13	252.4038	9405.713	-13638.69	1	16567.47	-55.4085	7.550666E-010	0.0322957	6
	37	13	198.6229	10131.2	-16731.06	1	19559.39	-58.80372	6.847412E-010	0.0322952	6
	38	13	158.3615	10966.31	-20307.88	1	23079.65	-61.63084	7.960042E-010	0.0322938	6
	39	14	125.558	12019.85	-24785.1	1	27545.92	-64.12834	5.469873E-010	0.0322953	6
	40	14	100.4464	13268.55	-30001.57	1	32804.7	-66.14201	5.399489E-010	0.0322914	6
	41	14	79.00281	14976.34	-36891.72	1	39815.7	-67.90511	2.588518E-010	0.0322877	6
	42	15	63.3446	16797.67	-44925.09	1	47962.75	-69.49903	4.807079E-010	0.0322879	6
	43	15	49.86702	19464.52	-55077.87	1	58416.09	-70.5366	1.345007E-010	0.0322854	6
	44	15	39.72458	23039.79	-66877.68	1	70735.11	-70.99084	3.571849E-010	0.0322897	6
	45	16	31.6723	27544.38	-81086.34	1	85636.95	-71.23779	2.15028E-010	0.0322875	6
	46	16	24.93351	33590.06	-99315.7	1	104842.2	-71.31369	6.546612E-010	0.0322872	6
	47	16	19.86229	41320.04	-119993.5	1	126908.5	-70.99873	5.091041E-010	0.0322892	5
	48	16	15.83615	52014.29	-144740.1	1	153802.4	-70.23342	-7.664159E-010	0.0322872	5
	49	17	12.40079	65548.57	-176410.5	1	188194.8	-69.61652	-2.097805E-010	0.0322914	5
	50	17	9.93114	83054.05	-207814.9	1	223796.8	-68.21568	-7.383277E-010	0.0322911	5
	51	18	7.944915	104783.1	-244602.1	1	266100.9	-66.81059	-5.64436E-010	0.032289	5
	52	18	6.317385	132534.9	-287527.9	1	316603.6	-65.25285	-3.20178E-010	0.0322973	5
	53	19	5.008013	166822.3	-335495.2	1	374682.1	-63.56151	-2.306191E-010	0.0322761	5
	54	20	3.945707	209331.4	-389539.9	1	442222.7	-61.74725	1.175808E-010	0.0322848	5
	55	21	3.158693	254095.1	-444610.9	1	512096.8	-60.25204	8.798715E-011	0.0323014	5
	56	23	2.504006	308879.9	-508345.4	1	594829.3	-58.71637	-8.885087E-011	0.0322939	5
	57	24	1.998082	366248.6	-575368.1	1	682045.8	-57.52135	4.26697E-013	0.0322887	5
	58	26	1.584686	434818.8	-652789.6	1	784347.9	-56.33268	1.122477E-010	0.0323286	5
	59	28	1.266892	506158.5	-739098.8	1	895803.3	-55.59541	1.08277E-010	0.0323106	5
	60	30	0.999041	590469.8	-842406.4	1	1028739	-54.97215	8.659044E-011	0.0323301	4
