EXPLAIN
TAG	EISPOT
TITLE	LABEL	Potentiostatic EIS	Test &Identifier
DATE	LABEL	3/17/2020	Date
TIME	LABEL	16:54:33	Time
NOTES	NOTES	1	&Notes...
	
PSTAT	PSTAT	REF600-11020	Potentiostat
VDC	POTEN	0.00000E+000	T	DC &Voltage (V)
FREQINIT	QUANT	1.00000E+006	Initial Fre&q. (Hz)
FREQFINAL	QUANT	1.00000E+000	Final Fre&q. (Hz)
PTSPERDEC	QUANT	1.00000E+001	Points/&decade
VAC	QUANT	2.50000E+001	AC &Voltage (mV rms)
AREA	QUANT	4.00000E-004	&Area (cm^2)
CONDIT	TWOPARAM	F	5.00000E+000	0.00000E+000	Conditionin&g	Time(s)	E(V)
DELAY	TWOPARAM	T	3.00000E+000	0.00000E+000	Init. De&lay	Time(s)	Stab.(mV/s)
SPEED	SELECTOR	0	&Optimize for:
ZGUESS	QUANT	5.00000E+003	E&stimated Z (ohms)
OCVCURVE	TABLE	12
	Pt	T	Vf	Vm	Ach	Over
	#	s	V vs. Ref.	V	V	bits
	0	0.258333	2.73449E-002	2.73449E-002	5.79863E-004	...........
	1	0.516667	2.73448E-002	2.73431E-002	5.71963E-004	...........
	2	0.775	2.73447E-002	2.73455E-002	5.68797E-004	...........
	3	1.03333	2.73445E-002	2.73450E-002	5.73163E-004	...........
	4	1.29167	2.73445E-002	2.73458E-002	5.73930E-004	...........
	5	1.55	2.73448E-002	2.73444E-002	5.73497E-004	...........
	6	1.80833	2.73449E-002	2.73422E-002	5.74263E-004	...........
	7	2.06667	2.73447E-002	2.73414E-002	5.80730E-004	...........
	8	2.325	2.73439E-002	2.73397E-002	5.71630E-004	...........
	9	2.58333	2.73427E-002	2.73373E-002	5.78630E-004	...........
	10	2.84167	2.73412E-002	2.73338E-002	5.74797E-004	...........
	11	3.1	2.73394E-002	2.73350E-002	5.72097E-004	...........
EOC	QUANT	0.0273394	Open Circuit (V)
PSTATMODEL	IQUANT	4	Pstat Model
PSTATSECTION	LABEL	REF600-11020	Pstat Section
PSTATSERIALNO	LABEL	11020	Pstat Serial Number
CTRLMODE	IQUANT	1	Control Mode
IESTAB	IQUANT	0	I/E Stability
CASPEED	IQUANT	1	Control Amp Speed
CONVENTION	IQUANT	1	Current Convention
ICHRANGE	IQUANT	2	Ich Range
ICHRANGEMODE	TOGGLE	F	Ich Auto Range
ICHOFFSETENABLE	TOGGLE	T	Ich Offset Enable
ICHOFFSET	QUANT	0	Ich Offset (V)
ICHFILTER	IQUANT	3	Ich Filter
VCHRANGE	IQUANT	2	Vch Range
VCHRANGEMODE	TOGGLE	F	Vch Auto Range
VCHOFFSETENABLE	TOGGLE	T	Vch Offset Enable
VCHOFFSET	QUANT	0	Vch Offset (V)
VCHFILTER	IQUANT	3	Vch Filter
ACHRANGE	IQUANT	2	Ach Range
ACHOFFSETENABLE	TOGGLE	F	Ach Offset Enable
ACHOFFSET	QUANT	0	Ach Offset (V)
ACHFILTER	IQUANT	3	Ach Filter
IERANGELOWERLIMIT	IQUANT	1	I/E Range Lower Limit
IERANGEMODE	TOGGLE	F	I/E AutoRange
IERANGE	IQUANT	7	I/E Range
POSFEEDENABLE	TOGGLE	F	Positive Feedback IR Comp
POSFEEDRESISTANCE	QUANT	0	Positive Feedback Resistance (ohm)
ACHSELECT	IQUANT	0	Ach Select
CABLEID	IQUANT	14	Cable ID
DCCALDATE	LABEL	2/27/2020	DC Calibration Date
ACCALDATE	LABEL	2/27/2020	AC Calibration Date
THERMOSELECT	IQUANT	1	Thermo Select
FRAMEWORKVERSION	QUANT	6.33	Framework Version
INSTRUMENTVERSION	LABEL	3.50	Instrument Version
ZCURVE	TABLE
	Pt	Time	Freq	Zreal	Zimag	Zsig	Zmod	Zphz	Idc	Vdc	IERange
	#	s	Hz	ohm	ohm	V	ohm	°	A	V	#
	0	1	1000078	1781.836	-1936.181	1	2631.3	-47.37713	2.116715E-008	0.0296392	8
	1	1	794390.6	2079.324	-2092.316	1	2949.809	-45.17844	3.219785E-008	0.0292873	8
	2	2	630984.4	2383.63	-2237.765	1	3269.447	-43.19218	3.854089E-008	0.0291415	8
	3	2	501234.4	2690.185	-2390.225	1	3598.648	-41.62104	3.000505E-008	0.0290299	8
	4	2	398109.4	2994.504	-2557.405	1	3937.94	-40.49842	3.011678E-008	0.0289564	8
	5	3	316265.6	3290.237	-2759.35	1	4294.144	-39.98481	2.912589E-008	0.0289407	8
	6	3	251203.1	3599.335	-2993.513	1	4681.488	-39.74979	3.384965E-009	0.0289474	8
	7	3	199546.9	3915.449	-3296.089	1	5118.1	-40.09122	2.333773E-008	0.0289084	8
	8	4	158578.1	4249.538	-3686.083	1	5625.458	-40.93863	4.349598E-008	0.0289324	8
	9	4	125953.1	4720.91	-4098.18	1	6251.565	-40.96096	1.063463E-009	0.0288583	7
	10	4	100078.1	5143.222	-4674.883	1	6950.342	-42.26897	2.144946E-009	0.0288548	7
	11	4	79453.13	5689.083	-5382.399	1	7831.723	-43.4133	1.648313E-009	0.0288522	7
	12	5	63140.62	6376.394	-6198.381	1	8892.6	-44.18895	1.357631E-009	0.0288448	7
	13	5	50203.12	7261.524	-7111.813	1	10164.04	-44.40324	1.813164E-009	0.0288359	7
	14	5	39890.62	8389.604	-8092.978	1	11656.83	-43.969	1.686754E-009	0.0288379	7
	15	6	31640.63	9830.84	-9069.992	1	13375.73	-42.69482	1.477824E-009	0.0288237	7
	16	6	25171.88	11573.62	-9936.52	1	15253.95	-40.64771	2.584692E-009	0.0288311	7
	17	6	20015.62	13601.78	-10542.04	1	17208.8	-37.77742	2.204481E-009	0.0288264	7
	18	7	15890.62	15831.66	-10814.68	1	19172.87	-34.33716	2.916451E-009	0.0288269	7
	19	7	12609.37	18283.39	-10479.09	1	21073.53	-29.81909	5.379929E-010	0.0288706	6
	20	7	10078.13	20279.11	-9987.04	1	22604.94	-26.21927	6.664467E-010	0.0288781	6
	21	8	8015.625	22037.17	-9202.021	1	23881.25	-22.66386	6.365936E-010	0.0288768	6
	22	8	6328.125	23535.98	-8284.104	1	24951.33	-19.39085	8.550494E-010	0.0288743	6
	23	8	5015.625	24676.91	-7362.325	1	25751.78	-16.6124	5.496933E-010	0.0288734	6
	24	9	3984.375	25540.79	-6544.006	1	26365.81	-14.37105	7.008003E-010	0.0288753	6
	25	9	3170.956	26148.03	-5843.327	1	26792.98	-12.59698	4.704594E-010	0.0288677	6
	26	9	2527.573	26637.83	-5321.737	1	27164.22	-11.29788	4.912516E-010	0.0288748	6
	27	10	1976.103	27093.07	-4960.034	1	27543.36	-10.37448	2.801243E-010	0.0288717	6
	28	10	1577.524	27373.13	-4790.771	1	27789.2	-9.92721	3.929512E-010	0.0288747	6
	29	10	1265.625	27623.6	-4800.105	1	28037.55	-9.85776	5.370276E-010	0.0288737	6
	30	11	998.264	27884.76	-4993.206	1	28328.29	-10.15212	5.329496E-010	0.02887	6
	31	11	796.875	28097.03	-5375.199	1	28606.57	-10.83031	4.102961E-010	0.0288718	6
	32	11	627.7902	28373.35	-6002.58	1	29001.34	-11.94519	2.655475E-010	0.0288667	6
	33	12	505.5147	28616.57	-6802.178	1	29413.9	-13.3711	2.45427E-010	0.0288678	6
	34	12	397.9953	28904.29	-7961.428	1	29980.7	-15.39974	6.103005E-010	0.0288777	6
	35	12	315.5048	29264.27	-9420.309	1	30743.13	-17.84361	5.026257E-010	0.0288807	6
	36	12	252.4038	29659.54	-11188.83	1	31699.81	-20.6686	5.39E-010	0.0288723	6
	37	13	198.6229	30195.33	-13575.15	1	33106.53	-24.20762	5.069642E-010	0.0288759	6
	38	13	158.3615	30812.92	-16380.74	1	34896.48	-27.99597	4.299142E-010	0.0288728	6
	39	13	125.558	31566.55	-19937.7	1	37335.76	-32.27685	5.1341E-010	0.0288735	6
	40	14	100.4464	32553.24	-24135.42	1	40524.46	-36.55375	4.53351E-010	0.0288727	6
	41	14	79.00281	33913.04	-29669.5	1	45059.67	-41.18171	2.094562E-010	0.0288714	6
	42	14	63.3446	35547.99	-35874.29	1	50503.7	-45.26175	1.761633E-010	0.028866	6
	43	15	49.86702	37931.11	-44040.84	1	58123.7	-49.26262	-9.801684E-011	0.0288654	6
	44	15	39.72458	40874.85	-53435.49	1	67276.34	-52.58624	1.234931E-010	0.028867	6
	45	15	31.6723	44704.34	-64653.79	1	78604.01	-55.33839	3.773964E-011	0.0288647	6
	46	16	24.93351	50097.88	-78829.13	1	93401.44	-57.56302	5.774141E-011	0.0288627	6
	47	16	19.86229	56837.15	-94794.6	1	110528.2	-59.05385	3.528005E-010	0.0288744	5
	48	16	15.83615	65682.31	-113529.7	1	131160.8	-59.94858	-1.191948E-009	0.0288694	5
	49	17	12.40079	78158.43	-136945.9	1	157679.8	-60.28552	-9.078517E-010	0.0288727	5
	50	17	9.93114	92853.79	-161307	1	186123	-60.07381	-1.250547E-009	0.028871	5
	51	17	7.944915	110779.6	-188633.7	1	218757.4	-59.57541	-1.354941E-009	0.0288761	5
	52	18	6.317385	134270.8	-219594.9	1	257391.9	-58.55639	1.9386E-010	0.0288564	5
	53	19	5.008013	163440.7	-253814.3	1	301885	-57.22097	8.408656E-011	0.0288662	5
	54	19	3.945707	198560.2	-291290.3	1	352528.3	-55.71941	-4.221848E-010	0.0288662	5
	55	20	3.158693	236990.9	-327408.6	1	404179.5	-54.10154	1.06251E-010	0.0288585	5
	56	21	2.504006	281075.4	-367434.7	1	462613.9	-52.58521	2.147408E-010	0.0288647	5
	57	23	1.998082	328327.4	-407355.2	1	523198.9	-51.13126	-1.121943E-010	0.0288214	5
	58	24	1.584686	379465.8	-453413.6	1	591251.4	-50.07375	-1.497541E-010	0.0288316	5
	59	26	1.266892	430781.8	-500453.1	1	660322.9	-49.27867	-4.254097E-011	0.0288634	5
	60	29	0.999041	489341.9	-557281.1	1	741631.8	-48.71402	2.599363E-011	0.0288908	5
