EXPLAIN
TAG	EISPOT
TITLE	LABEL	Potentiostatic EIS	Test &Identifier
DATE	LABEL	2/21/2020	Date
TIME	LABEL	15:59:57	Time
NOTES	NOTES	1	&Notes...
	
PSTAT	PSTAT	REF600-11020	Potentiostat
VDC	POTEN	0.00000E+000	T	DC &Voltage (V)
FREQINIT	QUANT	1.00000E+006	Initial Fre&q. (Hz)
FREQFINAL	QUANT	1.00000E+000	Final Fre&q. (Hz)
PTSPERDEC	QUANT	1.00000E+001	Points/&decade
VAC	QUANT	2.50000E+001	AC &Voltage (mV rms)
AREA	QUANT	2.08200E-005	&Area (cm^2)
CONDIT	TWOPARAM	F	1.50000E+001	0.00000E+000	Conditionin&g	Time(s)	E(V)
DELAY	TWOPARAM	F	1.00000E+002	0.00000E+000	Init. De&lay	Time(s)	Stab.(mV/s)
SPEED	SELECTOR	1	&Optimize for:
ZGUESS	QUANT	2.00000E+003	E&stimated Z (ohms)
OCVCURVE	TABLE	39
	Pt	T	Vf	Vm	Ach	Over
	#	s	V vs. Ref.	V	V	bits
	0	0.258333	5.50541E-002	5.50541E-002	5.36338E-004	...........
	1	0.516667	5.50539E-002	5.50452E-002	5.40371E-004	...........
	2	0.775	5.50521E-002	5.49949E-002	5.38071E-004	...........
	3	1.03333	5.50435E-002	5.49098E-002	5.38905E-004	...........
	4	1.29167	5.50220E-002	5.49386E-002	5.38205E-004	...........
	5	1.55	5.49899E-002	5.49249E-002	5.42471E-004	...........
	6	1.80833	5.49589E-002	5.49260E-002	5.43871E-004	...........
	7	2.06667	5.49383E-002	5.49142E-002	5.38138E-004	...........
	8	2.325	5.49272E-002	5.49057E-002	5.37305E-004	...........
	9	2.58333	5.49205E-002	5.49064E-002	5.38605E-004	...........
	10	2.84167	5.49151E-002	5.49080E-002	5.42171E-004	...........
	11	3.1	5.49098E-002	5.48591E-002	5.38738E-004	...........
	12	3.35833	5.49027E-002	5.48691E-002	5.46271E-004	...........
	13	3.61667	5.48923E-002	5.48790E-002	5.53405E-004	...........
	14	3.875	5.48816E-002	5.48619E-002	5.45571E-004	...........
	15	4.13333	5.48742E-002	5.48608E-002	5.43038E-004	...........
	16	4.39167	5.48694E-002	5.48573E-002	5.42105E-004	...........
	17	4.65	5.48653E-002	5.48507E-002	5.43171E-004	...........
	18	4.90833	5.48610E-002	5.48443E-002	5.42238E-004	...........
	19	5.16667	5.48562E-002	5.48403E-002	5.36971E-004	...........
	20	5.425	5.48511E-002	5.48385E-002	5.44171E-004	...........
	21	5.68333	5.48461E-002	5.48327E-002	5.41605E-004	...........
	22	5.94167	5.48416E-002	5.48277E-002	5.42571E-004	...........
	23	6.2	5.48374E-002	5.48292E-002	5.46005E-004	...........
	24	6.45833	5.48335E-002	5.48176E-002	5.47471E-004	...........
	25	6.71667	5.48296E-002	5.48151E-002	5.41271E-004	...........
	26	6.975	5.48251E-002	5.48033E-002	5.40171E-004	...........
	27	7.23333	5.48196E-002	5.47975E-002	5.42905E-004	...........
	28	7.49167	5.48130E-002	5.47934E-002	5.42271E-004	...........
	29	7.75	5.48055E-002	5.47608E-002	5.42338E-004	...........
	30	8.00833	5.47962E-002	5.47543E-002	5.39505E-004	...........
	31	8.26667	5.47854E-002	5.48087E-002	5.34438E-004	...........
	32	8.525	5.47768E-002	5.47335E-002	5.41705E-004	...........
	33	8.78333	5.47720E-002	5.47615E-002	5.44405E-004	...........
	34	9.04167	5.47674E-002	5.47423E-002	5.39971E-004	...........
	35	9.3	5.47607E-002	5.47391E-002	5.39405E-004	...........
	36	9.5583	5.47533E-002	5.47347E-002	5.37305E-004	...........
	37	9.8167	5.47460E-002	5.47101E-002	5.46438E-004	...........
	38	10.075	5.47380E-002	5.47085E-002	5.44271E-004	...........
EOC	QUANT	0.054738	Open Circuit (V)
PSTATMODEL	IQUANT	4	Pstat Model
PSTATSECTION	LABEL	REF600-11020	Pstat Section
PSTATSERIALNO	LABEL	11020	Pstat Serial Number
CTRLMODE	IQUANT	1	Control Mode
IESTAB	IQUANT	0	I/E Stability
CASPEED	IQUANT	1	Control Amp Speed
CONVENTION	IQUANT	1	Current Convention
ICHRANGE	IQUANT	2	Ich Range
ICHRANGEMODE	TOGGLE	F	Ich Auto Range
ICHOFFSETENABLE	TOGGLE	T	Ich Offset Enable
ICHOFFSET	QUANT	0	Ich Offset (V)
ICHFILTER	IQUANT	3	Ich Filter
VCHRANGE	IQUANT	2	Vch Range
VCHRANGEMODE	TOGGLE	F	Vch Auto Range
VCHOFFSETENABLE	TOGGLE	T	Vch Offset Enable
VCHOFFSET	QUANT	0	Vch Offset (V)
VCHFILTER	IQUANT	3	Vch Filter
ACHRANGE	IQUANT	2	Ach Range
ACHOFFSETENABLE	TOGGLE	F	Ach Offset Enable
ACHOFFSET	QUANT	0	Ach Offset (V)
ACHFILTER	IQUANT	3	Ach Filter
IERANGELOWERLIMIT	IQUANT	1	I/E Range Lower Limit
IERANGEMODE	TOGGLE	F	I/E AutoRange
IERANGE	IQUANT	7	I/E Range
POSFEEDENABLE	TOGGLE	F	Positive Feedback IR Comp
POSFEEDRESISTANCE	QUANT	0	Positive Feedback Resistance (ohm)
ACHSELECT	IQUANT	0	Ach Select
CABLEID	IQUANT	14	Cable ID
DCCALDATE	LABEL	1/27/2020	DC Calibration Date
ACCALDATE	LABEL	1/27/2020	AC Calibration Date
THERMOSELECT	IQUANT	1	Thermo Select
FRAMEWORKVERSION	QUANT	6.33	Framework Version
INSTRUMENTVERSION	LABEL	3.50	Instrument Version
ZCURVE	TABLE
	Pt	Time	Freq	Zreal	Zimag	Zsig	Zmod	Zphz	Idc	Vdc	IERange
	#	s	Hz	ohm	ohm	V	ohm	°	A	V	#
	0	1	1000078	2109.423	-1863.119	1	2814.405	-41.45212	-4.445532E-007	0.0570669	8
	1	2	794390.6	2405.648	-1915.539	1	3075.131	-38.52916	-8.706263E-007	0.056789	8
	2	4	630984.4	2681.115	-1962.993	1	3322.908	-36.20994	6.715469E-007	0.0563586	8
	3	5	501234.4	2944.593	-2005.49	1	3562.67	-34.25781	1.919254E-006	0.0559464	8
	4	6	398109.4	3189.59	-2073.09	1	3804.101	-33.02206	8.594016E-007	0.0561087	8
	5	8	316265.6	3400.398	-2162.211	1	4029.624	-32.45106	2.271598E-006	0.0559137	8
	6	9	251203.1	3603.932	-2316.468	1	4284.198	-32.73134	-5.790515E-007	0.0564657	8
	7	11	199546.9	3812.343	-2503.774	1	4561.013	-33.29509	2.005085E-006	0.0559998	8
	8	12	158578.1	4040.822	-2767.831	1	4897.87	-34.40987	5.270447E-007	0.0561482	8
	9	13	125953.1	4286.702	-3114.059	1	5298.412	-35.99639	1.257334E-007	0.0558077	7
	10	15	100078.1	4549.035	-3551.825	1	5771.41	-37.98223	3.956552E-008	0.0561469	7
	11	16	79453.13	4842.4	-4115.477	1	6354.997	-40.36066	-1.761572E-008	0.0562828	7
	12	17	63140.62	5186.903	-4805.382	1	7070.761	-42.81342	1.135131E-008	0.0562574	7
	13	19	50203.12	5611.749	-5641.646	1	7957.38	-45.15222	-7.390921E-009	0.0562085	7
	14	20	39890.62	6152.264	-6657.626	1	9065.006	-47.2592	-4.816987E-009	0.056236	7
	15	21	31640.63	6851.945	-7875.028	1	10438.64	-48.97395	-1.664657E-008	0.056277	7
	16	23	25171.88	7760.295	-9278.297	1	12095.83	-50.09115	-1.63609E-008	0.0562783	7
	17	24	20015.62	8950.739	-10904.47	1	14107.56	-50.61975	6.210526E-008	0.0561222	7
	18	25	15890.62	10518.73	-12734.22	1	16516.78	-50.44259	6.135312E-008	0.0561581	7
	19	27	12609.37	12679.58	-14593.66	1	19332.53	-49.01453	1.729984E-009	0.0562044	6
	20	28	10078.13	15237.93	-16408.8	1	22392.93	-47.11888	-1.682244E-009	0.0562847	6
	21	30	8015.625	18463.17	-17945.15	1	25747.17	-44.18485	1.157019E-009	0.0561996	6
	22	32	6328.125	22297.37	-19308.45	1	29495.57	-40.89099	7.735983E-009	0.0560819	6
	23	33	5015.625	26424.32	-19729.61	1	32977.3	-36.7467	6.049053E-009	0.0561952	6
	24	35	3984.375	30544.11	-19463.28	1	36218.25	-32.50605	3.762351E-009	0.0561463	6
	25	36	3170.956	34356.18	-18488.61	1	39015.07	-28.28669	1.967823E-009	0.0561902	6
	26	38	2527.573	37573.57	-16990.33	1	41236.45	-24.33193	4.087077E-009	0.0562369	6
	27	39	1976.103	40455.29	-15171.89	1	43206.68	-20.55748	1.24375E-009	0.0562088	6
	28	41	1577.524	42512.51	-13477.92	1	44597.85	-17.59039	1.328136E-009	0.0562119	6
	29	43	1265.625	43957.11	-11928.57	1	45546.88	-15.18263	-1.811405E-009	0.0562595	6
	30	44	998.264	44970.9	-10484.36	1	46176.87	-13.12333	2.174942E-009	0.0561867	6
	31	45	796.875	45774.92	-9548.54	1	46760.22	-11.7828	4.546668E-009	0.0562386	6
	32	47	627.7902	46689.64	-8938.652	1	47537.59	-10.83804	1.013932E-008	0.056086	6
	33	48	505.5147	47067.47	-8625.918	1	47851.37	-10.38519	1.350324E-009	0.0562665	6
	34	50	397.9953	47496.28	-8660.781	1	48279.46	-10.33415	3.345667E-009	0.0562334	6
	35	51	315.5048	47952.42	-9089.937	1	48806.37	-10.73372	2.661432E-009	0.0562356	6
	36	52	252.4038	48242.23	-9862.3	1	49240	-11.55394	3.241661E-009	0.0562315	6
	37	54	198.6229	48673.65	-11142.46	1	49932.74	-12.89407	3.229941E-009	0.0562341	6
	38	55	158.3615	49249.81	-12811.45	1	50888.87	-14.58129	2.549389E-009	0.0562307	6
	39	57	125.558	49655.93	-15040.49	1	51883.79	-16.85125	3.032779E-009	0.0562339	6
	40	58	100.4464	50496.02	-17807.02	1	53543.79	-19.4248	2.295111E-009	0.0562317	6
	41	59	79.00281	51504.25	-21574.19	1	55840.25	-22.72792	2.101543E-009	0.0562341	6
	42	61	63.3446	52630.4	-26054.95	1	58726.65	-26.33794	1.861797E-009	0.056234	6
	43	63	49.86702	54467.81	-31473.18	1	62907.1	-30.02064	1.41643E-009	0.0562296	6
	44	64	39.72458	56357.92	-37873.36	1	67901.45	-33.90169	2.345905E-009	0.0562316	6
	45	66	31.6723	59469.68	-45768.55	1	75042.67	-37.58229	1.988295E-009	0.0562298	6
	46	67	24.93351	63394.88	-55496.74	1	84254.38	-41.19934	1.186878E-009	0.0562304	6
	47	69	19.86229	68089.34	-66324.79	1	95053.3	-44.24788	1.803472E-009	0.0562294	6
	48	70	15.83615	74854.16	-79481.29	1	109180.7	-46.71727	-5.706108E-011	0.0562288	5
	49	72	12.40079	84186.41	-95006.2	1	126939.1	-48.45536	1.069273E-010	0.0562284	5
	50	73	9.93114	94058.09	-110981	1	145477.5	-49.71821	6.850754E-010	0.0562294	5
	51	75	7.944915	106772.9	-129175.2	1	167590.8	-50.42373	6.603088E-010	0.0562338	5
	52	76	6.317385	122340.2	-149161.5	1	192915.2	-50.64188	-3.383163E-010	0.0562416	5
	53	78	5.008013	141539.5	-171497.3	1	222361.8	-50.46659	5.483666E-011	0.056223	5
	54	81	3.945707	164114.3	-195750.9	1	255444.5	-50.02409	6.571889E-010	0.0562391	5
	55	83	3.158693	187855.8	-220298.4	1	289518.9	-49.54467	-2.148722E-011	0.0562266	5
	56	87	2.504006	214738.9	-247582.1	1	327734.2	-49.06345	6.667398E-010	0.0562295	5
	57	90	1.998082	242444.4	-276612	1	367822.6	-48.76614	-2.711155E-011	0.0562757	5
	58	93	1.584686	271953.1	-311486.2	1	413499.9	-48.87636	3.473242E-010	0.0562622	5
	59	96	1.266892	301743.5	-349194.3	1	461503.8	-49.16926	3.523646E-012	0.0562715	5
	60	101	0.999041	334024.2	-398257.8	1	519789.8	-50.01299	2.997931E-010	0.0562148	5
