EXPLAIN
TAG	EISPOT
TITLE	LABEL	Potentiostatic EIS	Test &Identifier
DATE	LABEL	2/11/2020	Date
TIME	LABEL	12:09:02	Time
NOTES	NOTES	6	&Notes...
	
	
	
	
	
	
PSTAT	PSTAT	REF600-11020	Potentiostat
VDC	POTEN	0.00000E+000	T	DC &Voltage (V)
FREQINIT	QUANT	1.00000E+006	Initial Fre&q. (Hz)
FREQFINAL	QUANT	1.00000E+000	Final Fre&q. (Hz)
PTSPERDEC	QUANT	1.00000E+001	Points/&decade
VAC	QUANT	2.50000E+001	AC &Voltage (mV rms)
AREA	QUANT	4.00000E-005	&Area (cm^2)
CONDIT	TWOPARAM	F	5.00000E+000	0.00000E+000	Conditionin&g	Time(s)	E(V)
DELAY	TWOPARAM	F	5.00000E+000	0.00000E+000	Init. De&lay	Time(s)	Stab.(mV/s)
SPEED	SELECTOR	0	&Optimize for:
ZGUESS	QUANT	1.00000E+003	E&stimated Z (ohms)
OCVCURVE	TABLE	39
	Pt	T	Vf	Vm	Ach	Over
	#	s	V vs. Ref.	V	V	bits
	0	0.258333	-4.71710E-002	-4.71710E-002	5.69404E-004	...........
	1	0.516667	-4.71693E-002	-4.70797E-002	5.71238E-004	...........
	2	0.775	-4.71614E-002	-4.71414E-002	5.70404E-004	...........
	3	1.03333	-4.71496E-002	-4.72587E-002	5.75571E-004	...........
	4	1.29167	-4.71492E-002	-4.72460E-002	5.75104E-004	...........
	5	1.55	-4.71697E-002	-4.72014E-002	5.75738E-004	...........
	6	1.80833	-4.71955E-002	-4.70811E-002	5.81237E-004	...........
	7	2.06667	-4.71983E-002	-4.69959E-002	5.74404E-004	...........
	8	2.325	-4.71643E-002	-4.69831E-002	5.75338E-004	...........
	9	2.58333	-4.71035E-002	-4.68929E-002	5.73604E-004	...........
	10	2.84167	-4.70358E-002	-4.68839E-002	5.70671E-004	...........
	11	3.1	-4.69752E-002	-4.68852E-002	5.73371E-004	...........
	12	3.35833	-4.69288E-002	-4.68788E-002	5.75771E-004	...........
	13	3.61667	-4.68996E-002	-4.68719E-002	5.74371E-004	...........
	14	3.875	-4.68843E-002	-4.68612E-002	5.79871E-004	...........
	15	4.13333	-4.68759E-002	-4.68497E-002	5.73971E-004	...........
	16	4.39167	-4.68689E-002	-4.68423E-002	5.72704E-004	...........
	17	4.65	-4.68606E-002	-4.68163E-002	5.74871E-004	...........
	18	4.90833	-4.68503E-002	-4.68227E-002	5.73138E-004	...........
	19	5.16667	-4.68397E-002	-4.68505E-002	5.75871E-004	...........
	20	5.425	-4.68338E-002	-4.68825E-002	5.76404E-004	...........
	21	5.68333	-4.68365E-002	-4.68231E-002	5.71238E-004	...........
	22	5.94167	-4.68432E-002	-4.68188E-002	5.78137E-004	...........
	23	6.2	-4.68442E-002	-4.68023E-002	5.77671E-004	...........
	24	6.45833	-4.68358E-002	-4.67954E-002	5.77904E-004	...........
	25	6.71667	-4.68221E-002	-4.67830E-002	5.76637E-004	...........
	26	6.975	-4.68084E-002	-4.67888E-002	5.77471E-004	...........
	27	7.23333	-4.67974E-002	-4.67809E-002	5.79837E-004	...........
	28	7.49167	-4.67899E-002	-4.67704E-002	5.76404E-004	...........
	29	7.75	-4.67847E-002	-4.67835E-002	5.71771E-004	...........
	30	8.00833	-4.67805E-002	-4.67539E-002	5.71538E-004	...........
	31	8.26667	-4.67758E-002	-4.67371E-002	5.74371E-004	...........
	32	8.525	-4.67688E-002	-4.67654E-002	5.73337E-004	...........
	33	8.78333	-4.67607E-002	-4.67449E-002	5.71971E-004	...........
	34	9.04167	-4.67547E-002	-4.67400E-002	5.76271E-004	...........
	35	9.3	-4.67507E-002	-4.67393E-002	5.78104E-004	...........
	36	9.5583	-4.67464E-002	-4.67062E-002	5.74104E-004	...........
	37	9.8167	-4.67392E-002	-4.66847E-002	5.75538E-004	...........
	38	10.075	-4.67276E-002	-4.67078E-002	5.80204E-004	...........
EOC	QUANT	-0.0467276	Open Circuit (V)
PSTATMODEL	IQUANT	4	Pstat Model
PSTATSECTION	LABEL	REF600-11020	Pstat Section
PSTATSERIALNO	LABEL	11020	Pstat Serial Number
CTRLMODE	IQUANT	1	Control Mode
IESTAB	IQUANT	0	I/E Stability
CASPEED	IQUANT	1	Control Amp Speed
CONVENTION	IQUANT	1	Current Convention
ICHRANGE	IQUANT	2	Ich Range
ICHRANGEMODE	TOGGLE	F	Ich Auto Range
ICHOFFSETENABLE	TOGGLE	T	Ich Offset Enable
ICHOFFSET	QUANT	0	Ich Offset (V)
ICHFILTER	IQUANT	3	Ich Filter
VCHRANGE	IQUANT	2	Vch Range
VCHRANGEMODE	TOGGLE	F	Vch Auto Range
VCHOFFSETENABLE	TOGGLE	T	Vch Offset Enable
VCHOFFSET	QUANT	0	Vch Offset (V)
VCHFILTER	IQUANT	3	Vch Filter
ACHRANGE	IQUANT	2	Ach Range
ACHOFFSETENABLE	TOGGLE	F	Ach Offset Enable
ACHOFFSET	QUANT	0	Ach Offset (V)
ACHFILTER	IQUANT	3	Ach Filter
IERANGELOWERLIMIT	IQUANT	1	I/E Range Lower Limit
IERANGEMODE	TOGGLE	F	I/E AutoRange
IERANGE	IQUANT	7	I/E Range
POSFEEDENABLE	TOGGLE	F	Positive Feedback IR Comp
POSFEEDRESISTANCE	QUANT	0	Positive Feedback Resistance (ohm)
ACHSELECT	IQUANT	0	Ach Select
CABLEID	IQUANT	14	Cable ID
DCCALDATE	LABEL	1/27/2020	DC Calibration Date
ACCALDATE	LABEL	1/27/2020	AC Calibration Date
THERMOSELECT	IQUANT	1	Thermo Select
FRAMEWORKVERSION	QUANT	6.33	Framework Version
INSTRUMENTVERSION	LABEL	3.50	Instrument Version
ZCURVE	TABLE
	Pt	Time	Freq	Zreal	Zimag	Zsig	Zmod	Zphz	Idc	Vdc	IERange
	#	s	Hz	ohm	ohm	V	ohm	°	A	V	#
	0	1	1000078	2289.954	-1998.367	1	3039.302	-41.11012	4.687461E-006	-0.0452069	8
	1	2	794390.6	2710.25	-2057.879	1	3402.987	-37.20921	4.581016E-006	-0.0458842	8
	2	2	630984.4	3118.93	-2011.179	1	3711.141	-32.81513	1.82433E-006	-0.045538	8
	3	2	501234.4	3497.98	-1907.262	1	3984.158	-28.60127	-1.578903E-006	-0.0445995	8
	4	3	398109.4	3841.606	-1770.963	1	4230.159	-24.74949	2.61992E-006	-0.0456159	8
	5	3	316265.6	4128.753	-1590.722	1	4424.59	-21.07063	1.633106E-006	-0.0454648	8
	6	3	251203.1	4342.658	-1447.891	1	4577.67	-18.43896	1.694297E-006	-0.0454707	8
	7	4	199546.9	4543.141	-1284.068	1	4721.119	-15.78236	-7.621186E-007	-0.0450475	8
	8	4	158578.1	4658.205	-1120.901	1	4791.168	-13.52982	-1.317224E-006	-0.0448322	8
	9	4	125953.1	4812.973	-969.227	1	4909.594	-11.38583	1.333167E-006	-0.0474655	7
	10	4	100078.1	4906.65	-882.4742	1	4985.376	-10.1958	-1.582796E-008	-0.0451451	7
	11	5	79453.13	4983.287	-822.1505	1	5050.651	-9.368357	-2.445725E-008	-0.0452058	7
	12	5	63140.62	5053.324	-780.915	1	5113.308	-8.784709	-6.293281E-008	-0.0451185	7
	13	5	50203.12	5118.491	-761.6891	1	5174.854	-8.464144	-1.899402E-008	-0.0450647	7
	14	6	39890.62	5182.774	-761.8036	1	5238.463	-8.361893	-3.950462E-008	-0.0451607	7
	15	6	31640.63	5246.068	-784.3685	1	5304.381	-8.503615	-2.401815E-008	-0.0452226	7
	16	6	25171.88	5315.143	-825.5956	1	5378.88	-8.829138	3.601816E-008	-0.0452445	7
	17	7	20015.62	5389.755	-889.3536	1	5462.638	-9.369841	8.23073E-008	-0.0453792	7
	18	7	15890.62	5469.563	-969.794	1	5554.873	-10.05447	-3.770068E-009	-0.0452732	7
	19	7	12609.37	5561.539	-1079.234	1	5665.286	-10.98193	-1.956595E-008	-0.0450727	7
	20	8	10078.13	5660.86	-1202.848	1	5787.243	-11.99608	-1.671346E-009	-0.0451846	7
	21	8	8015.625	5776.338	-1360.531	1	5934.402	-13.25361	-1.427929E-008	-0.0451714	7
	22	8	6328.125	5904.46	-1552.468	1	6105.146	-14.73142	-4.318533E-008	-0.0451888	7
	23	9	5015.625	6052.771	-1781.968	1	6309.631	-16.40471	7.013105E-008	-0.0452344	7
	24	9	3984.375	6214.921	-2046.555	1	6543.213	-18.22656	-2.262579E-008	-0.0452264	7
	25	9	3170.956	6399.924	-2356.17	1	6819.866	-20.21148	-6.105481E-008	-0.0451385	7
	26	10	2527.573	6604.23	-2718.719	1	7141.938	-22.37517	4.803193E-008	-0.0453721	7
	27	10	1976.103	6854.96	-3193.695	1	7562.418	-24.9806	-2.195167E-008	-0.0452279	7
	28	10	1577.524	7108.607	-3701.417	1	8014.536	-27.50577	4.871719E-008	-0.0453775	7
	29	11	1265.625	7389.734	-4303.897	1	8551.707	-30.21719	-2.201761E-008	-0.0452296	7
	30	11	998.264	7736.571	-5068.377	1	9248.944	-33.22958	-3.665773E-008	-0.0451723	7
	31	11	796.875	8108.128	-5940.039	1	10051.16	-36.22662	3.403954E-009	-0.0453176	6
	32	11	627.7902	8547.661	-7061.853	1	11087.48	-39.56262	-1.002181E-008	-0.0451375	6
	33	12	505.5147	9002.181	-8286.111	1	12235.15	-42.6282	-1.23582E-009	-0.0453466	6
	34	12	397.9953	9569.74	-9913.62	1	13778.96	-46.01114	1.365909E-009	-0.0452139	6
	35	12	315.5048	10211.14	-11838.6	1	15633.93	-49.22126	6.802409E-010	-0.0452146	6
	36	13	252.4038	10923.12	-14088.13	1	17826.66	-52.21209	1.484013E-009	-0.0452155	6
	37	13	198.6229	11823.44	-17023.46	1	20726.6	-55.21854	9.819989E-010	-0.0452174	6
	38	13	158.3615	12829.58	-20419.4	1	24115.35	-57.85872	9.402531E-010	-0.0452179	6
	39	14	125.558	14081.48	-24631.85	1	28372.8	-60.24435	6.724125E-010	-0.045216	6
	40	14	100.4464	15588.71	-29570.56	1	33427.92	-62.20316	1.080056E-010	-0.0452199	6
	41	14	79.00281	17477.22	-36106.03	1	40113.57	-64.17057	-9.990807E-011	-0.0452231	6
	42	15	63.3446	19504.65	-42720.21	1	46962.19	-65.46011	1.175148E-009	-0.0452256	6
	43	15	49.86702	22697.99	-52153.03	1	56878.27	-66.48042	1.222655E-009	-0.0452249	6
	44	15	39.72458	26271.46	-63398.32	1	68626.07	-67.4915	9.30627E-010	-0.0452196	6
	45	16	31.6723	30965.34	-76519.19	1	82547.19	-67.96809	1.372771E-009	-0.0452242	6
	46	16	24.93351	37050.98	-92472.32	1	99618.8	-68.16545	5.099332E-010	-0.0452248	6
	47	16	19.86229	44364.55	-111097	1	119627.5	-68.23161	-2.591791E-010	-0.0452252	5
	48	17	15.83615	53332.79	-132466.9	1	142800.1	-68.06968	1.63337E-010	-0.0452248	5
	49	17	12.40079	66561.55	-160499.9	1	173754.6	-67.47553	9.32272E-010	-0.0452215	5
	50	17	9.93114	82300.29	-190945.4	1	207926.7	-66.68324	1.845706E-010	-0.04523	5
	51	18	7.944915	101579.9	-224000.8	1	245956.9	-65.60666	4.352722E-010	-0.0452229	5
	52	19	6.317385	127489.4	-264063.4	1	293228.7	-64.22883	4.077807E-010	-0.0452329	5
	53	19	5.008013	159894.3	-308537.1	1	347507.3	-62.6053	3.632621E-010	-0.0452208	5
	54	20	3.945707	201420.6	-359826.6	1	412365.7	-60.76115	-1.377564E-010	-0.0452314	5
	55	22	3.158693	245444.6	-409434.1	1	477367	-59.05846	5.77652E-011	-0.0452408	5
	56	23	2.504006	299878	-465909.4	1	554074.3	-57.23304	2.954443E-010	-0.0452336	5
	57	25	1.998082	358651.6	-523097.7	1	634241.4	-55.56429	8.944413E-011	-0.0452581	5
	58	26	1.584686	427662.7	-588343.4	1	727353.6	-53.98686	-2.028013E-011	-0.0452866	5
	59	28	1.266892	498248.8	-656156.5	1	823889.1	-52.78899	1.723802E-012	-0.0452584	5
	60	31	0.999041	580551.1	-733460.3	1	935416.3	-51.63755	2.512775E-011	-0.0452243	5
