EXPLAIN
TAG	EISPOT
TITLE	LABEL	Potentiostatic EIS	Test &Identifier
DATE	LABEL	6/26/2020	Date
TIME	LABEL	12:45:17	Time
NOTES	NOTES	1	&Notes...
	
PSTAT	PSTAT	REF600-11020	Potentiostat
VDC	POTEN	0.00000E+000	T	DC &Voltage (V)
FREQINIT	QUANT	1.00000E+006	Initial Fre&q. (Hz)
FREQFINAL	QUANT	1.00000E+000	Final Fre&q. (Hz)
PTSPERDEC	QUANT	1.00000E+001	Points/&decade
VAC	QUANT	2.50000E+001	AC &Voltage (mV rms)
AREA	QUANT	4.00000E-004	&Area (cm^2)
CONDIT	TWOPARAM	F	5.00000E+000	0.00000E+000	Conditionin&g	Time(s)	E(V)
DELAY	TWOPARAM	F	3.00000E+000	0.00000E+000	Init. De&lay	Time(s)	Stab.(mV/s)
SPEED	SELECTOR	0	&Optimize for:
ZGUESS	QUANT	1.00000E+003	E&stimated Z (ohms)
OCVCURVE	TABLE	39
	Pt	T	Vf	Vm	Ach	Over
	#	s	V vs. Ref.	V	V	bits
	0	0.258333	3.22741E-002	3.22741E-002	5.13483E-004	...........
	1	0.516667	3.22739E-002	3.22659E-002	5.16483E-004	...........
	2	0.775	3.22730E-002	3.22598E-002	5.11817E-004	...........
	3	1.03333	3.22703E-002	3.22455E-002	5.17117E-004	...........
	4	1.29167	3.22651E-002	3.22367E-002	5.14050E-004	...........
	5	1.55	3.22574E-002	3.22269E-002	5.07784E-004	...........
	6	1.80833	3.22479E-002	3.22176E-002	5.10884E-004	...........
	7	2.06667	3.22378E-002	3.22027E-002	5.10284E-004	...........
	8	2.325	3.22274E-002	3.21961E-002	5.07617E-004	...........
	9	2.58333	3.22169E-002	3.21870E-002	5.10484E-004	...........
	10	2.84167	3.22066E-002	3.21817E-002	5.16417E-004	...........
	11	3.1	3.21971E-002	3.21682E-002	5.15450E-004	...........
	12	3.35833	3.21883E-002	3.21597E-002	5.12350E-004	...........
	13	3.61667	3.21793E-002	3.21461E-002	5.15683E-004	...........
	14	3.875	3.21696E-002	3.21401E-002	5.16750E-004	...........
	15	4.13333	3.21596E-002	3.21319E-002	5.18117E-004	...........
	16	4.39167	3.21498E-002	3.21222E-002	5.15250E-004	...........
	17	4.65	3.21405E-002	3.21123E-002	5.16150E-004	...........
	18	4.90833	3.21316E-002	3.21058E-002	5.16817E-004	...........
	19	5.16667	3.21229E-002	3.20985E-002	5.19317E-004	...........
	20	5.425	3.21145E-002	3.20920E-002	5.11250E-004	...........
	21	5.68333	3.21066E-002	3.20847E-002	5.14683E-004	...........
	22	5.94167	3.20992E-002	3.20765E-002	5.20750E-004	...........
	23	6.2	3.20920E-002	3.20679E-002	5.21083E-004	...........
	24	6.45833	3.20847E-002	3.20619E-002	5.21117E-004	...........
	25	6.71667	3.20771E-002	3.20534E-002	5.17650E-004	...........
	26	6.975	3.20694E-002	3.20463E-002	5.16283E-004	...........
	27	7.23333	3.20619E-002	3.20395E-002	5.15683E-004	...........
	28	7.49167	3.20544E-002	3.20325E-002	5.13017E-004	...........
	29	7.75	3.20472E-002	3.20258E-002	5.13450E-004	...........
	30	8.00833	3.20401E-002	3.20212E-002	5.13883E-004	...........
	31	8.26667	3.20334E-002	3.20139E-002	5.13750E-004	...........
	32	8.525	3.20270E-002	3.20073E-002	5.11017E-004	...........
	33	8.78333	3.20207E-002	3.20005E-002	5.11784E-004	...........
	34	9.04167	3.20144E-002	3.19956E-002	5.09484E-004	...........
	35	9.3	3.20080E-002	3.19889E-002	5.10617E-004	...........
	36	9.5583	3.20017E-002	3.19808E-002	5.13883E-004	...........
	37	9.8167	3.19954E-002	3.19778E-002	5.16717E-004	...........
	38	10.075	3.19891E-002	3.19678E-002	5.18550E-004	...........
EOC	QUANT	0.0319891	Open Circuit (V)
PSTATMODEL	IQUANT	4	Pstat Model
PSTATSECTION	LABEL	REF600-11020	Pstat Section
PSTATSERIALNO	LABEL	11020	Pstat Serial Number
CTRLMODE	IQUANT	1	Control Mode
IESTAB	IQUANT	0	I/E Stability
CASPEED	IQUANT	1	Control Amp Speed
CONVENTION	IQUANT	1	Current Convention
ICHRANGE	IQUANT	2	Ich Range
ICHRANGEMODE	TOGGLE	F	Ich Auto Range
ICHOFFSETENABLE	TOGGLE	T	Ich Offset Enable
ICHOFFSET	QUANT	0	Ich Offset (V)
ICHFILTER	IQUANT	3	Ich Filter
VCHRANGE	IQUANT	2	Vch Range
VCHRANGEMODE	TOGGLE	F	Vch Auto Range
VCHOFFSETENABLE	TOGGLE	T	Vch Offset Enable
VCHOFFSET	QUANT	0	Vch Offset (V)
VCHFILTER	IQUANT	3	Vch Filter
ACHRANGE	IQUANT	2	Ach Range
ACHOFFSETENABLE	TOGGLE	F	Ach Offset Enable
ACHOFFSET	QUANT	0	Ach Offset (V)
ACHFILTER	IQUANT	3	Ach Filter
IERANGELOWERLIMIT	IQUANT	1	I/E Range Lower Limit
IERANGEMODE	TOGGLE	F	I/E AutoRange
IERANGE	IQUANT	7	I/E Range
POSFEEDENABLE	TOGGLE	F	Positive Feedback IR Comp
POSFEEDRESISTANCE	QUANT	0	Positive Feedback Resistance (ohm)
ACHSELECT	IQUANT	0	Ach Select
CABLEID	IQUANT	14	Cable ID
DCCALDATE	LABEL	6/26/2020	DC Calibration Date
ACCALDATE	LABEL	6/26/2020	AC Calibration Date
THERMOSELECT	IQUANT	1	Thermo Select
FRAMEWORKVERSION	QUANT	6.33	Framework Version
INSTRUMENTVERSION	LABEL	3.50	Instrument Version
ZCURVE	TABLE
	Pt	Time	Freq	Zreal	Zimag	Zsig	Zmod	Zphz	Idc	Vdc	IERange
	#	s	Hz	ohm	ohm	V	ohm	°	A	V	#
	0	1	1000078	2007.783	-2088.656	1	2897.184	-46.131	-6.038689E-008	0.034365	8
	1	1	794390.6	2349.014	-2248.286	1	3251.563	-43.74483	7.714053E-008	0.0340701	8
	2	2	630984.4	2712.767	-2395.365	1	3618.961	-41.4444	5.981629E-008	0.0338975	8
	3	2	501234.4	3104.106	-2538.518	1	4009.931	-39.27608	9.81049E-008	0.0337966	8
	4	2	398109.4	3524.832	-2666.225	1	4419.638	-37.1043	2.088577E-007	0.0337166	8
	5	3	316265.6	3971.764	-2787.448	1	4852.296	-35.0618	6.236896E-008	0.0337006	8
	6	3	251203.1	4455.101	-2874.427	1	5301.911	-32.83008	2.026791E-007	0.0336709	8
	7	3	199546.9	4967.371	-2922.473	1	5763.299	-30.46975	7.470686E-008	0.0336911	8
	8	4	158578.1	5487.254	-2924.859	1	6218.099	-28.05886	9.38438E-008	0.0336971	8
	9	4	125953.1	6069.739	-2816.762	1	6691.478	-24.89443	-1.704108E-008	0.0336636	7
	10	4	100078.1	6564.396	-2718.834	1	7105.164	-22.49831	-6.492177E-009	0.0336744	7
	11	5	79453.13	7013.945	-2585.31	1	7475.243	-20.23367	-1.727726E-008	0.0336506	7
	12	5	63140.62	7406.704	-2421.474	1	7792.483	-18.10412	-1.698049E-008	0.0336488	7
	13	5	50203.12	7745.122	-2252.069	1	8065.899	-16.21298	-2.075819E-008	0.0336751	7
	14	6	39890.62	8036.917	-2094.754	1	8305.422	-14.60864	1.362978E-008	0.0336148	7
	15	6	31640.63	8285.513	-1956.862	1	8513.462	-13.28854	1.879393E-008	0.0336183	7
	16	6	25171.88	8494.18	-1849.59	1	8693.22	-12.28428	-1.584095E-008	0.033645	7
	17	7	20015.62	8676.088	-1779.294	1	8856.658	-11.58954	-5.923664E-009	0.0336632	7
	18	7	15890.62	8844.118	-1749.491	1	9015.495	-11.18945	-5.972408E-009	0.0336626	7
	19	7	12609.37	9050.182	-1665.612	1	9202.177	-10.42812	-3.84352E-009	0.0336625	6
	20	7	10078.13	9194.371	-1737.296	1	9357.064	-10.70001	-3.092475E-009	0.0336438	6
	21	8	8015.625	9345.034	-1854.399	1	9527.25	-11.22379	-4.016665E-009	0.0336722	6
	22	8	6328.125	9515.38	-2023.155	1	9728.08	-12.00345	3.082522E-010	0.033658	6
	23	8	5015.625	9695.73	-2241.03	1	9951.35	-13.01456	2.423673E-009	0.033627	6
	24	9	3984.375	9892.77	-2510.867	1	10206.44	-14.24142	3.106411E-009	0.0336161	6
	25	9	3170.956	10105.89	-2837.085	1	10496.57	-15.68134	-3.275968E-009	0.0336403	6
	26	9	2527.573	10346.53	-3230.148	1	10839.03	-17.33817	-3.332223E-009	0.0336848	6
	27	10	1976.103	10634.91	-3744.827	1	11274.97	-19.39849	-4.048565E-009	0.0336722	6
	28	10	1577.524	10930.57	-4316.994	1	11752.18	-21.55138	3.250634E-009	0.0335747	6
	29	10	1265.625	11239.52	-4981.531	1	12294	-23.90366	-3.994817E-009	0.033664	6
	30	11	998.264	11610.29	-5853.456	1	13002.38	-26.75545	1.273425E-009	0.0335688	6
	31	11	796.875	12000.91	-6858.919	1	13822.69	-29.7494	3.324032E-009	0.0335905	6
	32	11	627.7902	12460.8	-8157.063	1	14893.26	-33.20947	1.817636E-010	0.0336459	6
	33	12	505.5147	12932.73	-9601.98	1	16107.57	-36.59225	-1.27279E-009	0.033661	6
	34	12	397.9953	13536.35	-11552.82	1	17796.08	-40.47965	3.341115E-010	0.0336468	6
	35	12	315.5048	14235.04	-13886.73	1	19886.63	-44.29038	4.686916E-010	0.0336419	6
	36	13	252.4038	15046.89	-16627.95	1	22425.38	-47.85756	2.481572E-010	0.0336445	6
	37	13	198.6229	16126.85	-20229.24	1	25870.79	-51.43797	3.821786E-010	0.033642	6
	38	13	158.3615	17420.09	-24381.66	1	29965.39	-54.45514	3.269577E-010	0.0336415	6
	39	13	125.558	19112.81	-29536.29	1	35180.84	-57.09326	3.082788E-010	0.0336449	6
	40	14	100.4464	21200.2	-35493.66	1	41343.06	-59.15032	4.084373E-010	0.0336391	6
	41	14	79.00281	24124.28	-43189.13	1	49470.01	-60.81346	2.744142E-010	0.0336359	6
	42	14	63.3446	27589.7	-51618.67	1	58529.29	-61.87591	2.968002E-010	0.033635	6
	43	15	49.86702	32472.29	-62381.06	1	70326.71	-62.50089	2.628144E-010	0.0336292	6
	44	15	39.72458	38497.41	-74357.58	1	83732.31	-62.62788	1.715006E-010	0.0336363	6
	45	16	31.6723	46196.72	-88154.51	1	99525.6	-62.34355	-2.339815E-011	0.0336307	6
	46	16	24.93351	56633.17	-104646.3	1	118988.1	-61.57834	4.042005E-010	0.0336216	5
	47	16	19.86229	69116.5	-122391	1	140558.3	-60.54576	-4.495661E-010	0.0336225	5
	48	16	15.83615	84692.46	-141504.2	1	164912.9	-59.09882	1.136586E-009	0.0336215	5
	49	17	12.40079	104931.3	-163532.6	1	194302.5	-57.3136	1.667413E-009	0.0336237	5
	50	17	9.93114	125662.5	-184516.7	1	223243.1	-55.74372	1.271707E-009	0.0336253	5
	51	17	7.944915	149839.5	-206527.8	1	255158	-54.03846	-5.363699E-010	0.0336256	5
	52	18	6.317385	176530.3	-230271.5	1	290151.6	-52.52557	6.02242E-010	0.0336137	5
	53	19	5.008013	205700.6	-256139.9	1	328512.3	-51.23278	4.427705E-010	0.0336259	5
	54	19	3.945707	236018.8	-285020	1	370055.8	-50.37259	-1.536299E-010	0.0336109	5
	55	20	3.158693	265953.8	-316344.3	1	413285.8	-49.94589	2.697244E-010	0.0336208	5
	56	21	2.504006	297244.8	-354952.2	1	462974.7	-50.05645	1.89558E-010	0.0336172	5
	57	23	1.998082	329982.4	-400072.6	1	518600.5	-50.48397	-6.371577E-011	0.0335685	5
	58	24	1.584686	364166.4	-457268.6	1	584561.2	-51.46636	1.025964E-011	0.0335891	5
	59	26	1.266892	401804.5	-523065.5	1	659578.9	-52.46952	8.27439E-011	0.0336287	5
	60	29	0.999041	447689.5	-609335.8	1	756119	-53.69463	1.153158E-010	0.0336445	5
