EXPLAIN
TAG	EISPOT
TITLE	LABEL	Potentiostatic EIS	Test &Identifier
DATE	LABEL	3/9/2020	Date
TIME	LABEL	20:32:41	Time
NOTES	NOTES	1	&Notes...
	
PSTAT	PSTAT	REF600-11020	Potentiostat
VDC	POTEN	0.00000E+000	T	DC &Voltage (V)
FREQINIT	QUANT	1.00000E+006	Initial Fre&q. (Hz)
FREQFINAL	QUANT	1.00000E+000	Final Fre&q. (Hz)
PTSPERDEC	QUANT	1.00000E+001	Points/&decade
VAC	QUANT	2.50000E+001	AC &Voltage (mV rms)
AREA	QUANT	4.00000E-005	&Area (cm^2)
CONDIT	TWOPARAM	F	5.00000E+000	0.00000E+000	Conditionin&g	Time(s)	E(V)
DELAY	TWOPARAM	T	5.00000E+000	0.00000E+000	Init. De&lay	Time(s)	Stab.(mV/s)
SPEED	SELECTOR	0	&Optimize for:
ZGUESS	QUANT	1.00000E+003	E&stimated Z (ohms)
OCVCURVE	TABLE	19
	Pt	T	Vf	Vm	Ach	Over
	#	s	V vs. Ref.	V	V	bits
	0	0.258333	3.15380E-002	3.15380E-002	5.72397E-004	...........
	1	0.516667	3.15375E-002	3.15094E-002	5.72330E-004	...........
	2	0.775	3.15361E-002	3.15880E-002	5.74630E-004	...........
	3	1.03333	3.15377E-002	3.15898E-002	5.76797E-004	...........
	4	1.29167	3.15471E-002	3.15839E-002	5.73997E-004	...........
	5	1.55	3.15627E-002	3.16043E-002	5.80763E-004	...........
	6	1.80833	3.15778E-002	3.15920E-002	5.75263E-004	...........
	7	2.06667	3.15895E-002	3.16583E-002	5.75063E-004	...........
	8	2.325	3.16015E-002	3.16767E-002	5.74963E-004	...........
	9	2.58333	3.16179E-002	3.16156E-002	5.75097E-004	...........
	10	2.84167	3.16351E-002	3.16958E-002	5.76797E-004	...........
	11	3.1	3.16497E-002	3.17543E-002	5.77530E-004	...........
	12	3.35833	3.16670E-002	3.17128E-002	5.75630E-004	...........
	13	3.61667	3.16900E-002	3.17443E-002	5.77530E-004	...........
	14	3.875	3.17123E-002	3.17679E-002	5.75563E-004	...........
	15	4.13333	3.17302E-002	3.17722E-002	5.77063E-004	...........
	16	4.39167	3.17450E-002	3.17617E-002	5.83730E-004	...........
	17	4.65	3.17577E-002	3.18211E-002	5.78930E-004	...........
	18	4.90833	3.17700E-002	3.18245E-002	5.80330E-004	...........
EOC	QUANT	0.03177	Open Circuit (V)
PSTATMODEL	IQUANT	4	Pstat Model
PSTATSECTION	LABEL	REF600-11020	Pstat Section
PSTATSERIALNO	LABEL	11020	Pstat Serial Number
CTRLMODE	IQUANT	1	Control Mode
IESTAB	IQUANT	0	I/E Stability
CASPEED	IQUANT	1	Control Amp Speed
CONVENTION	IQUANT	1	Current Convention
ICHRANGE	IQUANT	2	Ich Range
ICHRANGEMODE	TOGGLE	F	Ich Auto Range
ICHOFFSETENABLE	TOGGLE	T	Ich Offset Enable
ICHOFFSET	QUANT	0	Ich Offset (V)
ICHFILTER	IQUANT	3	Ich Filter
VCHRANGE	IQUANT	2	Vch Range
VCHRANGEMODE	TOGGLE	F	Vch Auto Range
VCHOFFSETENABLE	TOGGLE	T	Vch Offset Enable
VCHOFFSET	QUANT	0	Vch Offset (V)
VCHFILTER	IQUANT	3	Vch Filter
ACHRANGE	IQUANT	2	Ach Range
ACHOFFSETENABLE	TOGGLE	F	Ach Offset Enable
ACHOFFSET	QUANT	0	Ach Offset (V)
ACHFILTER	IQUANT	3	Ach Filter
IERANGELOWERLIMIT	IQUANT	1	I/E Range Lower Limit
IERANGEMODE	TOGGLE	F	I/E AutoRange
IERANGE	IQUANT	7	I/E Range
POSFEEDENABLE	TOGGLE	F	Positive Feedback IR Comp
POSFEEDRESISTANCE	QUANT	0	Positive Feedback Resistance (ohm)
ACHSELECT	IQUANT	0	Ach Select
CABLEID	IQUANT	14	Cable ID
DCCALDATE	LABEL	2/27/2020	DC Calibration Date
ACCALDATE	LABEL	2/27/2020	AC Calibration Date
THERMOSELECT	IQUANT	1	Thermo Select
FRAMEWORKVERSION	QUANT	6.33	Framework Version
INSTRUMENTVERSION	LABEL	3.50	Instrument Version
ZCURVE	TABLE
	Pt	Time	Freq	Zreal	Zimag	Zsig	Zmod	Zphz	Idc	Vdc	IERange
	#	s	Hz	ohm	ohm	V	ohm	°	A	V	#
	0	1	1000078	920.7502	-6827.917	1	6889.719	-82.31995	2.366013E-008	0.0341443	8
	1	1	794390.6	1050.347	-8503.684	1	8568.306	-82.95868	2.330017E-008	0.0338059	8
	2	2	630984.4	1186.295	-10581.96	1	10648.25	-83.60355	5.409821E-008	0.0336095	8
	3	2	501234.4	1343.881	-13175.2	1	13243.56	-84.17593	4.615049E-008	0.0334985	8
	4	2	398109.4	1560.968	-16419.59	1	16493.63	-84.56936	5.412154E-008	0.0334244	8
	5	2	316265.6	1827.369	-20508.44	1	20589.7	-84.9082	4.914797E-008	0.0333844	8
	6	3	251203.1	2272.653	-25570.5	1	25671.29	-84.92101	5.613717E-008	0.0333964	8
	7	3	199546.9	2764.688	-31840.15	1	31959.95	-85.03744	4.929965E-008	0.0333942	8
	8	3	158578.1	3293.924	-39791.93	1	39928.04	-85.26792	5.234659E-008	0.0333721	8
	9	4	125953.1	5155.63	-49752.22	1	50018.64	-84.08378	2.56004E-009	0.033314	7
	10	4	100078.1	6308.318	-61664.82	1	61986.65	-84.15895	2.383561E-009	0.033318	7
	11	4	79453.13	7989	-76830.36	1	77244.6	-84.06358	1.269253E-009	0.0333057	7
	12	5	63140.62	10020.7	-95567.5	1	96091.4	-84.01414	1.696155E-009	0.0333008	7
	13	5	50203.12	12925.11	-118652.3	1	119354.2	-83.78313	1.599783E-009	0.0333027	7
	14	5	39890.62	16571.1	-147376.9	1	148305.6	-83.58459	2.418364E-009	0.0332894	7
	15	6	31640.63	22413.65	-182623	1	183993.3	-83.00298	1.172834E-009	0.0332945	7
	16	6	25171.88	28353.13	-225594.6	1	227369.4	-82.83652	1.982585E-009	0.0332999	7
	17	6	20015.62	37767.7	-278234.5	1	280786.1	-82.26989	1.620036E-009	0.0332837	7
	18	7	15890.62	49703.3	-342454.5	1	346042.6	-81.74184	1.875602E-009	0.0332868	7
	19	7	12609.37	68570.88	-422242.9	1	427774.6	-80.77588	4.794377E-010	0.0333463	6
	20	7	10078.13	85113.72	-515304.8	1	522286.7	-80.62104	3.152922E-010	0.0333372	6
	21	8	8015.625	104027	-631601.1	1	640110.6	-80.64715	3.724867E-010	0.0333374	6
	22	8	6328.125	127562.1	-778291.3	1	788675.8	-80.69197	3.636628E-010	0.0333425	6
	23	8	5015.625	154815.2	-957902	1	970332	-80.8193	2.677273E-010	0.0333384	6
	24	9	3984.375	189860.6	-1191395	1	1206428	-80.94548	2.52483E-010	0.0333351	6
	25	9	3170.956	231853	-1472711	1	1490849	-81.0532	3.108701E-010	0.03334	6
	26	9	2527.573	272654.9	-1814498	1	1834869	-81.45441	4.104312E-010	0.0333439	6
	27	9	1976.103	346436.1	-2259158	1	2285566	-81.28175	2.669145E-010	0.0333367	6
	28	10	1577.524	384836.7	-2780628	1	2807132	-82.12036	4.313793E-010	0.0333489	6
	29	10	1265.625	594879.7	-3400602	1	3452243	-80.07745	-4.683965E-012	0.03334	5
	30	10	998.264	716374.4	-4221160	1	4281516	-80.36809	-5.431888E-012	0.0333441	5
	31	11	796.875	876782	-5188706	1	5262264	-80.40882	-1.068891E-011	0.0333315	5
	32	11	627.7902	1047309	-6451320	1	6535777	-80.77903	7.971336E-012	0.033347	5
	33	11	505.5147	1223326	-7744347	1	7840372	-81.02352	2.201864E-012	0.033338	5
	34	12	397.9953	1565743	-9.609111E+006	1	9.735839E+006	-80.74535	-7.385688E-012	0.033343	5
	35	12	315.5048	1978723	-1.18611E+007	1	1.202502E+007	-80.52887	-8.900111E-012	0.0333456	5
	36	12	252.4038	2444690	-1.44992E+007	1	1.470385E+007	-80.42945	-9.220324E-012	0.0333426	5
	37	13	198.6229	3121746	-1.796935E+007	1	1.82385E+007	-80.14458	-1.179326E-011	0.0333442	5
	38	13	158.3615	3911628	-2.200845E+007	1	2.235336E+007	-79.92189	-1.657844E-011	0.0333441	5
	39	13	125.558	5396684	-2.715677E+007	1	2.76878E+007	-78.76041	-1.383701E-012	0.0333381	4
	40	14	100.4464	6727671	-3.315321E+007	1	3.382894E+007	-78.52892	-9.431567E-013	0.0333313	4
	41	14	79.00281	8563703	-4.106905E+007	1	4.19524E+007	-78.22148	-4.093579E-013	0.0333332	4
	42	14	63.3446	1.080925E+007	-4.996864E+007	1	5.11244E+007	-77.79381	-3.298765E-013	0.0333383	4
	43	15	49.86702	1.411813E+007	-6.168126E+007	1	6.327638E+007	-77.10773	-1.153346E-013	0.0333277	4
	44	15	39.72458	1.824495E+007	-7.51982E+007	1	7.737989E+007	-76.36215	-7.880048E-014	0.0333363	4
	45	15	31.6723	2.467829E+007	-9.171762E+007	1	9.497969E+007	-74.9402	4.699012E-012	0.0333344	4
	46	16	24.93351	3.191931E+007	-1.120445E+008	1	1.165024E+008	-74.09878	-2.249112E-011	0.0333296	4
	47	16	19.86229	4.418923E+007	-1.325523E+008	1	1.39724E+008	-71.56306	5.34153E-013	0.0333332	4
	48	16	15.83615	6.006004E+007	-1.604783E+008	1	1.713491E+008	-69.48132	6.308754E-013	0.0333334	4
	49	17	12.40079	8.357646E+007	-1.90342E+008	1	2.078825E+008	-66.29441	4.243485E-013	0.0333377	3
	50	17	9.93114	1.140043E+008	-2.236304E+008	1	2.51013E+008	-62.98801	-5.27045E-013	0.0333411	3
	51	17	7.944915	1.467677E+008	-2.54748E+008	1	2.940022E+008	-60.05251	-1.56285E-012	0.0333383	3
	52	18	6.317385	1.925148E+008	-2.922861E+008	1	3.499901E+008	-56.62903	-2.582263E-012	0.0333299	3
	53	19	5.008013	2.482076E+008	-3.212335E+008	1	4.059532E+008	-52.30781	4.195817E-013	0.0333447	3
	54	19	3.945707	3.105536E+008	-3.458747E+008	1	4.648364E+008	-48.08	-5.148162E-013	0.0333384	3
	55	21	3.158693	3.757827E+008	-3.465793E+008	1	5.112043E+008	-42.68493	-2.227561E-012	0.0333427	3
	56	22	2.504006	4.499961E+008	-3.599006E+008	1	5.762161E+008	-38.65233	-1.320528E-012	0.0333284	3
	57	23	1.998082	5.151827E+008	-3.314782E+008	1	6.126099E+008	-32.75799	-1.435626E-012	0.0333714	3
	58	25	1.584686	5.69714E+008	-2.74912E+008	1	6.325747E+008	-25.75935	2.056496E-012	0.0333441	3
	59	27	1.266892	6.393564E+008	-3.092333E+008	1	7.102125E+008	-25.81135	-9.182092E-013	0.0332961	2
	60	29	0.999041	6.898115E+008	-2.891542E+008	1	7.47964E+008	-22.74239	-1.065314E-012	0.0332834	2
