EXPLAIN
TAG	EISPOT
TITLE	LABEL	Potentiostatic EIS	Test &Identifier
DATE	LABEL	6/19/2020	Date
TIME	LABEL	16:41:14	Time
NOTES	NOTES	1	&Notes...
	
PSTAT	PSTAT	REF600-10037	Potentiostat
VDC	POTEN	0.00000E+000	T	DC &Voltage (V)
FREQINIT	QUANT	1.00000E+006	Initial Fre&q. (Hz)
FREQFINAL	QUANT	1.00000E+000	Final Fre&q. (Hz)
PTSPERDEC	QUANT	1.00000E+001	Points/&decade
VAC	QUANT	1.00000E+002	AC &Voltage (mV rms)
AREA	QUANT	2.50000E-001	&Area (cm^2)
CONDIT	TWOPARAM	F	5.00000E+000	0.00000E+000	Conditionin&g	Time(s)	E(V)
DELAY	TWOPARAM	F	5.00000E+000	0.00000E+000	Init. De&lay	Time(s)	Stab.(mV/s)
SPEED	SELECTOR	0	&Optimize for:
ZGUESS	QUANT	1.00000E+003	E&stimated Z (ohms)
OCVCURVE	TABLE	39
	Pt	T	Vf	Vm	Ach	Over
	#	s	V vs. Ref.	V	V	bits
	0	0.258333	6.79987E-003	6.79987E-003	5.21287E-004	...........
	1	0.516667	6.80089E-003	6.85318E-003	5.25121E-004	...........
	2	0.775	6.80713E-003	6.90299E-003	5.13988E-004	...........
	3	1.03333	6.82488E-003	6.95838E-003	5.15388E-004	...........
	4	1.29167	6.85722E-003	7.01375E-003	5.15354E-004	...........
	5	1.55	6.90168E-003	7.06572E-003	5.15121E-004	...........
	6	1.80833	6.95309E-003	7.11942E-003	5.17521E-004	...........
	7	2.06667	7.00692E-003	7.16527E-003	5.17688E-004	...........
	8	2.325	7.06037E-003	7.21709E-003	5.21521E-004	...........
	9	2.58333	7.11214E-003	7.25717E-003	5.19921E-004	...........
	10	2.84167	7.16179E-003	7.30346E-003	5.19754E-004	...........
	11	3.1	7.20927E-003	7.34822E-003	5.19488E-004	...........
	12	3.35833	7.25521E-003	7.39933E-003	5.22354E-004	...........
	13	3.61667	7.30099E-003	7.45257E-003	5.19588E-004	...........
	14	3.875	7.34799E-003	7.49852E-003	5.16188E-004	...........
	15	4.13333	7.39642E-003	7.54125E-003	5.16821E-004	...........
	16	4.39167	7.44500E-003	7.58630E-003	5.23021E-004	...........
	17	4.65	7.49226E-003	7.62686E-003	5.15021E-004	...........
	18	4.90833	7.53755E-003	7.66509E-003	5.14554E-004	...........
	19	5.16667	7.58087E-003	7.70719E-003	5.20221E-004	...........
	20	5.425	7.62268E-003	7.75322E-003	5.17621E-004	...........
	21	5.68333	7.66400E-003	7.79216E-003	5.12788E-004	...........
	22	5.94167	7.70560E-003	7.83223E-003	5.11988E-004	...........
	23	6.2	7.74725E-003	7.87014E-003	5.18921E-004	...........
	24	6.45833	7.78817E-003	7.90679E-003	5.18188E-004	...........
	25	6.71667	7.82781E-003	7.94000E-003	5.22787E-004	...........
	26	6.975	7.86593E-003	7.97797E-003	5.12454E-004	...........
	27	7.23333	7.90277E-003	8.01457E-003	5.15954E-004	...........
	28	7.49167	7.93901E-003	8.05225E-003	5.15021E-004	...........
	29	7.75	7.97536E-003	8.08898E-003	5.16721E-004	...........
	30	8.00833	8.01193E-003	8.11837E-003	5.06354E-004	...........
	31	8.26667	8.04808E-003	8.15247E-003	5.15754E-004	...........
	32	8.525	8.08316E-003	8.18983E-003	5.13054E-004	...........
	33	8.78333	8.11751E-003	8.22892E-003	5.07121E-004	...........
	34	9.04167	8.15235E-003	8.26853E-003	5.13888E-004	...........
	35	9.3	8.18861E-003	8.30655E-003	5.18321E-004	...........
	36	9.5583	8.22628E-003	8.34488E-003	5.15254E-004	...........
	37	9.8167	8.26467E-003	8.38005E-003	5.12354E-004	...........
	38	10.075	8.30293E-003	8.41665E-003	5.13054E-004	...........
EOC	QUANT	0.0083029	Open Circuit (V)
PSTATMODEL	IQUANT	4	Pstat Model
PSTATSECTION	LABEL	REF600-10037	Pstat Section
PSTATSERIALNO	LABEL	10037	Pstat Serial Number
CTRLMODE	IQUANT	1	Control Mode
IESTAB	IQUANT	0	I/E Stability
CASPEED	IQUANT	1	Control Amp Speed
CONVENTION	IQUANT	1	Current Convention
ICHRANGE	IQUANT	2	Ich Range
ICHRANGEMODE	TOGGLE	F	Ich Auto Range
ICHOFFSETENABLE	TOGGLE	T	Ich Offset Enable
ICHOFFSET	QUANT	0	Ich Offset (V)
ICHFILTER	IQUANT	3	Ich Filter
VCHRANGE	IQUANT	2	Vch Range
VCHRANGEMODE	TOGGLE	F	Vch Auto Range
VCHOFFSETENABLE	TOGGLE	T	Vch Offset Enable
VCHOFFSET	QUANT	0	Vch Offset (V)
VCHFILTER	IQUANT	3	Vch Filter
ACHRANGE	IQUANT	2	Ach Range
ACHOFFSETENABLE	TOGGLE	F	Ach Offset Enable
ACHOFFSET	QUANT	0	Ach Offset (V)
ACHFILTER	IQUANT	3	Ach Filter
IERANGELOWERLIMIT	IQUANT	1	I/E Range Lower Limit
IERANGEMODE	TOGGLE	F	I/E AutoRange
IERANGE	IQUANT	7	I/E Range
POSFEEDENABLE	TOGGLE	F	Positive Feedback IR Comp
POSFEEDRESISTANCE	QUANT	0	Positive Feedback Resistance (ohm)
ACHSELECT	IQUANT	0	Ach Select
CABLEID	IQUANT	14	Cable ID
DCCALDATE	LABEL	6/8/2020	DC Calibration Date
ACCALDATE	LABEL	6/8/2020	AC Calibration Date
THERMOSELECT	IQUANT	1	Thermo Select
FRAMEWORKVERSION	QUANT	6.33	Framework Version
INSTRUMENTVERSION	LABEL	3.50	Instrument Version
ZCURVE	TABLE
	Pt	Time	Freq	Zreal	Zimag	Zsig	Zmod	Zphz	Idc	Vdc	IERange
	#	s	Hz	ohm	ohm	V	ohm	°	A	V	#
	0	2	1000078	1958.248	-2299.57	1	3020.39	-49.58323	5.738557E-008	0.0172126	8
	1	3	794390.6	2351.651	-2519.252	1	3446.287	-46.9707	5.386817E-008	0.016965	8
	2	3	630984.4	2787.044	-2706.029	1	3884.611	-44.15503	4.828138E-008	0.0168087	8
	3	3	501234.4	3250.32	-2854.091	1	4325.554	-41.28622	7.865602E-008	0.0167374	8
	4	4	398109.4	3728.659	-2979.406	1	4772.815	-38.6268	6.496162E-008	0.016675	8
	5	4	316265.6	4211.133	-3067.507	1	5209.917	-36.07064	1.278196E-007	0.0167122	8
	6	4	251203.1	4690.317	-3143.911	1	5646.526	-33.83388	1.295054E-007	0.0167328	8
	7	5	199546.9	5166.34	-3223.236	1	6089.361	-31.95969	6.264397E-008	0.0167217	8
	8	5	158578.1	5641.547	-3293.578	1	6532.588	-30.27671	8.228851E-008	0.0167553	8
	9	5	125953.1	6220.936	-3243.234	1	7015.598	-27.53492	3.925205E-008	0.0167908	7
	10	6	100078.1	6690.323	-3332.864	1	7474.517	-26.48073	1.449565E-008	0.0167433	7
	11	6	79453.13	7148.716	-3429.89	1	7928.953	-25.63128	2.761302E-009	0.0167067	7
	12	6	63140.62	7614.511	-3572.55	1	8410.939	-25.13487	-3.784974E-009	0.0166908	7
	13	7	50203.12	8094.892	-3720.984	1	8909.152	-24.68686	1.215159E-008	0.0166823	7
	14	7	39890.62	8607.11	-3897.809	1	9448.559	-24.36383	1.742369E-009	0.0166698	7
	15	7	31640.63	9128.967	-4068.839	1	9994.67	-24.02284	1.55942E-008	0.0166594	7
	16	7	25171.88	9698.44	-4286.818	1	10603.61	-23.84596	1.171089E-008	0.0166719	7
	17	8	20015.62	10290.96	-4521.426	1	11240.42	-23.71872	1.524728E-008	0.0166712	7
	18	8	15890.62	10914.68	-4766.875	1	11910.22	-23.59281	1.573482E-008	0.0166739	7
	19	8	12609.37	11570.07	-5029.945	1	12616.14	-23.4964	1.156239E-008	0.0166732	7
	20	9	10078.13	12238.21	-5316.545	1	13343.15	-23.48117	-1.526896E-009	0.0166699	7
	21	9	8015.625	12952.42	-5644.212	1	14128.78	-23.54589	-1.886324E-009	0.0166666	7
	22	9	6328.125	13701.38	-5990.903	1	14953.88	-23.61727	2.483367E-010	0.0166676	7
	23	10	5015.625	14492.54	-6417.719	1	15849.94	-23.88516	-1.542549E-009	0.0166663	7
	24	10	3984.375	15257.21	-6853.706	1	16725.9	-24.19014	-5.546214E-009	0.0166516	7
	25	10	3170.956	16113.36	-7374.037	1	17720.52	-24.59049	1.263277E-008	0.0166756	7
	26	11	2527.573	17017.62	-8019.401	1	18812.5	-25.23174	1.018554E-008	0.0166741	7
	27	11	1976.103	18026.24	-8769.999	1	20046.4	-25.94352	1.537841E-008	0.0166761	7
	28	11	1577.524	19049.17	-9633.14	1	21346.38	-26.82567	-4.002437E-009	0.0166592	7
	29	12	1265.625	20121.81	-10598.74	1	22742.48	-27.77707	-2.117795E-009	0.0166628	7
	30	12	998.264	21395	-11794.38	1	24430.59	-28.86655	-3.707424E-009	0.0166613	7
	31	12	796.875	22728.28	-13047.28	1	26206.98	-29.8582	3.716267E-011	0.0166599	7
	32	13	627.7902	24388.79	-14685.55	1	28468.9	-31.05398	-4.657179E-009	0.0166666	7
	33	13	505.5147	25921.11	-16179.85	1	30556.37	-31.97223	9.507213E-009	0.0166549	7
	34	13	397.9953	28048.93	-18260.01	1	33468.94	-33.06435	6.950176E-009	0.0166907	7
	35	13	315.5048	30260.78	-20427.53	1	36510.26	-34.0213	6.986129E-009	0.0166866	7
	36	14	252.4038	32586.85	-22731.01	1	39731.62	-34.89777	9.261053E-010	0.0166851	6
	37	14	198.6229	35280.83	-25568.77	1	43571.77	-35.93164	4.908834E-010	0.0166849	6
	38	14	158.3615	38025.17	-28653.8	1	47612.54	-36.99979	1.261153E-009	0.0166827	6
	39	15	125.558	41096.64	-32366.91	1	52312.05	-38.22328	5.525975E-010	0.0166763	6
	40	15	100.4464	44340.94	-36568.35	1	57474.89	-39.51269	5.663747E-010	0.0166846	6
	41	15	79.00281	48276.89	-41930.23	1	63943.75	-40.97549	9.804049E-010	0.0166791	6
	42	16	63.3446	52353.71	-47671.21	1	70805.76	-42.31975	2.992833E-010	0.0166617	6
	43	16	49.86702	57619.62	-55104.01	1	79727.49	-43.72157	1.07861E-009	0.0166767	6
	44	17	39.72458	63404.26	-63263	1	89567.34	-44.9361	-1.955363E-009	0.016681	6
	45	17	31.6723	70118.55	-72564.95	1	100907.3	-45.98227	1.348679E-010	0.0166794	6
	46	17	24.93351	78407.3	-83829.79	1	114783	-46.9143	2.658061E-009	0.0166824	6
	47	17	19.86229	87656.49	-96477.9	1	130352	-47.74281	-9.883696E-009	0.0081092	6
	48	18	15.83615	98416.5	-110442	1	147929.8	-48.2953	-7.570121E-009	0.0081029	6
	49	18	12.40079	111674.4	-127617.8	1	169580.3	-48.81184	-6.17932E-009	0.0081076	6
	50	19	9.93114	125848	-145273.2	1	192203.1	-49.0981	-5.139347E-009	0.0081115	6
	51	19	7.944915	142280.1	-165141.8	1	217980.4	-49.25303	-4.481308E-009	0.0081088	6
	52	19	6.317385	161549.8	-187569.8	1	247549.5	-49.26238	-2.527308E-009	0.0081101	6
	53	20	5.008013	183833.9	-213025	1	281379.7	-49.20683	-1.804828E-009	0.0081085	6
	54	21	3.945707	209354.8	-241986.8	1	319979.8	-49.13528	-1.231156E-009	0.0081048	6
	55	22	3.158693	235476.3	-272278.2	1	359978.5	-49.14553	-8.95559E-010	0.008107	6
	56	24	2.504006	265343.1	-307667.2	1	406283.2	-49.22436	-1.115192E-009	0.0081122	5
	57	25	1.998082	295791.2	-347486.8	1	456332.7	-49.59458	-9.188373E-010	0.0081137	5
	58	27	1.584686	329700.9	-395928.3	1	515230	-50.21488	-6.305357E-010	0.0081142	5
	59	30	1.266892	365223.2	-451332.7	1	580593.8	-51.01984	-4.834807E-010	0.0081151	5
	60	33	0.999041	406806	-521829.8	1	661662.7	-52.06087	-5.179039E-010	0.0081174	5
