EXPLAIN
TAG	EISPOT
TITLE	LABEL	Potentiostatic EIS	Test &Identifier
DATE	LABEL	7/30/2020	Date
TIME	LABEL	22:27:03	Time
NOTES	NOTES	1	&Notes...
	
PSTAT	PSTAT	REF600-11020	Potentiostat
VDC	POTEN	0.00000E+000	T	DC &Voltage (V)
FREQINIT	QUANT	1.00000E+006	Initial Fre&q. (Hz)
FREQFINAL	QUANT	1.00000E+000	Final Fre&q. (Hz)
PTSPERDEC	QUANT	1.00000E+001	Points/&decade
VAC	QUANT	2.50000E+001	AC &Voltage (mV rms)
AREA	QUANT	4.00000E-005	&Area (cm^2)
CONDIT	TWOPARAM	F	5.00000E+000	0.00000E+000	Conditionin&g	Time(s)	E(V)
DELAY	TWOPARAM	F	3.00000E+000	0.00000E+000	Init. De&lay	Time(s)	Stab.(mV/s)
SPEED	SELECTOR	0	&Optimize for:
ZGUESS	QUANT	1.00000E+003	E&stimated Z (ohms)
OCVCURVE	TABLE	39
	Pt	T	Vf	Vm	Ach	Over
	#	s	V vs. Ref.	V	V	bits
	0	0.258333	-2.24923E-002	-2.24923E-002	5.44416E-004	...........
	1	0.516667	-2.24921E-002	-2.24792E-002	5.43450E-004	...........
	2	0.775	-2.24907E-002	-2.24755E-002	5.39150E-004	...........
	3	1.03333	-2.24876E-002	-2.24849E-002	5.40483E-004	...........
	4	1.29167	-2.24844E-002	-2.25008E-002	5.38083E-004	...........
	5	1.55	-2.24845E-002	-2.25212E-002	5.45583E-004	...........
	6	1.80833	-2.24906E-002	-2.25423E-002	5.41516E-004	...........
	7	2.06667	-2.25031E-002	-2.25644E-002	5.40916E-004	...........
	8	2.325	-2.25203E-002	-2.25783E-002	5.43316E-004	...........
	9	2.58333	-2.25394E-002	-2.25798E-002	5.42683E-004	...........
	10	2.84167	-2.25566E-002	-2.25684E-002	5.44650E-004	...........
	11	3.1	-2.25679E-002	-2.25552E-002	5.48183E-004	...........
	12	3.35833	-2.25709E-002	-2.25369E-002	5.44683E-004	...........
	13	3.61667	-2.25656E-002	-2.25179E-002	5.39916E-004	...........
	14	3.875	-2.25538E-002	-2.25000E-002	5.42616E-004	...........
	15	4.13333	-2.25380E-002	-2.24860E-002	5.40316E-004	...........
	16	4.39167	-2.25208E-002	-2.24746E-002	5.37783E-004	...........
	17	4.65	-2.25042E-002	-2.24668E-002	5.38316E-004	...........
	18	4.90833	-2.24897E-002	-2.24619E-002	5.50450E-004	...........
	19	5.16667	-2.24782E-002	-2.24616E-002	5.44850E-004	...........
	20	5.425	-2.24700E-002	-2.24654E-002	5.43983E-004	...........
	21	5.68333	-2.24654E-002	-2.24671E-002	5.41650E-004	...........
	22	5.94167	-2.24639E-002	-2.24672E-002	5.37850E-004	...........
	23	6.2	-2.24643E-002	-2.24619E-002	5.42116E-004	...........
	24	6.45833	-2.24650E-002	-2.24592E-002	5.43383E-004	...........
	25	6.71667	-2.24642E-002	-2.24450E-002	5.45016E-004	...........
	26	6.975	-2.24611E-002	-2.24361E-002	5.41516E-004	...........
	27	7.23333	-2.24551E-002	-2.24284E-002	5.41650E-004	...........
	28	7.49167	-2.24470E-002	-2.24183E-002	5.40350E-004	...........
	29	7.75	-2.24380E-002	-2.24133E-002	5.44116E-004	...........
	30	8.00833	-2.24292E-002	-2.24114E-002	5.40550E-004	...........
	31	8.26667	-2.24217E-002	-2.24153E-002	5.41116E-004	...........
	32	8.525	-2.24168E-002	-2.24195E-002	5.40483E-004	...........
	33	8.78333	-2.24149E-002	-2.24230E-002	5.37150E-004	...........
	34	9.04167	-2.24159E-002	-2.24270E-002	5.38716E-004	...........
	35	9.3	-2.24188E-002	-2.24316E-002	5.42116E-004	...........
	36	9.5583	-2.24227E-002	-2.24402E-002	5.43250E-004	...........
	37	9.8167	-2.24274E-002	-2.24492E-002	5.34283E-004	...........
	38	10.075	-2.24332E-002	-2.24532E-002	5.42450E-004	...........
EOC	QUANT	-0.0224332	Open Circuit (V)
PSTATMODEL	IQUANT	4	Pstat Model
PSTATSECTION	LABEL	REF600-11020	Pstat Section
PSTATSERIALNO	LABEL	11020	Pstat Serial Number
CTRLMODE	IQUANT	1	Control Mode
IESTAB	IQUANT	0	I/E Stability
CASPEED	IQUANT	1	Control Amp Speed
CONVENTION	IQUANT	1	Current Convention
ICHRANGE	IQUANT	2	Ich Range
ICHRANGEMODE	TOGGLE	F	Ich Auto Range
ICHOFFSETENABLE	TOGGLE	T	Ich Offset Enable
ICHOFFSET	QUANT	0	Ich Offset (V)
ICHFILTER	IQUANT	3	Ich Filter
VCHRANGE	IQUANT	2	Vch Range
VCHRANGEMODE	TOGGLE	F	Vch Auto Range
VCHOFFSETENABLE	TOGGLE	T	Vch Offset Enable
VCHOFFSET	QUANT	0	Vch Offset (V)
VCHFILTER	IQUANT	3	Vch Filter
ACHRANGE	IQUANT	2	Ach Range
ACHOFFSETENABLE	TOGGLE	F	Ach Offset Enable
ACHOFFSET	QUANT	0	Ach Offset (V)
ACHFILTER	IQUANT	3	Ach Filter
IERANGELOWERLIMIT	IQUANT	1	I/E Range Lower Limit
IERANGEMODE	TOGGLE	F	I/E AutoRange
IERANGE	IQUANT	7	I/E Range
POSFEEDENABLE	TOGGLE	F	Positive Feedback IR Comp
POSFEEDRESISTANCE	QUANT	0	Positive Feedback Resistance (ohm)
ACHSELECT	IQUANT	0	Ach Select
CABLEID	IQUANT	14	Cable ID
DCCALDATE	LABEL	6/26/2020	DC Calibration Date
ACCALDATE	LABEL	6/26/2020	AC Calibration Date
THERMOSELECT	IQUANT	1	Thermo Select
FRAMEWORKVERSION	QUANT	6.33	Framework Version
INSTRUMENTVERSION	LABEL	3.50	Instrument Version
ZCURVE	TABLE
	Pt	Time	Freq	Zreal	Zimag	Zsig	Zmod	Zphz	Idc	Vdc	IERange
	#	s	Hz	ohm	ohm	V	ohm	°	A	V	#
	0	1	1000078	1376.145	-1090	1	1755.527	-38.38162	1.614906E-008	-0.0202496	8
	1	1	794390.6	1492.406	-1171.656	1	1897.381	-38.1347	8.443536E-009	-0.0205326	8
	2	1	630984.4	1601.555	-1278.783	1	2049.454	-38.60609	5.654985E-009	-0.0206983	8
	3	2	501234.4	1710.874	-1414.764	1	2220.055	-39.5882	1.120786E-008	-0.0207557	8
	4	2	398109.4	1825.981	-1595.445	1	2424.799	-41.14523	-3.532668E-009	-0.0208211	8
	5	2	316265.6	1941.76	-1826.542	1	2665.837	-43.24869	2.958871E-009	-0.0208472	8
	6	3	251203.1	2076.744	-2115.026	1	2964.152	-45.52324	8.31451E-009	-0.0208659	8
	7	3	199546.9	2221.556	-2473.021	1	3324.326	-48.06612	3.301492E-009	-0.0208616	8
	8	3	158578.1	2400.569	-2920.008	1	3780.103	-50.57601	-8.712666E-009	-0.0208565	8
	9	3	125953.1	2640.755	-3461.556	1	4353.844	-52.66068	-4.420799E-009	-0.0208625	7
	10	4	100078.1	2911.735	-4133.344	1	5055.96	-54.83721	-3.04805E-009	-0.0208816	7
	11	4	79453.13	3254.102	-4960.558	1	5932.648	-56.73532	-3.541873E-009	-0.02089	7
	12	4	63140.62	3709.639	-5957.637	1	7018.181	-58.09074	-5.355155E-009	-0.0208965	7
	13	5	50203.12	4316.622	-7153.836	1	8355.273	-58.89323	-3.494582E-009	-0.0208921	7
	14	5	39890.62	5157.42	-8546.119	1	9981.74	-58.88982	-3.636004E-009	-0.0208914	7
	15	5	31640.63	6342.444	-10145.15	1	11964.55	-57.9876	-4.734436E-009	-0.0208969	7
	16	6	25171.88	7903.114	-11855.05	1	14247.86	-56.31079	-4.983378E-009	-0.020901	7
	17	6	20015.62	9999.81	-13614.29	1	16892.16	-53.70239	-4.342039E-009	-0.0209103	7
	18	6	15890.62	12656.15	-15198.35	1	19777.96	-50.21478	-6.212607E-009	-0.020909	7
	19	6	12609.37	15945.23	-16411.17	1	22881.8	-45.82501	1.030249E-010	-0.0209069	6
	20	7	10078.13	19395.42	-17085.43	1	25847.52	-41.37682	1.624187E-010	-0.0209092	6
	21	7	8015.625	23047.57	-17073.74	1	28682.8	-36.5312	4.196507E-010	-0.0209074	6
	22	7	6328.125	26608.96	-16328.81	1	31219.66	-31.53571	4.037091E-010	-0.02091	6
	23	8	5015.625	29716.61	-15143.69	1	33352.79	-27.00356	2.638466E-010	-0.0209072	6
	24	8	3984.375	32215.2	-13624.67	1	34977.86	-22.92481	2.214982E-010	-0.0209141	6
	25	8	3170.956	34135.74	-12029.37	1	36193.29	-19.41237	5.806072E-010	-0.0209115	6
	26	9	2527.573	35613.55	-10561.7	1	37146.66	-16.51846	3.413577E-010	-0.0209172	6
	27	9	1976.103	36834.27	-9197.208	1	37965.14	-14.01961	2.232162E-010	-0.0209175	6
	28	9	1577.524	37579.33	-8143.938	1	38451.66	-12.22767	-9.466594E-012	-0.0209179	6
	29	10	1265.625	38265.75	-7407.116	1	38976.05	-10.95528	-2.188735E-010	-0.0209266	6
	30	10	998.264	38678.71	-6804.065	1	39272.61	-9.97696	6.616464E-011	-0.0209224	6
	31	10	796.875	39069.78	-6534.41	1	39612.45	-9.494823	2.625936E-010	-0.0209205	6
	32	10	627.7902	39458.3	-6512.347	1	39992.11	-9.371825	3.161943E-010	-0.0209283	6
	33	11	505.5147	39741.7	-6684.554	1	40299.95	-9.54778	-1.083886E-010	-0.0209311	6
	34	11	397.9953	40135.07	-7212.548	1	40777.99	-10.18771	2.049659E-010	-0.0209008	6
	35	11	315.5048	40568.86	-7985.119	1	41347.24	-11.13512	2.579056E-010	-0.0208984	6
	36	12	252.4038	40969.48	-9021.015	1	41950.89	-12.41773	1.907488E-010	-0.0209015	6
	37	12	198.6229	41624.09	-10501.19	1	42928.31	-14.15947	1.221841E-010	-0.0209041	6
	38	12	158.3615	42383.27	-12284.57	1	44127.68	-16.16396	1.753923E-011	-0.0209049	6
	39	13	125.558	43171.76	-14556.84	1	45559.88	-18.6333	-2.134942E-010	-0.0209028	6
	40	13	100.4464	44341.11	-17213.7	1	47565.17	-21.21675	1.059403E-010	-0.0209032	6
	41	13	79.00281	45973.94	-20644.02	1	50396.22	-24.18186	-1.568934E-010	-0.0209065	6
	42	14	63.3446	48950.18	-24318.8	1	54658.25	-26.41852	4.802648E-010	-0.0209063	6
	43	14	49.86702	51663.74	-28961.35	1	59227.55	-29.27386	-2.501429E-010	-0.0209074	6
	44	14	39.72458	54821.25	-33978.73	1	64497.47	-31.79103	1.005671E-009	-0.0209043	6
	45	15	31.6723	58881.26	-39525.84	1	70917.52	-33.87269	8.400852E-010	-0.0208996	6
	46	15	24.93351	64119.19	-46016.82	1	78922.86	-35.6661	-7.496409E-010	-0.0209033	6
	47	15	19.86229	69915.16	-52706.01	1	87556	-37.01105	2.177498E-009	-0.0208968	6
	48	15	15.83615	76971.08	-59544.1	1	97314.2	-37.7252	-2.514876E-009	-0.020914	5
	49	16	12.40079	85250.87	-67571.66	1	108782.5	-38.4011	-2.409039E-009	-0.0209095	5
	50	16	9.93114	93771.99	-75452.51	1	120358.9	-38.82148	9.610334E-010	-0.020914	5
	51	16	7.944915	103003.9	-83904.66	1	132852.5	-39.1655	-4.514574E-010	-0.0209121	5
	52	17	6.317385	113314.4	-93319.09	1	146794.5	-39.47286	7.540613E-010	-0.0209262	5
	53	18	5.008013	123731.1	-104140.3	1	161723.8	-40.0862	6.132944E-010	-0.020923	5
	54	18	3.945707	135356.1	-116880	1	178835.7	-40.81061	-1.775477E-010	-0.0209223	5
	55	19	3.158693	147162.6	-130668.5	1	196802.2	-41.60249	2.110983E-010	-0.0209339	5
	56	20	2.504006	160482.6	-148178.1	1	218429.4	-42.71716	5.807993E-010	-0.0209311	5
	57	22	1.998082	174319.3	-168407.5	1	242380.5	-44.01178	2.840781E-010	-0.0209428	5
	58	23	1.584686	191362.7	-193719.5	1	272299.3	-45.35065	8.81766E-011	-0.0209815	5
	59	25	1.266892	210469.2	-223433.8	1	306952.7	-46.71144	1.085409E-010	-0.0209745	5
	60	28	0.999041	234441.4	-260256.8	1	350280.4	-47.98723	1.128984E-010	-0.0209552	5
