EXPLAIN
TAG	EISPOT
TITLE	LABEL	Potentiostatic EIS	Test &Identifier
DATE	LABEL	9/11/2020	Date
TIME	LABEL	20:15:53	Time
NOTES	NOTES	1	&Notes...
	
PSTAT	PSTAT	REF600-11020	Potentiostat
VDC	POTEN	0.00000E+000	T	DC &Voltage (V)
FREQINIT	QUANT	1.00000E+006	Initial Fre&q. (Hz)
FREQFINAL	QUANT	1.00000E+000	Final Fre&q. (Hz)
PTSPERDEC	QUANT	1.00000E+001	Points/&decade
VAC	QUANT	2.50000E+001	AC &Voltage (mV rms)
AREA	QUANT	4.00000E-005	&Area (cm^2)
CONDIT	TWOPARAM	F	5.00000E+000	0.00000E+000	Conditionin&g	Time(s)	E(V)
DELAY	TWOPARAM	F	3.00000E+000	0.00000E+000	Init. De&lay	Time(s)	Stab.(mV/s)
SPEED	SELECTOR	0	&Optimize for:
ZGUESS	QUANT	1.00000E+003	E&stimated Z (ohms)
OCVCURVE	TABLE	39
	Pt	T	Vf	Vm	Ach	Over
	#	s	V vs. Ref.	V	V	bits
	0	0.258333	-9.85588E-002	-9.85588E-002	5.47059E-004	...........
	1	0.516667	-9.85586E-002	-9.85478E-002	5.45959E-004	...........
	2	0.775	-9.85573E-002	-9.85358E-002	5.44192E-004	...........
	3	1.03333	-9.85534E-002	-9.85239E-002	5.41426E-004	...........
	4	1.29167	-9.85463E-002	-9.85106E-002	5.49125E-004	...........
	5	1.55	-9.85364E-002	-9.85011E-002	5.50592E-004	...........
	6	1.80833	-9.85250E-002	-9.84900E-002	5.46825E-004	...........
	7	2.06667	-9.85133E-002	-9.84805E-002	5.49159E-004	...........
	8	2.325	-9.85021E-002	-9.84707E-002	5.46225E-004	...........
	9	2.58333	-9.84914E-002	-9.84604E-002	5.47459E-004	...........
	10	2.84167	-9.84813E-002	-9.84517E-002	5.46392E-004	...........
	11	3.1	-9.84715E-002	-9.84469E-002	5.45659E-004	...........
	12	3.35833	-9.84624E-002	-9.84406E-002	5.42559E-004	...........
	13	3.61667	-9.84543E-002	-9.84358E-002	5.43292E-004	...........
	14	3.875	-9.84475E-002	-9.84328E-002	5.45592E-004	...........
	15	4.13333	-9.84417E-002	-9.84238E-002	5.50625E-004	...........
	16	4.39167	-9.84365E-002	-9.84215E-002	5.48925E-004	...........
	17	4.65	-9.84313E-002	-9.84159E-002	5.49092E-004	...........
	18	4.90833	-9.84262E-002	-9.84088E-002	5.48192E-004	...........
	19	5.16667	-9.84210E-002	-9.84051E-002	5.53325E-004	...........
	20	5.425	-9.84158E-002	-9.84032E-002	5.53592E-004	...........
	21	5.68333	-9.84109E-002	-9.83998E-002	5.51225E-004	...........
	22	5.94167	-9.84066E-002	-9.83941E-002	5.49592E-004	...........
	23	6.2	-9.84028E-002	-9.83923E-002	5.52392E-004	...........
	24	6.45833	-9.83992E-002	-9.83890E-002	5.54059E-004	...........
	25	6.71667	-9.83958E-002	-9.83882E-002	5.49292E-004	...........
	26	6.975	-9.83926E-002	-9.83839E-002	5.48092E-004	...........
	27	7.23333	-9.83899E-002	-9.83819E-002	5.49425E-004	...........
	28	7.49167	-9.83872E-002	-9.83781E-002	5.47659E-004	...........
	29	7.75	-9.83844E-002	-9.83702E-002	5.48125E-004	...........
	30	8.00833	-9.83811E-002	-9.83695E-002	5.55159E-004	...........
	31	8.26667	-9.83772E-002	-9.83660E-002	5.54592E-004	...........
	32	8.525	-9.83732E-002	-9.83659E-002	5.54559E-004	...........
	33	8.78333	-9.83698E-002	-9.83615E-002	5.49692E-004	...........
	34	9.04167	-9.83672E-002	-9.83631E-002	5.50459E-004	...........
	35	9.3	-9.83651E-002	-9.83630E-002	5.54359E-004	...........
	36	9.5583	-9.83636E-002	-9.83574E-002	5.51159E-004	...........
	37	9.8167	-9.83623E-002	-9.83531E-002	5.57492E-004	...........
	38	10.075	-9.83605E-002	-9.83530E-002	5.58525E-004	...........
EOC	QUANT	-0.0983605	Open Circuit (V)
PSTATMODEL	IQUANT	4	Pstat Model
PSTATSECTION	LABEL	REF600-11020	Pstat Section
PSTATSERIALNO	LABEL	11020	Pstat Serial Number
CTRLMODE	IQUANT	1	Control Mode
IESTAB	IQUANT	0	I/E Stability
CASPEED	IQUANT	1	Control Amp Speed
CONVENTION	IQUANT	1	Current Convention
ICHRANGE	IQUANT	2	Ich Range
ICHRANGEMODE	TOGGLE	F	Ich Auto Range
ICHOFFSETENABLE	TOGGLE	T	Ich Offset Enable
ICHOFFSET	QUANT	0	Ich Offset (V)
ICHFILTER	IQUANT	3	Ich Filter
VCHRANGE	IQUANT	2	Vch Range
VCHRANGEMODE	TOGGLE	F	Vch Auto Range
VCHOFFSETENABLE	TOGGLE	T	Vch Offset Enable
VCHOFFSET	QUANT	0	Vch Offset (V)
VCHFILTER	IQUANT	3	Vch Filter
ACHRANGE	IQUANT	2	Ach Range
ACHOFFSETENABLE	TOGGLE	F	Ach Offset Enable
ACHOFFSET	QUANT	0	Ach Offset (V)
ACHFILTER	IQUANT	3	Ach Filter
IERANGELOWERLIMIT	IQUANT	1	I/E Range Lower Limit
IERANGEMODE	TOGGLE	F	I/E AutoRange
IERANGE	IQUANT	8	I/E Range
POSFEEDENABLE	TOGGLE	F	Positive Feedback IR Comp
POSFEEDRESISTANCE	QUANT	0	Positive Feedback Resistance (ohm)
ACHSELECT	IQUANT	0	Ach Select
CABLEID	IQUANT	14	Cable ID
DCCALDATE	LABEL	9/1/2020	DC Calibration Date
ACCALDATE	LABEL	9/1/2020	AC Calibration Date
THERMOSELECT	IQUANT	1	Thermo Select
FRAMEWORKVERSION	QUANT	6.33	Framework Version
INSTRUMENTVERSION	LABEL	3.50	Instrument Version
ZCURVE	TABLE
	Pt	Time	Freq	Zreal	Zimag	Zsig	Zmod	Zphz	Idc	Vdc	IERange
	#	s	Hz	ohm	ohm	V	ohm	°	A	V	#
	0	1	1000078	1308.753	-6181.518	1	6318.543	-78.04585	7.999851E-008	-0.0960802	8
	1	1	794390.6	1641.85	-7596.17	1	7771.582	-77.8036	1.47277E-007	-0.0963942	8
	2	2	630984.4	2058.626	-9306.013	1	9530.99	-77.52622	5.021712E-008	-0.0965975	8
	3	2	501234.4	2658.92	-11366.74	1	11673.59	-76.83405	1.290779E-007	-0.096663	8
	4	2	398109.4	3305.738	-13878.02	1	14266.3	-76.60184	4.837711E-008	-0.0967517	8
	5	3	316265.6	4252.933	-16888.67	1	17415.93	-75.86557	7.534418E-008	-0.0967746	8
	6	3	251203.1	5522.285	-20519.65	1	21249.75	-74.93733	6.595086E-008	-0.0968028	8
	7	3	199546.9	7152.358	-24823	1	25832.88	-73.92649	5.79194E-008	-0.0968091	8
	8	4	158578.1	9276.271	-29934.46	1	31338.81	-72.78252	7.86212E-008	-0.0968009	8
	9	4	125953.1	12192.6	-36015.72	1	38023.57	-71.29721	3.623869E-009	-0.0968088	7
	10	4	100078.1	15797.94	-42857.5	1	45676.47	-69.76534	2.883532E-009	-0.0968113	7
	11	5	79453.13	20171.57	-50929.06	1	54778.3	-68.39288	4.558759E-009	-0.0968192	7
	12	5	63140.62	25693.9	-60075.16	1	65339.13	-66.8438	4.625799E-009	-0.0968277	7
	13	5	50203.12	32479.87	-70267.3	1	77410.83	-65.19206	3.579014E-009	-0.0968272	7
	14	6	39890.62	40828.83	-81889.68	1	91503.63	-63.49992	1.630904E-009	-0.0968426	7
	15	6	31640.63	50663.73	-94993.25	1	107659.3	-61.9272	4.837622E-009	-0.0968319	7
	16	6	25171.88	62631.3	-109167.7	1	125858.1	-60.15641	2.503493E-009	-0.0968441	7
	17	7	20015.62	76252.66	-125081.7	1	146492	-58.63256	5.357475E-009	-0.096832	7
	18	7	15890.62	92633.18	-142402.3	1	169880.3	-56.95587	2.995809E-009	-0.0968432	7
	19	7	12609.37	113743.4	-161228.7	1	197312.6	-54.79784	1.014842E-009	-0.0968355	6
	20	7	10078.13	135550.2	-180907.2	1	226055.9	-53.15649	9.302536E-010	-0.0968409	6
	21	8	8015.625	161360	-202422.1	1	258866.3	-51.44003	7.606535E-010	-0.0968471	6
	22	8	6328.125	192235.4	-226139.8	1	296805.7	-49.63303	9.345356E-010	-0.0968476	6
	23	8	5015.625	227377.9	-249821.9	1	337804.2	-47.69279	8.867324E-010	-0.0968454	6
	24	9	3984.375	267179.1	-273232.8	1	382152.9	-45.6418	8.768252E-010	-0.0968467	6
	25	9	3170.956	311517.4	-295027.5	1	429050.4	-43.4427	6.975684E-010	-0.0968468	6
	26	9	2527.573	359912.3	-316378	1	479199.2	-41.31683	8.984377E-010	-0.0968503	6
	27	10	1976.103	416756.1	-334088.9	1	534135.8	-38.7171	4.219078E-010	-0.096852	6
	28	10	1577.524	472099.1	-348262.4	1	586655.1	-36.41579	3.635096E-010	-0.0968564	6
	29	10	1265.625	537921.1	-351872.1	1	642785.4	-33.19004	7.599576E-011	-0.0968659	5
	30	11	998.264	597984.3	-359681.3	1	697822.3	-31.02647	2.82349E-011	-0.0968674	5
	31	11	796.875	655293.9	-363895.2	1	749553.1	-29.04412	2.774387E-011	-0.0968666	5
	32	11	627.7902	715171.9	-365805.2	1	803295.9	-27.08941	2.238585E-011	-0.0968671	5
	33	12	505.5147	767805.5	-365977.2	1	850567.2	-25.48497	4.232874E-011	-0.096874	5
	34	12	397.9953	824814.1	-365270.7	1	902075.9	-23.88626	4.247881E-011	-0.0968546	5
	35	12	315.5048	878314.3	-364557.4	1	950967	-22.54162	5.817704E-011	-0.0968581	5
	36	13	252.4038	928313.3	-364564.6	1	997333	-21.44079	3.855382E-011	-0.0968628	5
	37	13	198.6229	981094	-366002.9	1	1047141	-20.45832	2.469199E-011	-0.0968584	5
	38	13	158.3615	1030438	-369099.3	1	1094549	-19.70734	6.71895E-011	-0.0968606	5
	39	14	125.558	1094809	-360767.1	1	1152718	-18.23835	1.109189E-011	-0.096855	4
	40	14	100.4464	1141920	-369356.3	1	1200169	-17.9239	-1.428179E-011	-0.096856	4
	41	14	79.00281	1194301	-380866.3	1	1253561	-17.68764	-3.713891E-011	-0.0968581	4
	42	15	63.3446	1244055	-393494.3	1	1304803	-17.55215	-4.158167E-011	-0.0968604	4
	43	15	49.86702	1299944	-409249	1	1362842	-17.47507	-4.51246E-011	-0.0968625	4
	44	15	39.72458	1355084	-426333.3	1	1420568	-17.46449	-1.040721E-010	-0.0968555	4
	45	16	31.6723	1412792	-444815.6	1	1481163	-17.47653	-1.171045E-010	-0.0968608	4
	46	16	24.93351	1474618	-466832.5	1	1546749	-17.56667	8.377638E-011	-0.0968613	4
	47	16	19.86229	1535729	-491728	1	1612532	-17.75465	9.001721E-011	-0.0968557	4
	48	16	15.83615	1600106	-519040.8	1	1682184	-17.97198	2.181141E-011	-0.0968617	4
	49	17	12.40079	1670031	-550237.9	1	1758342	-18.2359	2.855768E-010	-0.0968678	4
	50	17	9.93114	1738318	-590773.4	1	1835964	-18.7705	2.382494E-010	-0.0968523	4
	51	17	7.944915	1809493	-630142.3	1	1916075	-19.20029	-1.941219E-010	-0.0968567	4
	52	18	6.317385	1892259	-679521.8	1	2010570	-19.75353	8.011505E-011	-0.0968731	4
	53	19	5.008013	1979798	-734059	1	2111503	-20.3435	7.246703E-011	-0.0968639	4
	54	20	3.945707	2073181	-803287.8	1	2223365	-21.17967	-1.098947E-010	-0.0968639	4
	55	20	3.158693	2166826	-870497.5	1	2335145	-21.88723	3.775331E-011	-0.0968739	4
	56	21	2.504006	2272877	-957117	1	2466180	-22.83613	7.756434E-011	-0.0968653	4
	57	23	1.998082	2380464	-1048260	1	2601050	-23.76675	-2.677288E-011	-0.0969061	4
	58	24	1.584686	2506852	-1164609	1	2764168	-24.91818	-6.233534E-011	-0.0969077	4
	59	26	1.266892	2631911	-1292399	1	2932106	-26.15333	-3.584871E-011	-0.0968706	4
	60	29	0.999041	2779750	-1443696	1	3132294	-27.44564	-8.183683E-012	-0.0968434	4
