EXPLAIN
TAG	EISPOT
TITLE	LABEL	Potentiostatic EIS	Test &Identifier
DATE	LABEL	3/19/2020	Date
TIME	LABEL	20:56:47	Time
NOTES	NOTES	1	&Notes...
	
PSTAT	PSTAT	REF600-11020	Potentiostat
VDC	POTEN	0.00000E+000	T	DC &Voltage (V)
FREQINIT	QUANT	1.00000E+006	Initial Fre&q. (Hz)
FREQFINAL	QUANT	1.00000E+000	Final Fre&q. (Hz)
PTSPERDEC	QUANT	1.00000E+001	Points/&decade
VAC	QUANT	2.50000E+001	AC &Voltage (mV rms)
AREA	QUANT	4.00000E-004	&Area (cm^2)
CONDIT	TWOPARAM	F	5.00000E+000	0.00000E+000	Conditionin&g	Time(s)	E(V)
DELAY	TWOPARAM	T	3.00000E+000	0.00000E+000	Init. De&lay	Time(s)	Stab.(mV/s)
SPEED	SELECTOR	0	&Optimize for:
ZGUESS	QUANT	1.00000E+003	E&stimated Z (ohms)
OCVCURVE	TABLE	12
	Pt	T	Vf	Vm	Ach	Over
	#	s	V vs. Ref.	V	V	bits
	0	0.258333	9.95881E-002	9.95881E-002	5.73763E-004	...........
	1	0.516667	9.95840E-002	9.93727E-002	5.71430E-004	...........
	2	0.775	9.95646E-002	9.94781E-002	5.68430E-004	...........
	3	1.03333	9.95287E-002	9.95369E-002	5.76097E-004	...........
	4	1.29167	9.94921E-002	9.92329E-002	5.76430E-004	...........
	5	1.55	9.94605E-002	9.94628E-002	5.73430E-004	...........
	6	1.80833	9.94307E-002	9.95024E-002	5.73297E-004	...........
	7	2.06667	9.94136E-002	9.93047E-002	5.74997E-004	...........
	8	2.325	9.94130E-002	9.95083E-002	5.76030E-004	...........
	9	2.58333	9.94171E-002	9.93967E-002	5.71330E-004	...........
	10	2.84167	9.94170E-002	9.92219E-002	5.71963E-004	...........
	11	3.1	9.94037E-002	9.94051E-002	5.74297E-004	...........
EOC	QUANT	0.0994037	Open Circuit (V)
PSTATMODEL	IQUANT	4	Pstat Model
PSTATSECTION	LABEL	REF600-11020	Pstat Section
PSTATSERIALNO	LABEL	11020	Pstat Serial Number
CTRLMODE	IQUANT	1	Control Mode
IESTAB	IQUANT	0	I/E Stability
CASPEED	IQUANT	1	Control Amp Speed
CONVENTION	IQUANT	1	Current Convention
ICHRANGE	IQUANT	2	Ich Range
ICHRANGEMODE	TOGGLE	F	Ich Auto Range
ICHOFFSETENABLE	TOGGLE	T	Ich Offset Enable
ICHOFFSET	QUANT	0	Ich Offset (V)
ICHFILTER	IQUANT	3	Ich Filter
VCHRANGE	IQUANT	2	Vch Range
VCHRANGEMODE	TOGGLE	F	Vch Auto Range
VCHOFFSETENABLE	TOGGLE	T	Vch Offset Enable
VCHOFFSET	QUANT	0	Vch Offset (V)
VCHFILTER	IQUANT	3	Vch Filter
ACHRANGE	IQUANT	2	Ach Range
ACHOFFSETENABLE	TOGGLE	F	Ach Offset Enable
ACHOFFSET	QUANT	0	Ach Offset (V)
ACHFILTER	IQUANT	3	Ach Filter
IERANGELOWERLIMIT	IQUANT	1	I/E Range Lower Limit
IERANGEMODE	TOGGLE	F	I/E AutoRange
IERANGE	IQUANT	8	I/E Range
POSFEEDENABLE	TOGGLE	F	Positive Feedback IR Comp
POSFEEDRESISTANCE	QUANT	0	Positive Feedback Resistance (ohm)
ACHSELECT	IQUANT	0	Ach Select
CABLEID	IQUANT	14	Cable ID
DCCALDATE	LABEL	2/27/2020	DC Calibration Date
ACCALDATE	LABEL	2/27/2020	AC Calibration Date
THERMOSELECT	IQUANT	1	Thermo Select
FRAMEWORKVERSION	QUANT	6.33	Framework Version
INSTRUMENTVERSION	LABEL	3.50	Instrument Version
ZCURVE	TABLE
	Pt	Time	Freq	Zreal	Zimag	Zsig	Zmod	Zphz	Idc	Vdc	IERange
	#	s	Hz	ohm	ohm	V	ohm	°	A	V	#
	0	1	1000078	1834.908	-1667.228	1	2479.221	-42.25882	-5.580519E-008	0.1018045	8
	1	1	794390.6	2170.39	-1693.227	1	2752.746	-37.95952	-1.563451E-008	0.1014856	8
	2	1	630984.4	2497.067	-1668.874	1	3003.412	-33.75614	-8.499221E-008	0.1013599	8
	3	2	501234.4	2799.273	-1610.022	1	3229.257	-29.90566	-3.968337E-007	0.1012783	8
	4	2	398109.4	3064.267	-1517.12	1	3419.267	-26.34003	-1.8252E-007	0.1012745	8
	5	2	316265.6	3300.413	-1421.817	1	3593.646	-23.30636	4.225578E-007	0.1011139	8
	6	3	251203.1	3498.048	-1325.74	1	3740.845	-20.75642	-9.444339E-010	0.1011677	8
	7	3	199546.9	3675.169	-1244.057	1	3880.018	-18.70113	4.648087E-007	0.1010869	8
	8	3	158578.1	3833.918	-1173.182	1	4009.399	-17.01415	4.642943E-007	0.1010912	8
	9	4	125953.1	4003.837	-1070.343	1	4144.436	-14.96686	-1.561728E-007	0.1015027	7
	10	4	100078.1	4128.673	-1021.056	1	4253.058	-13.89102	2.720098E-009	0.101092	7
	11	4	79453.13	4260.379	-990.803	1	4374.074	-13.09211	-2.674399E-009	0.1010867	7
	12	5	63140.62	4388.938	-963.569	1	4493.467	-12.38254	-1.914914E-009	0.10108	7
	13	5	50203.12	4512.899	-940.8707	1	4609.935	-11.7766	-7.615687E-009	0.1010849	7
	14	5	39890.62	4633.708	-924.0299	1	4724.942	-11.27769	1.116344E-008	0.1010638	7
	15	6	31640.63	4749.336	-913.1485	1	4836.325	-10.88337	1.462174E-008	0.1010439	7
	16	6	25171.88	4858.865	-909.9752	1	4943.341	-10.60756	2.995175E-009	0.1010829	7
	17	6	20015.62	4964.423	-916.6399	1	5048.339	-10.46137	2.771699E-009	0.1010831	7
	18	7	15890.62	5066.948	-934.7352	1	5152.445	-10.45224	9.710177E-009	0.1010454	7
	19	7	12609.37	5166.832	-967.72	1	5256.675	-10.60829	3.167276E-010	0.1010657	7
	20	7	10078.13	5262.327	-1015.82	1	5359.476	-10.92578	1.640018E-008	0.1010393	7
	21	7	8015.625	5358.053	-1084.224	1	5466.651	-11.43957	2.828055E-009	0.1010583	7
	22	8	6328.125	5457.267	-1179.593	1	5583.296	-12.1969	6.033173E-009	0.1010472	7
	23	8	5015.625	5555.671	-1303.554	1	5706.552	-13.20473	4.179803E-009	0.1010794	7
	24	8	3984.375	5654.817	-1461.888	1	5840.725	-14.4948	1.296538E-008	0.1010536	7
	25	9	3170.956	5756.362	-1662.453	1	5991.615	-16.10886	5.16807E-010	0.1010638	7
	26	9	2527.573	5861.407	-1913.803	1	6165.933	-18.08233	4.819193E-009	0.1010721	7
	27	9	1976.103	5988.79	-2259.68	1	6400.918	-20.67241	3.988619E-009	0.1010719	7
	28	10	1577.524	6116.757	-2654.333	1	6667.849	-23.45817	3.559201E-009	0.1010688	7
	29	10	1265.625	6258.323	-3129.795	1	6997.302	-26.56969	8.646595E-009	0.1010416	7
	30	10	998.264	6433.707	-3763.867	1	7453.81	-30.32862	-1.416313E-011	0.1010573	7
	31	11	796.875	6634.204	-4508.63	1	8021.247	-34.20018	-4.722948E-010	0.1010637	7
	32	11	627.7902	6885.913	-5467.231	1	8792.406	-38.44864	4.658687E-009	0.1010413	7
	33	11	505.5147	7164.495	-6536.451	1	9698.21	-42.37543	5.892767E-010	0.1011025	6
	34	12	397.9953	7530.646	-7976.483	1	10969.73	-46.64683	8.551412E-010	0.1011148	6
	35	12	315.5048	7969.292	-9691.06	1	12546.96	-50.56835	8.801679E-010	0.1011171	6
	36	12	252.4038	8483.357	-11692.26	1	14445.63	-54.03711	7.868396E-010	0.1011152	6
	37	13	198.6229	9165.442	-14317.58	1	16999.95	-57.37453	8.725949E-010	0.1011164	6
	38	13	158.3615	9970.85	-17347.41	1	20008.76	-60.11079	6.575963E-010	0.1011127	6
	39	13	125.558	11010.72	-21126.11	1	23823.27	-62.47192	4.755386E-010	0.1011191	6
	40	14	100.4464	12284.68	-25528.9	1	28330.87	-64.30282	6.779453E-010	0.1011144	6
	41	14	79.00281	14058.74	-31284.88	1	34298.57	-65.8019	6.240987E-010	0.1011115	6
	42	14	63.3446	16140.85	-37654.02	1	40967.7	-66.79702	5.293437E-010	0.1011069	6
	43	15	49.86702	19117.26	-45939.27	1	49758.27	-67.40575	3.833018E-010	0.1011111	6
	44	15	39.72458	22821.9	-55363.32	1	59882.69	-67.59753	8.495613E-010	0.1011085	6
	45	15	31.6723	27608.73	-66443.84	1	71951.55	-67.43615	9.677908E-010	0.1011057	6
	46	16	24.93351	34180.75	-80178.41	1	87160.21	-66.91103	7.246295E-011	0.1011091	6
	47	16	19.86229	42285.14	-95331.8	1	104289	-66.07996	-7.705858E-011	0.1011071	5
	48	16	15.83615	52660.19	-112618.9	1	124322.6	-64.93938	-1.094054E-009	0.1011127	5
	49	16	12.40079	67012.47	-133803.5	1	149646.4	-63.39703	-1.193331E-009	0.1011161	5
	50	17	9.93114	83018.48	-154729.7	1	175594.2	-61.78471	-1.587825E-009	0.1011118	5
	51	17	7.944915	102280.9	-177817.8	1	205135.4	-60.09246	-4.157815E-010	0.1011147	5
	52	18	6.317385	126090.9	-202764.2	1	238772.3	-58.12418	3.162087E-010	0.1011057	5
	53	18	5.008013	153904.1	-229428.6	1	276267.9	-56.14571	-3.279229E-011	0.1011091	5
	54	19	3.945707	186198.3	-258403.7	1	318500	-54.22456	-1.91203E-010	0.1011087	5
	55	20	3.158693	218533.5	-285711.7	1	359705.5	-52.58856	1.382663E-010	0.1010907	5
	56	21	2.504006	254910.5	-317240.3	1	406965.3	-51.21726	5.224429E-010	0.1011015	5
	57	22	1.998082	290778	-350056.3	1	455072.8	-50.28491	2.729247E-010	0.1010801	5
	58	24	1.584686	330671	-390196.7	1	511465.3	-49.72049	1.353415E-010	0.1010559	5
	59	26	1.266892	369463.8	-435916.4	1	571425.1	-49.71684	1.822188E-010	0.1010869	5
	60	28	0.999041	413870.2	-492905.8	1	643618.4	-49.98137	2.374595E-010	0.1011087	5
