EXPLAIN
TAG	EISPOT
TITLE	LABEL	Potentiostatic EIS	Test &Identifier
DATE	LABEL	1/25/2020	Date
TIME	LABEL	12:49:50	Time
NOTES	NOTES	6	&Notes...
	
	
	
	
	
	
PSTAT	PSTAT	REF600-11020	Potentiostat
VDC	POTEN	0.00000E+000	T	DC &Voltage (V)
FREQINIT	QUANT	1.00000E+006	Initial Fre&q. (Hz)
FREQFINAL	QUANT	1.00000E+000	Final Fre&q. (Hz)
PTSPERDEC	QUANT	1.00000E+001	Points/&decade
VAC	QUANT	2.50000E+001	AC &Voltage (mV rms)
AREA	QUANT	1.00000E-001	&Area (cm^2)
CONDIT	TWOPARAM	F	5.00000E+000	0.00000E+000	Conditionin&g	Time(s)	E(V)
DELAY	TWOPARAM	F	5.00000E+000	0.00000E+000	Init. De&lay	Time(s)	Stab.(mV/s)
SPEED	SELECTOR	0	&Optimize for:
ZGUESS	QUANT	5.00000E+002	E&stimated Z (ohms)
OCVCURVE	TABLE	39
	Pt	T	Vf	Vm	Ach	Over
	#	s	V vs. Ref.	V	V	bits
	0	0.258333	3.15474E-002	3.15474E-002	7.02512E-004	...........
	1	0.516667	3.15462E-002	3.14839E-002	7.05845E-004	...........
	2	0.775	3.15375E-002	3.13587E-002	7.01412E-004	...........
	3	1.03333	3.15093E-002	3.12653E-002	6.98779E-004	...........
	4	1.29167	3.14537E-002	3.12057E-002	6.95446E-004	...........
	5	1.55	3.13771E-002	3.11479E-002	7.01812E-004	...........
	6	1.80833	3.12961E-002	3.11235E-002	7.04479E-004	...........
	7	2.06667	3.12248E-002	3.10937E-002	7.11979E-004	...........
	8	2.325	3.11692E-002	3.10583E-002	7.07179E-004	...........
	9	2.58333	3.11268E-002	3.10148E-002	7.06412E-004	...........
	10	2.84167	3.10909E-002	3.09824E-002	7.05579E-004	...........
	11	3.1	3.10564E-002	3.09577E-002	7.05579E-004	...........
	12	3.35833	3.10224E-002	3.09371E-002	7.05745E-004	...........
	13	3.61667	3.09906E-002	3.09032E-002	7.07712E-004	...........
	14	3.875	3.09616E-002	3.08755E-002	7.05812E-004	...........
	15	4.13333	3.09339E-002	3.08458E-002	7.03312E-004	...........
	16	4.39167	3.09060E-002	3.08203E-002	7.07212E-004	...........
	17	4.65	3.08778E-002	3.07943E-002	7.03412E-004	...........
	18	4.90833	3.08501E-002	3.07749E-002	7.04379E-004	...........
	19	5.16667	3.08235E-002	3.07471E-002	7.04879E-004	...........
	20	5.425	3.07984E-002	3.07244E-002	7.05179E-004	...........
	21	5.68333	3.07742E-002	3.07045E-002	6.99579E-004	...........
	22	5.94167	3.07506E-002	3.06826E-002	7.01179E-004	...........
	23	6.2	3.07279E-002	3.06669E-002	7.03979E-004	...........
	24	6.45833	3.07065E-002	3.06498E-002	7.02712E-004	...........
	25	6.71667	3.06867E-002	3.06294E-002	7.04712E-004	...........
	26	6.975	3.06680E-002	3.06155E-002	7.02279E-004	...........
	27	7.23333	3.06500E-002	3.05893E-002	7.06945E-004	...........
	28	7.49167	3.06319E-002	3.05746E-002	7.03879E-004	...........
	29	7.75	3.06133E-002	3.05592E-002	7.00879E-004	...........
	30	8.00833	3.05948E-002	3.05445E-002	7.05745E-004	...........
	31	8.26667	3.05772E-002	3.05301E-002	7.05979E-004	...........
	32	8.525	3.05610E-002	3.05152E-002	6.99579E-004	...........
	33	8.78333	3.05458E-002	3.05041E-002	7.07512E-004	...........
	34	9.04167	3.05315E-002	3.04947E-002	7.00612E-004	...........
	35	9.3	3.05182E-002	3.04824E-002	6.99279E-004	...........
	36	9.5583	3.05060E-002	3.04728E-002	7.01745E-004	...........
	37	9.8167	3.04947E-002	3.04604E-002	7.06712E-004	...........
	38	10.075	3.04838E-002	3.04513E-002	7.08179E-004	...........
EOC	QUANT	0.0304838	Open Circuit (V)
PSTATMODEL	IQUANT	4	Pstat Model
PSTATSECTION	LABEL	REF600-11020	Pstat Section
PSTATSERIALNO	LABEL	11020	Pstat Serial Number
CTRLMODE	IQUANT	1	Control Mode
IESTAB	IQUANT	0	I/E Stability
CASPEED	IQUANT	1	Control Amp Speed
CONVENTION	IQUANT	1	Current Convention
ICHRANGE	IQUANT	2	Ich Range
ICHRANGEMODE	TOGGLE	F	Ich Auto Range
ICHOFFSETENABLE	TOGGLE	T	Ich Offset Enable
ICHOFFSET	QUANT	0	Ich Offset (V)
ICHFILTER	IQUANT	3	Ich Filter
VCHRANGE	IQUANT	2	Vch Range
VCHRANGEMODE	TOGGLE	F	Vch Auto Range
VCHOFFSETENABLE	TOGGLE	T	Vch Offset Enable
VCHOFFSET	QUANT	0	Vch Offset (V)
VCHFILTER	IQUANT	3	Vch Filter
ACHRANGE	IQUANT	2	Ach Range
ACHOFFSETENABLE	TOGGLE	F	Ach Offset Enable
ACHOFFSET	QUANT	0	Ach Offset (V)
ACHFILTER	IQUANT	3	Ach Filter
IERANGELOWERLIMIT	IQUANT	1	I/E Range Lower Limit
IERANGEMODE	TOGGLE	F	I/E AutoRange
IERANGE	IQUANT	8	I/E Range
POSFEEDENABLE	TOGGLE	F	Positive Feedback IR Comp
POSFEEDRESISTANCE	QUANT	0	Positive Feedback Resistance (ohm)
ACHSELECT	IQUANT	0	Ach Select
CABLEID	IQUANT	14	Cable ID
DCCALDATE	LABEL	12/22/2019	DC Calibration Date
ACCALDATE	LABEL	12/22/2019	AC Calibration Date
THERMOSELECT	IQUANT	1	Thermo Select
FRAMEWORKVERSION	QUANT	6.33	Framework Version
INSTRUMENTVERSION	LABEL	3.50	Instrument Version
ZCURVE	TABLE
	Pt	Time	Freq	Zreal	Zimag	Zsig	Zmod	Zphz	Idc	Vdc	IERange
	#	s	Hz	ohm	ohm	V	ohm	°	A	V	#
	0	1	1000078	2271.721	-1732.34	1	2856.872	-37.32796	2.418457E-006	0.0322333	8
	1	2	794390.6	2624.493	-1673.582	1	3112.69	-32.52477	1.88441E-007	0.0322387	8
	2	2	630984.4	2941.77	-1560.047	1	3329.829	-27.9374	-1.088824E-007	0.0322483	8
	3	2	501234.4	3213.79	-1428.376	1	3516.917	-23.96286	-7.502042E-007	0.0322691	8
	4	3	398109.4	3444.568	-1262.622	1	3668.687	-20.13063	1.405431E-006	0.0318309	8
	5	3	316265.6	3596.954	-1095.147	1	3759.977	-16.93366	-1.163295E-007	0.0320639	8
	6	3	251203.1	3725.769	-965.236	1	3848.771	-14.52431	-2.661603E-006	0.0326556	8
	7	3	199546.9	3843.586	-840.8	1	3934.476	-12.33931	-2.010519E-006	0.0325245	8
	8	4	158578.1	3910.996	-736.8231	1	3979.799	-10.66934	4.237492E-007	0.0319838	8
	9	4	125953.1	3988.313	-638.8261	1	4039.151	-9.100025	8.796077E-007	0.0301042	7
	10	4	100078.1	4028.46	-576.4518	1	4069.495	-8.143447	1.099398E-009	0.0320674	7
	11	5	79453.13	4074.912	-543.1497	1	4110.951	-7.592269	-1.8672E-008	0.0321184	7
	12	5	63140.62	4118.373	-523.2642	1	4151.481	-7.240978	-2.909847E-008	0.0320683	7
	13	5	50203.12	4161.197	-517.9594	1	4193.31	-7.09532	7.274989E-010	0.0320508	7
	14	6	39890.62	4203.378	-525.9147	1	4236.151	-7.131625	5.267207E-008	0.0319404	7
	15	6	31640.63	4246.617	-547.5502	1	4281.771	-7.347067	-1.17867E-008	0.0320271	7
	16	6	25171.88	4293.265	-583.5959	1	4332.748	-7.740936	-1.100066E-008	0.0320617	7
	17	7	20015.62	4342.301	-633.7466	1	4388.304	-8.303533	-2.937191E-008	0.0320579	7
	18	7	15890.62	4395.192	-701.3515	1	4450.799	-9.066388	-2.90547E-008	0.0320599	7
	19	7	12609.37	4455.562	-787.7471	1	4524.663	-10.02633	-9.408272E-009	0.0320601	7
	20	8	10078.13	4517.662	-890.0458	1	4604.503	-11.14537	-2.687002E-008	0.0320661	7
	21	8	8015.625	4589.156	-1021.299	1	4701.426	-12.5465	3.55963E-008	0.0320332	7
	22	8	6328.125	4670.281	-1183.937	1	4818.011	-14.22507	3.287251E-008	0.0319366	7
	23	8	5015.625	4763.349	-1379.224	1	4959.007	-16.14833	1.757982E-008	0.0320132	7
	24	9	3984.375	4867.6	-1615.028	1	5128.532	-18.3554	-3.525865E-008	0.0320691	7
	25	9	3170.956	4985.497	-1895.756	1	5333.767	-20.81952	3.924827E-009	0.0319781	7
	26	9	2527.573	5119.541	-2232.327	1	5585.068	-23.55915	5.06265E-008	0.031916	7
	27	10	1976.103	5288.332	-2676.078	1	5926.875	-26.84098	-1.087563E-008	0.0320159	7
	28	10	1577.524	5463.202	-3168.886	1	6315.727	-30.11553	3.194455E-009	0.0319769	7
	29	10	1265.625	5672.164	-3737.725	1	6792.94	-33.38326	3.194713E-008	0.0319205	7
	30	11	998.264	5926.76	-4485.866	1	7432.999	-37.12148	5.517468E-008	0.0319251	7
	31	11	796.875	6211.237	-5336.844	1	8189.101	-40.66996	5.181435E-009	0.0319714	7
	32	11	627.7902	6556.066	-6428.092	1	9181.632	-44.4353	5.264743E-008	0.0319095	7
	33	12	505.5147	6922.187	-7627.376	1	10300.17	-47.77485	2.553407E-010	0.0320728	6
	34	12	397.9953	7397.071	-9230.211	1	11828.5	-51.29139	9.175167E-010	0.0320278	6
	35	12	315.5048	7936.694	-11129.32	1	13669.42	-54.50605	9.351284E-010	0.0320267	6
	36	13	252.4038	8549.136	-13343.15	1	15847	-57.35178	8.369047E-010	0.0320229	6
	37	13	198.6229	9333.099	-16241.61	1	18732.23	-60.11655	3.608713E-010	0.0320266	6
	38	13	158.3615	10227.04	-19583.82	1	22093.4	-62.4256	7.156393E-010	0.032022	6
	39	14	125.558	11329.67	-23743.98	1	26308.52	-64.4914	7.041275E-010	0.0320241	6
	40	14	100.4464	12602.17	-28582.59	1	31237.46	-66.20714	2.276317E-010	0.0320196	6
	41	14	79.00281	14297.25	-34902.75	1	37717.55	-67.72446	2.604134E-010	0.0320248	6
	42	15	63.3446	16272.98	-42285.57	1	45308.71	-68.95152	4.047588E-010	0.032019	6
	43	15	49.86702	18759.77	-51606.57	1	54910.54	-70.02303	7.826296E-010	0.0320178	6
	44	15	39.72458	21696.94	-62334.03	1	66002.19	-70.80826	5.644396E-010	0.0320249	6
	45	16	31.6723	25516.12	-75395.45	1	79596.14	-71.30261	7.988512E-010	0.0320188	6
	46	16	24.93351	30352.86	-92315.62	1	97177.5	-71.79942	8.327682E-011	0.0320172	6
	47	16	19.86229	36439.94	-111851.3	1	117637.5	-71.95495	-6.517992E-010	0.0320147	5
	48	17	15.83615	44299.1	-134933.6	1	142019.3	-71.82484	9.081801E-012	0.0320146	5
	49	17	12.40079	55927.05	-164611.6	1	173852.9	-71.23473	-1.030176E-009	0.0320228	5
	50	17	9.93114	69623.05	-198076.2	1	209956.1	-70.63361	-2.31512E-010	0.0320109	5
	51	17	7.944915	86783.61	-236277	1	251710.6	-69.83192	4.99728E-010	0.0320119	5
	52	18	6.317385	109988.1	-281960.7	1	302653.7	-68.69008	4.292134E-010	0.0320002	5
	53	19	5.008013	139873	-335260.8	1	363268.8	-67.35378	2.628329E-010	0.0320174	5
	54	20	3.945707	179453.4	-396796.4	1	435489.2	-65.66487	1.892091E-011	0.0320159	5
	55	21	3.158693	222538.8	-462001.5	1	512805	-64.28062	-5.904402E-011	0.0320052	5
	56	23	2.504006	278379.8	-536184.3	1	604143.1	-62.56226	1.238087E-010	0.0320032	5
	57	24	1.998082	340170.1	-615501.4	1	703248	-61.07182	1.645043E-010	0.0320292	5
	58	26	1.584686	414854.7	-702983.8	1	816266.2	-59.4537	5.089026E-011	0.0319832	5
	59	28	1.266892	497393.3	-799050.1	1	941212.6	-58.09853	1.610213E-011	0.0319591	5
	60	30	0.999041	593958.3	-913647.4	1	1089742	-56.97228	-3.117419E-011	0.0320024	4
