EXPLAIN
TAG	EISPOT
TITLE	LABEL	Potentiostatic EIS	Test &Identifier
DATE	LABEL	3/12/2020	Date
TIME	LABEL	14:11:18	Time
NOTES	NOTES	1	&Notes...
	
PSTAT	PSTAT	REF600-11020	Potentiostat
VDC	POTEN	0.00000E+000	T	DC &Voltage (V)
FREQINIT	QUANT	1.00000E+006	Initial Fre&q. (Hz)
FREQFINAL	QUANT	1.00000E+000	Final Fre&q. (Hz)
PTSPERDEC	QUANT	1.00000E+001	Points/&decade
VAC	QUANT	2.50000E+001	AC &Voltage (mV rms)
AREA	QUANT	2.50000E-001	&Area (cm^2)
CONDIT	TWOPARAM	F	5.00000E+000	0.00000E+000	Conditionin&g	Time(s)	E(V)
DELAY	TWOPARAM	T	5.00000E+000	0.00000E+000	Init. De&lay	Time(s)	Stab.(mV/s)
SPEED	SELECTOR	1	&Optimize for:
ZGUESS	QUANT	5.00000E+003	E&stimated Z (ohms)
OCVCURVE	TABLE	19
	Pt	T	Vf	Vm	Ach	Over
	#	s	V vs. Ref.	V	V	bits
	0	0.258333	-6.02201E-002	-6.02201E-002	5.86130E-004	...........
	1	0.516667	-6.02215E-002	-6.02914E-002	5.91263E-004	...........
	2	0.775	-6.02299E-002	-6.03601E-002	5.90230E-004	...........
	3	1.03333	-6.02539E-002	-6.04373E-002	5.86463E-004	...........
	4	1.29167	-6.02979E-002	-6.05093E-002	5.90496E-004	...........
	5	1.55	-6.03584E-002	-6.05815E-002	5.88796E-004	...........
	6	1.80833	-6.04283E-002	-6.06537E-002	5.89763E-004	...........
	7	2.06667	-6.05015E-002	-6.07226E-002	5.88430E-004	...........
	8	2.325	-6.05744E-002	-6.07859E-002	5.85063E-004	...........
	9	2.58333	-6.06456E-002	-6.08490E-002	5.86096E-004	...........
	10	2.84167	-6.07141E-002	-6.09127E-002	5.85697E-004	...........
	11	3.1	-6.07800E-002	-6.09734E-002	5.87163E-004	...........
	12	3.35833	-6.08440E-002	-6.10342E-002	5.86696E-004	...........
	13	3.61667	-6.09066E-002	-6.10914E-002	5.84963E-004	...........
	14	3.875	-6.09678E-002	-6.11454E-002	5.87697E-004	...........
	15	4.13333	-6.10273E-002	-6.11972E-002	5.87663E-004	...........
	16	4.39167	-6.10850E-002	-6.12709E-002	5.86030E-004	...........
	17	4.65	-6.11415E-002	-6.12862E-002	5.87063E-004	...........
	18	4.90833	-6.11938E-002	-6.12253E-002	5.87130E-004	...........
EOC	QUANT	-0.0611938	Open Circuit (V)
PSTATMODEL	IQUANT	4	Pstat Model
PSTATSECTION	LABEL	REF600-11020	Pstat Section
PSTATSERIALNO	LABEL	11020	Pstat Serial Number
CTRLMODE	IQUANT	1	Control Mode
IESTAB	IQUANT	0	I/E Stability
CASPEED	IQUANT	1	Control Amp Speed
CONVENTION	IQUANT	1	Current Convention
ICHRANGE	IQUANT	2	Ich Range
ICHRANGEMODE	TOGGLE	F	Ich Auto Range
ICHOFFSETENABLE	TOGGLE	T	Ich Offset Enable
ICHOFFSET	QUANT	0	Ich Offset (V)
ICHFILTER	IQUANT	3	Ich Filter
VCHRANGE	IQUANT	2	Vch Range
VCHRANGEMODE	TOGGLE	F	Vch Auto Range
VCHOFFSETENABLE	TOGGLE	T	Vch Offset Enable
VCHOFFSET	QUANT	0	Vch Offset (V)
VCHFILTER	IQUANT	3	Vch Filter
ACHRANGE	IQUANT	2	Ach Range
ACHOFFSETENABLE	TOGGLE	F	Ach Offset Enable
ACHOFFSET	QUANT	0	Ach Offset (V)
ACHFILTER	IQUANT	3	Ach Filter
IERANGELOWERLIMIT	IQUANT	1	I/E Range Lower Limit
IERANGEMODE	TOGGLE	F	I/E AutoRange
IERANGE	IQUANT	7	I/E Range
POSFEEDENABLE	TOGGLE	F	Positive Feedback IR Comp
POSFEEDRESISTANCE	QUANT	0	Positive Feedback Resistance (ohm)
ACHSELECT	IQUANT	0	Ach Select
CABLEID	IQUANT	14	Cable ID
DCCALDATE	LABEL	2/27/2020	DC Calibration Date
ACCALDATE	LABEL	2/27/2020	AC Calibration Date
THERMOSELECT	IQUANT	1	Thermo Select
FRAMEWORKVERSION	QUANT	6.33	Framework Version
INSTRUMENTVERSION	LABEL	3.50	Instrument Version
ZCURVE	TABLE
	Pt	Time	Freq	Zreal	Zimag	Zsig	Zmod	Zphz	Idc	Vdc	IERange
	#	s	Hz	ohm	ohm	V	ohm	°	A	V	#
	0	1	1000078	1523.479	-733.3149	1	1690.78	-25.70349	5.614701E-007	-0.0590785	8
	1	2	794390.6	1635.06	-703.9537	1	1780.161	-23.29366	-9.750399E-007	-0.0591876	8
	2	4	630984.4	1741.867	-671.5054	1	1866.821	-21.0821	4.407757E-008	-0.0593747	8
	3	5	501234.4	1835.222	-638.731	1	1943.198	-19.18995	-5.484475E-007	-0.0594533	8
	4	6	398109.4	1918.946	-608.7326	1	2013.184	-17.60019	-9.93257E-008	-0.0595321	8
	5	8	316265.6	1996.111	-582.8807	1	2079.473	-16.27824	-1.809681E-006	-0.0591719	8
	6	9	251203.1	2068.374	-570.2241	1	2145.537	-15.41285	1.076791E-006	-0.0597862	8
	7	10	199546.9	2137.965	-557.0819	1	2209.352	-14.60461	4.117673E-007	-0.0597293	8
	8	12	158578.1	2207.102	-558.1724	1	2276.589	-14.19243	-1.129813E-006	-0.0593769	8
	9	13	125953.1	2283.618	-544.1907	1	2347.564	-13.40371	-1.709466E-007	-0.0595464	7
	10	15	100078.1	2348.977	-547.7452	1	2411.994	-13.12594	2.724857E-008	-0.059766	7
	11	16	79453.13	2418.465	-568.1976	1	2484.315	-13.22137	2.795807E-008	-0.0597737	7
	12	17	63140.62	2490.669	-592.8781	1	2560.261	-13.38948	6.300406E-009	-0.0597428	7
	13	19	50203.12	2565.471	-621.1661	1	2639.601	-13.61083	3.033795E-008	-0.059719	7
	14	20	39890.62	2642.67	-654.496	1	2722.511	-13.91024	1.971498E-009	-0.0597001	7
	15	21	31640.63	2723.631	-694.148	1	2810.695	-14.29809	-9.008143E-009	-0.0597077	7
	16	23	25171.88	2805.708	-740.8392	1	2901.868	-14.7912	-1.873447E-008	-0.0596914	7
	17	24	20015.62	2890.429	-797.0307	1	2998.306	-15.4161	7.179923E-012	-0.0597409	7
	18	26	15890.62	2978.882	-864.8002	1	3101.873	-16.18856	3.811857E-008	-0.0597761	7
	19	27	12609.37	3070.849	-947.5501	1	3213.715	-17.14829	-8.614309E-009	-0.0597131	7
	20	28	10078.13	3163.965	-1044.204	1	3331.822	-18.26445	1.415127E-008	-0.0597345	7
	21	30	8015.625	3265.174	-1166.632	1	3467.332	-19.66158	5.506935E-008	-0.0597933	7
	22	31	6328.125	3379.774	-1321.775	1	3629.044	-21.35967	-3.749616E-009	-0.0596816	7
	23	32	5015.625	3504.006	-1507.161	1	3814.393	-23.27375	5.627733E-008	-0.0597975	7
	24	34	3984.375	3646.224	-1728.021	1	4034.973	-25.35725	-1.99924E-008	-0.0596941	7
	25	35	3170.956	3809.803	-1988.462	1	4297.509	-27.56154	1.304181E-008	-0.0597685	7
	26	36	2527.573	3998.995	-2290.009	1	4608.265	-29.79744	-2.004236E-008	-0.059693	7
	27	38	1976.103	4236.677	-2670.357	1	5008.018	-32.22303	7.38328E-009	-0.0597504	7
	28	39	1577.524	4483.424	-3071.079	1	5434.392	-34.41056	1.410771E-008	-0.0597374	7
	29	41	1265.625	4745.664	-3519.702	1	5908.437	-36.56311	1.630178E-008	-0.0597751	7
	30	42	998.264	5049.668	-4090.682	1	6498.679	-39.01056	5.709395E-008	-0.0597974	7
	31	43	796.875	5351.613	-4732.856	1	7144.207	-41.48888	1.499934E-008	-0.0597401	7
	32	45	627.7902	5686.237	-5566.616	1	7957.418	-44.39095	5.766749E-008	-0.0597964	7
	33	46	505.5147	6004.233	-6503.005	1	8850.982	-47.28367	2.842058E-009	-0.0597088	7
	34	47	397.9953	6398.858	-7758.451	1	10056.79	-50.48556	1.027046E-009	-0.0596557	6
	35	49	315.5048	6830.658	-9289.041	1	11530.14	-53.67125	1.169443E-009	-0.0596499	6
	36	50	252.4038	7314.828	-11101.3	1	13294.57	-56.61846	4.897474E-010	-0.0596546	6
	37	52	198.6229	7940.408	-13502.27	1	15664.02	-59.54109	8.044185E-010	-0.0596597	6
	38	53	158.3615	8665.153	-16292.56	1	18453.52	-61.99384	4.180472E-010	-0.059658	6
	39	54	125.558	9587.56	-19792.86	1	21992.7	-64.1547	6.562841E-010	-0.0596522	6
	40	56	100.4464	10694.53	-23872.58	1	26158.61	-65.86839	2.055504E-010	-0.0596555	6
	41	57	79.00281	12232.75	-29262.64	1	31716.59	-67.31346	3.925622E-010	-0.059658	6
	42	58	63.3446	14026.65	-35399.28	1	38076.97	-68.38449	5.915421E-010	-0.0596604	6
	43	60	49.86702	16339.84	-43000.68	1	46000.53	-69.1937	4.786316E-010	-0.0596606	6
	44	61	39.72458	19438.72	-52016.43	1	55529.92	-69.50911	5.831235E-010	-0.0596619	6
	45	63	31.6723	23422	-62615.85	1	66853.08	-69.49126	7.185488E-010	-0.0596576	6
	46	64	24.93351	28591.83	-76039.27	1	81237.08	-69.39304	7.743952E-010	-0.0596635	6
	47	65	19.86229	34977.17	-91073.9	1	97559.5	-68.99059	3.544599E-010	-0.0596554	6
	48	67	15.83615	43350.48	-108768.6	1	117089.1	-68.2699	-5.278182E-010	-0.0596553	5
	49	68	12.40079	53855.18	-130976.2	1	141616.2	-67.64838	-7.375859E-011	-0.0596557	5
	50	70	9.93114	66194.63	-153363.6	1	167039.3	-66.65406	7.44047E-010	-0.0596548	5
	51	71	7.944915	80992.32	-179977.4	1	197361.6	-65.77159	4.545468E-011	-0.0596589	5
	52	73	6.317385	98918.2	-210727.4	1	232789.3	-64.85402	5.348161E-010	-0.0596674	5
	53	75	5.008013	120579.2	-246660.9	1	274555.9	-63.94848	4.819888E-010	-0.059642	5
	54	77	3.945707	146742.2	-288776.9	1	323921.8	-63.06257	9.266647E-011	-0.0596575	5
	55	80	3.158693	174863.2	-333968.6	1	376977.7	-62.36382	4.108467E-010	-0.0596328	5
	56	83	2.504006	208662.6	-388625.1	1	441100.4	-61.76752	1.346242E-011	-0.0596582	5
	57	86	1.998082	247521.7	-452815.9	1	516051.6	-61.33776	2.060228E-010	-0.059675	5
	58	89	1.584686	290912.5	-520419.9	1	596210.5	-60.795	2.034721E-010	-0.0596124	5
	59	93	1.266892	339336.5	-603374.8	1	692250.2	-60.64671	1.182203E-010	-0.0596676	5
	60	97	0.999041	402200.6	-702976.1	1	809901.7	-60.22441	4.02022E-010	-0.0596176	5
