EXPLAIN
TAG	EISPOT
TITLE	LABEL	Potentiostatic EIS	Test &Identifier
DATE	LABEL	1/18/2020	Date
TIME	LABEL	22:26:43	Time
NOTES	NOTES	6	&Notes...
	
	
	
	
	
	
PSTAT	PSTAT	REF600-11020	Potentiostat
VDC	POTEN	0.00000E+000	T	DC &Voltage (V)
FREQINIT	QUANT	1.00000E+006	Initial Fre&q. (Hz)
FREQFINAL	QUANT	1.00000E+000	Final Fre&q. (Hz)
PTSPERDEC	QUANT	1.00000E+001	Points/&decade
VAC	QUANT	2.50000E+001	AC &Voltage (mV rms)
AREA	QUANT	1.00000E-001	&Area (cm^2)
CONDIT	TWOPARAM	F	5.00000E+000	0.00000E+000	Conditionin&g	Time(s)	E(V)
DELAY	TWOPARAM	F	5.00000E+000	0.00000E+000	Init. De&lay	Time(s)	Stab.(mV/s)
SPEED	SELECTOR	0	&Optimize for:
ZGUESS	QUANT	5.00000E+002	E&stimated Z (ohms)
OCVCURVE	TABLE	39
	Pt	T	Vf	Vm	Ach	Over
	#	s	V vs. Ref.	V	V	bits
	0	0.258333	-2.97126E-003	-2.97126E-003	6.66946E-004	...........
	1	0.516667	-2.97364E-003	-3.09621E-003	6.65146E-004	...........
	2	0.775	-2.98306E-003	-2.94008E-003	6.55113E-004	...........
	3	1.03333	-2.98902E-003	-2.62128E-003	6.54379E-004	...........
	4	1.29167	-2.95824E-003	-2.64975E-003	6.57213E-004	...........
	5	1.55	-2.87239E-003	-2.49526E-003	6.55279E-004	...........
	6	1.80833	-2.75161E-003	-2.31300E-003	6.54946E-004	...........
	7	2.06667	-2.61949E-003	-2.15300E-003	6.55446E-004	...........
	8	2.325	-2.48172E-003	-2.14174E-003	6.59279E-004	...........
	9	2.58333	-2.34787E-003	-2.12671E-003	6.59713E-004	...........
	10	2.84167	-2.23588E-003	-1.94456E-003	6.61546E-004	...........
	11	3.1	-2.16073E-003	-2.57320E-003	6.58113E-004	...........
	12	3.35833	-2.14710E-003	-2.45313E-003	6.58746E-004	...........
	13	3.61667	-2.21261E-003	-2.49962E-003	6.61446E-004	...........
	14	3.875	-2.32015E-003	-2.34395E-003	6.55213E-004	...........
	15	4.13333	-2.39677E-003	-2.11819E-003	6.56680E-004	...........
	16	4.39167	-2.39456E-003	-2.04561E-003	6.55513E-004	...........
	17	4.65	-2.31429E-003	-1.90123E-003	6.59479E-004	...........
	18	4.90833	-2.19383E-003	-2.01452E-003	6.56113E-004	...........
	19	5.16667	-2.08339E-003	-2.04507E-003	6.55380E-004	...........
	20	5.425	-2.01787E-003	-1.97951E-003	6.58379E-004	...........
	21	5.68333	-1.99715E-003	-2.00309E-003	6.61713E-004	...........
	22	5.94167	-1.99219E-003	-1.74578E-003	6.59346E-004	...........
	23	6.2	-1.96878E-003	-1.72157E-003	6.64579E-004	...........
	24	6.45833	-1.90999E-003	-1.66490E-003	6.62646E-004	...........
	25	6.71667	-1.82875E-003	-1.68096E-003	6.61179E-004	...........
	26	6.975	-1.75345E-003	-1.64047E-003	6.62446E-004	...........
	27	7.23333	-1.69863E-003	-1.52726E-003	6.58879E-004	...........
	28	7.49167	-1.65586E-003	-1.51024E-003	6.61046E-004	...........
	29	7.75	-1.61264E-003	-1.54034E-003	6.57446E-004	...........
	30	8.00833	-1.57160E-003	-1.52467E-003	6.63213E-004	...........
	31	8.26667	-1.54352E-003	-1.53503E-003	6.57013E-004	...........
	32	8.525	-1.53088E-003	-1.52338E-003	6.61346E-004	...........
	33	8.78333	-1.52733E-003	-1.51414E-003	6.57579E-004	...........
	34	9.04167	-1.52519E-003	-1.48611E-003	6.57913E-004	...........
	35	9.3	-1.51967E-003	-1.49800E-003	6.54746E-004	...........
	36	9.5583	-1.51077E-003	-1.49065E-003	6.53813E-004	...........
	37	9.8167	-1.50190E-003	-1.48871E-003	6.57146E-004	...........
	38	10.075	-1.49552E-003	-1.48464E-003	6.58246E-004	...........
EOC	QUANT	-0.0014955	Open Circuit (V)
PSTATMODEL	IQUANT	4	Pstat Model
PSTATSECTION	LABEL	REF600-11020	Pstat Section
PSTATSERIALNO	LABEL	11020	Pstat Serial Number
CTRLMODE	IQUANT	1	Control Mode
IESTAB	IQUANT	0	I/E Stability
CASPEED	IQUANT	1	Control Amp Speed
CONVENTION	IQUANT	1	Current Convention
ICHRANGE	IQUANT	2	Ich Range
ICHRANGEMODE	TOGGLE	F	Ich Auto Range
ICHOFFSETENABLE	TOGGLE	T	Ich Offset Enable
ICHOFFSET	QUANT	0	Ich Offset (V)
ICHFILTER	IQUANT	3	Ich Filter
VCHRANGE	IQUANT	2	Vch Range
VCHRANGEMODE	TOGGLE	F	Vch Auto Range
VCHOFFSETENABLE	TOGGLE	T	Vch Offset Enable
VCHOFFSET	QUANT	0	Vch Offset (V)
VCHFILTER	IQUANT	3	Vch Filter
ACHRANGE	IQUANT	2	Ach Range
ACHOFFSETENABLE	TOGGLE	F	Ach Offset Enable
ACHOFFSET	QUANT	0	Ach Offset (V)
ACHFILTER	IQUANT	3	Ach Filter
IERANGELOWERLIMIT	IQUANT	1	I/E Range Lower Limit
IERANGEMODE	TOGGLE	F	I/E AutoRange
IERANGE	IQUANT	6	I/E Range
POSFEEDENABLE	TOGGLE	F	Positive Feedback IR Comp
POSFEEDRESISTANCE	QUANT	0	Positive Feedback Resistance (ohm)
ACHSELECT	IQUANT	0	Ach Select
CABLEID	IQUANT	14	Cable ID
DCCALDATE	LABEL	12/22/2019	DC Calibration Date
ACCALDATE	LABEL	12/22/2019	AC Calibration Date
THERMOSELECT	IQUANT	1	Thermo Select
FRAMEWORKVERSION	QUANT	6.33	Framework Version
INSTRUMENTVERSION	LABEL	3.50	Instrument Version
ZCURVE	TABLE
	Pt	Time	Freq	Zreal	Zimag	Zsig	Zmod	Zphz	Idc	Vdc	IERange
	#	s	Hz	ohm	ohm	V	ohm	°	A	V	#
	0	1	1000078	2198.149	-2232.191	1	3132.816	-45.44024	-2.723465E-006	0.0011588	8
	1	2	794390.6	2628.699	-2351.18	1	3526.77	-41.81032	3.56531E-006	-2.454556E-005	8
	2	2	630984.4	3079.971	-2429.275	1	3922.703	-38.26402	-1.589136E-006	0.0006137	8
	3	2	501234.4	3572.382	-2426.932	1	4318.786	-34.19061	-2.742074E-006	0.0007901	8
	4	3	398109.4	4033.165	-2329.745	1	4657.696	-30.01274	4.795469E-006	-0.0006255	8
	5	3	316265.6	4479.352	-2211.079	1	4995.344	-26.27168	1.322426E-006	-0.0001828	8
	6	3	251203.1	4884.72	-2045.914	1	5295.871	-22.72587	-8.17721E-007	0.0002434	8
	7	4	199546.9	5145.507	-1803.089	1	5452.281	-19.31149	8.212697E-007	-0.0001012	8
	8	4	158578.1	5445.926	-1651.756	1	5690.905	-16.87261	-2.659539E-006	0.0006332	8
	9	4	125953.1	5680.161	-1415.43	1	5853.86	-13.99247	6.912468E-007	-0.0013036	7
	10	5	100078.1	5821.812	-1244.057	1	5953.249	-12.06206	1.136132E-007	-8.904753E-005	7
	11	5	79453.13	5937.726	-1122.053	1	6042.813	-10.70101	1.005865E-007	5.708254E-005	8
	12	5	63140.62	6054.615	-976.127	1	6132.796	-9.158438	-4.657826E-008	0.0001611	7
	13	6	50203.12	6142.49	-881.0869	1	6205.361	-8.162901	-4.715132E-008	0.0001595	7
	14	6	39890.62	6216.514	-809.5739	1	6269.008	-7.419846	1.136101E-007	-0.0001119	7
	15	6	31640.63	6280.372	-761.0408	1	6326.314	-6.909282	-3.237695E-008	0.0001728	7
	16	7	25171.88	6334.522	-730.7697	1	6376.535	-6.580724	-1.735273E-008	5.116897E-005	7
	17	7	20015.62	6389.071	-724.5883	1	6430.028	-6.470302	-2.367186E-008	5.689531E-005	7
	18	7	15890.62	6438.848	-742.2493	1	6481.488	-6.575845	-5.577109E-008	0.0001399	7
	19	8	12609.37	6488.902	-782.4104	1	6535.902	-6.875345	3.594454E-008	-5.995429E-005	7
	20	8	10078.13	6537.843	-841.1338	1	6591.729	-7.331182	6.461533E-008	3.065374E-005	7
	21	8	8015.625	6590.048	-934.7037	1	6656.005	-8.072737	-3.775845E-008	8.491061E-005	7
	22	9	6328.125	6643.968	-1062.838	1	6728.442	-9.088618	-1.705003E-008	4.611438E-005	7
	23	9	5015.625	6703.15	-1228.539	1	6814.802	-10.38578	2.102923E-008	-2.482208E-005	7
	24	9	3984.375	6768.201	-1438.593	1	6919.4	-11.99974	-5.482172E-008	0.0001307	7
	25	9	3170.956	6845.546	-1703.755	1	7054.381	-13.97611	6.362348E-008	2.598978E-005	7
	26	10	2527.573	6928.78	-2027.969	1	7219.464	-16.31411	-1.188307E-008	0.0001708	7
	27	10	1976.103	7040.448	-2464.08	1	7459.196	-19.28949	-3.505748E-008	7.047331E-005	7
	28	10	1577.524	7166.232	-2961.422	1	7754.025	-22.4527	-1.305948E-008	0.0001627	7
	29	11	1265.625	7309.088	-3552.75	1	8126.795	-25.92313	6.415511E-008	2.496646E-005	7
	30	11	998.264	7494.788	-4331.626	1	8656.49	-30.02584	-5.426211E-008	0.0001274	7
	31	11	796.875	7717.021	-5235.226	1	9325.234	-34.15297	-2.019995E-009	7.167662E-005	7
	32	12	627.7902	8001.722	-6394.016	1	10242.61	-38.62766	-7.542139E-009	0.0001457	6
	33	12	505.5147	8312.197	-7678.164	1	11315.78	-42.72935	-7.07419E-009	0.0001045	6
	34	12	397.9953	8723.606	-9397.984	1	12822.77	-47.13123	5.461172E-010	5.662318E-005	6
	35	13	315.5048	9210.463	-11442.19	1	14688.65	-51.16747	8.846551E-010	5.968915E-005	6
	36	13	252.4038	9778.75	-13829.12	1	16937.2	-54.73537	1.112335E-009	5.703875E-005	6
	37	13	198.6229	10516.41	-16957.51	1	19953.74	-58.19437	5.343359E-010	5.714602E-005	6
	38	14	158.3615	11368.14	-20575.97	1	23507.56	-61.07952	3.202744E-010	5.366695E-005	6
	39	14	125.558	12433.9	-25093.82	1	28005.39	-63.64174	5.924849E-010	5.643216E-005	6
	40	14	100.4464	13716.59	-30393.69	1	33345.48	-65.71048	1.044031E-009	5.412434E-005	6
	41	15	79.00281	15447.15	-37366.64	1	40433.65	-67.54008	3.312571E-010	4.984805E-005	6
	42	15	63.3446	17098.89	-45358.98	1	48474.83	-69.34515	8.229396E-010	4.689243E-005	6
	43	15	49.86702	19854.6	-55652.84	1	59088.44	-70.36573	8.220905E-010	4.724389E-005	6
	44	16	39.72458	23501.25	-67687.09	1	71650.89	-70.85278	9.629882E-010	4.996856E-005	6
	45	16	31.6723	28088.4	-82142.51	1	86812.16	-71.12202	1.04625E-009	4.842144E-005	6
	46	16	24.93351	34095.62	-100601.3	1	106222.1	-71.27754	2.541405E-010	4.957995E-005	6
	47	17	19.86229	41763.3	-121674.2	1	128642.1	-71.05579	-7.628193E-010	4.54868E-005	5
	48	17	15.83615	53069.47	-147404.3	1	156666.6	-70.19978	1.329131E-009	4.904135E-005	5
	49	17	12.40079	66339.01	-177998.5	1	189958.7	-69.55987	-1.889983E-010	5.285654E-005	5
	50	18	9.93114	84247.91	-211065.6	1	227258.5	-68.24033	-3.628837E-010	5.202975E-005	5
	51	18	7.944915	106254.5	-248922.7	1	270652	-66.88441	1.487156E-010	4.257273E-005	5
	52	19	6.317385	134358.8	-292306.9	1	321707.4	-65.31413	1.111102E-010	4.3171E-005	5
	53	20	5.008013	169392.5	-341392.3	1	381106.9	-63.61025	-6.739171E-011	3.972957E-005	5
	54	21	3.945707	212618.9	-396744.6	1	450125.6	-61.81276	2.367974E-010	4.163225E-005	5
	55	22	3.158693	259789.1	-452669.6	1	521919.7	-60.1483	4.959462E-012	5.559554E-005	5
	56	24	2.504006	315908.3	-517539.3	1	606337.4	-58.59992	-6.993107E-011	4.418789E-005	5
	57	25	1.998082	376968.2	-584577.6	1	695583.1	-57.18382	1.118144E-010	7.499241E-005	5
	58	26	1.584686	446415.1	-664283.3	1	800349.2	-56.0979	1.455626E-010	8.040427E-005	5
	59	28	1.266892	520366.6	-748329.8	1	911470.7	-55.18638	1.005291E-010	4.65106E-005	5
	60	31	0.999041	610786.5	-850100.4	1	1046772	-54.30323	4.261353E-011	5.865395E-005	4
