EXPLAIN
TAG	EISPOT
TITLE	LABEL	Potentiostatic EIS	Test &Identifier
DATE	LABEL	9/11/2020	Date
TIME	LABEL	20:10:38	Time
NOTES	NOTES	1	&Notes...
	
PSTAT	PSTAT	REF600-11020	Potentiostat
VDC	POTEN	0.00000E+000	T	DC &Voltage (V)
FREQINIT	QUANT	1.00000E+006	Initial Fre&q. (Hz)
FREQFINAL	QUANT	1.00000E+000	Final Fre&q. (Hz)
PTSPERDEC	QUANT	1.00000E+001	Points/&decade
VAC	QUANT	2.50000E+001	AC &Voltage (mV rms)
AREA	QUANT	4.00000E-005	&Area (cm^2)
CONDIT	TWOPARAM	F	5.00000E+000	0.00000E+000	Conditionin&g	Time(s)	E(V)
DELAY	TWOPARAM	F	3.00000E+000	0.00000E+000	Init. De&lay	Time(s)	Stab.(mV/s)
SPEED	SELECTOR	0	&Optimize for:
ZGUESS	QUANT	1.00000E+003	E&stimated Z (ohms)
OCVCURVE	TABLE	39
	Pt	T	Vf	Vm	Ach	Over
	#	s	V vs. Ref.	V	V	bits
	0	0.258333	-1.36402E-001	-1.36402E-001	5.58959E-004	...........
	1	0.516667	-1.36402E-001	-1.36400E-001	5.61559E-004	...........
	2	0.775	-1.36401E-001	-1.36398E-001	5.54725E-004	...........
	3	1.03333	-1.36401E-001	-1.36397E-001	5.54392E-004	...........
	4	1.29167	-1.36400E-001	-1.36397E-001	5.55325E-004	...........
	5	1.55	-1.36398E-001	-1.36397E-001	5.55792E-004	...........
	6	1.80833	-1.36398E-001	-1.36398E-001	5.59125E-004	...........
	7	2.06667	-1.36397E-001	-1.36397E-001	5.59092E-004	...........
	8	2.325	-1.36397E-001	-1.36396E-001	5.59859E-004	...........
	9	2.58333	-1.36397E-001	-1.36396E-001	5.59925E-004	...........
	10	2.84167	-1.36397E-001	-1.36397E-001	5.56925E-004	...........
	11	3.1	-1.36397E-001	-1.36399E-001	5.54959E-004	...........
	12	3.35833	-1.36397E-001	-1.36400E-001	5.54059E-004	...........
	13	3.61667	-1.36398E-001	-1.36402E-001	5.58759E-004	...........
	14	3.875	-1.36399E-001	-1.36402E-001	5.55859E-004	...........
	15	4.13333	-1.36400E-001	-1.36403E-001	5.60892E-004	...........
	16	4.39167	-1.36401E-001	-1.36406E-001	5.58359E-004	...........
	17	4.65	-1.36402E-001	-1.36409E-001	5.58559E-004	...........
	18	4.90833	-1.36404E-001	-1.36412E-001	5.63992E-004	...........
	19	5.16667	-1.36406E-001	-1.36415E-001	5.58825E-004	...........
	20	5.425	-1.36409E-001	-1.36417E-001	5.56159E-004	...........
	21	5.68333	-1.36412E-001	-1.36420E-001	5.58792E-004	...........
	22	5.94167	-1.36415E-001	-1.36425E-001	5.56492E-004	...........
	23	6.2	-1.36418E-001	-1.36428E-001	5.60292E-004	...........
	24	6.45833	-1.36421E-001	-1.36431E-001	5.58125E-004	...........
	25	6.71667	-1.36424E-001	-1.36434E-001	5.61492E-004	...........
	26	6.975	-1.36427E-001	-1.36436E-001	5.62459E-004	...........
	27	7.23333	-1.36430E-001	-1.36441E-001	5.61225E-004	...........
	28	7.49167	-1.36433E-001	-1.36442E-001	5.54159E-004	...........
	29	7.75	-1.36436E-001	-1.36444E-001	5.56059E-004	...........
	30	8.00833	-1.36439E-001	-1.36447E-001	5.63292E-004	...........
	31	8.26667	-1.36442E-001	-1.36449E-001	5.65192E-004	...........
	32	8.525	-1.36444E-001	-1.36449E-001	5.62125E-004	...........
	33	8.78333	-1.36446E-001	-1.36453E-001	5.62692E-004	...........
	34	9.04167	-1.36448E-001	-1.36453E-001	5.63325E-004	...........
	35	9.3	-1.36450E-001	-1.36456E-001	5.61959E-004	...........
	36	9.5583	-1.36452E-001	-1.36459E-001	5.66792E-004	...........
	37	9.8167	-1.36454E-001	-1.36464E-001	5.57025E-004	...........
	38	10.075	-1.36456E-001	-1.36470E-001	5.57559E-004	...........
EOC	QUANT	-0.1364564	Open Circuit (V)
PSTATMODEL	IQUANT	4	Pstat Model
PSTATSECTION	LABEL	REF600-11020	Pstat Section
PSTATSERIALNO	LABEL	11020	Pstat Serial Number
CTRLMODE	IQUANT	1	Control Mode
IESTAB	IQUANT	0	I/E Stability
CASPEED	IQUANT	1	Control Amp Speed
CONVENTION	IQUANT	1	Current Convention
ICHRANGE	IQUANT	2	Ich Range
ICHRANGEMODE	TOGGLE	F	Ich Auto Range
ICHOFFSETENABLE	TOGGLE	T	Ich Offset Enable
ICHOFFSET	QUANT	0	Ich Offset (V)
ICHFILTER	IQUANT	3	Ich Filter
VCHRANGE	IQUANT	2	Vch Range
VCHRANGEMODE	TOGGLE	F	Vch Auto Range
VCHOFFSETENABLE	TOGGLE	T	Vch Offset Enable
VCHOFFSET	QUANT	0	Vch Offset (V)
VCHFILTER	IQUANT	3	Vch Filter
ACHRANGE	IQUANT	2	Ach Range
ACHOFFSETENABLE	TOGGLE	F	Ach Offset Enable
ACHOFFSET	QUANT	0	Ach Offset (V)
ACHFILTER	IQUANT	3	Ach Filter
IERANGELOWERLIMIT	IQUANT	1	I/E Range Lower Limit
IERANGEMODE	TOGGLE	F	I/E AutoRange
IERANGE	IQUANT	8	I/E Range
POSFEEDENABLE	TOGGLE	F	Positive Feedback IR Comp
POSFEEDRESISTANCE	QUANT	0	Positive Feedback Resistance (ohm)
ACHSELECT	IQUANT	0	Ach Select
CABLEID	IQUANT	14	Cable ID
DCCALDATE	LABEL	9/1/2020	DC Calibration Date
ACCALDATE	LABEL	9/1/2020	AC Calibration Date
THERMOSELECT	IQUANT	1	Thermo Select
FRAMEWORKVERSION	QUANT	6.33	Framework Version
INSTRUMENTVERSION	LABEL	3.50	Instrument Version
ZCURVE	TABLE
	Pt	Time	Freq	Zreal	Zimag	Zsig	Zmod	Zphz	Idc	Vdc	IERange
	#	s	Hz	ohm	ohm	V	ohm	°	A	V	#
	0	2	1000078	1879.984	-2327.118	1	2991.625	-51.06666	4.119876E-008	-0.1344175	8
	1	2	794390.6	2327.59	-2533.874	1	3440.667	-47.42974	7.146809E-008	-0.1347243	8
	2	2	630984.4	2827.188	-2678.919	1	3894.817	-43.45751	7.112641E-008	-0.1348384	8
	3	3	501234.4	3355.906	-2752.352	1	4340.225	-39.35695	9.551168E-009	-0.1349091	8
	4	3	398109.4	3894.359	-2763.915	1	4775.485	-35.36419	9.018511E-008	-0.1349697	8
	5	3	316265.6	4403.199	-2698.033	1	5164.063	-31.49763	7.233048E-008	-0.1349911	8
	6	3	251203.1	4877.399	-2582.327	1	5518.825	-27.89887	4.648236E-008	-0.135007	8
	7	4	199546.9	5303.758	-2418.03	1	5828.955	-24.50866	5.702436E-008	-0.1350071	8
	8	4	158578.1	5674.795	-2249.934	1	6104.548	-21.62726	7.798467E-008	-0.1350067	8
	9	4	125953.1	6028.975	-2054.701	1	6369.485	-18.81934	-8.03633E-009	-0.1350004	7
	10	5	100078.1	6300.705	-1883.349	1	6576.16	-16.64198	2.714462E-009	-0.1350166	7
	11	5	79453.13	6534.027	-1739.479	1	6761.604	-14.90744	4.373429E-009	-0.1350211	7
	12	5	63140.62	6735.882	-1616.749	1	6927.191	-13.49684	3.265007E-009	-0.1350346	7
	13	6	50203.12	6909.815	-1517.132	1	7074.407	-12.38347	8.169354E-012	-0.1350331	7
	14	6	39890.62	7067.527	-1445.502	1	7213.835	-11.55913	1.608534E-009	-0.1350326	7
	15	6	31640.63	7212.795	-1400.524	1	7347.508	-10.9885	8.67961E-010	-0.1350385	7
	16	7	25171.88	7345.502	-1387.031	1	7475.31	-10.6931	5.579237E-009	-0.1350255	7
	17	7	20015.62	7472.87	-1403.497	1	7603.524	-10.63694	5.552514E-009	-0.1350336	7
	18	7	15890.62	7599.455	-1453.271	1	7737.165	-10.82617	4.375468E-009	-0.1350313	7
	19	8	12609.37	7728.647	-1539.137	1	7880.415	-11.26293	4.848817E-009	-0.1350316	7
	20	8	10078.13	7857.584	-1658.798	1	8030.768	-11.92056	6.174317E-009	-0.1350273	7
	21	8	8015.625	7996.646	-1822.12	1	8201.613	-12.83628	9.306458E-010	-0.1350375	7
	22	9	6328.125	8152.19	-2041.903	1	8404.021	-14.06175	3.252384E-010	-0.1350398	7
	23	9	5015.625	8320.945	-2316.459	1	8637.367	-15.55661	2.298776E-009	-0.1350447	7
	24	9	3984.375	8507.016	-2652.667	1	8911.002	-17.31858	8.29209E-010	-0.1350482	7
	25	9	3170.956	8732.931	-3043.869	1	9248.201	-19.21604	-2.237709E-010	-0.1350404	6
	26	10	2527.573	8964.45	-3541.224	1	9638.55	-21.55549	1.398547E-010	-0.1350433	6
	27	10	1976.103	9259.857	-4199.027	1	10167.44	-24.39266	-4.59432E-010	-0.1350422	6
	28	10	1577.524	9572.43	-4928.204	1	10766.55	-27.24091	-5.794448E-010	-0.1350423	6
	29	11	1265.625	9934.33	-5779.581	1	11493.23	-30.18993	-4.594886E-011	-0.1350486	6
	30	11	998.264	10393.34	-6880.052	1	12464.22	-33.50325	-5.103483E-010	-0.1350467	6
	31	11	796.875	10912.56	-8132.395	1	13609.55	-36.69467	2.734714E-010	-0.1350466	6
	32	12	627.7902	11573.74	-9713.04	1	15109.42	-40.00441	-4.361946E-010	-0.1350458	6
	33	12	505.5147	12289.37	-11425.69	1	16780.19	-42.91427	3.598894E-010	-0.1350462	6
	34	12	397.9953	13243.98	-13678.4	1	19039.48	-45.92445	4.999917E-010	-0.1350336	6
	35	13	315.5048	14368.83	-16288.16	1	21720.21	-48.58241	3.557054E-010	-0.1350283	6
	36	13	252.4038	15679.71	-19261.01	1	24836.26	-50.85217	3.887269E-010	-0.1350338	6
	37	13	198.6229	17400.05	-23045.08	1	28876.25	-52.94559	5.20014E-010	-0.1350361	6
	38	14	158.3615	19396.6	-27277.69	1	33470.89	-54.58416	3.639944E-010	-0.1350397	6
	39	14	125.558	21906.38	-32372.37	1	39087.85	-55.91378	2.607556E-010	-0.1350409	6
	40	14	100.4464	24859.55	-38094.29	1	45488.15	-56.87236	2.391957E-010	-0.135043	6
	41	15	79.00281	28762.69	-45265.36	1	53630.64	-57.56715	4.750025E-010	-0.1350466	6
	42	15	63.3446	33149.38	-52899.54	1	62427.9	-57.92677	5.204249E-010	-0.1350499	6
	43	15	49.86702	38908.62	-62405.33	1	73541.19	-58.05719	2.778915E-010	-0.1350508	6
	44	16	39.72458	45558.62	-72777.54	1	85861.27	-57.9535	3.875355E-010	-0.1350469	6
	45	16	31.6723	53498.37	-84551.02	1	100054.7	-57.67704	1.543722E-010	-0.1350481	6
	46	16	24.93351	63627.57	-98582.3	1	117332.6	-57.16076	6.538794E-011	-0.1350566	5
	47	17	19.86229	75164.99	-113896.8	1	136463.4	-56.57761	-8.890485E-010	-0.1350528	5
	48	17	15.83615	89064.59	-130772.5	1	158221.2	-55.74258	1.141652E-009	-0.1350553	5
	49	17	12.40079	107026.7	-150971.6	1	185059.9	-54.66643	1.725007E-009	-0.1350574	5
	50	17	9.93114	125998.4	-170627.5	1	212106.9	-53.55632	1.83617E-009	-0.1350531	5
	51	18	7.944915	148623.2	-192354.1	1	243082.3	-52.30838	-1.742253E-011	-0.1350649	5
	52	18	6.317385	174984	-215541	1	277628	-50.92905	3.335074E-010	-0.1350706	5
	53	19	5.008013	204882	-240080.5	1	315618.8	-49.52293	8.271696E-010	-0.1350581	5
	54	20	3.945707	238967.5	-265506.8	1	357210.5	-48.01143	1.066702E-010	-0.1350692	5
	55	21	3.158693	272402.6	-291328.6	1	398842.8	-46.92285	5.096137E-010	-0.1350547	5
	56	22	2.504006	309168.1	-319125.2	1	444326.2	-45.90794	4.590391E-011	-0.1350626	5
	57	23	1.998082	345396.4	-350806.6	1	492304.7	-45.44524	-9.956705E-011	-0.1350934	5
	58	25	1.584686	383178	-386623.2	1	544337.1	-45.25642	1.194679E-010	-0.1350476	5
	59	27	1.266892	422449.3	-429016.3	1	602095	-45.44189	2.047281E-010	-0.1350255	5
	60	29	0.999041	464879.3	-484268.6	1	671288.9	-46.17028	2.371676E-010	-0.1350264	5
