EXPLAIN
TAG	EISPOT
TITLE	LABEL	Potentiostatic EIS	Test &Identifier
DATE	LABEL	3/20/2020	Date
TIME	LABEL	15:14:04	Time
NOTES	NOTES	1	&Notes...
	
PSTAT	PSTAT	REF600-11020	Potentiostat
VDC	POTEN	0.00000E+000	T	DC &Voltage (V)
FREQINIT	QUANT	1.00000E+006	Initial Fre&q. (Hz)
FREQFINAL	QUANT	1.00000E+000	Final Fre&q. (Hz)
PTSPERDEC	QUANT	1.00000E+001	Points/&decade
VAC	QUANT	2.50000E+001	AC &Voltage (mV rms)
AREA	QUANT	4.00000E-004	&Area (cm^2)
CONDIT	TWOPARAM	F	5.00000E+000	0.00000E+000	Conditionin&g	Time(s)	E(V)
DELAY	TWOPARAM	T	3.00000E+000	0.00000E+000	Init. De&lay	Time(s)	Stab.(mV/s)
SPEED	SELECTOR	0	&Optimize for:
ZGUESS	QUANT	1.00000E+003	E&stimated Z (ohms)
OCVCURVE	TABLE	12
	Pt	T	Vf	Vm	Ach	Over
	#	s	V vs. Ref.	V	V	bits
	0	0.258333	-7.76622E-004	-7.76622E-004	5.42497E-004	...........
	1	0.516667	-7.66159E-004	-2.28930E-004	5.52264E-004	...........
	2	0.775	-7.05291E-004	1.13272E-004	5.52430E-004	...........
	3	1.03333	-5.50208E-004	1.34242E-004	5.38797E-004	...........
	4	1.29167	-3.19994E-004	1.61224E-004	5.43864E-004	...........
	5	1.55	-9.48453E-005	1.78436E-004	5.52630E-004	...........
	6	1.80833	6.15479E-005	1.59624E-004	5.59497E-004	...........
	7	2.06667	1.42603E-004	2.26222E-004	5.46164E-004	...........
	8	2.325	1.74233E-004	9.75085E-005	5.54430E-004	...........
	9	2.58333	1.81176E-004	2.40088E-004	5.63630E-004	...........
	10	2.84167	1.77522E-004	7.98124E-005	5.55897E-004	...........
	11	3.1	1.70427E-004	2.07978E-004	5.52830E-004	...........
EOC	QUANT	0.0001704	Open Circuit (V)
PSTATMODEL	IQUANT	4	Pstat Model
PSTATSECTION	LABEL	REF600-11020	Pstat Section
PSTATSERIALNO	LABEL	11020	Pstat Serial Number
CTRLMODE	IQUANT	1	Control Mode
IESTAB	IQUANT	0	I/E Stability
CASPEED	IQUANT	1	Control Amp Speed
CONVENTION	IQUANT	1	Current Convention
ICHRANGE	IQUANT	2	Ich Range
ICHRANGEMODE	TOGGLE	F	Ich Auto Range
ICHOFFSETENABLE	TOGGLE	T	Ich Offset Enable
ICHOFFSET	QUANT	0	Ich Offset (V)
ICHFILTER	IQUANT	3	Ich Filter
VCHRANGE	IQUANT	2	Vch Range
VCHRANGEMODE	TOGGLE	F	Vch Auto Range
VCHOFFSETENABLE	TOGGLE	T	Vch Offset Enable
VCHOFFSET	QUANT	0	Vch Offset (V)
VCHFILTER	IQUANT	3	Vch Filter
ACHRANGE	IQUANT	2	Ach Range
ACHOFFSETENABLE	TOGGLE	F	Ach Offset Enable
ACHOFFSET	QUANT	0	Ach Offset (V)
ACHFILTER	IQUANT	3	Ach Filter
IERANGELOWERLIMIT	IQUANT	1	I/E Range Lower Limit
IERANGEMODE	TOGGLE	F	I/E AutoRange
IERANGE	IQUANT	5	I/E Range
POSFEEDENABLE	TOGGLE	F	Positive Feedback IR Comp
POSFEEDRESISTANCE	QUANT	0	Positive Feedback Resistance (ohm)
ACHSELECT	IQUANT	0	Ach Select
CABLEID	IQUANT	14	Cable ID
DCCALDATE	LABEL	2/27/2020	DC Calibration Date
ACCALDATE	LABEL	2/27/2020	AC Calibration Date
THERMOSELECT	IQUANT	1	Thermo Select
FRAMEWORKVERSION	QUANT	6.33	Framework Version
INSTRUMENTVERSION	LABEL	3.50	Instrument Version
ZCURVE	TABLE
	Pt	Time	Freq	Zreal	Zimag	Zsig	Zmod	Zphz	Idc	Vdc	IERange
	#	s	Hz	ohm	ohm	V	ohm	°	A	V	#
	0	1	1000078	641.8502	-4677.66	1	4721.491	-82.18689	5.49569E-007	0.0027154	8
	1	1	794390.6	774.6541	-5787.351	1	5838.965	-82.37611	-2.269729E-007	0.0024242	8
	2	1	630984.4	912.2549	-7189.109	1	7246.758	-82.76816	-2.346541E-007	0.0022491	8
	3	2	501234.4	1131.984	-8905.803	1	8977.456	-82.75619	6.657809E-007	0.002053	8
	4	2	398109.4	1368.555	-11026.8	1	11111.41	-82.9251	-3.521932E-007	0.0021065	8
	5	2	316265.6	1644.506	-13675.68	1	13774.2	-83.14308	-7.354156E-008	0.0020014	8
	6	3	251203.1	2063.984	-16984.84	1	17109.79	-83.07143	-4.983826E-007	0.0020596	8
	7	3	199546.9	2519.53	-21076.39	1	21226.46	-83.18305	-6.158054E-008	0.0019754	8
	8	3	158578.1	3169.319	-26284.55	1	26474.94	-83.12463	6.927299E-007	0.0018417	8
	9	3	125953.1	4588.904	-32532.27	1	32854.32	-81.971	1.111782E-007	0.0016595	7
	10	4	100078.1	5655.231	-40068.04	1	40465.17	-81.9663	-5.26123E-009	0.0018969	7
	11	4	79453.13	7127.715	-49690.71	1	50199.31	-81.83708	-2.787457E-009	0.0018795	7
	12	4	63140.62	9170.205	-61580.46	1	62259.5	-81.53009	-5.476729E-009	0.0018816	7
	13	5	50203.12	12032.22	-76129.56	1	77074.54	-81.01873	-4.267048E-009	0.0018635	7
	14	5	39890.62	15614.17	-94278.68	1	95562.9	-80.59619	1.14926E-008	0.0018369	7
	15	5	31640.63	20886.42	-116641.3	1	118496.6	-79.84791	5.390347E-009	0.0018576	7
	16	6	25171.88	27989.54	-143195.8	1	145905.6	-78.94022	9.183933E-010	0.0018784	7
	17	6	20015.62	38271.78	-175176.3	1	179308.3	-77.67591	-4.852205E-009	0.0018778	7
	18	6	15890.62	52668.04	-214695.4	1	221061.1	-76.21666	-2.43197E-009	0.001864	7
	19	7	12609.37	76388.8	-262121.5	1	273025.5	-73.75255	1.251901E-010	0.0019317	6
	20	7	10078.13	102344.3	-315502	1	331686.4	-72.02768	2.346707E-009	0.0019035	6
	21	7	8015.625	140038.1	-378315.7	1	403402.3	-69.68736	5.648079E-010	0.0019066	6
	22	8	6328.125	191260.2	-451286.7	1	490143	-67.03224	4.322132E-010	0.0018921	6
	23	8	5015.625	262450	-532221.6	1	593413.7	-63.75109	-6.585351E-010	0.0019258	6
	24	8	3984.375	345156.2	-613004.3	1	703496.3	-60.61802	2.355468E-009	0.0018964	6
	25	9	3170.956	453077.9	-688655.3	1	824333.4	-56.65841	2.350176E-009	0.0018946	6
	26	9	2527.573	584486.3	-758213.9	1	957347	-52.37236	1.638311E-009	0.0019105	6
	27	9	1976.103	742048.9	-801438.9	1	1092218	-47.20353	-8.910781E-010	0.0019214	6
	28	10	1577.524	892844.5	-835717.9	1	1222946	-43.10714	4.264801E-010	0.0018954	6
	29	10	1265.625	1073768	-820696.5	1	1351488	-37.3912	-5.360313E-011	0.00192	5
	30	10	998.264	1228048	-806080.4	1	1468968	-33.28056	-1.098023E-010	0.0019195	5
	31	10	796.875	1365547	-782239.4	1	1573727	-29.80579	9.855249E-011	0.0019245	5
	32	11	627.7902	1494077	-743981.3	1	1669064	-26.47119	3.040099E-010	0.0018696	5
	33	11	505.5147	1599427	-705473.7	1	1748102	-23.80127	2.775136E-011	0.001907	5
	34	11	397.9953	1700335	-668867.3	1	1827162	-21.47338	7.538495E-011	0.0019248	5
	35	12	315.5048	1788791	-634418.3	1	1897962	-19.52772	7.445022E-011	0.0019236	5
	36	12	252.4038	1863392	-608762	1	1960311	-18.09199	1.028942E-010	0.0019211	5
	37	12	198.6229	1941787	-589907	1	2029416	-16.89857	9.134694E-011	0.0019233	5
	38	13	158.3615	2008748	-578919.8	1	2090506	-16.07695	1.420045E-010	0.00192	5
	39	13	125.558	2096718	-545842.3	1	2166604	-14.59202	8.258549E-011	0.0019163	4
	40	13	100.4464	2154126	-554254.6	1	2224288	-14.42917	9.148537E-011	0.0019133	4
	41	14	79.00281	2216300	-559095.3	1	2285732	-14.15833	8.032189E-011	0.0019139	4
	42	14	63.3446	2363629	-620964.8	1	2443837	-14.71992	1.163893E-011	0.0019123	4
	43	14	49.86702	2405127	-646043	1	2490383	-15.03536	8.554642E-011	0.0019121	4
	44	15	39.72458	2457720	-650762.6	1	2542416	-14.83061	8.729843E-011	0.0019164	4
	45	15	31.6723	2547726	-694648.7	1	2640728	-15.25124	9.388711E-011	0.0019104	4
	46	15	24.93351	2624765	-738575.6	1	2726699	-15.71593	7.096607E-011	0.0019104	4
	47	16	19.86229	2716714	-792656.6	1	2829990	-16.26568	3.490377E-011	0.0019104	4
	48	16	15.83615	2830517	-893253.6	1	2968119	-17.51464	5.153716E-011	0.0019113	4
	49	16	12.40079	2955386	-921170.5	1	3095620	-17.31184	4.469831E-011	0.0019088	4
	50	17	9.93114	3079289	-1030609	1	3247180	-18.50491	3.22161E-011	0.001915	4
	51	17	7.944915	3215731	-1128000	1	3407830	-19.32962	1.712448E-010	0.0019022	4
	52	18	6.317385	3387332	-1200686	1	3593837	-19.51757	1.476825E-010	0.0018936	4
	53	19	5.008013	3601677	-1294577	1	3827272	-19.77032	1.025326E-010	0.0019096	4
	54	20	3.945707	3801937	-1372594	1	4042121	-19.85085	7.795339E-011	0.0019162	4
	55	21	3.158693	4015571	-1434276	1	4264031	-19.65564	2.409663E-011	0.001903	4
	56	22	2.504006	4242568	-1495682	1	4498494	-19.41967	5.28087E-011	0.0018972	4
	57	24	1.998082	4463016	-1543403	1	4722351	-19.07644	8.294467E-011	0.0019316	4
	58	25	1.584686	4685930	-1598429	1	4951052	-18.83515	6.317241E-011	0.0018855	4
	59	27	1.266892	4904167	-1649622	1	5174177	-18.59147	2.515307E-011	0.0018612	4
	60	30	0.999041	5138776	-1715815	1	5417660	-18.46394	-9.5652E-012	0.0018596	4
