EXPLAIN
TAG	EISPOT
TITLE	LABEL	Potentiostatic EIS	Test &Identifier
DATE	LABEL	6/1/2020	Date
TIME	LABEL	14:06:16	Time
NOTES	NOTES	1	&Notes...
	
PSTAT	PSTAT	REF600-11020	Potentiostat
VDC	POTEN	0.00000E+000	T	DC &Voltage (V)
FREQINIT	QUANT	1.00000E+006	Initial Fre&q. (Hz)
FREQFINAL	QUANT	1.00000E+000	Final Fre&q. (Hz)
PTSPERDEC	QUANT	1.00000E+001	Points/&decade
VAC	QUANT	2.50000E+001	AC &Voltage (mV rms)
AREA	QUANT	4.00000E-004	&Area (cm^2)
CONDIT	TWOPARAM	F	5.00000E+000	0.00000E+000	Conditionin&g	Time(s)	E(V)
DELAY	TWOPARAM	T	3.00000E+000	0.00000E+000	Init. De&lay	Time(s)	Stab.(mV/s)
SPEED	SELECTOR	0	&Optimize for:
ZGUESS	QUANT	1.00000E+003	E&stimated Z (ohms)
OCVCURVE	TABLE	12
	Pt	T	Vf	Vm	Ach	Over
	#	s	V vs. Ref.	V	V	bits
	0	0.258333	-8.67448E-002	-8.67448E-002	5.95763E-004	...........
	1	0.516667	-8.67442E-002	-8.67120E-002	5.99196E-004	...........
	2	0.775	-8.67404E-002	-8.66830E-002	5.97230E-004	...........
	3	1.03333	-8.67298E-002	-8.66583E-002	5.89496E-004	...........
	4	1.29167	-8.67115E-002	-8.66419E-002	5.94696E-004	...........
	5	1.55	-8.66888E-002	-8.66293E-002	5.92463E-004	...........
	6	1.80833	-8.66664E-002	-8.66184E-002	5.92030E-004	...........
	7	2.06667	-8.66473E-002	-8.66077E-002	5.95830E-004	...........
	8	2.325	-8.66321E-002	-8.66006E-002	5.95863E-004	...........
	9	2.58333	-8.66199E-002	-8.65926E-002	5.95030E-004	...........
	10	2.84167	-8.66098E-002	-8.65828E-002	5.99596E-004	...........
	11	3.1	-8.66010E-002	-8.65787E-002	5.93563E-004	...........
EOC	QUANT	-0.086601	Open Circuit (V)
PSTATMODEL	IQUANT	4	Pstat Model
PSTATSECTION	LABEL	REF600-11020	Pstat Section
PSTATSERIALNO	LABEL	11020	Pstat Serial Number
CTRLMODE	IQUANT	1	Control Mode
IESTAB	IQUANT	0	I/E Stability
CASPEED	IQUANT	1	Control Amp Speed
CONVENTION	IQUANT	1	Current Convention
ICHRANGE	IQUANT	2	Ich Range
ICHRANGEMODE	TOGGLE	F	Ich Auto Range
ICHOFFSETENABLE	TOGGLE	T	Ich Offset Enable
ICHOFFSET	QUANT	0	Ich Offset (V)
ICHFILTER	IQUANT	3	Ich Filter
VCHRANGE	IQUANT	2	Vch Range
VCHRANGEMODE	TOGGLE	F	Vch Auto Range
VCHOFFSETENABLE	TOGGLE	T	Vch Offset Enable
VCHOFFSET	QUANT	0	Vch Offset (V)
VCHFILTER	IQUANT	3	Vch Filter
ACHRANGE	IQUANT	2	Ach Range
ACHOFFSETENABLE	TOGGLE	F	Ach Offset Enable
ACHOFFSET	QUANT	0	Ach Offset (V)
ACHFILTER	IQUANT	3	Ach Filter
IERANGELOWERLIMIT	IQUANT	1	I/E Range Lower Limit
IERANGEMODE	TOGGLE	F	I/E AutoRange
IERANGE	IQUANT	8	I/E Range
POSFEEDENABLE	TOGGLE	F	Positive Feedback IR Comp
POSFEEDRESISTANCE	QUANT	0	Positive Feedback Resistance (ohm)
ACHSELECT	IQUANT	0	Ach Select
CABLEID	IQUANT	14	Cable ID
DCCALDATE	LABEL	2/27/2020	DC Calibration Date
ACCALDATE	LABEL	2/27/2020	AC Calibration Date
THERMOSELECT	IQUANT	1	Thermo Select
FRAMEWORKVERSION	QUANT	6.33	Framework Version
INSTRUMENTVERSION	LABEL	3.50	Instrument Version
ZCURVE	TABLE
	Pt	Time	Freq	Zreal	Zimag	Zsig	Zmod	Zphz	Idc	Vdc	IERange
	#	s	Hz	ohm	ohm	V	ohm	°	A	V	#
	0	1	1000078	1374.53	-2809.617	1	3127.824	-63.93106	8.88145E-008	-0.083935	8
	1	1	794390.6	1663	-3331.677	1	3723.659	-63.47401	2.246234E-008	-0.0843337	8
	2	1	630984.4	2028.165	-3931.718	1	4424.01	-62.71318	6.237085E-008	-0.0845218	8
	3	2	501234.4	2481.358	-4622.184	1	5246.115	-61.77147	3.891585E-008	-0.0846632	8
	4	2	398109.4	3051.803	-5385.207	1	6189.827	-60.45972	5.590571E-008	-0.0847413	8
	5	2	316265.6	3755.191	-6230.225	1	7274.418	-58.92105	5.333695E-008	-0.0847842	8
	6	3	251203.1	4635.203	-7147.183	1	8518.646	-57.03515	1.990903E-008	-0.0847789	8
	7	3	199546.9	5678.343	-8130.26	1	9916.89	-55.06875	2.461738E-008	-0.0847781	8
	8	3	158578.1	6945.782	-9144.689	1	11483.43	-52.78178	3.935989E-008	-0.0848214	8
	9	4	125953.1	8620.508	-10079.16	1	13262.83	-49.46028	7.813017E-011	-0.0848732	7
	10	4	100078.1	10276.58	-11013.89	1	15063.66	-46.9834	2.620311E-009	-0.0848905	7
	11	4	79453.13	12166.81	-11910.99	1	17026.54	-44.39126	2.421072E-009	-0.0849	7
	12	5	63140.62	14229.48	-12653.1	1	19041.51	-41.64405	1.289821E-009	-0.0848967	7
	13	5	50203.12	16431.19	-13251.58	1	21108.96	-38.88582	1.812235E-009	-0.0848957	7
	14	5	39890.62	18729.42	-13669.8	1	23187.38	-36.1241	1.986008E-009	-0.0848942	7
	15	6	31640.63	21075.3	-13939.71	1	25268.24	-33.4816	2.728453E-009	-0.0849043	7
	16	6	25171.88	23341.41	-14025.3	1	27231.05	-31.00065	2.301836E-009	-0.0848974	7
	17	6	20015.62	25585.88	-14045.66	1	29187.63	-28.76509	3.252588E-009	-0.0849044	7
	18	6	15890.62	27734.73	-13970.51	1	31054.63	-26.73527	3.392451E-009	-0.0848915	7
	19	7	12609.37	30093.12	-13418.29	1	32949.15	-24.03172	4.104469E-010	-0.0848444	6
	20	7	10078.13	31919.75	-13383.56	1	34611.99	-22.7477	3.9029E-010	-0.0848435	6
	21	7	8015.625	33730.76	-13405.17	1	36296.87	-21.6737	3.127777E-010	-0.0848536	6
	22	8	6328.125	35549.52	-13521.63	1	38034.24	-20.82483	4.076323E-010	-0.0848483	6
	23	8	5015.625	37310.56	-13733.8	1	39757.95	-20.20836	4.978047E-010	-0.0848472	6
	24	8	3984.375	39059.71	-14077.01	1	41518.95	-19.81903	5.626524E-010	-0.0848565	6
	25	9	3170.956	40806.6	-14542.61	1	43320.51	-19.615	2.247981E-010	-0.0848579	6
	26	9	2527.573	42573.86	-15162.86	1	45193.43	-19.60357	1.72138E-010	-0.0848576	6
	27	9	1976.103	44572.31	-16029.72	1	47367.11	-19.78032	3.355972E-010	-0.0848521	6
	28	10	1577.524	46469.27	-16994.76	1	49479.44	-20.0885	2.21832E-010	-0.084857	6
	29	10	1265.625	48427.42	-18145.67	1	51715.37	-20.54089	2.135472E-010	-0.0848532	6
	30	10	998.264	50703.29	-19626.42	1	54369.29	-21.16061	3.075736E-010	-0.0848543	6
	31	11	796.875	53003.77	-21281.33	1	57116.5	-21.87576	1.86046E-010	-0.0848659	6
	32	11	627.7902	55630.1	-23331.71	1	60324.76	-22.75356	1.179621E-010	-0.0848657	6
	33	11	505.5147	58249.78	-25484.85	1	63580.77	-23.62985	3.795613E-010	-0.0848551	6
	34	12	397.9953	61420.81	-28231.68	1	67598.4	-24.68557	4.164158E-010	-0.0848418	6
	35	12	315.5048	64801.11	-31286.42	1	71958.49	-25.77157	4.480894E-010	-0.0848375	6
	36	12	252.4038	68374.4	-34628.88	1	76643.45	-26.86038	4.235706E-010	-0.0848425	6
	37	13	198.6229	72600.57	-38730.98	1	82285.67	-28.07905	4.457016E-010	-0.0848407	6
	38	13	158.3615	76997.93	-43165.08	1	88271.77	-29.27501	3.908862E-010	-0.084846	6
	39	13	125.558	82023.62	-48144.75	1	95109.4	-30.41132	1.021078E-010	-0.0848403	5
	40	13	100.4464	87237.52	-53887.48	1	102539	-31.70404	2.284507E-011	-0.0848446	5
	41	14	79.00281	93404.73	-61005.84	1	111562.3	-33.14993	1.496424E-010	-0.0848439	5
	42	14	63.3446	99642	-68577.05	1	120960.1	-34.53708	-1.541858E-011	-0.0848439	5
	43	14	49.86702	107054.3	-78098.95	1	132514.4	-36.11175	-1.085882E-010	-0.0848458	5
	44	15	39.72458	114816.1	-88697.79	1	145086.3	-37.68683	-1.075415E-011	-0.0848417	5
	45	15	31.6723	123335.5	-101051	1	159445.8	-39.32837	3.971602E-010	-0.0848465	5
	46	15	24.93351	133281	-116551.3	1	177053.8	-41.16898	-1.523963E-010	-0.084848	5
	47	16	19.86229	143795.5	-134283.8	1	196746.8	-43.04095	-7.778733E-010	-0.0848486	5
	48	16	15.83615	155924.8	-155002	1	219859.5	-44.82996	7.125738E-010	-0.084846	5
	49	16	12.40079	170775	-181905.8	1	249507.1	-46.80769	6.415291E-010	-0.0848481	5
	50	17	9.93114	186455.1	-210805.8	1	281433.1	-48.50764	7.970691E-010	-0.0848511	5
	51	17	7.944915	204874.3	-245923.4	1	320080.9	-50.20294	4.040933E-010	-0.0848503	5
	52	17	6.317385	227897.7	-287931.3	1	367208.1	-51.63837	6.574157E-011	-0.0848431	5
	53	18	5.008013	255941.6	-338027.8	1	423991.6	-52.86841	2.664194E-010	-0.0848404	5
	54	19	3.945707	291434.9	-397685.6	1	493039.7	-53.76501	1.45713E-010	-0.0848533	5
	55	20	3.158693	330385.2	-462055.4	1	568022.5	-54.43395	1.988214E-010	-0.0848367	5
	56	21	2.504006	379587.3	-537934.1	1	658376.5	-54.79171	-9.213827E-013	-0.0848505	5
	57	22	1.998082	433382.3	-621768.1	1	757902.2	-55.12289	2.846338E-011	-0.0848647	5
	58	24	1.584686	499908.9	-718580.3	1	875366.5	-55.17406	1.117096E-010	-0.0848177	5
	59	26	1.266892	573569	-829472.9	1	1008468	-55.33668	8.300264E-011	-0.0848193	4
	60	28	0.999041	658967.6	-963465	1	1167263	-55.62959	8.53853E-011	-0.0848419	4
