EXPLAIN
TAG	EISPOT
TITLE	LABEL	Potentiostatic EIS	Test &Identifier
DATE	LABEL	1/7/2020	Date
TIME	LABEL	15:51:22	Time
NOTES	NOTES	5	&Notes...
	
	
	
	
	
PSTAT	PSTAT	REF600-11020	Potentiostat
VDC	POTEN	0.00000E+000	T	DC &Voltage (V)
FREQINIT	QUANT	1.00000E+006	Initial Fre&q. (Hz)
FREQFINAL	QUANT	1.00000E+000	Final Fre&q. (Hz)
PTSPERDEC	QUANT	1.00000E+001	Points/&decade
VAC	QUANT	2.50000E+001	AC &Voltage (mV rms)
AREA	QUANT	1.00000E-001	&Area (cm^2)
CONDIT	TWOPARAM	T	5.00000E+000	0.00000E+000	Conditionin&g	Time(s)	E(V)
DELAY	TWOPARAM	T	5.00000E+000	0.00000E+000	Init. De&lay	Time(s)	Stab.(mV/s)
SPEED	SELECTOR	0	&Optimize for:
ZGUESS	QUANT	1.00000E+003	E&stimated Z (ohms)
OCVCURVE	TABLE	19
	Pt	T	Vf	Vm	Ach	Over
	#	s	V vs. Ref.	V	V	bits
	0	0.258333	2.81196E-002	2.81196E-002	5.34675E-004	...........
	1	0.516667	2.81434E-002	2.93649E-002	5.36641E-004	...........
	2	0.775	2.82890E-002	3.05179E-002	5.38441E-004	...........
	3	1.03333	2.86987E-002	3.16103E-002	5.36608E-004	...........
	4	1.29167	2.94262E-002	3.25990E-002	5.34141E-004	...........
	5	1.55	3.03823E-002	3.35664E-002	5.39175E-004	...........
	6	1.80833	3.14271E-002	3.44953E-002	5.36441E-004	...........
	7	2.06667	3.24624E-002	3.53336E-002	5.33875E-004	...........
	8	2.325	3.34457E-002	3.60877E-002	5.33641E-004	...........
	9	2.58333	3.43640E-002	3.68706E-002	5.29908E-004	...........
	10	2.84167	3.52196E-002	3.76232E-002	5.38641E-004	...........
	11	3.1	3.60257E-002	3.83272E-002	5.35575E-004	...........
	12	3.35833	3.67941E-002	3.88897E-002	5.33975E-004	...........
	13	3.61667	3.75236E-002	3.95351E-002	5.32942E-004	...........
	14	3.875	3.82097E-002	4.01731E-002	5.36841E-004	...........
	15	4.13333	3.88601E-002	4.07638E-002	5.34675E-004	...........
	16	4.39167	3.94885E-002	4.13064E-002	5.37775E-004	...........
	17	4.65	4.00998E-002	4.18867E-002	5.35541E-004	...........
	18	4.90833	4.06898E-002	4.22853E-002	5.34008E-004	...........
EOC	QUANT	0.0406898	Open Circuit (V)
PSTATMODEL	IQUANT	4	Pstat Model
PSTATSECTION	LABEL	REF600-11020	Pstat Section
PSTATSERIALNO	LABEL	11020	Pstat Serial Number
CTRLMODE	IQUANT	1	Control Mode
IESTAB	IQUANT	0	I/E Stability
CASPEED	IQUANT	1	Control Amp Speed
CONVENTION	IQUANT	1	Current Convention
ICHRANGE	IQUANT	2	Ich Range
ICHRANGEMODE	TOGGLE	F	Ich Auto Range
ICHOFFSETENABLE	TOGGLE	T	Ich Offset Enable
ICHOFFSET	QUANT	0	Ich Offset (V)
ICHFILTER	IQUANT	3	Ich Filter
VCHRANGE	IQUANT	2	Vch Range
VCHRANGEMODE	TOGGLE	F	Vch Auto Range
VCHOFFSETENABLE	TOGGLE	T	Vch Offset Enable
VCHOFFSET	QUANT	0	Vch Offset (V)
VCHFILTER	IQUANT	3	Vch Filter
ACHRANGE	IQUANT	2	Ach Range
ACHOFFSETENABLE	TOGGLE	F	Ach Offset Enable
ACHOFFSET	QUANT	0	Ach Offset (V)
ACHFILTER	IQUANT	1	Ach Filter
IERANGELOWERLIMIT	IQUANT	1	I/E Range Lower Limit
IERANGEMODE	TOGGLE	F	I/E AutoRange
IERANGE	IQUANT	7	I/E Range
POSFEEDENABLE	TOGGLE	F	Positive Feedback IR Comp
POSFEEDRESISTANCE	QUANT	0	Positive Feedback Resistance (ohm)
ACHSELECT	IQUANT	0	Ach Select
CABLEID	IQUANT	14	Cable ID
DCCALDATE	LABEL	12/22/2019	DC Calibration Date
ACCALDATE	LABEL	12/22/2019	AC Calibration Date
THERMOSELECT	IQUANT	1	Thermo Select
FRAMEWORKVERSION	QUANT	6.33	Framework Version
INSTRUMENTVERSION	LABEL	3.50	Instrument Version
ZCURVE	TABLE
	Pt	Time	Freq	Zreal	Zimag	Zsig	Zmod	Zphz	Idc	Vdc	IERange
	#	s	Hz	ohm	ohm	V	ohm	°	A	V	#
	0	1	1000078	1685.892	-2002.353	1	2617.565	-49.90411	-1.041064E-006	0.0417161	8
	1	2	794390.6	1824.712	-2262.864	1	2906.91	-51.11823	2.861701E-006	0.0418614	8
	2	2	630984.4	2032.214	-2593.785	1	3295.089	-51.92154	1.688588E-006	0.0413718	8
	3	2	501234.4	2181.103	-2999.534	1	3708.694	-53.97734	2.280002E-006	0.0415291	8
	4	3	398109.4	2411.159	-3499.523	1	4249.747	-55.4333	-7.006005E-006	0.0435078	8
	5	3	316265.6	2651.455	-4154.638	1	4928.614	-57.45432	2.752772E-006	0.0415606	8
	6	3	251203.1	2914.834	-4964.949	1	5757.341	-59.58355	5.341537E-006	0.0408393	8
	7	3	199546.9	3295.782	-5866.952	1	6729.287	-60.67474	-3.315036E-006	0.0427833	8
	8	4	158578.1	3875.776	-7114.265	1	8101.506	-61.41892	2.511813E-006	0.0416873	8
	9	4	125953.1	4584.83	-8495.431	1	9653.65	-61.64507	2.964656E-007	0.0409257	7
	10	5	100078.1	5284.625	-10130.45	1	11425.99	-62.45087	1.174599E-007	0.0418476	7
	11	5	79453.13	6299.832	-12124.96	1	13663.91	-62.54471	-5.680231E-008	0.0422316	7
	12	5	63140.62	7651.273	-14409.82	1	16315.18	-62.03276	1.909988E-007	0.0418241	7
	13	6	50203.12	9405.02	-16963.8	1	19396.52	-60.99527	-4.499602E-008	0.0420302	7
	14	6	39890.62	11623.35	-19803.22	1	22962.36	-59.58951	-4.479006E-008	0.0420316	7
	15	6	31640.63	14426.43	-22925.41	1	27086.83	-57.81875	-4.550625E-008	0.0420337	7
	16	7	25171.88	17782.56	-26321.5	1	31765.4	-55.95741	-2.130639E-008	0.0421911	7
	17	7	20015.62	21982.1	-29557.32	1	36835.42	-53.36142	-4.438688E-008	0.0420265	7
	18	7	15890.62	26833.78	-32808.34	1	42384.42	-50.72043	-7.285264E-008	0.0421014	7
	19	7	12609.37	33448.56	-35558.73	1	48818.33	-46.7515	1.492283E-008	0.0416787	6
	20	8	10078.13	39351.29	-38190.4	1	54836.4	-44.14228	-4.419313E-009	0.0419837	6
	21	8	8015.625	46027.57	-40322.09	1	61191.57	-41.21972	-2.176246E-008	0.0423347	6
	22	8	6328.125	53333.75	-41853.17	1	67795.1	-38.12273	7.3433E-009	0.042091	6
	23	9	5015.625	60420.2	-42864.01	1	74080.52	-35.3531	-9.443601E-009	0.0422747	6
	24	9	3984.375	67429.23	-43544.3	1	80267.09	-32.85348	-3.568462E-009	0.0419852	6
	25	9	3170.956	74303.6	-44052.89	1	86381.03	-30.66272	-6.955253E-009	0.0423056	6
	26	10	2527.573	81066.08	-44264.84	1	92363.88	-28.63604	-1.325041E-008	0.0422369	6
	27	10	1976.103	87304.06	-44822.97	1	98138.2	-27.17652	1.44774E-008	0.041676	6
	28	10	1577.524	94683.13	-44349.14	1	104555	-25.09818	-3.985984E-009	0.0418875	6
	29	11	1265.625	102274.7	-42453.67	1	110735.9	-22.54306	-1.373339E-009	0.042042	5
	30	11	998.264	108517.9	-42671.8	1	116606.2	-21.46593	-3.356376E-009	0.042269	5
	31	11	796.875	114348.5	-42973.5	1	122156.9	-20.5968	-2.632514E-009	0.0419956	5
	32	12	627.7902	120528.9	-43299.34	1	128070.5	-19.76054	-2.727258E-009	0.0420887	5
	33	12	505.5147	125994.1	-43706.84	1	133359.6	-19.13145	-2.154568E-010	0.0418504	5
	34	12	397.9953	132066.2	-44737.35	1	139437.9	-18.71378	-1.787686E-009	0.0420542	5
	35	13	315.5048	137721.6	-45859.99	1	145156.4	-18.41726	-1.955961E-009	0.0420506	5
	36	13	252.4038	143047.6	-47338.53	1	150677	-18.31085	-1.966754E-009	0.0420498	5
	37	13	198.6229	148930.3	-49896.3	1	157066.5	-18.52246	-2.129983E-009	0.0420481	5
	38	14	158.3615	153856.9	-52538.59	1	162580	-18.85386	-2.587466E-009	0.0420461	5
	39	14	125.558	160179.8	-56713.34	1	169923.5	-19.49704	-1.975766E-009	0.0420473	5
	40	14	100.4464	165561	-60780.66	1	176365.3	-20.15917	-2.711167E-009	0.0420479	5
	41	14	79.00281	174188.7	-67094.88	1	186663.9	-21.06594	-2.824514E-009	0.0420468	5
	42	15	63.3446	185860.5	-78512.49	1	201763	-22.90051	-1.955679E-009	0.0420459	5
	43	15	49.86702	191776.4	-88311.29	1	211132.9	-24.72564	-1.739146E-009	0.0420438	5
	44	16	39.72458	198891.2	-95771.5	1	220748.5	-25.71206	-2.16463E-009	0.0420515	5
	45	16	31.6723	208607.7	-107641.2	1	234742	-27.29365	-1.944269E-009	0.0420479	5
	46	16	24.93351	223252.7	-124708	1	255722.3	-29.18752	-2.636483E-009	0.0420412	5
	47	17	19.86229	239447.1	-141804.1	1	278286.3	-30.63464	-3.61769E-009	0.042044	5
	48	17	15.83615	257702.7	-157704.9	1	302128.3	-31.46516	-1.638397E-009	0.0420433	5
	49	17	12.40079	281632.8	-178125.2	1	333235.1	-32.31224	-2.320845E-009	0.0420481	5
	50	18	9.93114	306863.3	-200525.6	1	366572.8	-33.16337	-1.865476E-009	0.0420425	5
	51	18	7.944915	333420.5	-222876.9	1	401052.7	-33.76098	-2.853895E-009	0.042052	5
	52	19	6.317385	364684.9	-245233.9	1	439471	-33.91903	-2.712198E-009	0.0420571	5
	53	19	5.008013	400022.2	-270407.3	1	482843.5	-34.05793	-2.230008E-009	0.0420506	5
	54	21	3.945707	439407.6	-296326.2	1	529988.9	-33.9948	-2.293098E-009	0.0420376	5
	55	22	3.158693	482318.2	-324761.2	1	581464.3	-33.95373	-2.085104E-009	0.042042	5
	56	24	2.504006	528038.2	-357046.7	1	637421.9	-34.06561	-2.115007E-009	0.0420542	5
	57	25	1.998082	575597	-389624.1	1	695067.5	-34.09424	-2.448276E-009	0.0420085	5
	58	26	1.584686	626492.8	-430050.8	1	759892.8	-34.46733	-2.422013E-009	0.042036	5
	59	28	1.266892	678577.8	-472956.6	1	827137.1	-34.87581	-2.365677E-009	0.0420748	5
	60	31	0.999041	739458.9	-525182.4	1	906981.8	-35.38334	-2.250499E-009	0.0420878	5
