EXPLAIN
TAG	EISPOT
TITLE	LABEL	Potentiostatic EIS	Test &Identifier
DATE	LABEL	2/11/2020	Date
TIME	LABEL	12:03:57	Time
NOTES	NOTES	6	&Notes...
	
	
	
	
	
	
PSTAT	PSTAT	REF600-11020	Potentiostat
VDC	POTEN	0.00000E+000	T	DC &Voltage (V)
FREQINIT	QUANT	1.00000E+006	Initial Fre&q. (Hz)
FREQFINAL	QUANT	1.00000E+000	Final Fre&q. (Hz)
PTSPERDEC	QUANT	1.00000E+001	Points/&decade
VAC	QUANT	2.50000E+001	AC &Voltage (mV rms)
AREA	QUANT	4.00000E-005	&Area (cm^2)
CONDIT	TWOPARAM	F	5.00000E+000	0.00000E+000	Conditionin&g	Time(s)	E(V)
DELAY	TWOPARAM	F	5.00000E+000	0.00000E+000	Init. De&lay	Time(s)	Stab.(mV/s)
SPEED	SELECTOR	0	&Optimize for:
ZGUESS	QUANT	1.00000E+003	E&stimated Z (ohms)
OCVCURVE	TABLE	39
	Pt	T	Vf	Vm	Ach	Over
	#	s	V vs. Ref.	V	V	bits
	0	0.258333	1.10595E-002	1.10595E-002	5.53071E-004	...........
	1	0.516667	1.10623E-002	1.12038E-002	5.42871E-004	...........
	2	0.775	1.10791E-002	1.13362E-002	5.52204E-004	...........
	3	1.03333	1.11265E-002	1.14646E-002	5.52971E-004	...........
	4	1.29167	1.12112E-002	1.16061E-002	5.45371E-004	...........
	5	1.55	1.13251E-002	1.17374E-002	5.46938E-004	...........
	6	1.80833	1.14544E-002	1.18540E-002	5.60371E-004	...........
	7	2.06667	1.15874E-002	1.19559E-002	5.59904E-004	...........
	8	2.325	1.17152E-002	1.20400E-002	5.46371E-004	...........
	9	2.58333	1.18323E-002	1.21224E-002	5.52738E-004	...........
	10	2.84167	1.19368E-002	1.22095E-002	5.63438E-004	...........
	11	3.1	1.20308E-002	1.23005E-002	5.60971E-004	...........
	12	3.35833	1.21189E-002	1.23827E-002	5.52471E-004	...........
	13	3.61667	1.22049E-002	1.24531E-002	5.49238E-004	...........
	14	3.875	1.22888E-002	1.25161E-002	5.56471E-004	...........
	15	4.13333	1.23682E-002	1.25699E-002	5.62638E-004	...........
	16	4.39167	1.24408E-002	1.26328E-002	5.54005E-004	...........
	17	4.65	1.25070E-002	1.27065E-002	5.51038E-004	...........
	18	4.90833	1.25700E-002	1.27623E-002	5.63504E-004	...........
	19	5.16667	1.26327E-002	1.28225E-002	5.60938E-004	...........
	20	5.425	1.26953E-002	1.28798E-002	5.44571E-004	...........
	21	5.68333	1.27568E-002	1.29362E-002	5.52438E-004	...........
	22	5.94167	1.28164E-002	1.29868E-002	5.62604E-004	...........
	23	6.2	1.28739E-002	1.30369E-002	5.60104E-004	...........
	24	6.45833	1.29289E-002	1.30836E-002	5.57004E-004	...........
	25	6.71667	1.29817E-002	1.31524E-002	5.61204E-004	...........
	26	6.975	1.30337E-002	1.31850E-002	5.67204E-004	...........
	27	7.23333	1.30851E-002	1.32146E-002	5.57771E-004	...........
	28	7.49167	1.31335E-002	1.32554E-002	5.52105E-004	...........
	29	7.75	1.31769E-002	1.32986E-002	5.65071E-004	...........
	30	8.00833	1.32166E-002	1.33460E-002	5.57671E-004	...........
	31	8.26667	1.32561E-002	1.33802E-002	5.52038E-004	...........
	32	8.525	1.32968E-002	1.34237E-002	5.54971E-004	...........
	33	8.78333	1.33381E-002	1.34645E-002	5.69838E-004	...........
	34	9.04167	1.33790E-002	1.34921E-002	5.71204E-004	...........
	35	9.3	1.34184E-002	1.35178E-002	5.52871E-004	...........
	36	9.5583	1.34550E-002	1.35600E-002	5.55438E-004	...........
	37	9.8167	1.34888E-002	1.35883E-002	5.74437E-004	...........
	38	10.075	1.35214E-002	1.36218E-002	5.69038E-004	...........
EOC	QUANT	0.0135214	Open Circuit (V)
PSTATMODEL	IQUANT	4	Pstat Model
PSTATSECTION	LABEL	REF600-11020	Pstat Section
PSTATSERIALNO	LABEL	11020	Pstat Serial Number
CTRLMODE	IQUANT	1	Control Mode
IESTAB	IQUANT	0	I/E Stability
CASPEED	IQUANT	1	Control Amp Speed
CONVENTION	IQUANT	1	Current Convention
ICHRANGE	IQUANT	2	Ich Range
ICHRANGEMODE	TOGGLE	F	Ich Auto Range
ICHOFFSETENABLE	TOGGLE	T	Ich Offset Enable
ICHOFFSET	QUANT	0	Ich Offset (V)
ICHFILTER	IQUANT	3	Ich Filter
VCHRANGE	IQUANT	2	Vch Range
VCHRANGEMODE	TOGGLE	F	Vch Auto Range
VCHOFFSETENABLE	TOGGLE	T	Vch Offset Enable
VCHOFFSET	QUANT	0	Vch Offset (V)
VCHFILTER	IQUANT	3	Vch Filter
ACHRANGE	IQUANT	2	Ach Range
ACHOFFSETENABLE	TOGGLE	F	Ach Offset Enable
ACHOFFSET	QUANT	0	Ach Offset (V)
ACHFILTER	IQUANT	3	Ach Filter
IERANGELOWERLIMIT	IQUANT	1	I/E Range Lower Limit
IERANGEMODE	TOGGLE	F	I/E AutoRange
IERANGE	IQUANT	7	I/E Range
POSFEEDENABLE	TOGGLE	F	Positive Feedback IR Comp
POSFEEDRESISTANCE	QUANT	0	Positive Feedback Resistance (ohm)
ACHSELECT	IQUANT	0	Ach Select
CABLEID	IQUANT	14	Cable ID
DCCALDATE	LABEL	1/27/2020	DC Calibration Date
ACCALDATE	LABEL	1/27/2020	AC Calibration Date
THERMOSELECT	IQUANT	1	Thermo Select
FRAMEWORKVERSION	QUANT	6.33	Framework Version
INSTRUMENTVERSION	LABEL	3.50	Instrument Version
ZCURVE	TABLE
	Pt	Time	Freq	Zreal	Zimag	Zsig	Zmod	Zphz	Idc	Vdc	IERange
	#	s	Hz	ohm	ohm	V	ohm	°	A	V	#
	0	1	1000078	2461.246	-1785.297	1	3040.562	-35.95575	-3.717891E-006	0.0163349	8
	1	2	794390.6	2784.474	-1728.14	1	3277.158	-31.82516	-1.041174E-006	0.0157224	8
	2	2	630984.4	3128.767	-1643.814	1	3534.304	-27.71686	-1.384784E-006	0.0156678	8
	3	2	501234.4	3411.074	-1509.703	1	3730.232	-23.87364	-5.105554E-006	0.0163712	8
	4	2	398109.4	3660.961	-1380.129	1	3912.466	-20.65571	-7.333375E-007	0.0155668	8
	5	3	316265.6	3837.165	-1211.985	1	4024.02	-17.52895	1.921265E-006	0.014759	8
	6	3	251203.1	4009.969	-1085.452	1	4154.282	-15.14633	2.39845E-006	0.0145963	8
	7	3	199546.9	4144.186	-980.331	1	4258.559	-13.309	1.083066E-006	0.0148081	8
	8	4	158578.1	4231.236	-844.9313	1	4314.773	-11.2928	1.591686E-006	0.0146538	8
	9	4	125953.1	4333.901	-742.3707	1	4397.023	-9.72008	7.310139E-007	0.014088	7
	10	4	100078.1	4402.241	-675.192	1	4453.718	-8.719768	4.761195E-008	0.014922	7
	11	5	79453.13	4456.952	-635.9564	1	4502.095	-8.120641	2.741389E-008	0.0149638	7
	12	5	63140.62	4508.265	-616.1788	1	4550.179	-7.782825	4.699939E-008	0.0149146	7
	13	5	50203.12	4559.326	-610.785	1	4600.055	-7.630138	-1.015374E-008	0.0151057	7
	14	6	39890.62	4610.143	-622.0427	1	4651.919	-7.684461	1.348067E-007	0.0148627	7
	15	6	31640.63	4662.623	-649.6462	1	4707.663	-7.931993	4.770727E-008	0.0149095	7
	16	6	25171.88	4718.405	-695.1087	1	4769.331	-8.380454	-6.017774E-008	0.015135	7
	17	7	20015.62	4779.699	-755.5638	1	4839.05	-8.982854	-4.680561E-008	0.0150931	7
	18	7	15890.62	4848.251	-838.7935	1	4920.275	-9.81555	1.352676E-007	0.0148543	7
	19	7	12609.37	4924.58	-941.6977	1	5013.809	-10.82564	-2.272421E-008	0.015046	7
	20	8	10078.13	5007.778	-1061.496	1	5119.044	-11.96781	-3.888735E-008	0.0151008	7
	21	8	8015.625	5102.157	-1211.536	1	5244.028	-13.35782	-2.450884E-008	0.0150405	7
	22	8	6328.125	5218.667	-1394.541	1	5401.78	-14.96111	-4.210185E-008	0.0150735	7
	23	8	5015.625	5348.46	-1611.698	1	5586.018	-16.76958	-4.018284E-008	0.0150985	7
	24	9	3984.375	5498.004	-1866.274	1	5806.12	-18.74956	-1.023955E-010	0.014976	7
	25	9	3170.956	5668.293	-2166.7	1	6068.289	-20.91931	-1.480907E-008	0.0151778	7
	26	9	2527.573	5862.144	-2513.754	1	6378.376	-23.21021	-4.62492E-009	0.0150759	7
	27	10	1976.103	6112.524	-2959.803	1	6791.42	-25.83717	-4.497386E-008	0.0150772	7
	28	10	1577.524	6377.431	-3444.346	1	7248.113	-28.37276	-5.339266E-008	0.0151474	7
	29	10	1265.625	6684.137	-3995.636	1	7787.348	-30.87009	-3.291128E-008	0.0151594	7
	30	11	998.264	7064.821	-4686.018	1	8477.646	-33.55588	-5.667573E-008	0.0151518	7
	31	11	796.875	7488.012	-5453.67	1	9263.522	-36.0666	1.395804E-007	0.0148291	7
	32	11	627.7902	8013.382	-6408.635	1	10260.84	-38.65078	-5.487044E-009	0.0150442	6
	33	12	505.5147	8560.269	-7417.438	1	11326.81	-40.9088	-1.102037E-008	0.0151246	6
	34	12	397.9953	9259.906	-8722.66	1	12721.27	-43.28874	1.397498E-009	0.015045	6
	35	12	315.5048	10047.67	-10211.65	1	14325.97	-45.46373	8.229197E-010	0.0150468	6
	36	13	252.4038	10913.74	-11887.3	1	16137.46	-47.44495	1.194527E-009	0.0150441	6
	37	13	198.6229	11977.57	-14010.7	1	18432.63	-49.4733	4.881888E-010	0.0150431	6
	38	13	158.3615	13126.26	-16390.67	1	20998.88	-51.31096	1.154123E-009	0.0150404	6
	39	14	125.558	14479.64	-19293.38	1	24122.49	-53.11184	8.52469E-010	0.015046	6
	40	14	100.4464	15998.16	-22637.86	1	27720.28	-54.75118	-6.411831E-011	0.015043	6
	41	14	79.00281	17889.82	-26997.27	1	32386.7	-56.46943	7.223308E-010	0.0150403	6
	42	15	63.3446	19786.02	-31364.97	1	37084.33	-57.75497	1.01513E-009	0.0150446	6
	43	15	49.86702	22585.97	-37589.14	1	43852.82	-58.99985	1.148036E-009	0.0150376	6
	44	15	39.72458	25719.72	-44833.49	1	51687	-60.15831	1.14896E-010	0.0150398	6
	45	16	31.6723	29501.42	-53291.41	1	60912.29	-61.03167	2.638277E-010	0.0150391	6
	46	16	24.93351	34699.86	-63503.18	1	72365.27	-61.34661	-2.412557E-010	0.01504	6
	47	16	19.86229	40706.64	-74907.65	1	85253.66	-61.47927	-1.031577E-009	0.0150346	6
	48	17	15.83615	47432.29	-88126.44	1	100080.4	-61.70953	3.108208E-010	0.0150347	6
	49	17	12.40079	58037.77	-104846.1	1	119837.7	-61.03318	1.634146E-010	0.01504	5
	50	17	9.93114	68962.09	-121569	1	139766.9	-60.43519	7.390027E-010	0.015027	5
	51	18	7.944915	82084.7	-141151	1	163283.5	-59.82035	-3.66073E-010	0.0150353	5
	52	18	6.317385	98101.1	-163029.3	1	190269.3	-58.96303	-7.409269E-011	0.015037	5
	53	19	5.008013	117193.1	-188085.4	1	221608.5	-58.07359	2.936302E-010	0.0150359	5
	54	20	3.945707	139930.3	-216626.2	1	257890.3	-57.13944	-1.79766E-010	0.0150247	5
	55	22	3.158693	164583.6	-246413.1	1	296322.8	-56.26036	1.102309E-010	0.0150193	5
	56	23	2.504006	193090.7	-280930.1	1	340889.6	-55.49822	2.889423E-010	0.0150288	5
	57	25	1.998082	223971.7	-317478	1	388530.1	-54.79811	-8.643221E-011	0.0149832	5
	58	26	1.584686	258040.9	-361602	1	444230.9	-54.48816	-8.837106E-011	0.0149878	5
	59	28	1.266892	293192.3	-408806.8	1	503075.3	-54.35228	2.041195E-011	0.0150238	5
	60	31	0.999041	334460.3	-467600.4	1	574903.3	-54.42501	7.730694E-011	0.015049	5
