EXPLAIN
TAG	EISPOT
TITLE	LABEL	Potentiostatic EIS	Test &Identifier
DATE	LABEL	9/11/2020	Date
TIME	LABEL	20:19:19	Time
NOTES	NOTES	1	&Notes...
	
PSTAT	PSTAT	REF600-11020	Potentiostat
VDC	POTEN	0.00000E+000	T	DC &Voltage (V)
FREQINIT	QUANT	1.00000E+006	Initial Fre&q. (Hz)
FREQFINAL	QUANT	1.00000E+000	Final Fre&q. (Hz)
PTSPERDEC	QUANT	1.00000E+001	Points/&decade
VAC	QUANT	2.50000E+001	AC &Voltage (mV rms)
AREA	QUANT	4.00000E-005	&Area (cm^2)
CONDIT	TWOPARAM	F	5.00000E+000	0.00000E+000	Conditionin&g	Time(s)	E(V)
DELAY	TWOPARAM	F	3.00000E+000	0.00000E+000	Init. De&lay	Time(s)	Stab.(mV/s)
SPEED	SELECTOR	0	&Optimize for:
ZGUESS	QUANT	1.00000E+003	E&stimated Z (ohms)
OCVCURVE	TABLE	39
	Pt	T	Vf	Vm	Ach	Over
	#	s	V vs. Ref.	V	V	bits
	0	0.258333	-1.61616E-001	-1.61616E-001	5.62225E-004	...........
	1	0.516667	-1.61613E-001	-1.61464E-001	5.60292E-004	...........
	2	0.775	-1.61595E-001	-1.61323E-001	5.57359E-004	...........
	3	1.03333	-1.61545E-001	-1.61194E-001	5.63725E-004	...........
	4	1.29167	-1.61457E-001	-1.61067E-001	5.62425E-004	...........
	5	1.55	-1.61340E-001	-1.60951E-001	5.65392E-004	...........
	6	1.80833	-1.61213E-001	-1.60843E-001	5.60492E-004	...........
	7	2.06667	-1.61087E-001	-1.60739E-001	5.63392E-004	...........
	8	2.325	-1.60967E-001	-1.60644E-001	5.60992E-004	...........
	9	2.58333	-1.60856E-001	-1.60555E-001	5.57192E-004	...........
	10	2.84167	-1.60752E-001	-1.60466E-001	5.61159E-004	...........
	11	3.1	-1.60655E-001	-1.60386E-001	5.65892E-004	...........
	12	3.35833	-1.60564E-001	-1.60305E-001	5.64492E-004	...........
	13	3.61667	-1.60477E-001	-1.60225E-001	5.63992E-004	...........
	14	3.875	-1.60393E-001	-1.60152E-001	5.62692E-004	...........
	15	4.13333	-1.60313E-001	-1.60085E-001	5.67225E-004	...........
	16	4.39167	-1.60235E-001	-1.60019E-001	5.66725E-004	...........
	17	4.65	-1.60162E-001	-1.59959E-001	5.62592E-004	...........
	18	4.90833	-1.60093E-001	-1.59901E-001	5.63392E-004	...........
	19	5.16667	-1.60027E-001	-1.59839E-001	5.62625E-004	...........
	20	5.425	-1.59965E-001	-1.59781E-001	5.66259E-004	...........
	21	5.68333	-1.59904E-001	-1.59726E-001	5.67892E-004	...........
	22	5.94167	-1.59845E-001	-1.59674E-001	5.63292E-004	...........
	23	6.2	-1.59788E-001	-1.59624E-001	5.66392E-004	...........
	24	6.45833	-1.59732E-001	-1.59576E-001	5.67225E-004	...........
	25	6.71667	-1.59680E-001	-1.59532E-001	5.68625E-004	...........
	26	6.975	-1.59630E-001	-1.59485E-001	5.68258E-004	...........
	27	7.23333	-1.59582E-001	-1.59445E-001	5.67525E-004	...........
	28	7.49167	-1.59535E-001	-1.59398E-001	5.60192E-004	...........
	29	7.75	-1.59491E-001	-1.59357E-001	5.63958E-004	...........
	30	8.00833	-1.59447E-001	-1.59320E-001	5.61625E-004	...........
	31	8.26667	-1.59404E-001	-1.59282E-001	5.65358E-004	...........
	32	8.525	-1.59363E-001	-1.59240E-001	5.65558E-004	...........
	33	8.78333	-1.59323E-001	-1.59203E-001	5.62559E-004	...........
	34	9.04167	-1.59283E-001	-1.59164E-001	5.64492E-004	...........
	35	9.3	-1.59244E-001	-1.59128E-001	5.62825E-004	...........
	36	9.5583	-1.59206E-001	-1.59092E-001	5.62825E-004	...........
	37	9.8167	-1.59168E-001	-1.59059E-001	5.66159E-004	...........
	38	10.075	-1.59132E-001	-1.59024E-001	5.62159E-004	...........
EOC	QUANT	-0.1591318	Open Circuit (V)
PSTATMODEL	IQUANT	4	Pstat Model
PSTATSECTION	LABEL	REF600-11020	Pstat Section
PSTATSERIALNO	LABEL	11020	Pstat Serial Number
CTRLMODE	IQUANT	1	Control Mode
IESTAB	IQUANT	0	I/E Stability
CASPEED	IQUANT	1	Control Amp Speed
CONVENTION	IQUANT	1	Current Convention
ICHRANGE	IQUANT	2	Ich Range
ICHRANGEMODE	TOGGLE	F	Ich Auto Range
ICHOFFSETENABLE	TOGGLE	T	Ich Offset Enable
ICHOFFSET	QUANT	0	Ich Offset (V)
ICHFILTER	IQUANT	3	Ich Filter
VCHRANGE	IQUANT	2	Vch Range
VCHRANGEMODE	TOGGLE	F	Vch Auto Range
VCHOFFSETENABLE	TOGGLE	T	Vch Offset Enable
VCHOFFSET	QUANT	0	Vch Offset (V)
VCHFILTER	IQUANT	3	Vch Filter
ACHRANGE	IQUANT	2	Ach Range
ACHOFFSETENABLE	TOGGLE	F	Ach Offset Enable
ACHOFFSET	QUANT	0	Ach Offset (V)
ACHFILTER	IQUANT	3	Ach Filter
IERANGELOWERLIMIT	IQUANT	1	I/E Range Lower Limit
IERANGEMODE	TOGGLE	F	I/E AutoRange
IERANGE	IQUANT	8	I/E Range
POSFEEDENABLE	TOGGLE	F	Positive Feedback IR Comp
POSFEEDRESISTANCE	QUANT	0	Positive Feedback Resistance (ohm)
ACHSELECT	IQUANT	0	Ach Select
CABLEID	IQUANT	14	Cable ID
DCCALDATE	LABEL	9/1/2020	DC Calibration Date
ACCALDATE	LABEL	9/1/2020	AC Calibration Date
THERMOSELECT	IQUANT	1	Thermo Select
FRAMEWORKVERSION	QUANT	6.33	Framework Version
INSTRUMENTVERSION	LABEL	3.50	Instrument Version
ZCURVE	TABLE
	Pt	Time	Freq	Zreal	Zimag	Zsig	Zmod	Zphz	Idc	Vdc	IERange
	#	s	Hz	ohm	ohm	V	ohm	°	A	V	#
	0	1	1000078	1598.517	-3206.147	1	3582.546	-63.50013	2.873718E-007	-0.1571418	8
	1	1	794390.6	1961.114	-3757.766	1	4238.723	-62.44072	-2.548988E-008	-0.1574826	8
	2	2	630984.4	2404.758	-4366.924	1	4985.267	-61.1595	4.547662E-008	-0.1575899	8
	3	2	501234.4	2930.55	-5047.584	1	5836.628	-59.86121	1.194605E-007	-0.1577197	8
	4	2	398109.4	3536.251	-5803.65	1	6796.134	-58.64542	4.659464E-008	-0.1577387	8
	5	3	316265.6	4261.16	-6630.261	1	7881.487	-57.27181	5.574121E-008	-0.1577791	8
	6	3	251203.1	5080.21	-7558.471	1	9107.086	-56.0941	8.883065E-008	-0.1577785	8
	7	3	199546.9	6023.101	-8562.927	1	10469.07	-54.87772	9.88787E-008	-0.1577737	8
	8	4	158578.1	7105.771	-9700.25	1	12024.43	-53.77593	8.728859E-008	-0.1577718	8
	9	4	125953.1	8457.971	-10909.94	1	13804.49	-52.21524	-5.496508E-009	-0.1577774	7
	10	4	100078.1	9879.62	-12308.71	1	15783.26	-51.24765	7.492606E-009	-0.1577988	7
	11	4	79453.13	11527.49	-13827.78	1	18002.51	-50.18382	-6.666212E-010	-0.1578001	7
	12	5	63140.62	13388.77	-15503.08	1	20484.26	-49.18545	7.912512E-009	-0.1578111	7
	13	5	50203.12	15558.33	-17267.88	1	23243.09	-47.9812	-1.12044E-009	-0.1578036	7
	14	5	39890.62	18008.08	-19141.88	1	26281.23	-46.7481	-3.014191E-010	-0.1577993	7
	15	6	31640.63	20819.47	-21193.12	1	29708.56	-45.50956	9.251755E-009	-0.1578058	7
	16	6	25171.88	23960.64	-23241.83	1	33381.05	-44.12755	9.313636E-009	-0.1578064	7
	17	6	20015.62	27480	-25217.41	1	37297.03	-42.54149	6.566752E-010	-0.1578078	7
	18	7	15890.62	31380.24	-27297.84	1	41591.96	-41.02018	-1.027933E-009	-0.1578066	7
	19	7	12609.37	36083.63	-29140.21	1	46380.82	-38.92345	1.052007E-009	-0.1578292	6
	20	7	10078.13	40426.82	-31102.61	1	51006.86	-37.57309	1.432835E-009	-0.1578243	6
	21	8	8015.625	45229.43	-32970.47	1	55971	-36.09057	5.839808E-010	-0.1578131	6
	22	8	6328.125	50404.09	-34864.59	1	61287.13	-34.67167	1.37158E-009	-0.1578281	6
	23	8	5015.625	55776	-36586.07	1	66704.59	-33.26273	-4.174706E-010	-0.1577987	6
	24	9	3984.375	61315.27	-38304.77	1	72296.74	-31.99377	1.26E-011	-0.1578219	6
	25	9	3170.956	67039.49	-39978.56	1	78054.97	-30.80946	1.525732E-009	-0.1578269	6
	26	9	2527.573	72872.95	-41620.67	1	83921.08	-29.73242	1.516683E-009	-0.157829	6
	27	10	1976.103	79391.26	-43360.9	1	90460.7	-28.64192	-2.368378E-010	-0.1578232	6
	28	10	1577.524	85532.53	-45065.46	1	96678.4	-27.78389	8.644613E-010	-0.1578203	6
	29	10	1265.625	92791.55	-45383.96	1	103295.6	-26.06307	-8.693381E-011	-0.1578225	5
	30	11	998.264	99370.8	-47577.9	1	110173.6	-25.5847	-2.202398E-010	-0.1578166	5
	31	11	796.875	105885.7	-49814.58	1	117018.3	-25.19493	-6.714913E-011	-0.1578423	5
	32	11	627.7902	112855.9	-52509.26	1	124473.6	-24.95149	-2.423923E-010	-0.1578146	5
	33	11	505.5147	119490.2	-55287.87	1	131661.1	-24.82989	-7.664837E-011	-0.1578203	5
	34	12	397.9953	127107.9	-58745.03	1	140026.4	-24.80481	-5.367049E-011	-0.157815	5
	35	12	315.5048	134920.5	-62631.09	1	148748.7	-24.90108	-6.37991E-011	-0.157811	5
	36	12	252.4038	142903.7	-66896.84	1	157786.7	-25.08548	-7.755357E-011	-0.1578182	5
	37	13	198.6229	152118.5	-72081.62	1	168332.4	-25.35401	-6.061947E-011	-0.1578128	5
	38	13	158.3615	161567.1	-77565.7	1	179221.6	-25.64489	-7.321439E-011	-0.157818	5
	39	13	125.558	171987.5	-83705.31	1	191275.4	-25.95192	-1.017627E-010	-0.1578242	5
	40	14	100.4464	182692.7	-90140.31	1	203720.2	-26.26166	-2.026615E-010	-0.1578197	5
	41	14	79.00281	194958.5	-97750.5	1	218091.7	-26.62879	-1.337077E-010	-0.1578222	5
	42	14	63.3446	206827.4	-105620.6	1	232235.4	-27.05205	-7.776793E-011	-0.1578232	5
	43	15	49.86702	220450	-115446.3	1	248849.4	-27.64036	6.493231E-011	-0.1578263	5
	44	15	39.72458	234322.6	-126355.2	1	266219.3	-28.33516	-7.403824E-011	-0.1578218	5
	45	15	31.6723	249475.1	-139048.6	1	285608.7	-29.13374	-1.995139E-010	-0.1578241	5
	46	16	24.93351	267323.8	-154579.1	1	308798.8	-30.03851	3.710605E-010	-0.1578303	5
	47	16	19.86229	286732.3	-172055.5	1	334392.8	-30.96612	1.07954E-009	-0.1578178	5
	48	16	15.83615	309519.4	-190561.5	1	363477.5	-31.61932	-6.948225E-010	-0.1578259	5
	49	17	12.40079	336937.7	-212609.6	1	398409.2	-32.25215	-5.236707E-010	-0.1578174	5
	50	17	9.93114	365000.9	-233365.6	1	433226.5	-32.59306	-8.583448E-010	-0.1578212	5
	51	17	7.944915	396547.7	-257202.8	1	472655.7	-32.96764	-6.550401E-010	-0.1578205	5
	52	18	6.317385	432928	-281085.1	1	516173.9	-32.99427	-8.957689E-011	-0.1578307	5
	53	18	5.008013	472512.6	-306829.2	1	563393.5	-32.99794	-3.846116E-010	-0.1578338	5
	54	19	3.945707	517772.5	-334391.6	1	616365.2	-32.85548	-2.945452E-010	-0.1578265	5
	55	20	3.158693	561129.9	-361917.2	1	667720.6	-32.82118	-2.724144E-010	-0.1578427	5
	56	21	2.504006	610858.1	-391652	1	725630.1	-32.66599	7.512962E-011	-0.1578386	5
	57	23	1.998082	660048.3	-424936.7	1	785006.3	-32.77329	7.912904E-011	-0.1578345	5
	58	24	1.584686	714911.2	-460624.7	1	850454.6	-32.7941	-9.601069E-011	-0.1578786	5
	59	26	1.266892	771952.7	-502047.8	1	920849.1	-33.0384	-1.507379E-010	-0.1578774	5
	60	29	0.999041	836743.2	-552750.1	1	1002832	-33.44863	-2.063882E-010	-0.1578598	4
