EXPLAIN
TAG	EISPOT
TITLE	LABEL	Potentiostatic EIS	Test &Identifier
DATE	LABEL	6/26/2020	Date
TIME	LABEL	14:27:32	Time
NOTES	NOTES	1	&Notes...
	
PSTAT	PSTAT	REF600-11020	Potentiostat
VDC	POTEN	0.00000E+000	T	DC &Voltage (V)
FREQINIT	QUANT	1.00000E+006	Initial Fre&q. (Hz)
FREQFINAL	QUANT	1.00000E+000	Final Fre&q. (Hz)
PTSPERDEC	QUANT	1.00000E+001	Points/&decade
VAC	QUANT	2.50000E+001	AC &Voltage (mV rms)
AREA	QUANT	4.00000E-004	&Area (cm^2)
CONDIT	TWOPARAM	F	5.00000E+000	0.00000E+000	Conditionin&g	Time(s)	E(V)
DELAY	TWOPARAM	F	3.00000E+000	0.00000E+000	Init. De&lay	Time(s)	Stab.(mV/s)
SPEED	SELECTOR	0	&Optimize for:
ZGUESS	QUANT	1.00000E+003	E&stimated Z (ohms)
OCVCURVE	TABLE	39
	Pt	T	Vf	Vm	Ach	Over
	#	s	V vs. Ref.	V	V	bits
	0	0.258333	8.00776E-002	8.00776E-002	5.33750E-004	...........
	1	0.516667	8.00785E-002	8.01237E-002	5.39450E-004	...........
	2	0.775	8.00839E-002	8.01692E-002	5.38016E-004	...........
	3	1.03333	8.00995E-002	8.02147E-002	5.36983E-004	...........
	4	1.29167	8.01277E-002	8.02606E-002	5.37716E-004	...........
	5	1.55	8.01661E-002	8.03069E-002	5.38050E-004	...........
	6	1.80833	8.02102E-002	8.03540E-002	5.40883E-004	...........
	7	2.06667	8.02564E-002	8.03968E-002	5.37750E-004	...........
	8	2.325	8.03028E-002	8.04415E-002	5.35816E-004	...........
	9	2.58333	8.03486E-002	8.04892E-002	5.37216E-004	...........
	10	2.84167	8.03939E-002	8.05291E-002	5.37583E-004	...........
	11	3.1	8.04388E-002	8.05740E-002	5.35416E-004	...........
	12	3.35833	8.04831E-002	8.06181E-002	5.34917E-004	...........
	13	3.61667	8.05270E-002	8.06616E-002	5.37116E-004	...........
	14	3.875	8.05707E-002	8.07034E-002	5.37616E-004	...........
	15	4.13333	8.06142E-002	8.07468E-002	5.38050E-004	...........
	16	4.39167	8.06575E-002	8.07922E-002	5.38183E-004	...........
	17	4.65	8.07009E-002	8.08383E-002	5.37316E-004	...........
	18	4.90833	8.07447E-002	8.08827E-002	5.37750E-004	...........
	19	5.16667	8.07892E-002	8.09265E-002	5.40316E-004	...........
	20	5.425	8.08339E-002	8.09689E-002	5.39850E-004	...........
	21	5.68333	8.08786E-002	8.10178E-002	5.39116E-004	...........
	22	5.94167	8.09231E-002	8.10612E-002	5.43550E-004	...........
	23	6.2	8.09677E-002	8.11048E-002	5.32117E-004	...........
	24	6.45833	8.10125E-002	8.11448E-002	5.32050E-004	...........
	25	6.71667	8.10568E-002	8.11924E-002	5.33917E-004	...........
	26	6.975	8.11005E-002	8.12336E-002	5.36883E-004	...........
	27	7.23333	8.11439E-002	8.12772E-002	5.38616E-004	...........
	28	7.49167	8.11873E-002	8.13206E-002	5.34650E-004	...........
	29	7.75	8.12306E-002	8.13631E-002	5.39250E-004	...........
	30	8.00833	8.12739E-002	8.14070E-002	5.33383E-004	...........
	31	8.26667	8.13170E-002	8.14464E-002	5.37050E-004	...........
	32	8.525	8.13598E-002	8.14897E-002	5.32350E-004	...........
	33	8.78333	8.14022E-002	8.15312E-002	5.33950E-004	...........
	34	9.04167	8.14442E-002	8.15725E-002	5.38250E-004	...........
	35	9.3	8.14860E-002	8.16131E-002	5.31550E-004	...........
	36	9.5583	8.15277E-002	8.16549E-002	5.35583E-004	...........
	37	9.8167	8.15690E-002	8.16951E-002	5.38816E-004	...........
	38	10.075	8.16102E-002	8.17354E-002	5.39416E-004	...........
EOC	QUANT	0.0816102	Open Circuit (V)
PSTATMODEL	IQUANT	4	Pstat Model
PSTATSECTION	LABEL	REF600-11020	Pstat Section
PSTATSERIALNO	LABEL	11020	Pstat Serial Number
CTRLMODE	IQUANT	1	Control Mode
IESTAB	IQUANT	0	I/E Stability
CASPEED	IQUANT	1	Control Amp Speed
CONVENTION	IQUANT	1	Current Convention
ICHRANGE	IQUANT	2	Ich Range
ICHRANGEMODE	TOGGLE	F	Ich Auto Range
ICHOFFSETENABLE	TOGGLE	T	Ich Offset Enable
ICHOFFSET	QUANT	0	Ich Offset (V)
ICHFILTER	IQUANT	3	Ich Filter
VCHRANGE	IQUANT	2	Vch Range
VCHRANGEMODE	TOGGLE	F	Vch Auto Range
VCHOFFSETENABLE	TOGGLE	T	Vch Offset Enable
VCHOFFSET	QUANT	0	Vch Offset (V)
VCHFILTER	IQUANT	3	Vch Filter
ACHRANGE	IQUANT	2	Ach Range
ACHOFFSETENABLE	TOGGLE	F	Ach Offset Enable
ACHOFFSET	QUANT	0	Ach Offset (V)
ACHFILTER	IQUANT	3	Ach Filter
IERANGELOWERLIMIT	IQUANT	1	I/E Range Lower Limit
IERANGEMODE	TOGGLE	F	I/E AutoRange
IERANGE	IQUANT	8	I/E Range
POSFEEDENABLE	TOGGLE	F	Positive Feedback IR Comp
POSFEEDRESISTANCE	QUANT	0	Positive Feedback Resistance (ohm)
ACHSELECT	IQUANT	0	Ach Select
CABLEID	IQUANT	14	Cable ID
DCCALDATE	LABEL	6/26/2020	DC Calibration Date
ACCALDATE	LABEL	6/26/2020	AC Calibration Date
THERMOSELECT	IQUANT	1	Thermo Select
FRAMEWORKVERSION	QUANT	6.33	Framework Version
INSTRUMENTVERSION	LABEL	3.50	Instrument Version
ZCURVE	TABLE
	Pt	Time	Freq	Zreal	Zimag	Zsig	Zmod	Zphz	Idc	Vdc	IERange
	#	s	Hz	ohm	ohm	V	ohm	°	A	V	#
	0	1	1000078	1204.158	-572.0462	1	1333.129	-25.41048	1.568977E-007	0.0840002	8
	1	2	794390.6	1280.523	-585.193	1	1407.902	-24.56018	4.501717E-009	0.0836259	8
	2	2	630984.4	1357.844	-603.2556	1	1485.819	-23.95436	1.178333E-008	0.0834703	8
	3	2	501234.4	1436.38	-626.8967	1	1567.222	-23.57849	7.230498E-008	0.0833509	8
	4	2	398109.4	1517.503	-654.8137	1	1652.754	-23.34056	9.362751E-008	0.0833234	8
	5	3	316265.6	1603.691	-690.419	1	1745.997	-23.29278	8.40064E-008	0.0833004	8
	6	3	251203.1	1693.775	-732.5355	1	1845.395	-23.38785	8.37945E-008	0.0832909	8
	7	3	199546.9	1793.886	-780.6216	1	1956.373	-23.51659	-1.767906E-008	0.0832737	8
	8	4	158578.1	1897.487	-834.4707	1	2072.872	-23.73878	8.747085E-008	0.083285	8
	9	4	125953.1	2033.036	-868.0089	1	2210.583	-23.12016	1.980101E-008	0.083281	7
	10	4	100078.1	2161.037	-930.2143	1	2352.739	-23.28937	1.761439E-008	0.0832366	7
	11	5	79453.13	2288.655	-1001.434	1	2498.162	-23.63248	1.352787E-008	0.0832364	7
	12	5	63140.62	2426.175	-1076.535	1	2654.289	-23.92768	-1.290081E-008	0.0832567	7
	13	5	50203.12	2573.267	-1155.461	1	2820.779	-24.18127	-3.459043E-009	0.0832265	7
	14	5	39890.62	2727.451	-1236.97	1	2994.843	-24.39553	-1.617797E-008	0.0832541	7
	15	6	31640.63	2887.265	-1326.67	1	3177.475	-24.67832	5.398414E-009	0.0832328	7
	16	6	25171.88	3048.572	-1425.322	1	3365.313	-25.05785	8.991078E-009	0.0832145	7
	17	6	20015.62	3210.072	-1538.092	1	3559.535	-25.6012	1.773914E-008	0.0832183	7
	18	7	15890.62	3371.989	-1673.795	1	3764.558	-26.39898	1.062412E-008	0.0832278	7
	19	7	12609.37	3533.215	-1842.085	1	3984.581	-27.53584	1.359327E-008	0.0832224	7
	20	7	10078.13	3689.427	-2043.934	1	4217.765	-28.98635	7.417383E-009	0.0832319	7
	21	8	8015.625	3850.072	-2304.922	1	4487.284	-30.90768	3.057437E-009	0.0832097	7
	22	8	6328.125	4020.474	-2642.96	1	4811.387	-33.31993	1.409958E-008	0.083223	7
	23	8	5015.625	4197.496	-3065.789	1	5197.888	-36.14384	1.430275E-008	0.0832196	7
	24	9	3984.375	4390.354	-3589.208	1	5670.769	-39.26674	7.375224E-009	0.083224	7
	25	9	3170.956	4603.834	-4244.145	1	6261.633	-42.67208	1.295724E-008	0.0831929	7
	26	9	2527.573	4851.447	-5043.77	1	6998.296	-46.11346	1.519219E-008	0.0831973	7
	27	10	1976.103	5181.854	-6112.239	1	8013.181	-49.70928	-1.618099E-008	0.0832282	7
	28	10	1577.524	5549.99	-7333.94	1	9197.231	-52.88323	1.737311E-008	0.0832018	7
	29	10	1265.625	6018.556	-8765.919	1	10633.17	-55.52706	2.762149E-009	0.0831887	6
	30	11	998.264	6635.182	-10659.71	1	12556.08	-58.09964	2.429656E-009	0.0832031	6
	31	11	796.875	7395.667	-12831.08	1	14809.88	-60.04141	3.22402E-010	0.0832328	6
	32	11	627.7902	8449.506	-15608.5	1	17748.78	-61.57154	2.624095E-009	0.0831833	6
	33	12	505.5147	9726.71	-18601.37	1	20990.95	-62.3948	2.554423E-009	0.083205	6
	34	12	397.9953	11580.07	-22518.5	1	25321.55	-62.78564	2.009628E-010	0.0832376	6
	35	12	315.5048	13999.74	-26953.92	1	30372.79	-62.55285	9.648575E-011	0.0832407	6
	36	12	252.4038	17029.54	-31854.97	1	36121.24	-61.87122	1.24533E-010	0.0832311	6
	37	13	198.6229	21304.52	-37601.95	1	43217.93	-60.46496	1.514843E-010	0.0832331	6
	38	13	158.3615	26426.66	-43321.05	1	50745.26	-58.61602	1.170988E-010	0.0832346	6
	39	13	125.558	32744.13	-49481.27	1	59334.42	-56.50548	1.330654E-010	0.0832332	6
	40	14	100.4464	39772.13	-55498.63	1	68278.26	-54.37338	1.989566E-010	0.0832295	6
	41	14	79.00281	48101.43	-61662.66	1	78205.05	-52.04314	-2.733893E-011	0.0832277	6
	42	14	63.3446	56122.95	-67196.65	1	87550.98	-50.13121	-1.244979E-010	0.0832283	6
	43	15	49.86702	64992.72	-73643.33	1	98221.1	-48.57051	-1.785791E-010	0.0832187	5
	44	15	39.72458	73256.18	-80537.85	1	108870.6	-47.71075	4.135047E-011	0.08322	5
	45	15	31.6723	81933.48	-89194.55	1	121114.7	-47.42964	-3.157324E-010	0.0832211	5
	46	16	24.93351	91244.71	-100211.2	1	135528.2	-47.68139	-2.348547E-010	0.0832181	5
	47	16	19.86229	100501.6	-113225.8	1	151395.7	-48.40705	-1.174203E-009	0.0832157	5
	48	16	15.83615	110112.5	-128313	1	169082.8	-49.3653	3.671826E-010	0.0832162	5
	49	17	12.40079	122418.8	-148701.1	1	192609.4	-50.53694	4.857012E-010	0.0832147	5
	50	17	9.93114	135928.7	-170958.6	1	218411.2	-51.51188	8.223152E-010	0.0832166	5
	51	17	7.944915	152721	-198064.3	1	250106.3	-52.36533	-5.084311E-010	0.0832164	5
	52	18	6.317385	174054.5	-230015.4	1	288447.7	-52.88491	2.328079E-011	0.0831995	5
	53	18	5.008013	199146.2	-266933.8	1	333035.9	-53.27519	-1.480682E-011	0.0832121	5
	54	19	3.945707	230268.8	-310426	1	386507.4	-53.43259	-4.493156E-010	0.0832113	5
	55	20	3.158693	264317.1	-355025.5	1	442613.4	-53.33226	-1.714807E-010	0.0832028	5
	56	21	2.504006	305666.8	-407701.1	1	509561	-53.13991	6.512351E-012	0.0831975	5
	57	23	1.998082	351839.1	-463674.7	1	582052.4	-52.80856	-1.935346E-010	0.0831525	5
	58	24	1.584686	405431.8	-529672	1	667028.8	-52.56813	-2.079513E-010	0.0831459	5
	59	26	1.266892	460910.7	-599964.5	1	756568.6	-52.46745	-1.516445E-010	0.0831764	5
	60	29	0.999041	528190.9	-684287	1	864427.2	-52.33598	-1.180272E-010	0.0832074	5
