EXPLAIN
TAG	EISPOT
TITLE	LABEL	Potentiostatic EIS	Test &Identifier
DATE	LABEL	7/13/2020	Date
TIME	LABEL	20:55:05	Time
NOTES	NOTES	1	&Notes...
	
PSTAT	PSTAT	REF600-11020	Potentiostat
VDC	POTEN	0.00000E+000	T	DC &Voltage (V)
FREQINIT	QUANT	1.00000E+006	Initial Fre&q. (Hz)
FREQFINAL	QUANT	1.00000E+000	Final Fre&q. (Hz)
PTSPERDEC	QUANT	1.00000E+001	Points/&decade
VAC	QUANT	2.50000E+001	AC &Voltage (mV rms)
AREA	QUANT	4.00000E-004	&Area (cm^2)
CONDIT	TWOPARAM	F	5.00000E+000	0.00000E+000	Conditionin&g	Time(s)	E(V)
DELAY	TWOPARAM	F	3.00000E+000	0.00000E+000	Init. De&lay	Time(s)	Stab.(mV/s)
SPEED	SELECTOR	0	&Optimize for:
ZGUESS	QUANT	1.00000E+003	E&stimated Z (ohms)
OCVCURVE	TABLE	39
	Pt	T	Vf	Vm	Ach	Over
	#	s	V vs. Ref.	V	V	bits
	0	0.258333	1.64500E-001	1.64500E-001	4.62918E-004	...........
	1	0.516667	1.64499E-001	1.64447E-001	4.59084E-004	...........
	2	0.775	1.64493E-001	1.64396E-001	4.46718E-004	...........
	3	1.03333	1.64476E-001	1.64350E-001	4.44484E-004	...........
	4	1.29167	1.64444E-001	1.64302E-001	4.60051E-004	...........
	5	1.55	1.64402E-001	1.64258E-001	4.59684E-004	...........
	6	1.80833	1.64356E-001	1.64220E-001	4.51684E-004	...........
	7	2.06667	1.64309E-001	1.64185E-001	4.53451E-004	...........
	8	2.325	1.64266E-001	1.64149E-001	4.60784E-004	...........
	9	2.58333	1.64226E-001	1.64117E-001	4.61218E-004	...........
	10	2.84167	1.64188E-001	1.64083E-001	4.49851E-004	...........
	11	3.1	1.64153E-001	1.64054E-001	4.58651E-004	...........
	12	3.35833	1.64120E-001	1.64022E-001	4.65784E-004	...........
	13	3.61667	1.64087E-001	1.63993E-001	4.54684E-004	...........
	14	3.875	1.64056E-001	1.63969E-001	4.52551E-004	...........
	15	4.13333	1.64026E-001	1.63938E-001	4.61818E-004	...........
	16	4.39167	1.63997E-001	1.63913E-001	4.64218E-004	...........
	17	4.65	1.63969E-001	1.63884E-001	4.42451E-004	...........
	18	4.90833	1.63942E-001	1.63860E-001	4.49318E-004	...........
	19	5.16667	1.63914E-001	1.63834E-001	4.60818E-004	...........
	20	5.425	1.63888E-001	1.63810E-001	4.63051E-004	...........
	21	5.68333	1.63862E-001	1.63790E-001	4.53884E-004	...........
	22	5.94167	1.63837E-001	1.63771E-001	4.52484E-004	...........
	23	6.2	1.63814E-001	1.63747E-001	4.61884E-004	...........
	24	6.45833	1.63792E-001	1.63727E-001	4.60818E-004	...........
	25	6.71667	1.63771E-001	1.63708E-001	4.51684E-004	...........
	26	6.975	1.63750E-001	1.63685E-001	4.49384E-004	...........
	27	7.23333	1.63729E-001	1.63664E-001	4.66518E-004	...........
	28	7.49167	1.63708E-001	1.63646E-001	4.60218E-004	...........
	29	7.75	1.63687E-001	1.63628E-001	4.56351E-004	...........
	30	8.00833	1.63667E-001	1.63608E-001	4.62518E-004	...........
	31	8.26667	1.63648E-001	1.63588E-001	4.67118E-004	...........
	32	8.525	1.63629E-001	1.63572E-001	4.57951E-004	...........
	33	8.78333	1.63610E-001	1.63553E-001	4.51051E-004	...........
	34	9.04167	1.63591E-001	1.63536E-001	4.58384E-004	...........
	35	9.3	1.63573E-001	1.63518E-001	4.59651E-004	...........
	36	9.5583	1.63555E-001	1.63503E-001	4.57684E-004	...........
	37	9.8167	1.63537E-001	1.63485E-001	4.50584E-004	...........
	38	10.075	1.63520E-001	1.63471E-001	4.59851E-004	...........
EOC	QUANT	0.1635203	Open Circuit (V)
PSTATMODEL	IQUANT	4	Pstat Model
PSTATSECTION	LABEL	REF600-11020	Pstat Section
PSTATSERIALNO	LABEL	11020	Pstat Serial Number
CTRLMODE	IQUANT	1	Control Mode
IESTAB	IQUANT	0	I/E Stability
CASPEED	IQUANT	1	Control Amp Speed
CONVENTION	IQUANT	1	Current Convention
ICHRANGE	IQUANT	2	Ich Range
ICHRANGEMODE	TOGGLE	F	Ich Auto Range
ICHOFFSETENABLE	TOGGLE	T	Ich Offset Enable
ICHOFFSET	QUANT	0	Ich Offset (V)
ICHFILTER	IQUANT	3	Ich Filter
VCHRANGE	IQUANT	2	Vch Range
VCHRANGEMODE	TOGGLE	F	Vch Auto Range
VCHOFFSETENABLE	TOGGLE	T	Vch Offset Enable
VCHOFFSET	QUANT	0	Vch Offset (V)
VCHFILTER	IQUANT	3	Vch Filter
ACHRANGE	IQUANT	2	Ach Range
ACHOFFSETENABLE	TOGGLE	F	Ach Offset Enable
ACHOFFSET	QUANT	0	Ach Offset (V)
ACHFILTER	IQUANT	3	Ach Filter
IERANGELOWERLIMIT	IQUANT	1	I/E Range Lower Limit
IERANGEMODE	TOGGLE	F	I/E AutoRange
IERANGE	IQUANT	8	I/E Range
POSFEEDENABLE	TOGGLE	F	Positive Feedback IR Comp
POSFEEDRESISTANCE	QUANT	0	Positive Feedback Resistance (ohm)
ACHSELECT	IQUANT	0	Ach Select
CABLEID	IQUANT	14	Cable ID
DCCALDATE	LABEL	6/26/2020	DC Calibration Date
ACCALDATE	LABEL	6/26/2020	AC Calibration Date
THERMOSELECT	IQUANT	1	Thermo Select
FRAMEWORKVERSION	QUANT	6.33	Framework Version
INSTRUMENTVERSION	LABEL	3.50	Instrument Version
ZCURVE	TABLE
	Pt	Time	Freq	Zreal	Zimag	Zsig	Zmod	Zphz	Idc	Vdc	IERange
	#	s	Hz	ohm	ohm	V	ohm	°	A	V	#
	0	1	1000078	1363.426	-1813.973	1	2269.235	-53.07058	-3.426463E-008	0.1657571	8
	1	2	794390.6	1608.914	-2031.228	1	2591.233	-51.61763	-5.982135E-010	0.1654591	8
	2	2	630984.4	1885.309	-2258.612	1	2942.061	-50.14756	5.233562E-008	0.165327	8
	3	2	501234.4	2180.942	-2505.689	1	3321.895	-48.96382	-2.086759E-008	0.1652342	8
	4	3	398109.4	2506.726	-2771.775	1	3737.166	-47.87458	5.325896E-008	0.1651881	8
	5	3	316265.6	2851.282	-3071.61	1	4191.014	-47.13038	-3.164868E-008	0.1651538	8
	6	3	251203.1	3229.116	-3405.127	1	4692.769	-46.51974	-2.959703E-008	0.1651442	8
	7	4	199546.9	3645.541	-3776.195	1	5248.773	-46.00854	6.971423E-008	0.1651245	8
	8	4	158578.1	4096.601	-4200.372	1	5867.305	-45.71657	2.847313E-008	0.1651343	8
	9	4	125953.1	4706.42	-4647.637	1	6614.447	-44.63994	-1.621944E-008	0.1651989	7
	10	5	100078.1	5261.521	-5235.151	1	7422.292	-44.85606	8.04277E-009	0.1651048	7
	11	5	79453.13	5898.68	-5888.726	1	8334.957	-44.95162	-1.150802E-008	0.1651398	7
	12	5	63140.62	6629.03	-6643.073	1	9384.799	-45.06063	-1.558076E-008	0.1651302	7
	13	6	50203.12	7475.967	-7486.644	1	10580.17	-45.04089	-1.184447E-008	0.1651314	7
	14	6	39890.62	8471.435	-8442.438	1	11959.93	-44.90177	-1.014017E-008	0.1650986	7
	15	6	31640.63	9653.3	-9488.734	1	13535.96	-44.50743	8.050431E-009	0.1650853	7
	16	6	25171.88	11034.39	-10574.02	1	15282.92	-43.7795	1.364651E-008	0.1650991	7
	17	7	20015.62	12656.88	-11728.86	1	17255.8	-42.82062	3.851111E-009	0.1651094	7
	18	7	15890.62	14579.6	-12912.92	1	19475.84	-41.5308	-1.110874E-008	0.1651247	7
	19	7	12609.37	17136.69	-13834.8	1	22024.26	-38.91465	3.900938E-010	0.1650746	6
	20	8	10078.13	19541.61	-14822.08	1	24526.89	-37.17988	-6.348727E-010	0.1651202	6
	21	8	8015.625	22289.47	-15643.66	1	27231.32	-35.06274	1.883588E-009	0.1650504	6
	22	8	6328.125	25360.95	-16107.55	1	30043.81	-32.42094	5.507229E-011	0.1651144	6
	23	9	5015.625	28487.35	-16137.05	1	32740.4	-29.52998	1.016288E-009	0.1651122	6
	24	9	3984.375	31594.93	-15822.97	1	35335.63	-26.60204	9.387781E-010	0.1651102	6
	25	9	3170.956	34447.14	-15052.46	1	37592.32	-23.60401	2.406151E-009	0.1650807	6
	26	10	2527.573	36911.14	-13982.35	1	39470.73	-20.74725	-1.952531E-009	0.1651073	6
	27	10	1976.103	39126.51	-12666.9	1	41125.83	-17.93895	9.929035E-011	0.1651153	6
	28	10	1577.524	40782.76	-11507.36	1	42375.14	-15.75707	3.012317E-009	0.1650728	6
	29	11	1265.625	41972.96	-10458.79	1	43256.4	-13.99197	-6.009532E-010	0.1650874	6
	30	11	998.264	42911.46	-9568.64	1	43965.35	-12.57049	6.365469E-010	0.1651095	6
	31	11	796.875	43744.75	-9040.34	1	44669.12	-11.67643	3.032006E-009	0.1650742	6
	32	12	627.7902	44377.3	-8784.906	1	45238.47	-11.19747	8.766795E-010	0.1650551	6
	33	12	505.5147	44782.02	-8839.52	1	45646.1	-11.16607	-1.517795E-009	0.1650957	6
	34	12	397.9953	45188.92	-9314.979	1	46139	-11.64747	6.39389E-010	0.1651088	6
	35	13	315.5048	45617.93	-10159.9	1	46735.63	-12.55583	5.512175E-010	0.1651072	6
	36	13	252.4038	46097.97	-11386.67	1	47483.46	-13.8749	6.92562E-010	0.1650982	6
	37	13	198.6229	46677.42	-13185.49	1	48504.01	-15.77399	4.72611E-010	0.165103	6
	38	14	158.3615	47387.68	-15425.13	1	49834.99	-18.03055	5.21389E-010	0.165102	6
	39	14	125.558	48102.34	-18310.97	1	51469.67	-20.84017	6.091713E-010	0.1651042	6
	40	14	100.4464	49223	-21754.03	1	53815.81	-23.84296	4.794166E-010	0.1650997	6
	41	15	79.00281	50713.39	-26294.88	1	57125.03	-27.40673	7.724601E-011	0.1650989	6
	42	15	63.3446	52445.54	-31344.44	1	61098.36	-30.86494	-1.073104E-010	0.1650979	6
	43	15	49.86702	54815.12	-37886.05	1	66633.7	-34.6507	-2.423771E-010	0.1650894	6
	44	16	39.72458	57789.91	-45294.95	1	73425.52	-38.08887	-1.219531E-010	0.1650961	6
	45	16	31.6723	61693.25	-53992.39	1	81983.14	-41.1916	-7.280076E-011	0.165096	6
	46	17	24.93351	66935	-64782.85	1	93151.02	-44.06392	-8.157756E-010	0.1650973	6
	47	17	19.86229	73202.96	-76746.91	1	106060.2	-46.35389	-2.058063E-009	0.1650867	5
	48	17	15.83615	80704.84	-90206.1	1	121038.9	-48.1819	7.200097E-010	0.1650888	5
	49	18	12.40079	91222.82	-106906.8	1	140537.1	-49.5261	-8.844525E-010	0.1650926	5
	50	18	9.93114	102684.2	-124122.5	1	161091.4	-50.3997	-1.598291E-010	0.1650867	5
	51	18	7.944915	116058.4	-142803	1	184017	-50.89867	1.394798E-009	0.1650842	5
	52	19	6.317385	133031	-165209.7	1	212112	-51.15811	-4.690215E-010	0.1651025	5
	53	19	5.008013	152965.4	-190106.6	1	244006	-51.17881	-5.202322E-010	0.1650904	5
	54	20	3.945707	175865.4	-217771.9	1	279916.5	-51.07679	3.480724E-010	0.1650947	5
	55	21	3.158693	201172.6	-247230.7	1	318737.3	-50.86462	-3.104928E-010	0.1650922	5
	56	22	2.504006	229863.6	-281046.4	1	363076.3	-50.72079	-1.639616E-010	0.165075	5
	57	24	1.998082	261631.7	-317521.1	1	411425.3	-50.51209	2.519081E-010	0.1651258	5
	58	25	1.584686	296551.3	-360458.1	1	466768.4	-50.55564	1.593184E-010	0.1651003	5
	59	27	1.266892	335169.7	-406168.5	1	526603.8	-50.4706	3.939968E-011	0.1650628	5
	60	30	0.999041	381014.1	-462490.7	1	599223.9	-50.51725	-4.514232E-011	0.1650421	5
