EXPLAIN
TAG	EISPOT
TITLE	LABEL	Potentiostatic EIS	Test &Identifier
DATE	LABEL	6/14/2020	Date
TIME	LABEL	21:43:30	Time
NOTES	NOTES	1	&Notes...
	
PSTAT	PSTAT	REF600-10037	Potentiostat
VDC	POTEN	0.00000E+000	T	DC &Voltage (V)
FREQINIT	QUANT	1.00000E+006	Initial Fre&q. (Hz)
FREQFINAL	QUANT	1.00000E+000	Final Fre&q. (Hz)
PTSPERDEC	QUANT	1.00000E+001	Points/&decade
VAC	QUANT	2.50000E+001	AC &Voltage (mV rms)
AREA	QUANT	2.50000E-001	&Area (cm^2)
CONDIT	TWOPARAM	F	5.00000E+000	0.00000E+000	Conditionin&g	Time(s)	E(V)
DELAY	TWOPARAM	F	3.00000E+000	0.00000E+000	Init. De&lay	Time(s)	Stab.(mV/s)
SPEED	SELECTOR	0	&Optimize for:
ZGUESS	QUANT	1.00000E+003	E&stimated Z (ohms)
OCVCURVE	TABLE	39
	Pt	T	Vf	Vm	Ach	Over
	#	s	V vs. Ref.	V	V	bits
	0	0.258333	-7.93311E-002	-7.93311E-002	5.85953E-004	...........
	1	0.516667	-7.93298E-002	-7.92652E-002	5.91620E-004	...........
	2	0.775	-7.93221E-002	-7.92036E-002	5.86187E-004	...........
	3	1.03333	-7.93004E-002	-7.91455E-002	5.87486E-004	...........
	4	1.29167	-7.92619E-002	-7.91023E-002	5.84420E-004	...........
	5	1.55	-7.92121E-002	-7.90561E-002	5.86720E-004	...........
	6	1.80833	-7.91592E-002	-7.90107E-002	5.85320E-004	...........
	7	2.06667	-7.91083E-002	-7.89704E-002	5.88953E-004	...........
	8	2.325	-7.90610E-002	-7.89379E-002	5.85820E-004	...........
	9	2.58333	-7.90174E-002	-7.88994E-002	5.85453E-004	...........
	10	2.84167	-7.89771E-002	-7.88639E-002	5.91420E-004	...........
	11	3.1	-7.89392E-002	-7.88294E-002	5.87420E-004	...........
	12	3.35833	-7.89029E-002	-7.87997E-002	5.88153E-004	...........
	13	3.61667	-7.88680E-002	-7.87747E-002	5.84587E-004	...........
	14	3.875	-7.88351E-002	-7.87433E-002	5.86387E-004	...........
	15	4.13333	-7.88043E-002	-7.87162E-002	5.85787E-004	...........
	16	4.39167	-7.87750E-002	-7.86889E-002	5.84787E-004	...........
	17	4.65	-7.87466E-002	-7.86617E-002	5.88920E-004	...........
	18	4.90833	-7.87187E-002	-7.86392E-002	5.82487E-004	...........
	19	5.16667	-7.86917E-002	-7.86125E-002	5.80920E-004	...........
	20	5.425	-7.86656E-002	-7.85920E-002	5.81787E-004	...........
	21	5.68333	-7.86406E-002	-7.85703E-002	5.90287E-004	...........
	22	5.94167	-7.86167E-002	-7.85478E-002	5.87520E-004	...........
	23	6.2	-7.85938E-002	-7.85263E-002	5.81287E-004	...........
	24	6.45833	-7.85716E-002	-7.85019E-002	5.86353E-004	...........
	25	6.71667	-7.85497E-002	-7.84937E-002	5.93220E-004	...........
	26	6.975	-7.85286E-002	-7.84666E-002	5.92853E-004	...........
	27	7.23333	-7.85085E-002	-7.84424E-002	5.93053E-004	...........
	28	7.49167	-7.84886E-002	-7.84250E-002	5.86053E-004	...........
	29	7.75	-7.84680E-002	-7.84043E-002	5.86987E-004	...........
	30	8.00833	-7.84471E-002	-7.83885E-002	5.81320E-004	...........
	31	8.26667	-7.84268E-002	-7.83682E-002	5.85620E-004	...........
	32	8.525	-7.84073E-002	-7.83457E-002	5.85987E-004	...........
	33	8.78333	-7.83881E-002	-7.83277E-002	5.89687E-004	...........
	34	9.04167	-7.83687E-002	-7.83135E-002	5.91686E-004	...........
	35	9.3	-7.83495E-002	-7.82971E-002	5.84387E-004	...........
	36	9.5583	-7.83314E-002	-7.82797E-002	5.93786E-004	...........
	37	9.8167	-7.83142E-002	-7.82605E-002	5.86053E-004	...........
	38	10.075	-7.82973E-002	-7.82454E-002	5.83187E-004	...........
EOC	QUANT	-0.0782973	Open Circuit (V)
PSTATMODEL	IQUANT	4	Pstat Model
PSTATSECTION	LABEL	REF600-10037	Pstat Section
PSTATSERIALNO	LABEL	10037	Pstat Serial Number
CTRLMODE	IQUANT	1	Control Mode
IESTAB	IQUANT	0	I/E Stability
CASPEED	IQUANT	1	Control Amp Speed
CONVENTION	IQUANT	1	Current Convention
ICHRANGE	IQUANT	2	Ich Range
ICHRANGEMODE	TOGGLE	F	Ich Auto Range
ICHOFFSETENABLE	TOGGLE	T	Ich Offset Enable
ICHOFFSET	QUANT	0	Ich Offset (V)
ICHFILTER	IQUANT	3	Ich Filter
VCHRANGE	IQUANT	2	Vch Range
VCHRANGEMODE	TOGGLE	F	Vch Auto Range
VCHOFFSETENABLE	TOGGLE	T	Vch Offset Enable
VCHOFFSET	QUANT	0	Vch Offset (V)
VCHFILTER	IQUANT	3	Vch Filter
ACHRANGE	IQUANT	2	Ach Range
ACHOFFSETENABLE	TOGGLE	F	Ach Offset Enable
ACHOFFSET	QUANT	0	Ach Offset (V)
ACHFILTER	IQUANT	3	Ach Filter
IERANGELOWERLIMIT	IQUANT	1	I/E Range Lower Limit
IERANGEMODE	TOGGLE	F	I/E AutoRange
IERANGE	IQUANT	8	I/E Range
POSFEEDENABLE	TOGGLE	F	Positive Feedback IR Comp
POSFEEDRESISTANCE	QUANT	0	Positive Feedback Resistance (ohm)
ACHSELECT	IQUANT	0	Ach Select
CABLEID	IQUANT	14	Cable ID
DCCALDATE	LABEL	6/8/2020	DC Calibration Date
ACCALDATE	LABEL	6/8/2020	AC Calibration Date
THERMOSELECT	IQUANT	1	Thermo Select
FRAMEWORKVERSION	QUANT	6.33	Framework Version
INSTRUMENTVERSION	LABEL	3.50	Instrument Version
ZCURVE	TABLE
	Pt	Time	Freq	Zreal	Zimag	Zsig	Zmod	Zphz	Idc	Vdc	IERange
	#	s	Hz	ohm	ohm	V	ohm	°	A	V	#
	0	1	1000078	2003.464	-2118.655	1	2915.916	-46.60068	-9.424328E-008	-0.0690858	8
	1	1	794390.6	2352.836	-2297.52	1	3288.531	-44.3185	-3.297145E-007	-0.0693391	8
	2	2	630984.4	2727.393	-2458.381	1	3671.826	-42.03045	1.96791E-007	-0.0695121	8
	3	2	501234.4	3116.413	-2606.368	1	4062.657	-39.90695	7.068809E-008	-0.0695982	8
	4	2	398109.4	3520.736	-2746.295	1	4465.167	-37.95546	7.379722E-008	-0.0696298	8
	5	3	316265.6	3931.867	-2881.17	1	4874.497	-36.23299	4.725257E-008	-0.0696106	8
	6	3	251203.1	4351.05	-3035.635	1	5305.348	-34.90266	-3.186696E-007	-0.0696204	8
	7	3	199546.9	4792.973	-3184.412	1	5754.396	-33.59974	-1.436376E-007	-0.0696153	8
	8	4	158578.1	5248.78	-3354.546	1	6229.179	-32.58304	5.120395E-007	-0.0696666	8
	9	4	125953.1	5933.656	-3360.446	1	6819.155	-29.52446	1.671545E-008	-0.0694597	7
	10	4	100078.1	6447.915	-3581.13	1	7375.643	-29.04751	8.538536E-008	-0.0697136	7
	11	5	79453.13	7032.851	-3787.489	1	7987.87	-28.30435	-1.045787E-008	-0.0695746	7
	12	5	63140.62	7672.085	-3974.751	1	8640.574	-27.38775	8.492029E-008	-0.069773	7
	13	5	50203.12	8367.862	-4106.585	1	9321.221	-26.13981	4.130575E-008	-0.0696394	7
	14	6	39890.62	9108.752	-4177.89	1	10021.18	-24.63939	-1.038348E-008	-0.0695821	7
	15	6	31640.63	9864.79	-4181.532	1	10714.44	-22.97134	-7.725026E-008	-0.0696311	7
	16	6	25171.88	10588.66	-4093.135	1	11352.24	-21.13444	-3.708337E-008	-0.0695657	7
	17	6	20015.62	11277.28	-3946.859	1	11948	-19.28919	5.831588E-008	-0.0696701	7
	18	7	15890.62	11924.01	-3759.18	1	12502.54	-17.49805	-5.991367E-008	-0.0695556	7
	19	7	12609.37	12714.56	-3123.3	1	13092.56	-13.8013	-1.127042E-009	-0.0697852	6
	20	7	10078.13	13137.66	-2961.566	1	13467.33	-12.7036	1.307539E-008	-0.0698332	6
	21	8	8015.625	13523.67	-2807.788	1	13812.08	-11.72912	-1.479628E-008	-0.0695269	6
	22	8	6328.125	13858.91	-2670.801	1	14113.91	-10.90796	-9.597187E-009	-0.0696604	6
	23	8	5015.625	14152.13	-2574.499	1	14384.39	-10.31027	1.216075E-008	-0.0698452	6
	24	9	3984.375	14399.4	-2525.318	1	14619.17	-9.94718	1.247859E-008	-0.0697555	6
	25	9	3170.956	14611.27	-2535.571	1	14829.65	-9.84479	9.885296E-009	-0.0698522	6
	26	9	2527.573	14809.22	-2614.957	1	15038.32	-10.01385	3.141462E-009	-0.0698241	6
	27	10	1976.103	14995.89	-2787.307	1	15252.73	-10.52949	-1.368755E-008	-0.0694613	6
	28	10	1577.524	15160.04	-3039.858	1	15461.81	-11.33846	-1.302746E-008	-0.0695917	6
	29	10	1265.625	15315	-3391.097	1	15685.95	-12.48517	3.182565E-009	-0.0698205	6
	30	11	998.264	15508.13	-3905.182	1	15992.27	-14.13408	1.076572E-008	-0.069852	6
	31	11	796.875	15692.89	-4538.069	1	16335.88	-16.12881	1.336136E-008	-0.069823	6
	32	11	627.7902	15918.56	-5401.449	1	16810.01	-18.74298	-1.026213E-008	-0.0694613	6
	33	12	505.5147	16164.72	-6383.923	1	17379.66	-21.55053	1.028378E-008	-0.0697024	6
	34	12	397.9953	16490.68	-7739.147	1	18216.39	-25.14087	5.57269E-010	-0.0696497	6
	35	12	315.5048	16894.5	-9375.357	1	19321.53	-29.02745	6.071325E-010	-0.0696539	6
	36	12	252.4038	17377.38	-11304.79	1	20730.94	-33.04588	7.356027E-010	-0.0696541	6
	37	13	198.6229	18054.87	-13840.61	1	22749.52	-37.47328	7.453718E-010	-0.0696547	6
	38	13	158.3615	18876.32	-16767.26	1	25247.9	-41.61371	5.277768E-010	-0.0696569	6
	39	13	125.558	19978.33	-20402.55	1	28555.17	-45.6019	4.802132E-010	-0.0696569	6
	40	14	100.4464	21369.84	-24605.7	1	32590.03	-49.02596	4.507708E-010	-0.0696604	6
	41	14	79.00281	23339.38	-30031.68	1	38034.57	-52.14712	5.783142E-010	-0.0696589	6
	42	14	63.3446	25761.68	-36004.75	1	44271.95	-54.41598	4.365208E-010	-0.0696573	6
	43	15	49.86702	29133.19	-43607.15	1	52443.55	-56.25379	8.28592E-010	-0.0696612	6
	44	15	39.72458	33309.06	-52032.21	1	61780.61	-57.37416	8.780096E-010	-0.0696553	6
	45	16	31.6723	38684.56	-61708.5	1	72831.55	-57.91673	8.065446E-010	-0.0696565	6
	46	16	24.93351	45944.26	-73337.42	1	86540.47	-57.93377	3.883874E-010	-0.0696555	6
	47	16	19.86229	53817.36	-85276.31	1	100838.3	-57.74423	-7.462378E-009	-0.0782968	6
	48	17	15.83615	64203.05	-98485.7	1	117564.7	-56.89957	-5.258492E-009	-0.0782899	5
	49	17	12.40079	77832.64	-114145.3	1	138156	-55.71097	-3.836903E-009	-0.0782858	5
	50	17	9.93114	92174.38	-129283.6	1	158777.7	-54.51255	-2.998487E-009	-0.0782883	5
	51	18	7.944915	108449.5	-145364.8	1	181362.1	-53.27519	-2.395963E-009	-0.0782845	5
	52	18	6.317385	126438	-162712.4	1	206062.9	-52.15049	-1.470985E-009	-0.0782845	5
	53	19	5.008013	146035.9	-182133.3	1	233450.3	-51.2771	-1.046425E-009	-0.0782828	5
	54	20	3.945707	167391.7	-204590	1	264342.7	-50.71061	-7.613922E-010	-0.0782816	5
	55	21	3.158693	188198.6	-228781.4	1	296242.5	-50.55883	-5.924473E-010	-0.0782815	5
	56	22	2.504006	211900.1	-258479.7	1	334235.6	-50.65532	-4.422063E-010	-0.0782804	5
	57	24	1.998082	236142	-292912	1	376245.3	-51.12467	-3.763996E-010	-0.0782844	5
	58	26	1.584686	263343.8	-334968.7	1	426091.6	-51.82648	-2.409944E-010	-0.078287	5
	59	29	1.266892	292416.9	-383340.8	1	482138.8	-52.66319	-1.758813E-010	-0.0782913	5
	60	32	0.999041	326879.9	-444648.2	1	551871.8	-53.6788	-1.761545E-010	-0.0782885	5
