EXPLAIN
TAG	EISPOT
TITLE	LABEL	Potentiostatic EIS	Test &Identifier
DATE	LABEL	7/30/2020	Date
TIME	LABEL	23:07:23	Time
NOTES	NOTES	1	&Notes...
	
PSTAT	PSTAT	REF600-11020	Potentiostat
VDC	POTEN	0.00000E+000	T	DC &Voltage (V)
FREQINIT	QUANT	1.00000E+006	Initial Fre&q. (Hz)
FREQFINAL	QUANT	1.00000E+000	Final Fre&q. (Hz)
PTSPERDEC	QUANT	1.00000E+001	Points/&decade
VAC	QUANT	2.50000E+001	AC &Voltage (mV rms)
AREA	QUANT	4.00000E-005	&Area (cm^2)
CONDIT	TWOPARAM	F	5.00000E+000	0.00000E+000	Conditionin&g	Time(s)	E(V)
DELAY	TWOPARAM	F	3.00000E+000	0.00000E+000	Init. De&lay	Time(s)	Stab.(mV/s)
SPEED	SELECTOR	0	&Optimize for:
ZGUESS	QUANT	1.00000E+003	E&stimated Z (ohms)
OCVCURVE	TABLE	39
	Pt	T	Vf	Vm	Ach	Over
	#	s	V vs. Ref.	V	V	bits
	0	0.258333	-2.12243E-002	-2.12243E-002	5.11450E-004	...........
	1	0.516667	-2.12242E-002	-2.12164E-002	5.10384E-004	...........
	2	0.775	-2.12230E-002	-2.11980E-002	5.07217E-004	...........
	3	1.03333	-2.12192E-002	-2.11853E-002	5.08750E-004	...........
	4	1.29167	-2.12114E-002	-2.11701E-002	5.17150E-004	...........
	5	1.55	-2.12000E-002	-2.11582E-002	5.13283E-004	...........
	6	1.80833	-2.11866E-002	-2.11445E-002	5.08517E-004	...........
	7	2.06667	-2.11727E-002	-2.11312E-002	5.11250E-004	...........
	8	2.325	-2.11591E-002	-2.11200E-002	5.08884E-004	...........
	9	2.58333	-2.11457E-002	-2.11030E-002	5.08750E-004	...........
	10	2.84167	-2.11324E-002	-2.10869E-002	5.05684E-004	...........
	11	3.1	-2.11186E-002	-2.10731E-002	5.07850E-004	...........
	12	3.35833	-2.11042E-002	-2.10625E-002	5.04350E-004	...........
	13	3.61667	-2.10897E-002	-2.10494E-002	5.11217E-004	...........
	14	3.875	-2.10759E-002	-2.10355E-002	5.14150E-004	...........
	15	4.13333	-2.10627E-002	-2.10209E-002	5.10117E-004	...........
	16	4.39167	-2.10496E-002	-2.10096E-002	5.18050E-004	...........
	17	4.65	-2.10363E-002	-2.09925E-002	5.15950E-004	...........
	18	4.90833	-2.10228E-002	-2.09819E-002	5.17283E-004	...........
	19	5.16667	-2.10092E-002	-2.09700E-002	5.13383E-004	...........
	20	5.425	-2.09959E-002	-2.09581E-002	5.17083E-004	...........
	21	5.68333	-2.09831E-002	-2.09439E-002	5.12250E-004	...........
	22	5.94167	-2.09706E-002	-2.09305E-002	5.19483E-004	...........
	23	6.2	-2.09580E-002	-2.09177E-002	5.18283E-004	...........
	24	6.45833	-2.09450E-002	-2.09056E-002	5.18483E-004	...........
	25	6.71667	-2.09321E-002	-2.08950E-002	5.18217E-004	...........
	26	6.975	-2.09194E-002	-2.08821E-002	5.20350E-004	...........
	27	7.23333	-2.09071E-002	-2.08709E-002	5.20117E-004	...........
	28	7.49167	-2.08952E-002	-2.08588E-002	5.14283E-004	...........
	29	7.75	-2.08833E-002	-2.08465E-002	5.17083E-004	...........
	30	8.00833	-2.08715E-002	-2.08366E-002	5.16750E-004	...........
	31	8.26667	-2.08599E-002	-2.08273E-002	5.14383E-004	...........
	32	8.525	-2.08486E-002	-2.08165E-002	5.14650E-004	...........
	33	8.78333	-2.08378E-002	-2.08007E-002	5.16550E-004	...........
	34	9.04167	-2.08268E-002	-2.07877E-002	5.11683E-004	...........
	35	9.3	-2.08150E-002	-2.07749E-002	5.14550E-004	...........
	36	9.5583	-2.08024E-002	-2.07628E-002	5.12283E-004	...........
	37	9.8167	-2.07893E-002	-2.07487E-002	5.16650E-004	...........
	38	10.075	-2.07762E-002	-2.07373E-002	5.14250E-004	...........
EOC	QUANT	-0.0207762	Open Circuit (V)
PSTATMODEL	IQUANT	4	Pstat Model
PSTATSECTION	LABEL	REF600-11020	Pstat Section
PSTATSERIALNO	LABEL	11020	Pstat Serial Number
CTRLMODE	IQUANT	1	Control Mode
IESTAB	IQUANT	0	I/E Stability
CASPEED	IQUANT	1	Control Amp Speed
CONVENTION	IQUANT	1	Current Convention
ICHRANGE	IQUANT	2	Ich Range
ICHRANGEMODE	TOGGLE	F	Ich Auto Range
ICHOFFSETENABLE	TOGGLE	T	Ich Offset Enable
ICHOFFSET	QUANT	0	Ich Offset (V)
ICHFILTER	IQUANT	3	Ich Filter
VCHRANGE	IQUANT	2	Vch Range
VCHRANGEMODE	TOGGLE	F	Vch Auto Range
VCHOFFSETENABLE	TOGGLE	T	Vch Offset Enable
VCHOFFSET	QUANT	0	Vch Offset (V)
VCHFILTER	IQUANT	3	Vch Filter
ACHRANGE	IQUANT	2	Ach Range
ACHOFFSETENABLE	TOGGLE	F	Ach Offset Enable
ACHOFFSET	QUANT	0	Ach Offset (V)
ACHFILTER	IQUANT	3	Ach Filter
IERANGELOWERLIMIT	IQUANT	1	I/E Range Lower Limit
IERANGEMODE	TOGGLE	F	I/E AutoRange
IERANGE	IQUANT	7	I/E Range
POSFEEDENABLE	TOGGLE	F	Positive Feedback IR Comp
POSFEEDRESISTANCE	QUANT	0	Positive Feedback Resistance (ohm)
ACHSELECT	IQUANT	0	Ach Select
CABLEID	IQUANT	14	Cable ID
DCCALDATE	LABEL	6/26/2020	DC Calibration Date
ACCALDATE	LABEL	6/26/2020	AC Calibration Date
THERMOSELECT	IQUANT	1	Thermo Select
FRAMEWORKVERSION	QUANT	6.33	Framework Version
INSTRUMENTVERSION	LABEL	3.50	Instrument Version
ZCURVE	TABLE
	Pt	Time	Freq	Zreal	Zimag	Zsig	Zmod	Zphz	Idc	Vdc	IERange
	#	s	Hz	ohm	ohm	V	ohm	°	A	V	#
	0	1	1000078	1417.432	-1878.776	1	2353.489	-52.96748	4.172659E-008	-0.0184628	8
	1	2	794390.6	1639.618	-2100.105	1	2664.355	-52.01971	5.783848E-008	-0.0187941	8
	2	2	630984.4	1867.502	-2347.254	1	2999.528	-51.49384	5.971263E-008	-0.0189612	8
	3	2	501234.4	2101.696	-2635.025	1	3370.531	-51.42413	5.626051E-008	-0.0190371	8
	4	3	398109.4	2342.979	-2986.077	1	3795.551	-51.88105	4.220097E-008	-0.0191126	8
	5	3	316265.6	2593.426	-3412.006	1	4285.749	-52.76196	4.235094E-008	-0.0191529	8
	6	3	251203.1	2856.914	-3926.635	1	4855.968	-53.96137	3.46302E-008	-0.0191539	8
	7	4	199546.9	3154.944	-4553.889	1	5539.998	-55.28571	-1.42245E-008	-0.0191169	8
	8	4	158578.1	3480.251	-5330.241	1	6365.816	-56.85845	4.325964E-008	-0.0191599	8
	9	4	125953.1	3900.24	-6260.004	1	7375.604	-58.0754	5.289958E-010	-0.0191519	7
	10	4	100078.1	4313.978	-7439.264	1	8599.596	-59.89085	2.330437E-009	-0.0191881	7
	11	5	79453.13	4784.256	-8853.521	1	10063.5	-61.61414	3.296501E-009	-0.0191833	7
	12	5	63140.62	5331.819	-10572.28	1	11840.67	-63.23726	2.804251E-009	-0.019194	7
	13	5	50203.12	5972.349	-12644.36	1	13983.87	-64.71708	3.306041E-009	-0.0191889	7
	14	6	39890.62	6737.706	-15212.25	1	16637.59	-66.11082	2.876909E-009	-0.0191874	7
	15	6	31640.63	7681.035	-18386.08	1	19926.02	-67.32661	2.978648E-009	-0.0191983	7
	16	6	25171.88	8808.521	-22188.84	1	23873.31	-68.34792	3.240403E-009	-0.0191976	7
	17	7	20015.62	10261.56	-26812.4	1	28708.96	-69.0573	3.384169E-009	-0.0191872	7
	18	7	15890.62	12058.95	-32510.67	1	34675.1	-69.64903	3.312754E-009	-0.0191912	7
	19	7	12609.37	14833.3	-39280.37	1	41987.79	-69.31215	9.420551E-010	-0.0192102	6
	20	8	10078.13	17900.07	-47242.31	1	50519.79	-69.24834	9.732992E-010	-0.0192079	6
	21	8	8015.625	21974.46	-56934.68	1	61028.14	-68.89545	1.221918E-009	-0.0192016	6
	22	8	6328.125	27657.28	-68688.26	1	74047.3	-68.06786	8.783684E-010	-0.0192112	6
	23	9	5015.625	35010.78	-82352.73	1	89485.9	-66.9681	9.520348E-010	-0.0192068	6
	24	9	3984.375	44627.81	-97743.7	1	107449.9	-65.45952	9.155779E-010	-0.0192073	6
	25	9	3170.956	57287.83	-114866.9	1	128360.1	-63.49309	7.704E-010	-0.0192149	6
	26	10	2527.573	73121.48	-134010.4	1	152661.5	-61.38134	6.845626E-010	-0.0192149	6
	27	10	1976.103	95455.8	-155119.2	1	182136.7	-58.39308	7.155827E-010	-0.0192203	6
	28	10	1577.524	120021.7	-175813.7	1	212874.7	-55.68004	8.070951E-010	-0.0192129	6
	29	11	1265.625	152209.5	-192362.8	1	245298.2	-51.64675	3.942897E-010	-0.0192243	5
	30	11	998.264	188693.5	-211012.9	1	283075.4	-48.19606	3.542103E-010	-0.0192268	5
	31	11	796.875	227850	-223982.5	1	319505.5	-44.50959	3.915221E-010	-0.0192252	5
	32	11	627.7902	272943.9	-232999.2	1	358869.1	-40.4858	3.784819E-010	-0.0192287	5
	33	12	505.5147	314545.4	-234970.7	1	392619.4	-36.76035	3.500679E-010	-0.0192299	5
	34	12	397.9953	360286.8	-232539.1	1	428813.5	-32.83932	3.679851E-010	-0.0192016	5
	35	12	315.5048	401873.8	-224829.4	1	460489.8	-29.22495	3.412705E-010	-0.0191992	5
	36	13	252.4038	439780.8	-216080.2	1	489997.7	-26.16655	3.266685E-010	-0.0192043	5
	37	13	198.6229	471769.9	-200240.4	1	512506.7	-22.99855	3.125664E-010	-0.0192048	5
	38	13	158.3615	499538.4	-187626.4	1	533612.5	-20.58615	3.224106E-010	-0.0192069	5
	39	14	125.558	524371.9	-175962.3	1	553108.1	-18.55009	2.930171E-010	-0.0192079	5
	40	14	100.4464	542445.6	-165309.2	1	567075.3	-16.94849	3.510945E-010	-0.0192072	5
	41	14	79.00281	559299.4	-157251.7	1	580985.3	-15.70378	3.414997E-010	-0.0192075	5
	42	15	63.3446	573168.3	-152616.7	1	593138.9	-14.91012	2.73315E-010	-0.0192103	5
	43	15	49.86702	590196.8	-153699.7	1	609881.8	-14.59682	2.955872E-010	-0.0192096	5
	44	15	39.72458	603443.8	-157502.7	1	623659.8	-14.62821	2.429739E-010	-0.0192015	5
	45	16	31.6723	614553.1	-164916.9	1	636296.4	-15.02156	3.124113E-010	-0.0192055	5
	46	16	24.93351	628378.8	-178464	1	653229.9	-15.85492	6.514009E-012	-0.0192077	5
	47	16	19.86229	644406.6	-197451.5	1	673978.5	-17.03549	-4.728513E-011	-0.0192086	5
	48	17	15.83615	663110.1	-223229.3	1	699675.9	-18.60529	3.420184E-010	-0.0192066	5
	49	17	12.40079	686342.3	-256611.7	1	732745	-20.49992	1.56431E-010	-0.0192053	5
	50	17	9.93114	709473.4	-291282	1	766940.5	-22.32113	4.198614E-010	-0.0192123	5
	51	18	7.944915	746171.6	-337616	1	818997.3	-24.34505	4.716687E-010	-0.0192171	5
	52	18	6.317385	794156.5	-388299.3	1	884002.8	-26.05611	1.612926E-011	-0.0192017	5
	53	19	5.008013	855497.1	-444809.3	1	964225	-27.47184	1.443117E-010	-0.0192093	4
	54	20	3.945707	924107.4	-497658	1	1049590	-28.30372	2.290014E-010	-0.0192141	4
	55	21	3.158693	1005573	-548630.9	1	1145501	-28.61646	9.019251E-011	-0.0191987	4
	56	22	2.504006	1091516	-593150.5	1	1242270	-28.5205	-1.048418E-010	-0.0192154	4
	57	23	1.998082	1169810	-628917.4	1	1328154	-28.26352	1.088547E-011	-0.0191987	4
	58	24	1.584686	1266588	-669946.1	1	1432855	-27.87605	9.628314E-011	-0.0191698	4
	59	26	1.266892	1349088	-709639	1	1524344	-27.745	7.159939E-011	-0.019196	4
	60	29	0.999041	1442757	-764099.3	1	1632604	-27.90616	1.936061E-011	-0.0192184	4
