EXPLAIN
TAG	EISPOT
TITLE	LABEL	Potentiostatic EIS	Test &Identifier
DATE	LABEL	2/18/2020	Date
TIME	LABEL	17:28:05	Time
NOTES	NOTES	1	&Notes...
	
PSTAT	PSTAT	REF600-11020	Potentiostat
VDC	POTEN	0.00000E+000	T	DC &Voltage (V)
FREQINIT	QUANT	1.00000E+006	Initial Fre&q. (Hz)
FREQFINAL	QUANT	1.00000E+000	Final Fre&q. (Hz)
PTSPERDEC	QUANT	1.00000E+001	Points/&decade
VAC	QUANT	2.50000E+001	AC &Voltage (mV rms)
AREA	QUANT	1.60000E-004	&Area (cm^2)
CONDIT	TWOPARAM	F	1.50000E+001	0.00000E+000	Conditionin&g	Time(s)	E(V)
DELAY	TWOPARAM	F	1.00000E+002	0.00000E+000	Init. De&lay	Time(s)	Stab.(mV/s)
SPEED	SELECTOR	1	&Optimize for:
ZGUESS	QUANT	1.00000E+003	E&stimated Z (ohms)
OCVCURVE	TABLE	39
	Pt	T	Vf	Vm	Ach	Over
	#	s	V vs. Ref.	V	V	bits
	0	0.258333	4.80684E-002	4.80684E-002	5.80371E-004	...........
	1	0.516667	4.80672E-002	4.80095E-002	5.78271E-004	...........
	2	0.775	4.80605E-002	4.79650E-002	5.76404E-004	...........
	3	1.03333	4.80431E-002	4.79623E-002	5.82904E-004	...........
	4	1.29167	4.80138E-002	4.78091E-002	5.83604E-004	...........
	5	1.55	4.79743E-002	4.79044E-002	5.78771E-004	...........
	6	1.80833	4.79316E-002	4.78809E-002	5.82771E-004	...........
	7	2.06667	4.78995E-002	4.79002E-002	5.86737E-004	...........
	8	2.325	4.78858E-002	4.78975E-002	5.88437E-004	...........
	9	2.58333	4.78858E-002	4.78983E-002	5.85871E-004	...........
	10	2.84167	4.78908E-002	4.79009E-002	5.87271E-004	...........
	11	3.1	4.78955E-002	4.79015E-002	5.87471E-004	...........
	12	3.35833	4.78985E-002	4.79020E-002	5.83237E-004	...........
	13	3.61667	4.79002E-002	4.79000E-002	5.88337E-004	...........
	14	3.875	4.79013E-002	4.79169E-002	5.90237E-004	...........
	15	4.13333	4.79029E-002	4.79110E-002	5.86737E-004	...........
	16	4.39167	4.79057E-002	4.79110E-002	5.85271E-004	...........
	17	4.65	4.79088E-002	4.79126E-002	5.85604E-004	...........
	18	4.90833	4.79109E-002	4.79156E-002	5.82371E-004	...........
	19	5.16667	4.79121E-002	4.79113E-002	5.77338E-004	...........
	20	5.425	4.79129E-002	4.79179E-002	5.84204E-004	...........
	21	5.68333	4.79136E-002	4.79160E-002	5.83204E-004	...........
	22	5.94167	4.79146E-002	4.79202E-002	5.84237E-004	...........
	23	6.2	4.79158E-002	4.79221E-002	5.88104E-004	...........
	24	6.45833	4.79176E-002	4.79277E-002	5.80304E-004	...........
	25	6.71667	4.79198E-002	4.79213E-002	5.85037E-004	...........
	26	6.975	4.79219E-002	4.79206E-002	5.88604E-004	...........
	27	7.23333	4.79227E-002	4.79111E-002	5.85504E-004	...........
	28	7.49167	4.79215E-002	4.79109E-002	5.83871E-004	...........
	29	7.75	4.79187E-002	4.79190E-002	5.84904E-004	...........
	30	8.00833	4.79162E-002	4.79254E-002	5.86771E-004	...........
	31	8.26667	4.79161E-002	4.79261E-002	5.87704E-004	...........
	32	8.525	4.79197E-002	4.79871E-002	5.88404E-004	...........
	33	8.78333	4.79309E-002	4.80857E-002	5.82104E-004	...........
	34	9.04167	4.79547E-002	4.79803E-002	5.81137E-004	...........
	35	9.3	4.79840E-002	4.79651E-002	5.80704E-004	...........
	36	9.5583	4.80004E-002	4.79503E-002	5.79737E-004	...........
	37	9.8167	4.79960E-002	4.79565E-002	5.85304E-004	...........
	38	10.075	4.79802E-002	4.79573E-002	5.88671E-004	...........
EOC	QUANT	0.0479802	Open Circuit (V)
PSTATMODEL	IQUANT	4	Pstat Model
PSTATSECTION	LABEL	REF600-11020	Pstat Section
PSTATSERIALNO	LABEL	11020	Pstat Serial Number
CTRLMODE	IQUANT	1	Control Mode
IESTAB	IQUANT	0	I/E Stability
CASPEED	IQUANT	1	Control Amp Speed
CONVENTION	IQUANT	1	Current Convention
ICHRANGE	IQUANT	2	Ich Range
ICHRANGEMODE	TOGGLE	F	Ich Auto Range
ICHOFFSETENABLE	TOGGLE	T	Ich Offset Enable
ICHOFFSET	QUANT	0	Ich Offset (V)
ICHFILTER	IQUANT	3	Ich Filter
VCHRANGE	IQUANT	2	Vch Range
VCHRANGEMODE	TOGGLE	F	Vch Auto Range
VCHOFFSETENABLE	TOGGLE	T	Vch Offset Enable
VCHOFFSET	QUANT	0	Vch Offset (V)
VCHFILTER	IQUANT	3	Vch Filter
ACHRANGE	IQUANT	2	Ach Range
ACHOFFSETENABLE	TOGGLE	F	Ach Offset Enable
ACHOFFSET	QUANT	0	Ach Offset (V)
ACHFILTER	IQUANT	3	Ach Filter
IERANGELOWERLIMIT	IQUANT	1	I/E Range Lower Limit
IERANGEMODE	TOGGLE	F	I/E AutoRange
IERANGE	IQUANT	7	I/E Range
POSFEEDENABLE	TOGGLE	F	Positive Feedback IR Comp
POSFEEDRESISTANCE	QUANT	0	Positive Feedback Resistance (ohm)
ACHSELECT	IQUANT	0	Ach Select
CABLEID	IQUANT	14	Cable ID
DCCALDATE	LABEL	1/27/2020	DC Calibration Date
ACCALDATE	LABEL	1/27/2020	AC Calibration Date
THERMOSELECT	IQUANT	1	Thermo Select
FRAMEWORKVERSION	QUANT	6.33	Framework Version
INSTRUMENTVERSION	LABEL	3.50	Instrument Version
ZCURVE	TABLE
	Pt	Time	Freq	Zreal	Zimag	Zsig	Zmod	Zphz	Idc	Vdc	IERange
	#	s	Hz	ohm	ohm	V	ohm	°	A	V	#
	0	1	1000078	2090.776	-1572.493	1	2616.119	-36.94718	1.114567E-006	0.0500243	8
	1	3	794390.6	2322.865	-1603.67	1	2822.669	-34.62061	5.37451E-007	0.0498457	8
	2	4	630984.4	2536.841	-1636.544	1	3018.914	-32.8265	-6.651983E-007	0.0498976	8
	3	6	501234.4	2726.578	-1688.325	1	3206.972	-31.76623	2.161725E-006	0.0494934	8
	4	7	398109.4	2922.311	-1778.707	1	3421.067	-31.3274	-4.996102E-007	0.049667	8
	5	8	316265.6	3084.308	-1912.268	1	3629.012	-31.79888	3.520691E-007	0.0495529	8
	6	10	251203.1	3269.218	-2072.163	1	3870.613	-32.36818	8.426688E-007	0.0494268	8
	7	11	199546.9	3446.076	-2279.379	1	4131.708	-33.48231	6.178973E-007	0.0494185	8
	8	12	158578.1	3635.932	-2571.594	1	4453.436	-35.27071	-7.377242E-007	0.0497283	8
	9	14	125953.1	3884.198	-2925.241	1	4862.513	-36.98388	4.53663E-008	0.0497827	7
	10	15	100078.1	4139.154	-3370.241	1	5337.708	-39.15366	3.497585E-008	0.0495315	7
	11	16	79453.13	4437.49	-3923.252	1	5923.109	-41.48038	1.719842E-008	0.0494659	7
	12	18	63140.62	4806.288	-4593.439	1	6648.314	-43.70281	3.410077E-009	0.0494762	7
	13	19	50203.12	5273.439	-5389.358	1	7540.182	-45.62286	4.131275E-008	0.0494178	7
	14	21	39890.62	5867.748	-6343.491	1	8641.2	-47.23108	1.936755E-008	0.0495045	7
	15	22	31640.63	6647.696	-7444.928	1	9980.92	-48.23782	-1.915472E-008	0.0495494	7
	16	23	25171.88	7656.893	-8677.044	1	11572.34	-48.57382	-3.33279E-008	0.0495587	7
	17	25	20015.62	8956.336	-10061.06	1	13470	-48.32458	-1.303615E-008	0.0495596	7
	18	26	15890.62	10660.46	-11468.93	1	15658.28	-47.09231	-1.385975E-009	0.0495743	7
	19	28	12609.37	12874.81	-12763.29	1	18129.04	-44.75077	8.210187E-009	0.0494536	6
	20	29	10078.13	15366.69	-13823.19	1	20669.2	-41.97313	2.765197E-009	0.0494267	6
	21	31	8015.625	18244.82	-14484.51	1	23295.38	-38.44597	8.511307E-009	0.0494521	6
	22	33	6328.125	21384.94	-14604.23	1	25895.93	-34.33001	-2.259979E-009	0.049559	6
	23	34	5015.625	24433.67	-14246.79	1	28283.83	-30.24561	-4.47788E-010	0.0495122	6
	24	36	3984.375	27132.72	-13353.96	1	30240.91	-26.2051	-4.499033E-010	0.0495718	6
	25	37	3170.956	29418.38	-12175.55	1	31838.42	-22.48347	3.043355E-009	0.0495503	6
	26	39	2527.573	31240.24	-10906.99	1	33089.5	-19.24576	1.052946E-009	0.049552	6
	27	40	1976.103	32728.24	-9533.44	1	34088.48	-16.24037	1.889529E-009	0.0494747	6
	28	42	1577.524	33633.08	-8424.047	1	34672.01	-14.06154	-2.351003E-009	0.0495829	6
	29	44	1265.625	34396.66	-7589.938	1	35224.1	-12.44344	2.174338E-009	0.0494695	6
	30	45	998.264	34840.98	-6855.556	1	35509.05	-11.13171	2.601154E-010	0.0495687	6
	31	47	796.875	35408.43	-6531.62	1	36005.82	-10.45158	-2.003071E-009	0.0495761	6
	32	48	627.7902	35740.71	-6392.972	1	36307.97	-10.1413	-4.384104E-010	0.049563	6
	33	49	505.5147	36082.7	-6502.154	1	36663.87	-10.21515	5.283012E-009	0.0495294	6
	34	51	397.9953	36288.69	-6884.131	1	36935.89	-10.74163	3.345321E-009	0.0495094	6
	35	52	315.5048	36591.2	-7576.195	1	37367.29	-11.69778	3.611241E-009	0.0495043	6
	36	53	252.4038	37047.57	-8567.608	1	38025.34	-13.02129	2.976978E-009	0.0495066	6
	37	55	198.6229	37386.85	-9975.27	1	38694.74	-14.93921	3.208648E-009	0.0495004	6
	38	56	158.3615	37957.08	-11733.58	1	39729.29	-17.17783	2.463993E-009	0.0494993	6
	39	58	125.558	38470.54	-14018.82	1	40945.2	-20.02195	3.043026E-009	0.049499	6
	40	59	100.4464	39295.09	-16758.3	1	42719.37	-23.09694	2.386083E-009	0.049503	6
	41	61	79.00281	40116.88	-20424.47	1	45016.91	-26.98174	2.441558E-009	0.049503	6
	42	62	63.3446	41140.03	-24416.96	1	47840.26	-30.6895	2.059792E-009	0.0495069	6
	43	64	49.86702	42960.36	-29897.21	1	52339.62	-34.83504	1.993261E-009	0.0495002	6
	44	66	39.72458	45026.88	-36147.72	1	57741.47	-38.75761	2.437655E-009	0.0495005	6
	45	67	31.6723	47991.73	-43528.5	1	64791.49	-42.20803	1.347225E-009	0.0494974	6
	46	69	24.93351	51932.13	-52722.07	1	74003.8	-45.43246	1.454208E-009	0.0494981	6
	47	70	19.86229	56873.9	-63028.23	1	84895.22	-47.9383	1.798043E-009	0.049503	6
	48	72	15.83615	63683.05	-74735.33	1	98188.1	-49.5652	2.166019E-009	0.0494974	6
	49	73	12.40079	72225.74	-89203.46	1	114777.2	-51.0038	1.228299E-009	0.0494939	5
	50	75	9.93114	81814.38	-104052.2	1	132364.8	-51.82266	3.432659E-010	0.0494966	5
	51	76	7.944915	93566.61	-120018.7	1	152181.5	-52.06001	1.632876E-009	0.0494986	5
	52	78	6.317385	108817.2	-138660	1	176260.6	-51.87599	1.021628E-010	0.0495143	5
	53	80	5.008013	126041.1	-158902.6	1	202821.1	-51.57866	4.009716E-010	0.0494892	5
	54	82	3.945707	145973.8	-180850.9	1	232412.1	-51.09126	1.447602E-009	0.0495021	5
	55	85	3.158693	166659.4	-203760.2	1	263236.7	-50.7196	-8.135831E-011	0.0494862	5
	56	88	2.504006	190700	-229422.7	1	298330.8	-50.26608	4.530691E-010	0.0495076	5
	57	91	1.998082	214137.8	-257844.5	1	335169.8	-50.29064	2.392026E-010	0.0494793	5
	58	94	1.584686	241492.7	-291891.1	1	378839.3	-50.39774	1.067042E-010	0.0494639	5
	59	98	1.266892	266484.3	-329483.3	1	423760.7	-51.03426	2.388642E-010	0.0494593	5
	60	102	0.999041	295675.3	-377549.3	1	479549.1	-51.93396	2.41444E-011	0.0495199	5
