EXPLAIN
TAG	EISPOT
TITLE	LABEL	Potentiostatic EIS	Test &Identifier
DATE	LABEL	2/21/2020	Date
TIME	LABEL	15:45:54	Time
NOTES	NOTES	1	&Notes...
	
PSTAT	PSTAT	REF600-11020	Potentiostat
VDC	POTEN	0.00000E+000	T	DC &Voltage (V)
FREQINIT	QUANT	1.00000E+006	Initial Fre&q. (Hz)
FREQFINAL	QUANT	1.00000E+000	Final Fre&q. (Hz)
PTSPERDEC	QUANT	1.00000E+001	Points/&decade
VAC	QUANT	2.50000E+001	AC &Voltage (mV rms)
AREA	QUANT	2.08200E-005	&Area (cm^2)
CONDIT	TWOPARAM	F	1.50000E+001	0.00000E+000	Conditionin&g	Time(s)	E(V)
DELAY	TWOPARAM	F	1.00000E+002	0.00000E+000	Init. De&lay	Time(s)	Stab.(mV/s)
SPEED	SELECTOR	1	&Optimize for:
ZGUESS	QUANT	2.00000E+003	E&stimated Z (ohms)
OCVCURVE	TABLE	39
	Pt	T	Vf	Vm	Ach	Over
	#	s	V vs. Ref.	V	V	bits
	0	0.258333	6.49975E-002	6.49975E-002	5.68538E-004	...........
	1	0.516667	6.49995E-002	6.51055E-002	5.66771E-004	...........
	2	0.775	6.50102E-002	6.51031E-002	5.63671E-004	...........
	3	1.03333	6.50359E-002	6.52133E-002	5.65271E-004	...........
	4	1.29167	6.50779E-002	6.52966E-002	5.68071E-004	...........
	5	1.55	6.51346E-002	6.53315E-002	5.60404E-004	...........
	6	1.80833	6.52008E-002	6.53871E-002	5.66704E-004	...........
	7	2.06667	6.52672E-002	6.54389E-002	5.69104E-004	...........
	8	2.325	6.53278E-002	6.54892E-002	5.68471E-004	...........
	9	2.58333	6.53828E-002	6.55358E-002	5.66571E-004	...........
	10	2.84167	6.54339E-002	6.55629E-002	5.63204E-004	...........
	11	3.1	6.54810E-002	6.55888E-002	5.67104E-004	...........
	12	3.35833	6.55223E-002	6.56150E-002	5.61738E-004	...........
	13	3.61667	6.55570E-002	6.56406E-002	5.64238E-004	...........
	14	3.875	6.55864E-002	6.56588E-002	5.66371E-004	...........
	15	4.13333	6.56123E-002	6.56767E-002	5.65671E-004	...........
	16	4.39167	6.56354E-002	6.56935E-002	5.62771E-004	...........
	17	4.65	6.56566E-002	6.57371E-002	5.63938E-004	...........
	18	4.90833	6.56765E-002	6.56810E-002	5.61971E-004	...........
	19	5.16667	6.56889E-002	6.54999E-002	5.61104E-004	...........
	20	5.425	6.56777E-002	6.55208E-002	5.62771E-004	...........
	21	5.68333	6.56497E-002	6.62081E-002	5.59271E-004	...........
	22	5.94167	6.56523E-002	6.55151E-002	5.66238E-004	...........
	23	6.2	6.56974E-002	6.56203E-002	5.67638E-004	...........
	24	6.45833	6.57271E-002	6.56660E-002	5.65638E-004	...........
	25	6.71667	6.57102E-002	6.56863E-002	5.68038E-004	...........
	26	6.975	6.56806E-002	6.57051E-002	5.64538E-004	...........
	27	7.23333	6.56701E-002	6.57171E-002	5.67071E-004	...........
	28	7.49167	6.56789E-002	6.57227E-002	5.64271E-004	...........
	29	7.75	6.56948E-002	6.57171E-002	5.64838E-004	...........
	30	8.00833	6.57088E-002	6.57371E-002	5.72238E-004	...........
	31	8.26667	6.57195E-002	6.57979E-002	5.69571E-004	...........
	32	8.525	6.57326E-002	6.58088E-002	5.73604E-004	...........
	33	8.78333	6.57516E-002	6.57543E-002	5.68204E-004	...........
	34	9.04167	6.57697E-002	6.57773E-002	5.68138E-004	...........
	35	9.3	6.57793E-002	6.58129E-002	5.67571E-004	...........
	36	9.5583	6.57872E-002	6.60196E-002	5.65471E-004	...........
	37	9.8167	6.58119E-002	6.59176E-002	5.69504E-004	...........
	38	10.075	6.58568E-002	6.59319E-002	5.69138E-004	...........
EOC	QUANT	0.0658568	Open Circuit (V)
PSTATMODEL	IQUANT	4	Pstat Model
PSTATSECTION	LABEL	REF600-11020	Pstat Section
PSTATSERIALNO	LABEL	11020	Pstat Serial Number
CTRLMODE	IQUANT	1	Control Mode
IESTAB	IQUANT	0	I/E Stability
CASPEED	IQUANT	1	Control Amp Speed
CONVENTION	IQUANT	1	Current Convention
ICHRANGE	IQUANT	2	Ich Range
ICHRANGEMODE	TOGGLE	F	Ich Auto Range
ICHOFFSETENABLE	TOGGLE	T	Ich Offset Enable
ICHOFFSET	QUANT	0	Ich Offset (V)
ICHFILTER	IQUANT	3	Ich Filter
VCHRANGE	IQUANT	2	Vch Range
VCHRANGEMODE	TOGGLE	F	Vch Auto Range
VCHOFFSETENABLE	TOGGLE	T	Vch Offset Enable
VCHOFFSET	QUANT	0	Vch Offset (V)
VCHFILTER	IQUANT	3	Vch Filter
ACHRANGE	IQUANT	2	Ach Range
ACHOFFSETENABLE	TOGGLE	F	Ach Offset Enable
ACHOFFSET	QUANT	0	Ach Offset (V)
ACHFILTER	IQUANT	3	Ach Filter
IERANGELOWERLIMIT	IQUANT	1	I/E Range Lower Limit
IERANGEMODE	TOGGLE	F	I/E AutoRange
IERANGE	IQUANT	7	I/E Range
POSFEEDENABLE	TOGGLE	F	Positive Feedback IR Comp
POSFEEDRESISTANCE	QUANT	0	Positive Feedback Resistance (ohm)
ACHSELECT	IQUANT	0	Ach Select
CABLEID	IQUANT	14	Cable ID
DCCALDATE	LABEL	1/27/2020	DC Calibration Date
ACCALDATE	LABEL	1/27/2020	AC Calibration Date
THERMOSELECT	IQUANT	1	Thermo Select
FRAMEWORKVERSION	QUANT	6.33	Framework Version
INSTRUMENTVERSION	LABEL	3.50	Instrument Version
ZCURVE	TABLE
	Pt	Time	Freq	Zreal	Zimag	Zsig	Zmod	Zphz	Idc	Vdc	IERange
	#	s	Hz	ohm	ohm	V	ohm	°	A	V	#
	0	2	1000078	1865.816	-2096.199	1	2806.3	-48.32788	9.028433E-007	0.067816	8
	1	3	794390.6	2323.476	-2216.186	1	3210.922	-43.64613	-5.166364E-007	0.0675943	8
	2	4	630984.4	2793.569	-2243.568	1	3582.963	-38.76861	2.024437E-006	0.067051	8
	3	6	501234.4	3254.474	-2180.066	1	3917.179	-33.81685	1.212154E-006	0.067201	8
	4	7	398109.4	3674.165	-2050.517	1	4207.625	-29.16548	6.987251E-008	0.0672658	8
	5	8	316265.6	4030.348	-1875.441	1	4445.333	-24.95396	-1.386021E-007	0.0673143	8
	6	10	251203.1	4321.154	-1677.805	1	4635.45	-21.22005	-9.395326E-007	0.0675481	8
	7	11	199546.9	4549.594	-1480.995	1	4784.575	-18.03123	-7.945779E-007	0.0674692	8
	8	12	158578.1	4725.441	-1293.45	1	4899.266	-15.30807	2.204973E-007	0.0672251	8
	9	14	125953.1	4879.385	-1126.325	1	5007.695	-12.99811	-3.36465E-007	0.0681736	7
	10	15	100078.1	4987.576	-995.828	1	5086.019	-11.29129	3.819971E-008	0.0672138	7
	11	17	79453.13	5074.916	-897.887	1	5153.734	-10.03331	2.50745E-008	0.0671875	7
	12	18	63140.62	5149.055	-825.1776	1	5214.757	-9.104693	-1.00928E-008	0.0672419	7
	13	19	50203.12	5214.715	-776.4851	1	5272.208	-8.469269	-1.086165E-008	0.0672707	7
	14	21	39890.62	5277.799	-748.6179	1	5330.628	-8.07314	1.727498E-008	0.0672447	7
	15	22	31640.63	5336.907	-743.5676	1	5388.457	-7.931708	-1.049128E-008	0.0672707	7
	16	23	25171.88	5396.46	-757.2524	1	5449.332	-7.987812	-1.989725E-008	0.0672665	7
	17	25	20015.62	5459.426	-791.1373	1	5516.451	-8.245459	1.622796E-008	0.0672201	7
	18	26	15890.62	5525.623	-846.5615	1	5590.096	-8.710359	4.652743E-008	0.067172	7
	19	27	12609.37	5598.184	-924.2565	1	5673.968	-9.374928	5.449945E-009	0.0672209	7
	20	29	10078.13	5672.498	-1021.449	1	5763.731	-10.20788	9.54893E-009	0.0671955	7
	21	30	8015.625	5757.436	-1146.976	1	5870.573	-11.26676	-3.924775E-009	0.0672767	7
	22	32	6328.125	5853.957	-1309.267	1	5998.583	-12.60701	4.745411E-008	0.0671623	7
	23	33	5015.625	5958.545	-1506.022	1	6145.922	-14.18444	-8.382793E-009	0.067267	7
	24	34	3984.375	6076.54	-1740.824	1	6320.981	-15.98609	2.583391E-008	0.0671673	7
	25	36	3170.956	6209.404	-2026.459	1	6531.71	-18.07426	1.403886E-008	0.067215	7
	26	37	2527.573	6358.59	-2370.73	1	6786.165	-20.44741	4.243883E-008	0.0671863	7
	27	38	1976.103	6544.688	-2819.314	1	7126.112	-23.30537	1.454021E-008	0.067216	7
	28	40	1577.524	6740.868	-3318.598	1	7513.48	-26.2115	4.762094E-008	0.0671596	7
	29	41	1265.625	6960.163	-3904.104	1	7980.344	-29.289	1.06345E-008	0.0671877	7
	30	42	998.264	7237.204	-4659.57	1	8607.48	-32.77488	2.468777E-009	0.0671979	7
	31	44	796.875	7537.883	-5531.931	1	9349.97	-36.27435	-8.371369E-009	0.0672281	7
	32	45	627.7902	7913.9	-6644.877	1	10333.64	-40.01838	-2.788774E-009	0.0672756	6
	33	47	505.5147	8306.502	-7863.209	1	11438.01	-43.42963	4.260956E-009	0.0671981	6
	34	48	397.9953	8808.735	-9495.484	1	12952.14	-47.14865	1.150599E-009	0.0672413	6
	35	49	315.5048	9388.286	-11424.28	1	14786.96	-50.5872	1.429715E-009	0.0672419	6
	36	51	252.4038	10045.08	-13671.25	1	16964.87	-53.69305	1.158197E-009	0.0672419	6
	37	52	198.6229	10885.17	-16604.13	1	19854.07	-56.75237	1.204686E-009	0.0672435	6
	38	53	158.3615	11843.39	-19978.37	1	23225.01	-59.34009	8.161301E-010	0.0672394	6
	39	55	125.558	13032.06	-24178.73	1	27467.18	-61.67584	1.250437E-009	0.0672442	6
	40	56	100.4464	14417.31	-29082.32	1	32459.82	-63.63048	1.437639E-009	0.0672395	6
	41	58	79.00281	16221.78	-35486.52	1	39018.45	-65.43366	1.281517E-009	0.0672351	6
	42	59	63.3446	18066.25	-42590.53	1	46263.84	-67.01408	8.157279E-010	0.0672384	6
	43	60	49.86702	21136.74	-51712.03	1	55864.98	-67.76823	1.139833E-009	0.0672372	6
	44	62	39.72458	24373.83	-62638.1	1	67213.21	-68.73792	1.280084E-009	0.0672364	6
	45	63	31.6723	28407.26	-75485.29	1	80653.59	-69.37725	7.483149E-010	0.0672408	6
	46	65	24.93351	33787.14	-92166.59	1	98164.4	-69.86768	5.837861E-010	0.0672424	6
	47	66	19.86229	40250.86	-111059.5	1	118128.5	-70.07816	7.432417E-010	0.0672514	5
	48	67	15.83615	49518.04	-133822.4	1	142690.1	-69.69411	9.160985E-010	0.0672403	5
	49	69	12.40079	59855.14	-163070	1	173707.9	-69.84424	3.097236E-010	0.0672405	5
	50	70	9.93114	74415.63	-194650.6	1	208390.4	-69.07796	2.42222E-010	0.0672432	5
	51	72	7.944915	92604.8	-231638.4	1	249463.4	-68.20937	3.268298E-010	0.0672398	5
	52	73	6.317385	116523	-275003.4	1	298671.2	-67.0369	5.401525E-010	0.0672369	5
	53	75	5.008013	147239.4	-325604.3	1	357348	-65.66735	3.78552E-010	0.0672556	5
	54	78	3.945707	186898.5	-383692.6	1	426791.6	-64.02907	-3.04107E-012	0.0672371	5
	55	81	3.158693	231841.7	-443528.6	1	500468	-62.40299	3.238906E-010	0.0672611	5
	56	84	2.504006	288220.8	-512233.6	1	587753.7	-60.63465	-1.110435E-010	0.0672381	5
	57	87	1.998082	351719.6	-583564.8	1	681362.3	-58.92227	-1.512955E-011	0.0672185	5
	58	90	1.584686	427431.2	-660694.1	1	786901.6	-57.09945	1.039783E-010	0.0672849	5
	59	93	1.266892	507308.8	-744769.6	1	901134.8	-55.7388	-3.845213E-011	0.0672259	5
	60	98	0.999041	603782.1	-841099.2	1	1035375	-54.32737	2.54987E-010	0.0672158	4
