EXPLAIN
TAG	EISPOT
TITLE	LABEL	Potentiostatic EIS	Test &Identifier
DATE	LABEL	3/17/2020	Date
TIME	LABEL	16:42:00	Time
NOTES	NOTES	1	&Notes...
	
PSTAT	PSTAT	REF600-11020	Potentiostat
VDC	POTEN	0.00000E+000	T	DC &Voltage (V)
FREQINIT	QUANT	1.00000E+006	Initial Fre&q. (Hz)
FREQFINAL	QUANT	1.00000E+000	Final Fre&q. (Hz)
PTSPERDEC	QUANT	1.00000E+001	Points/&decade
VAC	QUANT	2.50000E+001	AC &Voltage (mV rms)
AREA	QUANT	4.00000E-004	&Area (cm^2)
CONDIT	TWOPARAM	F	5.00000E+000	0.00000E+000	Conditionin&g	Time(s)	E(V)
DELAY	TWOPARAM	T	3.00000E+000	0.00000E+000	Init. De&lay	Time(s)	Stab.(mV/s)
SPEED	SELECTOR	0	&Optimize for:
ZGUESS	QUANT	5.00000E+003	E&stimated Z (ohms)
OCVCURVE	TABLE	12
	Pt	T	Vf	Vm	Ach	Over
	#	s	V vs. Ref.	V	V	bits
	0	0.258333	2.81964E-002	2.81964E-002	5.73097E-004	...........
	1	0.516667	2.81967E-002	2.82160E-002	5.73997E-004	...........
	2	0.775	2.81990E-002	2.82319E-002	5.73230E-004	...........
	3	1.03333	2.82052E-002	2.82492E-002	5.79297E-004	...........
	4	1.29167	2.82162E-002	2.82636E-002	5.76030E-004	...........
	5	1.55	2.82305E-002	2.82775E-002	5.71063E-004	...........
	6	1.80833	2.82460E-002	2.82896E-002	5.74397E-004	...........
	7	2.06667	2.82612E-002	2.83006E-002	5.72197E-004	...........
	8	2.325	2.82751E-002	2.83120E-002	5.71330E-004	...........
	9	2.58333	2.82880E-002	2.83263E-002	5.71163E-004	...........
	10	2.84167	2.83001E-002	2.83375E-002	5.74197E-004	...........
	11	3.1	2.83123E-002	2.83519E-002	5.69230E-004	...........
EOC	QUANT	0.0283123	Open Circuit (V)
PSTATMODEL	IQUANT	4	Pstat Model
PSTATSECTION	LABEL	REF600-11020	Pstat Section
PSTATSERIALNO	LABEL	11020	Pstat Serial Number
CTRLMODE	IQUANT	1	Control Mode
IESTAB	IQUANT	0	I/E Stability
CASPEED	IQUANT	1	Control Amp Speed
CONVENTION	IQUANT	1	Current Convention
ICHRANGE	IQUANT	2	Ich Range
ICHRANGEMODE	TOGGLE	F	Ich Auto Range
ICHOFFSETENABLE	TOGGLE	T	Ich Offset Enable
ICHOFFSET	QUANT	0	Ich Offset (V)
ICHFILTER	IQUANT	3	Ich Filter
VCHRANGE	IQUANT	2	Vch Range
VCHRANGEMODE	TOGGLE	F	Vch Auto Range
VCHOFFSETENABLE	TOGGLE	T	Vch Offset Enable
VCHOFFSET	QUANT	0	Vch Offset (V)
VCHFILTER	IQUANT	3	Vch Filter
ACHRANGE	IQUANT	2	Ach Range
ACHOFFSETENABLE	TOGGLE	F	Ach Offset Enable
ACHOFFSET	QUANT	0	Ach Offset (V)
ACHFILTER	IQUANT	3	Ach Filter
IERANGELOWERLIMIT	IQUANT	1	I/E Range Lower Limit
IERANGEMODE	TOGGLE	F	I/E AutoRange
IERANGE	IQUANT	7	I/E Range
POSFEEDENABLE	TOGGLE	F	Positive Feedback IR Comp
POSFEEDRESISTANCE	QUANT	0	Positive Feedback Resistance (ohm)
ACHSELECT	IQUANT	0	Ach Select
CABLEID	IQUANT	14	Cable ID
DCCALDATE	LABEL	2/27/2020	DC Calibration Date
ACCALDATE	LABEL	2/27/2020	AC Calibration Date
THERMOSELECT	IQUANT	1	Thermo Select
FRAMEWORKVERSION	QUANT	6.33	Framework Version
INSTRUMENTVERSION	LABEL	3.50	Instrument Version
ZCURVE	TABLE
	Pt	Time	Freq	Zreal	Zimag	Zsig	Zmod	Zphz	Idc	Vdc	IERange
	#	s	Hz	ohm	ohm	V	ohm	°	A	V	#
	0	2	1000078	2157.688	-1581.304	1	2675.096	-36.23654	1.867879E-008	0.0304913	8
	1	2	794390.6	2450.598	-1581.559	1	2916.635	-32.83725	7.07489E-008	0.0302267	8
	2	2	630984.4	2734.327	-1553.541	1	3144.843	-29.60359	3.831745E-008	0.0300613	8
	3	3	501234.4	2996.488	-1499.39	1	3350.688	-26.58258	5.89689E-008	0.0300025	8
	4	3	398109.4	3243.27	-1432.448	1	3545.519	-23.8295	5.517004E-008	0.0299241	8
	5	3	316265.6	3465.187	-1357.05	1	3721.438	-21.38649	4.376361E-008	0.0299039	8
	6	4	251203.1	3666.378	-1274.341	1	3881.53	-19.16616	3.663773E-008	0.0299022	8
	7	4	199546.9	3847.109	-1192.731	1	4027.76	-17.22517	5.137736E-008	0.029908	8
	8	4	158578.1	4010.512	-1115.415	1	4162.734	-15.54246	5.664552E-008	0.0299209	8
	9	4	125953.1	4199.465	-966.645	1	4309.282	-12.96271	-1.303871E-010	0.0298413	7
	10	5	100078.1	4313.245	-907.1888	1	4407.616	-11.87768	6.510375E-010	0.0298332	7
	11	5	79453.13	4430.23	-863.059	1	4513.515	-11.02379	1.373032E-009	0.0298296	7
	12	5	63140.62	4538.855	-823.8173	1	4613.012	-10.28738	1.643378E-009	0.0298346	7
	13	6	50203.12	4638.35	-790.4569	1	4705.222	-9.6713	1.483999E-009	0.0298252	7
	14	6	39890.62	4731.944	-765.7901	1	4793.509	-9.192714	1.224596E-009	0.0298229	7
	15	6	31640.63	4821.177	-749.7937	1	4879.133	-8.839875	1.663734E-009	0.0298201	7
	16	7	25171.88	4905.208	-743.5572	1	4961.244	-8.619575	2.363838E-009	0.0298301	7
	17	7	20015.62	4985.842	-748.1206	1	5041.657	-8.533511	1.187117E-009	0.0298223	7
	18	7	15890.62	5065.583	-764.2156	1	5122.905	-8.57919	2.040381E-009	0.029818	7
	19	8	12609.37	5144.983	-794.4687	1	5205.961	-8.778066	1.807541E-009	0.029821	7
	20	8	10078.13	5220.339	-836.9758	1	5287.01	-9.108699	1.379364E-009	0.0298124	7
	21	8	8015.625	5299.316	-898.2606	1	5374.907	-9.62048	2.2389E-009	0.0298172	7
	22	9	6328.125	5382.092	-982.84	1	5471.096	-10.34892	3.907906E-009	0.0298204	7
	23	9	5015.625	5464.848	-1089.355	1	5572.365	-11.27349	3.131233E-009	0.0298104	7
	24	9	3984.375	5551.719	-1224.692	1	5685.196	-12.44004	3.948517E-009	0.0298113	7
	25	10	3170.956	5642.524	-1392.069	1	5811.707	-13.85871	2.97026E-009	0.029812	7
	26	10	2527.573	5738.538	-1599.261	1	5957.218	-15.57251	3.578148E-009	0.0298178	7
	27	10	1976.103	5850.606	-1878.501	1	6144.783	-17.80068	4.335708E-009	0.0298147	7
	28	10	1577.524	5962.417	-2198.615	1	6354.866	-20.24123	4.235994E-009	0.0298119	7
	29	11	1265.625	6081.723	-2580.539	1	6606.552	-22.99203	2.387454E-009	0.0298002	7
	30	11	998.264	6227.161	-3091.161	1	6952.18	-26.39979	2.667252E-009	0.0298013	7
	31	11	796.875	6387.01	-3691.171	1	7376.899	-30.02441	2.987091E-009	0.0298026	7
	32	12	627.7902	6584.514	-4475.86	1	7961.73	-34.20612	3.168915E-009	0.0297992	7
	33	12	505.5147	6801.238	-5356.939	1	8657.576	-38.22544	4.230989E-009	0.0298011	7
	34	12	397.9953	7090.005	-6537.58	1	9644.07	-42.67865	4.242212E-009	0.0298174	7
	35	13	315.5048	7443.327	-7948.547	1	10889.56	-46.87999	6.151464E-010	0.0298679	6
	36	13	252.4038	7858.831	-9604.69	1	12410.12	-50.70898	4.80588E-010	0.0298628	6
	37	13	198.6229	8417.383	-11775.57	1	14474.68	-54.44214	6.577244E-010	0.029864	6
	38	14	158.3615	9084.104	-14277.14	1	16922.11	-57.53266	6.491016E-010	0.0298597	6
	39	14	125.558	9946.32	-17386.96	1	20030.87	-60.22801	6.554115E-010	0.0298683	6
	40	14	100.4464	10995.68	-20998.99	1	23703.64	-62.36215	4.439618E-010	0.0298619	6
	41	15	79.00281	12433.1	-25707	1	28555.77	-64.18944	5.608135E-010	0.0298594	6
	42	15	63.3446	14122.69	-30927.84	1	33999.73	-65.45697	4.421501E-010	0.0298654	6
	43	15	49.86702	16477.38	-37740.05	1	41180.28	-66.41382	4.333137E-010	0.0298586	6
	44	16	39.72458	19387.79	-45502.18	1	49460.43	-66.92188	5.432854E-010	0.0298634	6
	45	16	31.6723	23154.36	-54690.45	1	59389.97	-67.0536	2.992967E-010	0.0298594	6
	46	16	24.93351	28335.68	-66105.06	1	71922.11	-66.79779	1.054056E-009	0.0298565	6
	47	17	19.86229	34688.5	-78781.45	1	86080.25	-66.23548	2.314591E-009	0.0298644	6
	48	17	15.83615	42894.22	-93431.71	1	102807.6	-65.34029	-7.358765E-010	0.0298544	6
	49	17	12.40079	54116.06	-110962.5	1	123455.4	-64.00166	4.811094E-010	0.0298575	5
	50	18	9.93114	66580.58	-128980.4	1	145151.4	-62.6969	1.237633E-010	0.0298667	5
	51	18	7.944915	81530.45	-148653.2	1	169543.5	-61.25697	-1.270001E-009	0.0298633	5
	52	18	6.317385	99667.3	-170887	1	197828	-59.74775	4.786361E-010	0.0298469	5
	53	19	5.008013	120848.1	-195675.4	1	229985.1	-58.30074	5.578972E-010	0.0298606	5
	54	20	3.945707	145353.3	-223336.6	1	266471.1	-56.94287	-1.916221E-010	0.0298459	5
	55	21	3.158693	171233.9	-252250.7	1	304879.4	-55.83038	3.537876E-010	0.0298581	5
	56	22	2.504006	200818.6	-285768.3	1	349273	-54.90305	1.743131E-010	0.0298651	5
	57	23	1.998082	233323.8	-322853.5	1	398339.5	-54.14464	-1.582843E-010	0.0298141	5
	58	25	1.584686	269290.1	-365764	1	454203.1	-53.63801	-5.165415E-011	0.0298388	5
	59	27	1.266892	309556.6	-412279.6	1	515557.7	-53.09926	5.574137E-011	0.0298792	5
	60	29	0.999041	357821.1	-469814.2	1	590560.1	-52.70628	1.185793E-010	0.0298965	5
