EXPLAIN
TAG	EISPOT
TITLE	LABEL	Potentiostatic EIS	Test &Identifier
DATE	LABEL	2/13/2020	Date
TIME	LABEL	10:22:29	Time
NOTES	NOTES	1	&Notes...
	
PSTAT	PSTAT	REF600-11020	Potentiostat
VDC	POTEN	0.00000E+000	T	DC &Voltage (V)
FREQINIT	QUANT	1.00000E+006	Initial Fre&q. (Hz)
FREQFINAL	QUANT	1.00000E+000	Final Fre&q. (Hz)
PTSPERDEC	QUANT	1.00000E+001	Points/&decade
VAC	QUANT	2.50000E+001	AC &Voltage (mV rms)
AREA	QUANT	5.00000E-004	&Area (cm^2)
CONDIT	TWOPARAM	F	1.50000E+001	0.00000E+000	Conditionin&g	Time(s)	E(V)
DELAY	TWOPARAM	F	1.00000E+002	0.00000E+000	Init. De&lay	Time(s)	Stab.(mV/s)
SPEED	SELECTOR	0	&Optimize for:
ZGUESS	QUANT	1.00000E+003	E&stimated Z (ohms)
OCVCURVE	TABLE	39
	Pt	T	Vf	Vm	Ach	Over
	#	s	V vs. Ref.	V	V	bits
	0	0.258333	7.76111E-002	7.76111E-002	6.42336E-004	...........
	1	0.516667	7.76180E-002	7.79723E-002	6.39537E-004	...........
	2	0.775	7.76511E-002	7.78325E-002	6.36703E-004	...........
	3	1.03333	7.77205E-002	7.80238E-002	6.39036E-004	...........
	4	1.29167	7.78113E-002	7.81399E-002	6.39203E-004	...........
	5	1.55	7.79095E-002	7.82748E-002	6.43370E-004	...........
	6	1.80833	7.80159E-002	7.83554E-002	6.45170E-004	...........
	7	2.06667	7.81291E-002	7.84421E-002	6.46670E-004	...........
	8	2.325	7.82405E-002	7.85565E-002	6.46470E-004	...........
	9	2.58333	7.83451E-002	7.86411E-002	6.50836E-004	...........
	10	2.84167	7.84440E-002	7.87166E-002	6.46870E-004	...........
	11	3.1	7.85383E-002	7.88023E-002	6.47103E-004	...........
	12	3.35833	7.86276E-002	7.88800E-002	6.40936E-004	...........
	13	3.61667	7.87123E-002	7.89614E-002	6.47670E-004	...........
	14	3.875	7.87972E-002	7.91958E-002	6.46503E-004	...........
	15	4.13333	7.88893E-002	7.90766E-002	6.44470E-004	...........
	16	4.39167	7.89837E-002	7.91510E-002	6.45636E-004	...........
	17	4.65	7.90625E-002	7.92452E-002	6.40870E-004	...........
	18	4.90833	7.91212E-002	7.92885E-002	6.48103E-004	...........
	19	5.16667	7.91730E-002	7.93462E-002	6.46503E-004	...........
	20	5.425	7.92272E-002	7.93909E-002	6.45936E-004	...........
	21	5.68333	7.92830E-002	7.94588E-002	6.42103E-004	...........
	22	5.94167	7.93388E-002	7.95181E-002	6.44536E-004	...........
	23	6.2	7.93950E-002	7.95671E-002	6.49336E-004	...........
	24	6.45833	7.94521E-002	7.96262E-002	6.48570E-004	...........
	25	6.71667	7.95095E-002	7.97036E-002	6.47936E-004	...........
	26	6.975	7.95679E-002	7.97544E-002	6.48270E-004	...........
	27	7.23333	7.96279E-002	7.97948E-002	6.45936E-004	...........
	28	7.49167	7.96871E-002	7.98386E-002	6.45536E-004	...........
	29	7.75	7.97415E-002	7.98770E-002	6.50603E-004	...........
	30	8.00833	7.97896E-002	7.99021E-002	6.42903E-004	...........
	31	8.26667	7.98321E-002	7.99560E-002	6.47370E-004	...........
	32	8.525	7.98707E-002	7.99736E-002	6.53303E-004	...........
	33	8.78333	7.99076E-002	8.00291E-002	6.48803E-004	...........
	34	9.04167	7.99449E-002	8.00912E-002	6.40403E-004	...........
	35	9.3	7.99852E-002	8.01216E-002	6.47536E-004	...........
	36	9.5583	8.00297E-002	8.01764E-002	6.43337E-004	...........
	37	9.8167	8.00764E-002	8.02185E-002	6.45436E-004	...........
	38	10.075	8.01235E-002	8.02715E-002	6.43470E-004	...........
EOC	QUANT	0.0801235	Open Circuit (V)
PSTATMODEL	IQUANT	4	Pstat Model
PSTATSECTION	LABEL	REF600-11020	Pstat Section
PSTATSERIALNO	LABEL	11020	Pstat Serial Number
CTRLMODE	IQUANT	1	Control Mode
IESTAB	IQUANT	0	I/E Stability
CASPEED	IQUANT	1	Control Amp Speed
CONVENTION	IQUANT	1	Current Convention
ICHRANGE	IQUANT	2	Ich Range
ICHRANGEMODE	TOGGLE	F	Ich Auto Range
ICHOFFSETENABLE	TOGGLE	T	Ich Offset Enable
ICHOFFSET	QUANT	0	Ich Offset (V)
ICHFILTER	IQUANT	3	Ich Filter
VCHRANGE	IQUANT	2	Vch Range
VCHRANGEMODE	TOGGLE	F	Vch Auto Range
VCHOFFSETENABLE	TOGGLE	T	Vch Offset Enable
VCHOFFSET	QUANT	0	Vch Offset (V)
VCHFILTER	IQUANT	3	Vch Filter
ACHRANGE	IQUANT	2	Ach Range
ACHOFFSETENABLE	TOGGLE	F	Ach Offset Enable
ACHOFFSET	QUANT	0	Ach Offset (V)
ACHFILTER	IQUANT	3	Ach Filter
IERANGELOWERLIMIT	IQUANT	1	I/E Range Lower Limit
IERANGEMODE	TOGGLE	F	I/E AutoRange
IERANGE	IQUANT	8	I/E Range
POSFEEDENABLE	TOGGLE	F	Positive Feedback IR Comp
POSFEEDRESISTANCE	QUANT	0	Positive Feedback Resistance (ohm)
ACHSELECT	IQUANT	0	Ach Select
CABLEID	IQUANT	14	Cable ID
DCCALDATE	LABEL	1/27/2020	DC Calibration Date
ACCALDATE	LABEL	1/27/2020	AC Calibration Date
THERMOSELECT	IQUANT	1	Thermo Select
FRAMEWORKVERSION	QUANT	6.33	Framework Version
INSTRUMENTVERSION	LABEL	3.50	Instrument Version
ZCURVE	TABLE
	Pt	Time	Freq	Zreal	Zimag	Zsig	Zmod	Zphz	Idc	Vdc	IERange
	#	s	Hz	ohm	ohm	V	ohm	°	A	V	#
	0	1	1000078	1155.433	-7170.369	1	7262.866	-80.84605	-9.332116E-008	0.0820126	8
	1	1	794390.6	1949.857	-8835.39	1	9047.986	-77.55503	6.051011E-007	0.0817678	8
	2	2	630984.4	1836.665	-11015.61	1	11167.68	-80.53398	-1.519268E-006	0.0819295	8
	3	2	501234.4	2212.95	-13779.04	1	13955.61	-80.87606	5.623348E-007	0.0815093	8
	4	3	398109.4	3450.941	-17195.58	1	17538.45	-78.65218	5.327703E-007	0.0814503	8
	5	3	316265.6	4061.444	-20830.89	1	21223.14	-78.96733	2.115409E-006	0.0812906	8
	6	4	251203.1	5245.242	-26048.46	1	26571.32	-78.6149	2.792441E-007	0.0815024	8
	7	4	199546.9	7482.405	-31599.41	1	32473.21	-76.67833	3.811764E-007	0.0814181	8
	8	4	158578.1	9745.91	-38383.82	1	39601.78	-75.75328	3.792193E-007	0.0814256	8
	9	5	125953.1	14272.57	-47721.65	1	49810.26	-73.34915	-7.122505E-007	0.0831568	7
	10	5	100078.1	20451.05	-56569.85	1	60153.08	-70.12414	2.022205E-008	0.0814928	7
	11	5	79453.13	27277.41	-67612.98	1	72907.97	-68.02915	2.04252E-008	0.0814805	7
	12	6	63140.62	37576.45	-78956.5	1	87442.09	-64.5496	1.659327E-008	0.0813936	7
	13	6	50203.12	49345.96	-91342.8	1	103819.7	-61.62083	3.652583E-008	0.0815282	7
	14	7	39890.62	64847.29	-103087.9	1	121787.9	-57.82812	2.061369E-008	0.0814746	7
	15	7	31640.63	83025.1	-114319.8	1	141287.5	-54.01085	-3.141858E-008	0.0815207	7
	16	7	25171.88	103357.4	-124440.9	1	161766.2	-50.28786	-4.491896E-008	0.0815592	7
	17	8	20015.62	126047.5	-129558.8	1	180758	-45.78703	-4.282873E-008	0.0815352	7
	18	8	15890.62	150130.3	-137565.5	1	203625.6	-42.49926	-4.16457E-008	0.0815321	7
	19	8	12609.37	176579.3	-139445.7	1	225000.8	-38.29835	-8.102043E-009	0.0816526	6
	20	9	10078.13	201323.5	-142745.4	1	246794.2	-35.33797	-1.586261E-009	0.0815931	6
	21	9	8015.625	222767.6	-143208.1	1	264828.2	-32.73529	1.253368E-008	0.081346	6
	22	9	6328.125	247533.9	-139095.7	1	283937.7	-29.33275	1.603251E-008	0.0812176	6
	23	9	5015.625	269839.9	-137346	1	302782.9	-26.97566	1.101659E-008	0.0814388	6
	24	10	3984.375	292091.5	-135018.1	1	321787.7	-24.80855	-5.075769E-009	0.0816296	6
	25	10	3170.956	310220	-129429.8	1	336137.7	-22.64685	-1.669335E-009	0.0815841	6
	26	10	2527.573	329465.3	-126666.3	1	352975.5	-21.02977	5.292417E-010	0.0813578	6
	27	11	1976.103	340621.8	-122844.1	1	362096.5	-19.83166	-2.387157E-010	0.0816032	6
	28	11	1577.524	357011	-113769.3	1	374700.3	-17.67561	-5.198237E-009	0.0814887	6
	29	11	1265.625	373474.7	-111554.5	1	389779.1	-16.63054	-1.510831E-009	0.0815584	5
	30	12	998.264	389429.7	-111858.2	1	405176.2	-16.02597	-2.273514E-010	0.0813869	5
	31	12	796.875	403724.4	-114298.1	1	419592	-15.80731	3.617226E-010	0.0814709	5
	32	12	627.7902	419698.5	-114960.8	1	435158.4	-15.31832	7.724252E-010	0.0811959	5
	33	13	505.5147	434206.1	-118140.3	1	449991.2	-15.22077	1.896374E-010	0.0815355	5
	34	13	397.9953	450550.7	-121738.8	1	466707.9	-15.12026	4.128215E-010	0.0814839	5
	35	13	315.5048	467214.5	-125725.7	1	483835	-15.0613	-6.047655E-010	0.0814844	5
	36	14	252.4038	483931.8	-130992.5	1	501347.3	-15.14608	-5.066835E-010	0.081485	5
	37	14	198.6229	501292.9	-136733.1	1	519606.1	-15.25691	1.103317E-010	0.0814816	5
	38	14	158.3615	516201.1	-147327.5	1	536813.7	-15.92913	2.977596E-011	0.081478	5
	39	15	125.558	535466.2	-154542.4	1	557321.6	-16.09881	1.071154E-010	0.0814813	5
	40	15	100.4464	549204.4	-156504.2	1	571068.4	-15.90571	-7.466144E-010	0.0814795	5
	41	15	79.00281	555564.9	-181787.9	1	584550.4	-18.11875	1.653204E-010	0.0814796	5
	42	16	63.3446	645266.9	-120820.3	1	656480.7	-10.60531	-1.529361E-010	0.0814779	5
	43	16	49.86702	624425.3	-216525.9	1	660901.2	-19.12451	6.457493E-010	0.0814754	6
	44	17	39.72458	635559.9	-230044.9	1	675912.1	-19.89804	-4.215633E-010	0.0814803	5
	45	17	31.6723	685305.8	-253094.5	1	730548.3	-20.27	-4.180755E-010	0.0814827	5
	46	18	24.93351	704800.6	-277884.3	1	757603.8	-21.51801	1.331057E-010	0.081476	5
	47	18	19.86229	735348.5	-310100.8	1	798060.1	-22.86544	9.330514E-010	0.0814893	6
	48	18	15.83615	743530.1	-318696.5	1	808952.6	-23.20124	-5.39558E-010	0.0814812	6
	49	19	12.40079	830955.8	-347823.9	1	900815.7	-22.71335	1.29776E-009	0.0814844	6
	50	20	9.93114	866267.1	-430662.1	1	967413	-26.43413	7.327909E-011	0.0814831	5
	51	20	7.944915	913861.7	-477577.8	1	1031127	-27.59126	2.612354E-010	0.0814763	5
	52	21	6.317385	970132	-530633.3	1	1105770	-28.67734	1.986215E-010	0.0814655	5
	53	22	5.008013	1036968	-596669.6	1	1196377	-29.91605	2.544971E-011	0.08143	4
	54	23	3.945707	1113463	-670828.9	1	1299928	-31.06773	-1.158767E-010	0.0814294	4
	55	25	3.158693	1195496	-759122.8	1	1416149	-32.41496	-1.631482E-010	0.0814121	4
	56	26	2.504006	1296176	-853939.7	1	1552187	-33.37747	-9.358295E-011	0.0814117	4
	57	28	1.998082	1409576	-958155	1	1704396	-34.20579	-4.87885E-011	0.0814361	4
	58	29	1.584686	1542283	-1068731	1	1876386	-34.72017	-1.304965E-010	0.0813943	4
	59	31	1.266892	1695493	-1184021	1	2067995	-34.92792	-1.843977E-010	0.0813718	4
	60	34	0.999041	1875225	-1312460	1	2288891	-34.98796	-2.040417E-010	0.0813767	4
