EXPLAIN
TAG	EISPOT
TITLE	LABEL	Potentiostatic EIS	Test &Identifier
DATE	LABEL	2/18/2020	Date
TIME	LABEL	16:32:00	Time
NOTES	NOTES	1	&Notes...
	
PSTAT	PSTAT	REF600-11020	Potentiostat
VDC	POTEN	0.00000E+000	T	DC &Voltage (V)
FREQINIT	QUANT	1.00000E+006	Initial Fre&q. (Hz)
FREQFINAL	QUANT	1.00000E+000	Final Fre&q. (Hz)
PTSPERDEC	QUANT	1.00000E+001	Points/&decade
VAC	QUANT	2.50000E+001	AC &Voltage (mV rms)
AREA	QUANT	1.60000E-004	&Area (cm^2)
CONDIT	TWOPARAM	F	1.50000E+001	0.00000E+000	Conditionin&g	Time(s)	E(V)
DELAY	TWOPARAM	F	1.00000E+002	0.00000E+000	Init. De&lay	Time(s)	Stab.(mV/s)
SPEED	SELECTOR	1	&Optimize for:
ZGUESS	QUANT	1.00000E+003	E&stimated Z (ohms)
OCVCURVE	TABLE	39
	Pt	T	Vf	Vm	Ach	Over
	#	s	V vs. Ref.	V	V	bits
	0	0.258333	1.04334E-002	1.04334E-002	6.39470E-004	...........
	1	0.516667	1.04316E-002	1.03402E-002	6.38503E-004	...........
	2	0.775	1.04221E-002	1.03293E-002	6.43237E-004	...........
	3	1.03333	1.03986E-002	1.02284E-002	6.38037E-004	...........
	4	1.29167	1.03607E-002	1.02491E-002	6.42570E-004	...........
	5	1.55	1.03205E-002	1.04528E-002	6.45503E-004	...........
	6	1.80833	1.03025E-002	1.04020E-002	6.42170E-004	...........
	7	2.06667	1.03215E-002	1.04749E-002	6.42436E-004	...........
	8	2.325	1.03649E-002	1.04440E-002	6.38770E-004	...........
	9	2.58333	1.04080E-002	1.04520E-002	6.39270E-004	...........
	10	2.84167	1.04369E-002	1.04744E-002	6.43136E-004	...........
	11	3.1	1.04521E-002	1.04752E-002	6.34870E-004	...........
	12	3.35833	1.04601E-002	1.04403E-002	6.40003E-004	...........
	13	3.61667	1.04633E-002	1.04510E-002	6.36537E-004	...........
	14	3.875	1.04612E-002	1.04463E-002	6.39870E-004	...........
	15	4.13333	1.04560E-002	1.04513E-002	6.34737E-004	...........
	16	4.39167	1.04516E-002	1.04546E-002	6.39370E-004	...........
	17	4.65	1.04501E-002	1.04577E-002	6.40737E-004	...........
	18	4.90833	1.04512E-002	1.04582E-002	6.43337E-004	...........
	19	5.16667	1.04534E-002	1.04531E-002	6.38637E-004	...........
	20	5.425	1.04553E-002	1.04594E-002	6.34070E-004	...........
	21	5.68333	1.04564E-002	1.04627E-002	6.35537E-004	...........
	22	5.94167	1.04573E-002	1.04548E-002	6.37870E-004	...........
	23	6.2	1.04582E-002	1.04615E-002	6.36637E-004	...........
	24	6.45833	1.04588E-002	1.04594E-002	6.36637E-004	...........
	25	6.71667	1.04590E-002	1.04535E-002	6.35003E-004	...........
	26	6.975	1.04583E-002	1.04336E-002	6.30503E-004	...........
	27	7.23333	1.04557E-002	1.04617E-002	6.32237E-004	...........
	28	7.49167	1.04525E-002	1.04663E-002	6.31437E-004	...........
	29	7.75	1.04521E-002	1.04551E-002	6.34370E-004	...........
	30	8.00833	1.04547E-002	1.04632E-002	6.39637E-004	...........
	31	8.26667	1.04578E-002	1.04590E-002	6.36637E-004	...........
	32	8.525	1.04594E-002	1.04491E-002	6.35337E-004	...........
	33	8.78333	1.04590E-002	1.04482E-002	6.38703E-004	...........
	34	9.04167	1.04564E-002	1.04454E-002	6.38403E-004	...........
	35	9.3	1.04526E-002	1.04396E-002	6.32003E-004	...........
	36	9.5583	1.04486E-002	1.04352E-002	6.38837E-004	...........
	37	9.8167	1.04446E-002	1.04358E-002	6.40303E-004	...........
	38	10.075	1.04409E-002	1.04379E-002	6.37003E-004	...........
EOC	QUANT	0.0104409	Open Circuit (V)
PSTATMODEL	IQUANT	4	Pstat Model
PSTATSECTION	LABEL	REF600-11020	Pstat Section
PSTATSERIALNO	LABEL	11020	Pstat Serial Number
CTRLMODE	IQUANT	1	Control Mode
IESTAB	IQUANT	0	I/E Stability
CASPEED	IQUANT	1	Control Amp Speed
CONVENTION	IQUANT	1	Current Convention
ICHRANGE	IQUANT	2	Ich Range
ICHRANGEMODE	TOGGLE	F	Ich Auto Range
ICHOFFSETENABLE	TOGGLE	T	Ich Offset Enable
ICHOFFSET	QUANT	0	Ich Offset (V)
ICHFILTER	IQUANT	3	Ich Filter
VCHRANGE	IQUANT	2	Vch Range
VCHRANGEMODE	TOGGLE	F	Vch Auto Range
VCHOFFSETENABLE	TOGGLE	T	Vch Offset Enable
VCHOFFSET	QUANT	0	Vch Offset (V)
VCHFILTER	IQUANT	3	Vch Filter
ACHRANGE	IQUANT	2	Ach Range
ACHOFFSETENABLE	TOGGLE	F	Ach Offset Enable
ACHOFFSET	QUANT	0	Ach Offset (V)
ACHFILTER	IQUANT	3	Ach Filter
IERANGELOWERLIMIT	IQUANT	1	I/E Range Lower Limit
IERANGEMODE	TOGGLE	F	I/E AutoRange
IERANGE	IQUANT	7	I/E Range
POSFEEDENABLE	TOGGLE	F	Positive Feedback IR Comp
POSFEEDRESISTANCE	QUANT	0	Positive Feedback Resistance (ohm)
ACHSELECT	IQUANT	0	Ach Select
CABLEID	IQUANT	14	Cable ID
DCCALDATE	LABEL	1/27/2020	DC Calibration Date
ACCALDATE	LABEL	1/27/2020	AC Calibration Date
THERMOSELECT	IQUANT	1	Thermo Select
FRAMEWORKVERSION	QUANT	6.33	Framework Version
INSTRUMENTVERSION	LABEL	3.50	Instrument Version
ZCURVE	TABLE
	Pt	Time	Freq	Zreal	Zimag	Zsig	Zmod	Zphz	Idc	Vdc	IERange
	#	s	Hz	ohm	ohm	V	ohm	°	A	V	#
	0	1	1000078	1635.721	-2124.865	1	2681.536	-52.41092	-1.527968E-006	0.0129995	8
	1	2	794390.6	1957.208	-2373.276	1	3076.216	-50.48806	5.536791E-007	0.0124379	8
	2	4	630984.4	2342.151	-2603.181	1	3501.746	-48.02145	-4.459619E-007	0.0122728	8
	3	5	501234.4	2776.026	-2827.552	1	3962.496	-45.52684	-6.463636E-007	0.012338	8
	4	6	398109.4	3255.354	-3032.29	1	4448.833	-42.9682	-5.491412E-007	0.0123259	8
	5	8	316265.6	3809.276	-3214.353	1	4984.24	-40.15843	-4.058828E-007	0.0121394	8
	6	9	251203.1	4400.424	-3343.632	1	5526.627	-37.22914	1.029724E-006	0.011848	8
	7	11	199546.9	4989.759	-3405.635	1	6041.196	-34.31451	-2.712537E-007	0.0120474	8
	8	12	158578.1	5620.169	-3414.489	1	6576.096	-31.28044	7.583753E-008	0.0120351	8
	9	14	125953.1	6293.496	-3353.196	1	7131.06	-28.04884	8.010031E-007	0.0102692	7
	10	15	100078.1	6906.516	-3218.484	1	7619.62	-24.98584	1.282432E-008	0.0120517	7
	11	16	79453.13	7453.261	-3021.565	1	8042.447	-22.06772	-2.608817E-008	0.0120578	7
	12	18	63140.62	7938.419	-2789.445	1	8414.244	-19.36073	-1.5475E-008	0.0120791	7
	13	19	50203.12	8353.63	-2531.977	1	8728.92	-16.86201	9.040006E-008	0.0118697	7
	14	21	39890.62	8691.633	-2281.248	1	8986.021	-14.70642	-3.090536E-008	0.0120298	7
	15	22	31640.63	8980.209	-2043.161	1	9209.705	-12.81764	-1.511455E-009	0.0120657	7
	16	24	25171.88	9192.937	-1830.04	1	9373.32	-11.2587	5.572689E-009	0.0119233	7
	17	25	20015.62	9376.768	-1660.948	1	9522.74	-10.04486	1.453781E-009	0.0120072	7
	18	27	15890.62	9522.07	-1525.787	1	9643.54	-9.103513	1.018567E-007	0.011849	7
	19	28	12609.37	9651.01	-1408.27	1	9753.22	-8.301977	-6.240394E-009	0.0120701	6
	20	30	10078.13	9747.7	-1366.146	1	9842.96	-7.978077	4.300711E-009	0.0118372	6
	21	32	8015.625	9837.19	-1367.699	1	9931.82	-7.915291	3.255567E-009	0.0120038	6
	22	33	6328.125	9920.38	-1418.76	1	10021.32	-8.138945	-3.833065E-009	0.0120392	6
	23	35	5015.625	10002.44	-1522.124	1	10117.59	-8.652621	-2.275524E-009	0.0120195	6
	24	36	3984.375	10081.11	-1678.641	1	10219.92	-9.453778	-1.276174E-009	0.0119786	6
	25	38	3170.956	10163.62	-1899.803	1	10339.66	-10.58765	4.869612E-009	0.0119822	6
	26	39	2527.573	10254.91	-2190.773	1	10486.31	-12.05892	-7.1752E-009	0.012034	6
	27	41	1976.103	10366.26	-2599.808	1	10687.3	-14.07912	9.390587E-009	0.0118706	6
	28	43	1577.524	10486.4	-3078.977	1	10929.07	-16.3631	1.622644E-009	0.0119244	6
	29	44	1265.625	10626.82	-3660.021	1	11239.44	-19.00441	1.384499E-009	0.0119214	6
	30	46	998.264	10807.99	-4435.487	1	11682.73	-22.31274	-6.878858E-009	0.0120687	6
	31	47	796.875	11021.08	-5346.29	1	12249.37	-25.87788	3.230058E-009	0.0120072	6
	32	49	627.7902	11300.15	-6526.438	1	13049.44	-30.00871	1.691868E-009	0.0119253	6
	33	50	505.5147	11608.49	-7834.685	1	14004.97	-34.01581	1.923992E-009	0.012013	6
	34	51	397.9953	12030.72	-9591.49	1	15386.19	-38.56361	7.873542E-010	0.0119975	6
	35	53	315.5048	12534.38	-11679.34	1	17132.36	-42.97761	1.550045E-009	0.0119901	6
	36	54	252.4038	13136.07	-14114.04	1	19281.14	-47.05539	1.126746E-009	0.0119873	6
	37	55	198.6229	13923.9	-17292.68	1	22201.62	-51.15931	1.07381E-009	0.0119884	6
	38	57	158.3615	14854.32	-20956.09	1	25686.74	-54.66982	8.284092E-010	0.0119837	6
	39	58	125.558	16005.64	-25511.14	1	30116.42	-57.89592	9.96587E-010	0.0119861	6
	40	60	100.4464	17363.97	-30843.43	1	35395.26	-60.62173	1.219308E-009	0.0119855	6
	41	61	79.00281	19204.3	-37733.41	1	42339.29	-63.02632	8.590663E-010	0.0119862	6
	42	62	63.3446	21675.48	-45424.47	1	50330.99	-64.49063	6.469597E-010	0.0119884	6
	43	64	49.86702	24159.75	-56125.54	1	61104.58	-66.71009	4.862343E-010	0.0119879	6
	44	65	39.72458	27725.39	-67761.59	1	73214.27	-67.74754	8.399333E-010	0.0119858	6
	45	67	31.6723	32094.68	-81923.78	1	87986.22	-68.60661	4.156845E-010	0.0119873	6
	46	68	24.93351	38485.27	-100144.9	1	107285.2	-68.97844	1.659765E-010	0.0119797	5
	47	69	19.86229	46328.26	-121033.1	1	129596.8	-69.05449	4.447157E-010	0.0119846	5
	48	71	15.83615	55895.27	-145796.5	1	156143.8	-69.02424	-1.87028E-010	0.0119812	5
	49	72	12.40079	71242.39	-176824.7	1	190636.9	-68.05557	6.508558E-010	0.011983	5
	50	74	9.93114	88101.55	-209632.5	1	227393.2	-67.20461	3.355324E-010	0.011987	5
	51	75	7.944915	109749	-246826.4	1	270126.1	-66.02812	7.843485E-010	0.0119894	5
	52	77	6.317385	138898	-290778.2	1	322249.3	-64.46729	2.945965E-010	0.012001	5
	53	79	5.008013	174914.4	-339841.7	1	382213.8	-62.76541	2.531541E-010	0.0119882	5
	54	81	3.945707	219171.3	-394161.8	1	450998.5	-60.92402	3.672113E-010	0.0119913	5
	55	84	3.158693	268768.8	-449483	1	523709.5	-59.12264	3.988487E-011	0.0119849	5
	56	87	2.504006	327735.2	-509942.9	1	606178.3	-57.27155	4.071385E-010	0.0119814	5
	57	90	1.998082	391312.4	-572985.6	1	693857.3	-55.66943	4.620063E-011	0.0120272	5
	58	93	1.584686	462228.5	-644093.9	1	792787.6	-54.33521	2.711899E-010	0.0120068	5
	59	97	1.266892	539707.3	-717914.4	1	898156.4	-53.06521	7.612276E-011	0.0120309	5
	60	101	0.999041	626462.8	-806323.7	1	1021084	-52.15504	6.642407E-011	0.0118982	4
