EXPLAIN
TAG	EISPOT
TITLE	LABEL	Potentiostatic EIS	Test &Identifier
DATE	LABEL	2/28/2020	Date
TIME	LABEL	16:58:06	Time
NOTES	NOTES	1	&Notes...
	
PSTAT	PSTAT	REF600-11020	Potentiostat
VDC	POTEN	0.00000E+000	T	DC &Voltage (V)
FREQINIT	QUANT	1.00000E+006	Initial Fre&q. (Hz)
FREQFINAL	QUANT	1.00000E+000	Final Fre&q. (Hz)
PTSPERDEC	QUANT	1.00000E+001	Points/&decade
VAC	QUANT	2.50000E+001	AC &Voltage (mV rms)
AREA	QUANT	1.60000E-004	&Area (cm^2)
CONDIT	TWOPARAM	F	1.50000E+001	0.00000E+000	Conditionin&g	Time(s)	E(V)
DELAY	TWOPARAM	F	1.00000E+002	0.00000E+000	Init. De&lay	Time(s)	Stab.(mV/s)
SPEED	SELECTOR	1	&Optimize for:
ZGUESS	QUANT	1.00000E+003	E&stimated Z (ohms)
OCVCURVE	TABLE	39
	Pt	T	Vf	Vm	Ach	Over
	#	s	V vs. Ref.	V	V	bits
	0	0.258333	-7.55075E-002	-7.55075E-002	5.95696E-004	...........
	1	0.516667	-7.55149E-002	-7.58931E-002	5.95563E-004	...........
	2	0.775	-7.55555E-002	-7.60188E-002	5.99463E-004	...........
	3	1.03333	-7.56511E-002	-7.59210E-002	5.99730E-004	...........
	4	1.29167	-7.57742E-002	-7.58126E-002	6.00463E-004	...........
	5	1.55	-7.58692E-002	-7.61336E-002	6.04696E-004	...........
	6	1.80833	-7.59243E-002	-7.60969E-002	6.04363E-004	...........
	7	2.06667	-7.59683E-002	-7.59188E-002	6.02563E-004	...........
	8	2.325	-7.59727E-002	-7.43130E-002	6.00496E-004	...........
	9	2.58333	-7.58259E-002	-7.47737E-002	5.99496E-004	...........
	10	2.84167	-7.54972E-002	-7.50788E-002	5.98430E-004	...........
	11	3.1	-7.51597E-002	-7.55313E-002	5.98163E-004	...........
	12	3.35833	-7.50198E-002	-7.55272E-002	5.97263E-004	...........
	13	3.61667	-7.51051E-002	-7.56778E-002	5.98863E-004	...........
	14	3.875	-7.53015E-002	-7.59096E-002	6.02563E-004	...........
	15	4.13333	-7.55092E-002	-7.60856E-002	5.97030E-004	...........
	16	4.39167	-7.56980E-002	-7.60756E-002	5.97696E-004	...........
	17	4.65	-7.58641E-002	-7.62675E-002	5.96563E-004	...........
	18	4.90833	-7.60034E-002	-7.63065E-002	5.95163E-004	...........
	19	5.16667	-7.61187E-002	-7.63690E-002	5.98296E-004	...........
	20	5.425	-7.62152E-002	-7.64226E-002	6.00530E-004	...........
	21	5.68333	-7.62944E-002	-7.64539E-002	5.98930E-004	...........
	22	5.94167	-7.63587E-002	-7.65260E-002	5.98896E-004	...........
	23	6.2	-7.64131E-002	-7.65569E-002	5.98196E-004	...........
	24	6.45833	-7.64630E-002	-7.66079E-002	6.00196E-004	...........
	25	6.71667	-7.65113E-002	-7.66740E-002	5.96663E-004	...........
	26	6.975	-7.65601E-002	-7.67202E-002	5.97096E-004	...........
	27	7.23333	-7.66104E-002	-7.67463E-002	5.99530E-004	...........
	28	7.49167	-7.66600E-002	-7.67796E-002	6.00296E-004	...........
	29	7.75	-7.67045E-002	-7.67992E-002	5.97363E-004	...........
	30	8.00833	-7.67418E-002	-7.68252E-002	5.98396E-004	...........
	31	8.26667	-7.67726E-002	-7.68557E-002	5.97430E-004	...........
	32	8.525	-7.67994E-002	-7.68588E-002	6.01696E-004	...........
	33	8.78333	-7.68232E-002	-7.68788E-002	5.98163E-004	...........
	34	9.04167	-7.68435E-002	-7.68760E-002	6.03263E-004	...........
	35	9.3	-7.68591E-002	-7.68807E-002	5.98830E-004	...........
	36	9.5583	-7.68703E-002	-7.69078E-002	6.01130E-004	...........
	37	9.8167	-7.68804E-002	-7.69654E-002	5.98130E-004	...........
	38	10.075	-7.68954E-002	-7.69764E-002	5.98363E-004	...........
EOC	QUANT	-0.0768954	Open Circuit (V)
PSTATMODEL	IQUANT	4	Pstat Model
PSTATSECTION	LABEL	REF600-11020	Pstat Section
PSTATSERIALNO	LABEL	11020	Pstat Serial Number
CTRLMODE	IQUANT	1	Control Mode
IESTAB	IQUANT	0	I/E Stability
CASPEED	IQUANT	1	Control Amp Speed
CONVENTION	IQUANT	1	Current Convention
ICHRANGE	IQUANT	2	Ich Range
ICHRANGEMODE	TOGGLE	F	Ich Auto Range
ICHOFFSETENABLE	TOGGLE	T	Ich Offset Enable
ICHOFFSET	QUANT	0	Ich Offset (V)
ICHFILTER	IQUANT	3	Ich Filter
VCHRANGE	IQUANT	2	Vch Range
VCHRANGEMODE	TOGGLE	F	Vch Auto Range
VCHOFFSETENABLE	TOGGLE	T	Vch Offset Enable
VCHOFFSET	QUANT	0	Vch Offset (V)
VCHFILTER	IQUANT	3	Vch Filter
ACHRANGE	IQUANT	2	Ach Range
ACHOFFSETENABLE	TOGGLE	F	Ach Offset Enable
ACHOFFSET	QUANT	0	Ach Offset (V)
ACHFILTER	IQUANT	3	Ach Filter
IERANGELOWERLIMIT	IQUANT	1	I/E Range Lower Limit
IERANGEMODE	TOGGLE	F	I/E AutoRange
IERANGE	IQUANT	8	I/E Range
POSFEEDENABLE	TOGGLE	F	Positive Feedback IR Comp
POSFEEDRESISTANCE	QUANT	0	Positive Feedback Resistance (ohm)
ACHSELECT	IQUANT	0	Ach Select
CABLEID	IQUANT	14	Cable ID
DCCALDATE	LABEL	2/27/2020	DC Calibration Date
ACCALDATE	LABEL	2/27/2020	AC Calibration Date
THERMOSELECT	IQUANT	1	Thermo Select
FRAMEWORKVERSION	QUANT	6.33	Framework Version
INSTRUMENTVERSION	LABEL	3.50	Instrument Version
ZCURVE	TABLE
	Pt	Time	Freq	Zreal	Zimag	Zsig	Zmod	Zphz	Idc	Vdc	IERange
	#	s	Hz	ohm	ohm	V	ohm	°	A	V	#
	0	2	1000078	1926.353	-1818.895	1	2649.38	-43.35654	-1.341332E-006	-0.0746401	8
	1	3	794390.6	2337.837	-1852.08	1	2982.563	-38.38695	-6.10292E-007	-0.0749936	8
	2	4	630984.4	2734.109	-1823.641	1	3286.49	-33.70315	1.971158E-006	-0.0756477	8
	3	6	501234.4	3086.312	-1728.181	1	3537.221	-29.24665	6.211509E-007	-0.0755283	8
	4	7	398109.4	3405.925	-1586.012	1	3757.094	-24.96963	-9.503289E-007	-0.0752733	8
	5	8	316265.6	3651.563	-1411.844	1	3914.998	-21.13855	1.951699E-007	-0.075551	8
	6	10	251203.1	3848.945	-1240.032	1	4043.767	-17.85762	1.894336E-006	-0.0758344	8
	7	11	199546.9	3997.317	-1092.009	1	4143.793	-15.27955	1.5338E-006	-0.075816	8
	8	12	158578.1	4120.847	-936.8029	1	4225.988	-12.80753	-8.690866E-007	-0.0753136	8
	9	14	125953.1	4241.393	-774.1393	1	4311.462	-10.34377	5.657078E-007	-0.0763419	7
	10	15	100078.1	4295.53	-686.0042	1	4349.963	-9.073621	5.067287E-009	-0.0755597	7
	11	17	79453.13	4350.882	-623.7841	1	4395.371	-8.158873	-3.625245E-008	-0.0755012	7
	12	18	63140.62	4401.036	-578.3851	1	4438.879	-7.486918	-1.108564E-009	-0.0755085	7
	13	19	50203.12	4446.69	-550.299	1	4480.612	-7.054755	6.031389E-008	-0.075628	7
	14	21	39890.62	4489.266	-538.0621	1	4521.396	-6.834599	6.013731E-008	-0.0756304	7
	15	22	31640.63	4532.708	-537.8022	1	4564.501	-6.766466	1.023665E-007	-0.0756728	7
	16	23	25171.88	4577.403	-553.8051	1	4610.783	-6.8985	-3.333012E-008	-0.0754395	7
	17	25	20015.62	4620.715	-584.2316	1	4657.503	-7.206098	6.001229E-008	-0.0756302	7
	18	26	15890.62	4671.904	-629.5271	1	4714.126	-7.674236	1.04759E-007	-0.0756833	7
	19	27	12609.37	4728.32	-690.4405	1	4778.464	-8.307751	-4.004353E-008	-0.075455	7
	20	29	10078.13	4780.651	-766.8247	1	4841.761	-9.112718	-2.530401E-008	-0.0755066	7
	21	30	8015.625	4842.29	-867.295	1	4919.347	-10.15449	-9.315873E-009	-0.0754421	7
	22	32	6328.125	4911.852	-992.142	1	5011.051	-11.41949	5.062511E-008	-0.0756512	7
	23	33	5015.625	4986.481	-1145.555	1	5116.375	-12.93819	-9.842478E-009	-0.075555	7
	24	34	3984.375	5067.374	-1331.716	1	5239.441	-14.72449	1.048935E-007	-0.075683	7
	25	36	3170.956	5160.431	-1558.668	1	5390.686	-16.80653	-4.047941E-008	-0.0754486	7
	26	37	2527.573	5259.985	-1832.515	1	5570.059	-19.20771	-1.029718E-008	-0.0755583	7
	27	38	1976.103	5388.075	-2195.781	1	5818.316	-22.17218	-3.93527E-008	-0.0754812	7
	28	40	1577.524	5519.961	-2604.572	1	6103.586	-25.2601	-4.120607E-008	-0.0754505	7
	29	41	1265.625	5663.884	-3095.521	1	6454.598	-28.65823	1.769831E-008	-0.0754745	7
	30	43	998.264	5855.28	-3731.494	1	6943.223	-32.50883	-9.144591E-009	-0.0755605	7
	31	44	796.875	6065.87	-4470.883	1	7535.487	-36.39228	-4.048057E-008	-0.0754582	7
	32	45	627.7902	6336.618	-5427.079	1	8343.016	-40.57883	6.838405E-008	-0.0755747	7
	33	47	505.5147	6624.452	-6472.312	1	9261.436	-44.33445	-2.719516E-008	-0.075507	7
	34	48	397.9953	7019.186	-7873.373	1	10547.94	-48.2827	4.672417E-010	-0.075467	6
	35	49	315.5048	7474.989	-9533.04	1	12114.22	-51.8995	4.268358E-010	-0.0754721	6
	36	51	252.4038	8004.552	-11462.97	1	13981.15	-55.07354	6.637791E-010	-0.0754693	6
	37	52	198.6229	8690.363	-13976.68	1	16458.13	-58.12764	3.744837E-010	-0.0754683	6
	38	53	158.3615	9475.789	-16862.41	1	19342.48	-60.6663	-4.635309E-010	-0.0754744	6
	39	55	125.558	10440.07	-20438.05	1	22950.14	-62.94135	5.047872E-011	-0.0754705	6
	40	56	100.4464	11545.67	-24598.74	1	27173.53	-64.85651	8.724094E-011	-0.0754716	6
	41	58	79.00281	13003.42	-30028.82	1	32723.37	-66.58588	1.201292E-010	-0.0754731	6
	42	59	63.3446	14773.62	-36040.62	1	38951.07	-67.7105	-1.263623E-010	-0.075476	6
	43	60	49.86702	16776.91	-44343.97	1	47411.52	-69.27657	-2.636553E-010	-0.0754746	6
	44	62	39.72458	19375.52	-53576.45	1	56972.33	-70.11786	-7.282037E-011	-0.0754681	6
	45	63	31.6723	22623.03	-64687.41	1	68529.28	-70.72382	-6.162215E-010	-0.0754712	6
	46	65	24.93351	26846.14	-79232.55	1	83657.11	-71.28222	2.329833E-010	-0.0754762	6
	47	66	19.86229	32026.08	-95828.6	1	101038.6	-71.52029	1.421653E-010	-0.0754751	6
	48	67	15.83615	38342.33	-115210.2	1	121422.9	-71.59238	-1.121749E-009	-0.0754696	5
	49	69	12.40079	47980.16	-141558	1	149468.3	-71.27625	3.51857E-010	-0.0754678	5
	50	70	9.93114	58700.55	-170029.8	1	179877.5	-70.95345	-5.099204E-010	-0.0754663	5
	51	72	7.944915	72940.61	-203053	1	215756.5	-70.24072	2.830567E-010	-0.0754655	5
	52	73	6.317385	91372.06	-243235.1	1	259831	-69.41115	-2.750366E-010	-0.075453	5
	53	75	5.008013	115509.1	-290962.1	1	313051.6	-68.34741	-1.703553E-010	-0.0754714	5
	54	78	3.945707	146952.4	-346770.3	1	376622.7	-67.034	2.388793E-010	-0.0754604	5
	55	81	3.158693	183880	-406108.3	1	445798	-65.63966	-8.716978E-011	-0.0754723	5
	56	84	2.504006	231233.9	-475770.9	1	528986.8	-64.07935	3.374343E-010	-0.0754687	5
	57	87	1.998082	285826.1	-549843.8	1	619697.3	-62.53316	7.645823E-011	-0.0754196	5
	58	90	1.584686	352501.8	-633661.6	1	725109.9	-60.9131	2.976895E-010	-0.075473	5
	59	94	1.266892	428608.9	-722732.8	1	840266.8	-59.33039	3.63733E-011	-0.0754271	5
	60	98	0.999041	527140.1	-829867.5	1	983136	-57.57588	-2.57438E-010	-0.0755056	5
