EXPLAIN
TAG	EISPOT
TITLE	LABEL	Potentiostatic EIS	Test &Identifier
DATE	LABEL	1/7/2020	Date
TIME	LABEL	16:50:26	Time
NOTES	NOTES	5	&Notes...
	
	
	
	
	
PSTAT	PSTAT	REF600-11020	Potentiostat
VDC	POTEN	0.00000E+000	T	DC &Voltage (V)
FREQINIT	QUANT	1.00000E+006	Initial Fre&q. (Hz)
FREQFINAL	QUANT	1.00000E+000	Final Fre&q. (Hz)
PTSPERDEC	QUANT	1.00000E+001	Points/&decade
VAC	QUANT	2.50000E+001	AC &Voltage (mV rms)
AREA	QUANT	1.00000E-001	&Area (cm^2)
CONDIT	TWOPARAM	T	5.00000E+000	0.00000E+000	Conditionin&g	Time(s)	E(V)
DELAY	TWOPARAM	T	5.00000E+000	0.00000E+000	Init. De&lay	Time(s)	Stab.(mV/s)
SPEED	SELECTOR	0	&Optimize for:
ZGUESS	QUANT	1.00000E+003	E&stimated Z (ohms)
OCVCURVE	TABLE	19
	Pt	T	Vf	Vm	Ach	Over
	#	s	V vs. Ref.	V	V	bits
	0	0.258333	5.66837E-003	5.66837E-003	6.62713E-004	...........
	1	0.516667	5.66572E-003	5.52987E-003	6.60546E-004	...........
	2	0.775	5.65219E-003	5.54052E-003	6.60713E-004	...........
	3	1.03333	5.62222E-003	5.51486E-003	6.61679E-004	...........
	4	1.29167	5.58300E-003	5.48659E-003	6.61079E-004	...........
	5	1.55	5.54594E-003	5.45537E-003	6.58413E-004	...........
	6	1.80833	5.51367E-003	5.38694E-003	6.59579E-004	...........
	7	2.06667	5.48133E-003	5.37005E-003	6.60413E-004	...........
	8	2.325	5.44636E-003	5.38456E-003	6.56046E-004	...........
	9	2.58333	5.41353E-003	5.34796E-003	6.62679E-004	...........
	10	2.84167	5.38812E-003	5.32900E-003	6.58579E-004	...........
	11	3.1	5.36820E-003	5.29151E-003	6.62513E-004	...........
	12	3.35833	5.34697E-003	5.21405E-003	6.57013E-004	...........
	13	3.61667	5.31946E-003	5.26379E-003	6.56479E-004	...........
	14	3.875	5.28910E-003	5.25542E-003	6.59013E-004	...........
	15	4.13333	5.26478E-003	5.19305E-003	6.58946E-004	...........
	16	4.39167	5.24822E-003	5.21461E-003	6.60113E-004	...........
	17	4.65	5.23392E-003	5.18996E-003	6.61879E-004	...........
	18	4.90833	5.21943E-003	5.17543E-003	6.64246E-004	...........
EOC	QUANT	0.0052194	Open Circuit (V)
PSTATMODEL	IQUANT	4	Pstat Model
PSTATSECTION	LABEL	REF600-11020	Pstat Section
PSTATSERIALNO	LABEL	11020	Pstat Serial Number
CTRLMODE	IQUANT	1	Control Mode
IESTAB	IQUANT	0	I/E Stability
CASPEED	IQUANT	1	Control Amp Speed
CONVENTION	IQUANT	1	Current Convention
ICHRANGE	IQUANT	2	Ich Range
ICHRANGEMODE	TOGGLE	F	Ich Auto Range
ICHOFFSETENABLE	TOGGLE	T	Ich Offset Enable
ICHOFFSET	QUANT	0	Ich Offset (V)
ICHFILTER	IQUANT	3	Ich Filter
VCHRANGE	IQUANT	2	Vch Range
VCHRANGEMODE	TOGGLE	F	Vch Auto Range
VCHOFFSETENABLE	TOGGLE	T	Vch Offset Enable
VCHOFFSET	QUANT	0	Vch Offset (V)
VCHFILTER	IQUANT	3	Vch Filter
ACHRANGE	IQUANT	2	Ach Range
ACHOFFSETENABLE	TOGGLE	F	Ach Offset Enable
ACHOFFSET	QUANT	0	Ach Offset (V)
ACHFILTER	IQUANT	3	Ach Filter
IERANGELOWERLIMIT	IQUANT	1	I/E Range Lower Limit
IERANGEMODE	TOGGLE	F	I/E AutoRange
IERANGE	IQUANT	6	I/E Range
POSFEEDENABLE	TOGGLE	F	Positive Feedback IR Comp
POSFEEDRESISTANCE	QUANT	0	Positive Feedback Resistance (ohm)
ACHSELECT	IQUANT	0	Ach Select
CABLEID	IQUANT	14	Cable ID
DCCALDATE	LABEL	12/22/2019	DC Calibration Date
ACCALDATE	LABEL	12/22/2019	AC Calibration Date
THERMOSELECT	IQUANT	1	Thermo Select
FRAMEWORKVERSION	QUANT	6.33	Framework Version
INSTRUMENTVERSION	LABEL	3.50	Instrument Version
ZCURVE	TABLE
	Pt	Time	Freq	Zreal	Zimag	Zsig	Zmod	Zphz	Idc	Vdc	IERange
	#	s	Hz	ohm	ohm	V	ohm	°	A	V	#
	0	1	1000078	2130.561	-1875.512	1	2838.456	-41.35716	5.082153E-006	0.0070815	8
	1	2	794390.6	2537.791	-1906.619	1	3174.205	-36.91721	-5.441224E-006	0.0081459	8
	2	2	630984.4	2901.516	-1878.669	1	3456.615	-32.92218	1.137488E-006	0.0068455	8
	3	2	501234.4	3271.694	-1822.964	1	3745.288	-29.12623	9.993192E-007	0.0066239	8
	4	3	398109.4	3597.662	-1713.132	1	3984.72	-25.46282	-1.64062E-007	0.0067186	8
	5	3	316265.6	3855.725	-1571.028	1	4163.501	-22.1686	2.399506E-006	0.0063886	8
	6	3	251203.1	4120.93	-1379.364	1	4345.654	-18.5065	2.638513E-006	0.0062065	8
	7	4	199546.9	4326.55	-1245.845	1	4502.352	-16.06394	2.677213E-006	0.006201	8
	8	4	158578.1	4502.571	-1097.633	1	4634.43	-13.7003	2.588274E-006	0.006224	8
	9	4	125953.1	4636.883	-855.5882	1	4715.158	-10.45451	-9.213059E-007	0.0085871	7
	10	4	100078.1	4708.839	-743.5388	1	4767.181	-8.973077	3.051683E-011	0.0068753	7
	11	5	79453.13	4780.871	-655.301	1	4825.572	-7.804743	1.053293E-007	0.0065976	7
	12	5	63140.62	4840.859	-576.8054	1	4875.102	-6.794957	9.466195E-009	0.0067085	7
	13	5	50203.12	4887.149	-514.9626	1	4914.205	-6.015104	9.428688E-009	0.0067079	7
	14	6	39890.62	4927.199	-467.2203	1	4949.301	-5.41686	-9.253053E-008	0.0071086	7
	15	6	31640.63	4960.651	-434.7217	1	4979.663	-5.008264	-1.368383E-008	0.0067794	7
	16	6	25171.88	4989.534	-414.0524	1	5006.684	-4.743774	5.365815E-008	0.0066308	7
	17	7	20015.62	5018.408	-407.0726	1	5034.891	-4.637444	-5.348769E-008	0.0069159	7
	18	7	15890.62	5041.313	-416.7427	1	5058.509	-4.725639	-7.207771E-008	0.0068736	7
	19	7	12609.37	5066.472	-435.5224	1	5085.157	-4.913163	1.059716E-007	0.0065779	7
	20	8	10078.13	5098.341	-469.8275	1	5119.943	-5.265108	-2.605897E-008	0.0067633	7
	21	8	8015.625	5116.939	-521.7925	1	5143.475	-5.822527	-2.883277E-008	0.0067566	7
	22	8	6328.125	5143.971	-599.1371	1	5178.746	-6.643515	-1.85878E-009	0.0068102	7
	23	9	5015.625	5170.755	-694.3569	1	5217.167	-7.648234	-1.268212E-008	0.0067749	7
	24	9	3984.375	5200.298	-821.2143	1	5264.74	-8.973859	7.159186E-008	0.0067067	7
	25	9	3170.956	5237.491	-978.527	1	5328.116	-10.58263	-1.051526E-007	0.0069652	7
	26	10	2527.573	5275.741	-1172.506	1	5404.462	-12.53004	9.669348E-009	0.0066956	7
	27	10	1976.103	5323.163	-1441.111	1	5514.786	-15.14826	1.781189E-007	0.0065514	7
	28	10	1577.524	5379.639	-1744.426	1	5655.399	-17.96604	1.706255E-008	0.006937	7
	29	10	1265.625	5448.708	-2114.209	1	5844.511	-21.20726	-9.501053E-008	0.0069025	7
	30	11	998.264	5535.425	-2603.799	1	6117.247	-25.19174	-2.581432E-009	0.006804	7
	31	11	796.875	5638.866	-3177.379	1	6472.445	-29.40032	-9.709593E-008	0.0069019	7
	32	11	627.7902	5778.041	-3926.333	1	6985.832	-34.19715	1.796026E-007	0.0065503	7
	33	12	505.5147	5938.854	-4764.194	1	7613.641	-38.73685	-5.04241E-008	0.0067938	7
	34	12	397.9953	6165.516	-5890.453	1	8527.075	-43.69299	6.507066E-009	0.0068116	7
	35	12	315.5048	6452.219	-7242.034	1	9699.39	-48.30087	6.847953E-009	0.0068035	7
	36	13	252.4038	6810.373	-8823.711	1	11146.26	-52.33809	2.050045E-010	0.0068067	6
	37	13	198.6229	7306.456	-10899.22	1	13121.64	-56.16349	5.237767E-010	0.0068056	6
	38	13	158.3615	7917.732	-13291.12	1	15470.76	-59.21708	1.673468E-010	0.0068071	6
	39	14	125.558	8737.673	-16258.7	1	18457.85	-61.74574	6.353653E-010	0.0068042	6
	40	14	100.4464	9748.91	-19710.06	1	21989.27	-63.68227	9.076255E-010	0.0068004	6
	41	14	79.00281	11170.26	-24149.28	1	26607.57	-65.17707	1.046707E-009	0.0067982	6
	42	15	63.3446	13091.74	-29063.49	1	31876.01	-65.75066	2.203558E-010	0.0067985	6
	43	15	49.86702	15482.71	-35433.74	1	38668.65	-66.39716	-1.561741E-010	0.0067949	6
	44	15	39.72458	18377.27	-42496.87	1	46300.2	-66.6145	3.394002E-010	0.0068013	6
	45	16	31.6723	22239.81	-50699.35	1	55362.74	-66.31483	1.325471E-010	0.0067975	6
	46	16	24.93351	27359.68	-60922.76	1	66784.24	-65.81573	1.245503E-009	0.0067976	6
	47	16	19.86229	33423.71	-72044.01	1	79419.67	-65.11178	2.654824E-009	0.0068074	6
	48	17	15.83615	41774.82	-84589.09	1	94342.2	-63.71727	-1.95006E-009	0.0068004	6
	49	17	12.40079	51617.75	-99508.3	1	112099.5	-62.58295	-8.885003E-010	0.0068006	5
	50	17	9.93114	61746.4	-114532.1	1	130116.2	-61.67006	-2.950301E-010	0.0068048	5
	51	18	7.944915	73709.91	-131544.4	1	150788.2	-60.73624	-9.144066E-010	0.0068009	5
	52	18	6.317385	87704.84	-151234	1	174825.2	-59.88935	-5.907836E-010	0.0068175	5
	53	19	5.008013	103449.5	-173972.3	1	202405.9	-59.26292	-1.424203E-010	0.0067999	5
	54	20	3.945707	121600.2	-200585.6	1	234566	-58.77468	1.870122E-010	0.0067895	5
	55	21	3.158693	139545.2	-230910.5	1	269800.9	-58.85435	2.218438E-010	0.0068053	5
	56	23	2.504006	160928.8	-267247	1	311960	-58.94481	1.752583E-010	0.0068032	5
	57	24	1.998082	183922.2	-309504.5	1	360028.3	-59.27922	2.50175E-011	0.0067647	5
	58	26	1.584686	211314.6	-360649.1	1	417997.2	-59.63275	1.435975E-010	0.0068138	5
	59	28	1.266892	243642.8	-420693.4	1	486153	-59.92291	2.804568E-010	0.0068314	5
	60	30	0.999041	282180.3	-496368.1	1	570970.3	-60.3822	2.85222E-010	0.0068336	5
