EXPLAIN
TAG	EISPOT
TITLE	LABEL	Potentiostatic EIS	Test &Identifier
DATE	LABEL	1/28/2020	Date
TIME	LABEL	12:19:48	Time
NOTES	NOTES	6	&Notes...
	
	
	
	
	
	
PSTAT	PSTAT	REF600-11020	Potentiostat
VDC	POTEN	0.00000E+000	T	DC &Voltage (V)
FREQINIT	QUANT	1.00000E+006	Initial Fre&q. (Hz)
FREQFINAL	QUANT	1.00000E+000	Final Fre&q. (Hz)
PTSPERDEC	QUANT	1.00000E+001	Points/&decade
VAC	QUANT	2.50000E+001	AC &Voltage (mV rms)
AREA	QUANT	1.60000E-004	&Area (cm^2)
CONDIT	TWOPARAM	F	5.00000E+000	0.00000E+000	Conditionin&g	Time(s)	E(V)
DELAY	TWOPARAM	F	5.00000E+000	0.00000E+000	Init. De&lay	Time(s)	Stab.(mV/s)
SPEED	SELECTOR	0	&Optimize for:
ZGUESS	QUANT	1.00000E+003	E&stimated Z (ohms)
OCVCURVE	TABLE	39
	Pt	T	Vf	Vm	Ach	Over
	#	s	V vs. Ref.	V	V	bits
	0	0.258333	3.12032E-002	3.12032E-002	5.66504E-004	...........
	1	0.516667	3.11492E-002	2.83759E-002	5.69238E-004	...........
	2	0.775	3.08398E-002	2.68642E-002	5.69638E-004	...........
	3	1.03333	2.99093E-002	1.86287E-002	5.63004E-004	...........
	4	1.29167	2.81431E-002	2.75061E-002	5.65838E-004	...........
	5	1.55	2.61823E-002	2.88737E-002	5.71004E-004	...........
	6	1.80833	2.52369E-002	2.53605E-002	5.69304E-004	...........
	7	2.06667	2.57265E-002	3.68234E-002	5.67238E-004	...........
	8	2.325	2.73431E-002	3.55924E-002	5.67904E-004	...........
	9	2.58333	2.96907E-002	2.96706E-002	5.67404E-004	...........
	10	2.84167	3.21764E-002	5.16384E-002	5.68638E-004	...........
	11	3.1	3.50555E-002	5.41625E-002	5.70571E-004	...........
	12	3.35833	3.97289E-002	6.71836E-002	5.71071E-004	...........
	13	3.61667	4.64221E-002	5.47358E-002	5.70304E-004	...........
	14	3.875	5.28567E-002	4.93726E-002	5.66404E-004	...........
	15	4.13333	5.59719E-002	4.12090E-002	5.73937E-004	...........
	16	4.39167	5.44903E-002	3.41775E-002	5.67971E-004	...........
	17	4.65	4.94281E-002	2.72113E-002	5.69638E-004	...........
	18	4.90833	4.25005E-002	1.64595E-002	5.68738E-004	...........
	19	5.16667	3.46685E-002	4.20118E-003	5.74838E-004	...........
	20	5.425	2.59286E-002	-7.62417E-003	5.73638E-004	...........
	21	5.68333	1.62030E-002	-9.75381E-003	5.71804E-004	...........
	22	5.94167	6.66815E-003	3.24916E-003	5.73271E-004	...........
	23	6.2	2.43110E-004	2.18509E-002	5.76404E-004	...........
	24	6.45833	-5.70320E-005	2.91559E-002	5.72738E-004	.........v.
	25	6.71667	5.61625E-003	1.16616E-002	5.73471E-004	...........
	26	6.975	1.25216E-002	-3.87458E-003	5.72904E-004	...........
	27	7.23333	1.51008E-002	8.85565E-003	5.70771E-004	...........
	28	7.49167	1.29236E-002	2.20548E-002	5.76938E-004	...........
	29	7.75	1.04921E-002	1.17535E-002	5.74504E-004	...........
	30	8.00833	1.05936E-002	4.98033E-003	5.77071E-004	...........
	31	8.26667	1.12586E-002	-3.14125E-003	5.76437E-004	...........
	32	8.525	9.58444E-003	-7.57073E-003	5.73971E-004	...........
	33	8.78333	4.83677E-003	-2.87358E-002	5.77104E-004	.........v.
	34	9.04167	-1.97400E-003	-1.73702E-003	5.67971E-004	...........
	35	9.3	-8.06150E-003	3.48254E-003	5.72004E-004	...........
	36	9.5583	-9.88167E-003	3.57648E-003	5.75071E-004	...........
	37	9.8167	-6.89764E-003	4.38189E-003	5.78337E-004	...........
	38	10.075	-2.08430E-003	4.82693E-003	5.74838E-004	...........
EOC	QUANT	-0.0020843	Open Circuit (V)
PSTATMODEL	IQUANT	4	Pstat Model
PSTATSECTION	LABEL	REF600-11020	Pstat Section
PSTATSERIALNO	LABEL	11020	Pstat Serial Number
CTRLMODE	IQUANT	1	Control Mode
IESTAB	IQUANT	0	I/E Stability
CASPEED	IQUANT	1	Control Amp Speed
CONVENTION	IQUANT	1	Current Convention
ICHRANGE	IQUANT	2	Ich Range
ICHRANGEMODE	TOGGLE	F	Ich Auto Range
ICHOFFSETENABLE	TOGGLE	T	Ich Offset Enable
ICHOFFSET	QUANT	0	Ich Offset (V)
ICHFILTER	IQUANT	3	Ich Filter
VCHRANGE	IQUANT	2	Vch Range
VCHRANGEMODE	TOGGLE	F	Vch Auto Range
VCHOFFSETENABLE	TOGGLE	T	Vch Offset Enable
VCHOFFSET	QUANT	0	Vch Offset (V)
VCHFILTER	IQUANT	3	Vch Filter
ACHRANGE	IQUANT	2	Ach Range
ACHOFFSETENABLE	TOGGLE	F	Ach Offset Enable
ACHOFFSET	QUANT	0	Ach Offset (V)
ACHFILTER	IQUANT	3	Ach Filter
IERANGELOWERLIMIT	IQUANT	1	I/E Range Lower Limit
IERANGEMODE	TOGGLE	F	I/E AutoRange
IERANGE	IQUANT	6	I/E Range
POSFEEDENABLE	TOGGLE	F	Positive Feedback IR Comp
POSFEEDRESISTANCE	QUANT	0	Positive Feedback Resistance (ohm)
ACHSELECT	IQUANT	0	Ach Select
CABLEID	IQUANT	14	Cable ID
DCCALDATE	LABEL	1/27/2020	DC Calibration Date
ACCALDATE	LABEL	1/27/2020	AC Calibration Date
THERMOSELECT	IQUANT	1	Thermo Select
FRAMEWORKVERSION	QUANT	6.33	Framework Version
INSTRUMENTVERSION	LABEL	3.50	Instrument Version
ZCURVE	TABLE
	Pt	Time	Freq	Zreal	Zimag	Zsig	Zmod	Zphz	Idc	Vdc	IERange
	#	s	Hz	ohm	ohm	V	ohm	°	A	V	#
	0	1	1000078	750.4799	-8471.331	1	8504.509	-84.93736	3.875075E-006	-0.000728	8
	1	1	794390.6	900.36	-10543.63	1	10582	-85.11914	3.283533E-006	-0.0009418	8
	2	1	630984.4	1154.909	-13197.54	1	13247.98	-84.99883	3.574378E-006	-0.0007045	8
	3	2	501234.4	1295.038	-16397.01	1	16448.07	-85.48415	1.860276E-006	-0.0007992	8
	4	2	398109.4	1465.614	-20772.17	1	20823.81	-85.96409	-1.180242E-006	-0.0002463	8
	5	2	316265.6	1743.519	-26075.36	1	26133.58	-86.17464	-1.023662E-006	-4.499142E-005	8
	6	3	251203.1	2592.863	-33012.18	1	33113.84	-85.50906	1.589619E-006	-0.0008093	8
	7	3	199546.9	3595.132	-39808.36	1	39970.37	-84.83956	1.008036E-006	-0.0006552	8
	8	4	158578.1	2731.836	-50318.18	1	50392.28	-86.8924	4.146456E-007	-0.0005791	8
	9	4	125953.1	4820.389	-61604.99	1	61793.29	-85.52591	7.948139E-007	-0.001524	7
	10	4	100078.1	5585.6	-77058.51	1	77260.68	-85.85416	-2.057087E-008	-0.000299	7
	11	5	79453.13	7003.009	-95881.5	1	96136.9	-85.82264	-4.002717E-008	-0.0003256	7
	12	5	63140.62	8684.881	-120026.2	1	120340	-85.8614	9.090034E-008	-0.0006362	7
	13	6	50203.12	10335.87	-149572.1	1	149928.7	-86.04697	-1.05046E-008	-0.0004177	7
	14	6	39890.62	13204.49	-185683	1	186151.9	-85.93237	9.000851E-008	-0.000637	7
	15	6	31640.63	17572	-233618.4	1	234278.3	-85.6985	-2.328175E-008	-0.0004774	7
	16	7	25171.88	22197.71	-290740.6	1	291586.8	-85.634	-2.324474E-008	-0.0004805	7
	17	7	20015.62	35219.66	-350755.1	1	352518.8	-84.26609	-5.906485E-008	-0.0003593	7
	18	7	15890.62	34930.98	-459566.9	1	460892.5	-85.6534	-1.010762E-008	-0.0004316	7
	19	7	12609.37	48074.84	-570029.5	1	572053.2	-85.17923	8.195904E-009	-0.0006629	6
	20	8	10078.13	59886.84	-693529.3	1	696110.1	-85.0647	1.809337E-008	-0.0006863	6
	21	8	8015.625	41691.74	-881001.1	1	881987	-87.2906	3.708378E-009	-0.0004182	6
	22	9	6328.125	106379	-1079969	1	1085195	-84.3744	6.394409E-009	-0.0004553	6
	23	9	5015.625	148588.5	-1332596	1	1340854	-83.63763	1.80445E-008	-0.0006877	6
	24	9	3984.375	153377.3	-1662684	1	1669743	-84.72956	7.99819E-009	-0.0006707	6
	25	10	3170.956	273942.4	-2044808	1	2063077	-82.36954	-2.932543E-009	-0.0005187	6
	26	10	2527.573	315973.4	-2574513	1	2593831	-83.00301	-7.285751E-010	-0.0004963	6
	27	11	1976.103	379563.2	-3234626	1	3256819	-83.3073	-2.380723E-009	-0.0003178	6
	28	11	1577.524	-1404776	-3521025	1	3790912	-111.7504	5.775956E-009	-0.0004619	6
	29	12	1265.625	679531.6	-4986233	1	5032324	-82.23945	-2.408742E-010	-0.0005905	5
	30	12	998.264	994338	-5973159	1	6055356	-80.54877	-5.417282E-010	-0.0005788	5
	31	12	796.875	983153	-7474329	1	7538713	-82.50648	-2.741754E-010	-0.0005113	5
	32	13	627.7902	1880444	-9060007	1	9253097	-78.2745	-1.381177E-010	-0.0004878	5
	33	13	505.5147	2481003	-1.128121E+007	1	1.15508E+007	-77.59676	-8.889718E-010	-0.0004154	5
	34	14	397.9953	2575567	-1.290817E+007	1	1.316261E+007	-78.71597	-3.522654E-010	-0.0004732	5
	35	14	315.5048	6306837	-1.893803E+007	1	1.996059E+007	-71.58095	2.995079E-010	-0.0004754	5
	36	14	252.4038	4277681	-1.868894E+007	1	1.917224E+007	-77.10774	-2.579285E-010	-0.0004819	5
	37	15	198.6229	1.097649E+007	-2.507157E+007	1	2.736909E+007	-66.3559	-9.82917E-011	-0.0004774	5
	38	15	158.3615	1.308161E+007	-4.073856E+007	1	4.278737E+007	-72.19759	3.674586E-010	-0.0004839	5
	39	16	125.558	2.540679E+007	-3.211839E+007	1	4.095236E+007	-51.65475	1.550545E-010	-0.000535	4
	40	16	100.4464	-1.789029E+007	-2.251641E+007	1	2.87585E+007	-128.4687	-3.573173E-010	-0.0005323	4
	41	17	79.00281	7263198	2.696871E+007	1	2.792965E+007	74.92677	3.712096E-010	-0.0005371	4
	42	17	63.3446	5888386	2325606	1	6330998	21.55144	-1.251111E-010	-0.0005378	4
	43	18	49.86702	3.936638E+007	1.682236E+008	1	1.727684E+008	76.82909	7.647268E-013	-0.0004855	5
	44	19	39.72458	-1.060301E+007	-6.705137E+007	1	6.788454E+007	-98.9859	-8.303248E-011	-0.0005343	4
	45	19	31.6723	2.833112E+007	-5331035	1	2.882832E+007	-10.65667	2.617739E-010	-0.0004882	5
	46	20	24.93351	1.223915E+008	-7.644074E+007	1	1.443013E+008	-31.98723	5.135821E-011	-0.0005359	4
	47	20	19.86229	6.638776E+007	-1.443709E+007	1	6.793942E+007	-12.26887	7.648735E-011	-0.0005385	4
	48	21	15.83615	1073733	-2.155431E+007	1	2.158104E+007	-87.14816	6.843683E-010	-0.0004857	5
	49	21	12.40079	2.187367E+007	2.030981E+007	1	2.984872E+007	42.87685	-5.26338E-010	-0.0005291	4
	50	22	9.93114	3.210399E+007	-6.206194E+007	1	6.987382E+007	-62.64795	-1.657838E-010	-0.0005342	4
	51	23	7.944915	-1.850022E+008	-2.161699E+008	1	2.845263E+008	-130.5575	2.110578E-010	-0.0004847	5
	52	24	6.317385	1.2788E+008	-4.931116E+007	1	1.37058E+008	-21.08688	3.348894E-012	-0.0005421	4
	53	25	5.008013	1.562659E+008	-8.249244E+007	1	1.767032E+008	-27.82948	2.826455E-011	-0.0005261	4
	54	27	3.945707	1.877577E+008	-9.166327E+007	1	2.08938E+008	-26.02162	3.448641E-011	-0.0005347	4
	55	29	3.158693	1.384026E+008	-5.196903E+007	1	1.47838E+008	-20.58074	-8.656726E-012	-0.0005366	4
	56	32	2.504006	3.58122E+008	-1.153114E+008	1	3.762288E+008	-17.84799	2.176145E-011	-0.0004821	3
	57	34	1.998082	3.80509E+008	-1.039351E+008	1	3.944484E+008	-15.27753	2.214755E-011	-0.0005339	3
	58	36	1.584686	3.952828E+008	-1.07901E+008	1	4.097452E+008	-15.26815	2.186131E-011	-0.0005011	3
	59	40	1.266892	8.615757E+008	-2.657942E+008	1	9.016426E+008	-17.14488	5.841194E-012	-0.0004665	2
	60	42	0.999041	9.034239E+008	-2.512914E+008	1	9.377217E+008	-15.54415	5.788522E-012	-0.0004558	2
