EXPLAIN
TAG	EISPOT
TITLE	LABEL	Potentiostatic EIS	Test &Identifier
DATE	LABEL	6/14/2020	Date
TIME	LABEL	20:49:45	Time
NOTES	NOTES	1	&Notes...
	
PSTAT	PSTAT	REF600-10037	Potentiostat
VDC	POTEN	0.00000E+000	T	DC &Voltage (V)
FREQINIT	QUANT	1.00000E+006	Initial Fre&q. (Hz)
FREQFINAL	QUANT	1.00000E+000	Final Fre&q. (Hz)
PTSPERDEC	QUANT	1.00000E+001	Points/&decade
VAC	QUANT	2.50000E+001	AC &Voltage (mV rms)
AREA	QUANT	2.50000E-001	&Area (cm^2)
CONDIT	TWOPARAM	F	5.00000E+000	0.00000E+000	Conditionin&g	Time(s)	E(V)
DELAY	TWOPARAM	F	3.00000E+000	0.00000E+000	Init. De&lay	Time(s)	Stab.(mV/s)
SPEED	SELECTOR	0	&Optimize for:
ZGUESS	QUANT	1.00000E+003	E&stimated Z (ohms)
OCVCURVE	TABLE	39
	Pt	T	Vf	Vm	Ach	Over
	#	s	V vs. Ref.	V	V	bits
	0	0.258333	-7.56852E-002	-7.56852E-002	5.39454E-004	...........
	1	0.516667	-7.56975E-002	-7.63304E-002	5.44687E-004	...........
	2	0.775	-7.57728E-002	-7.69223E-002	5.43121E-004	...........
	3	1.03333	-7.59843E-002	-7.74737E-002	5.45354E-004	...........
	4	1.29167	-7.63587E-002	-7.79912E-002	5.47954E-004	...........
	5	1.55	-7.68497E-002	-7.84868E-002	5.47887E-004	...........
	6	1.80833	-7.73859E-002	-7.89465E-002	5.47654E-004	...........
	7	2.06667	-7.79167E-002	-7.93890E-002	5.39787E-004	...........
	8	2.325	-7.84201E-002	-7.97999E-002	5.44954E-004	...........
	9	2.58333	-7.88924E-002	-8.02004E-002	5.46620E-004	...........
	10	2.84167	-7.93363E-002	-8.05795E-002	5.47287E-004	...........
	11	3.1	-7.97566E-002	-8.09536E-002	5.47254E-004	...........
	12	3.35833	-8.01576E-002	-8.13050E-002	5.50487E-004	...........
	13	3.61667	-8.05422E-002	-8.16405E-002	5.46120E-004	...........
	14	3.875	-8.09115E-002	-8.19696E-002	5.47854E-004	...........
	15	4.13333	-8.12661E-002	-8.22789E-002	5.50687E-004	...........
	16	4.39167	-8.16063E-002	-8.25799E-002	5.45120E-004	...........
	17	4.65	-8.19331E-002	-8.28773E-002	5.41821E-004	...........
	18	4.90833	-8.22477E-002	-8.31609E-002	5.43720E-004	...........
	19	5.16667	-8.25520E-002	-8.34426E-002	5.37854E-004	...........
	20	5.425	-8.28473E-002	-8.37109E-002	5.43054E-004	...........
	21	5.68333	-8.31344E-002	-8.39735E-002	5.40821E-004	...........
	22	5.94167	-8.34133E-002	-8.42245E-002	5.40154E-004	...........
	23	6.2	-8.36840E-002	-8.44730E-002	5.46787E-004	...........
	24	6.45833	-8.39463E-002	-8.47062E-002	5.39454E-004	...........
	25	6.71667	-8.42003E-002	-8.49417E-002	5.44787E-004	...........
	26	6.975	-8.44466E-002	-8.51729E-002	5.41887E-004	...........
	27	7.23333	-8.46862E-002	-8.53899E-002	5.48454E-004	...........
	28	7.49167	-8.49201E-002	-8.56115E-002	5.48754E-004	...........
	29	7.75	-8.51486E-002	-8.58271E-002	5.42854E-004	...........
	30	8.00833	-8.53722E-002	-8.60383E-002	5.48454E-004	...........
	31	8.26667	-8.55916E-002	-8.62447E-002	5.47420E-004	...........
	32	8.525	-8.58070E-002	-8.64439E-002	5.43787E-004	...........
	33	8.78333	-8.60180E-002	-8.66397E-002	5.43987E-004	...........
	34	9.04167	-8.62240E-002	-8.68284E-002	5.37187E-004	...........
	35	9.3	-8.64248E-002	-8.70211E-002	5.46020E-004	...........
	36	9.5583	-8.66211E-002	-8.72059E-002	5.42687E-004	...........
	37	9.8167	-8.68135E-002	-8.73807E-002	5.43687E-004	...........
	38	10.075	-8.70020E-002	-8.75588E-002	5.44321E-004	...........
EOC	QUANT	-0.087002	Open Circuit (V)
PSTATMODEL	IQUANT	4	Pstat Model
PSTATSECTION	LABEL	REF600-10037	Pstat Section
PSTATSERIALNO	LABEL	10037	Pstat Serial Number
CTRLMODE	IQUANT	1	Control Mode
IESTAB	IQUANT	0	I/E Stability
CASPEED	IQUANT	1	Control Amp Speed
CONVENTION	IQUANT	1	Current Convention
ICHRANGE	IQUANT	2	Ich Range
ICHRANGEMODE	TOGGLE	F	Ich Auto Range
ICHOFFSETENABLE	TOGGLE	T	Ich Offset Enable
ICHOFFSET	QUANT	0	Ich Offset (V)
ICHFILTER	IQUANT	3	Ich Filter
VCHRANGE	IQUANT	2	Vch Range
VCHRANGEMODE	TOGGLE	F	Vch Auto Range
VCHOFFSETENABLE	TOGGLE	T	Vch Offset Enable
VCHOFFSET	QUANT	0	Vch Offset (V)
VCHFILTER	IQUANT	3	Vch Filter
ACHRANGE	IQUANT	2	Ach Range
ACHOFFSETENABLE	TOGGLE	F	Ach Offset Enable
ACHOFFSET	QUANT	0	Ach Offset (V)
ACHFILTER	IQUANT	3	Ach Filter
IERANGELOWERLIMIT	IQUANT	1	I/E Range Lower Limit
IERANGEMODE	TOGGLE	F	I/E AutoRange
IERANGE	IQUANT	8	I/E Range
POSFEEDENABLE	TOGGLE	F	Positive Feedback IR Comp
POSFEEDRESISTANCE	QUANT	0	Positive Feedback Resistance (ohm)
ACHSELECT	IQUANT	0	Ach Select
CABLEID	IQUANT	14	Cable ID
DCCALDATE	LABEL	6/8/2020	DC Calibration Date
ACCALDATE	LABEL	6/8/2020	AC Calibration Date
THERMOSELECT	IQUANT	1	Thermo Select
FRAMEWORKVERSION	QUANT	6.33	Framework Version
INSTRUMENTVERSION	LABEL	3.50	Instrument Version
ZCURVE	TABLE
	Pt	Time	Freq	Zreal	Zimag	Zsig	Zmod	Zphz	Idc	Vdc	IERange
	#	s	Hz	ohm	ohm	V	ohm	°	A	V	#
	0	1	1000078	1919.832	-2316.004	1	3008.26	-50.34326	5.355737E-007	-0.0779227	8
	1	1	794390.6	2312.782	-2552.97	1	3444.796	-47.82599	4.382049E-008	-0.0781452	8
	2	2	630984.4	2759.992	-2768.304	1	3909.1	-45.08614	4.701195E-007	-0.0783153	8
	3	2	501234.4	3256.512	-2960.952	1	4401.375	-42.27838	-3.220246E-007	-0.0783247	8
	4	2	398109.4	3807.229	-3096.154	1	4907.256	-39.11906	8.265921E-008	-0.0783868	8
	5	3	316265.6	4383.202	-3181.42	1	5416.077	-35.97293	1.762676E-007	-0.0784089	8
	6	3	251203.1	4973.981	-3201.845	1	5915.429	-32.77015	1.677822E-007	-0.0784088	8
	7	3	199546.9	5568.047	-3161.198	1	6402.836	-29.58527	2.919922E-007	-0.0784044	8
	8	4	158578.1	6144.865	-3060.411	1	6864.8	-26.47531	-2.534707E-007	-0.0783757	8
	9	4	125953.1	6836.405	-2665.327	1	7337.602	-21.29945	1.714822E-007	-0.0787308	7
	10	4	100078.1	7261.497	-2487.418	1	7675.714	-18.90884	3.253127E-008	-0.0783857	7
	11	5	79453.13	7646.077	-2293.489	1	7982.643	-16.69695	-3.9151E-008	-0.0784255	7
	12	5	63140.62	7966.607	-2090.832	1	8236.407	-14.70559	-5.938547E-008	-0.078337	7
	13	5	50203.12	8233.892	-1896.471	1	8449.472	-12.97045	-1.003171E-008	-0.0783655	7
	14	6	39890.62	8465.473	-1721.375	1	8638.713	-11.49386	-6.730561E-008	-0.0783556	7
	15	6	31640.63	8655.557	-1571.273	1	8797.02	-10.28906	-2.992927E-008	-0.0783537	7
	16	6	25171.88	8820.656	-1446.976	1	8938.552	-9.316053	-4.638574E-008	-0.078353	7
	17	7	20015.62	8955.515	-1354.463	1	9057.362	-8.600428	-2.922746E-008	-0.0783607	7
	18	7	15890.62	9081.717	-1288.931	1	9172.728	-8.07781	-2.909792E-008	-0.0783612	7
	19	7	12609.37	9317.884	-930.0872	1	9364.188	-5.700236	1.031504E-008	-0.078529	6
	20	7	10078.13	9384.154	-987.889	1	9436.01	-6.009509	-6.79057E-009	-0.0784341	6
	21	8	8015.625	9458.563	-1066.592	1	9518.51	-6.433765	-9.308383E-009	-0.0783805	6
	22	8	6328.125	9539.31	-1180.829	1	9612.12	-7.056493	-2.727095E-010	-0.0785348	6
	23	8	5015.625	9621.55	-1328.23	1	9712.8	-7.859855	2.943954E-009	-0.0785593	6
	24	9	3984.375	9704.7	-1516.324	1	9822.44	-8.880457	-1.111893E-008	-0.0783025	6
	25	9	3170.956	9795.05	-1754.575	1	9950.96	-10.15561	-2.241115E-010	-0.07853	6
	26	9	2527.573	9893.23	-2053.18	1	10104.03	-11.72439	-3.560473E-009	-0.0784871	6
	27	10	1976.103	10010.57	-2460.527	1	10308.53	-13.80915	-1.012943E-008	-0.0782855	6
	28	10	1577.524	10133.96	-2929.386	1	10548.86	-16.1228	-9.935662E-009	-0.0782865	6
	29	10	1265.625	10277.01	-3493.311	1	10854.5	-18.77368	-1.098923E-008	-0.0783363	6
	30	11	998.264	10455.16	-4243.068	1	11283.35	-22.08904	3.480595E-009	-0.0785777	6
	31	11	796.875	10664.57	-5118.407	1	11829.25	-25.63845	1.158536E-008	-0.0786074	6
	32	11	627.7902	10930.47	-6258.603	1	12595.44	-29.79473	1.198636E-008	-0.0786027	6
	33	12	505.5147	11231.87	-7520.406	1	13517.08	-33.80466	1.192337E-008	-0.0786114	6
	34	12	397.9953	11639.19	-9219.059	1	14847.96	-38.38169	9.762444E-010	-0.0784273	6
	35	12	315.5048	12138.66	-11238.62	1	16542.48	-42.79518	1.121895E-009	-0.0784275	6
	36	13	252.4038	12740.09	-13590.95	1	18628.57	-46.85082	1.023323E-009	-0.078428	6
	37	13	198.6229	13544.42	-16659.84	1	21470.95	-50.88895	9.971574E-010	-0.0784262	6
	38	13	158.3615	14498.79	-20185.85	1	24853.24	-54.31163	9.65781E-010	-0.0784284	6
	39	13	125.558	15719.82	-24561.91	1	29161.62	-57.38044	9.863547E-010	-0.0784231	6
	40	14	100.4464	17185.27	-29646.6	1	34267.39	-59.90038	1.083661E-009	-0.0784304	6
	41	14	79.00281	19179.03	-36283.37	1	41040.45	-62.13951	6.916072E-010	-0.0784301	6
	42	14	63.3446	21561.49	-43632.61	1	48669.32	-63.70326	8.037505E-010	-0.0784316	6
	43	15	49.86702	24822.26	-53280.23	1	58778.64	-65.02007	8.672654E-010	-0.0784289	6
	44	15	39.72458	28809.55	-64277.41	1	70438.45	-65.85777	1.062214E-009	-0.078428	6
	45	16	31.6723	33965.32	-77334.13	1	84464.26	-66.28881	1.280221E-009	-0.07843	6
	46	16	24.93351	41075.18	-93572.98	1	102191.4	-66.30025	3.503841E-010	-0.0784306	6
	47	16	19.86229	49163.62	-110990.1	1	121391.4	-66.10881	-5.088877E-009	-0.0870581	5
	48	17	15.83615	60024.35	-131821	1	144843.7	-65.51797	-3.440612E-009	-0.0870649	5
	49	17	12.40079	75136.16	-157719	1	174701.8	-64.52722	-2.333148E-009	-0.0870612	5
	50	17	9.93114	92533.11	-184599.5	1	206493	-63.37704	-1.786956E-009	-0.0870642	5
	51	18	7.944915	114097	-214719.4	1	243151.3	-62.01484	-1.475461E-009	-0.0870566	5
	52	18	6.317385	140628.1	-248279.5	1	285340.2	-60.47234	-8.46385E-010	-0.0870569	5
	53	19	5.008013	172841.4	-285438.6	1	333690.5	-58.80386	-4.939303E-010	-0.0870604	5
	54	20	3.945707	211510.3	-326367.8	1	388912	-57.05381	-2.673181E-010	-0.0870577	5
	55	21	3.158693	253049.5	-366981.9	1	445768.7	-55.41211	-1.606449E-010	-0.0870569	5
	56	22	2.504006	302062.2	-412101	1	510948.9	-53.75929	-3.864018E-011	-0.0870596	5
	57	24	1.998082	352699.3	-458753.8	1	578663.9	-52.44619	1.653972E-011	-0.0870582	5
	58	26	1.584686	408077.1	-511049.7	1	653986.8	-51.39237	1.218936E-010	-0.0870586	5
	59	29	1.266892	464369.4	-567743.5	1	733465.5	-50.71954	1.839883E-010	-0.0870641	5
	60	32	0.999041	526900.6	-637349.8	1	826945.6	-50.41927	1.779124E-010	-0.0870596	5
