EXPLAIN
TAG	EISPOT
TITLE	LABEL	Potentiostatic EIS	Test &Identifier
DATE	LABEL	1/14/2020	Date
TIME	LABEL	17:51:29	Time
NOTES	NOTES	5	&Notes...
	
	
	
	
	
PSTAT	PSTAT	REF600-11020	Potentiostat
VDC	POTEN	0.00000E+000	T	DC &Voltage (V)
FREQINIT	QUANT	1.00000E+006	Initial Fre&q. (Hz)
FREQFINAL	QUANT	1.00000E+000	Final Fre&q. (Hz)
PTSPERDEC	QUANT	1.00000E+001	Points/&decade
VAC	QUANT	2.50000E+001	AC &Voltage (mV rms)
AREA	QUANT	1.00000E-001	&Area (cm^2)
CONDIT	TWOPARAM	T	5.00000E+000	0.00000E+000	Conditionin&g	Time(s)	E(V)
DELAY	TWOPARAM	T	5.00000E+000	0.00000E+000	Init. De&lay	Time(s)	Stab.(mV/s)
SPEED	SELECTOR	0	&Optimize for:
ZGUESS	QUANT	5.00000E+002	E&stimated Z (ohms)
OCVCURVE	TABLE	19
	Pt	T	Vf	Vm	Ach	Over
	#	s	V vs. Ref.	V	V	bits
	0	0.258333	1.12851E-002	1.12851E-002	6.49313E-004	...........
	1	0.516667	1.12888E-002	1.14752E-002	6.44480E-004	...........
	2	0.775	1.13098E-002	1.15888E-002	6.49113E-004	...........
	3	1.03333	1.13658E-002	1.17354E-002	6.47980E-004	...........
	4	1.29167	1.14625E-002	1.19598E-002	6.45046E-004	...........
	5	1.55	1.15927E-002	1.20420E-002	6.42346E-004	...........
	6	1.80833	1.17416E-002	1.21456E-002	6.44546E-004	...........
	7	2.06667	1.18891E-002	1.22431E-002	6.43746E-004	...........
	8	2.325	1.20204E-002	1.23359E-002	6.48746E-004	...........
	9	2.58333	1.21338E-002	1.24384E-002	6.51213E-004	...........
	10	2.84167	1.22358E-002	1.25348E-002	6.49980E-004	...........
	11	3.1	1.23335E-002	1.26399E-002	6.44546E-004	...........
	12	3.35833	1.24312E-002	1.27444E-002	6.46946E-004	...........
	13	3.61667	1.25307E-002	1.28424E-002	6.48446E-004	...........
	14	3.875	1.26293E-002	1.28086E-002	6.49746E-004	...........
	15	4.13333	1.27124E-002	1.26393E-002	6.39746E-004	...........
	16	4.39167	1.27586E-002	1.28114E-002	6.43246E-004	...........
	17	4.65	1.27731E-002	1.30966E-002	6.44546E-004	...........
	18	4.90833	1.28040E-002	1.32700E-002	6.47713E-004	...........
EOC	QUANT	0.012804	Open Circuit (V)
PSTATMODEL	IQUANT	4	Pstat Model
PSTATSECTION	LABEL	REF600-11020	Pstat Section
PSTATSERIALNO	LABEL	11020	Pstat Serial Number
CTRLMODE	IQUANT	1	Control Mode
IESTAB	IQUANT	0	I/E Stability
CASPEED	IQUANT	1	Control Amp Speed
CONVENTION	IQUANT	1	Current Convention
ICHRANGE	IQUANT	2	Ich Range
ICHRANGEMODE	TOGGLE	F	Ich Auto Range
ICHOFFSETENABLE	TOGGLE	T	Ich Offset Enable
ICHOFFSET	QUANT	0	Ich Offset (V)
ICHFILTER	IQUANT	3	Ich Filter
VCHRANGE	IQUANT	2	Vch Range
VCHRANGEMODE	TOGGLE	F	Vch Auto Range
VCHOFFSETENABLE	TOGGLE	T	Vch Offset Enable
VCHOFFSET	QUANT	0	Vch Offset (V)
VCHFILTER	IQUANT	3	Vch Filter
ACHRANGE	IQUANT	2	Ach Range
ACHOFFSETENABLE	TOGGLE	F	Ach Offset Enable
ACHOFFSET	QUANT	0	Ach Offset (V)
ACHFILTER	IQUANT	3	Ach Filter
IERANGELOWERLIMIT	IQUANT	1	I/E Range Lower Limit
IERANGEMODE	TOGGLE	F	I/E AutoRange
IERANGE	IQUANT	7	I/E Range
POSFEEDENABLE	TOGGLE	F	Positive Feedback IR Comp
POSFEEDRESISTANCE	QUANT	0	Positive Feedback Resistance (ohm)
ACHSELECT	IQUANT	0	Ach Select
CABLEID	IQUANT	14	Cable ID
DCCALDATE	LABEL	12/22/2019	DC Calibration Date
ACCALDATE	LABEL	12/22/2019	AC Calibration Date
THERMOSELECT	IQUANT	1	Thermo Select
FRAMEWORKVERSION	QUANT	6.33	Framework Version
INSTRUMENTVERSION	LABEL	3.50	Instrument Version
ZCURVE	TABLE
	Pt	Time	Freq	Zreal	Zimag	Zsig	Zmod	Zphz	Idc	Vdc	IERange
	#	s	Hz	ohm	ohm	V	ohm	°	A	V	#
	0	1	1000078	2385.624	-2302.783	1	3315.721	-43.98773	4.44433E-007	0.0148801	8
	1	1	794390.6	2795.391	-2403.753	1	3686.765	-40.69219	-3.371829E-007	0.0147942	8
	2	1	630984.4	3232.787	-2454.281	1	4058.867	-37.2052	2.458449E-006	0.014103	8
	3	2	501234.4	3657.605	-2459.981	1	4407.9	-33.92344	2.722447E-006	0.0139734	8
	4	2	398109.4	4065.587	-2465.214	1	4754.605	-31.231	-9.027207E-007	0.0146037	8
	5	2	316265.6	4453.184	-2416.49	1	5066.583	-28.48617	5.608667E-007	0.0142588	8
	6	3	251203.1	4813.526	-2363.941	1	5362.672	-26.15583	-2.91621E-007	0.0143679	8
	7	3	199546.9	5141.236	-2341.547	1	5649.35	-24.48662	1.995192E-006	0.0140077	8
	8	3	158578.1	5433.184	-2324.638	1	5909.605	-23.16411	9.319992E-008	0.0143548	8
	9	4	125953.1	5746.605	-2273.226	1	6179.889	-21.58263	5.15872E-008	0.0142501	7
	10	4	100078.1	6016.043	-2296.49	1	6439.459	-20.89323	-1.636805E-008	0.014329	7
	11	4	79453.13	6287.594	-2365.24	1	6717.752	-20.61508	-1.787934E-008	0.0143183	7
	12	5	63140.62	6561.841	-2463.183	1	7008.925	-20.57512	8.623618E-009	0.0142677	7
	13	5	50203.12	6843.455	-2597.472	1	7319.818	-20.78454	4.750916E-009	0.0143338	7
	14	5	39890.62	7138.918	-2772.457	1	7658.372	-21.22408	-2.753177E-008	0.0143547	7
	15	6	31640.63	7457.441	-2993.312	1	8035.754	-21.86983	9.203718E-009	0.0143763	7
	16	6	25171.88	7793.276	-3254.453	1	8445.509	-22.6653	-1.655355E-008	0.0143149	7
	17	6	20015.62	8175.386	-3594.99	1	8930.896	-23.73669	3.128313E-008	0.01428	7
	18	6	15890.62	8577.463	-3946.35	1	9441.745	-24.70638	3.269708E-008	0.0142794	7
	19	7	12609.37	9046.749	-4343.755	1	10035.53	-25.64778	1.080934E-008	0.0141857	6
	20	7	10078.13	9537.49	-4844.012	1	10697.11	-26.92563	-4.243823E-009	0.0144067	6
	21	7	8015.625	10085.61	-5427.7	1	11453.36	-28.28749	1.636136E-009	0.0143864	6
	22	8	6328.125	10722.97	-6119.177	1	12346.11	-29.71171	-4.712788E-009	0.014403	6
	23	8	5015.625	11426.18	-6897.818	1	13346.81	-31.11877	1.142521E-008	0.0141315	6
	24	8	3984.375	12216.61	-7772.78	1	14479.7	-32.46643	1.987786E-010	0.0143012	6
	25	9	3170.956	13092.63	-8790.889	1	15770.12	-33.87891	-8.188473E-010	0.0142457	6
	26	9	2527.573	14073.36	-9927.69	1	17222.62	-35.20008	-9.965286E-010	0.0143852	6
	27	9	1976.103	15280.18	-11335.08	1	19025.45	-36.56861	1.738812E-009	0.0143834	6
	28	10	1577.524	16495	-12820.55	1	20891.42	-37.85572	-4.418377E-009	0.0143797	6
	29	10	1265.625	17921.3	-14478.93	1	23039.37	-38.93534	6.6846E-009	0.0143028	6
	30	10	998.264	19602.54	-16508.9	1	25628.17	-40.10347	-6.15481E-009	0.0143779	6
	31	11	796.875	21400.27	-18710.83	1	28426.51	-41.16408	1.034772E-008	0.0141935	6
	32	11	627.7902	23570.9	-21376.16	1	31820.24	-42.20449	5.992393E-009	0.0142991	6
	33	11	505.5147	25806.77	-24152.1	1	35345.62	-43.10302	-7.74628E-010	0.0142376	6
	34	11	397.9953	28592.1	-27658.18	1	39780.44	-44.0488	2.820307E-010	0.0143172	6
	35	12	315.5048	31691.35	-31588.04	1	44745.35	-44.90646	6.018175E-010	0.0143166	6
	36	12	252.4038	35075.22	-35909.18	1	50197.01	-45.67311	6.890561E-010	0.0143139	6
	37	12	198.6229	39267.88	-41256.86	1	56956.96	-46.41494	4.796643E-010	0.0143158	6
	38	13	158.3615	43851.18	-47043.41	1	64311.81	-47.01141	6.602929E-010	0.0143157	6
	39	13	125.558	49276.02	-53791.55	1	72949.69	-47.5086	7.036036E-010	0.0143101	6
	40	13	100.4464	55225.26	-61104.14	1	82362.28	-47.89306	4.516205E-010	0.0143106	6
	41	14	79.00281	62768.41	-69867.62	1	93922.08	-48.06377	8.197469E-010	0.0143084	6
	42	14	63.3446	71659.7	-79075.2	1	106714.6	-47.81643	3.939998E-011	0.0143107	5
	43	14	49.86702	81216.14	-90294.88	1	121446.4	-48.03006	2.143656E-010	0.0143024	5
	44	15	39.72458	91079.48	-101871.1	1	136649.9	-48.20119	-7.027695E-011	0.0143098	5
	45	15	31.6723	102317.8	-114819.8	1	153793.8	-48.29524	-1.183558E-010	0.0143126	5
	46	15	24.93351	115885.8	-130831.4	1	174775.2	-48.46663	-6.911316E-010	0.0143117	5
	47	16	19.86229	130096.4	-148503.6	1	197429.5	-48.78006	6.140275E-010	0.0143124	5
	48	16	15.83615	147141.6	-167241.1	1	222756	-48.65812	-1.737701E-009	0.0143044	5
	49	16	12.40079	166124.1	-194705.9	1	255944.5	-49.52902	-9.151159E-010	0.0143124	5
	50	17	9.93114	186181.4	-220516.6	1	288601.9	-49.82572	-1.255687E-009	0.0143097	5
	51	17	7.944915	211260.9	-251237.3	1	328255	-49.94013	9.851151E-011	0.0143032	5
	52	18	6.317385	241077.7	-286942.4	1	374772.5	-49.96435	9.600905E-011	0.0142948	5
	53	18	5.008013	277262.8	-326514.7	1	428353.3	-49.66346	-1.221121E-010	0.0142978	5
	54	19	3.945707	318429.7	-372075.9	1	489732.5	-49.44245	3.056934E-011	0.0143089	5
	55	20	3.158693	362698.1	-416133.7	1	552011.9	-48.92491	-2.470671E-010	0.0143001	5
	56	22	2.504006	412424	-467318.9	1	623282	-48.57056	-1.751519E-010	0.0142933	5
	57	23	1.998082	463834	-522422.2	1	698617.9	-48.39964	-7.352235E-011	0.0143406	5
	58	25	1.584686	517013.5	-588561.5	1	783394.9	-48.70277	-7.006729E-011	0.0143137	5
	59	27	1.266892	573209.8	-662093.5	1	875749.6	-49.11551	-7.778349E-011	0.0142736	5
	60	29	0.999041	638790.8	-760350.1	1	993069	-49.96547	-1.651789E-010	0.0143049	4
