EXPLAIN
TAG	EISPOT
TITLE	LABEL	Potentiostatic EIS	Test &Identifier
DATE	LABEL	7/5/2020	Date
TIME	LABEL	16:44:28	Time
NOTES	NOTES	1	&Notes...
	
PSTAT	PSTAT	REF600-11020	Potentiostat
VDC	POTEN	0.00000E+000	T	DC &Voltage (V)
FREQINIT	QUANT	1.00000E+006	Initial Fre&q. (Hz)
FREQFINAL	QUANT	1.00000E+000	Final Fre&q. (Hz)
PTSPERDEC	QUANT	1.00000E+001	Points/&decade
VAC	QUANT	2.50000E+001	AC &Voltage (mV rms)
AREA	QUANT	4.00000E-004	&Area (cm^2)
CONDIT	TWOPARAM	F	5.00000E+000	0.00000E+000	Conditionin&g	Time(s)	E(V)
DELAY	TWOPARAM	F	3.00000E+000	0.00000E+000	Init. De&lay	Time(s)	Stab.(mV/s)
SPEED	SELECTOR	0	&Optimize for:
ZGUESS	QUANT	1.00000E+003	E&stimated Z (ohms)
OCVCURVE	TABLE	39
	Pt	T	Vf	Vm	Ach	Over
	#	s	V vs. Ref.	V	V	bits
	0	0.258333	5.97728E-002	5.97728E-002	5.03917E-004	...........
	1	0.516667	5.97736E-002	5.98174E-002	5.07717E-004	...........
	2	0.775	5.97787E-002	5.98508E-002	5.05784E-004	...........
	3	1.03333	5.97925E-002	5.98848E-002	5.05817E-004	...........
	4	1.29167	5.98162E-002	5.99127E-002	4.99617E-004	...........
	5	1.55	5.98463E-002	5.99437E-002	4.97250E-004	...........
	6	1.80833	5.98783E-002	5.99697E-002	4.94617E-004	...........
	7	2.06667	5.99098E-002	6.00058E-002	4.94284E-004	...........
	8	2.325	5.99403E-002	6.00285E-002	4.94550E-004	...........
	9	2.58333	5.99702E-002	6.00630E-002	4.99317E-004	...........
	10	2.84167	5.99998E-002	6.00881E-002	5.01484E-004	...........
	11	3.1	6.00291E-002	6.01185E-002	4.99284E-004	...........
	12	3.35833	6.00580E-002	6.01370E-002	4.99584E-004	...........
	13	3.61667	6.00858E-002	6.01609E-002	5.04284E-004	...........
	14	3.875	6.01119E-002	6.01840E-002	4.96750E-004	...........
	15	4.13333	6.01363E-002	6.02117E-002	4.98450E-004	...........
	16	4.39167	6.01599E-002	6.02304E-002	4.99084E-004	...........
	17	4.65	6.01835E-002	6.02566E-002	4.96217E-004	...........
	18	4.90833	6.02070E-002	6.02754E-002	5.02884E-004	...........
	19	5.16667	6.02302E-002	6.03042E-002	4.94417E-004	...........
	20	5.425	6.02533E-002	6.03255E-002	4.98117E-004	...........
	21	5.68333	6.02769E-002	6.03586E-002	5.00884E-004	...........
	22	5.94167	6.03014E-002	6.03848E-002	4.98050E-004	...........
	23	6.2	6.03276E-002	6.04169E-002	4.96684E-004	...........
	24	6.45833	6.03552E-002	6.04413E-002	5.00550E-004	...........
	25	6.71667	6.03837E-002	6.04740E-002	5.00450E-004	...........
	26	6.975	6.04127E-002	6.05135E-002	4.99684E-004	...........
	27	7.23333	6.04430E-002	6.05480E-002	4.96150E-004	...........
	28	7.49167	6.04753E-002	6.05859E-002	4.99417E-004	...........
	29	7.75	6.05099E-002	6.06247E-002	4.99884E-004	...........
	30	8.00833	6.05463E-002	6.06704E-002	5.03584E-004	...........
	31	8.26667	6.05845E-002	6.07128E-002	5.07583E-004	...........
	32	8.525	6.06247E-002	6.07584E-002	5.08850E-004	...........
	33	8.78333	6.06667E-002	6.07953E-002	5.06517E-004	...........
	34	9.04167	6.07094E-002	6.08391E-002	5.02350E-004	...........
	35	9.3	6.07517E-002	6.08702E-002	5.00384E-004	...........
	36	9.5583	6.07925E-002	6.09058E-002	5.02250E-004	...........
	37	9.8167	6.08312E-002	6.09380E-002	5.00217E-004	...........
	38	10.075	6.08675E-002	6.09693E-002	4.96450E-004	...........
EOC	QUANT	0.0608675	Open Circuit (V)
PSTATMODEL	IQUANT	4	Pstat Model
PSTATSECTION	LABEL	REF600-11020	Pstat Section
PSTATSERIALNO	LABEL	11020	Pstat Serial Number
CTRLMODE	IQUANT	1	Control Mode
IESTAB	IQUANT	0	I/E Stability
CASPEED	IQUANT	1	Control Amp Speed
CONVENTION	IQUANT	1	Current Convention
ICHRANGE	IQUANT	2	Ich Range
ICHRANGEMODE	TOGGLE	F	Ich Auto Range
ICHOFFSETENABLE	TOGGLE	T	Ich Offset Enable
ICHOFFSET	QUANT	0	Ich Offset (V)
ICHFILTER	IQUANT	3	Ich Filter
VCHRANGE	IQUANT	2	Vch Range
VCHRANGEMODE	TOGGLE	F	Vch Auto Range
VCHOFFSETENABLE	TOGGLE	T	Vch Offset Enable
VCHOFFSET	QUANT	0	Vch Offset (V)
VCHFILTER	IQUANT	3	Vch Filter
ACHRANGE	IQUANT	2	Ach Range
ACHOFFSETENABLE	TOGGLE	F	Ach Offset Enable
ACHOFFSET	QUANT	0	Ach Offset (V)
ACHFILTER	IQUANT	3	Ach Filter
IERANGELOWERLIMIT	IQUANT	1	I/E Range Lower Limit
IERANGEMODE	TOGGLE	F	I/E AutoRange
IERANGE	IQUANT	8	I/E Range
POSFEEDENABLE	TOGGLE	F	Positive Feedback IR Comp
POSFEEDRESISTANCE	QUANT	0	Positive Feedback Resistance (ohm)
ACHSELECT	IQUANT	0	Ach Select
CABLEID	IQUANT	14	Cable ID
DCCALDATE	LABEL	6/26/2020	DC Calibration Date
ACCALDATE	LABEL	6/26/2020	AC Calibration Date
THERMOSELECT	IQUANT	1	Thermo Select
FRAMEWORKVERSION	QUANT	6.33	Framework Version
INSTRUMENTVERSION	LABEL	3.50	Instrument Version
ZCURVE	TABLE
	Pt	Time	Freq	Zreal	Zimag	Zsig	Zmod	Zphz	Idc	Vdc	IERange
	#	s	Hz	ohm	ohm	V	ohm	°	A	V	#
	0	2	1000078	1397.664	-1803.364	1	2281.576	-52.22318	-8.486867E-006	0.0627597	8
	1	2	794390.6	1628.025	-2028.414	1	2600.948	-51.24913	1.252993E-005	0.0618414	8
	2	2	630984.4	1829.13	-2264.93	1	2911.292	-51.07608	1.882557E-006	0.062684	8
	3	2	501234.4	2066.215	-2547.608	1	3280.176	-50.95652	-8.903101E-007	0.0621685	8
	4	3	398109.4	2327.164	-2887.317	1	3708.408	-51.13135	-2.838892E-006	0.0624183	8
	5	3	316265.6	2621.57	-3311.675	1	4223.722	-51.63435	-3.740828E-006	0.0629781	8
	6	3	251203.1	2943.848	-3789.178	1	4798.345	-52.15603	-2.661528E-006	0.0623844	8
	7	4	199546.9	3305.209	-4348.74	1	5462.229	-52.76377	4.761447E-006	0.0614981	8
	8	4	158578.1	3804.942	-5062.9	1	6333.288	-53.07389	4.08442E-008	0.0621002	8
	9	4	125953.1	4341.244	-5910.88	1	7333.819	-53.70459	1.761502E-006	0.0639154	7
	10	5	100078.1	5103.187	-6772.854	1	8480.216	-53.00283	-1.3388E-006	0.0630834	7
	11	5	79453.13	5998.181	-7914.96	1	9931	-52.84412	9.822128E-007	0.0601468	7
	12	6	63140.62	7137.146	-9086.72	1	11554.54	-51.85221	1.253815E-006	0.0602191	7
	13	6	50203.12	8512.704	-10321.53	1	13379.09	-50.48581	-3.598142E-007	0.0641401	7
	14	6	39890.62	10309.46	-11697.02	1	15591.83	-48.60785	1.314791E-006	0.0614704	7
	15	7	31640.63	12507.86	-12606.52	1	17758.69	-45.22508	-9.485522E-007	0.062227	7
	16	7	25171.88	14967.77	-13517.64	1	20168.31	-42.08572	-1.581437E-006	0.0642904	7
	17	7	20015.62	17851.83	-14386.09	1	22927	-38.86398	1.432724E-006	0.0609027	7
	18	8	15890.62	20730.85	-14352.39	1	25214.27	-34.69565	9.782687E-008	0.0636453	7
	19	8	12609.37	23619.37	-13914.09	1	27413.08	-30.5022	-1.67647E-007	0.0660997	6
	20	8	10078.13	26251.28	-13129.49	1	29351.54	-26.57177	5.353281E-008	0.0640064	6
	21	8	8015.625	28309.95	-11894.98	1	30707.39	-22.79067	-2.504152E-007	0.0657233	6
	22	9	6328.125	30288.14	-10666.09	1	32111.32	-19.39992	-1.681313E-007	0.0660939	6
	23	9	5015.625	31753.32	-9433.083	1	33124.86	-16.54531	-2.115263E-008	0.0649132	6
	24	9	3984.375	32707.78	-8291.369	1	33742.34	-14.22474	-2.221832E-007	0.0661344	6
	25	10	3170.956	33422.78	-7324.396	1	34215.92	-12.36062	-2.49181E-007	0.0648784	6
	26	10	2527.573	34052.69	-6596.074	1	34685.64	-10.96255	-2.506446E-007	0.0657132	6
	27	10	1976.103	34763.05	-6117.663	1	35297.25	-9.98081	1.765045E-007	0.061878	6
	28	11	1577.524	34975.02	-5804.43	1	35453.4	-9.422885	-2.216341E-007	0.0661324	6
	29	11	1265.625	35444.44	-5755.973	1	35908.77	-9.223984	5.315807E-008	0.0639977	6
	30	11	998.264	35646.08	-5852.642	1	36123.35	-9.324061	2.20519E-007	0.0602417	6
	31	12	796.875	35629.61	-6187.048	1	36162.81	-9.85113	-9.63211E-008	0.0612929	6
	32	12	627.7902	36205.21	-6881.957	1	36853.47	-10.7625	-1.680552E-007	0.0660826	6
	33	12	505.5147	36543.87	-7766.75	1	37360.1	-11.99866	-9.603356E-008	0.0655882	6
	34	13	397.9953	36764.32	-8966.071	1	37841.85	-13.70573	5.25192E-011	0.062406	6
	35	13	315.5048	37248.24	-10552.83	1	38714.25	-15.81799	1.461745E-010	0.0624	6
	36	13	252.4038	37783.22	-12489.41	1	39793.93	-18.29153	6.554582E-010	0.0623911	6
	37	14	198.6229	38454.21	-15086.95	1	41307.9	-21.42183	1.591827E-011	0.0623964	6
	38	14	158.3615	39329.84	-18114.63	1	43301	-24.72996	1.869792E-010	0.0623878	6
	39	14	125.558	40534.74	-21920.89	1	46082.43	-28.40419	6.310552E-010	0.0623921	6
	40	15	100.4464	42082.33	-26334.31	1	49642.91	-32.03753	8.571476E-010	0.0623869	6
	41	15	79.00281	44293.63	-32072.26	1	54685.97	-35.90765	-2.693334E-011	0.0623882	6
	42	15	63.3446	46826.15	-38457.11	1	60594.04	-39.39537	4.774494E-010	0.0623884	6
	43	16	49.86702	50702.97	-46152.69	1	68562.84	-42.31022	-2.792203E-010	0.0623878	6
	44	16	39.72458	55738.02	-54699.12	1	78094.31	-44.46103	-2.961728E-011	0.0623913	6
	45	16	31.6723	62118.39	-64301.24	1	89405.51	-45.98921	-3.776382E-010	0.0623935	6
	46	17	24.93351	70259.2	-75383.46	1	103048.6	-47.01505	6.747107E-010	0.0623739	5
	47	17	19.86229	80055.52	-86940.59	1	118184.4	-47.36091	2.084279E-011	0.0623773	5
	48	17	15.83615	91812.62	-98741	1	134830.8	-47.08232	1.276904E-009	0.0623771	5
	49	17	12.40079	106299.7	-112670.9	1	154901.1	-46.66663	2.009926E-009	0.0623789	5
	50	18	9.93114	120162.5	-125340.1	1	173635.1	-46.20818	1.155141E-009	0.0623854	5
	51	18	7.944915	136706.3	-138476.3	1	194587.5	-45.36853	-1.15389E-009	0.062386	5
	52	18	6.317385	153369.1	-154283.7	1	217544.3	-45.17033	5.322087E-010	0.0623708	5
	53	19	5.008013	172142.8	-171531.7	1	243015	-44.89813	4.047246E-010	0.0623894	5
	54	20	3.945707	192021.3	-191507	1	271195.7	-44.92315	-3.231451E-010	0.0623833	5
	55	21	3.158693	212378	-213248.4	1	300964	-45.11716	2.445114E-010	0.06236	5
	56	22	2.504006	234368	-240140.4	1	335552.9	-45.69697	2.573391E-010	0.062373	5
	57	23	1.998082	257805.6	-270598.8	1	373747.8	-46.38691	-1.25446E-010	0.0623364	5
	58	25	1.584686	283446.4	-309530.8	1	419703.7	-47.51876	-1.227878E-010	0.0623477	5
	59	27	1.266892	310997	-353511.2	1	470839	-48.66071	-7.738045E-012	0.0623865	5
	60	29	0.999041	345546.7	-410003.7	1	536195.4	-49.87617	4.815612E-011	0.0624103	5
