EXPLAIN
TAG	EISPOT
TITLE	LABEL	Potentiostatic EIS	Test &Identifier
DATE	LABEL	2/28/2020	Date
TIME	LABEL	16:25:03	Time
NOTES	NOTES	1	&Notes...
	
PSTAT	PSTAT	REF600-11020	Potentiostat
VDC	POTEN	0.00000E+000	T	DC &Voltage (V)
FREQINIT	QUANT	1.00000E+006	Initial Fre&q. (Hz)
FREQFINAL	QUANT	1.00000E+000	Final Fre&q. (Hz)
PTSPERDEC	QUANT	1.00000E+001	Points/&decade
VAC	QUANT	2.50000E+001	AC &Voltage (mV rms)
AREA	QUANT	1.60000E-004	&Area (cm^2)
CONDIT	TWOPARAM	F	1.50000E+001	0.00000E+000	Conditionin&g	Time(s)	E(V)
DELAY	TWOPARAM	F	1.00000E+002	0.00000E+000	Init. De&lay	Time(s)	Stab.(mV/s)
SPEED	SELECTOR	1	&Optimize for:
ZGUESS	QUANT	1.00000E+003	E&stimated Z (ohms)
OCVCURVE	TABLE	39
	Pt	T	Vf	Vm	Ach	Over
	#	s	V vs. Ref.	V	V	bits
	0	0.258333	-6.49077E-002	-6.49077E-002	5.84763E-004	...........
	1	0.516667	-6.49067E-002	-6.48590E-002	5.85263E-004	...........
	2	0.775	-6.49019E-002	-6.48596E-002	5.86963E-004	...........
	3	1.03333	-6.48906E-002	-6.48265E-002	5.80930E-004	...........
	4	1.29167	-6.48732E-002	-6.47854E-002	5.83263E-004	...........
	5	1.55	-6.48504E-002	-6.47516E-002	5.80397E-004	...........
	6	1.80833	-6.48223E-002	-6.47161E-002	5.82530E-004	...........
	7	2.06667	-6.47899E-002	-6.46855E-002	5.80197E-004	...........
	8	2.325	-6.47555E-002	-6.46519E-002	5.77130E-004	...........
	9	2.58333	-6.47212E-002	-6.46234E-002	5.77897E-004	...........
	10	2.84167	-6.46879E-002	-6.45855E-002	5.85296E-004	...........
	11	3.1	-6.46553E-002	-6.45515E-002	5.82063E-004	...........
	12	3.35833	-6.46228E-002	-6.45406E-002	5.85797E-004	...........
	13	3.61667	-6.45910E-002	-6.44807E-002	5.77563E-004	...........
	14	3.875	-6.45585E-002	-6.44012E-002	5.76563E-004	...........
	15	4.13333	-6.45207E-002	-6.43813E-002	5.77930E-004	...........
	16	4.39167	-6.44760E-002	-6.43517E-002	5.81997E-004	...........
	17	4.65	-6.44307E-002	-6.43631E-002	5.80663E-004	...........
	18	4.90833	-6.43952E-002	-6.44046E-002	5.83063E-004	...........
	19	5.16667	-6.43767E-002	-6.43771E-002	5.81863E-004	...........
	20	5.425	-6.43727E-002	-6.43272E-002	5.78963E-004	...........
	21	5.68333	-6.43702E-002	-6.42706E-002	5.82930E-004	...........
	22	5.94167	-6.43550E-002	-6.42282E-002	5.83697E-004	...........
	23	6.2	-6.43244E-002	-6.42341E-002	5.72963E-004	...........
	24	6.45833	-6.42855E-002	-6.41179E-002	5.78263E-004	...........
	25	6.71667	-6.42435E-002	-6.40937E-002	5.77463E-004	...........
	26	6.975	-6.41974E-002	-6.40512E-002	5.75330E-004	...........
	27	7.23333	-6.41487E-002	-6.40426E-002	5.73497E-004	...........
	28	7.49167	-6.41042E-002	-6.40243E-002	5.74930E-004	...........
	29	7.75	-6.40694E-002	-6.40125E-002	5.76263E-004	...........
	30	8.00833	-6.40444E-002	-6.39831E-002	5.78897E-004	...........
	31	8.26667	-6.40247E-002	-6.39548E-002	5.81230E-004	...........
	32	8.525	-6.40049E-002	-6.39156E-002	5.80463E-004	...........
	33	8.78333	-6.39811E-002	-6.38862E-002	5.79597E-004	...........
	34	9.04167	-6.39530E-002	-6.38655E-002	5.79930E-004	...........
	35	9.3	-6.39228E-002	-6.38361E-002	5.77230E-004	...........
	36	9.5583	-6.38933E-002	-6.38096E-002	5.81630E-004	...........
	37	9.8167	-6.38654E-002	-6.37831E-002	5.79997E-004	...........
	38	10.075	-6.38384E-002	-6.37583E-002	5.74263E-004	...........
EOC	QUANT	-0.0638384	Open Circuit (V)
PSTATMODEL	IQUANT	4	Pstat Model
PSTATSECTION	LABEL	REF600-11020	Pstat Section
PSTATSERIALNO	LABEL	11020	Pstat Serial Number
CTRLMODE	IQUANT	1	Control Mode
IESTAB	IQUANT	0	I/E Stability
CASPEED	IQUANT	1	Control Amp Speed
CONVENTION	IQUANT	1	Current Convention
ICHRANGE	IQUANT	2	Ich Range
ICHRANGEMODE	TOGGLE	F	Ich Auto Range
ICHOFFSETENABLE	TOGGLE	T	Ich Offset Enable
ICHOFFSET	QUANT	0	Ich Offset (V)
ICHFILTER	IQUANT	3	Ich Filter
VCHRANGE	IQUANT	2	Vch Range
VCHRANGEMODE	TOGGLE	F	Vch Auto Range
VCHOFFSETENABLE	TOGGLE	T	Vch Offset Enable
VCHOFFSET	QUANT	0	Vch Offset (V)
VCHFILTER	IQUANT	3	Vch Filter
ACHRANGE	IQUANT	2	Ach Range
ACHOFFSETENABLE	TOGGLE	F	Ach Offset Enable
ACHOFFSET	QUANT	0	Ach Offset (V)
ACHFILTER	IQUANT	3	Ach Filter
IERANGELOWERLIMIT	IQUANT	1	I/E Range Lower Limit
IERANGEMODE	TOGGLE	F	I/E AutoRange
IERANGE	IQUANT	8	I/E Range
POSFEEDENABLE	TOGGLE	F	Positive Feedback IR Comp
POSFEEDRESISTANCE	QUANT	0	Positive Feedback Resistance (ohm)
ACHSELECT	IQUANT	0	Ach Select
CABLEID	IQUANT	14	Cable ID
DCCALDATE	LABEL	2/27/2020	DC Calibration Date
ACCALDATE	LABEL	2/27/2020	AC Calibration Date
THERMOSELECT	IQUANT	1	Thermo Select
FRAMEWORKVERSION	QUANT	6.33	Framework Version
INSTRUMENTVERSION	LABEL	3.50	Instrument Version
ZCURVE	TABLE
	Pt	Time	Freq	Zreal	Zimag	Zsig	Zmod	Zphz	Idc	Vdc	IERange
	#	s	Hz	ohm	ohm	V	ohm	°	A	V	#
	0	1	1000078	1617.569	-775.0978	1	1793.685	-25.60255	-1.288671E-006	-0.0610659	8
	1	2	794390.6	1737.704	-729.749	1	1884.714	-22.77998	1.024204E-006	-0.0618646	8
	2	4	630984.4	1845.963	-686.6171	1	1969.523	-20.40299	-6.542441E-007	-0.0618594	8
	3	5	501234.4	1936.921	-644.1313	1	2041.217	-18.39477	-1.121668E-006	-0.0618217	8
	4	6	398109.4	2016.129	-608.5487	1	2105.97	-16.79592	-1.158684E-006	-0.0619016	8
	5	8	316265.6	2095.167	-576.3118	1	2172.985	-15.37983	-1.070812E-006	-0.0619414	8
	6	9	251203.1	2160.685	-558.1075	1	2231.601	-14.48301	-4.120583E-007	-0.0620737	8
	7	10	199546.9	2229.589	-542.8543	1	2294.724	-13.68397	-2.245533E-006	-0.0618068	8
	8	12	158578.1	2290.858	-540.287	1	2353.708	-13.27042	4.749728E-007	-0.0622673	8
	9	13	125953.1	2369.433	-517.7005	1	2425.33	-12.32494	-1.504858E-007	-0.0620416	7
	10	15	100078.1	2429.183	-521.8999	1	2484.615	-12.12544	-2.105806E-008	-0.0622277	7
	11	16	79453.13	2493.938	-541.8484	1	2552.122	-12.25793	3.48446E-009	-0.0622781	7
	12	17	63140.62	2563.51	-566.4176	1	2625.34	-12.45954	-2.000164E-008	-0.0622075	7
	13	19	50203.12	2635.382	-593.3225	1	2701.345	-12.68787	2.432618E-008	-0.062325	7
	14	20	39890.62	2710.154	-624.7567	1	2781.233	-12.9813	2.683108E-008	-0.0622529	7
	15	21	31640.63	2788.704	-662.1562	1	2866.238	-13.35709	-2.082385E-008	-0.0622319	7
	16	23	25171.88	2867.238	-704.889	1	2952.613	-13.81183	-2.857333E-008	-0.0622706	7
	17	24	20015.62	2950.015	-757.4711	1	3045.71	-14.40066	7.116687E-008	-0.0624142	7
	18	25	15890.62	3035.602	-819.401	1	3144.249	-15.10585	-1.827193E-008	-0.0622199	7
	19	27	12609.37	3124.121	-892.8861	1	3249.211	-15.95015	2.442921E-008	-0.0623336	7
	20	28	10078.13	3212.763	-982.223	1	3359.554	-16.99972	6.88782E-009	-0.0623315	7
	21	29	8015.625	3311.579	-1093.251	1	3487.37	-18.26959	-3.40178E-008	-0.0622178	7
	22	31	6328.125	3417.799	-1233.006	1	3633.408	-19.83743	-7.726079E-010	-0.0622624	7
	23	32	5015.625	3534.821	-1401.162	1	3802.396	-21.6228	9.831932E-009	-0.0623238	7
	24	33	3984.375	3663.115	-1600.818	1	3997.628	-23.60581	2.189768E-008	-0.0622609	7
	25	35	3170.956	3810.286	-1836.405	1	4229.736	-25.7322	-1.858597E-008	-0.0622446	7
	26	36	2527.573	3974.305	-2112.368	1	4500.8	-27.99092	2.038344E-008	-0.0622635	7
	27	38	1976.103	4174.259	-2463.38	1	4846.925	-30.54638	-1.737324E-008	-0.0622243	7
	28	39	1577.524	4377.028	-2846.904	1	5221.421	-33.04076	4.693877E-009	-0.0622325	7
	29	40	1265.625	4589.27	-3277.445	1	5639.419	-35.53268	-1.764771E-009	-0.0622731	7
	30	42	998.264	4839.196	-3847.92	1	6182.581	-38.49021	-1.050451E-008	-0.06225	7
	31	43	796.875	5082.846	-4494.551	1	6785.006	-41.485	2.425612E-009	-0.0623031	7
	32	44	627.7902	5367.255	-5343.847	1	7573.911	-44.87479	3.62979E-008	-0.0623996	7
	33	46	505.5147	5651.369	-6298.733	1	8462.388	-48.10081	-3.452022E-008	-0.0622307	7
	34	47	397.9953	6000.709	-7594.703	1	9679.26	-51.68711	5.12082E-009	-0.0622705	7
	35	48	315.5048	6402.306	-9154.984	1	11171.54	-55.03396	1.032093E-010	-0.0622195	6
	36	50	252.4038	6858.937	-10998.98	1	12962.35	-58.05244	-2.687384E-010	-0.0622216	6
	37	51	198.6229	7453.559	-13435.47	1	15364.48	-60.97991	1.291409E-010	-0.0622113	6
	38	52	158.3615	8150.908	-16263.94	1	18192.11	-63.3816	-3.452177E-010	-0.0622169	6
	39	54	125.558	9033.382	-19800.5	1	21763.77	-65.47659	-2.650449E-012	-0.0622169	6
	40	55	100.4464	10100.31	-23946.17	1	25989.14	-67.13036	-3.766663E-010	-0.0622227	6
	41	57	79.00281	11525.67	-29345.24	1	31527.51	-68.55703	-2.544256E-012	-0.0622198	6
	42	58	63.3446	13061.46	-35439.05	1	37769.41	-69.76807	-1.144859E-010	-0.0622245	6
	43	59	49.86702	15618.12	-43325.97	1	46055.03	-70.17681	1.723409E-010	-0.0622227	6
	44	61	39.72458	18383.04	-52600.95	1	55720.7	-70.73643	1.313067E-010	-0.0622195	6
	45	62	31.6723	22025.65	-63546.61	1	67255.49	-70.88336	-2.722052E-010	-0.0622184	6
	46	63	24.93351	26927.16	-77469.66	1	82015.97	-70.8334	-4.713251E-010	-0.0622187	6
	47	65	19.86229	32983.25	-93155.62	1	98822.4	-70.50267	-3.267994E-010	-0.0622251	6
	48	66	15.83615	40657.86	-111326.4	1	118518.5	-69.93714	-3.223808E-010	-0.0622174	5
	49	68	12.40079	51334.49	-135179	1	144598	-69.20562	1.09114E-010	-0.0622189	5
	50	69	9.93114	63384.04	-159863.4	1	171970.5	-68.37223	1.071087E-010	-0.062223	5
	51	71	7.944915	78353.66	-188266.9	1	203920.9	-67.40371	-7.133075E-010	-0.0622136	5
	52	72	6.317385	97052.9	-221932.6	1	242225.8	-66.37987	-5.014001E-010	-0.0622168	5
	53	74	5.008013	119886	-261143	1	287347	-65.341	-2.690628E-010	-0.0622287	5
	54	77	3.945707	147863.9	-307113.8	1	340855.7	-64.29091	1.180032E-010	-0.0622164	5
	55	79	3.158693	178719.3	-356015.9	1	398356.5	-63.34344	-1.841995E-010	-0.0622161	5
	56	83	2.504006	216101.8	-413905.6	1	466923.8	-62.43075	1.256259E-010	-0.0622249	5
	57	85	1.998082	256966.1	-477299.7	1	542076.1	-61.7031	-1.724672E-010	-0.0621838	5
	58	88	1.584686	305399.3	-554736.1	1	633246.3	-61.16587	4.113321E-011	-0.0621792	5
	59	92	1.266892	358747.2	-637800.9	1	731771.5	-60.64332	-1.168514E-010	-0.0621917	5
	60	96	0.999041	423193.3	-743728.8	1	855701.4	-60.35945	1.405551E-010	-0.062228	5
