EXPLAIN
TAG	EISPOT
TITLE	LABEL	Potentiostatic EIS	Test &Identifier
DATE	LABEL	2/13/2020	Date
TIME	LABEL	10:35:21	Time
NOTES	NOTES	1	&Notes...
	
PSTAT	PSTAT	REF600-11020	Potentiostat
VDC	POTEN	0.00000E+000	T	DC &Voltage (V)
FREQINIT	QUANT	1.00000E+006	Initial Fre&q. (Hz)
FREQFINAL	QUANT	1.00000E+000	Final Fre&q. (Hz)
PTSPERDEC	QUANT	1.00000E+001	Points/&decade
VAC	QUANT	2.50000E+001	AC &Voltage (mV rms)
AREA	QUANT	5.00000E-004	&Area (cm^2)
CONDIT	TWOPARAM	F	1.50000E+001	0.00000E+000	Conditionin&g	Time(s)	E(V)
DELAY	TWOPARAM	F	1.00000E+002	0.00000E+000	Init. De&lay	Time(s)	Stab.(mV/s)
SPEED	SELECTOR	0	&Optimize for:
ZGUESS	QUANT	1.00000E+003	E&stimated Z (ohms)
OCVCURVE	TABLE	39
	Pt	T	Vf	Vm	Ach	Over
	#	s	V vs. Ref.	V	V	bits
	0	0.258333	6.89107E-002	6.89107E-002	5.61104E-004	...........
	1	0.516667	6.89093E-002	6.88398E-002	5.58804E-004	...........
	2	0.775	6.89028E-002	6.88688E-002	5.60671E-004	...........
	3	1.03333	6.88902E-002	6.88731E-002	5.62038E-004	...........
	4	1.29167	6.88768E-002	6.88454E-002	5.58204E-004	...........
	5	1.55	6.88694E-002	6.89588E-002	5.61271E-004	...........
	6	1.80833	6.88775E-002	6.91639E-002	5.57438E-004	...........
	7	2.06667	6.89123E-002	6.89435E-002	5.55338E-004	...........
	8	2.325	6.89655E-002	6.91083E-002	5.60738E-004	...........
	9	2.58333	6.90117E-002	6.90467E-002	5.60904E-004	...........
	10	2.84167	6.90385E-002	6.90005E-002	5.67471E-004	...........
	11	3.1	6.90468E-002	6.90102E-002	5.60904E-004	...........
	12	3.35833	6.90398E-002	6.89874E-002	5.59571E-004	...........
	13	3.61667	6.90231E-002	6.89254E-002	5.62071E-004	...........
	14	3.875	6.90031E-002	6.90218E-002	5.66338E-004	...........
	15	4.13333	6.89880E-002	6.90540E-002	5.65071E-004	...........
	16	4.39167	6.89862E-002	6.89271E-002	5.64238E-004	...........
	17	4.65	6.89928E-002	6.90300E-002	5.63604E-004	...........
	18	4.90833	6.89981E-002	6.90684E-002	5.62471E-004	...........
	19	5.16667	6.90029E-002	6.89264E-002	5.62971E-004	...........
	20	5.425	6.90076E-002	6.90393E-002	5.60438E-004	...........
	21	5.68333	6.90100E-002	6.91380E-002	5.58838E-004	...........
	22	5.94167	6.90172E-002	6.89438E-002	5.58504E-004	...........
	23	6.2	6.90291E-002	6.90377E-002	5.62004E-004	...........
	24	6.45833	6.90361E-002	6.91718E-002	5.61004E-004	...........
	25	6.71667	6.90418E-002	6.89570E-002	5.61138E-004	...........
	26	6.975	6.90497E-002	6.90201E-002	5.56671E-004	...........
	27	7.23333	6.90516E-002	6.91840E-002	5.54038E-004	...........
	28	7.49167	6.90517E-002	6.89791E-002	5.57938E-004	...........
	29	7.75	6.90555E-002	6.89730E-002	5.57838E-004	...........
	30	8.00833	6.90521E-002	6.90894E-002	5.61604E-004	...........
	31	8.26667	6.90405E-002	6.90477E-002	5.63271E-004	...........
	32	8.525	6.90342E-002	6.89911E-002	5.63071E-004	...........
	33	8.78333	6.90344E-002	6.90496E-002	5.60638E-004	...........
	34	9.04167	6.90342E-002	6.90710E-002	5.58671E-004	...........
	35	9.3	6.90352E-002	6.90214E-002	5.61004E-004	...........
	36	9.5583	6.90392E-002	6.90438E-002	5.53805E-004	...........
	37	9.8167	6.90425E-002	6.90632E-002	5.51271E-004	...........
	38	10.075	6.90442E-002	6.90452E-002	5.58171E-004	...........
EOC	QUANT	0.0690442	Open Circuit (V)
PSTATMODEL	IQUANT	4	Pstat Model
PSTATSECTION	LABEL	REF600-11020	Pstat Section
PSTATSERIALNO	LABEL	11020	Pstat Serial Number
CTRLMODE	IQUANT	1	Control Mode
IESTAB	IQUANT	0	I/E Stability
CASPEED	IQUANT	1	Control Amp Speed
CONVENTION	IQUANT	1	Current Convention
ICHRANGE	IQUANT	2	Ich Range
ICHRANGEMODE	TOGGLE	F	Ich Auto Range
ICHOFFSETENABLE	TOGGLE	T	Ich Offset Enable
ICHOFFSET	QUANT	0	Ich Offset (V)
ICHFILTER	IQUANT	3	Ich Filter
VCHRANGE	IQUANT	2	Vch Range
VCHRANGEMODE	TOGGLE	F	Vch Auto Range
VCHOFFSETENABLE	TOGGLE	T	Vch Offset Enable
VCHOFFSET	QUANT	0	Vch Offset (V)
VCHFILTER	IQUANT	3	Vch Filter
ACHRANGE	IQUANT	2	Ach Range
ACHOFFSETENABLE	TOGGLE	F	Ach Offset Enable
ACHOFFSET	QUANT	0	Ach Offset (V)
ACHFILTER	IQUANT	3	Ach Filter
IERANGELOWERLIMIT	IQUANT	1	I/E Range Lower Limit
IERANGEMODE	TOGGLE	F	I/E AutoRange
IERANGE	IQUANT	8	I/E Range
POSFEEDENABLE	TOGGLE	F	Positive Feedback IR Comp
POSFEEDRESISTANCE	QUANT	0	Positive Feedback Resistance (ohm)
ACHSELECT	IQUANT	0	Ach Select
CABLEID	IQUANT	14	Cable ID
DCCALDATE	LABEL	1/27/2020	DC Calibration Date
ACCALDATE	LABEL	1/27/2020	AC Calibration Date
THERMOSELECT	IQUANT	1	Thermo Select
FRAMEWORKVERSION	QUANT	6.33	Framework Version
INSTRUMENTVERSION	LABEL	3.50	Instrument Version
ZCURVE	TABLE
	Pt	Time	Freq	Zreal	Zimag	Zsig	Zmod	Zphz	Idc	Vdc	IERange
	#	s	Hz	ohm	ohm	V	ohm	°	A	V	#
	0	1	1000078	2055.186	-1293.61	1	2428.418	-32.18783	-1.40727E-006	0.0711751	8
	1	1	794390.6	2232.107	-1299.001	1	2582.577	-30.19778	-4.829299E-007	0.0710124	8
	2	2	630984.4	2382.32	-1322.738	1	2724.901	-29.0404	-1.162794E-006	0.070973	8
	3	2	501234.4	2514.52	-1367.442	1	2862.291	-28.53815	1.143463E-006	0.0704893	8
	4	2	398109.4	2642.27	-1443.024	1	3010.633	-28.6403	5.810115E-007	0.0705123	8
	5	3	316265.6	2751.915	-1557.974	1	3162.328	-29.51601	-2.533256E-006	0.0711746	8
	6	3	251203.1	2881.668	-1724.738	1	3358.382	-30.90139	-3.950103E-007	0.0706136	8
	7	3	199546.9	3014.461	-1946.237	1	3588.15	-32.84764	-2.40884E-006	0.071155	8
	8	3	158578.1	3159.088	-2231.655	1	3867.832	-35.23829	1.745767E-006	0.0703099	8
	9	4	125953.1	3372.029	-2568.266	1	4238.699	-37.29428	2.457031E-007	0.0699047	7
	10	4	100078.1	3589.814	-3015.99	1	4688.6	-40.03537	3.260051E-008	0.0704785	7
	11	4	79453.13	3857.469	-3581.3	1	5263.627	-42.87384	-7.129893E-009	0.0705947	7
	12	5	63140.62	4209.598	-4251.857	1	5983.227	-45.28615	1.030999E-008	0.0705778	7
	13	5	50203.12	4675.708	-5043.826	1	6877.676	-47.16898	1.082389E-008	0.070573	7
	14	5	39890.62	5308.12	-5953.24	1	7976.04	-48.27868	-2.966579E-009	0.0705133	7
	15	6	31640.63	6163.77	-6997.377	1	9324.985	-48.62419	1.791002E-008	0.070495	7
	16	6	25171.88	7290.414	-8077.922	1	10881.31	-47.9334	4.422297E-008	0.0704133	7
	17	6	20015.62	8744.092	-9166.003	1	12667.86	-46.34948	-4.857342E-008	0.0705903	7
	18	6	15890.62	10562.69	-10143.61	1	14644.57	-43.84052	9.699522E-009	0.0705213	7
	19	7	12609.37	12824.46	-10743.71	1	16730.03	-39.95463	-5.142874E-010	0.0704905	6
	20	7	10078.13	15069.69	-11062.98	1	18694.52	-36.28318	1.013192E-008	0.0703683	6
	21	7	8015.625	17397.94	-10896.24	1	20528.42	-32.0587	1.041382E-009	0.0704219	6
	22	8	6328.125	19636.51	-10362.82	1	22203.17	-27.82206	9.771711E-009	0.0703667	6
	23	8	5015.625	21555.3	-9533.16	1	23569.3	-23.85814	-7.436106E-009	0.0706258	6
	24	8	3984.375	23066.4	-8531.306	1	24593.53	-20.29735	-2.937914E-010	0.0705026	6
	25	9	3170.956	24227.85	-7529.043	1	25370.75	-17.26315	-7.547877E-010	0.0704993	6
	26	9	2527.573	25060.54	-6604.428	1	25916.2	-14.76398	4.005166E-010	0.0705783	6
	27	9	1976.103	25721.33	-5786.604	1	26364.21	-12.67891	-8.018251E-010	0.0705835	6
	28	9	1577.524	26169.73	-5213.915	1	26684.07	-11.26776	3.590297E-009	0.0705521	6
	29	10	1265.625	26461.16	-4822.542	1	26897.02	-10.32879	1.923992E-009	0.0704352	6
	30	10	998.264	26864.03	-4628.952	1	27259.92	-9.77665	-4.269103E-009	0.0705642	6
	31	10	796.875	27032.2	-4590.425	1	27419.19	-9.63764	-7.936958E-010	0.0704934	6
	32	11	627.7902	27242.19	-4778.655	1	27658.13	-9.94925	9.012799E-009	0.0703166	6
	33	11	505.5147	27481.91	-5142.598	1	27958.93	-10.59899	3.81921E-010	0.0705707	6
	34	11	397.9953	27706.44	-5760.615	1	28298.97	-11.74537	9.757468E-010	0.0705249	6
	35	12	315.5048	27908.03	-6609.786	1	28680.08	-13.32451	1.363609E-009	0.0705292	6
	36	12	252.4038	28197.66	-7701.337	1	29230.44	-15.27605	1.571725E-009	0.0705224	6
	37	12	198.6229	28540.66	-9210.092	1	29989.92	-17.88493	8.634307E-010	0.0705205	6
	38	12	158.3615	28972.94	-11021.12	1	30998.33	-20.82649	4.837197E-010	0.070523	6
	39	13	125.558	29542.6	-13339.19	1	32414.49	-24.30032	5.671877E-010	0.0705257	6
	40	13	100.4464	30210.59	-16049.46	1	34209.14	-27.97961	1.307486E-009	0.0705208	6
	41	13	79.00281	31300.67	-19748.27	1	37009.81	-32.24871	5.269939E-010	0.0705212	6
	42	14	63.3446	32321.45	-23967.29	1	40238.14	-36.55801	9.835607E-010	0.0705196	6
	43	14	49.86702	34027.31	-29093.79	1	44769.48	-40.53088	9.210552E-010	0.0705173	6
	44	14	39.72458	36229.91	-34996.82	1	50372.45	-44.00818	1.590865E-009	0.070527	6
	45	15	31.6723	39200.07	-42002.02	1	57452.72	-46.97626	-2.485149E-010	0.0705194	6
	46	15	24.93351	43230.32	-50922.92	1	66798.23	-49.67086	4.159912E-010	0.0705206	6
	47	15	19.86229	48090.55	-60827.13	1	77541.22	-51.66974	-1.129325E-009	0.07053	6
	48	16	15.83615	54000.99	-72287.62	1	90230.85	-53.23918	-5.298728E-010	0.0705194	6
	49	16	12.40079	62491.02	-85579.77	1	105967.1	-53.86279	-2.607834E-009	0.0705202	5
	50	16	9.93114	72402.17	-99646.3	1	123172.5	-53.99817	-5.026603E-011	0.0705166	5
	51	16	7.944915	84050.43	-115080.9	1	142506.5	-53.85713	-2.906327E-010	0.070517	5
	52	17	6.317385	97915.7	-132472.2	1	164731.2	-53.53036	-7.414955E-010	0.0705307	5
	53	18	5.008013	114636.4	-151463.7	1	189954.5	-52.87948	-1.246538E-010	0.070522	5
	54	19	3.945707	133671.5	-172475.6	1	218210.7	-52.22372	-2.156215E-010	0.0705088	5
	55	20	3.158693	153865.7	-194012.9	1	247619.9	-51.58315	1.688229E-010	0.0705077	5
	56	22	2.504006	176057.7	-218651.3	1	280721.8	-51.15903	2.722531E-010	0.0705163	5
	57	23	1.998082	199113.1	-245217	1	315875.6	-50.92384	-2.054106E-010	0.0704681	5
	58	25	1.584686	222967.7	-277836.1	1	356240.8	-51.25243	-1.406711E-010	0.070476	5
	59	26	1.266892	246907.8	-313970.5	1	399425.8	-51.81834	3.979887E-012	0.0705127	5
	60	29	0.999041	274327.5	-360988.3	1	453396.3	-52.76754	8.019087E-011	0.0705306	5
