EXPLAIN
TAG	EISPOT
TITLE	LABEL	Potentiostatic EIS	Test &Identifier
DATE	LABEL	3/3/2020	Date
TIME	LABEL	17:11:00	Time
NOTES	NOTES	1	&Notes...
	
PSTAT	PSTAT	REF600-11020	Potentiostat
VDC	POTEN	0.00000E+000	T	DC &Voltage (V)
FREQINIT	QUANT	1.00000E+006	Initial Fre&q. (Hz)
FREQFINAL	QUANT	1.00000E+000	Final Fre&q. (Hz)
PTSPERDEC	QUANT	1.00000E+001	Points/&decade
VAC	QUANT	2.50000E+001	AC &Voltage (mV rms)
AREA	QUANT	1.60000E-004	&Area (cm^2)
CONDIT	TWOPARAM	F	1.50000E+001	0.00000E+000	Conditionin&g	Time(s)	E(V)
DELAY	TWOPARAM	F	1.00000E+002	0.00000E+000	Init. De&lay	Time(s)	Stab.(mV/s)
SPEED	SELECTOR	1	&Optimize for:
ZGUESS	QUANT	1.00000E+004	E&stimated Z (ohms)
OCVCURVE	TABLE	39
	Pt	T	Vf	Vm	Ach	Over
	#	s	V vs. Ref.	V	V	bits
	0	0.258333	1.14630E-001	1.14630E-001	5.85597E-004	...........
	1	0.516667	1.14629E-001	1.14554E-001	5.81030E-004	...........
	2	0.775	1.14622E-001	1.14595E-001	5.81563E-004	...........
	3	1.03333	1.14610E-001	1.14646E-001	5.81930E-004	...........
	4	1.29167	1.14604E-001	1.14663E-001	5.80563E-004	...........
	5	1.55	1.14609E-001	1.14581E-001	5.83163E-004	...........
	6	1.80833	1.14618E-001	1.14519E-001	5.83230E-004	...........
	7	2.06667	1.14611E-001	1.14477E-001	5.79663E-004	...........
	8	2.325	1.14581E-001	1.14468E-001	5.75697E-004	...........
	9	2.58333	1.14540E-001	1.14456E-001	5.79897E-004	...........
	10	2.84167	1.14503E-001	1.14455E-001	5.78830E-004	...........
	11	3.1	1.14476E-001	1.14410E-001	5.76797E-004	...........
	12	3.35833	1.14456E-001	1.14382E-001	5.79563E-004	...........
	13	3.61667	1.14438E-001	1.14380E-001	5.81163E-004	...........
	14	3.875	1.14417E-001	1.14383E-001	5.82697E-004	...........
	15	4.13333	1.14398E-001	1.14360E-001	5.82363E-004	...........
	16	4.39167	1.14385E-001	1.14373E-001	5.80363E-004	...........
	17	4.65	1.14376E-001	1.14356E-001	5.79063E-004	...........
	18	4.90833	1.14370E-001	1.14347E-001	5.76763E-004	...........
	19	5.16667	1.14364E-001	1.14341E-001	5.79497E-004	...........
	20	5.425	1.14357E-001	1.14351E-001	5.76730E-004	...........
	21	5.68333	1.14351E-001	1.14349E-001	5.82830E-004	...........
	22	5.94167	1.14348E-001	1.14316E-001	5.82597E-004	...........
	23	6.2	1.14343E-001	1.14298E-001	5.83330E-004	...........
	24	6.45833	1.14335E-001	1.14298E-001	5.80930E-004	...........
	25	6.71667	1.14322E-001	1.14314E-001	5.85563E-004	...........
	26	6.975	1.14312E-001	1.14313E-001	5.85530E-004	...........
	27	7.23333	1.14307E-001	1.14311E-001	5.82930E-004	...........
	28	7.49167	1.14308E-001	1.14310E-001	5.81097E-004	...........
	29	7.75	1.14309E-001	1.14286E-001	5.79897E-004	...........
	30	8.00833	1.14307E-001	1.14273E-001	5.78763E-004	...........
	31	8.26667	1.14301E-001	1.14265E-001	5.82030E-004	...........
	32	8.525	1.14290E-001	1.14246E-001	5.75430E-004	...........
	33	8.78333	1.14278E-001	1.14281E-001	5.80463E-004	...........
	34	9.04167	1.14269E-001	1.14285E-001	5.76563E-004	...........
	35	9.3	1.14267E-001	1.14263E-001	5.76530E-004	...........
	36	9.5583	1.14268E-001	1.14221E-001	5.80030E-004	...........
	37	9.8167	1.14265E-001	1.14186E-001	5.84230E-004	...........
	38	10.075	1.14251E-001	1.14191E-001	5.81563E-004	...........
EOC	QUANT	0.1142507	Open Circuit (V)
PSTATMODEL	IQUANT	4	Pstat Model
PSTATSECTION	LABEL	REF600-11020	Pstat Section
PSTATSERIALNO	LABEL	11020	Pstat Serial Number
CTRLMODE	IQUANT	1	Control Mode
IESTAB	IQUANT	0	I/E Stability
CASPEED	IQUANT	1	Control Amp Speed
CONVENTION	IQUANT	1	Current Convention
ICHRANGE	IQUANT	2	Ich Range
ICHRANGEMODE	TOGGLE	F	Ich Auto Range
ICHOFFSETENABLE	TOGGLE	T	Ich Offset Enable
ICHOFFSET	QUANT	0	Ich Offset (V)
ICHFILTER	IQUANT	3	Ich Filter
VCHRANGE	IQUANT	2	Vch Range
VCHRANGEMODE	TOGGLE	F	Vch Auto Range
VCHOFFSETENABLE	TOGGLE	T	Vch Offset Enable
VCHOFFSET	QUANT	0	Vch Offset (V)
VCHFILTER	IQUANT	3	Vch Filter
ACHRANGE	IQUANT	2	Ach Range
ACHOFFSETENABLE	TOGGLE	F	Ach Offset Enable
ACHOFFSET	QUANT	0	Ach Offset (V)
ACHFILTER	IQUANT	3	Ach Filter
IERANGELOWERLIMIT	IQUANT	1	I/E Range Lower Limit
IERANGEMODE	TOGGLE	F	I/E AutoRange
IERANGE	IQUANT	7	I/E Range
POSFEEDENABLE	TOGGLE	F	Positive Feedback IR Comp
POSFEEDRESISTANCE	QUANT	0	Positive Feedback Resistance (ohm)
ACHSELECT	IQUANT	0	Ach Select
CABLEID	IQUANT	14	Cable ID
DCCALDATE	LABEL	2/27/2020	DC Calibration Date
ACCALDATE	LABEL	2/27/2020	AC Calibration Date
THERMOSELECT	IQUANT	1	Thermo Select
FRAMEWORKVERSION	QUANT	6.33	Framework Version
INSTRUMENTVERSION	LABEL	3.50	Instrument Version
ZCURVE	TABLE
	Pt	Time	Freq	Zreal	Zimag	Zsig	Zmod	Zphz	Idc	Vdc	IERange
	#	s	Hz	ohm	ohm	V	ohm	°	A	V	#
	0	1	1000078	1909.444	-1444.047	1	2394.002	-37.09896	-1.375113E-006	0.1170566	8
	1	3	794390.6	2177.026	-1459.687	1	2621.093	-33.84169	-3.120143E-007	0.1162356	8
	2	4	630984.4	2437.24	-1435.26	1	2828.447	-30.4933	-1.349761E-006	0.1160886	8
	3	6	501234.4	2682.786	-1405.47	1	3028.644	-27.64935	2.024361E-006	0.1155865	8
	4	7	398109.4	2909.359	-1347.918	1	3206.439	-24.85849	1.583131E-006	0.1155497	8
	5	8	316265.6	3117.992	-1289.972	1	3374.301	-22.4758	-7.080732E-007	0.1159203	8
	6	10	251203.1	3306.605	-1217.152	1	3523.507	-20.20852	-1.02223E-006	0.1160153	8
	7	11	199546.9	3488.88	-1143.903	1	3671.621	-18.15282	-1.376246E-006	0.1162369	8
	8	13	158578.1	3624.155	-1112.506	1	3791.064	-17.06491	-1.166459E-006	0.1159042	8
	9	14	125953.1	3782.552	-1019.712	1	3917.59	-15.08731	3.321006E-007	0.1150196	7
	10	15	100078.1	3895.881	-988.518	1	4019.336	-14.23743	-2.960307E-008	0.1157111	7
	11	17	79453.13	4019.101	-975.594	1	4135.813	-13.64405	6.240163E-008	0.1157543	7
	12	18	63140.62	4135.15	-971.221	1	4247.674	-13.21747	-3.086576E-008	0.1157007	7
	13	19	50203.12	4254.184	-976.688	1	4364.859	-12.93007	-8.294785E-008	0.1158204	7
	14	21	39890.62	4373.621	-993.334	1	4485.005	-12.79592	1.342474E-007	0.115522	7
	15	22	31640.63	4495.285	-1023.733	1	4610.381	-12.82944	-8.072568E-008	0.1158207	7
	16	23	25171.88	4619.796	-1061.402	1	4740.157	-12.93921	2.705622E-008	0.115795	7
	17	25	20015.62	4749.548	-1113.749	1	4878.386	-13.19717	-2.95565E-009	0.1158224	7
	18	26	15890.62	4884.32	-1174.776	1	5023.613	-13.52389	1.070297E-007	0.1156242	7
	19	27	12609.37	5023.916	-1253.205	1	5177.862	-14.00647	1.451395E-008	0.1156532	7
	20	29	10078.13	5175.475	-1334.342	1	5344.718	-14.45717	-3.874014E-008	0.1158277	7
	21	30	8015.625	5328.535	-1432.47	1	5517.722	-15.04707	-9.337569E-008	0.1158203	7
	22	31	6328.125	5494.675	-1558.866	1	5711.525	-15.83889	-3.990059E-009	0.1158212	7
	23	33	5015.625	5660.175	-1702.194	1	5910.587	-16.7377	1.093566E-007	0.1155111	7
	24	34	3984.375	5830.592	-1876.849	1	6125.224	-17.84321	-3.358977E-008	0.1157168	7
	25	36	3170.956	6007.089	-2090.354	1	6360.401	-19.18693	-2.570106E-008	0.1158432	7
	26	37	2527.573	6184.789	-2341.187	1	6613.076	-20.73363	1.925572E-008	0.1156571	7
	27	38	1976.103	6385.637	-2683.482	1	6926.574	-22.79396	-5.263768E-008	0.1158311	7
	28	40	1577.524	6579.056	-3062.255	1	7256.816	-24.95986	1.571759E-008	0.1156603	7
	29	41	1265.625	6766.69	-3532.768	1	7633.383	-27.56826	-6.631407E-008	0.115733	7
	30	42	998.264	6993.133	-4147.322	1	8130.449	-30.67033	1.998388E-008	0.1156535	7
	31	44	796.875	7222.181	-4882.4	1	8717.668	-34.05981	1.093174E-007	0.1156263	7
	32	45	627.7902	7480.515	-5844.256	1	9492.81	-37.99923	6.445591E-008	0.1157296	7
	33	46	505.5147	7746.236	-6920.758	1	10387.54	-41.77872	7.139013E-009	0.1155244	6
	34	48	397.9953	8084.87	-8401.947	1	11660.1	-46.10179	5.286956E-010	0.1157893	6
	35	49	315.5048	8465.259	-10189.66	1	13247.25	-50.28122	1.056107E-009	0.1157867	6
	36	50	252.4038	8898.185	-12307.23	1	15187.02	-54.1329	2.570817E-010	0.1157907	6
	37	52	198.6229	9462.449	-15118.31	1	17835.4	-57.95783	7.534436E-010	0.115785	6
	38	53	158.3615	10116.15	-18399.6	1	20997.19	-61.19788	8.303815E-010	0.1157791	6
	39	54	125.558	10957.18	-22544.86	1	25066.53	-64.07948	7.319969E-010	0.1157831	6
	40	56	100.4464	11965.86	-27432.83	1	29928.95	-66.43378	7.988065E-011	0.1157793	6
	41	57	79.00281	13392.8	-33836.84	1	36390.91	-68.40608	1.009043E-009	0.1157799	6
	42	59	63.3446	14955.71	-40861.14	1	43512.13	-69.89671	8.065651E-010	0.1157788	6
	43	60	49.86702	17462.54	-50899.32	1	53811.54	-71.06393	7.911581E-010	0.1157791	6
	44	61	39.72458	20091.05	-61924.77	1	65102.44	-72.02471	6.145711E-010	0.1157864	6
	45	63	31.6723	23917.32	-75306.76	1	79013.59	-72.38023	6.608327E-010	0.1157855	6
	46	64	24.93351	28869.51	-92604.8	1	97000.5	-72.68515	6.52099E-010	0.1157816	6
	47	65	19.86229	35222.45	-112499.2	1	117884.2	-72.61515	1.422448E-010	0.1157832	5
	48	67	15.83615	43770.65	-135408.2	1	142306.9	-72.08659	4.435021E-010	0.1157858	5
	49	68	12.40079	54691.42	-167026.9	1	175753.1	-71.86945	4.76106E-010	0.1157907	5
	50	70	9.93114	69864.49	-199469.7	1	211350.9	-70.69714	-6.822328E-011	0.1157912	5
	51	71	7.944915	88394.34	-237477	1	253394.7	-69.58359	5.856156E-010	0.1157824	5
	52	73	6.317385	112912.8	-282780.3	1	304489.7	-68.23342	5.44258E-010	0.1157798	5
	53	75	5.008013	145276.5	-335666.3	1	365755.6	-66.59703	1.320224E-010	0.1157879	5
	54	77	3.945707	186334.2	-395502.1	1	437198.3	-64.77332	3.778677E-011	0.115783	5
	55	80	3.158693	234057.4	-456843.6	1	513311.8	-62.8723	7.568619E-011	0.1157748	5
	56	83	2.504006	292408	-526169.7	1	601960.9	-60.93779	2.437593E-010	0.1157928	5
	57	86	1.998082	358435.7	-598315.1	1	697464.8	-59.07522	3.656183E-010	0.1157988	5
	58	89	1.584686	437039.2	-675260.2	1	804350.4	-57.08841	1.629791E-010	0.1157418	5
	59	93	1.266892	518606.7	-757781.7	1	918251.6	-55.61324	2.739841E-010	0.1158005	5
	60	97	0.999041	616406.6	-852853	1	1052291	-54.14217	-1.370993E-010	0.1157484	4
