EXPLAIN
TAG	EISPOT
TITLE	LABEL	Potentiostatic EIS	Test &Identifier
DATE	LABEL	1/10/2020	Date
TIME	LABEL	13:03:38	Time
NOTES	NOTES	5	&Notes...
	
	
	
	
	
PSTAT	PSTAT	REF600-11020	Potentiostat
VDC	POTEN	0.00000E+000	T	DC &Voltage (V)
FREQINIT	QUANT	1.00000E+006	Initial Fre&q. (Hz)
FREQFINAL	QUANT	1.00000E+000	Final Fre&q. (Hz)
PTSPERDEC	QUANT	1.00000E+001	Points/&decade
VAC	QUANT	2.50000E+001	AC &Voltage (mV rms)
AREA	QUANT	1.00000E-001	&Area (cm^2)
CONDIT	TWOPARAM	T	5.00000E+000	0.00000E+000	Conditionin&g	Time(s)	E(V)
DELAY	TWOPARAM	T	5.00000E+000	0.00000E+000	Init. De&lay	Time(s)	Stab.(mV/s)
SPEED	SELECTOR	0	&Optimize for:
ZGUESS	QUANT	5.00000E+002	E&stimated Z (ohms)
OCVCURVE	TABLE	19
	Pt	T	Vf	Vm	Ach	Over
	#	s	V vs. Ref.	V	V	bits
	0	0.258333	2.02342E-003	2.02342E-003	6.55413E-004	...........
	1	0.516667	2.02002E-003	1.84554E-003	6.47346E-004	...........
	2	0.775	1.99934E-003	1.68673E-003	6.53679E-004	...........
	3	1.03333	1.94193E-003	1.55884E-003	6.46180E-004	...........
	4	1.29167	1.84248E-003	1.43699E-003	6.49046E-004	...........
	5	1.55	1.71617E-003	1.32502E-003	6.50113E-004	...........
	6	1.80833	1.58327E-003	1.20920E-003	6.44913E-004	...........
	7	2.06667	1.45596E-003	1.12790E-003	6.50146E-004	...........
	8	2.325	1.33868E-003	1.03769E-003	6.54213E-004	...........
	9	2.58333	1.23250E-003	9.57459E-004	6.48780E-004	...........
	10	2.84167	1.13599E-003	8.54313E-004	6.45746E-004	...........
	11	3.1	1.04525E-003	7.73851E-004	6.49080E-004	...........
	12	3.35833	9.56487E-004	6.93496E-004	6.51413E-004	...........
	13	3.61667	8.69243E-004	6.33540E-004	6.51113E-004	...........
	14	3.875	7.86169E-004	5.72822E-004	6.53080E-004	...........
	15	4.13333	7.10005E-004	5.11031E-004	6.45746E-004	...........
	16	4.39167	6.40898E-004	4.45492E-004	6.54913E-004	...........
	17	4.65	5.76361E-004	3.82025E-004	6.51246E-004	...........
	18	4.90833	5.13593E-004	3.27285E-004	6.53113E-004	...........
EOC	QUANT	0.0005136	Open Circuit (V)
PSTATMODEL	IQUANT	4	Pstat Model
PSTATSECTION	LABEL	REF600-11020	Pstat Section
PSTATSERIALNO	LABEL	11020	Pstat Serial Number
CTRLMODE	IQUANT	1	Control Mode
IESTAB	IQUANT	0	I/E Stability
CASPEED	IQUANT	1	Control Amp Speed
CONVENTION	IQUANT	1	Current Convention
ICHRANGE	IQUANT	2	Ich Range
ICHRANGEMODE	TOGGLE	F	Ich Auto Range
ICHOFFSETENABLE	TOGGLE	T	Ich Offset Enable
ICHOFFSET	QUANT	0	Ich Offset (V)
ICHFILTER	IQUANT	3	Ich Filter
VCHRANGE	IQUANT	2	Vch Range
VCHRANGEMODE	TOGGLE	F	Vch Auto Range
VCHOFFSETENABLE	TOGGLE	T	Vch Offset Enable
VCHOFFSET	QUANT	0	Vch Offset (V)
VCHFILTER	IQUANT	3	Vch Filter
ACHRANGE	IQUANT	2	Ach Range
ACHOFFSETENABLE	TOGGLE	F	Ach Offset Enable
ACHOFFSET	QUANT	0	Ach Offset (V)
ACHFILTER	IQUANT	3	Ach Filter
IERANGELOWERLIMIT	IQUANT	1	I/E Range Lower Limit
IERANGEMODE	TOGGLE	F	I/E AutoRange
IERANGE	IQUANT	6	I/E Range
POSFEEDENABLE	TOGGLE	F	Positive Feedback IR Comp
POSFEEDRESISTANCE	QUANT	0	Positive Feedback Resistance (ohm)
ACHSELECT	IQUANT	0	Ach Select
CABLEID	IQUANT	14	Cable ID
DCCALDATE	LABEL	12/22/2019	DC Calibration Date
ACCALDATE	LABEL	12/22/2019	AC Calibration Date
THERMOSELECT	IQUANT	1	Thermo Select
FRAMEWORKVERSION	QUANT	6.33	Framework Version
INSTRUMENTVERSION	LABEL	3.50	Instrument Version
ZCURVE	TABLE
	Pt	Time	Freq	Zreal	Zimag	Zsig	Zmod	Zphz	Idc	Vdc	IERange
	#	s	Hz	ohm	ohm	V	ohm	°	A	V	#
	0	1	1000078	1978.379	-1189.31	1	2308.342	-31.01234	-2.632139E-008	0.0026922	8
	1	1	794390.6	2175.359	-1171.195	1	2470.604	-28.29765	-3.571885E-007	0.0026561	8
	2	2	630984.4	2353.633	-1150.606	1	2619.825	-26.05234	-4.028108E-007	0.0025254	8
	3	2	501234.4	2521.176	-1128.565	1	2762.243	-24.11494	-3.997175E-007	0.0024122	8
	4	2	398109.4	2690.86	-1112.812	1	2911.886	-22.46767	1.744417E-006	0.0018716	8
	5	3	316265.6	2854.067	-1097.006	1	3057.634	-21.02506	-1.047761E-006	0.0022903	8
	6	3	251203.1	3024.467	-1079.168	1	3211.231	-19.63704	-1.527171E-007	0.0020335	8
	7	3	199546.9	3186.925	-1056.947	1	3357.622	-18.34816	-1.953E-006	0.0024838	8
	8	3	158578.1	3355.284	-1040.048	1	3512.781	-17.22203	-3.679265E-007	0.0022833	8
	9	4	125953.1	3531.777	-980.715	1	3665.412	-15.51908	3.126725E-007	0.0013595	7
	10	4	100078.1	3690.594	-930.4037	1	3806.066	-14.1495	7.825366E-008	0.0019805	7
	11	4	79453.13	3839.594	-881.2444	1	3939.426	-12.92637	-1.507935E-008	0.0021264	7
	12	5	63140.62	3972.642	-821.493	1	4056.69	-11.68338	-1.437924E-008	0.0021285	7
	13	5	50203.12	4087.759	-757.3873	1	4157.332	-10.49683	-1.8297E-008	0.0021282	7
	14	5	39890.62	4184.695	-695.8406	1	4242.153	-9.440893	-3.705578E-008	0.0021249	7
	15	6	31640.63	4266.44	-640.7855	1	4314.292	-8.541528	7.671287E-008	0.001975	7
	16	6	25171.88	4333.408	-596.8	1	4374.311	-7.841487	2.809998E-008	0.0020483	7
	17	6	20015.62	4389.167	-563.8129	1	4425.231	-7.319876	-1.801568E-008	0.0020717	7
	18	7	15890.62	4440.339	-545.2286	1	4473.688	-7.000299	4.59524E-008	0.0019878	7
	19	7	12609.37	4484.17	-542.4573	1	4516.862	-6.897647	9.603699E-009	0.0020304	7
	20	7	10078.13	4525.246	-552.223	1	4558.816	-6.957495	-8.186192E-009	0.0020601	7
	21	8	8015.625	4563.348	-578.8301	1	4599.912	-7.228981	-1.569974E-008	0.0021152	7
	22	8	6328.125	4604.604	-625.0596	1	4646.835	-7.730459	-6.131244E-009	0.0020651	7
	23	8	5015.625	4643.302	-692.3334	1	4694.633	-8.480534	-3.310212E-008	0.0021123	7
	24	9	3984.375	4684.308	-780.3118	1	4748.855	-9.457489	-3.250361E-008	0.0021132	7
	25	9	3170.956	4732.439	-898.9407	1	4817.061	-10.75537	-8.615975E-009	0.0020542	7
	26	9	2527.573	4783.877	-1047.14	1	4897.141	-12.34671	-3.80856E-008	0.0021987	7
	27	10	1976.103	4845.637	-1248.878	1	5003.988	-14.45246	4.59366E-009	0.0021346	7
	28	10	1577.524	4910.95	-1489.604	1	5131.896	-16.87376	-3.869974E-008	0.0021458	7
	29	10	1265.625	4989.191	-1755.6	1	5289.061	-19.38598	-7.795524E-009	0.0020567	7
	30	10	998.264	5087.776	-2121.405	1	5512.333	-22.63424	-1.458039E-009	0.0020912	7
	31	11	796.875	5201.272	-2545.569	1	5790.782	-26.07772	5.22783E-008	0.0019813	7
	32	11	627.7902	5340.551	-3098.292	1	6174.212	-30.11994	-3.355094E-008	0.002108	7
	33	11	505.5147	5496.492	-3711.989	1	6632.517	-34.03265	-3.997908E-008	0.0021368	7
	34	12	397.9953	5708.405	-4534.183	1	7290.041	-38.46009	5.402555E-009	0.0020767	7
	35	12	315.5048	5964.572	-5516.293	1	8124.384	-42.76398	6.502096E-009	0.0020768	7
	36	12	252.4038	6271.803	-6664.992	1	9151.92	-46.74086	5.591245E-009	0.0020733	7
	37	13	198.6229	6690.766	-8168.272	1	10558.74	-50.67853	1.147885E-009	0.0020818	6
	38	13	158.3615	7207.648	-9901.36	1	12246.92	-53.94744	9.211075E-011	0.0020733	6
	39	13	125.558	7888.909	-12043.17	1	14396.97	-56.7731	7.475283E-010	0.0020736	6
	40	14	100.4464	8746.036	-14516.69	1	16947.79	-58.93182	1.617312E-009	0.002071	6
	41	14	79.00281	9934.77	-17713.01	1	20308.87	-60.71306	1.045662E-009	0.0020726	6
	42	14	63.3446	11338.34	-21014.46	1	23878.14	-61.65095	3.863073E-010	0.0020706	6
	43	15	49.86702	13376.58	-25424.73	1	28728.9	-62.25004	-9.015977E-011	0.002068	6
	44	15	39.72458	15770.31	-30377.36	1	34226.98	-62.56406	5.401993E-010	0.0020712	6
	45	15	31.6723	18817.98	-36006.02	1	40626.96	-62.40689	-2.987702E-010	0.0020698	6
	46	16	24.93351	22808.63	-42584.79	1	48308.36	-61.82627	4.516433E-010	0.0020708	6
	47	16	19.86229	27356.08	-49746.06	1	56771.7	-61.19297	-1.687995E-009	0.0020707	6
	48	16	15.83615	32997.54	-57908.79	1	66650.32	-60.32468	3.53767E-009	0.0020753	6
	49	17	12.40079	39709.92	-67531.16	1	78341.15	-59.54347	1.369348E-009	0.0020741	6
	50	17	9.93114	47216.23	-76907.95	1	90245.25	-58.45292	1.877537E-009	0.0020735	6
	51	17	7.944915	55282.71	-87694.29	1	103665.2	-57.77256	1.169073E-009	0.0020699	5
	52	18	6.317385	64536.65	-100336	1	119299.1	-57.25065	1.340619E-009	0.0020621	5
	53	19	5.008013	74875.91	-114829	1	137084.3	-56.89305	5.777661E-010	0.0020704	5
	54	20	3.945707	86362.74	-131880	1	157641.5	-56.78086	1.74339E-010	0.0020765	5
	55	21	3.158693	97802.4	-151418.4	1	180257.7	-57.14126	1.326463E-011	0.0020605	5
	56	23	2.504006	111034.7	-175072.7	1	207314.1	-57.61628	3.16718E-010	0.0020558	5
	57	24	1.998082	124784.9	-202952.7	1	238245.8	-58.41483	3.847296E-010	0.0020937	5
	58	25	1.584686	141009.7	-236867.7	1	275662.9	-59.23424	1.210705E-010	0.0020392	5
	59	27	1.266892	159401.5	-277587.2	1	320099.2	-60.13386	1.103798E-010	0.0020177	5
	60	30	0.999041	181634.1	-329949.2	1	376639.6	-61.16761	9.525073E-011	0.0020235	5
