EXPLAIN
TAG	EISPOT
TITLE	LABEL	Potentiostatic EIS	Test &Identifier
DATE	LABEL	2/13/2020	Date
TIME	LABEL	13:47:22	Time
NOTES	NOTES	1	&Notes...
	
PSTAT	PSTAT	REF600-11020	Potentiostat
VDC	POTEN	0.00000E+000	T	DC &Voltage (V)
FREQINIT	QUANT	1.00000E+006	Initial Fre&q. (Hz)
FREQFINAL	QUANT	1.00000E+000	Final Fre&q. (Hz)
PTSPERDEC	QUANT	1.00000E+001	Points/&decade
VAC	QUANT	2.50000E+001	AC &Voltage (mV rms)
AREA	QUANT	5.00000E-004	&Area (cm^2)
CONDIT	TWOPARAM	F	1.50000E+001	0.00000E+000	Conditionin&g	Time(s)	E(V)
DELAY	TWOPARAM	F	1.00000E+002	0.00000E+000	Init. De&lay	Time(s)	Stab.(mV/s)
SPEED	SELECTOR	0	&Optimize for:
ZGUESS	QUANT	1.00000E+003	E&stimated Z (ohms)
OCVCURVE	TABLE	39
	Pt	T	Vf	Vm	Ach	Over
	#	s	V vs. Ref.	V	V	bits
	0	0.258333	4.93655E-002	4.93655E-002	5.68138E-004	...........
	1	0.516667	4.93682E-002	4.95070E-002	5.69004E-004	...........
	2	0.775	4.93983E-002	5.03454E-002	5.69671E-004	...........
	3	1.03333	4.95138E-002	5.04049E-002	5.68304E-004	...........
	4	1.29167	4.97299E-002	4.96759E-002	5.68571E-004	...........
	5	1.55	4.99417E-002	5.00112E-002	5.61871E-004	...........
	6	1.80833	5.00456E-002	5.05432E-002	5.67071E-004	...........
	7	2.06667	5.00790E-002	4.98913E-002	5.64571E-004	...........
	8	2.325	5.01054E-002	4.98309E-002	5.69171E-004	...........
	9	2.58333	5.01035E-002	5.01953E-002	5.65071E-004	...........
	10	2.84167	5.00693E-002	5.02159E-002	5.66104E-004	...........
	11	3.1	5.00540E-002	4.99032E-002	5.68804E-004	...........
	12	3.35833	5.00642E-002	4.99988E-002	5.66304E-004	...........
	13	3.61667	5.00624E-002	5.01102E-002	5.66871E-004	...........
	14	3.875	5.00440E-002	4.99217E-002	5.68104E-004	...........
	15	4.13333	5.00255E-002	4.99413E-002	5.69871E-004	...........
	16	4.39167	5.00055E-002	4.99599E-002	5.69338E-004	...........
	17	4.65	4.99808E-002	4.99035E-002	5.68138E-004	...........
	18	4.90833	4.99569E-002	4.98854E-002	5.71904E-004	...........
	19	5.16667	4.99351E-002	4.98695E-002	5.69071E-004	...........
	20	5.425	4.99130E-002	4.98422E-002	5.69438E-004	...........
	21	5.68333	4.98903E-002	4.98168E-002	5.74271E-004	...........
	22	5.94167	4.98673E-002	4.97927E-002	5.69504E-004	...........
	23	6.2	4.98435E-002	4.97634E-002	5.71804E-004	...........
	24	6.45833	4.98184E-002	4.97211E-002	5.71504E-004	...........
	25	6.71667	4.97907E-002	4.96822E-002	5.73504E-004	...........
	26	6.975	4.97594E-002	4.96520E-002	5.70838E-004	...........
	27	7.23333	4.97249E-002	4.96202E-002	5.70571E-004	...........
	28	7.49167	4.96897E-002	4.95861E-002	5.73104E-004	...........
	29	7.75	4.96551E-002	4.95458E-002	5.65738E-004	...........
	30	8.00833	4.96212E-002	4.95251E-002	5.69604E-004	...........
	31	8.26667	4.95878E-002	4.94971E-002	5.64771E-004	...........
	32	8.525	4.95559E-002	4.94644E-002	5.71271E-004	...........
	33	8.78333	4.95257E-002	4.94263E-002	5.71504E-004	...........
	34	9.04167	4.94956E-002	4.93966E-002	5.73038E-004	...........
	35	9.3	4.94640E-002	4.93524E-002	5.72938E-004	...........
	36	9.5583	4.94305E-002	4.93278E-002	5.70904E-004	...........
	37	9.8167	4.93956E-002	4.92743E-002	5.72304E-004	...........
	38	10.075	4.93595E-002	4.92402E-002	5.69404E-004	...........
EOC	QUANT	0.0493595	Open Circuit (V)
PSTATMODEL	IQUANT	4	Pstat Model
PSTATSECTION	LABEL	REF600-11020	Pstat Section
PSTATSERIALNO	LABEL	11020	Pstat Serial Number
CTRLMODE	IQUANT	1	Control Mode
IESTAB	IQUANT	0	I/E Stability
CASPEED	IQUANT	1	Control Amp Speed
CONVENTION	IQUANT	1	Current Convention
ICHRANGE	IQUANT	2	Ich Range
ICHRANGEMODE	TOGGLE	F	Ich Auto Range
ICHOFFSETENABLE	TOGGLE	T	Ich Offset Enable
ICHOFFSET	QUANT	0	Ich Offset (V)
ICHFILTER	IQUANT	3	Ich Filter
VCHRANGE	IQUANT	2	Vch Range
VCHRANGEMODE	TOGGLE	F	Vch Auto Range
VCHOFFSETENABLE	TOGGLE	T	Vch Offset Enable
VCHOFFSET	QUANT	0	Vch Offset (V)
VCHFILTER	IQUANT	3	Vch Filter
ACHRANGE	IQUANT	2	Ach Range
ACHOFFSETENABLE	TOGGLE	F	Ach Offset Enable
ACHOFFSET	QUANT	0	Ach Offset (V)
ACHFILTER	IQUANT	3	Ach Filter
IERANGELOWERLIMIT	IQUANT	1	I/E Range Lower Limit
IERANGEMODE	TOGGLE	F	I/E AutoRange
IERANGE	IQUANT	7	I/E Range
POSFEEDENABLE	TOGGLE	F	Positive Feedback IR Comp
POSFEEDRESISTANCE	QUANT	0	Positive Feedback Resistance (ohm)
ACHSELECT	IQUANT	0	Ach Select
CABLEID	IQUANT	14	Cable ID
DCCALDATE	LABEL	1/27/2020	DC Calibration Date
ACCALDATE	LABEL	1/27/2020	AC Calibration Date
THERMOSELECT	IQUANT	1	Thermo Select
FRAMEWORKVERSION	QUANT	6.33	Framework Version
INSTRUMENTVERSION	LABEL	3.50	Instrument Version
ZCURVE	TABLE
	Pt	Time	Freq	Zreal	Zimag	Zsig	Zmod	Zphz	Idc	Vdc	IERange
	#	s	Hz	ohm	ohm	V	ohm	°	A	V	#
	0	1	1000078	1921.026	-1413.553	1	2385.052	-36.34684	8.124277E-007	0.051166	8
	1	1	794390.6	2174.16	-1413.384	1	2593.188	-33.02719	-1.617963E-006	0.0514399	8
	2	2	630984.4	2419.998	-1390.793	1	2791.182	-29.88634	-5.535555E-007	0.0511873	8
	3	2	501234.4	2657.8	-1351.909	1	2981.872	-26.9605	-5.507994E-007	0.051003	8
	4	2	398109.4	2870.476	-1303.32	1	3152.503	-24.42009	-8.268478E-007	0.051059	8
	5	3	316265.6	3075.213	-1236.057	1	3314.328	-21.89726	-7.946945E-007	0.0510392	8
	6	3	251203.1	3262.269	-1172.311	1	3466.513	-19.76613	-1.451453E-006	0.0510866	8
	7	3	199546.9	3416.551	-1129.336	1	3598.363	-18.29124	2.56699E-006	0.0503188	8
	8	4	158578.1	3566.757	-1066.092	1	3722.675	-16.64123	-1.483876E-006	0.0510788	8
	9	4	125953.1	3705.747	-984.586	1	3834.315	-14.87924	1.029816E-006	0.048733	7
	10	4	100078.1	3834.97	-955.936	1	3952.317	-13.99678	-2.535268E-008	0.0508643	7
	11	5	79453.13	3949.349	-947.08	1	4061.32	-13.48526	-2.58465E-008	0.0508626	7
	12	5	63140.62	4062.928	-945.2521	1	4171.438	-13.09704	-4.452558E-008	0.050868	7
	13	5	50203.12	4177.017	-954.922	1	4284.781	-12.87728	-2.251009E-008	0.0508712	7
	14	6	39890.62	4294.24	-973.217	1	4403.141	-12.76942	-1.875024E-008	0.0508285	7
	15	6	31640.63	4414.531	-1003.013	1	4527.043	-12.80069	-2.87297E-008	0.0508384	7
	16	6	25171.88	4538.542	-1043.186	1	4656.888	-12.94463	-2.837187E-008	0.0508381	7
	17	7	20015.62	4668.605	-1091.729	1	4794.554	-13.16181	-2.273202E-008	0.0508654	7
	18	7	15890.62	4805.354	-1151.338	1	4941.357	-13.47378	-1.712969E-008	0.0508275	7
	19	7	12609.37	4945.198	-1219.611	1	5093.371	-13.85412	-3.527903E-008	0.0508407	7
	20	7	10078.13	5084.934	-1295.058	1	5247.259	-14.28862	4.14408E-008	0.0506896	7
	21	8	8015.625	5233.913	-1397.323	1	5417.228	-14.9479	-9.613038E-009	0.0508624	7
	22	8	6328.125	5391.841	-1515.149	1	5600.681	-15.69578	1.344011E-008	0.0507413	7
	23	8	5015.625	5551.665	-1659.723	1	5794.451	-16.64454	-7.165823E-009	0.0508405	7
	24	9	3984.375	5708.887	-1830.51	1	5995.178	-17.77804	-3.11519E-008	0.0508109	7
	25	9	3170.956	5871.059	-2035.269	1	6213.827	-19.11946	-3.109103E-008	0.0508122	7
	26	9	2527.573	6034.443	-2291.911	1	6455.026	-20.79702	7.173438E-008	0.0506748	7
	27	10	1976.103	6214.777	-2633.424	1	6749.695	-22.96411	4.023759E-008	0.0506781	7
	28	10	1577.524	6383.945	-3030.712	1	7066.822	-25.39555	-3.352575E-008	0.0508622	7
	29	10	1265.625	6557.3	-3510.493	1	7437.859	-28.16266	7.83644E-009	0.0508091	7
	30	11	998.264	6754.042	-4156.993	1	7930.806	-31.61156	-3.396535E-008	0.0508572	7
	31	11	796.875	6957.354	-4917.401	1	8519.719	-35.25236	-2.520195E-008	0.0507894	7
	32	11	627.7902	7201.636	-5931.265	1	9329.709	-39.47486	-2.466148E-008	0.050788	7
	33	12	505.5147	7452.487	-7073.026	1	10274.59	-43.50356	-2.357285E-010	0.0508425	6
	34	12	397.9953	7778.88	-8629.131	1	11617.78	-47.96637	1.460007E-009	0.0507988	6
	35	12	315.5048	8157.872	-10508.53	1	13303.38	-52.17746	1.227654E-009	0.0507961	6
	36	13	252.4038	8592.547	-12730.94	1	15359.32	-55.98325	1.491434E-009	0.0507999	6
	37	13	198.6229	9170.021	-15678.62	1	18163.38	-59.67773	8.714387E-010	0.0507967	6
	38	13	158.3615	9847.79	-19118.94	1	21506.12	-62.74789	8.404638E-010	0.0507924	6
	39	14	125.558	10727.86	-23444.23	1	25782.14	-65.41161	1.137922E-009	0.0507952	6
	40	14	100.4464	11763.39	-28534.7	1	30864.32	-67.59617	3.272269E-010	0.0507922	6
	41	14	79.00281	13223.89	-35191.83	1	37594.37	-69.40549	4.861026E-010	0.0507925	6
	42	15	63.3446	15230.84	-43122.81	1	45733.52	-70.54694	1.140459E-009	0.0507902	6
	43	15	49.86702	17510.14	-53110.56	1	55922.6	-71.75301	1.193909E-010	0.0507878	6
	44	15	39.72458	20431.46	-64363.09	1	67528.15	-72.38845	8.269024E-010	0.05079	6
	45	16	31.6723	24082.62	-78163.82	1	81789.7	-72.8757	4.403973E-010	0.0507919	6
	46	16	24.93351	29470.15	-96259.6	1	100669.7	-72.97788	4.720219E-010	0.0507907	6
	47	16	19.86229	36163.13	-116642.2	1	122119.5	-72.77475	1.952902E-010	0.0507936	5
	48	17	15.83615	43648.56	-141279.5	1	147868.5	-72.83137	3.758048E-010	0.0507878	5
	49	17	12.40079	56072.18	-173324.9	1	182169.2	-72.07314	-4.662302E-012	0.0507876	5
	50	17	9.93114	71807.05	-206833.3	1	218943.5	-70.85435	-1.577082E-010	0.0507889	5
	51	18	7.944915	90608.96	-246841.9	1	262946.6	-69.84319	-2.703631E-010	0.0507845	5
	52	18	6.317385	115070.8	-293852.5	1	315579.7	-68.61501	-2.529239E-010	0.0507979	5
	53	19	5.008013	147319.6	-348998.6	1	378818	-67.11436	-2.320508E-010	0.0507772	5
	54	20	3.945707	189408	-412132.4	1	453573	-65.31741	1.797806E-010	0.0507804	5
	55	22	3.158693	237750.3	-477378.7	1	533306.3	-63.52518	6.696532E-011	0.050799	5
	56	23	2.504006	298669	-552192.8	1	627789.8	-61.59202	-8.42964E-011	0.0507882	5
	57	25	1.998082	366960.8	-628071	1	727415.6	-59.70369	9.1599E-011	0.0508077	5
	58	26	1.584686	448837	-714294.3	1	843605.9	-57.85621	1.791211E-010	0.0508279	5
	59	28	1.266892	533875.5	-802540.1	1	963895	-56.36687	1.606887E-010	0.0508016	5
	60	31	0.999041	634114.7	-903698.3	1	1103980	-54.9431	8.864168E-011	0.050722	4
