EXPLAIN
TAG	EISPOT
TITLE	LABEL	Potentiostatic EIS	Test &Identifier
DATE	LABEL	2/11/2020	Date
TIME	LABEL	12:54:38	Time
NOTES	NOTES	6	&Notes...
	
	
	
	
	
	
PSTAT	PSTAT	REF600-11020	Potentiostat
VDC	POTEN	0.00000E+000	T	DC &Voltage (V)
FREQINIT	QUANT	1.00000E+006	Initial Fre&q. (Hz)
FREQFINAL	QUANT	1.00000E+000	Final Fre&q. (Hz)
PTSPERDEC	QUANT	1.00000E+001	Points/&decade
VAC	QUANT	2.50000E+001	AC &Voltage (mV rms)
AREA	QUANT	4.00000E-005	&Area (cm^2)
CONDIT	TWOPARAM	F	5.00000E+000	0.00000E+000	Conditionin&g	Time(s)	E(V)
DELAY	TWOPARAM	F	5.00000E+000	0.00000E+000	Init. De&lay	Time(s)	Stab.(mV/s)
SPEED	SELECTOR	0	&Optimize for:
ZGUESS	QUANT	1.00000E+003	E&stimated Z (ohms)
OCVCURVE	TABLE	39
	Pt	T	Vf	Vm	Ach	Over
	#	s	V vs. Ref.	V	V	bits
	0	0.258333	-4.38376E-002	-4.38376E-002	5.62838E-004	...........
	1	0.516667	-4.38553E-002	-4.47632E-002	5.62204E-004	...........
	2	0.775	-4.39621E-002	-4.55474E-002	5.69071E-004	...........
	3	1.03333	-4.42577E-002	-4.62679E-002	5.72904E-004	...........
	4	1.29167	-4.47714E-002	-4.69034E-002	5.64871E-004	...........
	5	1.55	-4.54283E-002	-4.74381E-002	5.60171E-004	...........
	6	1.80833	-4.61203E-002	-4.79921E-002	5.64738E-004	...........
	7	2.06667	-4.67762E-002	-4.84781E-002	5.71538E-004	...........
	8	2.325	-4.73725E-002	-4.88773E-002	5.67604E-004	...........
	9	2.58333	-4.79098E-002	-4.92827E-002	5.67104E-004	...........
	10	2.84167	-4.83951E-002	-4.97401E-002	5.67304E-004	...........
	11	3.1	-4.88411E-002	-5.00511E-002	5.67104E-004	...........
	12	3.35833	-4.92567E-002	-5.02488E-002	5.62838E-004	...........
	13	3.61667	-4.96368E-002	-5.06922E-002	5.63738E-004	...........
	14	3.875	-4.99816E-002	-5.09773E-002	5.69471E-004	...........
	15	4.13333	-5.03053E-002	-5.11656E-002	5.71571E-004	...........
	16	4.39167	-5.06119E-002	-5.13108E-002	5.69671E-004	...........
	17	4.65	-5.08889E-002	-5.16900E-002	5.68638E-004	...........
	18	4.90833	-5.11374E-002	-5.18625E-002	5.66238E-004	...........
	19	5.16667	-5.13740E-002	-5.19978E-002	5.70571E-004	...........
	20	5.425	-5.16011E-002	-5.21681E-002	5.66238E-004	...........
	21	5.68333	-5.18099E-002	-5.24602E-002	5.72538E-004	...........
	22	5.94167	-5.20050E-002	-5.25976E-002	5.69504E-004	...........
	23	6.2	-5.21986E-002	-5.27392E-002	5.71571E-004	...........
	24	6.45833	-5.23891E-002	-5.28929E-002	5.72738E-004	...........
	25	6.71667	-5.25666E-002	-5.30428E-002	5.73304E-004	...........
	26	6.975	-5.27287E-002	-5.31636E-002	5.74171E-004	...........
	27	7.23333	-5.28788E-002	-5.32909E-002	5.71338E-004	...........
	28	7.49167	-5.30196E-002	-5.34191E-002	5.70971E-004	...........
	29	7.75	-5.31525E-002	-5.35125E-002	5.70671E-004	...........
	30	8.00833	-5.32781E-002	-5.36290E-002	5.73504E-004	...........
	31	8.26667	-5.33966E-002	-5.37367E-002	5.72404E-004	...........
	32	8.525	-5.35094E-002	-5.38383E-002	5.70438E-004	...........
	33	8.78333	-5.36186E-002	-5.39405E-002	5.68638E-004	...........
	34	9.04167	-5.37250E-002	-5.40326E-002	5.69671E-004	...........
	35	9.3	-5.38278E-002	-5.41011E-002	5.70171E-004	...........
	36	9.5583	-5.39250E-002	-5.41889E-002	5.66704E-004	...........
	37	9.8167	-5.40165E-002	-5.43373E-002	5.73538E-004	...........
	38	10.075	-5.41082E-002	-5.44310E-002	5.66071E-004	...........
EOC	QUANT	-0.0541082	Open Circuit (V)
PSTATMODEL	IQUANT	4	Pstat Model
PSTATSECTION	LABEL	REF600-11020	Pstat Section
PSTATSERIALNO	LABEL	11020	Pstat Serial Number
CTRLMODE	IQUANT	1	Control Mode
IESTAB	IQUANT	0	I/E Stability
CASPEED	IQUANT	1	Control Amp Speed
CONVENTION	IQUANT	1	Current Convention
ICHRANGE	IQUANT	2	Ich Range
ICHRANGEMODE	TOGGLE	F	Ich Auto Range
ICHOFFSETENABLE	TOGGLE	T	Ich Offset Enable
ICHOFFSET	QUANT	0	Ich Offset (V)
ICHFILTER	IQUANT	3	Ich Filter
VCHRANGE	IQUANT	2	Vch Range
VCHRANGEMODE	TOGGLE	F	Vch Auto Range
VCHOFFSETENABLE	TOGGLE	T	Vch Offset Enable
VCHOFFSET	QUANT	0	Vch Offset (V)
VCHFILTER	IQUANT	3	Vch Filter
ACHRANGE	IQUANT	2	Ach Range
ACHOFFSETENABLE	TOGGLE	F	Ach Offset Enable
ACHOFFSET	QUANT	0	Ach Offset (V)
ACHFILTER	IQUANT	3	Ach Filter
IERANGELOWERLIMIT	IQUANT	1	I/E Range Lower Limit
IERANGEMODE	TOGGLE	F	I/E AutoRange
IERANGE	IQUANT	8	I/E Range
POSFEEDENABLE	TOGGLE	F	Positive Feedback IR Comp
POSFEEDRESISTANCE	QUANT	0	Positive Feedback Resistance (ohm)
ACHSELECT	IQUANT	0	Ach Select
CABLEID	IQUANT	14	Cable ID
DCCALDATE	LABEL	1/27/2020	DC Calibration Date
ACCALDATE	LABEL	1/27/2020	AC Calibration Date
THERMOSELECT	IQUANT	1	Thermo Select
FRAMEWORKVERSION	QUANT	6.33	Framework Version
INSTRUMENTVERSION	LABEL	3.50	Instrument Version
ZCURVE	TABLE
	Pt	Time	Freq	Zreal	Zimag	Zsig	Zmod	Zphz	Idc	Vdc	IERange
	#	s	Hz	ohm	ohm	V	ohm	°	A	V	#
	0	2	1000078	1853.565	-2769.048	1	3332.166	-56.20216	-1.203205E-006	-0.0515048	8
	1	2	794390.6	2279.179	-3146.572	1	3885.302	-54.08279	2.723907E-006	-0.0527079	8
	2	2	630984.4	2823.721	-3546.289	1	4533.163	-51.47156	-9.59223E-008	-0.0523304	8
	3	3	501234.4	3450.845	-3853.826	1	5173.037	-48.15767	-1.377001E-006	-0.0520114	8
	4	3	398109.4	4123.032	-4143.542	1	5845.369	-45.14215	-1.200948E-006	-0.0520818	8
	5	3	316265.6	4888.093	-4349.888	1	6543.315	-41.66572	-3.406982E-006	-0.0517671	8
	6	3	251203.1	5729.97	-4475.267	1	7270.527	-37.99083	-1.17839E-006	-0.0520328	8
	7	4	199546.9	6687.6	-4796.787	1	8230.016	-35.65058	-1.072878E-006	-0.0520793	8
	8	4	158578.1	7237.697	-4498.52	1	8521.792	-31.86261	-1.142906E-006	-0.0521565	8
	9	5	125953.1	8038.633	-4422.513	1	9174.87	-28.81771	-1.154712E-007	-0.0525138	7
	10	5	100078.1	8728.697	-4345.677	1	9750.64	-26.46692	-6.248904E-009	-0.052434	7
	11	5	79453.13	9365.78	-4266.881	1	10291.94	-24.49316	-1.767749E-008	-0.0524296	7
	12	6	63140.62	9957.18	-4188.481	1	10802.26	-22.81403	7.361275E-008	-0.0525118	7
	13	6	50203.12	10514.13	-4143.509	1	11301.13	-21.50888	1.367096E-007	-0.0526855	7
	14	6	39890.62	11055.77	-4120.33	1	11798.6	-20.43972	-1.867529E-009	-0.0524564	7
	15	7	31640.63	11573.81	-4135.908	1	12290.6	-19.66438	-3.389674E-008	-0.0524576	7
	16	7	25171.88	12078.32	-4189.839	1	12784.39	-19.1311	-4.170998E-008	-0.0524787	7
	17	7	20015.62	12589.45	-4295.499	1	13302.09	-18.83955	-2.769916E-008	-0.0525009	7
	18	8	15890.62	13120.32	-4462.577	1	13858.48	-18.78456	7.232134E-008	-0.0525201	7
	19	8	12609.37	13712.2	-4578.949	1	14456.53	-18.46584	-6.204223E-009	-0.052469	6
	20	8	10078.13	14235.76	-4848.69	1	15038.84	-18.80881	8.604999E-009	-0.0526907	6
	21	8	8015.625	14809.52	-5184.638	1	15690.84	-19.29454	-1.539109E-009	-0.0526003	6
	22	9	6328.125	15440.34	-5606.809	1	16426.82	-19.95734	5.592584E-009	-0.0524879	6
	23	9	5015.625	16104.21	-6101.18	1	17221.21	-20.7495	-2.603611E-009	-0.052551	6
	24	9	3984.375	16815.68	-6670.079	1	18090.25	-21.63616	-8.782052E-009	-0.0523767	6
	25	10	3170.956	17573.85	-7347.525	1	19048	-22.68952	1.656992E-008	-0.0526931	6
	26	10	2527.573	18407.3	-8120.438	1	20118.9	-23.80482	3.218064E-009	-0.0524593	6
	27	10	1976.103	19387.78	-9110.647	1	21421.72	-25.16963	-2.99335E-009	-0.0523608	6
	28	11	1577.524	20393.42	-10114.05	1	22763.69	-26.37895	4.542453E-009	-0.0524441	6
	29	11	1265.625	21485.32	-11337.44	1	24293.14	-27.81985	3.40903E-009	-0.0526075	6
	30	11	998.264	22794.95	-12807.61	1	26146.6	-29.32996	5.8327E-009	-0.0527096	6
	31	12	796.875	24196.64	-14441.43	1	28178.58	-30.83028	4.477129E-009	-0.0524465	6
	32	12	627.7902	25857.47	-16421.23	1	30631.13	-32.41829	-2.754329E-009	-0.0523591	6
	33	12	505.5147	27590.77	-18460.85	1	33197.19	-33.78629	-1.070105E-008	-0.0524131	6
	34	13	397.9953	29741.59	-21060.75	1	36443.34	-35.30325	4.364434E-010	-0.0524997	6
	35	13	315.5048	32115.41	-23949.22	1	40062.02	-36.71276	1.563793E-009	-0.0525018	6
	36	13	252.4038	34680.78	-27137.49	1	44036.35	-38.04296	1.500621E-009	-0.0524991	6
	37	14	198.6229	37818.3	-31034.46	1	48922	-39.37299	7.618529E-010	-0.0525048	6
	38	14	158.3615	41169.75	-35233.02	1	54187.76	-40.55687	3.99784E-010	-0.0525052	6
	39	14	125.558	45054.84	-40165.21	1	60358.78	-41.71617	7.783288E-010	-0.0525035	6
	40	15	100.4464	49303.02	-45755.01	1	67262.98	-42.86245	1.282513E-009	-0.0525008	6
	41	15	79.00281	54003.37	-52461.23	1	75289.73	-44.17013	1.312133E-009	-0.052499	6
	42	15	63.3446	60565.84	-58397.97	1	84134.08	-43.95602	2.312724E-010	-0.0525029	6
	43	16	49.86702	66617.37	-67767.63	1	95028	-45.49041	-1.037626E-010	-0.0525073	6
	44	16	39.72458	71970.92	-77967.36	1	106107.1	-47.29019	7.311874E-011	-0.0525033	5
	45	16	31.6723	79509.45	-89297.09	1	119564.7	-48.31838	-7.45793E-010	-0.0525035	5
	46	17	24.93351	87629.59	-104489.6	1	136370.9	-50.01531	5.478044E-010	-0.0525003	5
	47	17	19.86229	96749.7	-121498.4	1	155313.8	-51.46954	1.289161E-009	-0.0524955	5
	48	17	15.83615	107573.7	-140364.3	1	176845.2	-52.53384	2.42481E-010	-0.0525058	5
	49	17	12.40079	123172.2	-166821.1	1	207366	-53.55973	5.968956E-010	-0.0525065	5
	50	18	9.93114	136429.8	-194984.1	1	237974.6	-55.01964	6.08836E-012	-0.052503	5
	51	18	7.944915	153890.2	-227682.8	1	274812	-55.94535	8.105676E-010	-0.0525102	5
	52	19	6.317385	176946	-265600.8	1	319145.2	-56.32804	4.839225E-010	-0.052514	5
	53	20	5.008013	204595.1	-310412.2	1	371772.7	-56.61082	2.209784E-010	-0.05251	5
	54	21	3.945707	238231.9	-362011.2	1	433366.5	-56.65194	2.155136E-010	-0.0525023	5
	55	22	3.158693	275217.1	-418666.7	1	501025.2	-56.68045	9.17622E-011	-0.0525024	5
	56	24	2.504006	318012	-484006.9	1	579132.4	-56.69347	1.557689E-010	-0.0525127	5
	57	25	1.998082	365514.1	-556971.4	1	666196.4	-56.72499	2.949375E-010	-0.0524679	5
	58	27	1.584686	417306.1	-643775.7	1	767197.2	-57.04802	2.247534E-010	-0.0524997	5
	59	29	1.266892	475392.8	-741220.6	1	880571.6	-57.32532	1.814115E-010	-0.0525358	5
	60	31	0.999041	545851.9	-867383.4	1	1024846	-57.81744	1.190594E-010	-0.052607	4
