EXPLAIN
TAG	EISPOT
TITLE	LABEL	Potentiostatic EIS	Test &Identifier
DATE	LABEL	3/12/2020	Date
TIME	LABEL	12:46:10	Time
NOTES	NOTES	1	&Notes...
	
PSTAT	PSTAT	REF600-11020	Potentiostat
VDC	POTEN	0.00000E+000	T	DC &Voltage (V)
FREQINIT	QUANT	1.00000E+006	Initial Fre&q. (Hz)
FREQFINAL	QUANT	1.00000E+000	Final Fre&q. (Hz)
PTSPERDEC	QUANT	1.00000E+001	Points/&decade
VAC	QUANT	2.50000E+001	AC &Voltage (mV rms)
AREA	QUANT	2.50000E-001	&Area (cm^2)
CONDIT	TWOPARAM	F	5.00000E+000	0.00000E+000	Conditionin&g	Time(s)	E(V)
DELAY	TWOPARAM	T	5.00000E+000	0.00000E+000	Init. De&lay	Time(s)	Stab.(mV/s)
SPEED	SELECTOR	1	&Optimize for:
ZGUESS	QUANT	5.00000E+003	E&stimated Z (ohms)
OCVCURVE	TABLE	19
	Pt	T	Vf	Vm	Ach	Over
	#	s	V vs. Ref.	V	V	bits
	0	0.258333	5.74017E-002	5.74017E-002	5.72230E-004	...........
	1	0.516667	5.74005E-002	5.73433E-002	5.72997E-004	...........
	2	0.775	5.73945E-002	5.73321E-002	5.78563E-004	...........
	3	1.03333	5.73799E-002	5.72968E-002	5.78030E-004	...........
	4	1.29167	5.73568E-002	5.72476E-002	5.76130E-004	...........
	5	1.55	5.73251E-002	5.70972E-002	5.75430E-004	...........
	6	1.80833	5.72799E-002	5.70973E-002	5.72163E-004	...........
	7	2.06667	5.72189E-002	5.69751E-002	5.69030E-004	...........
	8	2.325	5.71473E-002	5.68908E-002	5.74597E-004	...........
	9	2.58333	5.70698E-002	5.68274E-002	5.76230E-004	...........
	10	2.84167	5.69902E-002	5.68059E-002	5.76463E-004	...........
	11	3.1	5.69162E-002	5.67683E-002	5.73663E-004	...........
	12	3.35833	5.68548E-002	5.67117E-002	5.73697E-004	...........
	13	3.61667	5.68056E-002	5.66819E-002	5.75797E-004	...........
	14	3.875	5.67623E-002	5.66172E-002	5.77930E-004	...........
	15	4.13333	5.67195E-002	5.65808E-002	5.80763E-004	...........
	16	4.39167	5.66753E-002	5.65538E-002	5.80397E-004	...........
	17	4.65	5.66315E-002	5.65132E-002	5.75330E-004	...........
	18	4.90833	5.65904E-002	5.64705E-002	5.79430E-004	...........
EOC	QUANT	0.0565904	Open Circuit (V)
PSTATMODEL	IQUANT	4	Pstat Model
PSTATSECTION	LABEL	REF600-11020	Pstat Section
PSTATSERIALNO	LABEL	11020	Pstat Serial Number
CTRLMODE	IQUANT	1	Control Mode
IESTAB	IQUANT	0	I/E Stability
CASPEED	IQUANT	1	Control Amp Speed
CONVENTION	IQUANT	1	Current Convention
ICHRANGE	IQUANT	2	Ich Range
ICHRANGEMODE	TOGGLE	F	Ich Auto Range
ICHOFFSETENABLE	TOGGLE	T	Ich Offset Enable
ICHOFFSET	QUANT	0	Ich Offset (V)
ICHFILTER	IQUANT	3	Ich Filter
VCHRANGE	IQUANT	2	Vch Range
VCHRANGEMODE	TOGGLE	F	Vch Auto Range
VCHOFFSETENABLE	TOGGLE	T	Vch Offset Enable
VCHOFFSET	QUANT	0	Vch Offset (V)
VCHFILTER	IQUANT	3	Vch Filter
ACHRANGE	IQUANT	2	Ach Range
ACHOFFSETENABLE	TOGGLE	F	Ach Offset Enable
ACHOFFSET	QUANT	0	Ach Offset (V)
ACHFILTER	IQUANT	3	Ach Filter
IERANGELOWERLIMIT	IQUANT	1	I/E Range Lower Limit
IERANGEMODE	TOGGLE	F	I/E AutoRange
IERANGE	IQUANT	7	I/E Range
POSFEEDENABLE	TOGGLE	F	Positive Feedback IR Comp
POSFEEDRESISTANCE	QUANT	0	Positive Feedback Resistance (ohm)
ACHSELECT	IQUANT	0	Ach Select
CABLEID	IQUANT	14	Cable ID
DCCALDATE	LABEL	2/27/2020	DC Calibration Date
ACCALDATE	LABEL	2/27/2020	AC Calibration Date
THERMOSELECT	IQUANT	1	Thermo Select
FRAMEWORKVERSION	QUANT	6.33	Framework Version
INSTRUMENTVERSION	LABEL	3.50	Instrument Version
ZCURVE	TABLE
	Pt	Time	Freq	Zreal	Zimag	Zsig	Zmod	Zphz	Idc	Vdc	IERange
	#	s	Hz	ohm	ohm	V	ohm	°	A	V	#
	0	1	1000078	1747.054	-1829.062	1	2529.361	-46.31368	-4.748395E-006	0.0593382	8
	1	2	794390.6	2117.281	-1924.099	1	2860.95	-42.26329	1.505869E-006	0.0584604	8
	2	4	630984.4	2503.451	-1969.839	1	3185.519	-38.19741	1.548579E-006	0.0578176	8
	3	5	501234.4	2903.298	-1953.997	1	3499.606	-33.94161	2.256925E-006	0.057677	8
	4	7	398109.4	3281.371	-1884.907	1	3784.213	-29.8742	-3.763356E-007	0.0581374	8
	5	8	316265.6	3605.441	-1760.311	1	4012.219	-26.02336	-1.400397E-007	0.0581007	8
	6	9	251203.1	3889.904	-1628.592	1	4217.068	-22.71767	7.113089E-007	0.0579231	8
	7	11	199546.9	4135.936	-1482.926	1	4393.749	-19.72513	3.11432E-007	0.0580883	8
	8	12	158578.1	4341.309	-1320.484	1	4537.691	-16.91805	1.222424E-006	0.0578384	8
	9	14	125953.1	4560.184	-1112.573	1	4693.942	-13.71091	-1.045351E-008	0.0578833	7
	10	15	100078.1	4668.763	-998.472	1	4774.337	-12.07156	1.592661E-008	0.0580074	7
	11	17	79453.13	4775.369	-918.9888	1	4862.992	-10.89303	1.219301E-007	0.0578817	7
	12	18	63140.62	4867.069	-855.6693	1	4941.714	-9.97115	-4.098739E-008	0.0581211	7
	13	19	50203.12	4948.362	-810.0609	1	5014.228	-9.297018	-6.176835E-008	0.0581032	7
	14	21	39890.62	5024.632	-782.1979	1	5085.151	-8.848366	-4.104988E-008	0.0581152	7
	15	22	31640.63	5097.119	-773.0601	1	5155.409	-8.624102	-3.766037E-008	0.0580864	7
	16	24	25171.88	5167.579	-783.0179	1	5226.566	-8.616205	-8.653246E-009	0.0581197	7
	17	25	20015.62	5239.643	-810.2457	1	5301.92	-8.790454	4.801073E-008	0.0579141	7
	18	26	15890.62	5312.157	-858.6309	1	5381.102	-9.181599	3.524184E-008	0.0580621	7
	19	28	12609.37	5391.592	-924.199	1	5470.229	-9.72681	-3.927925E-008	0.0580098	7
	20	29	10078.13	5473.177	-1008.105	1	5565.244	-10.43634	1.029627E-008	0.0580029	7
	21	30	8015.625	5566.559	-1121.227	1	5678.356	-11.38824	-5.024011E-008	0.0580632	7
	22	32	6328.125	5668.251	-1265.051	1	5807.704	-12.5812	-3.141568E-008	0.0581274	7
	23	33	5015.625	5782.406	-1438.716	1	5958.702	-13.97201	-3.521463E-008	0.0580707	7
	24	34	3984.375	5906.239	-1646.549	1	6131.458	-15.57747	1.922789E-008	0.0579836	7
	25	36	3170.956	6049.942	-1892.99	1	6339.181	-17.37458	3.679655E-008	0.0580519	7
	26	37	2527.573	6203.568	-2187.167	1	6577.838	-19.42091	5.895612E-008	0.0580344	7
	27	39	1976.103	6394.056	-2570.596	1	6891.438	-21.90156	1.262741E-007	0.0578591	7
	28	40	1577.524	6586.111	-2993.344	1	7234.429	-24.44148	1.270199E-007	0.0578642	7
	29	41	1265.625	6802.502	-3486.002	1	7643.706	-27.13327	-8.014658E-008	0.0581399	7
	30	43	998.264	7059.539	-4129.166	1	8178.454	-30.32361	5.425312E-008	0.0578491	7
	31	44	796.875	7338.462	-4873.523	1	8809.328	-33.58841	6.031757E-008	0.058028	7
	32	45	627.7902	7683.181	-5820.323	1	9638.85	-37.14542	-3.305687E-008	0.0580718	7
	33	47	505.5147	8045.158	-6855.625	1	10569.96	-40.43574	-4.663422E-009	0.0581958	6
	34	48	397.9953	8506.947	-8255.308	1	11854.04	-44.13992	1.559203E-009	0.0580829	6
	35	49	315.5048	9039.845	-9913.76	1	13416.46	-47.63994	2.669404E-010	0.0580765	6
	36	51	252.4038	9654.94	-11844.57	1	15281.08	-50.81527	5.395165E-011	0.0580767	6
	37	52	198.6229	10457.72	-14363.96	1	17767.59	-53.9434	1.061686E-009	0.0580758	6
	38	54	158.3615	11399.63	-17256.78	1	20682.07	-56.5517	1.550807E-010	0.058073	6
	39	55	125.558	12586.71	-20829.97	1	24337.48	-58.85714	9.179603E-010	0.0580734	6
	40	56	100.4464	13983.85	-25001.04	1	28646.12	-60.78036	9.105589E-010	0.0580758	6
	41	58	79.00281	15914.2	-30380.23	1	34296.06	-62.35292	1.858894E-009	0.0580685	6
	42	59	63.3446	17935.15	-35966.75	1	40190.5	-63.49643	3.236947E-010	0.0580741	6
	43	61	49.86702	21865.11	-44016.73	1	49148.3	-63.58433	1.016587E-009	0.0580692	6
	44	62	39.72458	25610.65	-52474.5	1	58390.74	-63.9849	1.959639E-010	0.0580747	6
	45	63	31.6723	30459.76	-62466.5	1	69497.2	-64.00533	1.25154E-009	0.0580757	6
	46	65	24.93351	37515.16	-74554.71	1	83461.32	-63.28893	1.366908E-009	0.0580717	6
	47	66	19.86229	45926.19	-87529.73	1	98846.7	-62.31435	8.826121E-010	0.0580669	6
	48	68	15.83615	55727.16	-101745.8	1	116007.5	-61.29006	9.305932E-010	0.0580747	5
	49	69	12.40079	69524.99	-120617.4	1	139220.3	-60.04046	1.374345E-009	0.0580804	5
	50	71	9.93114	84699.63	-136302.3	1	160475.4	-58.14277	-5.008312E-010	0.0580835	5
	51	72	7.944915	102322.1	-154422.8	1	185246.4	-56.47114	4.911797E-010	0.0580897	5
	52	74	6.317385	121745.3	-175052.2	1	213225.7	-55.18216	-1.339528E-010	0.0580751	5
	53	76	5.008013	144384	-196955.9	1	244209.7	-53.75567	-1.69549E-010	0.0580841	5
	54	78	3.945707	170475.1	-221454.5	1	279470.7	-52.411	-7.760641E-011	0.0580846	5
	55	81	3.158693	196811.6	-245942	1	314995.7	-51.33196	3.11965E-010	0.0580872	5
	56	84	2.504006	226283.8	-274310.7	1	355599.1	-50.48016	-1.161616E-010	0.0580888	5
	57	87	1.998082	255742.6	-304689.3	1	397793.7	-49.9914	2.921595E-010	0.0580386	5
	58	90	1.584686	286924.6	-341733.8	1	446214.9	-49.9827	2.99655E-011	0.0580871	5
	59	94	1.266892	319459.8	-383412.3	1	499058.7	-50.19888	1.316476E-010	0.0580463	5
	60	98	0.999041	354483.7	-436693.2	1	562458.6	-50.93219	2.958567E-010	0.058125	5
