EXPLAIN
TAG	EISPOT
TITLE	LABEL	Potentiostatic EIS	Test &Identifier
DATE	LABEL	2/13/2020	Date
TIME	LABEL	10:46:09	Time
NOTES	NOTES	1	&Notes...
	
PSTAT	PSTAT	REF600-11020	Potentiostat
VDC	POTEN	0.00000E+000	T	DC &Voltage (V)
FREQINIT	QUANT	1.00000E+006	Initial Fre&q. (Hz)
FREQFINAL	QUANT	1.00000E+000	Final Fre&q. (Hz)
PTSPERDEC	QUANT	1.00000E+001	Points/&decade
VAC	QUANT	2.50000E+001	AC &Voltage (mV rms)
AREA	QUANT	5.00000E-004	&Area (cm^2)
CONDIT	TWOPARAM	F	1.50000E+001	0.00000E+000	Conditionin&g	Time(s)	E(V)
DELAY	TWOPARAM	F	1.00000E+002	0.00000E+000	Init. De&lay	Time(s)	Stab.(mV/s)
SPEED	SELECTOR	0	&Optimize for:
ZGUESS	QUANT	1.00000E+003	E&stimated Z (ohms)
OCVCURVE	TABLE	39
	Pt	T	Vf	Vm	Ach	Over
	#	s	V vs. Ref.	V	V	bits
	0	0.258333	3.59116E-002	3.59116E-002	6.52103E-004	...........
	1	0.516667	3.59108E-002	3.58705E-002	6.48303E-004	...........
	2	0.775	3.59061E-002	3.58342E-002	6.48636E-004	...........
	3	1.03333	3.58928E-002	3.58035E-002	6.48370E-004	...........
	4	1.29167	3.58686E-002	3.57149E-002	6.48870E-004	...........
	5	1.55	3.58333E-002	3.56877E-002	6.50036E-004	...........
	6	1.80833	3.57884E-002	3.56346E-002	6.49470E-004	...........
	7	2.06667	3.57388E-002	3.56024E-002	6.50370E-004	...........
	8	2.325	3.57005E-002	3.61009E-002	6.49470E-004	...........
	9	2.58333	3.56931E-002	3.52236E-002	6.47503E-004	...........
	10	2.84167	3.56921E-002	3.54342E-002	6.51603E-004	...........
	11	3.1	3.56543E-002	3.60197E-002	6.48903E-004	...........
	12	3.35833	3.56022E-002	3.50473E-002	6.50870E-004	...........
	13	3.61667	3.55599E-002	3.52078E-002	6.50303E-004	...........
	14	3.875	3.54994E-002	3.58862E-002	6.41570E-004	...........
	15	4.13333	3.54384E-002	3.50917E-002	6.48403E-004	...........
	16	4.39167	3.54070E-002	3.49534E-002	6.51370E-004	...........
	17	4.65	3.53634E-002	3.55108E-002	6.47903E-004	...........
	18	4.90833	3.52998E-002	3.54175E-002	6.46003E-004	...........
	19	5.16667	3.52669E-002	3.47760E-002	6.46770E-004	...........
	20	5.425	3.52504E-002	3.51899E-002	6.49670E-004	...........
	21	5.68333	3.52120E-002	3.56406E-002	6.49770E-004	...........
	22	5.94167	3.51853E-002	3.46731E-002	6.51370E-004	...........
	23	6.2	3.51801E-002	3.50229E-002	6.49936E-004	...........
	24	6.45833	3.51543E-002	3.56164E-002	6.48370E-004	...........
	25	6.71667	3.51244E-002	3.46247E-002	6.44570E-004	...........
	26	6.975	3.51106E-002	3.48865E-002	6.49203E-004	...........
	27	7.23333	3.50823E-002	3.56465E-002	6.47436E-004	...........
	28	7.49167	3.50544E-002	3.45025E-002	6.51170E-004	...........
	29	7.75	3.50443E-002	3.47912E-002	6.48070E-004	...........
	30	8.00833	3.50090E-002	3.52815E-002	6.43003E-004	...........
	31	8.26667	3.49562E-002	3.47205E-002	6.47770E-004	...........
	32	8.525	3.49274E-002	3.46557E-002	6.43436E-004	...........
	33	8.78333	3.48996E-002	3.48838E-002	6.45136E-004	...........
	34	9.04167	3.48545E-002	3.49493E-002	6.49003E-004	...........
	35	9.3	3.48252E-002	3.46831E-002	6.50370E-004	...........
	36	9.5583	3.48206E-002	3.47718E-002	6.51936E-004	...........
	37	9.8167	3.48145E-002	3.48751E-002	6.44903E-004	...........
	38	10.075	3.48021E-002	3.47277E-002	6.43636E-004	...........
EOC	QUANT	0.0348021	Open Circuit (V)
PSTATMODEL	IQUANT	4	Pstat Model
PSTATSECTION	LABEL	REF600-11020	Pstat Section
PSTATSERIALNO	LABEL	11020	Pstat Serial Number
CTRLMODE	IQUANT	1	Control Mode
IESTAB	IQUANT	0	I/E Stability
CASPEED	IQUANT	1	Control Amp Speed
CONVENTION	IQUANT	1	Current Convention
ICHRANGE	IQUANT	2	Ich Range
ICHRANGEMODE	TOGGLE	F	Ich Auto Range
ICHOFFSETENABLE	TOGGLE	T	Ich Offset Enable
ICHOFFSET	QUANT	0	Ich Offset (V)
ICHFILTER	IQUANT	3	Ich Filter
VCHRANGE	IQUANT	2	Vch Range
VCHRANGEMODE	TOGGLE	F	Vch Auto Range
VCHOFFSETENABLE	TOGGLE	T	Vch Offset Enable
VCHOFFSET	QUANT	0	Vch Offset (V)
VCHFILTER	IQUANT	3	Vch Filter
ACHRANGE	IQUANT	2	Ach Range
ACHOFFSETENABLE	TOGGLE	F	Ach Offset Enable
ACHOFFSET	QUANT	0	Ach Offset (V)
ACHFILTER	IQUANT	3	Ach Filter
IERANGELOWERLIMIT	IQUANT	1	I/E Range Lower Limit
IERANGEMODE	TOGGLE	F	I/E AutoRange
IERANGE	IQUANT	7	I/E Range
POSFEEDENABLE	TOGGLE	F	Positive Feedback IR Comp
POSFEEDRESISTANCE	QUANT	0	Positive Feedback Resistance (ohm)
ACHSELECT	IQUANT	0	Ach Select
CABLEID	IQUANT	14	Cable ID
DCCALDATE	LABEL	1/27/2020	DC Calibration Date
ACCALDATE	LABEL	1/27/2020	AC Calibration Date
THERMOSELECT	IQUANT	1	Thermo Select
FRAMEWORKVERSION	QUANT	6.33	Framework Version
INSTRUMENTVERSION	LABEL	3.50	Instrument Version
ZCURVE	TABLE
	Pt	Time	Freq	Zreal	Zimag	Zsig	Zmod	Zphz	Idc	Vdc	IERange
	#	s	Hz	ohm	ohm	V	ohm	°	A	V	#
	0	1	1000078	1704.498	-1946.439	1	2587.264	-48.79134	-3.598121E-006	0.0382252	8
	1	2	794390.6	2081.698	-2086.287	1	2947.212	-45.06309	4.358836E-006	0.0358318	8
	2	2	630984.4	2485.971	-2157.983	1	3291.951	-40.96009	4.088739E-006	0.0356024	8
	3	2	501234.4	2914.835	-2212.069	1	3659.168	-37.19487	1.194875E-007	0.036132	8
	4	3	398109.4	3305.621	-2169.814	1	3954.139	-33.28095	-1.27192E-006	0.0366671	8
	5	3	316265.6	3703.458	-2105.453	1	4260.11	-29.61866	1.818891E-006	0.0360206	8
	6	3	251203.1	4016.405	-2011.381	1	4491.9	-26.60132	-1.57041E-006	0.0366632	8
	7	4	199546.9	4301.952	-1938.366	1	4718.48	-24.25529	2.865374E-007	0.0362772	8
	8	4	158578.1	4567.708	-1843.81	1	4925.809	-21.98206	2.38707E-006	0.0358246	8
	9	4	125953.1	4809.058	-1732.279	1	5111.539	-19.80961	-1.962436E-007	0.0363919	7
	10	5	100078.1	5012.125	-1695.668	1	5291.189	-18.69135	7.337169E-008	0.0361469	7
	11	5	79453.13	5200.231	-1686.659	1	5466.92	-17.97011	4.119231E-008	0.0361467	7
	12	5	63140.62	5383.639	-1711.135	1	5649.031	-17.63233	1.12252E-007	0.0361103	7
	13	6	50203.12	5562.232	-1765.327	1	5835.65	-17.60826	-2.931886E-008	0.0362759	7
	14	6	39890.62	5750.609	-1853.725	1	6042.003	-17.86687	-4.884027E-008	0.0363311	7
	15	6	31640.63	5943.847	-1976.876	1	6263.973	-18.39671	-1.419217E-008	0.0363043	7
	16	6	25171.88	6152.407	-2135.08	1	6512.348	-19.13839	-6.408138E-009	0.0363635	7
	17	7	20015.62	6374.493	-2335.055	1	6788.714	-20.1184	-5.520299E-010	0.0362927	7
	18	7	15890.62	6621.635	-2578.738	1	7106.05	-21.27799	-2.38977E-008	0.0363574	7
	19	7	12609.37	6890.983	-2874.462	1	7466.47	-22.64267	1.16833E-007	0.0360958	7
	20	8	10078.13	7187.678	-3212.818	1	7873.05	-24.08415	-2.350767E-008	0.0362593	7
	21	8	8015.625	7505.427	-3620.793	1	8333.161	-25.75374	-3.740594E-008	0.0362835	7
	22	8	6328.125	7886.806	-4118.692	1	8897.49	-27.57472	3.241778E-008	0.0362217	7
	23	9	5015.625	8326.74	-4670.155	1	9546.99	-29.28643	1.298532E-008	0.0361108	6
	24	9	3984.375	8797.665	-5347.731	1	10295.49	-31.29366	-1.013368E-010	0.0361577	6
	25	9	3170.956	9322.336	-6133.049	1	11158.86	-33.34042	4.459886E-009	0.0362615	6
	26	10	2527.573	9918.01	-7047.51	1	12166.94	-35.39672	5.586759E-009	0.0360696	6
	27	10	1976.103	10666.34	-8219.781	1	13466.09	-37.61886	-4.213674E-009	0.0362548	6
	28	10	1577.524	11451.02	-9458.025	1	14851.94	-39.55518	-8.282776E-009	0.036314	6
	29	11	1265.625	12337.4	-10899.82	1	16462.61	-41.45987	-4.120856E-010	0.0361559	6
	30	11	998.264	13448.46	-12699.68	1	18497.11	-43.35973	3.298522E-009	0.0361666	6
	31	11	796.875	14681.33	-14694.81	1	20772.07	-45.02628	2.837699E-009	0.0362828	6
	32	12	627.7902	16199.4	-17145.5	1	23587.9	-46.62523	-6.142982E-010	0.0361526	6
	33	12	505.5147	17809.91	-19722.78	1	26574.07	-47.91758	1.602672E-008	0.0359731	6
	34	12	397.9953	19888.23	-23022.12	1	30423.01	-49.17709	5.142337E-010	0.036255	6
	35	13	315.5048	22263.5	-26740.02	1	34795	-50.21954	1.0506E-009	0.0362529	6
	36	13	252.4038	24903.16	-30851.26	1	39648.04	-51.0895	3.438342E-010	0.0362487	6
	37	13	198.6229	28194.41	-35957.47	1	45693.16	-51.89986	9.718427E-010	0.0362502	6
	38	13	158.3615	31793.3	-41529.96	1	52302.5	-52.5641	1.09161E-009	0.0362522	6
	39	14	125.558	36093.38	-48133	1	60162.43	-53.13496	9.545679E-010	0.0362533	6
	40	14	100.4464	40938.36	-55516.88	1	68978.79	-53.59479	1.779985E-010	0.0362453	6
	41	14	79.00281	47044.19	-64803.87	1	80079.32	-54.02233	9.845139E-010	0.0362501	6
	42	15	63.3446	52108.48	-73431.2	1	90041.3	-54.63961	9.391752E-010	0.0362512	6
	43	15	49.86702	60705.12	-85692.16	1	105015.5	-54.68589	-1.562458E-010	0.0362438	5
	44	16	39.72458	70133.53	-99898.5	1	122059.1	-54.92931	4.164906E-010	0.0362455	5
	45	16	31.6723	81032.14	-115045.1	1	140718.1	-54.84101	5.991456E-010	0.0362444	5
	46	16	24.93351	92988.62	-132838.7	1	162151.2	-55.00753	-2.175363E-010	0.0362431	5
	47	17	19.86229	106045.4	-152807	1	185998.9	-55.24002	3.067584E-011	0.0362468	5
	48	17	15.83615	121609.6	-177212	1	214925.5	-55.54061	2.6135E-010	0.0362466	5
	49	17	12.40079	140391.3	-206649.2	1	249827.1	-55.80898	-1.972459E-010	0.0362467	5
	50	18	9.93114	157674.9	-235204.2	1	283164.9	-56.16312	-1.249905E-010	0.0362408	5
	51	18	7.944915	178868.3	-271427	1	325063.8	-56.61543	-3.153797E-010	0.0362484	5
	52	19	6.317385	203804.3	-316149	1	376146.8	-57.1923	-1.95165E-010	0.0362628	5
	53	19	5.008013	233853.5	-370145.1	1	437829.7	-57.71576	-1.411356E-010	0.0362492	5
	54	21	3.945707	268880.8	-434920.1	1	511324.1	-58.27438	1.462855E-011	0.0362354	5
	55	22	3.158693	309836.5	-506335.8	1	593611.4	-58.53674	1.271319E-010	0.0362568	5
	56	24	2.504006	361001.8	-593028.9	1	694266.2	-58.66936	2.676075E-011	0.0362469	5
	57	25	1.998082	418982.4	-690878.6	1	807997.2	-58.76534	4.931947E-011	0.0362262	5
	58	26	1.584686	494301.5	-805781.3	1	945313.4	-58.47322	1.263639E-010	0.0362732	5
	59	28	1.266892	581528.2	-936963.6	1	1102758	-58.17412	8.362225E-011	0.0362224	4
	60	31	0.999041	689113.2	-1092384	1	1291581	-57.75487	9.448529E-011	0.0362097	4
