EXPLAIN
TAG	EISPOT
TITLE	LABEL	Potentiostatic EIS	Test &Identifier
DATE	LABEL	2/28/2020	Date
TIME	LABEL	15:28:20	Time
NOTES	NOTES	1	&Notes...
	
PSTAT	PSTAT	REF600-11020	Potentiostat
VDC	POTEN	0.00000E+000	T	DC &Voltage (V)
FREQINIT	QUANT	1.00000E+006	Initial Fre&q. (Hz)
FREQFINAL	QUANT	1.00000E+000	Final Fre&q. (Hz)
PTSPERDEC	QUANT	1.00000E+001	Points/&decade
VAC	QUANT	2.50000E+001	AC &Voltage (mV rms)
AREA	QUANT	1.60000E-004	&Area (cm^2)
CONDIT	TWOPARAM	F	1.50000E+001	0.00000E+000	Conditionin&g	Time(s)	E(V)
DELAY	TWOPARAM	F	1.00000E+002	0.00000E+000	Init. De&lay	Time(s)	Stab.(mV/s)
SPEED	SELECTOR	1	&Optimize for:
ZGUESS	QUANT	1.00000E+003	E&stimated Z (ohms)
OCVCURVE	TABLE	39
	Pt	T	Vf	Vm	Ach	Over
	#	s	V vs. Ref.	V	V	bits
	0	0.258333	-7.27309E-002	-7.27309E-002	5.87196E-004	...........
	1	0.516667	-7.27299E-002	-7.26760E-002	5.83763E-004	...........
	2	0.775	-7.27227E-002	-7.25833E-002	5.85363E-004	...........
	3	1.03333	-7.26995E-002	-7.24860E-002	5.86663E-004	...........
	4	1.29167	-7.26514E-002	-7.23429E-002	5.84997E-004	...........
	5	1.55	-7.25761E-002	-7.22552E-002	5.87263E-004	...........
	6	1.80833	-7.24798E-002	-7.21716E-002	5.91063E-004	...........
	7	2.06667	-7.23749E-002	-7.20641E-002	5.89796E-004	...........
	8	2.325	-7.22710E-002	-7.19491E-002	5.87830E-004	...........
	9	2.58333	-7.21691E-002	-7.18470E-002	5.84830E-004	...........
	10	2.84167	-7.20664E-002	-7.17530E-002	5.88897E-004	...........
	11	3.1	-7.19626E-002	-7.16457E-002	5.88730E-004	...........
	12	3.35833	-7.18597E-002	-7.15622E-002	5.84063E-004	...........
	13	3.61667	-7.17590E-002	-7.14659E-002	5.85230E-004	...........
	14	3.875	-7.16614E-002	-7.13695E-002	5.90796E-004	...........
	15	4.13333	-7.15661E-002	-7.12676E-002	5.82997E-004	...........
	16	4.39167	-7.14709E-002	-7.11716E-002	5.86296E-004	...........
	17	4.65	-7.13744E-002	-7.10658E-002	5.89463E-004	...........
	18	4.90833	-7.12762E-002	-7.09713E-002	5.86863E-004	...........
	19	5.16667	-7.11770E-002	-7.08773E-002	5.89063E-004	...........
	20	5.425	-7.10780E-002	-7.07760E-002	5.81497E-004	...........
	21	5.68333	-7.09797E-002	-7.06759E-002	5.84197E-004	...........
	22	5.94167	-7.08817E-002	-7.05750E-002	5.78530E-004	...........
	23	6.2	-7.07830E-002	-7.04793E-002	5.77863E-004	...........
	24	6.45833	-7.06840E-002	-7.03866E-002	5.81363E-004	...........
	25	6.71667	-7.05855E-002	-7.02849E-002	5.86130E-004	...........
	26	6.975	-7.04880E-002	-7.01897E-002	5.84230E-004	...........
	27	7.23333	-7.03910E-002	-7.00942E-002	5.81063E-004	...........
	28	7.49167	-7.02942E-002	-6.99953E-002	5.81563E-004	...........
	29	7.75	-7.01975E-002	-6.99069E-002	5.84397E-004	...........
	30	8.00833	-7.01015E-002	-6.98129E-002	5.85996E-004	...........
	31	8.26667	-7.00066E-002	-6.97194E-002	5.87130E-004	...........
	32	8.525	-6.99128E-002	-6.96241E-002	5.88663E-004	...........
	33	8.78333	-6.98195E-002	-6.95309E-002	5.86596E-004	...........
	34	9.04167	-6.97259E-002	-6.94355E-002	5.82397E-004	...........
	35	9.3	-6.96320E-002	-6.93491E-002	5.83697E-004	...........
	36	9.5583	-6.95385E-002	-6.92542E-002	5.86197E-004	...........
	37	9.8167	-6.94456E-002	-6.91487E-002	5.85763E-004	...........
	38	10.075	-6.93518E-002	-6.90395E-002	5.89130E-004	...........
EOC	QUANT	-0.0693518	Open Circuit (V)
PSTATMODEL	IQUANT	4	Pstat Model
PSTATSECTION	LABEL	REF600-11020	Pstat Section
PSTATSERIALNO	LABEL	11020	Pstat Serial Number
CTRLMODE	IQUANT	1	Control Mode
IESTAB	IQUANT	0	I/E Stability
CASPEED	IQUANT	1	Control Amp Speed
CONVENTION	IQUANT	1	Current Convention
ICHRANGE	IQUANT	2	Ich Range
ICHRANGEMODE	TOGGLE	F	Ich Auto Range
ICHOFFSETENABLE	TOGGLE	T	Ich Offset Enable
ICHOFFSET	QUANT	0	Ich Offset (V)
ICHFILTER	IQUANT	3	Ich Filter
VCHRANGE	IQUANT	2	Vch Range
VCHRANGEMODE	TOGGLE	F	Vch Auto Range
VCHOFFSETENABLE	TOGGLE	T	Vch Offset Enable
VCHOFFSET	QUANT	0	Vch Offset (V)
VCHFILTER	IQUANT	3	Vch Filter
ACHRANGE	IQUANT	2	Ach Range
ACHOFFSETENABLE	TOGGLE	F	Ach Offset Enable
ACHOFFSET	QUANT	0	Ach Offset (V)
ACHFILTER	IQUANT	3	Ach Filter
IERANGELOWERLIMIT	IQUANT	1	I/E Range Lower Limit
IERANGEMODE	TOGGLE	F	I/E AutoRange
IERANGE	IQUANT	8	I/E Range
POSFEEDENABLE	TOGGLE	F	Positive Feedback IR Comp
POSFEEDRESISTANCE	QUANT	0	Positive Feedback Resistance (ohm)
ACHSELECT	IQUANT	0	Ach Select
CABLEID	IQUANT	14	Cable ID
DCCALDATE	LABEL	2/27/2020	DC Calibration Date
ACCALDATE	LABEL	2/27/2020	AC Calibration Date
THERMOSELECT	IQUANT	1	Thermo Select
FRAMEWORKVERSION	QUANT	6.33	Framework Version
INSTRUMENTVERSION	LABEL	3.50	Instrument Version
ZCURVE	TABLE
	Pt	Time	Freq	Zreal	Zimag	Zsig	Zmod	Zphz	Idc	Vdc	IERange
	#	s	Hz	ohm	ohm	V	ohm	°	A	V	#
	0	1	1000078	1713.125	-2187.926	1	2778.816	-51.9394	-1.358339E-006	-0.0669082	8
	1	3	794390.6	2051.889	-2471.837	1	3212.511	-50.3037	1.638418E-006	-0.067605	8
	2	4	630984.4	2433.144	-2737.45	1	3662.489	-48.36816	1.96627E-006	-0.0679157	8
	3	5	501234.4	2898.817	-3009.832	1	4178.783	-46.07638	1.955504E-006	-0.0679941	8
	4	7	398109.4	3414.485	-3276.612	1	4732.324	-43.81956	-2.232987E-006	-0.0672466	8
	5	8	316265.6	4036.899	-3506.951	1	5347.454	-40.98163	4.352355E-008	-0.0676316	8
	6	9	251203.1	4714.673	-3621.917	1	5945.286	-37.53227	6.445738E-007	-0.0676418	8
	7	11	199546.9	5444.613	-3671.21	1	6566.704	-33.99112	-5.894026E-007	-0.0675976	8
	8	13	158578.1	6140.111	-3627.857	1	7131.781	-30.57652	-1.214734E-007	-0.0676465	8
	9	14	125953.1	6898.64	-3399.213	1	7690.636	-26.23116	5.01757E-007	-0.0687986	7
	10	16	100078.1	7474.834	-3150.441	1	8111.623	-22.85411	-4.963868E-008	-0.0676615	7
	11	17	79453.13	7978.086	-2913.048	1	8493.274	-20.05872	-4.815067E-008	-0.0677228	7
	12	19	63140.62	8405.991	-2638.838	1	8810.457	-17.4283	5.622129E-008	-0.0678778	7
	13	20	50203.12	8754.22	-2374.39	1	9070.507	-15.17513	-6.86027E-009	-0.0676782	7
	14	22	39890.62	9038.024	-2138.395	1	9287.552	-13.31139	-4.702544E-008	-0.0677329	7
	15	23	31640.63	9278.752	-1932.396	1	9477.837	-11.76428	-2.917098E-008	-0.067692	7
	16	25	25171.88	9474.962	-1763.285	1	9637.64	-10.54212	3.328137E-008	-0.0678444	7
	17	26	20015.62	9649.06	-1635.788	1	9786.73	-9.62177	5.701585E-008	-0.067884	7
	18	28	15890.62	9801.15	-1540.094	1	9921.41	-8.930091	1.097182E-007	-0.0679453	7
	19	30	12609.37	9981.89	-1369.07	1	10075.34	-7.809699	5.201963E-009	-0.067722	6
	20	31	10078.13	10104.16	-1372.855	1	10197	-7.737415	-6.428232E-010	-0.0678043	6
	21	33	8015.625	10215.07	-1405.522	1	10311.31	-7.834309	-4.558549E-009	-0.0676325	6
	22	34	6328.125	10329.74	-1476.947	1	10434.8	-8.136999	1.090971E-009	-0.067649	6
	23	36	5015.625	10449.73	-1591.142	1	10570.18	-8.657712	-1.331914E-009	-0.0677985	6
	24	37	3984.375	10569.45	-1745.829	1	10712.67	-9.379252	-6.433268E-009	-0.0677406	6
	25	39	3170.956	10682.91	-1955.132	1	10860.34	-10.37121	1.129228E-008	-0.0679835	6
	26	41	2527.573	10812.83	-2222.721	1	11038.92	-11.61609	-7.308774E-009	-0.0676127	6
	27	42	1976.103	10961.84	-2597.221	1	11265.33	-13.32946	2.763853E-009	-0.0678595	6
	28	44	1577.524	11099.14	-3026.177	1	11504.28	-15.25099	-3.510773E-009	-0.0677363	6
	29	45	1265.625	11262.03	-3555.633	1	11809.99	-17.52188	9.150915E-009	-0.0678211	6
	30	47	998.264	11468.94	-4250.843	1	12231.36	-20.3367	-6.014362E-009	-0.0676744	6
	31	48	796.875	11689.84	-5071.091	1	12742.38	-23.45136	-5.207093E-009	-0.0676991	6
	32	50	627.7902	11965.1	-6150.874	1	13453.51	-27.20625	3.090613E-009	-0.0678684	6
	33	51	505.5147	12264.7	-7349.617	1	14298.24	-30.93213	-4.296038E-009	-0.0676191	6
	34	52	397.9953	12666.84	-8966.793	1	15519.42	-35.29449	-5.832967E-010	-0.0677153	6
	35	54	315.5048	13149.31	-10900.05	1	17079.68	-39.65684	-5.347292E-010	-0.0677234	6
	36	55	252.4038	13730.11	-13160.76	1	19018.98	-43.78708	-4.199448E-010	-0.0677205	6
	37	57	198.6229	14510.48	-16121.72	1	21690.18	-48.01096	-6.715407E-011	-0.0677226	6
	38	58	158.3615	15450.5	-19530.87	1	24903.27	-51.65315	-4.019005E-010	-0.0677232	6
	39	59	125.558	16667.68	-23763.59	1	29026.19	-54.95435	-5.784101E-011	-0.0677195	6
	40	61	100.4464	18174.07	-28646.95	1	33925.57	-57.60833	2.84811E-010	-0.067722	6
	41	62	79.00281	20186.09	-34939.73	1	40351.74	-59.98324	-3.273251E-010	-0.0677201	6
	42	63	63.3446	22413.33	-41693.25	1	47335.87	-61.73854	2.834059E-011	-0.0677234	6
	43	65	49.86702	26035.33	-51055.13	1	57310.25	-62.9809	-5.027582E-010	-0.0677232	6
	44	66	39.72458	29704.5	-61280.58	1	68100.41	-64.13917	1.000545E-010	-0.0677194	6
	45	68	31.6723	34295.54	-73170.29	1	80808.88	-64.88712	3.805946E-010	-0.0677159	6
	46	69	24.93351	40834.18	-88365.29	1	97344	-65.19804	1.04061E-010	-0.0677155	6
	47	70	19.86229	48399.75	-105242.2	1	115838	-65.3028	-1.497968E-010	-0.067705	5
	48	72	15.83615	59252.28	-126373.8	1	139574.9	-64.87975	5.494277E-009	-0.06771	5
	49	73	12.40079	69808.14	-150423.8	1	165832.8	-65.10509	-6.651605E-010	-0.0677102	5
	50	75	9.93114	83196.45	-176007.4	1	194679.9	-64.7005	-6.953174E-010	-0.0677066	5
	51	76	7.944915	99568.2	-206613.7	1	229353.5	-64.27036	4.058121E-010	-0.0677026	5
	52	78	6.317385	119776.3	-243524.2	1	271386.1	-63.80994	-2.585843E-010	-0.0676932	5
	53	80	5.008013	144843	-286989.1	1	321468.8	-63.21998	-7.42678E-011	-0.0677181	5
	54	83	3.945707	176546.9	-338558.9	1	381825.8	-62.4595	3.155785E-010	-0.0677063	5
	55	85	3.158693	212968.4	-393449.9	1	447390.6	-61.574	-1.308863E-010	-0.0677237	5
	56	88	2.504006	259394.9	-457563.8	1	525975.6	-60.45091	3.638848E-010	-0.0677225	5
	57	91	1.998082	313287.1	-528005.7	1	613953.4	-59.31763	5.173355E-011	-0.0676741	5
	58	94	1.584686	378342.3	-604941.8	1	713510.6	-57.97734	2.176273E-010	-0.0677242	5
	59	98	1.266892	454129.7	-688033.4	1	824393	-56.57359	1.127562E-010	-0.0676754	5
	60	102	0.999041	543971.1	-781172.1	1	951911	-55.14848	1.059805E-011	-0.0677542	5
