EXPLAIN
TAG	EISPOT
TITLE	LABEL	Potentiostatic EIS	Test &Identifier
DATE	LABEL	2/6/2020	Date
TIME	LABEL	17:28:28	Time
NOTES	NOTES	6	&Notes...
	
	
	
	
	
	
PSTAT	PSTAT	REF600-11020	Potentiostat
VDC	POTEN	0.00000E+000	T	DC &Voltage (V)
FREQINIT	QUANT	1.00000E+006	Initial Fre&q. (Hz)
FREQFINAL	QUANT	1.00000E+000	Final Fre&q. (Hz)
PTSPERDEC	QUANT	1.00000E+001	Points/&decade
VAC	QUANT	2.50000E+001	AC &Voltage (mV rms)
AREA	QUANT	1.60000E-004	&Area (cm^2)
CONDIT	TWOPARAM	F	5.00000E+000	0.00000E+000	Conditionin&g	Time(s)	E(V)
DELAY	TWOPARAM	F	5.00000E+000	0.00000E+000	Init. De&lay	Time(s)	Stab.(mV/s)
SPEED	SELECTOR	0	&Optimize for:
ZGUESS	QUANT	1.00000E+003	E&stimated Z (ohms)
OCVCURVE	TABLE	39
	Pt	T	Vf	Vm	Ach	Over
	#	s	V vs. Ref.	V	V	bits
	0	0.258333	3.53365E-002	3.53365E-002	5.72138E-004	...........
	1	0.516667	3.53450E-002	3.57779E-002	5.73138E-004	...........
	2	0.775	3.53836E-002	3.55083E-002	5.76771E-004	...........
	3	1.03333	3.54526E-002	3.54281E-002	5.77204E-004	...........
	4	1.29167	3.55122E-002	3.56540E-002	5.71604E-004	...........
	5	1.55	3.55392E-002	3.55762E-002	5.73204E-004	...........
	6	1.80833	3.55518E-002	3.55392E-002	5.69471E-004	...........
	7	2.06667	3.55616E-002	3.55009E-002	5.71904E-004	...........
	8	2.325	3.55590E-002	3.54705E-002	5.70804E-004	...........
	9	2.58333	3.55396E-002	3.54401E-002	5.73271E-004	...........
	10	2.84167	3.55096E-002	3.54121E-002	5.75804E-004	...........
	11	3.1	3.54760E-002	3.53466E-002	5.73504E-004	...........
	12	3.35833	3.54415E-002	3.53790E-002	5.71304E-004	...........
	13	3.61667	3.54079E-002	3.52783E-002	5.68371E-004	...........
	14	3.875	3.53753E-002	3.52719E-002	5.73238E-004	...........
	15	4.13333	3.53420E-002	3.52587E-002	5.74104E-004	...........
	16	4.39167	3.53092E-002	3.52383E-002	5.71338E-004	...........
	17	4.65	3.52806E-002	3.52018E-002	5.69504E-004	...........
	18	4.90833	3.52560E-002	3.51734E-002	5.71438E-004	...........
	19	5.16667	3.52315E-002	3.51451E-002	5.71938E-004	...........
	20	5.425	3.52049E-002	3.51199E-002	5.65838E-004	...........
	21	5.68333	3.51770E-002	3.50914E-002	5.65804E-004	...........
	22	5.94167	3.51489E-002	3.50640E-002	5.67938E-004	...........
	23	6.2	3.51211E-002	3.50352E-002	5.68238E-004	...........
	24	6.45833	3.50935E-002	3.50064E-002	5.70038E-004	...........
	25	6.71667	3.50656E-002	3.49784E-002	5.70438E-004	...........
	26	6.975	3.50374E-002	3.49540E-002	5.72471E-004	...........
	27	7.23333	3.50095E-002	3.49268E-002	5.76804E-004	...........
	28	7.49167	3.49821E-002	3.49002E-002	5.73304E-004	...........
	29	7.75	3.49555E-002	3.48848E-002	5.71138E-004	...........
	30	8.00833	3.49303E-002	3.48671E-002	5.76738E-004	...........
	31	8.26667	3.49067E-002	3.48214E-002	5.71171E-004	...........
	32	8.525	3.48832E-002	3.47888E-002	5.71704E-004	...........
	33	8.78333	3.48568E-002	3.47637E-002	5.70471E-004	...........
	34	9.04167	3.48267E-002	3.47169E-002	5.68738E-004	...........
	35	9.3	3.47953E-002	3.47552E-002	5.67171E-004	...........
	36	9.5583	3.47668E-002	3.46694E-002	5.69804E-004	...........
	37	9.8167	3.47419E-002	3.46463E-002	5.70471E-004	...........
	38	10.075	3.47157E-002	3.46169E-002	5.76038E-004	...........
EOC	QUANT	0.0347157	Open Circuit (V)
PSTATMODEL	IQUANT	4	Pstat Model
PSTATSECTION	LABEL	REF600-11020	Pstat Section
PSTATSERIALNO	LABEL	11020	Pstat Serial Number
CTRLMODE	IQUANT	1	Control Mode
IESTAB	IQUANT	0	I/E Stability
CASPEED	IQUANT	1	Control Amp Speed
CONVENTION	IQUANT	1	Current Convention
ICHRANGE	IQUANT	2	Ich Range
ICHRANGEMODE	TOGGLE	F	Ich Auto Range
ICHOFFSETENABLE	TOGGLE	T	Ich Offset Enable
ICHOFFSET	QUANT	0	Ich Offset (V)
ICHFILTER	IQUANT	3	Ich Filter
VCHRANGE	IQUANT	2	Vch Range
VCHRANGEMODE	TOGGLE	F	Vch Auto Range
VCHOFFSETENABLE	TOGGLE	T	Vch Offset Enable
VCHOFFSET	QUANT	0	Vch Offset (V)
VCHFILTER	IQUANT	3	Vch Filter
ACHRANGE	IQUANT	2	Ach Range
ACHOFFSETENABLE	TOGGLE	F	Ach Offset Enable
ACHOFFSET	QUANT	0	Ach Offset (V)
ACHFILTER	IQUANT	3	Ach Filter
IERANGELOWERLIMIT	IQUANT	1	I/E Range Lower Limit
IERANGEMODE	TOGGLE	F	I/E AutoRange
IERANGE	IQUANT	7	I/E Range
POSFEEDENABLE	TOGGLE	F	Positive Feedback IR Comp
POSFEEDRESISTANCE	QUANT	0	Positive Feedback Resistance (ohm)
ACHSELECT	IQUANT	0	Ach Select
CABLEID	IQUANT	14	Cable ID
DCCALDATE	LABEL	1/27/2020	DC Calibration Date
ACCALDATE	LABEL	1/27/2020	AC Calibration Date
THERMOSELECT	IQUANT	1	Thermo Select
FRAMEWORKVERSION	QUANT	6.33	Framework Version
INSTRUMENTVERSION	LABEL	3.50	Instrument Version
ZCURVE	TABLE
	Pt	Time	Freq	Zreal	Zimag	Zsig	Zmod	Zphz	Idc	Vdc	IERange
	#	s	Hz	ohm	ohm	V	ohm	°	A	V	#
	0	1	1000078	2381.273	-1926.154	1	3062.765	-38.96856	-5.034647E-006	0.0381218	8
	1	1	794390.6	2759.139	-1938.204	1	3371.866	-35.08677	6.038252E-006	0.0358753	8
	2	1	630984.4	3133.875	-1869.613	1	3649.195	-30.81954	-4.431099E-006	0.0370761	8
	3	2	501234.4	3491.347	-1783.19	1	3920.366	-27.05547	-4.764534E-007	0.0365609	8
	4	2	398109.4	3806.277	-1633.785	1	4142.101	-23.23067	4.359333E-006	0.0356652	8
	5	2	316265.6	4055.551	-1508.113	1	4326.881	-20.39835	-7.05091E-007	0.0363897	8
	6	3	251203.1	4283.6	-1324.536	1	4483.706	-17.18219	-2.849908E-006	0.0368537	8
	7	3	199546.9	4453.976	-1164.77	1	4603.758	-14.65535	4.12419E-006	0.035673	8
	8	3	158578.1	4588.457	-1056.03	1	4708.411	-12.96088	-3.615321E-006	0.0370982	8
	9	4	125953.1	4705.508	-857.0759	1	4782.927	-10.32287	5.337611E-007	0.0349522	7
	10	4	100078.1	4794.279	-762.4737	1	4854.531	-9.03654	1.105315E-007	0.0361193	7
	11	4	79453.13	4862.345	-693.1959	1	4911.509	-8.113648	-2.120055E-008	0.0362694	7
	12	5	63140.62	4920.447	-640.5977	1	4961.972	-7.417671	-5.389035E-009	0.0363	7
	13	5	50203.12	4971.903	-605.3814	1	5008.623	-6.94219	-1.34792E-008	0.0363061	7
	14	5	39890.62	5020.322	-587.3454	1	5054.563	-6.672903	-3.905927E-008	0.0362887	7
	15	6	31640.63	5069.806	-584.5915	1	5103.399	-6.577638	-6.048493E-009	0.0362945	7
	16	6	25171.88	5117.671	-598.8264	1	5152.587	-6.673916	-3.44133E-008	0.036302	7
	17	6	20015.62	5170.2	-625.4424	1	5207.893	-6.897591	-2.081926E-008	0.036257	7
	18	6	15890.62	5222.792	-670.0729	1	5265.601	-7.310986	-2.769522E-008	0.0363572	7
	19	7	12609.37	5279.417	-731.2679	1	5329.821	-7.886033	6.63359E-010	0.0362013	7
	20	7	10078.13	5337.141	-807.0627	1	5397.816	-8.598909	-4.989666E-008	0.0363254	7
	21	7	8015.625	5400.88	-904.7471	1	5476.137	-9.5098	-4.628835E-008	0.0363498	7
	22	8	6328.125	5472.13	-1029.803	1	5568.187	-10.65788	6.860543E-008	0.036139	7
	23	8	5015.625	5546.532	-1186.038	1	5671.922	-12.07002	1.119301E-007	0.0360929	7
	24	8	3984.375	5624.104	-1378.942	1	5790.685	-13.77626	-3.784501E-008	0.0362835	7
	25	9	3170.956	5709.491	-1612.977	1	5932.957	-15.77541	-3.801222E-008	0.0362835	7
	26	9	2527.573	5804.922	-1903.48	1	6109.039	-18.15473	-1.219236E-008	0.0362904	7
	27	9	1976.103	5921.011	-2293.755	1	6349.778	-21.17599	-1.46513E-008	0.036368	7
	28	10	1577.524	6045.5	-2734.536	1	6635.191	-24.33847	-4.858999E-008	0.0363219	7
	29	10	1265.625	6187.902	-3259.179	1	6993.738	-27.77585	-3.332509E-008	0.0362723	7
	30	10	998.264	6369.988	-3952.495	1	7496.597	-31.81907	-3.125404E-008	0.036297	7
	31	11	796.875	6577.119	-4764.809	1	8121.693	-35.92154	-4.907161E-008	0.0363179	7
	32	11	627.7902	6849.289	-5807.231	1	8979.793	-40.29324	-4.258167E-009	0.0362859	7
	33	11	505.5147	7151.846	-6954.743	1	9975.84	-44.19949	-7.789028E-009	0.0363368	6
	34	12	397.9953	7552.721	-8496.56	1	11368.16	-48.36562	1.090701E-009	0.0362631	6
	35	12	315.5048	8033.18	-10328.97	1	13085.09	-52.12662	1.493633E-009	0.0362604	6
	36	12	252.4038	8600.681	-12465.43	1	15144.59	-55.39578	1.084746E-009	0.036258	6
	37	13	198.6229	9353.401	-15260.24	1	17898.63	-58.49477	1.152137E-009	0.0362578	6
	38	13	158.3615	10252.79	-18481.33	1	21134.79	-60.98004	1.252346E-009	0.0362574	6
	39	13	125.558	11410.45	-22485.64	1	25215.13	-63.09426	7.653027E-010	0.0362587	6
	40	13	100.4464	12813.42	-27129.43	1	30003.16	-64.71832	7.659046E-010	0.0362531	6
	41	14	79.00281	14806.44	-33144.15	1	36301.04	-65.92832	1.29558E-009	0.0362514	6
	42	14	63.3446	17522.71	-40077.65	1	43740.87	-66.38413	3.156655E-010	0.0362498	6
	43	15	49.86702	20787.83	-48693.36	1	52945.04	-66.88173	-2.951158E-010	0.0362536	6
	44	15	39.72458	24734.04	-58047.83	1	63097.73	-66.92126	5.796052E-010	0.0362542	6
	45	15	31.6723	29750.05	-69162.09	1	75289.18	-66.72506	5.060763E-010	0.0362516	6
	46	16	24.93351	36794.62	-82991.5	1	90782.34	-66.0897	-1.065534E-010	0.0362563	6
	47	16	19.86229	44933.76	-98052.7	1	107858.1	-65.37985	-1.278591E-009	0.0362489	5
	48	16	15.83615	54641.43	-115079.7	1	127393.1	-64.60098	1.584928E-010	0.0362474	5
	49	16	12.40079	68075.17	-137371.4	1	153313.8	-63.63903	4.12955E-010	0.0362488	5
	50	17	9.93114	82324.02	-158249.7	1	178382.2	-62.51583	-3.777963E-010	0.0362467	5
	51	17	7.944915	99707.4	-182872.7	1	208288.3	-61.39952	-6.723954E-010	0.0362485	5
	52	18	6.317385	120514.3	-211449.1	1	243381.3	-60.31926	-4.771417E-010	0.0362622	5
	53	19	5.008013	145335.4	-243613	1	283671.8	-59.18041	-2.29456E-010	0.0362418	5
	54	20	3.945707	175076.8	-280296	1	330481	-58.01052	2.955339E-010	0.0362459	5
	55	21	3.158693	205610.4	-317938.9	1	378630.2	-57.10934	1.901397E-010	0.0362621	5
	56	23	2.504006	241827.5	-362515.4	1	435772.8	-56.29345	-3.154698E-011	0.0362509	5
	57	24	1.998082	279134.2	-410720.1	1	496595.3	-55.79914	1.225906E-010	0.0362545	5
	58	26	1.584686	323180.6	-468359.4	1	569039.8	-55.39328	2.368487E-010	0.036295	5
	59	28	1.266892	367679.5	-534143.8	1	648458.1	-55.4583	2.172692E-010	0.0362737	5
	60	30	0.999041	419954	-614528.1	1	744315.9	-55.65222	1.978763E-010	0.0362503	5
