EXPLAIN
TAG	EISPOT
TITLE	LABEL	Potentiostatic EIS	Test &Identifier
DATE	LABEL	1/25/2020	Date
TIME	LABEL	13:28:58	Time
NOTES	NOTES	6	&Notes...
	
	
	
	
	
	
PSTAT	PSTAT	REF600-11020	Potentiostat
VDC	POTEN	0.00000E+000	T	DC &Voltage (V)
FREQINIT	QUANT	1.00000E+006	Initial Fre&q. (Hz)
FREQFINAL	QUANT	1.00000E+000	Final Fre&q. (Hz)
PTSPERDEC	QUANT	1.00000E+001	Points/&decade
VAC	QUANT	2.50000E+001	AC &Voltage (mV rms)
AREA	QUANT	1.00000E-001	&Area (cm^2)
CONDIT	TWOPARAM	F	5.00000E+000	0.00000E+000	Conditionin&g	Time(s)	E(V)
DELAY	TWOPARAM	F	5.00000E+000	0.00000E+000	Init. De&lay	Time(s)	Stab.(mV/s)
SPEED	SELECTOR	0	&Optimize for:
ZGUESS	QUANT	5.00000E+002	E&stimated Z (ohms)
OCVCURVE	TABLE	39
	Pt	T	Vf	Vm	Ach	Over
	#	s	V vs. Ref.	V	V	bits
	0	0.258333	-2.94773E-002	-2.94773E-002	6.58946E-004	...........
	1	0.516667	-2.94770E-002	-2.94629E-002	6.61546E-004	...........
	2	0.775	-2.94753E-002	-2.94480E-002	6.51146E-004	...........
	3	1.03333	-2.94709E-002	-2.94581E-002	6.55046E-004	...........
	4	1.29167	-2.94640E-002	-2.94292E-002	6.64179E-004	...........
	5	1.55	-2.94558E-002	-2.94182E-002	6.67879E-004	...........
	6	1.80833	-2.94468E-002	-2.94574E-002	6.50013E-004	...........
	7	2.06667	-2.94419E-002	-2.95520E-002	6.49880E-004	...........
	8	2.325	-2.94486E-002	-2.94329E-002	6.69246E-004	...........
	9	2.58333	-2.94644E-002	-2.95075E-002	6.69246E-004	...........
	10	2.84167	-2.94784E-002	-2.95208E-002	6.57613E-004	...........
	11	3.1	-2.94871E-002	-2.94509E-002	6.50146E-004	...........
	12	3.35833	-2.94906E-002	-2.94584E-002	6.63279E-004	...........
	13	3.61667	-2.94865E-002	-2.94656E-002	6.66579E-004	...........
	14	3.875	-2.94769E-002	-2.94728E-002	6.56513E-004	...........
	15	4.13333	-2.94695E-002	-2.94839E-002	6.58246E-004	...........
	16	4.39167	-2.94686E-002	-2.94913E-002	6.69246E-004	...........
	17	4.65	-2.94730E-002	-2.94801E-002	6.65979E-004	...........
	18	4.90833	-2.94789E-002	-2.94835E-002	6.53679E-004	...........
	19	5.16667	-2.94828E-002	-2.94879E-002	6.62113E-004	...........
	20	5.425	-2.94845E-002	-2.94911E-002	6.65513E-004	...........
	21	5.68333	-2.94858E-002	-2.94940E-002	6.61513E-004	...........
	22	5.94167	-2.94878E-002	-2.94928E-002	6.54246E-004	...........
	23	6.2	-2.94901E-002	-2.94952E-002	6.62079E-004	...........
	24	6.45833	-2.94920E-002	-2.94932E-002	6.65646E-004	...........
	25	6.71667	-2.94933E-002	-2.94958E-002	6.55779E-004	...........
	26	6.975	-2.94941E-002	-2.94983E-002	6.51846E-004	...........
	27	7.23333	-2.94950E-002	-2.95048E-002	6.66146E-004	...........
	28	7.49167	-2.94967E-002	-2.95040E-002	6.74046E-004	...........
	29	7.75	-2.94992E-002	-2.95073E-002	6.55013E-004	...........
	30	8.00833	-2.95020E-002	-2.95120E-002	6.53380E-004	...........
	31	8.26667	-2.95049E-002	-2.95159E-002	6.66246E-004	...........
	32	8.525	-2.95080E-002	-2.95162E-002	6.67913E-004	...........
	33	8.78333	-2.95112E-002	-2.95171E-002	6.52280E-004	...........
	34	9.04167	-2.95139E-002	-2.95213E-002	6.53780E-004	...........
	35	9.3	-2.95162E-002	-2.95253E-002	6.72546E-004	...........
	36	9.5583	-2.95186E-002	-2.95305E-002	6.74146E-004	...........
	37	9.8167	-2.95216E-002	-2.95276E-002	6.56046E-004	...........
	38	10.075	-2.95246E-002	-2.95271E-002	6.62246E-004	...........
EOC	QUANT	-0.0295246	Open Circuit (V)
PSTATMODEL	IQUANT	4	Pstat Model
PSTATSECTION	LABEL	REF600-11020	Pstat Section
PSTATSERIALNO	LABEL	11020	Pstat Serial Number
CTRLMODE	IQUANT	1	Control Mode
IESTAB	IQUANT	0	I/E Stability
CASPEED	IQUANT	1	Control Amp Speed
CONVENTION	IQUANT	1	Current Convention
ICHRANGE	IQUANT	2	Ich Range
ICHRANGEMODE	TOGGLE	F	Ich Auto Range
ICHOFFSETENABLE	TOGGLE	T	Ich Offset Enable
ICHOFFSET	QUANT	0	Ich Offset (V)
ICHFILTER	IQUANT	3	Ich Filter
VCHRANGE	IQUANT	2	Vch Range
VCHRANGEMODE	TOGGLE	F	Vch Auto Range
VCHOFFSETENABLE	TOGGLE	T	Vch Offset Enable
VCHOFFSET	QUANT	0	Vch Offset (V)
VCHFILTER	IQUANT	3	Vch Filter
ACHRANGE	IQUANT	2	Ach Range
ACHOFFSETENABLE	TOGGLE	F	Ach Offset Enable
ACHOFFSET	QUANT	0	Ach Offset (V)
ACHFILTER	IQUANT	3	Ach Filter
IERANGELOWERLIMIT	IQUANT	1	I/E Range Lower Limit
IERANGEMODE	TOGGLE	F	I/E AutoRange
IERANGE	IQUANT	8	I/E Range
POSFEEDENABLE	TOGGLE	F	Positive Feedback IR Comp
POSFEEDRESISTANCE	QUANT	0	Positive Feedback Resistance (ohm)
ACHSELECT	IQUANT	0	Ach Select
CABLEID	IQUANT	14	Cable ID
DCCALDATE	LABEL	12/22/2019	DC Calibration Date
ACCALDATE	LABEL	12/22/2019	AC Calibration Date
THERMOSELECT	IQUANT	1	Thermo Select
FRAMEWORKVERSION	QUANT	6.33	Framework Version
INSTRUMENTVERSION	LABEL	3.50	Instrument Version
ZCURVE	TABLE
	Pt	Time	Freq	Zreal	Zimag	Zsig	Zmod	Zphz	Idc	Vdc	IERange
	#	s	Hz	ohm	ohm	V	ohm	°	A	V	#
	0	1	1000078	2276.281	-2014.704	1	3039.817	-41.5116	-4.84665E-007	-0.0270086	8
	1	2	794390.6	2697.216	-2022.295	1	3371.15	-36.86151	-1.604222E-006	-0.0270667	8
	2	2	630984.4	3104.083	-1954.653	1	3668.242	-32.19877	-3.214934E-007	-0.0275966	8
	3	2	501234.4	3465.91	-1840.722	1	3924.385	-27.97248	7.248343E-007	-0.027957	8
	4	3	398109.4	3776.322	-1677.081	1	4131.974	-23.94621	1.421851E-006	-0.0281128	8
	5	3	316265.6	4033.211	-1497.088	1	4302.1	-20.36443	1.350181E-006	-0.0281362	8
	6	3	251203.1	4219.883	-1343.81	1	4428.684	-17.66393	-3.681636E-007	-0.0277989	8
	7	4	199546.9	4385.672	-1170.402	1	4539.159	-14.94227	5.749984E-007	-0.0279127	8
	8	4	158578.1	4519.877	-1044.069	1	4638.897	-13.0069	5.310687E-007	-0.0279392	8
	9	4	125953.1	4640.293	-907.8591	1	4728.27	-11.06991	4.918837E-007	-0.0286161	7
	10	5	100078.1	4710.926	-823.4299	1	4782.349	-9.91466	-1.980498E-008	-0.02786	7
	11	5	79453.13	4784.699	-769.4075	1	4846.167	-9.135289	9.117707E-009	-0.0279575	7
	12	5	63140.62	4851.749	-733.7948	1	4906.926	-8.600425	1.257598E-008	-0.0279275	7
	13	6	50203.12	4913.811	-716.371	1	4965.755	-8.29456	-2.731068E-008	-0.027882	7
	14	6	39890.62	4975.63	-716.5184	1	5026.957	-8.194574	8.689526E-009	-0.0279621	7
	15	6	31640.63	5038.601	-734.9947	1	5091.926	-8.299358	-3.282082E-008	-0.0278697	7
	16	7	25171.88	5102.783	-770.9381	1	5160.691	-8.59138	-1.791254E-008	-0.0279147	7
	17	7	20015.62	5171.514	-825.4108	1	5236.97	-9.068331	-9.645797E-009	-0.0278625	7
	18	7	15890.62	5243.987	-902.2223	1	5321.035	-9.7621	4.082638E-009	-0.0278753	7
	19	7	12609.37	5326.372	-999.622	1	5419.362	-10.6293	-3.280988E-008	-0.0278749	7
	20	8	10078.13	5411.382	-1117.865	1	5525.639	-11.67179	1.77017E-008	-0.0279032	7
	21	8	8015.625	5509.092	-1265.924	1	5652.668	-12.94124	2.954394E-008	-0.0280029	7
	22	8	6328.125	5621.812	-1451.913	1	5806.274	-14.48103	-2.156147E-008	-0.0278893	7
	23	9	5015.625	5746.934	-1674.538	1	5985.928	-16.24503	1.727664E-008	-0.0279025	7
	24	9	3984.375	5885.485	-1937.113	1	6196.075	-18.21813	3.923616E-009	-0.0278889	7
	25	9	3170.956	6040.493	-2251.217	1	6446.358	-20.4398	-1.634866E-008	-0.0279213	7
	26	10	2527.573	6216.27	-2622.642	1	6746.871	-22.87487	2.913769E-008	-0.0280055	7
	27	10	1976.103	6432.139	-3112.776	1	7145.753	-25.82424	-1.870228E-008	-0.0278769	7
	28	10	1577.524	6656.688	-3655.241	1	7594.227	-28.77154	2.30981E-008	-0.027975	7
	29	11	1265.625	6908.097	-4277.218	1	8125.047	-31.76414	2.082654E-008	-0.0279189	7
	30	11	998.264	7219.324	-5089.298	1	8832.87	-35.18211	-1.717093E-009	-0.0279368	7
	31	11	796.875	7561.296	-6023.253	1	9667.1	-38.54048	-2.052764E-009	-0.0279415	6
	32	12	627.7902	7972.992	-7221.184	1	10757.05	-42.16731	-4.5148E-010	-0.0279495	6
	33	12	505.5147	8404.625	-8533.708	1	11977.56	-45.43663	3.276363E-009	-0.0279236	6
	34	12	397.9953	8969.84	-10292.03	1	13652.25	-48.92678	7.414512E-010	-0.0279201	6
	35	13	315.5048	9619.68	-12374.33	1	15673.61	-52.13886	6.693117E-010	-0.0279176	6
	36	13	252.4038	10364.74	-14793.84	1	18063.38	-54.98446	8.779261E-010	-0.0279178	6
	37	13	198.6229	11334.53	-17951.19	1	21230.09	-57.73135	4.251373E-010	-0.0279213	6
	38	14	158.3615	12454.6	-21575.14	1	24911.92	-60.0036	3.48401E-010	-0.0279192	6
	39	14	125.558	13866.5	-26052.59	1	29513	-61.97585	6.006423E-010	-0.0279163	6
	40	14	100.4464	15537.83	-31264.27	1	34912.45	-63.57337	4.88827E-010	-0.0279218	6
	41	14	79.00281	17729.8	-38026.1	1	41956.29	-65.00256	7.951196E-010	-0.0279247	6
	42	15	63.3446	20294.3	-45163.15	1	49513.32	-65.80298	3.666324E-010	-0.0279274	6
	43	15	49.86702	23748.64	-54995.85	1	59904.44	-66.64406	9.621482E-011	-0.0279325	6
	44	16	39.72458	27778.36	-66236.07	1	71825.16	-67.2476	5.744627E-010	-0.0279243	6
	45	16	31.6723	32888.05	-79497.17	1	86031.53	-67.52508	6.084695E-010	-0.0279238	6
	46	16	24.93351	39960.01	-96131.3	1	104105.9	-67.42825	5.112985E-010	-0.0279255	6
	47	17	19.86229	48509.53	-114697.7	1	124534.1	-67.07486	9.776354E-010	-0.0279215	5
	48	17	15.83615	59376.84	-137110.6	1	149415.3	-66.58459	-7.978243E-010	-0.0279287	5
	49	17	12.40079	73966.7	-164008.9	1	179916.6	-65.72501	2.982066E-010	-0.0279278	5
	50	17	9.93114	92077.93	-192713.2	1	213580.7	-64.46163	-2.727634E-010	-0.0279267	5
	51	18	7.944915	114322.2	-224301.2	1	251755	-62.9929	-7.446624E-010	-0.0279254	5
	52	18	6.317385	141848.2	-260939.5	1	297002.3	-61.47124	-6.443202E-010	-0.0279141	5
	53	19	5.008013	176458.9	-300936.6	1	348856.1	-59.61409	-1.513016E-010	-0.0279255	5
	54	20	3.945707	218220.6	-343527.3	1	406978.2	-57.57486	-8.555275E-011	-0.0279395	5
	55	21	3.158693	263205	-386769.2	1	467832.5	-55.76384	1.790616E-010	-0.0279357	5
	56	23	2.504006	314673.4	-432745.6	1	535059	-53.97702	1.368086E-010	-0.0279294	5
	57	24	1.998082	368728.4	-479717	1	605052.9	-52.45277	-1.13356E-010	-0.027981	5
	58	26	1.584686	424297.2	-532426.7	1	680812.9	-51.44824	-4.211329E-011	-0.0279505	5
	59	28	1.266892	481405.5	-588654.3	1	760437.4	-50.72346	4.835064E-011	-0.0279174	5
	60	30	0.999041	544520.6	-660367.1	1	855913.2	-50.49194	1.032169E-010	-0.0279012	5
