EXPLAIN
TAG	EISPOT
TITLE	LABEL	Potentiostatic EIS	Test &Identifier
DATE	LABEL	3/17/2020	Date
TIME	LABEL	15:25:30	Time
NOTES	NOTES	1	&Notes...
	
PSTAT	PSTAT	REF600-11020	Potentiostat
VDC	POTEN	0.00000E+000	T	DC &Voltage (V)
FREQINIT	QUANT	1.00000E+006	Initial Fre&q. (Hz)
FREQFINAL	QUANT	1.00000E+000	Final Fre&q. (Hz)
PTSPERDEC	QUANT	1.00000E+001	Points/&decade
VAC	QUANT	2.50000E+001	AC &Voltage (mV rms)
AREA	QUANT	4.00000E-004	&Area (cm^2)
CONDIT	TWOPARAM	F	5.00000E+000	0.00000E+000	Conditionin&g	Time(s)	E(V)
DELAY	TWOPARAM	T	3.00000E+000	0.00000E+000	Init. De&lay	Time(s)	Stab.(mV/s)
SPEED	SELECTOR	0	&Optimize for:
ZGUESS	QUANT	5.00000E+003	E&stimated Z (ohms)
OCVCURVE	TABLE	12
	Pt	T	Vf	Vm	Ach	Over
	#	s	V vs. Ref.	V	V	bits
	0	0.258333	-2.97172E-005	-2.97172E-005	5.78230E-004	...........
	1	0.516667	-2.97122E-005	-2.94552E-005	5.83630E-004	...........
	2	0.775	-2.96500E-005	-2.75562E-005	5.77530E-004	...........
	3	1.03333	-2.94072E-005	-2.77352E-005	5.78030E-004	...........
	4	1.29167	-2.89540E-005	-2.88066E-005	5.76097E-004	...........
	5	1.55	-2.85775E-005	-3.21518E-005	5.76763E-004	...........
	6	1.80833	-2.86638E-005	-2.82292E-005	5.71530E-004	...........
	7	2.06667	-3.30563E-005	-2.34964E-004	5.69330E-004	...........
	8	2.325	-4.98304E-005	-2.68623E-005	5.67763E-004	...........
	9	2.58333	-7.50806E-005	-5.48155E-005	5.71197E-004	...........
	10	2.84167	-9.43835E-005	-3.36062E-004	5.75897E-004	...........
	11	3.1	-1.12254E-004	-1.12726E-004	5.76330E-004	...........
EOC	QUANT	-0.0001123	Open Circuit (V)
PSTATMODEL	IQUANT	4	Pstat Model
PSTATSECTION	LABEL	REF600-11020	Pstat Section
PSTATSERIALNO	LABEL	11020	Pstat Serial Number
CTRLMODE	IQUANT	1	Control Mode
IESTAB	IQUANT	0	I/E Stability
CASPEED	IQUANT	1	Control Amp Speed
CONVENTION	IQUANT	1	Current Convention
ICHRANGE	IQUANT	2	Ich Range
ICHRANGEMODE	TOGGLE	F	Ich Auto Range
ICHOFFSETENABLE	TOGGLE	T	Ich Offset Enable
ICHOFFSET	QUANT	0	Ich Offset (V)
ICHFILTER	IQUANT	3	Ich Filter
VCHRANGE	IQUANT	2	Vch Range
VCHRANGEMODE	TOGGLE	F	Vch Auto Range
VCHOFFSETENABLE	TOGGLE	T	Vch Offset Enable
VCHOFFSET	QUANT	0	Vch Offset (V)
VCHFILTER	IQUANT	3	Vch Filter
ACHRANGE	IQUANT	2	Ach Range
ACHOFFSETENABLE	TOGGLE	F	Ach Offset Enable
ACHOFFSET	QUANT	0	Ach Offset (V)
ACHFILTER	IQUANT	3	Ach Filter
IERANGELOWERLIMIT	IQUANT	1	I/E Range Lower Limit
IERANGEMODE	TOGGLE	F	I/E AutoRange
IERANGE	IQUANT	4	I/E Range
POSFEEDENABLE	TOGGLE	F	Positive Feedback IR Comp
POSFEEDRESISTANCE	QUANT	0	Positive Feedback Resistance (ohm)
ACHSELECT	IQUANT	0	Ach Select
CABLEID	IQUANT	14	Cable ID
DCCALDATE	LABEL	2/27/2020	DC Calibration Date
ACCALDATE	LABEL	2/27/2020	AC Calibration Date
THERMOSELECT	IQUANT	1	Thermo Select
FRAMEWORKVERSION	QUANT	6.33	Framework Version
INSTRUMENTVERSION	LABEL	3.50	Instrument Version
ZCURVE	TABLE
	Pt	Time	Freq	Zreal	Zimag	Zsig	Zmod	Zphz	Idc	Vdc	IERange
	#	s	Hz	ohm	ohm	V	ohm	°	A	V	#
	0	2	1000078	2245.667	-2105.625	1	3078.421	-43.15663	1.930759E-010	0.0024051	8
	1	2	794390.6	2647.726	-2161.228	1	3417.801	-39.22332	6.231537E-008	0.0020784	8
	2	2	630984.4	3066	-2184.673	1	3764.725	-35.47171	2.261923E-008	0.0019177	8
	3	3	501234.4	3483.099	-2156.722	1	4096.758	-31.76564	3.945376E-008	0.0018321	8
	4	3	398109.4	3879.352	-2079.611	1	4401.608	-28.19451	-1.000349E-008	0.001795	8
	5	3	316265.6	4242.413	-1961.907	1	4674.093	-24.81822	2.112671E-008	0.0017207	8
	6	4	251203.1	4561.875	-1818.661	1	4911.031	-21.73545	2.549054E-008	0.0017172	8
	7	4	199546.9	4841.977	-1664.835	1	5120.197	-18.9747	4.009591E-008	0.0017126	8
	8	4	158578.1	5063.674	-1506.55	1	5283.038	-16.56885	-5.067622E-010	0.0017386	8
	9	4	125953.1	5300.279	-1274.19	1	5451.286	-13.51743	-9.119898E-010	0.0016877	7
	10	5	100078.1	5429.144	-1156.31	1	5550.915	-12.02332	9.324703E-010	0.001649	7
	11	5	79453.13	5552.402	-1067.068	1	5654.008	-10.87854	1.130918E-009	0.0016425	7
	12	5	63140.62	5660.474	-998.384	1	5747.846	-10.00284	1.895121E-009	0.0016442	7
	13	6	50203.12	5751.725	-950.909	1	5829.8	-9.387565	9.606055E-010	0.0016404	7
	14	6	39890.62	5837.557	-926.8721	1	5910.682	-9.021963	1.873228E-009	0.0016381	7
	15	6	31640.63	5918.145	-926.4942	1	5990.228	-8.897519	1.97398E-009	0.0016381	7
	16	7	25171.88	5998.933	-949.625	1	6073.63	-8.995224	1.255612E-009	0.0016307	7
	17	7	20015.62	6083.541	-997.694	1	6164.808	-9.31354	2.293702E-009	0.0016315	7
	18	7	15890.62	6171.958	-1069.63	1	6263.959	-9.83198	1.068076E-009	0.001628	7
	19	8	12609.37	6270.018	-1169.977	1	6378.242	-10.56976	2.263868E-009	0.001634	7
	20	8	10078.13	6373.538	-1292.11	1	6503.194	-11.46028	9.67126E-010	0.0016199	7
	21	8	8015.625	6492.727	-1448.776	1	6652.402	-12.57881	1.092302E-009	0.0016256	7
	22	9	6328.125	6629.904	-1644.166	1	6830.732	-13.92793	1.876788E-009	0.0016214	7
	23	9	5015.625	6782.849	-1876.677	1	7037.681	-15.46569	2.323098E-009	0.0016164	7
	24	9	3984.375	6952.157	-2149.7	1	7276.929	-17.18231	1.890687E-009	0.0016198	7
	25	10	3170.956	7141.274	-2474.207	1	7557.744	-19.10945	2.282307E-009	0.0016198	7
	26	10	2527.573	7350.686	-2854.504	1	7885.479	-21.22276	2.935511E-009	0.001626	7
	27	10	1976.103	7605.612	-3347.852	1	8309.84	-23.75822	3.106472E-009	0.0016318	7
	28	10	1577.524	7863.289	-3887.428	1	8771.739	-26.30672	1.825836E-009	0.0016269	7
	29	11	1265.625	8153.989	-4507.609	1	9316.979	-28.93427	-5.111613E-011	0.001666	6
	30	11	998.264	8491.362	-5333.93	1	10027.66	-32.13537	1.275684E-010	0.0016753	6
	31	11	796.875	8855.821	-6284.09	1	10858.88	-35.35951	1.17344E-010	0.0016712	6
	32	12	627.7902	9293.071	-7504.231	1	11944.65	-38.92116	3.171656E-010	0.0016742	6
	33	12	505.5147	9763.14	-8855.982	1	13181.33	-42.21065	-1.725351E-010	0.0016679	6
	34	12	397.9953	10367.55	-10658.46	1	14869.05	-45.79266	6.777983E-010	0.0016818	6
	35	13	315.5048	11079.52	-12797.56	1	16927.29	-49.11553	5.860412E-010	0.0016825	6
	36	13	252.4038	11911.19	-15283.47	1	19376.82	-52.06889	4.954067E-010	0.001679	6
	37	13	198.6229	13014.46	-18511.3	1	22628.4	-54.89069	5.913263E-010	0.0016751	6
	38	14	158.3615	14314.2	-22189.61	1	26405.97	-57.17452	5.160779E-010	0.0016769	6
	39	14	125.558	15974.48	-26702.38	1	31115.93	-59.11037	6.483235E-010	0.0016758	6
	40	14	100.4464	17964.96	-31862.71	1	36578.3	-60.58466	5.158621E-010	0.0016727	6
	41	15	79.00281	20636.06	-38462.91	1	43649.08	-61.78563	6.300847E-010	0.0016727	6
	42	15	63.3446	23680.46	-45642.24	1	51419.63	-62.57846	6.518474E-010	0.0016679	6
	43	15	49.86702	27747.26	-54805.72	1	61429.45	-63.14763	3.539929E-010	0.0016654	6
	44	16	39.72458	32494.98	-65053.86	1	72718.15	-63.45746	4.62401E-010	0.0016712	6
	45	16	31.6723	38287.12	-77013.37	1	86005.59	-63.56578	2.804266E-010	0.0016715	6
	46	16	24.93351	45799.29	-91835.22	1	102622	-63.49403	4.724509E-010	0.0016704	6
	47	17	19.86229	54569.57	-108258.7	1	121234.4	-63.24887	-5.301247E-010	0.0016731	5
	48	17	15.83615	65343.8	-127352.4	1	143137.8	-62.83789	1.109541E-009	0.0016801	5
	49	17	12.40079	79681.08	-151044.2	1	170773	-62.18679	5.499634E-010	0.0016743	5
	50	18	9.93114	95796.9	-175695.3	1	200114.7	-61.39883	9.727003E-010	0.0016688	5
	51	18	7.944915	114897.3	-203594.8	1	233778.2	-60.5621	1.121745E-009	0.0016649	5
	52	18	6.317385	139164.5	-235843.1	1	273840.7	-59.45633	-7.096282E-012	0.0016814	5
	53	19	5.008013	168647.6	-272055.5	1	320087.8	-58.20517	1.322304E-010	0.001676	5
	54	20	3.945707	203887.2	-312831.9	1	373408.3	-56.90583	5.679943E-010	0.0016743	5
	55	21	3.158693	242712.1	-353768.6	1	429023.7	-55.54692	1.514366E-010	0.0016829	5
	56	22	2.504006	288180.8	-400510.1	1	493413.2	-54.26369	1.816659E-011	0.0016698	5
	57	23	1.998082	337574.8	-448090	1	561018.2	-53.00695	2.941663E-010	0.0017072	5
	58	25	1.584686	393079.8	-503998.8	1	639160.8	-52.04854	3.257002E-010	0.0017056	5
	59	27	1.266892	450325.2	-561735.6	1	719958.1	-51.28197	2.524523E-010	0.0016632	5
	60	29	0.999041	517690.6	-630936.4	1	816139.9	-50.63073	2.028358E-010	0.001641	5
