EXPLAIN
TAG	EISPOT
TITLE	LABEL	Potentiostatic EIS	Test &Identifier
DATE	LABEL	9/1/2020	Date
TIME	LABEL	21:28:45	Time
NOTES	NOTES	1	&Notes...
	
PSTAT	PSTAT	REF600-11020	Potentiostat
VDC	POTEN	0.00000E+000	T	DC &Voltage (V)
FREQINIT	QUANT	1.00000E+006	Initial Fre&q. (Hz)
FREQFINAL	QUANT	1.00000E+000	Final Fre&q. (Hz)
PTSPERDEC	QUANT	1.00000E+001	Points/&decade
VAC	QUANT	2.50000E+001	AC &Voltage (mV rms)
AREA	QUANT	4.00000E-005	&Area (cm^2)
CONDIT	TWOPARAM	F	5.00000E+000	0.00000E+000	Conditionin&g	Time(s)	E(V)
DELAY	TWOPARAM	F	3.00000E+000	0.00000E+000	Init. De&lay	Time(s)	Stab.(mV/s)
SPEED	SELECTOR	0	&Optimize for:
ZGUESS	QUANT	1.00000E+003	E&stimated Z (ohms)
OCVCURVE	TABLE	39
	Pt	T	Vf	Vm	Ach	Over
	#	s	V vs. Ref.	V	V	bits
	0	0.258333	8.24922E-002	8.24922E-002	5.68258E-004	...........
	1	0.516667	8.24928E-002	8.25271E-002	5.70558E-004	...........
	2	0.775	8.24969E-002	8.25576E-002	5.71125E-004	...........
	3	1.03333	8.25082E-002	8.25888E-002	5.71858E-004	...........
	4	1.29167	8.25283E-002	8.26199E-002	5.75258E-004	...........
	5	1.55	8.25552E-002	8.26527E-002	5.74258E-004	...........
	6	1.80833	8.25857E-002	8.26871E-002	5.78092E-004	...........
	7	2.06667	8.26178E-002	8.27201E-002	5.70958E-004	...........
	8	2.325	8.26508E-002	8.27539E-002	5.70425E-004	...........
	9	2.58333	8.26841E-002	8.27852E-002	5.70592E-004	...........
	10	2.84167	8.27174E-002	8.28184E-002	5.70892E-004	...........
	11	3.1	8.27504E-002	8.28519E-002	5.74558E-004	...........
	12	3.35833	8.27833E-002	8.28848E-002	5.71292E-004	...........
	13	3.61667	8.28162E-002	8.29192E-002	5.70658E-004	...........
	14	3.875	8.28494E-002	8.29559E-002	5.74958E-004	...........
	15	4.13333	8.28831E-002	8.29915E-002	5.72825E-004	...........
	16	4.39167	8.29177E-002	8.30302E-002	5.74458E-004	...........
	17	4.65	8.29533E-002	8.30669E-002	5.70958E-004	...........
	18	4.90833	8.29897E-002	8.31045E-002	5.70025E-004	...........
	19	5.16667	8.30268E-002	8.31431E-002	5.75525E-004	...........
	20	5.425	8.30642E-002	8.31768E-002	5.70058E-004	...........
	21	5.68333	8.31014E-002	8.32077E-002	5.74125E-004	...........
	22	5.94167	8.31376E-002	8.32412E-002	5.73258E-004	...........
	23	6.2	8.31724E-002	8.32752E-002	5.73392E-004	...........
	24	6.45833	8.32061E-002	8.33109E-002	5.71258E-004	...........
	25	6.71667	8.32396E-002	8.33479E-002	5.76658E-004	...........
	26	6.975	8.32738E-002	8.33820E-002	5.68825E-004	...........
	27	7.23333	8.33087E-002	8.34187E-002	5.66425E-004	...........
	28	7.49167	8.33441E-002	8.34519E-002	5.69958E-004	...........
	29	7.75	8.33795E-002	8.34833E-002	5.69392E-004	...........
	30	8.00833	8.34144E-002	8.35206E-002	5.72492E-004	...........
	31	8.26667	8.34487E-002	8.35564E-002	5.71892E-004	...........
	32	8.525	8.34830E-002	8.35876E-002	5.75692E-004	...........
	33	8.78333	8.35175E-002	8.36204E-002	5.73292E-004	...........
	34	9.04167	8.35516E-002	8.36530E-002	5.73825E-004	...........
	35	9.3	8.35850E-002	8.36850E-002	5.73858E-004	...........
	36	9.5583	8.36178E-002	8.37139E-002	5.67858E-004	...........
	37	9.8167	8.36499E-002	8.37438E-002	5.68825E-004	...........
	38	10.075	8.36811E-002	8.37738E-002	5.72358E-004	...........
EOC	QUANT	0.0836811	Open Circuit (V)
PSTATMODEL	IQUANT	4	Pstat Model
PSTATSECTION	LABEL	REF600-11020	Pstat Section
PSTATSERIALNO	LABEL	11020	Pstat Serial Number
CTRLMODE	IQUANT	1	Control Mode
IESTAB	IQUANT	0	I/E Stability
CASPEED	IQUANT	1	Control Amp Speed
CONVENTION	IQUANT	1	Current Convention
ICHRANGE	IQUANT	2	Ich Range
ICHRANGEMODE	TOGGLE	F	Ich Auto Range
ICHOFFSETENABLE	TOGGLE	T	Ich Offset Enable
ICHOFFSET	QUANT	0	Ich Offset (V)
ICHFILTER	IQUANT	3	Ich Filter
VCHRANGE	IQUANT	2	Vch Range
VCHRANGEMODE	TOGGLE	F	Vch Auto Range
VCHOFFSETENABLE	TOGGLE	T	Vch Offset Enable
VCHOFFSET	QUANT	0	Vch Offset (V)
VCHFILTER	IQUANT	3	Vch Filter
ACHRANGE	IQUANT	2	Ach Range
ACHOFFSETENABLE	TOGGLE	F	Ach Offset Enable
ACHOFFSET	QUANT	0	Ach Offset (V)
ACHFILTER	IQUANT	3	Ach Filter
IERANGELOWERLIMIT	IQUANT	1	I/E Range Lower Limit
IERANGEMODE	TOGGLE	F	I/E AutoRange
IERANGE	IQUANT	8	I/E Range
POSFEEDENABLE	TOGGLE	F	Positive Feedback IR Comp
POSFEEDRESISTANCE	QUANT	0	Positive Feedback Resistance (ohm)
ACHSELECT	IQUANT	0	Ach Select
CABLEID	IQUANT	14	Cable ID
DCCALDATE	LABEL	9/1/2020	DC Calibration Date
ACCALDATE	LABEL	9/1/2020	AC Calibration Date
THERMOSELECT	IQUANT	1	Thermo Select
FRAMEWORKVERSION	QUANT	6.33	Framework Version
INSTRUMENTVERSION	LABEL	3.50	Instrument Version
ZCURVE	TABLE
	Pt	Time	Freq	Zreal	Zimag	Zsig	Zmod	Zphz	Idc	Vdc	IERange
	#	s	Hz	ohm	ohm	V	ohm	°	A	V	#
	0	2	1000078	1847.732	-2448.572	1	3067.51	-52.9612	9.448781E-008	0.0860143	8
	1	2	794390.6	2266.044	-2703.698	1	3527.739	-50.0327	1.290071E-007	0.0855991	8
	2	2	630984.4	2728.749	-2922.376	1	3998.293	-46.96239	4.360288E-008	0.0854796	8
	3	3	501234.4	3222.66	-3107.279	1	4476.687	-43.95574	6.856664E-008	0.0853568	8
	4	3	398109.4	3730.049	-3254.892	1	4950.514	-41.10839	7.514246E-008	0.0853199	8
	5	3	316265.6	4220.787	-3388.361	1	5412.581	-38.75677	9.25233E-008	0.0852757	8
	6	3	251203.1	4704.648	-3504.015	1	5866.16	-36.67868	7.33196E-008	0.0852724	8
	7	4	199546.9	5168.868	-3648.593	1	6326.881	-35.21745	9.606222E-008	0.0852765	8
	8	4	158578.1	5641.475	-3826.852	1	6816.967	-34.15071	1.127118E-007	0.0852356	8
	9	4	125953.1	6165.958	-4030.561	1	7366.441	-33.17183	4.537821E-009	0.0852601	7
	10	5	100078.1	6651.977	-4311.884	1	7927.24	-32.95174	4.766149E-009	0.0852242	7
	11	5	79453.13	7164.374	-4676.969	1	8555.834	-33.13687	4.019175E-009	0.0852211	7
	12	5	63140.62	7738.069	-5118.755	1	9277.896	-33.48475	3.588348E-009	0.0852177	7
	13	6	50203.12	8386.083	-5642.773	1	10107.78	-33.93557	5.361848E-009	0.0852193	7
	14	6	39890.62	9130.948	-6225.963	1	11051.55	-34.28823	4.039337E-009	0.0852159	7
	15	6	31640.63	10013.99	-6884.421	1	12152.17	-34.50776	4.37688E-009	0.0852097	7
	16	7	25171.88	11029.79	-7594.893	1	13391.74	-34.55053	5.360136E-009	0.0852082	7
	17	7	20015.62	12212.66	-8309.619	1	14771.55	-34.23178	5.890838E-009	0.0852048	7
	18	7	15890.62	13580.18	-8997.57	1	16290.41	-33.52653	5.462803E-009	0.0852003	7
	19	8	12609.37	15267.76	-9515.46	1	17990.23	-31.93276	9.582501E-010	0.0852037	6
	20	8	10078.13	16860.82	-9993.81	1	19600.09	-30.65624	8.105713E-010	0.0851986	6
	21	8	8015.625	18565.85	-10347.57	1	21254.72	-29.13285	9.96218E-010	0.0852011	6
	22	9	6328.125	20332.67	-10559.56	1	22911.17	-27.44463	8.991787E-010	0.0851986	6
	23	9	5015.625	21992.81	-10645.65	1	24433.86	-25.82937	9.362181E-010	0.0851995	6
	24	9	3984.375	23528.48	-10677.64	1	25837.98	-24.40937	1.064668E-009	0.0851979	6
	25	9	3170.956	24901.28	-10728.55	1	27114.12	-23.30846	5.858579E-010	0.0852009	6
	26	10	2527.573	26141.01	-10885.53	1	28316.9	-22.60761	1.249221E-009	0.0852037	6
	27	10	1976.103	27360.5	-11250.18	1	29583.16	-22.35165	5.467825E-010	0.0851913	6
	28	10	1577.524	28402.57	-11831.05	1	30768.16	-22.6141	6.408608E-010	0.0851934	6
	29	11	1265.625	29406.36	-12680.81	1	32024.01	-23.32701	7.982245E-010	0.0851973	6
	30	11	998.264	30523.42	-13961.96	1	33565.09	-24.58021	9.889758E-010	0.0851992	6
	31	11	796.875	31657.55	-15561.42	1	35275.46	-26.17664	7.171233E-010	0.0851925	6
	32	12	627.7902	32998.16	-17740.17	1	37464.55	-28.26295	4.052214E-010	0.0851918	6
	33	12	505.5147	34458.54	-20162.34	1	39923.81	-30.33271	4.167689E-010	0.0851889	6
	34	12	397.9953	36312.31	-23436.48	1	43218.66	-32.83878	4.49664E-010	0.0852078	6
	35	13	315.5048	38512.09	-27248.07	1	47176.68	-35.28017	3.92294E-010	0.085209	6
	36	13	252.4038	41027.32	-31566.68	1	51765.79	-37.57491	2.518011E-010	0.085207	6
	37	13	198.6229	44277.23	-37014.36	1	57710.8	-39.89455	3.107875E-010	0.085209	6
	38	14	158.3615	48007.91	-43010.91	1	64456.95	-41.85758	3.19103E-010	0.0852052	6
	39	14	125.558	52583.98	-50093.55	1	72625.34	-43.61057	3.27168E-010	0.0852068	6
	40	14	100.4464	57892.01	-57889.41	1	81869.83	-44.99871	1.574969E-010	0.0852036	6
	41	15	79.00281	64738.14	-67476.63	1	93510.01	-46.18657	2.603897E-010	0.0852014	6
	42	15	63.3446	72307.48	-77338.63	1	105875.6	-46.92558	-3.061889E-010	0.0851929	5
	43	15	49.86702	81989.54	-89481.24	1	121363.8	-47.50171	-2.724674E-010	0.0851912	5
	44	16	39.72458	92925.52	-102374.5	1	138259.5	-47.76992	-1.126335E-010	0.0851933	5
	45	16	31.6723	105734.4	-116572.5	1	157381.4	-47.79115	1.536245E-010	0.085193	5
	46	16	24.93351	121549.9	-132966.6	1	180151.4	-47.56836	-7.306364E-010	0.0851967	5
	47	17	19.86229	139011.8	-150111.5	1	204591.6	-47.19855	-1.344691E-009	0.0851941	5
	48	17	15.83615	159354.2	-168026	1	231574	-46.51734	-2.448561E-011	0.0851955	5
	49	17	12.40079	184235	-188816.6	1	263807.2	-45.70365	5.193367E-010	0.0851952	5
	50	17	9.93114	209662.2	-209193.6	1	296176	-44.9359	1.704832E-010	0.0851979	5
	51	18	7.944915	237946.2	-229936.2	1	330891.3	-44.01922	-1.176591E-009	0.0851983	5
	52	18	6.317385	270769.5	-253066.3	1	370619.3	-43.0644	1.562244E-010	0.0851846	5
	53	19	5.008013	307253.8	-277651.2	1	414119.7	-42.10268	4.081091E-010	0.0852002	5
	54	20	3.945707	347671.8	-302980.8	1	461164.9	-41.07074	-2.215525E-010	0.0851865	5
	55	21	3.158693	388895.7	-328707.3	1	509203.6	-40.20558	2.355578E-010	0.0851967	5
	56	22	2.504006	434160.3	-355876.1	1	561375.9	-39.34107	-2.627642E-011	0.0851942	5
	57	23	1.998082	481504.2	-385179.4	1	616611.3	-38.65807	-3.17903E-010	0.085148	5
	58	25	1.584686	530858	-417389.5	1	675295.7	-38.17636	-2.043846E-010	0.0851819	5
	59	27	1.266892	582784.9	-450929.2	1	736868.6	-37.73087	-7.469341E-011	0.0852159	5
	60	29	0.999041	641464.3	-492269.2	1	808582.3	-37.50317	2.251221E-011	0.0852234	5
