EXPLAIN
TAG	EISPOT
TITLE	LABEL	Potentiostatic EIS	Test &Identifier
DATE	LABEL	5/26/2020	Date
TIME	LABEL	18:04:31	Time
NOTES	NOTES	1	&Notes...
	
PSTAT	PSTAT	REF600-11020	Potentiostat
VDC	POTEN	0.00000E+000	T	DC &Voltage (V)
FREQINIT	QUANT	1.00000E+006	Initial Fre&q. (Hz)
FREQFINAL	QUANT	1.00000E+000	Final Fre&q. (Hz)
PTSPERDEC	QUANT	1.00000E+001	Points/&decade
VAC	QUANT	2.50000E+001	AC &Voltage (mV rms)
AREA	QUANT	5.00000E-004	&Area (cm^2)
CONDIT	TWOPARAM	F	5.00000E+000	0.00000E+000	Conditionin&g	Time(s)	E(V)
DELAY	TWOPARAM	T	3.00000E+000	0.00000E+000	Init. De&lay	Time(s)	Stab.(mV/s)
SPEED	SELECTOR	0	&Optimize for:
ZGUESS	QUANT	1.00000E+003	E&stimated Z (ohms)
OCVCURVE	TABLE	12
	Pt	T	Vf	Vm	Ach	Over
	#	s	V vs. Ref.	V	V	bits
	0	0.258333	1.42766E-001	1.42766E-001	5.72663E-004	...........
	1	0.516667	1.42765E-001	1.42750E-001	5.74063E-004	...........
	2	0.775	1.42764E-001	1.42740E-001	5.78497E-004	...........
	3	1.03333	1.42759E-001	1.42728E-001	5.76230E-004	...........
	4	1.29167	1.42751E-001	1.42722E-001	5.75730E-004	...........
	5	1.55	1.42741E-001	1.42709E-001	5.78563E-004	...........
	6	1.80833	1.42731E-001	1.42702E-001	5.77197E-004	...........
	7	2.06667	1.42721E-001	1.42698E-001	5.72163E-004	...........
	8	2.325	1.42712E-001	1.42692E-001	5.72163E-004	...........
	9	2.58333	1.42705E-001	1.42688E-001	5.75663E-004	...........
	10	2.84167	1.42698E-001	1.42683E-001	5.75197E-004	...........
	11	3.1	1.42693E-001	1.42677E-001	5.73863E-004	...........
EOC	QUANT	0.142693	Open Circuit (V)
PSTATMODEL	IQUANT	4	Pstat Model
PSTATSECTION	LABEL	REF600-11020	Pstat Section
PSTATSERIALNO	LABEL	11020	Pstat Serial Number
CTRLMODE	IQUANT	1	Control Mode
IESTAB	IQUANT	0	I/E Stability
CASPEED	IQUANT	1	Control Amp Speed
CONVENTION	IQUANT	1	Current Convention
ICHRANGE	IQUANT	2	Ich Range
ICHRANGEMODE	TOGGLE	F	Ich Auto Range
ICHOFFSETENABLE	TOGGLE	T	Ich Offset Enable
ICHOFFSET	QUANT	0	Ich Offset (V)
ICHFILTER	IQUANT	3	Ich Filter
VCHRANGE	IQUANT	2	Vch Range
VCHRANGEMODE	TOGGLE	F	Vch Auto Range
VCHOFFSETENABLE	TOGGLE	T	Vch Offset Enable
VCHOFFSET	QUANT	0	Vch Offset (V)
VCHFILTER	IQUANT	3	Vch Filter
ACHRANGE	IQUANT	2	Ach Range
ACHOFFSETENABLE	TOGGLE	F	Ach Offset Enable
ACHOFFSET	QUANT	0	Ach Offset (V)
ACHFILTER	IQUANT	3	Ach Filter
IERANGELOWERLIMIT	IQUANT	1	I/E Range Lower Limit
IERANGEMODE	TOGGLE	F	I/E AutoRange
IERANGE	IQUANT	8	I/E Range
POSFEEDENABLE	TOGGLE	F	Positive Feedback IR Comp
POSFEEDRESISTANCE	QUANT	0	Positive Feedback Resistance (ohm)
ACHSELECT	IQUANT	0	Ach Select
CABLEID	IQUANT	14	Cable ID
DCCALDATE	LABEL	2/27/2020	DC Calibration Date
ACCALDATE	LABEL	2/27/2020	AC Calibration Date
THERMOSELECT	IQUANT	1	Thermo Select
FRAMEWORKVERSION	QUANT	6.33	Framework Version
INSTRUMENTVERSION	LABEL	3.50	Instrument Version
ZCURVE	TABLE
	Pt	Time	Freq	Zreal	Zimag	Zsig	Zmod	Zphz	Idc	Vdc	IERange
	#	s	Hz	ohm	ohm	V	ohm	°	A	V	#
	0	1	1000078	1646.408	-2048.093	1	2627.802	-51.20511	2.697378E-008	0.1451008	8
	1	1	794390.6	1963.691	-2279.521	1	3008.704	-49.25678	3.303802E-008	0.1447498	8
	2	1	630984.4	2321.392	-2513.366	1	3421.384	-47.27385	4.599947E-008	0.1446178	8
	3	2	501234.4	2721.118	-2740.73	1	3862.134	-45.20573	1.377E-008	0.144507	8
	4	2	398109.4	3163.638	-2960.29	1	4332.658	-43.09817	4.597249E-008	0.1444583	8
	5	2	316265.6	3645.846	-3162.811	1	4826.548	-40.942	4.533217E-008	0.1444378	8
	6	3	251203.1	4175.802	-3350.967	1	5354.092	-38.74609	3.672193E-008	0.1444056	8
	7	3	199546.9	4725.789	-3509.991	1	5886.69	-36.60242	3.046756E-008	0.1444227	8
	8	3	158578.1	5315.285	-3629.007	1	6435.989	-34.32328	3.192617E-008	0.144412	8
	9	4	125953.1	5992.318	-3642.844	1	7012.716	-31.29621	1.989855E-009	0.1443565	7
	10	4	100078.1	6555.612	-3714.295	1	7534.722	-29.53514	3.203051E-009	0.1443509	7
	11	4	79453.13	7132.425	-3766.156	1	8065.693	-27.83553	1.730027E-009	0.1443339	7
	12	4	63140.62	7701.26	-3809.629	1	8592.013	-26.3205	1.863966E-009	0.1443249	7
	13	5	50203.12	8246.252	-3849.931	1	9100.694	-25.02648	2.192438E-009	0.1443338	7
	14	5	39890.62	8780.184	-3898.315	1	9606.69	-23.94075	1.855056E-009	0.1443309	7
	15	5	31640.63	9303.846	-3964.049	1	10113.12	-23.07719	1.699417E-009	0.1443243	7
	16	6	25171.88	9817.23	-4062.993	1	10624.78	-22.48288	2.369501E-009	0.1443254	7
	17	6	20015.62	10327.72	-4202.301	1	11149.94	-22.14118	3.067722E-009	0.1443207	7
	18	6	15890.62	10843.13	-4381.328	1	11694.85	-22.0019	2.408264E-009	0.1443295	7
	19	7	12609.37	11484.61	-4458.423	1	12319.66	-21.21663	5.806752E-010	0.1443822	6
	20	7	10078.13	12004.48	-4765.865	1	12915.92	-21.65344	3.898652E-010	0.1443738	6
	21	7	8015.625	12568.53	-5142.703	1	13579.96	-22.25306	5.376984E-010	0.1443795	6
	22	8	6328.125	13196.04	-5606.339	1	14337.59	-23.01822	1.292171E-010	0.1443791	6
	23	8	5015.625	13872.51	-6144.293	1	15172.31	-23.8891	1.631214E-010	0.1443744	6
	24	8	3984.375	14609.83	-6762.971	1	16099.22	-24.83968	1.807677E-010	0.1443706	6
	25	9	3170.956	15421.78	-7469.202	1	17135.35	-25.84221	3.140675E-010	0.1443729	6
	26	9	2527.573	16314.01	-8255.955	1	18284.08	-26.84239	7.762581E-011	0.1443696	6
	27	9	1976.103	17393.83	-9220.83	1	19686.78	-27.92899	2.195201E-010	0.1443633	6
	28	10	1577.524	18475.54	-10201.62	1	21104.95	-28.9061	2.267088E-010	0.1443641	6
	29	10	1265.625	19624.7	-11272.37	1	22631.73	-29.87293	2.407667E-010	0.1443581	6
	30	10	998.264	20934.96	-12582.86	1	24425.41	-31.00777	1.334335E-010	0.1443599	6
	31	10	796.875	22259.89	-14020.37	1	26307.29	-32.20473	3.107565E-010	0.1443632	6
	32	11	627.7902	23739.71	-15816.06	1	28525.81	-33.67267	4.466517E-010	0.1443603	6
	33	11	505.5147	25194.29	-17752.46	1	30820.48	-35.16938	1.643219E-010	0.1443627	6
	34	11	397.9953	26911.02	-20324.36	1	33723.62	-37.06167	3.658177E-010	0.1443844	6
	35	12	315.5048	28786.85	-23355.39	1	37069.62	-39.05317	2.633746E-010	0.1443889	6
	36	12	252.4038	30835.67	-26851.56	1	40888.2	-41.0492	3.053705E-010	0.144382	6
	37	12	198.6229	33386.4	-31338.75	1	45790.49	-43.188	2.328974E-010	0.1443867	6
	38	13	158.3615	36210.56	-36373.33	1	51324.69	-45.12848	3.36809E-010	0.1443839	6
	39	13	125.558	39606.74	-42436.16	1	58047.58	-46.97518	3.798622E-010	0.1443801	6
	40	13	100.4464	43418.69	-49254.52	1	65659.66	-48.60328	4.182853E-010	0.144376	6
	41	14	79.00281	48186.46	-57820.34	1	75267.04	-50.19276	4.380757E-010	0.1443703	6
	42	14	63.3446	53262.72	-67037	1	85620.54	-51.5319	3.847213E-010	0.1443774	6
	43	14	49.86702	59591.58	-78755.6	1	98760.3	-52.88649	4.225929E-010	0.1443719	6
	44	15	39.72458	66542.62	-91768.17	1	113354.8	-54.05351	2.638129E-011	0.1443836	5
	45	15	31.6723	74486.52	-107182.2	1	130523.1	-55.20255	5.846744E-011	0.1443774	5
	46	15	24.93351	84278.03	-126500	1	152003.4	-56.32728	-7.876798E-011	0.1443777	5
	47	16	19.86229	95163.6	-148270.1	1	176182.1	-57.30661	-4.721582E-010	0.1443683	5
	48	16	15.83615	108045	-173971.6	1	204792.2	-58.15766	3.232623E-010	0.1443725	5
	49	16	12.40079	124674.7	-206535.5	1	241248.2	-58.8828	-9.370689E-011	0.1443726	5
	50	17	9.93114	142504.6	-241601	1	280497.1	-59.46642	1.116526E-010	0.1443706	5
	51	17	7.944915	163563.7	-282703	1	326610	-59.94758	2.047423E-010	0.1443753	5
	52	17	6.317385	189378.8	-332171.3	1	382363.9	-60.3115	1.355194E-011	0.1443833	5
	53	18	5.008013	220861	-391340.6	1	449362.9	-60.56092	1.209019E-010	0.1443818	5
	54	19	3.945707	259666.7	-463134.5	1	530961.7	-60.72186	2.052041E-010	0.1443683	5
	55	20	3.158693	303584.1	-540657.6	1	620059.7	-60.6854	9.909647E-011	0.144384	5
	56	21	2.504006	359414.4	-635330.4	1	729947.6	-60.50261	8.8682E-012	0.1443705	5
	57	22	1.998082	424511.3	-739270.6	1	852485.1	-60.13427	1.090318E-010	0.14439	5
	58	24	1.584686	507370.3	-864982.6	1	1002806	-59.60552	1.397686E-010	0.144417	5
	59	26	1.266892	601868.5	-1002584	1	1169368	-59.02288	7.951758E-011	0.1443891	4
	60	28	0.999041	723350.9	-1163664	1	1370164	-58.13429	6.940252E-011	0.1443543	4
