EXPLAIN
TAG	EISPOT
TITLE	LABEL	Potentiostatic EIS	Test &Identifier
DATE	LABEL	6/1/2020	Date
TIME	LABEL	13:21:11	Time
NOTES	NOTES	1	&Notes...
	
PSTAT	PSTAT	REF600-11020	Potentiostat
VDC	POTEN	0.00000E+000	T	DC &Voltage (V)
FREQINIT	QUANT	1.00000E+006	Initial Fre&q. (Hz)
FREQFINAL	QUANT	1.00000E+000	Final Fre&q. (Hz)
PTSPERDEC	QUANT	1.00000E+001	Points/&decade
VAC	QUANT	2.50000E+001	AC &Voltage (mV rms)
AREA	QUANT	4.00000E-004	&Area (cm^2)
CONDIT	TWOPARAM	F	5.00000E+000	0.00000E+000	Conditionin&g	Time(s)	E(V)
DELAY	TWOPARAM	T	3.00000E+000	0.00000E+000	Init. De&lay	Time(s)	Stab.(mV/s)
SPEED	SELECTOR	0	&Optimize for:
ZGUESS	QUANT	1.00000E+003	E&stimated Z (ohms)
OCVCURVE	TABLE	12
	Pt	T	Vf	Vm	Ach	Over
	#	s	V vs. Ref.	V	V	bits
	0	0.258333	-6.21028E-002	-6.21028E-002	5.69297E-004	...........
	1	0.516667	-6.21028E-002	-6.21068E-002	5.65130E-004	...........
	2	0.775	-6.21033E-002	-6.21087E-002	5.68730E-004	...........
	3	1.03333	-6.21044E-002	-6.21114E-002	5.64030E-004	...........
	4	1.29167	-6.21063E-002	-6.21189E-002	5.65463E-004	...........
	5	1.55	-6.21092E-002	-6.21218E-002	5.68997E-004	...........
	6	1.80833	-6.21128E-002	-6.21234E-002	5.64330E-004	...........
	7	2.06667	-6.21168E-002	-6.21288E-002	5.66030E-004	...........
	8	2.325	-6.21207E-002	-6.21311E-002	5.62497E-004	...........
	9	2.58333	-6.21243E-002	-6.21342E-002	5.64464E-004	...........
	10	2.84167	-6.21276E-002	-6.21366E-002	5.65063E-004	...........
	11	3.1	-6.21308E-002	-6.21386E-002	5.71230E-004	...........
EOC	QUANT	-0.0621308	Open Circuit (V)
PSTATMODEL	IQUANT	4	Pstat Model
PSTATSECTION	LABEL	REF600-11020	Pstat Section
PSTATSERIALNO	LABEL	11020	Pstat Serial Number
CTRLMODE	IQUANT	1	Control Mode
IESTAB	IQUANT	0	I/E Stability
CASPEED	IQUANT	1	Control Amp Speed
CONVENTION	IQUANT	1	Current Convention
ICHRANGE	IQUANT	2	Ich Range
ICHRANGEMODE	TOGGLE	F	Ich Auto Range
ICHOFFSETENABLE	TOGGLE	T	Ich Offset Enable
ICHOFFSET	QUANT	0	Ich Offset (V)
ICHFILTER	IQUANT	3	Ich Filter
VCHRANGE	IQUANT	2	Vch Range
VCHRANGEMODE	TOGGLE	F	Vch Auto Range
VCHOFFSETENABLE	TOGGLE	T	Vch Offset Enable
VCHOFFSET	QUANT	0	Vch Offset (V)
VCHFILTER	IQUANT	3	Vch Filter
ACHRANGE	IQUANT	2	Ach Range
ACHOFFSETENABLE	TOGGLE	F	Ach Offset Enable
ACHOFFSET	QUANT	0	Ach Offset (V)
ACHFILTER	IQUANT	3	Ach Filter
IERANGELOWERLIMIT	IQUANT	1	I/E Range Lower Limit
IERANGEMODE	TOGGLE	F	I/E AutoRange
IERANGE	IQUANT	8	I/E Range
POSFEEDENABLE	TOGGLE	F	Positive Feedback IR Comp
POSFEEDRESISTANCE	QUANT	0	Positive Feedback Resistance (ohm)
ACHSELECT	IQUANT	0	Ach Select
CABLEID	IQUANT	14	Cable ID
DCCALDATE	LABEL	2/27/2020	DC Calibration Date
ACCALDATE	LABEL	2/27/2020	AC Calibration Date
THERMOSELECT	IQUANT	1	Thermo Select
FRAMEWORKVERSION	QUANT	6.33	Framework Version
INSTRUMENTVERSION	LABEL	3.50	Instrument Version
ZCURVE	TABLE
	Pt	Time	Freq	Zreal	Zimag	Zsig	Zmod	Zphz	Idc	Vdc	IERange
	#	s	Hz	ohm	ohm	V	ohm	°	A	V	#
	0	1	1000078	2125.356	-2136.607	1	3013.674	-45.15124	5.528656E-008	-0.060068	8
	1	1	794390.6	2564.82	-2239.058	1	3404.656	-41.12059	3.909328E-008	-0.0603536	8
	2	2	630984.4	3026.034	-2264.954	1	3779.801	-36.81446	4.601474E-008	-0.0604715	8
	3	2	501234.4	3475.505	-2218.225	1	4123.063	-32.54787	5.305793E-008	-0.0605542	8
	4	2	398109.4	3891.156	-2104.452	1	4423.779	-28.40583	3.47045E-008	-0.0606047	8
	5	3	316265.6	4247.182	-1951.195	1	4673.94	-24.67449	2.677059E-008	-0.0605941	8
	6	3	251203.1	4555.924	-1781.11	1	4891.707	-21.3527	5.207386E-008	-0.0606118	8
	7	3	199546.9	4800.615	-1613.951	1	5064.656	-18.58247	4.238983E-008	-0.0606215	8
	8	4	158578.1	4996.572	-1453.242	1	5203.618	-16.21696	4.952152E-008	-0.060606	8
	9	4	125953.1	5207.179	-1235.174	1	5351.669	-13.34427	-3.029986E-010	-0.0606665	7
	10	4	100078.1	5317.234	-1136.305	1	5437.294	-12.06279	2.810864E-009	-0.0606668	7
	11	5	79453.13	5427.851	-1071.714	1	5532.643	-11.16922	2.08572E-009	-0.0606794	7
	12	5	63140.62	5528.139	-1031.726	1	5623.591	-10.57159	1.566949E-009	-0.0606821	7
	13	5	50203.12	5622.915	-1015.63	1	5713.902	-10.23857	2.298281E-009	-0.0606886	7
	14	6	39890.62	5714.879	-1022.818	1	5805.687	-10.14705	1.621642E-009	-0.0607	7
	15	6	31640.63	5808.613	-1056.362	1	5903.887	-10.30724	1.706013E-009	-0.0606892	7
	16	6	25171.88	5904.939	-1113.51	1	6009.011	-10.67901	3.022404E-009	-0.0606959	7
	17	7	20015.62	6008.792	-1197.723	1	6127	-11.27293	4.00645E-009	-0.0606877	7
	18	7	15890.62	6121.589	-1307.915	1	6259.752	-12.06026	2.591573E-009	-0.0606988	7
	19	7	12609.37	6247.359	-1449.292	1	6413.263	-13.06072	3.391663E-009	-0.0606926	7
	20	7	10078.13	6382.625	-1619.256	1	6584.823	-14.23546	4.679353E-009	-0.0606909	7
	21	8	8015.625	6536.415	-1825.776	1	6786.618	-15.60631	2.800977E-009	-0.0607018	7
	22	8	6328.125	6717.67	-2083.794	1	7033.441	-17.23368	3.69015E-009	-0.060699	7
	23	8	5015.625	6920.776	-2388.891	1	7321.471	-19.04349	4.251484E-009	-0.0606965	7
	24	9	3984.375	7149.62	-2741.7	1	7657.283	-20.98057	2.878159E-009	-0.0607066	7
	25	9	3170.956	7410.59	-3158.434	1	8055.591	-23.08397	3.216965E-009	-0.0607058	7
	26	9	2527.573	7708.084	-3641.143	1	8524.816	-25.2851	1.913023E-009	-0.0607078	7
	27	10	1976.103	8079.663	-4253.22	1	9130.763	-27.76279	2.646118E-009	-0.0607076	7
	28	10	1577.524	8488.551	-4904.234	1	9803.42	-30.01704	7.983342E-011	-0.0606456	6
	29	10	1265.625	8931.322	-5663.27	1	10575.5	-32.37841	-1.737946E-010	-0.0606488	6
	30	11	998.264	9479.282	-6617.378	1	11560.56	-34.91845	3.156084E-010	-0.0606479	6
	31	11	796.875	10079.84	-7680.536	1	12672.56	-37.30632	3.259569E-010	-0.0606526	6
	32	11	627.7902	10819.35	-8999.531	1	14073.02	-39.75368	2.431957E-010	-0.0606481	6
	33	12	505.5147	11588.69	-10401.89	1	15572.31	-41.91083	3.403294E-010	-0.0606428	6
	34	12	397.9953	12564.45	-12218.85	1	17526.15	-44.20107	5.612992E-010	-0.0606354	6
	35	12	315.5048	13663.88	-14308.72	1	19784.87	-46.32058	6.063571E-010	-0.0606344	6
	36	13	252.4038	14886.4	-16678.95	1	22356.04	-48.25024	5.784294E-010	-0.0606399	6
	37	13	198.6229	16422.68	-19700.78	1	25648.1	-50.18523	5.302004E-010	-0.0606397	6
	38	13	158.3615	18138.59	-23096.84	1	29367.88	-51.85648	5.446655E-010	-0.0606401	6
	39	14	125.558	20241.81	-27221.73	1	33922.76	-53.36587	4.765977E-010	-0.0606338	6
	40	14	100.4464	22682.33	-31889.85	1	39133.75	-54.57685	4.107112E-010	-0.0606376	6
	41	14	79.00281	25891.24	-37800.86	1	45817.7	-55.59127	4.37087E-010	-0.0606366	6
	42	15	63.3446	29497.53	-44115.23	1	53068.42	-56.23144	4.958912E-010	-0.0606386	6
	43	15	49.86702	34259.82	-51995.33	1	62267.57	-56.61903	3.270357E-010	-0.0606371	6
	44	15	39.72458	39717.52	-60546.11	1	72410.72	-56.7356	4.143896E-010	-0.0606338	6
	45	16	31.6723	46179.07	-70210.96	1	84036.22	-56.66632	2.013762E-010	-0.0606376	6
	46	16	24.93351	54214.99	-81776.88	1	98115.9	-56.45712	3.294636E-010	-0.0606397	6
	47	16	19.86229	63041.45	-94273.96	1	113409.9	-56.22916	-1.116083E-009	-0.0606362	5
	48	17	15.83615	73283.74	-108423.7	1	130867.1	-55.94518	1.254393E-009	-0.060636	5
	49	17	12.40079	86187.08	-125822.5	1	152510.7	-55.58926	1.911003E-011	-0.0606402	5
	50	17	9.93114	99893.2	-144062.2	1	175307.1	-55.26242	5.068238E-010	-0.0606455	5
	51	17	7.944915	115583.4	-164528	1	201069.6	-54.91139	1.376974E-009	-0.060645	5
	52	18	6.317385	134909.7	-188684.1	1	231953.2	-54.43512	-2.005296E-010	-0.0606249	5
	53	19	5.008013	157798.3	-216104.4	1	267584.4	-53.86329	-1.967742E-010	-0.0606433	5
	54	20	3.945707	184566.2	-247055.5	1	308384.7	-53.23793	4.34644E-010	-0.0606386	5
	55	20	3.158693	213813.7	-279454.8	1	351868.3	-52.58002	-1.028701E-010	-0.060636	5
	56	22	2.504006	247580.1	-316713.2	1	401998.9	-51.98465	3.52589E-011	-0.0606508	5
	57	23	1.998082	285101.9	-357083.5	1	456937.3	-51.3955	3.157759E-010	-0.0606038	5
	58	24	1.584686	326851.2	-403854.6	1	519548.1	-51.01575	2.422455E-010	-0.0606339	5
	59	26	1.266892	373665.3	-453692.1	1	587760.4	-50.52479	1.434609E-010	-0.0606721	5
	60	29	0.999041	430172.2	-514601.5	1	670718.2	-50.10664	8.07143E-011	-0.0606923	5
