EXPLAIN
TAG	EISPOT
TITLE	LABEL	Potentiostatic EIS	Test &Identifier
DATE	LABEL	2/11/2020	Date
TIME	LABEL	12:24:07	Time
NOTES	NOTES	6	&Notes...
	
	
	
	
	
	
PSTAT	PSTAT	REF600-11020	Potentiostat
VDC	POTEN	0.00000E+000	T	DC &Voltage (V)
FREQINIT	QUANT	1.00000E+006	Initial Fre&q. (Hz)
FREQFINAL	QUANT	1.00000E+000	Final Fre&q. (Hz)
PTSPERDEC	QUANT	1.00000E+001	Points/&decade
VAC	QUANT	2.50000E+001	AC &Voltage (mV rms)
AREA	QUANT	4.00000E-005	&Area (cm^2)
CONDIT	TWOPARAM	F	5.00000E+000	0.00000E+000	Conditionin&g	Time(s)	E(V)
DELAY	TWOPARAM	F	5.00000E+000	0.00000E+000	Init. De&lay	Time(s)	Stab.(mV/s)
SPEED	SELECTOR	0	&Optimize for:
ZGUESS	QUANT	1.00000E+003	E&stimated Z (ohms)
OCVCURVE	TABLE	39
	Pt	T	Vf	Vm	Ach	Over
	#	s	V vs. Ref.	V	V	bits
	0	0.258333	9.06559E-002	9.06559E-002	5.69138E-004	...........
	1	0.516667	9.06571E-002	9.07180E-002	5.73771E-004	...........
	2	0.775	9.06645E-002	9.07842E-002	5.70504E-004	...........
	3	1.03333	9.06859E-002	9.08463E-002	5.72671E-004	...........
	4	1.29167	9.07238E-002	9.08371E-002	5.67538E-004	...........
	5	1.55	9.07695E-002	9.08724E-002	5.72571E-004	...........
	6	1.80833	9.08104E-002	9.08596E-002	5.74871E-004	...........
	7	2.06667	9.08396E-002	9.08891E-002	5.78471E-004	...........
	8	2.325	9.08584E-002	9.08942E-002	5.73937E-004	...........
	9	2.58333	9.08714E-002	9.08938E-002	5.72071E-004	...........
	10	2.84167	9.08816E-002	9.08969E-002	5.71204E-004	...........
	11	3.1	9.08893E-002	9.09155E-002	5.69604E-004	...........
	12	3.35833	9.08957E-002	9.09151E-002	5.66938E-004	...........
	13	3.61667	9.09025E-002	9.09383E-002	5.65904E-004	...........
	14	3.875	9.09112E-002	9.09538E-002	5.70204E-004	...........
	15	4.13333	9.09221E-002	9.09508E-002	5.67438E-004	...........
	16	4.39167	9.09337E-002	9.09455E-002	5.69171E-004	...........
	17	4.65	9.09427E-002	9.09429E-002	5.67238E-004	...........
	18	4.90833	9.09469E-002	9.09510E-002	5.68238E-004	...........
	19	5.16667	9.09478E-002	9.09495E-002	5.73171E-004	...........
	20	5.425	9.09488E-002	9.09971E-002	5.71304E-004	...........
	21	5.68333	9.09540E-002	9.10000E-002	5.64238E-004	...........
	22	5.94167	9.09650E-002	9.09777E-002	5.63504E-004	...........
	23	6.2	9.09766E-002	9.09525E-002	5.65438E-004	...........
	24	6.45833	9.09808E-002	9.09543E-002	5.67171E-004	...........
	25	6.71667	9.09753E-002	9.09342E-002	5.66538E-004	...........
	26	6.975	9.09644E-002	9.09481E-002	5.68404E-004	...........
	27	7.23333	9.09544E-002	9.09749E-002	5.69204E-004	...........
	28	7.49167	9.09508E-002	9.09783E-002	5.65038E-004	...........
	29	7.75	9.09553E-002	9.09884E-002	5.69238E-004	...........
	30	8.00833	9.09648E-002	9.09749E-002	5.64438E-004	...........
	31	8.26667	9.09736E-002	9.09718E-002	5.69404E-004	...........
	32	8.525	9.09777E-002	9.09638E-002	5.69671E-004	...........
	33	8.78333	9.09763E-002	9.09517E-002	5.70304E-004	...........
	34	9.04167	9.09710E-002	9.09509E-002	5.66838E-004	...........
	35	9.3	9.09639E-002	9.09463E-002	5.69771E-004	...........
	36	9.5583	9.09569E-002	9.09403E-002	5.70571E-004	...........
	37	9.8167	9.09510E-002	9.09346E-002	5.67004E-004	...........
	38	10.075	9.09457E-002	9.09307E-002	5.69938E-004	...........
EOC	QUANT	0.0909457	Open Circuit (V)
PSTATMODEL	IQUANT	4	Pstat Model
PSTATSECTION	LABEL	REF600-11020	Pstat Section
PSTATSERIALNO	LABEL	11020	Pstat Serial Number
CTRLMODE	IQUANT	1	Control Mode
IESTAB	IQUANT	0	I/E Stability
CASPEED	IQUANT	1	Control Amp Speed
CONVENTION	IQUANT	1	Current Convention
ICHRANGE	IQUANT	2	Ich Range
ICHRANGEMODE	TOGGLE	F	Ich Auto Range
ICHOFFSETENABLE	TOGGLE	T	Ich Offset Enable
ICHOFFSET	QUANT	0	Ich Offset (V)
ICHFILTER	IQUANT	3	Ich Filter
VCHRANGE	IQUANT	2	Vch Range
VCHRANGEMODE	TOGGLE	F	Vch Auto Range
VCHOFFSETENABLE	TOGGLE	T	Vch Offset Enable
VCHOFFSET	QUANT	0	Vch Offset (V)
VCHFILTER	IQUANT	3	Vch Filter
ACHRANGE	IQUANT	2	Ach Range
ACHOFFSETENABLE	TOGGLE	F	Ach Offset Enable
ACHOFFSET	QUANT	0	Ach Offset (V)
ACHFILTER	IQUANT	3	Ach Filter
IERANGELOWERLIMIT	IQUANT	1	I/E Range Lower Limit
IERANGEMODE	TOGGLE	F	I/E AutoRange
IERANGE	IQUANT	8	I/E Range
POSFEEDENABLE	TOGGLE	F	Positive Feedback IR Comp
POSFEEDRESISTANCE	QUANT	0	Positive Feedback Resistance (ohm)
ACHSELECT	IQUANT	0	Ach Select
CABLEID	IQUANT	14	Cable ID
DCCALDATE	LABEL	1/27/2020	DC Calibration Date
ACCALDATE	LABEL	1/27/2020	AC Calibration Date
THERMOSELECT	IQUANT	1	Thermo Select
FRAMEWORKVERSION	QUANT	6.33	Framework Version
INSTRUMENTVERSION	LABEL	3.50	Instrument Version
ZCURVE	TABLE
	Pt	Time	Freq	Zreal	Zimag	Zsig	Zmod	Zphz	Idc	Vdc	IERange
	#	s	Hz	ohm	ohm	V	ohm	°	A	V	#
	0	1	1000078	2085.56	-1810.53	1	2761.808	-40.96212	5.656009E-007	0.0935076	8
	1	1	794390.6	2444.749	-1852.702	1	3067.458	-37.15591	9.752486E-008	0.0927726	8
	2	1	630984.4	2810.673	-1800.705	1	3338.026	-32.64634	-4.038146E-006	0.0935835	8
	3	2	501234.4	3146.64	-1710.885	1	3581.686	-28.53373	2.479625E-006	0.0923277	8
	4	2	398109.4	3452.612	-1601.738	1	3806.06	-24.88756	-1.956274E-006	0.0928466	8
	5	2	316265.6	3702.689	-1480.188	1	3987.588	-21.78956	-1.14368E-006	0.0927782	8
	6	3	251203.1	3918.729	-1338.464	1	4141.005	-18.85789	-5.21728E-007	0.0926493	8
	7	3	199546.9	4079.23	-1228.953	1	4260.334	-16.76603	-9.843305E-007	0.0929197	8
	8	3	158578.1	4205.378	-1090.607	1	4344.494	-14.53858	7.699799E-007	0.0924395	8
	9	4	125953.1	4365.437	-946.4929	1	4466.865	-12.23325	-4.138429E-007	0.0934131	7
	10	4	100078.1	4485.01	-877.7192	1	4570.088	-11.07288	6.360473E-008	0.0924992	7
	11	4	79453.13	4576.479	-818.6712	1	4649.127	-10.14217	4.078602E-008	0.0923816	7
	12	5	63140.62	4658.026	-773.7581	1	4721.854	-9.431446	-1.157579E-008	0.0926334	7
	13	5	50203.12	4736.476	-743.1946	1	4794.428	-8.9175	-7.070488E-009	0.0925498	7
	14	5	39890.62	4813.201	-727.5953	1	4867.885	-8.596126	6.417983E-008	0.0924921	7
	15	5	31640.63	4886.726	-726.2179	1	4940.393	-8.45288	-5.512705E-008	0.092584	7
	16	6	25171.88	4961.863	-733.9784	1	5015.855	-8.414399	-1.779173E-009	0.0925409	7
	17	6	20015.62	5035.606	-756.1019	1	5092.055	-8.539232	-3.867326E-008	0.0925349	7
	18	6	15890.62	5112.432	-792.1183	1	5173.434	-8.807355	3.384757E-008	0.0924821	7
	19	7	12609.37	5187.545	-844.9349	1	5255.905	-9.250963	-6.17665E-009	0.0925447	7
	20	7	10078.13	5264.693	-909.6172	1	5342.695	-9.80261	-9.103594E-009	0.0925545	7
	21	7	8015.625	5349.162	-995.998	1	5441.098	-10.54752	-3.077531E-008	0.092529	7
	22	8	6328.125	5435.92	-1110.956	1	5548.284	-11.55065	7.616271E-008	0.0923505	7
	23	8	5015.625	5528.199	-1253.722	1	5668.58	-12.77778	-3.445393E-008	0.0925489	7
	24	8	3984.375	5621.176	-1431.267	1	5800.53	-14.28514	-5.339715E-008	0.09258	7
	25	9	3170.956	5722.165	-1648.867	1	5954.992	-16.07457	-2.908133E-008	0.0926127	7
	26	9	2527.573	5827.204	-1914.37	1	6133.606	-18.18654	1.235397E-007	0.092324	7
	27	9	1976.103	5956.077	-2271.97	1	6374.692	-20.87956	-5.306028E-008	0.0925835	7
	28	10	1577.524	6081.967	-2684.051	1	6647.891	-23.81249	4.08025E-008	0.092371	7
	29	10	1265.625	6227.289	-3176.821	1	6990.802	-27.02818	-3.324474E-008	0.0925458	7
	30	10	998.264	6403.655	-3832.688	1	7462.996	-30.90118	-7.162079E-010	0.0924449	7
	31	11	796.875	6611.909	-4602.687	1	8056.182	-34.84258	-2.191338E-008	0.0925021	7
	32	11	627.7902	6882.171	-5608.914	1	8878.299	-39.17975	3.54441E-008	0.0924692	7
	33	11	505.5147	7197.6	-6718.848	1	9846.24	-43.02969	-1.313373E-009	0.0923989	6
	34	12	397.9953	7624.407	-8213.043	1	11206.5	-47.12855	4.376508E-010	0.0925108	6
	35	12	315.5048	8165.089	-9976.44	1	12891.78	-50.70182	1.540193E-009	0.0925124	6
	36	12	252.4038	8828.959	-12014.72	1	14909.87	-53.68988	4.092683E-010	0.0925089	6
	37	12	198.6229	9743.73	-14642.89	1	17588.48	-56.35925	1.23516E-009	0.092508	6
	38	13	158.3615	10853.68	-17612.72	1	20688.41	-58.35693	1.575606E-010	0.0925058	6
	39	13	125.558	12316.73	-21218.54	1	24534.23	-59.86612	1.158932E-009	0.0925033	6
	40	13	100.4464	14062.5	-25294.66	1	28940.86	-60.92824	-6.969561E-011	0.0925016	6
	41	14	79.00281	16563.35	-30392.84	1	34613.14	-61.41071	7.543679E-010	0.0924976	6
	42	14	63.3446	19349.98	-36337.61	1	41168.48	-61.96445	8.222932E-010	0.0924962	6
	43	14	49.86702	23041	-43176.46	1	48939.71	-61.91351	1.59497E-009	0.0925006	6
	44	15	39.72458	27448.15	-50500.46	1	57477.8	-61.47491	1.536758E-009	0.0925001	6
	45	15	31.6723	33005.46	-58958.84	1	67568.52	-60.75967	1.503272E-009	0.0924999	6
	46	15	24.93351	39773.27	-69260.44	1	79868.15	-60.13312	-2.622899E-010	0.0924995	6
	47	16	19.86229	47752.67	-80247.71	1	93381.01	-59.24457	-6.587166E-010	0.0924989	6
	48	16	15.83615	57043.75	-90992.84	1	107395	-57.91625	-1.48313E-009	0.0924967	5
	49	16	12.40079	69102.16	-106293	1	126780.5	-56.97168	-1.532091E-009	0.0924975	5
	50	17	9.93114	81571.8	-120295.2	1	145344.1	-55.85893	7.740238E-010	0.0925	5
	51	17	7.944915	95232.2	-136074.8	1	166088.9	-55.01368	6.865451E-010	0.0924993	5
	52	18	6.317385	110373	-154005.6	1	189472.8	-54.37152	4.951366E-010	0.0924907	5
	53	19	5.008013	127475.1	-174882.6	1	216411.3	-53.91102	5.787282E-010	0.0924997	5
	54	20	3.945707	146759.8	-199328.2	1	247528.2	-53.63681	-3.934517E-011	0.0924909	5
	55	21	3.158693	166684.5	-225868.2	1	280713.7	-53.57369	6.345908E-011	0.092481	5
	56	23	2.504006	189790.7	-258369.6	1	320586	-53.7001	3.423254E-010	0.0924859	5
	57	24	1.998082	214426.6	-294954.2	1	364659.8	-53.9835	6.090673E-011	0.0924617	5
	58	26	1.584686	244087.2	-340519.2	1	418965.3	-54.3667	-5.454171E-011	0.0924426	5
	59	28	1.266892	275454.2	-391771.2	1	478915.1	-54.88896	5.937438E-012	0.0924646	5
	60	30	0.999041	314509.7	-454817	1	552969.1	-55.33582	4.002991E-011	0.0924901	5
