EXPLAIN
TAG	EISPOT
TITLE	LABEL	Potentiostatic EIS	Test &Identifier
DATE	LABEL	2/6/2020	Date
TIME	LABEL	17:35:45	Time
NOTES	NOTES	6	&Notes...
	
	
	
	
	
	
PSTAT	PSTAT	REF600-11020	Potentiostat
VDC	POTEN	0.00000E+000	T	DC &Voltage (V)
FREQINIT	QUANT	1.00000E+006	Initial Fre&q. (Hz)
FREQFINAL	QUANT	1.00000E+000	Final Fre&q. (Hz)
PTSPERDEC	QUANT	1.00000E+001	Points/&decade
VAC	QUANT	2.50000E+001	AC &Voltage (mV rms)
AREA	QUANT	1.60000E-004	&Area (cm^2)
CONDIT	TWOPARAM	F	5.00000E+000	0.00000E+000	Conditionin&g	Time(s)	E(V)
DELAY	TWOPARAM	F	5.00000E+000	0.00000E+000	Init. De&lay	Time(s)	Stab.(mV/s)
SPEED	SELECTOR	0	&Optimize for:
ZGUESS	QUANT	1.00000E+003	E&stimated Z (ohms)
OCVCURVE	TABLE	39
	Pt	T	Vf	Vm	Ach	Over
	#	s	V vs. Ref.	V	V	bits
	0	0.258333	3.99825E-002	3.99825E-002	5.80971E-004	...........
	1	0.516667	3.99834E-002	4.00318E-002	5.79471E-004	...........
	2	0.775	3.99900E-002	4.01218E-002	5.79171E-004	...........
	3	1.03333	4.00110E-002	4.01824E-002	5.81471E-004	...........
	4	1.29167	4.00513E-002	4.02206E-002	5.80504E-004	...........
	5	1.55	4.01046E-002	4.02290E-002	5.81104E-004	...........
	6	1.80833	4.01574E-002	4.02546E-002	5.77037E-004	...........
	7	2.06667	4.01993E-002	4.02696E-002	5.80537E-004	...........
	8	2.325	4.02293E-002	4.02882E-002	5.80504E-004	...........
	9	2.58333	4.02512E-002	4.02947E-002	5.77571E-004	...........
	10	2.84167	4.02683E-002	4.03007E-002	5.75604E-004	...........
	11	3.1	4.02823E-002	4.03258E-002	5.81171E-004	...........
	12	3.35833	4.02946E-002	4.03392E-002	5.80871E-004	...........
	13	3.61667	4.03076E-002	4.03551E-002	5.83804E-004	...........
	14	3.875	4.03219E-002	4.03547E-002	5.78337E-004	...........
	15	4.13333	4.03355E-002	4.03530E-002	5.76871E-004	...........
	16	4.39167	4.03460E-002	4.03606E-002	5.81371E-004	...........
	17	4.65	4.03525E-002	4.03648E-002	5.77804E-004	...........
	18	4.90833	4.03568E-002	4.03731E-002	5.75538E-004	...........
	19	5.16667	4.03608E-002	4.03726E-002	5.78671E-004	...........
	20	5.425	4.03652E-002	4.03756E-002	5.78004E-004	...........
	21	5.68333	4.03694E-002	4.03803E-002	5.79271E-004	...........
	22	5.94167	4.03730E-002	4.03842E-002	5.70604E-004	...........
	23	6.2	4.03765E-002	4.03909E-002	5.73871E-004	...........
	24	6.45833	4.03809E-002	4.04227E-002	5.75371E-004	...........
	25	6.71667	4.03876E-002	4.04019E-002	5.74004E-004	...........
	26	6.975	4.03955E-002	4.03773E-002	5.73838E-004	...........
	27	7.23333	4.03994E-002	4.03744E-002	5.71438E-004	...........
	28	7.49167	4.03961E-002	4.03832E-002	5.76404E-004	...........
	29	7.75	4.03887E-002	4.03688E-002	5.74171E-004	...........
	30	8.00833	4.03818E-002	4.03691E-002	5.82971E-004	...........
	31	8.26667	4.03767E-002	4.03695E-002	5.79337E-004	...........
	32	8.525	4.03729E-002	4.03650E-002	5.85137E-004	...........
	33	8.78333	4.03707E-002	4.03917E-002	5.74971E-004	...........
	34	9.04167	4.03712E-002	4.03891E-002	5.77771E-004	...........
	35	9.3	4.03754E-002	4.03954E-002	5.74738E-004	...........
	36	9.5583	4.03816E-002	4.03774E-002	5.82871E-004	...........
	37	9.8167	4.03860E-002	4.03789E-002	5.84371E-004	...........
	38	10.075	4.03865E-002	4.03802E-002	5.77837E-004	...........
EOC	QUANT	0.0403865	Open Circuit (V)
PSTATMODEL	IQUANT	4	Pstat Model
PSTATSECTION	LABEL	REF600-11020	Pstat Section
PSTATSERIALNO	LABEL	11020	Pstat Serial Number
CTRLMODE	IQUANT	1	Control Mode
IESTAB	IQUANT	0	I/E Stability
CASPEED	IQUANT	1	Control Amp Speed
CONVENTION	IQUANT	1	Current Convention
ICHRANGE	IQUANT	2	Ich Range
ICHRANGEMODE	TOGGLE	F	Ich Auto Range
ICHOFFSETENABLE	TOGGLE	T	Ich Offset Enable
ICHOFFSET	QUANT	0	Ich Offset (V)
ICHFILTER	IQUANT	3	Ich Filter
VCHRANGE	IQUANT	2	Vch Range
VCHRANGEMODE	TOGGLE	F	Vch Auto Range
VCHOFFSETENABLE	TOGGLE	T	Vch Offset Enable
VCHOFFSET	QUANT	0	Vch Offset (V)
VCHFILTER	IQUANT	3	Vch Filter
ACHRANGE	IQUANT	2	Ach Range
ACHOFFSETENABLE	TOGGLE	F	Ach Offset Enable
ACHOFFSET	QUANT	0	Ach Offset (V)
ACHFILTER	IQUANT	3	Ach Filter
IERANGELOWERLIMIT	IQUANT	1	I/E Range Lower Limit
IERANGEMODE	TOGGLE	F	I/E AutoRange
IERANGE	IQUANT	7	I/E Range
POSFEEDENABLE	TOGGLE	F	Positive Feedback IR Comp
POSFEEDRESISTANCE	QUANT	0	Positive Feedback Resistance (ohm)
ACHSELECT	IQUANT	0	Ach Select
CABLEID	IQUANT	14	Cable ID
DCCALDATE	LABEL	1/27/2020	DC Calibration Date
ACCALDATE	LABEL	1/27/2020	AC Calibration Date
THERMOSELECT	IQUANT	1	Thermo Select
FRAMEWORKVERSION	QUANT	6.33	Framework Version
INSTRUMENTVERSION	LABEL	3.50	Instrument Version
ZCURVE	TABLE
	Pt	Time	Freq	Zreal	Zimag	Zsig	Zmod	Zphz	Idc	Vdc	IERange
	#	s	Hz	ohm	ohm	V	ohm	°	A	V	#
	0	1	1000078	2314.047	-1597.034	1	2811.642	-34.6114	-7.735806E-007	0.0430628	8
	1	2	794390.6	2633.382	-1528.395	1	3044.781	-30.13055	1.132936E-006	0.0423174	8
	2	2	630984.4	2905.202	-1415.059	1	3231.5	-25.96967	-2.289045E-006	0.0427662	8
	3	2	501234.4	3147.933	-1288.017	1	3401.246	-22.25256	6.968985E-008	0.0420751	8
	4	3	398109.4	3330.231	-1146.948	1	3522.205	-19.00395	1.823726E-007	0.0421072	8
	5	3	316265.6	3480.575	-1011.707	1	3624.632	-16.20768	-9.191215E-009	0.0420225	8
	6	3	251203.1	3594.219	-881.2116	1	3700.668	-13.77574	-6.414795E-008	0.0420143	8
	7	4	199546.9	3691.229	-782.6416	1	3773.287	-11.97099	-2.404119E-007	0.0419854	8
	8	4	158578.1	3764.465	-697.4521	1	3828.53	-10.49632	-7.517402E-008	0.0420212	8
	9	4	125953.1	3838.479	-599.0358	1	3884.94	-8.870074	4.06134E-007	0.0410335	7
	10	5	100078.1	3886.204	-558.6783	1	3926.156	-8.180758	-4.523272E-009	0.0420442	7
	11	5	79453.13	3929.189	-541.7058	1	3966.355	-7.849718	-5.795334E-009	0.0420389	7
	12	5	63140.62	3972.251	-538.8862	1	4008.638	-7.725733	-1.661711E-008	0.0420085	7
	13	6	50203.12	4017.152	-551.0569	1	4054.772	-7.810857	-3.886545E-008	0.0420823	7
	14	6	39890.62	4064.027	-576.5953	1	4104.727	-8.075107	-2.077239E-008	0.042058	7
	15	6	31640.63	4115.16	-618.2623	1	4161.345	-8.544223	-1.652336E-008	0.042007	7
	16	7	25171.88	4171.938	-673.1719	1	4225.9	-9.166076	-2.069423E-008	0.0420573	7
	17	7	20015.62	4235.126	-744.7291	1	4300.107	-9.97326	-3.866699E-008	0.0420781	7
	18	7	15890.62	4307.053	-832.6367	1	4386.797	-10.94141	-1.552947E-008	0.0420021	7
	19	7	12609.37	4386.85	-940.5114	1	4486.537	-12.10065	6.532527E-008	0.0419649	7
	20	8	10078.13	4477.162	-1061.835	1	4601.355	-13.34215	-1.745004E-008	0.0420023	7
	21	8	8015.625	4579.597	-1212.019	1	4737.267	-14.82382	-3.880608E-008	0.042073	7
	22	8	6328.125	4698.87	-1391.795	1	4900.661	-16.49917	-1.576076E-008	0.0419969	7
	23	9	5015.625	4833.512	-1603.395	1	5092.515	-18.35195	-2.250074E-008	0.0420716	7
	24	9	3984.375	4981.881	-1844.535	1	5312.386	-20.31701	6.063091E-008	0.0418871	7
	25	9	3170.956	5148.819	-2132.761	1	5573.061	-22.50048	5.801551E-009	0.0420283	7
	26	10	2527.573	5333.335	-2464.427	1	5875.19	-24.80071	7.154851E-009	0.0419666	7
	27	10	1976.103	5560.455	-2895.514	1	6269.184	-27.5075	3.823097E-008	0.0419573	7
	28	10	1577.524	5794.593	-3363.107	1	6699.836	-30.13033	6.169006E-008	0.0418826	7
	29	11	1265.625	6050.591	-3908.888	1	7203.406	-32.86383	7.827708E-009	0.0419672	7
	30	11	998.264	6365.164	-4612.812	1	7860.874	-35.93071	-1.534737E-008	0.0419918	7
	31	11	796.875	6695.455	-5416.768	1	8612.229	-38.97361	-5.309542E-009	0.0420124	7
	32	12	627.7902	7098.783	-6427.424	1	9576.25	-42.15852	-1.447449E-008	0.0419871	7
	33	12	505.5147	7511.107	-7543.163	1	10645	-45.122	-1.893059E-010	0.0420747	6
	34	12	397.9953	8032.417	-9029.033	1	12084.83	-48.34304	5.668421E-010	0.0420106	6
	35	13	315.5048	8618.339	-10788.26	1	13808.05	-51.37995	1.382201E-009	0.0420075	6
	36	13	252.4038	9269.592	-12833.77	1	15831.33	-54.16013	6.116432E-010	0.0420093	6
	37	13	198.6229	10091.78	-15510.67	1	18504.73	-56.95057	1.282229E-009	0.0420077	6
	38	13	158.3615	11015.67	-18594.01	1	21612.08	-59.35616	1.373567E-009	0.042009	6
	39	14	125.558	12156.05	-22434.63	1	25516.31	-61.54926	1.10511E-009	0.0420077	6
	40	14	100.4464	13521.26	-26886.64	1	30095.12	-63.30222	6.623152E-010	0.0420081	6
	41	14	79.00281	15319.1	-32738.93	1	36145.71	-64.92432	1.321889E-009	0.042007	6
	42	15	63.3446	16977.48	-39450.28	1	42948.34	-66.71531	3.212915E-010	0.0420031	6
	43	15	49.86702	19666.82	-47841.8	1	51726.41	-67.6534	3.030083E-010	0.0420012	6
	44	16	39.72458	23103.92	-57585.75	1	62047.64	-68.1389	1.111704E-009	0.0420079	6
	45	16	31.6723	27211.82	-69337.21	1	74485.78	-68.57217	1.476868E-009	0.042008	6
	46	16	24.93351	32331.32	-84027.89	1	90033.33	-68.95483	4.810215E-010	0.0420033	6
	47	17	19.86229	38672.84	-100899.5	1	108056.9	-69.02913	-4.684841E-010	0.0419965	5
	48	17	15.83615	45784.39	-120467	1	128874	-69.19033	-6.348168E-010	0.0419984	5
	49	17	12.40079	58772.92	-146663.3	1	158001.2	-68.16235	-7.600048E-010	0.0420066	5
	50	18	9.93114	70597.23	-174685.5	1	188411.8	-67.99444	8.167997E-010	0.0420054	5
	51	18	7.944915	87290.43	-206887	1	224548.1	-67.12399	6.473257E-010	0.0420043	5
	52	19	6.317385	109156.1	-245613.2	1	268776.7	-66.03856	3.827796E-010	0.0419929	5
	53	19	5.008013	137078.2	-290204	1	320949.8	-64.71624	4.616814E-010	0.0419997	5
	54	21	3.945707	172681.9	-340256.4	1	381567.1	-63.09198	6.249244E-011	0.041989	5
	55	22	3.158693	213441.1	-392373.2	1	446669.7	-61.45493	3.565507E-011	0.0419742	5
	56	24	2.504006	263965.9	-450974.5	1	522547.6	-59.65856	2.891812E-010	0.0419863	5
	57	25	1.998082	319261	-511405.8	1	602879.4	-58.02425	1.241531E-010	0.0419794	5
	58	26	1.584686	385908.6	-579596.1	1	696316.8	-56.3434	2.047778E-012	0.0419387	5
	59	28	1.266892	454958.1	-651380	1	794533.1	-55.06752	6.558713E-014	0.0419534	5
	60	31	0.999041	534840.4	-733443.7	1	907741.1	-53.8998	1.050295E-011	0.0419784	5
