EXPLAIN
TAG	EISPOT
TITLE	LABEL	Potentiostatic EIS	Test &Identifier
DATE	LABEL	6/19/2020	Date
TIME	LABEL	16:22:40	Time
NOTES	NOTES	1	&Notes...
	
PSTAT	PSTAT	REF600-10037	Potentiostat
VDC	POTEN	0.00000E+000	T	DC &Voltage (V)
FREQINIT	QUANT	1.00000E+006	Initial Fre&q. (Hz)
FREQFINAL	QUANT	1.00000E+000	Final Fre&q. (Hz)
PTSPERDEC	QUANT	1.00000E+001	Points/&decade
VAC	QUANT	1.00000E+002	AC &Voltage (mV rms)
AREA	QUANT	2.50000E-001	&Area (cm^2)
CONDIT	TWOPARAM	F	5.00000E+000	0.00000E+000	Conditionin&g	Time(s)	E(V)
DELAY	TWOPARAM	F	5.00000E+000	0.00000E+000	Init. De&lay	Time(s)	Stab.(mV/s)
SPEED	SELECTOR	0	&Optimize for:
ZGUESS	QUANT	1.00000E+003	E&stimated Z (ohms)
OCVCURVE	TABLE	39
	Pt	T	Vf	Vm	Ach	Over
	#	s	V vs. Ref.	V	V	bits
	0	0.258333	5.67209E-002	5.67209E-002	5.22321E-004	...........
	1	0.516667	5.67213E-002	5.67429E-002	5.25454E-004	...........
	2	0.775	5.67239E-002	5.67631E-002	5.25321E-004	...........
	3	1.03333	5.67311E-002	5.67794E-002	5.26821E-004	...........
	4	1.29167	5.67436E-002	5.67970E-002	5.23888E-004	...........
	5	1.55	5.67598E-002	5.68140E-002	5.20521E-004	...........
	6	1.80833	5.67775E-002	5.68365E-002	5.21921E-004	...........
	7	2.06667	5.67958E-002	5.68541E-002	5.15554E-004	...........
	8	2.325	5.68143E-002	5.68647E-002	5.17788E-004	...........
	9	2.58333	5.68325E-002	5.68789E-002	5.18788E-004	...........
	10	2.84167	5.68492E-002	5.68945E-002	5.19421E-004	...........
	11	3.1	5.68644E-002	5.69121E-002	5.15254E-004	...........
	12	3.35833	5.68788E-002	5.69065E-002	5.23087E-004	...........
	13	3.61667	5.68922E-002	5.69331E-002	5.20854E-004	...........
	14	3.875	5.69044E-002	5.69501E-002	5.22288E-004	...........
	15	4.13333	5.69169E-002	5.69608E-002	5.17921E-004	...........
	16	4.39167	5.69308E-002	5.69744E-002	5.23621E-004	...........
	17	4.65	5.69454E-002	5.69872E-002	5.22688E-004	...........
	18	4.90833	5.69598E-002	5.70073E-002	5.21021E-004	...........
	19	5.16667	5.69740E-002	5.70187E-002	5.20954E-004	...........
	20	5.425	5.69886E-002	5.70330E-002	5.18454E-004	...........
	21	5.68333	5.70032E-002	5.70418E-002	5.19954E-004	...........
	22	5.94167	5.70171E-002	5.70537E-002	5.23721E-004	...........
	23	6.2	5.70300E-002	5.70688E-002	5.17821E-004	...........
	24	6.45833	5.70422E-002	5.70832E-002	5.17954E-004	...........
	25	6.71667	5.70547E-002	5.70938E-002	5.21587E-004	...........
	26	6.975	5.70675E-002	5.71051E-002	5.16254E-004	...........
	27	7.23333	5.70803E-002	5.71148E-002	5.23288E-004	...........
	28	7.49167	5.70925E-002	5.71314E-002	5.17821E-004	...........
	29	7.75	5.71043E-002	5.71404E-002	5.22521E-004	...........
	30	8.00833	5.71162E-002	5.71567E-002	5.23254E-004	...........
	31	8.26667	5.71286E-002	5.71681E-002	5.20887E-004	...........
	32	8.525	5.71414E-002	5.71790E-002	5.20887E-004	...........
	33	8.78333	5.71540E-002	5.71878E-002	5.19321E-004	...........
	34	9.04167	5.71661E-002	5.72000E-002	5.26287E-004	...........
	35	9.3	5.71773E-002	5.72081E-002	5.23121E-004	...........
	36	9.5583	5.71879E-002	5.72205E-002	5.21888E-004	...........
	37	9.8167	5.71983E-002	5.72334E-002	5.22821E-004	...........
	38	10.075	5.72089E-002	5.72407E-002	5.20221E-004	...........
EOC	QUANT	0.0572089	Open Circuit (V)
PSTATMODEL	IQUANT	4	Pstat Model
PSTATSECTION	LABEL	REF600-10037	Pstat Section
PSTATSERIALNO	LABEL	10037	Pstat Serial Number
CTRLMODE	IQUANT	1	Control Mode
IESTAB	IQUANT	0	I/E Stability
CASPEED	IQUANT	1	Control Amp Speed
CONVENTION	IQUANT	1	Current Convention
ICHRANGE	IQUANT	2	Ich Range
ICHRANGEMODE	TOGGLE	F	Ich Auto Range
ICHOFFSETENABLE	TOGGLE	T	Ich Offset Enable
ICHOFFSET	QUANT	0	Ich Offset (V)
ICHFILTER	IQUANT	3	Ich Filter
VCHRANGE	IQUANT	2	Vch Range
VCHRANGEMODE	TOGGLE	F	Vch Auto Range
VCHOFFSETENABLE	TOGGLE	T	Vch Offset Enable
VCHOFFSET	QUANT	0	Vch Offset (V)
VCHFILTER	IQUANT	3	Vch Filter
ACHRANGE	IQUANT	2	Ach Range
ACHOFFSETENABLE	TOGGLE	F	Ach Offset Enable
ACHOFFSET	QUANT	0	Ach Offset (V)
ACHFILTER	IQUANT	3	Ach Filter
IERANGELOWERLIMIT	IQUANT	1	I/E Range Lower Limit
IERANGEMODE	TOGGLE	F	I/E AutoRange
IERANGE	IQUANT	8	I/E Range
POSFEEDENABLE	TOGGLE	F	Positive Feedback IR Comp
POSFEEDRESISTANCE	QUANT	0	Positive Feedback Resistance (ohm)
ACHSELECT	IQUANT	0	Ach Select
CABLEID	IQUANT	14	Cable ID
DCCALDATE	LABEL	6/8/2020	DC Calibration Date
ACCALDATE	LABEL	6/8/2020	AC Calibration Date
THERMOSELECT	IQUANT	1	Thermo Select
FRAMEWORKVERSION	QUANT	6.33	Framework Version
INSTRUMENTVERSION	LABEL	3.50	Instrument Version
ZCURVE	TABLE
	Pt	Time	Freq	Zreal	Zimag	Zsig	Zmod	Zphz	Idc	Vdc	IERange
	#	s	Hz	ohm	ohm	V	ohm	°	A	V	#
	0	2	1000078	2164.895	-1868.543	1	2859.759	-40.79782	5.150388E-008	0.0661981	8
	1	3	794390.6	2526.065	-1935.49	1	3182.315	-37.4596	8.9572E-008	0.0659283	8
	2	3	630984.4	2899.356	-1954.35	1	3496.533	-33.98247	6.278624E-008	0.0657563	8
	3	3	501234.4	3264.682	-1917.768	1	3786.289	-30.4312	4.403407E-008	0.0656867	8
	4	4	398109.4	3607.273	-1845.501	1	4051.949	-27.09453	3.047685E-008	0.0656496	8
	5	4	316265.6	3915.71	-1741.659	1	4285.576	-23.9789	4.759266E-008	0.0656276	8
	6	4	251203.1	4185.222	-1613.96	1	4485.638	-21.08829	4.159737E-008	0.0656943	8
	7	5	199546.9	4424.887	-1495.566	1	4670.797	-18.67472	6.352538E-008	0.0656826	8
	8	5	158578.1	4623.937	-1373.815	1	4823.708	-16.54718	9.104085E-008	0.0657323	8
	9	5	125953.1	4841.546	-1163.673	1	4979.428	-13.51477	3.740807E-008	0.0657252	7
	10	6	100078.1	4987.081	-1070.026	1	5100.582	-12.10976	1.985265E-008	0.0657009	7
	11	6	79453.13	5113.214	-1020.796	1	5214.114	-11.29003	2.219198E-008	0.0656782	7
	12	6	63140.62	5200.472	-972.224	1	5290.569	-10.58916	3.980118E-009	0.0656538	7
	13	7	50203.12	5311.535	-960.552	1	5397.69	-10.25073	1.559591E-008	0.0656308	7
	14	7	39890.62	5385.394	-955.235	1	5469.455	-10.05823	7.727547E-009	0.0656322	7
	15	7	31640.63	5476.349	-977.721	1	5562.943	-10.12266	1.350019E-008	0.0656315	7
	16	8	25171.88	5568.47	-1020.404	1	5661.191	-10.38406	1.128117E-008	0.0656298	7
	17	8	20015.62	5664.456	-1085.098	1	5767.452	-10.84436	1.017297E-009	0.0656257	7
	18	8	15890.62	5766.93	-1174.436	1	5885.302	-11.51088	-1.839354E-009	0.0656203	7
	19	8	12609.37	5877.535	-1290.021	1	6017.438	-12.37918	7.288453E-009	0.0656253	7
	20	9	10078.13	5996.532	-1431.152	1	6164.949	-13.4233	1.394723E-008	0.0656241	7
	21	9	8015.625	6149.247	-1606.865	1	6355.726	-14.64455	1.538642E-008	0.0656118	7
	22	9	6328.125	6283.808	-1821.916	1	6542.601	-16.16889	4.822526E-009	0.065621	7
	23	10	5015.625	6457.872	-2081.735	1	6785.111	-17.86704	2.586241E-009	0.065618	7
	24	10	3984.375	6652.4	-2380.427	1	7065.47	-19.68873	1.265485E-008	0.0656307	7
	25	10	3170.956	6875.994	-2736.458	1	7400.506	-21.7012	-1.172437E-010	0.0656188	7
	26	11	2527.573	7127.944	-3141.583	1	7789.552	-23.78509	4.273982E-009	0.065625	7
	27	11	1976.103	7446.773	-3666.029	1	8300.253	-26.21091	1.76112E-009	0.0656217	7
	28	11	1577.524	7784.061	-4229.143	1	8858.739	-28.51559	1.767351E-009	0.0656199	7
	29	12	1265.625	8166.94	-4867.638	1	9507.51	-30.79568	9.476196E-009	0.0656206	7
	30	12	998.264	8642.905	-5661.042	1	10331.85	-33.22452	1.606808E-008	0.0656163	7
	31	12	796.875	9161.296	-6559.05	1	11267.23	-35.60085	4.803645E-009	0.0656261	7
	32	13	627.7902	9803.31	-7658.213	1	12439.98	-37.99647	1.012799E-008	0.0656237	7
	33	13	505.5147	10479.79	-8821.585	1	13698.4	-40.08972	1.440962E-008	0.0656296	7
	34	13	397.9953	11322.72	-10319.03	1	15319.48	-42.34468	6.405345E-009	0.0656479	7
	35	14	315.5048	12272	-12014.4	1	17174.04	-44.39231	6.69705E-009	0.0656457	7
	36	14	252.4038	13310.5	-13914.62	1	19255.8	-46.27118	6.114958E-009	0.0656456	7
	37	14	198.6229	14578.42	-16311.99	1	21877.19	-48.21205	6.345439E-009	0.0656459	7
	38	15	158.3615	15931.18	-18985.11	1	24783.8	-49.9986	6.609998E-009	0.0656434	7
	39	15	125.558	17460.32	-22145.58	1	28200.88	-51.74656	7.84092E-009	0.0656317	7
	40	15	100.4464	19187.93	-25976.37	1	32294.71	-53.54787	7.437928E-009	0.065642	7
	41	16	79.00281	21273.83	-30816.81	1	37446.66	-55.38144	7.177725E-009	0.0656469	7
	42	16	63.3446	23489.67	-36182.44	1	43138.54	-57.00834	1.439792E-009	0.0656439	6
	43	16	49.86702	26334.98	-43237.65	1	50626.34	-58.65544	2.910405E-010	0.0656378	6
	44	17	39.72458	29606.78	-51360.78	1	59283.14	-60.03882	6.799175E-010	0.0656425	6
	45	17	31.6723	33623.53	-61082.15	1	69724.96	-61.1688	1.241684E-009	0.0656415	6
	46	17	24.93351	38969.49	-73403.48	1	83106.52	-62.03642	-6.31763E-010	0.0656407	6
	47	18	19.86229	45484.62	-87596.95	1	98702	-62.55946	-6.986465E-009	0.0570671	6
	48	18	15.83615	53747.86	-103979.6	1	117049.5	-62.6652	-5.115896E-009	0.0570626	6
	49	18	12.40079	64661.61	-124349.3	1	140156.6	-62.52557	-4.183748E-009	0.0570654	6
	50	19	9.93114	77153.82	-145696.6	1	164864.2	-62.09648	-3.577426E-009	0.057068	6
	51	19	7.944915	92550.31	-170031.1	1	193587.6	-61.43993	-3.140503E-009	0.0570667	6
	52	20	6.317385	111695.8	-198041.9	1	227368.7	-60.57696	-2.023561E-009	0.0570682	6
	53	20	5.008013	135090.5	-229868.4	1	266625.1	-59.55783	-1.508687E-009	0.0570697	6
	54	22	3.945707	163799.7	-266095.3	1	312469.3	-58.38488	-1.146951E-009	0.0570636	6
	55	23	3.158693	194956.2	-302953.9	1	360262.3	-57.23801	-9.235753E-010	0.0570684	6
	56	24	2.504006	232467.8	-344344.1	1	415468.6	-55.97659	-9.407627E-010	0.0570769	5
	57	26	1.998082	271473.3	-387603.9	1	473217.3	-54.99305	-7.096389E-010	0.0570777	5
	58	28	1.584686	315362	-437782.3	1	539542.9	-54.23243	-4.445975E-010	0.0570787	5
	59	30	1.266892	359855.4	-492276.5	1	609780.3	-53.8331	-3.071051E-010	0.0570753	5
	60	34	0.999041	408829.6	-559793.8	1	693188.8	-53.85853	-3.61482E-010	0.0570756	5
