EXPLAIN
TAG	EISPOT
TITLE	LABEL	Potentiostatic EIS	Test &Identifier
DATE	LABEL	2/6/2020	Date
TIME	LABEL	18:01:06	Time
NOTES	NOTES	6	&Notes...
	
	
	
	
	
	
PSTAT	PSTAT	REF600-11020	Potentiostat
VDC	POTEN	0.00000E+000	T	DC &Voltage (V)
FREQINIT	QUANT	1.00000E+006	Initial Fre&q. (Hz)
FREQFINAL	QUANT	1.00000E+000	Final Fre&q. (Hz)
PTSPERDEC	QUANT	1.00000E+001	Points/&decade
VAC	QUANT	2.50000E+001	AC &Voltage (mV rms)
AREA	QUANT	1.60000E-004	&Area (cm^2)
CONDIT	TWOPARAM	F	5.00000E+000	0.00000E+000	Conditionin&g	Time(s)	E(V)
DELAY	TWOPARAM	F	5.00000E+000	0.00000E+000	Init. De&lay	Time(s)	Stab.(mV/s)
SPEED	SELECTOR	0	&Optimize for:
ZGUESS	QUANT	1.00000E+003	E&stimated Z (ohms)
OCVCURVE	TABLE	39
	Pt	T	Vf	Vm	Ach	Over
	#	s	V vs. Ref.	V	V	bits
	0	0.258333	1.22508E-002	1.22508E-002	5.71171E-004	...........
	1	0.516667	1.22536E-002	1.23977E-002	5.72571E-004	...........
	2	0.775	1.22696E-002	1.24749E-002	5.75238E-004	...........
	3	1.03333	1.23112E-002	1.25538E-002	5.69071E-004	...........
	4	1.29167	1.23803E-002	1.27353E-002	5.64104E-004	...........
	5	1.55	1.24704E-002	1.27571E-002	5.67538E-004	...........
	6	1.80833	1.25711E-002	1.28313E-002	5.70238E-004	...........
	7	2.06667	1.26686E-002	1.29028E-002	5.70904E-004	...........
	8	2.325	1.27540E-002	1.29787E-002	5.68871E-004	...........
	9	2.58333	1.28267E-002	1.29038E-002	5.67471E-004	...........
	10	2.84167	1.28825E-002	1.29048E-002	5.65271E-004	...........
	11	3.1	1.29152E-002	1.30099E-002	5.62004E-004	...........
	12	3.35833	1.29339E-002	1.30756E-002	5.64538E-004	...........
	13	3.61667	1.29577E-002	1.30166E-002	5.72104E-004	...........
	14	3.875	1.29869E-002	1.28801E-002	5.68838E-004	...........
	15	4.13333	1.30008E-002	1.29974E-002	5.66371E-004	...........
	16	4.39167	1.29989E-002	1.33500E-002	5.68404E-004	...........
	17	4.65	1.30313E-002	1.38870E-002	5.67371E-004	...........
	18	4.90833	1.31522E-002	1.34316E-002	5.66104E-004	...........
	19	5.16667	1.33267E-002	1.32403E-002	5.70104E-004	...........
	20	5.425	1.34348E-002	1.28304E-002	5.68471E-004	...........
	21	5.68333	1.33984E-002	1.31345E-002	5.66371E-004	...........
	22	5.94167	1.32658E-002	1.31510E-002	5.69804E-004	...........
	23	6.2	1.31484E-002	1.31648E-002	5.68971E-004	...........
	24	6.45833	1.31043E-002	1.31594E-002	5.69804E-004	...........
	25	6.71667	1.31134E-002	1.31283E-002	5.61204E-004	...........
	26	6.975	1.31329E-002	1.30926E-002	5.70804E-004	...........
	27	7.23333	1.31388E-002	1.31127E-002	5.67004E-004	...........
	28	7.49167	1.31306E-002	1.31073E-002	5.70738E-004	...........
	29	7.75	1.31205E-002	1.31923E-002	5.70971E-004	...........
	30	8.00833	1.31217E-002	1.32302E-002	5.71704E-004	...........
	31	8.26667	1.31411E-002	1.32356E-002	5.70104E-004	...........
	32	8.525	1.31725E-002	1.32216E-002	5.72971E-004	...........
	33	8.78333	1.32031E-002	1.32851E-002	5.67904E-004	...........
	34	9.04167	1.32264E-002	1.32628E-002	5.68304E-004	...........
	35	9.3	1.32444E-002	1.32869E-002	5.68204E-004	...........
	36	9.5583	1.32581E-002	1.32224E-002	5.63904E-004	...........
	37	9.8167	1.32636E-002	1.32337E-002	5.62871E-004	...........
	38	10.075	1.32594E-002	1.32676E-002	5.65638E-004	...........
EOC	QUANT	0.0132594	Open Circuit (V)
PSTATMODEL	IQUANT	4	Pstat Model
PSTATSECTION	LABEL	REF600-11020	Pstat Section
PSTATSERIALNO	LABEL	11020	Pstat Serial Number
CTRLMODE	IQUANT	1	Control Mode
IESTAB	IQUANT	0	I/E Stability
CASPEED	IQUANT	1	Control Amp Speed
CONVENTION	IQUANT	1	Current Convention
ICHRANGE	IQUANT	2	Ich Range
ICHRANGEMODE	TOGGLE	F	Ich Auto Range
ICHOFFSETENABLE	TOGGLE	T	Ich Offset Enable
ICHOFFSET	QUANT	0	Ich Offset (V)
ICHFILTER	IQUANT	3	Ich Filter
VCHRANGE	IQUANT	2	Vch Range
VCHRANGEMODE	TOGGLE	F	Vch Auto Range
VCHOFFSETENABLE	TOGGLE	T	Vch Offset Enable
VCHOFFSET	QUANT	0	Vch Offset (V)
VCHFILTER	IQUANT	3	Vch Filter
ACHRANGE	IQUANT	2	Ach Range
ACHOFFSETENABLE	TOGGLE	F	Ach Offset Enable
ACHOFFSET	QUANT	0	Ach Offset (V)
ACHFILTER	IQUANT	3	Ach Filter
IERANGELOWERLIMIT	IQUANT	1	I/E Range Lower Limit
IERANGEMODE	TOGGLE	F	I/E AutoRange
IERANGE	IQUANT	7	I/E Range
POSFEEDENABLE	TOGGLE	F	Positive Feedback IR Comp
POSFEEDRESISTANCE	QUANT	0	Positive Feedback Resistance (ohm)
ACHSELECT	IQUANT	0	Ach Select
CABLEID	IQUANT	14	Cable ID
DCCALDATE	LABEL	1/27/2020	DC Calibration Date
ACCALDATE	LABEL	1/27/2020	AC Calibration Date
THERMOSELECT	IQUANT	1	Thermo Select
FRAMEWORKVERSION	QUANT	6.33	Framework Version
INSTRUMENTVERSION	LABEL	3.50	Instrument Version
ZCURVE	TABLE
	Pt	Time	Freq	Zreal	Zimag	Zsig	Zmod	Zphz	Idc	Vdc	IERange
	#	s	Hz	ohm	ohm	V	ohm	°	A	V	#
	0	1	1000078	2296.893	-2048.863	1	3077.915	-41.73344	4.607699E-006	0.0150816	8
	1	2	794390.6	2702.742	-2093.333	1	3418.604	-37.75856	-1.219705E-006	0.0152713	8
	2	2	630984.4	3133.127	-2064.111	1	3751.938	-33.37698	2.571603E-006	0.0146846	8
	3	2	501234.4	3531.295	-1970.422	1	4043.836	-29.16101	1.77594E-006	0.0146031	8
	4	3	398109.4	3864.553	-1825.921	1	4274.197	-25.28975	-2.252761E-006	0.0153297	8
	5	3	316265.6	4181.973	-1638.297	1	4491.427	-21.39287	-6.897556E-007	0.0150238	8
	6	3	251203.1	4424.589	-1466.162	1	4661.182	-18.33348	-3.280148E-007	0.0150437	8
	7	4	199546.9	4608.792	-1283.32	1	4784.127	-15.55988	2.944125E-007	0.0148949	8
	8	4	158578.1	4756.738	-1139.494	1	4891.319	-13.47155	-1.190838E-006	0.0151134	8
	9	4	125953.1	4897.092	-948.9177	1	4988.182	-10.96639	-8.223018E-008	0.0148702	7
	10	5	100078.1	4988.232	-838.5929	1	5058.23	-9.543	3.554311E-008	0.0147915	7
	11	5	79453.13	5059.498	-757.1823	1	5115.842	-8.511468	-1.665307E-008	0.0148645	7
	12	5	63140.62	5120.735	-696.2098	1	5167.846	-7.742403	-2.324614E-008	0.0148933	7
	13	5	50203.12	5173.484	-653.8591	1	5214.64	-7.203228	-2.935323E-008	0.0148574	7
	14	6	39890.62	5224.051	-632.4614	1	5262.197	-6.903046	3.00455E-008	0.0147345	7
	15	6	31640.63	5271.672	-628.8553	1	5309.048	-6.802641	8.317619E-008	0.0147061	7
	16	6	25171.88	5319.45	-642.6694	1	5358.131	-6.888803	-1.481374E-008	0.0148597	7
	17	7	20015.62	5365.35	-675.9363	1	5407.76	-7.180395	-3.924365E-008	0.0148683	7
	18	7	15890.62	5415.149	-728.8148	1	5463.974	-7.66527	3.078622E-008	0.0147345	7
	19	7	12609.37	5471.343	-803.2881	1	5529.997	-8.352344	4.942468E-008	0.0147482	7
	20	8	10078.13	5530.765	-896.6777	1	5602.981	-9.208976	3.603849E-008	0.0147767	7
	21	8	8015.625	5591.154	-1022.589	1	5683.897	-10.3645	-2.931261E-008	0.0148452	7
	22	8	6328.125	5665.738	-1184.788	1	5788.291	-11.81117	-2.15006E-008	0.0148169	7
	23	9	5015.625	5747.348	-1380.698	1	5910.866	-13.50832	-2.091147E-008	0.014815	7
	24	9	3984.375	5838.582	-1622.119	1	6059.728	-15.52676	-1.582019E-008	0.0148432	7
	25	9	3170.956	5944.416	-1911.811	1	6244.285	-17.82855	5.431749E-008	0.0146968	7
	26	10	2527.573	6062.97	-2264.691	1	6472.127	-20.48208	-1.273557E-008	0.0147987	7
	27	10	1976.103	6215.602	-2734.55	1	6790.542	-23.74707	4.919181E-009	0.0148266	7
	28	10	1577.524	6380.338	-3258.55	1	7164.277	-27.0542	-3.555572E-008	0.0149381	7
	29	11	1265.625	6568.427	-3874.131	1	7625.819	-30.53258	5.529995E-008	0.0146936	7
	30	11	998.264	6808.922	-4680.581	1	8262.521	-34.50536	3.82398E-008	0.014764	7
	31	11	796.875	7077.546	-5610.494	1	9031.572	-38.40448	-1.996156E-008	0.0148025	7
	32	12	627.7902	7422.042	-6802.156	1	10067.57	-42.50465	3.525046E-009	0.0146732	6
	33	12	505.5147	7786.858	-8113.992	1	11245.98	-46.1786	1.079398E-008	0.0146142	6
	34	12	397.9953	8264.632	-9868.83	1	12872.37	-50.05556	5.968779E-010	0.0148197	6
	35	12	315.5048	8818.325	-11950.78	1	14852.07	-53.57685	7.154042E-010	0.0148174	6
	36	13	252.4038	9454.781	-14378.16	1	17208.26	-56.6719	1.033763E-009	0.0148151	6
	37	13	198.6229	10279.58	-17556.86	1	20344.85	-59.65094	1.024776E-009	0.0148174	6
	38	13	158.3615	11225.53	-21230.14	1	24015.24	-62.13215	1.270874E-009	0.0148154	6
	39	14	125.558	12412.89	-25802.46	1	28632.96	-64.30901	1.182547E-009	0.0148189	6
	40	14	100.4464	13849.13	-31151.79	1	34091.54	-66.03153	2.580217E-010	0.0148135	6
	41	14	79.00281	15756.62	-38219.11	1	41339.7	-67.59508	5.725723E-010	0.0148131	6
	42	15	63.3446	17564.17	-45686.31	1	48946.29	-68.97067	1.006692E-009	0.0148112	6
	43	15	49.86702	20611.73	-55987.94	1	59661.49	-69.78902	9.562146E-010	0.014808	6
	44	16	39.72458	24313.9	-67928.8	1	72149.07	-70.30608	1.083343E-009	0.014815	6
	45	16	31.6723	28701.69	-82308.46	1	87169.2	-70.77589	1.13361E-009	0.0148075	6
	46	16	24.93351	34833.68	-100096.7	1	105984.6	-70.81209	7.042711E-010	0.0148077	6
	47	16	19.86229	41777.04	-120599.9	1	127630.9	-70.89339	8.178125E-010	0.014809	5
	48	17	15.83615	51764.66	-146589.3	1	155460.6	-70.55049	-1.199331E-009	0.0148042	5
	49	17	12.40079	64923.83	-175902	1	187500.9	-69.74135	8.780776E-010	0.0148012	5
	50	17	9.93114	79387.66	-211377.5	1	225793.8	-69.41518	-1.417312E-010	0.014801	5
	51	18	7.944915	98255.9	-250854	1	269410.4	-68.61044	-4.790742E-010	0.0147998	5
	52	19	6.317385	124256.1	-298726.2	1	323538.1	-67.41497	-2.666742E-010	0.0148114	5
	53	19	5.008013	157542.4	-353827.9	1	387316.2	-65.99892	-1.896834E-010	0.0147922	5
	54	20	3.945707	201210.7	-417386.8	1	463354.6	-64.26257	1.5685E-010	0.0147935	5
	55	22	3.158693	250035.5	-482749.2	1	543658.5	-62.61852	1.449339E-010	0.0148122	5
	56	23	2.504006	312518.2	-558498.8	1	639991	-60.77001	3.756166E-010	0.0148045	5
	57	25	1.998082	381005.3	-633949.4	1	739633	-58.99402	-7.275947E-011	0.0147986	5
	58	26	1.584686	466678.7	-718918.2	1	857107	-57.01078	6.625629E-011	0.0148382	5
	59	28	1.266892	552666.2	-809598.6	1	980250	-55.6809	2.415066E-010	0.0148308	5
	60	31	0.999041	660755.6	-911237.9	1	1125590	-54.05343	6.225916E-011	0.0147547	4
