EXPLAIN
TAG	EISPOT
TITLE	LABEL	Potentiostatic EIS	Test &Identifier
DATE	LABEL	2/28/2020	Date
TIME	LABEL	17:41:31	Time
NOTES	NOTES	1	&Notes...
	
PSTAT	PSTAT	REF600-11020	Potentiostat
VDC	POTEN	0.00000E+000	T	DC &Voltage (V)
FREQINIT	QUANT	1.00000E+006	Initial Fre&q. (Hz)
FREQFINAL	QUANT	1.00000E+000	Final Fre&q. (Hz)
PTSPERDEC	QUANT	1.00000E+001	Points/&decade
VAC	QUANT	2.50000E+001	AC &Voltage (mV rms)
AREA	QUANT	1.60000E-004	&Area (cm^2)
CONDIT	TWOPARAM	F	1.50000E+001	0.00000E+000	Conditionin&g	Time(s)	E(V)
DELAY	TWOPARAM	F	1.00000E+002	0.00000E+000	Init. De&lay	Time(s)	Stab.(mV/s)
SPEED	SELECTOR	1	&Optimize for:
ZGUESS	QUANT	1.00000E+003	E&stimated Z (ohms)
OCVCURVE	TABLE	39
	Pt	T	Vf	Vm	Ach	Over
	#	s	V vs. Ref.	V	V	bits
	0	0.258333	-5.85877E-002	-5.85877E-002	5.32464E-004	...........
	1	0.516667	-5.85901E-002	-5.87117E-002	5.30764E-004	...........
	2	0.775	-5.86063E-002	-5.89158E-002	5.28464E-004	...........
	3	1.03333	-5.86521E-002	-5.88267E-002	5.32797E-004	...........
	4	1.29167	-5.87216E-002	-5.87658E-002	5.31897E-004	...........
	5	1.55	-5.87752E-002	-5.84987E-002	5.31331E-004	...........
	6	1.80833	-5.87829E-002	-5.91057E-002	5.31397E-004	...........
	7	2.06667	-5.87822E-002	-5.93407E-002	5.29797E-004	...........
	8	2.325	-5.88562E-002	-5.96501E-002	5.35931E-004	...........
	9	2.58333	-5.90445E-002	-6.00432E-002	5.37131E-004	...........
	10	2.84167	-5.93143E-002	-5.99845E-002	5.36431E-004	...........
	11	3.1	-5.95957E-002	-6.00311E-002	5.35397E-004	...........
	12	3.35833	-5.98216E-002	-6.01378E-002	5.33764E-004	...........
	13	3.61667	-5.99696E-002	-6.02605E-002	5.29297E-004	...........
	14	3.875	-6.00675E-002	-6.03153E-002	5.26397E-004	...........
	15	4.13333	-6.01475E-002	-6.02478E-002	5.34131E-004	...........
	16	4.39167	-6.02134E-002	-6.02866E-002	5.34564E-004	...........
	17	4.65	-6.02486E-002	-5.99196E-002	5.35531E-004	...........
	18	4.90833	-6.02364E-002	-6.01638E-002	5.29897E-004	...........
	19	5.16667	-6.01774E-002	-5.96498E-002	5.32131E-004	...........
	20	5.425	-6.00692E-002	-5.90314E-002	5.32997E-004	...........
	21	5.68333	-5.98807E-002	-5.89965E-002	5.30264E-004	...........
	22	5.94167	-5.96112E-002	-5.91506E-002	5.27864E-004	...........
	23	6.2	-5.93649E-002	-6.01497E-002	5.30664E-004	...........
	24	6.45833	-5.93075E-002	-6.07608E-002	5.24564E-004	...........
	25	6.71667	-5.95279E-002	-6.07223E-002	5.24697E-004	...........
	26	6.975	-5.99344E-002	-6.05907E-002	5.23764E-004	...........
	27	7.23333	-6.03283E-002	-6.09371E-002	5.20864E-004	...........
	28	7.49167	-6.05872E-002	-6.06449E-002	5.23831E-004	...........
	29	7.75	-6.07155E-002	-6.08060E-002	5.23964E-004	...........
	30	8.00833	-6.07618E-002	-6.07402E-002	5.24897E-004	...........
	31	8.26667	-6.07706E-002	-6.08751E-002	5.24564E-004	...........
	32	8.525	-6.07766E-002	-6.08319E-002	5.27164E-004	...........
	33	8.78333	-6.07944E-002	-6.08698E-002	5.29931E-004	...........
	34	9.04167	-6.08194E-002	-6.08862E-002	5.27831E-004	...........
	35	9.3	-6.08431E-002	-6.08663E-002	5.22664E-004	...........
	36	9.5583	-6.08613E-002	-6.09159E-002	5.27731E-004	...........
	37	9.8167	-6.08755E-002	-6.09369E-002	5.25364E-004	...........
	38	10.075	-6.08899E-002	-6.09167E-002	5.32997E-004	...........
EOC	QUANT	-0.0608899	Open Circuit (V)
PSTATMODEL	IQUANT	4	Pstat Model
PSTATSECTION	LABEL	REF600-11020	Pstat Section
PSTATSERIALNO	LABEL	11020	Pstat Serial Number
CTRLMODE	IQUANT	1	Control Mode
IESTAB	IQUANT	0	I/E Stability
CASPEED	IQUANT	1	Control Amp Speed
CONVENTION	IQUANT	1	Current Convention
ICHRANGE	IQUANT	2	Ich Range
ICHRANGEMODE	TOGGLE	F	Ich Auto Range
ICHOFFSETENABLE	TOGGLE	T	Ich Offset Enable
ICHOFFSET	QUANT	0	Ich Offset (V)
ICHFILTER	IQUANT	3	Ich Filter
VCHRANGE	IQUANT	2	Vch Range
VCHRANGEMODE	TOGGLE	F	Vch Auto Range
VCHOFFSETENABLE	TOGGLE	T	Vch Offset Enable
VCHOFFSET	QUANT	0	Vch Offset (V)
VCHFILTER	IQUANT	3	Vch Filter
ACHRANGE	IQUANT	2	Ach Range
ACHOFFSETENABLE	TOGGLE	F	Ach Offset Enable
ACHOFFSET	QUANT	0	Ach Offset (V)
ACHFILTER	IQUANT	3	Ach Filter
IERANGELOWERLIMIT	IQUANT	1	I/E Range Lower Limit
IERANGEMODE	TOGGLE	F	I/E AutoRange
IERANGE	IQUANT	8	I/E Range
POSFEEDENABLE	TOGGLE	F	Positive Feedback IR Comp
POSFEEDRESISTANCE	QUANT	0	Positive Feedback Resistance (ohm)
ACHSELECT	IQUANT	0	Ach Select
CABLEID	IQUANT	14	Cable ID
DCCALDATE	LABEL	2/27/2020	DC Calibration Date
ACCALDATE	LABEL	2/27/2020	AC Calibration Date
THERMOSELECT	IQUANT	1	Thermo Select
FRAMEWORKVERSION	QUANT	6.33	Framework Version
INSTRUMENTVERSION	LABEL	3.50	Instrument Version
ZCURVE	TABLE
	Pt	Time	Freq	Zreal	Zimag	Zsig	Zmod	Zphz	Idc	Vdc	IERange
	#	s	Hz	ohm	ohm	V	ohm	°	A	V	#
	0	1	1000078	1655.31	-2611.471	1	3091.898	-57.63099	-1.057949E-006	-0.0591976	8
	1	3	794390.6	2053.059	-2975.072	1	3614.707	-55.39095	-2.667736E-007	-0.0589685	8
	2	4	630984.4	2540.458	-3330.225	1	4188.595	-52.66184	-2.306526E-006	-0.0587456	8
	3	6	501234.4	3126.646	-3670.999	1	4822.048	-49.57845	1.783227E-006	-0.0596527	8
	4	7	398109.4	3783.678	-3969.019	1	5483.551	-46.36949	-5.148087E-007	-0.0593369	8
	5	8	316265.6	4480.507	-4220.358	1	6155.19	-43.28741	1.543779E-006	-0.0597172	8
	6	10	251203.1	5232.387	-4383.85	1	6826.127	-39.95728	1.396638E-006	-0.0597006	8
	7	11	199546.9	6042.857	-4508.721	1	7539.542	-36.7275	-4.192432E-007	-0.0592954	8
	8	13	158578.1	6766.479	-4568.101	1	8164.116	-34.02358	-1.959388E-006	-0.0589918	8
	9	15	125953.1	7594.225	-4469.815	1	8812.009	-30.48025	-7.495483E-007	-0.0577024	7
	10	16	100078.1	8259.933	-4471.814	1	9392.742	-28.43051	5.289813E-008	-0.0596033	7
	11	17	79453.13	8928.589	-4446.08	1	9974.33	-26.47147	6.767607E-008	-0.0596093	7
	12	19	63140.62	9560.47	-4421.946	1	10533.58	-24.82167	-2.977942E-008	-0.0594846	7
	13	20	50203.12	10172.03	-4416.394	1	11089.4	-23.46905	-3.054109E-008	-0.0594681	7
	14	21	39890.62	10768.56	-4433.077	1	11645.34	-22.37542	2.791626E-008	-0.0596053	7
	15	23	31640.63	11351.11	-4491.233	1	12207.33	-21.58695	6.205435E-008	-0.0595288	7
	16	24	25171.88	11925.37	-4569.852	1	12770.98	-20.96704	6.759996E-008	-0.0596221	7
	17	25	20015.62	12492.33	-4703.831	1	13348.57	-20.63324	-3.79932E-008	-0.0594198	7
	18	27	15890.62	13077.91	-4876.242	1	13957.42	-20.44851	-4.065167E-008	-0.0594729	7
	19	28	12609.37	13748.9	-4993.723	1	14627.7	-19.96147	-7.934785E-009	-0.0593775	6
	20	30	10078.13	14349	-5299.094	1	15296.21	-20.26922	1.242002E-009	-0.0594241	6
	21	31	8015.625	14990.82	-5661.433	1	16024.24	-20.68955	-9.363885E-009	-0.0593525	6
	22	32	6328.125	15693.61	-6120.005	1	16844.7	-21.30419	-5.015199E-009	-0.059371	6
	23	34	5015.625	16431.68	-6647	1	17725.2	-22.02448	-4.23276E-009	-0.0594246	6
	24	35	3984.375	17210.96	-7264.448	1	18681.26	-22.88377	-1.029385E-008	-0.0593603	6
	25	36	3170.956	18053.28	-7967.926	1	19733.45	-23.81456	-8.248588E-009	-0.0593543	6
	26	38	2527.573	18965.27	-8792.476	1	20904.28	-24.87288	-2.892596E-009	-0.0594629	6
	27	39	1976.103	20065.12	-9838.1	1	22347.2	-26.11911	9.28665E-010	-0.0595811	6
	28	41	1577.524	21131.05	-10947.7	1	23798.6	-27.38804	5.1903E-009	-0.0594498	6
	29	42	1265.625	22341.19	-12174.76	1	25443.14	-28.58802	-5.232492E-010	-0.0594823	6
	30	43	998.264	23762.06	-13730.09	1	27443.6	-30.02	-3.42919E-009	-0.0595252	6
	31	45	796.875	25268.44	-15435.38	1	29609.88	-31.41892	1.680923E-009	-0.0595833	6
	32	46	627.7902	27103.56	-17501.65	1	32263.15	-32.85163	2.718813E-009	-0.0594202	6
	33	47	505.5147	28953.32	-19666.97	1	35001.21	-34.1869	-2.650408E-009	-0.0593554	6
	34	49	397.9953	31264.03	-22373.55	1	38444.96	-35.58873	7.116222E-011	-0.0594484	6
	35	50	315.5048	33819.28	-25398.5	1	42294.53	-36.90678	3.188465E-010	-0.0594488	6
	36	51	252.4038	36589.18	-28713.4	1	46510.52	-38.12309	4.341741E-011	-0.0594512	6
	37	53	198.6229	39958.65	-32778.07	1	51682.64	-39.36202	2.575024E-010	-0.0594538	6
	38	54	158.3615	43565.43	-37180.39	1	57274.15	-40.47871	1.58208E-010	-0.0594576	6
	39	56	125.558	47800	-42306	1	63832.89	-41.51085	2.763783E-010	-0.05946	6
	40	57	100.4464	52307.08	-47949.3	1	70958.91	-42.51113	5.92274E-010	-0.05946	6
	41	58	79.00281	58027.73	-54817.03	1	79825.59	-43.37024	5.024196E-011	-0.0594598	6
	42	60	63.3446	64046.8	-62594.65	1	89554.91	-44.34304	-1.17875E-010	-0.0594598	6
	43	61	49.86702	69893.35	-70734.7	1	99440.8	-45.34278	3.690537E-010	-0.05946	5
	44	63	39.72458	77483.88	-80582.35	1	111791.2	-46.12299	1.315837E-011	-0.0594485	5
	45	64	31.6723	85215.23	-91669.72	1	125159.8	-47.08978	1.949234E-010	-0.0594558	5
	46	65	24.93351	94578.27	-106008.2	1	142066.1	-48.26133	-1.539132E-011	-0.0594575	5
	47	67	19.86229	104352.3	-121828.7	1	160410.8	-49.41831	2.145426E-011	-0.0594584	5
	48	68	15.83615	113697.2	-141098.9	1	181206.9	-51.13821	-1.054719E-009	-0.0594555	5
	49	70	12.40079	128594.3	-166690.2	1	210528.2	-52.35136	-1.631886E-010	-0.059451	5
	50	71	9.93114	142992.2	-191713.1	1	239166.6	-53.28202	-1.328219E-010	-0.059448	5
	51	73	7.944915	159988.6	-223869.3	1	275161.4	-54.44843	7.396216E-010	-0.0594496	5
	52	74	6.317385	180539.6	-260404.9	1	316867.9	-55.2663	6.026367E-010	-0.0594604	5
	53	76	5.008013	205547.3	-306847.4	1	369330.5	-56.18313	1.143947E-010	-0.0594557	5
	54	79	3.945707	236982.4	-360637.3	1	431532.1	-56.69025	2.503431E-010	-0.0594593	5
	55	81	3.158693	272430.4	-418616.3	1	499457.7	-56.94441	2.652737E-011	-0.0594641	5
	56	85	2.504006	312238.6	-485629.8	1	577346.7	-57.26077	-8.462587E-010	-0.0594447	5
	57	88	1.998082	358457.8	-564609.3	1	668786.6	-57.58945	3.264948E-010	-0.0594752	5
	58	91	1.584686	411205.1	-656349.6	1	774522.1	-57.93272	-2.073016E-010	-0.0594814	5
	59	94	1.266892	469826.1	-758286.7	1	892039.9	-58.2181	1.576391E-010	-0.059486	5
	60	99	0.999041	533450.3	-879162.8	1	1028346	-58.75185	1.872304E-011	-0.0594132	4
