EXPLAIN
TAG	EISPOT
TITLE	LABEL	Potentiostatic EIS	Test &Identifier
DATE	LABEL	1/21/2020	Date
TIME	LABEL	18:03:30	Time
NOTES	NOTES	6	&Notes...
	
	
	
	
	
	
PSTAT	PSTAT	REF600-11020	Potentiostat
VDC	POTEN	0.00000E+000	T	DC &Voltage (V)
FREQINIT	QUANT	1.00000E+006	Initial Fre&q. (Hz)
FREQFINAL	QUANT	1.00000E+000	Final Fre&q. (Hz)
PTSPERDEC	QUANT	1.00000E+001	Points/&decade
VAC	QUANT	2.50000E+001	AC &Voltage (mV rms)
AREA	QUANT	1.00000E-001	&Area (cm^2)
CONDIT	TWOPARAM	F	5.00000E+000	0.00000E+000	Conditionin&g	Time(s)	E(V)
DELAY	TWOPARAM	F	5.00000E+000	0.00000E+000	Init. De&lay	Time(s)	Stab.(mV/s)
SPEED	SELECTOR	0	&Optimize for:
ZGUESS	QUANT	5.00000E+002	E&stimated Z (ohms)
OCVCURVE	TABLE	39
	Pt	T	Vf	Vm	Ach	Over
	#	s	V vs. Ref.	V	V	bits
	0	0.258333	1.79721E-002	1.79721E-002	5.98414E-004	...........
	1	0.516667	1.79716E-002	1.79447E-002	6.04580E-004	...........
	2	0.775	1.79538E-002	1.71560E-002	5.98514E-004	...........
	3	1.03333	1.78564E-002	1.64698E-002	5.88681E-004	...........
	4	1.29167	1.75953E-002	1.58639E-002	5.95414E-004	...........
	5	1.55	1.71588E-002	1.58700E-002	6.03847E-004	...........
	6	1.80833	1.66562E-002	1.59069E-002	5.98947E-004	...........
	7	2.06667	1.62465E-002	1.61380E-002	5.98714E-004	...........
	8	2.325	1.60318E-002	1.64691E-002	5.94680E-004	...........
	9	2.58333	1.60229E-002	1.66849E-002	6.06180E-004	...........
	10	2.84167	1.61628E-002	1.66392E-002	6.02847E-004	...........
	11	3.1	1.63582E-002	1.66808E-002	5.95780E-004	...........
	12	3.35833	1.65247E-002	1.67326E-002	5.97214E-004	...........
	13	3.61667	1.66309E-002	1.67842E-002	6.06147E-004	...........
	14	3.875	1.66932E-002	1.68193E-002	6.02580E-004	...........
	15	4.13333	1.67376E-002	1.68684E-002	5.94847E-004	...........
	16	4.39167	1.67784E-002	1.69068E-002	5.98580E-004	...........
	17	4.65	1.68196E-002	1.69350E-002	6.06147E-004	...........
	18	4.90833	1.68596E-002	1.69416E-002	6.05447E-004	...........
	19	5.16667	1.68950E-002	1.69782E-002	5.98547E-004	...........
	20	5.425	1.69241E-002	1.69897E-002	6.05314E-004	...........
	21	5.68333	1.69482E-002	1.69998E-002	6.10714E-004	...........
	22	5.94167	1.69683E-002	1.69990E-002	6.03580E-004	...........
	23	6.2	1.69866E-002	1.71548E-002	6.01114E-004	...........
	24	6.45833	1.70097E-002	1.70508E-002	6.04914E-004	...........
	25	6.71667	1.70382E-002	1.70454E-002	6.02447E-004	...........
	26	6.975	1.70597E-002	1.70500E-002	5.96647E-004	...........
	27	7.23333	1.70654E-002	1.70734E-002	5.95047E-004	...........
	28	7.49167	1.70632E-002	1.70965E-002	6.06747E-004	...........
	29	7.75	1.70648E-002	1.71014E-002	6.05014E-004	...........
	30	8.00833	1.70734E-002	1.70960E-002	5.97314E-004	...........
	31	8.26667	1.70857E-002	1.71540E-002	5.95880E-004	...........
	32	8.525	1.70977E-002	1.70569E-002	6.02380E-004	...........
	33	8.78333	1.71047E-002	1.70682E-002	6.07180E-004	...........
	34	9.04167	1.71010E-002	1.70546E-002	5.96447E-004	...........
	35	9.3	1.70879E-002	1.70612E-002	5.96147E-004	...........
	36	9.5583	1.70740E-002	1.70783E-002	6.00047E-004	...........
	37	9.8167	1.70658E-002	1.70490E-002	5.97780E-004	...........
	38	10.075	1.70634E-002	1.70774E-002	5.94580E-004	...........
EOC	QUANT	0.0170634	Open Circuit (V)
PSTATMODEL	IQUANT	4	Pstat Model
PSTATSECTION	LABEL	REF600-11020	Pstat Section
PSTATSERIALNO	LABEL	11020	Pstat Serial Number
CTRLMODE	IQUANT	1	Control Mode
IESTAB	IQUANT	0	I/E Stability
CASPEED	IQUANT	1	Control Amp Speed
CONVENTION	IQUANT	1	Current Convention
ICHRANGE	IQUANT	2	Ich Range
ICHRANGEMODE	TOGGLE	F	Ich Auto Range
ICHOFFSETENABLE	TOGGLE	T	Ich Offset Enable
ICHOFFSET	QUANT	0	Ich Offset (V)
ICHFILTER	IQUANT	3	Ich Filter
VCHRANGE	IQUANT	2	Vch Range
VCHRANGEMODE	TOGGLE	F	Vch Auto Range
VCHOFFSETENABLE	TOGGLE	T	Vch Offset Enable
VCHOFFSET	QUANT	0	Vch Offset (V)
VCHFILTER	IQUANT	3	Vch Filter
ACHRANGE	IQUANT	2	Ach Range
ACHOFFSETENABLE	TOGGLE	F	Ach Offset Enable
ACHOFFSET	QUANT	0	Ach Offset (V)
ACHFILTER	IQUANT	3	Ach Filter
IERANGELOWERLIMIT	IQUANT	1	I/E Range Lower Limit
IERANGEMODE	TOGGLE	F	I/E AutoRange
IERANGE	IQUANT	7	I/E Range
POSFEEDENABLE	TOGGLE	F	Positive Feedback IR Comp
POSFEEDRESISTANCE	QUANT	0	Positive Feedback Resistance (ohm)
ACHSELECT	IQUANT	0	Ach Select
CABLEID	IQUANT	14	Cable ID
DCCALDATE	LABEL	12/22/2019	DC Calibration Date
ACCALDATE	LABEL	12/22/2019	AC Calibration Date
THERMOSELECT	IQUANT	1	Thermo Select
FRAMEWORKVERSION	QUANT	6.33	Framework Version
INSTRUMENTVERSION	LABEL	3.50	Instrument Version
ZCURVE	TABLE
	Pt	Time	Freq	Zreal	Zimag	Zsig	Zmod	Zphz	Idc	Vdc	IERange
	#	s	Hz	ohm	ohm	V	ohm	°	A	V	#
	0	1	1000078	1983.333	-2297.142	1	3034.876	-49.19294	-3.953317E-006	0.0199305	8
	1	1	794390.6	2433.662	-2461.723	1	3461.616	-45.32842	1.700598E-006	0.0187003	8
	2	2	630984.4	2923.083	-2590.771	1	3905.958	-41.55104	-3.97713E-007	0.0189588	8
	3	2	501234.4	3470.44	-2653.566	1	4368.68	-37.40223	4.628879E-006	0.0178706	8
	4	2	398109.4	3998.064	-2607.342	1	4773.128	-33.11043	1.450783E-006	0.0182587	8
	5	3	316265.6	4485.855	-2512.734	1	5141.666	-29.2552	-9.643429E-007	0.0188204	8
	6	3	251203.1	4943.547	-2337.326	1	5468.249	-25.30494	2.81561E-007	0.0184702	8
	7	3	199546.9	5329.774	-2089.74	1	5724.815	-21.40954	1.381847E-006	0.0183395	8
	8	4	158578.1	5620.323	-1832.941	1	5911.658	-18.06256	-3.245452E-006	0.0193367	8
	9	4	125953.1	5908.573	-1607.305	1	6123.289	-15.21789	-3.04041E-007	0.0192892	7
	10	4	100078.1	6080.976	-1406.077	1	6241.419	-13.01944	6.645262E-008	0.0184478	7
	11	5	79453.13	6233.424	-1234.413	1	6354.475	-11.20143	6.091061E-008	0.0184699	7
	12	5	63140.62	6348	-1086.985	1	6440.391	-9.71668	-2.159736E-008	0.0185608	7
	13	5	50203.12	6442.74	-967.86	1	6515.033	-8.543365	-2.844017E-008	0.0185929	7
	14	6	39890.62	6523.678	-875.6633	1	6582.185	-7.645029	-5.183247E-009	0.0185946	7
	15	6	31640.63	6589.419	-811.0397	1	6639.144	-7.016795	-3.443394E-008	0.0185843	7
	16	6	25171.88	6650.712	-770.6634	1	6695.214	-6.609774	-2.17096E-009	0.0185061	7
	17	7	20015.62	6704.211	-756.8588	1	6746.798	-6.441024	-5.081055E-008	0.0186338	7
	18	7	15890.62	6760.264	-754.2508	1	6802.21	-6.36623	-4.117626E-009	0.0185945	7
	19	7	12609.37	6816.288	-782.0425	1	6861.004	-6.54501	-2.901229E-008	0.0185905	7
	20	7	10078.13	6869.651	-828.4571	1	6919.425	-6.876473	2.908612E-008	0.0185288	7
	21	8	8015.625	6920.695	-908.3268	1	6980.048	-7.477213	-1.200064E-009	0.018581	7
	22	8	6328.125	6982.137	-1011.135	1	7054.972	-8.240138	-1.097778E-008	0.0185868	7
	23	8	5015.625	7044.711	-1148.406	1	7137.702	-9.258728	-1.724878E-008	0.0185445	7
	24	9	3984.375	7112.421	-1322.312	1	7234.296	-10.53195	-2.905089E-008	0.0185849	7
	25	9	3170.956	7185.538	-1550.702	1	7350.961	-12.17816	-1.2074E-009	0.0184966	7
	26	9	2527.573	7267.92	-1824.661	1	7493.467	-14.09322	-2.98113E-008	0.0185856	7
	27	10	1976.103	7366.048	-2203.353	1	7688.526	-16.65312	-4.147941E-009	0.018582	7
	28	10	1577.524	7447.736	-2623.786	1	7896.394	-19.40701	6.63079E-008	0.0184157	7
	29	10	1265.625	7590.91	-3144.962	1	8216.611	-22.50454	9.300967E-010	0.0184945	7
	30	11	998.264	7749.55	-3825.871	1	8642.501	-26.27507	-4.962676E-008	0.0186174	7
	31	11	796.875	7928.727	-4620.137	1	9176.621	-30.22972	-3.110788E-008	0.0185627	7
	32	11	627.7902	8159.959	-5658.121	1	9929.72	-34.73746	1.613364E-009	0.018589	6
	33	12	505.5147	8412.047	-6804.992	1	10819.91	-38.9714	6.195946E-009	0.0184043	6
	34	12	397.9953	8752.57	-8351.924	1	12098.02	-43.65818	5.450671E-010	0.0185602	6
	35	12	315.5048	9159.086	-10195.73	1	13705.54	-48.06584	9.14352E-010	0.0185567	6
	36	13	252.4038	9634.17	-12357.45	1	15669.2	-52.05913	8.240171E-010	0.0185575	6
	37	13	198.6229	10260.89	-15196.49	1	18336.28	-55.97222	6.077792E-010	0.0185577	6
	38	13	158.3615	10992.44	-18487.2	1	21508.37	-59.26439	8.332853E-010	0.0185519	6
	39	14	125.558	11921.19	-22607.96	1	25558.45	-62.1973	6.553346E-010	0.0185511	6
	40	14	100.4464	13044.33	-27455.85	1	30397.01	-64.5875	6.665247E-010	0.0185464	6
	41	14	79.00281	14592.55	-33814.4	1	36828.74	-66.65746	8.16473E-010	0.0185491	6
	42	15	63.3446	16135.07	-41001.82	1	44062.34	-68.51933	4.200715E-010	0.0185469	6
	43	15	49.86702	18686.69	-50400.95	1	53753.59	-69.6572	3.267116E-010	0.0185468	6
	44	15	39.72458	21977.01	-61442.92	1	65255.05	-70.31879	5.242002E-010	0.0185551	6
	45	16	31.6723	26144.76	-74535.26	1	78987.68	-70.67064	5.600932E-010	0.0185474	6
	46	16	24.93351	31877.88	-91349.25	1	96751.7	-70.7627	7.214838E-010	0.0185457	6
	47	16	19.86229	39183.91	-110218.2	1	116976.2	-70.42908	6.377031E-010	0.0185523	5
	48	16	15.83615	48998.37	-133246.5	1	141970	-69.81016	-7.106319E-010	0.0185417	5
	49	17	12.40079	62932.62	-160522	1	172417.6	-68.59235	-5.368094E-011	0.0185484	5
	50	17	9.93114	78691.16	-190397.8	1	206018.5	-67.54475	-4.08081E-010	0.0185465	5
	51	17	7.944915	98384.8	-223467	1	244166	-66.23775	-1.469838E-010	0.0185471	5
	52	18	6.317385	123639.2	-261508.3	1	289263.3	-64.69557	1.706616E-011	0.0185437	5
	53	19	5.008013	154395.3	-304241.4	1	341175.5	-63.09328	2.495252E-010	0.0185528	5
	54	20	3.945707	190939.4	-352382.5	1	400788.3	-61.54883	4.758647E-011	0.0185389	5
	55	21	3.158693	231110.5	-402436.4	1	464076.7	-60.13219	1.849523E-011	0.018521	5
	56	23	2.504006	277982.3	-460701.8	1	538070.9	-58.89368	2.378411E-010	0.0185289	5
	57	24	1.998082	327654.3	-523122.6	1	617263.8	-57.9393	6.054646E-011	0.0185152	5
	58	25	1.584686	386193.8	-598486.5	1	712272.3	-57.16649	-2.366927E-011	0.0184831	5
	59	27	1.266892	447209	-682054.4	1	815594.4	-56.74797	-1.340313E-011	0.0185015	5
	60	30	0.999041	521212.5	-783492.9	1	941022.6	-56.36647	-1.201153E-011	0.0185333	5
