EXPLAIN
TAG	EISPOT
TITLE	LABEL	Potentiostatic EIS	Test &Identifier
DATE	LABEL	1/14/2020	Date
TIME	LABEL	18:47:46	Time
NOTES	NOTES	5	&Notes...
	
	
	
	
	
PSTAT	PSTAT	REF600-11020	Potentiostat
VDC	POTEN	0.00000E+000	T	DC &Voltage (V)
FREQINIT	QUANT	1.00000E+006	Initial Fre&q. (Hz)
FREQFINAL	QUANT	1.00000E+000	Final Fre&q. (Hz)
PTSPERDEC	QUANT	1.00000E+001	Points/&decade
VAC	QUANT	2.50000E+001	AC &Voltage (mV rms)
AREA	QUANT	1.00000E-001	&Area (cm^2)
CONDIT	TWOPARAM	T	5.00000E+000	0.00000E+000	Conditionin&g	Time(s)	E(V)
DELAY	TWOPARAM	T	5.00000E+000	0.00000E+000	Init. De&lay	Time(s)	Stab.(mV/s)
SPEED	SELECTOR	0	&Optimize for:
ZGUESS	QUANT	5.00000E+002	E&stimated Z (ohms)
OCVCURVE	TABLE	19
	Pt	T	Vf	Vm	Ach	Over
	#	s	V vs. Ref.	V	V	bits
	0	0.258333	1.00167E-002	1.00167E-002	7.12645E-004	...........
	1	0.516667	1.00203E-002	1.02051E-002	7.11512E-004	...........
	2	0.775	1.00429E-002	1.04120E-002	7.14812E-004	...........
	3	1.03333	1.01089E-002	1.06185E-002	7.17512E-004	...........
	4	1.29167	1.02313E-002	1.08212E-002	7.17112E-004	...........
	5	1.55	1.04005E-002	1.10292E-002	7.23245E-004	...........
	6	1.80833	1.05965E-002	1.12427E-002	7.15079E-004	...........
	7	2.06667	1.08034E-002	1.14522E-002	7.15879E-004	...........
	8	2.325	1.10136E-002	1.16522E-002	7.12245E-004	...........
	9	2.58333	1.12233E-002	1.18478E-002	7.16312E-004	...........
	10	2.84167	1.14300E-002	1.20370E-002	7.11779E-004	...........
	11	3.1	1.16319E-002	1.22267E-002	7.16479E-004	...........
	12	3.35833	1.18277E-002	1.23550E-002	7.15779E-004	...........
	13	3.61667	1.20127E-002	1.24506E-002	7.16545E-004	...........
	14	3.875	1.21771E-002	1.24638E-002	7.19712E-004	...........
	15	4.13333	1.23133E-002	1.27496E-002	7.13979E-004	...........
	16	4.39167	1.24330E-002	1.29097E-002	7.13579E-004	...........
	17	4.65	1.25707E-002	1.34903E-002	7.11812E-004	...........
	18	4.90833	1.27707E-002	1.39437E-002	7.10645E-004	...........
EOC	QUANT	0.0127707	Open Circuit (V)
PSTATMODEL	IQUANT	4	Pstat Model
PSTATSECTION	LABEL	REF600-11020	Pstat Section
PSTATSERIALNO	LABEL	11020	Pstat Serial Number
CTRLMODE	IQUANT	1	Control Mode
IESTAB	IQUANT	0	I/E Stability
CASPEED	IQUANT	1	Control Amp Speed
CONVENTION	IQUANT	1	Current Convention
ICHRANGE	IQUANT	2	Ich Range
ICHRANGEMODE	TOGGLE	F	Ich Auto Range
ICHOFFSETENABLE	TOGGLE	T	Ich Offset Enable
ICHOFFSET	QUANT	0	Ich Offset (V)
ICHFILTER	IQUANT	3	Ich Filter
VCHRANGE	IQUANT	2	Vch Range
VCHRANGEMODE	TOGGLE	F	Vch Auto Range
VCHOFFSETENABLE	TOGGLE	T	Vch Offset Enable
VCHOFFSET	QUANT	0	Vch Offset (V)
VCHFILTER	IQUANT	3	Vch Filter
ACHRANGE	IQUANT	2	Ach Range
ACHOFFSETENABLE	TOGGLE	F	Ach Offset Enable
ACHOFFSET	QUANT	0	Ach Offset (V)
ACHFILTER	IQUANT	3	Ach Filter
IERANGELOWERLIMIT	IQUANT	1	I/E Range Lower Limit
IERANGEMODE	TOGGLE	F	I/E AutoRange
IERANGE	IQUANT	7	I/E Range
POSFEEDENABLE	TOGGLE	F	Positive Feedback IR Comp
POSFEEDRESISTANCE	QUANT	0	Positive Feedback Resistance (ohm)
ACHSELECT	IQUANT	0	Ach Select
CABLEID	IQUANT	14	Cable ID
DCCALDATE	LABEL	12/22/2019	DC Calibration Date
ACCALDATE	LABEL	12/22/2019	AC Calibration Date
THERMOSELECT	IQUANT	1	Thermo Select
FRAMEWORKVERSION	QUANT	6.33	Framework Version
INSTRUMENTVERSION	LABEL	3.50	Instrument Version
ZCURVE	TABLE
	Pt	Time	Freq	Zreal	Zimag	Zsig	Zmod	Zphz	Idc	Vdc	IERange
	#	s	Hz	ohm	ohm	V	ohm	°	A	V	#
	0	2	1000078	2490.522	-2040.89	1	3219.927	-39.33335	1.154734E-006	0.01469	8
	1	2	794390.6	2892.126	-1993.954	1	3512.869	-34.58402	-3.498697E-007	0.0146065	8
	2	2	630984.4	3302.474	-1922.743	1	3821.423	-30.20851	4.922087E-009	0.0145568	8
	3	3	501234.4	3652.436	-1765.607	1	4056.804	-25.79937	2.990305E-007	0.0143652	8
	4	3	398109.4	3928.683	-1604.573	1	4243.725	-22.21634	-2.090508E-006	0.0148173	8
	5	3	316265.6	4151.907	-1425.445	1	4389.786	-18.94853	1.549555E-006	0.0140894	8
	6	3	251203.1	4339.857	-1248.67	1	4515.92	-16.05167	1.8745E-007	0.0142786	8
	7	4	199546.9	4469.37	-1102.324	1	4603.301	-13.85489	-2.566852E-007	0.0144282	8
	8	4	158578.1	4564.864	-995.686	1	4672.192	-12.3046	-5.383998E-007	0.0144337	8
	9	4	125953.1	4691.756	-846.7053	1	4767.545	-10.22987	-4.517188E-007	0.0152582	7
	10	5	100078.1	4755.428	-767.6901	1	4816.995	-9.170399	-1.800161E-008	0.0143291	7
	11	5	79453.13	4824.704	-723.0447	1	4878.582	-8.52309	1.355893E-008	0.0142691	7
	12	5	63140.62	4886.813	-695.1365	1	4936.006	-8.095862	-3.580872E-008	0.014376	7
	13	6	50203.12	4945.328	-683.9095	1	4992.395	-7.873724	-2.766542E-008	0.0143502	7
	14	6	39890.62	5005.303	-689.6943	1	5052.597	-7.845536	-2.730444E-008	0.0143549	7
	15	6	31640.63	5066.829	-714.2599	1	5116.925	-8.023991	2.537618E-008	0.0142958	7
	16	7	25171.88	5129.782	-755.1478	1	5185.066	-8.374283	-3.600876E-008	0.0143698	7
	17	7	20015.62	5199.48	-817.4086	1	5263.34	-8.934326	5.499897E-008	0.0142073	7
	18	7	15890.62	5274.095	-892.1845	1	5349.025	-9.60146	-3.844985E-009	0.0143961	7
	19	8	12609.37	5353.181	-991.764	1	5444.276	-10.49597	-3.713389E-008	0.0143723	7
	20	8	10078.13	5441.337	-1110.043	1	5553.408	-11.53024	3.148153E-009	0.0142715	7
	21	8	8015.625	5538.836	-1259.018	1	5680.126	-12.80615	-7.94398E-009	0.0143435	7
	22	9	6328.125	5655.649	-1442.813	1	5836.787	-14.31147	-2.55917E-008	0.0143325	7
	23	9	5015.625	5781.999	-1662.366	1	6016.225	-16.04032	-2.46275E-008	0.0143309	7
	24	9	3984.375	5927.743	-1923.37	1	6231.973	-17.97665	-2.181582E-008	0.0143262	7
	25	9	3170.956	6079.973	-2229.844	1	6475.977	-20.14063	5.533954E-008	0.0142032	7
	26	10	2527.573	6258.239	-2594.794	1	6774.844	-22.5199	8.792647E-008	0.0141945	7
	27	10	1976.103	6479.162	-3071.913	1	7170.508	-25.36665	-8.992376E-009	0.0143421	7
	28	10	1577.524	6700.894	-3568.373	1	7591.79	-28.03628	5.594227E-008	0.0142034	7
	29	11	1265.625	6958.706	-4216.902	1	8136.698	-31.21542	-8.147876E-009	0.0143401	7
	30	11	998.264	7269.886	-4997.487	1	8821.911	-34.50553	5.619825E-008	0.0142019	7
	31	11	796.875	7606.452	-5908.397	1	9631.58	-37.83868	7.168174E-011	0.014331	7
	32	12	627.7902	8017.432	-7069.702	1	10689.24	-41.40557	9.468011E-009	0.0142008	6
	33	12	505.5147	8448.106	-8345.712	1	11875.24	-44.65066	-6.987149E-009	0.0143593	6
	34	12	397.9953	8995.55	-10051.18	1	13488.74	-48.17226	2.615301E-010	0.0143229	6
	35	13	315.5048	9627.14	-12070.05	1	15439.17	-51.42395	4.303783E-010	0.0143243	6
	36	13	252.4038	10344.78	-14418.41	1	17745.56	-54.34167	3.221943E-010	0.0143178	6
	37	13	198.6229	11266.68	-17482.68	1	20798.61	-57.20033	2.954387E-010	0.0143179	6
	38	14	158.3615	12320.86	-21003.09	1	24350.23	-59.6032	1.628846E-010	0.0143165	6
	39	14	125.558	13624.17	-25366.82	1	28793.99	-61.76037	-4.250107E-010	0.0143195	6
	40	14	100.4464	15134.67	-30426.69	1	33982.96	-63.5536	-3.534703E-010	0.014314	6
	41	15	79.00281	17161.64	-37015.3	1	40800.17	-65.12585	-2.977275E-010	0.0143144	6
	42	15	63.3446	19540.01	-44596.9	1	48689.79	-66.33951	-3.362715E-010	0.0143211	6
	43	15	49.86702	22476.33	-54247.42	1	58719.4	-67.49432	-1.598924E-009	0.0143071	6
	44	16	39.72458	26114.28	-65267.31	1	70297.78	-68.19302	-3.175881E-009	0.0143139	6
	45	16	31.6723	30643.64	-78658.25	1	84416.55	-68.71513	1.296058E-009	0.0143107	6
	46	16	24.93351	36926.52	-95668.9	1	102548	-68.89427	2.426137E-009	0.014311	6
	47	17	19.86229	44524.25	-114893.5	1	123219.1	-68.81735	-5.678914E-010	0.0143062	5
	48	17	15.83615	54567.21	-136965.3	1	147435	-68.27758	-1.450114E-009	0.0143113	5
	49	17	12.40079	70101.57	-166914.5	1	181037.8	-67.21832	-1.383938E-009	0.0143125	5
	50	17	9.93114	84433.29	-196790.8	1	214139.2	-66.7782	-2.646954E-009	0.0143041	5
	51	18	7.944915	105860.6	-235083.7	1	257819.4	-65.75748	-1.204772E-009	0.0143085	5
	52	18	6.317385	132052.9	-272875.6	1	303148.6	-64.17624	-1.978778E-009	0.014322	5
	53	19	5.008013	165609.8	-320011.8	1	360325.1	-62.63792	1.117483E-009	0.0142974	5
	54	20	3.945707	212537.5	-372555.8	1	428917.3	-60.29589	2.059475E-009	0.0143103	5
	55	21	3.158693	259248.1	-421492.7	1	494839	-58.40551	-1.268503E-010	0.0143244	5
	56	23	2.504006	317865.7	-476834.5	1	573070.5	-56.31193	-4.264762E-010	0.0143162	5
	57	24	1.998082	379940	-531348.2	1	653211.5	-54.43338	-3.081933E-010	0.0143134	5
	58	26	1.584686	446373.5	-583723.7	1	734835.1	-52.59486	-2.976355E-010	0.0143538	5
	59	28	1.266892	523483.4	-653218.3	1	837095.5	-51.29162	-9.32192E-011	0.0143416	5
	60	30	0.999041	600690.2	-726288.3	1	942509.1	-50.40692	-9.982196E-011	0.0143174	5
