EXPLAIN
TAG	EISPOT
TITLE	LABEL	Potentiostatic EIS	Test &Identifier
DATE	LABEL	6/14/2020	Date
TIME	LABEL	20:46:34	Time
NOTES	NOTES	1	&Notes...
	
PSTAT	PSTAT	REF600-10037	Potentiostat
VDC	POTEN	0.00000E+000	T	DC &Voltage (V)
FREQINIT	QUANT	1.00000E+006	Initial Fre&q. (Hz)
FREQFINAL	QUANT	1.00000E+000	Final Fre&q. (Hz)
PTSPERDEC	QUANT	1.00000E+001	Points/&decade
VAC	QUANT	2.50000E+001	AC &Voltage (mV rms)
AREA	QUANT	2.50000E-001	&Area (cm^2)
CONDIT	TWOPARAM	F	5.00000E+000	0.00000E+000	Conditionin&g	Time(s)	E(V)
DELAY	TWOPARAM	F	3.00000E+000	0.00000E+000	Init. De&lay	Time(s)	Stab.(mV/s)
SPEED	SELECTOR	0	&Optimize for:
ZGUESS	QUANT	1.00000E+003	E&stimated Z (ohms)
OCVCURVE	TABLE	39
	Pt	T	Vf	Vm	Ach	Over
	#	s	V vs. Ref.	V	V	bits
	0	0.258333	-1.80185E-002	-1.80185E-002	5.35654E-004	...........
	1	0.516667	-1.80272E-002	-1.84743E-002	5.45021E-004	...........
	2	0.775	-1.80807E-002	-1.89094E-002	5.39354E-004	...........
	3	1.03333	-1.82323E-002	-1.93250E-002	5.41121E-004	...........
	4	1.29167	-1.85038E-002	-1.97285E-002	5.45754E-004	...........
	5	1.55	-1.88657E-002	-2.01187E-002	5.47787E-004	...........
	6	1.80833	-1.92689E-002	-2.04970E-002	5.43320E-004	...........
	7	2.06667	-1.96774E-002	-2.08624E-002	5.40021E-004	...........
	8	2.325	-2.00750E-002	-2.12212E-002	5.40321E-004	...........
	9	2.58333	-2.04579E-002	-2.15647E-002	5.40721E-004	...........
	10	2.84167	-2.08272E-002	-2.19008E-002	5.43354E-004	...........
	11	3.1	-2.11847E-002	-2.22306E-002	5.40354E-004	...........
	12	3.35833	-2.15317E-002	-2.25536E-002	5.41521E-004	...........
	13	3.61667	-2.18698E-002	-2.28684E-002	5.43121E-004	...........
	14	3.875	-2.22001E-002	-2.31787E-002	5.45654E-004	...........
	15	4.13333	-2.25232E-002	-2.34823E-002	5.38654E-004	...........
	16	4.39167	-2.28398E-002	-2.37824E-002	5.37287E-004	...........
	17	4.65	-2.31503E-002	-2.40744E-002	5.43087E-004	...........
	18	4.90833	-2.34551E-002	-2.43637E-002	5.45254E-004	...........
	19	5.16667	-2.37545E-002	-2.46480E-002	5.41487E-004	...........
	20	5.425	-2.40487E-002	-2.49308E-002	5.40554E-004	...........
	21	5.68333	-2.43382E-002	-2.52051E-002	5.40854E-004	...........
	22	5.94167	-2.46234E-002	-2.54736E-002	5.47020E-004	...........
	23	6.2	-2.49040E-002	-2.57423E-002	5.42654E-004	...........
	24	6.45833	-2.51798E-002	-2.60065E-002	5.44854E-004	...........
	25	6.71667	-2.54513E-002	-2.62688E-002	5.40654E-004	...........
	26	6.975	-2.57192E-002	-2.65249E-002	5.45254E-004	...........
	27	7.23333	-2.59838E-002	-2.67789E-002	5.47954E-004	...........
	28	7.49167	-2.62447E-002	-2.70174E-002	5.44287E-004	...........
	29	7.75	-2.65011E-002	-2.72629E-002	5.48787E-004	...........
	30	8.00833	-2.67525E-002	-2.75099E-002	5.42820E-004	...........
	31	8.26667	-2.69999E-002	-2.77520E-002	5.41887E-004	...........
	32	8.525	-2.72451E-002	-2.79917E-002	5.45254E-004	...........
	33	8.78333	-2.74888E-002	-2.82254E-002	5.41954E-004	...........
	34	9.04167	-2.77305E-002	-2.84538E-002	5.42154E-004	...........
	35	9.3	-2.79691E-002	-2.86847E-002	5.46220E-004	...........
	36	9.5583	-2.82040E-002	-2.89084E-002	5.49454E-004	...........
	37	9.8167	-2.84355E-002	-2.91381E-002	5.44487E-004	...........
	38	10.075	-2.86648E-002	-2.93661E-002	5.43720E-004	...........
EOC	QUANT	-0.0286648	Open Circuit (V)
PSTATMODEL	IQUANT	4	Pstat Model
PSTATSECTION	LABEL	REF600-10037	Pstat Section
PSTATSERIALNO	LABEL	10037	Pstat Serial Number
CTRLMODE	IQUANT	1	Control Mode
IESTAB	IQUANT	0	I/E Stability
CASPEED	IQUANT	1	Control Amp Speed
CONVENTION	IQUANT	1	Current Convention
ICHRANGE	IQUANT	2	Ich Range
ICHRANGEMODE	TOGGLE	F	Ich Auto Range
ICHOFFSETENABLE	TOGGLE	T	Ich Offset Enable
ICHOFFSET	QUANT	0	Ich Offset (V)
ICHFILTER	IQUANT	3	Ich Filter
VCHRANGE	IQUANT	2	Vch Range
VCHRANGEMODE	TOGGLE	F	Vch Auto Range
VCHOFFSETENABLE	TOGGLE	T	Vch Offset Enable
VCHOFFSET	QUANT	0	Vch Offset (V)
VCHFILTER	IQUANT	3	Vch Filter
ACHRANGE	IQUANT	2	Ach Range
ACHOFFSETENABLE	TOGGLE	F	Ach Offset Enable
ACHOFFSET	QUANT	0	Ach Offset (V)
ACHFILTER	IQUANT	3	Ach Filter
IERANGELOWERLIMIT	IQUANT	1	I/E Range Lower Limit
IERANGEMODE	TOGGLE	F	I/E AutoRange
IERANGE	IQUANT	7	I/E Range
POSFEEDENABLE	TOGGLE	F	Positive Feedback IR Comp
POSFEEDRESISTANCE	QUANT	0	Positive Feedback Resistance (ohm)
ACHSELECT	IQUANT	0	Ach Select
CABLEID	IQUANT	14	Cable ID
DCCALDATE	LABEL	6/8/2020	DC Calibration Date
ACCALDATE	LABEL	6/8/2020	AC Calibration Date
THERMOSELECT	IQUANT	1	Thermo Select
FRAMEWORKVERSION	QUANT	6.33	Framework Version
INSTRUMENTVERSION	LABEL	3.50	Instrument Version
ZCURVE	TABLE
	Pt	Time	Freq	Zreal	Zimag	Zsig	Zmod	Zphz	Idc	Vdc	IERange
	#	s	Hz	ohm	ohm	V	ohm	°	A	V	#
	0	1	1000078	2017.55	-1893.373	1	2766.834	-43.18139	3.882658E-008	-0.0196528	8
	1	1	794390.6	2366.844	-2008.328	1	3104.083	-40.31547	2.444367E-007	-0.0199628	8
	2	2	630984.4	2745.127	-2092.37	1	3451.627	-37.3151	-8.468251E-008	-0.0201003	8
	3	2	501234.4	3146.108	-2131.246	1	3800.027	-34.11461	-6.542353E-010	-0.0201371	8
	4	2	398109.4	3545.301	-2126.587	1	4134.19	-30.95671	-3.578084E-008	-0.0202214	8
	5	3	316265.6	3936.888	-2062.663	1	4444.51	-27.6515	3.896598E-007	-0.0202416	8
	6	3	251203.1	4307.218	-1968.19	1	4735.599	-24.55811	-1.750536E-007	-0.0202211	8
	7	3	199546.9	4633.756	-1835.78	1	4984.153	-21.61225	-2.725549E-007	-0.0201782	8
	8	3	158578.1	4916.093	-1682.214	1	5195.942	-18.89018	-1.26081E-009	-0.0201707	8
	9	4	125953.1	5260.496	-1349.586	1	5430.856	-14.38897	-1.418478E-007	-0.0201747	7
	10	4	100078.1	5430.004	-1228.156	1	5567.164	-12.7447	1.133403E-008	-0.0202829	7
	11	4	79453.13	5572.239	-1123.557	1	5684.384	-11.39997	7.050931E-008	-0.0202803	7
	12	5	63140.62	5695.419	-1035.948	1	5788.868	-10.30891	6.107054E-008	-0.0203136	7
	13	5	50203.12	5803.22	-966.518	1	5883.156	-9.455743	-5.53891E-008	-0.0201978	7
	14	5	39890.62	5897.047	-917.7055	1	5968.027	-8.845487	7.138127E-008	-0.0202909	7
	15	6	31640.63	5988.375	-888.7172	1	6053.961	-8.441485	-4.917732E-008	-0.0201398	7
	16	6	25171.88	6073.875	-882.0513	1	6137.587	-8.262761	6.889591E-008	-0.0203078	7
	17	6	20015.62	6158.423	-892.0756	1	6222.699	-8.242225	-1.465251E-008	-0.0202616	7
	18	7	15890.62	6241.285	-922.3099	1	6309.064	-8.406084	5.848918E-008	-0.0202493	7
	19	7	12609.37	6327.866	-973.433	1	6402.301	-8.745412	4.446572E-008	-0.020227	7
	20	7	10078.13	6415.013	-1045.399	1	6499.634	-9.255635	-1.177117E-008	-0.0201578	7
	21	8	8015.625	6509.851	-1144.33	1	6609.664	-9.96984	4.401113E-008	-0.0202242	7
	22	8	6328.125	6615.901	-1273.507	1	6737.356	-10.8957	-1.178804E-008	-0.0201472	7
	23	8	5015.625	6728.837	-1434.304	1	6880.005	-12.03296	4.804683E-008	-0.0202234	7
	24	9	3984.375	6852.952	-1628.646	1	7043.822	-13.36869	4.532316E-008	-0.0202217	7
	25	9	3170.956	6990.158	-1865.936	1	7234.917	-14.94591	-6.443804E-008	-0.020168	7
	26	9	2527.573	7136.904	-2149.698	1	7453.63	-16.76276	6.672391E-008	-0.0202716	7
	27	10	1976.103	7316.545	-2521.82	1	7738.954	-19.01772	4.701543E-008	-0.0202261	7
	28	10	1577.524	7503.232	-2938.234	1	8058.021	-21.3851	7.182288E-008	-0.0202895	7
	29	10	1265.625	7706.942	-3424.281	1	8433.425	-23.95611	-5.784026E-008	-0.0201417	7
	30	11	998.264	7951.82	-4060.577	1	8928.59	-27.05102	-6.600131E-008	-0.0201491	7
	31	11	796.875	8223.309	-4773.029	1	9508.13	-30.13203	7.670803E-009	-0.0202466	6
	32	11	627.7902	8536.762	-5720.298	1	10276.09	-33.82518	5.501336E-009	-0.0201985	6
	33	11	505.5147	8863.937	-6765.439	1	11150.81	-37.35284	5.013753E-009	-0.0202044	6
	34	12	397.9953	9276.401	-8173.96	1	12363.87	-41.3851	1.19939E-009	-0.020217	6
	35	12	315.5048	9756.33	-9853.84	1	13866.66	-45.2849	1.253616E-009	-0.0202185	6
	36	12	252.4038	10309.82	-11823.72	1	15687.34	-48.91286	1.22275E-009	-0.0202191	6
	37	13	198.6229	11037.56	-14409.03	1	18150.7	-52.54727	1.296011E-009	-0.0202191	6
	38	13	158.3615	11888.76	-17394.32	1	21069.05	-55.64796	1.165117E-009	-0.0202231	6
	39	13	125.558	12988.63	-21107.8	1	24783.94	-58.39404	1.06725E-009	-0.0202178	6
	40	14	100.4464	14326.55	-25424.69	1	29183.3	-60.59919	1.183234E-009	-0.0202239	6
	41	14	79.00281	16153.97	-31024.64	1	34978.27	-62.49481	1.257826E-009	-0.0202231	6
	42	14	63.3446	18331.26	-37187.21	1	41459.91	-63.75922	1.254131E-009	-0.0202244	6
	43	15	49.86702	21290.02	-45217.61	1	49978.97	-64.78732	1.460319E-009	-0.0202227	6
	44	15	39.72458	24846.42	-54287.82	1	59703.54	-65.4074	6.805213E-010	-0.0202178	6
	45	15	31.6723	29396.04	-65055.07	1	71388.3	-65.68351	9.845359E-010	-0.0202211	6
	46	16	24.93351	35544.93	-78452.66	1	86129.33	-65.62592	4.609591E-010	-0.0202234	6
	47	16	19.86229	42615.12	-93150.91	1	102436	-65.41663	-5.184823E-009	-0.0288601	6
	48	17	15.83615	52010.52	-110092.6	1	121759.9	-64.71276	-3.523897E-009	-0.0288579	5
	49	17	12.40079	65116.78	-131427.7	1	146674.6	-63.64357	-2.292001E-009	-0.0288526	5
	50	17	9.93114	80203.22	-153197.9	1	172922.4	-62.36673	-1.669453E-009	-0.0288497	5
	51	18	7.944915	98521.6	-177024.2	1	202593.3	-60.90216	-1.213795E-009	-0.0288513	5
	52	18	6.317385	121646.5	-203464	1	237055.8	-59.12575	-6.560095E-010	-0.0288542	5
	53	19	5.008013	148636.6	-231857.6	1	275410.2	-57.33735	-3.072655E-010	-0.0288506	5
	54	20	3.945707	179853.4	-262562.2	1	318254.9	-55.58911	-4.863157E-011	-0.0288556	5
	55	21	3.158693	212126.9	-293094.9	1	361804.4	-54.10493	7.185271E-011	-0.0288523	5
	56	22	2.504006	248863	-327474.6	1	411305.8	-52.76712	2.319949E-010	-0.0288596	5
	57	24	1.998082	285353.5	-364407.8	1	462838.7	-51.93689	3.083644E-010	-0.0288617	5
	58	26	1.584686	324109.9	-407808.1	1	520917.2	-51.52369	4.181386E-010	-0.0288567	5
	59	29	1.266892	362776.6	-457104	1	583567.4	-51.56303	4.767194E-010	-0.0288607	5
	60	32	0.999041	405631.1	-520640.2	1	660002.1	-52.07782	4.699804E-010	-0.0288603	5
