EXPLAIN
TAG	EISPOT
TITLE	LABEL	Potentiostatic EIS	Test &Identifier
DATE	LABEL	6/26/2020	Date
TIME	LABEL	13:01:45	Time
NOTES	NOTES	1	&Notes...
	
PSTAT	PSTAT	REF600-11020	Potentiostat
VDC	POTEN	0.00000E+000	T	DC &Voltage (V)
FREQINIT	QUANT	1.00000E+006	Initial Fre&q. (Hz)
FREQFINAL	QUANT	1.00000E+000	Final Fre&q. (Hz)
PTSPERDEC	QUANT	1.00000E+001	Points/&decade
VAC	QUANT	2.50000E+001	AC &Voltage (mV rms)
AREA	QUANT	4.00000E-004	&Area (cm^2)
CONDIT	TWOPARAM	F	5.00000E+000	0.00000E+000	Conditionin&g	Time(s)	E(V)
DELAY	TWOPARAM	F	3.00000E+000	0.00000E+000	Init. De&lay	Time(s)	Stab.(mV/s)
SPEED	SELECTOR	0	&Optimize for:
ZGUESS	QUANT	1.00000E+003	E&stimated Z (ohms)
OCVCURVE	TABLE	39
	Pt	T	Vf	Vm	Ach	Over
	#	s	V vs. Ref.	V	V	bits
	0	0.258333	8.01710E-002	8.01710E-002	5.11417E-004	...........
	1	0.516667	8.01709E-002	8.01666E-002	5.13217E-004	...........
	2	0.775	8.01704E-002	8.01604E-002	5.11350E-004	...........
	3	1.03333	8.01687E-002	8.01558E-002	5.10517E-004	...........
	4	1.29167	8.01655E-002	8.01502E-002	5.10817E-004	...........
	5	1.55	8.01612E-002	8.01477E-002	5.08950E-004	...........
	6	1.80833	8.01564E-002	8.01414E-002	5.14017E-004	...........
	7	2.06667	8.01517E-002	8.01385E-002	5.11450E-004	...........
	8	2.325	8.01471E-002	8.01349E-002	5.11350E-004	...........
	9	2.58333	8.01428E-002	8.01329E-002	5.11084E-004	...........
	10	2.84167	8.01390E-002	8.01290E-002	5.15050E-004	...........
	11	3.1	8.01357E-002	8.01264E-002	5.10184E-004	...........
	12	3.35833	8.01325E-002	8.01180E-002	5.10084E-004	...........
	13	3.61667	8.01289E-002	8.01163E-002	5.12183E-004	...........
	14	3.875	8.01248E-002	8.01098E-002	5.10417E-004	...........
	15	4.13333	8.01204E-002	8.01100E-002	5.04484E-004	...........
	16	4.39167	8.01161E-002	8.01055E-002	5.08750E-004	...........
	17	4.65	8.01124E-002	8.01063E-002	5.08717E-004	...........
	18	4.90833	8.01094E-002	8.01013E-002	5.07817E-004	...........
	19	5.16667	8.01070E-002	8.00999E-002	5.11150E-004	...........
	20	5.425	8.01045E-002	8.00903E-002	5.05350E-004	...........
	21	5.68333	8.01015E-002	8.00894E-002	5.08017E-004	...........
	22	5.94167	8.00976E-002	8.00801E-002	5.02717E-004	...........
	23	6.2	8.00929E-002	8.00788E-002	5.08283E-004	...........
	24	6.45833	8.00880E-002	8.00799E-002	5.06417E-004	...........
	25	6.71667	8.00837E-002	8.00752E-002	5.07550E-004	...........
	26	6.975	8.00805E-002	8.00728E-002	5.08350E-004	...........
	27	7.23333	8.00780E-002	8.00704E-002	5.01117E-004	...........
	28	7.49167	8.00756E-002	8.00663E-002	5.03950E-004	...........
	29	7.75	8.00729E-002	8.00636E-002	5.05550E-004	...........
	30	8.00833	8.00701E-002	8.00621E-002	5.07483E-004	...........
	31	8.26667	8.00672E-002	8.00600E-002	5.04917E-004	...........
	32	8.525	8.00646E-002	8.00589E-002	5.00550E-004	...........
	33	8.78333	8.00623E-002	8.00563E-002	5.04117E-004	...........
	34	9.04167	8.00603E-002	8.00522E-002	5.01050E-004	...........
	35	9.3	8.00583E-002	8.00533E-002	5.03650E-004	...........
	36	9.5583	8.00561E-002	8.00500E-002	5.02284E-004	...........
	37	9.8167	8.00541E-002	8.00455E-002	5.01417E-004	...........
	38	10.075	8.00519E-002	8.00430E-002	5.02950E-004	...........
EOC	QUANT	0.0800519	Open Circuit (V)
PSTATMODEL	IQUANT	4	Pstat Model
PSTATSECTION	LABEL	REF600-11020	Pstat Section
PSTATSERIALNO	LABEL	11020	Pstat Serial Number
CTRLMODE	IQUANT	1	Control Mode
IESTAB	IQUANT	0	I/E Stability
CASPEED	IQUANT	1	Control Amp Speed
CONVENTION	IQUANT	1	Current Convention
ICHRANGE	IQUANT	2	Ich Range
ICHRANGEMODE	TOGGLE	F	Ich Auto Range
ICHOFFSETENABLE	TOGGLE	T	Ich Offset Enable
ICHOFFSET	QUANT	0	Ich Offset (V)
ICHFILTER	IQUANT	3	Ich Filter
VCHRANGE	IQUANT	2	Vch Range
VCHRANGEMODE	TOGGLE	F	Vch Auto Range
VCHOFFSETENABLE	TOGGLE	T	Vch Offset Enable
VCHOFFSET	QUANT	0	Vch Offset (V)
VCHFILTER	IQUANT	3	Vch Filter
ACHRANGE	IQUANT	2	Ach Range
ACHOFFSETENABLE	TOGGLE	F	Ach Offset Enable
ACHOFFSET	QUANT	0	Ach Offset (V)
ACHFILTER	IQUANT	3	Ach Filter
IERANGELOWERLIMIT	IQUANT	1	I/E Range Lower Limit
IERANGEMODE	TOGGLE	F	I/E AutoRange
IERANGE	IQUANT	8	I/E Range
POSFEEDENABLE	TOGGLE	F	Positive Feedback IR Comp
POSFEEDRESISTANCE	QUANT	0	Positive Feedback Resistance (ohm)
ACHSELECT	IQUANT	0	Ach Select
CABLEID	IQUANT	14	Cable ID
DCCALDATE	LABEL	6/26/2020	DC Calibration Date
ACCALDATE	LABEL	6/26/2020	AC Calibration Date
THERMOSELECT	IQUANT	1	Thermo Select
FRAMEWORKVERSION	QUANT	6.33	Framework Version
INSTRUMENTVERSION	LABEL	3.50	Instrument Version
ZCURVE	TABLE
	Pt	Time	Freq	Zreal	Zimag	Zsig	Zmod	Zphz	Idc	Vdc	IERange
	#	s	Hz	ohm	ohm	V	ohm	°	A	V	#
	0	1	1000078	1483.891	-2044.113	1	2525.931	-54.02283	1.823292E-007	0.0824611	8
	1	2	794390.6	1698.826	-2332.536	1	2885.608	-53.9335	-6.162745E-008	0.0820778	8
	2	2	630984.4	1940.535	-2676.963	1	3306.329	-54.06158	-8.206037E-010	0.0819419	8
	3	2	501234.4	2219.151	-3082.926	1	3798.561	-54.25292	-1.327149E-008	0.0818453	8
	4	3	398109.4	2558.055	-3556.885	1	4381.219	-54.27692	7.777879E-008	0.0817789	8
	5	3	316265.6	2959.639	-4114.34	1	5068.26	-54.27075	2.366903E-007	0.0817121	8
	6	3	251203.1	3458.823	-4750.774	1	5876.505	-53.94333	2.295044E-007	0.0817	8
	7	3	199546.9	4077.031	-5470.251	1	6822.45	-53.30249	1.514553E-007	0.0817306	8
	8	4	158578.1	4834.919	-6258.226	1	7908.34	-52.31139	1.530959E-007	0.0816985	8
	9	4	125953.1	5884.206	-7053.146	1	9185.355	-50.16288	-4.575107E-008	0.0818265	7
	10	4	100078.1	6996.213	-7913.973	1	10563.05	-48.52225	1.620467E-008	0.0816979	7
	11	5	79453.13	8312.563	-8744.7	1	12065.18	-46.45125	-1.873338E-008	0.0817309	7
	12	5	63140.62	9787.06	-9519.75	1	13653.29	-44.20677	3.07604E-008	0.0816617	7
	13	5	50203.12	11438.47	-10172.16	1	15307.23	-41.64648	2.274634E-008	0.0816774	7
	14	6	39890.62	13227.68	-10714.21	1	17022.51	-39.00693	-3.059312E-008	0.0817165	7
	15	6	31640.63	15086.5	-11098.27	1	18728.96	-36.33978	-3.345085E-008	0.0817128	7
	16	6	25171.88	16916.38	-11311.76	1	20349.94	-33.77014	2.888437E-008	0.0816578	7
	17	7	20015.62	18749.24	-11459.78	1	21974.09	-31.43381	2.545546E-008	0.0816279	7
	18	7	15890.62	20500.25	-11486.44	1	23498.9	-29.26223	1.792709E-008	0.081681	7
	19	7	12609.37	22383.41	-11298.71	1	25073.45	-26.78376	4.466555E-009	0.081592	6
	20	8	10078.13	23919.28	-11401.23	1	26497.54	-25.485	4.740289E-010	0.0816206	6
	21	8	8015.625	25454.09	-11587.5	1	27967.49	-24.47652	4.361713E-009	0.0816585	6
	22	8	6328.125	26930.64	-11802.29	1	29403.29	-23.66532	5.187289E-009	0.0816342	6
	23	8	5015.625	28474.02	-12243.68	1	30994.8	-23.26744	5.670163E-009	0.0816078	6
	24	9	3984.375	29953.2	-12737.85	1	32549.15	-23.03803	-5.287015E-009	0.0817379	6
	25	9	3170.956	31456.67	-13334.57	1	34166.25	-22.97222	-5.119335E-009	0.0817165	6
	26	9	2527.573	33135.77	-14164.45	1	36036.25	-23.14511	-1.941278E-009	0.0817345	6
	27	10	1976.103	35092.97	-15248.29	1	38262.61	-23.48549	3.294388E-009	0.0815894	6
	28	10	1577.524	37000.35	-16400.06	1	40472.06	-23.90488	-2.790763E-009	0.0816618	6
	29	10	1265.625	38881.61	-17577.33	1	42670.16	-24.32645	-3.679628E-009	0.0817334	6
	30	11	998.264	40932.06	-18944.53	1	45103.53	-24.83605	5.0444E-009	0.0815882	6
	31	11	796.875	43161.39	-20717.14	1	47875.93	-25.64065	-1.33246E-009	0.0816339	6
	32	11	627.7902	45515.31	-22718.77	1	50870.29	-26.52588	4.95115E-009	0.0816246	6
	33	12	505.5147	47754.46	-24969.67	1	53888.52	-27.604	-4.523656E-009	0.0817278	6
	34	12	397.9953	50221.52	-27806.22	1	57405.46	-28.97205	5.273861E-010	0.0816796	6
	35	12	315.5048	52941.48	-31409.53	1	61557.77	-30.68013	5.418346E-010	0.0816808	6
	36	13	252.4038	55777.97	-35728.91	1	66239.99	-32.64183	6.179045E-010	0.0816787	6
	37	13	198.6229	58861.99	-40804.3	1	71622.1	-34.73047	4.514013E-010	0.0816812	6
	38	13	158.3615	62469.72	-47396.02	1	78414.59	-37.18773	6.078461E-010	0.0816772	6
	39	14	125.558	66757.1	-55207.86	1	86628.05	-39.59061	4.925174E-010	0.0816772	6
	40	14	100.4464	71942.02	-65127.27	1	97042.3	-42.15374	3.949379E-010	0.0816741	6
	41	14	79.00281	78847.99	-77046.87	1	110241.7	-44.33807	5.574513E-010	0.0816655	5
	42	15	63.3446	86579.02	-88774.13	1	124003.1	-45.71721	3.407596E-010	0.0816619	5
	43	15	49.86702	97666.7	-105267.7	1	143596.9	-47.14506	9.447775E-011	0.0816655	5
	44	15	39.72458	110625.1	-122269.1	1	164886.7	-47.86224	1.763937E-010	0.0816699	5
	45	16	31.6723	126562.7	-140845.7	1	189355.8	-48.05741	9.555352E-011	0.0816697	5
	46	16	24.93351	147015.6	-160067.9	1	217336.9	-47.43384	2.842876E-010	0.0816657	5
	47	16	19.86229	170152.9	-181028	1	248441.4	-46.77373	1.798249E-009	0.0816695	5
	48	16	15.83615	196935.6	-197552.2	1	278945.3	-45.08956	2.6444E-010	0.0816643	5
	49	17	12.40079	229120.5	-219229.6	1	317108.6	-43.73621	-2.902166E-010	0.0816667	5
	50	17	9.93114	260885.4	-234952.2	1	351089.3	-42.00605	8.671181E-010	0.0816688	5
	51	17	7.944915	291589.5	-255062.8	1	387403.5	-41.17725	1.160004E-009	0.0816671	5
	52	18	6.317385	323815.2	-271355.8	1	422481	-39.96287	-2.450992E-010	0.0816768	5
	53	19	5.008013	359160.8	-294574.7	1	464511.3	-39.35775	3.772112E-011	0.0816654	5
	54	20	3.945707	387534.9	-316609	1	500424.4	-39.2482	2.843975E-010	0.081662	5
	55	20	3.158693	427478.3	-349781.5	1	552344.8	-39.29153	-8.214696E-011	0.0816745	5
	56	21	2.504006	467800.4	-392909.2	1	610913.1	-40.02716	-8.165129E-011	0.0816594	5
	57	23	1.998082	508046.1	-437974.9	1	670770.4	-40.76387	1.095714E-010	0.0816765	5
	58	24	1.584686	542518.9	-492655.4	1	732827.5	-42.24224	1.16379E-010	0.0816907	5
	59	26	1.266892	588342.3	-561530.4	1	813303.8	-43.66426	1.079343E-010	0.0816538	5
	60	29	0.999041	655784.8	-644540.4	1	919503.1	-44.50455	1.19972E-010	0.0816335	5
