EXPLAIN
TAG	EISPOT
TITLE	LABEL	Potentiostatic EIS	Test &Identifier
DATE	LABEL	1/10/2020	Date
TIME	LABEL	12:54:58	Time
NOTES	NOTES	5	&Notes...
	
	
	
	
	
PSTAT	PSTAT	REF600-11020	Potentiostat
VDC	POTEN	0.00000E+000	T	DC &Voltage (V)
FREQINIT	QUANT	1.00000E+006	Initial Fre&q. (Hz)
FREQFINAL	QUANT	1.00000E+000	Final Fre&q. (Hz)
PTSPERDEC	QUANT	1.00000E+001	Points/&decade
VAC	QUANT	2.50000E+001	AC &Voltage (mV rms)
AREA	QUANT	1.00000E-001	&Area (cm^2)
CONDIT	TWOPARAM	T	5.00000E+000	0.00000E+000	Conditionin&g	Time(s)	E(V)
DELAY	TWOPARAM	T	5.00000E+000	0.00000E+000	Init. De&lay	Time(s)	Stab.(mV/s)
SPEED	SELECTOR	0	&Optimize for:
ZGUESS	QUANT	5.00000E+002	E&stimated Z (ohms)
OCVCURVE	TABLE	19
	Pt	T	Vf	Vm	Ach	Over
	#	s	V vs. Ref.	V	V	bits
	0	0.258333	4.74430E-003	4.74430E-003	6.84346E-004	...........
	1	0.516667	4.74105E-003	4.57434E-003	6.80246E-004	...........
	2	0.775	4.71985E-003	4.34728E-003	6.83079E-004	...........
	3	1.03333	4.65664E-003	4.17848E-003	6.77012E-004	...........
	4	1.29167	4.53977E-003	4.02928E-003	6.78946E-004	...........
	5	1.55	4.38355E-003	3.86602E-003	6.81112E-004	...........
	6	1.80833	4.21415E-003	3.76474E-003	6.81012E-004	...........
	7	2.06667	4.05111E-003	3.62355E-003	6.82446E-004	...........
	8	2.325	3.90305E-003	3.54615E-003	6.83246E-004	...........
	9	2.58333	3.77131E-003	3.43314E-003	6.84579E-004	...........
	10	2.84167	3.65414E-003	3.35899E-003	6.82379E-004	...........
	11	3.1	3.54879E-003	3.26463E-003	6.84412E-004	...........
	12	3.35833	3.45249E-003	3.19522E-003	6.82246E-004	...........
	13	3.61667	3.36298E-003	3.10696E-003	6.82246E-004	...........
	14	3.875	3.27793E-003	3.01180E-003	6.82812E-004	...........
	15	4.13333	3.19514E-003	2.98014E-003	6.82812E-004	...........
	16	4.39167	3.11561E-003	2.91574E-003	6.82112E-004	...........
	17	4.65	3.04369E-003	2.88611E-003	6.83046E-004	...........
	18	4.90833	2.98164E-003	2.80448E-003	6.85779E-004	...........
EOC	QUANT	0.0029816	Open Circuit (V)
PSTATMODEL	IQUANT	4	Pstat Model
PSTATSECTION	LABEL	REF600-11020	Pstat Section
PSTATSERIALNO	LABEL	11020	Pstat Serial Number
CTRLMODE	IQUANT	1	Control Mode
IESTAB	IQUANT	0	I/E Stability
CASPEED	IQUANT	1	Control Amp Speed
CONVENTION	IQUANT	1	Current Convention
ICHRANGE	IQUANT	2	Ich Range
ICHRANGEMODE	TOGGLE	F	Ich Auto Range
ICHOFFSETENABLE	TOGGLE	T	Ich Offset Enable
ICHOFFSET	QUANT	0	Ich Offset (V)
ICHFILTER	IQUANT	3	Ich Filter
VCHRANGE	IQUANT	2	Vch Range
VCHRANGEMODE	TOGGLE	F	Vch Auto Range
VCHOFFSETENABLE	TOGGLE	T	Vch Offset Enable
VCHOFFSET	QUANT	0	Vch Offset (V)
VCHFILTER	IQUANT	3	Vch Filter
ACHRANGE	IQUANT	2	Ach Range
ACHOFFSETENABLE	TOGGLE	F	Ach Offset Enable
ACHOFFSET	QUANT	0	Ach Offset (V)
ACHFILTER	IQUANT	3	Ach Filter
IERANGELOWERLIMIT	IQUANT	1	I/E Range Lower Limit
IERANGEMODE	TOGGLE	F	I/E AutoRange
IERANGE	IQUANT	7	I/E Range
POSFEEDENABLE	TOGGLE	F	Positive Feedback IR Comp
POSFEEDRESISTANCE	QUANT	0	Positive Feedback Resistance (ohm)
ACHSELECT	IQUANT	0	Ach Select
CABLEID	IQUANT	14	Cable ID
DCCALDATE	LABEL	12/22/2019	DC Calibration Date
ACCALDATE	LABEL	12/22/2019	AC Calibration Date
THERMOSELECT	IQUANT	1	Thermo Select
FRAMEWORKVERSION	QUANT	6.33	Framework Version
INSTRUMENTVERSION	LABEL	3.50	Instrument Version
ZCURVE	TABLE
	Pt	Time	Freq	Zreal	Zimag	Zsig	Zmod	Zphz	Idc	Vdc	IERange
	#	s	Hz	ohm	ohm	V	ohm	°	A	V	#
	0	1	1000078	2305.364	-1812.86	1	2932.774	-38.18031	2.648248E-006	0.0048375	8
	1	1	794390.6	2687.616	-1775.721	1	3221.252	-33.45293	-1.571929E-006	0.0052612	8
	2	2	630984.4	3029.745	-1681.78	1	3465.218	-29.0342	4.214283E-006	0.0042465	8
	3	2	501234.4	3331.394	-1543.707	1	3671.678	-24.86214	-2.341459E-007	0.0046635	8
	4	2	398109.4	3588.271	-1373.621	1	3842.203	-20.94728	2.860956E-008	0.0046111	8
	5	3	316265.6	3800.367	-1201.626	1	3985.812	-17.54627	-4.483126E-009	0.0045828	8
	6	3	251203.1	3910.753	-1068.716	1	4054.151	-15.28439	1.118168E-006	0.0043829	8
	7	3	199546.9	4042.199	-902.6832	1	4141.764	-12.58845	-2.963556E-007	0.0047147	8
	8	4	158578.1	4121.007	-814.0444	1	4200.639	-11.17408	-1.351682E-006	0.0048677	8
	9	4	125953.1	4205.109	-691.1619	1	4261.531	-9.333818	-1.74831E-007	0.0049709	7
	10	4	100078.1	4254.215	-621.1028	1	4299.316	-8.306329	-1.394482E-008	0.0045892	7
	11	5	79453.13	4303.868	-580.368	1	4342.823	-7.679894	4.624909E-009	0.0045572	7
	12	5	63140.62	4351.221	-553.8289	1	4386.325	-7.253676	4.857775E-008	0.0045717	7
	13	5	50203.12	4395.709	-542.3459	1	4429.041	-7.033649	-1.874417E-009	0.0046135	7
	14	5	39890.62	4439.477	-545.4398	1	4472.858	-7.00433	-8.129972E-009	0.0046253	7
	15	6	31640.63	4485.22	-561.8197	1	4520.27	-7.139697	-2.570578E-008	0.0046229	7
	16	6	25171.88	4532.387	-594.6638	1	4571.231	-7.474696	-3.704015E-008	0.004642	7
	17	6	20015.62	4582.674	-640.6732	1	4627.242	-7.958559	-1.834387E-008	0.004587	7
	18	7	15890.62	4638.271	-704.4218	1	4691.458	-8.635612	7.018967E-009	0.0045389	7
	19	7	12609.37	4697.933	-786.4044	1	4763.298	-9.50285	-3.063303E-008	0.0046881	7
	20	7	10078.13	4762.041	-884.4319	1	4843.475	-10.5214	-3.095025E-008	0.0046936	7
	21	8	8015.625	4835.403	-1005.962	1	4938.936	-11.75223	-2.746541E-008	0.0046095	7
	22	8	6328.125	4917.422	-1164.044	1	5053.32	-13.31781	-1.715461E-008	0.0045867	7
	23	8	5015.625	5012.045	-1350.752	1	5190.87	-15.08293	4.571447E-010	0.0046485	7
	24	9	3984.375	5113.397	-1578.689	1	5351.551	-17.15733	-6.678191E-009	0.0046198	7
	25	9	3170.956	5230.47	-1844.018	1	5546.01	-19.42026	-1.527155E-008	0.0045765	7
	26	9	2527.573	5363.193	-2165.1	1	5783.727	-21.98373	-2.688875E-008	0.0046175	7
	27	10	1976.103	5527.247	-2587.539	1	6102.935	-25.08628	-4.759687E-011	0.0046475	7
	28	10	1577.524	5701.467	-3056.757	1	6469.196	-28.19732	-7.184623E-009	0.0046115	7
	29	10	1265.625	5893.678	-3601.15	1	6906.788	-31.42573	-2.49747E-008	0.0046179	7
	30	11	998.264	6140.318	-4320.771	1	7508.167	-35.13299	-2.741522E-008	0.0046444	7
	31	11	796.875	6402.549	-5135.31	1	8207.561	-38.73215	-2.435977E-008	0.0046169	7
	32	11	627.7902	6725.188	-6187.588	1	9138.621	-42.61597	-2.461639E-008	0.0046173	7
	33	12	505.5147	7070.964	-7352.681	1	10201	-46.11894	-5.27256E-010	0.0045842	6
	34	12	397.9953	7511.999	-8903.666	1	11649.27	-49.84576	8.729016E-010	0.0045867	6
	35	12	315.5048	8019.437	-10750.21	1	13411.88	-53.27782	1.576771E-009	0.0045852	6
	36	13	252.4038	8595.429	-12904.96	1	15505.46	-56.33415	9.929787E-010	0.0045838	6
	37	13	198.6229	9327.5	-15722.89	1	18281.46	-59.32175	1.081469E-009	0.0045849	6
	38	13	158.3615	10170.87	-18969.94	1	21524.52	-61.80169	1.37287E-009	0.0045832	6
	39	13	125.558	11204	-23024.5	1	25605.8	-64.0519	8.933858E-010	0.0045835	6
	40	14	100.4464	12392.79	-27802.07	1	30439.06	-65.97504	5.852658E-010	0.0045777	6
	41	14	79.00281	13877.04	-34036.57	1	36756.77	-67.81881	2.265546E-010	0.0045816	6
	42	14	63.3446	16064.7	-40831.53	1	43878.11	-68.52341	8.210611E-010	0.0045778	6
	43	15	49.86702	18332.87	-50241.52	1	53481.81	-69.95323	6.998031E-010	0.004577	6
	44	15	39.72458	20873.64	-61091.54	1	64559.16	-71.13583	7.81263E-010	0.0045799	6
	45	16	31.6723	24327.01	-74376.77	1	78254.12	-71.88821	4.302782E-010	0.0045779	6
	46	16	24.93351	29594.42	-91130.12	1	95815.1	-72.00884	6.114387E-010	0.0045765	6
	47	16	19.86229	35885.8	-110353.4	1	116041.6	-71.986	-4.167118E-010	0.0045684	5
	48	16	15.83615	44741.01	-133204.1	1	140517.2	-71.43367	-3.131175E-010	0.0045754	5
	49	17	12.40079	56411.54	-163463.9	1	172924	-70.9604	6.034269E-010	0.0045771	5
	50	17	9.93114	69543.03	-195533.3	1	207531.9	-70.42165	-1.275817E-010	0.0045715	5
	51	18	7.944915	87474.05	-232320.1	1	248242.5	-69.36745	-6.11033E-010	0.0045778	5
	52	18	6.317385	112584.2	-276290.3	1	298348	-67.82983	-2.826329E-010	0.0045862	5
	53	19	5.008013	143355.7	-326684.7	1	356754.4	-66.30717	-1.281844E-010	0.00457	5
	54	20	3.945707	184214.6	-384618.9	1	426458.3	-64.40775	3.114447E-010	0.0045655	5
	55	22	3.158693	227816.8	-444875.7	1	499814.8	-62.88343	2.099142E-010	0.0045841	5
	56	23	2.504006	284274.4	-513263.4	1	586729.3	-61.01983	7.037361E-011	0.0045792	5
	57	25	1.998082	345779.8	-585271.7	1	679784.2	-59.42532	1.43019E-010	0.0045648	5
	58	26	1.584686	420898.8	-664022.7	1	786181.9	-57.63094	2.263104E-010	0.0046084	5
	59	28	1.266892	500897.5	-749567	1	901525.9	-56.24721	2.251675E-010	0.0046048	5
	60	31	0.999041	594219.1	-849695.4	1	1036860	-55.03368	1.865821E-010	0.0046336	4
