EXPLAIN
TAG	EISPOT
TITLE	LABEL	Potentiostatic EIS	Test &Identifier
DATE	LABEL	1/7/2020	Date
TIME	LABEL	17:38:57	Time
NOTES	NOTES	5	&Notes...
	
	
	
	
	
PSTAT	PSTAT	REF600-11020	Potentiostat
VDC	POTEN	0.00000E+000	T	DC &Voltage (V)
FREQINIT	QUANT	1.00000E+006	Initial Fre&q. (Hz)
FREQFINAL	QUANT	1.00000E+000	Final Fre&q. (Hz)
PTSPERDEC	QUANT	1.00000E+001	Points/&decade
VAC	QUANT	2.50000E+001	AC &Voltage (mV rms)
AREA	QUANT	1.00000E-001	&Area (cm^2)
CONDIT	TWOPARAM	T	5.00000E+000	0.00000E+000	Conditionin&g	Time(s)	E(V)
DELAY	TWOPARAM	T	5.00000E+000	0.00000E+000	Init. De&lay	Time(s)	Stab.(mV/s)
SPEED	SELECTOR	0	&Optimize for:
ZGUESS	QUANT	1.00000E+003	E&stimated Z (ohms)
OCVCURVE	TABLE	19
	Pt	T	Vf	Vm	Ach	Over
	#	s	V vs. Ref.	V	V	bits
	0	0.258333	8.00023E-003	8.00023E-003	6.66979E-004	...........
	1	0.516667	7.99507E-003	7.73012E-003	6.62813E-004	...........
	2	0.775	7.96532E-003	7.57570E-003	6.64913E-004	...........
	3	1.03333	7.88698E-003	7.39378E-003	6.58513E-004	...........
	4	1.29167	7.75750E-003	7.27101E-003	6.58613E-004	...........
	5	1.55	7.60107E-003	7.22580E-003	6.57980E-004	...........
	6	1.80833	7.44833E-003	7.05874E-003	6.58479E-004	...........
	7	2.06667	7.31461E-003	6.96653E-003	6.65979E-004	...........
	8	2.325	7.19671E-003	6.89549E-003	6.63346E-004	...........
	9	2.58333	7.08906E-003	6.83434E-003	6.68846E-004	...........
	10	2.84167	6.99356E-003	6.79382E-003	6.63046E-004	...........
	11	3.1	6.91410E-003	6.75945E-003	6.61413E-004	...........
	12	3.35833	6.85104E-003	6.71084E-003	6.60613E-004	...........
	13	3.61667	6.79986E-003	6.63655E-003	6.60879E-004	...........
	14	3.875	6.76133E-003	7.05189E-003	6.61779E-004	...........
	15	4.13333	6.74830E-003	6.53104E-003	6.59946E-004	...........
	16	4.39167	6.75705E-003	6.82415E-003	6.63246E-004	...........
	17	4.65	6.75645E-003	6.46454E-003	6.61046E-004	...........
	18	4.90833	6.72221E-003	6.43433E-003	6.65879E-004	...........
EOC	QUANT	0.0067222	Open Circuit (V)
PSTATMODEL	IQUANT	4	Pstat Model
PSTATSECTION	LABEL	REF600-11020	Pstat Section
PSTATSERIALNO	LABEL	11020	Pstat Serial Number
CTRLMODE	IQUANT	1	Control Mode
IESTAB	IQUANT	0	I/E Stability
CASPEED	IQUANT	1	Control Amp Speed
CONVENTION	IQUANT	1	Current Convention
ICHRANGE	IQUANT	2	Ich Range
ICHRANGEMODE	TOGGLE	F	Ich Auto Range
ICHOFFSETENABLE	TOGGLE	T	Ich Offset Enable
ICHOFFSET	QUANT	0	Ich Offset (V)
ICHFILTER	IQUANT	3	Ich Filter
VCHRANGE	IQUANT	2	Vch Range
VCHRANGEMODE	TOGGLE	F	Vch Auto Range
VCHOFFSETENABLE	TOGGLE	T	Vch Offset Enable
VCHOFFSET	QUANT	0	Vch Offset (V)
VCHFILTER	IQUANT	3	Vch Filter
ACHRANGE	IQUANT	2	Ach Range
ACHOFFSETENABLE	TOGGLE	F	Ach Offset Enable
ACHOFFSET	QUANT	0	Ach Offset (V)
ACHFILTER	IQUANT	3	Ach Filter
IERANGELOWERLIMIT	IQUANT	1	I/E Range Lower Limit
IERANGEMODE	TOGGLE	F	I/E AutoRange
IERANGE	IQUANT	7	I/E Range
POSFEEDENABLE	TOGGLE	F	Positive Feedback IR Comp
POSFEEDRESISTANCE	QUANT	0	Positive Feedback Resistance (ohm)
ACHSELECT	IQUANT	0	Ach Select
CABLEID	IQUANT	14	Cable ID
DCCALDATE	LABEL	12/22/2019	DC Calibration Date
ACCALDATE	LABEL	12/22/2019	AC Calibration Date
THERMOSELECT	IQUANT	1	Thermo Select
FRAMEWORKVERSION	QUANT	6.33	Framework Version
INSTRUMENTVERSION	LABEL	3.50	Instrument Version
ZCURVE	TABLE
	Pt	Time	Freq	Zreal	Zimag	Zsig	Zmod	Zphz	Idc	Vdc	IERange
	#	s	Hz	ohm	ohm	V	ohm	°	A	V	#
	0	1	1000078	2298.188	-2490.597	1	3388.915	-47.30085	3.865077E-006	0.0075604	8
	1	1	794390.6	2768.787	-2720.455	1	3881.63	-44.49553	-1.079848E-005	0.0105641	8
	2	2	630984.4	3262.489	-2876.461	1	4349.466	-41.40188	1.147169E-005	0.0068362	8
	3	2	501234.4	3774.235	-3001.392	1	4822.157	-38.49284	-8.788761E-006	0.0099157	8
	4	2	398109.4	4289.767	-3063.109	1	5271.123	-35.52875	3.895515E-006	0.0078277	8
	5	3	316265.6	4863.165	-3031.749	1	5730.783	-31.93985	3.809892E-006	0.007265	8
	6	3	251203.1	5467.575	-3075.617	1	6273.261	-29.3586	2.267498E-006	0.0077438	8
	7	3	199546.9	6034.507	-2789.346	1	6647.987	-24.80792	-2.711723E-006	0.0090273	8
	8	4	158578.1	6372.564	-2828.998	1	6972.289	-23.93806	-4.509405E-007	0.0088824	8
	9	4	125953.1	6884.215	-2395.985	1	7289.25	-19.18996	-1.716906E-006	0.0133712	7
	10	5	100078.1	7196.673	-2325.135	1	7562.959	-17.90485	-4.048433E-008	0.0084398	7
	11	5	79453.13	7484.189	-2215.36	1	7805.185	-16.48903	-8.658106E-008	0.0083826	7
	12	6	63140.62	7750.913	-2140.292	1	8040.989	-15.43664	1.484835E-007	0.0080491	7
	13	6	50203.12	7986.218	-2092.75	1	8255.863	-14.68393	-1.638166E-008	0.0083926	7
	14	6	39890.62	8216.4	-2081.211	1	8475.888	-14.21404	-9.645554E-008	0.0083934	7
	15	7	31640.63	8445.117	-2111.298	1	8705.032	-14.03636	4.97397E-008	0.0081368	7
	16	7	25171.88	8665.335	-2172.124	1	8933.429	-14.07227	-5.441792E-008	0.0085194	7
	17	7	20015.62	8916.013	-2280.464	1	9203.032	-14.34706	1.267582E-007	0.008294	7
	18	8	15890.62	9153.435	-2410.38	1	9465.479	-14.75282	-1.182185E-007	0.0084675	7
	19	8	12609.37	9496.459	-2441.836	1	9805.37	-14.42015	-2.565793E-009	0.0082081	6
	20	8	10078.13	9755.72	-2682.361	1	10117.76	-15.37374	5.774792E-009	0.0081471	6
	21	9	8015.625	10051.14	-2980.981	1	10483.87	-16.51938	-1.082013E-008	0.0084729	6
	22	9	6328.125	10396.18	-3327.225	1	10915.63	-17.7469	-3.286818E-009	0.0082071	6
	23	9	5015.625	10760.2	-3730.388	1	11388.49	-19.12061	-2.587988E-009	0.0083192	6
	24	9	3984.375	11170.71	-4185.39	1	11929.05	-20.53974	-6.892753E-009	0.0086001	6
	25	10	3170.956	11627.99	-4733.086	1	12554.37	-22.14842	-7.078093E-009	0.0085977	6
	26	10	2527.573	12134.45	-5348.677	1	13260.96	-23.78715	1.016114E-008	0.0079419	6
	27	10	1976.103	12754	-6126.571	1	14149.19	-25.65798	1.542634E-008	0.0079605	6
	28	11	1577.524	13496.45	-6929.208	1	15171.29	-27.1764	3.363647E-008	0.0077263	6
	29	11	1265.625	14119.81	-7890.493	1	16174.95	-29.19752	-2.292018E-009	0.008318	6
	30	11	998.264	15015.21	-9051.947	1	17532.67	-31.08375	4.853886E-009	0.0081427	6
	31	12	796.875	15993.21	-10327.73	1	19037.98	-32.85263	-1.119627E-008	0.0083412	6
	32	12	627.7902	17184.01	-11861.35	1	20880.18	-34.61558	-7.579644E-009	0.0086001	6
	33	12	505.5147	18442.13	-13431.05	1	22814.58	-36.06513	-8.907696E-009	0.0084555	6
	34	13	397.9953	20016.44	-15384.59	1	25245.66	-37.5458	5.513308E-010	0.0083075	6
	35	13	315.5048	21752.67	-17488.01	1	27910.73	-38.79746	5.874298E-010	0.0083077	6
	36	13	252.4038	23575.49	-19734.45	1	30744.95	-39.93186	1.029518E-009	0.0083074	6
	37	14	198.6229	25629.78	-22463.91	1	34080.98	-41.23381	6.566243E-010	0.0083111	6
	38	14	158.3615	27634.9	-25479.81	1	37588.67	-42.67654	8.745917E-010	0.0083068	6
	39	14	125.558	29690.07	-29177.93	1	41627.54	-44.50155	8.546742E-010	0.0083072	6
	40	15	100.4464	31646.4	-33586.04	1	46146.69	-46.70314	1.532986E-010	0.0083028	6
	41	15	79.00281	33846.36	-39515.55	1	52029.36	-49.41887	1.141525E-009	0.0083003	6
	42	15	63.3446	36759.77	-45927.17	1	58826.74	-51.32648	5.032221E-010	0.0083012	6
	43	16	49.86702	39530.19	-55460.16	1	68106.28	-54.51997	-6.708598E-011	0.0083006	6
	44	16	39.72458	42417.2	-66495.06	1	78872.13	-57.46619	5.998956E-010	0.0083031	6
	45	16	31.6723	46628.21	-80243.36	1	92807.26	-59.83977	6.095632E-010	0.0082992	6
	46	17	24.93351	52089.04	-97344.2	1	110404.6	-61.8487	3.783747E-011	0.0082961	5
	47	17	19.86229	59015.95	-117636	1	131609.7	-63.35786	-8.515711E-010	0.0082914	5
	48	17	15.83615	69963.25	-142438.4	1	158693.3	-63.84054	1.64008E-009	0.0082955	5
	49	18	12.40079	83505.67	-172600.7	1	191739.9	-64.18192	-5.489331E-010	0.008295	5
	50	18	9.93114	98163.4	-204507.8	1	226846.9	-64.35909	7.996206E-010	0.0082906	5
	51	18	7.944915	119259.2	-241533.5	1	269371.9	-63.72175	2.638759E-010	0.0082944	5
	52	19	6.317385	145701.1	-284419.8	1	319567.5	-62.87508	2.034573E-010	0.0082924	5
	53	20	5.008013	179299.5	-333390.6	1	378546.7	-61.72836	3.285122E-010	0.0083027	5
	54	21	3.945707	219368.7	-386517.5	1	444430.4	-60.42284	1.033906E-010	0.0083006	5
	55	22	3.158693	263274	-441516.9	1	514052.9	-59.19262	1.159346E-010	0.00828	5
	56	24	2.504006	313261.8	-505343.9	1	594563.2	-58.2053	2.414174E-010	0.0082968	5
	57	25	1.998082	364177.9	-573041.1	1	678971	-57.5633	1.164283E-010	0.0082705	5
	58	27	1.584686	421837.8	-656821.7	1	780616.4	-57.28976	5.489292E-011	0.0082497	5
	59	29	1.266892	480148.8	-751375.7	1	891688.4	-57.42035	9.290298E-011	0.0082724	5
	60	31	0.999041	550692.8	-872878.3	1	1032075	-57.75246	1.993301E-011	0.0083346	4
