EXPLAIN
TAG	EISPOT
TITLE	LABEL	Potentiostatic EIS	Test &Identifier
DATE	LABEL	3/19/2020	Date
TIME	LABEL	20:53:26	Time
NOTES	NOTES	1	&Notes...
	
PSTAT	PSTAT	REF600-11020	Potentiostat
VDC	POTEN	0.00000E+000	T	DC &Voltage (V)
FREQINIT	QUANT	1.00000E+006	Initial Fre&q. (Hz)
FREQFINAL	QUANT	1.00000E+000	Final Fre&q. (Hz)
PTSPERDEC	QUANT	1.00000E+001	Points/&decade
VAC	QUANT	2.50000E+001	AC &Voltage (mV rms)
AREA	QUANT	4.00000E-004	&Area (cm^2)
CONDIT	TWOPARAM	F	5.00000E+000	0.00000E+000	Conditionin&g	Time(s)	E(V)
DELAY	TWOPARAM	T	3.00000E+000	0.00000E+000	Init. De&lay	Time(s)	Stab.(mV/s)
SPEED	SELECTOR	0	&Optimize for:
ZGUESS	QUANT	1.00000E+003	E&stimated Z (ohms)
OCVCURVE	TABLE	12
	Pt	T	Vf	Vm	Ach	Over
	#	s	V vs. Ref.	V	V	bits
	0	0.258333	-6.62745E-002	-6.62745E-002	5.78330E-004	...........
	1	0.516667	-6.62744E-002	-6.62696E-002	5.75230E-004	...........
	2	0.775	-6.62742E-002	-6.62844E-002	5.75930E-004	...........
	3	1.03333	-6.62747E-002	-6.62886E-002	5.78863E-004	...........
	4	1.29167	-6.62771E-002	-6.62923E-002	5.77663E-004	...........
	5	1.55	-6.62814E-002	-6.62902E-002	5.79063E-004	...........
	6	1.80833	-6.62860E-002	-6.62980E-002	5.80163E-004	...........
	7	2.06667	-6.62901E-002	-6.63090E-002	5.78263E-004	...........
	8	2.325	-6.62939E-002	-6.62927E-002	5.80230E-004	...........
	9	2.58333	-6.62970E-002	-6.62826E-002	5.78730E-004	...........
	10	2.84167	-6.62967E-002	-6.62639E-002	5.79697E-004	...........
	11	3.1	-6.62911E-002	-6.62500E-002	5.83130E-004	...........
EOC	QUANT	-0.0662911	Open Circuit (V)
PSTATMODEL	IQUANT	4	Pstat Model
PSTATSECTION	LABEL	REF600-11020	Pstat Section
PSTATSERIALNO	LABEL	11020	Pstat Serial Number
CTRLMODE	IQUANT	1	Control Mode
IESTAB	IQUANT	0	I/E Stability
CASPEED	IQUANT	1	Control Amp Speed
CONVENTION	IQUANT	1	Current Convention
ICHRANGE	IQUANT	2	Ich Range
ICHRANGEMODE	TOGGLE	F	Ich Auto Range
ICHOFFSETENABLE	TOGGLE	T	Ich Offset Enable
ICHOFFSET	QUANT	0	Ich Offset (V)
ICHFILTER	IQUANT	3	Ich Filter
VCHRANGE	IQUANT	2	Vch Range
VCHRANGEMODE	TOGGLE	F	Vch Auto Range
VCHOFFSETENABLE	TOGGLE	T	Vch Offset Enable
VCHOFFSET	QUANT	0	Vch Offset (V)
VCHFILTER	IQUANT	3	Vch Filter
ACHRANGE	IQUANT	2	Ach Range
ACHOFFSETENABLE	TOGGLE	F	Ach Offset Enable
ACHOFFSET	QUANT	0	Ach Offset (V)
ACHFILTER	IQUANT	3	Ach Filter
IERANGELOWERLIMIT	IQUANT	1	I/E Range Lower Limit
IERANGEMODE	TOGGLE	F	I/E AutoRange
IERANGE	IQUANT	8	I/E Range
POSFEEDENABLE	TOGGLE	F	Positive Feedback IR Comp
POSFEEDRESISTANCE	QUANT	0	Positive Feedback Resistance (ohm)
ACHSELECT	IQUANT	0	Ach Select
CABLEID	IQUANT	14	Cable ID
DCCALDATE	LABEL	2/27/2020	DC Calibration Date
ACCALDATE	LABEL	2/27/2020	AC Calibration Date
THERMOSELECT	IQUANT	1	Thermo Select
FRAMEWORKVERSION	QUANT	6.33	Framework Version
INSTRUMENTVERSION	LABEL	3.50	Instrument Version
ZCURVE	TABLE
	Pt	Time	Freq	Zreal	Zimag	Zsig	Zmod	Zphz	Idc	Vdc	IERange
	#	s	Hz	ohm	ohm	V	ohm	°	A	V	#
	0	1	1000078	1638.075	-2254.767	1	2786.981	-54.00181	-3.803256E-007	-0.0637727	8
	1	1	794390.6	2078.096	-2498.871	1	3250.052	-50.25261	4.966545E-007	-0.0642729	8
	2	1	630984.4	2589.572	-2684.379	1	3729.849	-46.02987	-1.463341E-007	-0.0643911	8
	3	2	501234.4	3162.359	-2778.166	1	4209.361	-41.29965	3.149428E-007	-0.0645705	8
	4	2	398109.4	3741.301	-2778.578	1	4660.239	-36.60042	-1.854751E-007	-0.0645212	8
	5	2	316265.6	4301.215	-2672.257	1	5063.734	-31.85184	-8.801594E-008	-0.0645819	8
	6	3	251203.1	4806.927	-2484.734	1	5411.142	-27.33476	-1.023091E-007	-0.0645962	8
	7	3	199546.9	5214.109	-2262.508	1	5683.826	-23.457	-2.148235E-007	-0.0645396	8
	8	3	158578.1	5560.39	-2009.559	1	5912.382	-19.87017	3.718205E-008	-0.0646203	8
	9	4	125953.1	5865.709	-1701.359	1	6107.468	-16.17489	1.063552E-007	-0.0648882	7
	10	4	100078.1	6046.448	-1482.186	1	6225.464	-13.77351	2.004148E-009	-0.0646834	7
	11	4	79453.13	6202.43	-1300.067	1	6337.217	-11.83816	-3.082814E-009	-0.0647008	7
	12	5	63140.62	6324.477	-1149.039	1	6428.009	-10.29725	-1.823264E-009	-0.064703	7
	13	5	50203.12	6422.763	-1027.178	1	6504.382	-9.08624	1.413251E-008	-0.0647137	7
	14	5	39890.62	6503.841	-935.5094	1	6570.778	-8.185256	3.247273E-009	-0.0647145	7
	15	6	31640.63	6576.5	-872.1064	1	6634.073	-7.553891	5.578373E-009	-0.0647238	7
	16	6	25171.88	6642.097	-835.1948	1	6694.4	-7.166908	4.418538E-009	-0.0647091	7
	17	6	20015.62	6705.116	-823.3214	1	6755.475	-7.000309	1.711122E-009	-0.0646918	7
	18	6	15890.62	6768.037	-834.8735	1	6819.336	-7.032216	1.917103E-009	-0.0646945	7
	19	7	12609.37	6832.855	-869.6741	1	6887.978	-7.253508	-3.814471E-009	-0.0647072	7
	20	7	10078.13	6898.136	-925.9436	1	6960.004	-7.645171	8.627225E-009	-0.0647337	7
	21	7	8015.625	6968.63	-1009.531	1	7041.375	-8.242977	6.772267E-010	-0.0647123	7
	22	8	6328.125	7047.092	-1124.344	1	7136.221	-9.064979	2.096029E-009	-0.0647236	7
	23	8	5015.625	7129.597	-1271.154	1	7242.029	-10.10919	-2.378483E-009	-0.0647147	7
	24	8	3984.375	7218.608	-1455.13	1	7363.811	-11.39697	5.172217E-009	-0.0647345	7
	25	9	3170.956	7315.629	-1681.744	1	7506.443	-12.94643	6.94686E-009	-0.0647408	7
	26	9	2527.573	7422.862	-1963.232	1	7678.097	-14.81463	5.783254E-009	-0.0647103	7
	27	9	1976.103	7551.539	-2338.929	1	7905.462	-17.20926	2.056203E-010	-0.0647373	7
	28	10	1577.524	7688.469	-2765.553	1	8170.731	-19.78373	8.649897E-009	-0.0647407	7
	29	10	1265.625	7841.402	-3275.647	1	8498.085	-22.67212	1.197878E-008	-0.0647506	7
	30	10	998.264	8033.668	-3950.543	1	8952.464	-26.18558	-1.366623E-009	-0.0647128	7
	31	11	796.875	8255.995	-4725.469	1	9512.7	-29.78545	-1.251889E-009	-0.0646747	6
	32	11	627.7902	8526.958	-5736.327	1	10276.89	-33.92984	-2.22651E-010	-0.0646801	6
	33	11	505.5147	8826.741	-6856.984	1	11177.19	-37.84156	4.430007E-010	-0.0646723	6
	34	12	397.9953	9227.594	-8360.633	1	12451.85	-42.17805	7.474658E-010	-0.0646603	6
	35	12	315.5048	9706.2	-10145.69	1	14040.85	-46.26825	6.054069E-010	-0.0646593	6
	36	12	252.4038	10273.25	-12226.45	1	15969.52	-49.9614	7.51687E-010	-0.0646661	6
	37	13	198.6229	11030.29	-14940.12	1	18570.8	-53.56155	6.448392E-010	-0.064664	6
	38	13	158.3615	11926.8	-18052.55	1	21636.62	-56.54842	6.647402E-010	-0.0646667	6
	39	13	125.558	13073.26	-21899.82	1	25505.14	-59.1646	7.778393E-010	-0.0646657	6
	40	13	100.4464	14445.78	-26339.46	1	30040.76	-61.2576	6.882108E-010	-0.0646682	6
	41	14	79.00281	16285.41	-32074.88	1	35972.39	-63.08168	4.214698E-010	-0.0646653	6
	42	14	63.3446	18393.11	-38423.6	1	42599.05	-64.41989	4.633973E-010	-0.0646726	6
	43	15	49.86702	21181.56	-46611.45	1	51198.49	-65.56161	7.497543E-010	-0.0646784	6
	44	15	39.72458	24426.12	-55923.43	1	61025.12	-66.40536	5.452268E-010	-0.0646685	6
	45	15	31.6723	28361.44	-66975.42	1	72732.92	-67.04927	4.407817E-010	-0.0646667	6
	46	16	24.93351	33414.99	-80984.74	1	87607.59	-67.57854	6.849465E-010	-0.0646704	6
	47	16	19.86229	39318.34	-96961.9	1	104630.5	-67.92729	-7.915116E-012	-0.0646673	5
	48	16	15.83615	46529.16	-116011	1	124994.1	-68.1455	7.264053E-010	-0.0646655	5
	49	16	12.40079	56374.35	-140773.6	1	151642	-68.17582	7.437208E-010	-0.0646683	5
	50	17	9.93114	67596.59	-167688.5	1	180800.3	-68.04524	8.373824E-010	-0.0646695	5
	51	17	7.944915	81709.03	-199713.5	1	215782	-67.749	4.594389E-010	-0.0646692	5
	52	17	6.317385	100304.9	-238124.1	1	258387.7	-67.15774	3.541336E-010	-0.0646692	5
	53	18	5.008013	124475.8	-283664.5	1	309773.8	-66.30748	5.3189E-010	-0.0646566	5
	54	19	3.945707	156659	-337699.9	1	372267.8	-65.11342	3.549608E-010	-0.0646674	5
	55	20	3.158693	193634.3	-394709.2	1	439647.2	-63.8686	3.765288E-010	-0.0646575	5
	56	21	2.504006	242224.6	-461048.9	1	520805.9	-62.28358	1.233666E-010	-0.0646643	5
	57	22	1.998082	298178.7	-531408.9	1	609348.8	-60.70279	1.553674E-010	-0.0646702	5
	58	24	1.584686	369462.3	-609420.3	1	712667.9	-58.77357	2.706547E-010	-0.0646317	5
	59	26	1.266892	448915	-691908.4	1	824779.9	-57.02421	3.040204E-010	-0.0646324	5
	60	28	0.999041	544310	-784466.2	1	954809	-55.24475	3.557699E-010	-0.0646524	5
