EXPLAIN
TAG	EISPOT
TITLE	LABEL	Potentiostatic EIS	Test &Identifier
DATE	LABEL	7/13/2020	Date
TIME	LABEL	13:00:39	Time
NOTES	NOTES	1	&Notes...
	
PSTAT	PSTAT	REF600-11020	Potentiostat
VDC	POTEN	0.00000E+000	T	DC &Voltage (V)
FREQINIT	QUANT	1.00000E+006	Initial Fre&q. (Hz)
FREQFINAL	QUANT	1.00000E+000	Final Fre&q. (Hz)
PTSPERDEC	QUANT	1.00000E+001	Points/&decade
VAC	QUANT	2.50000E+001	AC &Voltage (mV rms)
AREA	QUANT	4.00000E-004	&Area (cm^2)
CONDIT	TWOPARAM	F	5.00000E+000	0.00000E+000	Conditionin&g	Time(s)	E(V)
DELAY	TWOPARAM	F	3.00000E+000	0.00000E+000	Init. De&lay	Time(s)	Stab.(mV/s)
SPEED	SELECTOR	0	&Optimize for:
ZGUESS	QUANT	1.00000E+003	E&stimated Z (ohms)
OCVCURVE	TABLE	39
	Pt	T	Vf	Vm	Ach	Over
	#	s	V vs. Ref.	V	V	bits
	0	0.258333	6.57085E-002	6.57085E-002	5.34383E-004	...........
	1	0.516667	6.57086E-002	6.57154E-002	5.39816E-004	...........
	2	0.775	6.57091E-002	6.57058E-002	5.33117E-004	...........
	3	1.03333	6.57097E-002	6.57038E-002	5.31517E-004	...........
	4	1.29167	6.57093E-002	6.57032E-002	5.35916E-004	...........
	5	1.55	6.57075E-002	6.56954E-002	5.36483E-004	...........
	6	1.80833	6.57049E-002	6.57042E-002	5.38616E-004	...........
	7	2.06667	6.57022E-002	6.56868E-002	5.30716E-004	...........
	8	2.325	6.56995E-002	6.56865E-002	5.29783E-004	...........
	9	2.58333	6.56962E-002	6.56902E-002	5.29017E-004	...........
	10	2.84167	6.56925E-002	6.56825E-002	5.32183E-004	...........
	11	3.1	6.56893E-002	6.56811E-002	5.34416E-004	...........
	12	3.35833	6.56866E-002	6.56767E-002	5.38716E-004	...........
	13	3.61667	6.56838E-002	6.56757E-002	5.30317E-004	...........
	14	3.875	6.56809E-002	6.56732E-002	5.34917E-004	...........
	15	4.13333	6.56781E-002	6.56684E-002	5.32417E-004	...........
	16	4.39167	6.56753E-002	6.56649E-002	5.35683E-004	...........
	17	4.65	6.56724E-002	6.56666E-002	5.30950E-004	...........
	18	4.90833	6.56696E-002	6.56626E-002	5.30783E-004	...........
	19	5.16667	6.56671E-002	6.56606E-002	5.29383E-004	...........
	20	5.425	6.56650E-002	6.56568E-002	5.30283E-004	...........
	21	5.68333	6.56628E-002	6.56566E-002	5.33617E-004	...........
	22	5.94167	6.56605E-002	6.56525E-002	5.29150E-004	...........
	23	6.2	6.56582E-002	6.56538E-002	5.31217E-004	...........
	24	6.45833	6.56560E-002	6.56503E-002	5.31550E-004	...........
	25	6.71667	6.56542E-002	6.56499E-002	5.32250E-004	...........
	26	6.975	6.56526E-002	6.56472E-002	5.33617E-004	...........
	27	7.23333	6.56511E-002	6.56476E-002	5.32317E-004	...........
	28	7.49167	6.56496E-002	6.56450E-002	5.28083E-004	...........
	29	7.75	6.56482E-002	6.56443E-002	5.31350E-004	...........
	30	8.00833	6.56469E-002	6.56425E-002	5.27017E-004	...........
	31	8.26667	6.56455E-002	6.56409E-002	5.30416E-004	...........
	32	8.525	6.56441E-002	6.56373E-002	5.34350E-004	...........
	33	8.78333	6.56423E-002	6.56350E-002	5.28750E-004	...........
	34	9.04167	6.56403E-002	6.56338E-002	5.34517E-004	...........
	35	9.3	6.56381E-002	6.56370E-002	5.33583E-004	...........
	36	9.5583	6.56368E-002	6.56577E-002	5.31583E-004	...........
	37	9.8167	6.56378E-002	6.56332E-002	5.31350E-004	...........
	38	10.075	6.56403E-002	6.56427E-002	5.28550E-004	...........
EOC	QUANT	0.0656403	Open Circuit (V)
PSTATMODEL	IQUANT	4	Pstat Model
PSTATSECTION	LABEL	REF600-11020	Pstat Section
PSTATSERIALNO	LABEL	11020	Pstat Serial Number
CTRLMODE	IQUANT	1	Control Mode
IESTAB	IQUANT	0	I/E Stability
CASPEED	IQUANT	1	Control Amp Speed
CONVENTION	IQUANT	1	Current Convention
ICHRANGE	IQUANT	2	Ich Range
ICHRANGEMODE	TOGGLE	F	Ich Auto Range
ICHOFFSETENABLE	TOGGLE	T	Ich Offset Enable
ICHOFFSET	QUANT	0	Ich Offset (V)
ICHFILTER	IQUANT	3	Ich Filter
VCHRANGE	IQUANT	2	Vch Range
VCHRANGEMODE	TOGGLE	F	Vch Auto Range
VCHOFFSETENABLE	TOGGLE	T	Vch Offset Enable
VCHOFFSET	QUANT	0	Vch Offset (V)
VCHFILTER	IQUANT	3	Vch Filter
ACHRANGE	IQUANT	2	Ach Range
ACHOFFSETENABLE	TOGGLE	F	Ach Offset Enable
ACHOFFSET	QUANT	0	Ach Offset (V)
ACHFILTER	IQUANT	3	Ach Filter
IERANGELOWERLIMIT	IQUANT	1	I/E Range Lower Limit
IERANGEMODE	TOGGLE	F	I/E AutoRange
IERANGE	IQUANT	8	I/E Range
POSFEEDENABLE	TOGGLE	F	Positive Feedback IR Comp
POSFEEDRESISTANCE	QUANT	0	Positive Feedback Resistance (ohm)
ACHSELECT	IQUANT	0	Ach Select
CABLEID	IQUANT	14	Cable ID
DCCALDATE	LABEL	6/26/2020	DC Calibration Date
ACCALDATE	LABEL	6/26/2020	AC Calibration Date
THERMOSELECT	IQUANT	1	Thermo Select
FRAMEWORKVERSION	QUANT	6.33	Framework Version
INSTRUMENTVERSION	LABEL	3.50	Instrument Version
ZCURVE	TABLE
	Pt	Time	Freq	Zreal	Zimag	Zsig	Zmod	Zphz	Idc	Vdc	IERange
	#	s	Hz	ohm	ohm	V	ohm	°	A	V	#
	0	1	1000078	1203.403	-2505.368	1	2779.397	-64.34364	3.975645E-008	0.0682335	8
	1	2	794390.6	1435.177	-2993.19	1	3319.476	-64.38319	2.419091E-007	0.0678935	8
	2	2	630984.4	1726.857	-3573.77	1	3969.114	-64.21001	-1.434225E-008	0.0676976	8
	3	2	501234.4	2120.943	-4240.979	1	4741.762	-63.43005	8.445242E-008	0.0675863	8
	4	3	398109.4	2619.695	-5003.073	1	5647.437	-62.36267	4.751439E-008	0.0675134	8
	5	3	316265.6	3274.702	-5852.321	1	6706.216	-60.77054	3.395874E-008	0.0674804	8
	6	3	251203.1	4099.1	-6753.941	1	7900.528	-58.74561	4.373242E-008	0.0674612	8
	7	4	199546.9	5101.106	-7710.396	1	9245.079	-56.51185	4.526731E-008	0.0674491	8
	8	4	158578.1	6300.748	-8638.535	1	10692.23	-53.89385	5.854059E-008	0.0674638	8
	9	4	125953.1	7788.94	-9528.28	1	12306.74	-50.73555	5.120854E-008	0.067384	7
	10	4	100078.1	9292.018	-10422.06	1	13962.84	-48.2807	2.205893E-009	0.0674424	7
	11	5	79453.13	10862.95	-11275.85	1	15657.22	-46.06846	1.612998E-008	0.0674118	7
	12	5	63140.62	12507.84	-12103.88	1	17405.46	-44.05968	1.677881E-008	0.0674086	7
	13	5	50203.12	14215.02	-12949.29	1	19228.9	-42.33221	-1.056867E-008	0.0674357	7
	14	6	39890.62	15952.54	-13863.18	1	21134.6	-40.99149	-1.006891E-008	0.0674216	7
	15	6	31640.63	17733.08	-14859.66	1	23135.94	-39.96177	1.703588E-008	0.0674056	7
	16	6	25171.88	19556.75	-16009.26	1	25273.76	-39.30394	1.621607E-008	0.0674076	7
	17	7	20015.62	21463.54	-17401.72	1	27631.57	-39.03365	2.807999E-009	0.0674021	7
	18	7	15890.62	23476.31	-19016.11	1	30211.75	-39.0079	2.965522E-009	0.0674035	7
	19	7	12609.37	26017.16	-20639.03	1	33209.37	-38.42446	3.490818E-009	0.0673836	6
	20	8	10078.13	28181.46	-22864.26	1	36290.07	-39.05321	1.851862E-009	0.0673758	6
	21	8	8015.625	30586.05	-25570.57	1	39866.79	-39.89632	1.037537E-009	0.0673734	6
	22	8	6328.125	33340.64	-28905.74	1	44126.41	-40.92471	-1.375897E-009	0.0674279	6
	23	9	5015.625	36389.49	-32812.76	1	48998.7	-42.04129	2.220337E-009	0.0674059	6
	24	9	3984.375	39843.92	-37448.26	1	54680.07	-43.2247	3.594566E-009	0.067377	6
	25	9	3170.956	43853.85	-42895.53	1	61344.82	-44.36708	2.365659E-009	0.0673608	6
	26	10	2527.573	48592.61	-49188.76	1	69143.16	-45.34932	4.033241E-010	0.0673864	6
	27	10	1976.103	54893.74	-57102.44	1	79208.66	-46.1298	-9.217358E-010	0.0674094	6
	28	10	1577.524	62009.01	-65299.7	1	90050.92	-46.48066	3.341463E-009	0.0673626	6
	29	11	1265.625	72266.48	-72832.84	1	102601.5	-45.22364	5.779101E-010	0.067357	5
	30	11	998.264	83024.85	-83077.41	1	117452	-45.01813	5.981484E-010	0.0674049	5
	31	11	796.875	95243.4	-93032.2	1	133140.1	-44.32713	7.886681E-010	0.0673633	5
	32	11	627.7902	110212.2	-103721.6	1	151343.6	-43.2622	3.648408E-010	0.0674182	5
	33	12	505.5147	125761.1	-113287.6	1	169262.9	-42.01302	5.797209E-010	0.0673488	5
	34	12	397.9953	144801.1	-123257.9	1	190157.5	-40.40515	5.7949E-010	0.0674069	5
	35	12	315.5048	165001.9	-132194.7	1	211426.3	-38.70068	5.893927E-010	0.0674067	5
	36	13	252.4038	185672.1	-140118	1	232609.5	-37.04015	5.046658E-010	0.0674081	5
	37	13	198.6229	208866	-147859.2	1	255904.9	-35.29521	4.542527E-010	0.0673975	5
	38	13	158.3615	231422.2	-154408.5	1	278205.3	-33.71184	4.800949E-010	0.0673952	5
	39	14	125.558	254927.6	-160558.2	1	301275.7	-32.2035	4.542905E-010	0.0673957	5
	40	14	100.4464	277720.7	-166472.3	1	323792.9	-30.93947	4.35964E-010	0.0673968	5
	41	14	79.00281	302191.8	-172279.7	1	347850.8	-29.68748	4.390554E-010	0.0673942	5
	42	15	63.3446	325738.2	-179376	1	371861.7	-28.84049	4.520713E-010	0.0673885	5
	43	15	49.86702	350781.6	-187531.3	1	397763.4	-28.1294	2.513532E-010	0.0673829	5
	44	15	39.72458	373507.9	-195132.7	1	421408.3	-27.58403	2.689902E-010	0.0673898	5
	45	16	31.6723	396824.7	-205776.5	1	447005.4	-27.40934	3.019634E-010	0.0673853	5
	46	16	24.93351	422095.2	-220204.6	1	476082.4	-27.55079	1.054648E-010	0.0673869	5
	47	16	19.86229	446103.3	-237899.3	1	505573.2	-28.07024	-2.9605E-010	0.0673839	5
	48	17	15.83615	473575.4	-258091.7	1	539337.6	-28.58974	6.102337E-010	0.0673869	5
	49	17	12.40079	503984.5	-287925.1	1	580431.9	-29.73922	4.967398E-010	0.0673874	5
	50	17	9.93114	534803.8	-318147.1	1	622280.2	-30.74781	6.560557E-010	0.0673894	5
	51	18	7.944915	570244.9	-355861	1	672172.8	-31.9662	6.050424E-010	0.0673801	5
	52	18	6.317385	613046.7	-398567.2	1	731219.6	-33.02958	1.08261E-010	0.0673955	5
	53	19	5.008013	667939.8	-451676.2	1	806321.9	-34.06746	1.65743E-010	0.0673952	5
	54	20	3.945707	730470.3	-508416.3	1	889985.4	-34.83839	3.509794E-010	0.0673909	5
	55	21	3.158693	803976.4	-566931.5	1	983763	-35.18993	1.221094E-010	0.0674037	4
	56	22	2.504006	889231.7	-627211.9	1	1088176	-35.1969	-4.162625E-011	0.0673874	4
	57	23	1.998082	974624	-676222.9	1	1186242	-34.75405	6.373359E-011	0.0674081	4
	58	25	1.584686	1076640	-731889.9	1	1301851	-34.2075	1.647571E-010	0.0674255	4
	59	27	1.266892	1182683	-789822.3	1	1422167	-33.73589	1.784662E-010	0.0673943	4
	60	29	0.999041	1291912	-845314.1	1	1543889	-33.19722	1.020278E-010	0.067371	4
