EXPLAIN
TAG	EISPOT
TITLE	LABEL	Potentiostatic EIS	Test &Identifier
DATE	LABEL	9/1/2020	Date
TIME	LABEL	20:59:10	Time
NOTES	NOTES	1	&Notes...
	
PSTAT	PSTAT	REF600-11020	Potentiostat
VDC	POTEN	0.00000E+000	T	DC &Voltage (V)
FREQINIT	QUANT	1.00000E+006	Initial Fre&q. (Hz)
FREQFINAL	QUANT	1.00000E+000	Final Fre&q. (Hz)
PTSPERDEC	QUANT	1.00000E+001	Points/&decade
VAC	QUANT	2.50000E+001	AC &Voltage (mV rms)
AREA	QUANT	4.00000E-005	&Area (cm^2)
CONDIT	TWOPARAM	F	5.00000E+000	0.00000E+000	Conditionin&g	Time(s)	E(V)
DELAY	TWOPARAM	F	3.00000E+000	0.00000E+000	Init. De&lay	Time(s)	Stab.(mV/s)
SPEED	SELECTOR	0	&Optimize for:
ZGUESS	QUANT	1.00000E+003	E&stimated Z (ohms)
OCVCURVE	TABLE	39
	Pt	T	Vf	Vm	Ach	Over
	#	s	V vs. Ref.	V	V	bits
	0	0.258333	1.87250E-001	1.87250E-001	5.66358E-004	...........
	1	0.516667	1.87253E-001	1.87414E-001	5.71025E-004	...........
	2	0.775	1.87272E-001	1.87553E-001	5.66358E-004	...........
	3	1.03333	1.87324E-001	1.87673E-001	5.65425E-004	...........
	4	1.29167	1.87414E-001	1.87772E-001	5.66125E-004	...........
	5	1.55	1.87528E-001	1.87860E-001	5.65358E-004	...........
	6	1.80833	1.87644E-001	1.87929E-001	5.70492E-004	...........
	7	2.06667	1.87750E-001	1.87985E-001	5.65025E-004	...........
	8	2.325	1.87840E-001	1.88030E-001	5.67158E-004	...........
	9	2.58333	1.87913E-001	1.88061E-001	5.61725E-004	...........
	10	2.84167	1.87972E-001	1.88089E-001	5.62859E-004	...........
	11	3.1	1.88018E-001	1.88107E-001	5.61592E-004	...........
	12	3.35833	1.88054E-001	1.88118E-001	5.68358E-004	...........
	13	3.61667	1.88081E-001	1.88125E-001	5.66325E-004	...........
	14	3.875	1.88101E-001	1.88129E-001	5.64892E-004	...........
	15	4.13333	1.88114E-001	1.88133E-001	5.61692E-004	...........
	16	4.39167	1.88123E-001	1.88130E-001	5.66725E-004	...........
	17	4.65	1.88127E-001	1.88122E-001	5.61759E-004	...........
	18	4.90833	1.88129E-001	1.88119E-001	5.67325E-004	...........
	19	5.16667	1.88128E-001	1.88108E-001	5.63258E-004	...........
	20	5.425	1.88123E-001	1.88096E-001	5.71058E-004	...........
	21	5.68333	1.88117E-001	1.88080E-001	5.70158E-004	...........
	22	5.94167	1.88107E-001	1.88066E-001	5.64692E-004	...........
	23	6.2	1.88095E-001	1.88054E-001	5.69892E-004	...........
	24	6.45833	1.88082E-001	1.88043E-001	5.69658E-004	...........
	25	6.71667	1.88069E-001	1.88028E-001	5.61225E-004	...........
	26	6.975	1.88055E-001	1.88009E-001	5.68392E-004	...........
	27	7.23333	1.88042E-001	1.87990E-001	5.62992E-004	...........
	28	7.49167	1.88027E-001	1.87975E-001	5.58959E-004	...........
	29	7.75	1.88010E-001	1.87963E-001	5.63258E-004	...........
	30	8.00833	1.87994E-001	1.87948E-001	5.58792E-004	...........
	31	8.26667	1.87978E-001	1.87936E-001	5.66358E-004	...........
	32	8.525	1.87964E-001	1.87931E-001	5.62292E-004	...........
	33	8.78333	1.87951E-001	1.87925E-001	5.62658E-004	...........
	34	9.04167	1.87941E-001	1.87913E-001	5.57359E-004	...........
	35	9.3	1.87932E-001	1.87905E-001	5.61292E-004	...........
	36	9.5583	1.87923E-001	1.87898E-001	5.68625E-004	...........
	37	9.8167	1.87915E-001	1.87898E-001	5.63358E-004	...........
	38	10.075	1.87908E-001	1.87899E-001	5.65592E-004	...........
EOC	QUANT	0.1879076	Open Circuit (V)
PSTATMODEL	IQUANT	4	Pstat Model
PSTATSECTION	LABEL	REF600-11020	Pstat Section
PSTATSERIALNO	LABEL	11020	Pstat Serial Number
CTRLMODE	IQUANT	1	Control Mode
IESTAB	IQUANT	0	I/E Stability
CASPEED	IQUANT	1	Control Amp Speed
CONVENTION	IQUANT	1	Current Convention
ICHRANGE	IQUANT	2	Ich Range
ICHRANGEMODE	TOGGLE	F	Ich Auto Range
ICHOFFSETENABLE	TOGGLE	T	Ich Offset Enable
ICHOFFSET	QUANT	0	Ich Offset (V)
ICHFILTER	IQUANT	3	Ich Filter
VCHRANGE	IQUANT	2	Vch Range
VCHRANGEMODE	TOGGLE	F	Vch Auto Range
VCHOFFSETENABLE	TOGGLE	T	Vch Offset Enable
VCHOFFSET	QUANT	0	Vch Offset (V)
VCHFILTER	IQUANT	3	Vch Filter
ACHRANGE	IQUANT	2	Ach Range
ACHOFFSETENABLE	TOGGLE	F	Ach Offset Enable
ACHOFFSET	QUANT	0	Ach Offset (V)
ACHFILTER	IQUANT	3	Ach Filter
IERANGELOWERLIMIT	IQUANT	1	I/E Range Lower Limit
IERANGEMODE	TOGGLE	F	I/E AutoRange
IERANGE	IQUANT	8	I/E Range
POSFEEDENABLE	TOGGLE	F	Positive Feedback IR Comp
POSFEEDRESISTANCE	QUANT	0	Positive Feedback Resistance (ohm)
ACHSELECT	IQUANT	0	Ach Select
CABLEID	IQUANT	14	Cable ID
DCCALDATE	LABEL	9/1/2020	DC Calibration Date
ACCALDATE	LABEL	9/1/2020	AC Calibration Date
THERMOSELECT	IQUANT	1	Thermo Select
FRAMEWORKVERSION	QUANT	6.33	Framework Version
INSTRUMENTVERSION	LABEL	3.50	Instrument Version
ZCURVE	TABLE
	Pt	Time	Freq	Zreal	Zimag	Zsig	Zmod	Zphz	Idc	Vdc	IERange
	#	s	Hz	ohm	ohm	V	ohm	°	A	V	#
	0	1	1000078	1377.483	-2873.311	1	3186.437	-64.38665	8.37032E-008	0.1900717	8
	1	1	794390.6	1723.485	-3361.908	1	3777.939	-62.85801	6.334688E-008	0.1897156	8
	2	1	630984.4	2145.977	-3890.376	1	4443	-61.11835	8.259248E-008	0.189595	8
	3	2	501234.4	2646.92	-4459.844	1	5186.173	-59.31085	4.294423E-008	0.1895025	8
	4	2	398109.4	3227.474	-5069.201	1	6009.441	-57.51579	4.680486E-008	0.1894732	8
	5	2	316265.6	3873.63	-5741.486	1	6926.014	-55.99349	6.032197E-008	0.1894235	8
	6	3	251203.1	4600.322	-6459.611	1	7930.292	-54.54279	7.31413E-008	0.1894231	8
	7	3	199546.9	5421.686	-7236.484	1	9042.2	-53.15888	6.160847E-008	0.1894294	8
	8	3	158578.1	6315.572	-8105.49	1	10275.48	-52.07527	9.917302E-008	0.1893974	8
	9	4	125953.1	7340.873	-9082.966	1	11678.56	-51.05478	1.031235E-009	0.1894263	7
	10	4	100078.1	8429.305	-10184.23	1	13220.12	-50.38605	2.879957E-009	0.1894062	7
	11	4	79453.13	9654	-11449.62	1	14976.43	-49.86335	1.808724E-009	0.189395	7
	12	5	63140.62	10996.69	-12883.4	1	16938.39	-49.5174	2.734147E-009	0.1893888	7
	13	5	50203.12	12491.19	-14484.81	1	19126.93	-49.22667	2.742277E-009	0.1893913	7
	14	5	39890.62	14198.8	-16349.35	1	21654.27	-49.02691	2.267675E-009	0.1893914	7
	15	5	31640.63	16133.19	-18507.58	1	24552.2	-48.92109	2.949964E-009	0.1893884	7
	16	6	25171.88	18314.61	-20920.65	1	27804.65	-48.80006	3.022631E-009	0.1893936	7
	17	6	20015.62	20819.92	-23633.99	1	31496.58	-48.62217	2.702582E-009	0.1893937	7
	18	6	15890.62	23758.09	-26817.5	1	35827.71	-48.46172	2.925265E-009	0.189393	7
	19	7	12609.37	27339.99	-30393.2	1	40880.57	-48.02726	7.549386E-010	0.1893856	6
	20	7	10078.13	31276.14	-34268.68	1	46395.47	-47.61411	9.855932E-010	0.1893883	6
	21	7	8015.625	36072.13	-38614.9	1	52842.3	-46.94992	9.765292E-010	0.1893864	6
	22	8	6328.125	42029.6	-43486.91	1	60478.08	-45.9763	7.777529E-010	0.189377	6
	23	8	5015.625	49087.9	-48382.12	1	68923.52	-44.58513	1.087017E-009	0.1893885	6
	24	8	3984.375	57401.29	-53163.71	1	78238.66	-42.80512	1.019087E-009	0.1893855	6
	25	9	3170.956	66953.38	-57254.85	1	88095.82	-40.53524	1.173171E-009	0.1893894	6
	26	9	2527.573	77521.98	-60404.39	1	98276.9	-37.92538	1.055423E-009	0.189385	6
	27	9	1976.103	89747.58	-62170.21	1	109177.7	-34.71124	7.880457E-010	0.1893825	6
	28	10	1577.524	101052.2	-62467.73	1	118801.4	-31.72323	1.105698E-009	0.1893869	6
	29	10	1265.625	112323.4	-60214.3	1	127445.3	-28.19487	3.338517E-010	0.1893701	5
	30	10	998.264	122556.3	-58274.75	1	135705.6	-25.43079	3.287783E-010	0.1893722	5
	31	11	796.875	131028.4	-55926.98	1	142465	-23.11428	3.190384E-010	0.1893711	5
	32	11	627.7902	138747.3	-53583.3	1	148734.6	-21.11623	2.468307E-010	0.1893708	5
	33	11	505.5147	144879	-51934.47	1	153906.1	-19.72113	2.494285E-010	0.1893731	5
	34	12	397.9953	150478.1	-50843.19	1	158835.4	-18.66897	2.771925E-010	0.1893907	5
	35	12	315.5048	155989.7	-51118.97	1	164152.1	-18.14435	2.464463E-010	0.1893919	5
	36	12	252.4038	160680.4	-52354.11	1	168994.5	-18.04704	1.717328E-010	0.1893878	5
	37	12	198.6229	165688.6	-55024.37	1	174586.4	-18.37107	1.604429E-010	0.1893884	5
	38	13	158.3615	170503.3	-58880.03	1	180383.6	-19.05136	1.038454E-010	0.189384	5
	39	13	125.558	176092.5	-64331.49	1	187475.7	-20.06865	1.165617E-010	0.1893847	5
	40	13	100.4464	181765.4	-71014.96	1	195145.5	-21.34038	-3.220933E-011	0.189388	5
	41	14	79.00281	188693.2	-80003.05	1	204952.7	-22.9762	2.934485E-011	0.1893833	5
	42	14	63.3446	195665.7	-90053.83	1	215394.4	-24.71393	6.079965E-011	0.1893822	5
	43	15	49.86702	204707.1	-103140.1	1	229222.3	-26.7409	-1.674988E-010	0.1893815	5
	44	15	39.72458	214467.2	-117973.7	1	244773.3	-28.81422	-9.763201E-011	0.1893845	5
	45	15	31.6723	225620.8	-135310.6	1	263084.9	-30.9522	-8.951014E-011	0.1893834	5
	46	16	24.93351	239341.2	-157056.9	1	286271	-33.27309	-3.72186E-010	0.189383	5
	47	16	19.86229	254883.2	-181591.2	1	312955	-35.46791	-8.237338E-010	0.1893796	5
	48	16	15.83615	273604.1	-209585.9	1	344652.7	-37.4528	1.527871E-010	0.1893799	5
	49	16	12.40079	297211.6	-244862.8	1	385087.7	-39.48397	-1.540215E-010	0.1893821	5
	50	17	9.93114	323684.5	-282021.5	1	429310.8	-41.06515	8.989392E-011	0.1893807	5
	51	17	7.944915	355866.3	-324538.4	1	481628.5	-42.36379	4.267187E-010	0.1893765	5
	52	17	6.317385	396505	-373535.5	1	544743.1	-43.29144	-3.575798E-011	0.1893883	5
	53	18	5.008013	446671.6	-427807.1	1	618493.7	-43.76419	1.488543E-010	0.1893926	5
	54	19	3.945707	508932	-488047.8	1	705125.8	-43.79998	3.289823E-010	0.1893849	5
	55	20	3.158693	576846.3	-545733.6	1	794088.6	-43.41243	2.090644E-010	0.1894008	5
	56	21	2.504006	660347.5	-607250.3	1	897113	-42.60139	5.361038E-012	0.1893826	5
	57	22	1.998082	749098.2	-665295.1	1	1001881	-41.60918	1.067904E-010	0.1894009	4
	58	24	1.584686	851101.7	-724299.4	1	1117579	-40.39825	2.816498E-010	0.1894273	4
	59	26	1.266892	952104	-781733.8	1	1231913	-39.38802	2.676968E-010	0.1893951	4
	60	28	0.999041	1062615	-840959.1	1	1355124	-38.35828	2.623022E-010	0.1893685	4
