EXPLAIN
TAG	EISPOT
TITLE	LABEL	Potentiostatic EIS	Test &Identifier
DATE	LABEL	1/10/2020	Date
TIME	LABEL	12:31:19	Time
NOTES	NOTES	5	&Notes...
	
	
	
	
	
PSTAT	PSTAT	REF600-11020	Potentiostat
VDC	POTEN	0.00000E+000	T	DC &Voltage (V)
FREQINIT	QUANT	1.00000E+006	Initial Fre&q. (Hz)
FREQFINAL	QUANT	1.00000E+000	Final Fre&q. (Hz)
PTSPERDEC	QUANT	1.00000E+001	Points/&decade
VAC	QUANT	2.50000E+001	AC &Voltage (mV rms)
AREA	QUANT	1.00000E-001	&Area (cm^2)
CONDIT	TWOPARAM	T	5.00000E+000	0.00000E+000	Conditionin&g	Time(s)	E(V)
DELAY	TWOPARAM	T	5.00000E+000	0.00000E+000	Init. De&lay	Time(s)	Stab.(mV/s)
SPEED	SELECTOR	0	&Optimize for:
ZGUESS	QUANT	5.00000E+002	E&stimated Z (ohms)
OCVCURVE	TABLE	19
	Pt	T	Vf	Vm	Ach	Over
	#	s	V vs. Ref.	V	V	bits
	0	0.258333	-3.33329E-002	-3.33329E-002	5.43308E-004	...........
	1	0.516667	-3.33785E-002	-3.57189E-002	5.50408E-004	...........
	2	0.775	-3.36570E-002	-3.79070E-002	5.44241E-004	...........
	3	1.03333	-3.44374E-002	-3.98654E-002	5.45608E-004	...........
	4	1.29167	-3.58130E-002	-4.17484E-002	5.46908E-004	...........
	5	1.55	-3.76057E-002	-4.34660E-002	5.42175E-004	...........
	6	1.80833	-3.95470E-002	-4.51204E-002	5.43608E-004	...........
	7	2.06667	-4.14512E-002	-4.66566E-002	5.34675E-004	...........
	8	2.325	-4.32436E-002	-4.81373E-002	5.41775E-004	...........
	9	2.58333	-4.49163E-002	-4.95207E-002	5.44975E-004	...........
	10	2.84167	-4.64847E-002	-5.08579E-002	5.42541E-004	...........
	11	3.1	-4.79652E-002	-5.21197E-002	5.46841E-004	...........
	12	3.35833	-4.93699E-002	-5.33354E-002	5.45841E-004	...........
	13	3.61667	-5.07070E-002	-5.44938E-002	5.44575E-004	...........
	14	3.875	-5.19827E-002	-5.56063E-002	5.31908E-004	...........
	15	4.13333	-5.32021E-002	-5.66815E-002	5.40375E-004	...........
	16	4.39167	-5.43703E-002	-5.77374E-002	5.40875E-004	...........
	17	4.65	-5.54938E-002	-5.87560E-002	5.46241E-004	...........
	18	4.90833	-5.65795E-002	-5.97411E-002	5.36208E-004	...........
EOC	QUANT	-0.0565795	Open Circuit (V)
PSTATMODEL	IQUANT	4	Pstat Model
PSTATSECTION	LABEL	REF600-11020	Pstat Section
PSTATSERIALNO	LABEL	11020	Pstat Serial Number
CTRLMODE	IQUANT	1	Control Mode
IESTAB	IQUANT	0	I/E Stability
CASPEED	IQUANT	1	Control Amp Speed
CONVENTION	IQUANT	1	Current Convention
ICHRANGE	IQUANT	2	Ich Range
ICHRANGEMODE	TOGGLE	F	Ich Auto Range
ICHOFFSETENABLE	TOGGLE	T	Ich Offset Enable
ICHOFFSET	QUANT	0	Ich Offset (V)
ICHFILTER	IQUANT	3	Ich Filter
VCHRANGE	IQUANT	2	Vch Range
VCHRANGEMODE	TOGGLE	F	Vch Auto Range
VCHOFFSETENABLE	TOGGLE	T	Vch Offset Enable
VCHOFFSET	QUANT	0	Vch Offset (V)
VCHFILTER	IQUANT	3	Vch Filter
ACHRANGE	IQUANT	2	Ach Range
ACHOFFSETENABLE	TOGGLE	F	Ach Offset Enable
ACHOFFSET	QUANT	0	Ach Offset (V)
ACHFILTER	IQUANT	1	Ach Filter
IERANGELOWERLIMIT	IQUANT	1	I/E Range Lower Limit
IERANGEMODE	TOGGLE	F	I/E AutoRange
IERANGE	IQUANT	8	I/E Range
POSFEEDENABLE	TOGGLE	F	Positive Feedback IR Comp
POSFEEDRESISTANCE	QUANT	0	Positive Feedback Resistance (ohm)
ACHSELECT	IQUANT	0	Ach Select
CABLEID	IQUANT	14	Cable ID
DCCALDATE	LABEL	12/22/2019	DC Calibration Date
ACCALDATE	LABEL	12/22/2019	AC Calibration Date
THERMOSELECT	IQUANT	1	Thermo Select
FRAMEWORKVERSION	QUANT	6.33	Framework Version
INSTRUMENTVERSION	LABEL	3.50	Instrument Version
ZCURVE	TABLE
	Pt	Time	Freq	Zreal	Zimag	Zsig	Zmod	Zphz	Idc	Vdc	IERange
	#	s	Hz	ohm	ohm	V	ohm	°	A	V	#
	0	1	1000078	1725.314	-2667.719	1	3177.016	-57.10774	-2.833854E-006	-0.0538337	8
	1	1	794390.6	1974.214	-3074.228	1	3653.546	-57.29215	1.447691E-006	-0.0548631	8
	2	2	630984.4	2243.25	-3531.078	1	4183.382	-57.57271	4.53359E-007	-0.0549784	8
	3	2	501234.4	2553.609	-4121.177	1	4848.197	-58.21636	1.424969E-006	-0.0552669	8
	4	2	398109.4	2889.56	-4825.884	1	5624.831	-59.08839	1.205066E-006	-0.0551544	8
	5	3	316265.6	3327.515	-5651.062	1	6557.961	-59.50914	2.694854E-007	-0.0550915	8
	6	3	251203.1	3737.353	-6669.177	1	7644.98	-60.73409	1.283539E-006	-0.0551732	8
	7	4	199546.9	4373.759	-7880.111	1	9012.542	-60.96807	1.242968E-006	-0.0551678	8
	8	4	158578.1	5072.344	-9285.54	1	10580.64	-61.35387	2.943325E-006	-0.0555545	8
	9	4	125953.1	6159.028	-10927.74	1	12543.89	-60.59379	5.518619E-007	-0.0560529	7
	10	5	100078.1	7295.133	-12808.28	1	14740.12	-60.33573	1.188517E-008	-0.0550284	7
	11	5	79453.13	8712.261	-15021.32	1	17365.01	-59.88657	-3.495981E-008	-0.0549334	7
	12	5	63140.62	10471.9	-17533.55	1	20422.68	-59.15228	-3.492324E-008	-0.0549403	7
	13	6	50203.12	12646.16	-20354.7	1	23963.29	-58.14775	9.328126E-008	-0.0551226	7
	14	6	39890.62	15143.73	-23269.79	1	27763.56	-56.94436	-2.723938E-008	-0.0549931	7
	15	6	31640.63	18429.32	-26857.29	1	32572.29	-55.5423	9.217563E-008	-0.0551287	7
	16	7	25171.88	22194.89	-30385.03	1	37627.96	-53.85356	1.26337E-008	-0.0550498	7
	17	7	20015.62	26504.6	-34124.53	1	43208.53	-52.16343	-2.886587E-008	-0.0549765	7
	18	7	15890.62	31551.4	-38105.4	1	49472.34	-50.37512	-3.183268E-008	-0.0549523	7
	19	7	12609.37	38085.7	-42228.94	1	56866.54	-47.95313	-2.384365E-009	-0.054947	6
	20	8	10078.13	44612.47	-46104.48	1	64155.25	-45.94225	3.245883E-009	-0.0550444	6
	21	8	8015.625	52204.56	-49774.88	1	72130.82	-43.63517	9.469258E-010	-0.0549259	6
	22	8	6328.125	60921.43	-53357.68	1	80984.34	-41.21331	5.969925E-009	-0.054959	6
	23	9	5015.625	70195.59	-56140.53	1	89884.27	-38.65187	1.076627E-010	-0.0549262	6
	24	9	3984.375	79852.21	-58281.88	1	98859.3	-36.12465	3.588996E-009	-0.0551309	6
	25	9	3170.956	89674.77	-59944.4	1	107865.2	-33.76132	5.515739E-009	-0.0549564	6
	26	10	2527.573	99893.3	-60714.91	1	116897.3	-31.29114	8.842899E-009	-0.0550135	6
	27	10	1976.103	110289.1	-60667.18	1	125873.7	-28.81406	1.733762E-008	-0.0552459	6
	28	10	1577.524	119920.6	-60138.46	1	134155.1	-26.6331	-2.948429E-009	-0.0549799	6
	29	11	1265.625	129493	-58369.44	1	142040.3	-24.26364	4.030341E-009	-0.0551258	5
	30	11	998.264	138224.2	-57445.23	1	149685.9	-22.56751	3.394305E-009	-0.0549631	5
	31	11	796.875	146363.7	-56634.04	1	156938.6	-21.15347	3.375254E-009	-0.0549359	5
	32	12	627.7902	154157.7	-56270.26	1	164106.5	-20.05297	3.201398E-009	-0.0550632	5
	33	12	505.5147	160978.7	-55951.26	1	170425	-19.16588	4.512781E-009	-0.0551331	5
	34	12	397.9953	168409.4	-56456.32	1	177620.5	-18.53283	3.817436E-009	-0.0550305	5
	35	13	315.5048	175321.8	-57613.19	1	184545.4	-18.19124	3.968387E-009	-0.0550337	5
	36	13	252.4038	181594.4	-58954.58	1	190924.5	-17.98601	4.071401E-009	-0.055035	5
	37	13	198.6229	188048.1	-61051.55	1	197710.3	-17.9865	3.665059E-009	-0.0550322	5
	38	14	158.3615	195226.5	-65525.92	1	205929.7	-18.55384	3.570935E-009	-0.0550339	5
	39	14	125.558	200954	-70961.19	1	213115	-19.44922	3.79603E-009	-0.0550336	5
	40	14	100.4464	206520.2	-75540.43	1	219902.1	-20.09138	3.833958E-009	-0.0550364	5
	41	15	79.00281	216781.3	-83175.24	1	232190.1	-20.99095	4.166061E-009	-0.0550375	5
	42	15	63.3446	216755.6	-105365.5	1	241008.1	-25.92452	3.947794E-009	-0.0550385	5
	43	15	49.86702	228867.6	-114401.3	1	255867.2	-26.55854	4.088182E-009	-0.0550409	5
	44	16	39.72458	245730	-125783.7	1	276052.1	-27.1069	3.723599E-009	-0.0550373	5
	45	16	31.6723	260912.1	-141480.3	1	296802.7	-28.46888	4.061647E-009	-0.0550408	5
	46	16	24.93351	277214.5	-164631	1	322414.7	-30.70506	3.277332E-009	-0.0550433	5
	47	17	19.86229	298314.1	-189193.8	1	353250	-32.38329	3.032246E-009	-0.0550396	5
	48	17	15.83615	327196.6	-210776	1	389209.7	-32.78913	3.701567E-009	-0.055041	5
	49	17	12.40079	357437.2	-237953.6	1	429398.7	-33.65256	4.259245E-009	-0.055041	5
	50	18	9.93114	391034.7	-269924.8	1	475150	-34.61667	3.3438E-009	-0.0550444	5
	51	18	7.944915	428554.2	-294792.4	1	520155	-34.52317	2.977994E-009	-0.0550372	5
	52	19	6.317385	471994.2	-323151.2	1	572018.5	-34.39753	2.933615E-009	-0.0550241	5
	53	20	5.008013	519109.1	-354002.4	1	628324.8	-34.29173	2.303981E-009	-0.0550447	5
	54	21	3.945707	577962.8	-386319.7	1	695186.2	-33.75941	3.985047E-009	-0.0550352	6
	55	22	3.158693	627290.6	-413595.9	1	751368.8	-33.39834	4.660249E-009	-0.055054	6
	56	24	2.504006	681626.2	-442994.6	1	812932	-33.02018	3.672365E-009	-0.0550473	5
	57	26	1.998082	741087.4	-477974.9	1	881856.3	-32.82057	3.78229E-009	-0.05506	5
	58	27	1.584686	803440.1	-510764.4	1	952049	-32.44501	3.772593E-009	-0.0550943	5
	59	29	1.266892	864578.3	-558360.8	1	1029205	-32.85513	3.612794E-009	-0.0550765	5
	60	32	0.999041	932331.4	-612947.4	1	1115772	-33.32232	3.66676E-009	-0.0550227	4
