EXPLAIN
TAG	EISPOT
TITLE	LABEL	Potentiostatic EIS	Test &Identifier
DATE	LABEL	6/1/2020	Date
TIME	LABEL	13:40:32	Time
NOTES	NOTES	1	&Notes...
	
PSTAT	PSTAT	REF600-11020	Potentiostat
VDC	POTEN	0.00000E+000	T	DC &Voltage (V)
FREQINIT	QUANT	1.00000E+006	Initial Fre&q. (Hz)
FREQFINAL	QUANT	1.00000E+000	Final Fre&q. (Hz)
PTSPERDEC	QUANT	1.00000E+001	Points/&decade
VAC	QUANT	2.50000E+001	AC &Voltage (mV rms)
AREA	QUANT	4.00000E-004	&Area (cm^2)
CONDIT	TWOPARAM	F	5.00000E+000	0.00000E+000	Conditionin&g	Time(s)	E(V)
DELAY	TWOPARAM	T	3.00000E+000	0.00000E+000	Init. De&lay	Time(s)	Stab.(mV/s)
SPEED	SELECTOR	0	&Optimize for:
ZGUESS	QUANT	1.00000E+003	E&stimated Z (ohms)
OCVCURVE	TABLE	12
	Pt	T	Vf	Vm	Ach	Over
	#	s	V vs. Ref.	V	V	bits
	0	0.258333	-1.91817E-002	-1.91817E-002	5.45697E-004	...........
	1	0.516667	-1.91816E-002	-1.91781E-002	5.48730E-004	...........
	2	0.775	-1.91811E-002	-1.91710E-002	5.44864E-004	...........
	3	1.03333	-1.91796E-002	-1.91680E-002	5.47464E-004	...........
	4	1.29167	-1.91766E-002	-1.91642E-002	5.47897E-004	...........
	5	1.55	-1.91727E-002	-1.91579E-002	5.53997E-004	...........
	6	1.80833	-1.91684E-002	-1.91564E-002	5.56030E-004	...........
	7	2.06667	-1.91640E-002	-1.91521E-002	5.47064E-004	...........
	8	2.325	-1.91598E-002	-1.91464E-002	5.50930E-004	...........
	9	2.58333	-1.91559E-002	-1.91483E-002	5.48130E-004	...........
	10	2.84167	-1.91523E-002	-1.91439E-002	5.49397E-004	...........
	11	3.1	-1.91492E-002	-1.91390E-002	5.49697E-004	...........
EOC	QUANT	-0.0191492	Open Circuit (V)
PSTATMODEL	IQUANT	4	Pstat Model
PSTATSECTION	LABEL	REF600-11020	Pstat Section
PSTATSERIALNO	LABEL	11020	Pstat Serial Number
CTRLMODE	IQUANT	1	Control Mode
IESTAB	IQUANT	0	I/E Stability
CASPEED	IQUANT	1	Control Amp Speed
CONVENTION	IQUANT	1	Current Convention
ICHRANGE	IQUANT	2	Ich Range
ICHRANGEMODE	TOGGLE	F	Ich Auto Range
ICHOFFSETENABLE	TOGGLE	T	Ich Offset Enable
ICHOFFSET	QUANT	0	Ich Offset (V)
ICHFILTER	IQUANT	3	Ich Filter
VCHRANGE	IQUANT	2	Vch Range
VCHRANGEMODE	TOGGLE	F	Vch Auto Range
VCHOFFSETENABLE	TOGGLE	T	Vch Offset Enable
VCHOFFSET	QUANT	0	Vch Offset (V)
VCHFILTER	IQUANT	3	Vch Filter
ACHRANGE	IQUANT	2	Ach Range
ACHOFFSETENABLE	TOGGLE	F	Ach Offset Enable
ACHOFFSET	QUANT	0	Ach Offset (V)
ACHFILTER	IQUANT	3	Ach Filter
IERANGELOWERLIMIT	IQUANT	1	I/E Range Lower Limit
IERANGEMODE	TOGGLE	F	I/E AutoRange
IERANGE	IQUANT	7	I/E Range
POSFEEDENABLE	TOGGLE	F	Positive Feedback IR Comp
POSFEEDRESISTANCE	QUANT	0	Positive Feedback Resistance (ohm)
ACHSELECT	IQUANT	0	Ach Select
CABLEID	IQUANT	14	Cable ID
DCCALDATE	LABEL	2/27/2020	DC Calibration Date
ACCALDATE	LABEL	2/27/2020	AC Calibration Date
THERMOSELECT	IQUANT	1	Thermo Select
FRAMEWORKVERSION	QUANT	6.33	Framework Version
INSTRUMENTVERSION	LABEL	3.50	Instrument Version
ZCURVE	TABLE
	Pt	Time	Freq	Zreal	Zimag	Zsig	Zmod	Zphz	Idc	Vdc	IERange
	#	s	Hz	ohm	ohm	V	ohm	°	A	V	#
	0	1	1000078	2032.575	-1676.26	1	2634.618	-39.51231	1.432756E-008	-0.0169115	8
	1	1	794390.6	2357.41	-1703.531	1	2908.504	-35.85293	5.465721E-008	-0.0172554	8
	2	2	630984.4	2676.316	-1683.465	1	3161.759	-32.17086	5.603245E-008	-0.0173886	8
	3	2	501234.4	2975.869	-1627.724	1	3391.944	-28.67752	1.512739E-008	-0.0174713	8
	4	2	398109.4	3244.939	-1553.172	1	3597.495	-25.57786	5.266718E-008	-0.0175281	8
	5	3	316265.6	3482.719	-1465.996	1	3778.687	-22.8279	4.162803E-008	-0.0175732	8
	6	3	251203.1	3685.426	-1374.791	1	3933.499	-20.45725	4.343372E-008	-0.017575	8
	7	3	199546.9	3867.052	-1294.191	1	4077.87	-18.50391	5.138372E-008	-0.0175694	8
	8	4	158578.1	4026.648	-1225.332	1	4208.959	-16.92531	2.332977E-008	-0.0175922	8
	9	4	125953.1	4197.403	-1122.364	1	4344.87	-14.97037	1.751174E-009	-0.0176376	7
	10	4	100078.1	4312.311	-1093.296	1	4448.743	-14.22639	1.7059E-009	-0.0176508	7
	11	5	79453.13	4435.936	-1091.972	1	4568.362	-13.82926	1.399603E-009	-0.0176596	7
	12	5	63140.62	4557.312	-1105.319	1	4689.438	-13.63312	1.713704E-009	-0.0176675	7
	13	5	50203.12	4679.737	-1135.419	1	4815.507	-13.63783	8.182729E-010	-0.0176735	7
	14	6	39890.62	4805.315	-1183.168	1	4948.832	-13.83227	1.952823E-009	-0.0176716	7
	15	6	31640.63	4937.081	-1250.292	1	5092.936	-14.2111	1.615307E-009	-0.0176662	7
	16	6	25171.88	5073.915	-1336.656	1	5247.024	-14.7585	2.216984E-009	-0.0176747	7
	17	7	20015.62	5220.291	-1446.135	1	5416.894	-15.48389	2.804597E-009	-0.017671	7
	18	7	15890.62	5378.341	-1578.738	1	5605.263	-16.35888	2.68743E-009	-0.0176762	7
	19	7	12609.37	5551.904	-1741.739	1	5818.702	-17.41765	1.931042E-009	-0.0176761	7
	20	8	10078.13	5735.306	-1929.293	1	6051.108	-18.59237	2.346735E-009	-0.017678	7
	21	8	8015.625	5940.793	-2154.743	1	6319.489	-19.93586	3.408557E-009	-0.0176766	7
	22	8	6328.125	6179.701	-2430.643	1	6640.537	-21.47105	3.654036E-009	-0.0176756	7
	23	8	5015.625	6443.993	-2745.083	1	7004.322	-23.07357	3.07898E-009	-0.01768	7
	24	9	3984.375	6740.543	-3108.453	1	7422.762	-24.75715	2.744883E-009	-0.0176821	7
	25	9	3170.956	7074.779	-3526.378	1	7904.925	-26.49367	2.400599E-009	-0.0176865	7
	26	9	2527.573	7448.031	-4001.293	1	8454.793	-28.24595	3.18494E-009	-0.0176818	7
	27	10	1976.103	7898.004	-4587.312	1	9133.559	-30.14884	2.894731E-009	-0.017681	7
	28	10	1577.524	8368.574	-5204.874	1	9855.14	-31.87974	2.148632E-010	-0.0176306	6
	29	10	1265.625	8864.52	-5916.329	1	10657.52	-33.71981	4.717186E-011	-0.0176326	6
	30	11	998.264	9454.259	-6810.762	1	11652.02	-35.76863	7.356304E-010	-0.01763	6
	31	11	796.875	10074.28	-7820.188	1	12753.29	-37.8205	3.878425E-010	-0.0176339	6
	32	11	627.7902	10816.84	-9088.918	1	14128.42	-40.03888	2.963288E-010	-0.017639	6
	33	12	505.5147	11573.61	-10458.86	1	15599.24	-42.10353	2.392185E-010	-0.017638	6
	34	12	397.9953	12542.98	-12259.94	1	17539.45	-44.3462	3.260227E-010	-0.0176195	6
	35	12	315.5048	13646.28	-14349.71	1	19802.4	-46.43932	3.364855E-010	-0.017626	6
	36	13	252.4038	14896.8	-16724.04	1	22396.61	-48.30722	4.024332E-010	-0.0176272	6
	37	13	198.6229	16492.8	-19731.24	1	25716.42	-50.10868	4.129947E-010	-0.0176254	6
	38	13	158.3615	18287.72	-23075.08	1	29443.17	-51.60208	2.66508E-010	-0.0176216	6
	39	14	125.558	20473.26	-27084.18	1	33951.54	-52.91393	3.725939E-010	-0.0176275	6
	40	14	100.4464	22959.41	-31583.54	1	39046.82	-53.98501	5.634119E-010	-0.017634	6
	41	14	79.00281	26143.99	-37246.35	1	45506.03	-54.93419	4.37611E-010	-0.0176339	6
	42	15	63.3446	29624.21	-43321.85	1	52482.15	-55.63502	2.933643E-010	-0.0176308	6
	43	15	49.86702	34135.74	-50990.43	1	61361.81	-56.19952	4.770359E-011	-0.0176316	6
	44	15	39.72458	39281.93	-59443.25	1	71250.05	-56.54204	3.399068E-010	-0.017626	6
	45	16	31.6723	45431.88	-69146.39	1	82736.2	-56.69352	5.941491E-010	-0.0176308	6
	46	16	24.93351	53225.51	-80871.63	1	96815.2	-56.64916	-3.299021E-010	-0.01763	6
	47	16	19.86229	62028.66	-93489.06	1	112195.2	-56.43629	-1.236089E-009	-0.0176301	5
	48	17	15.83615	72477.6	-107803	1	129901.8	-56.08645	-3.377766E-010	-0.0176297	5
	49	17	12.40079	85802.56	-125187.5	1	151769.5	-55.57355	-1.422767E-009	-0.0176242	5
	50	17	9.93114	99495	-142856.9	1	174090	-55.1441	-1.350511E-009	-0.0176312	5
	51	18	7.944915	115689.3	-162936.4	1	199830.7	-54.62422	4.910652E-010	-0.0176296	5
	52	18	6.317385	134631.6	-186206.6	1	229779.4	-54.13223	-1.823598E-010	-0.0176256	5
	53	19	5.008013	156791.8	-212726.2	1	264265.2	-53.60759	-5.238704E-010	-0.0176374	5
	54	20	3.945707	183503.1	-243037.8	1	304533.7	-52.94576	-8.833013E-011	-0.0176373	5
	55	21	3.158693	211444.7	-274867.5	1	346786.7	-52.43034	-3.052883E-010	-0.0176435	5
	56	22	2.504006	245138.9	-311017.8	1	396011.6	-51.75543	1.58466E-010	-0.0176424	5
	57	23	1.998082	280731	-350469	1	449041.7	-51.30474	2.034453E-010	-0.0176224	5
	58	24	1.584686	322094.8	-394186.6	1	509046.3	-50.74731	-4.315732E-014	-0.0176707	5
	59	26	1.266892	366286.6	-443531.8	1	575227.2	-50.44872	-5.461235E-011	-0.0176824	5
	60	29	0.999041	416156.2	-503485.4	1	653210.2	-50.42455	-7.19781E-011	-0.0176735	5
