EXPLAIN
TAG	EISPOT
TITLE	LABEL	Potentiostatic EIS	Test &Identifier
DATE	LABEL	5/26/2020	Date
TIME	LABEL	18:38:21	Time
NOTES	NOTES	1	&Notes...
	
PSTAT	PSTAT	REF600-11020	Potentiostat
VDC	POTEN	0.00000E+000	T	DC &Voltage (V)
FREQINIT	QUANT	1.00000E+006	Initial Fre&q. (Hz)
FREQFINAL	QUANT	1.00000E+000	Final Fre&q. (Hz)
PTSPERDEC	QUANT	1.00000E+001	Points/&decade
VAC	QUANT	2.50000E+001	AC &Voltage (mV rms)
AREA	QUANT	5.00000E-004	&Area (cm^2)
CONDIT	TWOPARAM	F	5.00000E+000	0.00000E+000	Conditionin&g	Time(s)	E(V)
DELAY	TWOPARAM	T	3.00000E+000	0.00000E+000	Init. De&lay	Time(s)	Stab.(mV/s)
SPEED	SELECTOR	0	&Optimize for:
ZGUESS	QUANT	1.00000E+003	E&stimated Z (ohms)
OCVCURVE	TABLE	12
	Pt	T	Vf	Vm	Ach	Over
	#	s	V vs. Ref.	V	V	bits
	0	0.258333	9.83566E-002	9.83566E-002	5.77330E-004	...........
	1	0.516667	9.83562E-002	9.83310E-002	5.80497E-004	...........
	2	0.775	9.83532E-002	9.83077E-002	5.83863E-004	...........
	3	1.03333	9.83448E-002	9.82865E-002	5.78963E-004	...........
	4	1.29167	9.83300E-002	9.82638E-002	5.82263E-004	...........
	5	1.55	9.83106E-002	9.82470E-002	5.82230E-004	...........
	6	1.80833	9.82893E-002	9.82298E-002	5.85597E-004	...........
	7	2.06667	9.82687E-002	9.82165E-002	5.85830E-004	...........
	8	2.325	9.82498E-002	9.82056E-002	5.92430E-004	...........
	9	2.58333	9.82334E-002	9.81969E-002	5.87230E-004	...........
	10	2.84167	9.82194E-002	9.81825E-002	5.81197E-004	...........
	11	3.1	9.82072E-002	9.81745E-002	5.82430E-004	...........
EOC	QUANT	0.0982072	Open Circuit (V)
PSTATMODEL	IQUANT	4	Pstat Model
PSTATSECTION	LABEL	REF600-11020	Pstat Section
PSTATSERIALNO	LABEL	11020	Pstat Serial Number
CTRLMODE	IQUANT	1	Control Mode
IESTAB	IQUANT	0	I/E Stability
CASPEED	IQUANT	1	Control Amp Speed
CONVENTION	IQUANT	1	Current Convention
ICHRANGE	IQUANT	2	Ich Range
ICHRANGEMODE	TOGGLE	F	Ich Auto Range
ICHOFFSETENABLE	TOGGLE	T	Ich Offset Enable
ICHOFFSET	QUANT	0	Ich Offset (V)
ICHFILTER	IQUANT	3	Ich Filter
VCHRANGE	IQUANT	2	Vch Range
VCHRANGEMODE	TOGGLE	F	Vch Auto Range
VCHOFFSETENABLE	TOGGLE	T	Vch Offset Enable
VCHOFFSET	QUANT	0	Vch Offset (V)
VCHFILTER	IQUANT	3	Vch Filter
ACHRANGE	IQUANT	2	Ach Range
ACHOFFSETENABLE	TOGGLE	F	Ach Offset Enable
ACHOFFSET	QUANT	0	Ach Offset (V)
ACHFILTER	IQUANT	3	Ach Filter
IERANGELOWERLIMIT	IQUANT	1	I/E Range Lower Limit
IERANGEMODE	TOGGLE	F	I/E AutoRange
IERANGE	IQUANT	8	I/E Range
POSFEEDENABLE	TOGGLE	F	Positive Feedback IR Comp
POSFEEDRESISTANCE	QUANT	0	Positive Feedback Resistance (ohm)
ACHSELECT	IQUANT	0	Ach Select
CABLEID	IQUANT	14	Cable ID
DCCALDATE	LABEL	2/27/2020	DC Calibration Date
ACCALDATE	LABEL	2/27/2020	AC Calibration Date
THERMOSELECT	IQUANT	1	Thermo Select
FRAMEWORKVERSION	QUANT	6.33	Framework Version
INSTRUMENTVERSION	LABEL	3.50	Instrument Version
ZCURVE	TABLE
	Pt	Time	Freq	Zreal	Zimag	Zsig	Zmod	Zphz	Idc	Vdc	IERange
	#	s	Hz	ohm	ohm	V	ohm	°	A	V	#
	0	1	1000078	2079.449	-1558.286	1	2598.531	-36.84695	1.169642E-007	0.1005748	8
	1	2	794390.6	2371.867	-1572.455	1	2845.764	-33.54282	1.578229E-008	0.1003035	8
	2	2	630984.4	2659.419	-1549.248	1	3077.772	-30.223	2.401965E-008	0.1001789	8
	3	2	501234.4	2930.447	-1503.07	1	3293.439	-27.15396	4.345802E-008	0.100057	8
	4	3	398109.4	3179.551	-1436.454	1	3488.975	-24.31245	5.845244E-008	0.1000182	8
	5	3	316265.6	3407.344	-1354.57	1	3666.723	-21.68	3.834285E-008	0.0999762	8
	6	3	251203.1	3605.756	-1269.731	1	3822.786	-19.39921	5.722805E-008	0.0999837	8
	7	4	199546.9	3784.661	-1184.327	1	3965.639	-17.37638	5.209839E-008	0.0999892	8
	8	4	158578.1	3940.513	-1102.808	1	4091.922	-15.63503	5.574365E-008	0.0999758	8
	9	4	125953.1	4109.685	-974.724	1	4223.694	-13.34272	6.401128E-009	0.0999229	7
	10	5	100078.1	4214.723	-920.7606	1	4314.126	-12.32339	2.182506E-009	0.0999052	7
	11	5	79453.13	4324.541	-888.5922	1	4414.89	-11.61133	2.573164E-009	0.0998983	7
	12	5	63140.62	4428.943	-866.2538	1	4512.863	-11.06673	1.894942E-009	0.0998921	7
	13	5	50203.12	4529.126	-854.4944	1	4609.028	-10.68421	1.884049E-009	0.0998893	7
	14	6	39890.62	4628.123	-853.548	1	4706.173	-10.44944	2.196606E-009	0.0998801	7
	15	6	31640.63	4726.901	-863.6577	1	4805.154	-10.35437	1.866877E-009	0.0998849	7
	16	6	25171.88	4825.535	-885.4574	1	4906.1	-10.39777	2.870155E-009	0.0998832	7
	17	7	20015.62	4925.122	-917.9914	1	5009.943	-10.55818	2.145065E-009	0.099883	7
	18	7	15890.62	5028.258	-963.957	1	5119.824	-10.85239	1.84972E-009	0.0998803	7
	19	7	12609.37	5134.968	-1025.16	1	5236.301	-11.29025	2.687343E-009	0.0998835	7
	20	8	10078.13	5243.504	-1100.192	1	5357.682	-11.8499	3.712527E-009	0.0998813	7
	21	8	8015.625	5357.141	-1194.329	1	5488.659	-12.56807	2.779632E-009	0.0998846	7
	22	8	6328.125	5481.534	-1314.54	1	5636.952	-13.48557	2.59209E-009	0.0998805	7
	23	9	5015.625	5609.833	-1458.418	1	5796.31	-14.5729	2.478002E-009	0.0998781	7
	24	9	3984.375	5742.883	-1632.377	1	5970.374	-15.86745	1.921674E-009	0.0998769	7
	25	9	3170.956	5882.353	-1842.401	1	6164.132	-17.39099	2.704702E-009	0.0998788	7
	26	10	2527.573	6027.872	-2095.514	1	6381.725	-19.16937	2.565336E-009	0.0998738	7
	27	10	1976.103	6197.521	-2438.343	1	6659.939	-21.47659	3.960035E-009	0.0998819	7
	28	10	1577.524	6365.157	-2825.541	1	6964.116	-23.93679	3.974879E-009	0.0998856	7
	29	11	1265.625	6542.622	-3286.61	1	7321.728	-26.67214	2.938327E-009	0.0998838	7
	30	11	998.264	6756.516	-3897.623	1	7800.126	-29.97931	3.352091E-009	0.0998803	7
	31	11	796.875	6992.683	-4616.288	1	8379.005	-33.43118	3.529823E-009	0.0998786	7
	32	11	627.7902	7275.484	-5549.087	1	9150.139	-37.33314	3.591174E-009	0.0998722	7
	33	12	505.5147	7586.686	-6571.832	1	10037.27	-40.90017	-1.709704E-010	0.0999343	6
	34	12	397.9953	7981.027	-7957.458	1	11270.22	-44.91527	6.790644E-010	0.0999501	6
	35	12	315.5048	8442.895	-9607.89	1	12790.39	-48.69275	6.682607E-010	0.0999487	6
	36	13	252.4038	8978.021	-11537.97	1	14619.5	-52.11251	5.418925E-010	0.0999478	6
	37	13	198.6229	9679.49	-14069.1	1	17077.24	-55.47218	4.655252E-010	0.0999487	6
	38	13	158.3615	10500.81	-16990.93	1	19973.95	-58.28293	3.836734E-010	0.0999464	6
	39	14	125.558	11551.89	-20631.14	1	23645.09	-60.75444	4.651198E-010	0.0999468	6
	40	14	100.4464	12828.55	-24869.37	1	27983.16	-62.71362	4.453206E-010	0.0999443	6
	41	14	79.00281	14591.97	-30394.85	1	33716.05	-64.35526	5.316382E-010	0.0999433	6
	42	15	63.3446	16680.68	-36514.58	1	40144.23	-65.44801	5.568468E-010	0.0999447	6
	43	15	49.86702	19606.81	-44455.57	1	48587.29	-66.20047	2.641472E-010	0.0999422	6
	44	15	39.72458	23220.07	-53455.1	1	58280.52	-66.52061	2.776152E-010	0.0999469	6
	45	16	31.6723	27840.27	-64012.45	1	69804.55	-66.49483	-3.958553E-011	0.0999429	6
	46	16	24.93351	34113.14	-77071.04	1	84283.16	-66.12489	5.34553E-010	0.0999448	6
	47	16	19.86229	41735.39	-91562.56	1	100625.8	-65.4959	1.509333E-009	0.0999506	6
	48	17	15.83615	51358.31	-108059.5	1	119643.4	-64.57928	-1.355312E-009	0.099952	5
	49	17	12.40079	64446.6	-128204.9	1	143491.7	-63.31204	-2.986098E-010	0.0999538	5
	50	17	9.93114	79220.63	-148692.4	1	168479.5	-61.95211	-8.702589E-010	0.0999509	5
	51	18	7.944915	96737.2	-171400.9	1	196815.5	-60.56	-7.396987E-010	0.0999547	5
	52	18	6.317385	118469.9	-196623.7	1	229556	-58.93015	8.605469E-011	0.0999481	5
	53	19	5.008013	143984	-224247.6	1	266492.8	-57.29647	-3.553924E-010	0.0999332	5
	54	20	3.945707	174244	-254557.7	1	308481.1	-55.60847	-1.224578E-010	0.0999472	5
	55	21	3.158693	204878.8	-285025.2	1	351019.5	-54.29106	-2.435172E-010	0.0999314	5
	56	22	2.504006	240599	-319086	1	399629.6	-52.98277	2.164592E-010	0.0999324	5
	57	23	1.998082	276261.1	-355939.4	1	450569.7	-52.1833	1.681686E-010	0.09994	5
	58	24	1.584686	316637.7	-397743.8	1	508389.2	-51.47725	-3.56612E-011	0.0998925	5
	59	26	1.266892	357453.5	-446482.8	1	571944	-51.31929	-4.568872E-011	0.0998913	5
	60	29	0.999041	402339.2	-507294.9	1	647475.8	-51.58182	-5.627104E-011	0.0999089	5
