EXPLAIN
TAG	EISPOT
TITLE	LABEL	Potentiostatic EIS	Test &Identifier
DATE	LABEL	3/19/2020	Date
TIME	LABEL	20:55:34	Time
NOTES	NOTES	1	&Notes...
	
PSTAT	PSTAT	REF600-11020	Potentiostat
VDC	POTEN	0.00000E+000	T	DC &Voltage (V)
FREQINIT	QUANT	1.00000E+006	Initial Fre&q. (Hz)
FREQFINAL	QUANT	1.00000E+000	Final Fre&q. (Hz)
PTSPERDEC	QUANT	1.00000E+001	Points/&decade
VAC	QUANT	2.50000E+001	AC &Voltage (mV rms)
AREA	QUANT	4.00000E-004	&Area (cm^2)
CONDIT	TWOPARAM	F	5.00000E+000	0.00000E+000	Conditionin&g	Time(s)	E(V)
DELAY	TWOPARAM	T	3.00000E+000	0.00000E+000	Init. De&lay	Time(s)	Stab.(mV/s)
SPEED	SELECTOR	0	&Optimize for:
ZGUESS	QUANT	1.00000E+003	E&stimated Z (ohms)
OCVCURVE	TABLE	12
	Pt	T	Vf	Vm	Ach	Over
	#	s	V vs. Ref.	V	V	bits
	0	0.258333	1.41828E-001	1.41828E-001	5.84830E-004	...........
	1	0.516667	1.41828E-001	1.41835E-001	5.84230E-004	...........
	2	0.775	1.41829E-001	1.41841E-001	5.85730E-004	...........
	3	1.03333	1.41831E-001	1.41847E-001	5.81997E-004	...........
	4	1.29167	1.41835E-001	1.41846E-001	5.83930E-004	...........
	5	1.55	1.41839E-001	1.41843E-001	5.84397E-004	...........
	6	1.80833	1.41843E-001	1.41837E-001	5.85163E-004	...........
	7	2.06667	1.41844E-001	1.41842E-001	5.81763E-004	...........
	8	2.325	1.41843E-001	1.41846E-001	5.84597E-004	...........
	9	2.58333	1.41842E-001	1.41842E-001	5.83763E-004	...........
	10	2.84167	1.41842E-001	1.41834E-001	5.82130E-004	...........
	11	3.1	1.41841E-001	1.41807E-001	5.78863E-004	...........
EOC	QUANT	0.1418412	Open Circuit (V)
PSTATMODEL	IQUANT	4	Pstat Model
PSTATSECTION	LABEL	REF600-11020	Pstat Section
PSTATSERIALNO	LABEL	11020	Pstat Serial Number
CTRLMODE	IQUANT	1	Control Mode
IESTAB	IQUANT	0	I/E Stability
CASPEED	IQUANT	1	Control Amp Speed
CONVENTION	IQUANT	1	Current Convention
ICHRANGE	IQUANT	2	Ich Range
ICHRANGEMODE	TOGGLE	F	Ich Auto Range
ICHOFFSETENABLE	TOGGLE	T	Ich Offset Enable
ICHOFFSET	QUANT	0	Ich Offset (V)
ICHFILTER	IQUANT	3	Ich Filter
VCHRANGE	IQUANT	2	Vch Range
VCHRANGEMODE	TOGGLE	F	Vch Auto Range
VCHOFFSETENABLE	TOGGLE	T	Vch Offset Enable
VCHOFFSET	QUANT	0	Vch Offset (V)
VCHFILTER	IQUANT	3	Vch Filter
ACHRANGE	IQUANT	2	Ach Range
ACHOFFSETENABLE	TOGGLE	F	Ach Offset Enable
ACHOFFSET	QUANT	0	Ach Offset (V)
ACHFILTER	IQUANT	3	Ach Filter
IERANGELOWERLIMIT	IQUANT	1	I/E Range Lower Limit
IERANGEMODE	TOGGLE	F	I/E AutoRange
IERANGE	IQUANT	8	I/E Range
POSFEEDENABLE	TOGGLE	F	Positive Feedback IR Comp
POSFEEDRESISTANCE	QUANT	0	Positive Feedback Resistance (ohm)
ACHSELECT	IQUANT	0	Ach Select
CABLEID	IQUANT	14	Cable ID
DCCALDATE	LABEL	2/27/2020	DC Calibration Date
ACCALDATE	LABEL	2/27/2020	AC Calibration Date
THERMOSELECT	IQUANT	1	Thermo Select
FRAMEWORKVERSION	QUANT	6.33	Framework Version
INSTRUMENTVERSION	LABEL	3.50	Instrument Version
ZCURVE	TABLE
	Pt	Time	Freq	Zreal	Zimag	Zsig	Zmod	Zphz	Idc	Vdc	IERange
	#	s	Hz	ohm	ohm	V	ohm	°	A	V	#
	0	1	1000078	1723.381	-2197.176	1	2792.423	-51.89071	6.413449E-007	0.1438218	8
	1	1	794390.6	2161.151	-2393.356	1	3224.706	-47.91862	-3.239698E-007	0.143613	8
	2	1	630984.4	2656.07	-2525.986	1	3665.421	-43.56201	-2.79068E-007	0.1435713	8
	3	2	501234.4	3183.254	-2577.991	1	4096.235	-39.00264	-4.609764E-008	0.1434204	8
	4	2	398109.4	3706.022	-2535.092	1	4490.132	-34.37394	2.276696E-007	0.1433056	8
	5	2	316265.6	4192.086	-2426.831	1	4843.872	-30.06688	-1.479339E-007	0.1433796	8
	6	3	251203.1	4627.186	-2244.051	1	5142.626	-25.87204	-7.850461E-008	0.1433541	8
	7	3	199546.9	5001.65	-2038.217	1	5401.003	-22.17134	1.610401E-007	0.1433205	8
	8	3	158578.1	5297.116	-1811.58	1	5598.326	-18.88036	-3.947117E-008	0.1433438	8
	9	4	125953.1	5565.154	-1552.671	1	5777.692	-15.58903	4.959162E-008	0.1431722	7
	10	4	100078.1	5731.633	-1362.938	1	5891.453	-13.37607	-2.860227E-009	0.1432766	7
	11	4	79453.13	5862.53	-1245.594	1	5993.394	-11.99509	4.312949E-008	0.1433303	8
	12	5	63140.62	5997.301	-1075.625	1	6092.995	-10.16798	4.516183E-009	0.1432488	7
	13	5	50203.12	6095.154	-970.009	1	6171.857	-9.042464	-5.056678E-009	0.1432745	7
	14	5	39890.62	6179.308	-889.1726	1	6242.954	-8.188379	-2.865905E-009	0.1432631	7
	15	6	31640.63	6254.436	-832.7305	1	6309.628	-7.583894	-1.805125E-009	0.1432769	7
	16	6	25171.88	6322.087	-798.6995	1	6372.339	-7.200305	4.75E-009	0.1432739	7
	17	6	20015.62	6384.191	-786.5505	1	6432.461	-7.023609	-3.37471E-009	0.1432679	7
	18	6	15890.62	6448.367	-794.039	1	6497.071	-7.019948	1.432458E-008	0.1432392	7
	19	7	12609.37	6511.328	-824.0659	1	6563.267	-7.212939	1.364121E-008	0.143249	7
	20	7	10078.13	6574.09	-874.992	1	6632.063	-7.581342	4.174123E-009	0.14327	7
	21	7	8015.625	6639.772	-949.3109	1	6707.292	-8.136631	8.875075E-009	0.1432468	7
	22	8	6328.125	6711.311	-1055.395	1	6793.788	-8.936923	2.06712E-009	0.1432699	7
	23	8	5015.625	6784.911	-1191.43	1	6888.725	-9.9596	4.354924E-009	0.1432506	7
	24	8	3984.375	6862.472	-1364.065	1	6996.727	-11.24224	5.733547E-009	0.1432391	7
	25	9	3170.956	6947.263	-1581.497	1	7124.998	-12.82445	3.192581E-009	0.1432663	7
	26	9	2527.573	7038.79	-1849.959	1	7277.837	-14.72564	3.230864E-009	0.1432642	7
	27	9	1976.103	7150.435	-2213.568	1	7485.226	-17.20102	1.409209E-009	0.1432573	7
	28	10	1577.524	7266.548	-2628.188	1	7727.231	-19.8842	-3.892288E-009	0.143263	7
	29	10	1265.625	7397.862	-3130.194	1	8032.837	-22.93426	4.837028E-009	0.1432636	7
	30	10	998.264	7566.72	-3790.103	1	8462.868	-26.60588	1.703294E-008	0.1432235	7
	31	11	796.875	7756.444	-4558.361	1	8996.727	-30.4422	1.520949E-009	0.1432363	7
	32	11	627.7902	8000.815	-5559.864	1	9742.95	-34.79591	2.142129E-010	0.1433174	6
	33	11	505.5147	8271.707	-6672.771	1	10627.65	-38.89305	-6.629194E-010	0.1432951	6
	34	12	397.9953	8630.477	-8172.373	1	11885.82	-43.4383	7.011211E-010	0.1433195	6
	35	12	315.5048	9065.903	-9956.14	1	13465.34	-47.67951	6.776156E-010	0.1433129	6
	36	12	252.4038	9584.09	-12040.72	1	15389.41	-51.48115	6.288102E-010	0.1433098	6
	37	13	198.6229	10277.88	-14766.92	1	17991.57	-55.16181	6.497199E-010	0.1433116	6
	38	13	158.3615	11099.81	-17907.79	1	21068.81	-58.20808	6.455416E-010	0.1433055	6
	39	13	125.558	12155.88	-21809.63	1	24968.48	-60.86631	5.986467E-010	0.1433081	6
	40	13	100.4464	13426.15	-26343.25	1	29567.36	-62.99379	6.743677E-010	0.1433085	6
	41	14	79.00281	15153.34	-32265.46	1	35646.65	-64.84311	3.287469E-010	0.1433078	6
	42	14	63.3446	17191.85	-38844.85	1	42479.2	-66.12691	2.339935E-010	0.1433031	6
	43	15	49.86702	19958.02	-47454.9	1	51480.97	-67.18993	8.052634E-011	0.1433024	6
	44	15	39.72458	23341.23	-57313.63	1	61884.29	-67.84117	3.817306E-010	0.143307	6
	45	15	31.6723	27695.13	-69072.05	1	74417.52	-68.15118	4.913455E-010	0.1433064	6
	46	16	24.93351	33689.35	-83937.2	1	90445.7	-68.13126	-1.664359E-011	0.1433042	6
	47	16	19.86229	41124.25	-100653.8	1	108730.8	-67.77648	-1.300934E-009	0.143309	5
	48	16	15.83615	50838.2	-120153.9	1	130466.4	-67.06633	3.561566E-010	0.1433079	5
	49	16	12.40079	64676.26	-144518.4	1	158330.7	-65.89008	-9.229555E-010	0.1433113	5
	50	17	9.93114	80668.66	-169712.8	1	187909.2	-64.57712	-6.618918E-010	0.1433055	5
	51	17	7.944915	101013.5	-197376.2	1	221723	-62.89747	9.427069E-010	0.1433056	5
	52	17	6.317385	126724.9	-228978.9	1	261707	-61.03833	-2.738144E-010	0.1433175	5
	53	18	5.008013	158115.8	-263056.5	1	306919.1	-58.99111	-5.636114E-010	0.1432988	5
	54	19	3.945707	196502.5	-298646.9	1	357495.8	-56.65604	2.518987E-011	0.1433101	5
	55	20	3.158693	236621.7	-334026.7	1	409345.3	-54.68657	-3.773051E-010	0.1432951	5
	56	21	2.504006	282961.7	-370842.1	1	466466.7	-52.65548	1.883034E-011	0.1432893	5
	57	22	1.998082	330539.8	-409343.7	1	526135.8	-51.07957	1.701531E-010	0.1433223	5
	58	24	1.584686	381908.9	-450127.3	1	590312.6	-49.68717	-1.741893E-011	0.1432724	5
	59	26	1.266892	435524.3	-495806.5	1	659928.4	-48.70341	-1.193797E-010	0.1432501	5
	60	28	0.999041	494535.1	-552377.1	1	741407.7	-48.16238	-1.685687E-010	0.1432496	5
