EXPLAIN
TAG	EISPOT
TITLE	LABEL	Potentiostatic EIS	Test &Identifier
DATE	LABEL	3/12/2020	Date
TIME	LABEL	13:21:27	Time
NOTES	NOTES	1	&Notes...
	
PSTAT	PSTAT	REF600-11020	Potentiostat
VDC	POTEN	0.00000E+000	T	DC &Voltage (V)
FREQINIT	QUANT	1.00000E+006	Initial Fre&q. (Hz)
FREQFINAL	QUANT	1.00000E+000	Final Fre&q. (Hz)
PTSPERDEC	QUANT	1.00000E+001	Points/&decade
VAC	QUANT	2.50000E+001	AC &Voltage (mV rms)
AREA	QUANT	2.50000E-001	&Area (cm^2)
CONDIT	TWOPARAM	F	5.00000E+000	0.00000E+000	Conditionin&g	Time(s)	E(V)
DELAY	TWOPARAM	T	5.00000E+000	0.00000E+000	Init. De&lay	Time(s)	Stab.(mV/s)
SPEED	SELECTOR	1	&Optimize for:
ZGUESS	QUANT	5.00000E+003	E&stimated Z (ohms)
OCVCURVE	TABLE	19
	Pt	T	Vf	Vm	Ach	Over
	#	s	V vs. Ref.	V	V	bits
	0	0.258333	1.73464E-002	1.73464E-002	5.77330E-004	...........
	1	0.516667	1.73449E-002	1.72700E-002	5.77130E-004	...........
	2	0.775	1.73360E-002	1.72009E-002	5.77797E-004	...........
	3	1.03333	1.73111E-002	1.71344E-002	5.75697E-004	...........
	4	1.29167	1.72669E-002	1.70754E-002	5.75363E-004	...........
	5	1.55	1.72089E-002	1.70125E-002	5.75897E-004	...........
	6	1.80833	1.71452E-002	1.69502E-002	5.73197E-004	...........
	7	2.06667	1.70809E-002	1.68861E-002	5.73397E-004	...........
	8	2.325	1.70175E-002	1.68301E-002	5.74763E-004	...........
	9	2.58333	1.69554E-002	1.67814E-002	5.73830E-004	...........
	10	2.84167	1.68952E-002	1.67134E-002	5.76697E-004	...........
	11	3.1	1.68368E-002	1.66552E-002	5.75763E-004	...........
	12	3.35833	1.67788E-002	1.66039E-002	5.69063E-004	...........
	13	3.61667	1.67208E-002	1.65490E-002	5.71163E-004	...........
	14	3.875	1.66636E-002	1.64953E-002	5.75763E-004	...........
	15	4.13333	1.66079E-002	1.64418E-002	5.75963E-004	...........
	16	4.39167	1.65534E-002	1.63881E-002	5.73263E-004	...........
	17	4.65	1.64995E-002	1.63370E-002	5.69363E-004	...........
	18	4.90833	1.64462E-002	1.62869E-002	5.70130E-004	...........
EOC	QUANT	0.0164462	Open Circuit (V)
PSTATMODEL	IQUANT	4	Pstat Model
PSTATSECTION	LABEL	REF600-11020	Pstat Section
PSTATSERIALNO	LABEL	11020	Pstat Serial Number
CTRLMODE	IQUANT	1	Control Mode
IESTAB	IQUANT	0	I/E Stability
CASPEED	IQUANT	1	Control Amp Speed
CONVENTION	IQUANT	1	Current Convention
ICHRANGE	IQUANT	2	Ich Range
ICHRANGEMODE	TOGGLE	F	Ich Auto Range
ICHOFFSETENABLE	TOGGLE	T	Ich Offset Enable
ICHOFFSET	QUANT	0	Ich Offset (V)
ICHFILTER	IQUANT	3	Ich Filter
VCHRANGE	IQUANT	2	Vch Range
VCHRANGEMODE	TOGGLE	F	Vch Auto Range
VCHOFFSETENABLE	TOGGLE	T	Vch Offset Enable
VCHOFFSET	QUANT	0	Vch Offset (V)
VCHFILTER	IQUANT	3	Vch Filter
ACHRANGE	IQUANT	2	Ach Range
ACHOFFSETENABLE	TOGGLE	F	Ach Offset Enable
ACHOFFSET	QUANT	0	Ach Offset (V)
ACHFILTER	IQUANT	3	Ach Filter
IERANGELOWERLIMIT	IQUANT	1	I/E Range Lower Limit
IERANGEMODE	TOGGLE	F	I/E AutoRange
IERANGE	IQUANT	6	I/E Range
POSFEEDENABLE	TOGGLE	F	Positive Feedback IR Comp
POSFEEDRESISTANCE	QUANT	0	Positive Feedback Resistance (ohm)
ACHSELECT	IQUANT	0	Ach Select
CABLEID	IQUANT	14	Cable ID
DCCALDATE	LABEL	2/27/2020	DC Calibration Date
ACCALDATE	LABEL	2/27/2020	AC Calibration Date
THERMOSELECT	IQUANT	1	Thermo Select
FRAMEWORKVERSION	QUANT	6.33	Framework Version
INSTRUMENTVERSION	LABEL	3.50	Instrument Version
ZCURVE	TABLE
	Pt	Time	Freq	Zreal	Zimag	Zsig	Zmod	Zphz	Idc	Vdc	IERange
	#	s	Hz	ohm	ohm	V	ohm	°	A	V	#
	0	2	1000078	2032.8	-1739.107	1	2675.214	-40.54775	5.851961E-006	0.018138	8
	1	3	794390.6	2397.066	-1775.574	1	2983.05	-36.52838	-1.624794E-006	0.0184421	8
	2	5	630984.4	2756.717	-1725.675	1	3252.298	-32.04612	5.117822E-007	0.0183378	8
	3	6	501234.4	3079.974	-1630.759	1	3485.056	-27.89994	-4.215441E-007	0.0183359	8
	4	7	398109.4	3350.168	-1488.513	1	3665.964	-23.95605	-4.371968E-007	0.018446	8
	5	9	316265.6	3595.028	-1342.962	1	3837.678	-20.48373	-1.587517E-007	0.0181676	8
	6	10	251203.1	3783.626	-1205.455	1	3971.014	-17.67177	-1.066776E-006	0.0184234	8
	7	11	199546.9	3924.213	-1063.273	1	4065.71	-15.1604	-4.356149E-007	0.0183695	8
	8	13	158578.1	4039.408	-956.613	1	4151.136	-13.32334	-1.496212E-006	0.0183398	8
	9	14	125953.1	4150.119	-822.5845	1	4230.854	-11.21114	-2.076083E-007	0.018298	7
	10	15	100078.1	4215.403	-749.8271	1	4281.572	-10.08616	3.63184E-008	0.0180723	7
	11	17	79453.13	4282.261	-708.0446	1	4340.401	-9.388551	5.714312E-008	0.0179631	7
	12	18	63140.62	4344.207	-683.4138	1	4397.634	-8.940278	3.828049E-009	0.0180601	7
	13	19	50203.12	4403.331	-676.0084	1	4454.92	-8.728021	7.474709E-008	0.0179623	7
	14	21	39890.62	4462.783	-684.6174	1	4514.99	-8.72152	-1.133181E-008	0.0180993	7
	15	22	31640.63	4524.638	-710.989	1	4580.159	-8.930274	-2.760121E-008	0.0180785	7
	16	24	25171.88	4589.878	-754.3113	1	4651.448	-9.332699	-2.890606E-008	0.0180786	7
	17	25	20015.62	4659.257	-814.2618	1	4729.873	-9.91302	2.584983E-008	0.0179735	7
	18	26	15890.62	4738.752	-893.0289	1	4822.165	-10.67236	-1.985328E-008	0.0180746	7
	19	28	12609.37	4826.093	-992.557	1	4927.103	-11.62167	-2.09284E-008	0.0180484	7
	20	29	10078.13	4921.129	-1108.842	1	5044.506	-12.69797	-2.778871E-008	0.0180691	7
	21	30	8015.625	5027.435	-1252.217	1	5181.038	-13.98644	-4.366742E-009	0.0181045	7
	22	32	6328.125	5150.811	-1425.619	1	5344.458	-15.47079	3.858133E-008	0.0179712	7
	23	33	5015.625	5288.449	-1631.105	1	5534.275	-17.14122	9.638359E-009	0.0180952	7
	24	34	3984.375	5440.971	-1871.345	1	5753.79	-18.97993	7.482691E-008	0.0179476	7
	25	36	3170.956	5612.584	-2153.497	1	6011.543	-20.99135	-2.353024E-008	0.0180674	7
	26	37	2527.573	5799.91	-2479.176	1	6307.557	-23.14432	2.777953E-008	0.0179549	7
	27	39	1976.103	6036.197	-2904.91	1	6698.819	-25.69911	-3.517576E-008	0.0180888	7
	28	40	1577.524	6279.942	-3369.68	1	7126.88	-28.21704	1.483449E-008	0.0180177	7
	29	41	1265.625	6548.09	-3905.826	1	7624.497	-30.81537	5.916943E-008	0.0179394	7
	30	43	998.264	6875.386	-4595.376	1	8269.729	-33.75801	3.641908E-008	0.0180387	7
	31	44	796.875	7228.703	-5372.749	1	9006.695	-36.62165	4.870306E-009	0.0179975	7
	32	45	627.7902	7657.548	-6356.655	1	9952.14	-39.69662	2.014964E-009	0.0180012	6
	33	47	505.5147	8101.132	-7436.751	1	10996.98	-42.5516	-4.371047E-009	0.0181536	6
	34	48	397.9953	8652.761	-8857.652	1	12382.58	-45.67039	3.300458E-010	0.0181039	6
	35	49	315.5048	9275.752	-10531.08	1	14033.65	-48.62648	3.586614E-010	0.018104	6
	36	51	252.4038	9969.96	-12469.3	1	15965.08	-51.35555	4.356246E-010	0.0181036	6
	37	52	198.6229	10835.29	-14992.28	1	18497.89	-54.14342	7.557877E-010	0.0181087	6
	38	54	158.3615	11799.16	-17897.04	1	21436.52	-56.60393	4.343555E-010	0.0181031	6
	39	55	125.558	12988.16	-21504.34	1	25122.28	-58.86893	9.101436E-010	0.0181008	6
	40	56	100.4464	14362.08	-25712.05	1	29451.3	-60.81341	3.19859E-010	0.0180986	6
	41	58	79.00281	16224.73	-31181.51	1	35150.08	-62.5106	7.155169E-010	0.018104	6
	42	59	63.3446	18544.67	-37135.73	1	41508.64	-63.46358	2.261798E-010	0.018105	6
	43	61	49.86702	21453.02	-45482.03	1	50287.64	-64.74763	3.49313E-010	0.0180983	6
	44	62	39.72458	25125.62	-54378.65	1	59902.7	-65.20074	9.890344E-010	0.0181029	6
	45	63	31.6723	29670.38	-65036.25	1	71484.58	-65.47691	1.160985E-009	0.0181019	6
	46	65	24.93351	36163	-78197.21	1	86154.31	-65.1814	9.676697E-010	0.0180967	6
	47	66	19.86229	43958.45	-92784.14	1	102670.6	-64.64976	-4.656771E-011	0.0180951	6
	48	67	15.83615	54033.03	-109537.2	1	122139.2	-63.74359	9.310171E-011	0.018104	5
	49	69	12.40079	66526.31	-129822.5	1	145875.4	-62.86757	-1.052181E-010	0.0181135	5
	50	70	9.93114	82074.38	-150717.9	1	171616.1	-61.42923	8.282676E-010	0.0181048	5
	51	72	7.944915	100494.5	-173464.9	1	200472.5	-59.91472	-2.798698E-010	0.0181044	5
	52	74	6.317385	122272.6	-197954.1	1	232672.3	-58.29714	7.719616E-010	0.0181094	5
	53	76	5.008013	147879.4	-224949.6	1	269203.7	-56.67953	5.290393E-010	0.0181173	5
	54	78	3.945707	177301.4	-254212.4	1	309935	-55.10601	8.695811E-011	0.0181069	5
	55	81	3.158693	206400.5	-283731	1	350862.4	-53.96594	3.068537E-010	0.0181229	5
	56	84	2.504006	238211.8	-318216.8	1	397500.7	-53.18209	1.798665E-010	0.0180997	5
	57	87	1.998082	269728.3	-356451.2	1	447002	-52.88503	-2.875537E-011	0.0181262	5
	58	90	1.584686	304250	-403888.1	1	505661.6	-53.00919	2.562081E-010	0.0181448	5
	59	94	1.266892	338629.8	-457561.8	1	569238.9	-53.4958	7.524032E-011	0.0181454	5
	60	98	0.999041	377411.4	-528557.9	1	649471.2	-54.47165	2.915257E-010	0.018084	5
