EXPLAIN
TAG	EISPOT
TITLE	LABEL	Potentiostatic EIS	Test &Identifier
DATE	LABEL	7/5/2020	Date
TIME	LABEL	16:58:50	Time
NOTES	NOTES	1	&Notes...
	
PSTAT	PSTAT	REF600-11020	Potentiostat
VDC	POTEN	0.00000E+000	T	DC &Voltage (V)
FREQINIT	QUANT	1.00000E+006	Initial Fre&q. (Hz)
FREQFINAL	QUANT	1.00000E+000	Final Fre&q. (Hz)
PTSPERDEC	QUANT	1.00000E+001	Points/&decade
VAC	QUANT	2.50000E+001	AC &Voltage (mV rms)
AREA	QUANT	4.00000E-004	&Area (cm^2)
CONDIT	TWOPARAM	F	5.00000E+000	0.00000E+000	Conditionin&g	Time(s)	E(V)
DELAY	TWOPARAM	F	3.00000E+000	0.00000E+000	Init. De&lay	Time(s)	Stab.(mV/s)
SPEED	SELECTOR	0	&Optimize for:
ZGUESS	QUANT	1.00000E+003	E&stimated Z (ohms)
OCVCURVE	TABLE	39
	Pt	T	Vf	Vm	Ach	Over
	#	s	V vs. Ref.	V	V	bits
	0	0.258333	9.07348E-002	9.07348E-002	5.03384E-004	...........
	1	0.516667	9.07345E-002	9.07198E-002	5.03050E-004	...........
	2	0.775	9.07329E-002	9.07163E-002	5.02050E-004	...........
	3	1.03333	9.07287E-002	9.06853E-002	5.05284E-004	...........
	4	1.29167	9.07208E-002	9.06906E-002	5.06150E-004	...........
	5	1.55	9.07101E-002	9.06886E-002	5.07583E-004	...........
	6	1.80833	9.06995E-002	9.06701E-002	5.04050E-004	...........
	7	2.06667	9.06904E-002	9.06552E-002	5.05284E-004	...........
	8	2.325	9.06812E-002	9.06373E-002	5.08684E-004	...........
	9	2.58333	9.06696E-002	9.06248E-002	5.08150E-004	...........
	10	2.84167	9.06556E-002	9.06058E-002	5.10717E-004	...........
	11	3.1	9.06403E-002	9.05899E-002	5.10484E-004	...........
	12	3.35833	9.06242E-002	9.05740E-002	5.08784E-004	...........
	13	3.61667	9.06079E-002	9.05611E-002	5.10684E-004	...........
	14	3.875	9.05919E-002	9.05477E-002	5.06284E-004	...........
	15	4.13333	9.05768E-002	9.05355E-002	5.05184E-004	...........
	16	4.39167	9.05625E-002	9.05189E-002	5.06050E-004	...........
	17	4.65	9.05488E-002	9.05095E-002	5.06617E-004	...........
	18	4.90833	9.05353E-002	9.04945E-002	5.06650E-004	...........
	19	5.16667	9.05221E-002	9.04816E-002	5.07350E-004	...........
	20	5.425	9.05090E-002	9.04715E-002	5.04917E-004	...........
	21	5.68333	9.04963E-002	9.04611E-002	5.03117E-004	...........
	22	5.94167	9.04840E-002	9.04440E-002	5.09084E-004	...........
	23	6.2	9.04719E-002	9.04341E-002	5.05684E-004	...........
	24	6.45833	9.04597E-002	9.04235E-002	5.06984E-004	...........
	25	6.71667	9.04475E-002	9.04150E-002	5.04817E-004	...........
	26	6.975	9.04358E-002	9.04020E-002	5.05584E-004	...........
	27	7.23333	9.04249E-002	9.03912E-002	5.08183E-004	...........
	28	7.49167	9.04142E-002	9.03828E-002	5.05950E-004	...........
	29	7.75	9.04035E-002	9.03694E-002	5.03117E-004	...........
	30	8.00833	9.03928E-002	9.03570E-002	5.09484E-004	...........
	31	8.26667	9.03817E-002	9.03456E-002	5.05450E-004	...........
	32	8.525	9.03703E-002	9.03390E-002	5.09350E-004	...........
	33	8.78333	9.03591E-002	9.03276E-002	4.97184E-004	...........
	34	9.04167	9.03484E-002	9.03164E-002	5.04884E-004	...........
	35	9.3	9.03382E-002	9.03056E-002	5.04984E-004	...........
	36	9.5583	9.03279E-002	9.02961E-002	5.12484E-004	...........
	37	9.8167	9.03174E-002	9.02816E-002	5.08250E-004	...........
	38	10.075	9.03066E-002	9.02746E-002	5.11050E-004	...........
EOC	QUANT	0.0903066	Open Circuit (V)
PSTATMODEL	IQUANT	4	Pstat Model
PSTATSECTION	LABEL	REF600-11020	Pstat Section
PSTATSERIALNO	LABEL	11020	Pstat Serial Number
CTRLMODE	IQUANT	1	Control Mode
IESTAB	IQUANT	0	I/E Stability
CASPEED	IQUANT	1	Control Amp Speed
CONVENTION	IQUANT	1	Current Convention
ICHRANGE	IQUANT	2	Ich Range
ICHRANGEMODE	TOGGLE	F	Ich Auto Range
ICHOFFSETENABLE	TOGGLE	T	Ich Offset Enable
ICHOFFSET	QUANT	0	Ich Offset (V)
ICHFILTER	IQUANT	3	Ich Filter
VCHRANGE	IQUANT	2	Vch Range
VCHRANGEMODE	TOGGLE	F	Vch Auto Range
VCHOFFSETENABLE	TOGGLE	T	Vch Offset Enable
VCHOFFSET	QUANT	0	Vch Offset (V)
VCHFILTER	IQUANT	3	Vch Filter
ACHRANGE	IQUANT	2	Ach Range
ACHOFFSETENABLE	TOGGLE	F	Ach Offset Enable
ACHOFFSET	QUANT	0	Ach Offset (V)
ACHFILTER	IQUANT	3	Ach Filter
IERANGELOWERLIMIT	IQUANT	1	I/E Range Lower Limit
IERANGEMODE	TOGGLE	F	I/E AutoRange
IERANGE	IQUANT	8	I/E Range
POSFEEDENABLE	TOGGLE	F	Positive Feedback IR Comp
POSFEEDRESISTANCE	QUANT	0	Positive Feedback Resistance (ohm)
ACHSELECT	IQUANT	0	Ach Select
CABLEID	IQUANT	14	Cable ID
DCCALDATE	LABEL	6/26/2020	DC Calibration Date
ACCALDATE	LABEL	6/26/2020	AC Calibration Date
THERMOSELECT	IQUANT	1	Thermo Select
FRAMEWORKVERSION	QUANT	6.33	Framework Version
INSTRUMENTVERSION	LABEL	3.50	Instrument Version
ZCURVE	TABLE
	Pt	Time	Freq	Zreal	Zimag	Zsig	Zmod	Zphz	Idc	Vdc	IERange
	#	s	Hz	ohm	ohm	V	ohm	°	A	V	#
	0	1	1000078	1766.549	-1743.122	1	2481.767	-44.61756	-6.100761E-006	0.0932582	8
	1	2	794390.6	2126.21	-1803.441	1	2788.04	-40.30444	-3.399024E-006	0.0929907	8
	2	2	630984.4	2484.411	-1799.044	1	3067.386	-35.90953	-6.421793E-007	0.0917405	8
	3	2	501234.4	2844.989	-1751.282	1	3340.801	-31.61509	-1.220096E-006	0.0916771	8
	4	3	398109.4	3159.719	-1640.02	1	3559.985	-27.43111	-7.416721E-006	0.0929065	8
	5	3	316265.6	3434.185	-1520.249	1	3755.634	-23.87807	-3.910717E-006	0.0925198	8
	6	3	251203.1	3672.215	-1373.794	1	3920.775	-20.51107	-1.027861E-006	0.0916247	8
	7	4	199546.9	3862.775	-1247.717	1	4059.289	-17.90101	9.145602E-008	0.0915422	8
	8	4	158578.1	4011.759	-1113.147	1	4163.329	-15.50779	-2.112568E-006	0.0924398	8
	9	4	125953.1	4139.492	-990.2	1	4256.277	-13.45283	-2.014534E-006	0.0955678	7
	10	4	100078.1	4261.275	-887.8422	1	4352.784	-11.76927	-1.598381E-006	0.0937241	7
	11	5	79453.13	4348.117	-810.8608	1	4423.078	-10.56349	-1.208826E-006	0.0940607	7
	12	5	63140.62	4427.715	-754.1467	1	4491.481	-9.66609	1.271169E-006	0.0910989	7
	13	5	50203.12	4498.235	-709.994	1	4553.922	-8.969475	7.012667E-007	0.0896944	7
	14	6	39890.62	4556.697	-683.6612	1	4607.698	-8.532691	-8.641169E-007	0.0915505	7
	15	6	31640.63	4614.44	-671.8848	1	4663.098	-8.284326	-1.448675E-006	0.0939434	7
	16	6	25171.88	4680.724	-680.7623	1	4729.969	-8.275051	1.419713E-006	0.0905066	7
	17	7	20015.62	4729.81	-701.2889	1	4781.517	-8.433802	-1.542836E-006	0.0931727	7
	18	7	15890.62	4788.436	-742.778	1	4845.703	-8.817398	-1.209595E-006	0.0940568	7
	19	7	12609.37	4849.327	-803.9933	1	4915.524	-9.413713	-1.54391E-006	0.0931678	7
	20	8	10078.13	4913.481	-881.19	1	4991.873	-10.16741	-8.620745E-007	0.0915483	7
	21	8	8015.625	4987.146	-989.091	1	5084.282	-11.21779	7.322068E-007	0.0922359	7
	22	8	6328.125	5057.863	-1125.332	1	5181.54	-12.54351	-1.292063E-006	0.0924074	7
	23	9	5015.625	5148.332	-1300.294	1	5309.999	-14.17454	1.500127E-008	0.0932048	7
	24	9	3984.375	5244.876	-1508.425	1	5457.478	-16.04522	1.065174E-006	0.0895947	7
	25	9	3170.956	5336.428	-1759.165	1	5618.908	-18.24491	-8.606524E-007	0.0915353	7
	26	10	2527.573	5464.746	-2069.033	1	5843.316	-20.7374	1.419429E-006	0.0905031	7
	27	10	1976.103	5600.881	-2478.934	1	6124.947	-23.87405	7.029247E-007	0.0896883	7
	28	10	1577.524	5755.284	-2937.42	1	6461.558	-27.03916	1.006257E-006	0.091733	7
	29	11	1265.625	5917.951	-3483.355	1	6867.016	-30.48142	-4.480696E-007	0.0936802	7
	30	11	998.264	6132.785	-4198.61	1	7432.32	-34.39621	-8.599166E-007	0.0939517	7
	31	11	796.875	6388.002	-5036.016	1	8134.373	-38.25067	1.007771E-006	0.0917236	7
	32	12	627.7902	6700.289	-6114.209	1	9070.69	-42.38137	1.420002E-006	0.0904959	7
	33	12	505.5147	7027.364	-7300.248	1	10132.99	-46.09113	2.349015E-007	0.0900379	7
	34	13	397.9953	7511.346	-8888.213	1	11637.04	-49.79916	2.775513E-010	0.0919039	6
	35	13	315.5048	8088.542	-10771.08	1	13469.99	-53.09529	7.812203E-010	0.0918997	6
	36	13	252.4038	8785.593	-12956.51	1	15654.32	-55.85946	-5.598633E-012	0.0918913	6
	37	14	198.6229	9739.46	-15791.96	1	18553.79	-58.33641	7.636426E-010	0.0918877	6
	38	14	158.3615	10899.7	-19017.13	1	21919.28	-60.18075	5.76961E-010	0.0918805	6
	39	14	125.558	12428.66	-22975.56	1	26121.79	-61.58878	8.090304E-010	0.0918843	6
	40	15	100.4464	14324.65	-27472.49	1	30982.79	-62.46165	6.033362E-010	0.0918829	6
	41	15	79.00281	16991.4	-33188.26	1	37284.96	-62.88891	8.507967E-010	0.0918861	6
	42	15	63.3446	20107.87	-39548.28	1	44366.57	-63.04946	4.627733E-010	0.0918821	6
	43	16	49.86702	24463.76	-47178.44	1	53143.96	-62.5916	4.354961E-010	0.0918753	6
	44	16	39.72458	29869.62	-55409.27	1	62947.45	-61.67211	-6.845724E-010	0.0918916	6
	45	16	31.6723	36544.04	-64721.2	1	74325.63	-60.54928	-9.156964E-010	0.0918853	6
	46	17	24.93351	45313.38	-75237.72	1	87829.48	-58.94073	6.79915E-010	0.0918927	6
	47	17	19.86229	55216.05	-85969.92	1	102174.6	-57.28851	2.936577E-009	0.0918723	5
	48	17	15.83615	67334.26	-97406.6	1	118414.3	-55.34506	-1.86907E-009	0.091883	5
	49	17	12.40079	81982.86	-109450.3	1	136750	-53.16525	9.835857E-010	0.0918827	5
	50	18	9.93114	95656	-120995	1	154239.6	-51.67089	6.518807E-010	0.0918747	5
	51	18	7.944915	109790	-132971.3	1	172439	-50.45465	-2.020673E-009	0.0918743	5
	52	18	6.317385	126172.2	-146121	1	193056.4	-49.19013	5.664633E-010	0.0918578	5
	53	19	5.008013	142237.8	-161518.9	1	215220.7	-48.632	1.588577E-010	0.0918726	5
	54	20	3.945707	158075.8	-180550.1	1	239971.5	-48.79711	-2.41081E-010	0.0918716	5
	55	21	3.158693	173808.4	-202246.5	1	266670.2	-49.32461	1.441573E-010	0.0918503	5
	56	22	2.504006	190342.1	-230690.9	1	299079.3	-50.4741	2.977577E-010	0.0918625	5
	57	23	1.998082	207462.5	-264307.5	1	336004.7	-51.87063	-3.680087E-011	0.0918254	5
	58	25	1.584686	226926.6	-308713.3	1	383144.3	-53.68142	-4.588805E-011	0.0918168	5
	59	27	1.266892	247813.2	-360299.8	1	437295.4	-55.47992	4.914615E-011	0.0918527	5
	60	29	0.999041	274859.8	-427266.2	1	508039.7	-57.24688	8.839269E-011	0.0918766	5
