EXPLAIN
TAG	EISPOT
TITLE	LABEL	Potentiostatic EIS	Test &Identifier
DATE	LABEL	6/19/2020	Date
TIME	LABEL	16:20:09	Time
NOTES	NOTES	1	&Notes...
	
PSTAT	PSTAT	REF600-10037	Potentiostat
VDC	POTEN	0.00000E+000	T	DC &Voltage (V)
FREQINIT	QUANT	1.00000E+006	Initial Fre&q. (Hz)
FREQFINAL	QUANT	1.00000E+000	Final Fre&q. (Hz)
PTSPERDEC	QUANT	1.00000E+001	Points/&decade
VAC	QUANT	1.00000E+002	AC &Voltage (mV rms)
AREA	QUANT	2.50000E-001	&Area (cm^2)
CONDIT	TWOPARAM	F	5.00000E+000	0.00000E+000	Conditionin&g	Time(s)	E(V)
DELAY	TWOPARAM	F	5.00000E+000	0.00000E+000	Init. De&lay	Time(s)	Stab.(mV/s)
SPEED	SELECTOR	0	&Optimize for:
ZGUESS	QUANT	1.00000E+003	E&stimated Z (ohms)
OCVCURVE	TABLE	39
	Pt	T	Vf	Vm	Ach	Over
	#	s	V vs. Ref.	V	V	bits
	0	0.258333	1.93746E-001	1.93746E-001	5.17954E-004	...........
	1	0.516667	1.93746E-001	1.93730E-001	5.17621E-004	...........
	2	0.775	1.93743E-001	1.93694E-001	5.20054E-004	...........
	3	1.03333	1.93736E-001	1.93681E-001	5.23821E-004	...........
	4	1.29167	1.93722E-001	1.93662E-001	5.23888E-004	...........
	5	1.55	1.93703E-001	1.93633E-001	5.26321E-004	...........
	6	1.80833	1.93682E-001	1.93602E-001	5.22854E-004	...........
	7	2.06667	1.93659E-001	1.93586E-001	5.21654E-004	...........
	8	2.325	1.93634E-001	1.93571E-001	5.24687E-004	...........
	9	2.58333	1.93611E-001	1.93538E-001	5.18054E-004	...........
	10	2.84167	1.93588E-001	1.93522E-001	5.21321E-004	...........
	11	3.1	1.93567E-001	1.93504E-001	5.21988E-004	...........
	12	3.35833	1.93545E-001	1.93487E-001	5.20254E-004	...........
	13	3.61667	1.93524E-001	1.93448E-001	5.24087E-004	...........
	14	3.875	1.93503E-001	1.93432E-001	5.20087E-004	...........
	15	4.13333	1.93481E-001	1.93416E-001	5.22354E-004	...........
	16	4.39167	1.93458E-001	1.93392E-001	5.19054E-004	...........
	17	4.65	1.93436E-001	1.93361E-001	5.19288E-004	...........
	18	4.90833	1.93414E-001	1.93345E-001	5.24154E-004	...........
	19	5.16667	1.93391E-001	1.93337E-001	5.32387E-004	...........
	20	5.425	1.93370E-001	1.93316E-001	5.28187E-004	...........
	21	5.68333	1.93350E-001	1.93280E-001	5.25421E-004	...........
	22	5.94167	1.93332E-001	1.93266E-001	5.17121E-004	...........
	23	6.2	1.93311E-001	1.93256E-001	5.24254E-004	...........
	24	6.45833	1.93290E-001	1.93221E-001	5.19054E-004	...........
	25	6.71667	1.93270E-001	1.93203E-001	5.18854E-004	...........
	26	6.975	1.93249E-001	1.93185E-001	5.17054E-004	...........
	27	7.23333	1.93227E-001	1.93156E-001	5.19854E-004	...........
	28	7.49167	1.93205E-001	1.93136E-001	5.23021E-004	...........
	29	7.75	1.93183E-001	1.93115E-001	5.18521E-004	...........
	30	8.00833	1.93161E-001	1.93097E-001	5.20621E-004	...........
	31	8.26667	1.93139E-001	1.93075E-001	5.16154E-004	...........
	32	8.525	1.93118E-001	1.93056E-001	5.19687E-004	...........
	33	8.78333	1.93097E-001	1.93036E-001	5.20087E-004	...........
	34	9.04167	1.93078E-001	1.93019E-001	5.17988E-004	...........
	35	9.3	1.93058E-001	1.93001E-001	5.18821E-004	...........
	36	9.5583	1.93039E-001	1.92977E-001	5.18321E-004	...........
	37	9.8167	1.93020E-001	1.92959E-001	5.20387E-004	...........
	38	10.075	1.93000E-001	1.92941E-001	5.20488E-004	...........
EOC	QUANT	0.1930003	Open Circuit (V)
PSTATMODEL	IQUANT	4	Pstat Model
PSTATSECTION	LABEL	REF600-10037	Pstat Section
PSTATSERIALNO	LABEL	10037	Pstat Serial Number
CTRLMODE	IQUANT	1	Control Mode
IESTAB	IQUANT	0	I/E Stability
CASPEED	IQUANT	1	Control Amp Speed
CONVENTION	IQUANT	1	Current Convention
ICHRANGE	IQUANT	2	Ich Range
ICHRANGEMODE	TOGGLE	F	Ich Auto Range
ICHOFFSETENABLE	TOGGLE	T	Ich Offset Enable
ICHOFFSET	QUANT	0	Ich Offset (V)
ICHFILTER	IQUANT	3	Ich Filter
VCHRANGE	IQUANT	2	Vch Range
VCHRANGEMODE	TOGGLE	F	Vch Auto Range
VCHOFFSETENABLE	TOGGLE	T	Vch Offset Enable
VCHOFFSET	QUANT	0	Vch Offset (V)
VCHFILTER	IQUANT	3	Vch Filter
ACHRANGE	IQUANT	2	Ach Range
ACHOFFSETENABLE	TOGGLE	F	Ach Offset Enable
ACHOFFSET	QUANT	0	Ach Offset (V)
ACHFILTER	IQUANT	3	Ach Filter
IERANGELOWERLIMIT	IQUANT	1	I/E Range Lower Limit
IERANGEMODE	TOGGLE	F	I/E AutoRange
IERANGE	IQUANT	8	I/E Range
POSFEEDENABLE	TOGGLE	F	Positive Feedback IR Comp
POSFEEDRESISTANCE	QUANT	0	Positive Feedback Resistance (ohm)
ACHSELECT	IQUANT	0	Ach Select
CABLEID	IQUANT	14	Cable ID
DCCALDATE	LABEL	6/8/2020	DC Calibration Date
ACCALDATE	LABEL	6/8/2020	AC Calibration Date
THERMOSELECT	IQUANT	1	Thermo Select
FRAMEWORKVERSION	QUANT	6.33	Framework Version
INSTRUMENTVERSION	LABEL	3.50	Instrument Version
ZCURVE	TABLE
	Pt	Time	Freq	Zreal	Zimag	Zsig	Zmod	Zphz	Idc	Vdc	IERange
	#	s	Hz	ohm	ohm	V	ohm	°	A	V	#
	0	2	1000078	1757.153	-1409.353	1	2252.524	-38.73192	5.305587E-008	0.2017623	8
	1	3	794390.6	1963.892	-1501.304	1	2472	-37.39622	6.255707E-008	0.2014959	8
	2	3	630984.4	2170.039	-1614.889	1	2704.984	-36.6557	7.102859E-007	0.2013363	9
	3	3	501234.4	2408.117	-1706.085	1	2951.229	-35.31653	8.626496E-008	0.2012551	8
	4	4	398109.4	2650.965	-1821.643	1	3216.52	-34.49537	6.617883E-008	0.2012215	8
	5	4	316265.6	2910.18	-1946.53	1	3501.16	-33.77735	1.181886E-007	0.2012237	8
	6	4	251203.1	3194.295	-2084.701	1	3814.381	-33.12978	5.57742E-008	0.2012423	8
	7	5	199546.9	3503.838	-2217.904	1	4146.803	-32.33352	6.35933E-008	0.2012615	8
	8	5	158578.1	3838.25	-2360.747	1	4506.14	-31.59393	5.89427E-008	0.2013115	8
	9	5	125953.1	4266.64	-2438.458	1	4914.294	-29.7487	1.521903E-008	0.2013325	7
	10	6	100078.1	4656.224	-2569.408	1	5318.109	-28.89089	1.954171E-008	0.201294	7
	11	6	79453.13	5050.188	-2728.927	1	5740.335	-28.38508	2.310939E-008	0.2012674	7
	12	6	63140.62	5469.935	-2873.115	1	6178.59	-27.71096	8.49173E-009	0.2012469	7
	13	6	50203.12	5920.188	-3020.397	1	6646.158	-27.03004	7.790067E-009	0.2012334	7
	14	7	39890.62	6402.302	-3151.122	1	7135.758	-26.20576	2.250198E-009	0.2012215	7
	15	7	31640.63	6921.12	-3274.982	1	7656.854	-25.32289	6.31494E-009	0.2012213	7
	16	7	25171.88	7475.755	-3405.124	1	8214.729	-24.48874	1.793677E-008	0.201209	7
	17	8	20015.62	8034.32	-3452.82	1	8744.842	-23.25604	-1.750783E-010	0.2012195	7
	18	8	15890.62	8620.369	-3486.217	1	9298.628	-22.01921	7.500926E-009	0.2012237	7
	19	8	12609.37	9205.22	-3473.277	1	9838.68	-20.67229	1.083419E-008	0.2012226	7
	20	9	10078.13	9770.71	-3428.384	1	10354.73	-19.33516	5.692862E-009	0.2012184	7
	21	9	8015.625	10310.54	-3335.815	1	10836.74	-17.92817	1.790858E-008	0.201227	7
	22	9	6328.125	10845	-3222.579	1	11313.66	-16.54926	1.326611E-009	0.2012155	7
	23	10	5015.625	11303.46	-3082.409	1	11716.21	-15.25346	4.875545E-009	0.2012196	7
	24	10	3984.375	11738.89	-2970.438	1	12108.89	-14.20019	1.160454E-008	0.2012252	7
	25	10	3170.956	12120.66	-2873.015	1	12456.5	-13.33497	1.312664E-008	0.2012051	7
	26	11	2527.573	12385.44	-2776.891	1	12692.92	-12.63708	2.308007E-009	0.2012201	7
	27	11	1976.103	12644.12	-2745.298	1	12938.71	-12.24996	3.125266E-009	0.2012227	7
	28	11	1577.524	12855.75	-2790.199	1	13155.05	-12.2455	2.059541E-009	0.2012188	7
	29	12	1265.625	13024.94	-2901.896	1	13344.29	-12.56009	1.435651E-008	0.2012249	7
	30	12	998.264	13228.07	-3131.65	1	13593.72	-13.31914	7.895067E-009	0.20122	7
	31	12	796.875	13400.57	-3449.568	1	13837.44	-14.43564	1.486592E-008	0.2012184	7
	32	13	627.7902	13567.48	-3907.509	1	14118.97	-16.06669	1.121552E-009	0.2012065	7
	33	13	505.5147	13738.09	-4458.734	1	14443.53	-17.98098	6.814833E-009	0.2012203	7
	34	13	397.9953	13980.23	-5272.195	1	14941.32	-20.66236	1.263014E-008	0.2012251	7
	35	13	315.5048	14166.46	-6165.596	1	15450.02	-23.51987	3.448162E-009	0.201236	7
	36	14	252.4038	14397.54	-7290.171	1	16138.02	-26.8553	6.105159E-009	0.2012394	7
	37	14	198.6229	14777.96	-8790.588	1	17194.84	-30.74606	4.911647E-009	0.2012384	7
	38	14	158.3615	15185.95	-10517.49	1	18472.43	-34.7057	5.705833E-009	0.2012397	7
	39	15	125.558	15804.92	-12676.59	1	20260.59	-38.7319	5.950429E-009	0.2012366	7
	40	15	100.4464	16575.34	-15176.07	1	22473.43	-42.47665	4.574012E-009	0.2012387	7
	41	15	79.00281	17649.73	-18401	1	25497.25	-46.19383	5.788105E-009	0.2012364	7
	42	16	63.3446	18945.66	-21952.72	1	28997.59	-49.20512	6.104143E-009	0.2012374	7
	43	16	49.86702	20880.54	-26690.48	1	33887.74	-51.96316	7.236116E-009	0.2012213	7
	44	17	39.72458	22907.63	-31646.82	1	39067.64	-54.101	1.577572E-009	0.2012415	7
	45	17	31.6723	25603.28	-37608.4	1	45496.37	-55.75351	-5.129713E-010	0.201235	6
	46	18	24.93351	29246.56	-44981.52	1	53653.51	-56.96846	-1.928493E-009	0.2012353	6
	47	18	19.86229	33928.41	-53331.53	1	63209.09	-57.53633	-8.790626E-009	0.1926606	6
	48	18	15.83615	39205.75	-62601.02	1	73864.6	-57.94192	-7.772523E-009	0.1926565	6
	49	19	12.40079	46118.89	-74055.07	1	87241.65	-58.0868	-6.941414E-009	0.1926569	6
	50	19	9.93114	53664.17	-85846.6	1	101239.7	-57.9898	-6.123453E-009	0.1926589	6
	51	19	7.944915	62605.05	-99176.2	1	117283	-57.73779	-5.429531E-009	0.1926595	6
	52	20	6.317385	73259.85	-114409.9	1	135855.2	-57.36744	-3.103032E-009	0.1926618	6
	53	21	5.008013	85556.99	-131824.7	1	157155.2	-57.01559	-2.456797E-009	0.1926625	6
	54	22	3.945707	99797.8	-152067.7	1	181890.5	-56.72422	-1.818471E-009	0.1926611	6
	55	23	3.158693	114466.2	-173560.2	1	207907.8	-56.5944	-1.366441E-009	0.1926665	6
	56	24	2.504006	131397.2	-199467	1	238856.2	-56.62545	-9.821495E-010	0.1926611	6
	57	26	1.998082	148809.8	-228757	1	272899.5	-56.95539	-5.264299E-010	0.192667	6
	58	28	1.584686	168148.5	-264642.8	1	313543.8	-57.56898	-2.947018E-010	0.1926666	6
	59	31	1.266892	188436.8	-306142.8	1	359488.3	-58.38691	-1.491351E-010	0.1926642	6
	60	34	0.999041	212000	-359281.4	1	417165.6	-59.45656	-4.980233E-010	0.1926708	5
