EXPLAIN
TAG	EISPOT
TITLE	LABEL	Potentiostatic EIS	Test &Identifier
DATE	LABEL	2/6/2020	Date
TIME	LABEL	17:58:19	Time
NOTES	NOTES	6	&Notes...
	
	
	
	
	
	
PSTAT	PSTAT	REF600-11020	Potentiostat
VDC	POTEN	0.00000E+000	T	DC &Voltage (V)
FREQINIT	QUANT	1.00000E+006	Initial Fre&q. (Hz)
FREQFINAL	QUANT	1.00000E+000	Final Fre&q. (Hz)
PTSPERDEC	QUANT	1.00000E+001	Points/&decade
VAC	QUANT	2.50000E+001	AC &Voltage (mV rms)
AREA	QUANT	1.60000E-004	&Area (cm^2)
CONDIT	TWOPARAM	F	5.00000E+000	0.00000E+000	Conditionin&g	Time(s)	E(V)
DELAY	TWOPARAM	F	5.00000E+000	0.00000E+000	Init. De&lay	Time(s)	Stab.(mV/s)
SPEED	SELECTOR	0	&Optimize for:
ZGUESS	QUANT	1.00000E+003	E&stimated Z (ohms)
OCVCURVE	TABLE	39
	Pt	T	Vf	Vm	Ach	Over
	#	s	V vs. Ref.	V	V	bits
	0	0.258333	-2.75733E-002	-2.75733E-002	5.70504E-004	...........
	1	0.516667	-2.75725E-002	-2.75348E-002	5.70871E-004	...........
	2	0.775	-2.75681E-002	-2.75040E-002	5.74671E-004	...........
	3	1.03333	-2.75562E-002	-2.74832E-002	5.74038E-004	...........
	4	1.29167	-2.75363E-002	-2.74623E-002	5.73571E-004	...........
	5	1.55	-2.75121E-002	-2.74454E-002	5.74904E-004	...........
	6	1.80833	-2.74880E-002	-2.74209E-002	5.73371E-004	...........
	7	2.06667	-2.74656E-002	-2.74047E-002	5.69071E-004	...........
	8	2.325	-2.74449E-002	-2.73926E-002	5.68804E-004	...........
	9	2.58333	-2.74258E-002	-2.73800E-002	5.74437E-004	...........
	10	2.84167	-2.74088E-002	-2.73632E-002	5.73471E-004	...........
	11	3.1	-2.73937E-002	-2.73509E-002	5.80637E-004	...........
	12	3.35833	-2.73795E-002	-2.73435E-002	5.79137E-004	...........
	13	3.61667	-2.73662E-002	-2.73288E-002	5.78371E-004	...........
	14	3.875	-2.73539E-002	-2.73235E-002	5.78471E-004	...........
	15	4.13333	-2.73427E-002	-2.73126E-002	5.79037E-004	...........
	16	4.39167	-2.73325E-002	-2.73065E-002	5.73104E-004	...........
	17	4.65	-2.73231E-002	-2.72916E-002	5.66371E-004	...........
	18	4.90833	-2.73140E-002	-2.72922E-002	5.69571E-004	...........
	19	5.16667	-2.73055E-002	-2.72935E-002	5.73238E-004	...........
	20	5.425	-2.72997E-002	-2.73408E-002	5.72838E-004	...........
	21	5.68333	-2.73021E-002	-2.74339E-002	5.71938E-004	...........
	22	5.94167	-2.73178E-002	-2.73033E-002	5.71571E-004	...........
	23	6.2	-2.73384E-002	-2.73110E-002	5.70838E-004	...........
	24	6.45833	-2.73468E-002	-2.73002E-002	5.76338E-004	...........
	25	6.71667	-2.73381E-002	-2.73112E-002	5.82171E-004	...........
	26	6.975	-2.73234E-002	-2.73151E-002	5.74471E-004	...........
	27	7.23333	-2.73130E-002	-2.72961E-002	5.81104E-004	...........
	28	7.49167	-2.73081E-002	-2.72928E-002	5.80804E-004	...........
	29	7.75	-2.73046E-002	-2.72853E-002	5.70804E-004	...........
	30	8.00833	-2.72998E-002	-2.72918E-002	5.74671E-004	...........
	31	8.26667	-2.72949E-002	-2.72945E-002	5.72704E-004	...........
	32	8.525	-2.72915E-002	-2.72745E-002	5.73771E-004	...........
	33	8.78333	-2.72892E-002	-2.72749E-002	5.75704E-004	...........
	34	9.04167	-2.72857E-002	-2.72710E-002	5.73571E-004	...........
	35	9.3	-2.72807E-002	-2.72578E-002	5.71504E-004	...........
	36	9.5583	-2.72753E-002	-2.72813E-002	5.73004E-004	...........
	37	9.8167	-2.72715E-002	-2.72817E-002	5.70204E-004	...........
	38	10.075	-2.72714E-002	-2.72820E-002	5.67838E-004	...........
EOC	QUANT	-0.0272714	Open Circuit (V)
PSTATMODEL	IQUANT	4	Pstat Model
PSTATSECTION	LABEL	REF600-11020	Pstat Section
PSTATSERIALNO	LABEL	11020	Pstat Serial Number
CTRLMODE	IQUANT	1	Control Mode
IESTAB	IQUANT	0	I/E Stability
CASPEED	IQUANT	1	Control Amp Speed
CONVENTION	IQUANT	1	Current Convention
ICHRANGE	IQUANT	2	Ich Range
ICHRANGEMODE	TOGGLE	F	Ich Auto Range
ICHOFFSETENABLE	TOGGLE	T	Ich Offset Enable
ICHOFFSET	QUANT	0	Ich Offset (V)
ICHFILTER	IQUANT	3	Ich Filter
VCHRANGE	IQUANT	2	Vch Range
VCHRANGEMODE	TOGGLE	F	Vch Auto Range
VCHOFFSETENABLE	TOGGLE	T	Vch Offset Enable
VCHOFFSET	QUANT	0	Vch Offset (V)
VCHFILTER	IQUANT	3	Vch Filter
ACHRANGE	IQUANT	2	Ach Range
ACHOFFSETENABLE	TOGGLE	F	Ach Offset Enable
ACHOFFSET	QUANT	0	Ach Offset (V)
ACHFILTER	IQUANT	3	Ach Filter
IERANGELOWERLIMIT	IQUANT	1	I/E Range Lower Limit
IERANGEMODE	TOGGLE	F	I/E AutoRange
IERANGE	IQUANT	7	I/E Range
POSFEEDENABLE	TOGGLE	F	Positive Feedback IR Comp
POSFEEDRESISTANCE	QUANT	0	Positive Feedback Resistance (ohm)
ACHSELECT	IQUANT	0	Ach Select
CABLEID	IQUANT	14	Cable ID
DCCALDATE	LABEL	1/27/2020	DC Calibration Date
ACCALDATE	LABEL	1/27/2020	AC Calibration Date
THERMOSELECT	IQUANT	1	Thermo Select
FRAMEWORKVERSION	QUANT	6.33	Framework Version
INSTRUMENTVERSION	LABEL	3.50	Instrument Version
ZCURVE	TABLE
	Pt	Time	Freq	Zreal	Zimag	Zsig	Zmod	Zphz	Idc	Vdc	IERange
	#	s	Hz	ohm	ohm	V	ohm	°	A	V	#
	0	1	1000078	2296.873	-2175.374	1	3163.522	-43.44381	-3.972911E-007	-0.0253995	8
	1	1	794390.6	2772.57	-2227.142	1	3556.305	-38.77411	2.926668E-006	-0.02587	8
	2	2	630984.4	3220.51	-2202.051	1	3901.373	-34.36269	-8.46187E-007	-0.0255597	8
	3	2	501234.4	3644.04	-2090.574	1	4201.133	-29.84275	2.448791E-006	-0.0259774	8
	4	2	398109.4	4028.542	-1934.013	1	4468.731	-25.64462	4.639495E-007	-0.0257172	8
	5	3	316265.6	4321.994	-1750.038	1	4662.86	-22.04374	6.162616E-007	-0.0257409	8
	6	3	251203.1	4570.437	-1541.336	1	4823.34	-18.63618	-1.706289E-007	-0.025588	8
	7	3	199546.9	4783.574	-1366.525	1	4974.934	-15.94306	5.497845E-007	-0.0257633	8
	8	4	158578.1	4923.812	-1220.156	1	5072.741	-13.91793	-1.420273E-007	-0.0255916	8
	9	4	125953.1	5077.759	-1040.427	1	5183.254	-11.57957	9.013034E-008	-0.0258139	7
	10	4	100078.1	5174.564	-938.5795	1	5258.997	-10.28072	-3.377571E-008	-0.025567	7
	11	5	79453.13	5255.761	-866.1702	1	5326.657	-9.358449	2.800615E-008	-0.0257777	7
	12	5	63140.62	5329.623	-815.2758	1	5391.619	-8.697152	-2.031295E-008	-0.0256342	7
	13	5	50203.12	5398.035	-785.7157	1	5454.918	-8.281579	-1.601391E-008	-0.0257098	7
	14	6	39890.62	5464.667	-776.6118	1	5519.575	-8.088434	3.494772E-008	-0.025747	7
	15	6	31640.63	5531.969	-787.3643	1	5587.721	-8.100493	6.476657E-009	-0.02574	7
	16	6	25171.88	5599.505	-817.7291	1	5658.899	-8.308513	-1.877055E-008	-0.0256415	7
	17	6	20015.62	5672.518	-866.4427	1	5738.308	-8.684461	5.410032E-008	-0.0258146	7
	18	7	15890.62	5749.123	-936.9203	1	5824.967	-9.255982	-2.933135E-008	-0.0255926	7
	19	7	12609.37	5834.05	-1031.753	1	5924.581	-10.02907	6.253181E-009	-0.0257445	7
	20	7	10078.13	5926.898	-1148.856	1	6037.217	-10.97004	5.065119E-008	-0.0257876	7
	21	8	8015.625	6022.794	-1289.953	1	6159.385	-12.08888	5.118548E-008	-0.025791	7
	22	8	6328.125	6136.922	-1472.593	1	6311.129	-13.49336	2.817126E-008	-0.0257989	7
	23	8	5015.625	6264.352	-1692.274	1	6488.906	-15.11724	5.045101E-008	-0.0257906	7
	24	9	3984.375	6400.923	-1953.13	1	6692.274	-16.96865	-2.716004E-008	-0.0256859	7
	25	9	3170.956	6558.62	-2266.87	1	6939.322	-19.0668	6.057363E-008	-0.0257546	7
	26	9	2527.573	6734.52	-2637.522	1	7232.584	-21.38741	-6.89962E-009	-0.0256989	7
	27	10	1976.103	6948.827	-3127.562	1	7620.226	-24.23179	4.899096E-008	-0.025798	7
	28	10	1577.524	7172.605	-3668.122	1	8056.139	-27.08553	5.922002E-008	-0.0257583	7
	29	10	1265.625	7417.384	-4297.314	1	8572.311	-30.08616	6.091899E-008	-0.0257611	7
	30	11	998.264	7727.899	-5113.147	1	9266.321	-33.49052	3.609714E-008	-0.0257601	7
	31	11	796.875	8064.781	-6052.391	1	10083.26	-36.8872	2.55744E-010	-0.0256528	6
	32	11	627.7902	8473.653	-7264.664	1	11161.46	-40.60727	-1.340323E-009	-0.0256556	6
	33	12	505.5147	8906.035	-8593.306	1	12375.88	-43.97618	-1.496009E-009	-0.0257873	6
	34	12	397.9953	9459.423	-10372.71	1	14038.3	-47.63667	4.470292E-010	-0.0257045	6
	35	12	315.5048	10102.1	-12484.31	1	16059.59	-51.0208	3.264475E-010	-0.0257091	6
	36	12	252.4038	10839.73	-14941.29	1	18459.2	-54.03958	6.477806E-010	-0.025713	6
	37	13	198.6229	11807.18	-18152.99	1	21655.04	-56.95896	6.88602E-010	-0.0257131	6
	38	13	158.3615	12924.28	-21841.13	1	25378.58	-59.38548	2.754385E-010	-0.0257104	6
	39	13	125.558	14339.73	-26408.12	1	30050.24	-61.49784	6.125095E-010	-0.0257084	6
	40	14	100.4464	16058.5	-31721.99	1	35555.02	-63.15028	1.138046E-009	-0.0257092	6
	41	14	79.00281	18285.57	-38644.17	1	42752.01	-64.67751	1.182025E-009	-0.025711	6
	42	14	63.3446	20759.83	-45758.13	1	50247.16	-65.59687	3.753601E-010	-0.0257116	6
	43	15	49.86702	24397.34	-55692.95	1	60802.42	-66.34328	1.701788E-010	-0.0257139	6
	44	15	39.72458	28621.7	-67235.87	1	73074.37	-66.94099	9.427963E-010	-0.0257133	6
	45	16	31.6723	33713.16	-80663.2	1	87424.98	-67.31752	5.770438E-010	-0.0257146	6
	46	16	24.93351	41191.42	-97465.6	1	105812.4	-67.08985	-3.689485E-010	-0.0257191	5
	47	16	19.86229	49818.99	-116197.4	1	126426.9	-66.79304	-3.751981E-010	-0.0257141	5
	48	16	15.83615	60321.82	-139477.8	1	151963.1	-66.61233	3.04788E-010	-0.0257229	5
	49	17	12.40079	77678.41	-166100.8	1	183366.9	-64.93648	-7.64894E-011	-0.0257211	5
	50	17	9.93114	94456.64	-194601.6	1	216314.2	-64.10877	5.573384E-010	-0.0257251	5
	51	18	7.944915	116661.8	-226867.5	1	255105.5	-62.78648	-2.983024E-010	-0.0257161	5
	52	18	6.317385	145197.7	-263119.3	1	300523.1	-61.10867	-2.509934E-010	-0.0257145	5
	53	19	5.008013	180512.5	-302698.6	1	352436.1	-59.19051	1.145247E-010	-0.0257215	5
	54	20	3.945707	222625.4	-346657.6	1	411987.3	-57.2912	-1.920728E-010	-0.0257307	5
	55	22	3.158693	268284	-388141.4	1	471836.9	-55.3477	1.758642E-010	-0.0257358	5
	56	23	2.504006	319823.7	-433651.1	1	538832.6	-53.59071	2.248255E-010	-0.0257303	5
	57	24	1.998082	374413.5	-479467.3	1	608337.3	-52.0139	-6.242974E-011	-0.0257757	5
	58	26	1.584686	431043.4	-532262.8	1	684910.3	-50.99834	-4.514466E-011	-0.0257621	5
	59	28	1.266892	487761.6	-587656.9	1	763709.4	-50.30696	4.267366E-011	-0.0257219	5
	60	30	0.999041	550982.8	-657280.6	1	857671.2	-50.02769	1.043559E-010	-0.0256999	5
