EXPLAIN
TAG	EISPOT
TITLE	LABEL	Potentiostatic EIS	Test &Identifier
DATE	LABEL	6/26/2020	Date
TIME	LABEL	13:49:44	Time
NOTES	NOTES	1	&Notes...
	
PSTAT	PSTAT	REF600-11020	Potentiostat
VDC	POTEN	0.00000E+000	T	DC &Voltage (V)
FREQINIT	QUANT	1.00000E+006	Initial Fre&q. (Hz)
FREQFINAL	QUANT	1.00000E+000	Final Fre&q. (Hz)
PTSPERDEC	QUANT	1.00000E+001	Points/&decade
VAC	QUANT	2.50000E+001	AC &Voltage (mV rms)
AREA	QUANT	4.00000E-004	&Area (cm^2)
CONDIT	TWOPARAM	F	5.00000E+000	0.00000E+000	Conditionin&g	Time(s)	E(V)
DELAY	TWOPARAM	F	3.00000E+000	0.00000E+000	Init. De&lay	Time(s)	Stab.(mV/s)
SPEED	SELECTOR	0	&Optimize for:
ZGUESS	QUANT	1.00000E+003	E&stimated Z (ohms)
OCVCURVE	TABLE	39
	Pt	T	Vf	Vm	Ach	Over
	#	s	V vs. Ref.	V	V	bits
	0	0.258333	1.01345E-001	1.01345E-001	5.22183E-004	...........
	1	0.516667	1.01345E-001	1.01351E-001	5.22317E-004	...........
	2	0.775	1.01346E-001	1.01353E-001	5.20583E-004	...........
	3	1.03333	1.01347E-001	1.01363E-001	5.18083E-004	...........
	4	1.29167	1.01351E-001	1.01367E-001	5.26683E-004	...........
	5	1.55	1.01355E-001	1.01372E-001	5.22017E-004	...........
	6	1.80833	1.01361E-001	1.01379E-001	5.20217E-004	...........
	7	2.06667	1.01367E-001	1.01385E-001	5.24017E-004	...........
	8	2.325	1.01372E-001	1.01389E-001	5.26983E-004	...........
	9	2.58333	1.01378E-001	1.01396E-001	5.22350E-004	...........
	10	2.84167	1.01384E-001	1.01399E-001	5.27083E-004	...........
	11	3.1	1.01389E-001	1.01407E-001	5.23683E-004	...........
	12	3.35833	1.01395E-001	1.01413E-001	5.21217E-004	...........
	13	3.61667	1.01400E-001	1.01416E-001	5.24417E-004	...........
	14	3.875	1.01406E-001	1.01424E-001	5.22250E-004	...........
	15	4.13333	1.01412E-001	1.01434E-001	5.18450E-004	...........
	16	4.39167	1.01418E-001	1.01443E-001	5.23817E-004	...........
	17	4.65	1.01425E-001	1.01441E-001	5.23183E-004	...........
	18	4.90833	1.01432E-001	1.01448E-001	5.19883E-004	...........
	19	5.16667	1.01438E-001	1.01452E-001	5.14650E-004	...........
	20	5.425	1.01443E-001	1.01458E-001	5.23183E-004	...........
	21	5.68333	1.01447E-001	1.01463E-001	5.21517E-004	...........
	22	5.94167	1.01452E-001	1.01465E-001	5.17350E-004	...........
	23	6.2	1.01457E-001	1.01477E-001	5.19283E-004	...........
	24	6.45833	1.01462E-001	1.01479E-001	5.20883E-004	...........
	25	6.71667	1.01468E-001	1.01487E-001	5.17817E-004	...........
	26	6.975	1.01474E-001	1.01490E-001	5.22883E-004	...........
	27	7.23333	1.01480E-001	1.01498E-001	5.17083E-004	...........
	28	7.49167	1.01485E-001	1.01505E-001	5.20950E-004	...........
	29	7.75	1.01491E-001	1.01512E-001	5.18750E-004	...........
	30	8.00833	1.01498E-001	1.01516E-001	5.13450E-004	...........
	31	8.26667	1.01504E-001	1.01523E-001	5.18617E-004	...........
	32	8.525	1.01510E-001	1.01528E-001	5.19683E-004	...........
	33	8.78333	1.01516E-001	1.01534E-001	5.21717E-004	...........
	34	9.04167	1.01522E-001	1.01540E-001	5.21483E-004	...........
	35	9.3	1.01528E-001	1.01544E-001	5.22617E-004	...........
	36	9.5583	1.01534E-001	1.01552E-001	5.19650E-004	...........
	37	9.8167	1.01539E-001	1.01555E-001	5.23817E-004	...........
	38	10.075	1.01545E-001	1.01562E-001	5.25683E-004	...........
EOC	QUANT	0.1015448	Open Circuit (V)
PSTATMODEL	IQUANT	4	Pstat Model
PSTATSECTION	LABEL	REF600-11020	Pstat Section
PSTATSERIALNO	LABEL	11020	Pstat Serial Number
CTRLMODE	IQUANT	1	Control Mode
IESTAB	IQUANT	0	I/E Stability
CASPEED	IQUANT	1	Control Amp Speed
CONVENTION	IQUANT	1	Current Convention
ICHRANGE	IQUANT	2	Ich Range
ICHRANGEMODE	TOGGLE	F	Ich Auto Range
ICHOFFSETENABLE	TOGGLE	T	Ich Offset Enable
ICHOFFSET	QUANT	0	Ich Offset (V)
ICHFILTER	IQUANT	3	Ich Filter
VCHRANGE	IQUANT	2	Vch Range
VCHRANGEMODE	TOGGLE	F	Vch Auto Range
VCHOFFSETENABLE	TOGGLE	T	Vch Offset Enable
VCHOFFSET	QUANT	0	Vch Offset (V)
VCHFILTER	IQUANT	3	Vch Filter
ACHRANGE	IQUANT	2	Ach Range
ACHOFFSETENABLE	TOGGLE	F	Ach Offset Enable
ACHOFFSET	QUANT	0	Ach Offset (V)
ACHFILTER	IQUANT	3	Ach Filter
IERANGELOWERLIMIT	IQUANT	1	I/E Range Lower Limit
IERANGEMODE	TOGGLE	F	I/E AutoRange
IERANGE	IQUANT	8	I/E Range
POSFEEDENABLE	TOGGLE	F	Positive Feedback IR Comp
POSFEEDRESISTANCE	QUANT	0	Positive Feedback Resistance (ohm)
ACHSELECT	IQUANT	0	Ach Select
CABLEID	IQUANT	14	Cable ID
DCCALDATE	LABEL	6/26/2020	DC Calibration Date
ACCALDATE	LABEL	6/26/2020	AC Calibration Date
THERMOSELECT	IQUANT	1	Thermo Select
FRAMEWORKVERSION	QUANT	6.33	Framework Version
INSTRUMENTVERSION	LABEL	3.50	Instrument Version
ZCURVE	TABLE
	Pt	Time	Freq	Zreal	Zimag	Zsig	Zmod	Zphz	Idc	Vdc	IERange
	#	s	Hz	ohm	ohm	V	ohm	°	A	V	#
	0	1	1000078	1400.15	-1908.61	1	2367.111	-53.73635	1.012797E-007	0.1040529	8
	1	1	794390.6	1636.729	-2153.101	1	2704.575	-52.75888	2.549125E-008	0.1037025	8
	2	1	630984.4	1897.235	-2425.364	1	3079.268	-51.96579	8.666784E-008	0.1035276	8
	3	2	501234.4	2189.234	-2729.275	1	3498.812	-51.26585	5.127134E-008	0.1034195	8
	4	2	398109.4	2518.945	-3084.227	1	3982.152	-50.76085	5.548302E-008	0.1033618	8
	5	2	316265.6	2888.557	-3479.912	1	4522.56	-50.30508	5.085598E-008	0.1033252	8
	6	3	251203.1	3328.376	-3936.428	1	5154.954	-49.78441	4.918999E-008	0.1033277	8
	7	3	199546.9	3827.191	-4449.484	1	5869.012	-49.29977	7.36513E-008	0.1033178	8
	8	3	158578.1	4408.002	-5026.267	1	6685.345	-48.74945	2.223215E-008	0.1033308	8
	9	4	125953.1	5196.264	-5599.034	1	7638.739	-47.1367	-9.118579E-009	0.103316	7
	10	4	100078.1	6002.971	-6270.332	1	8680.595	-46.24793	1.434535E-008	0.103286	7
	11	4	79453.13	6945.999	-6983.336	1	9849.56	-45.15358	5.098316E-009	0.1032914	7
	12	5	63140.62	8033.394	-7732.716	1	11150.35	-43.90744	4.292106E-009	0.1032712	7
	13	5	50203.12	9286.763	-8442.984	1	12551.01	-42.27529	1.513968E-008	0.1032741	7
	14	5	39890.62	10716.4	-9113.36	1	14067.5	-40.37826	1.30933E-008	0.1032725	7
	15	6	31640.63	12341.16	-9732.5	1	15717.05	-38.26004	-8.406814E-009	0.103283	7
	16	6	25171.88	14078.27	-10220.05	1	17396.76	-35.97757	-4.608013E-009	0.1032732	7
	17	6	20015.62	15919.8	-10509.51	1	19075.89	-33.43094	2.204945E-009	0.1032804	7
	18	6	15890.62	17844	-10641.58	1	20776.23	-30.81048	-7.49045E-010	0.1032765	7
	19	7	12609.37	20001.96	-10379.19	1	22534.55	-27.42518	2.867594E-009	0.1032455	6
	20	7	10078.13	21762.94	-10136.52	1	24007.81	-24.97469	2.382041E-010	0.1032522	6
	21	7	8015.625	23488.82	-9762.69	1	25436.88	-22.5693	9.59703E-010	0.1032449	6
	22	8	6328.125	25119.93	-9226.144	1	26760.65	-20.16747	-2.613854E-010	0.1032598	6
	23	8	5015.625	26593.67	-8633.614	1	27960.02	-17.98598	-7.206574E-010	0.1032794	6
	24	8	3984.375	27874.27	-7997.886	1	28998.98	-16.00963	1.643034E-010	0.1032486	6
	25	9	3170.956	28917.76	-7335.751	1	29833.7	-14.23432	2.433187E-009	0.1032332	6
	26	9	2527.573	29808.08	-6746.117	1	30561.93	-12.75226	1.548701E-009	0.1032396	6
	27	9	1976.103	30538.38	-6173.817	1	31156.2	-11.4292	2.749479E-009	0.1032391	6
	28	10	1577.524	31088.37	-5805.549	1	31625.79	-10.57778	1.834988E-009	0.1032555	6
	29	10	1265.625	31546.09	-5595.29	1	32038.47	-10.05788	-1.276504E-009	0.1032797	6
	30	10	998.264	31931.45	-5561.439	1	32412.14	-9.87999	2.271133E-009	0.1032459	6
	31	11	796.875	32194.21	-5703.983	1	32695.61	-10.04707	-1.114138E-009	0.1032726	6
	32	11	627.7902	32514.62	-6121.479	1	33085.85	-10.66218	5.223343E-012	0.1032509	6
	33	11	505.5147	32804.46	-6709.927	1	33483.67	-11.56	2.278635E-009	0.1032299	6
	34	12	397.9953	33070.91	-7663.941	1	33947.33	-13.04756	9.972583E-010	0.1032811	6
	35	12	315.5048	33434.33	-8915.256	1	34602.55	-14.93051	9.3612E-010	0.1032776	6
	36	12	252.4038	33857.14	-10471.24	1	35439.43	-17.18565	7.638697E-010	0.1032734	6
	37	13	198.6229	34361.14	-12577.64	1	36590.78	-20.10477	8.31652E-010	0.1032753	6
	38	13	158.3615	35031.05	-15071.55	1	38135.63	-23.27901	6.734288E-010	0.1032768	6
	39	13	125.558	35883.95	-18202.38	1	40236.6	-26.89672	7.308992E-010	0.1032787	6
	40	14	100.4464	36946.57	-21867	1	42932.68	-30.61937	7.683024E-010	0.1032758	6
	41	14	79.00281	38425.96	-26635.14	1	46754.52	-34.72795	5.194963E-010	0.1032745	6
	42	14	63.3446	40181.2	-31906.04	1	51308.12	-38.45147	4.540156E-010	0.1032754	6
	43	15	49.86702	42664.62	-38724.52	1	57618.21	-42.22844	3.565749E-010	0.1032685	6
	44	15	39.72458	45732.3	-46436.94	1	65175.4	-45.43802	2.858617E-010	0.103273	6
	45	16	31.6723	49607.5	-55483.54	1	74426.66	-48.20029	2.088452E-010	0.103269	6
	46	16	24.93351	54789.86	-66643.57	1	86274.53	-50.57526	1.041306E-009	0.1032639	6
	47	16	19.86229	60990.47	-78998.01	1	99802.4	-52.33004	1.708529E-009	0.1032697	6
	48	17	15.83615	68958.66	-93296.36	1	116015.1	-53.53057	-7.750456E-010	0.1032552	5
	49	17	12.40079	79469.27	-110533	1	136135.7	-54.28522	1.017077E-009	0.1032523	5
	50	17	9.93114	90839.88	-128559.2	1	157414.6	-54.75498	7.647362E-010	0.1032582	5
	51	18	7.944915	104797.7	-148939.8	1	182114.3	-54.86883	-9.260381E-010	0.1032567	5
	52	18	6.317385	121253.1	-172235.2	1	210635.5	-54.85455	3.087749E-010	0.1032446	5
	53	19	5.008013	140702.7	-198942.8	1	243670.8	-54.73006	5.365004E-010	0.1032542	5
	54	20	3.945707	163884	-229727.7	1	282192.8	-54.49655	-7.482738E-011	0.1032411	5
	55	21	3.158693	188412.7	-262563.9	1	323170.4	-54.33723	3.738244E-010	0.1032567	5
	56	22	2.504006	217611.7	-301130.3	1	371529.7	-54.14626	6.836463E-011	0.10325	5
	57	23	1.998082	250061.8	-344497.1	1	425686.7	-54.02504	-1.196512E-010	0.1032049	5
	58	24	1.584686	287224.8	-393810.9	1	487427	-53.89497	1.729223E-011	0.1032501	5
	59	26	1.266892	329748.5	-448317	1	556526.9	-53.66458	1.339005E-010	0.1032734	5
	60	29	0.999041	380376.1	-515056.2	1	640288.1	-53.55362	1.850327E-010	0.10328	5
