EXPLAIN
TAG	EISPOT
TITLE	LABEL	Potentiostatic EIS	Test &Identifier
DATE	LABEL	1/14/2020	Date
TIME	LABEL	17:41:28	Time
NOTES	NOTES	5	&Notes...
	
	
	
	
	
PSTAT	PSTAT	REF600-11020	Potentiostat
VDC	POTEN	0.00000E+000	T	DC &Voltage (V)
FREQINIT	QUANT	1.00000E+006	Initial Fre&q. (Hz)
FREQFINAL	QUANT	1.00000E+000	Final Fre&q. (Hz)
PTSPERDEC	QUANT	1.00000E+001	Points/&decade
VAC	QUANT	2.50000E+001	AC &Voltage (mV rms)
AREA	QUANT	1.00000E-001	&Area (cm^2)
CONDIT	TWOPARAM	T	5.00000E+000	0.00000E+000	Conditionin&g	Time(s)	E(V)
DELAY	TWOPARAM	T	5.00000E+000	0.00000E+000	Init. De&lay	Time(s)	Stab.(mV/s)
SPEED	SELECTOR	0	&Optimize for:
ZGUESS	QUANT	5.00000E+002	E&stimated Z (ohms)
OCVCURVE	TABLE	19
	Pt	T	Vf	Vm	Ach	Over
	#	s	V vs. Ref.	V	V	bits
	0	0.258333	6.30341E-003	6.30341E-003	6.60079E-004	...........
	1	0.516667	6.30366E-003	6.31614E-003	6.61713E-004	...........
	2	0.775	6.30561E-003	6.35205E-003	6.52546E-004	...........
	3	1.03333	6.31282E-003	6.39655E-003	6.53046E-004	...........
	4	1.29167	6.32972E-003	6.45050E-003	6.55879E-004	...........
	5	1.55	6.35875E-003	6.50502E-003	6.57246E-004	...........
	6	1.80833	6.39913E-003	6.56461E-003	6.52946E-004	...........
	7	2.06667	6.44808E-003	6.62454E-003	6.49580E-004	...........
	8	2.325	6.50252E-003	6.68092E-003	6.58546E-004	...........
	9	2.58333	6.55996E-003	6.74424E-003	6.57813E-004	...........
	10	2.84167	6.61900E-003	6.81288E-003	6.52513E-004	...........
	11	3.1	6.67921E-003	6.85506E-003	6.65046E-004	...........
	12	3.35833	6.73798E-003	6.83181E-003	6.59746E-004	...........
	13	3.61667	6.78901E-003	6.91440E-003	6.61813E-004	...........
	14	3.875	6.82681E-003	6.79889E-003	6.62979E-004	...........
	15	4.13333	6.85101E-003	6.99270E-003	6.60213E-004	...........
	16	4.39167	6.87160E-003	7.05807E-003	6.63079E-004	...........
	17	4.65	6.90779E-003	7.15737E-003	6.64013E-004	...........
	18	4.90833	6.96951E-003	7.20308E-003	6.63413E-004	...........
EOC	QUANT	0.0069695	Open Circuit (V)
PSTATMODEL	IQUANT	4	Pstat Model
PSTATSECTION	LABEL	REF600-11020	Pstat Section
PSTATSERIALNO	LABEL	11020	Pstat Serial Number
CTRLMODE	IQUANT	1	Control Mode
IESTAB	IQUANT	0	I/E Stability
CASPEED	IQUANT	1	Control Amp Speed
CONVENTION	IQUANT	1	Current Convention
ICHRANGE	IQUANT	2	Ich Range
ICHRANGEMODE	TOGGLE	F	Ich Auto Range
ICHOFFSETENABLE	TOGGLE	T	Ich Offset Enable
ICHOFFSET	QUANT	0	Ich Offset (V)
ICHFILTER	IQUANT	3	Ich Filter
VCHRANGE	IQUANT	2	Vch Range
VCHRANGEMODE	TOGGLE	F	Vch Auto Range
VCHOFFSETENABLE	TOGGLE	T	Vch Offset Enable
VCHOFFSET	QUANT	0	Vch Offset (V)
VCHFILTER	IQUANT	3	Vch Filter
ACHRANGE	IQUANT	2	Ach Range
ACHOFFSETENABLE	TOGGLE	F	Ach Offset Enable
ACHOFFSET	QUANT	0	Ach Offset (V)
ACHFILTER	IQUANT	3	Ach Filter
IERANGELOWERLIMIT	IQUANT	1	I/E Range Lower Limit
IERANGEMODE	TOGGLE	F	I/E AutoRange
IERANGE	IQUANT	7	I/E Range
POSFEEDENABLE	TOGGLE	F	Positive Feedback IR Comp
POSFEEDRESISTANCE	QUANT	0	Positive Feedback Resistance (ohm)
ACHSELECT	IQUANT	0	Ach Select
CABLEID	IQUANT	14	Cable ID
DCCALDATE	LABEL	12/22/2019	DC Calibration Date
ACCALDATE	LABEL	12/22/2019	AC Calibration Date
THERMOSELECT	IQUANT	1	Thermo Select
FRAMEWORKVERSION	QUANT	6.33	Framework Version
INSTRUMENTVERSION	LABEL	3.50	Instrument Version
ZCURVE	TABLE
	Pt	Time	Freq	Zreal	Zimag	Zsig	Zmod	Zphz	Idc	Vdc	IERange
	#	s	Hz	ohm	ohm	V	ohm	°	A	V	#
	0	2	1000078	2322.719	-1844.098	1	2965.758	-38.44744	2.737744E-006	0.0090059	8
	1	2	794390.6	2691.401	-1852.287	1	3267.202	-34.53669	-1.751449E-006	0.0092943	8
	2	2	630984.4	3042.961	-1801.616	1	3536.302	-30.62808	-3.294134E-007	0.0090973	8
	3	3	501234.4	3372.159	-1683.513	1	3769.042	-26.53016	-6.291302E-007	0.0088667	8
	4	3	398109.4	3660.646	-1543.125	1	3972.602	-22.85759	5.557627E-007	0.008545	8
	5	3	316265.6	3900.38	-1411.638	1	4147.974	-19.89637	-9.163201E-007	0.0088525	8
	6	4	251203.1	4097.076	-1264.224	1	4287.691	-17.14853	2.859161E-006	0.0081105	8
	7	4	199546.9	4268.632	-1112.409	1	4411.199	-14.60646	-7.859389E-007	0.0088081	8
	8	4	158578.1	4387.931	-983.548	1	4496.811	-12.63394	3.350665E-006	0.0080935	8
	9	4	125953.1	4517.246	-850.2077	1	4596.56	-10.65915	3.781313E-007	0.007622	7
	10	5	100078.1	4594.236	-750.9747	1	4655.209	-9.283478	5.938548E-008	0.0084707	7
	11	5	79453.13	4666.122	-678.8685	1	4715.247	-8.277815	-7.142331E-009	0.0086026	7
	12	5	63140.62	4728.681	-621.4261	1	4769.339	-7.486701	2.621848E-008	0.0085528	7
	13	6	50203.12	4782.028	-579.4543	1	4817.007	-6.909037	-1.298061E-008	0.0085694	7
	14	6	39890.62	4829.215	-552.3057	1	4860.695	-6.524432	-6.024981E-009	0.0085963	7
	15	6	31640.63	4874.948	-540.44	1	4904.813	-6.326017	-4.398392E-010	0.0086005	7
	16	7	25171.88	4917.195	-542.462	1	4947.026	-6.295379	-6.443758E-009	0.0085988	7
	17	7	20015.62	4956.931	-556.7762	1	4988.103	-6.408758	-2.450876E-008	0.0086003	7
	18	7	15890.62	5001.778	-593.314	1	5036.845	-6.76485	-2.330545E-008	0.0086046	7
	19	8	12609.37	5048.466	-645.3611	1	5089.548	-7.284788	-4.726591E-010	0.0085969	7
	20	8	10078.13	5094.238	-712.792	1	5143.863	-7.965184	-1.411854E-009	0.0085403	7
	21	8	8015.625	5144.466	-790.9047	1	5204.908	-8.740161	-4.418643E-008	0.0086378	7
	22	9	6328.125	5202.974	-920.2629	1	5283.732	-10.03031	-2.972509E-008	0.0085987	7
	23	9	5015.625	5265.814	-1066.079	1	5372.646	-11.445	-2.675281E-008	0.0085888	7
	24	9	3984.375	5333.583	-1241.976	1	5476.277	-13.10828	1.796422E-008	0.0085055	7
	25	9	3170.956	5413.929	-1466.369	1	5608.998	-15.15502	-1.036763E-009	0.0085915	7
	26	10	2527.573	5502.208	-1732.639	1	5768.564	-17.47915	-2.688718E-008	0.0085889	7
	27	10	1976.103	5613.579	-2090.038	1	5990.035	-20.42122	-3.622909E-008	0.008649	7
	28	10	1577.524	5780.19	-2483.308	1	6291.059	-23.24951	-1.222261E-009	0.0085301	7
	29	11	1265.625	5874.134	-2967.88	1	6581.319	-26.80499	-3.813372E-009	0.0085921	7
	30	11	998.264	6052.241	-3587.791	1	7035.756	-30.65962	2.807743E-008	0.0085387	7
	31	11	796.875	6249.535	-4309.763	1	7591.492	-34.59067	-3.182661E-009	0.008589	7
	32	12	627.7902	6502.723	-5238.459	1	8350.262	-38.8542	-3.574292E-008	0.008636	7
	33	12	505.5147	6781.344	-6259.901	1	9228.921	-42.7103	-1.97156E-009	0.0085171	7
	34	12	397.9953	7148.661	-7629.713	1	10455.42	-46.86438	6.282348E-010	0.0085679	6
	35	13	315.5048	7583.461	-9256.244	1	11966.07	-50.6729	5.019369E-010	0.0085714	6
	36	13	252.4038	8089.867	-11151.64	1	13776.97	-54.04128	3.237633E-010	0.0085672	6
	37	13	198.6229	8759.657	-13628.64	1	16200.97	-57.26957	6.269228E-010	0.008574	6
	38	14	158.3615	9540.83	-16479.11	1	19041.76	-59.93066	6.924154E-010	0.0085681	6
	39	14	125.558	10538.27	-20018.84	1	22623.2	-62.23689	3.3637E-010	0.00857	6
	40	14	100.4464	11725.58	-24133.53	1	26831.26	-64.08661	7.977892E-010	0.0085662	6
	41	15	79.00281	13319	-29491.17	1	32359.31	-65.6948	3.263035E-010	0.0085657	6
	42	15	63.3446	15261.24	-35304.13	1	38461.5	-66.62217	3.331827E-010	0.0085664	6
	43	15	49.86702	17854.74	-43111.86	1	46662.88	-67.50315	5.283959E-011	0.0085611	6
	44	16	39.72458	20866.59	-52033.34	1	56061.43	-68.14806	8.324423E-010	0.008562	6
	45	16	31.6723	24709.08	-62528.96	1	67233.99	-68.43794	5.832747E-010	0.0085635	6
	46	16	24.93351	30003.15	-75892.39	1	81607.87	-68.42923	1.933863E-010	0.0085673	6
	47	17	19.86229	36455.36	-90929.39	1	97965	-68.15319	2.358441E-010	0.0085682	6
	48	17	15.83615	44711.04	-107813.9	1	116717.3	-67.47594	-1.355496E-009	0.0085627	5
	49	17	12.40079	55922.92	-130450.9	1	141932.5	-66.79571	-1.412741E-009	0.0085739	5
	50	17	9.93114	68725.34	-153817.1	1	168472.2	-65.92495	-1.644573E-009	0.0085653	5
	51	18	7.944915	84840.26	-180677.5	1	199605.2	-64.84678	-6.593797E-010	0.0085675	5
	52	18	6.317385	105313.3	-211477.9	1	236249.5	-63.52728	-3.640884E-010	0.0085691	5
	53	19	5.008013	130608.1	-246257.8	1	278749.7	-62.0598	-5.135469E-010	0.0085552	5
	54	20	3.945707	162722.3	-287073.1	1	329984.1	-60.45403	2.086679E-010	0.0085611	5
	55	21	3.158693	197841.2	-326214.9	1	381519.8	-58.76423	-1.299455E-010	0.0085732	5
	56	23	2.504006	240599.5	-371608.6	1	442697.5	-57.0788	-3.252779E-010	0.0085601	5
	57	24	1.998082	286004.3	-417043.8	1	505691.6	-55.55808	-8.570081E-011	0.008581	5
	58	26	1.584686	338605.6	-469962.4	1	579239.5	-54.22744	2.299593E-011	0.0086064	5
	59	28	1.266892	391859.6	-524540.1	1	654748.9	-53.2383	-9.943633E-011	0.0085741	5
	60	30	0.999041	453829.1	-590734.2	1	744934.8	-52.46688	-7.959789E-011	0.0085442	5
