EXPLAIN
TAG	EISPOT
TITLE	LABEL	Potentiostatic EIS	Test &Identifier
DATE	LABEL	7/5/2020	Date
TIME	LABEL	17:17:18	Time
NOTES	NOTES	1	&Notes...
	
PSTAT	PSTAT	REF600-11020	Potentiostat
VDC	POTEN	0.00000E+000	T	DC &Voltage (V)
FREQINIT	QUANT	1.00000E+006	Initial Fre&q. (Hz)
FREQFINAL	QUANT	1.00000E+000	Final Fre&q. (Hz)
PTSPERDEC	QUANT	1.00000E+001	Points/&decade
VAC	QUANT	2.50000E+001	AC &Voltage (mV rms)
AREA	QUANT	4.00000E-004	&Area (cm^2)
CONDIT	TWOPARAM	F	5.00000E+000	0.00000E+000	Conditionin&g	Time(s)	E(V)
DELAY	TWOPARAM	F	3.00000E+000	0.00000E+000	Init. De&lay	Time(s)	Stab.(mV/s)
SPEED	SELECTOR	0	&Optimize for:
ZGUESS	QUANT	1.00000E+003	E&stimated Z (ohms)
OCVCURVE	TABLE	39
	Pt	T	Vf	Vm	Ach	Over
	#	s	V vs. Ref.	V	V	bits
	0	0.258333	8.25231E-002	8.25231E-002	4.85651E-004	...........
	1	0.516667	8.25230E-002	8.25202E-002	4.82851E-004	...........
	2	0.775	8.25229E-002	8.25296E-002	4.81784E-004	...........
	3	1.03333	8.25232E-002	8.25296E-002	4.85517E-004	...........
	4	1.29167	8.25245E-002	8.25293E-002	4.86284E-004	...........
	5	1.55	8.25265E-002	8.25320E-002	4.88651E-004	...........
	6	1.80833	8.25286E-002	8.25387E-002	4.84551E-004	...........
	7	2.06667	8.25307E-002	8.25345E-002	4.87451E-004	...........
	8	2.325	8.25328E-002	8.25350E-002	4.88417E-004	...........
	9	2.58333	8.25348E-002	8.25550E-002	4.87984E-004	...........
	10	2.84167	8.25375E-002	8.25503E-002	4.89851E-004	...........
	11	3.1	8.25416E-002	8.25562E-002	4.84284E-004	...........
	12	3.35833	8.25463E-002	8.25411E-002	4.86917E-004	...........
	13	3.61667	8.25493E-002	8.25498E-002	4.83251E-004	...........
	14	3.875	8.25513E-002	8.26254E-002	4.92550E-004	...........
	15	4.13333	8.25561E-002	8.25217E-002	4.88117E-004	...........
	16	4.39167	8.25624E-002	8.25314E-002	4.85984E-004	...........
	17	4.65	8.25629E-002	8.25929E-002	4.90017E-004	...........
	18	4.90833	8.25603E-002	8.26270E-002	4.87017E-004	...........
	19	5.16667	8.25657E-002	8.25996E-002	4.87317E-004	...........
	20	5.425	8.25799E-002	8.25693E-002	4.84951E-004	...........
	21	5.68333	8.25911E-002	8.25669E-002	4.83451E-004	...........
	22	5.94167	8.25908E-002	8.25463E-002	4.88451E-004	...........
	23	6.2	8.25805E-002	8.25373E-002	4.83584E-004	...........
	24	6.45833	8.25662E-002	8.25245E-002	4.92284E-004	...........
	25	6.71667	8.25518E-002	8.25219E-002	4.82884E-004	...........
	26	6.975	8.25394E-002	8.25224E-002	4.87917E-004	...........
	27	7.23333	8.25305E-002	8.25274E-002	4.85884E-004	...........
	28	7.49167	8.25256E-002	8.25233E-002	4.85217E-004	...........
	29	7.75	8.25240E-002	8.25261E-002	4.88017E-004	...........
	30	8.00833	8.25242E-002	8.25291E-002	4.85584E-004	...........
	31	8.26667	8.25251E-002	8.25279E-002	4.85417E-004	...........
	32	8.525	8.25262E-002	8.25275E-002	4.88851E-004	...........
	33	8.78333	8.25273E-002	8.25329E-002	4.84317E-004	...........
	34	9.04167	8.25284E-002	8.25350E-002	4.91384E-004	...........
	35	9.3	8.25298E-002	8.25311E-002	4.90917E-004	...........
	36	9.5583	8.25313E-002	8.25351E-002	4.86984E-004	...........
	37	9.8167	8.25325E-002	8.25303E-002	4.95784E-004	...........
	38	10.075	8.25329E-002	8.25336E-002	4.93517E-004	...........
EOC	QUANT	0.0825329	Open Circuit (V)
PSTATMODEL	IQUANT	4	Pstat Model
PSTATSECTION	LABEL	REF600-11020	Pstat Section
PSTATSERIALNO	LABEL	11020	Pstat Serial Number
CTRLMODE	IQUANT	1	Control Mode
IESTAB	IQUANT	0	I/E Stability
CASPEED	IQUANT	1	Control Amp Speed
CONVENTION	IQUANT	1	Current Convention
ICHRANGE	IQUANT	2	Ich Range
ICHRANGEMODE	TOGGLE	F	Ich Auto Range
ICHOFFSETENABLE	TOGGLE	T	Ich Offset Enable
ICHOFFSET	QUANT	0	Ich Offset (V)
ICHFILTER	IQUANT	3	Ich Filter
VCHRANGE	IQUANT	2	Vch Range
VCHRANGEMODE	TOGGLE	F	Vch Auto Range
VCHOFFSETENABLE	TOGGLE	T	Vch Offset Enable
VCHOFFSET	QUANT	0	Vch Offset (V)
VCHFILTER	IQUANT	3	Vch Filter
ACHRANGE	IQUANT	2	Ach Range
ACHOFFSETENABLE	TOGGLE	F	Ach Offset Enable
ACHOFFSET	QUANT	0	Ach Offset (V)
ACHFILTER	IQUANT	3	Ach Filter
IERANGELOWERLIMIT	IQUANT	1	I/E Range Lower Limit
IERANGEMODE	TOGGLE	F	I/E AutoRange
IERANGE	IQUANT	8	I/E Range
POSFEEDENABLE	TOGGLE	F	Positive Feedback IR Comp
POSFEEDRESISTANCE	QUANT	0	Positive Feedback Resistance (ohm)
ACHSELECT	IQUANT	0	Ach Select
CABLEID	IQUANT	14	Cable ID
DCCALDATE	LABEL	6/26/2020	DC Calibration Date
ACCALDATE	LABEL	6/26/2020	AC Calibration Date
THERMOSELECT	IQUANT	1	Thermo Select
FRAMEWORKVERSION	QUANT	6.33	Framework Version
INSTRUMENTVERSION	LABEL	3.50	Instrument Version
ZCURVE	TABLE
	Pt	Time	Freq	Zreal	Zimag	Zsig	Zmod	Zphz	Idc	Vdc	IERange
	#	s	Hz	ohm	ohm	V	ohm	°	A	V	#
	0	1	1000078	1524.841	-1826.571	1	2379.391	-50.14451	5.568477E-006	0.0850147	8
	1	2	794390.6	1870.013	-1978.417	1	2722.33	-46.6135	-8.001392E-006	0.0849672	8
	2	2	630984.4	2269.202	-2092.385	1	3086.64	-42.67852	-3.50335E-007	0.084502	8
	3	2	501234.4	2650.428	-2135.687	1	3403.811	-38.8615	-3.134323E-006	0.0842492	8
	4	2	398109.4	3055.294	-2149.169	1	3735.472	-35.1235	-3.431273E-006	0.0848916	8
	5	3	316265.6	3445.81	-2107.492	1	4039.199	-31.45037	4.428965E-006	0.0834349	8
	6	3	251203.1	3780.417	-2047.682	1	4299.366	-28.44241	-1.952715E-006	0.0842602	8
	7	3	199546.9	4081.716	-1951.603	1	4524.286	-25.554	-3.434337E-006	0.0848064	8
	8	4	158578.1	4352.264	-1871.19	1	4737.462	-23.26455	7.688923E-006	0.0834859	8
	9	4	125953.1	4602.061	-1834.601	1	4954.263	-21.73459	4.703858E-006	0.0764277	7
	10	4	100078.1	4828.963	-1778.581	1	5146.09	-20.21953	4.319972E-007	0.0848685	7
	11	5	79453.13	5043.091	-1750.555	1	5338.278	-19.14289	-1.453952E-006	0.0854114	7
	12	5	63140.62	5239.302	-1759.784	1	5526.945	-18.56624	7.149374E-007	0.0844489	7
	13	5	50203.12	5438.221	-1785.312	1	5723.773	-18.17447	-1.116043E-006	0.0861932	7
	14	6	39890.62	5636.274	-1843.908	1	5930.226	-18.11552	-1.346597E-006	0.0860946	7
	15	6	31640.63	5844.672	-1933.317	1	6156.127	-18.30332	-1.234286E-006	0.0847132	7
	16	6	25171.88	6061.982	-2059.752	1	6402.359	-18.76683	6.24489E-007	0.0821227	7
	17	7	20015.62	6284.399	-2208.509	1	6661.17	-19.36286	-1.455294E-006	0.0854034	7
	18	7	15890.62	6529.99	-2396.781	1	6955.956	-20.15526	-7.836259E-007	0.0860961	7
	19	8	12609.37	6798.031	-2628.916	1	7288.651	-21.14235	-1.34269E-006	0.0860876	7
	20	8	10078.13	7084.868	-2892.509	1	7652.579	-22.20851	-1.493068E-006	0.0858759	7
	21	8	8015.625	7404.393	-3217.166	1	8073.116	-23.48467	9.75551E-007	0.0839424	7
	22	9	6328.125	7767.197	-3590.516	1	8556.937	-24.80952	-7.896599E-007	0.086091	7
	23	9	5015.625	8167.025	-4043.341	1	9113.117	-26.33915	1.218826E-006	0.0825415	7
	24	9	3984.375	8599.731	-4549.031	1	9728.78	-27.87766	-7.713236E-007	0.0839175	7
	25	10	3170.956	9096.607	-5145.361	1	10450.98	-29.49403	8.824807E-007	0.0822045	7
	26	10	2527.573	9632.13	-5826.996	1	11257.53	-31.172	1.098626E-006	0.0823002	7
	27	10	1976.103	10299.28	-6693.501	1	12283.24	-33.01984	8.821165E-007	0.0821997	7
	28	11	1577.524	10982.57	-7607.593	1	13360.11	-34.71022	-2.121756E-007	0.0873811	6
	29	11	1265.625	11754.49	-8643.063	1	14590.08	-36.32701	-5.817456E-008	0.0827231	6
	30	11	998.264	12701.47	-9944.44	1	16131.31	-38.05866	-2.176239E-007	0.0860155	6
	31	12	796.875	13747.64	-11369.94	1	17840.21	-39.59233	1.740748E-007	0.083233	6
	32	12	627.7902	15007.19	-13111.65	1	19928.15	-41.14344	1.907786E-007	0.0825818	6
	33	12	505.5147	16325.42	-14926.36	1	22120.47	-42.43673	-2.123387E-007	0.0873856	6
	34	13	397.9953	18009.99	-17243.34	1	24933.76	-43.75418	1.879361E-010	0.0841612	6
	35	13	315.5048	19919.21	-19814.57	1	28096.12	-44.84911	-2.116747E-010	0.0841651	6
	36	13	252.4038	22033.63	-22622.85	1	31579.65	-45.75594	1.975869E-010	0.0841646	6
	37	14	198.6229	24638.71	-26046.57	1	35853.73	-46.59107	5.224314E-010	0.0841616	6
	38	14	158.3615	27452.52	-29716.42	1	40456.23	-47.26774	6.104729E-010	0.0841586	6
	39	14	125.558	30692.32	-33990.75	1	45797.27	-47.91919	3.33449E-010	0.0841548	6
	40	14	100.4464	34135.44	-38655.48	1	51570.09	-48.55329	2.711354E-010	0.0841567	6
	41	15	79.00281	38269.63	-44421.04	1	58632.69	-49.25443	2.9654E-010	0.0841497	6
	42	15	63.3446	42730.51	-50456.69	1	66119.4	-49.73957	3.008644E-010	0.0841493	6
	43	16	49.86702	47822.94	-58514.54	1	75571.06	-50.74145	-2.11633E-010	0.0841537	6
	44	16	39.72458	53133.62	-67456.31	1	85869.29	-51.7734	-3.185235E-010	0.0841632	6
	45	16	31.6723	59218.17	-77798.96	1	97772.5	-52.72273	-2.17216E-010	0.0841616	6
	46	17	24.93351	66686.02	-90943.09	1	112772.6	-53.74845	4.984277E-011	0.0841489	5
	47	17	19.86229	74873.45	-105782.2	1	129599	-54.70885	9.095465E-010	0.084162	5
	48	17	15.83615	84896.46	-122410.8	1	148969.1	-55.25724	-1.322959E-009	0.0841547	5
	49	17	12.40079	96679.7	-144847	1	174148.3	-56.27844	-1.014354E-009	0.0841446	5
	50	18	9.93114	109277.2	-168774	1	201062.6	-57.07789	-9.522039E-010	0.0841529	5
	51	18	7.944915	124320.6	-197339.7	1	233235	-57.78977	-1.834809E-010	0.0841542	5
	52	18	6.317385	142911.3	-230786.6	1	271451.8	-58.23273	-7.784975E-011	0.0841423	5
	53	19	5.008013	165717.6	-270981.3	1	317636.9	-58.55228	-3.295236E-010	0.0841376	5
	54	20	3.945707	195225.9	-318548.8	1	373612.7	-58.49752	-1.793628E-010	0.0841504	5
	55	21	3.158693	226498.6	-370108.3	1	433914.5	-58.53423	-1.769356E-010	0.0841297	5
	56	23	2.504006	266536.1	-430379.7	1	506229.4	-58.22988	1.045716E-010	0.0841212	5
	57	24	1.998082	310548.1	-496759.8	1	585841.6	-57.98854	1.060451E-010	0.0841432	5
	58	26	1.584686	364214.4	-572671.3	1	678678.5	-57.54396	-2.925439E-013	0.0840978	5
	59	28	1.266892	422687.8	-658623.9	1	782592.1	-57.3087	-1.623325E-011	0.0840836	5
	60	30	0.999041	490784.2	-763570.6	1	907694.5	-57.26916	-2.290056E-011	0.0840972	5
