EXPLAIN
TAG	EISPOT
TITLE	LABEL	Potentiostatic EIS	Test &Identifier
DATE	LABEL	6/19/2020	Date
TIME	LABEL	17:12:58	Time
NOTES	NOTES	1	&Notes...
	
PSTAT	PSTAT	REF600-10037	Potentiostat
VDC	POTEN	0.00000E+000	T	DC &Voltage (V)
FREQINIT	QUANT	1.00000E+006	Initial Fre&q. (Hz)
FREQFINAL	QUANT	1.00000E+000	Final Fre&q. (Hz)
PTSPERDEC	QUANT	1.00000E+001	Points/&decade
VAC	QUANT	1.00000E+002	AC &Voltage (mV rms)
AREA	QUANT	2.50000E-001	&Area (cm^2)
CONDIT	TWOPARAM	F	5.00000E+000	0.00000E+000	Conditionin&g	Time(s)	E(V)
DELAY	TWOPARAM	F	5.00000E+000	0.00000E+000	Init. De&lay	Time(s)	Stab.(mV/s)
SPEED	SELECTOR	0	&Optimize for:
ZGUESS	QUANT	1.00000E+003	E&stimated Z (ohms)
OCVCURVE	TABLE	39
	Pt	T	Vf	Vm	Ach	Over
	#	s	V vs. Ref.	V	V	bits
	0	0.258333	7.00996E-002	7.00996E-002	5.18088E-004	...........
	1	0.516667	7.01003E-002	7.01336E-002	5.28354E-004	...........
	2	0.775	7.01041E-002	7.01546E-002	5.22854E-004	...........
	3	1.03333	7.01141E-002	7.01775E-002	5.27187E-004	...........
	4	1.29167	7.01308E-002	7.01992E-002	5.23387E-004	...........
	5	1.55	7.01520E-002	7.02246E-002	5.20454E-004	...........
	6	1.80833	7.01750E-002	7.02511E-002	5.19054E-004	...........
	7	2.06667	7.01989E-002	7.02765E-002	5.15954E-004	...........
	8	2.325	7.02236E-002	7.03060E-002	5.21954E-004	...........
	9	2.58333	7.02491E-002	7.03213E-002	5.24454E-004	...........
	10	2.84167	7.02748E-002	7.03614E-002	5.23854E-004	...........
	11	3.1	7.03005E-002	7.03773E-002	5.21687E-004	...........
	12	3.35833	7.03261E-002	7.03875E-002	5.19421E-004	...........
	13	3.61667	7.03501E-002	7.04037E-002	5.19788E-004	...........
	14	3.875	7.03712E-002	7.04502E-002	5.25721E-004	...........
	15	4.13333	7.03914E-002	7.04596E-002	5.23854E-004	...........
	16	4.39167	7.04131E-002	7.04769E-002	5.26154E-004	...........
	17	4.65	7.04356E-002	7.04900E-002	5.20754E-004	...........
	18	4.90833	7.04565E-002	7.05182E-002	5.26787E-004	...........
	19	5.16667	7.04755E-002	7.05355E-002	5.26154E-004	...........
	20	5.425	7.04944E-002	7.05531E-002	5.21754E-004	...........
	21	5.68333	7.05135E-002	7.05655E-002	5.24454E-004	...........
	22	5.94167	7.05326E-002	7.06059E-002	5.26121E-004	...........
	23	6.2	7.05522E-002	7.06197E-002	5.22787E-004	...........
	24	6.45833	7.05734E-002	7.06368E-002	5.24321E-004	...........
	25	6.71667	7.05952E-002	7.06467E-002	5.28621E-004	...........
	26	6.975	7.06156E-002	7.06796E-002	5.32621E-004	...........
	27	7.23333	7.06346E-002	7.06989E-002	5.23987E-004	...........
	28	7.49167	7.06539E-002	7.07103E-002	5.27521E-004	...........
	29	7.75	7.06735E-002	7.07184E-002	5.24787E-004	...........
	30	8.00833	7.06916E-002	7.07342E-002	5.25721E-004	...........
	31	8.26667	7.07074E-002	7.07715E-002	5.31254E-004	...........
	32	8.525	7.07232E-002	7.07807E-002	5.26221E-004	...........
	33	8.78333	7.07411E-002	7.07967E-002	5.25987E-004	...........
	34	9.04167	7.07601E-002	7.08032E-002	5.30554E-004	...........
	35	9.3	7.07777E-002	7.08300E-002	5.22621E-004	...........
	36	9.5583	7.07939E-002	7.08556E-002	5.23521E-004	...........
	37	9.8167	7.08105E-002	7.08618E-002	5.26221E-004	...........
	38	10.075	7.08283E-002	7.08731E-002	5.23787E-004	...........
EOC	QUANT	0.0708283	Open Circuit (V)
PSTATMODEL	IQUANT	4	Pstat Model
PSTATSECTION	LABEL	REF600-10037	Pstat Section
PSTATSERIALNO	LABEL	10037	Pstat Serial Number
CTRLMODE	IQUANT	1	Control Mode
IESTAB	IQUANT	0	I/E Stability
CASPEED	IQUANT	1	Control Amp Speed
CONVENTION	IQUANT	1	Current Convention
ICHRANGE	IQUANT	2	Ich Range
ICHRANGEMODE	TOGGLE	F	Ich Auto Range
ICHOFFSETENABLE	TOGGLE	T	Ich Offset Enable
ICHOFFSET	QUANT	0	Ich Offset (V)
ICHFILTER	IQUANT	3	Ich Filter
VCHRANGE	IQUANT	2	Vch Range
VCHRANGEMODE	TOGGLE	F	Vch Auto Range
VCHOFFSETENABLE	TOGGLE	T	Vch Offset Enable
VCHOFFSET	QUANT	0	Vch Offset (V)
VCHFILTER	IQUANT	3	Vch Filter
ACHRANGE	IQUANT	2	Ach Range
ACHOFFSETENABLE	TOGGLE	F	Ach Offset Enable
ACHOFFSET	QUANT	0	Ach Offset (V)
ACHFILTER	IQUANT	3	Ach Filter
IERANGELOWERLIMIT	IQUANT	1	I/E Range Lower Limit
IERANGEMODE	TOGGLE	F	I/E AutoRange
IERANGE	IQUANT	8	I/E Range
POSFEEDENABLE	TOGGLE	F	Positive Feedback IR Comp
POSFEEDRESISTANCE	QUANT	0	Positive Feedback Resistance (ohm)
ACHSELECT	IQUANT	0	Ach Select
CABLEID	IQUANT	14	Cable ID
DCCALDATE	LABEL	6/8/2020	DC Calibration Date
ACCALDATE	LABEL	6/8/2020	AC Calibration Date
THERMOSELECT	IQUANT	1	Thermo Select
FRAMEWORKVERSION	QUANT	6.33	Framework Version
INSTRUMENTVERSION	LABEL	3.50	Instrument Version
ZCURVE	TABLE
	Pt	Time	Freq	Zreal	Zimag	Zsig	Zmod	Zphz	Idc	Vdc	IERange
	#	s	Hz	ohm	ohm	V	ohm	°	A	V	#
	0	2	1000078	1520.856	-781.923	1	1710.089	-27.20922	5.074607E-011	0.0796894	8
	1	2	794390.6	1633.981	-790.1365	1	1814.995	-25.8068	2.390995E-008	0.0794337	8
	2	3	630984.4	1745.141	-801.4141	1	1920.359	-24.66582	7.592298E-008	0.0793447	8
	3	3	501234.4	1862.232	-819.4976	1	2034.572	-23.75248	9.329867E-008	0.0790801	8
	4	3	398109.4	1968.986	-840.3011	1	2140.797	-23.11126	2.892035E-008	0.0792031	8
	5	4	316265.6	2092.351	-864.2772	1	2263.826	-22.44381	7.109981E-008	0.0790629	8
	6	4	251203.1	2212.615	-892.6966	1	2385.911	-21.97199	9.605355E-008	0.0790299	8
	7	4	199546.9	2344.058	-925.811	1	2520.264	-21.55208	1.168652E-006	0.0791133	9
	8	5	158578.1	2462.144	-963.882	1	2644.092	-21.37938	1.079498E-007	0.0792423	8
	9	5	125953.1	2597.542	-1001.613	1	2783.963	-21.08666	8.357062E-008	0.0792115	8
	10	6	100078.1	2738.382	-1031.15	1	2926.09	-20.63408	1.072053E-006	0.0791861	9
	11	6	79453.13	2881.128	-1077.338	1	3075.964	-20.50223	1.071349E-006	0.079151	9
	12	7	63140.62	3027.975	-1139.481	1	3235.282	-20.62221	7.868231E-008	0.0791538	8
	13	8	50203.12	3180.779	-1196.456	1	3398.361	-20.61388	6.287536E-008	0.0791307	8
	14	9	39890.62	3323.12	-1233.396	1	3544.629	-20.36272	1.098756E-006	0.0790526	9
	15	9	31640.63	3508.783	-1342.431	1	3756.818	-20.93643	5.462991E-008	0.0791208	8
	16	10	25171.88	3689.53	-1408.059	1	3949.083	-20.88867	1.14124E-008	0.0791179	7
	17	10	20015.62	3859.308	-1504.186	1	4142.081	-21.29361	-8.094934E-009	0.0791383	7
	18	10	15890.62	4036.366	-1619.355	1	4349.088	-21.86023	1.640224E-008	0.0791144	7
	19	11	12609.37	4216.584	-1753.79	1	4566.767	-22.58373	-1.539303E-009	0.07914	7
	20	11	10078.13	4398.252	-1915.471	1	4797.255	-23.53348	1.285798E-008	0.0791192	7
	21	11	8015.625	4588.817	-2112.453	1	5051.703	-24.71889	1.05826E-008	0.0791387	7
	22	12	6328.125	4797.57	-2365.721	1	5349.141	-26.24828	1.698505E-008	0.0791337	7
	23	12	5015.625	5017.663	-2671.188	1	5684.381	-28.02892	1.079045E-008	0.0791379	7
	24	12	3984.375	5252.83	-3034.348	1	6066.258	-30.01329	2.455335E-008	0.0791028	7
	25	13	3170.956	5532.868	-3500.076	1	6546.996	-32.31733	-7.451112E-009	0.0791312	7
	26	13	2527.573	5838.146	-4029.726	1	7093.845	-34.61502	1.235007E-008	0.0791319	7
	27	13	1976.103	6234.654	-4727.662	1	7824.429	-37.1726	1.352209E-008	0.0791302	7
	28	14	1577.524	6671.691	-5491.761	1	8641.233	-39.45929	-1.451899E-009	0.0791239	7
	29	14	1265.625	7187.939	-6351.11	1	9591.82	-41.46313	4.261417E-009	0.0791335	7
	30	14	998.264	7857.992	-7436.838	1	10819.18	-43.42272	1.818816E-008	0.0791238	7
	31	15	796.875	8624.065	-8599.041	1	12178.59	-44.91675	1.100446E-008	0.079133	7
	32	15	627.7902	9580.81	-9999.23	1	13848.34	-46.22419	1.520853E-008	0.0791387	7
	33	15	505.5147	10575.77	-11419.38	1	15564.35	-47.19645	1.787104E-008	0.0791386	7
	34	16	397.9953	11698.59	-13165.39	1	17612.05	-48.37613	1.294093E-008	0.0791399	7
	35	16	315.5048	13198.61	-15168.11	1	20106.58	-48.97166	5.398451E-009	0.0791538	7
	36	16	252.4038	14578.66	-17293.66	1	22618.75	-49.8689	6.38258E-009	0.0791445	7
	37	17	198.6229	16200.57	-20004.81	1	25742.01	-50.99828	6.958832E-009	0.0791514	7
	38	17	158.3615	17884.24	-23058.32	1	29181.02	-52.20252	7.51115E-009	0.0791472	7
	39	17	125.558	19843.95	-26821.4	1	33364.2	-53.50393	6.504106E-009	0.0791508	7
	40	17	100.4464	22015.54	-31143.49	1	38139.23	-54.74325	4.591328E-009	0.0791523	7
	41	18	79.00281	24787.85	-36661.46	1	44254.95	-55.93626	-2.801263E-011	0.0791514	6
	42	18	63.3446	27887.54	-42696.16	1	50996.84	-56.84893	-2.864048E-010	0.0791454	6
	43	19	49.86702	32010.86	-51077.94	1	60279.77	-57.92438	1.849623E-009	0.0791289	6
	44	19	39.72458	36812.58	-58806.84	1	69378.75	-57.95378	-2.476731E-009	0.0791476	6
	45	20	31.6723	42635.04	-68474.96	1	80663.29	-58.09208	-1.478297E-009	0.0791421	6
	46	20	24.93351	50110.07	-80078.14	1	94464.42	-57.96312	-4.192232E-010	0.0791425	6
	47	20	19.86229	59762.87	-93440.23	1	110917.4	-57.39767	-1.560766E-009	0.0705703	6
	48	21	15.83615	70413.29	-107528.6	1	128531.8	-56.78189	-2.661682E-009	0.0705623	6
	49	21	12.40079	83014.27	-124103.9	1	149308.9	-56.22106	-2.935155E-009	0.0705688	6
	50	22	9.93114	96229.6	-140772.7	1	170520	-55.64422	-2.632971E-009	0.0705662	6
	51	22	7.944915	110929.7	-159266.2	1	194090.5	-55.1426	-2.309772E-009	0.0705716	6
	52	23	6.317385	127261.4	-180478.7	1	220834.8	-54.81111	-1.390999E-009	0.0705723	6
	53	24	5.008013	145041.4	-205222	1	251302.8	-54.7491	-1.09774E-009	0.0705687	6
	54	25	3.945707	164654	-235262.1	1	287157.1	-55.0128	-1.092177E-009	0.0705701	6
	55	26	3.158693	184221.2	-268506	1	325626.9	-55.54609	-9.36149E-010	0.0705732	6
	56	28	2.504006	207125.4	-310429.4	1	373185.5	-56.2879	-4.963056E-010	0.0705612	6
	57	29	1.998082	232199.9	-359358	1	427849.2	-57.13139	-6.824711E-010	0.0705643	5
	58	31	1.584686	261548.1	-420343.9	1	495072.2	-58.10913	-6.338803E-010	0.0705659	5
	59	34	1.266892	295646.1	-491037.9	1	573170.9	-58.94852	-5.007444E-010	0.0705681	5
	60	37	0.999041	339925.7	-580828.7	1	672986.9	-59.66201	-5.290895E-010	0.0705662	5
