EXPLAIN
TAG	EISPOT
TITLE	LABEL	Potentiostatic EIS	Test &Identifier
DATE	LABEL	5/26/2020	Date
TIME	LABEL	18:02:26	Time
NOTES	NOTES	1	&Notes...
	
PSTAT	PSTAT	REF600-11020	Potentiostat
VDC	POTEN	0.00000E+000	T	DC &Voltage (V)
FREQINIT	QUANT	1.00000E+006	Initial Fre&q. (Hz)
FREQFINAL	QUANT	1.00000E+000	Final Fre&q. (Hz)
PTSPERDEC	QUANT	1.00000E+001	Points/&decade
VAC	QUANT	2.50000E+001	AC &Voltage (mV rms)
AREA	QUANT	5.00000E-004	&Area (cm^2)
CONDIT	TWOPARAM	F	5.00000E+000	0.00000E+000	Conditionin&g	Time(s)	E(V)
DELAY	TWOPARAM	T	3.00000E+000	0.00000E+000	Init. De&lay	Time(s)	Stab.(mV/s)
SPEED	SELECTOR	0	&Optimize for:
ZGUESS	QUANT	1.00000E+003	E&stimated Z (ohms)
OCVCURVE	TABLE	12
	Pt	T	Vf	Vm	Ach	Over
	#	s	V vs. Ref.	V	V	bits
	0	0.258333	9.83682E-002	9.83682E-002	5.85130E-004	...........
	1	0.516667	9.83675E-002	9.83325E-002	5.81663E-004	...........
	2	0.775	9.83634E-002	9.83007E-002	5.79397E-004	...........
	3	1.03333	9.83518E-002	9.82737E-002	5.82330E-004	...........
	4	1.29167	9.83317E-002	9.82452E-002	5.83497E-004	...........
	5	1.55	9.83057E-002	9.82224E-002	5.80797E-004	...........
	6	1.80833	9.82777E-002	9.82008E-002	5.82897E-004	...........
	7	2.06667	9.82507E-002	9.81766E-002	5.75830E-004	...........
	8	2.325	9.82256E-002	9.81570E-002	5.83563E-004	...........
	9	2.58333	9.82022E-002	9.81392E-002	5.79163E-004	...........
	10	2.84167	9.81802E-002	9.81176E-002	5.77497E-004	...........
	11	3.1	9.81595E-002	9.81006E-002	5.79997E-004	...........
EOC	QUANT	0.0981595	Open Circuit (V)
PSTATMODEL	IQUANT	4	Pstat Model
PSTATSECTION	LABEL	REF600-11020	Pstat Section
PSTATSERIALNO	LABEL	11020	Pstat Serial Number
CTRLMODE	IQUANT	1	Control Mode
IESTAB	IQUANT	0	I/E Stability
CASPEED	IQUANT	1	Control Amp Speed
CONVENTION	IQUANT	1	Current Convention
ICHRANGE	IQUANT	2	Ich Range
ICHRANGEMODE	TOGGLE	F	Ich Auto Range
ICHOFFSETENABLE	TOGGLE	T	Ich Offset Enable
ICHOFFSET	QUANT	0	Ich Offset (V)
ICHFILTER	IQUANT	3	Ich Filter
VCHRANGE	IQUANT	2	Vch Range
VCHRANGEMODE	TOGGLE	F	Vch Auto Range
VCHOFFSETENABLE	TOGGLE	T	Vch Offset Enable
VCHOFFSET	QUANT	0	Vch Offset (V)
VCHFILTER	IQUANT	3	Vch Filter
ACHRANGE	IQUANT	2	Ach Range
ACHOFFSETENABLE	TOGGLE	F	Ach Offset Enable
ACHOFFSET	QUANT	0	Ach Offset (V)
ACHFILTER	IQUANT	3	Ach Filter
IERANGELOWERLIMIT	IQUANT	1	I/E Range Lower Limit
IERANGEMODE	TOGGLE	F	I/E AutoRange
IERANGE	IQUANT	8	I/E Range
POSFEEDENABLE	TOGGLE	F	Positive Feedback IR Comp
POSFEEDRESISTANCE	QUANT	0	Positive Feedback Resistance (ohm)
ACHSELECT	IQUANT	0	Ach Select
CABLEID	IQUANT	14	Cable ID
DCCALDATE	LABEL	2/27/2020	DC Calibration Date
ACCALDATE	LABEL	2/27/2020	AC Calibration Date
THERMOSELECT	IQUANT	1	Thermo Select
FRAMEWORKVERSION	QUANT	6.33	Framework Version
INSTRUMENTVERSION	LABEL	3.50	Instrument Version
ZCURVE	TABLE
	Pt	Time	Freq	Zreal	Zimag	Zsig	Zmod	Zphz	Idc	Vdc	IERange
	#	s	Hz	ohm	ohm	V	ohm	°	A	V	#
	0	1	1000078	2152.107	-2122.129	1	3022.416	-44.59815	2.902771E-008	0.1008569	8
	1	1	794390.6	2585.115	-2226.55	1	3411.795	-40.7382	3.795605E-008	0.1004395	8
	2	1	630984.4	3040.535	-2258.456	1	3787.542	-36.60431	3.946715E-008	0.100241	8
	3	2	501234.4	3488.512	-2213.531	1	4131.518	-32.39595	1.805281E-009	0.1001404	8
	4	2	398109.4	3907.123	-2111.071	1	4440.972	-28.38295	4.325858E-008	0.1000415	8
	5	2	316265.6	4269.282	-1961.387	1	4698.277	-24.67493	2.689115E-008	0.0999939	8
	6	3	251203.1	4573.516	-1788.166	1	4910.66	-21.35464	4.2733E-008	0.0999998	8
	7	3	199546.9	4821.888	-1611.768	1	5084.132	-18.48276	3.306293E-008	0.0999818	8
	8	3	158578.1	5023.129	-1453.061	1	5229.074	-16.13379	3.704735E-008	0.0999878	8
	9	4	125953.1	5232.94	-1232.359	1	5376.093	-13.25172	5.832837E-009	0.0999259	7
	10	4	100078.1	5341.399	-1129.697	1	5459.557	-11.94198	2.101395E-009	0.0999043	7
	11	4	79453.13	5448.75	-1063.548	1	5551.578	-11.04476	1.770064E-009	0.099895	7
	12	5	63140.62	5545.367	-1022.267	1	5638.805	-10.44499	2.1389E-009	0.099889	7
	13	5	50203.12	5634.254	-1005.731	1	5723.313	-10.12087	1.137195E-009	0.0998852	7
	14	5	39890.62	5723.259	-1016.139	1	5812.765	-10.0677	1.43255E-009	0.0998826	7
	15	6	31640.63	5813.232	-1052.422	1	5907.729	-10.26163	1.96387E-009	0.0998823	7
	16	6	25171.88	5907.028	-1114.797	1	6011.302	-10.68738	3.166158E-009	0.0998822	7
	17	6	20015.62	6009.163	-1203.661	1	6128.526	-11.3267	3.15741E-009	0.0998828	7
	18	6	15890.62	6122.898	-1321.047	1	6263.789	-12.17523	3.059281E-009	0.0998833	7
	19	7	12609.37	6250.376	-1470.149	1	6420.945	-13.23594	2.891294E-009	0.0998746	7
	20	7	10078.13	6389.85	-1645.46	1	6598.312	-14.44059	2.538586E-009	0.0998808	7
	21	7	8015.625	6552.788	-1862.313	1	6812.286	-15.86523	3.087409E-009	0.0998801	7
	22	8	6328.125	6743.482	-2126.595	1	7070.853	-17.50296	2.544364E-009	0.0998774	7
	23	8	5015.625	6957.949	-2432.478	1	7370.889	-19.26947	2.861772E-009	0.0998768	7
	24	8	3984.375	7203.053	-2788.444	1	7723.949	-21.16241	2.912073E-009	0.0998753	7
	25	9	3170.956	7481.585	-3198.414	1	8136.583	-23.14694	2.324652E-009	0.0998691	7
	26	9	2527.573	7798.478	-3671.378	1	8619.471	-25.21018	2.612358E-009	0.0998685	7
	27	9	1976.103	8196.038	-4274.297	1	9243.628	-27.54239	2.862232E-009	0.0998675	7
	28	10	1577.524	8624.262	-4896.352	1	9917.27	-29.58538	1.19996E-010	0.0999248	6
	29	10	1265.625	9089.016	-5623.266	1	10687.91	-31.74459	6.920492E-011	0.0999284	6
	30	10	998.264	9656.75	-6526.067	1	11655.14	-34.05098	-1.203072E-011	0.0999226	6
	31	11	796.875	10276.25	-7528.231	1	12738.75	-36.22595	-2.909009E-011	0.0999238	6
	32	11	627.7902	11015.26	-8761.688	1	14074.91	-38.49922	-5.683869E-011	0.0999219	6
	33	11	505.5147	11776.76	-10065	1	15491.82	-40.51883	1.276507E-010	0.0999297	6
	34	12	397.9953	12717.43	-11758.31	1	17320.24	-42.75592	3.612702E-010	0.0999487	6
	35	12	315.5048	13754.42	-13702.64	1	19415.11	-44.89195	4.938443E-010	0.0999425	6
	36	12	252.4038	14876.96	-15913.85	1	21784.73	-46.92871	4.172825E-010	0.0999384	6
	37	12	198.6229	16242.28	-18744.79	1	24802.79	-49.0912	4.170918E-010	0.0999363	6
	38	13	158.3615	17719.56	-21950.31	1	28209.9	-51.08753	3.8103E-010	0.0999389	6
	39	13	125.558	19459.62	-25884.16	1	32383.12	-53.06428	3.356079E-010	0.0999385	6
	40	13	100.4464	21399.63	-30408.62	1	37183.71	-54.86459	3.305727E-010	0.0999398	6
	41	14	79.00281	23852.17	-36261.13	1	43402.71	-56.66352	4.243277E-010	0.0999374	6
	42	14	63.3446	26514.4	-42715.93	1	50275.87	-58.17152	3.058688E-010	0.0999366	6
	43	14	49.86702	29954.14	-51110.46	1	59241.28	-59.62685	2.184263E-010	0.0999336	6
	44	15	39.72458	33890.8	-60692.5	1	69513.78	-60.82093	3.105658E-010	0.0999367	6
	45	15	31.6723	38648.4	-72110.96	1	81814.97	-61.81059	4.105539E-010	0.0999317	6
	46	16	24.93351	44874.85	-86577.67	1	97516.4	-62.60144	1.323776E-010	0.0999302	6
	47	16	19.86229	52327.17	-102958.7	1	115493	-63.05875	3.582681E-010	0.0999403	5
	48	16	15.83615	61681.24	-122312.2	1	136984.9	-63.23849	-9.977233E-010	0.0999352	5
	49	16	12.40079	74581.05	-146795.5	1	164654.9	-63.06665	-9.570723E-010	0.0999382	5
	50	17	9.93114	89508.09	-172357.5	1	194213.3	-62.5564	-1.183005E-009	0.099938	5
	51	17	7.944915	108031.2	-201815	1	228910.6	-61.83994	-7.453639E-012	0.0999366	5
	52	17	6.317385	131767.6	-235491.5	1	269849.8	-60.77112	-1.462086E-010	0.0999388	5
	53	18	5.008013	161142.1	-273152.3	1	317141.8	-59.46216	-4.379553E-010	0.0999244	5
	54	19	3.945707	197679.3	-314651.4	1	371594.8	-57.86096	-2.851923E-011	0.0999384	5
	55	20	3.158693	236264.1	-356412.8	1	427610.5	-56.45982	-2.221654E-010	0.0999188	5
	56	21	2.504006	282013.3	-402183.4	1	491205.7	-54.96165	1.42638E-010	0.0999159	5
	57	22	1.998082	329019	-450992.8	1	558254.5	-53.88761	1.879365E-010	0.0999407	5
	58	24	1.584686	382235.2	-504962.6	1	633317.4	-52.87583	2.939566E-011	0.0998851	5
	59	26	1.266892	437345.1	-566559.6	1	715723.8	-52.33432	2.234176E-013	0.0998764	5
	60	28	0.999041	498863.7	-642643.1	1	813544.8	-52.17893	-2.339207E-011	0.0998938	5
