EXPLAIN
TAG	EISPOT
TITLE	LABEL	Potentiostatic EIS	Test &Identifier
DATE	LABEL	3/20/2020	Date
TIME	LABEL	14:32:16	Time
NOTES	NOTES	1	&Notes...
	
PSTAT	PSTAT	REF600-11020	Potentiostat
VDC	POTEN	0.00000E+000	T	DC &Voltage (V)
FREQINIT	QUANT	1.00000E+006	Initial Fre&q. (Hz)
FREQFINAL	QUANT	1.00000E+000	Final Fre&q. (Hz)
PTSPERDEC	QUANT	1.00000E+001	Points/&decade
VAC	QUANT	2.50000E+001	AC &Voltage (mV rms)
AREA	QUANT	4.00000E-004	&Area (cm^2)
CONDIT	TWOPARAM	F	5.00000E+000	0.00000E+000	Conditionin&g	Time(s)	E(V)
DELAY	TWOPARAM	T	3.00000E+000	0.00000E+000	Init. De&lay	Time(s)	Stab.(mV/s)
SPEED	SELECTOR	0	&Optimize for:
ZGUESS	QUANT	1.00000E+003	E&stimated Z (ohms)
OCVCURVE	TABLE	12
	Pt	T	Vf	Vm	Ach	Over
	#	s	V vs. Ref.	V	V	bits
	0	0.258333	1.12057E-002	1.12057E-002	5.66497E-004	...........
	1	0.516667	1.12054E-002	1.11901E-002	5.68097E-004	...........
	2	0.775	1.12033E-002	1.11622E-002	5.65730E-004	...........
	3	1.03333	1.11960E-002	1.11062E-002	5.69163E-004	...........
	4	1.29167	1.11801E-002	1.11091E-002	5.66530E-004	...........
	5	1.55	1.11569E-002	1.11169E-002	5.61297E-004	...........
	6	1.80833	1.11346E-002	1.11156E-002	5.64797E-004	...........
	7	2.06667	1.11206E-002	1.11257E-002	5.64630E-004	...........
	8	2.325	1.11162E-002	1.11359E-002	5.64063E-004	...........
	9	2.58333	1.11188E-002	1.11456E-002	5.68063E-004	...........
	10	2.84167	1.11257E-002	1.11606E-002	5.61430E-004	...........
	11	3.1	1.11354E-002	1.11782E-002	5.63064E-004	...........
EOC	QUANT	0.0111354	Open Circuit (V)
PSTATMODEL	IQUANT	4	Pstat Model
PSTATSECTION	LABEL	REF600-11020	Pstat Section
PSTATSERIALNO	LABEL	11020	Pstat Serial Number
CTRLMODE	IQUANT	1	Control Mode
IESTAB	IQUANT	0	I/E Stability
CASPEED	IQUANT	1	Control Amp Speed
CONVENTION	IQUANT	1	Current Convention
ICHRANGE	IQUANT	2	Ich Range
ICHRANGEMODE	TOGGLE	F	Ich Auto Range
ICHOFFSETENABLE	TOGGLE	T	Ich Offset Enable
ICHOFFSET	QUANT	0	Ich Offset (V)
ICHFILTER	IQUANT	3	Ich Filter
VCHRANGE	IQUANT	2	Vch Range
VCHRANGEMODE	TOGGLE	F	Vch Auto Range
VCHOFFSETENABLE	TOGGLE	T	Vch Offset Enable
VCHOFFSET	QUANT	0	Vch Offset (V)
VCHFILTER	IQUANT	3	Vch Filter
ACHRANGE	IQUANT	2	Ach Range
ACHOFFSETENABLE	TOGGLE	F	Ach Offset Enable
ACHOFFSET	QUANT	0	Ach Offset (V)
ACHFILTER	IQUANT	3	Ach Filter
IERANGELOWERLIMIT	IQUANT	1	I/E Range Lower Limit
IERANGEMODE	TOGGLE	F	I/E AutoRange
IERANGE	IQUANT	7	I/E Range
POSFEEDENABLE	TOGGLE	F	Positive Feedback IR Comp
POSFEEDRESISTANCE	QUANT	0	Positive Feedback Resistance (ohm)
ACHSELECT	IQUANT	0	Ach Select
CABLEID	IQUANT	14	Cable ID
DCCALDATE	LABEL	2/27/2020	DC Calibration Date
ACCALDATE	LABEL	2/27/2020	AC Calibration Date
THERMOSELECT	IQUANT	1	Thermo Select
FRAMEWORKVERSION	QUANT	6.33	Framework Version
INSTRUMENTVERSION	LABEL	3.50	Instrument Version
ZCURVE	TABLE
	Pt	Time	Freq	Zreal	Zimag	Zsig	Zmod	Zphz	Idc	Vdc	IERange
	#	s	Hz	ohm	ohm	V	ohm	°	A	V	#
	0	1	1000078	1574.742	-2168.904	1	2680.291	-54.01831	7.943918E-008	0.0136709	8
	1	1	794390.6	1877.574	-2447.53	1	3084.751	-52.5071	8.848616E-008	0.0133061	8
	2	1	630984.4	2228.011	-2748.68	1	3538.259	-50.97264	9.307483E-008	0.0131354	8
	3	2	501234.4	2638.302	-3067.851	1	4046.276	-49.30501	-1.228228E-007	0.0130896	8
	4	2	398109.4	3119.955	-3406.788	1	4619.559	-47.51638	-1.710488E-007	0.0130197	8
	5	2	316265.6	3695.823	-3733.664	1	5253.509	-45.29182	-1.26145E-007	0.0130019	8
	6	3	251203.1	4349.378	-4053.598	1	5945.481	-42.98405	-1.594544E-007	0.0129735	8
	7	3	199546.9	5104.214	-4305.997	1	6677.919	-40.15152	-1.300259E-007	0.0129513	8
	8	3	158578.1	5911.863	-4476.555	1	7415.502	-37.13358	1.750622E-007	0.0129193	8
	9	4	125953.1	6852.536	-4459.33	1	8175.749	-33.05431	-1.465989E-008	0.0128907	7
	10	4	100078.1	7670.763	-4417.115	1	8851.639	-29.93496	3.059129E-009	0.0128649	7
	11	4	79453.13	8468.026	-4295.562	1	9495.227	-26.89724	6.247345E-010	0.0128593	7
	12	5	63140.62	9202.642	-4102.283	1	10075.58	-24.02599	-2.780437E-010	0.0128669	7
	13	5	50203.12	9856.02	-3852.874	1	10582.33	-21.35132	2.98552E-009	0.0128494	7
	14	5	39890.62	10442.41	-3593.767	1	11043.51	-18.99096	4.252896E-009	0.0128554	7
	15	6	31640.63	10955.95	-3329.57	1	11450.71	-16.9043	2.207602E-009	0.0128682	7
	16	6	25171.88	11391.38	-3073.99	1	11798.85	-15.10169	-1.662455E-009	0.0128598	7
	17	6	20015.62	11787.22	-2846.707	1	12126.1	-13.5774	1.145448E-008	0.0128349	7
	18	7	15890.62	12125.91	-2641.361	1	12410.26	-12.28865	3.45477E-010	0.0128607	7
	19	7	12609.37	12514.67	-2310.155	1	12726.11	-10.45882	-2.492738E-010	0.0129162	6
	20	7	10078.13	12764.93	-2200.38	1	12953.19	-9.78036	4.567431E-010	0.012896	6
	21	8	8015.625	12991.25	-2120.345	1	13163.14	-9.269705	2.262559E-010	0.012904	6
	22	8	6328.125	13209.13	-2076.76	1	13371.39	-8.934991	1.463286E-009	0.0128871	6
	23	8	5015.625	13410.77	-2076.403	1	13570.56	-8.801278	7.183544E-010	0.0129152	6
	24	8	3984.375	13600.33	-2121.282	1	13764.76	-8.865157	-8.628939E-011	0.012919	6
	25	9	3170.956	13778.6	-2217.124	1	13955.84	-9.141148	2.020321E-010	0.0128961	6
	26	9	2527.573	13947	-2368.827	1	14146.73	-9.63941	1.193413E-009	0.0128821	6
	27	9	1976.103	14134.73	-2609.658	1	14373.62	-10.46057	9.791548E-010	0.0128955	6
	28	10	1577.524	14314.28	-2911.073	1	14607.29	-11.49539	5.869324E-010	0.0129137	6
	29	10	1265.625	14495.49	-3290.646	1	14864.3	-12.79005	1.080897E-009	0.0128925	6
	30	10	998.264	14716.77	-3817.276	1	15203.78	-14.54108	8.171958E-011	0.0128861	6
	31	11	796.875	14945.91	-4446.206	1	15593.24	-16.56703	2.850079E-010	0.0128986	6
	32	11	627.7902	15226.65	-5277.401	1	16115.27	-19.11579	6.505347E-010	0.0129006	6
	33	11	505.5147	15526.81	-6211.426	1	16723.14	-21.80365	7.951398E-011	0.0128984	6
	34	12	397.9953	15924.82	-7474.702	1	17591.79	-25.14415	5.211831E-010	0.0129097	6
	35	12	315.5048	16396.41	-8981.806	1	18695.32	-28.71353	4.571173E-010	0.0129123	6
	36	12	252.4038	16954.57	-10736.99	1	20068.39	-32.34525	4.58489E-010	0.0129096	6
	37	13	198.6229	17701.47	-13018.44	1	21973.2	-36.33239	4.012614E-010	0.0129084	6
	38	13	158.3615	18595.83	-15618.69	1	24284.74	-40.02699	1.79197E-010	0.0129033	6
	39	13	125.558	19739.64	-18804.29	1	27262.7	-43.60987	2.663262E-010	0.0129022	6
	40	14	100.4464	21105.35	-22445.33	1	30809.55	-46.76233	1.644811E-010	0.0129025	6
	41	14	79.00281	22928.45	-27100.62	1	35498.69	-49.76715	2.57387E-010	0.012901	6
	42	14	63.3446	25014.26	-32163.72	1	40745.77	-52.1272	2.986907E-010	0.0128976	6
	43	15	49.86702	27750.81	-38666.87	1	47594.48	-54.33339	-5.972119E-011	0.0128981	6
	44	15	39.72458	30913.75	-45971.79	1	55399.15	-56.08113	1.811196E-010	0.0128989	6
	45	15	31.6723	34750.81	-54557.59	1	64685	-57.50463	3.548849E-010	0.0129001	6
	46	16	24.93351	39731.83	-65246.65	1	76392.04	-58.66075	-1.515972E-010	0.0129003	6
	47	16	19.86229	45513.59	-77222.7	1	89637.23	-59.48571	-4.225551E-010	0.0128984	6
	48	16	15.83615	52492.48	-91102.78	1	105143.6	-60.0499	1.388091E-010	0.0128982	5
	49	16	12.40079	61921.14	-108836	1	125217.8	-60.36273	-1.072905E-009	0.0129049	5
	50	17	9.93114	72173.39	-127387.8	1	146412.6	-60.46565	-1.174333E-009	0.0129015	5
	51	17	7.944915	84674.89	-149196.4	1	171550	-60.42336	-3.351838E-010	0.0129061	5
	52	18	6.317385	100252.3	-174754.1	1	201468.4	-60.15813	9.326378E-011	0.0128933	5
	53	18	5.008013	119799.4	-204790.1	1	237257	-59.67294	-1.075176E-010	0.0128914	5
	54	19	3.945707	144393	-240256.1	1	280307.5	-58.99429	-3.896621E-010	0.0128998	5
	55	20	3.158693	172549.3	-276769.1	1	326150.9	-58.05888	-4.866043E-011	0.0128809	5
	56	21	2.504006	208168.4	-319389.3	1	381239.6	-56.9049	2.423578E-010	0.0128883	5
	57	23	1.998082	249231.2	-363324.7	1	440591.7	-55.5509	-1.22015E-011	0.0128595	5
	58	24	1.584686	299257.9	-413438.3	1	510378.8	-54.10196	-1.109311E-010	0.0128423	5
	59	26	1.266892	353469.8	-463576	1	582961.1	-52.67501	-3.995589E-011	0.0128732	5
	60	29	0.999041	419507.5	-518575.2	1	667013.4	-51.02847	-2.557002E-011	0.0129025	5
