EXPLAIN
TAG	EISPOT
TITLE	LABEL	Potentiostatic EIS	Test &Identifier
DATE	LABEL	6/6/2020	Date
TIME	LABEL	18:27:38	Time
NOTES	NOTES	1	&Notes...
	
PSTAT	PSTAT	REF600-11020	Potentiostat
VDC	POTEN	0.00000E+000	T	DC &Voltage (V)
FREQINIT	QUANT	1.00000E+006	Initial Fre&q. (Hz)
FREQFINAL	QUANT	1.00000E+000	Final Fre&q. (Hz)
PTSPERDEC	QUANT	1.00000E+001	Points/&decade
VAC	QUANT	2.50000E+001	AC &Voltage (mV rms)
AREA	QUANT	4.00000E-004	&Area (cm^2)
CONDIT	TWOPARAM	F	5.00000E+000	0.00000E+000	Conditionin&g	Time(s)	E(V)
DELAY	TWOPARAM	T	3.00000E+000	0.00000E+000	Init. De&lay	Time(s)	Stab.(mV/s)
SPEED	SELECTOR	0	&Optimize for:
ZGUESS	QUANT	1.00000E+003	E&stimated Z (ohms)
OCVCURVE	TABLE	12
	Pt	T	Vf	Vm	Ach	Over
	#	s	V vs. Ref.	V	V	bits
	0	0.258333	-1.37730E-001	-1.37730E-001	5.49197E-004	...........
	1	0.516667	-1.37730E-001	-1.37730E-001	5.51797E-004	...........
	2	0.775	-1.37730E-001	-1.37732E-001	5.55164E-004	...........
	3	1.03333	-1.37730E-001	-1.37733E-001	5.50364E-004	...........
	4	1.29167	-1.37730E-001	-1.37735E-001	5.57297E-004	...........
	5	1.55	-1.37731E-001	-1.37736E-001	5.52230E-004	...........
	6	1.80833	-1.37733E-001	-1.37737E-001	5.53064E-004	...........
	7	2.06667	-1.37734E-001	-1.37737E-001	5.52497E-004	...........
	8	2.325	-1.37735E-001	-1.37738E-001	5.55897E-004	...........
	9	2.58333	-1.37736E-001	-1.37740E-001	5.59664E-004	...........
	10	2.84167	-1.37737E-001	-1.37742E-001	5.54030E-004	...........
	11	3.1	-1.37738E-001	-1.37740E-001	5.59197E-004	...........
EOC	QUANT	-0.1377383	Open Circuit (V)
PSTATMODEL	IQUANT	4	Pstat Model
PSTATSECTION	LABEL	REF600-11020	Pstat Section
PSTATSERIALNO	LABEL	11020	Pstat Serial Number
CTRLMODE	IQUANT	1	Control Mode
IESTAB	IQUANT	0	I/E Stability
CASPEED	IQUANT	1	Control Amp Speed
CONVENTION	IQUANT	1	Current Convention
ICHRANGE	IQUANT	2	Ich Range
ICHRANGEMODE	TOGGLE	F	Ich Auto Range
ICHOFFSETENABLE	TOGGLE	T	Ich Offset Enable
ICHOFFSET	QUANT	0	Ich Offset (V)
ICHFILTER	IQUANT	3	Ich Filter
VCHRANGE	IQUANT	2	Vch Range
VCHRANGEMODE	TOGGLE	F	Vch Auto Range
VCHOFFSETENABLE	TOGGLE	T	Vch Offset Enable
VCHOFFSET	QUANT	0	Vch Offset (V)
VCHFILTER	IQUANT	3	Vch Filter
ACHRANGE	IQUANT	2	Ach Range
ACHOFFSETENABLE	TOGGLE	F	Ach Offset Enable
ACHOFFSET	QUANT	0	Ach Offset (V)
ACHFILTER	IQUANT	3	Ach Filter
IERANGELOWERLIMIT	IQUANT	1	I/E Range Lower Limit
IERANGEMODE	TOGGLE	F	I/E AutoRange
IERANGE	IQUANT	8	I/E Range
POSFEEDENABLE	TOGGLE	F	Positive Feedback IR Comp
POSFEEDRESISTANCE	QUANT	0	Positive Feedback Resistance (ohm)
ACHSELECT	IQUANT	0	Ach Select
CABLEID	IQUANT	14	Cable ID
DCCALDATE	LABEL	2/27/2020	DC Calibration Date
ACCALDATE	LABEL	2/27/2020	AC Calibration Date
THERMOSELECT	IQUANT	1	Thermo Select
FRAMEWORKVERSION	QUANT	6.33	Framework Version
INSTRUMENTVERSION	LABEL	3.50	Instrument Version
ZCURVE	TABLE
	Pt	Time	Freq	Zreal	Zimag	Zsig	Zmod	Zphz	Idc	Vdc	IERange
	#	s	Hz	ohm	ohm	V	ohm	°	A	V	#
	0	1	1000078	1366.595	-628.4323	1	1504.164	-24.69547	7.183147E-008	-0.1353793	8
	1	1	794390.6	1463.486	-618.6306	1	1588.866	-22.91428	3.230908E-008	-0.1356616	8
	2	2	630984.4	1553.866	-607.9982	1	1668.581	-21.36946	7.457044E-008	-0.1358309	8
	3	2	501234.4	1639.68	-598.7557	1	1745.583	-20.06048	7.192745E-008	-0.1359325	8
	4	2	398109.4	1721.815	-591.119	1	1820.459	-18.94794	6.823937E-008	-0.1359855	8
	5	3	316265.6	1800.616	-588.051	1	1894.208	-18.08617	6.649242E-008	-0.136017	8
	6	3	251203.1	1877.425	-590.4937	1	1968.097	-17.45957	5.187262E-008	-0.1360197	8
	7	3	199546.9	1953.733	-596.3506	1	2042.721	-16.9741	3.903693E-008	-0.1360258	8
	8	4	158578.1	2030.232	-606.5715	1	2118.908	-16.63455	7.25267E-008	-0.136011	8
	9	4	125953.1	2125.065	-596.7322	1	2207.259	-15.68509	-3.402367E-010	-0.1360559	7
	10	4	100078.1	2200.884	-614.0956	1	2284.951	-15.59029	5.262847E-009	-0.1360896	7
	11	5	79453.13	2281.231	-645.0795	1	2370.684	-15.78968	4.539267E-009	-0.1360938	7
	12	5	63140.62	2364.152	-680.0455	1	2460.016	-16.04782	3.500049E-009	-0.1360996	7
	13	5	50203.12	2450.052	-719.3814	1	2553.48	-16.36324	4.364217E-009	-0.1360966	7
	14	6	39890.62	2538.154	-764.076	1	2650.667	-16.75369	3.912503E-009	-0.1360978	7
	15	6	31640.63	2629.199	-817.8173	1	2753.455	-17.2784	3.185708E-009	-0.1361006	7
	16	6	25171.88	2721.392	-881.9128	1	2860.725	-17.95579	4.690622E-009	-0.1361047	7
	17	7	20015.62	2817.543	-959.587	1	2976.468	-18.8076	3.601412E-009	-0.1361049	7
	18	7	15890.62	2918.699	-1055.508	1	3103.691	-19.88183	5.425091E-009	-0.1361072	7
	19	7	12609.37	3025.131	-1171.944	1	3244.206	-21.17651	4.649975E-009	-0.1360998	7
	20	7	10078.13	3135.204	-1309.591	1	3397.724	-22.67054	3.987394E-009	-0.136103	7
	21	8	8015.625	3257.698	-1479.874	1	3578.075	-24.43087	4.015538E-009	-0.136103	7
	22	8	6328.125	3399.139	-1696.297	1	3798.891	-26.52091	4.442135E-009	-0.1361062	7
	23	8	5015.625	3560.062	-1956.086	1	4062.058	-28.78672	5.129802E-009	-0.136106	7
	24	9	3984.375	3749.947	-2263.922	1	4380.348	-31.12026	4.23123E-009	-0.1361102	7
	25	9	3170.956	3976.533	-2624.975	1	4764.799	-33.42947	2.216908E-009	-0.1361133	7
	26	9	2527.573	4250.61	-3039.964	1	5225.808	-35.5717	2.160714E-009	-0.1361142	7
	27	10	1976.103	4610.833	-3552.43	1	5820.613	-37.61257	6.44418E-009	-0.1361087	7
	28	10	1577.524	5003.789	-4067.639	1	6448.534	-39.10807	4.351694E-009	-0.1361129	7
	29	10	1265.625	5435.177	-4633.773	1	7142.339	-40.44933	5.466164E-009	-0.1361123	7
	30	11	998.264	5957.373	-5288.466	1	7966.063	-41.59604	5.674617E-009	-0.1361113	7
	31	11	796.875	6479.8	-6000.843	1	8831.644	-42.8023	5.541193E-009	-0.1361192	7
	32	11	627.7902	7054.84	-6870.124	1	9847.3	-44.24001	6.217332E-010	-0.1360655	6
	33	12	505.5147	7593.234	-7811.341	1	10893.77	-45.81117	5.212956E-010	-0.1360739	6
	34	12	397.9953	8206.933	-9078.827	1	12238.42	-47.88755	5.920645E-010	-0.1360607	6
	35	12	315.5048	8844.642	-10606.08	1	13810.02	-50.17453	4.95871E-010	-0.1360614	6
	36	13	252.4038	9521.61	-12419.82	1	15649.7	-52.52457	4.596528E-010	-0.1360634	6
	37	13	198.6229	10356.26	-14830.14	1	18088.27	-55.07243	3.793732E-010	-0.1360611	6
	38	13	158.3615	11296.42	-17639.12	1	20946.3	-57.36374	4.057776E-010	-0.136061	6
	39	14	125.558	12471.36	-21155.59	1	24557.97	-59.48037	4.814475E-010	-0.1360611	6
	40	14	100.4464	13863.74	-25252.32	1	28807.69	-61.23285	2.959745E-010	-0.136061	6
	41	14	79.00281	15741.65	-30584.4	1	34397.74	-62.76533	6.157658E-010	-0.136068	6
	42	15	63.3446	17912.45	-36475.1	1	40636.05	-63.84495	4.684008E-010	-0.1360625	6
	43	15	49.86702	20862.6	-44107.09	1	48792.25	-64.68591	1.231134E-010	-0.136065	6
	44	15	39.72458	24409.1	-52746.29	1	58120.35	-65.16699	6.161351E-010	-0.1360628	6
	45	16	31.6723	28816.83	-62894.63	1	69181.97	-65.38387	6.395193E-010	-0.136069	6
	46	16	24.93351	34715.61	-75553.92	1	83147.87	-65.32211	4.421038E-010	-0.1360674	6
	47	16	19.86229	41642.75	-89639.24	1	98839.8	-65.08234	1.85883E-009	-0.1360576	6
	48	17	15.83615	50375.17	-105935.7	1	117303.1	-64.5677	-1.11499E-009	-0.1360631	5
	49	17	12.40079	62115.07	-126050.8	1	140524.4	-63.76694	4.886067E-010	-0.1360579	5
	50	17	9.93114	75091.45	-147068.8	1	165130.1	-62.95172	4.694395E-010	-0.1360511	5
	51	18	7.944915	90994.32	-170680.5	1	193421.3	-61.93673	-9.403316E-010	-0.1360549	5
	52	18	6.317385	110313.3	-198086.8	1	226732	-60.88685	3.60853E-010	-0.1360687	5
	53	19	5.008013	133421.9	-229023.4	1	265053	-59.77626	5.578887E-010	-0.1360569	5
	54	20	3.945707	161235.5	-263895.6	1	309253.5	-58.57581	1.045676E-010	-0.136068	5
	55	21	3.158693	190198.2	-300497.8	1	355632.2	-57.66849	3.53442E-010	-0.1360509	5
	56	22	2.504006	224354	-342643.3	1	409559.7	-56.78426	3.475508E-011	-0.1360548	5
	57	23	1.998082	259960.5	-389641.9	1	468401.8	-56.28965	8.920455E-012	-0.1360861	5
	58	24	1.584686	301344.9	-443817.8	1	536454.1	-55.82415	1.549902E-010	-0.1360398	5
	59	26	1.266892	346023.6	-506958.2	1	613790.6	-55.68457	1.728052E-010	-0.1360229	5
	60	29	0.999041	397849.1	-585553.1	1	707924	-55.80619	1.855865E-010	-0.1360387	5
