EXPLAIN
TAG	EISPOT
TITLE	LABEL	Potentiostatic EIS	Test &Identifier
DATE	LABEL	6/26/2020	Date
TIME	LABEL	14:18:17	Time
NOTES	NOTES	1	&Notes...
	
PSTAT	PSTAT	REF600-11020	Potentiostat
VDC	POTEN	0.00000E+000	T	DC &Voltage (V)
FREQINIT	QUANT	1.00000E+006	Initial Fre&q. (Hz)
FREQFINAL	QUANT	1.00000E+000	Final Fre&q. (Hz)
PTSPERDEC	QUANT	1.00000E+001	Points/&decade
VAC	QUANT	2.50000E+001	AC &Voltage (mV rms)
AREA	QUANT	4.00000E-004	&Area (cm^2)
CONDIT	TWOPARAM	F	5.00000E+000	0.00000E+000	Conditionin&g	Time(s)	E(V)
DELAY	TWOPARAM	F	3.00000E+000	0.00000E+000	Init. De&lay	Time(s)	Stab.(mV/s)
SPEED	SELECTOR	0	&Optimize for:
ZGUESS	QUANT	1.00000E+003	E&stimated Z (ohms)
OCVCURVE	TABLE	39
	Pt	T	Vf	Vm	Ach	Over
	#	s	V vs. Ref.	V	V	bits
	0	0.258333	1.05031E-001	1.05031E-001	5.34550E-004	...........
	1	0.516667	1.05031E-001	1.05046E-001	5.29550E-004	...........
	2	0.775	1.05033E-001	1.05057E-001	5.31317E-004	...........
	3	1.03333	1.05038E-001	1.05069E-001	5.31217E-004	...........
	4	1.29167	1.05046E-001	1.05079E-001	5.35783E-004	...........
	5	1.55	1.05056E-001	1.05089E-001	5.28217E-004	...........
	6	1.80833	1.05067E-001	1.05095E-001	5.26050E-004	...........
	7	2.06667	1.05077E-001	1.05102E-001	5.26450E-004	...........
	8	2.325	1.05086E-001	1.05107E-001	5.29750E-004	...........
	9	2.58333	1.05094E-001	1.05113E-001	5.32717E-004	...........
	10	2.84167	1.05101E-001	1.05116E-001	5.27117E-004	...........
	11	3.1	1.05106E-001	1.05120E-001	5.25283E-004	...........
	12	3.35833	1.05111E-001	1.05122E-001	5.30983E-004	...........
	13	3.61667	1.05116E-001	1.05126E-001	5.27150E-004	...........
	14	3.875	1.05119E-001	1.05127E-001	5.24283E-004	...........
	15	4.13333	1.05122E-001	1.05132E-001	5.29150E-004	...........
	16	4.39167	1.05125E-001	1.05132E-001	5.30450E-004	...........
	17	4.65	1.05128E-001	1.05134E-001	5.31550E-004	...........
	18	4.90833	1.05130E-001	1.05135E-001	5.26550E-004	...........
	19	5.16667	1.05132E-001	1.05133E-001	5.28917E-004	...........
	20	5.425	1.05133E-001	1.05139E-001	5.26317E-004	...........
	21	5.68333	1.05135E-001	1.05139E-001	5.31250E-004	...........
	22	5.94167	1.05136E-001	1.05141E-001	5.24883E-004	...........
	23	6.2	1.05138E-001	1.05140E-001	5.27017E-004	...........
	24	6.45833	1.05139E-001	1.05138E-001	5.29650E-004	...........
	25	6.71667	1.05140E-001	1.05137E-001	5.26850E-004	...........
	26	6.975	1.05139E-001	1.05138E-001	5.34050E-004	...........
	27	7.23333	1.05139E-001	1.05140E-001	5.30183E-004	...........
	28	7.49167	1.05138E-001	1.05140E-001	5.32850E-004	...........
	29	7.75	1.05139E-001	1.05139E-001	5.33917E-004	...........
	30	8.00833	1.05139E-001	1.05137E-001	5.28917E-004	...........
	31	8.26667	1.05139E-001	1.05136E-001	5.23117E-004	...........
	32	8.525	1.05138E-001	1.05137E-001	5.23750E-004	...........
	33	8.78333	1.05138E-001	1.05134E-001	5.27650E-004	...........
	34	9.04167	1.05137E-001	1.05131E-001	5.27150E-004	...........
	35	9.3	1.05135E-001	1.05131E-001	5.24450E-004	...........
	36	9.5583	1.05134E-001	1.05133E-001	5.24650E-004	...........
	37	9.8167	1.05133E-001	1.05128E-001	5.26650E-004	...........
	38	10.075	1.05132E-001	1.05131E-001	5.24617E-004	...........
EOC	QUANT	0.1051318	Open Circuit (V)
PSTATMODEL	IQUANT	4	Pstat Model
PSTATSECTION	LABEL	REF600-11020	Pstat Section
PSTATSERIALNO	LABEL	11020	Pstat Serial Number
CTRLMODE	IQUANT	1	Control Mode
IESTAB	IQUANT	0	I/E Stability
CASPEED	IQUANT	1	Control Amp Speed
CONVENTION	IQUANT	1	Current Convention
ICHRANGE	IQUANT	2	Ich Range
ICHRANGEMODE	TOGGLE	F	Ich Auto Range
ICHOFFSETENABLE	TOGGLE	T	Ich Offset Enable
ICHOFFSET	QUANT	0	Ich Offset (V)
ICHFILTER	IQUANT	3	Ich Filter
VCHRANGE	IQUANT	2	Vch Range
VCHRANGEMODE	TOGGLE	F	Vch Auto Range
VCHOFFSETENABLE	TOGGLE	T	Vch Offset Enable
VCHOFFSET	QUANT	0	Vch Offset (V)
VCHFILTER	IQUANT	3	Vch Filter
ACHRANGE	IQUANT	2	Ach Range
ACHOFFSETENABLE	TOGGLE	F	Ach Offset Enable
ACHOFFSET	QUANT	0	Ach Offset (V)
ACHFILTER	IQUANT	3	Ach Filter
IERANGELOWERLIMIT	IQUANT	1	I/E Range Lower Limit
IERANGEMODE	TOGGLE	F	I/E AutoRange
IERANGE	IQUANT	8	I/E Range
POSFEEDENABLE	TOGGLE	F	Positive Feedback IR Comp
POSFEEDRESISTANCE	QUANT	0	Positive Feedback Resistance (ohm)
ACHSELECT	IQUANT	0	Ach Select
CABLEID	IQUANT	14	Cable ID
DCCALDATE	LABEL	6/26/2020	DC Calibration Date
ACCALDATE	LABEL	6/26/2020	AC Calibration Date
THERMOSELECT	IQUANT	1	Thermo Select
FRAMEWORKVERSION	QUANT	6.33	Framework Version
INSTRUMENTVERSION	LABEL	3.50	Instrument Version
ZCURVE	TABLE
	Pt	Time	Freq	Zreal	Zimag	Zsig	Zmod	Zphz	Idc	Vdc	IERange
	#	s	Hz	ohm	ohm	V	ohm	°	A	V	#
	0	2	1000078	1407.88	-2055.126	1	2491.118	-55.58662	1.138676E-007	0.1077472	8
	1	2	794390.6	1662.818	-2337.906	1	2868.932	-54.57795	-8.765688E-009	0.1073964	8
	2	2	630984.4	1953.687	-2653.591	1	3295.215	-53.63791	7.347489E-008	0.1072479	8
	3	2	501234.4	2286.655	-3011.89	1	3781.57	-52.7939	4.547642E-008	0.1071301	8
	4	3	398109.4	2674.788	-3415.555	1	4338.261	-51.93481	5.188332E-008	0.107061	8
	5	3	316265.6	3121.679	-3871.468	1	4973.243	-51.11974	2.015784E-008	0.1070251	8
	6	3	251203.1	3673.29	-4370.562	1	5709.192	-49.95424	5.985557E-008	0.1070266	8
	7	4	199546.9	4343.433	-4908.806	1	6554.524	-48.4968	2.298803E-008	0.1070098	8
	8	4	158578.1	5150.326	-5438.355	1	7490.098	-46.55815	1.73411E-007	0.106992	8
	9	4	125953.1	6176.107	-5924.778	1	8558.463	-43.81017	-1.759235E-008	0.1070009	7
	10	5	100078.1	7261.523	-6378.505	1	9665.15	-41.296	9.269037E-009	0.106973	7
	11	5	79453.13	8467.874	-6671.592	1	10780.31	-38.23355	8.319692E-009	0.1069719	7
	12	5	63140.62	9736.14	-6833.468	1	11894.91	-35.06371	-5.901204E-010	0.106977	7
	13	6	50203.12	11030.43	-6878.97	1	12999.64	-31.94914	-2.025944E-009	0.1069586	7
	14	6	39890.62	12312.47	-6793.513	1	14062.32	-28.8881	1.937882E-009	0.1069559	7
	15	6	31640.63	13557.15	-6585.709	1	15072.09	-25.90928	1.044998E-008	0.10695	7
	16	7	25171.88	14667.78	-6187.011	1	15919.26	-22.87049	-5.815367E-009	0.1069732	7
	17	7	20015.62	15725.02	-5795.359	1	16758.96	-20.23105	1.484076E-009	0.1069527	7
	18	7	15890.62	16607.11	-5283.466	1	17427.31	-17.6482	-5.212785E-009	0.1069606	7
	19	8	12609.37	17420.15	-4606.655	1	18018.96	-14.81246	8.551377E-010	0.1069284	6
	20	8	10078.13	17993.97	-4140.737	1	18464.26	-12.95918	1.5507E-009	0.1069338	6
	21	8	8015.625	18447.8	-3697.043	1	18814.61	-11.33228	1.638835E-009	0.1069257	6
	22	9	6328.125	18850.93	-3327.251	1	19142.31	-10.0098	1.381768E-009	0.1069389	6
	23	9	5015.625	19077.39	-3019.785	1	19314.91	-8.994795	4.561822E-010	0.1069467	6
	24	9	3984.375	19264.38	-2826.417	1	19470.62	-8.346732	-1.591731E-009	0.106959	6
	25	9	3170.956	19452.93	-2734.304	1	19644.16	-8.001077	-4.172118E-010	0.106962	6
	26	10	2527.573	19707.88	-2756.725	1	19899.75	-7.962829	-1.432338E-009	0.1069715	6
	27	10	1976.103	19753.34	-2872.73	1	19961.14	-8.274521	-1.056039E-010	0.106939	6
	28	10	1577.524	19927.32	-3108.193	1	20168.26	-8.86536	1.436155E-009	0.1069272	6
	29	11	1265.625	20023.68	-3446.652	1	20318.14	-9.76655	1.146433E-009	0.1069376	6
	30	11	998.264	20225.29	-3961.383	1	20609.58	-11.08183	-1.541704E-009	0.1069626	6
	31	11	796.875	20461.75	-4607.693	1	20974.13	-12.69051	-1.930362E-009	0.1069646	6
	32	12	627.7902	20682.86	-5479.351	1	21396.35	-14.83807	1.595155E-009	0.1069234	6
	33	12	505.5147	20897.47	-6472.549	1	21876.89	-17.20926	1.469291E-009	0.106927	6
	34	12	397.9953	21320.9	-7835.308	1	22715.03	-20.17809	2.709268E-010	0.1069703	6
	35	13	315.5048	21825.01	-9459.836	1	23786.96	-23.43384	2.191344E-010	0.1069676	6
	36	13	252.4038	22363.92	-11359.83	1	25083.68	-26.92845	2.45237E-010	0.106961	6
	37	13	198.6229	23195.49	-13836.35	1	27008.8	-30.81652	3.49561E-010	0.1069642	6
	38	14	158.3615	24164.9	-16652.34	1	29346.94	-34.57123	9.233036E-011	0.1069662	6
	39	14	125.558	25310.03	-20126.38	1	32336.8	-38.49152	1.705889E-010	0.1069654	6
	40	14	100.4464	26862	-24094.48	1	36084.78	-41.89124	4.939419E-010	0.1069628	6
	41	15	79.00281	28834.84	-29204.62	1	41040.92	-45.36504	2.194633E-010	0.1069582	6
	42	15	63.3446	31220.62	-34780.7	1	46737.82	-48.08751	3.027509E-010	0.1069567	6
	43	15	49.86702	34493.02	-41886.53	1	54260.94	-50.52898	7.333578E-011	0.1069554	6
	44	16	39.72458	38479.25	-49772.48	1	62912.27	-52.29229	1.311561E-010	0.1069582	6
	45	16	31.6723	43440.53	-58818.05	1	73120.74	-53.55199	3.987068E-011	0.1069563	6
	46	16	24.93351	49951.71	-69745.16	1	85787.88	-54.38964	2.394537E-010	0.1069521	6
	47	17	19.86229	57565.59	-81545.52	1	99817.2	-54.78051	-8.553108E-010	0.1069558	6
	48	17	15.83615	66858.7	-94496.8	1	115757.2	-54.7197	1.407222E-009	0.1069431	5
	49	17	12.40079	78543.83	-110350.4	1	135448.7	-54.55797	1.752886E-009	0.1069428	5
	50	17	9.93114	91033.46	-125972.3	1	155422.3	-54.14636	1.821533E-009	0.1069446	5
	51	18	7.944915	105183.4	-143933.8	1	178270.8	-53.84156	7.105857E-010	0.1069425	5
	52	18	6.317385	122081.5	-163978.3	1	204432.8	-53.33239	-8.349447E-011	0.1069513	5
	53	19	5.008013	141031.4	-186320.5	1	233677.5	-52.87685	3.224566E-010	0.1069541	5
	54	20	3.945707	162430.9	-212450.7	1	267430.5	-52.59998	4.566136E-010	0.1069424	5
	55	21	3.158693	183724.1	-239701.1	1	302011.9	-52.53085	1.785771E-010	0.1069637	5
	56	22	2.504006	207907.6	-273158.9	1	343280.3	-52.72439	-1.076836E-010	0.1069396	5
	57	23	1.998082	232386.1	-310722.7	1	388010.1	-53.20759	1.077824E-010	0.1069545	5
	58	25	1.584686	260799	-358040.7	1	442955.2	-53.93018	1.922913E-010	0.1069802	5
	59	27	1.266892	289803.1	-413326.7	1	504801.7	-54.96387	1.430211E-010	0.1069521	5
	60	29	0.999041	325104.1	-483269.8	1	582445.1	-56.07058	1.120609E-010	0.1069296	5
