EXPLAIN
TAG	EISPOT
TITLE	LABEL	Potentiostatic EIS	Test &Identifier
DATE	LABEL	1/7/2020	Date
TIME	LABEL	16:02:11	Time
NOTES	NOTES	5	&Notes...
	
	
	
	
	
PSTAT	PSTAT	REF600-11020	Potentiostat
VDC	POTEN	0.00000E+000	T	DC &Voltage (V)
FREQINIT	QUANT	1.00000E+006	Initial Fre&q. (Hz)
FREQFINAL	QUANT	1.00000E+000	Final Fre&q. (Hz)
PTSPERDEC	QUANT	1.00000E+001	Points/&decade
VAC	QUANT	2.50000E+001	AC &Voltage (mV rms)
AREA	QUANT	1.00000E-001	&Area (cm^2)
CONDIT	TWOPARAM	T	5.00000E+000	0.00000E+000	Conditionin&g	Time(s)	E(V)
DELAY	TWOPARAM	T	5.00000E+000	0.00000E+000	Init. De&lay	Time(s)	Stab.(mV/s)
SPEED	SELECTOR	0	&Optimize for:
ZGUESS	QUANT	1.00000E+003	E&stimated Z (ohms)
OCVCURVE	TABLE	19
	Pt	T	Vf	Vm	Ach	Over
	#	s	V vs. Ref.	V	V	bits
	0	0.258333	2.85128E-002	2.85128E-002	6.47513E-004	...........
	1	0.516667	2.85466E-002	3.02830E-002	6.50780E-004	...........
	2	0.775	2.87092E-002	2.96058E-002	6.50013E-004	...........
	3	1.03333	2.90278E-002	2.93696E-002	6.50713E-004	...........
	4	1.29167	2.93441E-002	2.92195E-002	6.48613E-004	...........
	5	1.55	2.94803E-002	2.89914E-002	6.52746E-004	...........
	6	1.80833	2.94117E-002	2.83777E-002	6.49846E-004	...........
	7	2.06667	2.92031E-002	2.84936E-002	6.58513E-004	...........
	8	2.325	2.89409E-002	2.88238E-002	6.56080E-004	...........
	9	2.58333	2.87401E-002	2.90026E-002	6.53546E-004	...........
	10	2.84167	2.86739E-002	2.84137E-002	6.52980E-004	...........
	11	3.1	2.86921E-002	2.86743E-002	6.53179E-004	...........
	12	3.35833	2.87074E-002	2.90784E-002	6.49280E-004	...........
	13	3.61667	2.87233E-002	2.89630E-002	6.46980E-004	...........
	14	3.875	2.87867E-002	2.91449E-002	6.48346E-004	...........
	15	4.13333	2.88918E-002	2.92002E-002	6.49746E-004	...........
	16	4.39167	2.89979E-002	2.89806E-002	6.38680E-004	...........
	17	4.65	2.90683E-002	2.89966E-002	6.47413E-004	...........
	18	4.90833	2.90818E-002	2.88936E-002	6.46880E-004	...........
EOC	QUANT	0.0290818	Open Circuit (V)
PSTATMODEL	IQUANT	4	Pstat Model
PSTATSECTION	LABEL	REF600-11020	Pstat Section
PSTATSERIALNO	LABEL	11020	Pstat Serial Number
CTRLMODE	IQUANT	1	Control Mode
IESTAB	IQUANT	0	I/E Stability
CASPEED	IQUANT	1	Control Amp Speed
CONVENTION	IQUANT	1	Current Convention
ICHRANGE	IQUANT	2	Ich Range
ICHRANGEMODE	TOGGLE	F	Ich Auto Range
ICHOFFSETENABLE	TOGGLE	T	Ich Offset Enable
ICHOFFSET	QUANT	0	Ich Offset (V)
ICHFILTER	IQUANT	3	Ich Filter
VCHRANGE	IQUANT	2	Vch Range
VCHRANGEMODE	TOGGLE	F	Vch Auto Range
VCHOFFSETENABLE	TOGGLE	T	Vch Offset Enable
VCHOFFSET	QUANT	0	Vch Offset (V)
VCHFILTER	IQUANT	3	Vch Filter
ACHRANGE	IQUANT	2	Ach Range
ACHOFFSETENABLE	TOGGLE	F	Ach Offset Enable
ACHOFFSET	QUANT	0	Ach Offset (V)
ACHFILTER	IQUANT	3	Ach Filter
IERANGELOWERLIMIT	IQUANT	1	I/E Range Lower Limit
IERANGEMODE	TOGGLE	F	I/E AutoRange
IERANGE	IQUANT	7	I/E Range
POSFEEDENABLE	TOGGLE	F	Positive Feedback IR Comp
POSFEEDRESISTANCE	QUANT	0	Positive Feedback Resistance (ohm)
ACHSELECT	IQUANT	0	Ach Select
CABLEID	IQUANT	14	Cable ID
DCCALDATE	LABEL	12/22/2019	DC Calibration Date
ACCALDATE	LABEL	12/22/2019	AC Calibration Date
THERMOSELECT	IQUANT	1	Thermo Select
FRAMEWORKVERSION	QUANT	6.33	Framework Version
INSTRUMENTVERSION	LABEL	3.50	Instrument Version
ZCURVE	TABLE
	Pt	Time	Freq	Zreal	Zimag	Zsig	Zmod	Zphz	Idc	Vdc	IERange
	#	s	Hz	ohm	ohm	V	ohm	°	A	V	#
	0	1	1000078	1022.928	-8718.903	1	8778.705	-83.30848	4.747874E-006	0.0307888	8
	1	2	794390.6	1683.266	-10859.71	1	10989.39	-81.18921	1.308611E-005	0.0283523	8
	2	2	630984.4	1638.862	-13473.07	1	13572.38	-83.06462	3.189793E-006	0.0300105	8
	3	3	501234.4	2233.367	-17012.68	1	17158.65	-82.52117	4.076452E-006	0.0298966	8
	4	3	398109.4	15298.14	-40899.68	1	43667.11	-69.49216	5.994078E-007	0.0313595	8
	5	4	316265.6	3919.212	-26027.88	1	26321.3	-81.43688	-4.132889E-007	0.0303087	8
	6	4	251203.1	5423.935	-31823.79	1	32282.71	-80.32765	1.483079E-008	0.0303899	8
	7	4	199546.9	7711.485	-38028.76	1	38802.75	-78.53697	1.051666E-006	0.0303625	8
	8	5	158578.1	8118.656	-48624.05	1	49297.17	-80.52089	-3.798766E-006	0.0313599	8
	9	5	125953.1	13306.27	-62918.51	1	64310.15	-78.0588	-8.636985E-007	0.0335966	7
	10	6	100078.1	14883.31	-72263.96	1	73780.71	-78.36223	2.153435E-007	0.0302026	7
	11	6	79453.13	19284.81	-90033.63	1	92075.83	-77.91018	-3.612982E-008	0.0304128	7
	12	7	63140.62	24236.38	-106617.3	1	109337.3	-77.19308	1.481742E-007	0.0301921	7
	13	7	50203.12	31366.88	-128996.1	1	132755	-76.33311	1.508685E-007	0.0301846	7
	14	8	39890.62	37588.29	-153959.9	1	158482	-76.28001	-1.223864E-007	0.0306404	7
	15	8	31640.63	44647.76	-187834.6	1	193068	-76.62909	-6.639716E-008	0.0306158	7
	16	8	25171.88	54941.88	-225847.8	1	232434.6	-76.32728	-3.649728E-008	0.0304004	7
	17	9	20015.62	57961.94	-275201.8	1	281239.4	-78.10641	-1.069884E-007	0.0307936	7
	18	9	15890.62	74161.45	-333314.3	1	341465	-77.45618	-6.623449E-008	0.0304481	7
	19	9	12609.37	97147	-411336.9	1	422653	-76.71174	8.839233E-009	0.0306372	6
	20	10	10078.13	106025.1	-503126.2	1	514176.3	-78.10002	9.477995E-009	0.0306321	6
	21	10	8015.625	116598.1	-621886.3	1	632722.4	-79.38084	7.587943E-009	0.0302139	6
	22	10	6328.125	130420	-756228.1	1	767391.9	-80.21495	3.473655E-008	0.0300456	6
	23	11	5015.625	166812.8	-943343.5	1	957979	-79.97197	2.26318E-010	0.0303934	6
	24	11	3984.375	202481	-1170885	1	1188264	-80.18888	3.447446E-008	0.0300457	6
	25	12	3170.956	255694.8	-1472386	1	1494423	-80.14825	1.048563E-009	0.0303918	6
	26	12	2527.573	323062	-1757285	1	1786734	-79.58297	3.459768E-008	0.0300449	6
	27	12	1976.103	251597.2	-2168904	1	2183448	-83.38315	1.803294E-008	0.0300661	6
	28	13	1577.524	608124.1	-2691556	1	2759400	-77.26849	-1.702685E-008	0.0306489	6
	29	13	1265.625	744430.6	-3251975	1	3336093	-77.10621	1.391734E-009	0.0300579	5
	30	14	998.264	1054886	-4118023	1	4250988	-75.63189	3.755515E-010	0.0302336	5
	31	14	796.875	1516893	-4972967	1	5199169	-73.03683	-2.029338E-009	0.0306738	5
	32	14	627.7902	1912566	-6252167	1	6538157	-72.99089	-1.636485E-009	0.0306715	5
	33	15	505.5147	2762909	-7703839	1	8184302	-70.27011	1.416983E-009	0.0300577	5
	34	15	397.9953	2912076	-9177821	1	9.628737E+006	-72.39603	2.989442E-011	0.0304559	5
	35	16	315.5048	4046483	-1.032572E+007	1	1.109029E+007	-68.60059	-1.321915E-010	0.0304535	5
	36	16	252.4038	5787822	-1.247988E+007	1	1.375668E+007	-65.11944	-3.048463E-010	0.0304509	5
	37	16	198.6229	8442118	-1.356988E+007	1	1.598158E+007	-58.11336	1.327051E-010	0.030452	5
	38	17	158.3615	1.020775E+007	-1.432258E+007	1	1.75879E+007	-54.52241	5.114263E-010	0.030449	5
	39	17	125.558	1.729132E+007	-1.635709E+007	1	2.380219E+007	-43.40962	-9.176318E-012	0.0304996	4
	40	18	100.4464	2.504028E+007	-5.582004E+007	1	6.117918E+007	-65.8395	6.485523E-010	0.0304915	4
	41	18	79.00281	1.877957E+007	7236309	1	2.012552E+007	21.0731	-2.190775E-010	0.0304465	5
	42	19	63.3446	-3435201	-6254596	1	7135865	-118.7768	1.866959E-010	0.0304892	4
	43	19	49.86702	1.638695E+007	-1.411943E+007	1	2.163078E+007	-40.74906	5.565925E-011	0.0304457	5
	44	20	39.72458	4.777266E+007	8932237	1	4.860053E+007	10.59053	-4.164915E-011	0.0304954	4
	45	21	31.6723	1.877486E+007	-1.121996E+007	1	2.187197E+007	-30.86277	5.813293E-012	0.0304929	4
	46	21	24.93351	3.655937E+007	-8193022	1	3.746616E+007	-12.63139	1.202481E-010	0.0304873	4
	47	22	19.86229	2.874083E+007	-1.43147E+007	1	3.210835E+007	-26.47613	-9.290697E-011	0.0304906	4
	48	22	15.83615	9.855096E+006	-1.267473E+007	1	1.605527E+007	-52.13355	-6.132199E-010	0.030493	4
	49	22	12.40079	2.05137E+007	1.307002E+007	1	2.432359E+007	32.50267	5.177831E-010	0.0304891	4
	50	23	9.93114	3.287492E+007	5199249	1	3.328352E+007	8.987032	-5.325897E-011	0.0304911	4
	51	24	7.944915	2.850866E+007	-4892252	1	2.892539E+007	-9.73744	3.094038E-010	0.0304922	4
	52	25	6.317385	4.035994E+007	-4551606	1	4.061578E+007	-6.434365	9.978567E-011	0.0304889	4
	53	26	5.008013	3.791943E+007	-3000218	1	3.803793E+007	-4.523868	1.419992E-010	0.0304809	4
	54	27	3.945707	4.212877E+007	-3513203	1	4.2275E+007	-4.766982	1.088518E-010	0.0304882	4
	55	29	3.158693	4.293538E+007	-3634985	1	4.308897E+007	-4.839221	9.11146E-011	0.0304869	4
	56	31	2.504006	8.826062E+007	-6450260	1	8.8496E+007	-4.179858	6.788915E-011	0.0304414	3
	57	33	1.998082	8.836311E+007	-4508023	1	8.847803E+007	-2.920528	8.593436E-011	0.0303869	3
	58	36	1.584686	9.174505E+007	-5300032	1	9.189801E+007	-3.306253	7.376704E-011	0.0304109	3
	59	39	1.266892	9.071111E+007	-4683138	1	9.083192E+007	-2.955383	8.428895E-011	0.0304436	3
	60	41	0.999041	9.221759E+007	-4952738	1	9.23505E+007	-3.074235	9.011871E-011	0.0304641	3
