EXPLAIN
TAG	EISPOT
TITLE	LABEL	Potentiostatic EIS	Test &Identifier
DATE	LABEL	6/14/2020	Date
TIME	LABEL	21:01:04	Time
NOTES	NOTES	1	&Notes...
	
PSTAT	PSTAT	REF600-10037	Potentiostat
VDC	POTEN	0.00000E+000	T	DC &Voltage (V)
FREQINIT	QUANT	1.00000E+006	Initial Fre&q. (Hz)
FREQFINAL	QUANT	1.00000E+000	Final Fre&q. (Hz)
PTSPERDEC	QUANT	1.00000E+001	Points/&decade
VAC	QUANT	2.50000E+001	AC &Voltage (mV rms)
AREA	QUANT	2.50000E-001	&Area (cm^2)
CONDIT	TWOPARAM	F	5.00000E+000	0.00000E+000	Conditionin&g	Time(s)	E(V)
DELAY	TWOPARAM	F	3.00000E+000	0.00000E+000	Init. De&lay	Time(s)	Stab.(mV/s)
SPEED	SELECTOR	0	&Optimize for:
ZGUESS	QUANT	1.00000E+003	E&stimated Z (ohms)
OCVCURVE	TABLE	39
	Pt	T	Vf	Vm	Ach	Over
	#	s	V vs. Ref.	V	V	bits
	0	0.258333	-9.17638E-002	-9.17638E-002	5.74953E-004	...........
	1	0.516667	-9.17644E-002	-9.17954E-002	5.73187E-004	...........
	2	0.775	-9.17683E-002	-9.18360E-002	5.69953E-004	...........
	3	1.03333	-9.17798E-002	-9.18634E-002	5.70353E-004	...........
	4	1.29167	-9.18009E-002	-9.18982E-002	5.78620E-004	...........
	5	1.55	-9.18293E-002	-9.19281E-002	5.73720E-004	...........
	6	1.80833	-9.18612E-002	-9.19622E-002	5.71753E-004	...........
	7	2.06667	-9.18939E-002	-9.19972E-002	5.81220E-004	...........
	8	2.325	-9.19268E-002	-9.20218E-002	5.81253E-004	...........
	9	2.58333	-9.19594E-002	-9.20591E-002	5.73753E-004	...........
	10	2.84167	-9.19913E-002	-9.20840E-002	5.77820E-004	...........
	11	3.1	-9.20225E-002	-9.21106E-002	5.73520E-004	...........
	12	3.35833	-9.20528E-002	-9.21511E-002	5.72720E-004	...........
	13	3.61667	-9.20827E-002	-9.21741E-002	5.68687E-004	...........
	14	3.875	-9.21128E-002	-9.21996E-002	5.69987E-004	...........
	15	4.13333	-9.21427E-002	-9.22355E-002	5.74320E-004	...........
	16	4.39167	-9.21719E-002	-9.22565E-002	5.69220E-004	...........
	17	4.65	-9.22005E-002	-9.22800E-002	5.66087E-004	...........
	18	4.90833	-9.22281E-002	-9.23135E-002	5.70653E-004	...........
	19	5.16667	-9.22549E-002	-9.23333E-002	5.74720E-004	...........
	20	5.425	-9.22812E-002	-9.23592E-002	5.72653E-004	...........
	21	5.68333	-9.23073E-002	-9.23906E-002	5.69053E-004	...........
	22	5.94167	-9.23332E-002	-9.24145E-002	5.71087E-004	...........
	23	6.2	-9.23594E-002	-9.24352E-002	5.74887E-004	...........
	24	6.45833	-9.23856E-002	-9.24692E-002	5.72787E-004	...........
	25	6.71667	-9.24115E-002	-9.24885E-002	5.72153E-004	...........
	26	6.975	-9.24372E-002	-9.25123E-002	5.76020E-004	...........
	27	7.23333	-9.24626E-002	-9.25414E-002	5.73753E-004	...........
	28	7.49167	-9.24876E-002	-9.25638E-002	5.79720E-004	...........
	29	7.75	-9.25124E-002	-9.25838E-002	5.73320E-004	...........
	30	8.00833	-9.25370E-002	-9.26184E-002	5.76920E-004	...........
	31	8.26667	-9.25617E-002	-9.26403E-002	5.81587E-004	...........
	32	8.525	-9.25868E-002	-9.26599E-002	5.74287E-004	...........
	33	8.78333	-9.26119E-002	-9.26813E-002	5.66487E-004	...........
	34	9.04167	-9.26360E-002	-9.27086E-002	5.78020E-004	...........
	35	9.3	-9.26591E-002	-9.27269E-002	5.77520E-004	...........
	36	9.5583	-9.26816E-002	-9.27465E-002	5.75487E-004	...........
	37	9.8167	-9.27039E-002	-9.27793E-002	5.74653E-004	...........
	38	10.075	-9.27263E-002	-9.27983E-002	5.75487E-004	...........
EOC	QUANT	-0.0927263	Open Circuit (V)
PSTATMODEL	IQUANT	4	Pstat Model
PSTATSECTION	LABEL	REF600-10037	Pstat Section
PSTATSERIALNO	LABEL	10037	Pstat Serial Number
CTRLMODE	IQUANT	1	Control Mode
IESTAB	IQUANT	0	I/E Stability
CASPEED	IQUANT	1	Control Amp Speed
CONVENTION	IQUANT	1	Current Convention
ICHRANGE	IQUANT	2	Ich Range
ICHRANGEMODE	TOGGLE	F	Ich Auto Range
ICHOFFSETENABLE	TOGGLE	T	Ich Offset Enable
ICHOFFSET	QUANT	0	Ich Offset (V)
ICHFILTER	IQUANT	3	Ich Filter
VCHRANGE	IQUANT	2	Vch Range
VCHRANGEMODE	TOGGLE	F	Vch Auto Range
VCHOFFSETENABLE	TOGGLE	T	Vch Offset Enable
VCHOFFSET	QUANT	0	Vch Offset (V)
VCHFILTER	IQUANT	3	Vch Filter
ACHRANGE	IQUANT	2	Ach Range
ACHOFFSETENABLE	TOGGLE	F	Ach Offset Enable
ACHOFFSET	QUANT	0	Ach Offset (V)
ACHFILTER	IQUANT	3	Ach Filter
IERANGELOWERLIMIT	IQUANT	1	I/E Range Lower Limit
IERANGEMODE	TOGGLE	F	I/E AutoRange
IERANGE	IQUANT	8	I/E Range
POSFEEDENABLE	TOGGLE	F	Positive Feedback IR Comp
POSFEEDRESISTANCE	QUANT	0	Positive Feedback Resistance (ohm)
ACHSELECT	IQUANT	0	Ach Select
CABLEID	IQUANT	14	Cable ID
DCCALDATE	LABEL	6/8/2020	DC Calibration Date
ACCALDATE	LABEL	6/8/2020	AC Calibration Date
THERMOSELECT	IQUANT	1	Thermo Select
FRAMEWORKVERSION	QUANT	6.33	Framework Version
INSTRUMENTVERSION	LABEL	3.50	Instrument Version
ZCURVE	TABLE
	Pt	Time	Freq	Zreal	Zimag	Zsig	Zmod	Zphz	Idc	Vdc	IERange
	#	s	Hz	ohm	ohm	V	ohm	°	A	V	#
	0	1	1000078	1780.022	-2054.167	1	2718.102	-49.08969	-3.341963E-007	-0.0835899	8
	1	2	794390.6	2143.504	-2258.162	1	3113.503	-46.49214	1.210951E-007	-0.0838641	8
	2	2	630984.4	2554.61	-2423.445	1	3521.238	-43.49069	4.125398E-007	-0.0840827	8
	3	2	501234.4	2993.389	-2552.116	1	3933.659	-40.45039	5.166129E-007	-0.0841556	8
	4	3	398109.4	3452.089	-2640.33	1	4346.063	-37.41056	3.216595E-007	-0.0841274	8
	5	3	316265.6	3909.005	-2694.03	1	4747.433	-34.57405	-3.201111E-007	-0.0841249	8
	6	3	251203.1	4359.076	-2694.309	1	5124.534	-31.71987	7.970921E-008	-0.0841515	8
	7	4	199546.9	4780.268	-2690.719	1	5485.521	-29.37431	4.027239E-007	-0.0842105	8
	8	4	158578.1	5187.64	-2662.87	1	5831.165	-27.17191	6.460503E-008	-0.0841441	8
	9	4	125953.1	5727.852	-2458.892	1	6233.333	-23.23321	-1.850056E-007	-0.0838807	7
	10	4	100078.1	6057.854	-2468.773	1	6541.593	-22.1725	8.591809E-008	-0.0842369	7
	11	5	79453.13	6383.817	-2494.018	1	6853.703	-21.33951	-7.300328E-008	-0.0841176	7
	12	5	63140.62	6700.9	-2538.259	1	7165.53	-20.74638	1.312425E-008	-0.0841153	7
	13	5	50203.12	7018.58	-2610.618	1	7488.376	-20.40309	8.334413E-008	-0.0842749	7
	14	6	39890.62	7343.578	-2707.641	1	7826.842	-20.23937	-8.397993E-008	-0.0840994	7
	15	6	31640.63	7677.883	-2835.537	1	8184.751	-20.26981	-8.396209E-008	-0.0841032	7
	16	6	25171.88	8021.292	-2998.031	1	8563.253	-20.49369	-7.268917E-008	-0.0841306	7
	17	7	20015.62	8381.711	-3192.969	1	8969.288	-20.85408	9.623625E-009	-0.0842599	7
	18	7	15890.62	8766.787	-3432.113	1	9414.667	-21.37987	3.793591E-008	-0.0842797	7
	19	7	12609.37	9387.147	-3403.794	1	9985.21	-19.93073	-1.367051E-008	-0.0840446	6
	20	8	10078.13	9776.03	-3767.301	1	10476.8	-21.07471	-7.819454E-009	-0.084175	6
	21	8	8015.625	10217.79	-4191.883	1	11044.24	-22.30606	3.984551E-009	-0.0843332	6
	22	8	6328.125	10729.64	-4688.321	1	11709.21	-23.60295	1.32351E-008	-0.0843215	6
	23	9	5015.625	11284.21	-5240.753	1	12441.82	-24.91167	4.084555E-009	-0.0843338	6
	24	9	3984.375	11892.57	-5865.212	1	13260.24	-26.25173	1.055084E-008	-0.0843534	6
	25	9	3170.956	12558.18	-6575.269	1	14175.41	-27.63585	-1.138944E-008	-0.0841072	6
	26	10	2527.573	13292.55	-7380.906	1	15204.26	-29.04194	-8.086059E-009	-0.084175	6
	27	10	1976.103	14185.22	-8390.016	1	16480.68	-30.6027	1.045427E-008	-0.0843568	6
	28	10	1577.524	15091.8	-9455.018	1	17808.98	-32.06716	-1.016226E-008	-0.0839806	6
	29	10	1265.625	16080.93	-10657.58	1	19291.98	-33.53428	5.840971E-011	-0.0842964	6
	30	11	998.264	17282.38	-12151.14	1	21126.54	-35.11084	1.30943E-008	-0.0843218	6
	31	11	796.875	18585.73	-13786.91	1	23141.05	-36.56805	6.630796E-009	-0.08415	6
	32	11	627.7902	20144.15	-15790.09	1	25595.2	-38.0913	-9.925491E-009	-0.0839776	6
	33	12	505.5147	21739.86	-17916.74	1	28171.46	-39.49339	-1.386043E-008	-0.0840462	6
	34	12	397.9953	23825.19	-20528.18	1	31449.1	-40.74873	5.46713E-010	-0.0841642	6
	35	12	315.5048	26122.84	-23455.96	1	35108.19	-41.92098	7.065638E-010	-0.0841646	6
	36	13	252.4038	28635.86	-26642.68	1	39113.23	-42.93498	6.959716E-010	-0.0841675	6
	37	13	198.6229	31668.06	-30523.29	1	43983.37	-43.94546	6.268179E-010	-0.0841672	6
	38	13	158.3615	34871.23	-34702.04	1	49195.88	-44.86067	6.409627E-010	-0.0841693	6
	39	14	125.558	38483.29	-39617.93	1	55231.73	-45.83232	5.609318E-010	-0.0841661	6
	40	14	100.4464	42305.03	-45096.89	1	61834.01	-46.82957	7.034608E-010	-0.0841679	6
	41	14	79.00281	46843.94	-52084.92	1	70051.37	-48.03254	7.639559E-010	-0.0841685	6
	42	15	63.3446	51288.91	-59682	1	78692.4	-49.32523	5.865692E-010	-0.0841674	6
	43	15	49.86702	57016.46	-69460.28	1	89864.38	-50.61914	6.344737E-010	-0.0841677	6
	44	15	39.72458	63373.97	-80422.27	1	102391.4	-51.76136	8.480931E-012	-0.0841559	5
	45	16	31.6723	70530.39	-93495.27	1	117114.9	-52.97005	1.750478E-010	-0.0841594	5
	46	16	24.93351	79325.99	-109851.3	1	135498.8	-54.16614	-7.106555E-011	-0.0841597	5
	47	16	19.86229	88948.1	-128572	1	156341.1	-55.32392	-3.404907E-009	-0.0927984	5
	48	17	15.83615	100059.7	-149912.2	1	180237.7	-56.27865	-2.286586E-009	-0.092808	5
	49	17	12.40079	115031.8	-177354	1	211392.5	-57.03256	-1.858808E-009	-0.0928056	5
	50	17	9.93114	130607	-206588.1	1	244411.2	-57.69853	-1.454835E-009	-0.0928021	5
	51	18	7.944915	148633.5	-240790.2	1	282969.6	-58.31405	-1.103571E-009	-0.0927999	5
	52	18	6.317385	170983.1	-282402.5	1	330130.9	-58.80681	-8.179355E-010	-0.0927984	5
	53	19	5.008013	197792.1	-331889.7	1	386358	-59.20686	-6.151237E-010	-0.0928038	5
	54	20	3.945707	230763.3	-391521.8	1	454467.9	-59.48486	-4.425441E-010	-0.0928066	5
	55	21	3.158693	268539.9	-456629.4	1	529739.6	-59.54058	-3.798928E-010	-0.0928072	5
	56	23	2.504006	316880.1	-535449.9	1	622189.4	-59.38289	-2.557015E-010	-0.0928109	5
	57	24	1.998082	372609.5	-622897.4	1	725836.8	-59.11266	-1.785335E-010	-0.0928158	5
	58	26	1.584686	440896.6	-724710.8	1	848289.8	-58.68468	-1.030408E-010	-0.0928127	5
	59	29	1.266892	518885.4	-835429.9	1	983456	-58.15559	-5.660625E-011	-0.0928115	5
	60	32	0.999041	616219.3	-968154	1	1147628	-57.52371	-6.853263E-011	-0.0928197	4
