EXPLAIN
TAG	EISPOT
TITLE	LABEL	Potentiostatic EIS	Test &Identifier
DATE	LABEL	1/25/2020	Date
TIME	LABEL	14:14:54	Time
NOTES	NOTES	6	&Notes...
	
	
	
	
	
	
PSTAT	PSTAT	REF600-11020	Potentiostat
VDC	POTEN	0.00000E+000	T	DC &Voltage (V)
FREQINIT	QUANT	1.00000E+006	Initial Fre&q. (Hz)
FREQFINAL	QUANT	1.00000E+000	Final Fre&q. (Hz)
PTSPERDEC	QUANT	1.00000E+001	Points/&decade
VAC	QUANT	2.50000E+001	AC &Voltage (mV rms)
AREA	QUANT	1.00000E-001	&Area (cm^2)
CONDIT	TWOPARAM	F	5.00000E+000	0.00000E+000	Conditionin&g	Time(s)	E(V)
DELAY	TWOPARAM	F	5.00000E+000	0.00000E+000	Init. De&lay	Time(s)	Stab.(mV/s)
SPEED	SELECTOR	0	&Optimize for:
ZGUESS	QUANT	5.00000E+002	E&stimated Z (ohms)
OCVCURVE	TABLE	39
	Pt	T	Vf	Vm	Ach	Over
	#	s	V vs. Ref.	V	V	bits
	0	0.258333	8.35668E-004	8.35668E-004	6.66779E-004	...........
	1	0.516667	8.32322E-004	6.60478E-004	6.61946E-004	...........
	2	0.775	8.11933E-004	5.02940E-004	6.62313E-004	...........
	3	1.03333	7.55902E-004	4.09574E-004	6.60546E-004	...........
	4	1.29167	6.62253E-004	3.58223E-004	6.60913E-004	...........
	5	1.55	5.50677E-004	2.03149E-004	6.56913E-004	...........
	6	1.80833	4.40220E-004	1.38505E-004	6.60379E-004	...........
	7	2.06667	3.35469E-004	2.61877E-005	6.57846E-004	...........
	8	2.325	2.37014E-004	6.97037E-005	6.54046E-004	...........
	9	2.58333	1.53118E-004	5.09124E-005	6.59913E-004	...........
	10	2.84167	9.40589E-005	1.59811E-006	6.56413E-004	...........
	11	3.1	5.77731E-005	-3.96839E-005	6.61613E-004	...........
	12	3.35833	3.23960E-005	3.48159E-005	6.60513E-004	...........
	13	3.61667	1.20630E-005	-6.93601E-005	6.61813E-004	...........
	14	3.875	-5.88488E-006	-1.54904E-004	6.59946E-004	...........
	15	4.13333	-3.24903E-005	-2.18570E-004	6.56780E-004	...........
	16	4.39167	-7.75890E-005	-2.62752E-004	6.59846E-004	...........
	17	4.65	-1.36582E-004	-2.97446E-004	6.59046E-004	...........
	18	4.90833	-1.96771E-004	-3.38023E-004	6.64979E-004	...........
	19	5.16667	-2.49832E-004	-3.77589E-004	6.60246E-004	...........
	20	5.425	-2.94644E-004	-3.89565E-004	6.59046E-004	...........
	21	5.68333	-3.32048E-004	-3.92188E-004	6.56313E-004	...........
	22	5.94167	-3.61500E-004	-4.27560E-004	6.58546E-004	...........
	23	6.2	-3.87861E-004	-6.48964E-004	6.62479E-004	...........
	24	6.45833	-4.33902E-004	-1.00507E-003	6.62579E-004	...........
	25	6.71667	-5.30961E-004	-9.85961E-004	6.67213E-004	...........
	26	6.975	-6.75617E-004	-8.82355E-004	6.65046E-004	...........
	27	7.23333	-8.12720E-004	-8.35776E-004	6.66979E-004	...........
	28	7.49167	-8.87840E-004	-8.38780E-004	6.65879E-004	...........
	29	7.75	-8.98340E-004	-8.59107E-004	6.65579E-004	...........
	30	8.00833	-8.79147E-004	-8.52756E-004	6.65913E-004	...........
	31	8.26667	-8.61142E-004	-8.66042E-004	6.62313E-004	...........
	32	8.525	-8.54540E-004	-8.77788E-004	6.64879E-004	...........
	33	8.78333	-8.57253E-004	-8.85000E-004	6.62679E-004	...........
	34	9.04167	-8.65177E-004	-9.03540E-004	6.61313E-004	...........
	35	9.3	-8.75915E-004	-9.26653E-004	6.64213E-004	...........
	36	9.5583	-8.88849E-004	-9.27319E-004	6.62413E-004	...........
	37	9.8167	-9.02478E-004	-9.07517E-004	6.63413E-004	...........
	38	10.075	-9.11960E-004	-8.69220E-004	6.65479E-004	...........
EOC	QUANT	-0.000912	Open Circuit (V)
PSTATMODEL	IQUANT	4	Pstat Model
PSTATSECTION	LABEL	REF600-11020	Pstat Section
PSTATSERIALNO	LABEL	11020	Pstat Serial Number
CTRLMODE	IQUANT	1	Control Mode
IESTAB	IQUANT	0	I/E Stability
CASPEED	IQUANT	1	Control Amp Speed
CONVENTION	IQUANT	1	Current Convention
ICHRANGE	IQUANT	2	Ich Range
ICHRANGEMODE	TOGGLE	F	Ich Auto Range
ICHOFFSETENABLE	TOGGLE	T	Ich Offset Enable
ICHOFFSET	QUANT	0	Ich Offset (V)
ICHFILTER	IQUANT	3	Ich Filter
VCHRANGE	IQUANT	2	Vch Range
VCHRANGEMODE	TOGGLE	F	Vch Auto Range
VCHOFFSETENABLE	TOGGLE	T	Vch Offset Enable
VCHOFFSET	QUANT	0	Vch Offset (V)
VCHFILTER	IQUANT	3	Vch Filter
ACHRANGE	IQUANT	2	Ach Range
ACHOFFSETENABLE	TOGGLE	F	Ach Offset Enable
ACHOFFSET	QUANT	0	Ach Offset (V)
ACHFILTER	IQUANT	3	Ach Filter
IERANGELOWERLIMIT	IQUANT	1	I/E Range Lower Limit
IERANGEMODE	TOGGLE	F	I/E AutoRange
IERANGE	IQUANT	6	I/E Range
POSFEEDENABLE	TOGGLE	F	Positive Feedback IR Comp
POSFEEDRESISTANCE	QUANT	0	Positive Feedback Resistance (ohm)
ACHSELECT	IQUANT	0	Ach Select
CABLEID	IQUANT	14	Cable ID
DCCALDATE	LABEL	12/22/2019	DC Calibration Date
ACCALDATE	LABEL	12/22/2019	AC Calibration Date
THERMOSELECT	IQUANT	1	Thermo Select
FRAMEWORKVERSION	QUANT	6.33	Framework Version
INSTRUMENTVERSION	LABEL	3.50	Instrument Version
ZCURVE	TABLE
	Pt	Time	Freq	Zreal	Zimag	Zsig	Zmod	Zphz	Idc	Vdc	IERange
	#	s	Hz	ohm	ohm	V	ohm	°	A	V	#
	0	1	1000078	1910.09	-1763.562	1	2599.729	-42.7159	1.24856E-007	0.0008801	8
	1	1	794390.6	2186.237	-1852.261	1	2865.398	-40.27251	1.065358E-006	0.0006383	8
	2	1	630984.4	2439.813	-1946.232	1	3120.978	-38.57927	1.755538E-007	0.0005755	8
	3	2	501234.4	2685.15	-2053.838	1	3380.575	-37.41193	2.718042E-006	0.0001645	8
	4	2	398109.4	2927.045	-2194.652	1	3658.427	-36.86198	5.853289E-007	0.0004495	8
	5	2	316265.6	3181.306	-2355.274	1	3958.286	-36.51434	1.183908E-006	0.0002671	8
	6	3	251203.1	3445.059	-2574.632	1	4300.833	-36.77225	3.31097E-006	2.627751E-005	8
	7	3	199546.9	3745.213	-2854.213	1	4708.837	-37.3109	2.597386E-007	0.0004609	8
	8	3	158578.1	4096.742	-3190.807	1	5192.739	-37.91376	2.428895E-006	0.0001561	8
	9	4	125953.1	4550.374	-3560.453	1	5777.779	-38.0415	3.204437E-007	-0.0003546	7
	10	4	100078.1	5065.865	-3997.124	1	6452.905	-38.27453	-3.519301E-008	0.0006332	7
	11	4	79453.13	5736.638	-4460.884	1	7266.945	-37.8691	-2.85366E-008	0.0005936	7
	12	4	63140.62	6549.068	-4907.585	1	8183.806	-36.84629	1.293671E-008	0.0004979	7
	13	5	50203.12	7507.398	-5266.517	1	9170.454	-35.05005	-3.120367E-008	0.0005756	7
	14	5	39890.62	8595.44	-5467.902	1	10187.22	-32.46206	-8.101607E-010	0.0004991	7
	15	5	31640.63	9742.8	-5479.696	1	11178.07	-29.35495	-8.400878E-009	0.0005738	7
	16	6	25171.88	10832.94	-5281.931	1	12052.03	-25.99297	1.323179E-010	0.0004929	7
	17	6	20015.62	11823.93	-4940.039	1	12814.42	-22.67517	8.890722E-008	0.0004129	7
	18	6	15890.62	12642.67	-4483.061	1	13413.98	-19.52439	-8.06255E-009	0.0006193	7
	19	7	12609.37	13329.87	-3929.276	1	13896.93	-16.42406	1.121673E-008	0.0003423	6
	20	7	10078.13	13823.68	-3489.547	1	14257.31	-14.16735	-4.039264E-009	0.0006351	6
	21	7	8015.625	14178.18	-3099.948	1	14513.12	-12.33319	-3.731881E-009	0.0005912	6
	22	8	6328.125	14457.57	-2772.358	1	14720.98	-10.85516	3.155247E-009	0.0004246	6
	23	8	5015.625	14667.9	-2541.078	1	14886.38	-9.82841	-5.660097E-009	0.0006054	6
	24	8	3984.375	14832.86	-2399.008	1	15025.61	-9.187239	-3.024606E-009	0.0005921	6
	25	9	3170.956	14975.07	-2352.912	1	15158.79	-8.929419	8.722512E-009	0.0004478	6
	26	9	2527.573	15096.82	-2392.425	1	15285.21	-9.0049	1.009097E-008	0.0003598	6
	27	9	1976.103	15240.23	-2537.425	1	15450.03	-9.452761	-8.044799E-010	0.0004692	6
	28	10	1577.524	15377.67	-2775.257	1	15626.09	-10.23023	-4.284138E-009	0.0005961	6
	29	10	1265.625	15446.1	-3108.34	1	15755.76	-11.37811	-5.085045E-010	0.0005297	6
	30	10	998.264	15591.42	-3600.563	1	16001.76	-13.00349	-1.387537E-009	0.0006167	6
	31	10	796.875	15762.48	-4206.554	1	16314.13	-14.94236	8.110407E-009	0.00044	6
	32	11	627.7902	15941.17	-5029.64	1	16715.81	-17.51114	-5.996793E-009	0.0005969	6
	33	11	505.5147	16099.73	-5973.841	1	17172.3	-20.35749	1.86039E-009	0.0005534	6
	34	11	397.9953	16373.76	-7267.083	1	17913.97	-23.93284	8.426793E-010	0.0005369	6
	35	12	315.5048	16684.65	-8842.363	1	18882.93	-27.92224	4.163095E-010	0.0005386	6
	36	12	252.4038	17048.84	-10708.43	1	20132.89	-32.13305	2.653539E-010	0.0005343	6
	37	12	198.6229	17503.56	-13186.26	1	21914.65	-36.99244	6.540761E-010	0.0005323	6
	38	13	158.3615	18096.77	-16079.42	1	24208.28	-41.62187	5.633801E-010	0.0005329	6
	39	13	125.558	18872.19	-19711.99	1	27289.59	-46.24687	5.087918E-010	0.0005351	6
	40	13	100.4464	19802.71	-23969.48	1	31091.53	-50.43772	-1.02548E-010	0.0005306	6
	41	14	79.00281	21184.07	-29610.49	1	36408.05	-54.41914	9.554765E-011	0.0005321	6
	42	14	63.3446	22571.88	-35899.53	1	42405.96	-57.84031	3.706892E-010	0.0005235	6
	43	14	49.86702	24954.06	-44151.35	1	50715.35	-60.52515	3.067826E-010	0.0005218	6
	44	15	39.72458	28003.16	-53747.05	1	60604.64	-62.4797	2.60691E-010	0.0005284	6
	45	15	31.6723	31847.69	-65104.71	1	72476.88	-63.93321	1.290136E-010	0.0005252	6
	46	15	24.93351	37029.63	-79427.38	1	87635.05	-65.00472	8.27184E-010	0.0005249	6
	47	16	19.86229	43486.55	-95564.8	1	104993.9	-65.5322	1.289683E-009	0.0005288	5
	48	16	15.83615	52129.88	-114064.2	1	125412	-65.43854	5.079305E-010	0.0005243	5
	49	16	12.40079	64166.64	-138667.3	1	152794	-65.16823	9.573451E-010	0.0005223	5
	50	17	9.93114	77902.93	-163937.3	1	181505.7	-64.58295	6.490283E-010	0.0005289	5
	51	17	7.944915	94752.16	-192797	1	214822.4	-63.8277	-1.141429E-009	0.0005226	5
	52	17	6.317385	118316.2	-225921.4	1	255027.8	-62.35873	2.742176E-010	0.0005094	5
	53	18	5.008013	147010.8	-263157.1	1	301436.3	-60.8104	2.812403E-010	0.0005224	5
	54	19	3.945707	181822.5	-304299.6	1	354482.3	-59.14119	1.02797E-010	0.0005309	5
	55	20	3.158693	221029.5	-345042.2	1	409766	-57.35691	-1.319284E-010	0.0005135	5
	56	22	2.504006	267200.5	-389441	1	472292.7	-55.54548	9.3414E-011	0.0005123	5
	57	23	1.998082	315837.3	-435656.3	1	538098.2	-54.05905	2.340453E-010	0.0005452	5
	58	25	1.584686	369296.9	-484661.6	1	609325.1	-52.69374	5.033519E-011	0.0005038	5
	59	27	1.266892	425331	-538021.1	1	685837.6	-51.67197	-2.322888E-011	0.0004767	5
	60	29	0.999041	485734.1	-603076.8	1	774363.8	-51.1511	-5.087822E-011	0.0004731	5
