EXPLAIN
TAG	EISPOT
TITLE	LABEL	Potentiostatic EIS	Test &Identifier
DATE	LABEL	7/5/2020	Date
TIME	LABEL	17:45:33	Time
NOTES	NOTES	1	&Notes...
	
PSTAT	PSTAT	REF600-11020	Potentiostat
VDC	POTEN	0.00000E+000	T	DC &Voltage (V)
FREQINIT	QUANT	1.00000E+006	Initial Fre&q. (Hz)
FREQFINAL	QUANT	1.00000E+000	Final Fre&q. (Hz)
PTSPERDEC	QUANT	1.00000E+001	Points/&decade
VAC	QUANT	2.50000E+001	AC &Voltage (mV rms)
AREA	QUANT	4.00000E-004	&Area (cm^2)
CONDIT	TWOPARAM	F	5.00000E+000	0.00000E+000	Conditionin&g	Time(s)	E(V)
DELAY	TWOPARAM	F	3.00000E+000	0.00000E+000	Init. De&lay	Time(s)	Stab.(mV/s)
SPEED	SELECTOR	0	&Optimize for:
ZGUESS	QUANT	1.00000E+003	E&stimated Z (ohms)
OCVCURVE	TABLE	39
	Pt	T	Vf	Vm	Ach	Over
	#	s	V vs. Ref.	V	V	bits
	0	0.258333	7.93644E-002	7.93644E-002	5.07517E-004	...........
	1	0.516667	7.93643E-002	7.93633E-002	5.10617E-004	...........
	2	0.775	7.93641E-002	7.93575E-002	5.08117E-004	...........
	3	1.03333	7.93633E-002	7.93578E-002	5.05284E-004	...........
	4	1.29167	7.93617E-002	7.93538E-002	5.03584E-004	...........
	5	1.55	7.93595E-002	7.93543E-002	5.09650E-004	...........
	6	1.80833	7.93573E-002	7.93492E-002	5.11984E-004	...........
	7	2.06667	7.93551E-002	7.93485E-002	5.12484E-004	...........
	8	2.325	7.93528E-002	7.93448E-002	5.09050E-004	...........
	9	2.58333	7.93504E-002	7.93405E-002	5.10917E-004	...........
	10	2.84167	7.93477E-002	7.93388E-002	5.04717E-004	...........
	11	3.1	7.93448E-002	7.93365E-002	5.03150E-004	...........
	12	3.35833	7.93418E-002	7.93334E-002	5.03650E-004	...........
	13	3.61667	7.93390E-002	7.93308E-002	5.11784E-004	...........
	14	3.875	7.93363E-002	7.93281E-002	5.11150E-004	...........
	15	4.13333	7.93337E-002	7.93238E-002	5.05650E-004	...........
	16	4.39167	7.93309E-002	7.93245E-002	5.06784E-004	...........
	17	4.65	7.93282E-002	7.93223E-002	5.08117E-004	...........
	18	4.90833	7.93259E-002	7.93196E-002	5.08617E-004	...........
	19	5.16667	7.93238E-002	7.93159E-002	5.10650E-004	...........
	20	5.425	7.93218E-002	7.93187E-002	5.13817E-004	...........
	21	5.68333	7.93199E-002	7.93149E-002	5.10050E-004	...........
	22	5.94167	7.93183E-002	7.93145E-002	5.11817E-004	...........
	23	6.2	7.93169E-002	7.93130E-002	5.16817E-004	...........
	24	6.45833	7.93157E-002	7.93129E-002	5.15050E-004	...........
	25	6.71667	7.93145E-002	7.93104E-002	5.14217E-004	...........
	26	6.975	7.93134E-002	7.93096E-002	5.11884E-004	...........
	27	7.23333	7.93121E-002	7.93045E-002	5.18383E-004	...........
	28	7.49167	7.93106E-002	7.93062E-002	5.12950E-004	...........
	29	7.75	7.93087E-002	7.93024E-002	5.13550E-004	...........
	30	8.00833	7.93067E-002	7.92975E-002	5.10550E-004	...........
	31	8.26667	7.93045E-002	7.92974E-002	5.11150E-004	...........
	32	8.525	7.93020E-002	7.92950E-002	5.09784E-004	...........
	33	8.78333	7.92995E-002	7.92925E-002	5.12517E-004	...........
	34	9.04167	7.92972E-002	7.92928E-002	5.08317E-004	...........
	35	9.3	7.92952E-002	7.92893E-002	5.08584E-004	...........
	36	9.5583	7.92935E-002	7.92883E-002	5.15417E-004	...........
	37	9.8167	7.92918E-002	7.92872E-002	5.11184E-004	...........
	38	10.075	7.92902E-002	7.92872E-002	5.09450E-004	...........
EOC	QUANT	0.0792902	Open Circuit (V)
PSTATMODEL	IQUANT	4	Pstat Model
PSTATSECTION	LABEL	REF600-11020	Pstat Section
PSTATSERIALNO	LABEL	11020	Pstat Serial Number
CTRLMODE	IQUANT	1	Control Mode
IESTAB	IQUANT	0	I/E Stability
CASPEED	IQUANT	1	Control Amp Speed
CONVENTION	IQUANT	1	Current Convention
ICHRANGE	IQUANT	2	Ich Range
ICHRANGEMODE	TOGGLE	F	Ich Auto Range
ICHOFFSETENABLE	TOGGLE	T	Ich Offset Enable
ICHOFFSET	QUANT	0	Ich Offset (V)
ICHFILTER	IQUANT	3	Ich Filter
VCHRANGE	IQUANT	2	Vch Range
VCHRANGEMODE	TOGGLE	F	Vch Auto Range
VCHOFFSETENABLE	TOGGLE	T	Vch Offset Enable
VCHOFFSET	QUANT	0	Vch Offset (V)
VCHFILTER	IQUANT	3	Vch Filter
ACHRANGE	IQUANT	2	Ach Range
ACHOFFSETENABLE	TOGGLE	F	Ach Offset Enable
ACHOFFSET	QUANT	0	Ach Offset (V)
ACHFILTER	IQUANT	3	Ach Filter
IERANGELOWERLIMIT	IQUANT	1	I/E Range Lower Limit
IERANGEMODE	TOGGLE	F	I/E AutoRange
IERANGE	IQUANT	8	I/E Range
POSFEEDENABLE	TOGGLE	F	Positive Feedback IR Comp
POSFEEDRESISTANCE	QUANT	0	Positive Feedback Resistance (ohm)
ACHSELECT	IQUANT	0	Ach Select
CABLEID	IQUANT	14	Cable ID
DCCALDATE	LABEL	6/26/2020	DC Calibration Date
ACCALDATE	LABEL	6/26/2020	AC Calibration Date
THERMOSELECT	IQUANT	1	Thermo Select
FRAMEWORKVERSION	QUANT	6.33	Framework Version
INSTRUMENTVERSION	LABEL	3.50	Instrument Version
ZCURVE	TABLE
	Pt	Time	Freq	Zreal	Zimag	Zsig	Zmod	Zphz	Idc	Vdc	IERange
	#	s	Hz	ohm	ohm	V	ohm	°	A	V	#
	0	1	1000078	1454.194	-2366.165	1	2777.304	-58.42601	1.815215E-009	0.0817078	8
	1	1	794390.6	1784.032	-2725.232	1	3257.247	-56.78984	-3.803331E-008	0.0813548	8
	2	2	630984.4	2194.828	-3107.43	1	3804.391	-54.76582	5.53648E-008	0.0811616	8
	3	2	501234.4	2688.133	-3495.33	1	4409.466	-52.43741	3.645138E-008	0.0810929	8
	4	2	398109.4	3275.381	-3877.388	1	5075.653	-49.81092	5.578426E-008	0.0809934	8
	5	3	316265.6	3958.617	-4239.817	1	5800.577	-46.96443	5.169011E-008	0.0809579	8
	6	3	251203.1	4690.428	-4541.369	1	6528.717	-44.07496	8.263566E-008	0.0809462	8
	7	3	199546.9	5501.276	-4766.16	1	7278.758	-40.90479	4.725054E-008	0.0809747	8
	8	4	158578.1	6354.897	-4912.254	1	8032.121	-37.70356	-3.326055E-008	0.0809766	8
	9	4	125953.1	7250.079	-4974.373	1	8792.499	-34.45452	3.158121E-009	0.080939	7
	10	4	100078.1	8106.005	-5005.342	1	9526.84	-31.69473	-4.494772E-010	0.0809199	7
	11	5	79453.13	8912.733	-4972.651	1	10206.08	-29.15831	-8.001488E-010	0.0809152	7
	12	5	63140.62	9680.97	-4916.314	1	10857.78	-26.92294	-3.003474E-011	0.080919	7
	13	5	50203.12	10406.94	-4837.541	1	11476.33	-24.93079	-3.301862E-011	0.0809061	7
	14	5	39890.62	11090.09	-4771.603	1	12073.04	-23.2802	-5.316745E-010	0.0809103	7
	15	6	31640.63	11743.19	-4715.599	1	12654.62	-21.87843	-4.557216E-010	0.0809086	7
	16	6	25171.88	12366.86	-4698.068	1	13229.18	-20.80136	-1.925683E-010	0.0808993	7
	17	6	20015.62	12964.14	-4713.404	1	13794.39	-19.97987	-2.213195E-010	0.080908	7
	18	7	15890.62	13557.54	-4768.654	1	14371.74	-19.37854	7.034971E-010	0.0809001	7
	19	7	12609.37	14182.78	-4827.277	1	14981.78	-18.79662	-7.404331E-011	0.0808882	6
	20	7	10078.13	14758.07	-4990.54	1	15579.02	-18.68331	2.692789E-010	0.0808972	6
	21	8	8015.625	15357.29	-5214.005	1	16218.26	-18.75304	2.942803E-010	0.0808932	6
	22	8	6328.125	16003.95	-5513.679	1	16927.11	-19.00985	-5.294834E-011	0.0808967	6
	23	8	5015.625	16663.76	-5876.673	1	17669.64	-19.42581	-2.856989E-011	0.0808904	6
	24	9	3984.375	17350.82	-6316.146	1	18464.69	-20.00281	1.550569E-010	0.0808817	6
	25	9	3170.956	18085.16	-6840.606	1	19335.64	-20.71883	-1.282642E-010	0.0808858	6
	26	9	2527.573	18867.14	-7462.292	1	20289.28	-21.57968	3.475276E-013	0.0808939	6
	27	10	1976.103	19783.29	-8259.497	1	21438.23	-22.66048	7.23908E-011	0.080896	6
	28	10	1577.524	20705.31	-9115.286	1	22622.96	-23.76097	1.528731E-010	0.080892	6
	29	10	1265.625	21709.16	-10091.63	1	23940.1	-24.93163	-1.484114E-010	0.0808927	6
	30	10	998.264	22900.62	-11306.84	1	25539.83	-26.27716	-1.272743E-010	0.0808866	6
	31	11	796.875	24161.17	-12636.67	1	27266.23	-27.61028	1.333662E-010	0.0808796	6
	32	11	627.7902	25672.3	-14256.7	1	29365.29	-29.04489	-9.739409E-011	0.0808845	6
	33	11	505.5147	27197.18	-15939.21	1	31523.72	-30.3729	2.752564E-010	0.0808902	6
	34	12	397.9953	29089.29	-18043.4	1	34230.86	-31.81035	2.614002E-010	0.0809152	6
	35	12	315.5048	31149.45	-20375.24	1	37221.48	-33.18919	2.463443E-010	0.080914	6
	36	12	252.4038	33352.09	-22924.33	1	40470.82	-34.50241	3.165479E-010	0.0809129	6
	37	13	198.6229	35982.24	-26055	1	44425.05	-35.90857	1.975849E-010	0.0809138	6
	38	13	158.3615	38729.25	-29450.09	1	48654.53	-37.24971	2.095227E-010	0.0809068	6
	39	13	125.558	41823.09	-33457.35	1	53558.98	-38.65887	2.207513E-010	0.0809114	6
	40	14	100.4464	45085.37	-37926.6	1	58916.19	-40.07113	1.057045E-010	0.0809109	6
	41	14	79.00281	48916.93	-43552.54	1	65495.72	-41.67984	1.468767E-010	0.0809109	6
	42	14	63.3446	52750.14	-49683.28	1	72463.82	-43.28508	1.081267E-010	0.0809089	6
	43	15	49.86702	57356.02	-57559.82	1	81257.9	-45.10162	1.04656E-010	0.0809061	6
	44	15	39.72458	62251.63	-66588.08	1	91155.02	-46.92772	1.513611E-010	0.080911	6
	45	15	31.6723	67718.8	-77327.24	1	102787.8	-48.78997	-1.323776E-010	0.0808987	5
	46	16	24.93351	74341.06	-91091.98	1	117577	-50.78178	3.603553E-010	0.0808937	5
	47	16	19.86229	81829.96	-106974.5	1	134683.7	-52.58589	6.704763E-010	0.0808958	5
	48	16	15.83615	90762.23	-125767.1	1	155097.2	-54.18319	2.222557E-010	0.0808947	5
	49	16	12.40079	102399.7	-150110.8	1	181711.2	-55.69973	1.832424E-010	0.0808933	5
	50	17	9.93114	115622.7	-176143.2	1	210701.3	-56.71857	8.081746E-010	0.0808909	5
	51	17	7.944915	131374	-206812.1	1	245011	-57.57493	5.713907E-010	0.0808917	5
	52	18	6.317385	151587.9	-243398.1	1	286742.9	-58.08543	-1.403189E-010	0.0809049	5
	53	18	5.008013	176667	-285936.2	1	336111.2	-58.28996	7.732346E-011	0.0808957	5
	54	19	3.945707	207304.8	-336206.4	1	394981.1	-58.34203	2.996044E-010	0.0808894	5
	55	20	3.158693	241332	-388508.6	1	457362.1	-58.15247	3.388381E-011	0.0809048	5
	56	21	2.504006	282024.8	-450925.3	1	531856.8	-57.97666	-6.67157E-011	0.080891	5
	57	22	1.998082	326233.7	-517919.3	1	612101.9	-57.79346	1.088102E-010	0.0809121	5
	58	24	1.584686	377135.9	-599758.3	1	708478.3	-57.83778	1.281752E-010	0.0809321	5
	59	26	1.266892	429179.1	-690400	1	812924.9	-58.13333	7.432079E-011	0.0809006	5
	60	28	0.999041	491348.8	-803332.4	1	941682.9	-58.54845	5.283311E-011	0.0808688	5
