EXPLAIN
TAG	EISPOT
TITLE	LABEL	Potentiostatic EIS	Test &Identifier
DATE	LABEL	1/10/2020	Date
TIME	LABEL	13:05:44	Time
NOTES	NOTES	5	&Notes...
	
	
	
	
	
PSTAT	PSTAT	REF600-11020	Potentiostat
VDC	POTEN	0.00000E+000	T	DC &Voltage (V)
FREQINIT	QUANT	1.00000E+006	Initial Fre&q. (Hz)
FREQFINAL	QUANT	1.00000E+000	Final Fre&q. (Hz)
PTSPERDEC	QUANT	1.00000E+001	Points/&decade
VAC	QUANT	2.50000E+001	AC &Voltage (mV rms)
AREA	QUANT	1.00000E-001	&Area (cm^2)
CONDIT	TWOPARAM	T	5.00000E+000	0.00000E+000	Conditionin&g	Time(s)	E(V)
DELAY	TWOPARAM	T	5.00000E+000	0.00000E+000	Init. De&lay	Time(s)	Stab.(mV/s)
SPEED	SELECTOR	0	&Optimize for:
ZGUESS	QUANT	5.00000E+002	E&stimated Z (ohms)
OCVCURVE	TABLE	19
	Pt	T	Vf	Vm	Ach	Over
	#	s	V vs. Ref.	V	V	bits
	0	0.258333	8.97199E-003	8.97199E-003	6.06514E-004	...........
	1	0.516667	8.97701E-003	9.23439E-003	6.04514E-004	...........
	2	0.775	9.00795E-003	9.49169E-003	6.01480E-004	...........
	3	1.03333	9.09627E-003	9.75075E-003	5.99514E-004	...........
	4	1.29167	9.25654E-003	1.00093E-002	5.99314E-004	...........
	5	1.55	9.47379E-003	1.02368E-002	6.06547E-004	...........
	6	1.80833	9.71969E-003	1.04901E-002	6.03814E-004	...........
	7	2.06667	9.97159E-003	1.07010E-002	6.01280E-004	...........
	8	2.325	1.02184E-002	1.09434E-002	6.05514E-004	...........
	9	2.58333	1.04572E-002	1.11419E-002	5.99847E-004	...........
	10	2.84167	1.06881E-002	1.13708E-002	6.04247E-004	...........
	11	3.1	1.09123E-002	1.15675E-002	6.07614E-004	...........
	12	3.35833	1.11306E-002	1.17776E-002	6.00914E-004	...........
	13	3.61667	1.13437E-002	1.19652E-002	6.07214E-004	...........
	14	3.875	1.15511E-002	1.21448E-002	6.02147E-004	...........
	15	4.13333	1.17513E-002	1.23228E-002	6.04614E-004	...........
	16	4.39167	1.19435E-002	1.25036E-002	6.06147E-004	...........
	17	4.65	1.21289E-002	1.26777E-002	6.10714E-004	...........
	18	4.90833	1.23095E-002	1.28478E-002	6.03747E-004	...........
EOC	QUANT	0.0123095	Open Circuit (V)
PSTATMODEL	IQUANT	4	Pstat Model
PSTATSECTION	LABEL	REF600-11020	Pstat Section
PSTATSERIALNO	LABEL	11020	Pstat Serial Number
CTRLMODE	IQUANT	1	Control Mode
IESTAB	IQUANT	0	I/E Stability
CASPEED	IQUANT	1	Control Amp Speed
CONVENTION	IQUANT	1	Current Convention
ICHRANGE	IQUANT	2	Ich Range
ICHRANGEMODE	TOGGLE	F	Ich Auto Range
ICHOFFSETENABLE	TOGGLE	T	Ich Offset Enable
ICHOFFSET	QUANT	0	Ich Offset (V)
ICHFILTER	IQUANT	3	Ich Filter
VCHRANGE	IQUANT	2	Vch Range
VCHRANGEMODE	TOGGLE	F	Vch Auto Range
VCHOFFSETENABLE	TOGGLE	T	Vch Offset Enable
VCHOFFSET	QUANT	0	Vch Offset (V)
VCHFILTER	IQUANT	3	Vch Filter
ACHRANGE	IQUANT	2	Ach Range
ACHOFFSETENABLE	TOGGLE	F	Ach Offset Enable
ACHOFFSET	QUANT	0	Ach Offset (V)
ACHFILTER	IQUANT	3	Ach Filter
IERANGELOWERLIMIT	IQUANT	1	I/E Range Lower Limit
IERANGEMODE	TOGGLE	F	I/E AutoRange
IERANGE	IQUANT	7	I/E Range
POSFEEDENABLE	TOGGLE	F	Positive Feedback IR Comp
POSFEEDRESISTANCE	QUANT	0	Positive Feedback Resistance (ohm)
ACHSELECT	IQUANT	0	Ach Select
CABLEID	IQUANT	14	Cable ID
DCCALDATE	LABEL	12/22/2019	DC Calibration Date
ACCALDATE	LABEL	12/22/2019	AC Calibration Date
THERMOSELECT	IQUANT	1	Thermo Select
FRAMEWORKVERSION	QUANT	6.33	Framework Version
INSTRUMENTVERSION	LABEL	3.50	Instrument Version
ZCURVE	TABLE
	Pt	Time	Freq	Zreal	Zimag	Zsig	Zmod	Zphz	Idc	Vdc	IERange
	#	s	Hz	ohm	ohm	V	ohm	°	A	V	#
	0	2	1000078	2334.473	-1528.007	1	2790.084	-33.20638	-2.601018E-006	0.014293	8
	1	2	794390.6	2631.129	-1440.756	1	2999.77	-28.70427	-9.99388E-007	0.0144804	8
	2	2	630984.4	2891.104	-1349.93	1	3190.736	-25.02906	-1.666998E-006	0.0144798	8
	3	3	501234.4	3090.262	-1214.278	1	3320.27	-21.45169	5.300768E-007	0.0138024	8
	4	3	398109.4	3270.333	-1078.312	1	3443.521	-18.2487	1.014431E-006	0.0136521	8
	5	3	316265.6	3400.896	-953.677	1	3532.081	-15.66453	3.060088E-007	0.0137811	8
	6	3	251203.1	3523.32	-847.4528	1	3623.805	-13.52427	2.05807E-006	0.0134785	8
	7	4	199546.9	3602.394	-750.3307	1	3679.706	-11.76573	3.24773E-006	0.0133347	8
	8	4	158578.1	3669.463	-671.9913	1	3730.487	-10.37763	6.999403E-008	0.0137842	8
	9	4	125953.1	3742.78	-588.7098	1	3788.797	-8.938936	1.422099E-007	0.0135947	7
	10	5	100078.1	3784.737	-544.5058	1	3823.705	-8.186903	-3.199104E-008	0.0139401	7
	11	5	79453.13	3831.325	-528.4235	1	3867.594	-7.852797	-2.634182E-008	0.0138511	7
	12	5	63140.62	3875.524	-524.0238	1	3910.791	-7.70047	-6.22034E-009	0.0138604	7
	13	6	50203.12	3920.152	-532.5094	1	3956.154	-7.735651	2.815292E-009	0.0137871	7
	14	6	39890.62	3965.226	-554.29	1	4003.78	-7.957683	3.618515E-009	0.0137868	7
	15	6	31640.63	4015.744	-591.8811	1	4059.128	-8.384468	-1.331661E-008	0.0138192	7
	16	7	25171.88	4068.845	-642.0648	1	4119.193	-8.967345	-2.694863E-009	0.0138986	7
	17	7	20015.62	4126.602	-707.8007	1	4186.863	-9.73275	-1.35104E-008	0.0138208	7
	18	7	15890.62	4192.869	-791.7338	1	4266.965	-10.69318	-3.882633E-008	0.0138858	7
	19	8	12609.37	4265.688	-894.9341	1	4358.555	-11.84871	4.126395E-009	0.0137919	7
	20	8	10078.13	4349.011	-1014.169	1	4465.695	-13.12653	4.5232E-008	0.013807	7
	21	8	8015.625	4442.559	-1159.998	1	4591.506	-14.63378	5.487541E-009	0.0137846	7
	22	9	6328.125	4554.003	-1338.719	1	4746.695	-16.38151	4.63897E-009	0.0137965	7
	23	9	5015.625	4681.359	-1547.534	1	4930.516	-18.29252	-1.304469E-008	0.0138218	7
	24	9	3984.375	4823.557	-1794.53	1	5146.556	-20.40694	-2.657309E-008	0.0138415	7
	25	10	3170.956	4988.988	-2080.359	1	5405.358	-22.63566	-1.55075E-008	0.0138156	7
	26	10	2527.573	5179.471	-2415.333	1	5714.959	-25.00096	-1.842353E-008	0.0138252	7
	27	10	1976.103	5415.178	-2844.542	1	6116.827	-27.71253	-6.570362E-009	0.0138511	7
	28	10	1577.524	5669.184	-3304.622	1	6562.024	-30.23832	-1.410947E-008	0.0138147	7
	29	11	1265.625	5956.967	-3830.324	1	7082.149	-32.74098	-3.198128E-008	0.0139245	7
	30	11	998.264	6322.152	-4493.534	1	7756.381	-35.4037	-2.58209E-008	0.0138399	7
	31	11	796.875	6714.648	-5231.537	1	8512.078	-37.92297	-6.141033E-009	0.0138471	7
	32	12	627.7902	7198.245	-6144.013	1	9463.806	-40.48219	-2.519009E-008	0.01384	7
	33	12	505.5147	7690.475	-7111.081	1	10474.3	-42.75835	-2.657832E-009	0.0138042	6
	34	12	397.9953	8305.159	-8368.629	1	11790.23	-45.2181	-6.177198E-011	0.0138308	6
	35	13	315.5048	8976.759	-9825.42	1	13308.69	-47.58437	8.151108E-010	0.0138299	6
	36	13	252.4038	9691.58	-11485.28	1	15027.92	-49.84147	8.888654E-010	0.0138291	6
	37	13	198.6229	10552.61	-13636.38	1	17242.63	-52.26527	4.647905E-010	0.0138292	6
	38	14	158.3615	11455.36	-16095.35	1	19755.64	-54.55984	6.752289E-010	0.0138264	6
	39	14	125.558	12505.83	-19165.18	1	22884.49	-56.8744	3.768256E-010	0.0138281	6
	40	14	100.4464	13671.4	-22741.53	1	26534.59	-58.98721	-6.485995E-010	0.0138268	6
	41	15	79.00281	15185.17	-27494.69	1	31409.35	-61.08837	-2.687192E-011	0.013826	6
	42	15	63.3446	16489.22	-33015.07	1	36903.79	-63.46038	5.569587E-010	0.0138235	6
	43	15	49.86702	18691.37	-40040.16	1	44188.02	-64.9761	7.501914E-010	0.0138255	6
	44	16	39.72458	21561.94	-48241.26	1	52840.67	-65.91724	3.802311E-010	0.0138277	6
	45	16	31.6723	25076.38	-58050.26	1	63234.94	-66.63676	7.60082E-010	0.013824	6
	46	16	24.93351	29513.54	-70723.31	1	76634.43	-67.34874	-6.961012E-010	0.0138232	6
	47	17	19.86229	35221.8	-85157.3	1	92153.9	-67.52959	-1.482812E-009	0.0138215	6
	48	17	15.83615	43526.39	-102354.1	1	111224.6	-66.96223	1.415428E-009	0.013822	5
	49	17	12.40079	52900.57	-122459.8	1	133397.4	-66.63646	1.0267E-009	0.0138228	5
	50	18	9.93114	65752.2	-145765.9	1	159909.5	-65.72078	-1.066643E-010	0.0138176	5
	51	18	7.944915	81136.72	-171035.6	1	189304.9	-64.62104	-1.044879E-009	0.0138279	5
	52	19	6.317385	101231.1	-199948.1	1	224113.7	-63.14751	-8.236483E-010	0.013834	5
	53	20	5.008013	126019.4	-232510.8	1	264465.8	-61.54259	-3.03075E-010	0.0138257	5
	54	21	3.945707	156098.8	-268816.8	1	310852.6	-59.85676	-3.432319E-010	0.013813	5
	55	22	3.158693	189094.2	-306027.6	1	359735.3	-58.28812	1.560409E-011	0.0138204	5
	56	24	2.504006	228044.1	-347156.4	1	415357.3	-56.69942	-9.972219E-011	0.0138234	5
	57	25	1.998082	270149.7	-390738.8	1	475034.4	-55.34073	-3.594236E-010	0.0137814	5
	58	27	1.584686	315999.3	-439004.6	1	540907.2	-54.25333	-2.049518E-010	0.0138167	5
	59	29	1.266892	365890.3	-491058.3	1	612383.8	-53.31	-1.099666E-010	0.0138481	5
	60	31	0.999041	422211.3	-554838.9	1	697214.9	-52.73024	-3.866675E-011	0.0138574	5
