EXPLAIN
TAG	EISPOT
TITLE	LABEL	Potentiostatic EIS	Test &Identifier
DATE	LABEL	3/17/2020	Date
TIME	LABEL	16:53:21	Time
NOTES	NOTES	1	&Notes...
	
PSTAT	PSTAT	REF600-11020	Potentiostat
VDC	POTEN	0.00000E+000	T	DC &Voltage (V)
FREQINIT	QUANT	1.00000E+006	Initial Fre&q. (Hz)
FREQFINAL	QUANT	1.00000E+000	Final Fre&q. (Hz)
PTSPERDEC	QUANT	1.00000E+001	Points/&decade
VAC	QUANT	2.50000E+001	AC &Voltage (mV rms)
AREA	QUANT	4.00000E-004	&Area (cm^2)
CONDIT	TWOPARAM	F	5.00000E+000	0.00000E+000	Conditionin&g	Time(s)	E(V)
DELAY	TWOPARAM	T	3.00000E+000	0.00000E+000	Init. De&lay	Time(s)	Stab.(mV/s)
SPEED	SELECTOR	0	&Optimize for:
ZGUESS	QUANT	5.00000E+003	E&stimated Z (ohms)
OCVCURVE	TABLE	12
	Pt	T	Vf	Vm	Ach	Over
	#	s	V vs. Ref.	V	V	bits
	0	0.258333	5.88870E-002	5.88870E-002	5.72130E-004	...........
	1	0.516667	5.88872E-002	5.88932E-002	5.66530E-004	...........
	2	0.775	5.88879E-002	5.88980E-002	5.68030E-004	...........
	3	1.03333	5.88898E-002	5.89026E-002	5.67097E-004	...........
	4	1.29167	5.88931E-002	5.89067E-002	5.69030E-004	...........
	5	1.55	5.88973E-002	5.89128E-002	5.66363E-004	...........
	6	1.80833	5.89020E-002	5.89132E-002	5.69563E-004	...........
	7	2.06667	5.89064E-002	5.89168E-002	5.67763E-004	...........
	8	2.325	5.89103E-002	5.89182E-002	5.70397E-004	...........
	9	2.58333	5.89135E-002	5.89219E-002	5.66097E-004	...........
	10	2.84167	5.89162E-002	5.89225E-002	5.65797E-004	...........
	11	3.1	5.89186E-002	5.89254E-002	5.64997E-004	...........
EOC	QUANT	0.0589186	Open Circuit (V)
PSTATMODEL	IQUANT	4	Pstat Model
PSTATSECTION	LABEL	REF600-11020	Pstat Section
PSTATSERIALNO	LABEL	11020	Pstat Serial Number
CTRLMODE	IQUANT	1	Control Mode
IESTAB	IQUANT	0	I/E Stability
CASPEED	IQUANT	1	Control Amp Speed
CONVENTION	IQUANT	1	Current Convention
ICHRANGE	IQUANT	2	Ich Range
ICHRANGEMODE	TOGGLE	F	Ich Auto Range
ICHOFFSETENABLE	TOGGLE	T	Ich Offset Enable
ICHOFFSET	QUANT	0	Ich Offset (V)
ICHFILTER	IQUANT	3	Ich Filter
VCHRANGE	IQUANT	2	Vch Range
VCHRANGEMODE	TOGGLE	F	Vch Auto Range
VCHOFFSETENABLE	TOGGLE	T	Vch Offset Enable
VCHOFFSET	QUANT	0	Vch Offset (V)
VCHFILTER	IQUANT	3	Vch Filter
ACHRANGE	IQUANT	2	Ach Range
ACHOFFSETENABLE	TOGGLE	F	Ach Offset Enable
ACHOFFSET	QUANT	0	Ach Offset (V)
ACHFILTER	IQUANT	3	Ach Filter
IERANGELOWERLIMIT	IQUANT	1	I/E Range Lower Limit
IERANGEMODE	TOGGLE	F	I/E AutoRange
IERANGE	IQUANT	7	I/E Range
POSFEEDENABLE	TOGGLE	F	Positive Feedback IR Comp
POSFEEDRESISTANCE	QUANT	0	Positive Feedback Resistance (ohm)
ACHSELECT	IQUANT	0	Ach Select
CABLEID	IQUANT	14	Cable ID
DCCALDATE	LABEL	2/27/2020	DC Calibration Date
ACCALDATE	LABEL	2/27/2020	AC Calibration Date
THERMOSELECT	IQUANT	1	Thermo Select
FRAMEWORKVERSION	QUANT	6.33	Framework Version
INSTRUMENTVERSION	LABEL	3.50	Instrument Version
ZCURVE	TABLE
	Pt	Time	Freq	Zreal	Zimag	Zsig	Zmod	Zphz	Idc	Vdc	IERange
	#	s	Hz	ohm	ohm	V	ohm	°	A	V	#
	0	1	1000078	1664.315	-877.326	1	1881.395	-27.79548	2.712703E-008	0.0614657	8
	1	1	794390.6	1804.797	-862.6226	1	2000.353	-25.54598	-2.158896E-009	0.0611394	8
	2	1	630984.4	1937.225	-844.7106	1	2113.381	-23.5592	1.799436E-008	0.0609315	8
	3	2	501234.4	2065.445	-823.7236	1	2223.642	-21.74269	1.977315E-008	0.0608034	8
	4	2	398109.4	2185.165	-801.6887	1	2327.585	-20.14697	4.071218E-008	0.0607557	8
	5	2	316265.6	2300.266	-781.6417	1	2429.442	-18.76801	1.858812E-008	0.0607034	8
	6	3	251203.1	2410.05	-759.2605	1	2526.82	-17.48648	2.106618E-008	0.0606903	8
	7	3	199546.9	2513.12	-741.5105	1	2620.231	-16.439	1.872423E-008	0.0606846	8
	8	3	158578.1	2611.784	-728.2493	1	2711.413	-15.58018	2.13642E-008	0.0606893	8
	9	4	125953.1	2726.746	-678.1559	1	2809.811	-13.9664	1.707849E-009	0.0606391	7
	10	4	100078.1	2807.403	-676.114	1	2887.67	-13.54083	1.344841E-009	0.0606139	7
	11	4	79453.13	2892.721	-689.9841	1	2973.872	-13.41576	3.571649E-010	0.0606047	7
	12	5	63140.62	2978.989	-710.1008	1	3062.453	-13.40738	1.180751E-009	0.0606102	7
	13	5	50203.12	3066.889	-735.7166	1	3153.9	-13.48979	4.775706E-010	0.0606061	7
	14	5	39890.62	3157.312	-769.0753	1	3249.63	-13.68982	1.122934E-009	0.060606	7
	15	6	31640.63	3251.237	-810.2043	1	3350.667	-13.99303	2.212365E-010	0.0606032	7
	16	6	25171.88	3348.716	-860.6558	1	3457.546	-14.41367	1.327663E-009	0.0606071	7
	17	6	20015.62	3449.998	-920.5035	1	3570.688	-14.93923	4.666326E-010	0.0605976	7
	18	7	15890.62	3556.008	-992.798	1	3691.997	-15.59914	1.249544E-009	0.0606004	7
	19	7	12609.37	3666.231	-1079.956	1	3821.983	-16.4133	1.5527E-009	0.0606033	7
	20	7	10078.13	3776.804	-1180.828	1	3957.096	-17.362	3.228456E-010	0.0605929	7
	21	7	8015.625	3897.602	-1309.152	1	4111.591	-18.56651	8.510738E-010	0.0605941	7
	22	8	6328.125	4031.513	-1468.555	1	4290.659	-20.0151	4.072668E-010	0.0605859	7
	23	8	5015.625	4179.166	-1661.053	1	4497.168	-21.67586	1.623099E-009	0.0605956	7
	24	8	3984.375	4341.633	-1887.192	1	4734.054	-23.4933	1.279295E-009	0.0605863	7
	25	9	3170.956	4528.654	-2155.439	1	5015.439	-25.45238	1.574673E-009	0.0605893	7
	26	9	2527.573	4739.588	-2463.988	1	5341.81	-27.46874	7.855673E-010	0.0605861	7
	27	9	1976.103	5003.097	-2851.876	1	5758.834	-29.6841	1.065333E-009	0.0605758	7
	28	10	1577.524	5276.129	-3267.048	1	6205.734	-31.76633	1.58099E-009	0.0605881	7
	29	10	1265.625	5567.408	-3725.607	1	6698.969	-33.78971	1.522496E-009	0.060584	7
	30	10	998.264	5901.488	-4312.157	1	7309.053	-36.15522	2.552851E-009	0.0605876	7
	31	11	796.875	6241.268	-4963.042	1	7974.034	-38.49164	1.865212E-009	0.0605827	7
	32	11	627.7902	6625.627	-5816.196	1	8816.296	-41.27774	1.621628E-009	0.0605776	7
	33	11	505.5147	7003.782	-6747.981	1	9725.65	-43.93435	-5.19146E-010	0.060629	6
	34	12	397.9953	7460.935	-8026.339	1	10958.45	-47.09081	3.658389E-010	0.0606477	6
	35	12	315.5048	7976.862	-9563.08	1	12453.23	-50.16747	4.713751E-010	0.0606415	6
	36	12	252.4038	8571.593	-11376.83	1	14244.46	-53.00471	4.492936E-010	0.0606433	6
	37	13	198.6229	9362.02	-13763.11	1	16645.44	-55.77547	1.885256E-010	0.0606431	6
	38	13	158.3615	10305.93	-16511.77	1	19464.09	-58.02938	2.320922E-010	0.0606386	6
	39	13	125.558	11537.18	-19907.72	1	23009.21	-59.90629	3.888938E-010	0.0606403	6
	40	14	100.4464	13053.33	-23808.25	1	27151.84	-61.2654	3.618276E-010	0.0606386	6
	41	14	79.00281	15158.9	-28803.04	1	32548.54	-62.24239	-1.816424E-011	0.0606351	6
	42	14	63.3446	17636.14	-34203.37	1	38482.52	-62.7232	8.741148E-011	0.0606366	6
	43	15	49.86702	21055.6	-41030.26	1	46117.46	-62.83435	2.77434E-010	0.0606288	6
	44	15	39.72458	25148.13	-48509.83	1	54640.94	-62.59719	1.742802E-010	0.0606331	6
	45	15	31.6723	30222.03	-57016.34	1	64530.88	-62.07377	-4.29328E-011	0.0606319	6
	46	16	24.93351	36796.79	-67126.71	1	76550.63	-61.26981	8.093073E-010	0.0606304	6
	47	16	19.86229	44204.85	-77846.18	1	89521.48	-60.40998	1.915791E-009	0.0606429	6
	48	16	15.83615	53021.74	-89842.16	1	104321.2	-59.45236	-1.052254E-009	0.0606308	5
	49	16	12.40079	64084.78	-103860.3	1	122040.2	-58.32421	1.103738E-009	0.0606328	5
	50	17	9.93114	75076.71	-118212.8	1	140038.5	-57.58044	7.351138E-010	0.0606384	5
	51	17	7.944915	87450.17	-134245.9	1	160217	-56.91907	-8.898928E-010	0.0606334	5
	52	18	6.317385	101083.9	-153170.2	1	183518.6	-56.57737	2.957395E-010	0.0606202	5
	53	18	5.008013	115959.3	-175540	1	210382.6	-56.55178	4.691442E-010	0.0606389	5
	54	19	3.945707	132566.9	-202569.2	1	242091.5	-56.79816	-1.488988E-011	0.0606233	5
	55	20	3.158693	149477.9	-233264.3	1	277048.5	-57.34787	2.992491E-010	0.0606406	5
	56	21	2.504006	169246.9	-271541	1	319967.2	-58.06542	6.446924E-011	0.0606309	5
	57	22	1.998082	191231	-316910.1	1	370136.8	-58.89223	-7.054353E-011	0.060597	5
	58	24	1.584686	217881	-371743.5	1	430889.1	-59.62519	6.055888E-011	0.060643	5
	59	26	1.266892	250121.3	-436188.8	1	502813.4	-60.16898	1.13799E-010	0.060662	5
	60	28	0.999041	290917.7	-517960.1	1	594067.1	-60.6788	1.400238E-010	0.0606736	5
