EXPLAIN
TAG	EISPOT
TITLE	LABEL	Potentiostatic EIS	Test &Identifier
DATE	LABEL	2/13/2020	Date
TIME	LABEL	14:02:14	Time
NOTES	NOTES	1	&Notes...
	
PSTAT	PSTAT	REF600-11020	Potentiostat
VDC	POTEN	0.00000E+000	T	DC &Voltage (V)
FREQINIT	QUANT	1.00000E+006	Initial Fre&q. (Hz)
FREQFINAL	QUANT	1.00000E+000	Final Fre&q. (Hz)
PTSPERDEC	QUANT	1.00000E+001	Points/&decade
VAC	QUANT	2.50000E+001	AC &Voltage (mV rms)
AREA	QUANT	5.00000E-004	&Area (cm^2)
CONDIT	TWOPARAM	F	1.50000E+001	0.00000E+000	Conditionin&g	Time(s)	E(V)
DELAY	TWOPARAM	F	1.00000E+002	0.00000E+000	Init. De&lay	Time(s)	Stab.(mV/s)
SPEED	SELECTOR	0	&Optimize for:
ZGUESS	QUANT	1.00000E+003	E&stimated Z (ohms)
OCVCURVE	TABLE	39
	Pt	T	Vf	Vm	Ach	Over
	#	s	V vs. Ref.	V	V	bits
	0	0.258333	5.25498E-002	5.25498E-002	4.96239E-004	...........
	1	0.516667	5.25443E-002	5.22606E-002	4.96439E-004	...........
	2	0.775	5.25192E-002	5.24475E-002	4.97905E-004	...........
	3	1.03333	5.24693E-002	5.22054E-002	4.89839E-004	...........
	4	1.29167	5.24105E-002	5.24309E-002	4.93472E-004	...........
	5	1.55	5.23614E-002	5.21529E-002	5.06139E-004	...........
	6	1.80833	5.23273E-002	5.23867E-002	4.95139E-004	...........
	7	2.06667	5.23044E-002	5.22060E-002	4.90639E-004	...........
	8	2.325	5.22918E-002	5.23994E-002	4.93305E-004	...........
	9	2.58333	5.22890E-002	5.21731E-002	5.04539E-004	...........
	10	2.84167	5.22903E-002	5.23890E-002	5.01339E-004	...........
	11	3.1	5.22888E-002	5.21281E-002	4.97039E-004	...........
	12	3.35833	5.22792E-002	5.22330E-002	5.02739E-004	...........
	13	3.61667	5.22611E-002	5.23257E-002	4.99839E-004	...........
	14	3.875	5.22432E-002	5.20382E-002	4.95905E-004	...........
	15	4.13333	5.22290E-002	5.23103E-002	4.91139E-004	...........
	16	4.39167	5.22155E-002	5.21989E-002	4.95005E-004	...........
	17	4.65	5.22054E-002	5.20390E-002	4.99305E-004	...........
	18	4.90833	5.21950E-002	5.22842E-002	4.90872E-004	...........
	19	5.16667	5.21817E-002	5.21533E-002	4.95039E-004	...........
	20	5.425	5.21734E-002	5.20712E-002	5.09605E-004	...........
	21	5.68333	5.21700E-002	5.23397E-002	5.00105E-004	...........
	22	5.94167	5.21690E-002	5.20186E-002	4.95939E-004	...........
	23	6.2	5.21703E-002	5.22317E-002	4.84506E-004	...........
	24	6.45833	5.21687E-002	5.21351E-002	4.98872E-004	...........
	25	6.71667	5.21588E-002	5.18906E-002	4.95405E-004	...........
	26	6.975	5.21343E-002	5.21850E-002	4.89705E-004	...........
	27	7.23333	5.21001E-002	5.20590E-002	4.88739E-004	...........
	28	7.49167	5.20748E-002	5.19409E-002	4.95072E-004	...........
	29	7.75	5.20629E-002	5.22334E-002	4.95305E-004	...........
	30	8.00833	5.20588E-002	5.19401E-002	4.86239E-004	...........
	31	8.26667	5.20616E-002	5.21394E-002	4.90472E-004	...........
	32	8.525	5.20656E-002	5.20292E-002	4.95605E-004	...........
	33	8.78333	5.20621E-002	5.18435E-002	4.94639E-004	...........
	34	9.04167	5.20443E-002	5.21328E-002	4.91039E-004	...........
	35	9.3	5.20180E-002	5.19152E-002	5.03872E-004	...........
	36	9.5583	5.19987E-002	5.19620E-002	5.06239E-004	...........
	37	9.8167	5.19890E-002	5.20662E-002	5.04939E-004	...........
	38	10.075	5.19816E-002	5.17331E-002	4.97072E-004	...........
EOC	QUANT	0.0519816	Open Circuit (V)
PSTATMODEL	IQUANT	4	Pstat Model
PSTATSECTION	LABEL	REF600-11020	Pstat Section
PSTATSERIALNO	LABEL	11020	Pstat Serial Number
CTRLMODE	IQUANT	1	Control Mode
IESTAB	IQUANT	0	I/E Stability
CASPEED	IQUANT	1	Control Amp Speed
CONVENTION	IQUANT	1	Current Convention
ICHRANGE	IQUANT	2	Ich Range
ICHRANGEMODE	TOGGLE	F	Ich Auto Range
ICHOFFSETENABLE	TOGGLE	T	Ich Offset Enable
ICHOFFSET	QUANT	0	Ich Offset (V)
ICHFILTER	IQUANT	3	Ich Filter
VCHRANGE	IQUANT	2	Vch Range
VCHRANGEMODE	TOGGLE	F	Vch Auto Range
VCHOFFSETENABLE	TOGGLE	T	Vch Offset Enable
VCHOFFSET	QUANT	0	Vch Offset (V)
VCHFILTER	IQUANT	3	Vch Filter
ACHRANGE	IQUANT	2	Ach Range
ACHOFFSETENABLE	TOGGLE	F	Ach Offset Enable
ACHOFFSET	QUANT	0	Ach Offset (V)
ACHFILTER	IQUANT	3	Ach Filter
IERANGELOWERLIMIT	IQUANT	1	I/E Range Lower Limit
IERANGEMODE	TOGGLE	F	I/E AutoRange
IERANGE	IQUANT	7	I/E Range
POSFEEDENABLE	TOGGLE	F	Positive Feedback IR Comp
POSFEEDRESISTANCE	QUANT	0	Positive Feedback Resistance (ohm)
ACHSELECT	IQUANT	0	Ach Select
CABLEID	IQUANT	14	Cable ID
DCCALDATE	LABEL	1/27/2020	DC Calibration Date
ACCALDATE	LABEL	1/27/2020	AC Calibration Date
THERMOSELECT	IQUANT	1	Thermo Select
FRAMEWORKVERSION	QUANT	6.33	Framework Version
INSTRUMENTVERSION	LABEL	3.50	Instrument Version
ZCURVE	TABLE
	Pt	Time	Freq	Zreal	Zimag	Zsig	Zmod	Zphz	Idc	Vdc	IERange
	#	s	Hz	ohm	ohm	V	ohm	°	A	V	#
	0	1	1000078	1726.502	-2061.462	1	2688.947	-50.05337	-1.232382E-007	0.0540564	8
	1	2	794390.6	2053.729	-2262.245	1	3055.414	-47.76596	-1.681727E-006	0.0542882	8
	2	2	630984.4	2423.464	-2449.962	1	3446.083	-45.31153	-1.880086E-007	0.0538826	8
	3	2	501234.4	2822.937	-2644.562	1	3868.163	-43.13141	3.929661E-007	0.0536176	8
	4	2	398109.4	3253.14	-2808.537	1	4297.767	-40.80506	3.180434E-007	0.0535699	8
	5	3	316265.6	3704.79	-2981.539	1	4755.527	-38.8264	-1.598995E-006	0.0539897	8
	6	3	251203.1	4244.641	-3122.175	1	5269.246	-36.3366	-5.087223E-007	0.0536852	8
	7	3	199546.9	4807.745	-3246.451	1	5801.194	-34.02937	1.259091E-006	0.053401	8
	8	4	158578.1	5384.268	-3314.746	1	6322.807	-31.61792	-8.828252E-007	0.0537509	8
	9	4	125953.1	6034.442	-3267.221	1	6862.159	-28.4324	-8.689436E-007	0.0554172	7
	10	4	100078.1	6637.742	-3192.202	1	7365.445	-25.68369	-2.122579E-008	0.053578	7
	11	5	79453.13	7210.299	-3048.96	1	7828.446	-22.92164	-3.202551E-009	0.0535186	7
	12	5	63140.62	7720.759	-2848.667	1	8229.521	-20.25215	3.452509E-008	0.0534658	7
	13	5	50203.12	8170.466	-2630.55	1	8583.49	-17.8464	-2.142503E-008	0.0535603	7
	14	6	39890.62	8548.955	-2388.368	1	8876.313	-15.60906	-4.473086E-008	0.0535888	7
	15	6	31640.63	8870.92	-2157.178	1	9129.438	-13.66757	-2.149801E-008	0.0535595	7
	16	6	25171.88	9130.528	-1938.039	1	9333.945	-11.9837	-3.338227E-008	0.0535709	7
	17	7	20015.62	9342.074	-1745.595	1	9503.76	-10.58385	-2.497098E-008	0.0535299	7
	18	7	15890.62	9512.65	-1586.672	1	9644.07	-9.469537	2.84328E-009	0.0535407	7
	19	7	12609.37	9686.4	-1397.874	1	9786.74	-8.211838	-5.130879E-009	0.0535872	6
	20	8	10078.13	9795.91	-1325.383	1	9885.17	-7.705309	2.502664E-010	0.0535874	6
	21	8	8015.625	9889.24	-1291.579	1	9973.22	-7.44097	7.978238E-011	0.0534705	6
	22	8	6328.125	9977.99	-1300.092	1	10062.33	-7.423587	-6.966115E-009	0.0535493	6
	23	9	5015.625	10069.29	-1357.667	1	10160.4	-7.679023	-6.440723E-009	0.053606	6
	24	9	3984.375	10124.39	-1458.147	1	10228.86	-8.195564	1.632273E-010	0.0534698	6
	25	9	3170.956	10206.4	-1620.334	1	10334.22	-9.020806	-2.151596E-009	0.0536157	6
	26	9	2527.573	10277.88	-1840.914	1	10441.45	-10.1548	-5.191981E-009	0.0535931	6
	27	10	1976.103	10373.61	-2155.895	1	10595.27	-11.74036	3.444445E-009	0.0535521	6
	28	10	1577.524	10463.15	-2540.89	1	10767.25	-13.64958	1.300569E-009	0.0534413	6
	29	10	1265.625	10560.53	-3005.127	1	10979.78	-15.88435	2.270077E-009	0.0535704	6
	30	11	998.264	10717.17	-3636.904	1	11317.45	-18.74481	-4.315519E-009	0.0535832	6
	31	11	796.875	10882	-4378.15	1	11729.72	-21.91637	6.730794E-009	0.0533453	6
	32	11	627.7902	11115.94	-5353.232	1	12337.8	-25.71461	-7.724792E-009	0.05361	6
	33	12	505.5147	11350.45	-6433.981	1	13047.18	-29.54665	-7.598642E-009	0.0536124	6
	34	12	397.9953	11685.71	-7889.797	1	14099.81	-34.02589	4.729048E-010	0.0535247	6
	35	12	315.5048	12090.74	-9625.86	1	15454.55	-38.52454	1.306574E-009	0.0535205	6
	36	13	252.4038	12570.34	-11652.33	1	17140.31	-42.8296	1.339663E-009	0.0535205	6
	37	13	198.6229	13216.04	-14300.72	1	19472.4	-47.25737	6.522753E-010	0.0535152	6
	38	13	158.3615	13997.1	-17354.61	1	22295.77	-51.1126	5.022534E-010	0.0535158	6
	39	14	125.558	14970.12	-21145.07	1	25907.88	-54.70256	9.035198E-010	0.0535188	6
	40	14	100.4464	16145.79	-25543.05	1	30218.11	-57.70298	1.436967E-009	0.053513	6
	41	14	79.00281	17758.33	-31314.49	1	35999.39	-60.44258	5.889835E-010	0.0535037	6
	42	15	63.3446	19351.54	-38077.66	1	42712.89	-63.05976	9.741865E-010	0.0535082	6
	43	15	49.86702	21910.73	-46449.95	1	51358.32	-64.74645	4.64749E-010	0.0535057	6
	44	15	39.72458	25165.68	-56121.29	1	61505.37	-65.84778	9.232032E-010	0.0535138	6
	45	16	31.6723	29266.38	-67756.23	1	73806.69	-66.63873	1.290884E-009	0.0535089	6
	46	16	24.93351	34579.71	-82626.69	1	89570.79	-67.29043	2.216467E-010	0.0535084	6
	47	16	19.86229	41384.16	-99510.3	1	107772.7	-67.41865	-7.602135E-010	0.0535057	5
	48	17	15.83615	49672.17	-119439.1	1	129356.2	-67.41861	-8.956477E-011	0.053508	5
	49	17	12.40079	63235.75	-143264	1	156599.3	-66.18367	-1.530893E-009	0.0535143	5
	50	17	9.93114	77460.46	-169927.3	1	186749.6	-65.49438	5.63276E-010	0.0535131	5
	51	18	7.944915	96298.6	-199064.1	1	221133.3	-64.18431	8.821621E-010	0.053509	5
	52	18	6.317385	119982.6	-233278.9	1	262325.9	-62.78183	6.787171E-010	0.0534988	5
	53	19	5.008013	148185.1	-271111.9	1	308966.8	-61.33974	4.56842E-010	0.0535141	5
	54	20	3.945707	185064.3	-312385.1	1	363088.5	-59.3565	-3.582729E-011	0.0535095	5
	55	22	3.158693	222872.8	-354540.1	1	418773.1	-57.8455	-2.639245E-011	0.0534913	5
	56	23	2.504006	269144.6	-401004	1	482952.3	-56.1314	2.906743E-010	0.0534906	5
	57	25	1.998082	316910.1	-450038.1	1	550423.8	-54.84737	1.842238E-010	0.0535035	5
	58	26	1.584686	373135.3	-504714.3	1	627667.5	-53.52448	2.764053E-012	0.053457	5
	59	28	1.266892	430710.5	-565072.2	1	710505.5	-52.68455	-1.405451E-011	0.0534559	5
	60	31	0.999041	495323.1	-636631.9	1	806625.8	-52.11577	-2.126724E-011	0.05348	5
