EXPLAIN
TAG	EISPOT
TITLE	LABEL	Potentiostatic EIS	Test &Identifier
DATE	LABEL	6/1/2020	Date
TIME	LABEL	13:38:14	Time
NOTES	NOTES	1	&Notes...
	
PSTAT	PSTAT	REF600-11020	Potentiostat
VDC	POTEN	0.00000E+000	T	DC &Voltage (V)
FREQINIT	QUANT	1.00000E+006	Initial Fre&q. (Hz)
FREQFINAL	QUANT	1.00000E+000	Final Fre&q. (Hz)
PTSPERDEC	QUANT	1.00000E+001	Points/&decade
VAC	QUANT	2.50000E+001	AC &Voltage (mV rms)
AREA	QUANT	4.00000E-004	&Area (cm^2)
CONDIT	TWOPARAM	F	5.00000E+000	0.00000E+000	Conditionin&g	Time(s)	E(V)
DELAY	TWOPARAM	T	3.00000E+000	0.00000E+000	Init. De&lay	Time(s)	Stab.(mV/s)
SPEED	SELECTOR	0	&Optimize for:
ZGUESS	QUANT	1.00000E+003	E&stimated Z (ohms)
OCVCURVE	TABLE	12
	Pt	T	Vf	Vm	Ach	Over
	#	s	V vs. Ref.	V	V	bits
	0	0.258333	3.59089E-002	3.59089E-002	5.47730E-004	...........
	1	0.516667	3.59090E-002	3.59146E-002	5.48264E-004	...........
	2	0.775	3.59096E-002	3.59119E-002	5.43631E-004	...........
	3	1.03333	3.59105E-002	3.59087E-002	5.44130E-004	...........
	4	1.29167	3.59111E-002	3.59078E-002	5.53897E-004	...........
	5	1.55	3.59109E-002	3.59094E-002	5.52064E-004	...........
	6	1.80833	3.59100E-002	3.59062E-002	5.53097E-004	...........
	7	2.06667	3.59089E-002	3.59034E-002	5.51897E-004	...........
	8	2.325	3.59078E-002	3.59103E-002	5.54530E-004	...........
	9	2.58333	3.59070E-002	3.59092E-002	5.49530E-004	...........
	10	2.84167	3.59071E-002	3.59090E-002	5.51830E-004	...........
	11	3.1	3.59078E-002	3.59077E-002	5.55830E-004	...........
EOC	QUANT	0.0359078	Open Circuit (V)
PSTATMODEL	IQUANT	4	Pstat Model
PSTATSECTION	LABEL	REF600-11020	Pstat Section
PSTATSERIALNO	LABEL	11020	Pstat Serial Number
CTRLMODE	IQUANT	1	Control Mode
IESTAB	IQUANT	0	I/E Stability
CASPEED	IQUANT	1	Control Amp Speed
CONVENTION	IQUANT	1	Current Convention
ICHRANGE	IQUANT	2	Ich Range
ICHRANGEMODE	TOGGLE	F	Ich Auto Range
ICHOFFSETENABLE	TOGGLE	T	Ich Offset Enable
ICHOFFSET	QUANT	0	Ich Offset (V)
ICHFILTER	IQUANT	3	Ich Filter
VCHRANGE	IQUANT	2	Vch Range
VCHRANGEMODE	TOGGLE	F	Vch Auto Range
VCHOFFSETENABLE	TOGGLE	T	Vch Offset Enable
VCHOFFSET	QUANT	0	Vch Offset (V)
VCHFILTER	IQUANT	3	Vch Filter
ACHRANGE	IQUANT	2	Ach Range
ACHOFFSETENABLE	TOGGLE	F	Ach Offset Enable
ACHOFFSET	QUANT	0	Ach Offset (V)
ACHFILTER	IQUANT	3	Ach Filter
IERANGELOWERLIMIT	IQUANT	1	I/E Range Lower Limit
IERANGEMODE	TOGGLE	F	I/E AutoRange
IERANGE	IQUANT	7	I/E Range
POSFEEDENABLE	TOGGLE	F	Positive Feedback IR Comp
POSFEEDRESISTANCE	QUANT	0	Positive Feedback Resistance (ohm)
ACHSELECT	IQUANT	0	Ach Select
CABLEID	IQUANT	14	Cable ID
DCCALDATE	LABEL	2/27/2020	DC Calibration Date
ACCALDATE	LABEL	2/27/2020	AC Calibration Date
THERMOSELECT	IQUANT	1	Thermo Select
FRAMEWORKVERSION	QUANT	6.33	Framework Version
INSTRUMENTVERSION	LABEL	3.50	Instrument Version
ZCURVE	TABLE
	Pt	Time	Freq	Zreal	Zimag	Zsig	Zmod	Zphz	Idc	Vdc	IERange
	#	s	Hz	ohm	ohm	V	ohm	°	A	V	#
	0	1	1000078	1963.029	-2281.187	1	3009.535	-49.28703	-1.912881E-008	0.0384003	8
	1	1	794390.6	2422.473	-2462.453	1	3454.28	-45.46893	3.541573E-008	0.0380272	8
	2	2	630984.4	2931.691	-2567.949	1	3897.329	-41.21601	5.026751E-008	0.0378946	8
	3	2	501234.4	3462.047	-2591.944	1	4324.805	-36.82124	2.814722E-008	0.0377687	8
	4	2	398109.4	3974.212	-2524.965	1	4708.482	-32.42931	2.03369E-008	0.0377065	8
	5	3	316265.6	4441.44	-2385.44	1	5041.499	-28.23967	5.531268E-008	0.0376916	8
	6	3	251203.1	4850.188	-2206.364	1	5328.448	-24.46092	4.592972E-008	0.0376685	8
	7	3	199546.9	5184.391	-2004.176	1	5558.294	-21.13545	5.144605E-008	0.0376815	8
	8	4	158578.1	5460.639	-1801.746	1	5750.206	-18.26038	3.715601E-008	0.0376697	8
	9	4	125953.1	5719.251	-1549.396	1	5925.408	-15.1581	2.281645E-009	0.0375997	7
	10	4	100078.1	5870.808	-1400.484	1	6035.54	-13.41718	1.825681E-009	0.0375998	7
	11	5	79453.13	6014.652	-1288.594	1	6151.14	-12.09239	2.588283E-009	0.0375832	7
	12	5	63140.62	6137.092	-1205.883	1	6254.442	-11.11649	1.721448E-009	0.0375878	7
	13	5	50203.12	6245.413	-1151.844	1	6350.742	-10.44966	1.790517E-009	0.0375791	7
	14	5	39890.62	6347.669	-1126.867	1	6446.917	-10.06653	2.269486E-009	0.0375854	7
	15	6	31640.63	6448.171	-1132.099	1	6546.798	-9.95787	1.925547E-009	0.0375867	7
	16	6	25171.88	6546.304	-1164.271	1	6649.031	-10.0847	2.422788E-009	0.0375867	7
	17	6	20015.62	6650.479	-1225.571	1	6762.463	-10.4415	3.075066E-009	0.0375851	7
	18	7	15890.62	6761.342	-1316.894	1	6888.393	-11.02141	2.76691E-009	0.0375849	7
	19	7	12609.37	6882.066	-1441.368	1	7031.385	-11.82895	3.036156E-009	0.0375873	7
	20	7	10078.13	7010.365	-1594.261	1	7189.359	-12.81201	2.740324E-009	0.0375755	7
	21	8	8015.625	7156.372	-1786.878	1	7376.082	-14.01955	2.717676E-009	0.0375742	7
	22	8	6328.125	7326.871	-2031.808	1	7603.373	-15.49918	3.009136E-009	0.0375736	7
	23	8	5015.625	7515.989	-2323.559	1	7866.958	-17.17893	3.526998E-009	0.0375769	7
	24	9	3984.375	7728.958	-2664.454	1	8175.335	-19.02094	2.394821E-009	0.0375684	7
	25	9	3170.956	7971.372	-3069.445	1	8541.912	-21.05963	2.979108E-009	0.0375696	7
	26	9	2527.573	8249.147	-3547.107	1	8979.443	-23.26755	2.07243E-009	0.0375554	7
	27	10	1976.103	8606.258	-4143.026	1	9551.56	-25.70602	-1.164394E-010	0.0376196	6
	28	10	1577.524	8976.928	-4811.801	1	10185.22	-28.19214	1.539046E-010	0.0376187	6
	29	10	1265.625	9387.719	-5571.337	1	10916.46	-30.68789	-1.484801E-010	0.0376166	6
	30	11	998.264	9903.45	-6533.55	1	11864.47	-33.41381	-3.978437E-010	0.0376124	6
	31	11	796.875	10466.75	-7608.119	1	12939.72	-36.01283	-1.608293E-010	0.0376186	6
	32	11	627.7902	11149.67	-8945.18	1	14294.45	-38.73944	9.613699E-011	0.0376215	6
	33	12	505.5147	11853.83	-10378.39	1	15755.14	-41.20312	1.021739E-010	0.0376181	6
	34	12	397.9953	12733.76	-12249.56	1	17669.2	-43.88971	4.748295E-010	0.0376357	6
	35	12	315.5048	13712.28	-14424.67	1	19902.2	-46.45035	5.291637E-010	0.0376257	6
	36	12	252.4038	14783.43	-16921.2	1	22469.46	-48.85748	4.375939E-010	0.0376305	6
	37	13	198.6229	16111.3	-20149.25	1	25798.57	-51.35425	4.444488E-010	0.0376328	6
	38	13	158.3615	17581.68	-23837.54	1	29619.99	-53.5889	4.491201E-010	0.0376319	6
	39	13	125.558	19366.69	-28393.81	1	34369.71	-55.70311	4.2503E-010	0.0376321	6
	40	14	100.4464	21431.93	-33655.86	1	39900.43	-57.51116	3.102524E-010	0.0376329	6
	41	14	79.00281	24148.92	-40474.59	1	47131.34	-59.17784	4.100009E-010	0.0376291	6
	42	14	63.3446	27230.13	-47969.98	1	55159.76	-60.41861	5.05575E-010	0.0376243	6
	43	15	49.86702	31380.29	-57642.5	1	65630.64	-61.43635	1.656878E-010	0.037628	6
	44	15	39.72458	36292.56	-68527.24	1	77544.39	-62.09396	4.114978E-010	0.037633	6
	45	16	31.6723	42361.81	-81265.19	1	91643.63	-62.46793	5.169969E-010	0.0376287	6
	46	16	24.93351	50335.83	-96941.6	1	109230.8	-62.55991	-4.568076E-010	0.0376312	5
	47	16	19.86229	59703.81	-114404	1	129045.8	-62.44137	-2.059735E-010	0.0376295	5
	48	16	15.83615	71179.94	-134502.2	1	152175.6	-62.11174	-4.278596E-010	0.0376311	5
	49	17	12.40079	86538.09	-159471.6	1	181438.8	-61.51331	-9.728539E-010	0.0376378	5
	50	17	9.93114	103282.3	-185227.8	1	212076.8	-60.85612	-8.509619E-010	0.0376288	5
	51	17	7.944915	123816	-214386.7	1	247572.3	-59.99202	4.819083E-010	0.0376291	5
	52	18	6.317385	148849.3	-248168.6	1	289385.2	-59.04506	-1.4651E-010	0.0376384	5
	53	19	5.008013	179014.2	-286223.6	1	337594.5	-57.97671	-3.657915E-010	0.037625	5
	54	20	3.945707	215814.7	-328941.2	1	393418.8	-56.73157	2.139715E-011	0.0376361	5
	55	20	3.158693	254861.9	-373382.8	1	452072.3	-55.68352	-1.9193E-010	0.0376196	5
	56	21	2.504006	301903.5	-423357	1	519977.8	-54.50665	1.487192E-010	0.0376136	5
	57	23	1.998082	352393.4	-477491.3	1	593446.7	-53.5723	2.261172E-010	0.0376374	5
	58	24	1.584686	411502.8	-536643.8	1	676255.2	-52.51871	8.996579E-011	0.0375912	5
	59	26	1.266892	475985.3	-601916.2	1	767375.5	-51.66364	2.818668E-011	0.0375695	5
	60	29	0.999041	549889.6	-679344.6	1	874006.6	-51.01186	-5.252391E-012	0.0375775	5
