EXPLAIN
TAG	EISPOT
TITLE	LABEL	Potentiostatic EIS	Test &Identifier
DATE	LABEL	3/3/2020	Date
TIME	LABEL	18:51:41	Time
NOTES	NOTES	1	&Notes...
	
PSTAT	PSTAT	REF600-11020	Potentiostat
VDC	POTEN	0.00000E+000	T	DC &Voltage (V)
FREQINIT	QUANT	1.00000E+006	Initial Fre&q. (Hz)
FREQFINAL	QUANT	1.00000E+000	Final Fre&q. (Hz)
PTSPERDEC	QUANT	1.00000E+001	Points/&decade
VAC	QUANT	2.50000E+001	AC &Voltage (mV rms)
AREA	QUANT	1.60000E-004	&Area (cm^2)
CONDIT	TWOPARAM	F	1.50000E+001	0.00000E+000	Conditionin&g	Time(s)	E(V)
DELAY	TWOPARAM	F	1.00000E+002	0.00000E+000	Init. De&lay	Time(s)	Stab.(mV/s)
SPEED	SELECTOR	1	&Optimize for:
ZGUESS	QUANT	1.00000E+004	E&stimated Z (ohms)
OCVCURVE	TABLE	39
	Pt	T	Vf	Vm	Ach	Over
	#	s	V vs. Ref.	V	V	bits
	0	0.258333	1.06434E-001	1.06434E-001	5.46630E-004	...........
	1	0.516667	1.06433E-001	1.06419E-001	5.42230E-004	...........
	2	0.775	1.06432E-001	1.06443E-001	5.37231E-004	...........
	3	1.03333	1.06431E-001	1.06420E-001	5.42064E-004	...........
	4	1.29167	1.06430E-001	1.06405E-001	5.40697E-004	...........
	5	1.55	1.06426E-001	1.06400E-001	5.40931E-004	...........
	6	1.80833	1.06419E-001	1.06377E-001	5.43631E-004	...........
	7	2.06667	1.06409E-001	1.06377E-001	5.45664E-004	...........
	8	2.325	1.06397E-001	1.06375E-001	5.43131E-004	...........
	9	2.58333	1.06387E-001	1.06363E-001	5.45130E-004	...........
	10	2.84167	1.06378E-001	1.06359E-001	5.42630E-004	...........
	11	3.1	1.06372E-001	1.06353E-001	5.41897E-004	...........
	12	3.35833	1.06365E-001	1.06348E-001	5.49164E-004	...........
	13	3.61667	1.06359E-001	1.06341E-001	5.34964E-004	...........
	14	3.875	1.06354E-001	1.06358E-001	5.40564E-004	...........
	15	4.13333	1.06350E-001	1.06347E-001	5.42197E-004	...........
	16	4.39167	1.06349E-001	1.06333E-001	5.40197E-004	...........
	17	4.65	1.06347E-001	1.06331E-001	5.37864E-004	...........
	18	4.90833	1.06343E-001	1.06318E-001	5.39064E-004	...........
	19	5.16667	1.06337E-001	1.06307E-001	5.39797E-004	...........
	20	5.425	1.06328E-001	1.06293E-001	5.37697E-004	...........
	21	5.68333	1.06319E-001	1.06300E-001	5.44464E-004	...........
	22	5.94167	1.06309E-001	1.06293E-001	5.45897E-004	...........
	23	6.2	1.06302E-001	1.06293E-001	5.41364E-004	...........
	24	6.45833	1.06298E-001	1.06298E-001	5.47230E-004	...........
	25	6.71667	1.06295E-001	1.06292E-001	5.43164E-004	...........
	26	6.975	1.06295E-001	1.06288E-001	5.44864E-004	...........
	27	7.23333	1.06293E-001	1.06275E-001	5.48630E-004	...........
	28	7.49167	1.06291E-001	1.06299E-001	5.46297E-004	...........
	29	7.75	1.06289E-001	1.06302E-001	5.43031E-004	...........
	30	8.00833	1.06289E-001	1.06265E-001	5.47930E-004	...........
	31	8.26667	1.06289E-001	1.06262E-001	5.49564E-004	...........
	32	8.525	1.06285E-001	1.06282E-001	5.39664E-004	...........
	33	8.78333	1.06277E-001	1.06168E-001	5.48730E-004	...........
	34	9.04167	1.06262E-001	1.06139E-001	5.41897E-004	...........
	35	9.3	1.06235E-001	1.06155E-001	5.44730E-004	...........
	36	9.5583	1.06201E-001	1.06153E-001	5.41330E-004	...........
	37	9.8167	1.06173E-001	1.06164E-001	5.36497E-004	...........
	38	10.075	1.06158E-001	1.06176E-001	5.44097E-004	...........
EOC	QUANT	0.1061585	Open Circuit (V)
PSTATMODEL	IQUANT	4	Pstat Model
PSTATSECTION	LABEL	REF600-11020	Pstat Section
PSTATSERIALNO	LABEL	11020	Pstat Serial Number
CTRLMODE	IQUANT	1	Control Mode
IESTAB	IQUANT	0	I/E Stability
CASPEED	IQUANT	1	Control Amp Speed
CONVENTION	IQUANT	1	Current Convention
ICHRANGE	IQUANT	2	Ich Range
ICHRANGEMODE	TOGGLE	F	Ich Auto Range
ICHOFFSETENABLE	TOGGLE	T	Ich Offset Enable
ICHOFFSET	QUANT	0	Ich Offset (V)
ICHFILTER	IQUANT	3	Ich Filter
VCHRANGE	IQUANT	2	Vch Range
VCHRANGEMODE	TOGGLE	F	Vch Auto Range
VCHOFFSETENABLE	TOGGLE	T	Vch Offset Enable
VCHOFFSET	QUANT	0	Vch Offset (V)
VCHFILTER	IQUANT	3	Vch Filter
ACHRANGE	IQUANT	2	Ach Range
ACHOFFSETENABLE	TOGGLE	F	Ach Offset Enable
ACHOFFSET	QUANT	0	Ach Offset (V)
ACHFILTER	IQUANT	3	Ach Filter
IERANGELOWERLIMIT	IQUANT	1	I/E Range Lower Limit
IERANGEMODE	TOGGLE	F	I/E AutoRange
IERANGE	IQUANT	7	I/E Range
POSFEEDENABLE	TOGGLE	F	Positive Feedback IR Comp
POSFEEDRESISTANCE	QUANT	0	Positive Feedback Resistance (ohm)
ACHSELECT	IQUANT	0	Ach Select
CABLEID	IQUANT	14	Cable ID
DCCALDATE	LABEL	2/27/2020	DC Calibration Date
ACCALDATE	LABEL	2/27/2020	AC Calibration Date
THERMOSELECT	IQUANT	1	Thermo Select
FRAMEWORKVERSION	QUANT	6.33	Framework Version
INSTRUMENTVERSION	LABEL	3.50	Instrument Version
ZCURVE	TABLE
	Pt	Time	Freq	Zreal	Zimag	Zsig	Zmod	Zphz	Idc	Vdc	IERange
	#	s	Hz	ohm	ohm	V	ohm	°	A	V	#
	0	2	1000078	2126.203	-1898.073	1	2850.162	-41.75547	-3.841615E-006	0.109154	8
	1	3	794390.6	2517.543	-1930.601	1	3172.577	-37.48312	3.272229E-006	0.1080163	8
	2	4	630984.4	2902.271	-1892.219	1	3464.631	-33.1035	2.160974E-006	0.1077525	8
	3	6	501234.4	3278.784	-1787.401	1	3734.331	-28.59664	-2.385778E-006	0.1083466	8
	4	7	398109.4	3588.349	-1639.06	1	3944.967	-24.54963	6.839608E-008	0.107976	8
	5	8	316265.6	3837.368	-1482.182	1	4113.667	-21.11903	-1.057011E-006	0.1079415	8
	6	10	251203.1	4040.917	-1312.066	1	4248.591	-17.98836	1.281522E-006	0.1075501	8
	7	11	199546.9	4201.703	-1167.044	1	4360.769	-15.5229	-3.204321E-007	0.1080019	8
	8	13	158578.1	4337.178	-1030.173	1	4457.843	-13.36139	1.801402E-006	0.107391	8
	9	14	125953.1	4451.531	-888.2269	1	4539.281	-11.2842	3.193549E-007	0.1073758	7
	10	15	100078.1	4516.456	-807.5231	1	4588.079	-10.13713	-5.73084E-008	0.1079383	7
	11	17	79453.13	4586.719	-755.6492	1	4648.547	-9.355286	6.374714E-008	0.1077498	7
	12	18	63140.62	4650.168	-723.2453	1	4706.075	-8.840441	1.165325E-007	0.107559	7
	13	19	50203.12	4712.796	-710.2499	1	4766.016	-8.570361	-5.928052E-008	0.1076755	7
	14	21	39890.62	4772.199	-715.4208	1	4825.527	-8.525963	-5.569254E-008	0.1079298	7
	15	22	31640.63	4835.421	-739.2895	1	4891.61	-8.692659	1.143119E-007	0.107628	7
	16	24	25171.88	4901.362	-782.5081	1	4963.434	-9.070786	6.753211E-008	0.1077218	7
	17	25	20015.62	4972.309	-844.5004	1	5043.514	-9.63917	4.289114E-009	0.107597	7
	18	26	15890.62	5052.459	-925.4581	1	5136.518	-10.37979	-7.453568E-008	0.1078916	7
	19	28	12609.37	5143.856	-1029.96	1	5245.958	-11.32267	-1.080621E-007	0.1078779	7
	20	29	10078.13	5238.64	-1149.257	1	5363.221	-12.37357	1.154668E-007	0.1076207	7
	21	30	8015.625	5347.806	-1295.336	1	5502.447	-13.61585	1.17539E-007	0.1076265	7
	22	32	6328.125	5476.765	-1478.966	1	5672.944	-15.11191	2.89488E-008	0.1077904	7
	23	33	5015.625	5618.876	-1693.182	1	5868.444	-16.76956	1.261245E-007	0.1075715	7
	24	34	3984.375	5776.788	-1943.979	1	6095.107	-18.59889	-6.740341E-008	0.1078298	7
	25	36	3170.956	5953.55	-2236.621	1	6359.814	-20.59012	-1.451322E-007	0.1078515	7
	26	37	2527.573	6152.324	-2581.117	1	6671.826	-22.75977	3.029519E-008	0.1077903	7
	27	38	1976.103	6403.337	-3026.559	1	7082.569	-25.29792	7.489984E-008	0.1075398	7
	28	40	1577.524	6657.094	-3510.597	1	7526.035	-27.80478	4.867551E-008	0.1075385	7
	29	41	1265.625	6940.592	-4060.9	1	8041.314	-30.33165	-5.254563E-008	0.1079114	7
	30	42	998.264	7287.014	-4770.223	1	8709.512	-33.20955	-1.390427E-007	0.1079041	7
	31	44	796.875	7653.534	-5579.156	1	9471.196	-36.09073	-5.845129E-008	0.1076613	7
	32	45	627.7902	8120.499	-6592.407	1	10459.56	-39.07048	1.962206E-008	0.1076179	6
	33	46	505.5147	8582.649	-7692.182	1	11525.26	-41.86822	-2.351473E-008	0.108126	6
	34	48	397.9953	9175.971	-9149.636	1	12958.17	-44.91766	1.204584E-010	0.1077811	6
	35	49	315.5048	9838.38	-10857	1	14651.56	-47.81778	8.738867E-010	0.1077803	6
	36	51	252.4038	10573.29	-12828.49	1	16624.22	-50.50452	6.895648E-010	0.1077778	6
	37	52	198.6229	11486.57	-15386.09	1	19200.86	-53.25662	5.639676E-010	0.1077789	6
	38	53	158.3615	12503.41	-18320.62	1	22180.63	-55.68736	3.883742E-010	0.1077737	6
	39	55	125.558	13723.77	-21964.68	1	25899.59	-58.00241	5.048898E-010	0.1077731	6
	40	56	100.4464	15154.66	-26235.73	1	30298.14	-59.9878	5.000172E-010	0.107772	6
	41	57	79.00281	17055.44	-31804.7	1	36089.16	-61.79733	1.274214E-010	0.107774	6
	42	59	63.3446	19194.69	-37703.26	1	42308.05	-63.01941	5.165283E-010	0.1077741	6
	43	60	49.86702	22236.35	-46217.94	1	51288.92	-64.30689	-6.597391E-011	0.1077712	6
	44	62	39.72458	25700.62	-55294.67	1	60975.59	-65.07128	4.770548E-010	0.1077717	6
	45	63	31.6723	30304.72	-66226.18	1	72830.51	-65.41144	8.237756E-010	0.1077744	6
	46	64	24.93351	36506.3	-79724.02	1	87684.84	-65.39656	6.211563E-010	0.1077703	6
	47	66	19.86229	44041.29	-94870.55	1	104594.7	-65.09809	4.396007E-010	0.1077852	5
	48	67	15.83615	54043.89	-111694.8	1	124082.5	-64.17984	-2.133565E-010	0.1077741	5
	49	68	12.40079	67244.84	-134333.9	1	150224.7	-63.40838	9.519835E-010	0.1077755	5
	50	70	9.93114	81598.1	-155821.5	1	175893.7	-62.36058	-9.123301E-011	0.1077793	5
	51	71	7.944915	99938.2	-180566.5	1	206378	-61.03678	4.624532E-012	0.1077737	5
	52	73	6.317385	122427.6	-207681.4	1	241081	-59.48077	2.923292E-010	0.107763	5
	53	75	5.008013	149274.2	-237465.7	1	280486.7	-57.84596	-8.473373E-011	0.1077778	5
	54	77	3.945707	180299	-270026.6	1	324687.7	-56.26863	1.264693E-010	0.1077803	5
	55	80	3.158693	212097.7	-302472.4	1	369425.2	-54.96135	-6.218004E-011	0.1077633	5
	56	83	2.504006	247316.6	-340087.2	1	420505.4	-53.97477	3.556311E-010	0.1077872	5
	57	86	1.998082	283320	-380886.4	1	474704.8	-53.35651	3.456174E-010	0.1077903	5
	58	89	1.584686	322406.9	-428271.9	1	536062.5	-53.02724	9.592836E-011	0.1077322	5
	59	93	1.266892	360865.9	-485227.6	1	604706.6	-53.36166	2.504058E-010	0.1077984	5
	60	97	0.999041	405610.7	-557043.5	1	689070	-53.9398	-1.204137E-010	0.1077452	5
