EXPLAIN
TAG	EISPOT
TITLE	LABEL	Potentiostatic EIS	Test &Identifier
DATE	LABEL	3/20/2020	Date
TIME	LABEL	15:29:16	Time
NOTES	NOTES	1	&Notes...
	
PSTAT	PSTAT	REF600-11020	Potentiostat
VDC	POTEN	0.00000E+000	T	DC &Voltage (V)
FREQINIT	QUANT	1.00000E+006	Initial Fre&q. (Hz)
FREQFINAL	QUANT	1.00000E+000	Final Fre&q. (Hz)
PTSPERDEC	QUANT	1.00000E+001	Points/&decade
VAC	QUANT	2.50000E+001	AC &Voltage (mV rms)
AREA	QUANT	4.00000E-004	&Area (cm^2)
CONDIT	TWOPARAM	F	5.00000E+000	0.00000E+000	Conditionin&g	Time(s)	E(V)
DELAY	TWOPARAM	T	3.00000E+000	0.00000E+000	Init. De&lay	Time(s)	Stab.(mV/s)
SPEED	SELECTOR	0	&Optimize for:
ZGUESS	QUANT	1.00000E+003	E&stimated Z (ohms)
OCVCURVE	TABLE	12
	Pt	T	Vf	Vm	Ach	Over
	#	s	V vs. Ref.	V	V	bits
	0	0.258333	9.73561E-002	9.73561E-002	5.83363E-004	...........
	1	0.516667	9.73562E-002	9.73605E-002	5.87030E-004	...........
	2	0.775	9.73570E-002	9.73809E-002	5.87697E-004	...........
	3	1.03333	9.73598E-002	9.73687E-002	5.90463E-004	...........
	4	1.29167	9.73643E-002	9.73711E-002	5.86596E-004	...........
	5	1.55	9.73680E-002	9.73448E-002	5.84063E-004	...........
	6	1.80833	9.73684E-002	9.73818E-002	5.92163E-004	...........
	7	2.06667	9.73681E-002	9.74463E-002	5.88230E-004	...........
	8	2.325	9.73755E-002	9.74583E-002	5.87563E-004	...........
	9	2.58333	9.73942E-002	9.74046E-002	5.87296E-004	...........
	10	2.84167	9.74126E-002	9.73091E-002	5.87563E-004	...........
	11	3.1	9.74100E-002	9.71855E-002	5.88830E-004	...........
EOC	QUANT	0.09741	Open Circuit (V)
PSTATMODEL	IQUANT	4	Pstat Model
PSTATSECTION	LABEL	REF600-11020	Pstat Section
PSTATSERIALNO	LABEL	11020	Pstat Serial Number
CTRLMODE	IQUANT	1	Control Mode
IESTAB	IQUANT	0	I/E Stability
CASPEED	IQUANT	1	Control Amp Speed
CONVENTION	IQUANT	1	Current Convention
ICHRANGE	IQUANT	2	Ich Range
ICHRANGEMODE	TOGGLE	F	Ich Auto Range
ICHOFFSETENABLE	TOGGLE	T	Ich Offset Enable
ICHOFFSET	QUANT	0	Ich Offset (V)
ICHFILTER	IQUANT	3	Ich Filter
VCHRANGE	IQUANT	2	Vch Range
VCHRANGEMODE	TOGGLE	F	Vch Auto Range
VCHOFFSETENABLE	TOGGLE	T	Vch Offset Enable
VCHOFFSET	QUANT	0	Vch Offset (V)
VCHFILTER	IQUANT	3	Vch Filter
ACHRANGE	IQUANT	2	Ach Range
ACHOFFSETENABLE	TOGGLE	F	Ach Offset Enable
ACHOFFSET	QUANT	0	Ach Offset (V)
ACHFILTER	IQUANT	3	Ach Filter
IERANGELOWERLIMIT	IQUANT	1	I/E Range Lower Limit
IERANGEMODE	TOGGLE	F	I/E AutoRange
IERANGE	IQUANT	8	I/E Range
POSFEEDENABLE	TOGGLE	F	Positive Feedback IR Comp
POSFEEDRESISTANCE	QUANT	0	Positive Feedback Resistance (ohm)
ACHSELECT	IQUANT	0	Ach Select
CABLEID	IQUANT	14	Cable ID
DCCALDATE	LABEL	2/27/2020	DC Calibration Date
ACCALDATE	LABEL	2/27/2020	AC Calibration Date
THERMOSELECT	IQUANT	1	Thermo Select
FRAMEWORKVERSION	QUANT	6.33	Framework Version
INSTRUMENTVERSION	LABEL	3.50	Instrument Version
ZCURVE	TABLE
	Pt	Time	Freq	Zreal	Zimag	Zsig	Zmod	Zphz	Idc	Vdc	IERange
	#	s	Hz	ohm	ohm	V	ohm	°	A	V	#
	0	1	1000078	1743.401	-2081.723	1	2715.33	-50.05451	4.447617E-007	0.0997275	8
	1	1	794390.6	2065.535	-2266.646	1	3066.614	-47.65791	-2.912445E-007	0.0995257	8
	2	1	630984.4	2398.861	-2445.442	1	3425.598	-45.55092	3.436367E-007	0.0993021	8
	3	2	501234.4	2732.462	-2618.955	1	3784.875	-43.7849	-3.856538E-007	0.0993025	8
	4	2	398109.4	3072.443	-2807.614	1	4162.043	-42.42123	2.086665E-007	0.0991475	8
	5	2	316265.6	3402.224	-3018.289	1	4548.099	-41.57789	2.413251E-007	0.0991455	8
	6	3	251203.1	3729.531	-3290.537	1	4973.634	-41.42172	1.553024E-007	0.0991132	8
	7	3	199546.9	4048.751	-3615.47	1	5428.076	-41.76435	7.863348E-008	0.0991529	8
	8	3	158578.1	4382.083	-4037.296	1	5958.389	-42.65496	4.660248E-007	0.0991262	8
	9	4	125953.1	4816.921	-4518.411	1	6604.45	-43.16851	-3.213432E-008	0.0991356	7
	10	4	100078.1	5201	-5172.103	1	7334.92	-44.84038	3.071324E-009	0.0990867	7
	11	4	79453.13	5660.086	-6010.339	1	8255.953	-46.71904	4.893757E-009	0.0990977	7
	12	5	63140.62	6223.483	-7009.838	1	9373.877	-48.40065	3.835643E-009	0.0990779	7
	13	5	50203.12	6933.482	-8227.899	1	10759.72	-49.87985	1.04556E-008	0.0990598	7
	14	5	39890.62	7854.31	-9679.28	1	12465.09	-50.94218	3.832979E-009	0.0990718	7
	15	6	31640.63	9073.861	-11390.79	1	14563.14	-51.45931	4.693725E-009	0.0990848	7
	16	6	25171.88	10687.1	-13259.07	1	17029.89	-51.13042	8.507831E-009	0.0990616	7
	17	6	20015.62	12802.94	-15269.23	1	19926.48	-50.02085	4.392901E-009	0.0990685	7
	18	7	15890.62	15556.55	-17275.53	1	23247.58	-47.99708	8.559877E-009	0.0990575	7
	19	7	12609.37	19188.46	-18930.4	1	26954.72	-44.61212	3.285592E-010	0.0991224	6
	20	7	10078.13	22993.64	-20141.33	1	30567.64	-41.21681	2.543372E-009	0.0991038	6
	21	7	8015.625	27220.78	-20703.16	1	34199.29	-37.25533	1.28962E-009	0.0991041	6
	22	8	6328.125	31606.37	-20465.89	1	37653.89	-32.92403	1.091003E-009	0.0991127	6
	23	8	5015.625	35605.96	-19516.19	1	40603.77	-28.72784	2.417891E-009	0.0990873	6
	24	8	3984.375	39051.41	-18094.06	1	43039.61	-24.86015	1.447923E-009	0.099123	6
	25	9	3170.956	41889.37	-16477.87	1	45013.77	-21.47301	1.353224E-009	0.0991005	6
	26	9	2527.573	44124.76	-14843.99	1	46554.68	-18.59343	8.867578E-010	0.0991071	6
	27	9	1976.103	46016.15	-13218.42	1	47877.06	-16.02703	1.733429E-009	0.0991119	6
	28	10	1577.524	47362.32	-11978	1	48853.48	-14.19259	1.058813E-009	0.0990981	6
	29	10	1265.625	48440.55	-11072.55	1	49689.92	-12.87548	1.024121E-009	0.0990988	6
	30	10	998.264	49343.64	-10360.27	1	50419.54	-11.85767	1.209768E-009	0.0991231	6
	31	11	796.875	50091.38	-10025.85	1	51084.87	-11.31826	6.573562E-010	0.0991095	6
	32	11	627.7902	50914.58	-10043.98	1	51895.82	-11.15952	5.020421E-010	0.0991184	6
	33	11	505.5147	51418.46	-10360.94	1	52451.96	-11.39268	5.403079E-010	0.0991025	6
	34	12	397.9953	52011.88	-11058.76	1	53174.54	-12.00347	8.971205E-010	0.0991198	6
	35	12	315.5048	52651.88	-12169.79	1	54040.02	-13.01461	8.210869E-010	0.0991179	6
	36	12	252.4038	53303.83	-13662.31	1	55026.88	-14.37601	8.187057E-010	0.0991178	6
	37	13	198.6229	54038.37	-15818.44	1	56306.03	-16.31613	8.433144E-010	0.0991119	6
	38	13	158.3615	54780.78	-18457.68	1	57806.75	-18.62058	7.567245E-010	0.0991132	6
	39	13	125.558	55773.51	-21896.75	1	59917.87	-21.43504	6.641016E-010	0.0991154	6
	40	14	100.4464	56834.97	-26039.33	1	62516.08	-24.6152	6.008983E-010	0.0991154	6
	41	14	79.00281	58283.26	-31559.11	1	66279.08	-28.43458	5.108223E-010	0.0991164	6
	42	14	63.3446	60048.3	-37899.93	1	71008.47	-32.25838	5.597435E-010	0.0991178	6
	43	15	49.86702	62444.88	-46231.57	1	77696.34	-36.5147	3.026553E-010	0.0991102	6
	44	15	39.72458	65498.45	-55820.59	1	86058.04	-40.43906	2.423346E-010	0.0991113	6
	45	15	31.6723	69389.88	-67395.23	1	96732	-44.16455	-1.947803E-011	0.0991101	6
	46	16	24.93351	74888.27	-81956.95	1	111018.9	-47.58045	-1.94767E-010	0.0991128	5
	47	16	19.86229	81666.12	-98527.9	1	127973.1	-50.34593	2.938874E-010	0.0991225	5
	48	16	15.83615	90754.09	-118074.2	1	148922.2	-52.45343	-1.037413E-009	0.0991117	5
	49	16	12.40079	103673.8	-142478.6	1	176205.6	-53.95869	-8.42276E-010	0.0991194	5
	50	17	9.93114	118573.8	-167771.3	1	205443.4	-54.74891	-1.268359E-009	0.0991075	5
	51	17	7.944915	137777	-196318.4	1	239840.4	-54.93867	2.270866E-010	0.0991091	5
	52	18	6.317385	162186.4	-229114.1	1	280709.3	-54.70589	-3.85514E-010	0.0991163	5
	53	18	5.008013	192684.9	-265136.9	1	327757.6	-53.99269	-6.525726E-010	0.0991072	5
	54	19	3.945707	230669.1	-303770.7	1	381424.8	-52.78868	-2.777901E-010	0.09911	5
	55	20	3.158693	271288.2	-342192	1	436683.7	-51.59278	-4.482117E-010	0.0990899	5
	56	21	2.504006	319325.8	-382992.6	1	498650.5	-50.17984	-1.529731E-011	0.0990917	5
	57	22	1.998082	368637.5	-423938.1	1	561798.1	-48.99125	6.971217E-011	0.099108	5
	58	24	1.584686	426647.9	-467927.1	1	633233.1	-47.64198	-1.205532E-010	0.0990656	5
	59	26	1.266892	482369.9	-514954.6	1	705591.2	-46.87131	-1.547516E-010	0.0990513	5
	60	28	0.999041	546958.4	-571626.4	1	791151.2	-46.26333	-1.883629E-010	0.0990595	5
