EXPLAIN
TAG	EISPOT
TITLE	LABEL	Potentiostatic EIS	Test &Identifier
DATE	LABEL	1/25/2020	Date
TIME	LABEL	14:01:57	Time
NOTES	NOTES	6	&Notes...
	
	
	
	
	
	
PSTAT	PSTAT	REF600-11020	Potentiostat
VDC	POTEN	0.00000E+000	T	DC &Voltage (V)
FREQINIT	QUANT	1.00000E+006	Initial Fre&q. (Hz)
FREQFINAL	QUANT	1.00000E+000	Final Fre&q. (Hz)
PTSPERDEC	QUANT	1.00000E+001	Points/&decade
VAC	QUANT	2.50000E+001	AC &Voltage (mV rms)
AREA	QUANT	1.00000E-001	&Area (cm^2)
CONDIT	TWOPARAM	F	5.00000E+000	0.00000E+000	Conditionin&g	Time(s)	E(V)
DELAY	TWOPARAM	F	5.00000E+000	0.00000E+000	Init. De&lay	Time(s)	Stab.(mV/s)
SPEED	SELECTOR	0	&Optimize for:
ZGUESS	QUANT	5.00000E+002	E&stimated Z (ohms)
OCVCURVE	TABLE	39
	Pt	T	Vf	Vm	Ach	Over
	#	s	V vs. Ref.	V	V	bits
	0	0.258333	-6.01618E-003	-6.01618E-003	6.67213E-004	...........
	1	0.516667	-6.01852E-003	-6.13898E-003	6.67613E-004	...........
	2	0.775	-6.03099E-003	-6.15397E-003	6.66346E-004	...........
	3	1.03333	-6.05932E-003	-6.14219E-003	6.66113E-004	...........
	4	1.29167	-6.09578E-003	-6.15279E-003	6.65646E-004	...........
	5	1.55	-6.12611E-003	-6.16608E-003	6.66246E-004	...........
	6	1.80833	-6.14517E-003	-6.18472E-003	6.67479E-004	...........
	7	2.06667	-6.15776E-003	-6.20014E-003	6.61079E-004	...........
	8	2.325	-6.16971E-003	-6.21530E-003	6.67413E-004	...........
	9	2.58333	-6.18341E-003	-6.23415E-003	6.67213E-004	...........
	10	2.84167	-6.19874E-003	-6.24880E-003	6.66746E-004	...........
	11	3.1	-6.21489E-003	-6.26155E-003	6.64313E-004	...........
	12	3.35833	-6.23048E-003	-6.25116E-003	6.68146E-004	...........
	13	3.61667	-6.24100E-003	-6.14196E-003	6.70646E-004	...........
	14	3.875	-6.23897E-003	-6.21353E-003	6.64779E-004	...........
	15	4.13333	-6.22484E-003	-6.23272E-003	6.63546E-004	...........
	16	4.39167	-6.21239E-003	-6.25423E-003	6.66013E-004	...........
	17	4.65	-6.21375E-003	-6.27200E-003	6.63446E-004	...........
	18	4.90833	-6.22809E-003	-6.29253E-003	6.60213E-004	...........
	19	5.16667	-6.24832E-003	-6.30789E-003	6.61746E-004	...........
	20	5.425	-6.26914E-003	-6.32161E-003	6.60279E-004	...........
	21	5.68333	-6.28835E-003	-6.34077E-003	6.61079E-004	...........
	22	5.94167	-6.30580E-003	-6.35521E-003	6.62113E-004	...........
	23	6.2	-6.32232E-003	-6.37474E-003	6.59979E-004	...........
	24	6.45833	-6.33876E-003	-6.39185E-003	6.64946E-004	...........
	25	6.71667	-6.35558E-003	-6.40826E-003	6.63546E-004	...........
	26	6.975	-6.37273E-003	-6.42460E-003	6.63679E-004	...........
	27	7.23333	-6.38990E-003	-6.44291E-003	6.62313E-004	...........
	28	7.49167	-6.40689E-003	-6.45609E-003	6.63946E-004	...........
	29	7.75	-6.42365E-003	-6.47540E-003	6.61279E-004	...........
	30	8.00833	-6.44019E-003	-6.49137E-003	6.68979E-004	...........
	31	8.26667	-6.45670E-003	-6.50744E-003	6.63246E-004	...........
	32	8.525	-6.47328E-003	-6.52402E-003	6.70413E-004	...........
	33	8.78333	-6.48989E-003	-6.54266E-003	6.71013E-004	...........
	34	9.04167	-6.50671E-003	-6.56575E-003	6.73813E-004	...........
	35	9.3	-6.52423E-003	-6.57914E-003	6.73013E-004	...........
	36	9.5583	-6.54244E-003	-6.59596E-003	6.73379E-004	...........
	37	9.8167	-6.56058E-003	-6.61223E-003	6.72513E-004	...........
	38	10.075	-6.57796E-003	-6.62664E-003	6.67713E-004	...........
EOC	QUANT	-0.006578	Open Circuit (V)
PSTATMODEL	IQUANT	4	Pstat Model
PSTATSECTION	LABEL	REF600-11020	Pstat Section
PSTATSERIALNO	LABEL	11020	Pstat Serial Number
CTRLMODE	IQUANT	1	Control Mode
IESTAB	IQUANT	0	I/E Stability
CASPEED	IQUANT	1	Control Amp Speed
CONVENTION	IQUANT	1	Current Convention
ICHRANGE	IQUANT	2	Ich Range
ICHRANGEMODE	TOGGLE	F	Ich Auto Range
ICHOFFSETENABLE	TOGGLE	T	Ich Offset Enable
ICHOFFSET	QUANT	0	Ich Offset (V)
ICHFILTER	IQUANT	3	Ich Filter
VCHRANGE	IQUANT	2	Vch Range
VCHRANGEMODE	TOGGLE	F	Vch Auto Range
VCHOFFSETENABLE	TOGGLE	T	Vch Offset Enable
VCHOFFSET	QUANT	0	Vch Offset (V)
VCHFILTER	IQUANT	3	Vch Filter
ACHRANGE	IQUANT	2	Ach Range
ACHOFFSETENABLE	TOGGLE	F	Ach Offset Enable
ACHOFFSET	QUANT	0	Ach Offset (V)
ACHFILTER	IQUANT	3	Ach Filter
IERANGELOWERLIMIT	IQUANT	1	I/E Range Lower Limit
IERANGEMODE	TOGGLE	F	I/E AutoRange
IERANGE	IQUANT	7	I/E Range
POSFEEDENABLE	TOGGLE	F	Positive Feedback IR Comp
POSFEEDRESISTANCE	QUANT	0	Positive Feedback Resistance (ohm)
ACHSELECT	IQUANT	0	Ach Select
CABLEID	IQUANT	14	Cable ID
DCCALDATE	LABEL	12/22/2019	DC Calibration Date
ACCALDATE	LABEL	12/22/2019	AC Calibration Date
THERMOSELECT	IQUANT	1	Thermo Select
FRAMEWORKVERSION	QUANT	6.33	Framework Version
INSTRUMENTVERSION	LABEL	3.50	Instrument Version
ZCURVE	TABLE
	Pt	Time	Freq	Zreal	Zimag	Zsig	Zmod	Zphz	Idc	Vdc	IERange
	#	s	Hz	ohm	ohm	V	ohm	°	A	V	#
	0	1	1000078	2231.349	-1767.653	1	2846.667	-38.38593	4.949248E-006	-0.0050943	8
	1	1	794390.6	2561.67	-1760.513	1	3108.304	-34.49887	1.438391E-006	-0.0051868	8
	2	1	630984.4	2884.914	-1724.312	1	3360.949	-30.86674	9.773548E-007	-0.005038	8
	3	2	501234.4	3196.281	-1642.557	1	3593.634	-27.19846	-5.905976E-007	-0.0047586	8
	4	2	398109.4	3464.019	-1550.676	1	3795.263	-24.11578	1.213599E-006	-0.0051296	8
	5	2	316265.6	3720.902	-1434.146	1	3987.717	-21.07815	1.513904E-006	-0.0051973	8
	6	3	251203.1	3935.326	-1320.913	1	4151.097	-18.55461	2.39709E-006	-0.0053461	8
	7	3	199546.9	4117.055	-1195.238	1	4287.042	-16.18875	-8.63843E-007	-0.0047189	8
	8	3	158578.1	4265.59	-1086.702	1	4401.838	-14.29264	-2.568405E-006	-0.0043429	8
	9	4	125953.1	4424.51	-934.5897	1	4522.14	-11.92726	8.65004E-007	-0.0067895	7
	10	4	100078.1	4520.14	-834.8839	1	4596.596	-10.46477	-2.404933E-008	-0.0049126	7
	11	4	79453.13	4616.718	-756.28	1	4678.252	-9.303185	-2.002531E-008	-0.0048613	7
	12	5	63140.62	4693.563	-688.0559	1	4743.728	-8.339909	1.700939E-008	-0.0049531	7
	13	5	50203.12	4757.875	-634.3317	1	4799.975	-7.594032	8.07103E-008	-0.0050586	7
	14	5	39890.62	4811.458	-594.1663	1	4848.006	-7.039807	7.115944E-011	-0.0049231	7
	15	5	31640.63	4860.263	-570.8699	1	4893.674	-6.699072	-1.068187E-008	-0.0049169	7
	16	6	25171.88	4902.108	-563.0682	1	4934.34	-6.552418	-3.590563E-008	-0.004873	7
	17	6	20015.62	4944.934	-572.074	1	4977.915	-6.599151	3.742157E-008	-0.0049538	7
	18	6	15890.62	4983.229	-599.8433	1	5019.202	-6.863806	-3.576653E-008	-0.0048785	7
	19	7	12609.37	5023.367	-648.8451	1	5065.098	-7.359881	-2.964383E-008	-0.0049263	7
	20	7	10078.13	5064.346	-712.7014	1	5114.249	-8.010584	-4.549778E-009	-0.0049221	7
	21	7	8015.625	5107.712	-803.8544	1	5170.581	-8.943878	-4.470075E-009	-0.0049243	7
	22	8	6328.125	5157.233	-926.7108	1	5239.833	-10.18685	5.077183E-008	-0.005057	7
	23	8	5015.625	5209.6	-1082.847	1	5320.948	-11.74208	-5.238944E-009	-0.0049288	7
	24	8	3984.375	5273.545	-1275.951	1	5425.71	-13.6015	-1.024897E-008	-0.0049272	7
	25	9	3170.956	5341.04	-1512.034	1	5550.941	-15.80667	4.947634E-008	-0.0050588	7
	26	9	2527.573	5419.207	-1803.643	1	5711.474	-18.40869	-3.626034E-008	-0.0049032	7
	27	9	1976.103	5523.131	-2191.379	1	5941.979	-21.64139	-6.418777E-009	-0.0049335	7
	28	10	1577.524	5633.406	-2634.776	1	6219.108	-25.06576	1.91738E-008	-0.004974	7
	29	10	1265.625	5763.924	-3155.872	1	6571.327	-28.70165	1.507997E-008	-0.0050115	7
	30	10	998.264	5929.302	-3848.39	1	7068.715	-32.98543	1.177238E-009	-0.0049461	7
	31	11	796.875	6121.598	-4643.284	1	7683.362	-37.18063	1.627296E-008	-0.0050201	7
	32	11	627.7902	6372.136	-5682.529	1	8537.872	-41.72587	2.096394E-008	-0.0049802	7
	33	11	505.5147	6642.871	-6826.924	1	9525.47	-45.78285	-3.484307E-008	-0.0048944	7
	34	12	397.9953	7013.552	-8369.85	1	10919.9	-50.03853	7.037723E-010	-0.0049525	6
	35	12	315.5048	7457.315	-10208.32	1	12642.05	-53.85138	4.960066E-010	-0.0049566	6
	36	12	252.4038	7986.301	-12357.76	1	14713.77	-57.12711	2.887875E-010	-0.0049595	6
	37	12	198.6229	8701.077	-15175.26	1	17492.78	-60.17123	4.749542E-010	-0.0049565	6
	38	13	158.3615	9557.86	-18423	1	20754.75	-62.57969	-5.441841E-012	-0.0049595	6
	39	13	125.558	10675.13	-22463.21	1	24870.75	-64.58165	2.677888E-010	-0.0049637	6
	40	13	100.4464	12044.36	-27168.16	1	29718.27	-66.09103	-4.540326E-012	-0.0049634	6
	41	14	79.00281	13915.84	-33261.6	1	36055.3	-67.29675	-2.373551E-011	-0.0049609	6
	42	14	63.3446	16260.77	-39836.1	1	43027.05	-67.79512	1.59725E-010	-0.0049675	6
	43	14	49.86702	19420.76	-48636.52	1	52370.58	-68.23297	-2.159368E-010	-0.0049685	6
	44	15	39.72458	23156.71	-58618.06	1	63026.27	-68.4438	7.279359E-010	-0.0049637	6
	45	15	31.6723	27928.28	-70217.91	1	75568.14	-68.31044	6.061049E-010	-0.00497	6
	46	15	24.93351	34589.57	-84912.64	1	91687.48	-67.83624	-3.829979E-011	-0.00497	6
	47	16	19.86229	42683.95	-101123.7	1	109763	-67.11556	-3.031893E-010	-0.0049725	5
	48	16	15.83615	52277.66	-120220	1	131094.6	-66.49818	-1.312336E-010	-0.004975	5
	49	16	12.40079	67002.17	-143005.3	1	157923.4	-64.89554	-1.435556E-009	-0.0049636	5
	50	17	9.93114	83032.3	-166726.7	1	186258.3	-63.52604	-1.51617E-009	-0.0049714	5
	51	17	7.944915	103624.1	-194187.2	1	220105.9	-61.91427	-2.981474E-010	-0.0049713	5
	52	17	6.317385	127352.8	-222824	1	256650.1	-60.25032	-2.489494E-010	-0.0049631	5
	53	18	5.008013	156968.4	-255026.9	1	299462.5	-58.3878	-3.618394E-010	-0.0049802	5
	54	19	3.945707	193049	-290469.5	1	348769.9	-56.39157	4.168713E-010	-0.0049766	5
	55	20	3.158693	229534	-324342.1	1	397345.8	-54.7133	1.180468E-010	-0.0049548	5
	56	22	2.504006	273036.6	-362149.7	1	453543.2	-52.98616	-2.320451E-010	-0.004968	5
	57	23	1.998082	315682.2	-400447.8	1	509915.3	-51.75047	-1.019573E-011	-0.0049555	5
	58	25	1.584686	364599.3	-444656.8	1	575023.8	-50.64973	1.968925E-010	-0.0049241	5
	59	27	1.266892	411431.1	-493857.2	1	642783.4	-50.20241	1.865815E-010	-0.0049404	5
	60	29	0.999041	460511	-552646.3	1	719366.6	-50.19611	1.748867E-010	-0.0049635	5
