EXPLAIN
TAG	EISPOT
TITLE	LABEL	Potentiostatic EIS	Test &Identifier
DATE	LABEL	1/25/2020	Date
TIME	LABEL	11:49:25	Time
NOTES	NOTES	6	&Notes...
	
	
	
	
	
	
PSTAT	PSTAT	REF600-11020	Potentiostat
VDC	POTEN	0.00000E+000	T	DC &Voltage (V)
FREQINIT	QUANT	1.00000E+006	Initial Fre&q. (Hz)
FREQFINAL	QUANT	1.00000E+000	Final Fre&q. (Hz)
PTSPERDEC	QUANT	1.00000E+001	Points/&decade
VAC	QUANT	2.50000E+001	AC &Voltage (mV rms)
AREA	QUANT	1.00000E-001	&Area (cm^2)
CONDIT	TWOPARAM	F	5.00000E+000	0.00000E+000	Conditionin&g	Time(s)	E(V)
DELAY	TWOPARAM	F	5.00000E+000	0.00000E+000	Init. De&lay	Time(s)	Stab.(mV/s)
SPEED	SELECTOR	0	&Optimize for:
ZGUESS	QUANT	5.00000E+002	E&stimated Z (ohms)
OCVCURVE	TABLE	39
	Pt	T	Vf	Vm	Ach	Over
	#	s	V vs. Ref.	V	V	bits
	0	0.258333	5.25486E-002	5.25486E-002	6.61879E-004	...........
	1	0.516667	5.25477E-002	5.25021E-002	6.63979E-004	...........
	2	0.775	5.25445E-002	5.25744E-002	6.68179E-004	...........
	3	1.03333	5.25383E-002	5.24109E-002	6.66413E-004	...........
	4	1.29167	5.25236E-002	5.23343E-002	6.68313E-004	...........
	5	1.55	5.24893E-002	5.23150E-002	6.59779E-004	...........
	6	1.80833	5.24354E-002	5.23073E-002	6.60213E-004	...........
	7	2.06667	5.23790E-002	5.22873E-002	6.64013E-004	...........
	8	2.325	5.23349E-002	5.22440E-002	6.63513E-004	...........
	9	2.58333	5.23033E-002	5.22085E-002	6.66579E-004	...........
	10	2.84167	5.22758E-002	5.21928E-002	6.64513E-004	...........
	11	3.1	5.22475E-002	5.21574E-002	6.65746E-004	...........
	12	3.35833	5.22185E-002	5.21247E-002	6.75446E-004	...........
	13	3.61667	5.21894E-002	5.21107E-002	6.67413E-004	...........
	14	3.875	5.21608E-002	5.20769E-002	6.67379E-004	...........
	15	4.13333	5.21334E-002	5.20519E-002	6.68279E-004	...........
	16	4.39167	5.21069E-002	5.20265E-002	6.69613E-004	...........
	17	4.65	5.20806E-002	5.20018E-002	6.61213E-004	...........
	18	4.90833	5.20546E-002	5.19746E-002	6.63146E-004	...........
	19	5.16667	5.20289E-002	5.19595E-002	6.67413E-004	...........
	20	5.425	5.20040E-002	5.19260E-002	6.63846E-004	...........
	21	5.68333	5.19788E-002	5.18556E-002	6.64379E-004	...........
	22	5.94167	5.19491E-002	5.18012E-002	6.63446E-004	...........
	23	6.2	5.19121E-002	5.18444E-002	6.65046E-004	...........
	24	6.45833	5.18748E-002	5.18602E-002	6.63379E-004	...........
	25	6.71667	5.18513E-002	5.19082E-002	6.58546E-004	...........
	26	6.975	5.18479E-002	5.18183E-002	6.58913E-004	...........
	27	7.23333	5.18558E-002	5.19163E-002	6.61713E-004	...........
	28	7.49167	5.18652E-002	5.19075E-002	6.60779E-004	...........
	29	7.75	5.18748E-002	5.18634E-002	6.60679E-004	...........
	30	8.00833	5.18821E-002	5.18132E-002	6.62113E-004	...........
	31	8.26667	5.18775E-002	5.17696E-002	6.66946E-004	...........
	32	8.525	5.18552E-002	5.17254E-002	6.62446E-004	...........
	33	8.78333	5.18184E-002	5.16531E-002	6.64313E-004	...........
	34	9.04167	5.17712E-002	5.15559E-002	6.62913E-004	...........
	35	9.3	5.17161E-002	5.15981E-002	6.57313E-004	...........
	36	9.5583	5.16631E-002	5.17136E-002	6.70813E-004	...........
	37	9.8167	5.16319E-002	5.16472E-002	6.59613E-004	...........
	38	10.075	5.16289E-002	5.15772E-002	6.63113E-004	...........
EOC	QUANT	0.0516289	Open Circuit (V)
PSTATMODEL	IQUANT	4	Pstat Model
PSTATSECTION	LABEL	REF600-11020	Pstat Section
PSTATSERIALNO	LABEL	11020	Pstat Serial Number
CTRLMODE	IQUANT	1	Control Mode
IESTAB	IQUANT	0	I/E Stability
CASPEED	IQUANT	1	Control Amp Speed
CONVENTION	IQUANT	1	Current Convention
ICHRANGE	IQUANT	2	Ich Range
ICHRANGEMODE	TOGGLE	F	Ich Auto Range
ICHOFFSETENABLE	TOGGLE	T	Ich Offset Enable
ICHOFFSET	QUANT	0	Ich Offset (V)
ICHFILTER	IQUANT	3	Ich Filter
VCHRANGE	IQUANT	2	Vch Range
VCHRANGEMODE	TOGGLE	F	Vch Auto Range
VCHOFFSETENABLE	TOGGLE	T	Vch Offset Enable
VCHOFFSET	QUANT	0	Vch Offset (V)
VCHFILTER	IQUANT	3	Vch Filter
ACHRANGE	IQUANT	2	Ach Range
ACHOFFSETENABLE	TOGGLE	F	Ach Offset Enable
ACHOFFSET	QUANT	0	Ach Offset (V)
ACHFILTER	IQUANT	3	Ach Filter
IERANGELOWERLIMIT	IQUANT	1	I/E Range Lower Limit
IERANGEMODE	TOGGLE	F	I/E AutoRange
IERANGE	IQUANT	8	I/E Range
POSFEEDENABLE	TOGGLE	F	Positive Feedback IR Comp
POSFEEDRESISTANCE	QUANT	0	Positive Feedback Resistance (ohm)
ACHSELECT	IQUANT	0	Ach Select
CABLEID	IQUANT	14	Cable ID
DCCALDATE	LABEL	12/22/2019	DC Calibration Date
ACCALDATE	LABEL	12/22/2019	AC Calibration Date
THERMOSELECT	IQUANT	1	Thermo Select
FRAMEWORKVERSION	QUANT	6.33	Framework Version
INSTRUMENTVERSION	LABEL	3.50	Instrument Version
ZCURVE	TABLE
	Pt	Time	Freq	Zreal	Zimag	Zsig	Zmod	Zphz	Idc	Vdc	IERange
	#	s	Hz	ohm	ohm	V	ohm	°	A	V	#
	0	1	1000078	1327.976	-1769.281	1	2212.211	-53.10906	-2.062742E-006	0.054419	8
	1	1	794390.6	1505.068	-2050.493	1	2543.571	-53.72121	-9.781185E-008	0.0540449	8
	2	1	630984.4	1727.236	-2391.62	1	2950.117	-54.16306	-5.094626E-007	0.0537027	8
	3	2	501234.4	2011.962	-2785.255	1	3435.933	-54.15709	-9.248087E-007	0.0537402	8
	4	2	398109.4	2364.729	-3227.595	1	4001.164	-53.77126	1.458808E-006	0.0530889	8
	5	2	316265.6	2817.513	-3708.66	1	4657.525	-52.77563	-8.852539E-007	0.0536031	8
	6	3	251203.1	3378.709	-4225.406	1	5410.151	-51.35356	-7.641989E-007	0.053584	8
	7	3	199546.9	4052.568	-4717.923	1	6219.494	-49.33832	2.689094E-007	0.0533011	8
	8	3	158578.1	4804.365	-5221.948	1	7095.82	-47.38492	-9.211539E-007	0.0535258	8
	9	4	125953.1	5754.412	-5639.357	1	8057.022	-44.42144	-2.795966E-007	0.0538261	7
	10	4	100078.1	6670.774	-6002.285	1	8973.664	-41.98051	-2.109683E-008	0.0533729	7
	11	4	79453.13	7634.425	-6336.616	1	9921.55	-39.69286	5.199533E-008	0.0532502	7
	12	5	63140.62	8602.015	-6640.573	1	10867.01	-37.66738	-1.967194E-008	0.0533627	7
	13	5	50203.12	9581.66	-6951.542	1	11837.74	-35.96109	-4.221861E-008	0.0534115	7
	14	5	39890.62	10577.88	-7265.693	1	12832.84	-34.48424	1.306518E-008	0.0532896	7
	15	6	31640.63	11610.01	-7646.714	1	13901.96	-33.37016	-1.429466E-008	0.0534199	7
	16	6	25171.88	12671.21	-8071.618	1	15023.67	-32.49732	-1.455436E-008	0.0534178	7
	17	6	20015.62	13804.2	-8513.414	1	16218.32	-31.66324	-1.899326E-008	0.0533532	7
	18	7	15890.62	15042.24	-9036.769	1	17548	-30.99574	-2.79198E-009	0.0533057	7
	19	7	12609.37	16457.01	-9524.4	1	19014.4	-30.05988	-3.264486E-010	0.0534329	6
	20	7	10078.13	17897.14	-10073.15	1	20537.19	-29.37236	-2.10855E-009	0.0533623	6
	21	8	8015.625	19491.76	-10596.06	1	22185.7	-28.52928	1.162945E-008	0.0531444	6
	22	8	6328.125	21258.73	-11079.1	1	23972.48	-27.52651	3.263385E-009	0.0533747	6
	23	8	5015.625	23071.88	-11451.69	1	25757.58	-26.39743	5.92435E-009	0.053215	6
	24	8	3984.375	24928.59	-11707.96	1	27541.07	-25.15756	4.45932E-009	0.053339	6
	25	9	3170.956	26759.81	-11866.18	1	29272.75	-23.91408	6.058115E-009	0.0532151	6
	26	9	2527.573	28534.5	-11979.13	1	30947.01	-22.77326	5.847463E-009	0.0532131	6
	27	9	1976.103	30355.64	-12054.18	1	32661.42	-21.65796	-7.089958E-010	0.0532829	6
	28	10	1577.524	31976.24	-12099.65	1	34188.91	-20.72639	-5.209412E-009	0.053426	6
	29	10	1265.625	33386.38	-12275.59	1	35571.63	-20.18759	3.45747E-009	0.0533746	6
	30	10	998.264	34865.98	-12602.03	1	37073.54	-19.87198	3.60511E-009	0.0532256	6
	31	11	796.875	36213.94	-13105.92	1	38512.53	-19.89532	-7.329057E-010	0.0533362	6
	32	11	627.7902	37670.17	-13871.64	1	40143.04	-20.21569	-1.291346E-009	0.0533189	6
	33	11	505.5147	38959.69	-14816.17	1	41681.85	-20.82155	-5.627278E-009	0.053394	6
	34	12	397.9953	40406.55	-16224.07	1	43542.05	-21.87649	7.706367E-010	0.0533431	6
	35	12	315.5048	41936.97	-17989.62	1	45632.62	-23.21778	1.061405E-009	0.0533418	6
	36	12	252.4038	43576.47	-20157.71	1	48012.93	-24.82443	1.093209E-009	0.0533361	6
	37	13	198.6229	45486.28	-22942.62	1	50944.73	-26.76571	8.045009E-010	0.0533451	6
	38	13	158.3615	47578.24	-26164.12	1	54297.79	-28.80717	1.048512E-009	0.05334	6
	39	13	125.558	50093.1	-30198.38	1	58491.55	-31.08347	9.892548E-010	0.0533383	6
	40	14	100.4464	52751.42	-34728.25	1	63156.66	-33.35842	1.033555E-009	0.053337	6
	41	14	79.00281	56283.72	-40429.29	1	69299.24	-35.69016	1.052512E-009	0.0533321	6
	42	14	63.3446	60934.33	-47163.22	1	77054.28	-37.7399	5.020509E-010	0.0533295	6
	43	15	49.86702	65707.27	-55182.17	1	85805.11	-40.02416	4.307915E-010	0.0533334	6
	44	15	39.72458	71086.74	-63501.21	1	95319.1	-41.77415	7.756392E-010	0.0533368	6
	45	15	31.6723	77475.74	-73287.09	1	106646.6	-43.40856	1.690919E-010	0.0533265	5
	46	16	24.93351	86123.66	-85496.21	1	121354.4	-44.79052	6.733294E-010	0.0533302	5
	47	16	19.86229	95602.7	-98496.8	1	137264.3	-45.85424	1.8604E-009	0.0533388	5
	48	16	15.83615	104769.8	-112178.8	1	153495.2	-46.95596	1.712752E-010	0.053334	5
	49	17	12.40079	121294.2	-131239.7	1	178706.8	-47.2553	3.807625E-010	0.053334	5
	50	17	9.93114	136982.4	-149106.3	1	202476.8	-47.42662	-5.896511E-010	0.0533376	5
	51	17	7.944915	155512.1	-170387.9	1	230686	-47.61348	-1.010751E-009	0.0533365	5
	52	18	6.317385	177274.7	-192482.9	1	261679.2	-47.35526	-6.496006E-010	0.0533409	5
	53	19	5.008013	202898.3	-216937.5	1	297034.7	-46.91524	3.089647E-011	0.0533339	5
	54	20	3.945707	232553.8	-243798.9	1	336926	-46.35231	2.364213E-011	0.0533207	5
	55	21	3.158693	264055.6	-272050.5	1	379126.4	-45.85439	4.084789E-010	0.0533308	5
	56	22	2.504006	299948.1	-302582	1	426057.2	-45.25046	2.281415E-010	0.0533295	5
	57	24	1.998082	338618.8	-335536.8	1	476704.9	-44.73807	-4.118531E-011	0.05328	5
	58	25	1.584686	378884	-371605.8	1	530701.4	-44.44436	1.202307E-010	0.0533174	5
	59	27	1.266892	422378.9	-409921.1	1	588590.9	-44.14246	2.73386E-010	0.0533454	5
	60	30	0.999041	472232.3	-457608.7	1	657578.3	-44.09898	3.338584E-010	0.053356	5
