EXPLAIN
TAG	EISPOT
TITLE	LABEL	Potentiostatic EIS	Test &Identifier
DATE	LABEL	6/1/2020	Date
TIME	LABEL	13:43:23	Time
NOTES	NOTES	1	&Notes...
	
PSTAT	PSTAT	REF600-11020	Potentiostat
VDC	POTEN	0.00000E+000	T	DC &Voltage (V)
FREQINIT	QUANT	1.00000E+006	Initial Fre&q. (Hz)
FREQFINAL	QUANT	1.00000E+000	Final Fre&q. (Hz)
PTSPERDEC	QUANT	1.00000E+001	Points/&decade
VAC	QUANT	2.50000E+001	AC &Voltage (mV rms)
AREA	QUANT	4.00000E-004	&Area (cm^2)
CONDIT	TWOPARAM	F	5.00000E+000	0.00000E+000	Conditionin&g	Time(s)	E(V)
DELAY	TWOPARAM	T	3.00000E+000	0.00000E+000	Init. De&lay	Time(s)	Stab.(mV/s)
SPEED	SELECTOR	0	&Optimize for:
ZGUESS	QUANT	1.00000E+003	E&stimated Z (ohms)
OCVCURVE	TABLE	12
	Pt	T	Vf	Vm	Ach	Over
	#	s	V vs. Ref.	V	V	bits
	0	0.258333	-1.51608E-002	-1.51608E-002	5.69630E-004	...........
	1	0.516667	-1.51604E-002	-1.51431E-002	5.64230E-004	...........
	2	0.775	-1.51584E-002	-1.51282E-002	5.63897E-004	...........
	3	1.03333	-1.51527E-002	-1.51103E-002	5.66697E-004	...........
	4	1.29167	-1.51425E-002	-1.50972E-002	5.66130E-004	...........
	5	1.55	-1.51289E-002	-1.50838E-002	5.66897E-004	...........
	6	1.80833	-1.51139E-002	-1.50695E-002	5.63763E-004	...........
	7	2.06667	-1.50991E-002	-1.50577E-002	5.65530E-004	...........
	8	2.325	-1.50850E-002	-1.50459E-002	5.67630E-004	...........
	9	2.58333	-1.50716E-002	-1.50351E-002	5.69830E-004	...........
	10	2.84167	-1.50592E-002	-1.50270E-002	5.68463E-004	...........
	11	3.1	-1.50476E-002	-1.50170E-002	5.68630E-004	...........
EOC	QUANT	-0.0150476	Open Circuit (V)
PSTATMODEL	IQUANT	4	Pstat Model
PSTATSECTION	LABEL	REF600-11020	Pstat Section
PSTATSERIALNO	LABEL	11020	Pstat Serial Number
CTRLMODE	IQUANT	1	Control Mode
IESTAB	IQUANT	0	I/E Stability
CASPEED	IQUANT	1	Control Amp Speed
CONVENTION	IQUANT	1	Current Convention
ICHRANGE	IQUANT	2	Ich Range
ICHRANGEMODE	TOGGLE	F	Ich Auto Range
ICHOFFSETENABLE	TOGGLE	T	Ich Offset Enable
ICHOFFSET	QUANT	0	Ich Offset (V)
ICHFILTER	IQUANT	3	Ich Filter
VCHRANGE	IQUANT	2	Vch Range
VCHRANGEMODE	TOGGLE	F	Vch Auto Range
VCHOFFSETENABLE	TOGGLE	T	Vch Offset Enable
VCHOFFSET	QUANT	0	Vch Offset (V)
VCHFILTER	IQUANT	3	Vch Filter
ACHRANGE	IQUANT	2	Ach Range
ACHOFFSETENABLE	TOGGLE	F	Ach Offset Enable
ACHOFFSET	QUANT	0	Ach Offset (V)
ACHFILTER	IQUANT	3	Ach Filter
IERANGELOWERLIMIT	IQUANT	1	I/E Range Lower Limit
IERANGEMODE	TOGGLE	F	I/E AutoRange
IERANGE	IQUANT	7	I/E Range
POSFEEDENABLE	TOGGLE	F	Positive Feedback IR Comp
POSFEEDRESISTANCE	QUANT	0	Positive Feedback Resistance (ohm)
ACHSELECT	IQUANT	0	Ach Select
CABLEID	IQUANT	14	Cable ID
DCCALDATE	LABEL	2/27/2020	DC Calibration Date
ACCALDATE	LABEL	2/27/2020	AC Calibration Date
THERMOSELECT	IQUANT	1	Thermo Select
FRAMEWORKVERSION	QUANT	6.33	Framework Version
INSTRUMENTVERSION	LABEL	3.50	Instrument Version
ZCURVE	TABLE
	Pt	Time	Freq	Zreal	Zimag	Zsig	Zmod	Zphz	Idc	Vdc	IERange
	#	s	Hz	ohm	ohm	V	ohm	°	A	V	#
	0	1	1000078	1956.351	-2313.672	1	3029.915	-49.78344	-7.258635E-009	-0.0125227	8
	1	2	794390.6	2424.358	-2495.99	1	3479.58	-45.83407	8.001332E-008	-0.0128941	8
	2	2	630984.4	2945.221	-2601.799	1	3929.845	-41.45728	6.288462E-008	-0.0130572	8
	3	2	501234.4	3482.604	-2615.351	1	4355.294	-36.90566	5.377446E-008	-0.0131802	8
	4	3	398109.4	4002.78	-2543.271	1	4742.412	-32.4309	3.356144E-008	-0.0132757	8
	5	3	316265.6	4475.842	-2398.968	1	5078.209	-28.19048	5.612755E-008	-0.0133137	8
	6	3	251203.1	4872.964	-2203.699	1	5348.09	-24.33389	4.578403E-008	-0.0133296	8
	7	4	199546.9	5207.469	-2005.547	1	5580.319	-21.06314	5.114241E-008	-0.0133145	8
	8	4	158578.1	5472.733	-1804.564	1	5762.574	-18.24931	4.756648E-008	-0.0133183	8
	9	4	125953.1	5733.969	-1556.333	1	5941.428	-15.18556	5.133366E-009	-0.0133839	7
	10	5	100078.1	5883.886	-1412.386	1	6051.029	-13.49807	2.267457E-009	-0.0133962	7
	11	5	79453.13	6028.16	-1307.377	1	6168.302	-12.23671	1.956164E-009	-0.0134011	7
	12	5	63140.62	6154.679	-1230.941	1	6276.567	-11.30997	1.849124E-009	-0.0134061	7
	13	6	50203.12	6269.917	-1182.553	1	6380.462	-10.68094	2.590797E-009	-0.0134055	7
	14	6	39890.62	6378.25	-1161.14	1	6483.08	-10.31752	2.14715E-009	-0.0134075	7
	15	6	31640.63	6486.645	-1168.582	1	6591.065	-10.21241	2.674376E-009	-0.0134177	7
	16	6	25171.88	6594.31	-1202.446	1	6703.044	-10.33412	3.113193E-009	-0.0134136	7
	17	7	20015.62	6705.489	-1262.305	1	6823.269	-10.66114	2.49388E-009	-0.0134138	7
	18	7	15890.62	6824.934	-1352.917	1	6957.737	-11.21247	2.524529E-009	-0.0134183	7
	19	7	12609.37	6954.605	-1474.084	1	7109.111	-11.96718	3.376196E-009	-0.0134193	7
	20	8	10078.13	7091.052	-1622.997	1	7274.417	-12.89178	3.102411E-009	-0.013419	7
	21	8	8015.625	7244.68	-1809.984	1	7467.358	-14.02741	2.920973E-009	-0.0134244	7
	22	8	6328.125	7424.212	-2048.471	1	7701.634	-15.42512	3.8508E-009	-0.0134163	7
	23	9	5015.625	7621.562	-2327.805	1	7969.121	-16.98391	2.587659E-009	-0.0134307	7
	24	9	3984.375	7845.85	-2661.756	1	8285.065	-18.73984	3.852529E-009	-0.0134247	7
	25	9	3170.956	8097.64	-3050.376	1	8653.125	-20.64136	2.403094E-009	-0.0134386	7
	26	10	2527.573	8385.049	-3506.413	1	9088.673	-22.69344	1.547209E-009	-0.0134419	7
	27	10	1976.103	8754.335	-4074.13	1	9655.93	-24.95653	-6.372931E-010	-0.0133803	6
	28	10	1577.524	9134.41	-4705.897	1	10275.35	-27.25678	-2.342654E-010	-0.0133827	6
	29	11	1265.625	9561.12	-5422.268	1	10991.64	-29.55827	-1.297221E-010	-0.0133774	6
	30	11	998.264	10089.37	-6325.889	1	11908.49	-32.08712	1.55695E-010	-0.0133769	6
	31	11	796.875	10658.03	-7323.903	1	12931.87	-34.49577	-1.559807E-010	-0.0133864	6
	32	12	627.7902	11348.15	-8570.637	1	14220.98	-37.06176	6.360551E-012	-0.0133825	6
	33	12	505.5147	12056.66	-9895.38	1	15597.49	-39.3771	-5.343143E-012	-0.0133818	6
	34	12	397.9953	12946.17	-11626.54	1	17400.57	-41.92601	3.83844E-010	-0.0133631	6
	35	13	315.5048	13937.59	-13627.83	1	19492.93	-44.35618	4.086786E-010	-0.0133665	6
	36	13	252.4038	15030.66	-15912.65	1	21889.11	-46.63268	4.573179E-010	-0.0133689	6
	37	13	198.6229	16394.3	-18841.02	1	24975.13	-48.97222	4.377975E-010	-0.01337	6
	38	14	158.3615	17903.23	-22146.93	1	28478.28	-51.04847	3.796893E-010	-0.0133741	6
	39	14	125.558	19723.44	-26177.97	1	32776.52	-53.0043	4.703488E-010	-0.0133727	6
	40	14	100.4464	21782.85	-30771.62	1	37701.26	-54.70579	4.419705E-010	-0.0133759	6
	41	14	79.00281	24407.11	-36646.45	1	44030.33	-56.33576	3.165011E-010	-0.0133798	6
	42	15	63.3446	27241.69	-43060.14	1	50953.76	-57.6808	1.917929E-010	-0.0133808	6
	43	15	49.86702	30861.3	-51320.01	1	59884.58	-58.97939	5.067472E-010	-0.0133834	6
	44	16	39.72458	34923.96	-60715.82	1	70043.52	-60.09233	5.863636E-010	-0.0133788	6
	45	16	31.6723	39754.89	-71909.84	1	82167.37	-61.06427	3.910884E-010	-0.0133796	6
	46	16	24.93351	46005.46	-86102.01	1	97622	-61.88381	8.126195E-010	-0.013379	6
	47	17	19.86229	53445.99	-102215.1	1	115344.7	-62.39594	2.892815E-010	-0.0133648	5
	48	17	15.83615	62762.24	-121303.6	1	136578.4	-62.64304	1.045866E-009	-0.0133744	5
	49	17	12.40079	75698.06	-145540.9	1	164049.8	-62.52037	1.278272E-009	-0.0133716	5
	50	17	9.93114	90670.74	-170700.5	1	193287	-62.02417	1.473774E-009	-0.0133713	5
	51	18	7.944915	109366.6	-199860.5	1	227827.3	-61.31189	4.217188E-010	-0.0133764	5
	52	18	6.317385	133393.9	-232804.9	1	268313.3	-60.18791	-1.239796E-011	-0.0133649	5
	53	19	5.008013	163204.5	-269110.8	1	314732.2	-58.76493	3.473948E-010	-0.013363	5
	54	20	3.945707	199658.2	-309433.4	1	368255.9	-57.16836	3.638743E-010	-0.0133678	5
	55	21	3.158693	238071.7	-348442.5	1	422007.5	-55.65735	1.875262E-010	-0.0133573	5
	56	22	2.504006	282977	-392036.2	1	483496	-54.17775	-1.0633E-010	-0.0133729	5
	57	23	1.998082	327837.8	-436715	1	546074.7	-53.10479	5.435144E-011	-0.0133681	5
	58	25	1.584686	378380.8	-488699.6	1	618061	-52.25079	1.818179E-010	-0.0133361	5
	59	27	1.266892	427037.8	-547754.8	1	694547.8	-52.05949	1.584818E-010	-0.0133473	5
	60	29	0.999041	480682.4	-620988.5	1	785291.3	-52.25797	1.380816E-010	-0.0133795	5
