EXPLAIN
TAG	EISPOT
TITLE	LABEL	Potentiostatic EIS	Test &Identifier
DATE	LABEL	1/21/2020	Date
TIME	LABEL	18:10:55	Time
NOTES	NOTES	6	&Notes...
	
	
	
	
	
	
PSTAT	PSTAT	REF600-11020	Potentiostat
VDC	POTEN	0.00000E+000	T	DC &Voltage (V)
FREQINIT	QUANT	1.00000E+006	Initial Fre&q. (Hz)
FREQFINAL	QUANT	1.00000E+000	Final Fre&q. (Hz)
PTSPERDEC	QUANT	1.00000E+001	Points/&decade
VAC	QUANT	2.50000E+001	AC &Voltage (mV rms)
AREA	QUANT	1.00000E-001	&Area (cm^2)
CONDIT	TWOPARAM	F	5.00000E+000	0.00000E+000	Conditionin&g	Time(s)	E(V)
DELAY	TWOPARAM	F	5.00000E+000	0.00000E+000	Init. De&lay	Time(s)	Stab.(mV/s)
SPEED	SELECTOR	0	&Optimize for:
ZGUESS	QUANT	5.00000E+002	E&stimated Z (ohms)
OCVCURVE	TABLE	39
	Pt	T	Vf	Vm	Ach	Over
	#	s	V vs. Ref.	V	V	bits
	0	0.258333	-5.74381E-002	-5.74381E-002	6.62413E-004	...........
	1	0.516667	-5.74387E-002	-5.74678E-002	6.61779E-004	...........
	2	0.775	-5.74413E-002	-5.74516E-002	6.62913E-004	...........
	3	1.03333	-5.74472E-002	-5.74983E-002	6.58079E-004	...........
	4	1.29167	-5.74573E-002	-5.75442E-002	6.65879E-004	...........
	5	1.55	-5.74738E-002	-5.75183E-002	6.70613E-004	...........
	6	1.80833	-5.74948E-002	-5.75432E-002	6.68113E-004	...........
	7	2.06667	-5.75150E-002	-5.75874E-002	6.64246E-004	...........
	8	2.325	-5.75334E-002	-5.76061E-002	6.65379E-004	...........
	9	2.58333	-5.75537E-002	-5.76127E-002	6.69946E-004	...........
	10	2.84167	-5.75755E-002	-5.76177E-002	6.63413E-004	...........
	11	3.1	-5.75941E-002	-5.76000E-002	6.68679E-004	...........
	12	3.35833	-5.76083E-002	-5.77514E-002	6.65979E-004	...........
	13	3.61667	-5.76263E-002	-5.77449E-002	6.66746E-004	...........
	14	3.875	-5.76568E-002	-5.77321E-002	6.62813E-004	...........
	15	4.13333	-5.76934E-002	-5.77579E-002	6.65879E-004	...........
	16	4.39167	-5.77200E-002	-5.76038E-002	6.64146E-004	...........
	17	4.65	-5.77235E-002	-5.76372E-002	6.65146E-004	...........
	18	4.90833	-5.77015E-002	-5.75727E-002	6.66713E-004	...........
	19	5.16667	-5.76645E-002	-5.75675E-002	6.65913E-004	...........
	20	5.425	-5.76271E-002	-5.76013E-002	6.64813E-004	...........
	21	5.68333	-5.76008E-002	-5.76168E-002	6.62479E-004	...........
	22	5.94167	-5.75913E-002	-5.76239E-002	6.62913E-004	...........
	23	6.2	-5.75967E-002	-5.76483E-002	6.63346E-004	...........
	24	6.45833	-5.76109E-002	-5.77021E-002	6.63579E-004	...........
	25	6.71667	-5.76331E-002	-5.78077E-002	6.59779E-004	...........
	26	6.975	-5.76681E-002	-5.78347E-002	6.61413E-004	...........
	27	7.23333	-5.77173E-002	-5.78732E-002	6.58846E-004	...........
	28	7.49167	-5.77752E-002	-5.80463E-002	6.65346E-004	...........
	29	7.75	-5.78358E-002	-5.78592E-002	6.62646E-004	...........
	30	8.00833	-5.78883E-002	-5.79102E-002	6.64346E-004	...........
	31	8.26667	-5.79168E-002	-5.79063E-002	6.60846E-004	...........
	32	8.525	-5.79214E-002	-5.79551E-002	6.62779E-004	...........
	33	8.78333	-5.79187E-002	-5.78924E-002	6.60546E-004	...........
	34	9.04167	-5.79169E-002	-5.78438E-002	6.65413E-004	...........
	35	9.3	-5.79095E-002	-5.78453E-002	6.66113E-004	...........
	36	9.5583	-5.78941E-002	-5.79606E-002	6.64979E-004	...........
	37	9.8167	-5.78829E-002	-5.78784E-002	6.66013E-004	...........
	38	10.075	-5.78853E-002	-5.79272E-002	6.71479E-004	...........
EOC	QUANT	-0.0578853	Open Circuit (V)
PSTATMODEL	IQUANT	4	Pstat Model
PSTATSECTION	LABEL	REF600-11020	Pstat Section
PSTATSERIALNO	LABEL	11020	Pstat Serial Number
CTRLMODE	IQUANT	1	Control Mode
IESTAB	IQUANT	0	I/E Stability
CASPEED	IQUANT	1	Control Amp Speed
CONVENTION	IQUANT	1	Current Convention
ICHRANGE	IQUANT	2	Ich Range
ICHRANGEMODE	TOGGLE	F	Ich Auto Range
ICHOFFSETENABLE	TOGGLE	T	Ich Offset Enable
ICHOFFSET	QUANT	0	Ich Offset (V)
ICHFILTER	IQUANT	3	Ich Filter
VCHRANGE	IQUANT	2	Vch Range
VCHRANGEMODE	TOGGLE	F	Vch Auto Range
VCHOFFSETENABLE	TOGGLE	T	Vch Offset Enable
VCHOFFSET	QUANT	0	Vch Offset (V)
VCHFILTER	IQUANT	3	Vch Filter
ACHRANGE	IQUANT	2	Ach Range
ACHOFFSETENABLE	TOGGLE	F	Ach Offset Enable
ACHOFFSET	QUANT	0	Ach Offset (V)
ACHFILTER	IQUANT	3	Ach Filter
IERANGELOWERLIMIT	IQUANT	1	I/E Range Lower Limit
IERANGEMODE	TOGGLE	F	I/E AutoRange
IERANGE	IQUANT	8	I/E Range
POSFEEDENABLE	TOGGLE	F	Positive Feedback IR Comp
POSFEEDRESISTANCE	QUANT	0	Positive Feedback Resistance (ohm)
ACHSELECT	IQUANT	0	Ach Select
CABLEID	IQUANT	14	Cable ID
DCCALDATE	LABEL	12/22/2019	DC Calibration Date
ACCALDATE	LABEL	12/22/2019	AC Calibration Date
THERMOSELECT	IQUANT	1	Thermo Select
FRAMEWORKVERSION	QUANT	6.33	Framework Version
INSTRUMENTVERSION	LABEL	3.50	Instrument Version
ZCURVE	TABLE
	Pt	Time	Freq	Zreal	Zimag	Zsig	Zmod	Zphz	Idc	Vdc	IERange
	#	s	Hz	ohm	ohm	V	ohm	°	A	V	#
	0	1	1000078	1559.96	-877.2166	1	1789.689	-29.35047	-3.520249E-006	-0.0553583	8
	1	2	794390.6	1709.269	-876.2282	1	1920.775	-27.14119	3.599932E-006	-0.0565472	8
	2	2	630984.4	1843.478	-869.7437	1	2038.349	-25.2577	8.392252E-007	-0.0565346	8
	3	2	501234.4	1980.853	-853.204	1	2156.788	-23.30278	3.060438E-006	-0.0568837	8
	4	3	398109.4	2111.043	-840.2929	1	2272.134	-21.70485	1.360704E-006	-0.0566909	8
	5	3	316265.6	2237.619	-823.7967	1	2384.445	-20.21157	4.738937E-007	-0.0565255	8
	6	3	251203.1	2345.393	-793.6916	1	2476.049	-18.69605	6.742425E-008	-0.0564858	8
	7	4	199546.9	2449.038	-781.5426	1	2570.719	-17.69904	-6.60543E-007	-0.0562258	8
	8	4	158578.1	2553.64	-775.5107	1	2668.8	-16.89293	-6.536707E-007	-0.0562286	8
	9	4	125953.1	2651.755	-747.894	1	2755.204	-15.75043	8.995128E-007	-0.0583855	7
	10	5	100078.1	2741.052	-751.9311	1	2842.317	-15.34014	9.253842E-008	-0.0565705	7
	11	5	79453.13	2830.044	-776.1544	1	2934.547	-15.33657	4.567081E-009	-0.0564275	7
	12	5	63140.62	2921.162	-809.2147	1	3031.174	-15.48369	9.219775E-008	-0.0565779	7
	13	5	50203.12	3015.278	-850.9872	1	3133.063	-15.7604	5.35753E-008	-0.056554	7
	14	6	39890.62	3112.189	-903.9155	1	3240.8	-16.1956	-1.607481E-008	-0.0564439	7
	15	6	31640.63	3213.119	-969.849	1	3356.299	-16.79593	3.024715E-008	-0.0565351	7
	16	6	25171.88	3317.548	-1051.119	1	3480.082	-17.58008	4.507688E-009	-0.0564314	7
	17	7	20015.62	3427.889	-1152.611	1	3616.481	-18.58497	-2.116457E-008	-0.0563552	7
	18	7	15890.62	3545.457	-1277.783	1	3768.686	-19.81916	-2.859684E-008	-0.0564115	7
	19	7	12609.37	3677.086	-1433.347	1	3946.574	-21.29609	-4.188769E-008	-0.0563803	7
	20	8	10078.13	3822.605	-1617.537	1	4150.751	-22.93567	4.645562E-008	-0.0564578	7
	21	8	8015.625	3994.526	-1840.245	1	4398.039	-24.73513	-4.101416E-008	-0.0563797	7
	22	8	6328.125	4206.361	-2106.424	1	4704.306	-26.60038	3.089723E-008	-0.0565468	7
	23	9	5015.625	4456.754	-2414.109	1	5068.588	-28.44326	9.234311E-008	-0.0565877	7
	24	9	3984.375	4758.186	-2751.51	1	5496.466	-30.03946	1.382619E-008	-0.0565033	7
	25	9	3170.956	5112.877	-3123.752	1	5991.606	-31.42317	4.552738E-008	-0.0564654	7
	26	10	2527.573	5526.988	-3509.292	1	6546.963	-32.413	5.545173E-008	-0.0565662	7
	27	10	1976.103	6042.913	-3953.955	1	7221.534	-33.19724	5.202706E-009	-0.0564422	7
	28	10	1577.524	6572.809	-4368.3	1	7892.012	-33.60808	-1.111843E-008	-0.0564599	7
	29	11	1265.625	7099.921	-4763.852	1	8550.038	-33.86052	5.435988E-008	-0.0565676	7
	30	11	998.264	7681.614	-5242.39	1	9299.992	-34.31195	-1.252013E-008	-0.0563638	7
	31	11	796.875	8221.683	-5739.271	1	10026.73	-34.91756	2.3439E-009	-0.0564008	6
	32	11	627.7902	8766.874	-6375.356	1	10839.89	-36.02501	2.242963E-009	-0.0565059	6
	33	12	505.5147	9230.485	-7102.514	1	11646.78	-37.57694	-1.137336E-009	-0.0564367	6
	34	12	397.9953	9737.52	-8133.466	1	12687.5	-39.87103	2.570177E-010	-0.0564458	6
	35	12	315.5048	10231.76	-9423.562	1	13910.16	-42.6454	6.016643E-011	-0.0564439	6
	36	13	252.4038	10741.03	-10996.84	1	15372.06	-45.67423	2.303853E-010	-0.0564478	6
	37	13	198.6229	11354.73	-13135.31	1	17362.79	-49.15846	2.424942E-010	-0.0564514	6
	38	13	158.3615	12044.51	-15669.59	1	19763.76	-52.45214	3.742073E-011	-0.0564506	6
	39	14	125.558	12909.1	-18882.95	1	22873.8	-55.64199	5.1469E-010	-0.0564529	6
	40	14	100.4464	13943.08	-22687.39	1	26629.44	-58.4262	-9.45561E-012	-0.0564517	6
	41	14	79.00281	15323.73	-27694.24	1	31651.02	-61.04345	8.90303E-011	-0.0564521	6
	42	15	63.3446	17070.92	-33143.99	1	37281.9	-62.74912	7.064789E-011	-0.0564522	6
	43	15	49.86702	19337.08	-40534.72	1	44910.87	-64.49654	4.580592E-011	-0.0564522	6
	44	15	39.72458	22044.52	-48991.04	1	53722.27	-65.77366	9.113343E-011	-0.0564486	6
	45	16	31.6723	25554.64	-58981.93	1	64279.92	-66.57475	-3.466362E-011	-0.0564491	6
	46	16	24.93351	30281.99	-71698.52	1	77831.08	-67.10316	-5.305078E-011	-0.0564498	6
	47	16	19.86229	36065.16	-86107.15	1	93354.9	-67.27409	4.905625E-010	-0.0564492	6
	48	17	15.83615	43569.35	-102700.7	1	111560.4	-67.01158	-1.214006E-009	-0.0564496	5
	49	17	12.40079	53711.64	-123899.7	1	135041	-66.56284	-1.796506E-009	-0.0564519	5
	50	17	9.93114	64924.4	-146805.5	1	160521.1	-66.14269	-1.12685E-009	-0.056456	5
	51	18	7.944915	79103.93	-174109.1	1	191236.5	-65.56602	-8.37418E-010	-0.0564541	5
	52	18	6.317385	96811.1	-203354	1	225222.6	-64.5422	-1.053513E-010	-0.0564605	5
	53	19	5.008013	119006.9	-238702.8	1	266724	-63.50115	-2.348562E-010	-0.0564678	5
	54	20	3.945707	146685.6	-280168.9	1	316245.7	-62.36518	3.217682E-010	-0.0564593	5
	55	21	3.158693	177012.4	-322350.3	1	367754.1	-61.22746	-4.76321E-011	-0.0564509	5
	56	23	2.504006	214234.4	-372794.1	1	429967.2	-60.11521	-1.794167E-010	-0.0564607	5
	57	24	1.998082	255147.9	-425750.8	1	496350.9	-59.06619	7.96684E-011	-0.0564307	5
	58	25	1.584686	302851.6	-489038.1	1	575219.4	-58.23088	1.129238E-010	-0.0564156	5
	59	27	1.266892	353217.6	-556898.8	1	659468.7	-57.61476	7.741581E-011	-0.0564568	5
	60	30	0.999041	414352.9	-638552.4	1	761207.9	-57.0207	4.110479E-011	-0.056484	5
