EXPLAIN
TAG	EISPOT
TITLE	LABEL	Potentiostatic EIS	Test &Identifier
DATE	LABEL	7/30/2020	Date
TIME	LABEL	22:31:05	Time
NOTES	NOTES	1	&Notes...
	
PSTAT	PSTAT	REF600-11020	Potentiostat
VDC	POTEN	0.00000E+000	T	DC &Voltage (V)
FREQINIT	QUANT	1.00000E+006	Initial Fre&q. (Hz)
FREQFINAL	QUANT	1.00000E+000	Final Fre&q. (Hz)
PTSPERDEC	QUANT	1.00000E+001	Points/&decade
VAC	QUANT	2.50000E+001	AC &Voltage (mV rms)
AREA	QUANT	4.00000E-005	&Area (cm^2)
CONDIT	TWOPARAM	F	5.00000E+000	0.00000E+000	Conditionin&g	Time(s)	E(V)
DELAY	TWOPARAM	F	3.00000E+000	0.00000E+000	Init. De&lay	Time(s)	Stab.(mV/s)
SPEED	SELECTOR	0	&Optimize for:
ZGUESS	QUANT	1.00000E+003	E&stimated Z (ohms)
OCVCURVE	TABLE	39
	Pt	T	Vf	Vm	Ach	Over
	#	s	V vs. Ref.	V	V	bits
	0	0.258333	-1.35909E-001	-1.35909E-001	5.18383E-004	...........
	1	0.516667	-1.35911E-001	-1.35975E-001	5.19250E-004	...........
	2	0.775	-1.35918E-001	-1.36032E-001	5.18817E-004	...........
	3	1.03333	-1.35939E-001	-1.36085E-001	5.18417E-004	...........
	4	1.29167	-1.35976E-001	-1.36133E-001	5.16450E-004	...........
	5	1.55	-1.36024E-001	-1.36163E-001	5.20117E-004	...........
	6	1.80833	-1.36073E-001	-1.36195E-001	5.22417E-004	...........
	7	2.06667	-1.36119E-001	-1.36236E-001	5.14250E-004	...........
	8	2.325	-1.36159E-001	-1.36263E-001	5.25183E-004	...........
	9	2.58333	-1.36195E-001	-1.36254E-001	5.16817E-004	...........
	10	2.84167	-1.36224E-001	-1.36258E-001	5.21383E-004	...........
	11	3.1	-1.36244E-001	-1.36273E-001	5.17783E-004	...........
	12	3.35833	-1.36256E-001	-1.36296E-001	5.14250E-004	...........
	13	3.61667	-1.36266E-001	-1.36290E-001	5.19083E-004	...........
	14	3.875	-1.36276E-001	-1.36329E-001	5.21350E-004	...........
	15	4.13333	-1.36288E-001	-1.36313E-001	5.21183E-004	...........
	16	4.39167	-1.36300E-001	-1.36340E-001	5.16683E-004	...........
	17	4.65	-1.36312E-001	-1.36350E-001	5.21783E-004	...........
	18	4.90833	-1.36325E-001	-1.36390E-001	5.21650E-004	...........
	19	5.16667	-1.36339E-001	-1.36397E-001	5.24050E-004	...........
	20	5.425	-1.36358E-001	-1.36433E-001	5.25217E-004	...........
	21	5.68333	-1.36380E-001	-1.36472E-001	5.18550E-004	...........
	22	5.94167	-1.36405E-001	-1.36479E-001	5.24983E-004	...........
	23	6.2	-1.36432E-001	-1.36509E-001	5.23950E-004	...........
	24	6.45833	-1.36458E-001	-1.36535E-001	5.25083E-004	...........
	25	6.71667	-1.36483E-001	-1.36561E-001	5.25183E-004	...........
	26	6.975	-1.36508E-001	-1.36592E-001	5.23117E-004	...........
	27	7.23333	-1.36534E-001	-1.36606E-001	5.18217E-004	...........
	28	7.49167	-1.36559E-001	-1.36627E-001	5.21450E-004	...........
	29	7.75	-1.36584E-001	-1.36649E-001	5.23017E-004	...........
	30	8.00833	-1.36606E-001	-1.36662E-001	5.17517E-004	...........
	31	8.26667	-1.36626E-001	-1.36675E-001	5.19950E-004	...........
	32	8.525	-1.36644E-001	-1.36689E-001	5.19417E-004	...........
	33	8.78333	-1.36660E-001	-1.36707E-001	5.21250E-004	...........
	34	9.04167	-1.36675E-001	-1.36724E-001	5.22150E-004	...........
	35	9.3	-1.36690E-001	-1.36745E-001	5.18683E-004	...........
	36	9.5583	-1.36707E-001	-1.36763E-001	5.24550E-004	...........
	37	9.8167	-1.36724E-001	-1.36790E-001	5.22283E-004	...........
	38	10.075	-1.36743E-001	-1.36796E-001	5.16517E-004	...........
EOC	QUANT	-0.1367433	Open Circuit (V)
PSTATMODEL	IQUANT	4	Pstat Model
PSTATSECTION	LABEL	REF600-11020	Pstat Section
PSTATSERIALNO	LABEL	11020	Pstat Serial Number
CTRLMODE	IQUANT	1	Control Mode
IESTAB	IQUANT	0	I/E Stability
CASPEED	IQUANT	1	Control Amp Speed
CONVENTION	IQUANT	1	Current Convention
ICHRANGE	IQUANT	2	Ich Range
ICHRANGEMODE	TOGGLE	F	Ich Auto Range
ICHOFFSETENABLE	TOGGLE	T	Ich Offset Enable
ICHOFFSET	QUANT	0	Ich Offset (V)
ICHFILTER	IQUANT	3	Ich Filter
VCHRANGE	IQUANT	2	Vch Range
VCHRANGEMODE	TOGGLE	F	Vch Auto Range
VCHOFFSETENABLE	TOGGLE	T	Vch Offset Enable
VCHOFFSET	QUANT	0	Vch Offset (V)
VCHFILTER	IQUANT	3	Vch Filter
ACHRANGE	IQUANT	2	Ach Range
ACHOFFSETENABLE	TOGGLE	F	Ach Offset Enable
ACHOFFSET	QUANT	0	Ach Offset (V)
ACHFILTER	IQUANT	3	Ach Filter
IERANGELOWERLIMIT	IQUANT	1	I/E Range Lower Limit
IERANGEMODE	TOGGLE	F	I/E AutoRange
IERANGE	IQUANT	8	I/E Range
POSFEEDENABLE	TOGGLE	F	Positive Feedback IR Comp
POSFEEDRESISTANCE	QUANT	0	Positive Feedback Resistance (ohm)
ACHSELECT	IQUANT	0	Ach Select
CABLEID	IQUANT	14	Cable ID
DCCALDATE	LABEL	6/26/2020	DC Calibration Date
ACCALDATE	LABEL	6/26/2020	AC Calibration Date
THERMOSELECT	IQUANT	1	Thermo Select
FRAMEWORKVERSION	QUANT	6.33	Framework Version
INSTRUMENTVERSION	LABEL	3.50	Instrument Version
ZCURVE	TABLE
	Pt	Time	Freq	Zreal	Zimag	Zsig	Zmod	Zphz	Idc	Vdc	IERange
	#	s	Hz	ohm	ohm	V	ohm	°	A	V	#
	0	1	1000078	805.3189	-7117.406	1	7162.821	-83.54456	6.018889E-008	-0.1343031	8
	1	1	794390.6	961.159	-8875.158	1	8927.052	-83.81908	5.190139E-008	-0.1346524	8
	2	2	630984.4	1151.469	-11023.96	1	11083.93	-84.03699	5.451932E-008	-0.134818	8
	3	2	501234.4	1442.037	-13711.22	1	13786.84	-83.99615	5.468152E-008	-0.1348997	8
	4	2	398109.4	1769.706	-17078.57	1	17170.01	-84.08404	6.087124E-008	-0.1349881	8
	5	2	316265.6	2249.466	-21225.01	1	21343.88	-83.95027	8.471724E-008	-0.1350212	8
	6	3	251203.1	2922.83	-26503.48	1	26664.16	-83.70679	5.360645E-008	-0.1350321	8
	7	3	199546.9	3800.432	-32909.12	1	33127.84	-83.41251	5.540928E-008	-0.1350438	8
	8	3	158578.1	4920.304	-40865.71	1	41160.85	-83.13454	4.579368E-008	-0.135043	8
	9	4	125953.1	6797.488	-50958.2	1	51409.57	-82.40198	-2.559691E-009	-0.1350391	7
	10	4	100078.1	9211.865	-63194.33	1	63862.21	-81.70638	1.034315E-009	-0.1350801	7
	11	4	79453.13	12562.95	-78241.14	1	79243.32	-80.87804	1.011433E-010	-0.1350831	7
	12	5	63140.62	17194.01	-96474.1	1	97994.4	-79.89462	8.726382E-010	-0.1350898	7
	13	5	50203.12	23862.86	-118588	1	120965.1	-78.6226	6.740189E-010	-0.1350929	7
	14	5	39890.62	33392.29	-145014.9	1	148809.9	-77.03266	6.515149E-010	-0.1350915	7
	15	6	31640.63	45767.65	-176795.9	1	182623.8	-75.48629	1.4748E-009	-0.1350903	7
	16	6	25171.88	63667.47	-213582.5	1	222869.9	-73.40104	1.417557E-009	-0.1350913	7
	17	6	20015.62	86302.25	-257534.7	1	271610.4	-71.47353	1.718249E-010	-0.1350969	7
	18	6	15890.62	118352	-305334	1	327469.2	-68.81292	6.530466E-010	-0.1350953	7
	19	7	12609.37	160494.6	-359281.3	1	393499.1	-65.9292	7.708881E-010	-0.1351018	6
	20	7	10078.13	211393.7	-414633.5	1	465411.9	-62.98603	5.294198E-010	-0.1351077	6
	21	7	8015.625	274436.5	-474662.4	1	548288.1	-59.9647	6.537639E-010	-0.1351021	6
	22	8	6328.125	354510.5	-535935.6	1	642576.6	-56.51617	5.633148E-010	-0.1351091	6
	23	8	5015.625	446314.6	-593941	1	742941.9	-53.07711	8.038963E-010	-0.1351027	6
	24	8	3984.375	552058	-645104.1	1	849074.4	-49.44422	5.282239E-010	-0.1351081	6
	25	9	3170.956	667077.6	-687468.4	1	957917	-45.86244	5.789521E-010	-0.1351115	6
	26	9	2527.573	793334.1	-721145.8	1	1072115	-42.27104	7.462735E-010	-0.1351093	6
	27	9	1976.103	936732.5	-739818.6	1	1193650	-38.3012	7.323264E-010	-0.1351095	6
	28	10	1577.524	1071109	-747270.8	1	1306020	-34.90198	4.93088E-010	-0.1351097	6
	29	10	1265.625	1206084	-726805.8	1	1408150	-31.07385	3.294945E-010	-0.1351289	5
	30	10	998.264	1335518	-706739.8	1	1510990	-27.88725	3.399445E-010	-0.1351252	5
	31	10	796.875	1450529	-678441.9	1	1601349	-25.06645	3.477561E-010	-0.1351286	5
	32	11	627.7902	1561443	-642402.9	1	1688427	-22.36306	3.422536E-010	-0.1351258	5
	33	11	505.5147	1653729	-607300.5	1	1761713	-20.1648	3.498764E-010	-0.1351258	5
	34	11	397.9953	1744606	-567266.9	1	1834514	-18.01218	3.412608E-010	-0.1351031	5
	35	12	315.5048	1824329	-528999.2	1	1899478	-16.17053	3.469673E-010	-0.1350976	5
	36	12	252.4038	1893315	-494019.6	1	1956706	-14.62403	3.367879E-010	-0.1351025	5
	37	12	198.6229	1960273	-459240	1	2013348	-13.1851	3.541675E-010	-0.1351007	5
	38	13	158.3615	2017566	-429608.8	1	2062798	-12.0207	3.612504E-010	-0.1351026	5
	39	13	125.558	2075677	-397533.8	1	2113403	-10.842	3.481831E-010	-0.1351011	4
	40	13	100.4464	2123129	-376219	1	2156205	-10.04852	3.327312E-010	-0.1351033	4
	41	14	79.00281	2170525	-357760.2	1	2199811	-9.359715	3.30502E-010	-0.1351059	4
	42	14	63.3446	2211950	-343930.3	1	2238529	-8.838	3.34153E-010	-0.1351101	4
	43	14	49.86702	2254751	-333204.8	1	2279238	-8.406272	3.558999E-010	-0.1351091	4
	44	15	39.72458	2294154	-327116.2	1	2317358	-8.114927	3.354558E-010	-0.135104	4
	45	15	31.6723	2332998	-323015.7	1	2355254	-7.882782	2.967096E-010	-0.1351094	4
	46	15	24.93351	2374491	-324487.1	1	2396560	-7.781579	2.678411E-010	-0.1351122	4
	47	16	19.86229	2415030	-326885.3	1	2437052	-7.708399	3.302232E-010	-0.1351033	4
	48	16	15.83615	2456698	-330460.2	1	2478824	-7.661098	2.291568E-010	-0.1351098	4
	49	16	12.40079	2498233	-340855	1	2521379	-7.769375	2.054189E-010	-0.1351027	4
	50	16	9.93114	2543537	-353639.2	1	2568003	-7.915343	3.046479E-010	-0.1351084	4
	51	17	7.944915	2588391	-367266.8	1	2614317	-8.07579	3.42747E-010	-0.135112	4
	52	17	6.317385	2636871	-384692.2	1	2664784	-8.300306	3.616897E-010	-0.1351129	4
	53	18	5.008013	2690807	-404782	1	2721083	-8.554941	4.061712E-010	-0.1351058	4
	54	19	3.945707	2747032	-428840.9	1	2780303	-8.872866	3.344874E-010	-0.1351144	4
	55	20	3.158693	2804406	-448370.8	1	2840023	-9.083618	3.788029E-010	-0.1351124	4
	56	21	2.504006	2869175	-476186.3	1	2908422	-9.423274	4.053062E-010	-0.1351106	4
	57	22	1.998082	2932737	-501923.7	1	2975378	-9.7118	3.633819E-010	-0.1351528	4
	58	23	1.584686	3006007	-530003.6	1	3052373	-9.99933	3.363088E-010	-0.1351621	4
	59	25	1.266892	3077057	-560072.5	1	3127613	-10.3158	3.385339E-010	-0.135136	4
	60	28	0.999041	3153426	-591758.4	1	3208469	-10.62827	3.337755E-010	-0.1351186	4
