EXPLAIN
TAG	EISPOT
TITLE	LABEL	Potentiostatic EIS	Test &Identifier
DATE	LABEL	2/13/2020	Date
TIME	LABEL	10:53:31	Time
NOTES	NOTES	1	&Notes...
	
PSTAT	PSTAT	REF600-11020	Potentiostat
VDC	POTEN	0.00000E+000	T	DC &Voltage (V)
FREQINIT	QUANT	1.00000E+006	Initial Fre&q. (Hz)
FREQFINAL	QUANT	1.00000E+000	Final Fre&q. (Hz)
PTSPERDEC	QUANT	1.00000E+001	Points/&decade
VAC	QUANT	2.50000E+001	AC &Voltage (mV rms)
AREA	QUANT	5.00000E-004	&Area (cm^2)
CONDIT	TWOPARAM	F	1.50000E+001	0.00000E+000	Conditionin&g	Time(s)	E(V)
DELAY	TWOPARAM	F	1.00000E+002	0.00000E+000	Init. De&lay	Time(s)	Stab.(mV/s)
SPEED	SELECTOR	0	&Optimize for:
ZGUESS	QUANT	1.00000E+003	E&stimated Z (ohms)
OCVCURVE	TABLE	39
	Pt	T	Vf	Vm	Ach	Over
	#	s	V vs. Ref.	V	V	bits
	0	0.258333	4.73967E-002	4.73967E-002	5.47505E-004	...........
	1	0.516667	4.73956E-002	4.73420E-002	5.45838E-004	...........
	2	0.775	4.73894E-002	4.73005E-002	5.51005E-004	...........
	3	1.03333	4.73750E-002	4.73910E-002	5.46538E-004	...........
	4	1.29167	4.73581E-002	4.73132E-002	5.46705E-004	...........
	5	1.55	4.73462E-002	4.72917E-002	5.48471E-004	...........
	6	1.80833	4.73353E-002	4.72486E-002	5.47705E-004	...........
	7	2.06667	4.73163E-002	4.71906E-002	5.44171E-004	...........
	8	2.325	4.72904E-002	4.73912E-002	5.45705E-004	...........
	9	2.58333	4.72759E-002	4.74263E-002	5.46338E-004	...........
	10	2.84167	4.72891E-002	4.72280E-002	5.47638E-004	...........
	11	3.1	4.73114E-002	4.71411E-002	5.48105E-004	...........
	12	3.35833	4.73022E-002	4.70120E-002	5.46271E-004	...........
	13	3.61667	4.72442E-002	4.69739E-002	5.41671E-004	...........
	14	3.875	4.71565E-002	4.69683E-002	5.50338E-004	...........
	15	4.13333	4.70742E-002	4.71180E-002	5.48271E-004	...........
	16	4.39167	4.70313E-002	4.72512E-002	5.47371E-004	...........
	17	4.65	4.70441E-002	4.71598E-002	5.48505E-004	...........
	18	4.90833	4.70930E-002	4.70915E-002	5.48405E-004	...........
	19	5.16667	4.71339E-002	4.70615E-002	5.50705E-004	...........
	20	5.425	4.71402E-002	4.71003E-002	5.45238E-004	...........
	21	5.68333	4.71228E-002	4.71501E-002	5.48271E-004	...........
	22	5.94167	4.71086E-002	4.71387E-002	5.47105E-004	...........
	23	6.2	4.71109E-002	4.71592E-002	5.42305E-004	...........
	24	6.45833	4.71235E-002	4.71103E-002	5.48038E-004	...........
	25	6.71667	4.71328E-002	4.70697E-002	5.45805E-004	...........
	26	6.975	4.71288E-002	4.70559E-002	5.46071E-004	...........
	27	7.23333	4.71108E-002	4.70433E-002	5.41038E-004	...........
	28	7.49167	4.70869E-002	4.70478E-002	5.40971E-004	...........
	29	7.75	4.70663E-002	4.70533E-002	5.46771E-004	...........
	30	8.00833	4.70541E-002	4.70540E-002	5.39671E-004	...........
	31	8.26667	4.70499E-002	4.70563E-002	5.43171E-004	...........
	32	8.525	4.70505E-002	4.70515E-002	5.47005E-004	...........
	33	8.78333	4.70521E-002	4.70463E-002	5.43105E-004	...........
	34	9.04167	4.70523E-002	4.70381E-002	5.43171E-004	...........
	35	9.3	4.70502E-002	4.70411E-002	5.37205E-004	...........
	36	9.5583	4.70465E-002	4.70361E-002	5.38638E-004	...........
	37	9.8167	4.70427E-002	4.70305E-002	5.42205E-004	...........
	38	10.075	4.70392E-002	4.70329E-002	5.48371E-004	...........
EOC	QUANT	0.0470392	Open Circuit (V)
PSTATMODEL	IQUANT	4	Pstat Model
PSTATSECTION	LABEL	REF600-11020	Pstat Section
PSTATSERIALNO	LABEL	11020	Pstat Serial Number
CTRLMODE	IQUANT	1	Control Mode
IESTAB	IQUANT	0	I/E Stability
CASPEED	IQUANT	1	Control Amp Speed
CONVENTION	IQUANT	1	Current Convention
ICHRANGE	IQUANT	2	Ich Range
ICHRANGEMODE	TOGGLE	F	Ich Auto Range
ICHOFFSETENABLE	TOGGLE	T	Ich Offset Enable
ICHOFFSET	QUANT	0	Ich Offset (V)
ICHFILTER	IQUANT	3	Ich Filter
VCHRANGE	IQUANT	2	Vch Range
VCHRANGEMODE	TOGGLE	F	Vch Auto Range
VCHOFFSETENABLE	TOGGLE	T	Vch Offset Enable
VCHOFFSET	QUANT	0	Vch Offset (V)
VCHFILTER	IQUANT	3	Vch Filter
ACHRANGE	IQUANT	2	Ach Range
ACHOFFSETENABLE	TOGGLE	F	Ach Offset Enable
ACHOFFSET	QUANT	0	Ach Offset (V)
ACHFILTER	IQUANT	3	Ach Filter
IERANGELOWERLIMIT	IQUANT	1	I/E Range Lower Limit
IERANGEMODE	TOGGLE	F	I/E AutoRange
IERANGE	IQUANT	7	I/E Range
POSFEEDENABLE	TOGGLE	F	Positive Feedback IR Comp
POSFEEDRESISTANCE	QUANT	0	Positive Feedback Resistance (ohm)
ACHSELECT	IQUANT	0	Ach Select
CABLEID	IQUANT	14	Cable ID
DCCALDATE	LABEL	1/27/2020	DC Calibration Date
ACCALDATE	LABEL	1/27/2020	AC Calibration Date
THERMOSELECT	IQUANT	1	Thermo Select
FRAMEWORKVERSION	QUANT	6.33	Framework Version
INSTRUMENTVERSION	LABEL	3.50	Instrument Version
ZCURVE	TABLE
	Pt	Time	Freq	Zreal	Zimag	Zsig	Zmod	Zphz	Idc	Vdc	IERange
	#	s	Hz	ohm	ohm	V	ohm	°	A	V	#
	0	1	1000078	1826.024	-2048.563	1	2744.262	-48.2872	2.076298E-006	0.0484179	8
	1	2	794390.6	2228.177	-2193.124	1	3126.43	-44.54576	-1.041713E-006	0.0489078	8
	2	2	630984.4	2672.393	-2273.911	1	3508.896	-40.39412	1.750693E-007	0.0487247	8
	3	2	501234.4	3112.639	-2308.405	1	3875.21	-36.56148	2.314849E-006	0.048129	8
	4	3	398109.4	3574.764	-2264.686	1	4231.754	-32.35509	-6.14414E-007	0.0485882	8
	5	3	316265.6	3972.111	-2166.566	1	4524.563	-28.61002	1.131017E-006	0.0483201	8
	6	3	251203.1	4371.759	-2028.181	1	4819.315	-24.8879	-4.324011E-007	0.0485605	8
	7	4	199546.9	4670.084	-1874.128	1	5032.101	-21.86583	5.616515E-007	0.0484175	8
	8	4	158578.1	4950.765	-1702.217	1	5235.228	-18.97447	-9.103763E-008	0.0486127	8
	9	4	125953.1	5218.369	-1481.875	1	5424.696	-15.85311	-1.470864E-007	0.0486284	7
	10	4	100078.1	5411.801	-1320.928	1	5570.677	-13.71672	8.286245E-009	0.0484957	7
	11	5	79453.13	5568.579	-1181.494	1	5692.539	-11.97889	-3.190828E-008	0.0485422	7
	12	5	63140.62	5695.646	-1057.002	1	5792.896	-10.51338	6.607928E-009	0.0484811	7
	13	5	50203.12	5799.764	-953.434	1	5877.61	-9.335465	-3.469614E-008	0.0485627	7
	14	6	39890.62	5889.118	-871.1052	1	5953.195	-8.414053	2.984076E-008	0.0484854	7
	15	6	31640.63	5963.937	-808.7298	1	6018.52	-7.722396	-1.832069E-008	0.0486087	7
	16	6	25171.88	6029.234	-768.4449	1	6078.007	-7.263367	-1.96645E-008	0.0486077	7
	17	7	20015.62	6087.941	-749.4862	1	6133.902	-7.018367	1.94321E-008	0.0485064	7
	18	7	15890.62	6143.958	-752.741	1	6189.898	-6.984912	8.385889E-009	0.0484505	7
	19	7	12609.37	6199.26	-779.8756	1	6248.122	-7.170223	-3.16691E-008	0.048567	7
	20	8	10078.13	6249.494	-826.9271	1	6303.966	-7.537537	-3.444041E-008	0.0485606	7
	21	8	8015.625	6308.267	-903.7562	1	6372.677	-8.153023	-3.719858E-008	0.0485683	7
	22	8	6328.125	6369.758	-1010.328	1	6449.386	-9.012793	4.928634E-008	0.0485111	7
	23	9	5015.625	6432.444	-1149.011	1	6534.26	-10.12778	-3.723374E-008	0.0485481	7
	24	9	3984.375	6505.167	-1328.073	1	6639.351	-11.53874	-6.250012E-009	0.0486039	7
	25	9	3170.956	6582.692	-1550.737	1	6762.885	-13.25593	2.830016E-008	0.0485479	7
	26	10	2527.573	6670.766	-1825.211	1	6915.96	-15.30237	7.926323E-008	0.0483923	7
	27	10	1976.103	6781.465	-2198.821	1	7129.031	-17.96476	3.651193E-008	0.0484088	7
	28	10	1577.524	6908.812	-2616.435	1	7387.652	-20.74217	4.889171E-008	0.0485083	7
	29	11	1265.625	7044.025	-3115.432	1	7702.221	-23.85885	1.988466E-008	0.0484895	7
	30	11	998.264	7213.975	-3779.028	1	8143.861	-27.64772	7.807493E-008	0.0484302	7
	31	11	796.875	7404.083	-4541.057	1	8685.715	-31.52154	4.482009E-008	0.0483953	7
	32	11	627.7902	7655.701	-5533.069	1	9445.878	-35.85708	1.908077E-008	0.0484858	7
	33	12	505.5147	7928.617	-6629.223	1	10334.87	-39.89945	-1.67294E-009	0.0485691	6
	34	12	397.9953	8282.233	-8103.822	1	11587.38	-44.37619	-1.546023E-010	0.0485252	6
	35	12	315.5048	8716.537	-9863.99	1	13163.45	-48.53386	-9.880966E-010	0.0485297	6
	36	13	252.4038	9208.976	-11920.66	1	15063.45	-52.31312	1.866677E-009	0.0485246	6
	37	13	198.6229	9866.85	-14619.79	1	17637.83	-55.98471	6.253217E-010	0.0485221	6
	38	13	158.3615	10655.06	-17752.76	1	20704.85	-59.02817	-2.699718E-009	0.048518	6
	39	14	125.558	11656.79	-21652.31	1	24590.71	-61.70365	1.960941E-009	0.0485234	6
	40	14	100.4464	12871.38	-26229.85	1	29217.76	-63.86212	2.155584E-009	0.0485196	6
	41	14	79.00281	14515.24	-32173.88	1	35296.61	-65.7175	1.978481E-009	0.0485175	6
	42	15	63.3446	16888.59	-38773.42	1	42291.87	-66.46344	1.224843E-009	0.0485166	6
	43	15	49.86702	19636.24	-47547.37	1	51442.54	-67.56023	4.584966E-010	0.0485145	6
	44	16	39.72458	22966.01	-57408.79	1	61832.09	-68.19644	1.311144E-009	0.0485176	6
	45	16	31.6723	27353.61	-69182.71	1	74394	-68.42704	2.566069E-009	0.0485145	6
	46	16	24.93351	33783.49	-83913.89	1	90459.2	-68.07043	1.051471E-009	0.0485125	6
	47	16	19.86229	41471.41	-100147.1	1	108394.3	-67.50533	8.713324E-010	0.0485104	5
	48	17	15.83615	52396	-119828.5	1	130783.1	-66.38226	-1.85502E-009	0.0485115	5
	49	17	12.40079	64624.93	-142827.2	1	156767.3	-65.6547	1.564353E-009	0.0485115	5
	50	17	9.93114	80958.26	-166536.1	1	185171.6	-64.0742	2.954329E-010	0.0485091	5
	51	18	7.944915	100174.4	-193564.1	1	217949.5	-62.63728	-1.081243E-010	0.0485164	5
	52	19	6.317385	124208.6	-224208.7	1	256314.9	-61.01414	2.094048E-009	0.0485153	5
	53	19	5.008013	153036.6	-257319.9	1	299389	-59.25866	6.317837E-010	0.0485204	5
	54	20	3.945707	187800.8	-295208.5	1	349881.7	-57.53698	-1.311185E-010	0.0485047	5
	55	22	3.158693	225134.2	-331323.1	1	400575.1	-55.80387	2.587304E-010	0.0485017	5
	56	23	2.504006	267445.6	-372266.5	1	458377.1	-54.30558	2.865376E-010	0.0485074	5
	57	25	1.998082	312730.9	-414840.1	1	519512.2	-52.98886	-3.776147E-011	0.0484576	5
	58	26	1.584686	361200	-464756.2	1	588611.8	-52.1463	-4.072643E-011	0.0484717	5
	59	28	1.266892	411193	-517320.5	1	660832.9	-51.52051	4.539599E-011	0.0485063	5
	60	31	0.999041	468974.4	-582606.7	1	747908.8	-51.16736	9.71432E-011	0.0485328	5
