EXPLAIN
TAG	EISPOT
TITLE	LABEL	Potentiostatic EIS	Test &Identifier
DATE	LABEL	3/12/2020	Date
TIME	LABEL	12:42:00	Time
NOTES	NOTES	1	&Notes...
	
PSTAT	PSTAT	REF600-11020	Potentiostat
VDC	POTEN	0.00000E+000	T	DC &Voltage (V)
FREQINIT	QUANT	1.00000E+006	Initial Fre&q. (Hz)
FREQFINAL	QUANT	1.00000E+000	Final Fre&q. (Hz)
PTSPERDEC	QUANT	1.00000E+001	Points/&decade
VAC	QUANT	2.50000E+001	AC &Voltage (mV rms)
AREA	QUANT	2.50000E-001	&Area (cm^2)
CONDIT	TWOPARAM	F	5.00000E+000	0.00000E+000	Conditionin&g	Time(s)	E(V)
DELAY	TWOPARAM	T	5.00000E+000	0.00000E+000	Init. De&lay	Time(s)	Stab.(mV/s)
SPEED	SELECTOR	1	&Optimize for:
ZGUESS	QUANT	5.00000E+003	E&stimated Z (ohms)
OCVCURVE	TABLE	19
	Pt	T	Vf	Vm	Ach	Over
	#	s	V vs. Ref.	V	V	bits
	0	0.258333	5.34884E-002	5.34884E-002	5.79297E-004	...........
	1	0.516667	5.34870E-002	5.34189E-002	5.79930E-004	...........
	2	0.775	5.34799E-002	5.34075E-002	5.77230E-004	...........
	3	1.03333	5.34635E-002	5.34072E-002	5.77930E-004	...........
	4	1.29167	5.34413E-002	5.33909E-002	5.75830E-004	...........
	5	1.55	5.34202E-002	5.33500E-002	5.80663E-004	...........
	6	1.80833	5.34006E-002	5.33088E-002	5.80397E-004	...........
	7	2.06667	5.33787E-002	5.33166E-002	5.79063E-004	...........
	8	2.325	5.33542E-002	5.33050E-002	5.80430E-004	...........
	9	2.58333	5.33321E-002	5.32905E-002	5.80297E-004	...........
	10	2.84167	5.33156E-002	5.32829E-002	5.79730E-004	...........
	11	3.1	5.33033E-002	5.32707E-002	5.79563E-004	...........
	12	3.35833	5.32926E-002	5.32593E-002	5.83863E-004	...........
	13	3.61667	5.32822E-002	5.32484E-002	5.79463E-004	...........
	14	3.875	5.32715E-002	5.32388E-002	5.77563E-004	...........
	15	4.13333	5.32606E-002	5.32285E-002	5.80630E-004	...........
	16	4.39167	5.32499E-002	5.32187E-002	5.75530E-004	...........
	17	4.65	5.32396E-002	5.32121E-002	5.80030E-004	...........
	18	4.90833	5.32298E-002	5.32029E-002	5.77697E-004	...........
EOC	QUANT	0.0532298	Open Circuit (V)
PSTATMODEL	IQUANT	4	Pstat Model
PSTATSECTION	LABEL	REF600-11020	Pstat Section
PSTATSERIALNO	LABEL	11020	Pstat Serial Number
CTRLMODE	IQUANT	1	Control Mode
IESTAB	IQUANT	0	I/E Stability
CASPEED	IQUANT	1	Control Amp Speed
CONVENTION	IQUANT	1	Current Convention
ICHRANGE	IQUANT	2	Ich Range
ICHRANGEMODE	TOGGLE	F	Ich Auto Range
ICHOFFSETENABLE	TOGGLE	T	Ich Offset Enable
ICHOFFSET	QUANT	0	Ich Offset (V)
ICHFILTER	IQUANT	3	Ich Filter
VCHRANGE	IQUANT	2	Vch Range
VCHRANGEMODE	TOGGLE	F	Vch Auto Range
VCHOFFSETENABLE	TOGGLE	T	Vch Offset Enable
VCHOFFSET	QUANT	0	Vch Offset (V)
VCHFILTER	IQUANT	3	Vch Filter
ACHRANGE	IQUANT	2	Ach Range
ACHOFFSETENABLE	TOGGLE	F	Ach Offset Enable
ACHOFFSET	QUANT	0	Ach Offset (V)
ACHFILTER	IQUANT	3	Ach Filter
IERANGELOWERLIMIT	IQUANT	1	I/E Range Lower Limit
IERANGEMODE	TOGGLE	F	I/E AutoRange
IERANGE	IQUANT	7	I/E Range
POSFEEDENABLE	TOGGLE	F	Positive Feedback IR Comp
POSFEEDRESISTANCE	QUANT	0	Positive Feedback Resistance (ohm)
ACHSELECT	IQUANT	0	Ach Select
CABLEID	IQUANT	14	Cable ID
DCCALDATE	LABEL	2/27/2020	DC Calibration Date
ACCALDATE	LABEL	2/27/2020	AC Calibration Date
THERMOSELECT	IQUANT	1	Thermo Select
FRAMEWORKVERSION	QUANT	6.33	Framework Version
INSTRUMENTVERSION	LABEL	3.50	Instrument Version
ZCURVE	TABLE
	Pt	Time	Freq	Zreal	Zimag	Zsig	Zmod	Zphz	Idc	Vdc	IERange
	#	s	Hz	ohm	ohm	V	ohm	°	A	V	#
	0	1	1000078	1400.027	-2061.928	1	2492.313	-55.82391	3.477785E-007	0.0555906	8
	1	2	794390.6	1627.802	-2387.941	1	2889.983	-55.71868	9.367412E-008	0.0552508	8
	2	4	630984.4	1882.675	-2765.909	1	3345.851	-55.758	-1.193795E-006	0.0553043	8
	3	5	501234.4	2213.11	-3186.204	1	3879.401	-55.21648	1.296632E-006	0.0547843	8
	4	6	398109.4	2607.775	-3683.795	1	4513.407	-54.70515	2.714061E-007	0.0548605	8
	5	8	316265.6	3080.978	-4211.081	1	5217.818	-53.80946	8.052206E-007	0.0547503	8
	6	9	251203.1	3655.766	-4823.161	1	6052.066	-52.83931	1.573006E-007	0.0548713	8
	7	11	199546.9	4313.068	-5464.771	1	6961.772	-51.71775	2.316285E-006	0.0545498	8
	8	12	158578.1	5108.476	-6104.111	1	7959.692	-50.07434	-1.098147E-006	0.0551858	8
	9	14	125953.1	6179.416	-6779.069	1	9172.838	-47.64947	-6.224058E-007	0.0561392	7
	10	15	100078.1	7233.544	-7420.57	1	10362.87	-45.73121	-9.228189E-010	0.0548667	7
	11	17	79453.13	8437.793	-8051.047	1	11662.58	-43.65637	6.044196E-008	0.0547112	7
	12	18	63140.62	9724.55	-8615.633	1	12992.16	-41.53988	3.203012E-008	0.0548171	7
	13	19	50203.12	11087.09	-9132.63	1	14364.14	-39.47888	6.312951E-008	0.0547333	7
	14	21	39890.62	12477.7	-9612.88	1	15751.21	-37.61084	1.533439E-008	0.0547837	7
	15	22	31640.63	13916.42	-10100.04	1	17195.28	-35.97081	1.428394E-008	0.054787	7
	16	23	25171.88	15366.42	-10580.19	1	18656.56	-34.54845	2.768998E-008	0.054728	7
	17	25	20015.62	16860.66	-11145.51	1	20211.49	-33.46616	6.379396E-008	0.0547275	7
	18	26	15890.62	18400.35	-11729.53	1	21820.97	-32.51596	-1.678326E-008	0.054837	7
	19	27	12609.37	20141.76	-12328.81	1	23615.46	-31.47088	4.748513E-010	0.0548078	6
	20	29	10078.13	21834.98	-13079.49	1	25452.69	-30.92225	-3.427844E-009	0.0549255	6
	21	30	8015.625	23714.46	-13917.19	1	27496.61	-30.4072	6.934089E-009	0.054803	6
	22	32	6328.125	25844.05	-14821	1	29792.24	-29.83334	6.371517E-009	0.0548263	6
	23	33	5015.625	28146.25	-15742.04	1	32249.39	-29.21804	5.263564E-009	0.0548576	6
	24	34	3984.375	30630.92	-16636.15	1	34857.07	-28.5071	8.651338E-009	0.0547088	6
	25	36	3170.956	33304.72	-17420.47	1	37585.6	-27.6124	-4.593002E-009	0.0548955	6
	26	37	2527.573	36136.81	-18099.5	1	40416.1	-26.60448	2.24068E-009	0.0548974	6
	27	38	1976.103	39340.5	-18604.81	1	43517.97	-25.31028	9.14484E-009	0.0547095	6
	28	40	1577.524	42312.07	-18864.04	1	46326.7	-24.0288	-2.902652E-010	0.0548557	6
	29	41	1265.625	45138.54	-18916.9	1	48942.18	-22.73785	1.836972E-011	0.0548313	6
	30	42	998.264	48019.41	-18944.24	1	51621.2	-21.52983	7.155141E-009	0.0547914	6
	31	44	796.875	50581.68	-18901.06	1	53997.74	-20.48941	8.873871E-009	0.0547055	6
	32	45	627.7902	53017.7	-18937.12	1	56298.23	-19.65596	-2.740559E-009	0.0549168	6
	33	47	505.5147	55026.77	-19145.84	1	58262.41	-19.18467	2.482413E-010	0.0548023	6
	34	48	397.9953	57159.57	-19893.2	1	60522.36	-19.18938	1.67916E-009	0.0548632	6
	35	49	315.5048	59016.18	-20968.05	1	62630.41	-19.55979	2.024272E-009	0.0548653	6
	36	51	252.4038	60825.58	-22510.94	1	64857.48	-20.30901	1.436903E-009	0.0548594	6
	37	52	198.6229	62944.23	-24894.42	1	67688.31	-21.57878	1.948842E-009	0.0548621	6
	38	53	158.3615	64975.25	-27774.41	1	70662.59	-23.14484	1.450576E-009	0.0548609	6
	39	55	125.558	67426.22	-31511.88	1	74426.43	-25.0492	1.67715E-009	0.0548615	6
	40	56	100.4464	70197.73	-35994.37	1	78887.99	-27.1468	1.090418E-009	0.0548585	6
	41	58	79.00281	73921.81	-41905.19	1	84973.4	-29.54826	1.204919E-009	0.0548532	6
	42	59	63.3446	77069.69	-49015.45	1	91335.92	-32.4559	1.103655E-009	0.0548515	6
	43	60	49.86702	82040.73	-55753.72	1	99192.5	-34.19947	5.197615E-010	0.054859	5
	44	62	39.72458	87967.05	-65250.55	1	109525.5	-36.56659	8.138527E-010	0.0548661	5
	45	63	31.6723	94459.72	-75702.2	1	121051.5	-38.70949	8.970936E-010	0.0548604	5
	46	65	24.93351	102822.5	-88627.82	1	135747.4	-40.75968	4.826605E-010	0.0548555	5
	47	66	19.86229	112430.9	-102807	1	152348.2	-42.43986	1.548933E-009	0.0548616	5
	48	67	15.83615	124526.2	-117760.6	1	171389.5	-43.4005	1.373536E-009	0.0548601	5
	49	69	12.40079	139504.4	-138680.6	1	196707.4	-44.83035	1.569271E-010	0.0548609	5
	50	70	9.93114	155219	-158032.8	1	221511.4	-45.51466	7.904932E-010	0.0548624	5
	51	72	7.944915	173120.2	-180253.2	1	249923.6	-46.15637	8.200775E-010	0.0548615	5
	52	74	6.317385	196176.2	-204411.5	1	283318.1	-46.17772	5.096755E-010	0.0548806	5
	53	76	5.008013	222334.6	-231667.9	1	321096.1	-46.1777	5.101239E-010	0.0548735	5
	54	78	3.945707	252905.5	-262813.4	1	364735.6	-46.10062	5.050656E-010	0.0548672	5
	55	81	3.158693	285597.2	-293922.3	1	409824.4	-45.82302	3.415938E-011	0.0548629	5
	56	84	2.504006	323393.3	-329415.8	1	461625.3	-45.52856	5.306089E-010	0.0548566	5
	57	87	1.998082	362804	-366563.6	1	515747.7	-45.29533	-1.057211E-010	0.0549018	5
	58	90	1.584686	407449.7	-409872.1	1	577936.3	-45.16981	3.598159E-010	0.0548883	5
	59	94	1.266892	454667.3	-454847.9	1	643124.4	-45.01138	-1.516245E-012	0.0548999	5
	60	98	0.999041	505417.5	-509198.2	1	717446.6	-45.2135	2.183016E-010	0.0548338	5
