EXPLAIN
TAG	EISPOT
TITLE	LABEL	Potentiostatic EIS	Test &Identifier
DATE	LABEL	2/28/2020	Date
TIME	LABEL	17:05:11	Time
NOTES	NOTES	1	&Notes...
	
PSTAT	PSTAT	REF600-11020	Potentiostat
VDC	POTEN	0.00000E+000	T	DC &Voltage (V)
FREQINIT	QUANT	1.00000E+006	Initial Fre&q. (Hz)
FREQFINAL	QUANT	1.00000E+000	Final Fre&q. (Hz)
PTSPERDEC	QUANT	1.00000E+001	Points/&decade
VAC	QUANT	2.50000E+001	AC &Voltage (mV rms)
AREA	QUANT	1.60000E-004	&Area (cm^2)
CONDIT	TWOPARAM	F	1.50000E+001	0.00000E+000	Conditionin&g	Time(s)	E(V)
DELAY	TWOPARAM	F	1.00000E+002	0.00000E+000	Init. De&lay	Time(s)	Stab.(mV/s)
SPEED	SELECTOR	1	&Optimize for:
ZGUESS	QUANT	1.00000E+003	E&stimated Z (ohms)
OCVCURVE	TABLE	39
	Pt	T	Vf	Vm	Ach	Over
	#	s	V vs. Ref.	V	V	bits
	0	0.258333	-9.26209E-002	-9.26209E-002	5.97163E-004	...........
	1	0.516667	-9.26151E-002	-9.23144E-002	5.95763E-004	...........
	2	0.775	-9.26017E-002	-9.32057E-002	5.99630E-004	...........
	3	1.03333	-9.26295E-002	-9.35716E-002	5.98663E-004	...........
	4	1.29167	-9.27775E-002	-9.35903E-002	5.94930E-004	...........
	5	1.55	-9.30360E-002	-9.34270E-002	5.98330E-004	...........
	6	1.80833	-9.32903E-002	-9.35727E-002	5.99196E-004	...........
	7	2.06667	-9.34524E-002	-9.36465E-002	5.99930E-004	...........
	8	2.325	-9.35303E-002	-9.35344E-002	5.99663E-004	...........
	9	2.58333	-9.35622E-002	-9.34144E-002	6.02496E-004	...........
	10	2.84167	-9.35592E-002	-9.34285E-002	6.00463E-004	...........
	11	3.1	-9.35233E-002	-9.33299E-002	6.06196E-004	...........
	12	3.35833	-9.34689E-002	-9.33192E-002	6.02930E-004	...........
	13	3.61667	-9.34118E-002	-9.32557E-002	6.03796E-004	...........
	14	3.875	-9.33583E-002	-9.31906E-002	5.98363E-004	...........
	15	4.13333	-9.33071E-002	-9.31472E-002	6.01530E-004	...........
	16	4.39167	-9.32555E-002	-9.31014E-002	6.03463E-004	...........
	17	4.65	-9.32030E-002	-9.30243E-002	6.06529E-004	...........
	18	4.90833	-9.31492E-002	-9.29548E-002	6.01663E-004	...........
	19	5.16667	-9.30922E-002	-9.29240E-002	6.04730E-004	...........
	20	5.425	-9.30332E-002	-9.28688E-002	6.00963E-004	...........
	21	5.68333	-9.29732E-002	-9.26712E-002	6.01463E-004	...........
	22	5.94167	-9.29019E-002	-9.24380E-002	6.00530E-004	...........
	23	6.2	-9.27965E-002	-9.21733E-002	6.00730E-004	...........
	24	6.45833	-9.26414E-002	-9.19908E-002	6.01696E-004	...........
	25	6.71667	-9.24493E-002	-9.20501E-002	5.99430E-004	...........
	26	6.975	-9.22676E-002	-9.22701E-002	6.01430E-004	...........
	27	7.23333	-9.21608E-002	-9.25289E-002	5.99663E-004	...........
	28	7.49167	-9.21674E-002	-9.25185E-002	6.00863E-004	...........
	29	7.75	-9.22626E-002	-9.24530E-002	5.97763E-004	...........
	30	8.00833	-9.23724E-002	-9.23335E-002	5.99230E-004	...........
	31	8.26667	-9.24301E-002	-9.22294E-002	6.01830E-004	...........
	32	8.525	-9.24173E-002	-9.22376E-002	6.01663E-004	...........
	33	8.78333	-9.23594E-002	-9.22098E-002	5.97796E-004	...........
	34	9.04167	-9.22942E-002	-9.21580E-002	6.00096E-004	...........
	35	9.3	-9.22412E-002	-9.21091E-002	6.00763E-004	...........
	36	9.5583	-9.21983E-002	-9.20670E-002	6.01330E-004	...........
	37	9.8167	-9.21570E-002	-9.20102E-002	6.04530E-004	...........
	38	10.075	-9.21132E-002	-9.19727E-002	5.97130E-004	...........
EOC	QUANT	-0.0921132	Open Circuit (V)
PSTATMODEL	IQUANT	4	Pstat Model
PSTATSECTION	LABEL	REF600-11020	Pstat Section
PSTATSERIALNO	LABEL	11020	Pstat Serial Number
CTRLMODE	IQUANT	1	Control Mode
IESTAB	IQUANT	0	I/E Stability
CASPEED	IQUANT	1	Control Amp Speed
CONVENTION	IQUANT	1	Current Convention
ICHRANGE	IQUANT	2	Ich Range
ICHRANGEMODE	TOGGLE	F	Ich Auto Range
ICHOFFSETENABLE	TOGGLE	T	Ich Offset Enable
ICHOFFSET	QUANT	0	Ich Offset (V)
ICHFILTER	IQUANT	3	Ich Filter
VCHRANGE	IQUANT	2	Vch Range
VCHRANGEMODE	TOGGLE	F	Vch Auto Range
VCHOFFSETENABLE	TOGGLE	T	Vch Offset Enable
VCHOFFSET	QUANT	0	Vch Offset (V)
VCHFILTER	IQUANT	3	Vch Filter
ACHRANGE	IQUANT	2	Ach Range
ACHOFFSETENABLE	TOGGLE	F	Ach Offset Enable
ACHOFFSET	QUANT	0	Ach Offset (V)
ACHFILTER	IQUANT	3	Ach Filter
IERANGELOWERLIMIT	IQUANT	1	I/E Range Lower Limit
IERANGEMODE	TOGGLE	F	I/E AutoRange
IERANGE	IQUANT	8	I/E Range
POSFEEDENABLE	TOGGLE	F	Positive Feedback IR Comp
POSFEEDRESISTANCE	QUANT	0	Positive Feedback Resistance (ohm)
ACHSELECT	IQUANT	0	Ach Select
CABLEID	IQUANT	14	Cable ID
DCCALDATE	LABEL	2/27/2020	DC Calibration Date
ACCALDATE	LABEL	2/27/2020	AC Calibration Date
THERMOSELECT	IQUANT	1	Thermo Select
FRAMEWORKVERSION	QUANT	6.33	Framework Version
INSTRUMENTVERSION	LABEL	3.50	Instrument Version
ZCURVE	TABLE
	Pt	Time	Freq	Zreal	Zimag	Zsig	Zmod	Zphz	Idc	Vdc	IERange
	#	s	Hz	ohm	ohm	V	ohm	°	A	V	#
	0	1	1000078	1964.069	-1573.665	1	2516.742	-38.70265	1.011338E-007	-0.0897907	8
	1	2	794390.6	2274.529	-1557.677	1	2756.781	-34.40471	-2.55224E-006	-0.0895064	8
	2	4	630984.4	2581.091	-1507.098	1	2988.875	-30.28064	-2.075009E-006	-0.0897035	8
	3	5	501234.4	2833.904	-1416.476	1	3168.188	-26.55735	-2.741858E-007	-0.0900966	8
	4	6	398109.4	3060.829	-1313.471	1	3330.748	-23.22527	-4.44089E-007	-0.0902544	8
	5	8	316265.6	3251.841	-1219.077	1	3472.84	-20.55043	-7.250217E-007	-0.0902825	8
	6	9	251203.1	3428.611	-1113.588	1	3604.92	-17.99342	-1.771615E-007	-0.090447	8
	7	11	199546.9	3550.464	-1023.07	1	3694.924	-16.07439	9.48573E-008	-0.0904799	8
	8	12	158578.1	3675.687	-952.419	1	3797.075	-14.52662	-2.193324E-006	-0.0900021	8
	9	13	125953.1	3805.187	-855.6665	1	3900.207	-12.67321	4.617753E-007	-0.0910521	7
	10	15	100078.1	3893.304	-811.3563	1	3976.948	-11.77183	2.050998E-008	-0.0905202	7
	11	16	79453.13	3992.391	-790.8074	1	4069.958	-11.20404	6.195E-008	-0.0906077	7
	12	17	63140.62	4089.965	-775.2979	1	4162.799	-10.73369	-9.540989E-009	-0.090531	7
	13	19	50203.12	4186.961	-764.5187	1	4256.188	-10.34793	-3.066573E-008	-0.0904252	7
	14	20	39890.62	4281.524	-757.9807	1	4348.101	-10.03935	1.634852E-008	-0.090453	7
	15	21	31640.63	4374.38	-757.3301	1	4439.454	-9.82217	-7.978231E-009	-0.0904615	7
	16	23	25171.88	4462.785	-763.5784	1	4527.637	-9.70924	-2.95968E-008	-0.0904796	7
	17	24	20015.62	4547.856	-780.4222	1	4614.332	-9.73724	-9.644075E-009	-0.090547	7
	18	26	15890.62	4629.535	-808.418	1	4699.588	-9.90522	9.797373E-008	-0.0906623	7
	19	27	12609.37	4708.681	-850.0392	1	4784.793	-10.23316	6.128122E-008	-0.0906279	7
	20	28	10078.13	4786.356	-906.7586	1	4871.49	-10.72736	4.605259E-008	-0.090619	7
	21	30	8015.625	4867.548	-988.733	1	4966.952	-11.48214	-3.666023E-008	-0.0904476	7
	22	31	6328.125	4949.249	-1095.522	1	5069.047	-12.48124	-2.989367E-008	-0.0904876	7
	23	32	5015.625	5034.412	-1235.512	1	5183.801	-13.78864	-3.634767E-008	-0.0904489	7
	24	34	3984.375	5121.596	-1410.156	1	5312.182	-15.3941	2.167299E-010	-0.09051	7
	25	35	3170.956	5212.713	-1625.983	1	5460.421	-17.32408	9.929277E-008	-0.0906644	7
	26	36	2527.573	5314.705	-1893.986	1	5642.098	-19.61439	-3.992934E-008	-0.0904781	7
	27	38	1976.103	5434.637	-2259.245	1	5885.53	-22.57326	4.599956E-008	-0.0906242	7
	28	39	1577.524	5557.262	-2672.16	1	6166.328	-25.68016	1.879743E-008	-0.0904652	7
	29	41	1265.625	5696.622	-3171.408	1	6519.917	-29.10544	-5.392642E-009	-0.0904371	7
	30	42	998.264	5878.072	-3833.434	1	7017.617	-33.11071	6.200955E-008	-0.0905392	7
	31	43	796.875	6068.174	-4595.807	1	7612.107	-37.13892	6.200216E-008	-0.0905484	7
	32	45	627.7902	6333.504	-5601.348	1	8455.079	-41.48953	3.641532E-009	-0.0904733	7
	33	46	505.5147	6606.212	-6701.703	1	9410.359	-45.41112	1.66159E-009	-0.0904746	7
	34	47	397.9953	6992.596	-8184.741	1	10765.05	-49.49123	2.595716E-010	-0.090449	6
	35	49	315.5048	7442.649	-9955.18	1	12429.75	-53.21763	3.488519E-010	-0.0904418	6
	36	50	252.4038	7980.987	-12030.23	1	14436.85	-56.43926	4.151106E-010	-0.0904489	6
	37	52	198.6229	8705.253	-14747.09	1	17124.78	-59.44651	1.002372E-010	-0.0904494	6
	38	53	158.3615	9573.08	-17870.71	1	20273.28	-61.82269	9.348621E-010	-0.0904526	6
	39	54	125.558	10710.67	-21755.6	1	24249.22	-63.78815	-2.830625E-010	-0.0904497	6
	40	56	100.4464	12129.43	-26261.91	1	28927.69	-65.20949	3.118248E-010	-0.0904514	6
	41	57	79.00281	14048.57	-32125.4	1	35062.86	-66.38004	1.019018E-010	-0.0904535	6
	42	58	63.3446	16183.61	-38605.14	1	41860.08	-67.25615	-4.010874E-010	-0.0904589	6
	43	60	49.86702	19664.15	-46671.09	1	50644.54	-67.15262	-3.847651E-010	-0.0904562	6
	44	61	39.72458	23545.96	-56150.16	1	60887.21	-67.24979	-4.187628E-010	-0.0904511	6
	45	63	31.6723	28443.79	-67167.27	1	72941.7	-67.04846	5.062351E-010	-0.0904608	6
	46	64	24.93351	35346.49	-80640.17	1	88046.65	-66.33102	5.651188E-010	-0.0904594	6
	47	65	19.86229	43627.3	-95370.3	1	104875.3	-65.41819	-1.191437E-009	-0.0904497	5
	48	67	15.83615	54227.24	-112671.3	1	125041.6	-64.29908	-9.799079E-010	-0.0904469	5
	49	68	12.40079	67857.16	-132512.8	1	148876.6	-62.88391	4.032654E-010	-0.0904481	5
	50	70	9.93114	83951.48	-153758.1	1	175184	-61.36559	4.766798E-010	-0.0904452	5
	51	71	7.944915	102958.5	-175537.6	1	203504	-59.60699	-1.436679E-009	-0.0904445	5
	52	73	6.317385	125788.6	-200492.5	1	236685.5	-57.89591	-5.085371E-011	-0.0904631	5
	53	75	5.008013	152360.7	-226918.2	1	273323.3	-56.12123	-3.406954E-010	-0.0904476	5
	54	77	3.945707	182098.4	-255667.4	1	313888	-54.53973	-2.839153E-010	-0.0904562	5
	55	80	3.158693	212229.9	-284025	1	354558.5	-53.23208	4.754299E-011	-0.0904477	5
	56	83	2.504006	245775.8	-317816.1	1	401762.1	-52.28425	-3.470795E-011	-0.0904471	5
	57	86	1.998082	277975.9	-353676.4	1	449841.8	-51.83403	1.292282E-010	-0.0904934	5
	58	89	1.584686	312414.7	-398663.3	1	506493.2	-51.91578	-1.370051E-010	-0.0904583	5
	59	93	1.266892	348887.5	-450343.1	1	569676.5	-52.23452	7.390017E-012	-0.0904917	5
	60	97	0.999041	394356.1	-512980.6	1	647043.9	-52.44856	-7.608663E-011	-0.0904088	5
