EXPLAIN
TAG	EISPOT
TITLE	LABEL	Potentiostatic EIS	Test &Identifier
DATE	LABEL	1/10/2020	Date
TIME	LABEL	13:19:59	Time
NOTES	NOTES	5	&Notes...
	
	
	
	
	
PSTAT	PSTAT	REF600-11020	Potentiostat
VDC	POTEN	0.00000E+000	T	DC &Voltage (V)
FREQINIT	QUANT	1.00000E+006	Initial Fre&q. (Hz)
FREQFINAL	QUANT	1.00000E+000	Final Fre&q. (Hz)
PTSPERDEC	QUANT	1.00000E+001	Points/&decade
VAC	QUANT	2.50000E+001	AC &Voltage (mV rms)
AREA	QUANT	1.00000E-001	&Area (cm^2)
CONDIT	TWOPARAM	T	5.00000E+000	0.00000E+000	Conditionin&g	Time(s)	E(V)
DELAY	TWOPARAM	T	5.00000E+000	0.00000E+000	Init. De&lay	Time(s)	Stab.(mV/s)
SPEED	SELECTOR	0	&Optimize for:
ZGUESS	QUANT	5.00000E+002	E&stimated Z (ohms)
OCVCURVE	TABLE	19
	Pt	T	Vf	Vm	Ach	Over
	#	s	V vs. Ref.	V	V	bits
	0	0.258333	1.04774E-002	1.04774E-002	6.54446E-004	...........
	1	0.516667	1.04815E-002	1.06907E-002	6.48780E-004	...........
	2	0.775	1.05072E-002	1.09270E-002	6.47346E-004	...........
	3	1.03333	1.05830E-002	1.12087E-002	6.47213E-004	...........
	4	1.29167	1.07264E-002	1.14247E-002	6.51513E-004	...........
	5	1.55	1.09284E-002	1.16897E-002	6.48746E-004	...........
	6	1.80833	1.11628E-002	1.18678E-002	6.45046E-004	...........
	7	2.06667	1.14042E-002	1.20874E-002	6.48980E-004	...........
	8	2.325	1.16372E-002	1.23051E-002	6.53646E-004	...........
	9	2.58333	1.18584E-002	1.24797E-002	6.55546E-004	...........
	10	2.84167	1.20700E-002	1.26927E-002	6.48880E-004	...........
	11	3.1	1.22742E-002	1.28644E-002	6.47413E-004	...........
	12	3.35833	1.24728E-002	1.30851E-002	6.47413E-004	...........
	13	3.61667	1.26680E-002	1.32429E-002	6.52846E-004	...........
	14	3.875	1.28613E-002	1.34583E-002	6.48680E-004	...........
	15	4.13333	1.30521E-002	1.35962E-002	6.51546E-004	...........
	16	4.39167	1.32391E-002	1.37963E-002	6.53880E-004	...........
	17	4.65	1.34205E-002	1.39379E-002	6.45580E-004	...........
	18	4.90833	1.35961E-002	1.41165E-002	6.47346E-004	...........
EOC	QUANT	0.0135961	Open Circuit (V)
PSTATMODEL	IQUANT	4	Pstat Model
PSTATSECTION	LABEL	REF600-11020	Pstat Section
PSTATSERIALNO	LABEL	11020	Pstat Serial Number
CTRLMODE	IQUANT	1	Control Mode
IESTAB	IQUANT	0	I/E Stability
CASPEED	IQUANT	1	Control Amp Speed
CONVENTION	IQUANT	1	Current Convention
ICHRANGE	IQUANT	2	Ich Range
ICHRANGEMODE	TOGGLE	F	Ich Auto Range
ICHOFFSETENABLE	TOGGLE	T	Ich Offset Enable
ICHOFFSET	QUANT	0	Ich Offset (V)
ICHFILTER	IQUANT	3	Ich Filter
VCHRANGE	IQUANT	2	Vch Range
VCHRANGEMODE	TOGGLE	F	Vch Auto Range
VCHOFFSETENABLE	TOGGLE	T	Vch Offset Enable
VCHOFFSET	QUANT	0	Vch Offset (V)
VCHFILTER	IQUANT	3	Vch Filter
ACHRANGE	IQUANT	2	Ach Range
ACHOFFSETENABLE	TOGGLE	F	Ach Offset Enable
ACHOFFSET	QUANT	0	Ach Offset (V)
ACHFILTER	IQUANT	3	Ach Filter
IERANGELOWERLIMIT	IQUANT	1	I/E Range Lower Limit
IERANGEMODE	TOGGLE	F	I/E AutoRange
IERANGE	IQUANT	7	I/E Range
POSFEEDENABLE	TOGGLE	F	Positive Feedback IR Comp
POSFEEDRESISTANCE	QUANT	0	Positive Feedback Resistance (ohm)
ACHSELECT	IQUANT	0	Ach Select
CABLEID	IQUANT	14	Cable ID
DCCALDATE	LABEL	12/22/2019	DC Calibration Date
ACCALDATE	LABEL	12/22/2019	AC Calibration Date
THERMOSELECT	IQUANT	1	Thermo Select
FRAMEWORKVERSION	QUANT	6.33	Framework Version
INSTRUMENTVERSION	LABEL	3.50	Instrument Version
ZCURVE	TABLE
	Pt	Time	Freq	Zreal	Zimag	Zsig	Zmod	Zphz	Idc	Vdc	IERange
	#	s	Hz	ohm	ohm	V	ohm	°	A	V	#
	0	1	1000078	2182.231	-1668.225	1	2746.836	-37.39641	-4.088874E-006	0.0160909	8
	1	1	794390.6	2519.763	-1614.923	1	2992.855	-32.65593	3.026998E-006	0.0151533	8
	2	1	630984.4	2837.562	-1526.707	1	3222.203	-28.2818	1.477245E-006	0.0148897	8
	3	2	501234.4	3092.04	-1387.647	1	3389.14	-24.16961	-1.228758E-006	0.0155102	8
	4	2	398109.4	3318.71	-1263.028	1	3550.927	-20.83573	-3.573201E-007	0.0152327	8
	5	2	316265.6	3494.124	-1095.545	1	3661.846	-17.40826	-7.379035E-008	0.0152619	8
	6	3	251203.1	3617.385	-939.9594	1	3737.513	-14.5659	2.672091E-007	0.0150552	8
	7	3	199546.9	3745.387	-825.7615	1	3835.337	-12.43334	1.213254E-006	0.0149154	8
	8	3	158578.1	3812.348	-728.86	1	3881.396	-10.82343	-1.063156E-006	0.0153528	8
	9	4	125953.1	3889.385	-609.4893	1	3936.851	-8.906151	7.308921E-007	0.0136517	7
	10	4	100078.1	3933.056	-546.8376	1	3970.889	-7.91545	-3.975929E-008	0.0151605	7
	11	4	79453.13	3976.761	-505.7649	1	4008.794	-7.247972	-9.970839E-009	0.0151268	7
	12	5	63140.62	4016.28	-478.9034	1	4044.732	-6.799873	1.846585E-008	0.0150287	7
	13	5	50203.12	4053.352	-464.5801	1	4079.889	-6.538497	5.538652E-008	0.0149948	7
	14	5	39890.62	4090.112	-463.2724	1	4116.265	-6.462148	-1.555285E-008	0.0150902	7
	15	6	31640.63	4127.199	-475.0284	1	4154.446	-6.565684	1.726085E-009	0.0151087	7
	16	6	25171.88	4165.926	-498.9549	1	4195.7	-6.829808	5.756179E-008	0.0149695	7
	17	6	20015.62	4208.733	-535.6454	1	4242.682	-7.25304	-2.930941E-008	0.0151111	7
	18	7	15890.62	4251.567	-588.3982	1	4292.09	-7.879433	-2.830928E-008	0.0151203	7
	19	7	12609.37	4301.334	-655.6886	1	4351.023	-8.667353	2.010982E-008	0.0150144	7
	20	7	10078.13	4353.805	-736.2949	1	4415.625	-9.59877	4.317391E-008	0.0150851	7
	21	7	8015.625	4412.1	-837.8962	1	4490.957	-10.75292	-2.110674E-008	0.0151643	7
	22	8	6328.125	4478.272	-967.689	1	4581.631	-12.19331	1.929203E-009	0.0150385	7
	23	8	5015.625	4550.701	-1126	1	4687.937	-13.89781	2.262076E-009	0.0150954	7
	24	8	3984.375	4629.979	-1313.767	1	4812.763	-15.84141	-2.642619E-008	0.015119	7
	25	9	3170.956	4718.825	-1544.931	1	4965.292	-18.12832	4.108145E-008	0.0150783	7
	26	9	2527.573	4818.132	-1820.772	1	5150.69	-20.70158	5.716019E-008	0.0149845	7
	27	9	1976.103	4941.132	-2190.823	1	5405.043	-23.91177	-3.882787E-008	0.0151597	7
	28	10	1577.524	5075.85	-2602.154	1	5703.986	-27.14212	-2.693564E-008	0.0151177	7
	29	10	1265.625	5219.312	-3091.129	1	6065.995	-30.63607	1.572933E-009	0.0150293	7
	30	10	998.264	5403.351	-3732.17	1	6566.985	-34.63338	-1.377048E-008	0.0150777	7
	31	11	796.875	5613.761	-4473.461	1	7178.173	-38.55043	2.183339E-008	0.0150092	7
	32	11	627.7902	5871.835	-5435.673	1	8001.562	-42.79104	-3.602385E-008	0.0151548	7
	33	11	505.5147	6155.264	-6484.824	1	8940.93	-46.49351	6.125831E-008	0.0149589	7
	34	12	397.9953	6524.781	-7905.458	1	10250.32	-50.46539	3.95751E-010	0.0150849	6
	35	12	315.5048	6961.338	-9588.68	1	11849.18	-54.02053	1.069362E-009	0.0150785	6
	36	12	252.4038	7462.074	-11553.62	1	13753.86	-57.14302	1.005878E-009	0.0150871	6
	37	13	198.6229	8120.424	-14123.14	1	16291.23	-60.10225	3.434883E-010	0.0150888	6
	38	13	158.3615	8867.368	-17082.11	1	19246.53	-62.56606	9.835257E-010	0.0150859	6
	39	13	125.558	9813.54	-20768.71	1	22970.53	-64.70853	5.808463E-010	0.0150886	6
	40	14	100.4464	10890.94	-25100.56	1	27361.48	-66.54433	1.336443E-010	0.0150882	6
	41	14	79.00281	12301.17	-30750.56	1	33119.71	-68.19707	6.539498E-010	0.0150856	6
	42	14	63.3446	14344.64	-36934.15	1	39621.97	-68.77461	2.000405E-010	0.0150882	6
	43	15	49.86702	16504.29	-45376.64	1	48284.89	-70.01277	4.302328E-010	0.0150847	6
	44	15	39.72458	18935.27	-55094.68	1	58257.77	-71.03287	4.624729E-010	0.0150919	6
	45	15	31.6723	22246.84	-66939.53	1	70539.52	-71.61617	6.803834E-010	0.0150826	6
	46	16	24.93351	27256.89	-81957.85	1	86371.45	-71.60432	5.230216E-010	0.0150841	6
	47	16	19.86229	33331.27	-99068.4	1	104525.2	-71.40464	1.178928E-009	0.0150949	6
	48	16	15.83615	40819.32	-120755	1	127467.6	-71.32298	-1.49187E-009	0.0150852	5
	49	17	12.40079	52645.33	-146906.8	1	156054.9	-70.28442	5.528156E-011	0.0150866	5
	50	17	9.93114	66012.14	-173678.9	1	185800.9	-69.18913	-3.664002E-010	0.015088	5
	51	18	7.944915	83845.48	-205721.8	1	222152	-67.8258	1.962938E-010	0.0150755	5
	52	18	6.317385	106149.7	-243613.5	1	265735.4	-66.4558	3.048552E-010	0.0150704	5
	53	19	5.008013	135810.3	-286703.6	1	317243.4	-64.65327	7.057727E-011	0.0150795	5
	54	20	3.945707	171798.9	-335192.6	1	376655	-62.86314	7.795275E-013	0.0150825	5
	55	21	3.158693	213793.6	-384220	1	439696.2	-60.90689	-3.424168E-010	0.0150684	5
	56	23	2.504006	264944.4	-438714.3	1	512509.3	-58.87176	-1.229664E-010	0.0150665	5
	57	24	1.998082	320501.4	-495787.8	1	590361.5	-57.1194	-7.76928E-013	0.015098	5
	58	26	1.584686	384936	-556397.6	1	676575.3	-55.32311	-1.20082E-010	0.015055	5
	59	28	1.266892	455399.7	-621654.1	1	770611.9	-53.77494	-1.993716E-010	0.015026	5
	60	30	0.999041	535985.1	-698366.4	1	880338.4	-52.49433	-2.387986E-010	0.0150307	5
