EXPLAIN
TAG	EISPOT
TITLE	LABEL	Potentiostatic EIS	Test &Identifier
DATE	LABEL	6/1/2020	Date
TIME	LABEL	12:36:57	Time
NOTES	NOTES	1	&Notes...
	
PSTAT	PSTAT	REF600-11020	Potentiostat
VDC	POTEN	0.00000E+000	T	DC &Voltage (V)
FREQINIT	QUANT	1.00000E+006	Initial Fre&q. (Hz)
FREQFINAL	QUANT	1.00000E+000	Final Fre&q. (Hz)
PTSPERDEC	QUANT	1.00000E+001	Points/&decade
VAC	QUANT	2.50000E+001	AC &Voltage (mV rms)
AREA	QUANT	4.00000E-004	&Area (cm^2)
CONDIT	TWOPARAM	F	5.00000E+000	0.00000E+000	Conditionin&g	Time(s)	E(V)
DELAY	TWOPARAM	T	3.00000E+000	0.00000E+000	Init. De&lay	Time(s)	Stab.(mV/s)
SPEED	SELECTOR	0	&Optimize for:
ZGUESS	QUANT	1.00000E+003	E&stimated Z (ohms)
OCVCURVE	TABLE	12
	Pt	T	Vf	Vm	Ach	Over
	#	s	V vs. Ref.	V	V	bits
	0	0.258333	-7.94076E-002	-7.94076E-002	5.68430E-004	...........
	1	0.516667	-7.94081E-002	-7.94331E-002	5.64464E-004	...........
	2	0.775	-7.94110E-002	-7.94522E-002	5.61164E-004	...........
	3	1.03333	-7.94189E-002	-7.94734E-002	5.66863E-004	...........
	4	1.29167	-7.94328E-002	-7.94969E-002	5.62064E-004	...........
	5	1.55	-7.94511E-002	-7.95124E-002	5.68997E-004	...........
	6	1.80833	-7.94714E-002	-7.95315E-002	5.68930E-004	...........
	7	2.06667	-7.94918E-002	-7.95491E-002	5.70230E-004	...........
	8	2.325	-7.95111E-002	-7.95634E-002	5.67463E-004	...........
	9	2.58333	-7.95293E-002	-7.95794E-002	5.67563E-004	...........
	10	2.84167	-7.95463E-002	-7.95908E-002	5.67930E-004	...........
	11	3.1	-7.95620E-002	-7.96060E-002	5.64563E-004	...........
EOC	QUANT	-0.079562	Open Circuit (V)
PSTATMODEL	IQUANT	4	Pstat Model
PSTATSECTION	LABEL	REF600-11020	Pstat Section
PSTATSERIALNO	LABEL	11020	Pstat Serial Number
CTRLMODE	IQUANT	1	Control Mode
IESTAB	IQUANT	0	I/E Stability
CASPEED	IQUANT	1	Control Amp Speed
CONVENTION	IQUANT	1	Current Convention
ICHRANGE	IQUANT	2	Ich Range
ICHRANGEMODE	TOGGLE	F	Ich Auto Range
ICHOFFSETENABLE	TOGGLE	T	Ich Offset Enable
ICHOFFSET	QUANT	0	Ich Offset (V)
ICHFILTER	IQUANT	3	Ich Filter
VCHRANGE	IQUANT	2	Vch Range
VCHRANGEMODE	TOGGLE	F	Vch Auto Range
VCHOFFSETENABLE	TOGGLE	T	Vch Offset Enable
VCHOFFSET	QUANT	0	Vch Offset (V)
VCHFILTER	IQUANT	3	Vch Filter
ACHRANGE	IQUANT	2	Ach Range
ACHOFFSETENABLE	TOGGLE	F	Ach Offset Enable
ACHOFFSET	QUANT	0	Ach Offset (V)
ACHFILTER	IQUANT	3	Ach Filter
IERANGELOWERLIMIT	IQUANT	1	I/E Range Lower Limit
IERANGEMODE	TOGGLE	F	I/E AutoRange
IERANGE	IQUANT	8	I/E Range
POSFEEDENABLE	TOGGLE	F	Positive Feedback IR Comp
POSFEEDRESISTANCE	QUANT	0	Positive Feedback Resistance (ohm)
ACHSELECT	IQUANT	0	Ach Select
CABLEID	IQUANT	14	Cable ID
DCCALDATE	LABEL	2/27/2020	DC Calibration Date
ACCALDATE	LABEL	2/27/2020	AC Calibration Date
THERMOSELECT	IQUANT	1	Thermo Select
FRAMEWORKVERSION	QUANT	6.33	Framework Version
INSTRUMENTVERSION	LABEL	3.50	Instrument Version
ZCURVE	TABLE
	Pt	Time	Freq	Zreal	Zimag	Zsig	Zmod	Zphz	Idc	Vdc	IERange
	#	s	Hz	ohm	ohm	V	ohm	°	A	V	#
	0	1	1000078	2276.792	-6906.983	1	7272.564	-71.75591	6.516331E-008	-0.0769809	8
	1	1	794390.6	2981.552	-8348.88	1	8865.294	-70.34734	3.884312E-008	-0.0773346	8
	2	2	630984.4	3938.312	-10009.34	1	10756.26	-68.52216	6.986232E-008	-0.0775247	8
	3	2	501234.4	5228.005	-11907.17	1	13004.34	-66.29547	6.25387E-008	-0.0776375	8
	4	2	398109.4	6969.684	-13980.83	1	15621.78	-63.50296	2.075444E-008	-0.0777066	8
	5	3	316265.6	9193.915	-16190.54	1	18618.85	-60.4096	5.889881E-008	-0.0777646	8
	6	3	251203.1	12024.56	-18270.75	1	21872.59	-56.64981	8.477861E-008	-0.0777982	8
	7	3	199546.9	15438.77	-20264.08	1	25475.26	-52.69699	5.989693E-008	-0.0777809	8
	8	4	158578.1	19337.54	-21756.06	1	29107.84	-48.36821	4.753846E-008	-0.0777891	8
	9	4	125953.1	24011.71	-22619.46	1	32987.91	-43.28985	-1.126075E-009	-0.0778299	7
	10	4	100078.1	28329.04	-22973.75	1	36473.66	-39.04071	2.843002E-009	-0.0778554	7
	11	5	79453.13	32667.61	-22832.17	1	39855.75	-34.95061	2.817371E-009	-0.0778557	7
	12	5	63140.62	36751.75	-22196.69	1	42934.65	-31.13041	2.342934E-009	-0.0778601	7
	13	5	50203.12	40489.85	-21244.62	1	45724.85	-27.68555	2.189473E-009	-0.0778613	7
	14	5	39890.62	43901.1	-20099.02	1	48283.3	-24.59948	2.86644E-009	-0.0778625	7
	15	6	31640.63	46917.92	-18866.69	1	50569.19	-21.9061	3.192737E-009	-0.0778599	7
	16	6	25171.88	49550.88	-17627.03	1	52592.79	-19.5823	3.119913E-009	-0.0778702	7
	17	6	20015.62	51918.95	-16494.26	1	54476.04	-17.62466	3.315565E-009	-0.0778697	7
	18	7	15890.62	53989.68	-15463.43	1	56160.51	-15.98248	3.170386E-009	-0.0778705	7
	19	7	12609.37	56157.02	-14049.46	1	57887.8	-14.04604	5.778132E-010	-0.0778144	6
	20	7	10078.13	57757.94	-13448.55	1	59302.98	-13.10739	6.207879E-010	-0.0778138	6
	21	8	8015.625	59298.22	-13005.44	1	60707.66	-12.37039	5.260151E-010	-0.0778215	6
	22	8	6328.125	60805.67	-12728.07	1	62123.53	-11.82266	6.464868E-010	-0.0778181	6
	23	8	5015.625	62251	-12659.67	1	63525.23	-11.49519	5.823828E-010	-0.0778177	6
	24	9	3984.375	63665.6	-12775.21	1	64934.7	-11.34635	5.759778E-010	-0.0778167	6
	25	9	3170.956	65074.29	-13096.35	1	66379.05	-11.3789	5.833203E-010	-0.0778183	6
	26	9	2527.573	66506.39	-13597.11	1	67882.12	-11.55478	5.776184E-010	-0.0778221	6
	27	10	1976.103	68141.49	-14383.37	1	69642.98	-11.91908	5.221718E-010	-0.0778234	6
	28	10	1577.524	69695.66	-15325.95	1	71360.84	-12.40185	4.336153E-010	-0.0778333	6
	29	10	1265.625	71306.3	-16481.52	1	73186.27	-13.01461	5.351432E-010	-0.077827	6
	30	11	998.264	73152.41	-17990.57	1	75332.16	-13.8167	4.910262E-010	-0.0778316	6
	31	11	796.875	75007.32	-19740.9	1	77561.59	-14.74508	5.502543E-010	-0.0778285	6
	32	11	627.7902	77151.46	-21954.2	1	80214.3	-15.88422	5.586396E-010	-0.077827	6
	33	12	505.5147	79242.56	-24350.9	1	82899.64	-17.08197	4.172217E-010	-0.0778395	6
	34	12	397.9953	81757.36	-27532.12	1	86268.67	-18.61116	5.797005E-010	-0.0778171	6
	35	12	315.5048	84443.8	-31219.37	1	90030.02	-20.28965	5.485384E-010	-0.0778153	6
	36	12	252.4038	87360.22	-35117.99	1	94154.56	-21.89966	1.578339E-010	-0.0778122	5
	37	13	198.6229	90726.32	-40565.67	1	99382.3	-24.09044	1.438486E-010	-0.0778121	5
	38	13	158.3615	94274.05	-46717.73	1	105214.8	-26.36082	1.826046E-010	-0.0778164	5
	39	13	125.558	98350	-54245.21	1	112317.7	-28.87906	2.04209E-010	-0.0778181	5
	40	14	100.4464	102799.8	-62897.12	1	120514.9	-31.46	1.863092E-010	-0.0778207	5
	41	14	79.00281	108315.6	-74061.67	1	131215.1	-34.36268	1.653936E-010	-0.0778186	5
	42	14	63.3446	114215.8	-86359.66	1	143189.5	-37.09327	1.82959E-010	-0.0778214	5
	43	15	49.86702	121742.8	-102283.1	1	159006.7	-40.03554	1.531776E-010	-0.0778239	5
	44	15	39.72458	130261.7	-120353.2	1	177350	-42.73589	1.196415E-010	-0.0778166	5
	45	16	31.6723	140409.3	-141709	1	199489.9	-45.26397	6.781759E-011	-0.0778193	5
	46	16	24.93351	153365.8	-168472.2	1	227824.3	-47.68737	1.565529E-010	-0.0778205	5
	47	16	19.86229	168275.9	-198690.4	1	260374	-49.7379	-9.831656E-011	-0.0778198	5
	48	16	15.83615	186498.7	-233813.6	1	299082.9	-51.4228	4.929555E-010	-0.0778207	5
	49	17	12.40079	210471.9	-278398.8	1	349004.8	-52.9104	6.142366E-010	-0.077818	5
	50	17	9.93114	236710	-325318.3	1	402322.8	-53.95939	6.556967E-010	-0.0778199	5
	51	17	7.944915	268802.2	-380665.6	1	466005.3	-54.77266	2.415876E-010	-0.0778266	5
	52	18	6.317385	308866	-445340.2	1	541965.1	-55.25674	1.702653E-010	-0.0778206	5
	53	19	5.008013	358421	-520324.8	1	631825.5	-55.43934	2.738508E-010	-0.0778173	5
	54	19	3.945707	420512.3	-608189.1	1	739408.3	-55.33936	2.712675E-010	-0.0778254	5
	55	20	3.158693	488963.4	-699468.8	1	853429.4	-55.04454	2.221907E-010	-0.0778078	5
	56	21	2.504006	574811.6	-806550.6	1	990420	-54.52333	1.092924E-010	-0.0778264	5
	57	23	1.998082	671289.8	-920648.6	1	1139396	-53.90239	1.439981E-010	-0.0778239	4
	58	24	1.584686	790073.5	-1051351	1	1315126	-53.07573	1.997911E-010	-0.0777853	4
	59	26	1.266892	917565.9	-1191822	1	1504116	-52.40786	1.7835E-010	-0.0778067	4
	60	29	0.999041	1073778	-1352764	1	1727128	-51.55865	1.696988E-010	-0.077833	4
