EXPLAIN
TAG	EISPOT
TITLE	LABEL	Potentiostatic EIS	Test &Identifier
DATE	LABEL	1/10/2020	Date
TIME	LABEL	12:44:56	Time
NOTES	NOTES	5	&Notes...
	
	
	
	
	
PSTAT	PSTAT	REF600-11020	Potentiostat
VDC	POTEN	0.00000E+000	T	DC &Voltage (V)
FREQINIT	QUANT	1.00000E+006	Initial Fre&q. (Hz)
FREQFINAL	QUANT	1.00000E+000	Final Fre&q. (Hz)
PTSPERDEC	QUANT	1.00000E+001	Points/&decade
VAC	QUANT	2.50000E+001	AC &Voltage (mV rms)
AREA	QUANT	1.00000E-001	&Area (cm^2)
CONDIT	TWOPARAM	T	5.00000E+000	0.00000E+000	Conditionin&g	Time(s)	E(V)
DELAY	TWOPARAM	T	5.00000E+000	0.00000E+000	Init. De&lay	Time(s)	Stab.(mV/s)
SPEED	SELECTOR	0	&Optimize for:
ZGUESS	QUANT	5.00000E+002	E&stimated Z (ohms)
OCVCURVE	TABLE	19
	Pt	T	Vf	Vm	Ach	Over
	#	s	V vs. Ref.	V	V	bits
	0	0.258333	-5.33815E-003	-5.33815E-003	6.48680E-004	...........
	1	0.516667	-5.33870E-003	-5.36663E-003	6.52446E-004	...........
	2	0.775	-5.35554E-003	-6.10060E-003	6.46946E-004	...........
	3	1.03333	-5.42933E-003	-5.82319E-003	6.48380E-004	...........
	4	1.29167	-5.58920E-003	-6.74818E-003	6.52513E-004	...........
	5	1.55	-5.82290E-003	-6.37094E-003	6.46380E-004	...........
	6	1.80833	-6.09057E-003	-6.93173E-003	6.47713E-004	...........
	7	2.06667	-6.34798E-003	-6.89048E-003	6.50113E-004	...........
	8	2.325	-6.61558E-003	-9.38501E-003	6.51046E-004	...........
	9	2.58333	-7.00270E-003	-7.93806E-003	6.50146E-004	...........
	10	2.84167	-7.47807E-003	-6.15253E-003	6.48813E-004	...........
	11	3.1	-7.73265E-003	-6.74817E-003	6.51046E-004	...........
	12	3.35833	-7.56537E-003	-6.70287E-003	6.45613E-004	...........
	13	3.61667	-7.18548E-003	-7.19646E-003	6.47946E-004	...........
	14	3.875	-6.90436E-003	-6.35456E-003	6.44513E-004	...........
	15	4.13333	-6.79116E-003	-6.81973E-003	6.49013E-004	...........
	16	4.39167	-6.73565E-003	-5.96241E-003	6.53146E-004	...........
	17	4.65	-6.64280E-003	-6.38075E-003	6.48046E-004	...........
	18	4.90833	-6.49892E-003	-5.92396E-003	6.52113E-004	...........
EOC	QUANT	-0.0064989	Open Circuit (V)
PSTATMODEL	IQUANT	4	Pstat Model
PSTATSECTION	LABEL	REF600-11020	Pstat Section
PSTATSERIALNO	LABEL	11020	Pstat Serial Number
CTRLMODE	IQUANT	1	Control Mode
IESTAB	IQUANT	0	I/E Stability
CASPEED	IQUANT	1	Control Amp Speed
CONVENTION	IQUANT	1	Current Convention
ICHRANGE	IQUANT	2	Ich Range
ICHRANGEMODE	TOGGLE	F	Ich Auto Range
ICHOFFSETENABLE	TOGGLE	T	Ich Offset Enable
ICHOFFSET	QUANT	0	Ich Offset (V)
ICHFILTER	IQUANT	3	Ich Filter
VCHRANGE	IQUANT	2	Vch Range
VCHRANGEMODE	TOGGLE	F	Vch Auto Range
VCHOFFSETENABLE	TOGGLE	T	Vch Offset Enable
VCHOFFSET	QUANT	0	Vch Offset (V)
VCHFILTER	IQUANT	3	Vch Filter
ACHRANGE	IQUANT	2	Ach Range
ACHOFFSETENABLE	TOGGLE	F	Ach Offset Enable
ACHOFFSET	QUANT	0	Ach Offset (V)
ACHFILTER	IQUANT	3	Ach Filter
IERANGELOWERLIMIT	IQUANT	1	I/E Range Lower Limit
IERANGEMODE	TOGGLE	F	I/E AutoRange
IERANGE	IQUANT	7	I/E Range
POSFEEDENABLE	TOGGLE	F	Positive Feedback IR Comp
POSFEEDRESISTANCE	QUANT	0	Positive Feedback Resistance (ohm)
ACHSELECT	IQUANT	0	Ach Select
CABLEID	IQUANT	14	Cable ID
DCCALDATE	LABEL	12/22/2019	DC Calibration Date
ACCALDATE	LABEL	12/22/2019	AC Calibration Date
THERMOSELECT	IQUANT	1	Thermo Select
FRAMEWORKVERSION	QUANT	6.33	Framework Version
INSTRUMENTVERSION	LABEL	3.50	Instrument Version
ZCURVE	TABLE
	Pt	Time	Freq	Zreal	Zimag	Zsig	Zmod	Zphz	Idc	Vdc	IERange
	#	s	Hz	ohm	ohm	V	ohm	°	A	V	#
	0	1	1000078	916.039	-8672.062	1	8720.309	-83.97015	-2.024998E-006	-0.0035163	8
	1	1	794390.6	1098.367	-11074.71	1	11129.05	-84.33604	-1.825953E-007	-0.004315	8
	2	2	630984.4	1348.703	-13393.15	1	13460.89	-84.24965	-1.395531E-006	-0.0044573	8
	3	2	501234.4	1486.906	-16934.44	1	16999.6	-84.98209	-4.930576E-007	-0.0045565	8
	4	3	398109.4	1530.441	-20354.49	1	20411.95	-85.70006	-1.287427E-007	-0.0048786	8
	5	3	316265.6	3770.958	-25757.15	1	26031.73	-81.67082	-1.256498E-008	-0.004926	8
	6	3	251203.1	3981.865	-31474.63	1	31725.5	-82.78979	1.862592E-006	-0.0053273	8
	7	4	199546.9	4092.711	-40080.35	1	40288.77	-84.16959	-2.396757E-006	-0.0044686	8
	8	4	158578.1	4960.366	-50866.95	1	51108.24	-84.43033	-6.962085E-007	-0.0046798	8
	9	4	125953.1	9483.866	-61274.1	1	62003.7	-81.20171	1.002843E-006	-0.0065942	7
	10	5	100078.1	11378.84	-76068.13	1	76914.48	-81.49235	-1.767776E-008	-0.0048146	7
	11	5	79453.13	15051.13	-94133.34	1	95329	-80.91578	-1.550902E-008	-0.0049571	7
	12	5	63140.62	19798.55	-115954.5	1	117632.6	-80.31052	-2.009414E-008	-0.0048128	7
	13	6	50203.12	27319.9	-141525.8	1	144138.5	-79.0741	-6.875686E-009	-0.0048977	7
	14	6	39890.62	36459.68	-173812.6	1	177595.4	-78.15315	-1.947387E-008	-0.0049496	7
	15	6	31640.63	48605.03	-210401.2	1	215942.4	-76.99222	5.04571E-008	-0.0050939	7
	16	7	25171.88	62375.6	-255440.2	1	262945.7	-76.27757	1.19677E-007	-0.0051192	7
	17	7	20015.62	82173.91	-306917.5	1	317727.7	-75.01122	5.016307E-008	-0.0050935	7
	18	7	15890.62	101571.2	-363078.2	1	377017.9	-74.37103	-1.914267E-008	-0.0048855	7
	19	8	12609.37	125904	-441077.6	1	458695.2	-74.06879	8.542173E-009	-0.0049416	6
	20	8	10078.13	150079.7	-529326.8	1	550191.5	-74.17041	-4.419804E-009	-0.0049256	6
	21	8	8015.625	179874.6	-632153.1	1	657246.1	-74.11668	-8.00415E-009	-0.0048618	6
	22	9	6328.125	220697.8	-777361.1	1	808082.8	-74.15042	-2.311442E-009	-0.0047969	6
	23	9	5015.625	266280.3	-949914.1	1	986530	-74.34073	1.454134E-008	-0.00512	6
	24	9	3984.375	331374.5	-1144260	1	1191276	-73.84912	-2.072756E-009	-0.0048053	6
	25	10	3170.956	410675	-1405799	1	1464556	-73.71537	-7.284934E-009	-0.0048671	6
	26	10	2527.573	517388.8	-1695221	1	1772418	-73.02758	-8.984291E-009	-0.0048271	6
	27	11	1976.103	736891	-1906709	1	2044150	-68.86984	-8.036811E-009	-0.0048648	6
	28	11	1577.524	994076	-2503839	1	2693956	-68.34589	-1.376011E-009	-0.0050634	6
	29	12	1265.625	1296659	-2844449	1	3126054	-65.49385	1.541433E-009	-0.0051422	5
	30	12	998.264	1813373	-3473771	1	3918598	-62.43461	-9.757419E-010	-0.0048302	5
	31	12	796.875	2071035	-3991904	1	4497164	-62.57932	7.639101E-010	-0.0051327	5
	32	13	627.7902	3138001	-4530072	1	5510771	-55.28948	-7.281067E-011	-0.0049574	5
	33	13	505.5147	3901118	-5196764	1	6498083	-53.10509	8.101869E-010	-0.0049808	5
	34	13	397.9953	4935705	-5419356	1	7330116	-47.67415	-2.507012E-010	-0.0049604	5
	35	14	315.5048	6132982	-5292765	1	8101039	-40.7942	5.743691E-010	-0.0049641	5
	36	14	252.4038	6770158	-5986024	1	9037008	-41.48241	-3.589012E-010	-0.0049657	5
	37	15	198.6229	8941744	-6903338	1	1.12965E+007	-37.66939	1.44141E-010	-0.0049644	5
	38	15	158.3615	1.154287E+007	-5730841	1	1.288722E+007	-26.40362	2.90467E-010	-0.0049639	5
	39	16	125.558	9318793	-4275489	1	1.025279E+007	-24.64579	2.002953E-010	-0.0049241	4
	40	16	100.4464	7937757	-3370085	1	8623541	-23.00432	4.921244E-010	-0.0049327	4
	41	16	79.00281	3.517219E+007	-1966681	1	3.522713E+007	-3.200406	8.485031E-011	-0.0049736	5
	42	17	63.3446	3969635	4836688	1	6257120	50.6231	3.26431E-010	-0.0049321	4
	43	18	49.86702	1.593872E+007	-3631444	1	1.634718E+007	-12.83505	1.046258E-010	-0.0049723	5
	44	18	39.72458	1.048649E+007	-3211387	1	1.09672E+007	-17.02671	-8.119562E-011	-0.0049235	4
	45	19	31.6723	2.074981E+007	5481758	1	2.146169E+007	14.79851	-4.157297E-010	-0.0049243	4
	46	19	24.93351	1.310025E+007	-3332188	1	1.351739E+007	-14.27116	-2.772012E-011	-0.0049295	4
	47	20	19.86229	1.356566E+007	-1449372	1	1.364287E+007	-6.098418	5.650489E-011	-0.0049289	4
	48	20	15.83615	8508703	1608356	1	8659378	10.70403	8.672744E-010	-0.0049254	4
	49	21	12.40079	2.855141E+007	-8747864	1	2.986148E+007	-17.03454	-3.301078E-010	-0.0049703	5
	50	21	9.93114	1.407184E+007	-1164115	1	1.411991E+007	-4.729116	8.023637E-011	-0.00492	4
	51	22	7.944915	1.441668E+007	-442821.2	1	1.442348E+007	-1.759338	3.446044E-011	-0.0049238	4
	52	23	6.317385	1.471163E+007	-1539214	1	1.479193E+007	-5.972877	-2.048119E-011	-0.0049262	4
	53	24	5.008013	1.529724E+007	-1754635	1	1.539755E+007	-6.543384	2.685069E-011	-0.0049292	4
	54	26	3.945707	1.469287E+007	-1246002	1	1.47456E+007	-4.847268	8.689179E-011	-0.00492	4
	55	27	3.158693	1.504304E+007	-1564798	1	1.512421E+007	-5.938627	1.277262E-010	-0.0049289	4
	56	29	2.504006	2.911963E+007	-2841112	1	2.92579E+007	-5.572534	9.375149E-011	-0.004982	3
	57	31	1.998082	2.980939E+007	-3083999	1	2.99685E+007	-5.906652	8.162476E-011	-0.0050295	3
	58	32	1.584686	3.018039E+007	-3351418	1	3.03659E+007	-6.336517	8.649131E-011	-0.0050009	3
	59	34	1.266892	3.063936E+007	-3594770	1	3.084952E+007	-6.691648	8.012657E-011	-0.0049651	3
	60	37	0.999041	3.123358E+007	-3767859	1	3.146003E+007	-6.878629	8.799268E-011	-0.004949	3
