EXPLAIN
TAG	EISPOT
TITLE	LABEL	Potentiostatic EIS	Test &Identifier
DATE	LABEL	7/13/2020	Date
TIME	LABEL	20:11:06	Time
NOTES	NOTES	1	&Notes...
	
PSTAT	PSTAT	REF600-11020	Potentiostat
VDC	POTEN	0.00000E+000	T	DC &Voltage (V)
FREQINIT	QUANT	1.00000E+006	Initial Fre&q. (Hz)
FREQFINAL	QUANT	1.00000E+000	Final Fre&q. (Hz)
PTSPERDEC	QUANT	1.00000E+001	Points/&decade
VAC	QUANT	2.50000E+001	AC &Voltage (mV rms)
AREA	QUANT	4.00000E-004	&Area (cm^2)
CONDIT	TWOPARAM	F	5.00000E+000	0.00000E+000	Conditionin&g	Time(s)	E(V)
DELAY	TWOPARAM	F	3.00000E+000	0.00000E+000	Init. De&lay	Time(s)	Stab.(mV/s)
SPEED	SELECTOR	0	&Optimize for:
ZGUESS	QUANT	1.00000E+003	E&stimated Z (ohms)
OCVCURVE	TABLE	39
	Pt	T	Vf	Vm	Ach	Over
	#	s	V vs. Ref.	V	V	bits
	0	0.258333	1.68845E-001	1.68845E-001	5.53483E-004	...........
	1	0.516667	1.68845E-001	1.68853E-001	5.52483E-004	...........
	2	0.775	1.68846E-001	1.68848E-001	5.47550E-004	...........
	3	1.03333	1.68847E-001	1.68848E-001	5.50583E-004	...........
	4	1.29167	1.68848E-001	1.68847E-001	5.50550E-004	...........
	5	1.55	1.68849E-001	1.68849E-001	5.50183E-004	...........
	6	1.80833	1.68848E-001	1.68847E-001	5.49450E-004	...........
	7	2.06667	1.68848E-001	1.68847E-001	5.47183E-004	...........
	8	2.325	1.68848E-001	1.68847E-001	5.50650E-004	...........
	9	2.58333	1.68848E-001	1.68847E-001	5.48816E-004	...........
	10	2.84167	1.68847E-001	1.68848E-001	5.51683E-004	...........
	11	3.1	1.68847E-001	1.68850E-001	5.45950E-004	...........
	12	3.35833	1.68847E-001	1.68850E-001	5.47450E-004	...........
	13	3.61667	1.68848E-001	1.68852E-001	5.47450E-004	...........
	14	3.875	1.68849E-001	1.68850E-001	5.47583E-004	...........
	15	4.13333	1.68850E-001	1.68855E-001	5.51050E-004	...........
	16	4.39167	1.68851E-001	1.68853E-001	5.49716E-004	...........
	17	4.65	1.68852E-001	1.68855E-001	5.50850E-004	...........
	18	4.90833	1.68853E-001	1.68858E-001	5.50716E-004	...........
	19	5.16667	1.68854E-001	1.68857E-001	5.50716E-004	...........
	20	5.425	1.68855E-001	1.68861E-001	5.49583E-004	...........
	21	5.68333	1.68856E-001	1.68863E-001	5.48283E-004	...........
	22	5.94167	1.68858E-001	1.68861E-001	5.52083E-004	...........
	23	6.2	1.68860E-001	1.68861E-001	5.52783E-004	...........
	24	6.45833	1.68861E-001	1.68863E-001	5.49650E-004	...........
	25	6.71667	1.68862E-001	1.68861E-001	5.50783E-004	...........
	26	6.975	1.68862E-001	1.68862E-001	5.52083E-004	...........
	27	7.23333	1.68862E-001	1.68861E-001	5.50950E-004	...........
	28	7.49167	1.68862E-001	1.68864E-001	5.51116E-004	...........
	29	7.75	1.68862E-001	1.68863E-001	5.49016E-004	...........
	30	8.00833	1.68862E-001	1.68865E-001	5.49716E-004	...........
	31	8.26667	1.68863E-001	1.68863E-001	5.49616E-004	...........
	32	8.525	1.68863E-001	1.68865E-001	5.49383E-004	...........
	33	8.78333	1.68864E-001	1.68865E-001	5.53650E-004	...........
	34	9.04167	1.68864E-001	1.68869E-001	5.49083E-004	...........
	35	9.3	1.68865E-001	1.68868E-001	5.49883E-004	...........
	36	9.5583	1.68866E-001	1.68873E-001	5.51116E-004	...........
	37	9.8167	1.68868E-001	1.68871E-001	5.51183E-004	...........
	38	10.075	1.68869E-001	1.68873E-001	5.48950E-004	...........
EOC	QUANT	0.1688693	Open Circuit (V)
PSTATMODEL	IQUANT	4	Pstat Model
PSTATSECTION	LABEL	REF600-11020	Pstat Section
PSTATSERIALNO	LABEL	11020	Pstat Serial Number
CTRLMODE	IQUANT	1	Control Mode
IESTAB	IQUANT	0	I/E Stability
CASPEED	IQUANT	1	Control Amp Speed
CONVENTION	IQUANT	1	Current Convention
ICHRANGE	IQUANT	2	Ich Range
ICHRANGEMODE	TOGGLE	F	Ich Auto Range
ICHOFFSETENABLE	TOGGLE	T	Ich Offset Enable
ICHOFFSET	QUANT	0	Ich Offset (V)
ICHFILTER	IQUANT	3	Ich Filter
VCHRANGE	IQUANT	2	Vch Range
VCHRANGEMODE	TOGGLE	F	Vch Auto Range
VCHOFFSETENABLE	TOGGLE	T	Vch Offset Enable
VCHOFFSET	QUANT	0	Vch Offset (V)
VCHFILTER	IQUANT	3	Vch Filter
ACHRANGE	IQUANT	2	Ach Range
ACHOFFSETENABLE	TOGGLE	F	Ach Offset Enable
ACHOFFSET	QUANT	0	Ach Offset (V)
ACHFILTER	IQUANT	3	Ach Filter
IERANGELOWERLIMIT	IQUANT	1	I/E Range Lower Limit
IERANGEMODE	TOGGLE	F	I/E AutoRange
IERANGE	IQUANT	8	I/E Range
POSFEEDENABLE	TOGGLE	F	Positive Feedback IR Comp
POSFEEDRESISTANCE	QUANT	0	Positive Feedback Resistance (ohm)
ACHSELECT	IQUANT	0	Ach Select
CABLEID	IQUANT	14	Cable ID
DCCALDATE	LABEL	6/26/2020	DC Calibration Date
ACCALDATE	LABEL	6/26/2020	AC Calibration Date
THERMOSELECT	IQUANT	1	Thermo Select
FRAMEWORKVERSION	QUANT	6.33	Framework Version
INSTRUMENTVERSION	LABEL	3.50	Instrument Version
ZCURVE	TABLE
	Pt	Time	Freq	Zreal	Zimag	Zsig	Zmod	Zphz	Idc	Vdc	IERange
	#	s	Hz	ohm	ohm	V	ohm	°	A	V	#
	0	1	1000078	1641.863	-1988.771	1	2578.938	-50.45804	4.770103E-008	0.1710727	8
	1	2	794390.6	1976.042	-2196.679	1	2954.681	-48.02675	4.639606E-008	0.1707692	8
	2	2	630984.4	2353.746	-2387.035	1	3352.321	-45.40232	1.034072E-007	0.1706034	8
	3	2	501234.4	2782.105	-2558.021	1	3779.363	-42.59716	4.221722E-008	0.1705042	8
	4	3	398109.4	3247.288	-2682.285	1	4211.833	-39.55697	5.410125E-008	0.1704702	8
	5	3	316265.6	3731.963	-2765.095	1	4644.707	-36.53558	9.02238E-008	0.1704278	8
	6	3	251203.1	4234.592	-2797.933	1	5075.451	-33.45404	8.575788E-008	0.1703927	8
	7	4	199546.9	4725.529	-2783.95	1	5484.615	-30.50361	6.135758E-008	0.1704166	8
	8	4	158578.1	5206.801	-2735.746	1	5881.758	-27.71824	1.733829E-008	0.1704102	8
	9	4	125953.1	5722.592	-2580.316	1	6277.427	-24.2706	4.522828E-008	0.1703489	7
	10	5	100078.1	6132.202	-2480.088	1	6614.736	-22.02022	1.043419E-008	0.1703868	7
	11	5	79453.13	6499.277	-2369.874	1	6917.869	-20.0337	-3.410694E-011	0.1703942	7
	12	5	63140.62	6830.349	-2258.517	1	7194.065	-18.29694	6.441135E-009	0.1703705	7
	13	6	50203.12	7132.27	-2156.044	1	7451.026	-16.81977	-1.456641E-008	0.1703804	7
	14	6	39890.62	7406.209	-2069.449	1	7689.899	-15.61147	-5.388423E-009	0.1703634	7
	15	6	31640.63	7656.673	-1999.634	1	7913.481	-14.63658	-8.789049E-009	0.1703868	7
	16	6	25171.88	7889.305	-1958.84	1	8128.849	-13.94403	9.957573E-009	0.1703484	7
	17	7	20015.62	8104.153	-1941.658	1	8333.507	-13.47341	4.556524E-009	0.1703694	7
	18	7	15890.62	8318.03	-1959.493	1	8545.715	-13.25559	1.300876E-008	0.1703555	7
	19	7	12609.37	8529.319	-2011.209	1	8763.232	-13.26795	1.483183E-008	0.1703415	7
	20	8	10078.13	8801.215	-1978.723	1	9020.905	-12.67078	-1.371026E-009	0.1703798	6
	21	8	8015.625	9009.232	-2118.776	1	9255.024	-13.23423	1.970657E-009	0.1703407	6
	22	8	6328.125	9233.539	-2304.058	1	9516.67	-14.01097	2.252722E-009	0.170319	6
	23	9	5015.625	9469.549	-2531.709	1	9802.14	-14.96811	-2.388338E-009	0.1703751	6
	24	9	3984.375	9729.43	-2805.946	1	10125.97	-16.08743	-2.453663E-009	0.1703637	6
	25	9	3170.956	10013.36	-3132.309	1	10491.84	-17.37036	5.243712E-010	0.1703144	6
	26	10	2527.573	10326.72	-3519.239	1	10909.91	-18.81858	3.696559E-010	0.1703147	6
	27	10	1976.103	10706.62	-4017.768	1	11435.65	-20.56912	1.441661E-009	0.1703118	6
	28	10	1577.524	11098.53	-4556.64	1	11997.51	-22.32122	-2.876708E-009	0.1703738	6
	29	11	1265.625	11533.49	-5174.481	1	12641.07	-24.16331	-9.275737E-010	0.1703728	6
	30	11	998.264	12056.9	-5948.741	1	13444.56	-26.26123	-2.677093E-009	0.1703719	6
	31	11	796.875	12624	-6810.329	1	14343.84	-28.34575	-1.793017E-009	0.1703721	6
	32	12	627.7902	13302.33	-7879.38	1	15460.81	-30.63956	-8.723565E-010	0.1703723	6
	33	12	505.5147	13993.06	-9014.021	1	16645.07	-32.78874	1.285978E-009	0.1703078	6
	34	12	397.9953	14846.07	-10478.34	1	18171.44	-35.21439	3.433175E-010	0.1703638	6
	35	12	315.5048	15782.28	-12160.36	1	19923.72	-37.61452	3.861756E-010	0.1703663	6
	36	13	252.4038	16786.8	-14068.85	1	21902.72	-39.96604	3.257103E-010	0.1703632	6
	37	13	198.6229	17994.2	-16509.71	1	24420.52	-42.53643	2.167124E-010	0.1703644	6
	38	13	158.3615	19278	-19270.98	1	27258.24	-44.98956	3.318738E-010	0.1703592	6
	39	14	125.558	20758.76	-22667.19	1	30736.42	-47.51635	3.312018E-010	0.1703637	6
	40	14	100.4464	22371.54	-26600.26	1	34757.15	-49.93526	3.533043E-010	0.1703617	6
	41	14	79.00281	24372.09	-31737.81	1	40016.09	-52.47863	3.668794E-010	0.1703584	6
	42	15	63.3446	26517.12	-37477.39	1	45909.83	-54.71869	4.640246E-010	0.1703555	6
	43	15	49.86702	29327.07	-45049.79	1	53754.63	-56.93618	2.254799E-011	0.1703549	6
	44	16	39.72458	32604.26	-53813.54	1	62920.07	-58.78939	1.756932E-010	0.1703624	6
	45	16	31.6723	36701.82	-64336.61	1	74069.04	-60.29673	1.227167E-010	0.1703594	6
	46	16	24.93351	42272.92	-77690.68	1	88446.83	-61.44858	1.098716E-011	0.1703557	6
	47	17	19.86229	49083.47	-92696.88	1	104889.9	-62.09855	-1.284909E-009	0.1703447	5
	48	17	15.83615	57894.51	-110282.3	1	124555.1	-62.30203	3.423393E-010	0.170349	5
	49	17	12.40079	70305.94	-132274	1	149797.7	-62.00859	-8.957552E-010	0.1703545	5
	50	17	9.93114	84242.7	-154953.1	1	176372.6	-61.46859	-5.268352E-010	0.1703458	5
	51	18	7.944915	101594.9	-180021.6	1	206710.7	-60.56186	1.157508E-009	0.1703461	5
	52	18	6.317385	123287.9	-208956.7	1	242616.6	-59.45869	-3.208251E-010	0.1703602	5
	53	19	5.008013	149161.5	-240950.7	1	283383.9	-58.24025	-4.695632E-010	0.1703448	5
	54	20	3.945707	179822.1	-275980.3	1	329395.1	-56.91271	1.911698E-010	0.1703448	5
	55	21	3.158693	212264	-312410.8	1	377698.9	-55.8063	-2.309078E-010	0.1703371	5
	56	22	2.504006	249061.6	-353560.3	1	432477.2	-54.83764	-2.628358E-011	0.17033	5
	57	23	1.998082	288621.4	-398706	1	492208.1	-54.0994	2.366252E-010	0.1703779	5
	58	25	1.584686	331248.9	-450790	1	559408.1	-53.69086	1.189249E-010	0.1703373	5
	59	27	1.266892	377910.3	-508174.7	1	633291.1	-53.36321	2.534289E-011	0.1703043	5
	60	29	0.999041	431843.6	-580324.8	1	723371.1	-53.34555	-2.534747E-011	0.1702868	5
