EXPLAIN
TAG	EISPOT
TITLE	LABEL	Potentiostatic EIS	Test &Identifier
DATE	LABEL	3/9/2020	Date
TIME	LABEL	20:30:32	Time
NOTES	NOTES	1	&Notes...
	
PSTAT	PSTAT	REF600-11020	Potentiostat
VDC	POTEN	0.00000E+000	T	DC &Voltage (V)
FREQINIT	QUANT	1.00000E+006	Initial Fre&q. (Hz)
FREQFINAL	QUANT	1.00000E+000	Final Fre&q. (Hz)
PTSPERDEC	QUANT	1.00000E+001	Points/&decade
VAC	QUANT	2.50000E+001	AC &Voltage (mV rms)
AREA	QUANT	4.00000E-005	&Area (cm^2)
CONDIT	TWOPARAM	F	1.50000E+001	0.00000E+000	Conditionin&g	Time(s)	E(V)
DELAY	TWOPARAM	F	5.00000E+000	0.00000E+000	Init. De&lay	Time(s)	Stab.(mV/s)
SPEED	SELECTOR	0	&Optimize for:
ZGUESS	QUANT	1.00000E+003	E&stimated Z (ohms)
OCVCURVE	TABLE	39
	Pt	T	Vf	Vm	Ach	Over
	#	s	V vs. Ref.	V	V	bits
	0	0.258333	1.33432E-002	1.33432E-002	5.71663E-004	...........
	1	0.516667	1.33426E-002	1.33098E-002	5.73697E-004	...........
	2	0.775	1.33387E-002	1.32768E-002	5.70497E-004	...........
	3	1.03333	1.33276E-002	1.32540E-002	5.71930E-004	...........
	4	1.29167	1.33083E-002	1.32330E-002	5.72030E-004	...........
	5	1.55	1.32842E-002	1.32108E-002	5.69997E-004	...........
	6	1.80833	1.32592E-002	1.31926E-002	5.69063E-004	...........
	7	2.06667	1.32358E-002	1.31747E-002	5.73630E-004	...........
	8	2.325	1.32143E-002	1.31565E-002	5.71263E-004	...........
	9	2.58333	1.31947E-002	1.31410E-002	5.74097E-004	...........
	10	2.84167	1.31763E-002	1.31256E-002	5.73630E-004	...........
	11	3.1	1.31591E-002	1.31110E-002	5.69763E-004	...........
	12	3.35833	1.31428E-002	1.30986E-002	5.71530E-004	...........
	13	3.61667	1.31275E-002	1.30879E-002	5.68497E-004	...........
	14	3.875	1.31134E-002	1.30743E-002	5.70463E-004	...........
	15	4.13333	1.31004E-002	1.30646E-002	5.70363E-004	...........
	16	4.39167	1.30882E-002	1.30556E-002	5.69630E-004	...........
	17	4.65	1.30767E-002	1.30450E-002	5.70663E-004	...........
	18	4.90833	1.30661E-002	1.30391E-002	5.73063E-004	...........
	19	5.16667	1.30563E-002	1.30313E-002	5.71397E-004	...........
	20	5.425	1.30474E-002	1.30229E-002	5.71597E-004	...........
	21	5.68333	1.30393E-002	1.30157E-002	5.73397E-004	...........
	22	5.94167	1.30315E-002	1.30093E-002	5.75297E-004	...........
	23	6.2	1.30240E-002	1.30024E-002	5.73730E-004	...........
	24	6.45833	1.30168E-002	1.29984E-002	5.75230E-004	...........
	25	6.71667	1.30101E-002	1.29928E-002	5.77197E-004	...........
	26	6.975	1.30040E-002	1.29891E-002	5.72263E-004	...........
	27	7.23333	1.29986E-002	1.29833E-002	5.67363E-004	...........
	28	7.49167	1.29937E-002	1.29814E-002	5.65597E-004	...........
	29	7.75	1.29891E-002	1.29771E-002	5.72430E-004	...........
	30	8.00833	1.29850E-002	1.29749E-002	5.72097E-004	...........
	31	8.26667	1.29813E-002	1.29710E-002	5.68763E-004	...........
	32	8.525	1.29779E-002	1.29704E-002	5.69030E-004	...........
	33	8.78333	1.29749E-002	1.29655E-002	5.74530E-004	...........
	34	9.04167	1.29720E-002	1.29618E-002	5.71197E-004	...........
	35	9.3	1.29691E-002	1.29583E-002	5.70297E-004	...........
	36	9.5583	1.29658E-002	1.29558E-002	5.71163E-004	...........
	37	9.8167	1.29624E-002	1.29510E-002	5.61764E-004	...........
	38	10.075	1.29589E-002	1.29503E-002	5.69163E-004	...........
EOC	QUANT	0.0129589	Open Circuit (V)
PSTATMODEL	IQUANT	4	Pstat Model
PSTATSECTION	LABEL	REF600-11020	Pstat Section
PSTATSERIALNO	LABEL	11020	Pstat Serial Number
CTRLMODE	IQUANT	1	Control Mode
IESTAB	IQUANT	0	I/E Stability
CASPEED	IQUANT	1	Control Amp Speed
CONVENTION	IQUANT	1	Current Convention
ICHRANGE	IQUANT	2	Ich Range
ICHRANGEMODE	TOGGLE	F	Ich Auto Range
ICHOFFSETENABLE	TOGGLE	T	Ich Offset Enable
ICHOFFSET	QUANT	0	Ich Offset (V)
ICHFILTER	IQUANT	3	Ich Filter
VCHRANGE	IQUANT	2	Vch Range
VCHRANGEMODE	TOGGLE	F	Vch Auto Range
VCHOFFSETENABLE	TOGGLE	T	Vch Offset Enable
VCHOFFSET	QUANT	0	Vch Offset (V)
VCHFILTER	IQUANT	3	Vch Filter
ACHRANGE	IQUANT	2	Ach Range
ACHOFFSETENABLE	TOGGLE	F	Ach Offset Enable
ACHOFFSET	QUANT	0	Ach Offset (V)
ACHFILTER	IQUANT	3	Ach Filter
IERANGELOWERLIMIT	IQUANT	1	I/E Range Lower Limit
IERANGEMODE	TOGGLE	F	I/E AutoRange
IERANGE	IQUANT	7	I/E Range
POSFEEDENABLE	TOGGLE	F	Positive Feedback IR Comp
POSFEEDRESISTANCE	QUANT	0	Positive Feedback Resistance (ohm)
ACHSELECT	IQUANT	0	Ach Select
CABLEID	IQUANT	14	Cable ID
DCCALDATE	LABEL	2/27/2020	DC Calibration Date
ACCALDATE	LABEL	2/27/2020	AC Calibration Date
THERMOSELECT	IQUANT	1	Thermo Select
FRAMEWORKVERSION	QUANT	6.33	Framework Version
INSTRUMENTVERSION	LABEL	3.50	Instrument Version
ZCURVE	TABLE
	Pt	Time	Freq	Zreal	Zimag	Zsig	Zmod	Zphz	Idc	Vdc	IERange
	#	s	Hz	ohm	ohm	V	ohm	°	A	V	#
	0	1	1000078	1982.802	-1813.05	1	2686.756	-42.43941	4.173248E-008	0.0155241	8
	1	1	794390.6	2333.752	-1894.938	1	3006.192	-39.07559	3.803478E-008	0.0151385	8
	2	2	630984.4	2702.452	-1929.629	1	3320.649	-35.52793	-2.170231E-009	0.0149598	8
	3	2	501234.4	3071.704	-1917.087	1	3620.855	-31.96877	4.000652E-008	0.0148107	8
	4	2	398109.4	3426.374	-1853.722	1	3895.68	-28.41408	3.814866E-008	0.0147562	8
	5	3	316265.6	3745.162	-1752.634	1	4134.968	-25.07832	7.830352E-010	0.0147261	8
	6	3	251203.1	4029.654	-1632.788	1	4347.885	-22.05745	3.334876E-008	0.0146942	8
	7	3	199546.9	4269.83	-1505.321	1	4527.409	-19.42001	3.938829E-008	0.0146899	8
	8	4	158578.1	4469.402	-1379.322	1	4677.401	-17.15097	4.38598E-008	0.0146867	8
	9	4	125953.1	4679.858	-1190.935	1	4829.016	-14.27763	-2.845692E-009	0.0146205	7
	10	4	100078.1	4798.948	-1107.128	1	4925.001	-12.99097	-1.255796E-010	0.0146116	7
	11	5	79453.13	4916.766	-1053.696	1	5028.406	-12.09591	3.698087E-010	0.014613	7
	12	5	63140.62	5021.588	-1020.224	1	5124.179	-11.48434	1.946609E-009	0.0146079	7
	13	5	50203.12	5119.777	-1007.547	1	5217.975	-11.13326	2.416962E-010	0.0146073	7
	14	6	39890.62	5214.074	-1017.41	1	5312.409	-11.04125	1.198316E-010	0.0146011	7
	15	6	31640.63	5310.598	-1051.83	1	5413.76	-11.20315	-6.990362E-010	0.0146028	7
	16	6	25171.88	5408.76	-1109.644	1	5521.412	-11.59375	4.996087E-010	0.0145998	7
	17	7	20015.62	5513.891	-1193.225	1	5641.523	-12.21072	8.449758E-010	0.0146038	7
	18	7	15890.62	5626.843	-1303.334	1	5775.815	-13.04132	1.361775E-011	0.0145917	7
	19	7	12609.37	5750.924	-1444.447	1	5929.549	-14.0992	7.605851E-010	0.0145885	7
	20	7	10078.13	5884.182	-1612.117	1	6101.026	-15.32162	5.570673E-010	0.0145928	7
	21	8	8015.625	6037.318	-1819.338	1	6305.49	-16.77011	1.049304E-009	0.0145923	7
	22	8	6328.125	6216.972	-2079.423	1	6555.512	-18.49381	2.216525E-009	0.0145934	7
	23	8	5015.625	6416.391	-2380.787	1	6843.845	-20.35725	1.441086E-009	0.0145886	7
	24	9	3984.375	6642.521	-2735.333	1	7183.671	-22.38144	6.313018E-010	0.0145906	7
	25	9	3170.956	6901.293	-3154.575	1	7588.095	-24.5651	2.398099E-009	0.0145996	7
	26	9	2527.573	7195.132	-3640.684	1	8063.777	-26.83907	1.883351E-009	0.0145942	7
	27	10	1976.103	7564.389	-4259.566	1	8681.237	-29.3842	1.104958E-009	0.0145838	7
	28	10	1577.524	7957.343	-4935.988	1	9363.935	-31.81158	1.954916E-009	0.014591	7
	29	10	1265.625	8410.113	-5679.719	1	10148.36	-34.03289	-4.614804E-010	0.0146378	6
	30	11	998.264	8963.711	-6651.683	1	11162.12	-36.57793	1.482349E-010	0.0146389	6
	31	11	796.875	9574.61	-7730.717	1	12305.98	-38.91805	-1.142486E-010	0.0146442	6
	32	11	627.7902	10331.45	-9068.834	1	13747.09	-41.27631	-1.903614E-010	0.0146404	6
	33	12	505.5147	11124.57	-10489.54	1	15290.07	-43.31711	-3.185052E-010	0.0146404	6
	34	12	397.9953	12161.68	-12325.83	1	17315.68	-45.38408	1.291208E-010	0.0146502	6
	35	12	315.5048	13345.73	-14413.37	1	19643.16	-47.20256	1.059803E-010	0.0146493	6
	36	13	252.4038	14678.51	-16744.87	1	22267.68	-48.76228	1.334522E-010	0.0146438	6
	37	13	198.6229	16360.05	-19660.13	1	25576.79	-50.23469	1.365925E-010	0.0146455	6
	38	13	158.3615	18222.88	-22862.74	1	29236.59	-51.44321	1.298793E-010	0.0146443	6
	39	14	125.558	20441.04	-26662.04	1	33596.14	-52.52363	2.715371E-010	0.0146363	6
	40	14	100.4464	22898.15	-30877.33	1	38441.32	-53.43995	2.653831E-010	0.0146413	6
	41	14	79.00281	25924.12	-36146.74	1	44481.98	-54.35225	9.173539E-011	0.0146406	6
	42	15	63.3446	29064.05	-41778.25	1	50893.43	-55.17466	1.352219E-010	0.0146379	6
	43	15	49.86702	32860.89	-48937.62	1	58946.82	-56.11922	-1.140356E-010	0.0146409	6
	44	15	39.72458	36874.3	-57000.48	1	67887.91	-57.10068	1.38553E-010	0.014648	6
	45	16	31.6723	41346.72	-66608.44	1	78397.93	-58.17035	2.333878E-010	0.0146447	6
	46	16	24.93351	46705.7	-78883.2	1	91673.23	-59.37078	-1.207963E-011	0.014641	6
	47	16	19.86229	52662.96	-92994.95	1	106871.2	-60.47716	2.157652E-010	0.0146432	5
	48	17	15.83615	59657.43	-110081.5	1	125207.6	-61.54502	-7.608377E-010	0.014644	5
	49	17	12.40079	68878.45	-132399.4	1	149244.2	-62.51509	-6.350812E-010	0.0146499	5
	50	17	9.93114	79334.97	-156728.5	1	175664	-63.15176	-8.118197E-010	0.014646	5
	51	17	7.944915	92146.09	-185777.8	1	207374.8	-63.61851	-5.594109E-010	0.0146473	5
	52	18	6.317385	108964.1	-220770.1	1	246196.3	-63.73073	5.349676E-011	0.0146336	5
	53	19	5.008013	130537.2	-262467.2	1	293136.5	-63.55669	-7.688331E-011	0.0146379	5
	54	20	3.945707	158055.7	-312229.6	1	349955.6	-63.15073	-2.798494E-010	0.0146415	5
	55	20	3.158693	189986	-364677.6	1	411198.8	-62.48184	-5.050184E-011	0.0146293	5
	56	22	2.504006	230366.7	-427369	1	485502.9	-61.6738	1.653466E-010	0.0146332	5
	57	23	1.998082	277091.9	-494416.5	1	566769.4	-60.73188	-2.790058E-011	0.0146107	5
	58	24	1.584686	334505.9	-574208.4	1	664537.1	-59.777	-1.018672E-010	0.0145909	5
	59	26	1.266892	397403.8	-658530.3	1	769150.1	-58.89024	-5.839375E-011	0.0146198	5
	60	29	0.999041	476120.3	-757431	1	894646.4	-57.84658	-3.623461E-011	0.0146485	5
