EXPLAIN
TAG	EISPOT
TITLE	LABEL	Potentiostatic EIS	Test &Identifier
DATE	LABEL	2/13/2020	Date
TIME	LABEL	13:59:21	Time
NOTES	NOTES	1	&Notes...
	
PSTAT	PSTAT	REF600-11020	Potentiostat
VDC	POTEN	0.00000E+000	T	DC &Voltage (V)
FREQINIT	QUANT	1.00000E+006	Initial Fre&q. (Hz)
FREQFINAL	QUANT	1.00000E+000	Final Fre&q. (Hz)
PTSPERDEC	QUANT	1.00000E+001	Points/&decade
VAC	QUANT	2.50000E+001	AC &Voltage (mV rms)
AREA	QUANT	5.00000E-004	&Area (cm^2)
CONDIT	TWOPARAM	F	1.50000E+001	0.00000E+000	Conditionin&g	Time(s)	E(V)
DELAY	TWOPARAM	F	1.00000E+002	0.00000E+000	Init. De&lay	Time(s)	Stab.(mV/s)
SPEED	SELECTOR	0	&Optimize for:
ZGUESS	QUANT	1.00000E+003	E&stimated Z (ohms)
OCVCURVE	TABLE	39
	Pt	T	Vf	Vm	Ach	Over
	#	s	V vs. Ref.	V	V	bits
	0	0.258333	4.10223E-002	4.10223E-002	4.91139E-004	...........
	1	0.516667	4.10274E-002	4.12880E-002	4.87072E-004	...........
	2	0.775	4.10547E-002	4.13359E-002	4.81606E-004	...........
	3	1.03333	4.11237E-002	4.16364E-002	4.92105E-004	...........
	4	1.29167	4.12485E-002	4.21923E-002	4.90539E-004	...........
	5	1.55	4.14441E-002	4.22683E-002	4.86772E-004	...........
	6	1.80833	4.17010E-002	4.22835E-002	4.84239E-004	...........
	7	2.06667	4.19390E-002	4.12675E-002	4.86472E-004	...........
	8	2.325	4.20312E-002	4.14732E-002	4.85606E-004	...........
	9	2.58333	4.19268E-002	4.13661E-002	4.82906E-004	...........
	10	2.84167	4.17151E-002	4.12918E-002	4.79939E-004	...........
	11	3.1	4.15203E-002	4.12809E-002	4.88272E-004	...........
	12	3.35833	4.13910E-002	4.12280E-002	4.89072E-004	...........
	13	3.61667	4.13176E-002	4.13115E-002	4.85772E-004	...........
	14	3.875	4.12828E-002	4.13218E-002	4.80739E-004	...........
	15	4.13333	4.12773E-002	4.13426E-002	4.91139E-004	...........
	16	4.39167	4.12917E-002	4.13651E-002	4.88772E-004	...........
	17	4.65	4.13152E-002	4.14016E-002	4.92539E-004	...........
	18	4.90833	4.13409E-002	4.14099E-002	4.88539E-004	...........
	19	5.16667	4.13659E-002	4.14137E-002	4.88072E-004	...........
	20	5.425	4.13871E-002	4.14092E-002	4.91939E-004	...........
	21	5.68333	4.14015E-002	4.14049E-002	4.93672E-004	...........
	22	5.94167	4.14082E-002	4.14037E-002	4.97039E-004	...........
	23	6.2	4.14091E-002	4.14050E-002	4.86505E-004	...........
	24	6.45833	4.14076E-002	4.14070E-002	4.93272E-004	...........
	25	6.71667	4.14060E-002	4.14017E-002	4.93105E-004	...........
	26	6.975	4.14050E-002	4.13995E-002	4.90439E-004	...........
	27	7.23333	4.14039E-002	4.13939E-002	4.93039E-004	...........
	28	7.49167	4.14019E-002	4.13961E-002	4.89372E-004	...........
	29	7.75	4.13993E-002	4.13895E-002	4.87839E-004	...........
	30	8.00833	4.13969E-002	4.14075E-002	4.93872E-004	...........
	31	8.26667	4.13960E-002	4.13980E-002	4.94005E-004	...........
	32	8.525	4.13966E-002	4.13870E-002	4.91672E-004	...........
	33	8.78333	4.13968E-002	4.13804E-002	4.94239E-004	...........
	34	9.04167	4.13942E-002	4.13714E-002	4.92539E-004	...........
	35	9.3	4.13885E-002	4.13616E-002	4.88539E-004	...........
	36	9.5583	4.13807E-002	4.13538E-002	4.87506E-004	...........
	37	9.8167	4.13719E-002	4.13397E-002	4.91139E-004	...........
	38	10.075	4.13626E-002	4.13353E-002	4.85739E-004	...........
EOC	QUANT	0.0413626	Open Circuit (V)
PSTATMODEL	IQUANT	4	Pstat Model
PSTATSECTION	LABEL	REF600-11020	Pstat Section
PSTATSERIALNO	LABEL	11020	Pstat Serial Number
CTRLMODE	IQUANT	1	Control Mode
IESTAB	IQUANT	0	I/E Stability
CASPEED	IQUANT	1	Control Amp Speed
CONVENTION	IQUANT	1	Current Convention
ICHRANGE	IQUANT	2	Ich Range
ICHRANGEMODE	TOGGLE	F	Ich Auto Range
ICHOFFSETENABLE	TOGGLE	T	Ich Offset Enable
ICHOFFSET	QUANT	0	Ich Offset (V)
ICHFILTER	IQUANT	3	Ich Filter
VCHRANGE	IQUANT	2	Vch Range
VCHRANGEMODE	TOGGLE	F	Vch Auto Range
VCHOFFSETENABLE	TOGGLE	T	Vch Offset Enable
VCHOFFSET	QUANT	0	Vch Offset (V)
VCHFILTER	IQUANT	3	Vch Filter
ACHRANGE	IQUANT	2	Ach Range
ACHOFFSETENABLE	TOGGLE	F	Ach Offset Enable
ACHOFFSET	QUANT	0	Ach Offset (V)
ACHFILTER	IQUANT	3	Ach Filter
IERANGELOWERLIMIT	IQUANT	1	I/E Range Lower Limit
IERANGEMODE	TOGGLE	F	I/E AutoRange
IERANGE	IQUANT	7	I/E Range
POSFEEDENABLE	TOGGLE	F	Positive Feedback IR Comp
POSFEEDRESISTANCE	QUANT	0	Positive Feedback Resistance (ohm)
ACHSELECT	IQUANT	0	Ach Select
CABLEID	IQUANT	14	Cable ID
DCCALDATE	LABEL	1/27/2020	DC Calibration Date
ACCALDATE	LABEL	1/27/2020	AC Calibration Date
THERMOSELECT	IQUANT	1	Thermo Select
FRAMEWORKVERSION	QUANT	6.33	Framework Version
INSTRUMENTVERSION	LABEL	3.50	Instrument Version
ZCURVE	TABLE
	Pt	Time	Freq	Zreal	Zimag	Zsig	Zmod	Zphz	Idc	Vdc	IERange
	#	s	Hz	ohm	ohm	V	ohm	°	A	V	#
	0	1	1000078	2040.567	-2109.25	1	2934.766	-45.94821	1.84192E-006	0.0428753	8
	1	1	794390.6	2427.255	-2236.797	1	3300.732	-42.66161	-7.010413E-008	0.0430194	8
	2	1	630984.4	2827.964	-2326.532	1	3661.984	-39.44373	9.09244E-007	0.0429115	8
	3	2	501234.4	3243.536	-2382.67	1	4024.63	-36.30064	-2.949556E-006	0.043597	8
	4	2	398109.4	3661.188	-2379.198	1	4366.334	-33.01756	6.172191E-007	0.0427527	8
	5	2	316265.6	4078.773	-2375.015	1	4719.861	-30.21168	-1.006306E-006	0.0430305	8
	6	3	251203.1	4481.562	-2302.844	1	5038.599	-27.19629	9.326459E-007	0.042595	8
	7	3	199546.9	4881.057	-2242.164	1	5371.407	-24.67217	9.773399E-007	0.0426449	8
	8	3	158578.1	5239.688	-2135.036	1	5657.977	-22.16961	-8.122892E-007	0.0429392	8
	9	4	125953.1	5629.344	-1956.374	1	5959.607	-19.16394	1.954236E-007	0.0421775	7
	10	4	100078.1	5942.553	-1813.006	1	6212.964	-16.96636	2.198684E-008	0.0427563	7
	11	4	79453.13	6210.893	-1666.528	1	6430.592	-15.02001	-3.204601E-008	0.0428252	7
	12	5	63140.62	6446.604	-1507.998	1	6620.632	-13.16597	8.622793E-008	0.0426301	7
	13	5	50203.12	6639.334	-1355.005	1	6776.193	-11.53494	2.663934E-008	0.0427953	7
	14	5	39890.62	6798.303	-1212.276	1	6905.543	-10.11073	2.928031E-008	0.0427798	7
	15	5	31640.63	6927.06	-1087.584	1	7011.918	-8.922889	-3.923714E-008	0.0428145	7
	16	6	25171.88	7033.991	-985.006	1	7102.624	-7.971588	2.732599E-008	0.0427969	7
	17	6	20015.62	7118.46	-905.7973	1	7175.859	-7.251701	2.161083E-008	0.04274	7
	18	6	15890.62	7190.304	-849.7946	1	7240.347	-6.740303	2.198573E-008	0.0427345	7
	19	7	12609.37	7249.794	-819.4207	1	7295.955	-6.448588	-1.986761E-009	0.0427543	7
	20	7	10078.13	7305.591	-824.2699	1	7351.944	-6.437303	7.214979E-009	0.0428126	7
	21	7	8015.625	7351.756	-841.2607	1	7399.732	-6.527956	-2.732958E-008	0.0428347	7
	22	8	6328.125	7400.658	-897.7256	1	7454.908	-6.916387	3.417083E-008	0.0427029	7
	23	8	5015.625	7446.998	-984.885	1	7511.842	-7.533793	-1.289327E-009	0.0427488	7
	24	8	3984.375	7497.71	-1114.908	1	7580.15	-8.457895	-1.263929E-008	0.042832	7
	25	9	3170.956	7548.428	-1281.827	1	7656.49	-9.63767	3.02342E-008	0.0427671	7
	26	9	2527.573	7601.601	-1496.375	1	7747.481	-11.13629	-2.412916E-009	0.0427192	7
	27	9	1976.103	7675.468	-1799.267	1	7883.538	-13.19294	3.520283E-008	0.0426967	7
	28	10	1577.524	7747.301	-2155.041	1	8041.447	-15.54479	3.081318E-008	0.0427606	7
	29	10	1265.625	7838.183	-2581.748	1	8252.426	-18.2309	7.407048E-008	0.0426905	7
	30	10	998.264	7953.905	-3148.945	1	8554.558	-21.59858	2.397292E-008	0.0427278	7
	31	11	796.875	8086.184	-3822.74	1	8944.256	-25.30242	-3.636535E-008	0.0428	7
	32	11	627.7902	8269.675	-4698.549	1	9511.25	-29.60377	-1.471275E-010	0.0428348	6
	33	11	505.5147	8476.192	-5677.254	1	10201.82	-33.81371	6.734546E-010	0.0426716	6
	34	12	397.9953	8764.312	-7004.704	1	11219.58	-38.63291	8.656663E-010	0.0427769	6
	35	12	315.5048	9131.178	-8587.468	1	12534.87	-43.24239	1.157644E-009	0.0427714	6
	36	12	252.4038	9587.73	-10439.9	1	14174.48	-47.43646	1.600825E-009	0.0427675	6
	37	12	198.6229	10232.19	-12863.3	1	16436.61	-51.4993	9.214527E-010	0.0427682	6
	38	13	158.3615	11030.35	-15649.97	1	19146.54	-54.82319	1.092503E-009	0.0427649	6
	39	13	125.558	12114.27	-19091.43	1	22610.58	-57.60326	1.183243E-009	0.0427666	6
	40	13	100.4464	13490.68	-23036.09	1	26695.69	-59.64537	1.292086E-009	0.042765	6
	41	14	79.00281	15477.42	-28134.6	1	32110.84	-61.18391	1.209895E-009	0.0427621	6
	42	14	63.3446	17646.08	-33876.76	1	38197.11	-62.48542	3.956721E-010	0.0427526	6
	43	14	49.86702	20982.93	-40849.92	1	45923.85	-62.81229	4.26852E-010	0.0427517	6
	44	15	39.72458	25276.82	-48459.63	1	54655.77	-62.4532	1.096662E-009	0.0427584	6
	45	15	31.6723	30523.33	-57155.08	1	64794.88	-61.89582	1.263733E-009	0.0427599	6
	46	16	24.93351	37395.13	-67595.97	1	77250.31	-61.04795	8.574133E-010	0.0427622	6
	47	16	19.86229	45479.37	-78570.57	1	90783.85	-59.93625	1.916064E-009	0.042759	6
	48	16	15.83615	55696.63	-90166.68	1	105981.8	-58.29606	-1.764236E-009	0.0427569	5
	49	16	12.40079	68230.73	-103655.9	1	124096.7	-56.64539	-2.729089E-009	0.0427568	5
	50	17	9.93114	80668.3	-117195.9	1	142275.3	-55.45958	-1.842207E-009	0.04276	5
	51	17	7.944915	94452.39	-131693	1	162062.7	-54.35129	-5.99957E-010	0.0427608	5
	52	18	6.317385	110048.6	-147409.6	1	183957.3	-53.25682	-2.108167E-010	0.0427618	5
	53	18	5.008013	126780.4	-165202	1	208242.6	-52.49641	2.591802E-010	0.0427586	5
	54	19	3.945707	145059.5	-187044.6	1	236702.3	-52.2052	-4.116983E-010	0.0427407	5
	55	21	3.158693	162619.9	-209712.7	1	265376.5	-52.20852	1.609019E-010	0.0427321	5
	56	22	2.504006	182056.2	-238790.2	1	300275.2	-52.67771	2.789764E-010	0.042749	5
	57	24	1.998082	202713.9	-272418.3	1	339565.4	-53.34606	-8.160863E-011	0.0426991	5
	58	25	1.584686	225379.6	-315393.1	1	387645.1	-54.45043	-5.737586E-011	0.0427096	5
	59	27	1.266892	249830	-364224.2	1	441672.2	-55.55285	7.296467E-011	0.0427417	5
	60	30	0.999041	280288.4	-427580.8	1	511260.1	-56.75429	1.336168E-010	0.0427668	5
