EXPLAIN
TAG	EISPOT
TITLE	LABEL	Potentiostatic EIS	Test &Identifier
DATE	LABEL	1/28/2020	Date
TIME	LABEL	11:24:28	Time
NOTES	NOTES	6	&Notes...
	
	
	
	
	
	
PSTAT	PSTAT	REF600-11020	Potentiostat
VDC	POTEN	0.00000E+000	T	DC &Voltage (V)
FREQINIT	QUANT	1.00000E+006	Initial Fre&q. (Hz)
FREQFINAL	QUANT	1.00000E+000	Final Fre&q. (Hz)
PTSPERDEC	QUANT	1.00000E+001	Points/&decade
VAC	QUANT	2.50000E+001	AC &Voltage (mV rms)
AREA	QUANT	1.60000E-004	&Area (cm^2)
CONDIT	TWOPARAM	F	5.00000E+000	0.00000E+000	Conditionin&g	Time(s)	E(V)
DELAY	TWOPARAM	F	5.00000E+000	0.00000E+000	Init. De&lay	Time(s)	Stab.(mV/s)
SPEED	SELECTOR	0	&Optimize for:
ZGUESS	QUANT	1.00000E+003	E&stimated Z (ohms)
OCVCURVE	TABLE	39
	Pt	T	Vf	Vm	Ach	Over
	#	s	V vs. Ref.	V	V	bits
	0	0.258333	7.69388E-002	7.69388E-002	5.78004E-004	...........
	1	0.516667	7.69406E-002	7.70350E-002	5.80437E-004	...........
	2	0.775	7.69574E-002	7.74155E-002	5.76004E-004	...........
	3	1.03333	7.70138E-002	7.72822E-002	5.81304E-004	...........
	4	1.29167	7.71120E-002	7.73220E-002	5.81737E-004	...........
	5	1.55	7.72182E-002	7.75516E-002	5.81371E-004	...........
	6	1.80833	7.73073E-002	7.74361E-002	5.82037E-004	...........
	7	2.06667	7.73786E-002	7.74493E-002	5.77737E-004	...........
	8	2.325	7.74281E-002	7.74530E-002	5.77504E-004	...........
	9	2.58333	7.74506E-002	7.74032E-002	5.75137E-004	...........
	10	2.84167	7.74515E-002	7.74293E-002	5.77338E-004	...........
	11	3.1	7.74418E-002	7.74177E-002	5.79004E-004	...........
	12	3.35833	7.74311E-002	7.74330E-002	5.81737E-004	...........
	13	3.61667	7.74255E-002	7.74444E-002	5.80437E-004	...........
	14	3.875	7.74266E-002	7.74566E-002	5.82737E-004	...........
	15	4.13333	7.74332E-002	7.74687E-002	5.77104E-004	...........
	16	4.39167	7.74432E-002	7.74738E-002	5.80637E-004	...........
	17	4.65	7.74538E-002	7.74580E-002	5.76637E-004	...........
	18	4.90833	7.74620E-002	7.74842E-002	5.72638E-004	...........
	19	5.16667	7.74674E-002	7.74811E-002	5.70571E-004	...........
	20	5.425	7.74706E-002	7.74276E-002	5.74704E-004	...........
	21	5.68333	7.74662E-002	7.72571E-002	5.80371E-004	...........
	22	5.94167	7.74372E-002	7.70750E-002	5.77671E-004	...........
	23	6.2	7.73709E-002	7.72038E-002	5.74637E-004	...........
	24	6.45833	7.72809E-002	7.70048E-002	5.73971E-004	...........
	25	6.71667	7.71968E-002	7.71337E-002	5.75371E-004	...........
	26	6.975	7.71401E-002	7.72653E-002	5.80204E-004	...........
	27	7.23333	7.71309E-002	7.75737E-002	5.78304E-004	...........
	28	7.49167	7.71873E-002	7.74924E-002	5.75204E-004	...........
	29	7.75	7.72941E-002	7.75061E-002	5.74471E-004	...........
	30	8.00833	7.74034E-002	7.75651E-002	5.76771E-004	...........
	31	8.26667	7.74804E-002	7.76048E-002	5.75871E-004	...........
	32	8.525	7.75268E-002	7.75447E-002	5.77071E-004	...........
	33	8.78333	7.75528E-002	7.75030E-002	5.73371E-004	...........
	34	9.04167	7.75587E-002	7.75004E-002	5.82004E-004	...........
	35	9.3	7.75455E-002	7.74493E-002	5.77971E-004	...........
	36	9.5583	7.75218E-002	7.74927E-002	5.81004E-004	...........
	37	9.8167	7.74983E-002	7.74517E-002	5.76704E-004	...........
	38	10.075	7.74807E-002	7.74258E-002	5.82237E-004	...........
EOC	QUANT	0.0774807	Open Circuit (V)
PSTATMODEL	IQUANT	4	Pstat Model
PSTATSECTION	LABEL	REF600-11020	Pstat Section
PSTATSERIALNO	LABEL	11020	Pstat Serial Number
CTRLMODE	IQUANT	1	Control Mode
IESTAB	IQUANT	0	I/E Stability
CASPEED	IQUANT	1	Control Amp Speed
CONVENTION	IQUANT	1	Current Convention
ICHRANGE	IQUANT	2	Ich Range
ICHRANGEMODE	TOGGLE	F	Ich Auto Range
ICHOFFSETENABLE	TOGGLE	T	Ich Offset Enable
ICHOFFSET	QUANT	0	Ich Offset (V)
ICHFILTER	IQUANT	3	Ich Filter
VCHRANGE	IQUANT	2	Vch Range
VCHRANGEMODE	TOGGLE	F	Vch Auto Range
VCHOFFSETENABLE	TOGGLE	T	Vch Offset Enable
VCHOFFSET	QUANT	0	Vch Offset (V)
VCHFILTER	IQUANT	3	Vch Filter
ACHRANGE	IQUANT	2	Ach Range
ACHOFFSETENABLE	TOGGLE	F	Ach Offset Enable
ACHOFFSET	QUANT	0	Ach Offset (V)
ACHFILTER	IQUANT	3	Ach Filter
IERANGELOWERLIMIT	IQUANT	1	I/E Range Lower Limit
IERANGEMODE	TOGGLE	F	I/E AutoRange
IERANGE	IQUANT	8	I/E Range
POSFEEDENABLE	TOGGLE	F	Positive Feedback IR Comp
POSFEEDRESISTANCE	QUANT	0	Positive Feedback Resistance (ohm)
ACHSELECT	IQUANT	0	Ach Select
CABLEID	IQUANT	14	Cable ID
DCCALDATE	LABEL	1/27/2020	DC Calibration Date
ACCALDATE	LABEL	1/27/2020	AC Calibration Date
THERMOSELECT	IQUANT	1	Thermo Select
FRAMEWORKVERSION	QUANT	6.33	Framework Version
INSTRUMENTVERSION	LABEL	3.50	Instrument Version
ZCURVE	TABLE
	Pt	Time	Freq	Zreal	Zimag	Zsig	Zmod	Zphz	Idc	Vdc	IERange
	#	s	Hz	ohm	ohm	V	ohm	°	A	V	#
	0	1	1000078	2452.275	-1643.403	1	2952.021	-33.8282	2.937466E-006	0.0788395	8
	1	1	794390.6	2767.022	-1561.811	1	3177.367	-29.44201	-2.746379E-006	0.0798192	8
	2	2	630984.4	3042.953	-1458.536	1	3374.447	-25.60915	-7.575355E-007	0.0794513	8
	3	2	501234.4	3284.89	-1332.44	1	3544.842	-22.0788	-1.121609E-006	0.0795973	8
	4	2	398109.4	3470.705	-1196.75	1	3671.24	-19.02495	-3.267575E-006	0.0797931	8
	5	2	316265.6	3608.802	-1050.145	1	3758.492	-16.22475	4.999871E-006	0.0782428	8
	6	3	251203.1	3752.75	-937.85	1	3868.164	-14.0314	1.972987E-006	0.0785038	8
	7	3	199546.9	3837.347	-858.9926	1	3932.315	-12.61769	-3.546518E-006	0.0797646	8
	8	3	158578.1	3942.96	-772.6251	1	4017.945	-11.08667	1.756198E-006	0.0786281	8
	9	4	125953.1	4019.516	-682.7029	1	4077.081	-9.63953	1.314337E-006	0.0761014	7
	10	4	100078.1	4080.488	-649.7484	1	4131.895	-9.047422	-5.153437E-008	0.0791505	7
	11	4	79453.13	4134.786	-644.8983	1	4184.775	-8.864941	-1.950346E-008	0.0791802	7
	12	5	63140.62	4191.553	-655.2917	1	4242.467	-8.885484	7.634709E-008	0.0789033	7
	13	5	50203.12	4249.983	-679.5019	1	4303.961	-9.083764	6.142476E-008	0.0790272	7
	14	5	39890.62	4310.833	-720.0411	1	4370.554	-9.48261	-5.179849E-008	0.0791122	7
	15	6	31640.63	4379.403	-779.6382	1	4448.259	-10.09427	-3.91405E-008	0.0790586	7
	16	6	25171.88	4453.594	-854.4427	1	4534.817	-10.86049	-5.066239E-008	0.0791342	7
	17	6	20015.62	4534.755	-948.9204	1	4632.975	-11.81889	2.8875E-008	0.0790021	7
	18	7	15890.62	4626.501	-1064.53	1	4747.393	-12.95788	2.454229E-009	0.078973	7
	19	7	12609.37	4731.236	-1206.294	1	4882.595	-14.3036	-1.775949E-008	0.0791621	7
	20	7	10078.13	4848.541	-1360.301	1	5035.749	-15.67194	-3.593071E-008	0.0790794	7
	21	8	8015.625	4977.547	-1565.367	1	5217.887	-17.45761	1.2972E-007	0.0788404	7
	22	8	6328.125	5131.24	-1802.325	1	5438.566	-19.35359	7.681903E-008	0.0788911	7
	23	8	5015.625	5306.3	-2079.2	1	5699.113	-21.39704	1.28673E-007	0.0788413	7
	24	8	3984.375	5504.642	-2403.285	1	6006.402	-23.58571	-5.153284E-008	0.0791333	7
	25	9	3170.956	5731.113	-2777.11	1	6368.516	-25.85331	1.302775E-007	0.0788416	7
	26	9	2527.573	5989.697	-3214.243	1	6797.634	-28.21928	4.677894E-008	0.078888	7
	27	9	1976.103	6314.317	-3771.64	1	7354.989	-30.85053	-3.457557E-008	0.0790803	7
	28	10	1577.524	6659.621	-4379.622	1	7970.673	-33.33045	-3.945796E-008	0.0790559	7
	29	10	1265.625	7051.542	-5069.317	1	8684.597	-35.71216	-5.240222E-008	0.0791003	7
	30	10	998.264	7543.246	-5939.903	1	9601.2	-38.21854	-5.005313E-008	0.0791336	7
	31	11	796.875	8087.658	-6897.426	1	10629.43	-40.45866	-4.440637E-009	0.0791606	6
	32	11	627.7902	8760.127	-8099.285	1	11930.56	-42.75531	-8.103489E-009	0.0791212	6
	33	11	505.5147	9477.02	-9377.107	1	13332.07	-44.69638	-6.515137E-010	0.0789467	6
	34	12	397.9953	10394.01	-11015.63	1	15145.28	-46.66309	1.32111E-009	0.0790334	6
	35	12	315.5048	11448.54	-12880.95	1	17233.33	-48.36943	2.672263E-010	0.0790286	6
	36	12	252.4038	12628.46	-14958.74	1	19576.56	-49.8283	2.338567E-010	0.0790227	6
	37	13	198.6229	14104.75	-17546.49	1	22512.73	-51.20594	1.039621E-009	0.0790262	6
	38	13	158.3615	15713.56	-20380.01	1	25734.42	-52.36677	5.788254E-010	0.0790238	6
	39	13	125.558	17594.35	-23762.54	1	29567.21	-53.48288	7.482913E-010	0.079031	6
	40	14	100.4464	19642.56	-27584.72	1	33863.65	-54.54604	4.97564E-010	0.0790276	6
	41	14	79.00281	22000.42	-32396.23	1	39160.36	-55.81941	2.354618E-011	0.0790263	6
	42	14	63.3446	24609.45	-37101.04	1	44520.92	-56.44334	1.040445E-009	0.0790289	6
	43	15	49.86702	27595.38	-44061.88	1	51989.95	-57.94162	1.331652E-009	0.0790257	6
	44	15	39.72458	30358.04	-52074.98	1	60277.8	-59.75919	9.915695E-010	0.079031	6
	45	15	31.6723	33633.06	-61727.19	1	70295.3	-61.41553	1.164842E-009	0.079024	6
	46	16	24.93351	37945.94	-73893.12	1	83066.77	-62.81838	8.26098E-010	0.0790242	6
	47	16	19.86229	42480.56	-88231.75	1	97925.7	-64.29078	6.98879E-010	0.0790241	6
	48	16	15.83615	47559.83	-106621.3	1	116747.8	-65.96011	-9.659622E-010	0.0790272	5
	49	17	12.40079	56306.13	-128710.1	1	140487.2	-66.37231	-7.948506E-010	0.0790287	5
	50	17	9.93114	64344.43	-154040.2	1	166938.8	-67.32912	6.324367E-010	0.0790239	5
	51	18	7.944915	75621.43	-184264.2	1	199178	-67.68691	6.263399E-010	0.0790194	5
	52	18	6.317385	90448.34	-221939.3	1	239662.2	-67.82732	3.281668E-010	0.0790121	5
	53	19	5.008013	109650.8	-266975.5	1	288616	-67.67132	3.333858E-010	0.0790265	5
	54	20	3.945707	134578.8	-320574.8	1	347677.6	-67.2271	5.525172E-011	0.0790169	5
	55	21	3.158693	164400.3	-378965.7	1	413088.9	-66.54816	6.274348E-011	0.0790005	5
	56	23	2.504006	202396	-449402.4	1	492875.9	-65.75477	2.011481E-010	0.0790076	5
	57	24	1.998082	246880.8	-526549.9	1	581553.9	-64.87977	7.000039E-011	0.0789917	5
	58	26	1.584686	303716.4	-619441	1	689891.9	-63.88095	3.903616E-012	0.0789612	5
	59	28	1.266892	367139.3	-720828.1	1	808940.4	-63.00889	1.399877E-011	0.0789771	5
	60	30	0.999041	448164	-841716.4	1	953592	-61.96735	3.273016E-011	0.0790002	5
