EXPLAIN
TAG	EISPOT
TITLE	LABEL	Potentiostatic EIS	Test &Identifier
DATE	LABEL	7/30/2020	Date
TIME	LABEL	23:08:29	Time
NOTES	NOTES	1	&Notes...
	
PSTAT	PSTAT	REF600-11020	Potentiostat
VDC	POTEN	0.00000E+000	T	DC &Voltage (V)
FREQINIT	QUANT	1.00000E+006	Initial Fre&q. (Hz)
FREQFINAL	QUANT	1.00000E+000	Final Fre&q. (Hz)
PTSPERDEC	QUANT	1.00000E+001	Points/&decade
VAC	QUANT	2.50000E+001	AC &Voltage (mV rms)
AREA	QUANT	4.00000E-005	&Area (cm^2)
CONDIT	TWOPARAM	F	5.00000E+000	0.00000E+000	Conditionin&g	Time(s)	E(V)
DELAY	TWOPARAM	F	3.00000E+000	0.00000E+000	Init. De&lay	Time(s)	Stab.(mV/s)
SPEED	SELECTOR	0	&Optimize for:
ZGUESS	QUANT	1.00000E+003	E&stimated Z (ohms)
OCVCURVE	TABLE	39
	Pt	T	Vf	Vm	Ach	Over
	#	s	V vs. Ref.	V	V	bits
	0	0.258333	-1.94611E-002	-1.94611E-002	5.13250E-004	...........
	1	0.516667	-1.94617E-002	-1.94909E-002	5.18517E-004	...........
	2	0.775	-1.94651E-002	-1.95168E-002	5.11150E-004	...........
	3	1.03333	-1.94748E-002	-1.95442E-002	5.04317E-004	...........
	4	1.29167	-1.94920E-002	-1.95694E-002	5.11784E-004	...........
	5	1.55	-1.95148E-002	-1.95909E-002	5.13483E-004	...........
	6	1.80833	-1.95399E-002	-1.96115E-002	5.08550E-004	...........
	7	2.06667	-1.95647E-002	-1.96320E-002	5.09217E-004	...........
	8	2.325	-1.95878E-002	-1.96485E-002	5.13683E-004	...........
	9	2.58333	-1.96091E-002	-1.96653E-002	5.08917E-004	...........
	10	2.84167	-1.96287E-002	-1.96804E-002	5.07417E-004	...........
	11	3.1	-1.96466E-002	-1.96941E-002	5.06650E-004	...........
	12	3.35833	-1.96631E-002	-1.97065E-002	5.06883E-004	...........
	13	3.61667	-1.96782E-002	-1.97195E-002	5.11717E-004	...........
	14	3.875	-1.96922E-002	-1.97274E-002	5.06550E-004	...........
	15	4.13333	-1.97050E-002	-1.97385E-002	5.04750E-004	...........
	16	4.39167	-1.97167E-002	-1.97508E-002	5.06717E-004	...........
	17	4.65	-1.97277E-002	-1.97643E-002	5.06750E-004	...........
	18	4.90833	-1.97383E-002	-1.97470E-002	5.12017E-004	...........
	19	5.16667	-1.97471E-002	-1.97586E-002	5.12683E-004	...........
	20	5.425	-1.97527E-002	-1.97658E-002	5.11517E-004	...........
	21	5.68333	-1.97562E-002	-1.97719E-002	5.11683E-004	...........
	22	5.94167	-1.97599E-002	-1.97759E-002	5.08950E-004	...........
	23	6.2	-1.97648E-002	-1.97825E-002	5.10617E-004	...........
	24	6.45833	-1.97704E-002	-1.97875E-002	5.09550E-004	...........
	25	6.71667	-1.97760E-002	-1.97912E-002	5.07817E-004	...........
	26	6.975	-1.97814E-002	-1.97971E-002	5.05684E-004	...........
	27	7.23333	-1.97866E-002	-1.98014E-002	5.12917E-004	...........
	28	7.49167	-1.97914E-002	-1.98022E-002	5.04884E-004	...........
	29	7.75	-1.97958E-002	-1.98048E-002	5.09084E-004	...........
	30	8.00833	-1.97995E-002	-1.98091E-002	5.10850E-004	...........
	31	8.26667	-1.98026E-002	-1.98123E-002	5.11917E-004	...........
	32	8.525	-1.98056E-002	-1.98152E-002	5.11250E-004	...........
	33	8.78333	-1.98086E-002	-1.98143E-002	5.12617E-004	...........
	34	9.04167	-1.98113E-002	-1.98131E-002	5.11784E-004	...........
	35	9.3	-1.98131E-002	-1.98172E-002	5.09150E-004	...........
	36	9.5583	-1.98142E-002	-1.98159E-002	5.06584E-004	...........
	37	9.8167	-1.98150E-002	-1.98189E-002	5.13050E-004	...........
	38	10.075	-1.98159E-002	-1.98194E-002	5.05650E-004	...........
EOC	QUANT	-0.0198159	Open Circuit (V)
PSTATMODEL	IQUANT	4	Pstat Model
PSTATSECTION	LABEL	REF600-11020	Pstat Section
PSTATSERIALNO	LABEL	11020	Pstat Serial Number
CTRLMODE	IQUANT	1	Control Mode
IESTAB	IQUANT	0	I/E Stability
CASPEED	IQUANT	1	Control Amp Speed
CONVENTION	IQUANT	1	Current Convention
ICHRANGE	IQUANT	2	Ich Range
ICHRANGEMODE	TOGGLE	F	Ich Auto Range
ICHOFFSETENABLE	TOGGLE	T	Ich Offset Enable
ICHOFFSET	QUANT	0	Ich Offset (V)
ICHFILTER	IQUANT	3	Ich Filter
VCHRANGE	IQUANT	2	Vch Range
VCHRANGEMODE	TOGGLE	F	Vch Auto Range
VCHOFFSETENABLE	TOGGLE	T	Vch Offset Enable
VCHOFFSET	QUANT	0	Vch Offset (V)
VCHFILTER	IQUANT	3	Vch Filter
ACHRANGE	IQUANT	2	Ach Range
ACHOFFSETENABLE	TOGGLE	F	Ach Offset Enable
ACHOFFSET	QUANT	0	Ach Offset (V)
ACHFILTER	IQUANT	3	Ach Filter
IERANGELOWERLIMIT	IQUANT	1	I/E Range Lower Limit
IERANGEMODE	TOGGLE	F	I/E AutoRange
IERANGE	IQUANT	7	I/E Range
POSFEEDENABLE	TOGGLE	F	Positive Feedback IR Comp
POSFEEDRESISTANCE	QUANT	0	Positive Feedback Resistance (ohm)
ACHSELECT	IQUANT	0	Ach Select
CABLEID	IQUANT	14	Cable ID
DCCALDATE	LABEL	6/26/2020	DC Calibration Date
ACCALDATE	LABEL	6/26/2020	AC Calibration Date
THERMOSELECT	IQUANT	1	Thermo Select
FRAMEWORKVERSION	QUANT	6.33	Framework Version
INSTRUMENTVERSION	LABEL	3.50	Instrument Version
ZCURVE	TABLE
	Pt	Time	Freq	Zreal	Zimag	Zsig	Zmod	Zphz	Idc	Vdc	IERange
	#	s	Hz	ohm	ohm	V	ohm	°	A	V	#
	0	1	1000078	1711.284	-1805.175	1	2487.398	-46.52945	2.492494E-008	-0.0173657	8
	1	2	794390.6	2048.747	-1926.016	1	2811.921	-43.23142	7.942767E-008	-0.0177346	8
	2	2	630984.4	2421.592	-2006.163	1	3144.646	-39.63998	9.373675E-008	-0.0179402	8
	3	2	501234.4	2803.666	-2042.499	1	3468.767	-36.07372	4.416135E-008	-0.018025	8
	4	3	398109.4	3186.146	-2028.315	1	3776.981	-32.48101	5.272994E-008	-0.0180653	8
	5	3	316265.6	3553.574	-1978.821	1	4067.385	-29.11141	4.570442E-008	-0.0181233	8
	6	3	251203.1	3894.721	-1889.892	1	4329.035	-25.88472	5.586316E-008	-0.0181381	8
	7	4	199546.9	4197.215	-1779.302	1	4558.786	-22.97327	-9.658369E-009	-0.0181325	8
	8	4	158578.1	4468.733	-1655.472	1	4765.519	-20.32749	-1.412712E-008	-0.0181178	8
	9	4	125953.1	4734.405	-1502.361	1	4967.059	-17.60571	-1.92289E-010	-0.0181403	7
	10	5	100078.1	4943.968	-1385.593	1	5134.46	-15.65602	8.399684E-010	-0.0181777	7
	11	5	79453.13	5119.399	-1278.623	1	5276.659	-14.02332	1.25566E-009	-0.0181842	7
	12	5	63140.62	5271.789	-1183.331	1	5402.965	-12.6512	6.383802E-010	-0.0181934	7
	13	5	50203.12	5406.083	-1103.383	1	5517.534	-11.53565	-1.429742E-010	-0.0181987	7
	14	6	39890.62	5525.046	-1039.765	1	5622.033	-10.65791	5.946255E-010	-0.018196	7
	15	6	31640.63	5634.755	-994.329	1	5721.814	-10.00759	1.08219E-009	-0.0181956	7
	16	6	25171.88	5732.847	-967.28	1	5813.877	-9.57708	1.733848E-009	-0.0182029	7
	17	7	20015.62	5824.735	-959.1	1	5903.169	-9.350412	1.05719E-009	-0.0181965	7
	18	7	15890.62	5913.334	-971.857	1	5992.665	-9.333127	1.130763E-009	-0.018194	7
	19	7	12609.37	5999.419	-1007.302	1	6083.394	-9.53106	3.407885E-010	-0.0181976	7
	20	8	10078.13	6083.096	-1064.963	1	6175.613	-9.9301	1.530942E-009	-0.0181946	7
	21	8	8015.625	6169.337	-1150.707	1	6275.734	-10.56542	1.634881E-009	-0.0181952	7
	22	8	6328.125	6262.344	-1271.795	1	6390.182	-11.47985	4.170547E-010	-0.0182057	7
	23	9	5015.625	6357.803	-1428.79	1	6516.372	-12.66567	1.001024E-009	-0.0182059	7
	24	9	3984.375	6459.958	-1627.486	1	6661.814	-14.14051	6.614542E-010	-0.018208	7
	25	9	3170.956	6568.692	-1874.184	1	6830.833	-15.92455	1.292946E-009	-0.0182038	7
	26	10	2527.573	6688.425	-2179.196	1	7034.481	-18.04644	1.399227E-009	-0.0182067	7
	27	10	1976.103	6835.879	-2594.463	1	7311.667	-20.78356	1.13106E-009	-0.018213	7
	28	10	1577.524	6988.184	-3062.527	1	7629.796	-23.66513	1.672216E-009	-0.0182032	7
	29	11	1265.625	7160.479	-3626.074	1	8026.262	-26.8577	2.446546E-009	-0.0181977	7
	30	11	998.264	7378.121	-4359.929	1	8570.044	-30.57998	8.198829E-010	-0.0182094	7
	31	11	796.875	7624.952	-5227.404	1	9244.763	-34.43319	1.462497E-009	-0.0182106	7
	32	11	627.7902	7949.155	-6339.252	1	10167.36	-38.57148	-2.203004E-010	-0.0182139	6
	33	12	505.5147	8299.394	-7572.165	1	11234.66	-42.37656	-7.987785E-010	-0.0182121	6
	34	12	397.9953	8780.203	-9229.152	1	12738.49	-46.42801	4.046373E-010	-0.0181857	6
	35	12	315.5048	9369.976	-11190.51	1	14595.34	-50.06009	3.777235E-010	-0.018186	6
	36	13	252.4038	10083.06	-13467.96	1	16824.22	-53.17889	4.794226E-010	-0.0181902	6
	37	13	198.6229	11060.44	-16423.04	1	19800.23	-56.04088	4.253196E-010	-0.0181938	6
	38	13	158.3615	12246.33	-19790.68	1	23273.24	-58.25108	9.878615E-011	-0.0181917	6
	39	14	125.558	13808.13	-23920.66	1	27619.97	-60.00443	4.581302E-010	-0.0181878	6
	40	14	100.4464	15742.51	-28638.18	1	32679.84	-61.20224	1.568484E-010	-0.018189	6
	41	14	79.00281	18439.25	-34652.79	1	39253.3	-61.98191	1.46019E-010	-0.0181888	6
	42	15	63.3446	21651.58	-41138.18	1	46488.07	-62.24156	3.602578E-010	-0.018192	6
	43	15	49.86702	26141.78	-49287	1	55790.68	-62.05856	-1.579437E-010	-0.0181968	6
	44	15	39.72458	31629.06	-58162.86	1	66206.61	-61.46258	6.474143E-011	-0.0181968	6
	45	16	31.6723	38565.02	-68078.29	1	78242.66	-60.4693	1.272604E-011	-0.0181986	6
	46	16	24.93351	47753.08	-79592.25	1	92818.55	-59.03745	-8.706257E-010	-0.0181977	6
	47	16	19.86229	58443.52	-91376.8	1	108468.3	-57.3975	-2.011343E-009	-0.0182055	5
	48	17	15.83615	71251.55	-103538.5	1	125686.1	-55.46563	2.318741E-009	-0.0182102	5
	49	17	12.40079	87027	-116651.6	1	145538	-53.27552	6.80606E-010	-0.0182122	5
	50	17	9.93114	102945	-128444.4	1	164607.5	-51.28867	1.359485E-009	-0.018214	5
	51	18	7.944915	119121.3	-140867.8	1	184482	-49.7813	1.325921E-009	-0.0182175	5
	52	18	6.317385	136863.8	-154227.5	1	206198.5	-48.41368	-3.508149E-010	-0.0182015	5
	53	19	5.008013	154753.4	-169135.7	1	229249.8	-47.54255	1.160692E-010	-0.018203	5
	54	20	3.945707	172938.1	-187762.3	1	255269	-47.35343	4.594349E-010	-0.0182117	5
	55	21	3.158693	189852.6	-208404.4	1	281915.6	-47.66706	9.061092E-011	-0.0181976	5
	56	22	2.504006	208366.5	-235672.6	1	314576.2	-48.51897	-1.840576E-010	-0.018212	5
	57	23	1.998082	226823.5	-267959.4	1	351071.4	-49.7526	4.38711E-011	-0.0182005	5
	58	25	1.584686	248932.7	-310010.7	1	397585.4	-51.2362	1.549112E-010	-0.0181734	5
	59	26	1.266892	271973.9	-360063.1	1	451237.4	-52.9344	8.757225E-011	-0.0181971	5
	60	29	0.999041	300928.6	-423846.8	1	519811.7	-54.62548	6.301792E-011	-0.0182192	5
