EXPLAIN
TAG	EISPOT
TITLE	LABEL	Potentiostatic EIS	Test &Identifier
DATE	LABEL	5/26/2020	Date
TIME	LABEL	17:51:41	Time
NOTES	NOTES	1	&Notes...
	
PSTAT	PSTAT	REF600-11020	Potentiostat
VDC	POTEN	0.00000E+000	T	DC &Voltage (V)
FREQINIT	QUANT	1.00000E+006	Initial Fre&q. (Hz)
FREQFINAL	QUANT	1.00000E+000	Final Fre&q. (Hz)
PTSPERDEC	QUANT	1.00000E+001	Points/&decade
VAC	QUANT	2.50000E+001	AC &Voltage (mV rms)
AREA	QUANT	5.00000E-004	&Area (cm^2)
CONDIT	TWOPARAM	F	5.00000E+000	0.00000E+000	Conditionin&g	Time(s)	E(V)
DELAY	TWOPARAM	T	3.00000E+000	0.00000E+000	Init. De&lay	Time(s)	Stab.(mV/s)
SPEED	SELECTOR	0	&Optimize for:
ZGUESS	QUANT	1.00000E+003	E&stimated Z (ohms)
OCVCURVE	TABLE	12
	Pt	T	Vf	Vm	Ach	Over
	#	s	V vs. Ref.	V	V	bits
	0	0.258333	9.37079E-002	9.37079E-002	5.84030E-004	...........
	1	0.516667	9.37073E-002	9.36755E-002	5.82097E-004	...........
	2	0.775	9.37034E-002	9.36422E-002	5.78063E-004	...........
	3	1.03333	9.36924E-002	9.36106E-002	5.77297E-004	...........
	4	1.29167	9.36724E-002	9.35840E-002	5.80330E-004	...........
	5	1.55	9.36458E-002	9.35591E-002	5.72797E-004	...........
	6	1.80833	9.36168E-002	9.35352E-002	5.82430E-004	...........
	7	2.06667	9.35886E-002	9.35130E-002	5.80297E-004	...........
	8	2.325	9.35625E-002	9.34961E-002	5.79963E-004	...........
	9	2.58333	9.35387E-002	9.34795E-002	5.79897E-004	...........
	10	2.84167	9.35175E-002	9.34640E-002	5.79130E-004	...........
	11	3.1	9.34985E-002	9.34469E-002	5.75763E-004	...........
EOC	QUANT	0.0934985	Open Circuit (V)
PSTATMODEL	IQUANT	4	Pstat Model
PSTATSECTION	LABEL	REF600-11020	Pstat Section
PSTATSERIALNO	LABEL	11020	Pstat Serial Number
CTRLMODE	IQUANT	1	Control Mode
IESTAB	IQUANT	0	I/E Stability
CASPEED	IQUANT	1	Control Amp Speed
CONVENTION	IQUANT	1	Current Convention
ICHRANGE	IQUANT	2	Ich Range
ICHRANGEMODE	TOGGLE	F	Ich Auto Range
ICHOFFSETENABLE	TOGGLE	T	Ich Offset Enable
ICHOFFSET	QUANT	0	Ich Offset (V)
ICHFILTER	IQUANT	3	Ich Filter
VCHRANGE	IQUANT	2	Vch Range
VCHRANGEMODE	TOGGLE	F	Vch Auto Range
VCHOFFSETENABLE	TOGGLE	T	Vch Offset Enable
VCHOFFSET	QUANT	0	Vch Offset (V)
VCHFILTER	IQUANT	3	Vch Filter
ACHRANGE	IQUANT	2	Ach Range
ACHOFFSETENABLE	TOGGLE	F	Ach Offset Enable
ACHOFFSET	QUANT	0	Ach Offset (V)
ACHFILTER	IQUANT	3	Ach Filter
IERANGELOWERLIMIT	IQUANT	1	I/E Range Lower Limit
IERANGEMODE	TOGGLE	F	I/E AutoRange
IERANGE	IQUANT	8	I/E Range
POSFEEDENABLE	TOGGLE	F	Positive Feedback IR Comp
POSFEEDRESISTANCE	QUANT	0	Positive Feedback Resistance (ohm)
ACHSELECT	IQUANT	0	Ach Select
CABLEID	IQUANT	14	Cable ID
DCCALDATE	LABEL	2/27/2020	DC Calibration Date
ACCALDATE	LABEL	2/27/2020	AC Calibration Date
THERMOSELECT	IQUANT	1	Thermo Select
FRAMEWORKVERSION	QUANT	6.33	Framework Version
INSTRUMENTVERSION	LABEL	3.50	Instrument Version
ZCURVE	TABLE
	Pt	Time	Freq	Zreal	Zimag	Zsig	Zmod	Zphz	Idc	Vdc	IERange
	#	s	Hz	ohm	ohm	V	ohm	°	A	V	#
	0	2	1000078	1924.223	-2203.163	1	2925.16	-48.86633	6.737065E-008	0.095908	8
	1	2	794390.6	2305.237	-2404.169	1	3330.788	-46.20346	5.395967E-008	0.0955723	8
	2	2	630984.4	2732.952	-2581.489	1	3759.403	-43.3675	6.049001E-008	0.0954225	8
	3	2	501234.4	3200.716	-2729.093	1	4206.249	-40.45259	9.723097E-008	0.0952875	8
	4	3	398109.4	3704.478	-2832.171	1	4663.084	-37.39886	4.188512E-008	0.0952458	8
	5	3	316265.6	4228.218	-2887.084	1	5119.871	-34.32579	6.065147E-008	0.095221	8
	6	3	251203.1	4757.747	-2883.089	1	5563.125	-31.21493	6.080221E-008	0.0952174	8
	7	4	199546.9	5283.492	-2814.226	1	5986.247	-28.04177	5.580605E-008	0.0952111	8
	8	4	158578.1	5769.617	-2691.788	1	6366.648	-25.01118	3.024595E-008	0.0952281	8
	9	4	125953.1	6285.915	-2448.202	1	6745.845	-21.27963	1.922886E-009	0.0951452	7
	10	5	100078.1	6647.578	-2271.425	1	7024.931	-18.86489	2.427485E-009	0.0951412	7
	11	5	79453.13	6982.217	-2096.474	1	7290.168	-16.71286	2.969273E-009	0.0951341	7
	12	5	63140.62	7259.12	-1920.815	1	7508.951	-14.82119	2.152736E-009	0.0951307	7
	13	6	50203.12	7494.508	-1763.888	1	7699.283	-13.24395	1.874126E-009	0.0951218	7
	14	6	39890.62	7693.75	-1630.017	1	7864.525	-11.96195	3.271025E-009	0.0951189	7
	15	6	31640.63	7864.847	-1523.447	1	8011.036	-10.96262	1.737378E-009	0.0951151	7
	16	7	25171.88	8014.934	-1448.889	1	8144.842	-10.2469	2.33358E-009	0.0951216	7
	17	7	20015.62	8153.111	-1406.025	1	8273.46	-9.78457	2.903492E-009	0.0951248	7
	18	7	15890.62	8284.772	-1395.374	1	8401.46	-9.56039	3.090852E-009	0.0951231	7
	19	8	12609.37	8412.733	-1415.056	1	8530.912	-9.54801	2.461545E-009	0.0951175	7
	20	8	10078.13	8535.379	-1466.718	1	8660.482	-9.75047	2.696102E-009	0.0951203	7
	21	8	8015.625	8665.44	-1556.29	1	8804.084	-10.18162	3.001333E-009	0.095121	7
	22	8	6328.125	8825.674	-1622.028	1	8973.488	-10.4139	-4.86195E-011	0.0951715	6
	23	9	5015.625	8974.185	-1805.643	1	9154.034	-11.37625	-2.845934E-011	0.0951688	6
	24	9	3984.375	9132.733	-2032.201	1	9356.103	-12.54498	-4.501557E-011	0.0951684	6
	25	9	3170.956	9304.112	-2306.425	1	9585.72	-13.92257	3.372688E-011	0.0951699	6
	26	10	2527.573	9498.367	-2637.732	1	9857.82	-15.52017	-4.596724E-011	0.095165	6
	27	10	1976.103	9732.24	-3073.052	1	10205.89	-17.52403	-1.667609E-010	0.0951663	6
	28	10	1577.524	9972.44	-3552.866	1	10586.42	-19.60938	-1.562862E-010	0.0951663	6
	29	11	1265.625	10240.1	-4112.861	1	11035.18	-21.8825	-2.263022E-010	0.0951707	6
	30	11	998.264	10565.47	-4836.774	1	11619.97	-24.59786	-5.144779E-011	0.0951669	6
	31	11	796.875	10913.56	-5664.265	1	12295.92	-27.42983	-1.069065E-010	0.0951631	6
	32	12	627.7902	11326.18	-6716.418	1	13167.86	-30.66792	-4.728215E-011	0.0951611	6
	33	12	505.5147	11752.6	-7870.064	1	14144.31	-33.80803	-4.88527E-010	0.0951587	6
	34	12	397.9953	12284.75	-9418.587	1	15479.82	-37.477	4.17013E-010	0.0951833	6
	35	13	315.5048	12884.38	-11251.21	1	17105.47	-41.12889	3.994482E-010	0.0951803	6
	36	13	252.4038	13553.2	-13392.39	1	19053.75	-44.65805	3.239004E-010	0.0951769	6
	37	13	198.6229	14404.95	-16196.89	1	21675.83	-48.35122	3.508676E-010	0.0951799	6
	38	14	158.3615	15370.77	-19434.86	1	24778.51	-51.66001	2.990803E-010	0.0951764	6
	39	14	125.558	16577.26	-23466.54	1	28731.24	-54.7618	2.420267E-010	0.0951753	6
	40	14	100.4464	17995.44	-28155.11	1	33414.76	-57.41517	2.173882E-010	0.0951813	6
	41	15	79.00281	19890.22	-34268.67	1	39622.75	-59.86827	2.696256E-010	0.0951768	6
	42	15	63.3446	22050.79	-41057.24	1	46604.02	-61.76089	1.133487E-010	0.0951772	6
	43	15	49.86702	24957.08	-49906.79	1	55799.13	-63.43156	3.129727E-010	0.0951736	6
	44	16	39.72458	28403.26	-60048.39	1	66427.06	-64.68555	5.573377E-010	0.0951767	6
	45	16	31.6723	32676.3	-72153.38	1	79207.64	-65.63552	6.183489E-010	0.0951765	6
	46	16	24.93351	38366.17	-87533.34	1	95572.2	-66.33199	-7.046942E-012	0.0951767	6
	47	17	19.86229	45198.87	-104988.8	1	114304.8	-66.70758	-8.54665E-010	0.0951748	5
	48	17	15.83615	53949.79	-125738.8	1	136824.1	-66.77765	2.209151E-010	0.0951799	5
	49	17	12.40079	66283.72	-152343.4	1	166138.6	-66.48642	-6.702906E-010	0.0951864	5
	50	17	9.93114	80509.16	-180604	1	197736	-65.97378	-5.737636E-010	0.0951837	5
	51	18	7.944915	98950.3	-213118.9	1	234969.8	-65.09473	6.012257E-010	0.0951847	5
	52	18	6.317385	122830.2	-251561.6	1	279947.3	-63.97509	-1.883309E-010	0.0952001	5
	53	19	5.008013	153367.9	-295132.4	1	332603.1	-62.541	-2.835049E-010	0.0951809	5
	54	20	3.945707	191724.1	-343770.1	1	393619.1	-60.85115	2.268952E-010	0.0951853	5
	55	21	3.158693	235518.2	-393289.8	1	458416.5	-59.08508	-1.658355E-010	0.0951834	5
	56	22	2.504006	287771.1	-447905.7	1	532383.1	-57.28001	-9.39068E-011	0.0951698	5
	57	23	1.998082	346442.7	-503708.6	1	611346.8	-55.48043	1.677082E-010	0.0952103	5
	58	25	1.584686	411182.2	-565055.5	1	698826.6	-53.95719	1.434458E-010	0.0951895	5
	59	27	1.266892	480980.3	-627132.1	1	790339.6	-52.51352	7.476225E-011	0.0951443	5
	60	29	0.999041	561862.8	-701118.4	1	898474.7	-51.29198	2.786905E-011	0.0951219	5
