EXPLAIN
TAG	EISPOT
TITLE	LABEL	Potentiostatic EIS	Test &Identifier
DATE	LABEL	3/3/2020	Date
TIME	LABEL	19:17:42	Time
NOTES	NOTES	1	&Notes...
	
PSTAT	PSTAT	REF600-11020	Potentiostat
VDC	POTEN	0.00000E+000	T	DC &Voltage (V)
FREQINIT	QUANT	1.00000E+006	Initial Fre&q. (Hz)
FREQFINAL	QUANT	1.00000E+000	Final Fre&q. (Hz)
PTSPERDEC	QUANT	1.00000E+001	Points/&decade
VAC	QUANT	2.50000E+001	AC &Voltage (mV rms)
AREA	QUANT	1.60000E-004	&Area (cm^2)
CONDIT	TWOPARAM	F	1.50000E+001	0.00000E+000	Conditionin&g	Time(s)	E(V)
DELAY	TWOPARAM	F	1.00000E+002	0.00000E+000	Init. De&lay	Time(s)	Stab.(mV/s)
SPEED	SELECTOR	1	&Optimize for:
ZGUESS	QUANT	1.00000E+004	E&stimated Z (ohms)
OCVCURVE	TABLE	39
	Pt	T	Vf	Vm	Ach	Over
	#	s	V vs. Ref.	V	V	bits
	0	0.258333	7.76277E-002	7.76277E-002	5.79197E-004	...........
	1	0.516667	7.76197E-002	7.72097E-002	5.75630E-004	...........
	2	0.775	7.75878E-002	7.77053E-002	5.73497E-004	...........
	3	1.03333	7.75706E-002	7.90581E-002	5.80730E-004	...........
	4	1.29167	7.77056E-002	7.94627E-002	5.78530E-004	...........
	5	1.55	7.80774E-002	7.88964E-002	5.81530E-004	...........
	6	1.80833	7.85357E-002	7.83486E-002	5.75397E-004	...........
	7	2.06667	7.88019E-002	7.77396E-002	5.80897E-004	...........
	8	2.325	7.87329E-002	7.74796E-002	5.81763E-004	...........
	9	2.58333	7.84196E-002	7.81119E-002	5.80163E-004	...........
	10	2.84167	7.80854E-002	7.78929E-002	5.83130E-004	...........
	11	3.1	7.78995E-002	7.79748E-002	5.78230E-004	...........
	12	3.35833	7.78754E-002	7.84393E-002	5.78797E-004	...........
	13	3.61667	7.79562E-002	7.84523E-002	5.77363E-004	...........
	14	3.875	7.80942E-002	7.81923E-002	5.74797E-004	...........
	15	4.13333	7.82359E-002	7.88018E-002	5.77463E-004	...........
	16	4.39167	7.83553E-002	7.87430E-002	5.77030E-004	...........
	17	4.65	7.84422E-002	7.71121E-002	5.81497E-004	...........
	18	4.90833	7.83984E-002	7.70173E-002	5.70563E-004	...........
	19	5.16667	7.81204E-002	7.70178E-002	5.80997E-004	...........
	20	5.425	7.76958E-002	7.71281E-002	5.76063E-004	...........
	21	5.68333	7.73363E-002	7.73755E-002	5.75263E-004	...........
	22	5.94167	7.71677E-002	7.74386E-002	5.75630E-004	...........
	23	6.2	7.71754E-002	7.75111E-002	5.76430E-004	...........
	24	6.45833	7.72733E-002	7.74701E-002	5.71930E-004	...........
	25	6.71667	7.73771E-002	7.74342E-002	5.75497E-004	...........
	26	6.975	7.74406E-002	7.73995E-002	5.71430E-004	...........
	27	7.23333	7.74569E-002	7.73809E-002	5.78963E-004	...........
	28	7.49167	7.74415E-002	7.73494E-002	5.75197E-004	...........
	29	7.75	7.74132E-002	7.73278E-002	5.77363E-004	...........
	30	8.00833	7.73833E-002	7.73095E-002	5.78663E-004	...........
	31	8.26667	7.73562E-002	7.72975E-002	5.80130E-004	...........
	32	8.525	7.73331E-002	7.72779E-002	5.80563E-004	...........
	33	8.78333	7.73137E-002	7.72689E-002	5.79663E-004	...........
	34	9.04167	7.72970E-002	7.72499E-002	5.81497E-004	...........
	35	9.3	7.72818E-002	7.72402E-002	5.80430E-004	...........
	36	9.5583	7.72670E-002	7.72041E-002	5.79030E-004	...........
	37	9.8167	7.72509E-002	7.71823E-002	5.76963E-004	...........
	38	10.075	7.72317E-002	7.71630E-002	5.77430E-004	...........
EOC	QUANT	0.0772317	Open Circuit (V)
PSTATMODEL	IQUANT	4	Pstat Model
PSTATSECTION	LABEL	REF600-11020	Pstat Section
PSTATSERIALNO	LABEL	11020	Pstat Serial Number
CTRLMODE	IQUANT	1	Control Mode
IESTAB	IQUANT	0	I/E Stability
CASPEED	IQUANT	1	Control Amp Speed
CONVENTION	IQUANT	1	Current Convention
ICHRANGE	IQUANT	2	Ich Range
ICHRANGEMODE	TOGGLE	F	Ich Auto Range
ICHOFFSETENABLE	TOGGLE	T	Ich Offset Enable
ICHOFFSET	QUANT	0	Ich Offset (V)
ICHFILTER	IQUANT	3	Ich Filter
VCHRANGE	IQUANT	2	Vch Range
VCHRANGEMODE	TOGGLE	F	Vch Auto Range
VCHOFFSETENABLE	TOGGLE	T	Vch Offset Enable
VCHOFFSET	QUANT	0	Vch Offset (V)
VCHFILTER	IQUANT	3	Vch Filter
ACHRANGE	IQUANT	2	Ach Range
ACHOFFSETENABLE	TOGGLE	F	Ach Offset Enable
ACHOFFSET	QUANT	0	Ach Offset (V)
ACHFILTER	IQUANT	3	Ach Filter
IERANGELOWERLIMIT	IQUANT	1	I/E Range Lower Limit
IERANGEMODE	TOGGLE	F	I/E AutoRange
IERANGE	IQUANT	7	I/E Range
POSFEEDENABLE	TOGGLE	F	Positive Feedback IR Comp
POSFEEDRESISTANCE	QUANT	0	Positive Feedback Resistance (ohm)
ACHSELECT	IQUANT	0	Ach Select
CABLEID	IQUANT	14	Cable ID
DCCALDATE	LABEL	2/27/2020	DC Calibration Date
ACCALDATE	LABEL	2/27/2020	AC Calibration Date
THERMOSELECT	IQUANT	1	Thermo Select
FRAMEWORKVERSION	QUANT	6.33	Framework Version
INSTRUMENTVERSION	LABEL	3.50	Instrument Version
ZCURVE	TABLE
	Pt	Time	Freq	Zreal	Zimag	Zsig	Zmod	Zphz	Idc	Vdc	IERange
	#	s	Hz	ohm	ohm	V	ohm	°	A	V	#
	0	1	1000078	2183.147	-1739.133	1	2791.185	-38.54143	-4.478233E-006	0.0800923	8
	1	3	794390.6	2504.164	-1749.777	1	3054.923	-34.94381	7.388243E-007	0.0793082	8
	2	4	630984.4	2826.898	-1718.036	1	3308.02	-31.28897	-5.859552E-007	0.0791201	8
	3	6	501234.4	3121.028	-1663.255	1	3536.557	-28.054	7.226172E-007	0.0788218	8
	4	7	398109.4	3405.893	-1572.329	1	3751.31	-24.78039	-8.428349E-007	0.0792252	8
	5	8	316265.6	3659.171	-1486.716	1	3949.665	-22.11184	3.468851E-007	0.0787528	8
	6	10	251203.1	3860.705	-1399.177	1	4106.427	-19.92128	3.356766E-006	0.0784059	8
	7	11	199546.9	4067.78	-1264.975	1	4259.929	-17.27435	-1.627687E-007	0.0788077	8
	8	13	158578.1	4249.157	-1183.58	1	4410.918	-15.56489	-2.833576E-008	0.0788281	8
	9	14	125953.1	4410.939	-1064.76	1	4537.632	-13.57106	3.903428E-007	0.0778891	7
	10	15	100078.1	4533.634	-987.547	1	4639.945	-12.28859	-5.945086E-008	0.0788522	7
	11	17	79453.13	4656.466	-928.9965	1	4748.232	-11.28276	-2.654013E-008	0.0787477	7
	12	18	63140.62	4765.003	-878.0205	1	4845.222	-10.44046	1.904364E-009	0.0786582	7
	13	19	50203.12	4865.975	-839.7571	1	4937.904	-9.79151	-5.870387E-008	0.0788402	7
	14	21	39890.62	4961.482	-811.3657	1	5027.387	-9.287537	1.10874E-007	0.0785812	7
	15	22	31640.63	5051.547	-794.1657	1	5113.593	-8.934477	-2.561963E-008	0.0787366	7
	16	23	25171.88	5140.157	-788.4429	1	5200.275	-8.720566	1.110537E-007	0.078578	7
	17	25	20015.62	5226.262	-793.41	1	5286.143	-8.632281	1.119304E-007	0.0785776	7
	18	26	15890.62	5310.151	-814.2291	1	5372.213	-8.71752	1.110006E-007	0.078575	7
	19	27	12609.37	5391.854	-847.0547	1	5457.984	-8.928138	1.54454E-008	0.078696	7
	20	29	10078.13	5477.883	-892.3654	1	5550.092	-9.252399	-4.901109E-009	0.0788173	7
	21	30	8015.625	5560.994	-955.473	1	5642.48	-9.7492	2.170251E-008	0.078644	7
	22	31	6328.125	5651.331	-1043.335	1	5746.833	-10.46003	4.00175E-008	0.0787761	7
	23	33	5015.625	5745.258	-1153.798	1	5859.969	-11.35544	1.125758E-007	0.0785684	7
	24	34	3984.375	5840.736	-1293.268	1	5982.202	-12.48511	-2.344271E-008	0.0788356	7
	25	35	3170.956	5939.879	-1462.76	1	6117.339	-13.83443	-2.321867E-008	0.0788337	7
	26	37	2527.573	6043.011	-1674.296	1	6270.666	-15.4861	4.088944E-008	0.0787698	7
	27	38	1976.103	6164.862	-1959.829	1	6468.884	-17.63562	-3.443316E-009	0.0788233	7
	28	40	1577.524	6284.239	-2286.191	1	6687.176	-19.99126	-3.478134E-008	0.0788274	7
	29	41	1265.625	6410.631	-2674.888	1	6946.309	-22.64873	-4.425763E-008	0.0788226	7
	30	42	998.264	6562.838	-3195.54	1	7299.474	-25.96211	2.030474E-008	0.0788	7
	31	44	796.875	6721.292	-3806.307	1	7724.23	-29.52313	-2.073833E-008	0.0787056	7
	32	45	627.7902	6927.741	-4611.398	1	8322.174	-33.64942	-5.568097E-008	0.0788259	7
	33	46	505.5147	7150.26	-5501.917	1	9022.045	-37.57723	2.258477E-008	0.0786364	7
	34	48	397.9953	7436.162	-6724.519	1	10025.75	-42.12303	6.257744E-010	0.0788028	6
	35	49	315.5048	7784.233	-8179.414	1	11291.46	-46.41807	1.163972E-009	0.0788068	6
	36	50	252.4038	8197.492	-9885.19	1	12841.96	-50.3321	8.220331E-010	0.0788033	6
	37	52	198.6229	8748.538	-12127.15	1	14953.42	-54.19329	6.573275E-010	0.0788017	6
	38	53	158.3615	9405.227	-14713.7	1	17462.85	-57.41264	1.034427E-009	0.0788005	6
	39	54	125.558	10250.98	-17931.93	1	20655.19	-60.2451	8.06649E-010	0.0788039	6
	40	56	100.4464	11262.86	-21687.93	1	24438.05	-62.55648	1.234689E-009	0.0788081	6
	41	57	79.00281	12691.21	-26569.25	1	29444.72	-64.4678	1.925374E-010	0.0788074	6
	42	59	63.3446	14324.71	-31858.49	1	34930.79	-65.78963	2.618155E-010	0.0788019	6
	43	60	49.86702	16594.04	-39274.02	1	42635.79	-67.095	2.532134E-010	0.0788028	6
	44	61	39.72458	19243.51	-47297.71	1	51062.57	-67.8606	1.023811E-009	0.0788053	6
	45	63	31.6723	22754.98	-57154.82	1	61517.98	-68.29108	5.149975E-011	0.0788015	6
	46	64	24.93351	27579.86	-69340.56	1	74624.14	-68.31007	7.236703E-010	0.0788024	6
	47	65	19.86229	33526.43	-83172.35	1	89675.31	-68.04585	7.809201E-010	0.0788063	6
	48	67	15.83615	41058.99	-99042.3	1	107215.8	-67.48306	2.140842E-010	0.0788008	5
	49	68	12.40079	51788.84	-119632.6	1	130361.2	-66.59227	-1.290183E-010	0.0788073	5
	50	70	9.93114	63862.34	-140580	1	154405.8	-65.56877	-1.383956E-010	0.0788158	5
	51	71	7.944915	78859.62	-164009.2	1	181983.1	-64.32062	8.62063E-010	0.0788079	5
	52	73	6.317385	97443.6	-191110.4	1	214519.1	-62.98383	7.018031E-010	0.0788075	5
	53	75	5.008013	119753.3	-222013.4	1	252251.5	-61.65771	4.194841E-010	0.0788155	5
	54	77	3.945707	146551	-256893.8	1	295756	-60.29641	-1.022838E-010	0.0788002	5
	55	80	3.158693	175358.6	-293207.2	1	341644.7	-59.11759	3.081982E-010	0.0788107	5
	56	83	2.504006	209334.9	-335469	1	395424.5	-58.03556	-3.402489E-011	0.0788153	5
	57	86	1.998082	245584.8	-381170	1	453434	-57.20664	4.383788E-010	0.0787757	5
	58	89	1.584686	288286.7	-436253.7	1	522902	-56.54234	2.700282E-011	0.0787656	5
	59	93	1.266892	334193.4	-494500	1	596837.9	-55.94835	3.864321E-010	0.0787823	5
	60	97	0.999041	389330.9	-567093.5	1	687876.2	-55.52894	-1.453279E-010	0.0788079	5
