EXPLAIN
TAG	EISPOT
TITLE	LABEL	Potentiostatic EIS	Test &Identifier
DATE	LABEL	1/14/2020	Date
TIME	LABEL	18:50:00	Time
NOTES	NOTES	5	&Notes...
	
	
	
	
	
PSTAT	PSTAT	REF600-11020	Potentiostat
VDC	POTEN	0.00000E+000	T	DC &Voltage (V)
FREQINIT	QUANT	1.00000E+006	Initial Fre&q. (Hz)
FREQFINAL	QUANT	1.00000E+000	Final Fre&q. (Hz)
PTSPERDEC	QUANT	1.00000E+001	Points/&decade
VAC	QUANT	2.50000E+001	AC &Voltage (mV rms)
AREA	QUANT	1.00000E-001	&Area (cm^2)
CONDIT	TWOPARAM	T	5.00000E+000	0.00000E+000	Conditionin&g	Time(s)	E(V)
DELAY	TWOPARAM	T	5.00000E+000	0.00000E+000	Init. De&lay	Time(s)	Stab.(mV/s)
SPEED	SELECTOR	0	&Optimize for:
ZGUESS	QUANT	5.00000E+002	E&stimated Z (ohms)
OCVCURVE	TABLE	19
	Pt	T	Vf	Vm	Ach	Over
	#	s	V vs. Ref.	V	V	bits
	0	0.258333	1.13193E-002	1.13193E-002	6.59513E-004	...........
	1	0.516667	1.13218E-002	1.14515E-002	6.59413E-004	...........
	2	0.775	1.13372E-002	1.15712E-002	6.59379E-004	...........
	3	1.03333	1.13812E-002	1.17247E-002	6.64746E-004	...........
	4	1.29167	1.14625E-002	1.18810E-002	6.59679E-004	...........
	5	1.55	1.15778E-002	1.20456E-002	6.62513E-004	...........
	6	1.80833	1.17172E-002	1.22052E-002	6.61746E-004	...........
	7	2.06667	1.18706E-002	1.23701E-002	6.63613E-004	...........
	8	2.325	1.20307E-002	1.25398E-002	6.63679E-004	...........
	9	2.58333	1.21959E-002	1.27994E-002	6.61779E-004	...........
	10	2.84167	1.23704E-002	1.29663E-002	6.58579E-004	...........
	11	3.1	1.25570E-002	1.31067E-002	6.65846E-004	...........
	12	3.35833	1.27466E-002	1.32421E-002	6.62446E-004	...........
	13	3.61667	1.29257E-002	1.34130E-002	6.61213E-004	...........
	14	3.875	1.30922E-002	1.36904E-002	6.63146E-004	...........
	15	4.13333	1.32577E-002	1.37147E-002	6.66813E-004	...........
	16	4.39167	1.34206E-002	1.35880E-002	6.61313E-004	...........
	17	4.65	1.35575E-002	1.39862E-002	6.63246E-004	...........
	18	4.90833	1.36660E-002	1.41402E-002	6.63346E-004	...........
EOC	QUANT	0.013666	Open Circuit (V)
PSTATMODEL	IQUANT	4	Pstat Model
PSTATSECTION	LABEL	REF600-11020	Pstat Section
PSTATSERIALNO	LABEL	11020	Pstat Serial Number
CTRLMODE	IQUANT	1	Control Mode
IESTAB	IQUANT	0	I/E Stability
CASPEED	IQUANT	1	Control Amp Speed
CONVENTION	IQUANT	1	Current Convention
ICHRANGE	IQUANT	2	Ich Range
ICHRANGEMODE	TOGGLE	F	Ich Auto Range
ICHOFFSETENABLE	TOGGLE	T	Ich Offset Enable
ICHOFFSET	QUANT	0	Ich Offset (V)
ICHFILTER	IQUANT	3	Ich Filter
VCHRANGE	IQUANT	2	Vch Range
VCHRANGEMODE	TOGGLE	F	Vch Auto Range
VCHOFFSETENABLE	TOGGLE	T	Vch Offset Enable
VCHOFFSET	QUANT	0	Vch Offset (V)
VCHFILTER	IQUANT	3	Vch Filter
ACHRANGE	IQUANT	2	Ach Range
ACHOFFSETENABLE	TOGGLE	F	Ach Offset Enable
ACHOFFSET	QUANT	0	Ach Offset (V)
ACHFILTER	IQUANT	3	Ach Filter
IERANGELOWERLIMIT	IQUANT	1	I/E Range Lower Limit
IERANGEMODE	TOGGLE	F	I/E AutoRange
IERANGE	IQUANT	7	I/E Range
POSFEEDENABLE	TOGGLE	F	Positive Feedback IR Comp
POSFEEDRESISTANCE	QUANT	0	Positive Feedback Resistance (ohm)
ACHSELECT	IQUANT	0	Ach Select
CABLEID	IQUANT	14	Cable ID
DCCALDATE	LABEL	12/22/2019	DC Calibration Date
ACCALDATE	LABEL	12/22/2019	AC Calibration Date
THERMOSELECT	IQUANT	1	Thermo Select
FRAMEWORKVERSION	QUANT	6.33	Framework Version
INSTRUMENTVERSION	LABEL	3.50	Instrument Version
ZCURVE	TABLE
	Pt	Time	Freq	Zreal	Zimag	Zsig	Zmod	Zphz	Idc	Vdc	IERange
	#	s	Hz	ohm	ohm	V	ohm	°	A	V	#
	0	1	1000078	2430.887	-1958.261	1	3121.538	-38.85405	-2.006961E-006	0.0163692	8
	1	1	794390.6	2816.545	-1971.371	1	3437.911	-34.98915	2.071649E-008	0.0159871	8
	2	1	630984.4	3205.485	-1910.632	1	3731.709	-30.79709	-1.503114E-007	0.0155495	8
	3	2	501234.4	3559.975	-1794.47	1	3986.671	-26.75122	-3.441424E-007	0.0154749	8
	4	2	398109.4	3852.794	-1646.996	1	4190.062	-23.14578	2.355792E-006	0.015067	8
	5	2	316265.6	4110.999	-1485.713	1	4371.23	-19.86983	-8.84772E-007	0.0155101	8
	6	3	251203.1	4320.355	-1313.569	1	4515.632	-16.91147	-9.846183E-007	0.0156597	8
	7	3	199546.9	4493.504	-1167.791	1	4642.771	-14.568	6.529214E-007	0.0152647	8
	8	3	158578.1	4619.784	-1061.465	1	4740.16	-12.93998	4.786979E-007	0.0152871	8
	9	4	125953.1	4750.506	-885.398	1	4832.312	-10.55764	-4.398606E-007	0.016273	7
	10	4	100078.1	4815.867	-781.8513	1	4878.92	-9.221459	-1.535907E-008	0.0153049	7
	11	4	79453.13	4888.596	-710.4697	1	4939.954	-8.269019	-1.557472E-008	0.0153	7
	12	5	63140.62	4950.24	-657.6915	1	4993.74	-7.568025	1.840804E-008	0.015346	7
	13	5	50203.12	5003.357	-623.2237	1	5042.022	-7.100255	2.74624E-008	0.0152222	7
	14	5	39890.62	5052.506	-604.5013	1	5088.541	-6.822657	5.237047E-008	0.0151946	7
	15	6	31640.63	5100.866	-604.7585	1	5136.591	-6.761423	-3.285832E-008	0.0154269	7
	16	6	25171.88	5145.869	-620.5908	1	5183.155	-6.87665	-3.85122E-008	0.0153553	7
	17	6	20015.62	5193.178	-659.244	1	5234.854	-7.234672	1.812207E-008	0.015343	7
	18	6	15890.62	5242.026	-708.666	1	5289.711	-7.699101	-3.846223E-008	0.0153575	7
	19	7	12609.37	5295.457	-784.0325	1	5353.184	-8.421891	7.054926E-009	0.0152697	7
	20	7	10078.13	5349.409	-879.1592	1	5421.171	-9.332958	-3.250047E-008	0.0154259	7
	21	7	8015.625	5413.326	-1001.739	1	5505.232	-10.48402	3.576823E-008	0.0152605	7
	22	8	6328.125	5487.731	-1162.231	1	5609.454	-11.95781	1.361366E-008	0.0152386	7
	23	8	5015.625	5568.518	-1359.101	1	5731.976	-13.71595	-2.818112E-008	0.0153191	7
	24	8	3984.375	5653.763	-1603.571	1	5876.774	-15.83488	-1.239616E-008	0.0153206	7
	25	9	3170.956	5765.022	-1886.245	1	6065.756	-18.11746	-2.890777E-008	0.0153754	7
	26	9	2527.573	5884.427	-2231.488	1	6293.332	-20.76769	-1.339404E-008	0.0152844	7
	27	9	1976.103	6036.38	-2695.22	1	6610.756	-24.06058	-1.107528E-008	0.0153153	7
	28	10	1577.524	6141.388	-3240.559	1	6943.909	-27.81877	-3.81054E-008	0.0153408	7
	29	10	1265.625	6390.975	-3815.148	1	7443.112	-30.83546	-3.17128E-008	0.0154156	7
	30	10	998.264	6632.034	-4604.045	1	8073.481	-34.76889	4.439197E-008	0.0152233	7
	31	11	796.875	6907.207	-5513.212	1	8837.704	-38.59626	-1.335734E-008	0.0152774	7
	32	11	627.7902	7243.999	-6674.698	1	9850.23	-42.6578	3.246202E-009	0.0151655	6
	33	11	505.5147	7602.492	-7951.345	1	11000.99	-46.28486	6.883066E-009	0.0152539	6
	34	12	397.9953	8076.459	-9664.11	1	12594.61	-50.11392	8.597028E-010	0.0153034	6
	35	12	315.5048	8620.77	-11693.39	1	14527.66	-53.60107	9.718573E-010	0.0153063	6
	36	12	252.4038	9239.988	-14062.44	1	16826.45	-56.69233	7.870972E-010	0.0153006	6
	37	13	198.6229	10041.77	-17166.76	1	19888.05	-59.67432	5.685148E-010	0.0153011	6
	38	13	158.3615	10963.94	-20752.46	1	23470.67	-62.15161	2.921443E-010	0.0153006	6
	39	13	125.558	12115.03	-25226.28	1	27984.63	-64.34715	4.632998E-010	0.0152999	6
	40	13	100.4464	13489.78	-30435.43	1	33290.98	-66.09583	5.696337E-010	0.0153013	6
	41	14	79.00281	15268.91	-37246.1	1	40254.34	-67.70899	2.630181E-010	0.0153013	6
	42	14	63.3446	17490.54	-45098.07	1	48371.02	-68.80205	8.378406E-011	0.0152999	6
	43	14	49.86702	20168.08	-55105.15	1	58679.88	-69.89774	-1.420958E-010	0.0152974	6
	44	15	39.72458	23553.92	-66520.12	1	70567.08	-70.5016	4.193032E-010	0.0153026	6
	45	15	31.6723	27612.82	-80378.61	1	84989.34	-71.04064	3.853616E-010	0.0152978	6
	46	16	24.93351	33276.99	-98318.4	1	103797.2	-71.30102	7.328576E-010	0.0152903	6
	47	16	19.86229	40199.58	-118704.5	1	125326.6	-71.2912	3.337842E-010	0.0152984	5
	48	16	15.83615	48190.38	-143631.6	1	151500.4	-71.45269	1.351793E-010	0.015294	5
	49	16	12.40079	60844.78	-175284	1	185544	-70.85703	-5.121352E-010	0.0152994	5
	50	17	9.93114	75788.52	-209104.9	1	222415.8	-70.07733	-8.932551E-010	0.0152969	5
	51	17	7.944915	95067.5	-249753.5	1	267235.2	-69.1609	-3.619122E-010	0.0153004	5
	52	18	6.317385	120255.3	-297145	1	320556.5	-67.9667	-1.952408E-010	0.0152926	5
	53	18	5.008013	153049.4	-352582.7	1	384367.9	-66.53526	-1.9452E-011	0.0153043	5
	54	19	3.945707	195806.9	-416389	1	460130.6	-64.81474	-2.987662E-010	0.0152919	5
	55	21	3.158693	245409.3	-482531.6	1	541352.4	-63.04271	-2.156626E-010	0.0152824	5
	56	22	2.504006	307897.1	-558030.7	1	637337.3	-61.112	-2.176098E-011	0.0152896	5
	57	23	1.998082	379676.5	-634170	1	739138.6	-59.09111	-1.786487E-010	0.0152609	5
	58	25	1.584686	462277.2	-723099.1	1	858238.1	-57.40922	-2.698457E-010	0.0152465	5
	59	27	1.266892	551156.7	-812327.2	1	981656	-55.84346	-1.695697E-010	0.0152707	5
	60	30	0.999041	659997.7	-913712.4	1	1127150	-54.15846	-2.412998E-010	0.0153377	4
