EXPLAIN
TAG	EISPOT
TITLE	LABEL	Potentiostatic EIS	Test &Identifier
DATE	LABEL	2/25/2020	Date
TIME	LABEL	15:10:47	Time
NOTES	NOTES	1	&Notes...
	
PSTAT	PSTAT	REF600-11020	Potentiostat
VDC	POTEN	0.00000E+000	T	DC &Voltage (V)
FREQINIT	QUANT	1.00000E+006	Initial Fre&q. (Hz)
FREQFINAL	QUANT	1.00000E+000	Final Fre&q. (Hz)
PTSPERDEC	QUANT	1.00000E+001	Points/&decade
VAC	QUANT	2.50000E+001	AC &Voltage (mV rms)
AREA	QUANT	1.60000E-004	&Area (cm^2)
CONDIT	TWOPARAM	F	1.50000E+001	0.00000E+000	Conditionin&g	Time(s)	E(V)
DELAY	TWOPARAM	F	1.00000E+002	0.00000E+000	Init. De&lay	Time(s)	Stab.(mV/s)
SPEED	SELECTOR	1	&Optimize for:
ZGUESS	QUANT	1.00000E+003	E&stimated Z (ohms)
OCVCURVE	TABLE	39
	Pt	T	Vf	Vm	Ach	Over
	#	s	V vs. Ref.	V	V	bits
	0	0.258333	7.46026E-002	7.46026E-002	5.69004E-004	...........
	1	0.516667	7.46079E-002	7.48776E-002	5.73038E-004	...........
	2	0.775	7.46347E-002	7.48531E-002	5.61938E-004	...........
	3	1.03333	7.46886E-002	7.46305E-002	5.67704E-004	...........
	4	1.29167	7.47342E-002	7.44533E-002	5.69871E-004	...........
	5	1.55	7.47201E-002	7.43451E-002	5.67271E-004	...........
	6	1.80833	7.46353E-002	7.42830E-002	5.65104E-004	...........
	7	2.06667	7.45147E-002	7.42469E-002	5.65138E-004	...........
	8	2.325	7.44002E-002	7.41991E-002	5.67771E-004	...........
	9	2.58333	7.43128E-002	7.41719E-002	5.66804E-004	...........
	10	2.84167	7.42506E-002	7.40840E-002	5.66704E-004	...........
	11	3.1	7.42015E-002	7.40756E-002	5.71104E-004	...........
	12	3.35833	7.41569E-002	7.40690E-002	5.65504E-004	...........
	13	3.61667	7.41175E-002	7.40480E-002	5.63838E-004	...........
	14	3.875	7.40873E-002	7.40272E-002	5.70871E-004	...........
	15	4.13333	7.40647E-002	7.39870E-002	5.63938E-004	...........
	16	4.39167	7.40439E-002	7.39605E-002	5.69204E-004	...........
	17	4.65	7.40213E-002	7.39935E-002	5.65738E-004	...........
	18	4.90833	7.40000E-002	7.39624E-002	5.63604E-004	...........
	19	5.16667	7.39832E-002	7.38721E-002	5.62971E-004	...........
	20	5.425	7.39625E-002	7.37442E-002	5.60104E-004	...........
	21	5.68333	7.39216E-002	7.36340E-002	5.60871E-004	...........
	22	5.94167	7.38528E-002	7.36113E-002	5.58304E-004	...........
	23	6.2	7.37691E-002	7.36504E-002	5.63738E-004	...........
	24	6.45833	7.36975E-002	7.36776E-002	5.64838E-004	...........
	25	6.71667	7.36573E-002	7.36322E-002	5.61204E-004	...........
	26	6.975	7.36453E-002	7.36439E-002	5.59604E-004	...........
	27	7.23333	7.36449E-002	7.36421E-002	5.63271E-004	...........
	28	7.49167	7.36449E-002	7.36381E-002	5.61404E-004	...........
	29	7.75	7.36433E-002	7.36362E-002	5.62371E-004	...........
	30	8.00833	7.36412E-002	7.36336E-002	5.59138E-004	...........
	31	8.26667	7.36387E-002	7.36285E-002	5.62538E-004	...........
	32	8.525	7.36359E-002	7.36184E-002	5.60838E-004	...........
	33	8.78333	7.36320E-002	7.36134E-002	5.59471E-004	...........
	34	9.04167	7.36267E-002	7.36036E-002	5.61604E-004	...........
	35	9.3	7.36201E-002	7.35965E-002	5.60804E-004	...........
	36	9.5583	7.36128E-002	7.35917E-002	5.65071E-004	...........
	37	9.8167	7.36055E-002	7.35895E-002	5.68571E-004	...........
	38	10.075	7.35987E-002	7.35760E-002	5.68104E-004	...........
EOC	QUANT	0.0735987	Open Circuit (V)
PSTATMODEL	IQUANT	4	Pstat Model
PSTATSECTION	LABEL	REF600-11020	Pstat Section
PSTATSERIALNO	LABEL	11020	Pstat Serial Number
CTRLMODE	IQUANT	1	Control Mode
IESTAB	IQUANT	0	I/E Stability
CASPEED	IQUANT	1	Control Amp Speed
CONVENTION	IQUANT	1	Current Convention
ICHRANGE	IQUANT	2	Ich Range
ICHRANGEMODE	TOGGLE	F	Ich Auto Range
ICHOFFSETENABLE	TOGGLE	T	Ich Offset Enable
ICHOFFSET	QUANT	0	Ich Offset (V)
ICHFILTER	IQUANT	3	Ich Filter
VCHRANGE	IQUANT	2	Vch Range
VCHRANGEMODE	TOGGLE	F	Vch Auto Range
VCHOFFSETENABLE	TOGGLE	T	Vch Offset Enable
VCHOFFSET	QUANT	0	Vch Offset (V)
VCHFILTER	IQUANT	3	Vch Filter
ACHRANGE	IQUANT	2	Ach Range
ACHOFFSETENABLE	TOGGLE	F	Ach Offset Enable
ACHOFFSET	QUANT	0	Ach Offset (V)
ACHFILTER	IQUANT	3	Ach Filter
IERANGELOWERLIMIT	IQUANT	1	I/E Range Lower Limit
IERANGEMODE	TOGGLE	F	I/E AutoRange
IERANGE	IQUANT	8	I/E Range
POSFEEDENABLE	TOGGLE	F	Positive Feedback IR Comp
POSFEEDRESISTANCE	QUANT	0	Positive Feedback Resistance (ohm)
ACHSELECT	IQUANT	0	Ach Select
CABLEID	IQUANT	14	Cable ID
DCCALDATE	LABEL	1/27/2020	DC Calibration Date
ACCALDATE	LABEL	1/27/2020	AC Calibration Date
THERMOSELECT	IQUANT	1	Thermo Select
FRAMEWORKVERSION	QUANT	6.33	Framework Version
INSTRUMENTVERSION	LABEL	3.50	Instrument Version
ZCURVE	TABLE
	Pt	Time	Freq	Zreal	Zimag	Zsig	Zmod	Zphz	Idc	Vdc	IERange
	#	s	Hz	ohm	ohm	V	ohm	°	A	V	#
	0	1	1000078	1514.627	-2156.3	1	2635.095	-54.91505	1.95265E-006	0.0752984	8
	1	3	794390.6	1904	-2391.577	1	3056.936	-51.47575	-1.242036E-006	0.0754653	8
	2	4	630984.4	2340.756	-2604.507	1	3501.799	-48.05292	-3.079751E-007	0.0753268	8
	3	5	501234.4	2815.854	-2765.602	1	3946.846	-44.48415	1.446571E-006	0.0748625	8
	4	7	398109.4	3351.821	-2874.86	1	4415.826	-40.61972	-5.465022E-007	0.0751632	8
	5	8	316265.6	3896.462	-2936.733	1	4879.223	-37.00505	-1.047948E-007	0.0750905	8
	6	9	251203.1	4427.375	-2926.203	1	5307.006	-33.46207	-9.896993E-008	0.0750955	8
	7	11	199546.9	4961.592	-2881.291	1	5737.528	-30.14455	1.082089E-006	0.0748812	8
	8	12	158578.1	5469.36	-2771.379	1	6131.431	-26.87179	1.23186E-006	0.0747966	8
	9	13	125953.1	5962.463	-2576.761	1	6495.434	-23.37225	-3.251446E-007	0.0757241	7
	10	15	100078.1	6378.393	-2385.36	1	6809.833	-20.50454	-1.751809E-008	0.075023	7
	11	16	79453.13	6737	-2193.53	1	7085.107	-18.03496	-2.424575E-008	0.0750503	7
	12	18	63140.62	7045.036	-1992.6	1	7321.406	-15.79289	2.521617E-008	0.0749673	7
	13	19	50203.12	7295.287	-1801.936	1	7514.531	-13.87436	2.278254E-008	0.0749322	7
	14	20	39890.62	7507.409	-1628.975	1	7682.105	-12.2424	-1.706382E-008	0.075012	7
	15	22	31640.63	7681.849	-1483.26	1	7823.737	-10.92854	-1.51812E-008	0.0750128	7
	16	23	25171.88	7827.578	-1365.192	1	7945.736	-9.89333	-1.47535E-008	0.0750093	7
	17	25	20015.62	7952.896	-1276.578	1	8054.701	-9.119178	-2.344265E-008	0.0750352	7
	18	26	15890.62	8065.468	-1218.313	1	8156.964	-8.589762	2.656354E-008	0.0749623	7
	19	27	12609.37	8163.973	-1196.076	1	8251.125	-8.334916	1.249459E-008	0.0750346	7
	20	29	10078.13	8248.68	-1204.789	1	8336.2	-8.309772	1.24738E-008	0.0750372	7
	21	30	8015.625	8327.893	-1249.625	1	8421.126	-8.533732	-8.943643E-009	0.0749831	7
	22	31	6328.125	8408.75	-1335.061	1	8514.074	-9.021577	-8.538429E-009	0.0749846	7
	23	33	5015.625	8495.747	-1472.221	1	8622.363	-9.83111	6.833173E-008	0.0749068	7
	24	34	3984.375	8575.75	-1655.261	1	8734.035	-10.92468	-1.512011E-008	0.0750105	7
	25	35	3170.956	8674.66	-1885.891	1	8877.292	-12.26537	-4.448464E-009	0.0750116	6
	26	37	2527.573	8772.077	-2198.947	1	9043.489	-14.07268	-1.454177E-009	0.0749751	6
	27	38	1976.103	8887.912	-2628.288	1	9268.381	-16.47373	-1.401205E-009	0.0749473	6
	28	40	1577.524	9016.405	-3128.492	1	9543.74	-19.13564	-4.407202E-009	0.0750298	6
	29	41	1265.625	9160.71	-3727.715	1	9890.12	-22.1426	-3.854791E-009	0.0750358	6
	30	42	998.264	9344.575	-4527.021	1	10383.4	-25.84808	1.959231E-009	0.0750088	6
	31	44	796.875	9556.41	-5461.321	1	11006.86	-29.7472	7.103802E-009	0.0748932	6
	32	45	627.7902	9836.18	-6681.48	1	11890.86	-34.18732	-4.328014E-009	0.0750332	6
	33	46	505.5147	10140.93	-8033.165	1	12937.16	-38.3846	2.216194E-009	0.075	6
	34	48	397.9953	10558.83	-9855.08	1	14443.39	-43.02556	1.422677E-009	0.0750024	6
	35	49	315.5048	11061.83	-12028.7	1	16341.78	-47.39773	8.761982E-010	0.0750005	6
	36	50	252.4038	11667.7	-14574.1	1	18669.22	-51.32003	6.491502E-010	0.0750018	6
	37	52	198.6229	12481.26	-17912.89	1	21832.4	-55.13216	1.313877E-009	0.0750011	6
	38	53	158.3615	13458.84	-21768.7	1	25593.29	-58.27292	6.752665E-010	0.0750001	6
	39	55	125.558	14719.3	-26587.51	1	30390.03	-61.03034	1.075761E-009	0.0749972	6
	40	56	100.4464	16306.32	-32168.09	1	36064.97	-63.1191	1.120188E-009	0.074998	6
	41	57	79.00281	18508.5	-39621.51	1	43731.32	-64.96119	7.067057E-010	0.074996	6
	42	59	63.3446	21005.37	-48122.27	1	52506.94	-66.41873	9.941897E-010	0.0749918	6
	43	60	49.86702	24719.21	-58100.33	1	63140.22	-66.95232	1.085135E-009	0.0749926	6
	44	62	39.72458	29564.79	-70402.65	1	76358.43	-67.22059	1.101996E-009	0.0749987	6
	45	63	31.6723	35931.8	-84651.3	1	91961.6	-67.00031	7.993491E-010	0.0749932	6
	46	65	24.93351	44560.71	-102128.9	1	111427	-66.42748	6.186185E-010	0.0749901	5
	47	66	19.86229	55212.79	-121312.6	1	133286.2	-65.52838	-3.015245E-010	0.0749976	5
	48	67	15.83615	69099.65	-142492.3	1	158362.9	-64.12958	1.505629E-010	0.0749935	5
	49	69	12.40079	88444.93	-168607.4	1	190396.8	-62.32023	-6.958863E-010	0.0749997	5
	50	70	9.93114	108252	-194077.7	1	222226.6	-60.84824	2.96976E-010	0.0749963	5
	51	72	7.944915	132659.4	-221685.4	1	258346.6	-59.10315	-4.758944E-011	0.0750035	5
	52	73	6.317385	161691.4	-251114	1	298667.6	-57.22265	-2.078331E-010	0.0749965	5
	53	75	5.008013	194418.3	-283298.3	1	343593.3	-55.53947	-1.496157E-010	0.0749862	5
	54	78	3.945707	231310.9	-318764.8	1	393847.4	-54.03358	2.431899E-010	0.0750005	5
	55	81	3.158693	268266.1	-355472.6	1	445339.7	-52.95908	-2.028137E-011	0.0749849	5
	56	84	2.504006	309592.7	-398178.3	1	504374.5	-52.13412	2.980571E-010	0.0749995	5
	57	87	1.998082	352605.8	-445723	1	568330.8	-51.65293	4.309967E-010	0.0749829	5
	58	90	1.584686	402602.5	-502195.2	1	643652.7	-51.28136	2.359435E-011	0.0749448	5
	59	93	1.266892	451823.2	-564217.4	1	722831.6	-51.31239	2.852504E-010	0.0749644	5
	60	98	0.999041	510426.4	-643512.6	1	821366.9	-51.57897	-9.630716E-011	0.075006	5
