EXPLAIN
TAG	EISPOT
TITLE	LABEL	Potentiostatic EIS	Test &Identifier
DATE	LABEL	6/19/2020	Date
TIME	LABEL	17:15:37	Time
NOTES	NOTES	1	&Notes...
	
PSTAT	PSTAT	REF600-10037	Potentiostat
VDC	POTEN	0.00000E+000	T	DC &Voltage (V)
FREQINIT	QUANT	1.00000E+006	Initial Fre&q. (Hz)
FREQFINAL	QUANT	1.00000E+000	Final Fre&q. (Hz)
PTSPERDEC	QUANT	1.00000E+001	Points/&decade
VAC	QUANT	1.00000E+002	AC &Voltage (mV rms)
AREA	QUANT	2.50000E-001	&Area (cm^2)
CONDIT	TWOPARAM	F	5.00000E+000	0.00000E+000	Conditionin&g	Time(s)	E(V)
DELAY	TWOPARAM	F	5.00000E+000	0.00000E+000	Init. De&lay	Time(s)	Stab.(mV/s)
SPEED	SELECTOR	0	&Optimize for:
ZGUESS	QUANT	1.00000E+003	E&stimated Z (ohms)
OCVCURVE	TABLE	39
	Pt	T	Vf	Vm	Ach	Over
	#	s	V vs. Ref.	V	V	bits
	0	0.258333	1.05185E-001	1.05185E-001	5.13221E-004	...........
	1	0.516667	1.05186E-001	1.05214E-001	5.06221E-004	...........
	2	0.775	1.05190E-001	1.05258E-001	5.05121E-004	...........
	3	1.03333	1.05201E-001	1.05288E-001	5.15454E-004	...........
	4	1.29167	1.05222E-001	1.05329E-001	5.14654E-004	...........
	5	1.55	1.05252E-001	1.05361E-001	5.11288E-004	...........
	6	1.80833	1.05287E-001	1.05398E-001	5.03154E-004	...........
	7	2.06667	1.05323E-001	1.05424E-001	5.08288E-004	...........
	8	2.325	1.05358E-001	1.05457E-001	5.14388E-004	...........
	9	2.58333	1.05391E-001	1.05490E-001	5.09988E-004	...........
	10	2.84167	1.05423E-001	1.05522E-001	5.08454E-004	...........
	11	3.1	1.05455E-001	1.05553E-001	5.07688E-004	...........
	12	3.35833	1.05487E-001	1.05584E-001	5.09688E-004	...........
	13	3.61667	1.05519E-001	1.05611E-001	5.13088E-004	...........
	14	3.875	1.05550E-001	1.05643E-001	5.09288E-004	...........
	15	4.13333	1.05580E-001	1.05668E-001	5.08754E-004	...........
	16	4.39167	1.05610E-001	1.05693E-001	5.11721E-004	...........
	17	4.65	1.05638E-001	1.05725E-001	5.10154E-004	...........
	18	4.90833	1.05666E-001	1.05751E-001	5.08288E-004	...........
	19	5.16667	1.05693E-001	1.05778E-001	5.08321E-004	...........
	20	5.425	1.05721E-001	1.05806E-001	5.10054E-004	...........
	21	5.68333	1.05749E-001	1.05830E-001	5.09754E-004	...........
	22	5.94167	1.05776E-001	1.05854E-001	5.13188E-004	...........
	23	6.2	1.05802E-001	1.05881E-001	5.10421E-004	...........
	24	6.45833	1.05828E-001	1.05902E-001	5.05988E-004	...........
	25	6.71667	1.05853E-001	1.05927E-001	5.09954E-004	...........
	26	6.975	1.05877E-001	1.05954E-001	5.07254E-004	...........
	27	7.23333	1.05902E-001	1.05978E-001	5.10421E-004	...........
	28	7.49167	1.05926E-001	1.05999E-001	5.12788E-004	...........
	29	7.75	1.05951E-001	1.06028E-001	5.13821E-004	...........
	30	8.00833	1.05975E-001	1.06046E-001	5.06921E-004	...........
	31	8.26667	1.05999E-001	1.06071E-001	5.11654E-004	...........
	32	8.525	1.06023E-001	1.06090E-001	5.10354E-004	...........
	33	8.78333	1.06046E-001	1.06116E-001	5.18554E-004	...........
	34	9.04167	1.06068E-001	1.06142E-001	5.14388E-004	...........
	35	9.3	1.06091E-001	1.06163E-001	5.08154E-004	...........
	36	9.5583	1.06114E-001	1.06180E-001	5.14554E-004	...........
	37	9.8167	1.06138E-001	1.06217E-001	5.10554E-004	...........
	38	10.075	1.06161E-001	1.06226E-001	5.14688E-004	...........
EOC	QUANT	0.1061608	Open Circuit (V)
PSTATMODEL	IQUANT	4	Pstat Model
PSTATSECTION	LABEL	REF600-10037	Pstat Section
PSTATSERIALNO	LABEL	10037	Pstat Serial Number
CTRLMODE	IQUANT	1	Control Mode
IESTAB	IQUANT	0	I/E Stability
CASPEED	IQUANT	1	Control Amp Speed
CONVENTION	IQUANT	1	Current Convention
ICHRANGE	IQUANT	2	Ich Range
ICHRANGEMODE	TOGGLE	F	Ich Auto Range
ICHOFFSETENABLE	TOGGLE	T	Ich Offset Enable
ICHOFFSET	QUANT	0	Ich Offset (V)
ICHFILTER	IQUANT	3	Ich Filter
VCHRANGE	IQUANT	2	Vch Range
VCHRANGEMODE	TOGGLE	F	Vch Auto Range
VCHOFFSETENABLE	TOGGLE	T	Vch Offset Enable
VCHOFFSET	QUANT	0	Vch Offset (V)
VCHFILTER	IQUANT	3	Vch Filter
ACHRANGE	IQUANT	2	Ach Range
ACHOFFSETENABLE	TOGGLE	F	Ach Offset Enable
ACHOFFSET	QUANT	0	Ach Offset (V)
ACHFILTER	IQUANT	3	Ach Filter
IERANGELOWERLIMIT	IQUANT	1	I/E Range Lower Limit
IERANGEMODE	TOGGLE	F	I/E AutoRange
IERANGE	IQUANT	8	I/E Range
POSFEEDENABLE	TOGGLE	F	Positive Feedback IR Comp
POSFEEDRESISTANCE	QUANT	0	Positive Feedback Resistance (ohm)
ACHSELECT	IQUANT	0	Ach Select
CABLEID	IQUANT	14	Cable ID
DCCALDATE	LABEL	6/8/2020	DC Calibration Date
ACCALDATE	LABEL	6/8/2020	AC Calibration Date
THERMOSELECT	IQUANT	1	Thermo Select
FRAMEWORKVERSION	QUANT	6.33	Framework Version
INSTRUMENTVERSION	LABEL	3.50	Instrument Version
ZCURVE	TABLE
	Pt	Time	Freq	Zreal	Zimag	Zsig	Zmod	Zphz	Idc	Vdc	IERange
	#	s	Hz	ohm	ohm	V	ohm	°	A	V	#
	0	2	1000078	1650.319	-1536.395	1	2254.787	-42.95258	5.365631E-008	0.1151781	8
	1	2	794390.6	1894.994	-1660.653	1	2519.677	-41.22928	1.488097E-007	0.1149168	8
	2	2	630984.4	2148.41	-1797.324	1	2801.078	-39.91528	1.236513E-006	0.1147418	9
	3	3	501234.4	2443.871	-1895.024	1	3092.51	-37.79069	6.139386E-008	0.1146633	8
	4	3	398109.4	2743.254	-1997.266	1	3393.304	-36.05704	6.389381E-008	0.1146029	8
	5	4	316265.6	3051.154	-2091.855	1	3699.379	-34.43433	6.117293E-008	0.1146033	8
	6	4	251203.1	3369.865	-2180.444	1	4013.767	-32.90456	8.343502E-008	0.1146199	8
	7	4	199546.9	3689.782	-2265.468	1	4329.762	-31.54926	7.710803E-008	0.1146403	8
	8	4	158578.1	4011.793	-2353.726	1	4651.291	-30.40022	6.258905E-008	0.1146857	8
	9	5	125953.1	4409.944	-2378.581	1	5010.514	-28.34099	2.954595E-008	0.1146973	7
	10	5	100078.1	4753.313	-2495.509	1	5368.571	-27.69966	-2.390975E-009	0.1146648	7
	11	5	79453.13	5082.781	-2644.424	1	5729.541	-27.48665	1.130152E-008	0.1146413	7
	12	6	63140.62	5435.896	-2811.453	1	6119.905	-27.34807	1.479104E-008	0.1146303	7
	13	6	50203.12	5822.688	-3009.142	1	6554.284	-27.32974	-3.273907E-009	0.1146107	7
	14	6	39890.62	6244.814	-3223.871	1	7027.876	-27.30494	-1.773808E-009	0.1146047	7
	15	7	31640.63	6715.296	-3461.294	1	7554.85	-27.26813	6.349216E-009	0.1146023	7
	16	7	25171.88	7221.263	-3705.298	1	8116.395	-27.16278	1.860555E-008	0.1145906	7
	17	7	20015.62	7769.55	-3920.323	1	8702.577	-26.77438	1.402994E-008	0.1146102	7
	18	8	15890.62	8364.163	-4152.833	1	9338.375	-26.40454	1.840401E-008	0.1146045	7
	19	8	12609.37	8990.23	-4372.78	1	9997.27	-25.93794	-5.241406E-009	0.1145948	7
	20	8	10078.13	9612.63	-4580.955	1	10648.37	-25.48041	-7.294777E-009	0.1146003	7
	21	9	8015.625	10248.02	-4781.299	1	11308.52	-25.0118	-2.015987E-009	0.1146027	7
	22	9	6328.125	10905.2	-5007.49	1	11999.93	-24.66381	3.311887E-010	0.114601	7
	23	9	5015.625	11550.41	-5271.923	1	12696.66	-24.53325	1.89306E-008	0.1146031	7
	24	10	3984.375	12182.8	-5576.015	1	13398.23	-24.59337	1.844145E-008	0.1146028	7
	25	10	3170.956	12820.84	-5965.775	1	14140.87	-24.95344	1.164679E-008	0.1146019	7
	26	10	2527.573	13462.84	-6399.335	1	14906.36	-25.4233	1.22859E-008	0.1145865	7
	27	10	1976.103	14154.67	-7042.61	1	15809.9	-26.4525	-3.630304E-009	0.1145872	7
	28	11	1577.524	14818.54	-7745.072	1	16720.51	-27.59431	-8.68107E-009	0.1145909	7
	29	11	1265.625	15478.49	-8570.111	1	17692.67	-28.97237	8.702348E-010	0.1145936	7
	30	11	998.264	16294.16	-9761.87	1	18994.57	-30.92594	1.150483E-008	0.1145957	7
	31	12	796.875	17115.36	-11066.88	1	20381.64	-32.8869	-5.505706E-009	0.1145878	7
	32	12	627.7902	18120.41	-12815.23	1	22194.13	-35.26896	-6.872797E-009	0.1145872	7
	33	12	505.5147	19204.97	-14809.1	1	24251.6	-37.6361	6.038005E-009	0.1145922	7
	34	13	397.9953	20623.25	-17283.52	1	26907.96	-39.96503	7.248318E-009	0.1146132	7
	35	13	315.5048	22336.31	-20170.02	1	30095.52	-42.08252	6.706874E-009	0.1145996	7
	36	13	252.4038	24329.59	-23428.4	1	33776.01	-43.91896	6.579199E-009	0.1146114	7
	37	14	198.6229	26925.8	-27412.96	1	38424.86	-45.51366	6.814791E-009	0.1146126	7
	38	14	158.3615	29857.62	-31675.25	1	43529.29	-46.69199	5.650753E-010	0.114606	6
	39	14	125.558	33345.13	-36616.91	1	49524.7	-47.67749	6.779758E-010	0.1146054	6
	40	15	100.4464	37239.99	-41983.07	1	56119.47	-48.42621	-2.540487E-010	0.1146104	6
	41	15	79.00281	42018.15	-48520.73	1	64185.56	-49.10798	-4.713364E-010	0.1146037	6
	42	15	63.3446	47012.71	-55361.15	1	72629.55	-49.66207	-6.080192E-010	0.1146065	6
	43	16	49.86702	53121.86	-63830.33	1	83043.62	-50.23158	9.216086E-011	0.1146056	6
	44	16	39.72458	59592.46	-72987.41	1	94225.38	-50.76919	8.651103E-010	0.1145974	6
	45	16	31.6723	67032.12	-83886.6	1	107379.1	-51.37234	5.467639E-010	0.1146091	6
	46	17	24.93351	75902.76	-97209.7	1	123332.7	-52.01677	2.01579E-009	0.1146114	6
	47	17	19.86229	85877.46	-112472.5	1	141509.7	-52.63676	-9.971209E-009	0.106036	6
	48	17	15.83615	97551	-129864.2	1	162422	-53.08695	-7.177883E-009	0.1060295	6
	49	18	12.40079	112089.3	-151686.5	1	188607.5	-53.5373	-5.680824E-009	0.1060341	6
	50	18	9.93114	128115.8	-174579.7	1	216545	-53.72681	-4.771735E-009	0.1060352	6
	51	18	7.944915	147351.4	-200557	1	248868.5	-53.69487	-3.743398E-009	0.1060338	6
	52	19	6.317385	170728.2	-230216.3	1	286614.1	-53.43939	-2.35102E-009	0.1060435	6
	53	20	5.008013	198426	-263455.5	1	329820.7	-53.01414	-1.673472E-009	0.1060397	6
	54	21	3.945707	230970.3	-300763.5	1	379217.6	-52.47766	-1.11578E-009	0.1060385	6
	55	22	3.158693	264217.4	-338446.6	1	429368	-52.02167	-1.199558E-009	0.106047	5
	56	23	2.504006	303171.2	-382226.1	1	487862.2	-51.57952	-9.188879E-010	0.1060399	5
	57	25	1.998082	341654.5	-430065.6	1	549257.9	-51.53553	-6.963773E-010	0.1060399	5
	58	27	1.584686	383261	-487403.9	1	620041.6	-51.82092	-3.924948E-010	0.1060411	5
	59	30	1.266892	425079.9	-553099.6	1	697575.9	-52.45623	-2.433242E-010	0.1060425	5
	60	33	0.999041	471897.1	-637997.4	1	793553.8	-53.51138	-2.488038E-010	0.1060432	5
