EXPLAIN
TAG	EISPOT
TITLE	LABEL	Potentiostatic EIS	Test &Identifier
DATE	LABEL	2/21/2020	Date
TIME	LABEL	18:20:50	Time
NOTES	NOTES	1	&Notes...
	
PSTAT	PSTAT	REF600-11020	Potentiostat
VDC	POTEN	0.00000E+000	T	DC &Voltage (V)
FREQINIT	QUANT	1.00000E+006	Initial Fre&q. (Hz)
FREQFINAL	QUANT	1.00000E+000	Final Fre&q. (Hz)
PTSPERDEC	QUANT	1.00000E+001	Points/&decade
VAC	QUANT	2.50000E+001	AC &Voltage (mV rms)
AREA	QUANT	2.08200E-005	&Area (cm^2)
CONDIT	TWOPARAM	F	1.50000E+001	0.00000E+000	Conditionin&g	Time(s)	E(V)
DELAY	TWOPARAM	F	1.00000E+002	0.00000E+000	Init. De&lay	Time(s)	Stab.(mV/s)
SPEED	SELECTOR	0	&Optimize for:
ZGUESS	QUANT	2.00000E+003	E&stimated Z (ohms)
OCVCURVE	TABLE	39
	Pt	T	Vf	Vm	Ach	Over
	#	s	V vs. Ref.	V	V	bits
	0	0.258333	2.14898E-002	2.14898E-002	5.76704E-004	...........
	1	0.516667	2.14895E-002	2.14767E-002	5.76537E-004	...........
	2	0.775	2.14878E-002	2.14542E-002	5.71971E-004	...........
	3	1.03333	2.14827E-002	2.14539E-002	5.68571E-004	...........
	4	1.29167	2.14736E-002	2.14275E-002	5.69204E-004	...........
	5	1.55	2.14617E-002	2.14287E-002	5.77237E-004	...........
	6	1.80833	2.14488E-002	2.13999E-002	5.76871E-004	...........
	7	2.06667	2.14355E-002	2.14004E-002	5.75904E-004	...........
	8	2.325	2.14222E-002	2.13837E-002	5.71738E-004	...........
	9	2.58333	2.14099E-002	2.14007E-002	5.75971E-004	...........
	10	2.84167	2.14026E-002	2.14962E-002	5.75438E-004	...........
	11	3.1	2.14075E-002	2.14803E-002	5.75404E-004	...........
	12	3.35833	2.14250E-002	2.13781E-002	5.69338E-004	...........
	13	3.61667	2.14398E-002	2.13891E-002	5.76138E-004	...........
	14	3.875	2.14364E-002	2.13632E-002	5.71204E-004	...........
	15	4.13333	2.14171E-002	2.13839E-002	5.71704E-004	...........
	16	4.39167	2.13955E-002	2.13496E-002	5.65338E-004	...........
	17	4.65	2.13797E-002	2.13722E-002	5.73538E-004	...........
	18	4.90833	2.13699E-002	2.13312E-002	5.69838E-004	...........
	19	5.16667	2.13627E-002	2.13574E-002	5.74871E-004	...........
	20	5.425	2.13560E-002	2.13190E-002	5.76904E-004	...........
	21	5.68333	2.13490E-002	2.13428E-002	5.73604E-004	...........
	22	5.94167	2.13420E-002	2.13082E-002	5.74571E-004	...........
	23	6.2	2.13352E-002	2.13253E-002	5.80337E-004	...........
	24	6.45833	2.13287E-002	2.13094E-002	5.74604E-004	...........
	25	6.71667	2.13231E-002	2.13259E-002	5.75538E-004	...........
	26	6.975	2.13194E-002	2.13064E-002	5.78704E-004	...........
	27	7.23333	2.13174E-002	2.13175E-002	5.76904E-004	...........
	28	7.49167	2.13160E-002	2.13128E-002	5.74537E-004	...........
	29	7.75	2.13151E-002	2.13282E-002	5.75304E-004	...........
	30	8.00833	2.13161E-002	2.13380E-002	5.74671E-004	...........
	31	8.26667	2.13197E-002	2.13269E-002	5.76771E-004	...........
	32	8.525	2.13243E-002	2.13089E-002	5.75971E-004	...........
	33	8.78333	2.13255E-002	2.12847E-002	5.72571E-004	...........
	34	9.04167	2.13203E-002	2.12988E-002	5.70671E-004	...........
	35	9.3	2.13101E-002	2.12627E-002	5.70104E-004	...........
	36	9.5583	2.12981E-002	2.12663E-002	5.69371E-004	...........
	37	9.8167	2.12865E-002	2.12767E-002	5.71471E-004	...........
	38	10.075	2.12782E-002	2.13113E-002	5.73638E-004	...........
EOC	QUANT	0.0212782	Open Circuit (V)
PSTATMODEL	IQUANT	4	Pstat Model
PSTATSECTION	LABEL	REF600-11020	Pstat Section
PSTATSERIALNO	LABEL	11020	Pstat Serial Number
CTRLMODE	IQUANT	1	Control Mode
IESTAB	IQUANT	0	I/E Stability
CASPEED	IQUANT	1	Control Amp Speed
CONVENTION	IQUANT	1	Current Convention
ICHRANGE	IQUANT	2	Ich Range
ICHRANGEMODE	TOGGLE	F	Ich Auto Range
ICHOFFSETENABLE	TOGGLE	T	Ich Offset Enable
ICHOFFSET	QUANT	0	Ich Offset (V)
ICHFILTER	IQUANT	3	Ich Filter
VCHRANGE	IQUANT	2	Vch Range
VCHRANGEMODE	TOGGLE	F	Vch Auto Range
VCHOFFSETENABLE	TOGGLE	T	Vch Offset Enable
VCHOFFSET	QUANT	0	Vch Offset (V)
VCHFILTER	IQUANT	3	Vch Filter
ACHRANGE	IQUANT	2	Ach Range
ACHOFFSETENABLE	TOGGLE	F	Ach Offset Enable
ACHOFFSET	QUANT	0	Ach Offset (V)
ACHFILTER	IQUANT	3	Ach Filter
IERANGELOWERLIMIT	IQUANT	1	I/E Range Lower Limit
IERANGEMODE	TOGGLE	F	I/E AutoRange
IERANGE	IQUANT	7	I/E Range
POSFEEDENABLE	TOGGLE	F	Positive Feedback IR Comp
POSFEEDRESISTANCE	QUANT	0	Positive Feedback Resistance (ohm)
ACHSELECT	IQUANT	0	Ach Select
CABLEID	IQUANT	14	Cable ID
DCCALDATE	LABEL	1/27/2020	DC Calibration Date
ACCALDATE	LABEL	1/27/2020	AC Calibration Date
THERMOSELECT	IQUANT	1	Thermo Select
FRAMEWORKVERSION	QUANT	6.33	Framework Version
INSTRUMENTVERSION	LABEL	3.50	Instrument Version
ZCURVE	TABLE
	Pt	Time	Freq	Zreal	Zimag	Zsig	Zmod	Zphz	Idc	Vdc	IERange
	#	s	Hz	ohm	ohm	V	ohm	°	A	V	#
	0	1	1000078	1633.632	-2027.274	1	2603.573	-51.13718	-1.171765E-006	0.0240582	8
	1	1	794390.6	1954.307	-2223.59	1	2960.349	-48.68784	-6.438653E-008	0.0232566	8
	2	2	630984.4	2286.585	-2377.391	1	3298.554	-46.11538	-8.928981E-007	0.0231932	8
	3	2	501234.4	2625.725	-2539.965	1	3653.198	-44.04886	5.069513E-007	0.0228868	8
	4	2	398109.4	2950.765	-2719.136	1	4012.57	-42.66064	2.683709E-008	0.0228762	8
	5	3	316265.6	3269.59	-2916.119	1	4381.092	-41.7295	-9.919798E-007	0.0230812	8
	6	3	251203.1	3583.37	-3165.216	1	4781.122	-41.45439	9.045553E-007	0.0227094	8
	7	3	199546.9	3910.432	-3486.33	1	5238.891	-41.71847	1.629966E-007	0.0228831	8
	8	4	158578.1	4263.817	-3904.691	1	5781.587	-42.48263	3.812937E-007	0.0228269	8
	9	4	125953.1	4670.627	-4382.572	1	6404.818	-43.17758	-1.880029E-008	0.0228738	7
	10	4	100078.1	5137.923	-5021.823	1	7184.494	-44.34528	-1.557439E-008	0.0228572	7
	11	4	79453.13	5727.801	-5804.592	1	8154.814	-45.38151	3.705434E-008	0.0227915	7
	12	5	63140.62	6459.61	-6697	1	9304.643	-46.0337	8.012253E-009	0.0228475	7
	13	5	50203.12	7425.765	-7710.129	1	10704.58	-46.07631	3.749924E-008	0.0227838	7
	14	5	39890.62	8691.646	-8787.351	1	12359.7	-45.31371	1.676501E-008	0.0227925	7
	15	6	31640.63	10306.3	-9841.34	1	14250.32	-43.67798	1.583083E-008	0.0227887	7
	16	6	25171.88	12239.71	-10724.22	1	16273.27	-41.22429	-1.728293E-009	0.0228064	7
	17	6	20015.62	14463.12	-11290.93	1	18348.49	-37.9781	-2.217794E-008	0.0228392	7
	18	7	15890.62	16890.07	-11449.1	1	20404.81	-34.13177	2.423216E-009	0.0227757	7
	19	7	12609.37	19326.97	-11155.93	1	22315.62	-29.99444	2.259624E-010	0.0228429	6
	20	7	10078.13	21436.11	-10493.9	1	23866.89	-26.08374	-2.185122E-009	0.0228433	6
	21	8	8015.625	23254.17	-9583.58	1	25151.57	-22.39768	5.842299E-009	0.0227653	6
	22	8	6328.125	24739.35	-8530.924	1	26168.91	-19.02584	7.999444E-010	0.0228293	6
	23	8	5015.625	25866.57	-7560.245	1	26948.78	-16.29251	7.758779E-010	0.0228278	6
	24	8	3984.375	26695.62	-6680.047	1	27518.7	-14.04865	-2.580039E-010	0.0228276	6
	25	9	3170.956	27293.95	-5962.788	1	27937.69	-12.32353	1.773034E-009	0.0228256	6
	26	9	2527.573	27767.53	-5451.05	1	28297.52	-11.10651	-4.724054E-010	0.0227854	6
	27	9	1976.103	28184.04	-5031.417	1	28629.62	-10.12182	5.781949E-010	0.0228232	6
	28	10	1577.524	28444.94	-4881.916	1	28860.83	-9.73862	-2.836459E-009	0.0228436	6
	29	10	1265.625	28726.11	-4864.02	1	29135	-9.6104	-4.10928E-009	0.0227922	6
	30	10	998.264	28920.58	-5094.539	1	29365.87	-9.99051	1.649528E-009	0.0227472	6
	31	11	796.875	29201.15	-5500.949	1	29714.77	-10.66842	-4.278695E-010	0.0228268	6
	32	11	627.7902	29453.5	-6110.474	1	30080.67	-11.72042	9.013212E-011	0.0227845	6
	33	11	505.5147	29677.11	-6950.101	1	30480.07	-13.1806	1.994626E-009	0.022761	6
	34	12	397.9953	30024.46	-8132.477	1	31106.36	-15.15558	5.989614E-010	0.022808	6
	35	12	315.5048	30398.34	-9626.04	1	31886.04	-17.57109	4.644302E-010	0.0228065	6
	36	12	252.4038	30790.65	-11433.45	1	32844.91	-20.3714	4.088802E-010	0.0227992	6
	37	12	198.6229	31320.4	-13853.02	1	34247.25	-23.85981	7.962379E-010	0.0228007	6
	38	13	158.3615	31918.59	-16749.3	1	36046.3	-27.68827	9.119018E-010	0.0227988	6
	39	13	125.558	32691.51	-20387.37	1	38527.64	-31.94886	8.444807E-010	0.0228029	6
	40	13	100.4464	33579.28	-24686.7	1	41677.34	-36.32245	1.129788E-009	0.0228022	6
	41	14	79.00281	35001.76	-30446.05	1	46390.57	-41.01817	1.157282E-009	0.0227978	6
	42	14	63.3446	36120.62	-36970.65	1	51686.83	-45.66631	5.281906E-010	0.0227966	6
	43	14	49.86702	38444.96	-45093.96	1	59257.74	-49.55067	1.017162E-009	0.0227942	6
	44	15	39.72458	41493.22	-54943.29	1	68850.94	-52.93987	6.559425E-010	0.0227989	6
	45	15	31.6723	45067.06	-66595.84	1	80411.72	-55.91281	4.092992E-010	0.022797	6
	46	15	24.93351	50177.84	-81459.79	1	95674	-58.36764	8.392248E-010	0.0227977	6
	47	16	19.86229	56618.08	-98441.6	1	113562.2	-60.09492	-7.945113E-010	0.0227936	5
	48	16	15.83615	65009.75	-118601.8	1	135250.3	-61.27133	-4.706235E-011	0.0227931	5
	49	16	12.40079	75316.1	-143368.2	1	161947.4	-62.28556	-1.146347E-009	0.0227949	5
	50	17	9.93114	90035.09	-170651	1	192945.8	-62.18397	-4.893225E-010	0.0227944	5
	51	17	7.944915	107130.2	-201376.1	1	228099.1	-61.98744	-4.632159E-010	0.0227928	5
	52	18	6.317385	129875.6	-237462.1	1	270658.3	-61.32434	-4.969519E-010	0.0228091	5
	53	19	5.008013	158365.6	-278246.6	1	320157.5	-60.35338	-2.489265E-010	0.0227968	5
	54	20	3.945707	194354.7	-324622.5	1	378356.4	-59.09063	-1.159127E-010	0.0227858	5
	55	21	3.158693	235060.5	-371045.2	1	439235.7	-57.64537	1.607296E-010	0.0227904	5
	56	23	2.504006	284113.6	-422467.3	1	509116.1	-56.07877	5.359502E-011	0.0227913	5
	57	24	1.998082	338442.6	-476585.7	1	584531.8	-54.61992	-1.111747E-010	0.022746	5
	58	26	1.584686	398658.1	-534694	1	666952.8	-53.29246	-3.236121E-011	0.0227772	5
	59	27	1.266892	463675	-594387.4	1	753850.7	-52.0426	5.344903E-011	0.0228102	5
	60	30	0.999041	538548.8	-665599	1	856187.4	-51.02302	1.158385E-010	0.0228216	5
