EXPLAIN
TAG	EISPOT
TITLE	LABEL	Potentiostatic EIS	Test &Identifier
DATE	LABEL	2/21/2020	Date
TIME	LABEL	18:03:44	Time
NOTES	NOTES	1	&Notes...
	
PSTAT	PSTAT	REF600-11020	Potentiostat
VDC	POTEN	0.00000E+000	T	DC &Voltage (V)
FREQINIT	QUANT	1.00000E+006	Initial Fre&q. (Hz)
FREQFINAL	QUANT	1.00000E+000	Final Fre&q. (Hz)
PTSPERDEC	QUANT	1.00000E+001	Points/&decade
VAC	QUANT	2.50000E+001	AC &Voltage (mV rms)
AREA	QUANT	2.08200E-005	&Area (cm^2)
CONDIT	TWOPARAM	F	1.50000E+001	0.00000E+000	Conditionin&g	Time(s)	E(V)
DELAY	TWOPARAM	F	1.00000E+002	0.00000E+000	Init. De&lay	Time(s)	Stab.(mV/s)
SPEED	SELECTOR	0	&Optimize for:
ZGUESS	QUANT	2.00000E+003	E&stimated Z (ohms)
OCVCURVE	TABLE	39
	Pt	T	Vf	Vm	Ach	Over
	#	s	V vs. Ref.	V	V	bits
	0	0.258333	4.28950E-002	4.28950E-002	5.94804E-004	...........
	1	0.516667	4.28945E-002	4.28722E-002	5.99037E-004	...........
	2	0.775	4.28912E-002	4.28150E-002	5.88504E-004	...........
	3	1.03333	4.28804E-002	4.28111E-002	5.85937E-004	...........
	4	1.29167	4.28613E-002	4.28217E-002	5.92537E-004	...........
	5	1.55	4.28413E-002	4.28647E-002	5.93371E-004	...........
	6	1.80833	4.28312E-002	4.28608E-002	5.88537E-004	...........
	7	2.06667	4.28349E-002	4.28877E-002	5.91171E-004	...........
	8	2.325	4.28476E-002	4.28709E-002	5.91437E-004	...........
	9	2.58333	4.28617E-002	4.28912E-002	5.87404E-004	...........
	10	2.84167	4.28723E-002	4.28749E-002	5.89737E-004	...........
	11	3.1	4.28787E-002	4.28969E-002	5.88937E-004	...........
	12	3.35833	4.28824E-002	4.28809E-002	5.89304E-004	...........
	13	3.61667	4.28849E-002	4.28980E-002	5.87671E-004	...........
	14	3.875	4.28870E-002	4.28852E-002	5.89171E-004	...........
	15	4.13333	4.28888E-002	4.28979E-002	5.91104E-004	...........
	16	4.39167	4.28899E-002	4.28679E-002	5.91704E-004	...........
	17	4.65	4.28880E-002	4.28270E-002	5.91104E-004	...........
	18	4.90833	4.28791E-002	4.28037E-002	5.81004E-004	...........
	19	5.16667	4.28618E-002	4.28283E-002	5.92271E-004	...........
	20	5.425	4.28426E-002	4.28523E-002	5.90704E-004	...........
	21	5.68333	4.28321E-002	4.28824E-002	5.88604E-004	...........
	22	5.94167	4.28356E-002	4.28761E-002	5.89604E-004	...........
	23	6.2	4.28485E-002	4.28500E-002	5.87537E-004	...........
	24	6.45833	4.28599E-002	4.28407E-002	5.87837E-004	...........
	25	6.71667	4.28625E-002	4.28486E-002	5.86837E-004	...........
	26	6.975	4.28581E-002	4.28643E-002	5.89637E-004	...........
	27	7.23333	4.28538E-002	4.28669E-002	5.92004E-004	...........
	28	7.49167	4.28540E-002	4.28554E-002	5.93704E-004	...........
	29	7.75	4.28562E-002	4.28127E-002	5.88671E-004	...........
	30	8.00833	4.28547E-002	4.28574E-002	5.86737E-004	...........
	31	8.26667	4.28492E-002	4.28474E-002	5.91004E-004	...........
	32	8.525	4.28435E-002	4.27786E-002	5.86537E-004	...........
	33	8.78333	4.28369E-002	4.28158E-002	5.84237E-004	...........
	34	9.04167	4.28268E-002	4.28098E-002	5.86937E-004	...........
	35	9.3	4.28159E-002	4.27792E-002	5.87304E-004	...........
	36	9.5583	4.28073E-002	4.27961E-002	5.85304E-004	...........
	37	9.8167	4.28001E-002	4.27726E-002	5.83471E-004	...........
	38	10.075	4.27934E-002	4.27867E-002	5.88671E-004	...........
EOC	QUANT	0.0427934	Open Circuit (V)
PSTATMODEL	IQUANT	4	Pstat Model
PSTATSECTION	LABEL	REF600-11020	Pstat Section
PSTATSERIALNO	LABEL	11020	Pstat Serial Number
CTRLMODE	IQUANT	1	Control Mode
IESTAB	IQUANT	0	I/E Stability
CASPEED	IQUANT	1	Control Amp Speed
CONVENTION	IQUANT	1	Current Convention
ICHRANGE	IQUANT	2	Ich Range
ICHRANGEMODE	TOGGLE	F	Ich Auto Range
ICHOFFSETENABLE	TOGGLE	T	Ich Offset Enable
ICHOFFSET	QUANT	0	Ich Offset (V)
ICHFILTER	IQUANT	3	Ich Filter
VCHRANGE	IQUANT	2	Vch Range
VCHRANGEMODE	TOGGLE	F	Vch Auto Range
VCHOFFSETENABLE	TOGGLE	T	Vch Offset Enable
VCHOFFSET	QUANT	0	Vch Offset (V)
VCHFILTER	IQUANT	3	Vch Filter
ACHRANGE	IQUANT	2	Ach Range
ACHOFFSETENABLE	TOGGLE	F	Ach Offset Enable
ACHOFFSET	QUANT	0	Ach Offset (V)
ACHFILTER	IQUANT	3	Ach Filter
IERANGELOWERLIMIT	IQUANT	1	I/E Range Lower Limit
IERANGEMODE	TOGGLE	F	I/E AutoRange
IERANGE	IQUANT	7	I/E Range
POSFEEDENABLE	TOGGLE	F	Positive Feedback IR Comp
POSFEEDRESISTANCE	QUANT	0	Positive Feedback Resistance (ohm)
ACHSELECT	IQUANT	0	Ach Select
CABLEID	IQUANT	14	Cable ID
DCCALDATE	LABEL	1/27/2020	DC Calibration Date
ACCALDATE	LABEL	1/27/2020	AC Calibration Date
THERMOSELECT	IQUANT	1	Thermo Select
FRAMEWORKVERSION	QUANT	6.33	Framework Version
INSTRUMENTVERSION	LABEL	3.50	Instrument Version
ZCURVE	TABLE
	Pt	Time	Freq	Zreal	Zimag	Zsig	Zmod	Zphz	Idc	Vdc	IERange
	#	s	Hz	ohm	ohm	V	ohm	°	A	V	#
	0	1	1000078	1675.022	-1423.509	1	2198.198	-40.35937	-3.293235E-007	0.0449304	8
	1	2	794390.6	1921.982	-1466.286	1	2417.439	-37.34011	7.625153E-008	0.0446278	8
	2	2	630984.4	2168.081	-1494.373	1	2633.197	-34.57697	7.330384E-008	0.0444324	8
	3	2	501234.4	2419.111	-1519.541	1	2856.764	-32.13458	-1.308055E-006	0.0446853	8
	4	3	398109.4	2659.457	-1519.913	1	3063.143	-29.7485	-6.42425E-007	0.0444748	8
	5	3	316265.6	2903.242	-1518.481	1	3276.37	-27.61089	2.683927E-007	0.0442511	8
	6	3	251203.1	3136.813	-1511.355	1	3481.924	-25.72534	2.706405E-007	0.0442967	8
	7	3	199546.9	3359.788	-1495.181	1	3677.464	-23.99014	-4.191947E-007	0.044408	8
	8	4	158578.1	3598.922	-1480.04	1	3891.369	-22.35469	2.911504E-007	0.0442954	8
	9	4	125953.1	3819.791	-1441.579	1	4082.763	-20.67637	-1.652259E-007	0.0445661	7
	10	4	100078.1	4037.207	-1422.053	1	4280.335	-19.40414	4.602263E-008	0.0441848	7
	11	5	79453.13	4240.584	-1408.36	1	4468.337	-18.37208	2.267104E-008	0.044198	7
	12	5	63140.62	4443.874	-1396.289	1	4658.072	-17.443	4.71181E-008	0.0441813	7
	13	5	50203.12	4640.371	-1385.449	1	4842.779	-16.62374	-1.669214E-008	0.0442689	7
	14	6	39890.62	4834.522	-1373.341	1	5025.801	-15.85824	1.341567E-009	0.044219	7
	15	6	31640.63	5032.443	-1368.292	1	5215.142	-15.21068	1.820793E-008	0.0442469	7
	16	6	25171.88	5224.082	-1366.08	1	5399.741	-14.65451	3.407416E-008	0.0442178	7
	17	7	20015.62	5411.283	-1362.741	1	5580.237	-14.13506	1.407142E-008	0.0442222	7
	18	7	15890.62	5596.946	-1363.738	1	5760.693	-13.69371	-1.543415E-008	0.0442702	7
	19	7	12609.37	5781.205	-1374.435	1	5942.34	-13.37334	1.826888E-008	0.0442353	7
	20	8	10078.13	5951.484	-1389.403	1	6111.514	-13.14062	7.074484E-009	0.0442571	7
	21	8	8015.625	6119.982	-1413.87	1	6281.179	-13.00854	-2.540792E-008	0.0442738	7
	22	8	6328.125	6292.29	-1456.856	1	6458.742	-13.03601	4.701418E-010	0.0442091	7
	23	9	5015.625	6466.814	-1520.362	1	6643.131	-13.2301	-7.104163E-009	0.0442583	7
	24	9	3984.375	6626.793	-1598.221	1	6816.795	-13.5594	6.898221E-011	0.0442039	7
	25	9	3170.956	6795.48	-1707.609	1	7006.746	-14.10557	-1.451986E-008	0.0442616	7
	26	9	2527.573	6959.117	-1841.771	1	7198.71	-14.8238	-1.465394E-008	0.0442507	7
	27	10	1976.103	7136.007	-2027.567	1	7418.465	-15.86153	1.72868E-008	0.044203	7
	28	10	1577.524	7302.04	-2247.849	1	7640.197	-17.11038	-2.3956E-008	0.0442631	7
	29	10	1265.625	7468.395	-2520.916	1	7882.381	-18.65183	-8.295742E-009	0.0442237	7
	30	11	998.264	7656.638	-2895.535	1	8185.855	-20.71527	7.724009E-009	0.0442536	7
	31	11	796.875	7833.511	-3325.824	1	8510.287	-23.00431	2.32237E-008	0.0441683	7
	32	11	627.7902	8042.854	-3908.726	1	8942.351	-25.91917	-2.151998E-009	0.0442255	7
	33	12	505.5147	8262.101	-4562.186	1	9438	-28.9067	-1.137881E-009	0.0442555	6
	34	12	397.9953	8517.967	-5462.98	1	10119.28	-32.674	5.095456E-010	0.044242	6
	35	12	315.5048	8806.708	-6550.439	1	10975.72	-36.64191	1.373286E-009	0.0442408	6
	36	13	252.4038	9134.957	-7840.703	1	12038.44	-40.64011	5.518617E-010	0.0442405	6
	37	13	198.6229	9561.04	-9553.95	1	13516.35	-44.97875	1.003294E-009	0.0442389	6
	38	13	158.3615	10059.61	-11554.99	1	15320.36	-48.95764	9.878042E-010	0.0442389	6
	39	14	125.558	10717.72	-14058.48	1	17677.96	-52.6793	1.002322E-009	0.044239	6
	40	14	100.4464	11506.18	-17005.7	1	20532.56	-55.91744	-1.634279E-011	0.0442376	6
	41	14	79.00281	12623.27	-20824.21	1	24351.48	-58.7765	3.785375E-010	0.0442357	6
	42	15	63.3446	14163.41	-25161.12	1	28873.59	-60.62446	1.484547E-010	0.0442332	6
	43	15	49.86702	16037.1	-30764.46	1	34693.52	-62.46758	8.315851E-010	0.0442282	6
	44	15	39.72458	18338.32	-37002.61	1	41297.54	-63.6372	7.579479E-010	0.044232	6
	45	16	31.6723	21482.31	-44403.04	1	49326.66	-64.18218	2.010257E-009	0.0442347	6
	46	16	24.93351	25626.55	-53658.49	1	59463.88	-64.4715	-4.685429E-012	0.0442365	6
	47	16	19.86229	30672.93	-63884.52	1	70866.5	-64.3529	-1.647358E-009	0.0442309	6
	48	17	15.83615	37825.16	-75529.55	1	84471.63	-63.39832	4.101422E-009	0.0442312	6
	49	17	12.40079	45959.66	-89867.11	1	100937.5	-62.91398	1.906923E-009	0.0442318	6
	50	17	9.93114	55245.85	-104482.2	1	118189	-62.13198	1.036671E-009	0.044224	5
	51	18	7.944915	66506.41	-121048.5	1	138115.3	-61.21474	-7.130092E-010	0.0442372	5
	52	18	6.317385	80323.01	-139905.3	1	161323.6	-60.13884	-5.602272E-010	0.0442481	5
	53	19	5.008013	96529.6	-161023.9	1	187741	-59.05843	1.214008E-010	0.0442381	5
	54	20	3.945707	115454	-184757.2	1	217864.3	-57.99893	-1.1725E-011	0.0442287	5
	55	21	3.158693	135150.3	-209921	1	249664.6	-57.22594	1.531643E-010	0.0442157	5
	56	23	2.504006	157105.6	-239245.2	1	286217.5	-56.70821	2.524345E-010	0.0442254	5
	57	24	1.998082	180079.9	-271682.9	1	325945.3	-56.46233	-1.006582E-010	0.0441848	5
	58	26	1.584686	204140.1	-311784.1	1	372669.4	-56.7853	-3.002527E-011	0.0441941	5
	59	28	1.266892	229018	-357060.2	1	424194.8	-57.32394	6.809756E-011	0.0442291	5
	60	30	0.999041	258387	-416325.3	1	489990.3	-58.17472	1.217245E-010	0.0442536	5
