EXPLAIN
TAG	EISPOT
TITLE	LABEL	Potentiostatic EIS	Test &Identifier
DATE	LABEL	2/6/2020	Date
TIME	LABEL	17:47:08	Time
NOTES	NOTES	6	&Notes...
	
	
	
	
	
	
PSTAT	PSTAT	REF600-11020	Potentiostat
VDC	POTEN	0.00000E+000	T	DC &Voltage (V)
FREQINIT	QUANT	1.00000E+006	Initial Fre&q. (Hz)
FREQFINAL	QUANT	1.00000E+000	Final Fre&q. (Hz)
PTSPERDEC	QUANT	1.00000E+001	Points/&decade
VAC	QUANT	2.50000E+001	AC &Voltage (mV rms)
AREA	QUANT	1.60000E-004	&Area (cm^2)
CONDIT	TWOPARAM	F	5.00000E+000	0.00000E+000	Conditionin&g	Time(s)	E(V)
DELAY	TWOPARAM	F	5.00000E+000	0.00000E+000	Init. De&lay	Time(s)	Stab.(mV/s)
SPEED	SELECTOR	0	&Optimize for:
ZGUESS	QUANT	1.00000E+003	E&stimated Z (ohms)
OCVCURVE	TABLE	39
	Pt	T	Vf	Vm	Ach	Over
	#	s	V vs. Ref.	V	V	bits
	0	0.258333	-6.94328E-002	-6.94328E-002	5.78871E-004	...........
	1	0.516667	-6.94330E-002	-6.94449E-002	5.81971E-004	...........
	2	0.775	-6.94352E-002	-6.94955E-002	5.73838E-004	...........
	3	1.03333	-6.94451E-002	-6.96133E-002	5.71738E-004	...........
	4	1.29167	-6.94714E-002	-6.96176E-002	5.79771E-004	...........
	5	1.55	-6.95159E-002	-6.96892E-002	5.77137E-004	...........
	6	1.80833	-6.95715E-002	-6.97940E-002	5.83037E-004	...........
	7	2.06667	-6.96322E-002	-6.98081E-002	5.82504E-004	...........
	8	2.325	-6.96938E-002	-6.97871E-002	5.84404E-004	...........
	9	2.58333	-6.97459E-002	-6.97901E-002	5.83237E-004	...........
	10	2.84167	-6.97786E-002	-6.98035E-002	5.83004E-004	...........
	11	3.1	-6.97933E-002	-6.98205E-002	5.78171E-004	...........
	12	3.35833	-6.98008E-002	-6.98567E-002	5.82237E-004	...........
	13	3.61667	-6.98108E-002	-6.98643E-002	5.85071E-004	...........
	14	3.875	-6.98261E-002	-6.98783E-002	5.74238E-004	...........
	15	4.13333	-6.98441E-002	-6.98828E-002	5.75238E-004	...........
	16	4.39167	-6.98607E-002	-6.99053E-002	5.81571E-004	...........
	17	4.65	-6.98750E-002	-6.99217E-002	5.86237E-004	...........
	18	4.90833	-6.98889E-002	-6.99384E-002	5.82104E-004	...........
	19	5.16667	-6.99041E-002	-6.99666E-002	5.76704E-004	...........
	20	5.425	-6.99216E-002	-6.99891E-002	5.81237E-004	...........
	21	5.68333	-6.99412E-002	-6.99967E-002	5.79837E-004	...........
	22	5.94167	-6.99616E-002	-7.00074E-002	5.82937E-004	...........
	23	6.2	-6.99799E-002	-7.00237E-002	5.87537E-004	...........
	24	6.45833	-6.99953E-002	-7.00332E-002	5.87804E-004	...........
	25	6.71667	-7.00087E-002	-7.00463E-002	5.81204E-004	...........
	26	6.975	-7.00211E-002	-7.00585E-002	5.78771E-004	...........
	27	7.23333	-7.00332E-002	-7.00717E-002	5.83471E-004	...........
	28	7.49167	-7.00453E-002	-7.00771E-002	5.80737E-004	...........
	29	7.75	-7.00572E-002	-7.00997E-002	5.79971E-004	...........
	30	8.00833	-7.00691E-002	-7.01023E-002	5.82671E-004	...........
	31	8.26667	-7.00811E-002	-7.01184E-002	5.82304E-004	...........
	32	8.525	-7.00932E-002	-7.01366E-002	5.84871E-004	...........
	33	8.78333	-7.01056E-002	-7.01464E-002	5.80837E-004	...........
	34	9.04167	-7.01186E-002	-7.01473E-002	5.83337E-004	...........
	35	9.3	-7.01310E-002	-7.01645E-002	5.83537E-004	...........
	36	9.5583	-7.01419E-002	-7.01692E-002	5.89171E-004	...........
	37	9.8167	-7.01515E-002	-7.01770E-002	5.82537E-004	...........
	38	10.075	-7.01605E-002	-7.01873E-002	5.84204E-004	...........
EOC	QUANT	-0.0701605	Open Circuit (V)
PSTATMODEL	IQUANT	4	Pstat Model
PSTATSECTION	LABEL	REF600-11020	Pstat Section
PSTATSERIALNO	LABEL	11020	Pstat Serial Number
CTRLMODE	IQUANT	1	Control Mode
IESTAB	IQUANT	0	I/E Stability
CASPEED	IQUANT	1	Control Amp Speed
CONVENTION	IQUANT	1	Current Convention
ICHRANGE	IQUANT	2	Ich Range
ICHRANGEMODE	TOGGLE	F	Ich Auto Range
ICHOFFSETENABLE	TOGGLE	T	Ich Offset Enable
ICHOFFSET	QUANT	0	Ich Offset (V)
ICHFILTER	IQUANT	3	Ich Filter
VCHRANGE	IQUANT	2	Vch Range
VCHRANGEMODE	TOGGLE	F	Vch Auto Range
VCHOFFSETENABLE	TOGGLE	T	Vch Offset Enable
VCHOFFSET	QUANT	0	Vch Offset (V)
VCHFILTER	IQUANT	3	Vch Filter
ACHRANGE	IQUANT	2	Ach Range
ACHOFFSETENABLE	TOGGLE	F	Ach Offset Enable
ACHOFFSET	QUANT	0	Ach Offset (V)
ACHFILTER	IQUANT	3	Ach Filter
IERANGELOWERLIMIT	IQUANT	1	I/E Range Lower Limit
IERANGEMODE	TOGGLE	F	I/E AutoRange
IERANGE	IQUANT	8	I/E Range
POSFEEDENABLE	TOGGLE	F	Positive Feedback IR Comp
POSFEEDRESISTANCE	QUANT	0	Positive Feedback Resistance (ohm)
ACHSELECT	IQUANT	0	Ach Select
CABLEID	IQUANT	14	Cable ID
DCCALDATE	LABEL	1/27/2020	DC Calibration Date
ACCALDATE	LABEL	1/27/2020	AC Calibration Date
THERMOSELECT	IQUANT	1	Thermo Select
FRAMEWORKVERSION	QUANT	6.33	Framework Version
INSTRUMENTVERSION	LABEL	3.50	Instrument Version
ZCURVE	TABLE
	Pt	Time	Freq	Zreal	Zimag	Zsig	Zmod	Zphz	Idc	Vdc	IERange
	#	s	Hz	ohm	ohm	V	ohm	°	A	V	#
	0	1	1000078	2174.679	-2098.702	1	3022.214	-43.98144	3.278362E-007	-0.0683129	8
	1	1	794390.6	2603.032	-2165.133	1	3385.79	-39.75279	-7.632551E-007	-0.06828	8
	2	2	630984.4	3044.854	-2162.518	1	3734.651	-35.38316	-2.486003E-006	-0.0680391	8
	3	2	501234.4	3454.845	-2120.177	1	4053.531	-31.5367	4.359384E-006	-0.0692099	8
	4	2	398109.4	3856.587	-1977.175	1	4333.877	-27.14307	-2.766845E-006	-0.0682286	8
	5	3	316265.6	4180.367	-1802.136	1	4552.27	-23.32064	-2.549561E-006	-0.0680688	8
	6	3	251203.1	4469.382	-1652.262	1	4765.013	-20.28858	4.861087E-007	-0.0687879	8
	7	3	199546.9	4704.636	-1444.406	1	4921.373	-17.0674	1.376797E-006	-0.0689258	8
	8	4	158578.1	4880.148	-1274.324	1	5043.784	-14.63453	7.524728E-007	-0.0689435	8
	9	4	125953.1	5063.75	-1074.017	1	5176.396	-11.97492	2.828098E-007	-0.0696483	7
	10	4	100078.1	5176.204	-948.7117	1	5262.427	-10.38608	-4.305979E-008	-0.0686544	7
	11	5	79453.13	5265.87	-844.8362	1	5333.21	-9.114645	-1.460436E-008	-0.0686856	7
	12	5	63140.62	5338.208	-762.9442	1	5392.454	-8.13371	-2.541052E-008	-0.0687223	7
	13	5	50203.12	5398.639	-700.8735	1	5443.944	-7.397002	2.904289E-009	-0.0687068	7
	14	6	39890.62	5454.547	-658.5258	1	5494.155	-6.883985	-1.361201E-008	-0.0686754	7
	15	6	31640.63	5502.449	-635.9636	1	5539.079	-6.592895	-4.32817E-008	-0.0686678	7
	16	6	25171.88	5548.857	-634.5869	1	5585.026	-6.524203	-1.503252E-008	-0.0686987	7
	17	6	20015.62	5591.923	-648.5937	1	5629.412	-6.616037	-3.555564E-008	-0.0686676	7
	18	7	15890.62	5637.586	-684.9155	1	5679.04	-6.926969	-3.5776E-008	-0.0686693	7
	19	7	12609.37	5684.197	-743.946	1	5732.674	-7.456473	6.881171E-008	-0.0688457	7
	20	7	10078.13	5727.346	-820.8191	1	5785.865	-8.155854	-3.339284E-008	-0.068694	7
	21	8	8015.625	5783.238	-927.3497	1	5857.117	-9.109901	3.859113E-009	-0.0687175	7
	22	8	6328.125	5840.544	-1069.879	1	5937.727	-10.38044	1.476685E-008	-0.0687953	7
	23	8	5015.625	5902.302	-1250.429	1	6033.302	-11.9615	-1.281558E-008	-0.0686947	7
	24	9	3984.375	5973.601	-1475.234	1	6153.066	-13.87213	6.673697E-008	-0.0688556	7
	25	9	3170.956	6053.377	-1745.217	1	6299.933	-16.08252	-2.358563E-008	-0.0687402	7
	26	9	2527.573	6143.705	-2083.187	1	6487.278	-18.7306	1.043334E-007	-0.0688858	7
	27	10	1976.103	6261.802	-2533.681	1	6754.976	-22.02948	3.457197E-008	-0.0687853	7
	28	10	1577.524	6390.703	-3050.215	1	7081.306	-25.51465	8.050551E-009	-0.0688089	7
	29	10	1265.625	6537.163	-3655.181	1	7489.649	-29.21124	-2.674077E-008	-0.0687387	7
	30	11	998.264	6728.768	-4458.528	1	8071.852	-33.52873	4.428083E-009	-0.0686633	7
	31	11	796.875	6947.99	-5387.717	1	8792.159	-37.79126	-4.145792E-008	-0.0686882	7
	32	11	627.7902	7242.44	-6594.127	1	9794.66	-42.31736	-7.051822E-009	-0.0686837	6
	33	12	505.5147	7561.81	-7929.376	1	10957.01	-46.35923	-5.756421E-009	-0.0686619	6
	34	12	397.9953	7995.916	-9732.8	1	12596.12	-50.59543	8.293747E-010	-0.0687382	6
	35	12	315.5048	8530.583	-11877.95	1	14623.83	-54.31461	1.596292E-009	-0.0687369	6
	36	12	252.4038	9172.976	-14381.06	1	17057.5	-57.46819	1.138268E-009	-0.0687456	6
	37	13	198.6229	10054.71	-17658.31	1	20320.26	-60.34264	8.102989E-010	-0.0687414	6
	38	13	158.3615	11128.54	-21427.3	1	24144.85	-62.55431	8.864537E-010	-0.0687433	6
	39	13	125.558	12534.58	-26084.94	1	28940.28	-64.33434	8.425713E-010	-0.0687415	6
	40	14	100.4464	14242	-31455.11	1	34529.09	-65.6403	1.690797E-009	-0.0687473	6
	41	14	79.00281	16639.31	-38309.4	1	41766.93	-66.52276	1.097639E-009	-0.0687496	6
	42	14	63.3446	19871.25	-46358.49	1	50437.84	-66.79794	5.600692E-010	-0.0687494	6
	43	15	49.86702	23730.14	-56151.07	1	60959.52	-67.09048	-1.114985E-010	-0.0687516	6
	44	15	39.72458	28390.89	-66737.28	1	72525.22	-66.95448	7.359533E-010	-0.0687489	6
	45	16	31.6723	34455.14	-79318.3	1	86478.61	-66.52032	1.035093E-009	-0.0687531	6
	46	16	24.93351	42485.24	-95177	1	104228.8	-65.9449	1.644826E-010	-0.0687447	6
	47	16	19.86229	52306.59	-112335.1	1	123915.9	-65.03191	-3.44573E-010	-0.0687456	5
	48	16	15.83615	63776.66	-130329.8	1	145097.6	-63.92527	-1.360626E-009	-0.0687526	5
	49	17	12.40079	78412.14	-156509.2	1	175053.1	-63.38882	8.324773E-010	-0.0687504	5
	50	17	9.93114	97416.3	-180578.8	1	205179.5	-61.65462	7.804712E-010	-0.0687545	5
	51	18	7.944915	118329.7	-208679.4	1	239893.7	-60.445	3.511754E-010	-0.0687484	5
	52	18	6.317385	143638.6	-239661.5	1	279409.5	-59.06408	3.795088E-010	-0.068751	5
	53	19	5.008013	174492.6	-274422.9	1	325200.9	-57.54965	4.334425E-010	-0.0687432	5
	54	20	3.945707	212267	-313329.1	1	378460.5	-55.88404	-1.404729E-010	-0.0687536	5
	55	22	3.158693	251308.5	-350904.8	1	431613.4	-54.39079	5.902433E-011	-0.0687676	5
	56	23	2.504006	297047.3	-392948.5	1	492590.7	-52.91273	3.189089E-010	-0.0687629	5
	57	24	1.998082	343634	-435718.5	1	554918.9	-51.73855	6.406263E-011	-0.0687894	5
	58	26	1.584686	395725	-486163.6	1	626859.9	-50.85527	-5.285494E-011	-0.068815	5
	59	28	1.266892	445714.1	-541244.9	1	701146.9	-50.52861	-1.125504E-011	-0.0687884	5
	60	30	0.999041	501271.8	-608852.6	1	788653.9	-50.53518	1.356166E-011	-0.0687622	5
