EXPLAIN
TAG	EISPOT
TITLE	LABEL	Potentiostatic EIS	Test &Identifier
DATE	LABEL	7/13/2020	Date
TIME	LABEL	20:44:05	Time
NOTES	NOTES	1	&Notes...
	
PSTAT	PSTAT	REF600-11020	Potentiostat
VDC	POTEN	0.00000E+000	T	DC &Voltage (V)
FREQINIT	QUANT	1.00000E+006	Initial Fre&q. (Hz)
FREQFINAL	QUANT	1.00000E+000	Final Fre&q. (Hz)
PTSPERDEC	QUANT	1.00000E+001	Points/&decade
VAC	QUANT	2.50000E+001	AC &Voltage (mV rms)
AREA	QUANT	4.00000E-004	&Area (cm^2)
CONDIT	TWOPARAM	F	5.00000E+000	0.00000E+000	Conditionin&g	Time(s)	E(V)
DELAY	TWOPARAM	F	3.00000E+000	0.00000E+000	Init. De&lay	Time(s)	Stab.(mV/s)
SPEED	SELECTOR	0	&Optimize for:
ZGUESS	QUANT	1.00000E+003	E&stimated Z (ohms)
OCVCURVE	TABLE	39
	Pt	T	Vf	Vm	Ach	Over
	#	s	V vs. Ref.	V	V	bits
	0	0.258333	2.02332E-001	2.02332E-001	5.07750E-004	...........
	1	0.516667	2.02332E-001	2.02342E-001	5.04784E-004	...........
	2	0.775	2.02333E-001	2.02354E-001	4.92317E-004	...........
	3	1.03333	2.02337E-001	2.02360E-001	4.93117E-004	...........
	4	1.29167	2.02343E-001	2.02366E-001	5.07483E-004	...........
	5	1.55	2.02351E-001	2.02373E-001	5.11817E-004	...........
	6	1.80833	2.02359E-001	2.02380E-001	4.98284E-004	...........
	7	2.06667	2.02366E-001	2.02386E-001	5.01917E-004	...........
	8	2.325	2.02373E-001	2.02393E-001	5.09817E-004	...........
	9	2.58333	2.02379E-001	2.02398E-001	5.12283E-004	...........
	10	2.84167	2.02386E-001	2.02400E-001	4.96617E-004	...........
	11	3.1	2.02391E-001	2.02408E-001	5.03750E-004	...........
	12	3.35833	2.02397E-001	2.02411E-001	5.11050E-004	...........
	13	3.61667	2.02402E-001	2.02417E-001	5.05184E-004	...........
	14	3.875	2.02407E-001	2.02426E-001	5.09350E-004	...........
	15	4.13333	2.02412E-001	2.02429E-001	5.11517E-004	...........
	16	4.39167	2.02418E-001	2.02435E-001	5.12550E-004	...........
	17	4.65	2.02423E-001	2.02440E-001	5.04484E-004	...........
	18	4.90833	2.02429E-001	2.02444E-001	5.00517E-004	...........
	19	5.16667	2.02434E-001	2.02446E-001	5.16417E-004	...........
	20	5.425	2.02439E-001	2.02452E-001	5.13517E-004	...........
	21	5.68333	2.02443E-001	2.02456E-001	4.99150E-004	...........
	22	5.94167	2.02447E-001	2.02464E-001	4.97817E-004	...........
	23	6.2	2.02452E-001	2.02469E-001	5.06684E-004	...........
	24	6.45833	2.02457E-001	2.02471E-001	5.11517E-004	...........
	25	6.71667	2.02462E-001	2.02474E-001	5.00817E-004	...........
	26	6.975	2.02467E-001	2.02477E-001	5.00650E-004	...........
	27	7.23333	2.02471E-001	2.02482E-001	5.15017E-004	...........
	28	7.49167	2.02474E-001	2.02485E-001	5.16850E-004	...........
	29	7.75	2.02478E-001	2.02490E-001	4.99450E-004	...........
	30	8.00833	2.02481E-001	2.02493E-001	4.99250E-004	...........
	31	8.26667	2.02485E-001	2.02498E-001	5.06317E-004	...........
	32	8.525	2.02489E-001	2.02499E-001	5.01417E-004	...........
	33	8.78333	2.02493E-001	2.02505E-001	4.93250E-004	...........
	34	9.04167	2.02497E-001	2.02508E-001	5.06917E-004	...........
	35	9.3	2.02500E-001	2.02505E-001	5.13550E-004	...........
	36	9.5583	2.02503E-001	2.02511E-001	5.05417E-004	...........
	37	9.8167	2.02506E-001	2.02515E-001	4.97684E-004	...........
	38	10.075	2.02508E-001	2.02519E-001	5.04250E-004	...........
EOC	QUANT	0.202508	Open Circuit (V)
PSTATMODEL	IQUANT	4	Pstat Model
PSTATSECTION	LABEL	REF600-11020	Pstat Section
PSTATSERIALNO	LABEL	11020	Pstat Serial Number
CTRLMODE	IQUANT	1	Control Mode
IESTAB	IQUANT	0	I/E Stability
CASPEED	IQUANT	1	Control Amp Speed
CONVENTION	IQUANT	1	Current Convention
ICHRANGE	IQUANT	2	Ich Range
ICHRANGEMODE	TOGGLE	F	Ich Auto Range
ICHOFFSETENABLE	TOGGLE	T	Ich Offset Enable
ICHOFFSET	QUANT	0	Ich Offset (V)
ICHFILTER	IQUANT	3	Ich Filter
VCHRANGE	IQUANT	2	Vch Range
VCHRANGEMODE	TOGGLE	F	Vch Auto Range
VCHOFFSETENABLE	TOGGLE	T	Vch Offset Enable
VCHOFFSET	QUANT	0	Vch Offset (V)
VCHFILTER	IQUANT	3	Vch Filter
ACHRANGE	IQUANT	2	Ach Range
ACHOFFSETENABLE	TOGGLE	F	Ach Offset Enable
ACHOFFSET	QUANT	0	Ach Offset (V)
ACHFILTER	IQUANT	3	Ach Filter
IERANGELOWERLIMIT	IQUANT	1	I/E Range Lower Limit
IERANGEMODE	TOGGLE	F	I/E AutoRange
IERANGE	IQUANT	8	I/E Range
POSFEEDENABLE	TOGGLE	F	Positive Feedback IR Comp
POSFEEDRESISTANCE	QUANT	0	Positive Feedback Resistance (ohm)
ACHSELECT	IQUANT	0	Ach Select
CABLEID	IQUANT	14	Cable ID
DCCALDATE	LABEL	6/26/2020	DC Calibration Date
ACCALDATE	LABEL	6/26/2020	AC Calibration Date
THERMOSELECT	IQUANT	1	Thermo Select
FRAMEWORKVERSION	QUANT	6.33	Framework Version
INSTRUMENTVERSION	LABEL	3.50	Instrument Version
ZCURVE	TABLE
	Pt	Time	Freq	Zreal	Zimag	Zsig	Zmod	Zphz	Idc	Vdc	IERange
	#	s	Hz	ohm	ohm	V	ohm	°	A	V	#
	0	1	1000078	1508.873	-1343.86	1	2020.558	-41.68949	3.209909E-008	0.2049185	8
	1	2	794390.6	1695.391	-1438.929	1	2223.706	-40.32225	-1.724908E-008	0.2045795	8
	2	2	630984.4	1883.101	-1551.858	1	2440.15	-39.49184	7.078935E-008	0.2043946	8
	3	2	501234.4	2077.388	-1675.644	1	2668.956	-38.89004	5.562913E-008	0.2043033	8
	4	3	398109.4	2281.466	-1822.868	1	2920.262	-38.62449	6.382324E-008	0.2042379	8
	5	3	316265.6	2500.606	-1993.504	1	3197.982	-38.56215	5.614964E-008	0.2042016	8
	6	3	251203.1	2742.487	-2195.501	1	3513.042	-38.67906	-5.090101E-008	0.2041759	8
	7	4	199546.9	3006.94	-2419.133	1	3859.26	-38.81725	7.867108E-008	0.204148	8
	8	4	158578.1	3293.968	-2675.528	1	4243.663	-39.08525	2.219567E-008	0.2041689	8
	9	4	125953.1	3686.306	-2928.098	1	4707.718	-38.46073	-8.479218E-009	0.2042025	7
	10	4	100078.1	4032.552	-3278.853	1	5197.34	-39.11443	7.787787E-009	0.2041351	7
	11	5	79453.13	4410.385	-3670.424	1	5737.901	-39.76801	-1.040062E-008	0.2041531	7
	12	5	63140.62	4823.215	-4120.353	1	6343.556	-40.50644	-2.743329E-009	0.2041457	7
	13	5	50203.12	5279.37	-4640.847	1	7029.168	-41.31719	1.102288E-008	0.2041258	7
	14	6	39890.62	5795.038	-5249.037	1	7818.878	-42.1697	9.118386E-009	0.2041101	7
	15	6	31640.63	6384.572	-5952.446	1	8728.938	-42.99393	3.82798E-009	0.2041299	7
	16	6	25171.88	7052.133	-6767.882	1	9774.29	-43.8217	4.436505E-009	0.2041325	7
	17	7	20015.62	7823.016	-7730.388	1	10998.11	-44.65878	4.872645E-009	0.2041125	7
	18	7	15890.62	8742.311	-8808.845	1	12410.63	-45.2172	1.200205E-008	0.2041151	7
	19	7	12609.37	10088.48	-9950.3	1	14169.89	-44.6049	1.854476E-009	0.2040926	6
	20	8	10078.13	11339.54	-11331.18	1	16030.62	-44.97887	-6.164538E-010	0.2041268	6
	21	8	8015.625	12891.51	-12894.51	1	18233.47	-45.00665	-2.028156E-011	0.2041191	6
	22	8	6328.125	14857.29	-14629.41	1	20850.87	-44.55721	-3.67978E-010	0.2041382	6
	23	9	5015.625	17206.92	-16385.27	1	23760.37	-43.59884	1.807304E-009	0.2041178	6
	24	9	3984.375	19980.58	-18104.88	1	26963.13	-42.18046	7.465676E-010	0.2041329	6
	25	9	3170.956	23194.71	-19709.87	1	30438.02	-40.35646	2.171435E-009	0.2041043	6
	26	10	2527.573	26769.58	-20938.36	1	33985.66	-38.03144	-5.7329E-010	0.2041332	6
	27	10	1976.103	30970.2	-21846.48	1	37900.16	-35.19927	2.221231E-010	0.2041199	6
	28	10	1577.524	35006.18	-22311.63	1	41511.94	-32.51192	5.376329E-010	0.2041085	6
	29	11	1265.625	38924.16	-22308.39	1	44863.73	-29.81808	2.030158E-009	0.204091	6
	30	11	998.264	42849.76	-21717.45	1	48039.04	-26.87716	-1.257797E-009	0.2041236	6
	31	11	796.875	46311.93	-20956.79	1	50832.88	-24.34742	1.410385E-009	0.2041091	6
	32	11	627.7902	49674.85	-20038.59	1	53564.31	-21.9689	2.338488E-009	0.2040862	6
	33	12	505.5147	52376.85	-19175.71	1	55776.72	-20.10821	3.136854E-009	0.2041002	6
	34	12	397.9953	54930.74	-18191.94	1	57864.78	-18.32382	8.928847E-010	0.2041301	6
	35	12	315.5048	56994.55	-17404.8	1	59592.84	-16.98144	1.180194E-009	0.204127	6
	36	13	252.4038	58860.12	-16962.5	1	61255.53	-16.0761	1.089674E-009	0.2041232	6
	37	13	198.6229	60251.42	-16738.47	1	62533.27	-15.52584	1.16742E-009	0.2041302	6
	38	14	158.3615	61837.18	-17066.05	1	64148.94	-15.42863	7.164994E-010	0.2041217	6
	39	14	125.558	63230.61	-17903.37	1	65716.37	-15.80915	7.215069E-010	0.2041228	6
	40	14	100.4464	64333.37	-19196.76	1	67136.41	-16.61484	5.875757E-010	0.204122	6
	41	15	79.00281	65873.38	-21338.33	1	69243.23	-17.94867	5.550004E-010	0.2041208	6
	42	15	63.3446	66834.26	-23945.17	1	70994.29	-19.71143	3.192944E-010	0.2041207	6
	43	16	49.86702	69030.44	-27667.97	1	74368.8	-21.84132	8.539706E-010	0.2041184	6
	44	16	39.72458	71133.25	-32065.95	1	78026.7	-24.26524	7.950568E-010	0.2041215	6
	45	16	31.6723	73750.61	-37428.51	1	82704.57	-26.90784	8.994666E-010	0.2041206	6
	46	17	24.93351	77733.54	-44180.22	1	89411.38	-29.61194	3.030874E-010	0.2041156	6
	47	17	19.86229	81799.21	-51552.02	1	96688.8	-32.22021	1.158776E-009	0.2041147	5
	48	17	15.83615	86964.06	-60026.36	1	105668.9	-34.61512	-1.631251E-009	0.2041104	5
	49	17	12.40079	94238.63	-70574.95	1	117735.9	-36.8294	-3.14136E-009	0.2041196	5
	50	18	9.93114	101772	-81203.66	1	130198.2	-38.58629	-2.769418E-009	0.2041169	5
	51	18	7.944915	110111	-93546.96	1	144483.5	-40.35021	-1.390649E-009	0.2041217	5
	52	19	6.317385	120600.3	-107255.1	1	161394.2	-41.64808	2.191188E-010	0.2041136	5
	53	19	5.008013	132423.4	-122728.6	1	180550	-42.82403	-4.044005E-010	0.2041114	5
	54	20	3.945707	146402.9	-141084.4	1	203319	-43.94015	-6.442697E-010	0.2041147	5
	55	21	3.158693	159665.4	-159889.2	1	225959.3	-45.04012	-1.410756E-010	0.2040943	5
	56	22	2.504006	175311.4	-183200.9	1	253567.9	-46.26066	2.900126E-010	0.2041026	5
	57	23	1.998082	191000	-209292.3	1	283344.8	-47.61645	-6.592537E-011	0.2040817	5
	58	25	1.584686	209199.4	-242046.5	1	319923.3	-49.16333	-2.12155E-010	0.2040502	5
	59	27	1.266892	227248	-280292.7	1	360840.2	-50.96651	-8.257323E-011	0.2040782	5
	60	30	0.999041	248662.7	-328909.4	1	412328.2	-52.90993	-1.40461E-011	0.2041087	5
