EXPLAIN
TAG	EISPOT
TITLE	LABEL	Potentiostatic EIS	Test &Identifier
DATE	LABEL	1/25/2020	Date
TIME	LABEL	13:24:07	Time
NOTES	NOTES	6	&Notes...
	
	
	
	
	
	
PSTAT	PSTAT	REF600-11020	Potentiostat
VDC	POTEN	0.00000E+000	T	DC &Voltage (V)
FREQINIT	QUANT	1.00000E+006	Initial Fre&q. (Hz)
FREQFINAL	QUANT	1.00000E+000	Final Fre&q. (Hz)
PTSPERDEC	QUANT	1.00000E+001	Points/&decade
VAC	QUANT	2.50000E+001	AC &Voltage (mV rms)
AREA	QUANT	1.00000E-001	&Area (cm^2)
CONDIT	TWOPARAM	F	5.00000E+000	0.00000E+000	Conditionin&g	Time(s)	E(V)
DELAY	TWOPARAM	F	5.00000E+000	0.00000E+000	Init. De&lay	Time(s)	Stab.(mV/s)
SPEED	SELECTOR	0	&Optimize for:
ZGUESS	QUANT	5.00000E+002	E&stimated Z (ohms)
OCVCURVE	TABLE	39
	Pt	T	Vf	Vm	Ach	Over
	#	s	V vs. Ref.	V	V	bits
	0	0.258333	4.34127E-002	4.34127E-002	6.61146E-004	...........
	1	0.516667	4.34129E-002	4.34214E-002	6.56680E-004	...........
	2	0.775	4.34138E-002	4.34259E-002	6.63779E-004	...........
	3	1.03333	4.34162E-002	4.34289E-002	6.64379E-004	...........
	4	1.29167	4.34201E-002	4.34358E-002	6.64346E-004	...........
	5	1.55	4.34247E-002	4.34396E-002	6.67313E-004	...........
	6	1.80833	4.34296E-002	4.34443E-002	6.63413E-004	...........
	7	2.06667	4.34345E-002	4.34485E-002	6.68213E-004	...........
	8	2.325	4.34393E-002	4.34538E-002	6.61879E-004	...........
	9	2.58333	4.34439E-002	4.34555E-002	6.60413E-004	...........
	10	2.84167	4.34482E-002	4.34585E-002	6.65079E-004	...........
	11	3.1	4.34521E-002	4.34612E-002	6.68946E-004	...........
	12	3.35833	4.34554E-002	4.34659E-002	6.65813E-004	...........
	13	3.61667	4.34585E-002	4.34695E-002	6.68846E-004	...........
	14	3.875	4.34618E-002	4.34727E-002	6.70679E-004	...........
	15	4.13333	4.34653E-002	4.34732E-002	6.65013E-004	...........
	16	4.39167	4.34686E-002	4.34780E-002	6.64946E-004	...........
	17	4.65	4.34718E-002	4.34931E-002	6.63913E-004	...........
	18	4.90833	4.34758E-002	4.34900E-002	6.64179E-004	...........
	19	5.16667	4.34807E-002	4.34830E-002	6.67079E-004	...........
	20	5.425	4.34847E-002	4.34779E-002	6.61979E-004	...........
	21	5.68333	4.34859E-002	4.34865E-002	6.64513E-004	...........
	22	5.94167	4.34851E-002	4.34912E-002	6.66846E-004	...........
	23	6.2	4.34847E-002	4.34914E-002	6.64146E-004	...........
	24	6.45833	4.34862E-002	4.34948E-002	6.57046E-004	...........
	25	6.71667	4.34887E-002	4.34950E-002	6.61046E-004	...........
	26	6.975	4.34914E-002	4.34979E-002	6.61246E-004	...........
	27	7.23333	4.34936E-002	4.34943E-002	6.57579E-004	...........
	28	7.49167	4.34951E-002	4.34974E-002	6.53846E-004	...........
	29	7.75	4.34959E-002	4.34997E-002	6.54280E-004	...........
	30	8.00833	4.34967E-002	4.35019E-002	6.55679E-004	...........
	31	8.26667	4.34974E-002	4.34823E-002	6.59046E-004	...........
	32	8.525	4.34988E-002	4.35818E-002	6.55846E-004	...........
	33	8.78333	4.35050E-002	4.35422E-002	6.55013E-004	...........
	34	9.04167	4.35237E-002	4.38182E-002	6.56580E-004	...........
	35	9.3	4.35793E-002	4.45127E-002	6.53946E-004	...........
	36	9.5583	4.37159E-002	4.44052E-002	6.58679E-004	...........
	37	9.8167	4.39342E-002	4.42344E-002	6.57046E-004	...........
	38	10.075	4.41494E-002	4.43307E-002	6.59379E-004	...........
EOC	QUANT	0.0441494	Open Circuit (V)
PSTATMODEL	IQUANT	4	Pstat Model
PSTATSECTION	LABEL	REF600-11020	Pstat Section
PSTATSERIALNO	LABEL	11020	Pstat Serial Number
CTRLMODE	IQUANT	1	Control Mode
IESTAB	IQUANT	0	I/E Stability
CASPEED	IQUANT	1	Control Amp Speed
CONVENTION	IQUANT	1	Current Convention
ICHRANGE	IQUANT	2	Ich Range
ICHRANGEMODE	TOGGLE	F	Ich Auto Range
ICHOFFSETENABLE	TOGGLE	T	Ich Offset Enable
ICHOFFSET	QUANT	0	Ich Offset (V)
ICHFILTER	IQUANT	3	Ich Filter
VCHRANGE	IQUANT	2	Vch Range
VCHRANGEMODE	TOGGLE	F	Vch Auto Range
VCHOFFSETENABLE	TOGGLE	T	Vch Offset Enable
VCHOFFSET	QUANT	0	Vch Offset (V)
VCHFILTER	IQUANT	3	Vch Filter
ACHRANGE	IQUANT	2	Ach Range
ACHOFFSETENABLE	TOGGLE	F	Ach Offset Enable
ACHOFFSET	QUANT	0	Ach Offset (V)
ACHFILTER	IQUANT	3	Ach Filter
IERANGELOWERLIMIT	IQUANT	1	I/E Range Lower Limit
IERANGEMODE	TOGGLE	F	I/E AutoRange
IERANGE	IQUANT	8	I/E Range
POSFEEDENABLE	TOGGLE	F	Positive Feedback IR Comp
POSFEEDRESISTANCE	QUANT	0	Positive Feedback Resistance (ohm)
ACHSELECT	IQUANT	0	Ach Select
CABLEID	IQUANT	14	Cable ID
DCCALDATE	LABEL	12/22/2019	DC Calibration Date
ACCALDATE	LABEL	12/22/2019	AC Calibration Date
THERMOSELECT	IQUANT	1	Thermo Select
FRAMEWORKVERSION	QUANT	6.33	Framework Version
INSTRUMENTVERSION	LABEL	3.50	Instrument Version
ZCURVE	TABLE
	Pt	Time	Freq	Zreal	Zimag	Zsig	Zmod	Zphz	Idc	Vdc	IERange
	#	s	Hz	ohm	ohm	V	ohm	°	A	V	#
	0	1	1000078	1751.451	-2083.99	1	2722.241	-49.95526	3.014168E-007	0.0466669	8
	1	2	794390.6	2057.658	-2282.846	1	3073.328	-47.96989	-1.066455E-006	0.0465782	8
	2	2	630984.4	2361.5	-2504.768	1	3442.462	-46.68637	2.989159E-007	0.0460081	8
	3	2	501234.4	2686.442	-2734.947	1	3833.655	-45.51262	-8.750947E-007	0.0462475	8
	4	3	398109.4	3069.751	-3040.142	1	4320.397	-44.72234	1.638978E-006	0.0455838	8
	5	3	316265.6	3483.632	-3357.769	1	4838.42	-43.94604	5.266415E-007	0.0457402	8
	6	3	251203.1	3963.785	-3709.668	1	5428.926	-43.10326	3.09552E-007	0.0458029	8
	7	4	199546.9	4527.344	-4069.127	1	6087.252	-41.94886	-3.193824E-007	0.0458793	8
	8	4	158578.1	5184.322	-4503.892	1	6867.477	-40.98256	-3.005331E-007	0.0458714	8
	9	4	125953.1	5961.721	-4789.382	1	7647.241	-38.77685	-4.380188E-007	0.047101	7
	10	5	100078.1	6783.146	-5092.922	1	8482.271	-36.89996	4.581221E-009	0.045778	7
	11	5	79453.13	7708.043	-5357.829	1	9387.239	-34.80301	-6.788878E-010	0.04587	7
	12	5	63140.62	8681.741	-5512.684	1	10284.08	-32.41451	-2.764647E-008	0.045842	7
	13	6	50203.12	9694.48	-5569.697	1	11180.54	-29.87834	1.786412E-008	0.045784	7
	14	6	39890.62	10685.1	-5521.958	1	12027.61	-27.32948	-2.572417E-008	0.0458341	7
	15	6	31640.63	11659.6	-5376.832	1	12839.65	-24.75681	2.716648E-008	0.0457168	7
	16	7	25171.88	12544.87	-5161.942	1	13565.37	-22.36611	-3.176469E-008	0.0458556	7
	17	7	20015.62	13353.2	-4901.082	1	14224.22	-20.15487	-2.280831E-008	0.0458216	7
	18	7	15890.62	14093.57	-4604.276	1	14826.6	-18.09188	2.805441E-008	0.0457143	7
	19	7	12609.37	14799.38	-4248.687	1	15397.18	-16.018	-3.614676E-009	0.0458691	6
	20	8	10078.13	15342.39	-3987.165	1	15852.01	-14.56772	-1.379547E-009	0.0457484	6
	21	8	8015.625	15838.54	-3737.9	1	16273.63	-13.27886	9.27243E-009	0.0456999	6
	22	8	6328.125	16282.16	-3523.151	1	16658.97	-12.20949	2.566262E-009	0.0456951	6
	23	9	5015.625	16685.68	-3366.179	1	17021.84	-11.40579	3.420122E-009	0.0458201	6
	24	9	3984.375	17043.45	-3265.713	1	17353.5	-10.84703	-2.54689E-009	0.0458857	6
	25	9	3170.956	17365.55	-3218.521	1	17661.29	-10.50002	-9.690309E-010	0.0458717	6
	26	10	2527.573	17648.86	-3236.861	1	17943.23	-10.39274	5.224731E-009	0.0456812	6
	27	10	1976.103	17946.33	-3344.325	1	18255.28	-10.55607	9.055369E-009	0.0456912	6
	28	10	1577.524	18196.18	-3536.936	1	18536.75	-10.99987	2.738006E-009	0.045814	6
	29	11	1265.625	18457.35	-3812.035	1	18846.89	-11.66934	-6.36065E-009	0.0458431	6
	30	11	998.264	18728.7	-4238.553	1	19202.33	-12.75198	-2.334706E-009	0.0458608	6
	31	11	796.875	18998.85	-4775.279	1	19589.79	-14.10879	-4.731771E-013	0.0457335	6
	32	12	627.7902	19317.74	-5518.781	1	20090.59	-15.94383	-2.846207E-010	0.0458383	6
	33	12	505.5147	19632.22	-6367.238	1	20638.94	-17.96922	6.107342E-009	0.0456485	6
	34	12	397.9953	20044.96	-7544.808	1	21417.85	-20.62605	5.942183E-010	0.0457997	6
	35	13	315.5048	20533.2	-8972.86	1	22408.13	-23.60498	7.754242E-010	0.0457928	6
	36	13	252.4038	21094.45	-10649.32	1	23630.14	-26.78647	5.857103E-010	0.0457943	6
	37	13	198.6229	21853.05	-12840.07	1	25346.07	-30.43697	7.863207E-010	0.0457982	6
	38	14	158.3615	22780.44	-15355.06	1	27472.29	-33.98178	2.497298E-010	0.0457932	6
	39	14	125.558	23978.79	-18436.47	1	30247.08	-37.55545	2.976541E-010	0.0457946	6
	40	14	100.4464	25401.29	-21937.74	1	33563.23	-40.81543	8.310544E-010	0.0457942	6
	41	14	79.00281	27388.08	-26378.31	1	38025.29	-43.92408	2.768211E-010	0.0457928	6
	42	15	63.3446	29874.57	-31355.5	1	43308.86	-46.38551	7.019818E-010	0.0457867	6
	43	15	49.86702	32903.83	-37366.64	1	49788.83	-48.63392	2.356779E-010	0.0457897	6
	44	16	39.72458	36521.87	-43866.95	1	57080.27	-50.22059	4.085607E-010	0.0457929	6
	45	16	31.6723	40836.54	-51369.87	1	65623.83	-51.51701	2.673859E-010	0.0457922	6
	46	16	24.93351	46577.66	-60439.63	1	76304.83	-52.38044	-4.23305E-011	0.0457919	6
	47	17	19.86229	52844.14	-70177.65	1	87848.77	-53.02006	-8.82423E-010	0.0457886	6
	48	17	15.83615	60557.8	-80948.2	1	101093.3	-53.19963	2.059162E-009	0.0457899	5
	49	17	12.40079	69093.78	-93993.91	1	116656.8	-53.68085	1.488516E-009	0.0457903	5
	50	17	9.93114	78313.68	-108131.5	1	133512	-54.08626	1.105687E-009	0.0457946	5
	51	18	7.944915	87846.98	-124431.3	1	152316.3	-54.77837	-1.215684E-009	0.0457903	5
	52	18	6.317385	100440.7	-143797.3	1	175402.4	-55.06616	3.768191E-010	0.0457788	5
	53	19	5.008013	113983.9	-167006.7	1	202196.9	-55.68604	5.53669E-010	0.0457958	5
	54	20	3.945707	130235.2	-194824.1	1	234345.1	-56.23824	6.740969E-011	0.0457834	5
	55	21	3.158693	147472.2	-226260.1	1	270077.2	-56.90442	2.691374E-010	0.0457953	5
	56	22	2.504006	168734.9	-264344.8	1	313607.5	-57.44936	8.073221E-011	0.0457931	5
	57	24	1.998082	192652.4	-308050.2	1	363331.6	-57.97843	-6.100162E-011	0.0457537	5
	58	25	1.584686	221192.3	-359417.3	1	422027	-58.39105	9.451975E-011	0.0457945	5
	59	27	1.266892	254866.4	-418269.9	1	489802.6	-58.64459	1.516469E-010	0.0458204	5
	60	30	0.999041	296049.6	-492060.5	1	574255.1	-58.96666	1.694841E-010	0.045826	5
