EXPLAIN
TAG	EISPOT
TITLE	LABEL	Potentiostatic EIS	Test &Identifier
DATE	LABEL	1/25/2020	Date
TIME	LABEL	13:38:04	Time
NOTES	NOTES	6	&Notes...
	
	
	
	
	
	
PSTAT	PSTAT	REF600-11020	Potentiostat
VDC	POTEN	0.00000E+000	T	DC &Voltage (V)
FREQINIT	QUANT	1.00000E+006	Initial Fre&q. (Hz)
FREQFINAL	QUANT	1.00000E+000	Final Fre&q. (Hz)
PTSPERDEC	QUANT	1.00000E+001	Points/&decade
VAC	QUANT	2.50000E+001	AC &Voltage (mV rms)
AREA	QUANT	1.00000E-001	&Area (cm^2)
CONDIT	TWOPARAM	F	5.00000E+000	0.00000E+000	Conditionin&g	Time(s)	E(V)
DELAY	TWOPARAM	F	5.00000E+000	0.00000E+000	Init. De&lay	Time(s)	Stab.(mV/s)
SPEED	SELECTOR	0	&Optimize for:
ZGUESS	QUANT	5.00000E+002	E&stimated Z (ohms)
OCVCURVE	TABLE	39
	Pt	T	Vf	Vm	Ach	Over
	#	s	V vs. Ref.	V	V	bits
	0	0.258333	1.25016E-003	1.25016E-003	6.48146E-004	...........
	1	0.516667	1.25072E-003	1.27966E-003	6.50680E-004	...........
	2	0.775	1.25397E-003	1.29613E-003	6.57880E-004	...........
	3	1.03333	1.26191E-003	1.28616E-003	6.56313E-004	...........
	4	1.29167	1.27221E-003	1.25801E-003	6.53280E-004	...........
	5	1.55	1.27804E-003	1.23933E-003	6.53346E-004	...........
	6	1.80833	1.27488E-003	1.25968E-003	6.48680E-004	...........
	7	2.06667	1.26609E-003	1.26296E-003	6.49880E-004	...........
	8	2.325	1.25895E-003	1.25547E-003	6.49580E-004	...........
	9	2.58333	1.25641E-003	1.25057E-003	6.52380E-004	...........
	10	2.84167	1.25584E-003	1.24450E-003	6.49713E-004	...........
	11	3.1	1.25423E-003	1.24520E-003	6.46246E-004	...........
	12	3.35833	1.25117E-003	1.24243E-003	6.49480E-004	...........
	13	3.61667	1.24779E-003	1.23984E-003	6.52046E-004	...........
	14	3.875	1.24480E-003	1.23361E-003	6.46613E-004	...........
	15	4.13333	1.24187E-003	1.22966E-003	6.46113E-004	...........
	16	4.39167	1.23856E-003	1.23007E-003	6.53013E-004	...........
	17	4.65	1.23507E-003	1.22785E-003	6.52680E-004	...........
	18	4.90833	1.23207E-003	1.22732E-003	6.57180E-004	...........
	19	5.16667	1.22984E-003	1.22375E-003	6.50813E-004	...........
	20	5.425	1.22804E-003	1.22059E-003	6.52146E-004	...........
	21	5.68333	1.22608E-003	1.21637E-003	6.51113E-004	...........
	22	5.94167	1.22357E-003	1.21353E-003	6.56780E-004	...........
	23	6.2	1.22058E-003	1.21414E-003	6.48780E-004	...........
	24	6.45833	1.21764E-003	1.21100E-003	6.52980E-004	...........
	25	6.71667	1.21513E-003	1.20728E-003	6.57013E-004	...........
	26	6.975	1.21291E-003	1.20535E-003	6.61913E-004	...........
	27	7.23333	1.21061E-003	1.20422E-003	6.55413E-004	...........
	28	7.49167	1.20828E-003	1.20314E-003	6.61046E-004	...........
	29	7.75	1.20617E-003	1.20040E-003	6.57379E-004	...........
	30	8.00833	1.20442E-003	1.20308E-003	6.51713E-004	...........
	31	8.26667	1.20305E-003	1.19852E-003	6.50780E-004	...........
	32	8.525	1.20194E-003	1.19728E-003	6.51113E-004	...........
	33	8.78333	1.20059E-003	1.18759E-003	6.53546E-004	...........
	34	9.04167	1.19834E-003	1.18811E-003	6.53513E-004	...........
	35	9.3	1.19509E-003	1.18673E-003	6.55913E-004	...........
	36	9.5583	1.19167E-003	1.18727E-003	6.57846E-004	...........
	37	9.8167	1.18904E-003	1.18475E-003	6.52846E-004	...........
	38	10.075	1.18746E-003	1.18874E-003	6.54146E-004	...........
EOC	QUANT	0.0011875	Open Circuit (V)
PSTATMODEL	IQUANT	4	Pstat Model
PSTATSECTION	LABEL	REF600-11020	Pstat Section
PSTATSERIALNO	LABEL	11020	Pstat Serial Number
CTRLMODE	IQUANT	1	Control Mode
IESTAB	IQUANT	0	I/E Stability
CASPEED	IQUANT	1	Control Amp Speed
CONVENTION	IQUANT	1	Current Convention
ICHRANGE	IQUANT	2	Ich Range
ICHRANGEMODE	TOGGLE	F	Ich Auto Range
ICHOFFSETENABLE	TOGGLE	T	Ich Offset Enable
ICHOFFSET	QUANT	0	Ich Offset (V)
ICHFILTER	IQUANT	3	Ich Filter
VCHRANGE	IQUANT	2	Vch Range
VCHRANGEMODE	TOGGLE	F	Vch Auto Range
VCHOFFSETENABLE	TOGGLE	T	Vch Offset Enable
VCHOFFSET	QUANT	0	Vch Offset (V)
VCHFILTER	IQUANT	3	Vch Filter
ACHRANGE	IQUANT	2	Ach Range
ACHOFFSETENABLE	TOGGLE	F	Ach Offset Enable
ACHOFFSET	QUANT	0	Ach Offset (V)
ACHFILTER	IQUANT	3	Ach Filter
IERANGELOWERLIMIT	IQUANT	1	I/E Range Lower Limit
IERANGEMODE	TOGGLE	F	I/E AutoRange
IERANGE	IQUANT	6	I/E Range
POSFEEDENABLE	TOGGLE	F	Positive Feedback IR Comp
POSFEEDRESISTANCE	QUANT	0	Positive Feedback Resistance (ohm)
ACHSELECT	IQUANT	0	Ach Select
CABLEID	IQUANT	14	Cable ID
DCCALDATE	LABEL	12/22/2019	DC Calibration Date
ACCALDATE	LABEL	12/22/2019	AC Calibration Date
THERMOSELECT	IQUANT	1	Thermo Select
FRAMEWORKVERSION	QUANT	6.33	Framework Version
INSTRUMENTVERSION	LABEL	3.50	Instrument Version
ZCURVE	TABLE
	Pt	Time	Freq	Zreal	Zimag	Zsig	Zmod	Zphz	Idc	Vdc	IERange
	#	s	Hz	ohm	ohm	V	ohm	°	A	V	#
	0	1	1000078	2001.467	-1580.445	1	2550.23	-38.29615	4.384233E-006	0.002982	8
	1	1	794390.6	2313.403	-1576.364	1	2799.421	-34.27072	8.580202E-007	0.0028337	8
	2	1	630984.4	2605.014	-1541.987	1	3027.18	-30.62258	-5.846554E-007	0.0031717	8
	3	2	501234.4	2876.086	-1476.736	1	3233.051	-27.17839	2.112985E-006	0.0026458	8
	4	2	398109.4	3124.668	-1396.945	1	3422.719	-24.08798	-1.969026E-006	0.0033291	8
	5	2	316265.6	3333.09	-1290.259	1	3574.109	-21.16172	4.188873E-007	0.0028439	8
	6	3	251203.1	3520.879	-1190.825	1	3716.807	-18.68647	2.740511E-006	0.0024709	8
	7	3	199546.9	3688.718	-1101.522	1	3849.674	-16.62663	1.583737E-007	0.0028425	8
	8	3	158578.1	3813.217	-1019.493	1	3947.15	-14.96837	-3.579436E-007	0.0029213	8
	9	3	125953.1	3955.129	-920.276	1	4060.783	-13.09847	-5.682964E-008	0.0029845	7
	10	4	100078.1	4052.129	-862.1745	1	4142.836	-12.01174	3.393358E-008	0.0028502	7
	11	4	79453.13	4149.263	-825.6668	1	4230.615	-11.25434	3.07816E-008	0.0027627	7
	12	4	63140.62	4240.459	-799.8221	1	4315.23	-10.68146	-1.562318E-008	0.0028423	7
	13	5	50203.12	4327.837	-786.0573	1	4398.643	-10.29431	-2.641216E-008	0.0028808	7
	14	5	39890.62	4413.14	-784.8833	1	4482.393	-10.08469	-2.272725E-008	0.0028556	7
	15	5	31640.63	4501.282	-796.3304	1	4571.179	-10.0325	-1.228834E-008	0.0029002	7
	16	6	25171.88	4587.726	-819.9485	1	4660.423	-10.13328	-2.169274E-008	0.0028543	7
	17	6	20015.62	4678.629	-852.7533	1	4755.708	-10.32966	5.308464E-008	0.0027429	7
	18	6	15890.62	4773.938	-905.0665	1	4858.974	-10.73501	-1.522469E-008	0.0028769	7
	19	7	12609.37	4875.808	-967.386	1	4970.849	-11.22204	-1.201641E-008	0.0029019	7
	20	7	10078.13	4976.938	-1041.764	1	5084.799	-11.82237	3.302721E-008	0.0028347	7
	21	7	8015.625	5082.917	-1134.363	1	5207.958	-12.58064	-2.91547E-008	0.002875	7
	22	8	6328.125	5199.85	-1249.856	1	5347.951	-13.51545	-1.308218E-008	0.0028984	7
	23	8	5015.625	5317.145	-1388.538	1	5495.458	-14.63557	-1.66983E-008	0.0028257	7
	24	8	3984.375	5436.57	-1557.384	1	5655.24	-15.98513	7.373726E-009	0.0027943	7
	25	9	3170.956	5564.455	-1767.077	1	5838.298	-17.61804	3.863878E-009	0.0028327	7
	26	9	2527.573	5694.253	-2020.707	1	6042.167	-19.53814	-2.306791E-008	0.002836	7
	27	9	1976.103	5845.056	-2363.467	1	6304.812	-22.0161	-1.655901E-008	0.0028249	7
	28	9	1577.524	6003.944	-2744.563	1	6601.513	-24.56641	4.128418E-008	0.0027428	7
	29	10	1265.625	6160.028	-3224.078	1	6952.742	-27.62697	-2.929217E-008	0.0028666	7
	30	10	998.264	6360.353	-3844.56	1	7432.007	-31.15116	3.085505E-008	0.0027415	7
	31	10	796.875	6583.1	-4574.26	1	8016.3	-34.79346	7.102385E-008	0.0027346	7
	32	11	627.7902	6851.744	-5511.922	1	8793.616	-38.81512	8.921504E-009	0.0027739	7
	33	11	505.5147	7148.341	-6550.708	1	9695.9	-42.502	-1.575037E-009	0.0028069	6
	34	11	397.9953	7526.203	-7950.491	1	10947.79	-46.57035	3.606776E-010	0.0028418	6
	35	12	315.5048	7969.446	-9612.53	1	12486.51	-50.33895	2.400384E-010	0.0028423	6
	36	12	252.4038	8476.458	-11554.42	1	14330.21	-53.7358	3.135958E-010	0.00283	6
	37	12	198.6229	9130.432	-14096.9	1	16795.46	-57.06924	5.224133E-010	0.0028349	6
	38	13	158.3615	9876.11	-17033.42	1	19689.46	-59.89452	5.064534E-010	0.0028337	6
	39	13	125.558	10799.78	-20705.27	1	23352.58	-62.45365	6.570701E-010	0.0028301	6
	40	13	100.4464	11886.99	-24990.39	1	27673.46	-64.56132	7.716701E-010	0.0028294	6
	41	14	79.00281	13358.85	-30651.33	1	33435.95	-66.45085	2.260278E-010	0.0028282	6
	42	14	63.3446	14865.29	-37136.26	1	40000.98	-68.18424	4.075664E-010	0.0028302	6
	43	14	49.86702	17198.23	-45469.2	1	48613.03	-69.28142	5.83112E-011	0.0028315	6
	44	15	39.72458	20128.79	-55145.19	1	58704	-69.94719	2.091202E-010	0.0028272	6
	45	15	31.6723	23822.06	-66830.8	1	70949.61	-70.38122	1.530844E-010	0.0028292	6
	46	15	24.93351	28844.44	-81614.38	1	86561.59	-70.53539	5.111148E-010	0.002826	6
	47	16	19.86229	35054.97	-98530.8	1	104580.9	-70.41562	6.54956E-010	0.0028368	6
	48	16	15.83615	43762.09	-118122.1	1	125968.1	-69.67126	1.279913E-009	0.002826	5
	49	16	12.40079	55430.98	-143524	1	153856.2	-68.88275	1.587161E-009	0.0028255	5
	50	17	9.93114	68663.13	-170863.8	1	184144.2	-68.10684	1.141234E-009	0.0028279	5
	51	17	7.944915	85691.98	-202023	1	219445.7	-67.01482	2.675924E-010	0.0028213	5
	52	18	6.317385	108138.4	-237970.5	1	261388.4	-65.56203	4.722287E-011	0.002826	5
	53	18	5.008013	136552.2	-278755.2	1	310404.5	-63.90142	-1.412881E-010	0.0028159	5
	54	19	3.945707	172462.2	-325483.6	1	368351.4	-62.08247	2.934626E-010	0.0028246	5
	55	20	3.158693	210888.1	-371336.3	1	427041.4	-60.40703	3.282581E-011	0.002843	5
	56	22	2.504006	258106.7	-424361.2	1	496690.6	-58.69103	-1.584232E-010	0.0028296	5
	57	23	1.998082	308022.9	-478150.6	1	568775.9	-57.21051	4.174156E-011	0.002848	5
	58	25	1.584686	365860.3	-540820.5	1	652947.6	-55.922	1.508321E-010	0.002876	5
	59	27	1.266892	423822.8	-608030.6	1	741165.9	-55.12188	1.13555E-010	0.0028421	5
	60	29	0.999041	490326.5	-688141.6	1	844960.9	-54.52871	9.134287E-011	0.002815	5
