EXPLAIN
TAG	EISPOT
TITLE	LABEL	Potentiostatic EIS	Test &Identifier
DATE	LABEL	2/25/2020	Date
TIME	LABEL	15:16:06	Time
NOTES	NOTES	1	&Notes...
	
PSTAT	PSTAT	REF600-11020	Potentiostat
VDC	POTEN	0.00000E+000	T	DC &Voltage (V)
FREQINIT	QUANT	1.00000E+006	Initial Fre&q. (Hz)
FREQFINAL	QUANT	1.00000E+000	Final Fre&q. (Hz)
PTSPERDEC	QUANT	1.00000E+001	Points/&decade
VAC	QUANT	2.50000E+001	AC &Voltage (mV rms)
AREA	QUANT	1.60000E-004	&Area (cm^2)
CONDIT	TWOPARAM	F	1.50000E+001	0.00000E+000	Conditionin&g	Time(s)	E(V)
DELAY	TWOPARAM	F	1.00000E+002	0.00000E+000	Init. De&lay	Time(s)	Stab.(mV/s)
SPEED	SELECTOR	1	&Optimize for:
ZGUESS	QUANT	1.00000E+003	E&stimated Z (ohms)
OCVCURVE	TABLE	39
	Pt	T	Vf	Vm	Ach	Over
	#	s	V vs. Ref.	V	V	bits
	0	0.258333	2.22093E+000	2.22093E+000	5.73771E-004	...........
	1	0.516667	2.21868E+000	2.10298E+000	5.73737E-004	...........
	2	0.775	2.20459E+000	1.97780E+000	5.69904E-004	...........
	3	1.03333	2.16371E+000	1.84904E+000	5.73638E-004	...........
	4	1.29167	2.08837E+000	1.73427E+000	5.72404E-004	...........
	5	1.55	1.98545E+000	1.62967E+000	5.72671E-004	...........
	6	1.80833	1.86974E+000	1.53057E+000	5.70938E-004	...........
	7	2.06667	1.75396E+000	1.43620E+000	5.72538E-004	...........
	8	2.325	1.64450E+000	1.35020E+000	5.67871E-004	...........
	9	2.58333	1.54282E+000	1.26606E+000	5.68138E-004	...........
	10	2.84167	1.44824E+000	1.18886E+000	5.76537E-004	...........
	11	3.1	1.35968E+000	1.11377E+000	5.70338E-004	...........
	12	3.35833	1.27636E+000	1.04850E+000	5.69471E-004	...........
	13	3.61667	1.19800E+000	9.84021E-001	5.74937E-004	...........
	14	3.875	1.12466E+000	9.26397E-001	5.76637E-004	...........
	15	4.13333	1.05626E+000	8.68450E-001	5.74437E-004	...........
	16	4.39167	9.92360E-001	8.16297E-001	5.77338E-004	...........
	17	4.65	9.32368E-001	7.67068E-001	5.72771E-004	...........
	18	4.90833	8.75916E-001	7.20519E-001	5.68038E-004	...........
	19	5.16667	8.22804E-001	6.74593E-001	5.72538E-004	...........
	20	5.425	7.72727E-001	6.32833E-001	5.69004E-004	...........
	21	5.68333	7.25295E-001	5.92062E-001	5.69338E-004	...........
	22	5.94167	6.80240E-001	5.53267E-001	5.74471E-004	...........
	23	6.2	6.37430E-001	5.18752E-001	5.73937E-004	...........
	24	6.45833	5.96858E-001	4.84248E-001	5.78537E-004	...........
	25	6.71667	5.58556E-001	4.52183E-001	5.74671E-004	...........
	26	6.975	5.22455E-001	4.23110E-001	5.75837E-004	...........
	27	7.23333	4.88499E-001	3.97455E-001	5.76271E-004	...........
	28	7.49167	4.56788E-001	3.70809E-001	5.71571E-004	...........
	29	7.75	4.27356E-001	3.47963E-001	5.77771E-004	...........
	30	8.00833	3.99963E-001	3.23129E-001	5.77538E-004	...........
	31	8.26667	3.74225E-001	3.02791E-001	5.78337E-004	...........
	32	8.525	3.49857E-001	2.81987E-001	5.74571E-004	...........
	33	8.78333	3.26812E-001	2.64056E-001	5.73671E-004	...........
	34	9.04167	3.05138E-001	2.44624E-001	5.74437E-004	...........
	35	9.3	2.84766E-001	2.28250E-001	5.69471E-004	...........
	36	9.5583	2.65505E-001	2.10708E-001	5.69371E-004	...........
	37	9.8167	2.47172E-001	1.95249E-001	5.75137E-004	...........
	38	10.075	2.29644E-001	1.79401E-001	5.67138E-004	...........
EOC	QUANT	0.229644	Open Circuit (V)
PSTATMODEL	IQUANT	4	Pstat Model
PSTATSECTION	LABEL	REF600-11020	Pstat Section
PSTATSERIALNO	LABEL	11020	Pstat Serial Number
CTRLMODE	IQUANT	1	Control Mode
IESTAB	IQUANT	0	I/E Stability
CASPEED	IQUANT	1	Control Amp Speed
CONVENTION	IQUANT	1	Current Convention
ICHRANGE	IQUANT	2	Ich Range
ICHRANGEMODE	TOGGLE	F	Ich Auto Range
ICHOFFSETENABLE	TOGGLE	T	Ich Offset Enable
ICHOFFSET	QUANT	0	Ich Offset (V)
ICHFILTER	IQUANT	3	Ich Filter
VCHRANGE	IQUANT	2	Vch Range
VCHRANGEMODE	TOGGLE	F	Vch Auto Range
VCHOFFSETENABLE	TOGGLE	T	Vch Offset Enable
VCHOFFSET	QUANT	0	Vch Offset (V)
VCHFILTER	IQUANT	3	Vch Filter
ACHRANGE	IQUANT	2	Ach Range
ACHOFFSETENABLE	TOGGLE	F	Ach Offset Enable
ACHOFFSET	QUANT	0	Ach Offset (V)
ACHFILTER	IQUANT	3	Ach Filter
IERANGELOWERLIMIT	IQUANT	1	I/E Range Lower Limit
IERANGEMODE	TOGGLE	F	I/E AutoRange
IERANGE	IQUANT	8	I/E Range
POSFEEDENABLE	TOGGLE	F	Positive Feedback IR Comp
POSFEEDRESISTANCE	QUANT	0	Positive Feedback Resistance (ohm)
ACHSELECT	IQUANT	0	Ach Select
CABLEID	IQUANT	14	Cable ID
DCCALDATE	LABEL	1/27/2020	DC Calibration Date
ACCALDATE	LABEL	1/27/2020	AC Calibration Date
THERMOSELECT	IQUANT	1	Thermo Select
FRAMEWORKVERSION	QUANT	6.33	Framework Version
INSTRUMENTVERSION	LABEL	3.50	Instrument Version
ZCURVE	TABLE
	Pt	Time	Freq	Zreal	Zimag	Zsig	Zmod	Zphz	Idc	Vdc	IERange
	#	s	Hz	ohm	ohm	V	ohm	°	A	V	#
	0	1	1000078	509.157	-5245.429	1	5270.082	-84.45585	4.306679E-007	0.2322386	8
	1	2	794390.6	532.0701	-6560.15	1	6581.692	-85.3631	5.744052E-007	0.2315881	8
	2	4	630984.4	625.855	-8181.275	1	8205.179	-85.62548	-3.284503E-007	0.2316826	8
	3	5	501234.4	769.8602	-10189.92	1	10218.96	-85.67944	-8.71023E-009	0.2314415	8
	4	7	398109.4	927.3757	-12730.03	1	12763.77	-85.8334	-2.494187E-007	0.2314568	8
	5	9	316265.6	1072.357	-15821.94	1	15858.24	-86.12262	-7.389106E-008	0.2312955	8
	6	10	251203.1	1245.862	-19972.43	1	20011.25	-86.43056	-4.978461E-008	0.2314371	8
	7	12	199546.9	1591.083	-24909.78	1	24960.54	-86.34526	-4.207442E-008	0.2313097	8
	8	13	158578.1	1867.257	-30850.78	1	30907.24	-86.53637	1.338323E-006	0.2310314	8
	9	15	125953.1	2411.712	-38769.33	1	38844.27	-86.44041	-2.833127E-007	0.2321445	7
	10	16	100078.1	2794.102	-48443.03	1	48523.54	-86.69894	2.357376E-008	0.2312056	7
	11	18	79453.13	3378.213	-60693.86	1	60787.8	-86.81421	2.096295E-009	0.231226	7
	12	19	63140.62	4067.702	-75656.23	1	75765.51	-86.92242	4.28624E-008	0.2311766	7
	13	20	50203.12	5011.492	-94607.11	1	94739.75	-86.96778	-1.99171E-008	0.2312848	7
	14	22	39890.62	6045.826	-118141.4	1	118296	-87.07047	-2.72359E-008	0.2313105	7
	15	24	31640.63	7730.148	-147814.4	1	148016.4	-87.00637	-3.491012E-008	0.2313108	7
	16	25	25171.88	8653.661	-184707.3	1	184909.9	-87.31762	-2.012781E-008	0.2313419	7
	17	27	20015.62	10269.85	-231325.3	1	231553.1	-87.45798	4.203449E-008	0.2311708	7
	18	28	15890.62	11372.97	-290535.6	1	290758.1	-87.75831	8.685661E-009	0.2313103	7
	19	30	12609.37	18885	-360904.6	1	361398.3	-87.00462	7.231657E-009	0.2312041	6
	20	31	10078.13	22500.82	-450836.5	1	451397.6	-87.14279	-5.267005E-009	0.231332	6
	21	33	8015.625	27004.72	-561136.1	1	561785.5	-87.24476	2.536778E-009	0.2312794	6
	22	34	6328.125	33877.15	-705058.5	1	705871.9	-87.24913	1.591251E-009	0.2311733	6
	23	36	5015.625	41097.34	-887090.9	1	888042.4	-87.34749	-2.946448E-010	0.2312132	6
	24	38	3984.375	53436.89	-1106934	1	1108223	-87.23621	-6.249106E-009	0.2313113	6
	25	39	3170.956	81127.69	-1377864	1	1380250	-86.63036	-6.205905E-009	0.2313074	6
	26	41	2527.573	71348.33	-1724046	1	1725522	-87.63021	3.506784E-009	0.2312666	6
	27	43	1976.103	32122.57	-2231223	1	2231454	-89.17518	1.028608E-008	0.2311096	6
	28	44	1577.524	265698.9	-2706386	1	2719397	-84.39297	-4.439055E-009	0.2312704	6
	29	46	1265.625	166371.6	-3398562	1	3402632	-87.1974	-3.321954E-010	0.2313119	5
	30	48	998.264	210749.1	-4309213	1	4314363	-87.20009	1.00169E-010	0.2312468	5
	31	49	796.875	294188.9	-5170696	1	5179058	-86.74364	6.632003E-010	0.2311247	5
	32	51	627.7902	397085.8	-6636965	1	6648833	-86.57611	-5.779344E-010	0.2312725	5
	33	52	505.5147	484001.6	-8459049	1	8472884	-86.72527	8.50051E-010	0.2310498	5
	34	53	397.9953	173805.7	-1.039722E+007	1	1.039867E+007	-89.0423	7.199179E-011	0.2312576	5
	35	55	315.5048	575147.3	-1.255517E+007	1	1.256834E+007	-87.37714	-5.99133E-011	0.2312563	5
	36	56	252.4038	346732.8	-1.661893E+007	1	1.662255E+007	-88.80477	-4.048422E-010	0.2312519	5
	37	58	198.6229	909152.9	-2.061678E+007	1	2.063682E+007	-87.47502	-1.292304E-010	0.231253	5
	38	59	158.3615	3598339	-2.404792E+007	1	2.431565E+007	-81.48985	1.918539E-010	0.23125	5
	39	61	125.558	-680089	-2.86139E+007	1	2.862198E+007	-91.36153	2.35259E-010	0.2311994	4
	40	62	100.4464	915733	-3.412771E+007	1	3.414E+007	-88.46297	1.892705E-011	0.2311984	4
	41	64	79.00281	-5.065204E+007	-4.115755E+007	1	6.52654E+007	-140.9043	2.186347E-010	0.2311987	4
	42	66	63.3446	-394126.1	1.037318E+007	1	1.038067E+007	92.17589	2.466669E-010	0.2312532	5
	43	68	49.86702	-8085778	-3.871236E+007	1	3.954778E+007	-101.7977	-3.624947E-011	0.2311953	4
	44	70	39.72458	1.568908E+008	9.993093E+007	1	1.860132E+008	32.49493	-1.227508E-010	0.2311987	4
	45	71	31.6723	6.212801E+007	-2471094	1	6.217713E+007	-2.277695	2.147303E-010	0.2311957	4
	46	73	24.93351	4.917748E+007	-1.973461E+008	1	2.033812E+008	-76.00723	4.033262E-011	0.2312487	5
	47	75	19.86229	3.66862E+008	-3.147293E+007	1	3.682095E+008	-4.903374	7.990924E-011	0.2311953	4
	48	76	15.83615	6877575	-3.402247E+007	1	3.471066E+007	-78.57178	3.561933E-010	0.2311908	4
	49	78	12.40079	7875419	-2.901936E+007	1	3.006901E+007	-74.81649	-4.950867E-010	0.2312034	4
	50	80	9.93114	-9.644082E+007	2.56673E+008	1	2.741931E+008	110.5929	-9.773689E-011	0.2311921	4
	51	82	7.944915	1.953884E+008	1.913112E+008	1	2.734531E+008	44.39592	-8.041764E-011	0.2311917	4
	52	84	6.317385	8.693625E+007	-5.415279E+008	1	5.484618E+008	-80.87962	1.127533E-011	0.2312138	4
	53	87	5.008013	-2.712943E+008	-1.59695E+009	1	1.61983E+009	-99.6415	-4.379216E-012	0.2311881	4
	54	90	3.945707	6.396412E+008	7.811813E+008	1	1.009646E+009	50.68895	4.356933E-011	0.2311918	4
	55	94	3.158693	2.619837E+008	-1.187352E+009	1	1.215912E+009	-77.55732	1.341187E-011	0.2311818	4
	56	98	2.504006	3.162539E+008	-2.15212E+009	1	2.175233E+009	-81.64022	2.473887E-011	0.2312532	3
	57	103	1.998082	7.953638E+008	-2.389427E+009	1	2.518326E+009	-71.58905	2.434314E-011	0.2312086	3
	58	108	1.584686	4.619959E+008	-3.415265E+009	1	3.446372E+009	-82.29615	2.573685E-011	0.23129	3
	59	114	1.266892	4.702943E+008	-6.447363E+009	1	6.464493E+009	-85.82803	6.002328E-012	0.2312347	2
	60	122	0.999041	1.245143E+009	-8.478224E+009	1	8.56917E+009	-81.64506	6.81487E-012	0.2312516	2
