EXPLAIN
TAG	EISPOT
TITLE	LABEL	Potentiostatic EIS	Test &Identifier
DATE	LABEL	9/11/2020	Date
TIME	LABEL	20:26:45	Time
NOTES	NOTES	1	&Notes...
	
PSTAT	PSTAT	REF600-11020	Potentiostat
VDC	POTEN	0.00000E+000	T	DC &Voltage (V)
FREQINIT	QUANT	1.00000E+006	Initial Fre&q. (Hz)
FREQFINAL	QUANT	1.00000E+000	Final Fre&q. (Hz)
PTSPERDEC	QUANT	1.00000E+001	Points/&decade
VAC	QUANT	2.50000E+001	AC &Voltage (mV rms)
AREA	QUANT	4.00000E-005	&Area (cm^2)
CONDIT	TWOPARAM	F	5.00000E+000	0.00000E+000	Conditionin&g	Time(s)	E(V)
DELAY	TWOPARAM	F	3.00000E+000	0.00000E+000	Init. De&lay	Time(s)	Stab.(mV/s)
SPEED	SELECTOR	0	&Optimize for:
ZGUESS	QUANT	1.00000E+003	E&stimated Z (ohms)
OCVCURVE	TABLE	39
	Pt	T	Vf	Vm	Ach	Over
	#	s	V vs. Ref.	V	V	bits
	0	0.258333	-1.52625E-001	-1.52625E-001	5.33426E-004	...........
	1	0.516667	-1.52625E-001	-1.52632E-001	5.33992E-004	...........
	2	0.775	-1.52626E-001	-1.52636E-001	5.30992E-004	...........
	3	1.03333	-1.52628E-001	-1.52644E-001	5.34159E-004	...........
	4	1.29167	-1.52632E-001	-1.52653E-001	5.23459E-004	...........
	5	1.55	-1.52637E-001	-1.52660E-001	5.32692E-004	...........
	6	1.80833	-1.52644E-001	-1.52669E-001	5.30192E-004	...........
	7	2.06667	-1.52652E-001	-1.52675E-001	5.36092E-004	...........
	8	2.325	-1.52660E-001	-1.52682E-001	5.32292E-004	...........
	9	2.58333	-1.52667E-001	-1.52690E-001	5.34159E-004	...........
	10	2.84167	-1.52675E-001	-1.52695E-001	5.34692E-004	...........
	11	3.1	-1.52682E-001	-1.52699E-001	5.35259E-004	...........
	12	3.35833	-1.52688E-001	-1.52706E-001	5.32292E-004	...........
	13	3.61667	-1.52694E-001	-1.52714E-001	5.35559E-004	...........
	14	3.875	-1.52700E-001	-1.52719E-001	5.37459E-004	...........
	15	4.13333	-1.52706E-001	-1.52725E-001	5.32959E-004	...........
	16	4.39167	-1.52712E-001	-1.52732E-001	5.38092E-004	...........
	17	4.65	-1.52718E-001	-1.52739E-001	5.38926E-004	...........
	18	4.90833	-1.52725E-001	-1.52742E-001	5.38859E-004	...........
	19	5.16667	-1.52731E-001	-1.52748E-001	5.37826E-004	...........
	20	5.425	-1.52737E-001	-1.52752E-001	5.36226E-004	...........
	21	5.68333	-1.52742E-001	-1.52757E-001	5.34392E-004	...........
	22	5.94167	-1.52747E-001	-1.52764E-001	5.32459E-004	...........
	23	6.2	-1.52752E-001	-1.52772E-001	5.31026E-004	...........
	24	6.45833	-1.52758E-001	-1.52777E-001	5.33959E-004	...........
	25	6.71667	-1.52764E-001	-1.52785E-001	5.35192E-004	...........
	26	6.975	-1.52771E-001	-1.52792E-001	5.34259E-004	...........
	27	7.23333	-1.52777E-001	-1.52797E-001	5.28259E-004	...........
	28	7.49167	-1.52784E-001	-1.52804E-001	5.31726E-004	...........
	29	7.75	-1.52791E-001	-1.52807E-001	5.35592E-004	...........
	30	8.00833	-1.52797E-001	-1.52813E-001	5.29459E-004	...........
	31	8.26667	-1.52802E-001	-1.52816E-001	5.32326E-004	...........
	32	8.525	-1.52807E-001	-1.52823E-001	5.32226E-004	...........
	33	8.78333	-1.52812E-001	-1.52830E-001	5.23492E-004	...........
	34	9.04167	-1.52817E-001	-1.52835E-001	5.27726E-004	...........
	35	9.3	-1.52823E-001	-1.52839E-001	5.33126E-004	...........
	36	9.5583	-1.52829E-001	-1.52846E-001	5.26859E-004	...........
	37	9.8167	-1.52834E-001	-1.52852E-001	5.26559E-004	...........
	38	10.075	-1.52840E-001	-1.52857E-001	5.38126E-004	...........
EOC	QUANT	-0.1528399	Open Circuit (V)
PSTATMODEL	IQUANT	4	Pstat Model
PSTATSECTION	LABEL	REF600-11020	Pstat Section
PSTATSERIALNO	LABEL	11020	Pstat Serial Number
CTRLMODE	IQUANT	1	Control Mode
IESTAB	IQUANT	0	I/E Stability
CASPEED	IQUANT	1	Control Amp Speed
CONVENTION	IQUANT	1	Current Convention
ICHRANGE	IQUANT	2	Ich Range
ICHRANGEMODE	TOGGLE	F	Ich Auto Range
ICHOFFSETENABLE	TOGGLE	T	Ich Offset Enable
ICHOFFSET	QUANT	0	Ich Offset (V)
ICHFILTER	IQUANT	3	Ich Filter
VCHRANGE	IQUANT	2	Vch Range
VCHRANGEMODE	TOGGLE	F	Vch Auto Range
VCHOFFSETENABLE	TOGGLE	T	Vch Offset Enable
VCHOFFSET	QUANT	0	Vch Offset (V)
VCHFILTER	IQUANT	3	Vch Filter
ACHRANGE	IQUANT	2	Ach Range
ACHOFFSETENABLE	TOGGLE	F	Ach Offset Enable
ACHOFFSET	QUANT	0	Ach Offset (V)
ACHFILTER	IQUANT	3	Ach Filter
IERANGELOWERLIMIT	IQUANT	1	I/E Range Lower Limit
IERANGEMODE	TOGGLE	F	I/E AutoRange
IERANGE	IQUANT	8	I/E Range
POSFEEDENABLE	TOGGLE	F	Positive Feedback IR Comp
POSFEEDRESISTANCE	QUANT	0	Positive Feedback Resistance (ohm)
ACHSELECT	IQUANT	0	Ach Select
CABLEID	IQUANT	14	Cable ID
DCCALDATE	LABEL	9/1/2020	DC Calibration Date
ACCALDATE	LABEL	9/1/2020	AC Calibration Date
THERMOSELECT	IQUANT	1	Thermo Select
FRAMEWORKVERSION	QUANT	6.33	Framework Version
INSTRUMENTVERSION	LABEL	3.50	Instrument Version
ZCURVE	TABLE
	Pt	Time	Freq	Zreal	Zimag	Zsig	Zmod	Zphz	Idc	Vdc	IERange
	#	s	Hz	ohm	ohm	V	ohm	°	A	V	#
	0	1	1000078	2004.541	-1940.466	1	2789.909	-44.06949	1.041686E-007	-0.1505539	8
	1	1	794390.6	2362.561	-2048.369	1	3126.902	-40.92569	-1.188208E-008	-0.1508597	8
	2	2	630984.4	2738.64	-2125.836	1	3466.89	-37.81997	7.515198E-008	-0.1510247	8
	3	2	501234.4	3131.643	-2161.753	1	3805.308	-34.61707	4.32745E-008	-0.1511559	8
	4	2	398109.4	3519.407	-2155.361	1	4126.961	-31.4842	1.631438E-008	-0.1511692	8
	5	3	316265.6	3895.72	-2115.268	1	4432.944	-28.50073	8.93008E-008	-0.151195	8
	6	3	251203.1	4257.554	-2053.939	1	4727.095	-25.7537	4.550617E-008	-0.1512407	8
	7	3	199546.9	4594.742	-1957.486	1	4994.337	-23.07534	6.816481E-008	-0.1512353	8
	8	4	158578.1	4899.121	-1848.648	1	5236.304	-20.67364	1.090227E-007	-0.1512529	8
	9	4	125953.1	5207.647	-1703.912	1	5479.316	-18.1178	6.151717E-010	-0.1512206	7
	10	4	100078.1	5450.25	-1578.699	1	5674.286	-16.15399	2.466737E-009	-0.1512529	7
	11	5	79453.13	5665.535	-1470.239	1	5853.195	-14.54769	1.596313E-009	-0.1512626	7
	12	5	63140.62	5853.315	-1368.959	1	6011.269	-13.16359	2.958987E-009	-0.1512614	7
	13	5	50203.12	6018.44	-1278.439	1	6152.725	-11.99253	3.075302E-009	-0.1512633	7
	14	6	39890.62	6165.563	-1203.184	1	6281.865	-11.04226	4.398302E-009	-0.1512611	7
	15	6	31640.63	6296.945	-1144.878	1	6400.177	-10.30466	4.330456E-009	-0.1512622	7
	16	6	25171.88	6413.251	-1107.053	1	6508.099	-9.79386	3.15173E-009	-0.1512689	7
	17	7	20015.62	6522.096	-1089.989	1	6612.55	-9.487733	3.694915E-009	-0.1512688	7
	18	7	15890.62	6624.179	-1097.531	1	6714.486	-9.407619	4.300641E-009	-0.1512713	7
	19	7	12609.37	6721.251	-1129.487	1	6815.494	-9.53926	2.801202E-009	-0.151269	7
	20	7	10078.13	6817.328	-1187.999	1	6920.065	-9.88519	3.234533E-009	-0.1512693	7
	21	8	8015.625	6915.962	-1278.227	1	7033.093	-10.4714	3.871812E-009	-0.1512721	7
	22	8	6328.125	7019.75	-1406.784	1	7159.324	-11.33217	2.148599E-009	-0.1512753	7
	23	8	5015.625	7133.142	-1576.571	1	7305.292	-12.46318	3.764456E-009	-0.1512744	7
	24	9	3984.375	7252.177	-1789.734	1	7469.753	-13.86278	3.876044E-009	-0.1512814	7
	25	9	3170.956	7384.871	-2054.712	1	7665.387	-15.5483	3.66397E-009	-0.1512802	7
	26	9	2527.573	7530.208	-2376.231	1	7896.233	-17.5136	1.898257E-009	-0.151282	7
	27	10	1976.103	7715.241	-2811.545	1	8211.561	-20.02247	1.841537E-009	-0.1512782	7
	28	10	1577.524	7911.857	-3300.6	1	8572.715	-22.6445	3.021382E-009	-0.1512815	7
	29	10	1265.625	8133.74	-3877.278	1	9010.605	-25.4867	3.913536E-009	-0.1512865	7
	30	11	998.264	8424.946	-4616.831	1	9607.02	-28.72253	1.678754E-010	-0.1512891	6
	31	11	796.875	8745.773	-5480.524	1	10321.08	-32.07325	1.94249E-010	-0.1512849	6
	32	11	627.7902	9147.54	-6583.993	1	11270.6	-35.74466	4.83185E-010	-0.1512897	6
	33	12	505.5147	9590.53	-7790.361	1	12355.89	-39.08687	-1.76592E-010	-0.1512883	6
	34	12	397.9953	10187.97	-9389.056	1	13854.57	-42.66312	6.822972E-010	-0.1512713	6
	35	12	315.5048	10903.96	-11262.01	1	15675.75	-45.92544	6.996499E-010	-0.151273	6
	36	13	252.4038	11756.08	-13411.86	1	17834.9	-48.76401	5.811194E-010	-0.1512756	6
	37	13	198.6229	12901.67	-16169	1	20685.49	-51.41271	4.941973E-010	-0.151275	6
	38	13	158.3615	14269.32	-19263.16	1	23972.55	-53.47054	5.41455E-010	-0.1512729	6
	39	14	125.558	16032.14	-22994.5	1	28031.7	-55.11516	4.435965E-010	-0.1512721	6
	40	14	100.4464	18152.57	-27173.96	1	32679.35	-56.25654	3.55062E-010	-0.151278	6
	41	14	79.00281	21009.64	-32384.04	1	38602.21	-57.02589	4.901261E-010	-0.1512805	6
	42	15	63.3446	24260.52	-37879.06	1	44982.18	-57.36154	4.232347E-010	-0.1512801	6
	43	15	49.86702	28555.76	-44636.63	1	52989.25	-57.3914	7.483453E-010	-0.151284	6
	44	15	39.72458	33480.12	-51899.62	1	61761.55	-57.17419	7.344725E-010	-0.1512847	6
	45	16	31.6723	39294.45	-60029.07	1	71746.38	-56.79163	3.372276E-010	-0.1512836	6
	46	16	24.93351	46514.43	-69652.59	1	83756.04	-56.26476	1.39991E-009	-0.1512828	6
	47	16	19.86229	54544.83	-79951.7	1	96785.4	-55.69732	1.902709E-009	-0.1512761	6
	48	16	15.83615	63871.09	-91495.69	1	111583.9	-55.08197	-2.000457E-010	-0.1512871	5
	49	17	12.40079	75787.1	-105362.2	1	129787.9	-54.27252	2.178095E-009	-0.1512873	5
	50	17	9.93114	87962.63	-119483.8	1	148370.5	-53.63992	1.862773E-009	-0.1512869	5
	51	17	7.944915	102522	-135165.6	1	169648.2	-52.81998	-7.629818E-010	-0.1512903	5
	52	18	6.317385	119380.1	-153025.8	1	194083.7	-52.04113	5.059258E-010	-0.1513006	5
	53	19	5.008013	138891.6	-172841.6	1	221732	-51.21544	9.348113E-010	-0.151289	5
	54	20	3.945707	161399.9	-194477	1	252727.5	-50.31011	-1.139236E-012	-0.1513022	5
	55	20	3.158693	184721	-217150.8	1	285090	-49.61359	6.131502E-010	-0.1512889	5
	56	21	2.504006	211055.8	-242466.9	1	321457.2	-48.962	1.910908E-010	-0.1512926	5
	57	23	1.998082	238670.9	-270813.9	1	360976.5	-48.60996	-8.122486E-011	-0.1513375	5
	58	24	1.584686	268365.1	-303083.8	1	404820.5	-48.47676	1.297441E-010	-0.1512981	5
	59	26	1.266892	300714.4	-339555.3	1	453571.3	-48.4715	2.430796E-010	-0.1512682	5
	60	29	0.999041	337668	-385924.3	1	512793.6	-48.8154	3.076664E-010	-0.1512628	5
