EXPLAIN
TAG	EISPOT
TITLE	LABEL	Potentiostatic EIS	Test &Identifier
DATE	LABEL	1/7/2020	Date
TIME	LABEL	16:39:05	Time
NOTES	NOTES	5	&Notes...
	
	
	
	
	
PSTAT	PSTAT	REF600-11020	Potentiostat
VDC	POTEN	0.00000E+000	T	DC &Voltage (V)
FREQINIT	QUANT	1.00000E+006	Initial Fre&q. (Hz)
FREQFINAL	QUANT	1.00000E+000	Final Fre&q. (Hz)
PTSPERDEC	QUANT	1.00000E+001	Points/&decade
VAC	QUANT	2.50000E+001	AC &Voltage (mV rms)
AREA	QUANT	1.00000E-001	&Area (cm^2)
CONDIT	TWOPARAM	T	5.00000E+000	0.00000E+000	Conditionin&g	Time(s)	E(V)
DELAY	TWOPARAM	T	5.00000E+000	0.00000E+000	Init. De&lay	Time(s)	Stab.(mV/s)
SPEED	SELECTOR	0	&Optimize for:
ZGUESS	QUANT	1.00000E+003	E&stimated Z (ohms)
OCVCURVE	TABLE	19
	Pt	T	Vf	Vm	Ach	Over
	#	s	V vs. Ref.	V	V	bits
	0	0.258333	9.30227E-003	9.30227E-003	6.52546E-004	...........
	1	0.516667	9.30504E-003	9.44736E-003	6.48380E-004	...........
	2	0.775	9.31842E-003	9.39456E-003	6.45946E-004	...........
	3	1.03333	9.34595E-003	9.43548E-003	6.49813E-004	...........
	4	1.29167	9.38663E-003	9.85134E-003	6.50046E-004	...........
	5	1.55	9.46330E-003	1.03033E-002	6.48013E-004	...........
	6	1.80833	9.61875E-003	1.03914E-002	6.53679E-004	...........
	7	2.06667	9.85457E-003	1.05405E-002	6.50780E-004	...........
	8	2.325	1.01118E-002	1.05898E-002	6.50580E-004	...........
	9	2.58333	1.03316E-002	1.08550E-002	6.52546E-004	...........
	10	2.84167	1.05093E-002	1.11810E-002	6.51713E-004	...........
	11	3.1	1.06802E-002	1.11979E-002	6.53913E-004	...........
	12	3.35833	1.08650E-002	1.14025E-002	6.51280E-004	...........
	13	3.61667	1.10503E-002	1.15283E-002	6.50546E-004	...........
	14	3.875	1.12194E-002	1.16255E-002	6.49613E-004	...........
	15	4.13333	1.13692E-002	1.17561E-002	6.45613E-004	...........
	16	4.39167	1.15032E-002	1.18839E-002	6.45880E-004	...........
	17	4.65	1.16276E-002	1.19899E-002	6.39113E-004	...........
	18	4.90833	1.17483E-002	1.21159E-002	6.42346E-004	...........
EOC	QUANT	0.0117483	Open Circuit (V)
PSTATMODEL	IQUANT	4	Pstat Model
PSTATSECTION	LABEL	REF600-11020	Pstat Section
PSTATSERIALNO	LABEL	11020	Pstat Serial Number
CTRLMODE	IQUANT	1	Control Mode
IESTAB	IQUANT	0	I/E Stability
CASPEED	IQUANT	1	Control Amp Speed
CONVENTION	IQUANT	1	Current Convention
ICHRANGE	IQUANT	2	Ich Range
ICHRANGEMODE	TOGGLE	F	Ich Auto Range
ICHOFFSETENABLE	TOGGLE	T	Ich Offset Enable
ICHOFFSET	QUANT	0	Ich Offset (V)
ICHFILTER	IQUANT	3	Ich Filter
VCHRANGE	IQUANT	2	Vch Range
VCHRANGEMODE	TOGGLE	F	Vch Auto Range
VCHOFFSETENABLE	TOGGLE	T	Vch Offset Enable
VCHOFFSET	QUANT	0	Vch Offset (V)
VCHFILTER	IQUANT	3	Vch Filter
ACHRANGE	IQUANT	2	Ach Range
ACHOFFSETENABLE	TOGGLE	F	Ach Offset Enable
ACHOFFSET	QUANT	0	Ach Offset (V)
ACHFILTER	IQUANT	3	Ach Filter
IERANGELOWERLIMIT	IQUANT	1	I/E Range Lower Limit
IERANGEMODE	TOGGLE	F	I/E AutoRange
IERANGE	IQUANT	7	I/E Range
POSFEEDENABLE	TOGGLE	F	Positive Feedback IR Comp
POSFEEDRESISTANCE	QUANT	0	Positive Feedback Resistance (ohm)
ACHSELECT	IQUANT	0	Ach Select
CABLEID	IQUANT	14	Cable ID
DCCALDATE	LABEL	12/22/2019	DC Calibration Date
ACCALDATE	LABEL	12/22/2019	AC Calibration Date
THERMOSELECT	IQUANT	1	Thermo Select
FRAMEWORKVERSION	QUANT	6.33	Framework Version
INSTRUMENTVERSION	LABEL	3.50	Instrument Version
ZCURVE	TABLE
	Pt	Time	Freq	Zreal	Zimag	Zsig	Zmod	Zphz	Idc	Vdc	IERange
	#	s	Hz	ohm	ohm	V	ohm	°	A	V	#
	0	1	1000078	2114.33	-1879.579	1	2828.994	-41.63618	-1.346082E-005	0.0156324	8
	1	2	794390.6	2408.524	-1984.874	1	3121.011	-39.49207	2.069259E-006	0.0144813	8
	2	2	630984.4	2707.719	-2071.19	1	3409.042	-37.41312	2.725443E-006	0.0127229	8
	3	2	501234.4	3033.275	-2128.652	1	3705.66	-35.05991	-3.382998E-006	0.0138911	8
	4	2	398109.4	3309.883	-2250.128	1	4002.299	-34.20869	2.362637E-007	0.0134506	8
	5	3	316265.6	3684.445	-2379.138	1	4385.822	-32.85134	2.764057E-006	0.0126301	8
	6	3	251203.1	4012.943	-2467.247	1	4710.735	-31.58413	9.177457E-007	0.0130541	8
	7	3	199546.9	4368.38	-2602.402	1	5084.805	-30.78379	8.531064E-007	0.0129597	8
	8	4	158578.1	4791.303	-2799.291	1	5549.109	-30.29536	-2.659154E-006	0.0137246	8
	9	4	125953.1	5238.552	-2786.62	1	5933.606	-28.01051	-4.54302E-007	0.0142081	7
	10	4	100078.1	5729.021	-2925.063	1	6432.548	-27.04747	-2.498562E-008	0.0134006	7
	11	5	79453.13	6255.451	-3032.335	1	6951.67	-25.86183	5.590056E-008	0.0131272	7
	12	5	63140.62	6825.331	-3081.692	1	7488.79	-24.29956	-2.487516E-008	0.013391	7
	13	5	50203.12	7398.141	-3053.555	1	8003.542	-22.42821	5.78966E-008	0.013125	7
	14	6	39890.62	7965.229	-2941.625	1	8491.056	-20.2696	-6.055003E-008	0.0133379	7
	15	6	31640.63	8483.633	-2764.343	1	8922.646	-18.0479	-6.795744E-008	0.0133647	7
	16	6	25171.88	8922.089	-2544.646	1	9277.871	-15.91855	-4.7998E-008	0.0133041	7
	17	7	20015.62	9306.214	-2305.35	1	9587.5	-13.91331	-7.715791E-008	0.0134636	7
	18	7	15890.62	9589.07	-2081.175	1	9812.32	-12.24534	5.876124E-008	0.0131131	7
	19	7	12609.37	9897.37	-1734.626	1	10048.22	-9.94078	-9.992205E-009	0.01348	6
	20	8	10078.13	10046.73	-1591.273	1	10171.97	-9.000152	3.120398E-009	0.0133735	6
	21	8	8015.625	10178.17	-1490.547	1	10286.73	-8.331487	-1.499003E-008	0.0134512	6
	22	8	6328.125	10285.2	-1439.754	1	10385.48	-7.968662	2.073591E-008	0.0130607	6
	23	8	5015.625	10381.85	-1436.706	1	10480.79	-7.878913	-1.051274E-008	0.0134386	6
	24	9	3984.375	10467.76	-1491.685	1	10573.51	-8.110201	-1.489924E-008	0.01345	6
	25	9	3170.956	10543.39	-1592.104	1	10662.92	-8.587073	5.680405E-009	0.0130345	6
	26	9	2527.573	10619.5	-1752.925	1	10763.2	-9.373106	2.710508E-009	0.0133749	6
	27	10	1976.103	10713.59	-2005.011	1	10899.59	-10.60009	2.410276E-008	0.0128811	6
	28	10	1577.524	10792.21	-2319.516	1	11038.66	-12.12977	4.603557E-009	0.0133698	6
	29	10	1265.625	10929.81	-2692.396	1	11256.54	-13.83845	-1.462561E-008	0.0134018	6
	30	11	998.264	11064.09	-3205.334	1	11519.04	-16.15662	6.448176E-009	0.013038	6
	31	11	796.875	11207.23	-3814.055	1	11838.46	-18.79451	-9.048959E-009	0.0135251	6
	32	11	627.7902	11397.03	-4607.278	1	12293.06	-22.01115	4.133478E-009	0.0133613	6
	33	12	505.5147	11591.04	-5492.71	1	12826.61	-25.35514	2.075436E-008	0.0130585	6
	34	12	397.9953	11855.42	-6697.876	1	13616.63	-29.46485	2.677752E-010	0.0133079	6
	35	12	315.5048	12154.2	-8143.819	1	14630.32	-33.82373	4.014643E-010	0.0133083	6
	36	13	252.4038	12499.5	-9853.35	1	15916.22	-38.2487	5.7574E-010	0.0133074	6
	37	13	198.6229	12948.37	-12116.87	1	17733.55	-43.1	3.874401E-010	0.0133096	6
	38	13	158.3615	13483.26	-14760.3	1	19991.62	-47.58887	8.435528E-010	0.0133023	6
	39	14	125.558	14167.28	-18089.17	1	22976.72	-51.93226	5.410835E-010	0.0133073	6
	40	14	100.4464	15019.89	-22012.2	1	26648.34	-55.69257	1.01276E-010	0.0133058	6
	41	14	79.00281	16140.31	-27220.66	1	31646.07	-59.33445	-2.021478E-010	0.0133029	6
	42	15	63.3446	17555.08	-32774.27	1	37179.75	-61.8249	4.878905E-010	0.013303	6
	43	15	49.86702	19603.53	-40539	1	45030.09	-64.19289	-9.95227E-011	0.0132992	6
	44	15	39.72458	21932.71	-49565.95	1	54201.72	-66.13083	6.003814E-010	0.0133105	6
	45	16	31.6723	24991.06	-60234.74	1	65213.32	-67.46671	7.807779E-011	0.0133006	6
	46	16	24.93351	29533.46	-73981.76	1	79658.8	-68.23816	3.032761E-010	0.0133008	6
	47	16	19.86229	35245.66	-89644.01	1	96324	-68.53656	-1.44908E-010	0.0132999	6
	48	17	15.83615	42540.98	-107171.7	1	115306.1	-68.34978	-1.624492E-009	0.0133006	5
	49	17	12.40079	52510.98	-131503.7	1	141600.2	-68.23259	-9.912839E-010	0.0133087	5
	50	17	9.93114	66020.66	-155623.3	1	169048.3	-67.0117	3.543079E-011	0.0132969	5
	51	18	7.944915	81363.57	-184860.5	1	201973.8	-66.24402	1.601827E-010	0.0133023	5
	52	18	6.317385	101776.5	-217444.7	1	240084.7	-64.91772	4.873056E-010	0.0132919	5
	53	19	5.008013	127409.7	-255212.2	1	285248.2	-63.47023	2.43239E-010	0.0132998	5
	54	20	3.945707	159752.7	-296878.5	1	337131.7	-61.71496	-3.161953E-010	0.0132919	5
	55	22	3.158693	195356.8	-340013.1	1	392139.3	-60.12019	-1.088702E-010	0.0132743	5
	56	23	2.504006	238475.2	-389280.5	1	456519.2	-58.50816	7.819239E-011	0.0132851	5
	57	25	1.998082	284771	-439230.2	1	523466.9	-57.043	-2.048633E-010	0.0132644	5
	58	26	1.584686	338649	-497830.8	1	602095.2	-55.77453	-2.19225E-010	0.0132332	5
	59	28	1.266892	394054.9	-560304.7	1	684996.8	-54.88179	-1.82903E-010	0.0132643	5
	60	31	0.999041	459827.8	-633726.1	1	782975.3	-54.03559	-1.284219E-010	0.0132934	5
