EXPLAIN
TAG	EISPOT
TITLE	LABEL	Potentiostatic EIS	Test &Identifier
DATE	LABEL	3/9/2020	Date
TIME	LABEL	21:06:14	Time
NOTES	NOTES	1	&Notes...
	
PSTAT	PSTAT	REF600-11020	Potentiostat
VDC	POTEN	0.00000E+000	T	DC &Voltage (V)
FREQINIT	QUANT	1.00000E+006	Initial Fre&q. (Hz)
FREQFINAL	QUANT	1.00000E+000	Final Fre&q. (Hz)
PTSPERDEC	QUANT	1.00000E+001	Points/&decade
VAC	QUANT	2.50000E+001	AC &Voltage (mV rms)
AREA	QUANT	4.00000E-005	&Area (cm^2)
CONDIT	TWOPARAM	F	5.00000E+000	0.00000E+000	Conditionin&g	Time(s)	E(V)
DELAY	TWOPARAM	T	3.00000E+000	0.00000E+000	Init. De&lay	Time(s)	Stab.(mV/s)
SPEED	SELECTOR	0	&Optimize for:
ZGUESS	QUANT	1.00000E+003	E&stimated Z (ohms)
OCVCURVE	TABLE	12
	Pt	T	Vf	Vm	Ach	Over
	#	s	V vs. Ref.	V	V	bits
	0	0.258333	-5.21407E-001	-5.21407E-001	6.40596E-004	...........
	1	0.516667	-5.20592E-001	-4.78710E-001	6.40762E-004	...........
	2	0.775	-5.15615E-001	-4.39912E-001	6.40462E-004	...........
	3	1.03333	-5.01693E-001	-4.05330E-001	6.43062E-004	...........
	4	1.29167	-4.77256E-001	-3.74462E-001	6.36262E-004	...........
	5	1.55	-4.45716E-001	-3.46760E-001	6.37596E-004	...........
	6	1.80833	-4.12197E-001	-3.21722E-001	6.41162E-004	...........
	7	2.06667	-3.80274E-001	-2.99332E-001	6.40662E-004	...........
	8	2.325	-3.51381E-001	-2.79170E-001	6.36462E-004	...........
	9	2.58333	-3.25643E-001	-2.61123E-001	6.35729E-004	...........
	10	2.84167	-3.02718E-001	-2.44844E-001	6.30462E-004	...........
	11	3.1	-2.82215E-001	-2.30103E-001	6.42696E-004	...........
EOC	QUANT	-0.2822149	Open Circuit (V)
PSTATMODEL	IQUANT	4	Pstat Model
PSTATSECTION	LABEL	REF600-11020	Pstat Section
PSTATSERIALNO	LABEL	11020	Pstat Serial Number
CTRLMODE	IQUANT	1	Control Mode
IESTAB	IQUANT	0	I/E Stability
CASPEED	IQUANT	1	Control Amp Speed
CONVENTION	IQUANT	1	Current Convention
ICHRANGE	IQUANT	2	Ich Range
ICHRANGEMODE	TOGGLE	F	Ich Auto Range
ICHOFFSETENABLE	TOGGLE	T	Ich Offset Enable
ICHOFFSET	QUANT	0	Ich Offset (V)
ICHFILTER	IQUANT	3	Ich Filter
VCHRANGE	IQUANT	2	Vch Range
VCHRANGEMODE	TOGGLE	F	Vch Auto Range
VCHOFFSETENABLE	TOGGLE	T	Vch Offset Enable
VCHOFFSET	QUANT	0	Vch Offset (V)
VCHFILTER	IQUANT	3	Vch Filter
ACHRANGE	IQUANT	2	Ach Range
ACHOFFSETENABLE	TOGGLE	F	Ach Offset Enable
ACHOFFSET	QUANT	0	Ach Offset (V)
ACHFILTER	IQUANT	3	Ach Filter
IERANGELOWERLIMIT	IQUANT	1	I/E Range Lower Limit
IERANGEMODE	TOGGLE	F	I/E AutoRange
IERANGE	IQUANT	8	I/E Range
POSFEEDENABLE	TOGGLE	F	Positive Feedback IR Comp
POSFEEDRESISTANCE	QUANT	0	Positive Feedback Resistance (ohm)
ACHSELECT	IQUANT	0	Ach Select
CABLEID	IQUANT	14	Cable ID
DCCALDATE	LABEL	2/27/2020	DC Calibration Date
ACCALDATE	LABEL	2/27/2020	AC Calibration Date
THERMOSELECT	IQUANT	1	Thermo Select
FRAMEWORKVERSION	QUANT	6.33	Framework Version
INSTRUMENTVERSION	LABEL	3.50	Instrument Version
ZCURVE	TABLE
	Pt	Time	Freq	Zreal	Zimag	Zsig	Zmod	Zphz	Idc	Vdc	IERange
	#	s	Hz	ohm	ohm	V	ohm	°	A	V	#
	0	1	1000078	794.0541	-6459.319	1	6507.943	-82.99171	8.698006E-009	-0.2798193	8
	1	2	794390.6	884.2246	-8069.771	1	8118.069	-83.7469	1.780228E-008	-0.2801695	8
	2	2	630984.4	1020.516	-10056.16	1	10107.81	-84.20537	9.815967E-009	-0.2803222	8
	3	2	501234.4	1129.572	-12537.97	1	12588.75	-84.852	4.535255E-008	-0.2804391	8
	4	3	398109.4	1356.844	-15628.46	1	15687.25	-85.03809	2.619714E-008	-0.2805358	8
	5	3	316265.6	1599.3	-19466.05	1	19531.64	-85.30322	9.332246E-009	-0.2805409	8
	6	3	251203.1	1805.275	-24247.44	1	24314.55	-85.74206	4.690988E-008	-0.2805648	8
	7	4	199546.9	2152.193	-30340.27	1	30416.51	-85.94251	5.467559E-008	-0.2805722	8
	8	4	158578.1	2561.2	-37872.07	1	37958.57	-86.13111	4.369081E-008	-0.280575	8
	9	4	125953.1	3809.444	-47446.98	1	47599.66	-85.40966	4.168705E-009	-0.2806427	7
	10	5	100078.1	4387.662	-59153.69	1	59316.19	-85.75791	2.645002E-009	-0.2806554	7
	11	5	79453.13	5035.531	-73879.59	1	74051	-86.10083	2.380327E-009	-0.2806565	7
	12	5	63140.62	6068.978	-92328.44	1	92527.69	-86.23922	2.33704E-009	-0.2806645	7
	13	6	50203.12	6950.956	-115162.2	1	115371.7	-86.54593	2.632032E-009	-0.2806652	7
	14	6	39890.62	8534.053	-143710.6	1	143963.8	-86.60156	2.843828E-009	-0.2806544	7
	15	6	31640.63	10403.54	-180240.8	1	180540.7	-86.69654	2.855626E-009	-0.2806696	7
	16	7	25171.88	12364.95	-224539.6	1	224879.8	-86.84802	3.600602E-009	-0.280661	7
	17	7	20015.62	15120.8	-279996.6	1	280404.6	-86.90883	3.137148E-009	-0.2806643	7
	18	7	15890.62	19330.78	-350003.5	1	350536.9	-86.83875	2.551991E-009	-0.2806672	7
	19	8	12609.37	30791.23	-439786.3	1	440862.9	-85.99503	5.418521E-010	-0.2806236	6
	20	8	10078.13	35825.25	-546035.9	1	547209.9	-86.24622	6.117828E-010	-0.2806244	6
	21	8	8015.625	42747.07	-684136.5	1	685470.7	-86.42462	5.915616E-010	-0.2806196	6
	22	8	6328.125	50285.61	-857450	1	858923.3	-86.6437	5.947407E-010	-0.2806177	6
	23	9	5015.625	64022.39	-1069527	1	1071441	-86.57433	5.565374E-010	-0.2806239	6
	24	9	3984.375	81401.63	-1336193	1	1338670	-86.51382	5.390976E-010	-0.280622	6
	25	9	3170.956	96816.5	-1667184	1	1669993	-86.67646	4.63752E-010	-0.280626	6
	26	10	2527.573	112597.3	-2078324	1	2081372	-86.89892	5.752304E-010	-0.2806301	6
	27	10	1976.103	131815.7	-2639473	1	2642762	-87.14101	5.567186E-010	-0.2806267	6
	28	10	1577.524	210600.6	-3281632	1	3288383	-86.32805	4.748129E-010	-0.2806323	6
	29	11	1265.625	298652	-4063430	1	4074391	-85.79646	2.746732E-011	-0.2806211	5
	30	11	998.264	367420.2	-5116300	1	5129477	-85.89243	4.413888E-012	-0.2806325	5
	31	11	796.875	435962.9	-6346996	1	6361952	-86.07063	5.352322E-012	-0.2806329	5
	32	12	627.7902	521405.4	-7982921	1	7999930	-86.26303	-1.581153E-012	-0.2806335	5
	33	12	505.5147	659603.3	-9.870099E+006	1	9.892115E+006	-86.1767	1.165659E-011	-0.2806372	5
	34	12	397.9953	773302.1	-1.240665E+007	1	1.243072E+007	-86.43339	8.668042E-012	-0.2806175	5
	35	13	315.5048	950649	-1.553445E+007	1	1.556351E+007	-86.49809	8.767422E-012	-0.2806205	5
	36	13	252.4038	1195200	-1.927095E+007	1	1.930798E+007	-86.45102	7.055671E-012	-0.2806202	5
	37	13	198.6229	1492824	-2.427578E+007	1	2.432164E+007	-86.48106	4.956181E-012	-0.2806206	5
	38	14	158.3615	1850964	-3.016502E+007	1	3.022176E+007	-86.48866	8.057976E-012	-0.2806217	5
	39	14	125.558	2932305	-3.791298E+007	1	3.80262E+007	-85.57738	-2.258226E-011	-0.280624	4
	40	14	100.4464	3559467	-4.693307E+007	1	4.706785E+007	-85.66292	-2.345317E-011	-0.2806258	4
	41	15	79.00281	4490058	-5.910027E+007	1	5.927059E+007	-85.65538	-2.313888E-011	-0.2806282	4
	42	15	63.3446	5584852	-7.32087E+007	1	7.342142E+007	-85.63754	-2.285398E-011	-0.2806306	4
	43	15	49.86702	7407700	-9.292942E+007	1	9.322419E+007	-85.44241	-2.279643E-011	-0.2806313	4
	44	16	39.72458	8924825	-1.150205E+008	1	1.153662E+008	-85.56312	-2.242081E-011	-0.2806279	4
	45	16	31.6723	1.174305E+007	-1.422449E+008	1	1.427288E+008	-85.28064	-2.283488E-011	-0.2806287	4
	46	16	24.93351	1.438115E+007	-1.79083E+008	1	1.796595E+008	-85.40875	-2.264397E-011	-0.2806321	4
	47	17	19.86229	1.942608E+007	-2.232044E+008	1	2.240482E+008	-85.02592	-2.244079E-011	-0.2806216	4
	48	17	15.83615	2.732698E+007	-2.769686E+008	1	2.783134E+008	-84.36517	-2.31616E-011	-0.2806281	4
	49	17	12.40079	4.086913E+007	-3.485714E+008	1	3.509591E+008	-83.31274	-2.2315E-011	-0.2806171	3
	50	17	9.93114	5.35245E+007	-4.290214E+008	1	4.323474E+008	-82.88855	-2.245081E-011	-0.2806191	3
	51	18	7.944915	7.417754E+007	-5.344168E+008	1	5.395402E+008	-82.09778	-2.247798E-011	-0.2806157	3
	52	18	6.317385	9.695667E+007	-6.546836E+008	1	6.618241E+008	-81.5759	-2.262008E-011	-0.2806323	3
	53	19	5.008013	1.3481E+008	-8.132956E+008	1	8.243928E+008	-80.58836	-2.244834E-011	-0.2806295	3
	54	20	3.945707	1.858367E+008	-1.010484E+009	1	1.027431E+009	-79.57926	-2.245808E-011	-0.2806334	3
	55	21	3.158693	2.567558E+008	-1.238169E+009	1	1.26451E+009	-78.28477	-2.231317E-011	-0.2806333	3
	56	22	2.504006	3.680556E+008	-1.524983E+009	1	1.56877E+009	-76.43112	-2.228828E-011	-0.2806256	3
	57	23	1.998082	5.064171E+008	-1.847986E+009	1	1.916118E+009	-74.67504	-2.220703E-011	-0.280673	3
	58	25	1.584686	7.230308E+008	-2.241786E+009	1	2.355499E+009	-72.12422	-2.207395E-011	-0.2806455	3
	59	27	1.266892	1.04363E+009	-2.651887E+009	1	2.849854E+009	-68.51826	-2.170358E-011	-0.280598	2
	60	29	0.999041	1.458496E+009	-3.177818E+009	1	3.496532E+009	-65.34669	-2.168243E-011	-0.2805821	2
