EXPLAIN
TAG	EISPOT
TITLE	LABEL	Potentiostatic EIS	Test &Identifier
DATE	LABEL	1/14/2020	Date
TIME	LABEL	18:59:27	Time
NOTES	NOTES	5	&Notes...
	
	
	
	
	
PSTAT	PSTAT	REF600-11020	Potentiostat
VDC	POTEN	0.00000E+000	T	DC &Voltage (V)
FREQINIT	QUANT	1.00000E+006	Initial Fre&q. (Hz)
FREQFINAL	QUANT	1.00000E+000	Final Fre&q. (Hz)
PTSPERDEC	QUANT	1.00000E+001	Points/&decade
VAC	QUANT	2.50000E+001	AC &Voltage (mV rms)
AREA	QUANT	1.00000E-001	&Area (cm^2)
CONDIT	TWOPARAM	T	5.00000E+000	0.00000E+000	Conditionin&g	Time(s)	E(V)
DELAY	TWOPARAM	T	5.00000E+000	0.00000E+000	Init. De&lay	Time(s)	Stab.(mV/s)
SPEED	SELECTOR	0	&Optimize for:
ZGUESS	QUANT	5.00000E+002	E&stimated Z (ohms)
OCVCURVE	TABLE	19
	Pt	T	Vf	Vm	Ach	Over
	#	s	V vs. Ref.	V	V	bits
	0	0.258333	1.01601E-002	1.01601E-002	6.48480E-004	...........
	1	0.516667	1.01633E-002	1.03283E-002	6.47046E-004	...........
	2	0.775	1.01835E-002	1.05096E-002	6.52113E-004	...........
	3	1.03333	1.02438E-002	1.07832E-002	6.47346E-004	...........
	4	1.29167	1.03601E-002	1.09119E-002	6.53313E-004	...........
	5	1.55	1.05263E-002	1.11837E-002	6.49880E-004	...........
	6	1.80833	1.07230E-002	1.14075E-002	6.49580E-004	...........
	7	2.06667	1.09341E-002	1.15461E-002	6.52713E-004	...........
	8	2.325	1.11491E-002	1.18237E-002	6.50113E-004	...........
	9	2.58333	1.13607E-002	1.19619E-002	6.51713E-004	...........
	10	2.84167	1.15661E-002	1.21246E-002	6.50346E-004	...........
	11	3.1	1.17628E-002	1.23631E-002	6.47446E-004	...........
	12	3.35833	1.19507E-002	1.24631E-002	6.48580E-004	...........
	13	3.61667	1.21314E-002	1.26411E-002	6.51046E-004	...........
	14	3.875	1.23049E-002	1.28544E-002	6.49113E-004	...........
	15	4.13333	1.24732E-002	1.29312E-002	6.56513E-004	...........
	16	4.39167	1.26381E-002	1.31392E-002	6.57346E-004	...........
	17	4.65	1.27989E-002	1.32935E-002	6.50646E-004	...........
	18	4.90833	1.29559E-002	1.33614E-002	6.55613E-004	...........
EOC	QUANT	0.0129559	Open Circuit (V)
PSTATMODEL	IQUANT	4	Pstat Model
PSTATSECTION	LABEL	REF600-11020	Pstat Section
PSTATSERIALNO	LABEL	11020	Pstat Serial Number
CTRLMODE	IQUANT	1	Control Mode
IESTAB	IQUANT	0	I/E Stability
CASPEED	IQUANT	1	Control Amp Speed
CONVENTION	IQUANT	1	Current Convention
ICHRANGE	IQUANT	2	Ich Range
ICHRANGEMODE	TOGGLE	F	Ich Auto Range
ICHOFFSETENABLE	TOGGLE	T	Ich Offset Enable
ICHOFFSET	QUANT	0	Ich Offset (V)
ICHFILTER	IQUANT	3	Ich Filter
VCHRANGE	IQUANT	2	Vch Range
VCHRANGEMODE	TOGGLE	F	Vch Auto Range
VCHOFFSETENABLE	TOGGLE	T	Vch Offset Enable
VCHOFFSET	QUANT	0	Vch Offset (V)
VCHFILTER	IQUANT	3	Vch Filter
ACHRANGE	IQUANT	2	Ach Range
ACHOFFSETENABLE	TOGGLE	F	Ach Offset Enable
ACHOFFSET	QUANT	0	Ach Offset (V)
ACHFILTER	IQUANT	3	Ach Filter
IERANGELOWERLIMIT	IQUANT	1	I/E Range Lower Limit
IERANGEMODE	TOGGLE	F	I/E AutoRange
IERANGE	IQUANT	7	I/E Range
POSFEEDENABLE	TOGGLE	F	Positive Feedback IR Comp
POSFEEDRESISTANCE	QUANT	0	Positive Feedback Resistance (ohm)
ACHSELECT	IQUANT	0	Ach Select
CABLEID	IQUANT	14	Cable ID
DCCALDATE	LABEL	12/22/2019	DC Calibration Date
ACCALDATE	LABEL	12/22/2019	AC Calibration Date
THERMOSELECT	IQUANT	1	Thermo Select
FRAMEWORKVERSION	QUANT	6.33	Framework Version
INSTRUMENTVERSION	LABEL	3.50	Instrument Version
ZCURVE	TABLE
	Pt	Time	Freq	Zreal	Zimag	Zsig	Zmod	Zphz	Idc	Vdc	IERange
	#	s	Hz	ohm	ohm	V	ohm	°	A	V	#
	0	1	1000078	1843.195	-752.0219	1	1990.704	-22.19542	-4.681724E-006	0.0158356	8
	1	2	794390.6	1958.213	-693.9551	1	2077.54	-19.5134	3.45376E-006	0.014604	8
	2	2	630984.4	2049.088	-632.5199	1	2144.491	-17.1546	-1.255719E-006	0.014763	8
	3	2	501234.4	2128.797	-571.8481	1	2204.266	-15.03612	-9.159349E-007	0.01505	8
	4	3	398109.4	2198.427	-521.6454	1	2259.468	-13.34835	-3.124368E-008	0.0147097	8
	5	3	316265.6	2248.539	-486.8344	1	2300.638	-12.21662	-6.196335E-008	0.0145953	8
	6	3	251203.1	2305.379	-458.8828	1	2350.605	-11.25752	-5.219092E-008	0.0145838	8
	7	4	199546.9	2347.531	-435.1935	1	2387.529	-10.50246	3.871136E-007	0.0146052	8
	8	4	158578.1	2394.203	-428.3357	1	2432.217	-10.14321	3.014829E-006	0.0139903	8
	9	4	125953.1	2447.653	-401.5596	1	2480.374	-9.316892	-9.531025E-009	0.0145467	7
	10	5	100078.1	2492.091	-404.2871	1	2524.671	-9.214706	1.104784E-008	0.01456	7
	11	5	79453.13	2538.545	-419.8619	1	2573.032	-9.391399	5.744323E-008	0.0145273	7
	12	5	63140.62	2587.748	-440.9761	1	2625.052	-9.67083	-3.818076E-008	0.0146151	7
	13	6	50203.12	2640.619	-466.2471	1	2681.466	-10.01336	8.59273E-009	0.0145269	7
	14	6	39890.62	2696.728	-495.8472	1	2741.935	-10.4186	-3.796217E-008	0.0146359	7
	15	6	31640.63	2756.663	-531.269	1	2807.39	-10.9084	-3.331312E-008	0.0146038	7
	16	6	25171.88	2819.375	-572.5318	1	2876.919	-11.47899	-3.869352E-008	0.0146166	7
	17	7	20015.62	2884.895	-621.0715	1	2950.991	-12.14943	-2.943316E-009	0.0145396	7
	18	7	15890.62	2955.227	-676.5557	1	3031.682	-12.89481	8.761402E-009	0.0145234	7
	19	7	12609.37	3028.038	-743.7938	1	3118.052	-13.80065	4.308638E-008	0.0144756	7
	20	8	10078.13	3101.593	-821.9186	1	3208.649	-14.84216	2.631537E-008	0.0145364	7
	21	8	8015.625	3182.585	-917.5365	1	3312.208	-16.08223	6.636096E-009	0.0146194	7
	22	8	6328.125	3270.435	-1037.843	1	3431.161	-17.60637	4.517414E-008	0.0144816	7
	23	9	5015.625	3364.728	-1181.941	1	3566.284	-19.35504	7.626122E-008	0.0144543	7
	24	9	3984.375	3467.153	-1351.113	1	3721.109	-21.29034	9.819339E-009	0.0145203	7
	25	9	3170.956	3579.28	-1559.713	1	3904.35	-23.54573	-2.185381E-009	0.0145306	7
	26	10	2527.573	3703.718	-1804.342	1	4119.852	-25.97398	5.618818E-008	0.0145148	7
	27	10	1976.103	3855.444	-2125.225	1	4402.389	-28.86474	-1.500119E-008	0.0145511	7
	28	10	1577.524	4008.467	-2495.003	1	4721.53	-31.89951	-3.250827E-008	0.0145976	7
	29	11	1265.625	4172.695	-2894.047	1	5078.079	-34.74393	-1.551847E-008	0.0145485	7
	30	11	998.264	4371.622	-3437.598	1	5561.309	-38.17952	-2.642217E-009	0.0145294	7
	31	11	796.875	4584.968	-4068.744	1	6129.976	-41.58615	-1.038651E-008	0.0145872	7
	32	12	627.7902	4841.363	-4878.169	1	6872.797	-45.21697	-6.665681E-009	0.0145327	7
	33	12	505.5147	5108.806	-5787.095	1	7719.479	-48.56217	5.708195E-008	0.0145098	7
	34	12	397.9953	5462.59	-7004.682	1	8882.875	-52.05117	6.165002E-009	0.0145692	7
	35	13	315.5048	5879.646	-8455.852	1	10299.11	-55.18778	7.072757E-010	0.014565	6
	36	13	252.4038	6364.324	-10150.86	1	11981.01	-57.91337	5.610944E-010	0.0145681	6
	37	13	198.6229	7004.787	-12363.23	1	14209.73	-60.46489	1.987399E-010	0.0145706	6
	38	13	158.3615	7754.374	-14903.28	1	16799.95	-62.51145	3.719665E-011	0.014568	6
	39	14	125.558	8703.201	-18050.16	1	20038.81	-64.25814	4.848362E-011	0.0145679	6
	40	14	100.4464	9831.03	-21700.74	1	23823.76	-65.62817	4.229664E-010	0.014567	6
	41	14	79.00281	11337.26	-26441.87	1	28769.88	-66.7922	-4.379572E-011	0.0145685	6
	42	15	63.3446	13150.63	-31547.16	1	34178.39	-67.37088	8.971855E-011	0.0145653	6
	43	15	49.86702	15526.04	-38396.89	1	41417.13	-67.98372	2.329368E-010	0.0145677	6
	44	16	39.72458	18303.16	-46191.26	1	49685.39	-68.38419	2.180996E-010	0.0145745	6
	45	16	31.6723	21845.36	-55353.32	1	59508.06	-68.46317	2.213986E-010	0.014571	6
	46	16	24.93351	26575.76	-66895.32	1	71980.93	-68.33337	-2.196024E-010	0.0145676	6
	47	17	19.86229	32201.04	-79864.61	1	86111.92	-68.04094	-9.579009E-010	0.0145672	6
	48	17	15.83615	39323.46	-94685.83	1	102526.8	-67.44666	1.202841E-009	0.0145674	6
	49	17	12.40079	48132.02	-113714	1	123481.1	-67.0584	-1.027429E-010	0.014565	5
	50	17	9.93114	58975.91	-133581.4	1	146021	-66.17864	5.988692E-010	0.0145637	5
	51	18	7.944915	71975.22	-156209.9	1	171994.1	-65.26165	2.377152E-010	0.0145621	5
	52	18	6.317385	86845.1	-183791	1	203276.2	-64.70828	-3.632077E-010	0.0145742	5
	53	19	5.008013	105591.3	-215692.7	1	240151.7	-63.91616	-1.539083E-010	0.0145759	5
	54	20	3.945707	128270.2	-253247	1	283879	-63.13767	-1.336037E-010	0.0145675	5
	55	21	3.158693	153646.4	-293967.3	1	331698.6	-62.40551	-2.477619E-010	0.0145797	5
	56	22	2.504006	184538.9	-342618.9	1	389155.9	-61.69253	-4.435629E-010	0.0145722	5
	57	24	1.998082	218408.4	-395603.8	1	451890	-61.09741	-2.50907E-010	0.0145827	5
	58	25	1.584686	259957.6	-460102.6	1	528462.3	-60.53358	-1.814751E-010	0.0146095	5
	59	27	1.266892	304755.4	-531790.3	1	612924.8	-60.18408	-2.073815E-010	0.0145937	5
	60	30	0.999041	360990.3	-618749.2	1	716355	-59.73989	-2.361939E-010	0.014563	5
