EXPLAIN
TAG	EISPOT
TITLE	LABEL	Potentiostatic EIS	Test &Identifier
DATE	LABEL	2/18/2020	Date
TIME	LABEL	15:52:47	Time
NOTES	NOTES	1	&Notes...
	
PSTAT	PSTAT	REF600-11020	Potentiostat
VDC	POTEN	0.00000E+000	T	DC &Voltage (V)
FREQINIT	QUANT	1.00000E+006	Initial Fre&q. (Hz)
FREQFINAL	QUANT	1.00000E+000	Final Fre&q. (Hz)
PTSPERDEC	QUANT	1.00000E+001	Points/&decade
VAC	QUANT	2.50000E+001	AC &Voltage (mV rms)
AREA	QUANT	1.60000E-004	&Area (cm^2)
CONDIT	TWOPARAM	F	1.50000E+001	0.00000E+000	Conditionin&g	Time(s)	E(V)
DELAY	TWOPARAM	F	1.00000E+002	0.00000E+000	Init. De&lay	Time(s)	Stab.(mV/s)
SPEED	SELECTOR	1	&Optimize for:
ZGUESS	QUANT	1.00000E+003	E&stimated Z (ohms)
OCVCURVE	TABLE	39
	Pt	T	Vf	Vm	Ach	Over
	#	s	V vs. Ref.	V	V	bits
	0	0.258333	2.60109E-002	2.60109E-002	5.66304E-004	...........
	1	0.516667	2.60102E-002	2.59776E-002	5.61804E-004	...........
	2	0.775	2.60061E-002	2.59322E-002	5.68004E-004	...........
	3	1.03333	2.59945E-002	2.59489E-002	5.67371E-004	...........
	4	1.29167	2.59777E-002	2.59905E-002	5.66404E-004	...........
	5	1.55	2.59657E-002	2.60033E-002	5.68171E-004	...........
	6	1.80833	2.59660E-002	2.59712E-002	5.70804E-004	...........
	7	2.06667	2.59743E-002	2.59881E-002	5.71271E-004	...........
	8	2.325	2.59809E-002	2.59500E-002	5.71838E-004	...........
	9	2.58333	2.59801E-002	2.59314E-002	5.74771E-004	...........
	10	2.84167	2.59700E-002	2.58676E-002	5.76204E-004	...........
	11	3.1	2.59492E-002	2.58326E-002	5.68904E-004	...........
	12	3.35833	2.59170E-002	2.57521E-002	5.70804E-004	...........
	13	3.61667	2.58741E-002	2.57010E-002	5.70738E-004	...........
	14	3.875	2.58252E-002	2.57910E-002	5.75338E-004	...........
	15	4.13333	2.57829E-002	2.57418E-002	5.72004E-004	...........
	16	4.39167	2.57586E-002	2.57402E-002	5.66504E-004	...........
	17	4.65	2.57492E-002	2.57146E-002	5.72938E-004	...........
	18	4.90833	2.57429E-002	2.56954E-002	5.72971E-004	...........
	19	5.16667	2.57334E-002	2.57355E-002	5.71004E-004	...........
	20	5.425	2.57236E-002	2.57125E-002	5.72004E-004	...........
	21	5.68333	2.57177E-002	2.56996E-002	5.70571E-004	...........
	22	5.94167	2.57141E-002	2.56672E-002	5.71238E-004	...........
	23	6.2	2.57062E-002	2.56170E-002	5.75904E-004	...........
	24	6.45833	2.56887E-002	2.55873E-002	5.73838E-004	...........
	25	6.71667	2.56623E-002	2.56093E-002	5.74637E-004	...........
	26	6.975	2.56351E-002	2.56379E-002	5.71704E-004	...........
	27	7.23333	2.56200E-002	2.57086E-002	5.69304E-004	...........
	28	7.49167	2.56244E-002	2.56692E-002	5.68704E-004	...........
	29	7.75	2.56424E-002	2.56378E-002	5.65238E-004	...........
	30	8.00833	2.56577E-002	2.56242E-002	5.66071E-004	...........
	31	8.26667	2.56561E-002	2.54715E-002	5.65571E-004	...........
	32	8.525	2.56302E-002	2.54380E-002	5.63171E-004	...........
	33	8.78333	2.55847E-002	2.56283E-002	5.62171E-004	...........
	34	9.04167	2.55459E-002	2.56537E-002	5.62338E-004	...........
	35	9.3	2.55433E-002	2.56603E-002	5.67671E-004	...........
	36	9.5583	2.55753E-002	2.56605E-002	5.67038E-004	...........
	37	9.8167	2.56148E-002	2.56132E-002	5.65904E-004	...........
	38	10.075	2.56386E-002	2.56073E-002	5.62404E-004	...........
EOC	QUANT	0.0256386	Open Circuit (V)
PSTATMODEL	IQUANT	4	Pstat Model
PSTATSECTION	LABEL	REF600-11020	Pstat Section
PSTATSERIALNO	LABEL	11020	Pstat Serial Number
CTRLMODE	IQUANT	1	Control Mode
IESTAB	IQUANT	0	I/E Stability
CASPEED	IQUANT	1	Control Amp Speed
CONVENTION	IQUANT	1	Current Convention
ICHRANGE	IQUANT	2	Ich Range
ICHRANGEMODE	TOGGLE	F	Ich Auto Range
ICHOFFSETENABLE	TOGGLE	T	Ich Offset Enable
ICHOFFSET	QUANT	0	Ich Offset (V)
ICHFILTER	IQUANT	3	Ich Filter
VCHRANGE	IQUANT	2	Vch Range
VCHRANGEMODE	TOGGLE	F	Vch Auto Range
VCHOFFSETENABLE	TOGGLE	T	Vch Offset Enable
VCHOFFSET	QUANT	0	Vch Offset (V)
VCHFILTER	IQUANT	3	Vch Filter
ACHRANGE	IQUANT	2	Ach Range
ACHOFFSETENABLE	TOGGLE	F	Ach Offset Enable
ACHOFFSET	QUANT	0	Ach Offset (V)
ACHFILTER	IQUANT	3	Ach Filter
IERANGELOWERLIMIT	IQUANT	1	I/E Range Lower Limit
IERANGEMODE	TOGGLE	F	I/E AutoRange
IERANGE	IQUANT	7	I/E Range
POSFEEDENABLE	TOGGLE	F	Positive Feedback IR Comp
POSFEEDRESISTANCE	QUANT	0	Positive Feedback Resistance (ohm)
ACHSELECT	IQUANT	0	Ach Select
CABLEID	IQUANT	14	Cable ID
DCCALDATE	LABEL	1/27/2020	DC Calibration Date
ACCALDATE	LABEL	1/27/2020	AC Calibration Date
THERMOSELECT	IQUANT	1	Thermo Select
FRAMEWORKVERSION	QUANT	6.33	Framework Version
INSTRUMENTVERSION	LABEL	3.50	Instrument Version
ZCURVE	TABLE
	Pt	Time	Freq	Zreal	Zimag	Zsig	Zmod	Zphz	Idc	Vdc	IERange
	#	s	Hz	ohm	ohm	V	ohm	°	A	V	#
	0	1	1000078	1583.281	-1873.845	1	2453.176	-49.80431	7.11434E-007	0.0280613	8
	1	3	794390.6	1940.586	-2045.636	1	2819.664	-46.50958	-6.949905E-007	0.0277136	8
	2	4	630984.4	2345.968	-2165.628	1	3192.728	-42.71096	-2.8017E-007	0.027825	8
	3	5	501234.4	2757.312	-2220.885	1	3540.494	-38.8498	-3.78442E-006	0.0282465	8
	4	7	398109.4	3210.6	-2244.981	1	3917.638	-34.9628	-1.920842E-008	0.0273582	8
	5	8	316265.6	3647.752	-2166.563	1	4242.651	-30.70797	-3.448497E-007	0.0273164	8
	6	9	251203.1	4039.803	-2058.624	1	4534.087	-27.00271	-1.288701E-006	0.0277022	8
	7	11	199546.9	4429.338	-1908.597	1	4823.046	-23.31116	-3.518623E-007	0.0275463	8
	8	12	158578.1	4699.9	-1714.003	1	5002.686	-20.03637	-1.968627E-007	0.0273044	8
	9	14	125953.1	4971.064	-1508.224	1	5194.826	-16.87783	-8.448852E-007	0.0290256	7
	10	15	100078.1	5172.565	-1329.455	1	5340.682	-14.4142	-2.817808E-008	0.0272898	7
	11	16	79453.13	5333.653	-1167.17	1	5459.866	-12.34353	-1.883873E-009	0.0272874	7
	12	18	63140.62	5457.694	-1018.881	1	5551.985	-10.57465	6.023867E-008	0.0271368	7
	13	19	50203.12	5555.392	-894.1201	1	5626.885	-9.143138	-3.127801E-009	0.027331	7
	14	20	39890.62	5634.391	-791.0054	1	5689.645	-7.991458	-5.656258E-009	0.0273166	7
	15	22	31640.63	5696.146	-708.3907	1	5740.025	-7.089087	-8.417559E-009	0.0272443	7
	16	23	25171.88	5748.648	-648.4366	1	5785.104	-6.435652	4.13611E-008	0.0272558	7
	17	25	20015.62	5792.694	-608.4998	1	5824.566	-5.996705	-8.58009E-009	0.0272407	7
	18	26	15890.62	5832.31	-588.2391	1	5861.899	-5.759301	5.075623E-011	0.0272745	7
	19	27	12609.37	5870.085	-587.4314	1	5899.405	-5.71468	-3.984215E-008	0.0273345	7
	20	29	10078.13	5901.703	-606.1927	1	5932.754	-5.864562	6.17498E-008	0.0271263	7
	21	30	8015.625	5932.467	-647.1066	1	5967.656	-6.225145	4.539749E-009	0.0271899	7
	22	31	6328.125	5971.129	-714.1098	1	6013.679	-6.819827	6.478311E-008	0.0271367	7
	23	33	5015.625	6008.121	-806.1312	1	6061.96	-7.641941	1.076957E-009	0.0272709	7
	24	34	3984.375	6047.031	-927.5241	1	6117.751	-8.720352	-2.633944E-008	0.027287	7
	25	35	3170.956	6091.911	-1084.82	1	6187.747	-10.09713	5.56663E-009	0.0272666	7
	26	37	2527.573	6141.644	-1279.103	1	6273.428	-11.76466	-2.655525E-008	0.0272661	7
	27	38	1976.103	6205.108	-1549.36	1	6395.614	-14.01958	5.960269E-009	0.027275	7
	28	40	1577.524	6272.714	-1856.459	1	6541.665	-16.48653	-2.680482E-008	0.0272889	7
	29	41	1265.625	6351.361	-2227.949	1	6730.791	-19.33	1.017146E-007	0.0271034	7
	30	42	998.264	6453.933	-2719.227	1	7003.388	-22.84708	6.594162E-009	0.027193	7
	31	44	796.875	6571.683	-3296.073	1	7351.946	-26.63637	-2.572389E-008	0.027263	7
	32	45	627.7902	6725.036	-4055.499	1	7853.228	-31.09187	-1.003732E-009	0.027322	7
	33	46	505.5147	6899.093	-4896.93	1	8460.343	-35.36687	1.017493E-007	0.027108	7
	34	48	397.9953	7139.747	-6032.142	1	9346.803	-40.19339	1.06151E-008	0.027259	7
	35	49	315.5048	7439.495	-7392.521	1	10487.87	-44.81854	2.052144E-009	0.0272599	6
	36	50	252.4038	7807.412	-8987.884	1	11905.37	-49.02047	1.220896E-009	0.027262	6
	37	52	198.6229	8315.371	-11081.83	1	13854.69	-53.11687	1.390641E-009	0.0272594	6
	38	53	158.3615	8939.747	-13494.03	1	16186.66	-56.47567	1.096744E-009	0.0272533	6
	39	54	125.558	9772.4	-16490.37	1	19168.52	-59.3485	1.440215E-009	0.027257	6
	40	56	100.4464	10800.17	-19946.28	1	22682.54	-61.5661	1.569127E-009	0.027254	6
	41	57	79.00281	12267.65	-24435.65	1	27342.2	-63.34156	1.77324E-009	0.0272553	6
	42	58	63.3446	13929.55	-29270.08	1	32415.59	-64.55035	1.409868E-009	0.0272533	6
	43	60	49.86702	16471.04	-35876.8	1	39477.08	-65.34015	1.289461E-009	0.0272451	6
	44	61	39.72458	19326.78	-42994.28	1	47138.44	-65.79514	1.300791E-009	0.0272581	6
	45	63	31.6723	23120.62	-51437.76	1	56395.09	-65.79669	1.971411E-009	0.0272522	6
	46	64	24.93351	28172.95	-61708.2	1	67835.22	-65.46088	1.107952E-009	0.0272534	6
	47	65	19.86229	34215.38	-72996.84	1	80617.81	-64.88638	1.250705E-009	0.0272513	6
	48	67	15.83615	41606.8	-85736.16	1	95298.6	-64.11322	1.698381E-009	0.0272501	6
	49	68	12.40079	51235.98	-101740.7	1	113913.6	-63.27046	7.813284E-010	0.0272538	5
	50	70	9.93114	61724.04	-117565.7	1	132783.9	-62.29975	9.725724E-010	0.0272535	5
	51	71	7.944915	73590.98	-135806	1	154463.2	-61.54747	-1.656594E-010	0.0272614	5
	52	73	6.317385	87765.38	-156950.7	1	179823	-60.78649	-1.19475E-010	0.0272644	5
	53	75	5.008013	103887.4	-181470.5	1	209103.2	-60.20993	2.450506E-010	0.0272554	5
	54	77	3.945707	122389.9	-210898.3	1	243838.8	-59.87226	4.426665E-010	0.0272564	5
	55	80	3.158693	142090.2	-242824	1	281341.7	-59.66566	2.226844E-010	0.0272661	5
	56	83	2.504006	165445.7	-282166.9	1	327093.9	-59.6152	6.02073E-011	0.0272433	5
	57	86	1.998082	191202.9	-327143.9	1	378921.7	-59.69538	-1.173007E-010	0.0272571	5
	58	89	1.584686	223678.8	-381582.3	1	442309	-59.62169	1.874493E-010	0.0273047	5
	59	93	1.266892	258878.5	-442817.8	1	512938.3	-59.68874	-1.714817E-010	0.027257	5
	60	97	0.999041	303806.2	-518991.6	1	601373.9	-59.65624	5.13232E-010	0.0272783	5
