EXPLAIN
TAG	EISPOT
TITLE	LABEL	Potentiostatic EIS	Test &Identifier
DATE	LABEL	7/5/2020	Date
TIME	LABEL	16:53:52	Time
NOTES	NOTES	1	&Notes...
	
PSTAT	PSTAT	REF600-11020	Potentiostat
VDC	POTEN	0.00000E+000	T	DC &Voltage (V)
FREQINIT	QUANT	1.00000E+006	Initial Fre&q. (Hz)
FREQFINAL	QUANT	1.00000E+000	Final Fre&q. (Hz)
PTSPERDEC	QUANT	1.00000E+001	Points/&decade
VAC	QUANT	2.50000E+001	AC &Voltage (mV rms)
AREA	QUANT	4.00000E-004	&Area (cm^2)
CONDIT	TWOPARAM	F	5.00000E+000	0.00000E+000	Conditionin&g	Time(s)	E(V)
DELAY	TWOPARAM	F	3.00000E+000	0.00000E+000	Init. De&lay	Time(s)	Stab.(mV/s)
SPEED	SELECTOR	0	&Optimize for:
ZGUESS	QUANT	1.00000E+003	E&stimated Z (ohms)
OCVCURVE	TABLE	39
	Pt	T	Vf	Vm	Ach	Over
	#	s	V vs. Ref.	V	V	bits
	0	0.258333	8.00549E-002	8.00549E-002	5.13550E-004	...........
	1	0.516667	8.00548E-002	8.00472E-002	5.10650E-004	...........
	2	0.775	8.00539E-002	8.00406E-002	5.13417E-004	...........
	3	1.03333	8.00514E-002	8.00342E-002	5.16250E-004	...........
	4	1.29167	8.00470E-002	8.00264E-002	5.13783E-004	...........
	5	1.55	8.00412E-002	8.00256E-002	5.08083E-004	...........
	6	1.80833	8.00352E-002	8.00239E-002	5.06850E-004	...........
	7	2.06667	8.00301E-002	8.00223E-002	5.11117E-004	...........
	8	2.325	8.00273E-002	8.00622E-002	5.12650E-004	...........
	9	2.58333	8.00289E-002	8.00598E-002	5.13750E-004	...........
	10	2.84167	8.00363E-002	8.00630E-002	5.12183E-004	...........
	11	3.1	8.00465E-002	8.00549E-002	5.13383E-004	...........
	12	3.35833	8.00545E-002	8.00582E-002	5.09117E-004	...........
	13	3.61667	8.00581E-002	8.00517E-002	5.08717E-004	...........
	14	3.875	8.00582E-002	8.00557E-002	5.11317E-004	...........
	15	4.13333	8.00566E-002	8.00450E-002	5.08817E-004	...........
	16	4.39167	8.00544E-002	8.00506E-002	5.10284E-004	...........
	17	4.65	8.00522E-002	8.00481E-002	5.10684E-004	...........
	18	4.90833	8.00503E-002	8.00490E-002	5.09284E-004	...........
	19	5.16667	8.00491E-002	8.00425E-002	5.10484E-004	...........
	20	5.425	8.00481E-002	8.00455E-002	5.07384E-004	...........
	21	5.68333	8.00469E-002	8.00406E-002	5.08450E-004	...........
	22	5.94167	8.00454E-002	8.00442E-002	5.06984E-004	...........
	23	6.2	8.00440E-002	8.00393E-002	5.09384E-004	...........
	24	6.45833	8.00430E-002	8.00433E-002	5.12117E-004	...........
	25	6.71667	8.00422E-002	8.00375E-002	5.07583E-004	...........
	26	6.975	8.00415E-002	8.00392E-002	5.07150E-004	...........
	27	7.23333	8.00405E-002	8.00343E-002	5.11550E-004	...........
	28	7.49167	8.00392E-002	8.00302E-002	5.05350E-004	...........
	29	7.75	8.00373E-002	8.00365E-002	5.06650E-004	...........
	30	8.00833	8.00355E-002	8.00387E-002	5.09784E-004	...........
	31	8.26667	8.00348E-002	8.00331E-002	5.08483E-004	...........
	32	8.525	8.00349E-002	8.00297E-002	5.06650E-004	...........
	33	8.78333	8.00347E-002	8.00298E-002	5.05084E-004	...........
	34	9.04167	8.00334E-002	8.00262E-002	5.10517E-004	...........
	35	9.3	8.00313E-002	8.00232E-002	5.01417E-004	...........
	36	9.5583	8.00289E-002	8.00203E-002	5.10684E-004	...........
	37	9.8167	8.00263E-002	8.00166E-002	5.08850E-004	...........
	38	10.075	8.00234E-002	8.00132E-002	5.12883E-004	...........
EOC	QUANT	0.0800234	Open Circuit (V)
PSTATMODEL	IQUANT	4	Pstat Model
PSTATSECTION	LABEL	REF600-11020	Pstat Section
PSTATSERIALNO	LABEL	11020	Pstat Serial Number
CTRLMODE	IQUANT	1	Control Mode
IESTAB	IQUANT	0	I/E Stability
CASPEED	IQUANT	1	Control Amp Speed
CONVENTION	IQUANT	1	Current Convention
ICHRANGE	IQUANT	2	Ich Range
ICHRANGEMODE	TOGGLE	F	Ich Auto Range
ICHOFFSETENABLE	TOGGLE	T	Ich Offset Enable
ICHOFFSET	QUANT	0	Ich Offset (V)
ICHFILTER	IQUANT	3	Ich Filter
VCHRANGE	IQUANT	2	Vch Range
VCHRANGEMODE	TOGGLE	F	Vch Auto Range
VCHOFFSETENABLE	TOGGLE	T	Vch Offset Enable
VCHOFFSET	QUANT	0	Vch Offset (V)
VCHFILTER	IQUANT	3	Vch Filter
ACHRANGE	IQUANT	2	Ach Range
ACHOFFSETENABLE	TOGGLE	F	Ach Offset Enable
ACHOFFSET	QUANT	0	Ach Offset (V)
ACHFILTER	IQUANT	3	Ach Filter
IERANGELOWERLIMIT	IQUANT	1	I/E Range Lower Limit
IERANGEMODE	TOGGLE	F	I/E AutoRange
IERANGE	IQUANT	8	I/E Range
POSFEEDENABLE	TOGGLE	F	Positive Feedback IR Comp
POSFEEDRESISTANCE	QUANT	0	Positive Feedback Resistance (ohm)
ACHSELECT	IQUANT	0	Ach Select
CABLEID	IQUANT	14	Cable ID
DCCALDATE	LABEL	6/26/2020	DC Calibration Date
ACCALDATE	LABEL	6/26/2020	AC Calibration Date
THERMOSELECT	IQUANT	1	Thermo Select
FRAMEWORKVERSION	QUANT	6.33	Framework Version
INSTRUMENTVERSION	LABEL	3.50	Instrument Version
ZCURVE	TABLE
	Pt	Time	Freq	Zreal	Zimag	Zsig	Zmod	Zphz	Idc	Vdc	IERange
	#	s	Hz	ohm	ohm	V	ohm	°	A	V	#
	0	1	1000078	1796.984	-1765.595	1	2519.221	-44.4952	1.405059E-006	0.0830582	8
	1	2	794390.6	2166.866	-1825.667	1	2833.437	-40.1154	-1.095507E-006	0.0827006	8
	2	2	630984.4	2512.073	-1822.679	1	3103.654	-35.96343	-6.560815E-007	0.0814463	8
	3	2	501234.4	2863.997	-1759.812	1	3361.46	-31.56907	-3.259946E-006	0.081694	8
	4	3	398109.4	3179.709	-1652.71	1	3583.573	-27.46396	-8.786034E-007	0.0822465	8
	5	3	316265.6	3444.386	-1526.485	1	3767.487	-23.90199	7.051748E-006	0.0804545	8
	6	3	251203.1	3667.372	-1405.947	1	3927.633	-20.97514	-7.273389E-006	0.0825811	8
	7	4	199546.9	3853.468	-1284.014	1	4061.761	-18.42859	8.291019E-007	0.0821187	8
	8	4	158578.1	4016.479	-1177.574	1	4185.544	-16.34038	8.032346E-006	0.0808668	8
	9	4	125953.1	4152.491	-1095.321	1	4294.521	-14.7766	5.664921E-007	0.0844743	7
	10	5	100078.1	4272.974	-1016.724	1	4392.27	-13.38424	-8.335503E-007	0.0813263	7
	11	5	79453.13	4373.641	-968.504	1	4479.591	-12.48616	-1.246414E-006	0.0821492	7
	12	5	63140.62	4470.672	-949.6327	1	4570.417	-11.99218	2.096887E-007	0.0798749	7
	13	6	50203.12	4563.025	-943.1727	1	4659.482	-11.67851	2.120938E-007	0.0798686	7
	14	6	39890.62	4648.447	-955.153	1	4745.564	-11.6114	-1.389632E-006	0.0835984	7
	15	6	31640.63	4750.739	-995.72	1	4853.965	-11.83742	1.247525E-006	0.0795648	7
	16	6	25171.88	4847.009	-1050.682	1	4959.579	-12.23073	6.645445E-007	0.0795261	7
	17	7	20015.62	4950.374	-1128.735	1	5077.425	-12.84443	2.150848E-007	0.0798627	7
	18	7	15890.62	5059.462	-1228.5	1	5206.474	-13.648	-8.377133E-007	0.0813102	7
	19	7	12609.37	5183.585	-1357.096	1	5358.289	-14.67112	7.065471E-007	0.0819551	7
	20	8	10078.13	5312.156	-1503.457	1	5520.814	-15.80267	-1.156699E-006	0.083711	7
	21	8	8015.625	5464.602	-1686.624	1	5718.966	-17.15259	-1.514268E-006	0.0829144	7
	22	8	6328.125	5638.724	-1911.469	1	5953.9	-18.72613	-1.346245E-006	0.0821595	7
	23	9	5015.625	5824.649	-2175.833	1	6217.78	-20.48348	-1.608522E-006	0.0829342	7
	24	9	3984.375	6039.848	-2489.001	1	6532.603	-22.3964	-1.694487E-006	0.0835371	7
	25	9	3170.956	6285.368	-2855.458	1	6903.585	-24.43242	-9.145986E-007	0.0812377	7
	26	10	2527.573	6554.978	-3276.196	1	7328.109	-26.55601	-1.27981E-006	0.083905	7
	27	10	1976.103	6892.85	-3819.943	1	7880.567	-28.99475	-1.635525E-006	0.0829489	7
	28	10	1577.524	7259.111	-4398.232	1	8487.587	-31.21131	-9.024411E-007	0.0837913	7
	29	11	1265.625	7664.991	-5063.575	1	9186.505	-33.44918	-1.534583E-006	0.0837737	7
	30	11	998.264	8173.495	-5903.62	1	10082.6	-35.84014	1.877667E-008	0.0830104	7
	31	11	796.875	8734.208	-6830.901	1	11088.17	-38.02846	2.951899E-008	0.0786056	6
	32	12	627.7902	9428.719	-7974.253	1	12348.66	-40.22257	2.317196E-007	0.079892	6
	33	12	505.5147	10127.34	-9166.876	1	13659.96	-42.15017	1.69117E-007	0.0777507	6
	34	12	397.9953	11016.91	-10710.14	1	15364.88	-44.19108	3.973208E-010	0.0816183	6
	35	13	315.5048	11998.78	-12471.69	1	17306.46	-46.10715	2.331848E-010	0.0816261	6
	36	13	252.4038	13066.5	-14458.85	1	19488.24	-47.89579	6.120661E-010	0.0816125	6
	37	13	198.6229	14365.85	-16988.7	1	22248.45	-49.78175	8.781206E-010	0.0816211	6
	38	14	158.3615	15769.53	-19841.28	1	25344.71	-51.52288	7.343639E-010	0.0816223	6
	39	14	125.558	17427.37	-23325	1	29116.47	-53.2346	6.085492E-011	0.081622	6
	40	14	100.4464	19256.86	-27338.97	1	33440.19	-54.84014	4.394743E-010	0.0816087	6
	41	15	79.00281	21610.4	-32521.43	1	39046.8	-56.39607	8.200644E-010	0.081607	6
	42	15	63.3446	24108.31	-38016.43	1	45016.21	-57.61897	4.299583E-010	0.0816183	6
	43	15	49.86702	27551.01	-45423.2	1	53125.56	-58.76149	-2.731897E-010	0.0816143	6
	44	16	39.72458	31448.63	-53951.64	1	62448.34	-59.76192	-3.394115E-010	0.0816205	6
	45	16	31.6723	36341.56	-63895.6	1	73507.52	-60.37031	-6.868062E-010	0.0816147	6
	46	16	24.93351	42828.43	-76114.45	1	87336.61	-60.63421	-7.489841E-011	0.0816175	6
	47	17	19.86229	50716.33	-89640.25	1	102992.8	-60.49985	3.535889E-010	0.0816009	5
	48	17	15.83615	60313.78	-105544.2	1	121562	-60.25397	-5.034739E-010	0.0815951	5
	49	17	12.40079	73949.43	-123987.6	1	144365.6	-59.18705	6.386252E-010	0.0816131	5
	50	17	9.93114	88597.34	-143069.4	1	168280.5	-58.23167	-6.384021E-010	0.0816142	5
	51	18	7.944915	105603.2	-163755.4	1	194853.4	-57.18268	-1.580688E-009	0.0816097	5
	52	18	6.317385	127328.8	-186152.3	1	225533.4	-55.62773	5.998124E-010	0.0815938	5
	53	19	5.008013	152306.8	-210554.7	1	259866.6	-54.11955	3.324641E-010	0.081589	5
	54	20	3.945707	179945.2	-236550.2	1	297214.2	-52.73953	-3.288779E-010	0.0816006	5
	55	21	3.158693	208988	-262657.4	1	335655.9	-51.49187	9.32975E-011	0.0815889	5
	56	22	2.504006	240028.1	-292496.4	1	378375	-50.62705	3.151099E-010	0.0815867	5
	57	24	1.998082	270901.7	-323947.4	1	422290.9	-50.09588	-8.116113E-011	0.0815508	5
	58	25	1.584686	302711.9	-363614.5	1	473127.9	-50.22236	-9.124614E-011	0.0815516	5
	59	27	1.266892	332834.4	-408260.1	1	526740	-50.81133	2.675836E-011	0.0815797	5
	60	30	0.999041	366416.2	-466598.7	1	593274.9	-51.85773	7.634987E-011	0.0816097	5
