EXPLAIN
TAG	EISPOT
TITLE	LABEL	Potentiostatic EIS	Test &Identifier
DATE	LABEL	2/28/2020	Date
TIME	LABEL	17:54:23	Time
NOTES	NOTES	1	&Notes...
	
PSTAT	PSTAT	REF600-11020	Potentiostat
VDC	POTEN	0.00000E+000	T	DC &Voltage (V)
FREQINIT	QUANT	1.00000E+006	Initial Fre&q. (Hz)
FREQFINAL	QUANT	1.00000E+000	Final Fre&q. (Hz)
PTSPERDEC	QUANT	1.00000E+001	Points/&decade
VAC	QUANT	2.50000E+001	AC &Voltage (mV rms)
AREA	QUANT	1.60000E-004	&Area (cm^2)
CONDIT	TWOPARAM	F	1.50000E+001	0.00000E+000	Conditionin&g	Time(s)	E(V)
DELAY	TWOPARAM	F	1.00000E+002	0.00000E+000	Init. De&lay	Time(s)	Stab.(mV/s)
SPEED	SELECTOR	1	&Optimize for:
ZGUESS	QUANT	1.00000E+003	E&stimated Z (ohms)
OCVCURVE	TABLE	39
	Pt	T	Vf	Vm	Ach	Over
	#	s	V vs. Ref.	V	V	bits
	0	0.258333	-5.01521E-002	-5.01521E-002	6.50496E-004	...........
	1	0.516667	-5.01477E-002	-4.99224E-002	6.53529E-004	...........
	2	0.775	-5.01184E-002	-4.95813E-002	6.57962E-004	...........
	3	1.03333	-5.00317E-002	-4.94670E-002	6.50896E-004	...........
	4	1.29167	-4.98832E-002	-4.95606E-002	6.50762E-004	...........
	5	1.55	-4.97247E-002	-4.97482E-002	6.51129E-004	...........
	6	1.80833	-4.96378E-002	-5.02622E-002	6.49862E-004	...........
	7	2.06667	-4.96714E-002	-4.98680E-002	6.52162E-004	...........
	8	2.325	-4.97896E-002	-4.99297E-002	6.51195E-004	...........
	9	2.58333	-4.98985E-002	-4.98992E-002	6.50662E-004	...........
	10	2.84167	-4.99438E-002	-4.99234E-002	6.52962E-004	...........
	11	3.1	-4.99423E-002	-4.99150E-002	6.48329E-004	...........
	12	3.35833	-4.99288E-002	-4.99243E-002	6.51562E-004	...........
	13	3.61667	-4.99197E-002	-4.98899E-002	6.52862E-004	...........
	14	3.875	-4.99139E-002	-4.98559E-002	6.50662E-004	...........
	15	4.13333	-4.99083E-002	-5.00437E-002	6.50196E-004	...........
	16	4.39167	-4.99121E-002	-5.00494E-002	6.48296E-004	...........
	17	4.65	-4.99377E-002	-5.00220E-002	6.45962E-004	...........
	18	4.90833	-4.99778E-002	-5.00557E-002	6.47296E-004	...........
	19	5.16667	-5.00112E-002	-4.99550E-002	6.47029E-004	...........
	20	5.425	-5.00236E-002	-4.99643E-002	6.49162E-004	...........
	21	5.68333	-5.00132E-002	-4.98999E-002	6.50096E-004	...........
	22	5.94167	-4.99878E-002	-4.99550E-002	6.45262E-004	...........
	23	6.2	-4.99581E-002	-4.97835E-002	6.45962E-004	...........
	24	6.45833	-4.99199E-002	-4.94823E-002	6.46662E-004	...........
	25	6.71667	-4.98495E-002	-4.94682E-002	6.51362E-004	...........
	26	6.975	-4.97392E-002	-4.95236E-002	6.48996E-004	...........
	27	7.23333	-4.96244E-002	-4.95474E-002	6.49896E-004	...........
	28	7.49167	-4.95478E-002	-4.94748E-002	6.49929E-004	...........
	29	7.75	-4.95193E-002	-4.97163E-002	6.49462E-004	...........
	30	8.00833	-4.95388E-002	-5.01557E-002	6.49662E-004	...........
	31	8.26667	-4.96246E-002	-5.00950E-002	6.59029E-004	...........
	32	8.525	-4.97765E-002	-5.02435E-002	6.57929E-004	...........
	33	8.78333	-4.99457E-002	-5.01116E-002	6.53395E-004	...........
	34	9.04167	-5.00690E-002	-4.98664E-002	6.52362E-004	...........
	35	9.3	-5.01141E-002	-5.02480E-002	6.53862E-004	...........
	36	9.5583	-5.01069E-002	-5.01954E-002	6.53762E-004	...........
	37	9.8167	-5.01034E-002	-5.00951E-002	6.51062E-004	...........
	38	10.075	-5.01199E-002	-5.00858E-002	6.45129E-004	...........
EOC	QUANT	-0.0501199	Open Circuit (V)
PSTATMODEL	IQUANT	4	Pstat Model
PSTATSECTION	LABEL	REF600-11020	Pstat Section
PSTATSERIALNO	LABEL	11020	Pstat Serial Number
CTRLMODE	IQUANT	1	Control Mode
IESTAB	IQUANT	0	I/E Stability
CASPEED	IQUANT	1	Control Amp Speed
CONVENTION	IQUANT	1	Current Convention
ICHRANGE	IQUANT	2	Ich Range
ICHRANGEMODE	TOGGLE	F	Ich Auto Range
ICHOFFSETENABLE	TOGGLE	T	Ich Offset Enable
ICHOFFSET	QUANT	0	Ich Offset (V)
ICHFILTER	IQUANT	3	Ich Filter
VCHRANGE	IQUANT	2	Vch Range
VCHRANGEMODE	TOGGLE	F	Vch Auto Range
VCHOFFSETENABLE	TOGGLE	T	Vch Offset Enable
VCHOFFSET	QUANT	0	Vch Offset (V)
VCHFILTER	IQUANT	3	Vch Filter
ACHRANGE	IQUANT	2	Ach Range
ACHOFFSETENABLE	TOGGLE	F	Ach Offset Enable
ACHOFFSET	QUANT	0	Ach Offset (V)
ACHFILTER	IQUANT	3	Ach Filter
IERANGELOWERLIMIT	IQUANT	1	I/E Range Lower Limit
IERANGEMODE	TOGGLE	F	I/E AutoRange
IERANGE	IQUANT	7	I/E Range
POSFEEDENABLE	TOGGLE	F	Positive Feedback IR Comp
POSFEEDRESISTANCE	QUANT	0	Positive Feedback Resistance (ohm)
ACHSELECT	IQUANT	0	Ach Select
CABLEID	IQUANT	14	Cable ID
DCCALDATE	LABEL	2/27/2020	DC Calibration Date
ACCALDATE	LABEL	2/27/2020	AC Calibration Date
THERMOSELECT	IQUANT	1	Thermo Select
FRAMEWORKVERSION	QUANT	6.33	Framework Version
INSTRUMENTVERSION	LABEL	3.50	Instrument Version
ZCURVE	TABLE
	Pt	Time	Freq	Zreal	Zimag	Zsig	Zmod	Zphz	Idc	Vdc	IERange
	#	s	Hz	ohm	ohm	V	ohm	°	A	V	#
	0	1	1000078	1670.875	-2639.705	1	3124.078	-57.6671	-2.259655E-006	-0.0476531	8
	1	3	794390.6	2077.515	-3009.607	1	3657.021	-55.3829	-3.003031E-006	-0.0471283	8
	2	4	630984.4	2581.257	-3394.764	1	4264.659	-52.75194	3.12767E-006	-0.0487103	8
	3	5	501234.4	3117.766	-3771.255	1	4893.141	-50.41883	-2.355065E-007	-0.0483755	8
	4	7	398109.4	3806.706	-4091.055	1	5588.179	-47.06198	2.139661E-006	-0.048751	8
	5	8	316265.6	4532.241	-4320.144	1	6261.378	-43.62749	-3.088712E-006	-0.0476756	8
	6	10	251203.1	5315.201	-4542.413	1	6991.772	-40.51746	1.983006E-006	-0.0487651	8
	7	12	199546.9	6115.971	-4676.156	1	7698.801	-37.40084	-2.189713E-006	-0.0479094	8
	8	14	158578.1	6889.907	-4695.049	1	8337.524	-34.27203	-2.781888E-006	-0.0477324	8
	9	16	125953.1	7753.946	-4657.055	1	9044.99	-30.98922	-7.565489E-008	-0.0485871	7
	10	17	100078.1	8473.419	-4624.767	1	9653.36	-28.62558	-1.047492E-010	-0.0484478	7
	11	18	79453.13	9160.187	-4600.338	1	10250.47	-26.66627	-4.900687E-008	-0.0484184	7
	12	20	63140.62	9828.82	-4579.528	1	10843.33	-24.98215	-3.932729E-008	-0.0484073	7
	13	21	50203.12	10455.43	-4564.135	1	11408.21	-23.58283	-9.44836E-009	-0.0485454	7
	14	22	39890.62	11074.38	-4573.056	1	11981.44	-22.43769	-3.194533E-008	-0.0484901	7
	15	24	31640.63	11672.41	-4622.812	1	12554.5	-21.60585	-4.744744E-008	-0.0484211	7
	16	25	25171.88	12258.53	-4704.861	1	13130.39	-20.99696	-9.819504E-009	-0.0485393	7
	17	26	20015.62	12841.71	-4838.216	1	13722.9	-20.64429	1.097411E-008	-0.0484301	7
	18	28	15890.62	13447	-5023.302	1	14354.63	-20.48383	2.602975E-009	-0.0484855	7
	19	29	12609.37	14148.57	-5117.158	1	15045.5	-19.8837	1.892713E-009	-0.0485328	6
	20	31	10078.13	14757.89	-5424.158	1	15723.13	-20.18055	8.957984E-009	-0.0484849	6
	21	32	8015.625	15421.98	-5807.188	1	16479.1	-20.63401	-3.310609E-009	-0.0483641	6
	22	33	6328.125	16133.09	-6266.085	1	17307.23	-21.22615	-6.643849E-009	-0.0483372	6
	23	35	5015.625	16885.64	-6782.128	1	18196.76	-21.88289	5.043421E-009	-0.0485913	6
	24	36	3984.375	17691.85	-7433.503	1	19190.07	-22.79046	-3.879279E-009	-0.048377	6
	25	37	3170.956	18549.38	-8151.441	1	20261.43	-23.72287	-6.257397E-009	-0.0483429	6
	26	39	2527.573	19483.98	-8992.03	1	21458.85	-24.77374	5.727403E-009	-0.0486017	6
	27	40	1976.103	20591.22	-10028.83	1	22903.62	-25.96812	-3.104191E-009	-0.0483643	6
	28	41	1577.524	21726.13	-11154.93	1	24422.47	-27.1775	5.119656E-009	-0.0485962	6
	29	43	1265.625	22939.59	-12425.11	1	26088.47	-28.44196	-7.754172E-009	-0.0483367	6
	30	44	998.264	24397.2	-14009.23	1	28133.29	-29.86508	-1.997586E-009	-0.0484626	6
	31	45	796.875	25941.36	-15747.58	1	30347	-31.25964	1.387856E-008	-0.0486359	6
	32	47	627.7902	27803.88	-17852.29	1	33041.79	-32.70367	-4.329828E-009	-0.0483807	6
	33	48	505.5147	29641.44	-20041.21	1	35780.79	-34.06347	-3.883225E-009	-0.0483835	6
	34	50	397.9953	32049	-22817.31	1	39341.68	-35.44899	7.667382E-010	-0.0484468	6
	35	51	315.5048	34649.98	-25901.9	1	43261.18	-36.77922	6.96865E-010	-0.0484466	6
	36	52	252.4038	37486.06	-29279.08	1	47565.43	-37.99218	9.029008E-010	-0.0484503	6
	37	54	198.6229	40915.48	-33435.8	1	52839.66	-39.25542	1.26818E-010	-0.0484528	6
	38	55	158.3615	44626.73	-37920.66	1	58562.11	-40.35555	1.151638E-009	-0.0484564	6
	39	56	125.558	48903.48	-43127.45	1	65203.74	-41.40872	3.442686E-010	-0.0484498	6
	40	58	100.4464	53608.59	-48872.93	1	72542.7	-42.35425	4.850072E-010	-0.0484548	6
	41	59	79.00281	59350.49	-55916.24	1	81542.05	-43.29344	5.562943E-010	-0.0484551	6
	42	60	63.3446	65443.96	-63831.9	1	91418.95	-44.28556	-2.178859E-010	-0.0484532	6
	43	62	49.86702	71539.95	-71859.13	1	101398.7	-45.12753	-3.122246E-010	-0.0484544	5
	44	63	39.72458	79462.04	-81929.38	1	114134.3	-45.87587	5.054815E-010	-0.0484516	5
	45	65	31.6723	87200.11	-93618.42	1	127938.5	-47.03291	-5.314663E-010	-0.0484546	5
	46	66	24.93351	96789	-107729.7	1	144823.3	-48.06212	-3.386221E-010	-0.0484562	5
	47	67	19.86229	106602	-124001.8	1	163525.1	-49.31496	7.147608E-010	-0.0484419	5
	48	69	15.83615	118654.6	-142198	1	185200.4	-50.15729	3.007613E-010	-0.0484551	5
	49	70	12.40079	130557.8	-167676.4	1	212510.5	-52.09463	6.429435E-011	-0.0484533	5
	50	72	9.93114	145615.3	-194781.4	1	243194.6	-53.21884	9.358507E-010	-0.0484512	5
	51	73	7.944915	162565.8	-226730.1	1	278987.7	-54.35943	3.257157E-010	-0.0484453	5
	52	75	6.317385	184138.8	-264956.9	1	322659.7	-55.20161	-2.618375E-010	-0.0484422	5
	53	77	5.008013	210037.7	-310777.1	1	375097.6	-55.94733	-7.738368E-011	-0.0484616	5
	54	79	3.945707	241414.3	-365231.6	1	437807.1	-56.53571	1.684167E-010	-0.0484586	5
	55	82	3.158693	276513.8	-423440	1	505728.5	-56.85475	1.463229E-010	-0.0484522	5
	56	85	2.504006	317736	-492933.6	1	586463.7	-57.19491	-7.847762E-011	-0.0484673	5
	57	88	1.998082	363071.8	-570921.6	1	676588.9	-57.5461	2.429614E-011	-0.0484561	5
	58	91	1.584686	416289.4	-653050.9	1	774449.7	-57.48439	6.502603E-011	-0.0484216	5
	59	95	1.266892	477086.7	-775721.6	1	910689.6	-58.40752	-4.038289E-010	-0.0484557	5
	60	99	0.999041	549275.6	-904174.4	1	1057939	-58.7218	-6.307826E-011	-0.0484631	4
