EXPLAIN
TAG	EISPOT
TITLE	LABEL	Potentiostatic EIS	Test &Identifier
DATE	LABEL	3/12/2020	Date
TIME	LABEL	14:19:30	Time
NOTES	NOTES	1	&Notes...
	
PSTAT	PSTAT	REF600-11020	Potentiostat
VDC	POTEN	0.00000E+000	T	DC &Voltage (V)
FREQINIT	QUANT	1.00000E+006	Initial Fre&q. (Hz)
FREQFINAL	QUANT	1.00000E+000	Final Fre&q. (Hz)
PTSPERDEC	QUANT	1.00000E+001	Points/&decade
VAC	QUANT	2.50000E+001	AC &Voltage (mV rms)
AREA	QUANT	2.50000E-001	&Area (cm^2)
CONDIT	TWOPARAM	F	5.00000E+000	0.00000E+000	Conditionin&g	Time(s)	E(V)
DELAY	TWOPARAM	T	5.00000E+000	0.00000E+000	Init. De&lay	Time(s)	Stab.(mV/s)
SPEED	SELECTOR	1	&Optimize for:
ZGUESS	QUANT	5.00000E+003	E&stimated Z (ohms)
OCVCURVE	TABLE	19
	Pt	T	Vf	Vm	Ach	Over
	#	s	V vs. Ref.	V	V	bits
	0	0.258333	3.94339E-002	3.94339E-002	5.78197E-004	...........
	1	0.516667	3.94334E-002	3.94076E-002	5.83230E-004	...........
	2	0.775	3.94306E-002	3.93946E-002	5.82630E-004	...........
	3	1.03333	3.94232E-002	3.93780E-002	5.81530E-004	...........
	4	1.29167	3.94110E-002	3.93600E-002	5.84397E-004	...........
	5	1.55	3.93958E-002	3.93483E-002	5.78830E-004	...........
	6	1.80833	3.93796E-002	3.93278E-002	5.79097E-004	...........
	7	2.06667	3.93632E-002	3.93136E-002	5.79197E-004	...........
	8	2.325	3.93471E-002	3.93013E-002	5.80263E-004	...........
	9	2.58333	3.93313E-002	3.92887E-002	5.79530E-004	...........
	10	2.84167	3.93164E-002	3.92730E-002	5.81930E-004	...........
	11	3.1	3.93022E-002	3.92592E-002	5.80330E-004	...........
	12	3.35833	3.92887E-002	3.92587E-002	5.81230E-004	...........
	13	3.61667	3.92761E-002	3.92485E-002	5.80863E-004	...........
	14	3.875	3.92656E-002	3.92463E-002	5.85030E-004	...........
	15	4.13333	3.92573E-002	3.92289E-002	5.83130E-004	...........
	16	4.39167	3.92496E-002	3.92141E-002	5.80963E-004	...........
	17	4.65	3.92405E-002	3.92025E-002	5.76397E-004	...........
	18	4.90833	3.92294E-002	3.91911E-002	5.81397E-004	...........
EOC	QUANT	0.0392294	Open Circuit (V)
PSTATMODEL	IQUANT	4	Pstat Model
PSTATSECTION	LABEL	REF600-11020	Pstat Section
PSTATSERIALNO	LABEL	11020	Pstat Serial Number
CTRLMODE	IQUANT	1	Control Mode
IESTAB	IQUANT	0	I/E Stability
CASPEED	IQUANT	1	Control Amp Speed
CONVENTION	IQUANT	1	Current Convention
ICHRANGE	IQUANT	2	Ich Range
ICHRANGEMODE	TOGGLE	F	Ich Auto Range
ICHOFFSETENABLE	TOGGLE	T	Ich Offset Enable
ICHOFFSET	QUANT	0	Ich Offset (V)
ICHFILTER	IQUANT	3	Ich Filter
VCHRANGE	IQUANT	2	Vch Range
VCHRANGEMODE	TOGGLE	F	Vch Auto Range
VCHOFFSETENABLE	TOGGLE	T	Vch Offset Enable
VCHOFFSET	QUANT	0	Vch Offset (V)
VCHFILTER	IQUANT	3	Vch Filter
ACHRANGE	IQUANT	2	Ach Range
ACHOFFSETENABLE	TOGGLE	F	Ach Offset Enable
ACHOFFSET	QUANT	0	Ach Offset (V)
ACHFILTER	IQUANT	3	Ach Filter
IERANGELOWERLIMIT	IQUANT	1	I/E Range Lower Limit
IERANGEMODE	TOGGLE	F	I/E AutoRange
IERANGE	IQUANT	7	I/E Range
POSFEEDENABLE	TOGGLE	F	Positive Feedback IR Comp
POSFEEDRESISTANCE	QUANT	0	Positive Feedback Resistance (ohm)
ACHSELECT	IQUANT	0	Ach Select
CABLEID	IQUANT	14	Cable ID
DCCALDATE	LABEL	2/27/2020	DC Calibration Date
ACCALDATE	LABEL	2/27/2020	AC Calibration Date
THERMOSELECT	IQUANT	1	Thermo Select
FRAMEWORKVERSION	QUANT	6.33	Framework Version
INSTRUMENTVERSION	LABEL	3.50	Instrument Version
ZCURVE	TABLE
	Pt	Time	Freq	Zreal	Zimag	Zsig	Zmod	Zphz	Idc	Vdc	IERange
	#	s	Hz	ohm	ohm	V	ohm	°	A	V	#
	0	2	1000078	2171.328	-1649.676	1	2726.92	-37.22591	-3.424587E-006	0.0422931	8
	1	3	794390.6	2474.19	-1668.103	1	2983.988	-33.9879	-7.285063E-007	0.0418666	8
	2	5	630984.4	2778.335	-1623.614	1	3217.96	-30.30133	-3.278926E-006	0.0418795	8
	3	6	501234.4	3061.603	-1582.785	1	3446.537	-27.33802	-9.844845E-007	0.041258	8
	4	7	398109.4	3320.14	-1511.788	1	3648.127	-24.48161	-3.01045E-006	0.0416321	8
	5	9	316265.6	3559.927	-1404.964	1	3827.141	-21.53721	1.285442E-006	0.0406744	8
	6	10	251203.1	3773.256	-1323.091	1	3998.503	-19.3232	1.064775E-006	0.0406686	8
	7	11	199546.9	3946.813	-1226.393	1	4132.961	-17.26159	6.391587E-007	0.0407286	8
	8	13	158578.1	4123.247	-1136.094	1	4276.9	-15.40468	1.165496E-007	0.0408034	8
	9	14	125953.1	4297.511	-1004.605	1	4413.37	-13.15744	6.989738E-008	0.0404895	7
	10	15	100078.1	4403.637	-933.1584	1	4501.422	-11.96435	7.379852E-008	0.0407307	7
	11	17	79453.13	4518.994	-877.7791	1	4603.455	-10.99237	-3.904342E-008	0.040856	7
	12	18	63140.62	4623.652	-830.0297	1	4697.564	-10.17723	-1.177315E-009	0.0408132	7
	13	20	50203.12	4719.435	-793.9226	1	4785.748	-9.54912	2.770631E-008	0.040743	7
	14	21	39890.62	4808.968	-765.6393	1	4869.536	-9.046179	7.882112E-008	0.0406725	7
	15	22	31640.63	4894.367	-748.276	1	4951.237	-8.692366	1.565785E-008	0.0408351	7
	16	24	25171.88	4975.449	-743.7776	1	5030.735	-8.502159	4.700274E-008	0.0406788	7
	17	25	20015.62	5054.606	-749.2672	1	5109.838	-8.431812	1.048996E-008	0.0407392	7
	18	26	15890.62	5131.386	-768.5157	1	5188.616	-8.517747	-1.69466E-008	0.0407902	7
	19	28	12609.37	5212.635	-800.2878	1	5273.711	-8.728379	-3.665863E-008	0.0408559	7
	20	29	10078.13	5288.495	-846.2928	1	5355.781	-9.091689	-2.617437E-008	0.0408551	7
	21	31	8015.625	5366.86	-912.959	1	5443.958	-9.6542	-2.510389E-008	0.0408734	7
	22	32	6328.125	5452.838	-998.838	1	5543.566	-10.38023	-2.822149E-008	0.0408182	7
	23	33	5015.625	5538.787	-1108.734	1	5648.668	-11.31964	8.02808E-008	0.0406627	7
	24	35	3984.375	5628.699	-1245.459	1	5764.843	-12.47678	-6.140354E-009	0.0408621	7
	25	36	3170.956	5722.223	-1416.942	1	5895.046	-13.90788	1.779103E-008	0.0408282	7
	26	37	2527.573	5819.354	-1625.181	1	6042.027	-15.60355	-2.765928E-008	0.0408149	7
	27	39	1976.103	5937.217	-1907.502	1	6236.114	-17.81111	1.609872E-008	0.0408214	7
	28	40	1577.524	6050.595	-2228.106	1	6447.802	-20.21602	-2.775602E-008	0.0408151	7
	29	41	1265.625	6173.805	-2612.7	1	6703.884	-22.93765	-1.942878E-008	0.0407794	7
	30	43	998.264	6319.786	-3132.796	1	7053.659	-26.36818	1.49297E-008	0.0408185	7
	31	44	796.875	6481.146	-3738.48	1	7482.077	-29.97738	-2.481045E-008	0.0408647	7
	32	46	627.7902	6680.278	-4530.447	1	8071.621	-34.14443	1.695463E-008	0.0408229	7
	33	47	505.5147	6886.699	-5409.362	1	8757.158	-38.14891	-5.410101E-008	0.0408881	7
	34	48	397.9953	7175.929	-6611.367	1	9757.26	-42.65517	5.988818E-009	0.0408124	7
	35	50	315.5048	7521.787	-8041.99	1	11011.4	-46.91434	5.434292E-010	0.0408635	6
	36	51	252.4038	7926.729	-9722.31	1	12544.17	-50.80918	1.180083E-009	0.0408619	6
	37	52	198.6229	8471.796	-11925.93	1	14628.71	-54.61124	8.735663E-010	0.0408639	6
	38	54	158.3615	9116.244	-14471.46	1	17103.48	-57.79126	1.073488E-009	0.0408596	6
	39	55	125.558	9949.71	-17643.3	1	20255.44	-60.57974	9.19158E-010	0.04086	6
	40	57	100.4464	10941.66	-21322.36	1	23965.87	-62.83518	7.194438E-010	0.0408598	6
	41	58	79.00281	12351.56	-26122.36	1	28895.31	-64.69358	4.272017E-010	0.040858	6
	42	59	63.3446	14125.99	-31487.56	1	34511.01	-65.83798	7.909455E-010	0.0408574	6
	43	61	49.86702	16098.19	-38661.43	1	41879.09	-67.3937	7.790635E-010	0.04086	6
	44	62	39.72458	18874.72	-46627.98	1	50303.32	-67.9622	5.135927E-010	0.0408659	6
	45	63	31.6723	22401.59	-56073.5	1	60382.68	-68.22309	1.055226E-010	0.04086	6
	46	65	24.93351	27317.64	-68266.09	1	73528.98	-68.19048	9.993366E-011	0.0408621	6
	47	66	19.86229	33299.6	-81826.56	1	88342.8	-67.85596	1.084201E-009	0.0408701	6
	48	68	15.83615	41445.98	-97140.9	1	105613.1	-66.89407	6.308969E-010	0.0408643	5
	49	69	12.40079	51792.02	-117110.6	1	128052	-66.14265	9.360751E-010	0.0408625	5
	50	70	9.93114	63989.23	-136943.4	1	151156	-64.95483	-1.067805E-010	0.0408646	5
	51	72	7.944915	79127.77	-159294.5	1	177865	-63.58463	1.0739E-009	0.0408715	5
	52	74	6.317385	97411.5	-185208.4	1	209263.4	-62.2576	3.363485E-010	0.0408822	5
	53	76	5.008013	119206.8	-214124.5	1	245070.5	-60.89456	3.170838E-010	0.0408613	5
	54	78	3.945707	144660.2	-246993.1	1	286237.9	-59.64312	4.500831E-010	0.0408682	5
	55	81	3.158693	171961.1	-281398.7	1	329781.6	-58.57114	1.405225E-011	0.0408616	5
	56	84	2.504006	203646.1	-321621.3	1	380673.1	-57.65858	5.3064E-010	0.0408575	5
	57	87	1.998082	238054.1	-365685.8	1	436343.8	-56.93668	7.306418E-011	0.0409064	5
	58	90	1.584686	276314.8	-417523.4	1	500675.2	-56.50361	2.761335E-010	0.0408575	5
	59	94	1.266892	319928.2	-475850.5	1	573400.2	-56.08591	1.620356E-010	0.0409041	5
	60	98	0.999041	370704	-546075.1	1	660014.8	-55.82932	-1.056254E-011	0.0408212	5
