EXPLAIN
TAG	EISPOT
TITLE	LABEL	Potentiostatic EIS	Test &Identifier
DATE	LABEL	2/6/2020	Date
TIME	LABEL	18:11:06	Time
NOTES	NOTES	6	&Notes...
	
	
	
	
	
	
PSTAT	PSTAT	REF600-11020	Potentiostat
VDC	POTEN	0.00000E+000	T	DC &Voltage (V)
FREQINIT	QUANT	1.00000E+006	Initial Fre&q. (Hz)
FREQFINAL	QUANT	1.00000E+000	Final Fre&q. (Hz)
PTSPERDEC	QUANT	1.00000E+001	Points/&decade
VAC	QUANT	2.50000E+001	AC &Voltage (mV rms)
AREA	QUANT	1.60000E-004	&Area (cm^2)
CONDIT	TWOPARAM	F	5.00000E+000	0.00000E+000	Conditionin&g	Time(s)	E(V)
DELAY	TWOPARAM	F	5.00000E+000	0.00000E+000	Init. De&lay	Time(s)	Stab.(mV/s)
SPEED	SELECTOR	0	&Optimize for:
ZGUESS	QUANT	1.00000E+003	E&stimated Z (ohms)
OCVCURVE	TABLE	39
	Pt	T	Vf	Vm	Ach	Over
	#	s	V vs. Ref.	V	V	bits
	0	0.258333	-2.22121E-002	-2.22121E-002	5.91971E-004	...........
	1	0.516667	-2.22138E-002	-2.22997E-002	5.88904E-004	...........
	2	0.775	-2.22241E-002	-2.23866E-002	5.91204E-004	...........
	3	1.03333	-2.22541E-002	-2.24957E-002	5.88671E-004	...........
	4	1.29167	-2.23099E-002	-2.25723E-002	5.91104E-004	...........
	5	1.55	-2.23862E-002	-2.26179E-002	5.89037E-004	...........
	6	1.80833	-2.24693E-002	-2.26828E-002	5.90971E-004	...........
	7	2.06667	-2.25470E-002	-2.27456E-002	5.85571E-004	...........
	8	2.325	-2.26157E-002	-2.27845E-002	5.87271E-004	...........
	9	2.58333	-2.26771E-002	-2.28475E-002	5.87071E-004	...........
	10	2.84167	-2.27336E-002	-2.28984E-002	5.88771E-004	...........
	11	3.1	-2.27873E-002	-2.29305E-002	5.87837E-004	...........
	12	3.35833	-2.28388E-002	-2.29987E-002	5.87237E-004	...........
	13	3.61667	-2.28889E-002	-2.30468E-002	5.89204E-004	...........
	14	3.875	-2.29389E-002	-2.30911E-002	5.90371E-004	...........
	15	4.13333	-2.29896E-002	-2.31490E-002	5.87571E-004	...........
	16	4.39167	-2.30406E-002	-2.32007E-002	5.88037E-004	...........
	17	4.65	-2.30918E-002	-2.32483E-002	5.89271E-004	...........
	18	4.90833	-2.31431E-002	-2.32890E-002	5.90204E-004	...........
	19	5.16667	-2.31931E-002	-2.33295E-002	5.86037E-004	...........
	20	5.425	-2.32403E-002	-2.33673E-002	5.89671E-004	...........
	21	5.68333	-2.32841E-002	-2.34059E-002	5.88104E-004	...........
	22	5.94167	-2.33251E-002	-2.34405E-002	5.89071E-004	...........
	23	6.2	-2.33641E-002	-2.34771E-002	5.84437E-004	...........
	24	6.45833	-2.34016E-002	-2.35128E-002	5.86237E-004	...........
	25	6.71667	-2.34380E-002	-2.35439E-002	5.86437E-004	...........
	26	6.975	-2.34736E-002	-2.35778E-002	5.87337E-004	...........
	27	7.23333	-2.35083E-002	-2.36150E-002	5.84804E-004	...........
	28	7.49167	-2.35424E-002	-2.36485E-002	5.88204E-004	...........
	29	7.75	-2.35767E-002	-2.36837E-002	5.87171E-004	...........
	30	8.00833	-2.36111E-002	-2.37098E-002	5.85037E-004	...........
	31	8.26667	-2.36451E-002	-2.37473E-002	5.85971E-004	...........
	32	8.525	-2.36783E-002	-2.37815E-002	5.85104E-004	...........
	33	8.78333	-2.37111E-002	-2.38104E-002	5.85371E-004	...........
	34	9.04167	-2.37435E-002	-2.38148E-002	5.86004E-004	...........
	35	9.3	-2.37737E-002	-2.38677E-002	5.87104E-004	...........
	36	9.5583	-2.38019E-002	-2.39119E-002	5.86037E-004	...........
	37	9.8167	-2.38318E-002	-2.39414E-002	5.85671E-004	...........
	38	10.075	-2.38658E-002	-2.39825E-002	5.86704E-004	...........
EOC	QUANT	-0.0238658	Open Circuit (V)
PSTATMODEL	IQUANT	4	Pstat Model
PSTATSECTION	LABEL	REF600-11020	Pstat Section
PSTATSERIALNO	LABEL	11020	Pstat Serial Number
CTRLMODE	IQUANT	1	Control Mode
IESTAB	IQUANT	0	I/E Stability
CASPEED	IQUANT	1	Control Amp Speed
CONVENTION	IQUANT	1	Current Convention
ICHRANGE	IQUANT	2	Ich Range
ICHRANGEMODE	TOGGLE	F	Ich Auto Range
ICHOFFSETENABLE	TOGGLE	T	Ich Offset Enable
ICHOFFSET	QUANT	0	Ich Offset (V)
ICHFILTER	IQUANT	3	Ich Filter
VCHRANGE	IQUANT	2	Vch Range
VCHRANGEMODE	TOGGLE	F	Vch Auto Range
VCHOFFSETENABLE	TOGGLE	T	Vch Offset Enable
VCHOFFSET	QUANT	0	Vch Offset (V)
VCHFILTER	IQUANT	3	Vch Filter
ACHRANGE	IQUANT	2	Ach Range
ACHOFFSETENABLE	TOGGLE	F	Ach Offset Enable
ACHOFFSET	QUANT	0	Ach Offset (V)
ACHFILTER	IQUANT	3	Ach Filter
IERANGELOWERLIMIT	IQUANT	1	I/E Range Lower Limit
IERANGEMODE	TOGGLE	F	I/E AutoRange
IERANGE	IQUANT	7	I/E Range
POSFEEDENABLE	TOGGLE	F	Positive Feedback IR Comp
POSFEEDRESISTANCE	QUANT	0	Positive Feedback Resistance (ohm)
ACHSELECT	IQUANT	0	Ach Select
CABLEID	IQUANT	14	Cable ID
DCCALDATE	LABEL	1/27/2020	DC Calibration Date
ACCALDATE	LABEL	1/27/2020	AC Calibration Date
THERMOSELECT	IQUANT	1	Thermo Select
FRAMEWORKVERSION	QUANT	6.33	Framework Version
INSTRUMENTVERSION	LABEL	3.50	Instrument Version
ZCURVE	TABLE
	Pt	Time	Freq	Zreal	Zimag	Zsig	Zmod	Zphz	Idc	Vdc	IERange
	#	s	Hz	ohm	ohm	V	ohm	°	A	V	#
	0	2	1000078	2346.02	-1624.067	1	2853.315	-34.69349	-1.580534E-006	-0.0211998	8
	1	2	794390.6	2638.914	-1616.058	1	3094.432	-31.4831	-3.218646E-006	-0.0209412	8
	2	2	630984.4	2925.878	-1568.364	1	3319.719	-28.19273	3.680306E-008	-0.0218101	8
	3	3	501234.4	3194.493	-1517.985	1	3536.815	-25.41652	-6.221727E-007	-0.0219369	8
	4	3	398109.4	3432.55	-1449.816	1	3726.173	-22.89788	3.842251E-006	-0.0226955	8
	5	3	316265.6	3648.468	-1358.811	1	3893.288	-20.427	-2.431824E-006	-0.0217562	8
	6	3	251203.1	3860.239	-1262.69	1	4061.506	-18.11299	2.974528E-008	-0.0221944	8
	7	4	199546.9	4037.732	-1175.963	1	4205.492	-16.23786	-2.141831E-006	-0.0217911	8
	8	4	158578.1	4220.314	-1098.482	1	4360.93	-14.58948	2.296982E-009	-0.022234	8
	9	4	125953.1	4350.315	-968.733	1	4456.869	-12.55386	4.667215E-007	-0.0231532	7
	10	5	100078.1	4474.796	-900.6583	1	4564.536	-11.38008	-3.531185E-008	-0.0221947	7
	11	5	79453.13	4581.348	-849.5996	1	4659.46	-10.50601	-2.621842E-008	-0.0222425	7
	12	5	63140.62	4680.733	-807.1296	1	4749.813	-9.78367	1.324789E-008	-0.0223109	7
	13	6	50203.12	4772.897	-775.0354	1	4835.414	-9.223332	-3.201297E-008	-0.0222348	7
	14	6	39890.62	4860.572	-751.8287	1	4918.375	-8.792774	-3.505951E-009	-0.0221681	7
	15	6	31640.63	4945.41	-739.2063	1	5000.35	-8.501245	1.394329E-008	-0.0223126	7
	16	7	25171.88	5026.97	-737.247	1	5080.744	-8.343424	4.075475E-008	-0.0223702	7
	17	7	20015.62	5106.863	-746.587	1	5161.147	-8.317314	-3.738557E-008	-0.0221821	7
	18	7	15890.62	5183.509	-766.5144	1	5239.877	-8.411686	-1.514817E-008	-0.022216	7
	19	8	12609.37	5261.352	-801.2397	1	5322.011	-8.65892	1.614984E-008	-0.0223113	7
	20	8	10078.13	5334.752	-849.9323	1	5402.033	-9.05228	-2.353056E-008	-0.0222437	7
	21	8	8015.625	5417.665	-914.8047	1	5494.357	-9.58432	-2.204911E-008	-0.0221648	7
	22	9	6328.125	5499.935	-1007.024	1	5591.367	-10.37578	-4.085168E-008	-0.0222054	7
	23	9	5015.625	5585.997	-1120.216	1	5697.213	-11.33968	6.051216E-008	-0.022385	7
	24	9	3984.375	5673.265	-1263.738	1	5812.312	-12.55779	-3.574474E-008	-0.0222124	7
	25	9	3170.956	5766.268	-1440.193	1	5943.4	-14.02339	-2.627714E-009	-0.0221756	7
	26	10	2527.573	5860.162	-1657.16	1	6089.965	-15.79006	-2.353782E-008	-0.0221665	7
	27	10	1976.103	5969.877	-1951.299	1	6280.685	-18.10037	-8.698921E-009	-0.0222186	7
	28	10	1577.524	6082.16	-2291.408	1	6499.478	-20.64353	-3.586361E-009	-0.0221768	7
	29	11	1265.625	6195.351	-2692.511	1	6755.145	-23.48985	6.323229E-008	-0.0223919	7
	30	11	998.264	7333.985	-3238.435	1	7113.848	-27.07971	1.032933E-007	-0.0224073	7
	31	11	796.875	6488.235	-3883.191	1	7561.505	-30.90041	-3.452733E-009	-0.022181	7
	32	12	627.7902	6676.053	-4726.05	1	8179.562	-35.29509	-2.68227E-008	-0.0221676	7
	33	12	505.5147	6885.532	-5663.749	1	8915.638	-39.43927	-3.346136E-008	-0.0222328	7
	34	12	397.9953	7172.637	-6942.065	1	9981.93	-44.06413	1.319888E-009	-0.0222559	6
	35	13	315.5048	7517.308	-8472.026	1	11326.3	-48.41706	1.128424E-009	-0.0222597	6
	36	13	252.4038	7926.107	-10271.49	1	12974.08	-52.34403	1.417406E-009	-0.0222581	6
	37	13	198.6229	8481.757	-12635.31	1	15218.12	-56.12755	1.00095E-009	-0.0222562	6
	38	14	158.3615	9146.328	-15371.2	1	17886.56	-59.24608	7.813014E-010	-0.0222583	6
	39	14	125.558	10021.06	-18781.51	1	21287.72	-61.91741	8.552465E-010	-0.0222589	6
	40	14	100.4464	11097.38	-22773.97	1	25333.89	-64.02078	4.531405E-010	-0.0222596	6
	41	15	79.00281	12568.96	-27997.44	1	30689.34	-65.82314	1.25E-009	-0.0222588	6
	42	15	63.3446	14341.82	-33424.28	1	36371.28	-66.7766	6.125811E-010	-0.0222617	6
	43	15	49.86702	16841.63	-41057.51	1	44377.46	-67.69675	3.600464E-010	-0.0222639	6
	44	16	39.72458	19830.25	-49860.4	1	53659.09	-68.31152	3.619974E-010	-0.0222581	6
	45	16	31.6723	23792.73	-60244.59	1	64772.72	-68.44917	3.098543E-011	-0.0222591	6
	46	16	24.93351	29432.82	-72867.88	1	78587.65	-68.00522	3.629452E-010	-0.0222662	6
	47	17	19.86229	36290.43	-87102.6	1	94360.26	-67.38143	-3.77353E-010	-0.0222676	6
	48	17	15.83615	44235.93	-103782.2	1	112816.5	-66.91444	-2.823836E-010	-0.0222682	5
	49	17	12.40079	56307.48	-123672.1	1	135887.2	-65.5204	3.232639E-010	-0.0222711	5
	50	18	9.93114	70729.3	-143449.7	1	159938.9	-63.75394	-5.342667E-010	-0.0222662	5
	51	18	7.944915	87036.73	-166069	1	187494.8	-62.34098	-1.499087E-010	-0.0222715	5
	52	19	6.317385	106315.9	-191169	1	218743.3	-60.92001	-1.272635E-010	-0.0222625	5
	53	19	5.008013	128875.7	-219485.7	1	254524.9	-59.57978	-2.275469E-010	-0.0222707	5
	54	21	3.945707	154729.9	-251195.8	1	295026.5	-58.36805	1.687211E-010	-0.0222755	5
	55	22	3.158693	181632.7	-284688.1	1	337694.8	-57.46189	1.788162E-010	-0.0222528	5
	56	24	2.504006	212444.9	-324614	1	387952.4	-56.7971	-5.211635E-011	-0.0222674	5
	57	25	1.998082	244022	-369049.3	1	442429.8	-56.52662	1.012819E-010	-0.0222616	5
	58	26	1.584686	281664.1	-422914.7	1	508125.5	-56.33611	2.267244E-010	-0.0222222	5
	59	28	1.266892	320747.2	-485281.1	1	581701.4	-56.53724	2.051994E-010	-0.0222332	5
	60	31	0.999041	367110.6	-562287.9	1	671519.1	-56.85999	1.874979E-010	-0.0222578	5
