EXPLAIN
TAG	EISPOT
TITLE	LABEL	Potentiostatic EIS	Test &Identifier
DATE	LABEL	6/14/2020	Date
TIME	LABEL	20:42:27	Time
NOTES	NOTES	1	&Notes...
	
PSTAT	PSTAT	REF600-10037	Potentiostat
VDC	POTEN	0.00000E+000	T	DC &Voltage (V)
FREQINIT	QUANT	1.00000E+006	Initial Fre&q. (Hz)
FREQFINAL	QUANT	1.00000E+000	Final Fre&q. (Hz)
PTSPERDEC	QUANT	1.00000E+001	Points/&decade
VAC	QUANT	2.50000E+001	AC &Voltage (mV rms)
AREA	QUANT	2.50000E-001	&Area (cm^2)
CONDIT	TWOPARAM	F	5.00000E+000	0.00000E+000	Conditionin&g	Time(s)	E(V)
DELAY	TWOPARAM	F	3.00000E+000	0.00000E+000	Init. De&lay	Time(s)	Stab.(mV/s)
SPEED	SELECTOR	0	&Optimize for:
ZGUESS	QUANT	1.00000E+003	E&stimated Z (ohms)
OCVCURVE	TABLE	39
	Pt	T	Vf	Vm	Ach	Over
	#	s	V vs. Ref.	V	V	bits
	0	0.258333	-1.16311E-001	-1.16311E-001	5.27387E-004	...........
	1	0.516667	-1.16311E-001	-1.16317E-001	5.24087E-004	...........
	2	0.775	-1.16312E-001	-1.16325E-001	5.22488E-004	...........
	3	1.03333	-1.16314E-001	-1.16336E-001	5.28154E-004	...........
	4	1.29167	-1.16319E-001	-1.16343E-001	5.22787E-004	...........
	5	1.55	-1.16326E-001	-1.16359E-001	5.21188E-004	...........
	6	1.80833	-1.16335E-001	-1.16386E-001	5.22621E-004	...........
	7	2.06667	-1.16347E-001	-1.16396E-001	5.22821E-004	...........
	8	2.325	-1.16362E-001	-1.16408E-001	5.24187E-004	...........
	9	2.58333	-1.16378E-001	-1.16418E-001	5.19788E-004	...........
	10	2.84167	-1.16393E-001	-1.16429E-001	5.25054E-004	...........
	11	3.1	-1.16407E-001	-1.16467E-001	5.24721E-004	...........
	12	3.35833	-1.16421E-001	-1.16478E-001	5.29454E-004	...........
	13	3.61667	-1.16438E-001	-1.16489E-001	5.29587E-004	...........
	14	3.875	-1.16456E-001	-1.16500E-001	5.30954E-004	...........
	15	4.13333	-1.16473E-001	-1.16515E-001	5.24987E-004	...........
	16	4.39167	-1.16488E-001	-1.16545E-001	5.25987E-004	...........
	17	4.65	-1.16503E-001	-1.16554E-001	5.27387E-004	...........
	18	4.90833	-1.16519E-001	-1.16562E-001	5.25954E-004	...........
	19	5.16667	-1.16536E-001	-1.16581E-001	5.29754E-004	...........
	20	5.425	-1.16551E-001	-1.16597E-001	5.25354E-004	...........
	21	5.68333	-1.16565E-001	-1.16614E-001	5.29587E-004	...........
	22	5.94167	-1.16580E-001	-1.16630E-001	5.29954E-004	...........
	23	6.2	-1.16596E-001	-1.16640E-001	5.25087E-004	...........
	24	6.45833	-1.16611E-001	-1.16656E-001	5.21087E-004	...........
	25	6.71667	-1.16626E-001	-1.16670E-001	5.23221E-004	...........
	26	6.975	-1.16641E-001	-1.16681E-001	5.30254E-004	...........
	27	7.23333	-1.16654E-001	-1.16698E-001	5.27421E-004	...........
	28	7.49167	-1.16668E-001	-1.16708E-001	5.23888E-004	...........
	29	7.75	-1.16681E-001	-1.16725E-001	5.28721E-004	...........
	30	8.00833	-1.16695E-001	-1.16737E-001	5.33254E-004	...........
	31	8.26667	-1.16709E-001	-1.16747E-001	5.24021E-004	...........
	32	8.525	-1.16722E-001	-1.16759E-001	5.29554E-004	...........
	33	8.78333	-1.16735E-001	-1.16771E-001	5.24854E-004	...........
	34	9.04167	-1.16747E-001	-1.16789E-001	5.27487E-004	...........
	35	9.3	-1.16759E-001	-1.16798E-001	5.26521E-004	...........
	36	9.5583	-1.16772E-001	-1.16808E-001	5.26921E-004	...........
	37	9.8167	-1.16784E-001	-1.16818E-001	5.30954E-004	...........
	38	10.075	-1.16796E-001	-1.16828E-001	5.28387E-004	...........
EOC	QUANT	-0.1167962	Open Circuit (V)
PSTATMODEL	IQUANT	4	Pstat Model
PSTATSECTION	LABEL	REF600-10037	Pstat Section
PSTATSERIALNO	LABEL	10037	Pstat Serial Number
CTRLMODE	IQUANT	1	Control Mode
IESTAB	IQUANT	0	I/E Stability
CASPEED	IQUANT	1	Control Amp Speed
CONVENTION	IQUANT	1	Current Convention
ICHRANGE	IQUANT	2	Ich Range
ICHRANGEMODE	TOGGLE	F	Ich Auto Range
ICHOFFSETENABLE	TOGGLE	T	Ich Offset Enable
ICHOFFSET	QUANT	0	Ich Offset (V)
ICHFILTER	IQUANT	3	Ich Filter
VCHRANGE	IQUANT	2	Vch Range
VCHRANGEMODE	TOGGLE	F	Vch Auto Range
VCHOFFSETENABLE	TOGGLE	T	Vch Offset Enable
VCHOFFSET	QUANT	0	Vch Offset (V)
VCHFILTER	IQUANT	3	Vch Filter
ACHRANGE	IQUANT	2	Ach Range
ACHOFFSETENABLE	TOGGLE	F	Ach Offset Enable
ACHOFFSET	QUANT	0	Ach Offset (V)
ACHFILTER	IQUANT	3	Ach Filter
IERANGELOWERLIMIT	IQUANT	1	I/E Range Lower Limit
IERANGEMODE	TOGGLE	F	I/E AutoRange
IERANGE	IQUANT	8	I/E Range
POSFEEDENABLE	TOGGLE	F	Positive Feedback IR Comp
POSFEEDRESISTANCE	QUANT	0	Positive Feedback Resistance (ohm)
ACHSELECT	IQUANT	0	Ach Select
CABLEID	IQUANT	14	Cable ID
DCCALDATE	LABEL	6/8/2020	DC Calibration Date
ACCALDATE	LABEL	6/8/2020	AC Calibration Date
THERMOSELECT	IQUANT	1	Thermo Select
FRAMEWORKVERSION	QUANT	6.33	Framework Version
INSTRUMENTVERSION	LABEL	3.50	Instrument Version
ZCURVE	TABLE
	Pt	Time	Freq	Zreal	Zimag	Zsig	Zmod	Zphz	Idc	Vdc	IERange
	#	s	Hz	ohm	ohm	V	ohm	°	A	V	#
	0	1	1000078	1804.823	-2178.59	1	2829.071	-50.36041	3.789982E-008	-0.1075497	8
	1	1	794390.6	2116.844	-2455.336	1	3241.868	-49.23405	5.282452E-007	-0.1079153	8
	2	2	630984.4	2480.806	-2752.867	1	3705.763	-47.97572	1.756671E-007	-0.1079967	8
	3	2	501234.4	2910.795	-3062.415	1	4225.058	-46.45404	1.807705E-007	-0.1080725	8
	4	2	398109.4	3418.692	-3382.733	1	4809.401	-44.69708	-7.72998E-008	-0.1081162	8
	5	3	316265.6	4017.773	-3665.628	1	5438.688	-42.37586	1.755453E-007	-0.1081348	8
	6	3	251203.1	4702.309	-3925.243	1	6125.295	-39.85337	-1.083742E-007	-0.1081573	8
	7	3	199546.9	5467.544	-4097.627	1	6832.612	-36.84957	-8.043754E-008	-0.108128	8
	8	4	158578.1	6270.172	-4163.496	1	7526.603	-33.58481	-2.460899E-007	-0.1081275	8
	9	4	125953.1	7305.775	-3830.579	1	8249.102	-27.66902	1.043271E-007	-0.1080689	7
	10	5	100078.1	8019.417	-3695.901	1	8830.104	-24.74351	8.543473E-008	-0.1082366	7
	11	5	79453.13	8679.797	-3462.915	1	9345.087	-21.75016	-8.819534E-008	-0.1080593	7
	12	5	63140.62	9234.198	-3177.316	1	9765.54	-18.98739	-8.891857E-008	-0.1080639	7
	13	6	50203.12	9688.69	-2882.239	1	10108.31	-16.56695	3.50685E-008	-0.108261	7
	14	6	39890.62	10067.88	-2593.411	1	10396.53	-14.44495	-7.718025E-008	-0.1081059	7
	15	6	31640.63	10369.95	-2332.838	1	10629.11	-12.67828	-2.555963E-008	-0.1081978	7
	16	6	25171.88	10612.94	-2112.258	1	10821.1	-11.2563	-6.110182E-008	-0.1080425	7
	17	7	20015.62	10816.5	-1939.543	1	10989.02	-10.16586	8.852422E-008	-0.1082383	7
	18	7	15890.62	11002.06	-1815.435	1	11150.84	-9.369865	-7.656549E-008	-0.1080354	7
	19	7	12609.37	11328.38	-1305.438	1	11403.35	-6.573541	-9.753134E-009	-0.1079543	6
	20	8	10078.13	11425.33	-1344.514	1	11504.16	-6.711605	-9.428403E-009	-0.1081359	6
	21	8	8015.625	11532.71	-1412.082	1	11618.84	-6.980633	-5.836233E-009	-0.1079769	6
	22	8	6328.125	11655	-1520.035	1	11753.71	-7.430524	6.619262E-009	-0.1083269	6
	23	9	5015.625	11786.24	-1664.633	1	11903.21	-8.039012	6.723809E-009	-0.1083305	6
	24	9	3984.375	11920.43	-1848.659	1	12062.93	-8.815389	-9.649211E-009	-0.1081398	6
	25	9	3170.956	12069.14	-2078.443	1	12246.8	-9.77114	1.212058E-008	-0.1083334	6
	26	10	2527.573	12221.54	-2359.323	1	12447.18	-10.92633	2.950044E-009	-0.108307	6
	27	10	1976.103	12407.68	-2744.809	1	12707.65	-12.474	-9.939574E-009	-0.1079508	6
	28	10	1577.524	12593.42	-3180.322	1	12988.79	-14.17305	7.460449E-009	-0.1081284	6
	29	11	1265.625	12789.46	-3699.812	1	13313.87	-16.13441	-1.497927E-008	-0.107969	6
	30	11	998.264	13028.37	-4388.339	1	13747.58	-18.61504	1.274357E-008	-0.1082433	6
	31	11	796.875	13281.32	-5189.766	1	14259.28	-21.34341	7.271052E-009	-0.1081392	6
	32	11	627.7902	13587.99	-6233.197	1	14949.46	-24.64227	-1.467728E-008	-0.1080104	6
	33	12	505.5147	13914.56	-7399.011	1	15759.45	-28.00163	1.261283E-008	-0.1082456	6
	34	12	397.9953	14328.61	-8969.685	1	16904.56	-32.0465	6.815881E-010	-0.1081376	6
	35	12	315.5048	14817.12	-10852.85	1	18366.59	-36.22103	7.816938E-010	-0.1081432	6
	36	13	252.4038	15388.88	-13062.18	1	20185.1	-40.32482	7.098102E-010	-0.1081466	6
	37	13	198.6229	16142.11	-15962.98	1	22702.08	-44.68031	8.229188E-010	-0.108145	6
	38	13	158.3615	17040.16	-19311.05	1	25754.29	-48.57468	7.472287E-010	-0.1081469	6
	39	14	125.558	18190.37	-23479.65	1	29701.58	-52.23401	7.576849E-010	-0.1081451	6
	40	14	100.4464	19576.07	-28315.2	1	34423.43	-55.34146	7.775953E-010	-0.1081444	6
	41	14	79.00281	21470.76	-34613.78	1	40732.14	-58.18887	5.668532E-010	-0.1081428	6
	42	15	63.3446	23630.8	-41524.31	1	47777.43	-60.3565	5.965389E-010	-0.1081473	6
	43	15	49.86702	26631.82	-50598.3	1	57179.04	-62.24046	6.731006E-010	-0.1081475	6
	44	15	39.72458	30184.1	-60954.06	1	68018.22	-63.65565	7.840519E-010	-0.1081454	6
	45	16	31.6723	34596.07	-73275.61	1	81032.11	-64.7263	7.552211E-010	-0.1081461	6
	46	16	24.93351	40466.9	-88795.79	1	97582.1	-65.49982	9.959958E-010	-0.108142	6
	47	16	19.86229	46918.17	-105639.8	1	115590.2	-66.0524	-4.162124E-009	-0.1167758	5
	48	17	15.83615	55610.15	-126291.1	1	137992.5	-66.23453	-3.170447E-009	-0.1167784	5
	49	17	12.40079	67623.02	-152832.4	1	167124.6	-66.13228	-2.426799E-009	-0.1167735	5
	50	17	9.93114	81487.8	-181087.8	1	198577.6	-65.77271	-1.963214E-009	-0.1167749	5
	51	18	7.944915	99160.7	-213984.5	1	235843.6	-65.13692	-1.707313E-009	-0.1167698	5
	52	18	6.317385	121269.5	-252279.8	1	279913.2	-64.32668	-1.120659E-009	-0.1167714	5
	53	19	5.008013	149173	-296596.5	1	331997.1	-63.29992	-8.245592E-010	-0.1167753	5
	54	20	3.945707	183810.6	-347651.4	1	393252.9	-62.13366	-5.814347E-010	-0.1167735	5
	55	21	3.158693	222736	-401123.7	1	458815.3	-60.95745	-4.883578E-010	-0.1167724	5
	56	23	2.504006	270871.8	-463359.8	1	536725.1	-59.69021	-3.600803E-010	-0.1167787	5
	57	24	1.998082	323814.6	-530322.9	1	621368.1	-58.59181	-2.907614E-010	-0.1167797	5
	58	26	1.584686	386209.2	-607487.1	1	719859.8	-57.55389	-1.834084E-010	-0.1167821	5
	59	29	1.266892	455028	-690976.5	1	827344.6	-56.63394	-1.238779E-010	-0.1167789	5
	60	32	0.999041	538549.9	-790985.4	1	956919	-55.75064	-1.22045E-010	-0.1167758	5
