EXPLAIN
TAG	EISPOT
TITLE	LABEL	Potentiostatic EIS	Test &Identifier
DATE	LABEL	3/12/2020	Date
TIME	LABEL	13:56:12	Time
NOTES	NOTES	1	&Notes...
	
PSTAT	PSTAT	REF600-11020	Potentiostat
VDC	POTEN	0.00000E+000	T	DC &Voltage (V)
FREQINIT	QUANT	1.00000E+006	Initial Fre&q. (Hz)
FREQFINAL	QUANT	1.00000E+000	Final Fre&q. (Hz)
PTSPERDEC	QUANT	1.00000E+001	Points/&decade
VAC	QUANT	2.50000E+001	AC &Voltage (mV rms)
AREA	QUANT	2.50000E-001	&Area (cm^2)
CONDIT	TWOPARAM	F	5.00000E+000	0.00000E+000	Conditionin&g	Time(s)	E(V)
DELAY	TWOPARAM	T	5.00000E+000	0.00000E+000	Init. De&lay	Time(s)	Stab.(mV/s)
SPEED	SELECTOR	1	&Optimize for:
ZGUESS	QUANT	5.00000E+003	E&stimated Z (ohms)
OCVCURVE	TABLE	19
	Pt	T	Vf	Vm	Ach	Over
	#	s	V vs. Ref.	V	V	bits
	0	0.258333	5.03298E-002	5.03298E-002	5.62364E-004	...........
	1	0.516667	5.03293E-002	5.03079E-002	5.67297E-004	...........
	2	0.775	5.03269E-002	5.02920E-002	5.67530E-004	...........
	3	1.03333	5.03200E-002	5.02670E-002	5.66797E-004	...........
	4	1.29167	5.03061E-002	5.01715E-002	5.72397E-004	...........
	5	1.55	5.02823E-002	5.01930E-002	5.66430E-004	...........
	6	1.80833	5.02506E-002	5.02165E-002	5.70997E-004	...........
	7	2.06667	5.02221E-002	5.01866E-002	5.70563E-004	...........
	8	2.325	5.02060E-002	5.02371E-002	5.71997E-004	...........
	9	2.58333	5.02025E-002	5.02068E-002	5.67197E-004	...........
	10	2.84167	5.02048E-002	5.01419E-002	5.71363E-004	...........
	11	3.1	5.02026E-002	5.01482E-002	5.70363E-004	...........
	12	3.35833	5.01902E-002	5.01661E-002	5.67463E-004	...........
	13	3.61667	5.01758E-002	5.02601E-002	5.62963E-004	...........
	14	3.875	5.01755E-002	5.03050E-002	5.63197E-004	...........
	15	4.13333	5.01976E-002	5.02771E-002	5.65130E-004	...........
	16	4.39167	5.02313E-002	5.02187E-002	5.69463E-004	...........
	17	4.65	5.02547E-002	5.02100E-002	5.65864E-004	...........
	18	4.90833	5.02531E-002	5.00638E-002	5.65130E-004	...........
EOC	QUANT	0.0502531	Open Circuit (V)
PSTATMODEL	IQUANT	4	Pstat Model
PSTATSECTION	LABEL	REF600-11020	Pstat Section
PSTATSERIALNO	LABEL	11020	Pstat Serial Number
CTRLMODE	IQUANT	1	Control Mode
IESTAB	IQUANT	0	I/E Stability
CASPEED	IQUANT	1	Control Amp Speed
CONVENTION	IQUANT	1	Current Convention
ICHRANGE	IQUANT	2	Ich Range
ICHRANGEMODE	TOGGLE	F	Ich Auto Range
ICHOFFSETENABLE	TOGGLE	T	Ich Offset Enable
ICHOFFSET	QUANT	0	Ich Offset (V)
ICHFILTER	IQUANT	3	Ich Filter
VCHRANGE	IQUANT	2	Vch Range
VCHRANGEMODE	TOGGLE	F	Vch Auto Range
VCHOFFSETENABLE	TOGGLE	T	Vch Offset Enable
VCHOFFSET	QUANT	0	Vch Offset (V)
VCHFILTER	IQUANT	3	Vch Filter
ACHRANGE	IQUANT	2	Ach Range
ACHOFFSETENABLE	TOGGLE	F	Ach Offset Enable
ACHOFFSET	QUANT	0	Ach Offset (V)
ACHFILTER	IQUANT	3	Ach Filter
IERANGELOWERLIMIT	IQUANT	1	I/E Range Lower Limit
IERANGEMODE	TOGGLE	F	I/E AutoRange
IERANGE	IQUANT	7	I/E Range
POSFEEDENABLE	TOGGLE	F	Positive Feedback IR Comp
POSFEEDRESISTANCE	QUANT	0	Positive Feedback Resistance (ohm)
ACHSELECT	IQUANT	0	Ach Select
CABLEID	IQUANT	14	Cable ID
DCCALDATE	LABEL	2/27/2020	DC Calibration Date
ACCALDATE	LABEL	2/27/2020	AC Calibration Date
THERMOSELECT	IQUANT	1	Thermo Select
FRAMEWORKVERSION	QUANT	6.33	Framework Version
INSTRUMENTVERSION	LABEL	3.50	Instrument Version
ZCURVE	TABLE
	Pt	Time	Freq	Zreal	Zimag	Zsig	Zmod	Zphz	Idc	Vdc	IERange
	#	s	Hz	ohm	ohm	V	ohm	°	A	V	#
	0	1	1000078	1549.956	-2211.71	1	2700.745	-54.97741	-7.339567E-007	0.0525811	8
	1	3	794390.6	1901.658	-2489.236	1	3132.506	-52.62189	-6.190263E-008	0.0523063	8
	2	4	630984.4	2301.254	-2758.932	1	3592.698	-50.16816	2.189408E-006	0.0516591	8
	3	5	501234.4	2760.928	-3021.489	1	4092.936	-47.58005	2.783542E-008	0.0519347	8
	4	7	398109.4	3268.796	-3271.101	1	4624.406	-45.0202	6.3752E-007	0.051827	8
	5	8	316265.6	3847.622	-3496.868	1	5199.257	-42.26578	-1.852265E-007	0.0519419	8
	6	10	251203.1	4499.352	-3661.327	1	5800.817	-39.13681	1.656576E-007	0.0518869	8
	7	11	199546.9	5160.399	-3823.983	1	6422.816	-36.53936	1.85407E-006	0.0515378	8
	8	12	158578.1	5896.248	-3876.408	1	7056.365	-33.32238	-1.415796E-006	0.0522683	8
	9	14	125953.1	6638.693	-3791.101	1	7644.913	-29.72902	-3.922577E-007	0.0530872	7
	10	15	100078.1	7336.652	-3655.537	1	8196.915	-26.4851	1.959622E-008	0.0517802	7
	11	17	79453.13	7982.236	-3466.236	1	8702.349	-23.47259	3.129439E-008	0.0517709	7
	12	18	63140.62	8562.911	-3218.4	1	9147.762	-20.59891	1.580447E-008	0.051816	7
	13	20	50203.12	9058.825	-2941.564	1	9524.45	-17.98955	1.082817E-008	0.0518687	7
	14	21	39890.62	9474.483	-2649.42	1	9837.95	-15.62298	-1.650759E-008	0.0518268	7
	15	23	31640.63	9814.31	-2369.28	1	10096.25	-13.57213	5.769817E-009	0.0517952	7
	16	24	25171.88	10092.97	-2125.277	1	10314.3	-11.89106	-1.457878E-009	0.0518721	7
	17	26	20015.62	10306.91	-1908.715	1	10482.15	-10.49163	3.2339E-008	0.0517594	7
	18	27	15890.62	10479.3	-1735.684	1	10622.07	-9.404508	-1.760296E-008	0.0518448	7
	19	29	12609.37	10650.88	-1558.224	1	10764.26	-8.323328	-5.071056E-009	0.0519157	6
	20	30	10078.13	10768.71	-1492.645	1	10871.66	-7.891453	-1.868622E-009	0.0519243	6
	21	32	8015.625	10867.19	-1470.874	1	10966.28	-7.708138	-1.092349E-009	0.0519367	6
	22	34	6328.125	10958.71	-1502.595	1	11061.24	-7.807384	9.837002E-010	0.0518071	6
	23	35	5015.625	11051.35	-1589.544	1	11165.08	-8.184864	-5.081363E-009	0.0519451	6
	24	37	3984.375	11132.05	-1734.919	1	11266.43	-8.858229	3.141245E-009	0.0518873	6
	25	38	3170.956	11220.78	-1945.17	1	11388.13	-9.83473	-1.681687E-010	0.0519341	6
	26	40	2527.573	11316.96	-2228.098	1	11534.21	-11.13801	-2.069807E-009	0.0518911	6
	27	41	1976.103	11434.31	-2631.981	1	11733.32	-12.96271	4.71651E-009	0.05185	6
	28	43	1577.524	11562.57	-3104.872	1	11972.18	-15.03093	9.843942E-010	0.0518106	6
	29	45	1265.625	11704.77	-3681.892	1	12270.21	-17.46166	-8.984066E-010	0.0518657	6
	30	46	998.264	11892.93	-4455.63	1	12700.17	-20.53823	9.311467E-010	0.0518032	6
	31	48	796.875	12109.66	-5364.088	1	13244.52	-23.89139	-1.683235E-010	0.0519322	6
	32	49	627.7902	12382.91	-6539.348	1	14003.55	-27.8383	4.300485E-009	0.0517706	6
	33	50	505.5147	12693.9	-7848.335	1	14924.19	-31.7275	9.389015E-011	0.0518367	6
	34	52	397.9953	13113.64	-9611.92	1	16259.04	-36.24034	1.07004E-009	0.0518878	6
	35	53	315.5048	13625.62	-11706.98	1	17964.15	-40.6688	5.147836E-010	0.0518866	6
	36	54	252.4038	14226.35	-14151.63	1	20066.34	-44.84914	1.032975E-009	0.0518884	6
	37	56	198.6229	15024.18	-17351.44	1	22952.09	-49.11152	7.778735E-010	0.0518876	6
	38	57	158.3615	15964.53	-21039.25	1	26410.53	-52.80886	8.241566E-010	0.0518825	6
	39	59	125.558	17165	-25629.18	1	30846.26	-56.18803	6.65514E-010	0.0518888	6
	40	60	100.4464	18599.4	-30952.39	1	36110.77	-58.99819	2.723068E-010	0.0518857	6
	41	61	79.00281	20604.86	-37933.18	1	43168.12	-61.48971	8.324524E-010	0.0518825	6
	42	63	63.3446	23101.9	-45859.1	1	51349.34	-63.26294	2.542991E-010	0.0518815	6
	43	64	49.86702	25684.71	-56101.33	1	61701.41	-65.40041	6.098602E-011	0.0518791	6
	44	66	39.72458	29661.28	-67736.8	1	73946.37	-66.35186	7.046217E-010	0.051875	6
	45	67	31.6723	34748.66	-81777.75	1	88854.2	-66.97859	4.999403E-010	0.0518783	6
	46	68	24.93351	41277.7	-99609	1	107823	-67.49102	5.843246E-010	0.0518796	5
	47	70	19.86229	49764.87	-119823.8	1	129747	-67.44606	6.974166E-010	0.0518844	5
	48	71	15.83615	60288.97	-142816.1	1	155020	-67.11324	6.642908E-010	0.0518811	5
	49	72	12.40079	75155.95	-173681.3	1	189244.8	-66.60074	4.404799E-010	0.0518824	5
	50	74	9.93114	94350.03	-204666.8	1	225367.3	-65.25062	4.49843E-010	0.0518753	5
	51	75	7.944915	117531.9	-239685.5	1	266951.1	-63.87857	8.522196E-010	0.0518839	5
	52	77	6.317385	146121.4	-279386.8	1	315291	-62.39009	6.335855E-012	0.0518919	5
	53	79	5.008013	182164.3	-323358.3	1	371139.3	-60.60521	1.662075E-010	0.0518714	5
	54	82	3.945707	225750.8	-371242.2	1	434493.1	-58.69639	5.883276E-010	0.0518936	5
	55	84	3.158693	272475.8	-419935.8	1	500588.8	-57.02244	9.169841E-011	0.0518738	5
	56	88	2.504006	326728.3	-473385.4	1	575191.4	-55.38675	6.422958E-010	0.051889	5
	57	90	1.998082	384706.4	-529099.1	1	654174.9	-53.97921	4.867047E-010	0.0519108	5
	58	94	1.584686	449417.2	-588029	1	740104	-52.61014	2.35032E-010	0.0518441	5
	59	97	1.266892	513947.3	-659519.1	1	836126.3	-52.07158	4.342991E-010	0.0519031	5
	60	102	0.999041	590857.1	-742516.6	1	948916.8	-51.489	6.36333E-011	0.0518577	5
