EXPLAIN
TAG	EISPOT
TITLE	LABEL	Potentiostatic EIS	Test &Identifier
DATE	LABEL	2/21/2020	Date
TIME	LABEL	16:33:55	Time
NOTES	NOTES	1	&Notes...
	
PSTAT	PSTAT	REF600-11020	Potentiostat
VDC	POTEN	0.00000E+000	T	DC &Voltage (V)
FREQINIT	QUANT	1.00000E+006	Initial Fre&q. (Hz)
FREQFINAL	QUANT	1.00000E+000	Final Fre&q. (Hz)
PTSPERDEC	QUANT	1.00000E+001	Points/&decade
VAC	QUANT	2.50000E+001	AC &Voltage (mV rms)
AREA	QUANT	2.08200E-005	&Area (cm^2)
CONDIT	TWOPARAM	F	1.50000E+001	0.00000E+000	Conditionin&g	Time(s)	E(V)
DELAY	TWOPARAM	F	1.00000E+002	0.00000E+000	Init. De&lay	Time(s)	Stab.(mV/s)
SPEED	SELECTOR	1	&Optimize for:
ZGUESS	QUANT	2.00000E+003	E&stimated Z (ohms)
OCVCURVE	TABLE	39
	Pt	T	Vf	Vm	Ach	Over
	#	s	V vs. Ref.	V	V	bits
	0	0.258333	-1.17526E-002	-1.17526E-002	5.77571E-004	...........
	1	0.516667	-1.17520E-002	-1.17202E-002	5.76004E-004	...........
	2	0.775	-1.17493E-002	-1.17499E-002	5.75771E-004	...........
	3	1.03333	-1.17473E-002	-1.18654E-002	5.79204E-004	...........
	4	1.29167	-1.17549E-002	-1.17918E-002	5.77304E-004	...........
	5	1.55	-1.17746E-002	-1.18169E-002	5.81604E-004	...........
	6	1.80833	-1.17958E-002	-1.18264E-002	5.78704E-004	...........
	7	2.06667	-1.18102E-002	-1.18421E-002	5.76771E-004	...........
	8	2.325	-1.18197E-002	-1.18513E-002	5.76338E-004	...........
	9	2.58333	-1.18287E-002	-1.18475E-002	5.76637E-004	...........
	10	2.84167	-1.18371E-002	-1.18339E-002	5.79704E-004	...........
	11	3.1	-1.18426E-002	-1.18541E-002	5.72638E-004	...........
	12	3.35833	-1.18448E-002	-1.18553E-002	5.76138E-004	...........
	13	3.61667	-1.18468E-002	-1.18640E-002	5.79737E-004	...........
	14	3.875	-1.18506E-002	-1.18749E-002	5.83571E-004	...........
	15	4.13333	-1.18567E-002	-1.18797E-002	5.76071E-004	...........
	16	4.39167	-1.18640E-002	-1.18818E-002	5.79437E-004	...........
	17	4.65	-1.18712E-002	-1.18843E-002	5.79204E-004	...........
	18	4.90833	-1.18771E-002	-1.18907E-002	5.80671E-004	...........
	19	5.16667	-1.18816E-002	-1.18933E-002	5.76671E-004	...........
	20	5.425	-1.18855E-002	-1.18927E-002	5.77271E-004	...........
	21	5.68333	-1.18888E-002	-1.18926E-002	5.74471E-004	...........
	22	5.94167	-1.18912E-002	-1.18976E-002	5.78904E-004	...........
	23	6.2	-1.18930E-002	-1.19007E-002	5.79504E-004	...........
	24	6.45833	-1.18948E-002	-1.19017E-002	5.73438E-004	...........
	25	6.71667	-1.18971E-002	-1.19045E-002	5.75804E-004	...........
	26	6.975	-1.18995E-002	-1.19071E-002	5.70738E-004	...........
	27	7.23333	-1.19020E-002	-1.19111E-002	5.75504E-004	...........
	28	7.49167	-1.19047E-002	-1.19181E-002	5.73737E-004	...........
	29	7.75	-1.19083E-002	-1.19368E-002	5.73937E-004	...........
	30	8.00833	-1.19135E-002	-1.19232E-002	5.72604E-004	...........
	31	8.26667	-1.19195E-002	-1.19232E-002	5.81304E-004	...........
	32	8.525	-1.19237E-002	-1.19188E-002	5.79171E-004	...........
	33	8.78333	-1.19247E-002	-1.19155E-002	5.73471E-004	...........
	34	9.04167	-1.19230E-002	-1.19176E-002	5.72371E-004	...........
	35	9.3	-1.19204E-002	-1.19168E-002	5.76771E-004	...........
	36	9.5583	-1.19183E-002	-1.19178E-002	5.79704E-004	...........
	37	9.8167	-1.19174E-002	-1.19204E-002	5.77371E-004	...........
	38	10.075	-1.19178E-002	-1.19388E-002	5.73304E-004	...........
EOC	QUANT	-0.0119178	Open Circuit (V)
PSTATMODEL	IQUANT	4	Pstat Model
PSTATSECTION	LABEL	REF600-11020	Pstat Section
PSTATSERIALNO	LABEL	11020	Pstat Serial Number
CTRLMODE	IQUANT	1	Control Mode
IESTAB	IQUANT	0	I/E Stability
CASPEED	IQUANT	1	Control Amp Speed
CONVENTION	IQUANT	1	Current Convention
ICHRANGE	IQUANT	2	Ich Range
ICHRANGEMODE	TOGGLE	F	Ich Auto Range
ICHOFFSETENABLE	TOGGLE	T	Ich Offset Enable
ICHOFFSET	QUANT	0	Ich Offset (V)
ICHFILTER	IQUANT	3	Ich Filter
VCHRANGE	IQUANT	2	Vch Range
VCHRANGEMODE	TOGGLE	F	Vch Auto Range
VCHOFFSETENABLE	TOGGLE	T	Vch Offset Enable
VCHOFFSET	QUANT	0	Vch Offset (V)
VCHFILTER	IQUANT	3	Vch Filter
ACHRANGE	IQUANT	2	Ach Range
ACHOFFSETENABLE	TOGGLE	F	Ach Offset Enable
ACHOFFSET	QUANT	0	Ach Offset (V)
ACHFILTER	IQUANT	3	Ach Filter
IERANGELOWERLIMIT	IQUANT	1	I/E Range Lower Limit
IERANGEMODE	TOGGLE	F	I/E AutoRange
IERANGE	IQUANT	7	I/E Range
POSFEEDENABLE	TOGGLE	F	Positive Feedback IR Comp
POSFEEDRESISTANCE	QUANT	0	Positive Feedback Resistance (ohm)
ACHSELECT	IQUANT	0	Ach Select
CABLEID	IQUANT	14	Cable ID
DCCALDATE	LABEL	1/27/2020	DC Calibration Date
ACCALDATE	LABEL	1/27/2020	AC Calibration Date
THERMOSELECT	IQUANT	1	Thermo Select
FRAMEWORKVERSION	QUANT	6.33	Framework Version
INSTRUMENTVERSION	LABEL	3.50	Instrument Version
ZCURVE	TABLE
	Pt	Time	Freq	Zreal	Zimag	Zsig	Zmod	Zphz	Idc	Vdc	IERange
	#	s	Hz	ohm	ohm	V	ohm	°	A	V	#
	0	1	1000078	1713.813	-1976.247	1	2615.856	-49.06798	1.238959E-006	-0.0099843	8
	1	3	794390.6	2134.638	-2092.232	1	2988.999	-44.4252	1.538832E-006	-0.0103415	8
	2	4	630984.4	2576.402	-2134.385	1	3345.661	-39.63959	-1.930433E-006	-0.0098689	8
	3	5	501234.4	3027.771	-2088.714	1	3678.332	-34.59993	5.98957E-007	-0.0104201	8
	4	7	398109.4	3444.886	-1975.516	1	3971.134	-29.83269	1.444728E-008	-0.0104274	8
	5	8	316265.6	3798.136	-1807.068	1	4206.106	-25.44405	1.851137E-006	-0.0108071	8
	6	9	251203.1	4074.552	-1604.864	1	4379.22	-21.49824	-8.705769E-007	-0.0102774	8
	7	11	199546.9	4309.965	-1405.688	1	4533.405	-18.06365	-6.945458E-007	-0.0103625	8
	8	12	158578.1	4474.436	-1233.6	1	4641.373	-15.41351	1.233091E-007	-0.0104301	8
	9	13	125953.1	4623.726	-1049.609	1	4741.363	-12.78969	6.402311E-008	-0.0106964	7
	10	15	100078.1	4723.868	-913.7236	1	4811.426	-10.94736	1.676243E-008	-0.01052	7
	11	16	79453.13	4798.163	-811.9547	1	4866.378	-9.60471	-1.063976E-008	-0.0104803	7
	12	17	63140.62	4861.935	-733.4771	1	4916.95	-8.579015	-6.903309E-009	-0.0104624	7
	13	19	50203.12	4916.261	-677.1387	1	4962.675	-7.842261	-2.17944E-008	-0.0104816	7
	14	20	39890.62	4966.149	-643.426	1	5007.657	-7.382253	-1.5156E-008	-0.0104912	7
	15	22	31640.63	5014.588	-627.7679	1	5053.73	-7.135641	-6.979862E-009	-0.0104981	7
	16	23	25171.88	5063.268	-631.3619	1	5102.479	-7.107785	2.119274E-008	-0.0105205	7
	17	24	20015.62	5112.661	-651.1948	1	5153.965	-7.258626	2.729043E-008	-0.0105797	7
	18	26	15890.62	5165.464	-690.6062	1	5211.426	-7.615105	-8.025323E-009	-0.0104969	7
	19	27	12609.37	5222.545	-746.5753	1	5275.638	-8.13545	1.212429E-008	-0.0105593	7
	20	28	10078.13	5281.094	-819.9141	1	5344.362	-8.824978	-1.376673E-008	-0.0104969	7
	21	30	8015.625	5346.187	-917.9102	1	5424.415	-9.74237	2.144118E-008	-0.0105153	7
	22	31	6328.125	5419.334	-1044.396	1	5519.053	-10.90812	3.864509E-008	-0.0105496	7
	23	32	5015.625	5497.885	-1198.656	1	5627.034	-12.29924	1.171643E-008	-0.0105549	7
	24	34	3984.375	5583.795	-1386.421	1	5753.341	-13.94419	1.154062E-009	-0.0105294	7
	25	35	3170.956	5678.217	-1617.299	1	5904.05	-15.89829	-2.090678E-008	-0.0104891	7
	26	36	2527.573	5783.342	-1897.929	1	6086.804	-18.16837	4.923193E-008	-0.0105941	7
	27	38	1976.103	5914.319	-2271.946	1	6335.685	-21.01394	-1.321986E-008	-0.0104994	7
	28	39	1577.524	6050.616	-2694.886	1	6623.622	-24.00773	4.043543E-008	-0.0105541	7
	29	40	1265.625	6204.239	-3192.441	1	6977.411	-27.22845	-6.746319E-009	-0.0104887	7
	30	42	998.264	6400.518	-3846.047	1	7467.175	-31.0015	-1.228063E-008	-0.0105076	7
	31	43	796.875	6618.308	-4601.624	1	8060.827	-34.81039	1.912909E-008	-0.0105531	7
	32	44	627.7902	6894.44	-5581.576	1	8870.586	-38.99281	1.990744E-008	-0.0105563	7
	33	46	505.5147	7195.258	-6656.838	1	9802.31	-42.77408	4.031219E-009	-0.0105679	6
	34	47	397.9953	7595.019	-8099.621	1	11103.52	-46.8415	1.512619E-009	-0.0105095	6
	35	49	315.5048	8064.326	-9806.79	1	12696.71	-50.56882	9.346451E-010	-0.0105132	6
	36	50	252.4038	8606.903	-11790.38	1	14597.66	-53.87078	1.012674E-009	-0.0105139	6
	37	51	198.6229	9313.039	-14374.76	1	17127.94	-57.06183	1.013449E-009	-0.0105113	6
	38	53	158.3615	10119.24	-17341.16	1	20077.72	-59.73478	8.471622E-010	-0.0105182	6
	39	54	125.558	11112.88	-21014.66	1	23772.08	-62.12941	9.210576E-010	-0.0105155	6
	40	55	100.4464	12238.17	-25287.82	1	28093.54	-64.1751	1.205911E-009	-0.0105224	6
	41	57	79.00281	13741.82	-30916.38	1	33832.83	-66.03564	6.879538E-010	-0.0105233	6
	42	58	63.3446	15565.71	-37179.4	1	40306.32	-67.28265	6.813373E-010	-0.0105231	6
	43	59	49.86702	17408.51	-45470.61	1	48689.14	-69.05056	1.196088E-009	-0.0105262	6
	44	61	39.72458	20069.28	-54999.84	1	58547.07	-69.95313	1.197457E-009	-0.0105175	6
	45	62	31.6723	23358.08	-66707.11	1	70678.41	-70.70185	1.288959E-009	-0.0105228	6
	46	64	24.93351	27468.83	-81652.67	1	86149.27	-71.40651	1.070035E-009	-0.0105224	6
	47	65	19.86229	32653.56	-98896.6	1	104148	-71.72788	1.360135E-009	-0.0105186	6
	48	66	15.83615	39174.67	-119503.6	1	125760.7	-71.85025	2.308773E-010	-0.0105273	5
	49	68	12.40079	48922	-147070.5	1	154993.8	-71.60064	-1.637845E-010	-0.0105199	5
	50	69	9.93114	59560.86	-176362.3	1	186148.2	-71.33921	3.032513E-010	-0.0105192	5
	51	71	7.944915	74204.84	-211619.1	1	224252.1	-70.67664	4.770381E-010	-0.0105225	5
	52	72	6.317385	93399.03	-253526	1	270182.9	-69.77619	1.737876E-010	-0.0105095	5
	53	74	5.008013	118443.1	-303478.2	1	325772.6	-68.68002	1.963146E-010	-0.0105194	5
	54	77	3.945707	151430.9	-362783.7	1	393120	-67.34367	-1.168918E-010	-0.0105269	5
	55	80	3.158693	189822.1	-425474.4	1	465897.9	-65.95634	1.036038E-010	-0.0105084	5
	56	83	2.504006	239941.9	-499292.3	1	553953.9	-64.33274	-2.990684E-010	-0.0105249	5
	57	86	1.998082	298698.8	-577961.5	1	650584.7	-62.66943	-1.076535E-010	-0.0105638	5
	58	89	1.584686	369740.2	-665482.1	1	761297.8	-60.94356	-1.3188E-010	-0.010511	5
	59	92	1.266892	451683	-760385	1	884422.4	-59.28889	-8.424169E-011	-0.0105696	5
	60	97	0.999041	552118.8	-868195.9	1	1028883	-57.54617	-4.002222E-011	-0.0105425	4
