EXPLAIN
TAG	EISPOT
TITLE	LABEL	Potentiostatic EIS	Test &Identifier
DATE	LABEL	3/17/2020	Date
TIME	LABEL	16:06:45	Time
NOTES	NOTES	1	&Notes...
	
PSTAT	PSTAT	REF600-11020	Potentiostat
VDC	POTEN	0.00000E+000	T	DC &Voltage (V)
FREQINIT	QUANT	1.00000E+006	Initial Fre&q. (Hz)
FREQFINAL	QUANT	1.00000E+000	Final Fre&q. (Hz)
PTSPERDEC	QUANT	1.00000E+001	Points/&decade
VAC	QUANT	2.50000E+001	AC &Voltage (mV rms)
AREA	QUANT	4.00000E-004	&Area (cm^2)
CONDIT	TWOPARAM	F	5.00000E+000	0.00000E+000	Conditionin&g	Time(s)	E(V)
DELAY	TWOPARAM	T	3.00000E+000	0.00000E+000	Init. De&lay	Time(s)	Stab.(mV/s)
SPEED	SELECTOR	0	&Optimize for:
ZGUESS	QUANT	5.00000E+003	E&stimated Z (ohms)
OCVCURVE	TABLE	12
	Pt	T	Vf	Vm	Ach	Over
	#	s	V vs. Ref.	V	V	bits
	0	0.258333	-7.93388E-003	-7.93388E-003	5.83163E-004	...........
	1	0.516667	-7.93390E-003	-7.93513E-003	5.86796E-004	...........
	2	0.775	-7.93407E-003	-7.93749E-003	5.88497E-004	...........
	3	1.03333	-7.93464E-003	-7.94074E-003	5.85430E-004	...........
	4	1.29167	-7.93577E-003	-7.93711E-003	5.83930E-004	...........
	5	1.55	-7.93713E-003	-7.94107E-003	5.84830E-004	...........
	6	1.80833	-7.93833E-003	-7.94207E-003	5.80930E-004	...........
	7	2.06667	-7.93941E-003	-7.94458E-003	5.82730E-004	...........
	8	2.325	-7.94070E-003	-7.94584E-003	5.78097E-004	...........
	9	2.58333	-7.94229E-003	-7.94833E-003	5.80863E-004	...........
	10	2.84167	-7.94409E-003	-7.94931E-003	5.79230E-004	...........
	11	3.1	-7.94590E-003	-7.95003E-003	5.80430E-004	...........
EOC	QUANT	-0.0079459	Open Circuit (V)
PSTATMODEL	IQUANT	4	Pstat Model
PSTATSECTION	LABEL	REF600-11020	Pstat Section
PSTATSERIALNO	LABEL	11020	Pstat Serial Number
CTRLMODE	IQUANT	1	Control Mode
IESTAB	IQUANT	0	I/E Stability
CASPEED	IQUANT	1	Control Amp Speed
CONVENTION	IQUANT	1	Current Convention
ICHRANGE	IQUANT	2	Ich Range
ICHRANGEMODE	TOGGLE	F	Ich Auto Range
ICHOFFSETENABLE	TOGGLE	T	Ich Offset Enable
ICHOFFSET	QUANT	0	Ich Offset (V)
ICHFILTER	IQUANT	3	Ich Filter
VCHRANGE	IQUANT	2	Vch Range
VCHRANGEMODE	TOGGLE	F	Vch Auto Range
VCHOFFSETENABLE	TOGGLE	T	Vch Offset Enable
VCHOFFSET	QUANT	0	Vch Offset (V)
VCHFILTER	IQUANT	3	Vch Filter
ACHRANGE	IQUANT	2	Ach Range
ACHOFFSETENABLE	TOGGLE	F	Ach Offset Enable
ACHOFFSET	QUANT	0	Ach Offset (V)
ACHFILTER	IQUANT	3	Ach Filter
IERANGELOWERLIMIT	IQUANT	1	I/E Range Lower Limit
IERANGEMODE	TOGGLE	F	I/E AutoRange
IERANGE	IQUANT	6	I/E Range
POSFEEDENABLE	TOGGLE	F	Positive Feedback IR Comp
POSFEEDRESISTANCE	QUANT	0	Positive Feedback Resistance (ohm)
ACHSELECT	IQUANT	0	Ach Select
CABLEID	IQUANT	14	Cable ID
DCCALDATE	LABEL	2/27/2020	DC Calibration Date
ACCALDATE	LABEL	2/27/2020	AC Calibration Date
THERMOSELECT	IQUANT	1	Thermo Select
FRAMEWORKVERSION	QUANT	6.33	Framework Version
INSTRUMENTVERSION	LABEL	3.50	Instrument Version
ZCURVE	TABLE
	Pt	Time	Freq	Zreal	Zimag	Zsig	Zmod	Zphz	Idc	Vdc	IERange
	#	s	Hz	ohm	ohm	V	ohm	°	A	V	#
	0	1	1000078	1559.673	-2234.138	1	2724.693	-55.08075	2.157112E-008	-0.005654	8
	1	1	794390.6	1829.825	-2529.572	1	3122.018	-54.11902	5.8094E-008	-0.0059968	8
	2	2	630984.4	2123.208	-2858.312	1	3560.612	-53.39434	4.267329E-008	-0.0061497	8
	3	2	501234.4	2438.103	-3239.94	1	4054.819	-53.038	3.363088E-008	-0.0062488	8
	4	2	398109.4	2801.168	-3668.333	1	4615.54	-52.63435	3.045577E-008	-0.0063069	8
	5	3	316265.6	3199.938	-4175.239	1	5260.439	-52.53314	2.547072E-008	-0.0063232	8
	6	3	251203.1	3655.973	-4778.115	1	6016.354	-52.5786	3.242086E-008	-0.0063452	8
	7	3	199546.9	4179.528	-5461.64	1	6877.352	-52.57492	2.075901E-008	-0.0063262	8
	8	3	158578.1	4808.365	-6273.691	1	7904.402	-52.53225	4.159527E-008	-0.0063503	8
	9	4	125953.1	5649.866	-7163.327	1	9123.28	-51.73642	-6.072093E-010	-0.006394	7
	10	4	100078.1	6505.113	-8191.234	1	10460.06	-51.54496	2.025086E-009	-0.0064117	7
	11	4	79453.13	7585.488	-9390.705	1	12071.66	-51.06992	2.505455E-009	-0.0064292	7
	12	5	63140.62	8874.215	-10696.88	1	13898.74	-50.32064	3.532166E-009	-0.0064253	7
	13	5	50203.12	10426.46	-12062.18	1	15943.88	-49.16011	2.075554E-009	-0.0064285	7
	14	5	39890.62	12282.06	-13512.19	1	18260.02	-47.73037	2.155721E-009	-0.006423	7
	15	6	31640.63	14491.23	-14973.09	1	20837.21	-45.93694	1.91381E-009	-0.0064261	7
	16	6	25171.88	17004.55	-16344.67	1	23586.07	-43.86644	2.428729E-009	-0.0064244	7
	17	6	20015.62	19833.13	-17546.61	1	26480.87	-41.49957	2.146506E-009	-0.0064268	7
	18	7	15890.62	22932.43	-18563.46	1	29504.21	-38.98965	2.386534E-009	-0.0064297	7
	19	7	12609.37	26506.61	-19098.65	1	32670.46	-35.77366	9.8833E-010	-0.0063806	6
	20	7	10078.13	29778.37	-19580	1	35638.85	-33.32589	9.92085E-010	-0.0063791	6
	21	8	8015.625	33144.32	-19765.92	1	38590.64	-30.81013	7.742434E-010	-0.0063894	6
	22	8	6328.125	36583.49	-19725.23	1	41562.44	-28.33283	8.750386E-010	-0.0063862	6
	23	8	5015.625	39854.96	-19449.71	1	44347.59	-26.01295	1.053341E-009	-0.0063824	6
	24	9	3984.375	42966.61	-19067.32	1	47007.36	-23.93024	1.056469E-009	-0.0063799	6
	25	9	3170.956	45868.69	-18538.88	1	49473.5	-22.00722	8.509732E-010	-0.006386	6
	26	9	2527.573	48610.14	-17967.98	1	51824.65	-20.28605	9.234843E-010	-0.0063838	6
	27	10	1976.103	51363.55	-17314.77	1	54203.46	-18.62908	8.151896E-010	-0.0063932	6
	28	10	1577.524	53762.1	-16750.33	1	56311.07	-17.30515	1.048655E-009	-0.0063914	6
	29	10	1265.625	55885.25	-16192.97	1	58183.96	-16.15915	1.038341E-009	-0.0063847	6
	30	11	998.264	58056.3	-15704.3	1	60142.82	-15.13634	7.87667E-010	-0.006392	6
	31	11	796.875	59910.26	-15341.43	1	61843.34	-14.36329	8.830102E-010	-0.0063893	6
	32	11	627.7902	61703.21	-15121.39	1	63529.07	-13.7699	6.976326E-010	-0.0063946	6
	33	12	505.5147	63189.71	-15177.47	1	64986.89	-13.50597	9.044412E-010	-0.0063931	6
	34	12	397.9953	64746.62	-15551.63	1	66588.12	-13.50614	8.704678E-010	-0.00638	6
	35	12	315.5048	66210.55	-16273.7	1	68181.16	-13.80883	8.259803E-010	-0.0063803	6
	36	13	252.4038	67617.2	-17355.3	1	69808.97	-14.39536	6.987597E-010	-0.0063797	6
	37	13	198.6229	69174.69	-19001.32	1	71736.94	-15.35953	7.384345E-010	-0.0063854	6
	38	13	158.3615	70722.77	-21080.59	1	73797.7	-16.59793	5.654844E-010	-0.0063852	6
	39	14	125.558	72590.66	-23830.27	1	76402.13	-18.17412	4.520278E-010	-0.006383	6
	40	14	100.4464	74493.15	-27101.46	1	79269.91	-19.99197	3.355463E-010	-0.0063825	6
	41	14	79.00281	76924.08	-31418.54	1	83092.95	-22.21686	6.056253E-010	-0.0063876	6
	42	15	63.3446	79584.84	-36225.13	1	87441.45	-24.4739	5.82808E-010	-0.0063897	6
	43	15	49.86702	83036.94	-42349.59	1	93212.77	-27.02199	2.238128E-010	-0.0063937	5
	44	15	39.72458	87041.7	-49320.48	1	100043.8	-29.53721	1.558264E-011	-0.0063829	5
	45	16	31.6723	91929.6	-57377	1	108365.9	-31.96996	2.52718E-010	-0.0063852	5
	46	16	24.93351	98133.1	-67253.25	1	118966.8	-34.42389	-2.792398E-010	-0.0063868	5
	47	16	19.86229	105330.5	-78151.11	1	131156.8	-36.57397	-1.457271E-009	-0.0063819	5
	48	16	15.83615	113599.2	-89926.39	1	144884.6	-38.36552	1.007663E-009	-0.0063858	5
	49	17	12.40079	124370.5	-104495.3	1	162441.6	-40.03676	1.545001E-009	-0.0063919	5
	50	17	9.93114	135098.4	-119393.8	1	180295.4	-41.46878	1.647999E-009	-0.0063818	5
	51	17	7.944915	148417.9	-136677.5	1	201763.8	-42.64185	-2.088048E-010	-0.0063852	5
	52	18	6.317385	163263.3	-156473.6	1	226139.1	-43.7835	-1.113628E-011	-0.0063885	5
	53	19	5.008013	180153.6	-179232.4	1	254125.1	-44.85313	4.351761E-010	-0.0063795	5
	54	20	3.945707	200417	-206156.7	1	287519.7	-45.8088	2.497224E-010	-0.0063921	5
	55	20	3.158693	221242.7	-235262.7	1	322950.3	-46.7591	2.712514E-010	-0.0063752	5
	56	21	2.504006	246840.3	-270318.8	1	366063.4	-47.5994	-1.249126E-010	-0.0063831	5
	57	23	1.998082	274300.2	-309673.6	1	413688.6	-48.46638	-3.329343E-011	-0.0063945	5
	58	24	1.584686	308302.4	-355761.8	1	470762	-49.08787	1.60237E-010	-0.0063495	5
	59	26	1.266892	346194.8	-408510.7	1	535473.5	-49.7202	1.846361E-010	-0.0063492	5
	60	29	0.999041	392307.1	-471651.4	1	613481.8	-50.24722	1.96483E-010	-0.0063766	5
