EXPLAIN
TAG	EISPOT
TITLE	LABEL	Potentiostatic EIS	Test &Identifier
DATE	LABEL	3/12/2020	Date
TIME	LABEL	12:54:30	Time
NOTES	NOTES	1	&Notes...
	
PSTAT	PSTAT	REF600-11020	Potentiostat
VDC	POTEN	0.00000E+000	T	DC &Voltage (V)
FREQINIT	QUANT	1.00000E+006	Initial Fre&q. (Hz)
FREQFINAL	QUANT	1.00000E+000	Final Fre&q. (Hz)
PTSPERDEC	QUANT	1.00000E+001	Points/&decade
VAC	QUANT	2.50000E+001	AC &Voltage (mV rms)
AREA	QUANT	2.50000E-001	&Area (cm^2)
CONDIT	TWOPARAM	F	5.00000E+000	0.00000E+000	Conditionin&g	Time(s)	E(V)
DELAY	TWOPARAM	T	5.00000E+000	0.00000E+000	Init. De&lay	Time(s)	Stab.(mV/s)
SPEED	SELECTOR	1	&Optimize for:
ZGUESS	QUANT	5.00000E+003	E&stimated Z (ohms)
OCVCURVE	TABLE	19
	Pt	T	Vf	Vm	Ach	Over
	#	s	V vs. Ref.	V	V	bits
	0	0.258333	9.56465E-002	9.56465E-002	5.52764E-004	...........
	1	0.516667	9.56428E-002	9.54521E-002	5.52097E-004	...........
	2	0.775	9.56198E-002	9.52603E-002	5.52930E-004	...........
	3	1.03333	9.55545E-002	9.50793E-002	5.51864E-004	...........
	4	1.29167	9.54369E-002	9.49031E-002	5.54064E-004	...........
	5	1.55	9.52794E-002	9.47250E-002	5.53230E-004	...........
	6	1.80833	9.51027E-002	9.45526E-002	5.55864E-004	...........
	7	2.06667	9.49218E-002	9.43844E-002	5.51430E-004	...........
	8	2.325	9.47435E-002	9.42205E-002	5.59664E-004	...........
	9	2.58333	9.45698E-002	9.40622E-002	5.55564E-004	...........
	10	2.84167	9.44009E-002	9.39059E-002	5.53464E-004	...........
	11	3.1	9.42368E-002	9.37566E-002	5.50664E-004	...........
	12	3.35833	9.40771E-002	9.36065E-002	5.49164E-004	...........
	13	3.61667	9.39215E-002	9.34617E-002	5.50597E-004	...........
	14	3.875	9.37695E-002	9.33167E-002	5.51330E-004	...........
	15	4.13333	9.36205E-002	9.31768E-002	5.55164E-004	...........
	16	4.39167	9.34741E-002	9.30367E-002	5.54064E-004	...........
	17	4.65	9.33304E-002	9.29033E-002	5.53730E-004	...........
	18	4.90833	9.31891E-002	9.27672E-002	5.54797E-004	...........
EOC	QUANT	0.0931891	Open Circuit (V)
PSTATMODEL	IQUANT	4	Pstat Model
PSTATSECTION	LABEL	REF600-11020	Pstat Section
PSTATSERIALNO	LABEL	11020	Pstat Serial Number
CTRLMODE	IQUANT	1	Control Mode
IESTAB	IQUANT	0	I/E Stability
CASPEED	IQUANT	1	Control Amp Speed
CONVENTION	IQUANT	1	Current Convention
ICHRANGE	IQUANT	2	Ich Range
ICHRANGEMODE	TOGGLE	F	Ich Auto Range
ICHOFFSETENABLE	TOGGLE	T	Ich Offset Enable
ICHOFFSET	QUANT	0	Ich Offset (V)
ICHFILTER	IQUANT	3	Ich Filter
VCHRANGE	IQUANT	2	Vch Range
VCHRANGEMODE	TOGGLE	F	Vch Auto Range
VCHOFFSETENABLE	TOGGLE	T	Vch Offset Enable
VCHOFFSET	QUANT	0	Vch Offset (V)
VCHFILTER	IQUANT	3	Vch Filter
ACHRANGE	IQUANT	2	Ach Range
ACHOFFSETENABLE	TOGGLE	F	Ach Offset Enable
ACHOFFSET	QUANT	0	Ach Offset (V)
ACHFILTER	IQUANT	3	Ach Filter
IERANGELOWERLIMIT	IQUANT	1	I/E Range Lower Limit
IERANGEMODE	TOGGLE	F	I/E AutoRange
IERANGE	IQUANT	7	I/E Range
POSFEEDENABLE	TOGGLE	F	Positive Feedback IR Comp
POSFEEDRESISTANCE	QUANT	0	Positive Feedback Resistance (ohm)
ACHSELECT	IQUANT	0	Ach Select
CABLEID	IQUANT	14	Cable ID
DCCALDATE	LABEL	2/27/2020	DC Calibration Date
ACCALDATE	LABEL	2/27/2020	AC Calibration Date
THERMOSELECT	IQUANT	1	Thermo Select
FRAMEWORKVERSION	QUANT	6.33	Framework Version
INSTRUMENTVERSION	LABEL	3.50	Instrument Version
ZCURVE	TABLE
	Pt	Time	Freq	Zreal	Zimag	Zsig	Zmod	Zphz	Idc	Vdc	IERange
	#	s	Hz	ohm	ohm	V	ohm	°	A	V	#
	0	1	1000078	1743.352	-1792.397	1	2500.393	-45.79472	3.782621E-007	0.0956802	8
	1	3	794390.6	2118.886	-1833.055	1	2801.744	-40.86319	6.876751E-006	0.0936124	8
	2	4	630984.4	2533.258	-1825.862	1	3122.686	-35.78242	-2.818857E-006	0.0953284	8
	3	6	501234.4	2888.719	-1738.666	1	3371.595	-31.04294	-2.230689E-007	0.0950462	8
	4	7	398109.4	3186.216	-1608.479	1	3569.198	-26.78575	-1.665163E-006	0.0955099	8
	5	9	316265.6	3467.857	-1427.537	1	3750.186	-22.37443	-1.854679E-006	0.0955224	8
	6	10	251203.1	3677.744	-1280.99	1	3894.45	-19.20367	-2.05144E-006	0.0952208	8
	7	12	199546.9	3835.989	-1127.353	1	3998.216	-16.37745	-2.355388E-006	0.0954979	8
	8	13	158578.1	3969.841	-987.85	1	4090.902	-13.9736	1.973099E-006	0.0945198	8
	9	14	125953.1	4107.964	-791.652	1	4183.549	-10.90784	1.177701E-007	0.0943347	7
	10	16	100078.1	4163.9	-709.0471	1	4223.839	-9.66388	-3.862774E-008	0.0948527	7
	11	17	79453.13	4224.568	-653.2083	1	4274.77	-8.789544	6.362369E-008	0.0947788	7
	12	19	63140.62	4280.729	-616.6581	1	4324.917	-8.197322	-2.638389E-008	0.0948718	7
	13	20	50203.12	4330.67	-595.832	1	4371.467	-7.833813	3.926878E-008	0.0946271	7
	14	21	39890.62	4379.039	-589.2206	1	4418.502	-7.663394	6.578181E-008	0.0947649	7
	15	23	31640.63	4428.269	-599.3068	1	4468.639	-7.707387	-2.487429E-008	0.0948612	7
	16	24	25171.88	4477.825	-625.5936	1	4521.314	-7.953272	-5.154198E-008	0.0948263	7
	17	25	20015.62	4530.16	-667.0556	1	4579.007	-8.376479	-6.73113E-008	0.0948648	7
	18	27	15890.62	4586.463	-726.5958	1	4643.661	-9.002089	-8.600612E-010	0.0947033	7
	19	28	12609.37	4648.902	-804.3909	1	4717.98	-9.81659	2.610709E-009	0.0948567	7
	20	29	10078.13	4713.479	-900.9359	1	4798.809	-10.82101	-3.951219E-008	0.0948699	7
	21	31	8015.625	4787.288	-1021.072	1	4894.968	-12.0401	-1.621062E-009	0.0947019	7
	22	32	6328.125	4871.756	-1176.322	1	5011.76	-13.57467	-4.151557E-008	0.0948435	7
	23	33	5015.625	4965.62	-1363.717	1	5149.477	-15.35664	-3.966685E-008	0.0948226	7
	24	35	3984.375	5068.882	-1586.772	1	5311.441	-17.3823	1.095259E-008	0.0947548	7
	25	36	3170.956	5187.786	-1855.454	1	5509.613	-19.68001	-5.227475E-008	0.0948237	7
	26	37	2527.573	5319.111	-2176.871	1	5747.322	-22.25706	-3.996061E-008	0.0948239	7
	27	39	1976.103	5486.686	-2600.708	1	6071.854	-25.36111	1.275326E-007	0.0945963	7
	28	40	1577.524	5661.353	-3070.158	1	6440.248	-28.47103	9.660512E-009	0.0947073	7
	29	42	1265.625	5857.659	-3619.89	1	6885.911	-31.71506	-6.297127E-008	0.0948587	7
	30	43	998.264	6100.781	-4343.579	1	7489.072	-35.44976	-4.441901E-008	0.0948492	7
	31	44	796.875	6372.248	-5161.128	1	8200.17	-39.00534	-5.156097E-008	0.0948104	7
	32	46	627.7902	6714.456	-6232.438	1	9161.179	-42.86784	6.893702E-009	0.0947718	7
	33	47	505.5147	7078.769	-7387.216	1	10231.32	-46.22149	2.363557E-009	0.0948802	6
	34	48	397.9953	7558.371	-8952.224	1	11716.28	-49.82557	5.285177E-010	0.0948322	6
	35	50	315.5048	8113.505	-10805.63	1	13512.61	-53.09862	1.789321E-009	0.0948356	6
	36	51	252.4038	8765.398	-12960.8	1	15646.55	-55.92948	1.392974E-010	0.0948308	6
	37	52	198.6229	9627.94	-15768.25	1	18475.25	-58.59217	7.487577E-010	0.094829	6
	38	54	158.3615	10650.28	-18988.81	1	21771.61	-60.71318	8.252517E-010	0.094829	6
	39	55	125.558	11937.64	-22969.48	1	25886.38	-62.53831	1.299264E-009	0.0948314	6
	40	56	100.4464	13543.59	-27585.24	1	30730.68	-63.85024	1.962926E-009	0.0948301	6
	41	58	79.00281	15642.22	-33403.16	1	36884.29	-64.90698	1.373172E-010	0.094829	6
	42	59	63.3446	18136.89	-39441.41	1	43411.66	-65.30495	1.01909E-009	0.0948261	6
	43	61	49.86702	21840.44	-48691.73	1	53365.62	-65.84161	1.293179E-009	0.0948269	6
	44	62	39.72458	25623.27	-57860.95	1	63280.65	-66.11422	8.599158E-010	0.0948311	6
	45	63	31.6723	31000.55	-68700.49	1	75371.03	-65.7131	3.027056E-010	0.0948304	6
	46	65	24.93351	37680.33	-82421.79	1	90626.48	-65.43179	7.532686E-010	0.0948313	6
	47	66	19.86229	45760.6	-97456.8	1	107665.5	-64.84772	6.31444E-010	0.0948402	5
	48	67	15.83615	55136.82	-114736	1	127296.6	-64.33321	8.900831E-010	0.09484	5
	49	69	12.40079	69417.07	-135334.6	1	152099.3	-62.84539	-3.75317E-011	0.0948409	5
	50	70	9.93114	84929.37	-157422.9	1	178871.4	-61.65322	1.554555E-010	0.0948421	5
	51	72	7.944915	101789.9	-180754.9	1	207445.2	-60.61451	1.194341E-009	0.094838	5
	52	73	6.317385	124618.9	-207229.5	1	241813.8	-58.97912	7.900592E-010	0.0948504	5
	53	76	5.008013	149667.6	-237065.2	1	280357.5	-57.73434	6.45065E-010	0.0948523	5
	54	78	3.945707	178886.9	-270300.4	1	324133.9	-56.5031	9.990268E-011	0.09483	5
	55	81	3.158693	208850.1	-304979	1	369635.7	-55.5966	4.925714E-010	0.0948492	5
	56	84	2.504006	243033.5	-345565.7	1	422470	-54.88159	7.286282E-011	0.0948431	5
	57	87	1.998082	277766.5	-389864.3	1	478694.5	-54.53128	5.002477E-010	0.0948047	5
	58	90	1.584686	317128.5	-445011.8	1	546448.6	-54.52521	2.248307E-010	0.0948004	5
	59	93	1.266892	358313.7	-505889	1	619929.3	-54.69063	4.526225E-010	0.0948073	5
	60	98	0.999041	405680.5	-584692.3	1	711647.2	-55.2457	1.581276E-010	0.0948559	5
