EXPLAIN
TAG	EISPOT
TITLE	LABEL	Potentiostatic EIS	Test &Identifier
DATE	LABEL	3/12/2020	Date
TIME	LABEL	14:17:31	Time
NOTES	NOTES	1	&Notes...
	
PSTAT	PSTAT	REF600-11020	Potentiostat
VDC	POTEN	0.00000E+000	T	DC &Voltage (V)
FREQINIT	QUANT	1.00000E+006	Initial Fre&q. (Hz)
FREQFINAL	QUANT	1.00000E+000	Final Fre&q. (Hz)
PTSPERDEC	QUANT	1.00000E+001	Points/&decade
VAC	QUANT	2.50000E+001	AC &Voltage (mV rms)
AREA	QUANT	2.50000E-001	&Area (cm^2)
CONDIT	TWOPARAM	F	5.00000E+000	0.00000E+000	Conditionin&g	Time(s)	E(V)
DELAY	TWOPARAM	T	5.00000E+000	0.00000E+000	Init. De&lay	Time(s)	Stab.(mV/s)
SPEED	SELECTOR	1	&Optimize for:
ZGUESS	QUANT	5.00000E+003	E&stimated Z (ohms)
OCVCURVE	TABLE	19
	Pt	T	Vf	Vm	Ach	Over
	#	s	V vs. Ref.	V	V	bits
	0	0.258333	5.79247E-002	5.79247E-002	5.75197E-004	...........
	1	0.516667	5.79244E-002	5.79107E-002	5.78230E-004	...........
	2	0.775	5.79220E-002	5.78554E-002	5.77697E-004	...........
	3	1.03333	5.79129E-002	5.78282E-002	5.77230E-004	...........
	4	1.29167	5.78940E-002	5.78243E-002	5.78730E-004	...........
	5	1.55	5.78688E-002	5.78075E-002	5.80530E-004	...........
	6	1.80833	5.78444E-002	5.77916E-002	5.76130E-004	...........
	7	2.06667	5.78244E-002	5.77819E-002	5.79230E-004	...........
	8	2.325	5.78083E-002	5.77688E-002	5.78963E-004	...........
	9	2.58333	5.77947E-002	5.77639E-002	5.79697E-004	...........
	10	2.84167	5.77826E-002	5.77421E-002	5.82163E-004	...........
	11	3.1	5.77712E-002	5.77372E-002	5.81063E-004	...........
	12	3.35833	5.77597E-002	5.77281E-002	5.79697E-004	...........
	13	3.61667	5.77485E-002	5.77217E-002	5.78363E-004	...........
	14	3.875	5.77383E-002	5.77064E-002	5.79063E-004	...........
	15	4.13333	5.77288E-002	5.76995E-002	5.86730E-004	...........
	16	4.39167	5.77193E-002	5.76862E-002	5.81463E-004	...........
	17	4.65	5.77092E-002	5.76777E-002	5.80663E-004	...........
	18	4.90833	5.76990E-002	5.76736E-002	5.79297E-004	...........
EOC	QUANT	0.057699	Open Circuit (V)
PSTATMODEL	IQUANT	4	Pstat Model
PSTATSECTION	LABEL	REF600-11020	Pstat Section
PSTATSERIALNO	LABEL	11020	Pstat Serial Number
CTRLMODE	IQUANT	1	Control Mode
IESTAB	IQUANT	0	I/E Stability
CASPEED	IQUANT	1	Control Amp Speed
CONVENTION	IQUANT	1	Current Convention
ICHRANGE	IQUANT	2	Ich Range
ICHRANGEMODE	TOGGLE	F	Ich Auto Range
ICHOFFSETENABLE	TOGGLE	T	Ich Offset Enable
ICHOFFSET	QUANT	0	Ich Offset (V)
ICHFILTER	IQUANT	3	Ich Filter
VCHRANGE	IQUANT	2	Vch Range
VCHRANGEMODE	TOGGLE	F	Vch Auto Range
VCHOFFSETENABLE	TOGGLE	T	Vch Offset Enable
VCHOFFSET	QUANT	0	Vch Offset (V)
VCHFILTER	IQUANT	3	Vch Filter
ACHRANGE	IQUANT	2	Ach Range
ACHOFFSETENABLE	TOGGLE	F	Ach Offset Enable
ACHOFFSET	QUANT	0	Ach Offset (V)
ACHFILTER	IQUANT	3	Ach Filter
IERANGELOWERLIMIT	IQUANT	1	I/E Range Lower Limit
IERANGEMODE	TOGGLE	F	I/E AutoRange
IERANGE	IQUANT	7	I/E Range
POSFEEDENABLE	TOGGLE	F	Positive Feedback IR Comp
POSFEEDRESISTANCE	QUANT	0	Positive Feedback Resistance (ohm)
ACHSELECT	IQUANT	0	Ach Select
CABLEID	IQUANT	14	Cable ID
DCCALDATE	LABEL	2/27/2020	DC Calibration Date
ACCALDATE	LABEL	2/27/2020	AC Calibration Date
THERMOSELECT	IQUANT	1	Thermo Select
FRAMEWORKVERSION	QUANT	6.33	Framework Version
INSTRUMENTVERSION	LABEL	3.50	Instrument Version
ZCURVE	TABLE
	Pt	Time	Freq	Zreal	Zimag	Zsig	Zmod	Zphz	Idc	Vdc	IERange
	#	s	Hz	ohm	ohm	V	ohm	°	A	V	#
	0	1	1000078	1938.017	-1448.734	1	2419.656	-36.77937	-5.807594E-006	0.061014	8
	1	3	794390.6	2169.831	-1449.851	1	2609.642	-33.7503	3.954101E-006	0.0596506	8
	2	4	630984.4	2418.783	-1447.801	1	2818.978	-30.90329	-2.370864E-006	0.0599123	8
	3	5	501234.4	2625.997	-1434.561	1	2992.295	-28.64742	4.639925E-006	0.0586276	8
	4	7	398109.4	2832.995	-1412.605	1	3165.646	-26.50204	3.684961E-006	0.0586071	8
	5	8	316265.6	3038.77	-1393.277	1	3342.955	-24.63147	-2.626628E-006	0.0599741	8
	6	10	251203.1	3220.877	-1422.047	1	3520.833	-23.82191	-1.214969E-006	0.059658	8
	7	11	199546.9	3399.569	-1444.449	1	3693.711	-23.02025	1.153605E-006	0.0592564	8
	8	12	158578.1	3558.645	-1482.691	1	3855.169	-22.61879	3.815674E-006	0.0586021	8
	9	14	125953.1	3818.374	-1506.668	1	4104.878	-21.53338	-2.602212E-007	0.0597077	7
	10	15	100078.1	4021.594	-1563.796	1	4314.937	-21.24855	-1.928294E-008	0.0593216	7
	11	16	79453.13	4260.569	-1637.533	1	4564.424	-21.02406	-2.163951E-008	0.0593141	7
	12	18	63140.62	4517.034	-1703.201	1	4827.472	-20.65955	-3.052349E-008	0.0593512	7
	13	19	50203.12	4790.762	-1758.382	1	5103.264	-20.15496	-1.56855E-008	0.0593539	7
	14	20	39890.62	5071.937	-1797.232	1	5380.946	-19.51169	7.348923E-008	0.0591971	7
	15	22	31640.63	5358.169	-1823.193	1	5659.859	-18.7916	7.286104E-008	0.059241	7
	16	23	25171.88	5636.506	-1836.534	1	5928.158	-18.04709	-3.750714E-008	0.0593735	7
	17	25	20015.62	5910.408	-1845.844	1	6191.936	-17.34379	1.669333E-008	0.0593449	7
	18	26	15890.62	6170.132	-1849.393	1	6441.334	-16.68522	-1.85835E-008	0.0593099	7
	19	27	12609.37	6426.604	-1863.31	1	6691.275	-16.16882	2.245522E-008	0.0593628	7
	20	29	10078.13	6664.778	-1885.085	1	6926.241	-15.79318	1.953028E-008	0.0593506	7
	21	30	8015.625	6904.432	-1920.131	1	7166.455	-15.54131	1.762528E-009	0.0593303	7
	22	31	6328.125	7144.041	-1972.482	1	7411.343	-15.43492	4.459605E-008	0.0592025	7
	23	33	5015.625	7377.125	-2045.157	1	7655.367	-15.49494	-1.893263E-008	0.0593082	7
	24	34	3984.375	7603.351	-2141.288	1	7899.117	-15.72851	-1.90592E-008	0.0593064	7
	25	36	3170.956	7825.485	-2267.03	1	8147.248	-16.15622	-3.651361E-008	0.0593691	7
	26	37	2527.573	8035.357	-2430.893	1	8395.011	-16.83185	2.848774E-008	0.0592609	7
	27	38	1976.103	8254.021	-2674.084	1	8676.381	-17.95095	7.808264E-008	0.0591846	7
	28	40	1577.524	8444.995	-2967.062	1	8951.056	-19.3584	-1.426761E-008	0.0593327	7
	29	41	1265.625	8629.024	-3328.484	1	9248.723	-21.09318	3.467462E-010	0.0593436	6
	30	42	998.264	8830.288	-3851.022	1	9633.5	-23.56274	-9.227441E-009	0.0594321	6
	31	44	796.875	9031.723	-4487.092	1	10084.94	-26.41886	4.842642E-010	0.0592945	6
	32	45	627.7902	9268.986	-5345.115	1	10699.74	-29.97061	-1.255245E-009	0.0593441	6
	33	47	505.5147	9513.76	-6315.174	1	11418.98	-33.57597	5.659599E-009	0.0593282	6
	34	48	397.9953	9837.13	-7652.294	1	12463.02	-37.87931	9.193554E-010	0.0593817	6
	35	49	315.5048	10227.26	-9263.536	1	13798.91	-42.16932	1.166267E-009	0.0593803	6
	36	51	252.4038	10684.26	-11166.16	1	15454.33	-46.26342	1.121253E-009	0.0593788	6
	37	52	198.6229	11304.75	-13675.31	1	17742.93	-50.42103	6.030286E-010	0.0593808	6
	38	53	158.3615	12053.88	-16581.06	1	20499.45	-53.98408	1.005408E-009	0.0593762	6
	39	55	125.558	13030.13	-20214.08	1	24049.81	-57.19391	5.265927E-010	0.0593734	6
	40	56	100.4464	14205.46	-24435.57	1	28264.68	-59.8287	4.203199E-010	0.059374	6
	41	57	79.00281	15902.69	-29990.56	1	33945.98	-62.06493	1.103067E-009	0.0593741	6
	42	59	63.3446	17716.13	-36245.34	1	40343.35	-63.95137	2.678144E-011	0.0593698	6
	43	60	49.86702	20760.65	-43867.3	1	48531.89	-64.67367	1.844488E-010	0.0593658	6
	44	62	39.72458	24094.27	-53030.33	1	58247.32	-65.56538	7.450582E-010	0.0593771	6
	45	63	31.6723	28593.47	-63792.78	1	69907.84	-65.85692	7.145296E-010	0.059375	6
	46	65	24.93351	34576.59	-76916.45	1	84330.78	-65.79445	1.648498E-010	0.0593732	6
	47	66	19.86229	41953.82	-91505.62	1	100664.8	-65.36932	1.251957E-009	0.0593821	6
	48	67	15.83615	50734.89	-108771.8	1	120022.2	-64.99404	-9.397098E-010	0.0593794	5
	49	69	12.40079	64352.98	-129556	1	144658.4	-63.58551	1.222489E-009	0.0593796	5
	50	70	9.93114	78272.3	-150054.2	1	169241.9	-62.45225	-3.207077E-010	0.059388	5
	51	72	7.944915	95544.2	-173397	1	197977.8	-61.14463	8.277649E-010	0.0593831	5
	52	73	6.317385	116354.5	-200024.8	1	231405	-59.81341	-1.833026E-010	0.0593919	5
	53	75	5.008013	141130.6	-229711.6	1	269602.1	-58.4342	-4.457561E-011	0.0593709	5
	54	78	3.945707	170246.4	-262645.7	1	312996.2	-57.04879	4.859431E-010	0.0593819	5
	55	81	3.158693	201352.1	-297112.2	1	358912.7	-55.87462	-2.13752E-010	0.0593675	5
	56	84	2.504006	237447.5	-336487.1	1	411831.1	-54.79068	6.326147E-010	0.0593849	5
	57	87	1.998082	276802.1	-378487.6	1	468905.4	-53.8206	3.389961E-010	0.0594047	5
	58	90	1.584686	320987.5	-425269.9	1	532810.9	-52.95503	1.819027E-010	0.0593337	5
	59	93	1.266892	367234.9	-478434.5	1	603126	-52.49102	3.273571E-010	0.0593911	5
	60	98	0.999041	421088.6	-540748.6	1	685364.6	-52.0916	-2.083839E-010	0.0593473	5
