EXPLAIN
TAG	EISPOT
TITLE	LABEL	Potentiostatic EIS	Test &Identifier
DATE	LABEL	2/28/2020	Date
TIME	LABEL	15:59:56	Time
NOTES	NOTES	1	&Notes...
	
PSTAT	PSTAT	REF600-11020	Potentiostat
VDC	POTEN	0.00000E+000	T	DC &Voltage (V)
FREQINIT	QUANT	1.00000E+006	Initial Fre&q. (Hz)
FREQFINAL	QUANT	1.00000E+000	Final Fre&q. (Hz)
PTSPERDEC	QUANT	1.00000E+001	Points/&decade
VAC	QUANT	2.50000E+001	AC &Voltage (mV rms)
AREA	QUANT	1.60000E-004	&Area (cm^2)
CONDIT	TWOPARAM	F	1.50000E+001	0.00000E+000	Conditionin&g	Time(s)	E(V)
DELAY	TWOPARAM	F	1.00000E+002	0.00000E+000	Init. De&lay	Time(s)	Stab.(mV/s)
SPEED	SELECTOR	1	&Optimize for:
ZGUESS	QUANT	1.00000E+003	E&stimated Z (ohms)
OCVCURVE	TABLE	39
	Pt	T	Vf	Vm	Ach	Over
	#	s	V vs. Ref.	V	V	bits
	0	0.258333	-8.02044E-002	-8.02044E-002	5.81163E-004	...........
	1	0.516667	-8.02034E-002	-8.01510E-002	5.81497E-004	...........
	2	0.775	-8.01879E-002	-7.96154E-002	5.78597E-004	...........
	3	1.03333	-8.01194E-002	-7.94310E-002	5.80697E-004	...........
	4	1.29167	-7.99728E-002	-7.96674E-002	5.79697E-004	...........
	5	1.55	-7.97809E-002	-7.89402E-002	5.80663E-004	...........
	6	1.80833	-7.95898E-002	-7.92776E-002	5.83630E-004	...........
	7	2.06667	-7.94183E-002	-7.91993E-002	5.78830E-004	...........
	8	2.325	-7.92910E-002	-7.92781E-002	5.79097E-004	...........
	9	2.58333	-7.92276E-002	-7.91257E-002	5.80163E-004	...........
	10	2.84167	-7.92037E-002	-7.89564E-002	5.79930E-004	...........
	11	3.1	-7.91708E-002	-7.89047E-002	5.82097E-004	...........
	12	3.35833	-7.91034E-002	-7.88007E-002	5.80463E-004	...........
	13	3.61667	-7.90093E-002	-7.86655E-002	5.83097E-004	...........
	14	3.875	-7.89052E-002	-7.85992E-002	5.84097E-004	...........
	15	4.13333	-7.88014E-002	-7.85821E-002	5.78697E-004	...........
	16	4.39167	-7.87146E-002	-7.88576E-002	5.81497E-004	...........
	17	4.65	-7.86664E-002	-7.84701E-002	5.83963E-004	...........
	18	4.90833	-7.86472E-002	-7.83691E-002	5.84363E-004	...........
	19	5.16667	-7.86096E-002	-7.82876E-002	5.83463E-004	...........
	20	5.425	-7.85271E-002	-7.82143E-002	5.80030E-004	...........
	21	5.68333	-7.84063E-002	-7.74484E-002	5.81097E-004	...........
	22	5.94167	-7.82411E-002	-7.77772E-002	5.84363E-004	...........
	23	6.2	-7.80402E-002	-7.78182E-002	5.82597E-004	...........
	24	6.45833	-7.78675E-002	-7.76968E-002	5.81797E-004	...........
	25	6.71667	-7.77711E-002	-7.76373E-002	5.76197E-004	...........
	26	6.975	-7.77262E-002	-7.75524E-002	5.82063E-004	...........
	27	7.23333	-7.76864E-002	-7.74823E-002	5.75063E-004	...........
	28	7.49167	-7.76316E-002	-7.74079E-002	5.80130E-004	...........
	29	7.75	-7.75636E-002	-7.73305E-002	5.81663E-004	...........
	30	8.00833	-7.74894E-002	-7.72576E-002	5.76697E-004	...........
	31	8.26667	-7.74136E-002	-7.71824E-002	5.78597E-004	...........
	32	8.525	-7.73383E-002	-7.71188E-002	5.75897E-004	...........
	33	8.78333	-7.72644E-002	-7.70529E-002	5.81430E-004	...........
	34	9.04167	-7.71925E-002	-7.69524E-002	5.82063E-004	...........
	35	9.3	-7.71204E-002	-7.68840E-002	5.81330E-004	...........
	36	9.5583	-7.70452E-002	-7.67879E-002	5.83730E-004	...........
	37	9.8167	-7.69661E-002	-7.67255E-002	5.79497E-004	...........
	38	10.075	-7.68853E-002	-7.66420E-002	5.83630E-004	...........
EOC	QUANT	-0.0768853	Open Circuit (V)
PSTATMODEL	IQUANT	4	Pstat Model
PSTATSECTION	LABEL	REF600-11020	Pstat Section
PSTATSERIALNO	LABEL	11020	Pstat Serial Number
CTRLMODE	IQUANT	1	Control Mode
IESTAB	IQUANT	0	I/E Stability
CASPEED	IQUANT	1	Control Amp Speed
CONVENTION	IQUANT	1	Current Convention
ICHRANGE	IQUANT	2	Ich Range
ICHRANGEMODE	TOGGLE	F	Ich Auto Range
ICHOFFSETENABLE	TOGGLE	T	Ich Offset Enable
ICHOFFSET	QUANT	0	Ich Offset (V)
ICHFILTER	IQUANT	3	Ich Filter
VCHRANGE	IQUANT	2	Vch Range
VCHRANGEMODE	TOGGLE	F	Vch Auto Range
VCHOFFSETENABLE	TOGGLE	T	Vch Offset Enable
VCHOFFSET	QUANT	0	Vch Offset (V)
VCHFILTER	IQUANT	3	Vch Filter
ACHRANGE	IQUANT	2	Ach Range
ACHOFFSETENABLE	TOGGLE	F	Ach Offset Enable
ACHOFFSET	QUANT	0	Ach Offset (V)
ACHFILTER	IQUANT	3	Ach Filter
IERANGELOWERLIMIT	IQUANT	1	I/E Range Lower Limit
IERANGEMODE	TOGGLE	F	I/E AutoRange
IERANGE	IQUANT	8	I/E Range
POSFEEDENABLE	TOGGLE	F	Positive Feedback IR Comp
POSFEEDRESISTANCE	QUANT	0	Positive Feedback Resistance (ohm)
ACHSELECT	IQUANT	0	Ach Select
CABLEID	IQUANT	14	Cable ID
DCCALDATE	LABEL	2/27/2020	DC Calibration Date
ACCALDATE	LABEL	2/27/2020	AC Calibration Date
THERMOSELECT	IQUANT	1	Thermo Select
FRAMEWORKVERSION	QUANT	6.33	Framework Version
INSTRUMENTVERSION	LABEL	3.50	Instrument Version
ZCURVE	TABLE
	Pt	Time	Freq	Zreal	Zimag	Zsig	Zmod	Zphz	Idc	Vdc	IERange
	#	s	Hz	ohm	ohm	V	ohm	°	A	V	#
	0	1	1000078	1782.025	-1593.605	1	2390.646	-41.80519	-1.351684E-006	-0.074848	8
	1	3	794390.6	2079.922	-1688.789	1	2679.194	-39.07481	9.408154E-007	-0.0752872	8
	2	4	630984.4	2344.69	-1750.131	1	2925.838	-36.73852	4.101779E-006	-0.0760059	8
	3	5	501234.4	2587.705	-1813.537	1	3159.926	-35.02386	-1.08455E-006	-0.0751618	8
	4	7	398109.4	2835.749	-1872.484	1	3398.186	-33.43733	1.704898E-006	-0.0757702	8
	5	8	316265.6	3073.474	-1945.176	1	3637.3	-32.32938	-3.204632E-007	-0.0753881	8
	6	10	251203.1	3326.798	-2067.461	1	3916.884	-31.85916	-2.455666E-006	-0.0748236	8
	7	11	199546.9	3597.431	-2196.386	1	4214.929	-31.40586	3.654224E-006	-0.0760594	8
	8	12	158578.1	3856.827	-2345.08	1	4513.814	-31.301	-3.492945E-007	-0.0753722	8
	9	14	125953.1	4195.975	-2485.533	1	4876.893	-30.64085	1.348912E-007	-0.075935	7
	10	15	100078.1	4499.597	-2702.132	1	5248.608	-30.98598	-6.270092E-009	-0.0754661	7
	11	16	79453.13	4842.581	-2958.889	1	5675	-31.42555	-6.818087E-010	-0.0755204	7
	12	18	63140.62	5227.729	-3245.471	1	6153.23	-31.83277	-7.495236E-009	-0.0754726	7
	13	19	50203.12	5649.877	-3560.675	1	6678.287	-32.22002	-7.152877E-010	-0.0754516	7
	14	20	39890.62	6120.554	-3905.58	1	7260.492	-32.54231	-3.273729E-008	-0.0754765	7
	15	22	31640.63	6649.134	-4279.399	1	7907.227	-32.76543	-3.333708E-010	-0.0755223	7
	16	23	25171.88	7219.746	-4687.631	1	8608.056	-32.99482	1.598589E-008	-0.0756137	7
	17	24	20015.62	7839.826	-5141.043	1	9375.138	-33.25526	-3.881533E-008	-0.0754503	7
	18	26	15890.62	8522.649	-5596.912	1	10196.12	-33.29332	-1.120562E-008	-0.0755569	7
	19	27	12609.37	9335.843	-6031.261	1	11114.59	-32.86379	-2.482984E-009	-0.075503	6
	20	28	10078.13	10071.01	-6601.186	1	12041.64	-33.24339	-3.585165E-009	-0.0753787	6
	21	30	8015.625	10874.89	-7240.635	1	13064.84	-33.65617	-3.216054E-009	-0.075521	6
	22	31	6328.125	11760.27	-8013.91	1	14231.18	-34.27206	-3.316071E-009	-0.0754554	6
	23	32	5015.625	12699.76	-8890.466	1	15502.39	-34.99395	8.432916E-009	-0.0755207	6
	24	34	3984.375	13732.01	-9912.29	1	16935.81	-35.8232	-7.812749E-009	-0.075444	6
	25	35	3170.956	14873.59	-11063.08	1	18536.87	-36.64213	-1.281291E-009	-0.0755769	6
	26	37	2527.573	16141.37	-12371.75	1	20337.25	-37.4688	-4.159401E-009	-0.075393	6
	27	38	1976.103	17682.66	-13957.35	1	22527.41	-38.2849	1.017296E-008	-0.0756944	6
	28	40	1577.524	19191.33	-15614.14	1	24740.83	-39.13195	-3.522694E-009	-0.0753766	6
	29	41	1265.625	20789.28	-17403.68	1	27112.4	-39.93428	-1.005557E-008	-0.0753949	6
	30	42	998.264	22580.65	-19629.63	1	29920.03	-41.00083	-4.391987E-009	-0.0753895	6
	31	44	796.875	24309.21	-22128.97	1	32872.92	-42.31198	4.027312E-009	-0.0754491	6
	32	45	627.7902	26176.4	-25325.18	1	36422.09	-44.0531	-8.191774E-009	-0.0753758	6
	33	46	505.5147	27905.82	-28927.32	1	40193.59	-46.0297	5.759877E-009	-0.0755278	6
	34	48	397.9953	29921.71	-33911.63	1	45225.07	-48.57664	-1.919546E-009	-0.0754622	6
	35	49	315.5048	32075.44	-39948.86	1	51232.27	-51.23858	-1.149471E-009	-0.075468	6
	36	51	252.4038	34429.05	-47194.23	1	58417.94	-53.88857	-1.664429E-009	-0.0754675	6
	37	52	198.6229	37428.16	-56797.51	1	68020.77	-56.6161	-1.730062E-009	-0.0754665	6
	38	53	158.3615	40916.66	-68068.32	1	79419.58	-58.98944	-1.875919E-009	-0.0754657	6
	39	55	125.558	45489.28	-82175.35	1	93925.84	-61.03268	-1.437362E-009	-0.0754646	6
	40	56	100.4464	51452.55	-98600.5	1	111217.9	-62.44315	-2.225074E-009	-0.0754571	5
	41	57	79.00281	59592.77	-120031.6	1	134010.7	-63.59671	-2.05745E-009	-0.0754665	5
	42	59	63.3446	67986.91	-141261.8	1	156770.9	-64.29929	-1.91543E-009	-0.0754655	5
	43	60	49.86702	83329.73	-175310.1	1	194106.9	-64.57697	-1.425065E-009	-0.0754685	5
	44	62	39.72458	101413.3	-209695	1	232930.6	-64.19052	-1.553429E-009	-0.075458	5
	45	63	31.6723	124540.5	-250354.9	1	279621	-63.55169	-1.991746E-009	-0.0754631	5
	46	65	24.93351	160066.7	-296898.6	1	337298.3	-61.66959	-1.401459E-009	-0.0754617	5
	47	66	19.86229	203832.5	-345180.8	1	400870.9	-59.43776	-1.420397E-009	-0.0754591	5
	48	67	15.83615	249648.8	-399151.4	1	470793.4	-57.97612	-1.005811E-009	-0.0754604	5
	49	69	12.40079	329740.4	-450236.8	1	558069.9	-53.78204	-1.335523E-009	-0.0754661	5
	50	70	9.93114	409250.1	-493700.8	1	641269.2	-50.34319	-1.047961E-009	-0.0754662	5
	51	72	7.944915	499206.3	-531111.9	1	728894.2	-46.77369	-5.706089E-010	-0.075468	6
	52	74	6.317385	591203.3	-549773.3	1	807324	-42.92045	-6.183427E-011	-0.0754747	6
	53	76	5.008013	686827.1	-566597.4	1	890373	-39.5209	2.105998E-010	-0.0754564	6
	54	79	3.945707	775614.4	-570567.9	1	962874	-36.33944	-3.854715E-010	-0.0754636	5
	55	82	3.158693	838990.2	-559284.3	1	1008317	-33.68806	-3.338217E-011	-0.0754578	5
	56	86	2.504006	926321.3	-589608.4	1	1098048	-32.47697	-1.752755E-010	-0.0754695	4
	57	90	1.998082	994271	-612084.3	1	1167571	-31.61692	-4.316186E-010	-0.0754531	4
	58	95	1.584686	1064135	-642298.2	1	1242952	-31.11464	-9.509659E-011	-0.0754201	4
	59	100	1.266892	1121604	-683960.9	1	1313696	-31.37509	-2.482132E-010	-0.0754619	4
	60	107	0.999041	1198009	-743990.3	1	1410229	-31.84121	2.088471E-010	-0.075451	4
