EXPLAIN
TAG	EISPOT
TITLE	LABEL	Potentiostatic EIS	Test &Identifier
DATE	LABEL	6/1/2020	Date
TIME	LABEL	13:07:44	Time
NOTES	NOTES	1	&Notes...
	
PSTAT	PSTAT	REF600-11020	Potentiostat
VDC	POTEN	0.00000E+000	T	DC &Voltage (V)
FREQINIT	QUANT	1.00000E+006	Initial Fre&q. (Hz)
FREQFINAL	QUANT	1.00000E+000	Final Fre&q. (Hz)
PTSPERDEC	QUANT	1.00000E+001	Points/&decade
VAC	QUANT	2.50000E+001	AC &Voltage (mV rms)
AREA	QUANT	4.00000E-004	&Area (cm^2)
CONDIT	TWOPARAM	F	5.00000E+000	0.00000E+000	Conditionin&g	Time(s)	E(V)
DELAY	TWOPARAM	T	3.00000E+000	0.00000E+000	Init. De&lay	Time(s)	Stab.(mV/s)
SPEED	SELECTOR	0	&Optimize for:
ZGUESS	QUANT	1.00000E+003	E&stimated Z (ohms)
OCVCURVE	TABLE	12
	Pt	T	Vf	Vm	Ach	Over
	#	s	V vs. Ref.	V	V	bits
	0	0.258333	9.55654E-002	9.55654E-002	6.52662E-004	...........
	1	0.516667	9.55655E-002	9.55727E-002	6.56495E-004	...........
	2	0.775	9.55663E-002	9.55777E-002	6.55262E-004	...........
	3	1.03333	9.55685E-002	9.55803E-002	6.54429E-004	...........
	4	1.29167	9.55720E-002	9.55857E-002	6.55095E-004	...........
	5	1.55	9.55762E-002	9.55893E-002	6.61529E-004	...........
	6	1.80833	9.55806E-002	9.55938E-002	6.55962E-004	...........
	7	2.06667	9.55849E-002	9.55949E-002	6.56995E-004	...........
	8	2.325	9.55888E-002	9.55955E-002	6.56295E-004	...........
	9	2.58333	9.55919E-002	9.55984E-002	6.54429E-004	...........
	10	2.84167	9.55943E-002	9.55989E-002	6.56762E-004	...........
	11	3.1	9.55961E-002	9.55979E-002	6.58195E-004	...........
EOC	QUANT	0.0955961	Open Circuit (V)
PSTATMODEL	IQUANT	4	Pstat Model
PSTATSECTION	LABEL	REF600-11020	Pstat Section
PSTATSERIALNO	LABEL	11020	Pstat Serial Number
CTRLMODE	IQUANT	1	Control Mode
IESTAB	IQUANT	0	I/E Stability
CASPEED	IQUANT	1	Control Amp Speed
CONVENTION	IQUANT	1	Current Convention
ICHRANGE	IQUANT	2	Ich Range
ICHRANGEMODE	TOGGLE	F	Ich Auto Range
ICHOFFSETENABLE	TOGGLE	T	Ich Offset Enable
ICHOFFSET	QUANT	0	Ich Offset (V)
ICHFILTER	IQUANT	3	Ich Filter
VCHRANGE	IQUANT	2	Vch Range
VCHRANGEMODE	TOGGLE	F	Vch Auto Range
VCHOFFSETENABLE	TOGGLE	T	Vch Offset Enable
VCHOFFSET	QUANT	0	Vch Offset (V)
VCHFILTER	IQUANT	3	Vch Filter
ACHRANGE	IQUANT	2	Ach Range
ACHOFFSETENABLE	TOGGLE	F	Ach Offset Enable
ACHOFFSET	QUANT	0	Ach Offset (V)
ACHFILTER	IQUANT	3	Ach Filter
IERANGELOWERLIMIT	IQUANT	1	I/E Range Lower Limit
IERANGEMODE	TOGGLE	F	I/E AutoRange
IERANGE	IQUANT	8	I/E Range
POSFEEDENABLE	TOGGLE	F	Positive Feedback IR Comp
POSFEEDRESISTANCE	QUANT	0	Positive Feedback Resistance (ohm)
ACHSELECT	IQUANT	0	Ach Select
CABLEID	IQUANT	14	Cable ID
DCCALDATE	LABEL	2/27/2020	DC Calibration Date
ACCALDATE	LABEL	2/27/2020	AC Calibration Date
THERMOSELECT	IQUANT	1	Thermo Select
FRAMEWORKVERSION	QUANT	6.33	Framework Version
INSTRUMENTVERSION	LABEL	3.50	Instrument Version
ZCURVE	TABLE
	Pt	Time	Freq	Zreal	Zimag	Zsig	Zmod	Zphz	Idc	Vdc	IERange
	#	s	Hz	ohm	ohm	V	ohm	°	A	V	#
	0	1	1000078	2229.349	-2131.025	1	3084.034	-43.70824	3.261851E-008	0.0978359	8
	1	1	794390.6	2674.647	-2192.311	1	3458.318	-39.34023	4.913643E-008	0.0975253	8
	2	1	630984.4	3127.813	-2178.58	1	3811.748	-34.85793	3.119718E-008	0.0973803	8
	3	2	501234.4	3553.021	-2084.974	1	4119.596	-30.40515	4.895901E-008	0.0973089	8
	4	2	398109.4	3930.083	-1939.101	1	4382.426	-26.26171	4.474453E-008	0.0972431	8
	5	2	316265.6	4247.829	-1766.375	1	4600.449	-22.579	4.154158E-008	0.0972117	8
	6	3	251203.1	4510.687	-1584.071	1	4780.751	-19.35035	3.950473E-008	0.0971896	8
	7	3	199546.9	4711.581	-1406.832	1	4917.13	-16.62511	4.451023E-008	0.0971922	8
	8	3	158578.1	4872.277	-1255.226	1	5031.37	-14.44674	4.195777E-008	0.0971946	8
	9	4	125953.1	5032.813	-1065.859	1	5144.44	-11.95753	1.535744E-009	0.0971368	7
	10	4	100078.1	5119.184	-968.633	1	5210.018	-10.71462	1.465337E-009	0.097123	7
	11	4	79453.13	5208.276	-903.5497	1	5286.07	-9.84191	7.761294E-010	0.0971106	7
	12	5	63140.62	5288.747	-860.8481	1	5358.349	-9.244946	1.582529E-009	0.0971155	7
	13	5	50203.12	5363.857	-838.9248	1	5429.066	-8.889231	7.15224E-010	0.0971124	7
	14	5	39890.62	5437.82	-838.2485	1	5502.05	-8.763255	1.295034E-009	0.0971116	7
	15	6	31640.63	5512.39	-858.4141	1	5578.827	-8.851265	1.707572E-009	0.0971069	7
	16	6	25171.88	5587.896	-898.7321	1	5659.708	-9.136948	1.473177E-009	0.0971077	7
	17	6	20015.62	5668.761	-960.649	1	5749.582	-9.61818	1.695078E-009	0.0971067	7
	18	6	15890.62	5756.253	-1046.467	1	5850.602	-10.30365	2.398309E-009	0.0971128	7
	19	7	12609.37	5851.321	-1157.123	1	5964.637	-11.18615	1.968564E-009	0.0971105	7
	20	7	10078.13	5951.126	-1289.63	1	6089.256	-12.22714	2.336057E-009	0.0971073	7
	21	7	8015.625	6065.884	-1457.707	1	6238.579	-13.51266	2.768934E-009	0.0971053	7
	22	8	6328.125	6197.473	-1668.858	1	6418.237	-15.07114	2.627824E-009	0.0971074	7
	23	8	5015.625	6343.898	-1919.895	1	6628.05	-16.83773	2.232937E-009	0.0971031	7
	24	8	3984.375	6508.365	-2219.687	1	6876.469	-18.83201	2.344194E-009	0.0971012	7
	25	9	3170.956	6693.077	-2575.952	1	7171.667	-21.05012	3.666567E-009	0.0971079	7
	26	9	2527.573	6903.508	-2997.436	1	7526.158	-23.47001	2.237151E-009	0.0971007	7
	27	9	1976.103	7165.292	-3545.533	1	7994.512	-26.32715	3.979107E-009	0.0971042	7
	28	10	1577.524	7443.225	-4148.49	1	8521.242	-29.13316	3.674365E-009	0.0970965	7
	29	10	1265.625	7756.643	-4843.657	1	9144.754	-31.98283	3.189455E-009	0.0970902	7
	30	10	998.264	8151.165	-5732.583	1	9965.14	-35.1181	9.667064E-011	0.097151	6
	31	11	796.875	8576.885	-6745.39	1	10911.61	-38.18369	7.920364E-011	0.0971455	6
	32	11	627.7902	9100.169	-8035.787	1	12140.3	-41.4457	5.741211E-011	0.0971513	6
	33	11	505.5147	9642.22	-9427.483	1	13485.17	-44.35483	-3.906982E-010	0.0971476	6
	34	12	397.9953	10338.34	-11277.09	1	15298.82	-47.48678	5.6859E-010	0.0971698	6
	35	12	315.5048	11122.92	-13445.98	1	17450.32	-50.40142	5.266628E-010	0.0971712	6
	36	12	252.4038	12000.18	-15957.74	1	19966.32	-53.05694	5.420955E-010	0.0971625	6
	37	13	198.6229	13109.6	-19225.55	1	23269.8	-55.71054	5.813632E-010	0.0971612	6
	38	13	158.3615	14366.17	-22977.44	1	27098.89	-57.98516	4.444325E-010	0.0971576	6
	39	13	125.558	15918.98	-27631	1	31888.65	-60.05257	4.168727E-010	0.0971589	6
	40	14	100.4464	17745.07	-33028.06	1	37493.2	-61.75208	2.214066E-010	0.0971619	6
	41	14	79.00281	20185.38	-40046.19	1	44845.81	-63.2495	3.573901E-010	0.0971588	6
	42	14	63.3446	22991.57	-47805.44	1	53046.89	-64.31522	3.924384E-010	0.0971566	6
	43	15	49.86702	26808.4	-57856.52	1	63765.72	-65.13888	6.259E-010	0.0971571	6
	44	15	39.72458	31376.59	-69261.1	1	76036.77	-65.62858	4.178656E-010	0.0971599	6
	45	15	31.6723	37096.87	-82718.45	1	90656.05	-65.84512	1.054935E-010	0.0971541	6
	46	16	24.93351	44701.56	-99396.4	1	108985.7	-65.78512	1.624968E-010	0.0971555	5
	47	16	19.86229	53750.78	-118203.5	1	129850.8	-65.54725	-5.935663E-010	0.0971547	5
	48	16	15.83615	65473.86	-140223.6	1	154756.2	-64.97097	8.794543E-010	0.0971558	5
	49	16	12.40079	80628.93	-167273.8	1	185692.1	-64.26511	6.783538E-010	0.0971525	5
	50	17	9.93114	98332.5	-195497.1	1	218834.2	-63.2982	9.956698E-010	0.0971515	5
	51	17	7.944915	119714.3	-227759.8	1	257305.4	-62.27284	6.508207E-010	0.0971496	5
	52	18	6.317385	147001.7	-264441.4	1	302553.7	-60.93052	-2.888247E-011	0.0971672	5
	53	18	5.008013	180367	-305235.4	1	354543.3	-59.42068	1.812341E-010	0.0971628	5
	54	19	3.945707	220402	-351048.3	1	414502.1	-57.87777	3.971566E-010	0.0971568	5
	55	20	3.158693	263490.4	-396365.3	1	475954.5	-56.38537	1.115636E-010	0.0971711	5
	56	21	2.504006	313874.7	-448372.3	1	547316.2	-55.00677	-6.091054E-011	0.0971555	5
	57	22	1.998082	367039.8	-501614.5	1	621558.8	-53.80643	1.468516E-010	0.0971799	5
	58	24	1.584686	427369.5	-564982.6	1	708413.8	-52.89506	2.095467E-010	0.0972039	5
	59	26	1.266892	488670.8	-632991.5	1	799673.3	-52.33178	1.590188E-010	0.0971622	5
	60	28	0.999041	560914.6	-715092.3	1	908835.6	-51.88955	1.312054E-010	0.0971346	5
