EXPLAIN
TAG	EISPOT
TITLE	LABEL	Potentiostatic EIS	Test &Identifier
DATE	LABEL	6/14/2020	Date
TIME	LABEL	20:43:27	Time
NOTES	NOTES	1	&Notes...
	
PSTAT	PSTAT	REF600-10037	Potentiostat
VDC	POTEN	0.00000E+000	T	DC &Voltage (V)
FREQINIT	QUANT	1.00000E+006	Initial Fre&q. (Hz)
FREQFINAL	QUANT	1.00000E+000	Final Fre&q. (Hz)
PTSPERDEC	QUANT	1.00000E+001	Points/&decade
VAC	QUANT	2.50000E+001	AC &Voltage (mV rms)
AREA	QUANT	2.50000E-001	&Area (cm^2)
CONDIT	TWOPARAM	F	5.00000E+000	0.00000E+000	Conditionin&g	Time(s)	E(V)
DELAY	TWOPARAM	F	3.00000E+000	0.00000E+000	Init. De&lay	Time(s)	Stab.(mV/s)
SPEED	SELECTOR	0	&Optimize for:
ZGUESS	QUANT	1.00000E+003	E&stimated Z (ohms)
OCVCURVE	TABLE	39
	Pt	T	Vf	Vm	Ach	Over
	#	s	V vs. Ref.	V	V	bits
	0	0.258333	-1.09047E-001	-1.09047E-001	5.29721E-004	...........
	1	0.516667	-1.09048E-001	-1.09099E-001	5.26087E-004	...........
	2	0.775	-1.09054E-001	-1.09139E-001	5.31287E-004	...........
	3	1.03333	-1.09070E-001	-1.09191E-001	5.29654E-004	...........
	4	1.29167	-1.09100E-001	-1.09239E-001	5.25721E-004	...........
	5	1.55	-1.09140E-001	-1.09291E-001	5.23921E-004	...........
	6	1.80833	-1.09186E-001	-1.09326E-001	5.24921E-004	...........
	7	2.06667	-1.09233E-001	-1.09366E-001	5.33754E-004	...........
	8	2.325	-1.09279E-001	-1.09406E-001	5.29121E-004	...........
	9	2.58333	-1.09322E-001	-1.09447E-001	5.31921E-004	...........
	10	2.84167	-1.09363E-001	-1.09484E-001	5.28187E-004	...........
	11	3.1	-1.09403E-001	-1.09520E-001	5.28854E-004	...........
	12	3.35833	-1.09442E-001	-1.09554E-001	5.25987E-004	...........
	13	3.61667	-1.09480E-001	-1.09593E-001	5.24787E-004	...........
	14	3.875	-1.09517E-001	-1.09626E-001	5.30654E-004	...........
	15	4.13333	-1.09553E-001	-1.09665E-001	5.29854E-004	...........
	16	4.39167	-1.09588E-001	-1.09691E-001	5.30421E-004	...........
	17	4.65	-1.09624E-001	-1.09727E-001	5.28221E-004	...........
	18	4.90833	-1.09658E-001	-1.09759E-001	5.31021E-004	...........
	19	5.16667	-1.09691E-001	-1.09787E-001	5.26187E-004	...........
	20	5.425	-1.09723E-001	-1.09824E-001	5.27721E-004	...........
	21	5.68333	-1.09755E-001	-1.09849E-001	5.24287E-004	...........
	22	5.94167	-1.09787E-001	-1.09877E-001	5.30854E-004	...........
	23	6.2	-1.09817E-001	-1.09906E-001	5.26521E-004	...........
	24	6.45833	-1.09847E-001	-1.09932E-001	5.31787E-004	...........
	25	6.71667	-1.09875E-001	-1.09958E-001	5.31421E-004	...........
	26	6.975	-1.09903E-001	-1.09991E-001	5.35287E-004	...........
	27	7.23333	-1.09930E-001	-1.10014E-001	5.27421E-004	...........
	28	7.49167	-1.09958E-001	-1.10042E-001	5.25321E-004	...........
	29	7.75	-1.09986E-001	-1.10074E-001	5.26387E-004	...........
	30	8.00833	-1.10013E-001	-1.10098E-001	5.31021E-004	...........
	31	8.26667	-1.10041E-001	-1.10123E-001	5.29054E-004	...........
	32	8.525	-1.10069E-001	-1.10151E-001	5.26987E-004	...........
	33	8.78333	-1.10096E-001	-1.10169E-001	5.25021E-004	...........
	34	9.04167	-1.10121E-001	-1.10184E-001	5.24521E-004	...........
	35	9.3	-1.10145E-001	-1.10213E-001	5.24021E-004	...........
	36	9.5583	-1.10166E-001	-1.10238E-001	5.27854E-004	...........
	37	9.8167	-1.10188E-001	-1.10258E-001	5.31921E-004	...........
	38	10.075	-1.10211E-001	-1.10284E-001	5.29987E-004	...........
EOC	QUANT	-0.1102109	Open Circuit (V)
PSTATMODEL	IQUANT	4	Pstat Model
PSTATSECTION	LABEL	REF600-10037	Pstat Section
PSTATSERIALNO	LABEL	10037	Pstat Serial Number
CTRLMODE	IQUANT	1	Control Mode
IESTAB	IQUANT	0	I/E Stability
CASPEED	IQUANT	1	Control Amp Speed
CONVENTION	IQUANT	1	Current Convention
ICHRANGE	IQUANT	2	Ich Range
ICHRANGEMODE	TOGGLE	F	Ich Auto Range
ICHOFFSETENABLE	TOGGLE	T	Ich Offset Enable
ICHOFFSET	QUANT	0	Ich Offset (V)
ICHFILTER	IQUANT	3	Ich Filter
VCHRANGE	IQUANT	2	Vch Range
VCHRANGEMODE	TOGGLE	F	Vch Auto Range
VCHOFFSETENABLE	TOGGLE	T	Vch Offset Enable
VCHOFFSET	QUANT	0	Vch Offset (V)
VCHFILTER	IQUANT	3	Vch Filter
ACHRANGE	IQUANT	2	Ach Range
ACHOFFSETENABLE	TOGGLE	F	Ach Offset Enable
ACHOFFSET	QUANT	0	Ach Offset (V)
ACHFILTER	IQUANT	3	Ach Filter
IERANGELOWERLIMIT	IQUANT	1	I/E Range Lower Limit
IERANGEMODE	TOGGLE	F	I/E AutoRange
IERANGE	IQUANT	8	I/E Range
POSFEEDENABLE	TOGGLE	F	Positive Feedback IR Comp
POSFEEDRESISTANCE	QUANT	0	Positive Feedback Resistance (ohm)
ACHSELECT	IQUANT	0	Ach Select
CABLEID	IQUANT	14	Cable ID
DCCALDATE	LABEL	6/8/2020	DC Calibration Date
ACCALDATE	LABEL	6/8/2020	AC Calibration Date
THERMOSELECT	IQUANT	1	Thermo Select
FRAMEWORKVERSION	QUANT	6.33	Framework Version
INSTRUMENTVERSION	LABEL	3.50	Instrument Version
ZCURVE	TABLE
	Pt	Time	Freq	Zreal	Zimag	Zsig	Zmod	Zphz	Idc	Vdc	IERange
	#	s	Hz	ohm	ohm	V	ohm	°	A	V	#
	0	1	1000078	2159.302	-1651.703	1	2718.586	-37.41326	-2.673865E-007	-0.1011149	8
	1	2	794390.6	2497.246	-1658.668	1	2997.902	-33.59207	-7.807134E-008	-0.1013205	8
	2	2	630984.4	2822.03	-1606.072	1	3247.048	-29.64505	1.037675E-007	-0.1014726	8
	3	2	501234.4	3115.265	-1513.823	1	3463.602	-25.91683	2.500938E-007	-0.1016013	8
	4	3	398109.4	3370.461	-1395.259	1	3647.843	-22.48793	-1.54513E-008	-0.1015891	8
	5	3	316265.6	3578.034	-1267.066	1	3795.759	-19.50025	3.161238E-007	-0.1016285	8
	6	3	251203.1	3745.726	-1145.142	1	3916.863	-16.99942	-1.036848E-007	-0.1016559	8
	7	3	199546.9	3881.489	-1035.586	1	4017.262	-14.93861	-4.453093E-008	-0.1016567	8
	8	4	158578.1	3992.436	-943.5082	1	4102.408	-13.29642	1.075037E-007	-0.1015985	8
	9	4	125953.1	4162.259	-708.7748	1	4222.175	-9.66398	3.981608E-008	-0.1014715	7
	10	4	100078.1	4226.416	-683.7675	1	4281.37	-9.189927	-4.328577E-008	-0.1016312	7
	11	5	79453.13	4285.416	-680.0161	1	4339.033	-9.016603	-1.763225E-008	-0.1016779	7
	12	5	63140.62	4346.959	-691.8346	1	4401.669	-9.042992	6.117378E-008	-0.1016643	7
	13	5	50203.12	4411.333	-719.3082	1	4469.593	-9.261096	6.151601E-008	-0.1016669	7
	14	6	39890.62	4480.567	-762.6005	1	4545.002	-9.65928	7.10298E-008	-0.1016961	7
	15	6	31640.63	4555.914	-823.1792	1	4629.684	-10.24191	-3.33641E-008	-0.1015604	7
	16	6	25171.88	4636.899	-899.3344	1	4723.308	-10.97633	3.230889E-008	-0.1016186	7
	17	7	20015.62	4728	-994.897	1	4831.542	-11.88319	6.173633E-008	-0.1016613	7
	18	7	15890.62	4831.125	-1111.744	1	4957.394	-12.95936	-4.339989E-008	-0.1016441	7
	19	7	12609.37	4947.035	-1250.059	1	5102.529	-14.18113	-7.51386E-008	-0.1015544	7
	20	8	10078.13	5074.089	-1409.255	1	5266.154	-15.52187	1.010424E-008	-0.1017139	7
	21	8	8015.625	5221.518	-1596.75	1	5460.207	-17.00373	3.191809E-008	-0.1016189	7
	22	8	6328.125	5393.989	-1824.711	1	5694.268	-18.68996	7.163288E-008	-0.1016898	7
	23	9	5015.625	5589.123	-2085.385	1	5965.494	-20.4613	3.446376E-008	-0.1017355	7
	24	9	3984.375	5808.604	-2382.489	1	6278.228	-22.30174	-6.642689E-008	-0.101546	7
	25	9	3170.956	6055.274	-2725.254	1	6640.283	-24.23074	7.240813E-008	-0.1017338	7
	26	9	2527.573	6334.453	-3113.547	1	7058.291	-26.17531	-7.428689E-008	-0.1015815	7
	27	10	1976.103	6679.338	-3609.543	1	7592.256	-28.38698	-7.422734E-008	-0.1015532	7
	28	10	1577.524	7037.661	-4135.856	1	8162.964	-30.44168	-1.864992E-008	-0.1016844	7
	29	10	1265.625	7437.125	-4727.846	1	8812.682	-32.44448	-4.443969E-008	-0.1016508	7
	30	11	998.264	7940.712	-5443.109	1	9627.17	-34.42941	1.011131E-008	-0.1017052	6
	31	11	796.875	8462.571	-6269.466	1	10531.92	-36.53277	1.101873E-008	-0.1017915	6
	32	11	627.7902	9093.896	-7290.79	1	11655.67	-38.71997	9.917386E-010	-0.1017632	6
	33	12	505.5147	9751.53	-8373.154	1	12853.09	-40.65105	4.308497E-009	-0.1016112	6
	34	12	397.9953	10581.58	-9764.74	1	14398.61	-42.70099	5.89731E-010	-0.1016342	6
	35	12	315.5048	11512	-11351.67	1	16167.45	-44.59822	6.250997E-010	-0.1016328	6
	36	13	252.4038	12535.79	-13129.55	1	18153	-46.32528	5.98079E-010	-0.1016414	6
	37	13	198.6229	13791.03	-15362.29	1	20644.42	-48.08505	6.61173E-010	-0.1016371	6
	38	13	158.3615	15146.81	-17842.6	1	23404.79	-49.67165	3.985099E-010	-0.1016396	6
	39	14	125.558	16719	-20830.43	1	26710.15	-51.24864	5.590376E-010	-0.1016387	6
	40	14	100.4464	18427.67	-24211.94	1	30426.92	-52.7253	4.907314E-010	-0.1016388	6
	41	14	79.00281	20516.78	-28525.42	1	35137.41	-54.2746	4.514784E-010	-0.1016408	6
	42	15	63.3446	22700.58	-33286.79	1	40290.53	-55.7072	4.205855E-010	-0.1016391	6
	43	15	49.86702	25350.57	-39384.55	1	46837.96	-57.23192	3.855744E-010	-0.1016429	6
	44	15	39.72458	28217.87	-46328.44	1	54245.48	-58.65511	6.113727E-010	-0.1016389	6
	45	16	31.6723	31451.26	-54663.98	1	63066.1	-60.08576	7.121669E-010	-0.1016389	6
	46	16	24.93351	35353.46	-65338.27	1	74289.69	-61.58291	1.236673E-010	-0.1016416	6
	47	16	19.86229	39608.28	-77573.05	1	87099.91	-62.95145	-3.720339E-009	-0.1102765	6
	48	17	15.83615	44878.32	-92579.25	1	102883.3	-64.13795	-2.714507E-009	-0.110283	6
	49	17	12.40079	50976.89	-111782.4	1	122857.4	-65.48526	-2.088089E-009	-0.1102704	5
	50	17	9.93114	58197.95	-133452.5	1	145590.5	-66.43824	-1.629451E-009	-0.1102709	5
	51	18	7.944915	67168.56	-159683.6	1	173235.3	-67.18666	-1.387895E-009	-0.1102683	5
	52	18	6.317385	78593.86	-192016.4	1	207478.4	-67.74032	-9.286878E-010	-0.1102716	5
	53	19	5.008013	93312.01	-231445.9	1	249548.3	-68.0422	-6.945028E-010	-0.1102664	5
	54	20	3.945707	112654.7	-279881.4	1	301703	-68.07478	-5.295587E-010	-0.1102658	5
	55	21	3.158693	135647.8	-333250.8	1	359800.5	-67.85152	-4.22011E-010	-0.110263	5
	56	23	2.504006	166539.5	-398918.7	1	432286.4	-67.34058	-2.76188E-010	-0.1102698	5
	57	24	1.998082	203238	-472348.4	1	514216.6	-66.71917	-2.184249E-010	-0.1102735	5
	58	26	1.584686	249561.5	-559224.1	1	612382.6	-65.95052	-1.298184E-010	-0.1102735	5
	59	29	1.266892	303741.1	-655578.4	1	722524.6	-65.14088	-8.173359E-011	-0.1102735	5
	60	32	0.999041	372433.7	-772922.9	1	857972.4	-64.27286	-7.471245E-011	-0.1102726	5
