EXPLAIN
TAG	EISPOT
TITLE	LABEL	Potentiostatic EIS	Test &Identifier
DATE	LABEL	1/7/2020	Date
TIME	LABEL	17:41:37	Time
NOTES	NOTES	5	&Notes...
	
	
	
	
	
PSTAT	PSTAT	REF600-11020	Potentiostat
VDC	POTEN	0.00000E+000	T	DC &Voltage (V)
FREQINIT	QUANT	1.00000E+006	Initial Fre&q. (Hz)
FREQFINAL	QUANT	1.00000E+000	Final Fre&q. (Hz)
PTSPERDEC	QUANT	1.00000E+001	Points/&decade
VAC	QUANT	2.50000E+001	AC &Voltage (mV rms)
AREA	QUANT	1.00000E-001	&Area (cm^2)
CONDIT	TWOPARAM	T	5.00000E+000	0.00000E+000	Conditionin&g	Time(s)	E(V)
DELAY	TWOPARAM	T	5.00000E+000	0.00000E+000	Init. De&lay	Time(s)	Stab.(mV/s)
SPEED	SELECTOR	0	&Optimize for:
ZGUESS	QUANT	1.00000E+003	E&stimated Z (ohms)
OCVCURVE	TABLE	19
	Pt	T	Vf	Vm	Ach	Over
	#	s	V vs. Ref.	V	V	bits
	0	0.258333	3.18933E-003	3.18933E-003	6.35813E-004	...........
	1	0.516667	3.18217E-003	2.81466E-003	6.43346E-004	...........
	2	0.775	3.13891E-003	2.49566E-003	6.39880E-004	...........
	3	1.03333	3.01927E-003	2.21311E-003	6.43046E-004	...........
	4	1.29167	2.81191E-003	1.95632E-003	6.39446E-004	...........
	5	1.55	2.54780E-003	1.74943E-003	6.45146E-004	...........
	6	1.80833	2.27110E-003	1.53607E-003	6.43313E-004	...........
	7	2.06667	2.01126E-003	1.36458E-003	6.40846E-004	...........
	8	2.325	1.78073E-003	1.31548E-003	6.44780E-004	...........
	9	2.58333	1.58308E-003	1.02124E-003	6.40346E-004	...........
	10	2.84167	1.41011E-003	8.83004E-004	6.40713E-004	...........
	11	3.1	1.24401E-003	7.51396E-004	6.43446E-004	...........
	12	3.35833	1.07733E-003	6.28984E-004	6.38180E-004	...........
	13	3.61667	9.17695E-004	4.99459E-004	6.46013E-004	...........
	14	3.875	7.71565E-004	3.73201E-004	6.39280E-004	...........
	15	4.13333	6.37362E-004	2.68536E-004	6.35546E-004	...........
	16	4.39167	5.11389E-004	1.59542E-004	6.45546E-004	...........
	17	4.65	3.91821E-004	4.45601E-005	6.40113E-004	...........
	18	4.90833	2.77446E-004	-5.18404E-005	6.46380E-004	...........
EOC	QUANT	0.0002774	Open Circuit (V)
PSTATMODEL	IQUANT	4	Pstat Model
PSTATSECTION	LABEL	REF600-11020	Pstat Section
PSTATSERIALNO	LABEL	11020	Pstat Serial Number
CTRLMODE	IQUANT	1	Control Mode
IESTAB	IQUANT	0	I/E Stability
CASPEED	IQUANT	1	Control Amp Speed
CONVENTION	IQUANT	1	Current Convention
ICHRANGE	IQUANT	2	Ich Range
ICHRANGEMODE	TOGGLE	F	Ich Auto Range
ICHOFFSETENABLE	TOGGLE	T	Ich Offset Enable
ICHOFFSET	QUANT	0	Ich Offset (V)
ICHFILTER	IQUANT	3	Ich Filter
VCHRANGE	IQUANT	2	Vch Range
VCHRANGEMODE	TOGGLE	F	Vch Auto Range
VCHOFFSETENABLE	TOGGLE	T	Vch Offset Enable
VCHOFFSET	QUANT	0	Vch Offset (V)
VCHFILTER	IQUANT	3	Vch Filter
ACHRANGE	IQUANT	2	Ach Range
ACHOFFSETENABLE	TOGGLE	F	Ach Offset Enable
ACHOFFSET	QUANT	0	Ach Offset (V)
ACHFILTER	IQUANT	3	Ach Filter
IERANGELOWERLIMIT	IQUANT	1	I/E Range Lower Limit
IERANGEMODE	TOGGLE	F	I/E AutoRange
IERANGE	IQUANT	5	I/E Range
POSFEEDENABLE	TOGGLE	F	Positive Feedback IR Comp
POSFEEDRESISTANCE	QUANT	0	Positive Feedback Resistance (ohm)
ACHSELECT	IQUANT	0	Ach Select
CABLEID	IQUANT	14	Cable ID
DCCALDATE	LABEL	12/22/2019	DC Calibration Date
ACCALDATE	LABEL	12/22/2019	AC Calibration Date
THERMOSELECT	IQUANT	1	Thermo Select
FRAMEWORKVERSION	QUANT	6.33	Framework Version
INSTRUMENTVERSION	LABEL	3.50	Instrument Version
ZCURVE	TABLE
	Pt	Time	Freq	Zreal	Zimag	Zsig	Zmod	Zphz	Idc	Vdc	IERange
	#	s	Hz	ohm	ohm	V	ohm	°	A	V	#
	0	1	1000078	2390.351	-2230.322	1	3269.268	-43.01644	6.673307E-006	0.0007578	8
	1	2	794390.6	2811.429	-2324.949	1	3648.221	-39.58951	-5.240207E-006	0.0022536	8
	2	2	630984.4	3218.919	-2364.567	1	3994.073	-36.30042	1.878694E-006	0.0020205	8
	3	2	501234.4	3666.757	-2397.879	1	4381.202	-33.18272	2.906572E-006	0.0013659	8
	4	3	398109.4	4079.459	-2291.787	1	4679.132	-29.32672	9.735712E-006	-5.321788E-005	8
	5	3	316265.6	4488.554	-2199.327	1	4998.416	-26.10419	-3.386576E-006	0.0025615	8
	6	3	251203.1	4850.123	-2104.245	1	5286.921	-23.4538	-7.132749E-006	0.0033091	8
	7	4	199546.9	5138.828	-1956.802	1	5498.784	-20.84621	-2.551861E-006	0.0025272	8
	8	4	158578.1	5411.397	-1854.625	1	5720.39	-18.9179	-8.125356E-006	0.0036675	8
	9	4	125953.1	5675.629	-1688.363	1	5921.43	-16.56648	1.075003E-006	-0.0004812	7
	10	5	100078.1	5866.391	-1610.814	1	6083.524	-15.35406	2.455468E-007	0.0014812	7
	11	5	79453.13	6047.541	-1584.824	1	6251.753	-14.68476	5.71821E-008	0.0017781	7
	12	6	63140.62	6220.336	-1586.757	1	6419.531	-14.31049	-4.839523E-008	0.0018078	7
	13	6	50203.12	6389.708	-1616.154	1	6590.927	-14.19418	1.17964E-007	0.001811	7
	14	6	39890.62	6564.305	-1669.729	1	6773.337	-14.27138	-4.71688E-008	0.0018073	7
	15	6	31640.63	6743.648	-1757.238	1	6968.836	-14.60516	-1.557106E-008	0.0018954	7
	16	7	25171.88	6936.315	-1871.246	1	7184.291	-15.09757	-9.34045E-008	0.0018915	7
	17	7	20015.62	7145.205	-2011.245	1	7422.874	-15.72095	1.467586E-007	0.0015476	7
	18	7	15890.62	7362.711	-2204.043	1	7685.526	-16.66518	1.200776E-007	0.0018092	7
	19	8	12609.37	7602.426	-2435.989	1	7983.165	-17.76663	-5.183525E-008	0.0020058	7
	20	8	10078.13	7868.439	-2682.634	1	8313.174	-18.82609	-1.630212E-008	0.0018998	7
	21	8	8015.625	8179.008	-2992.262	1	8709.18	-20.09488	-3.318627E-008	0.0020646	7
	22	9	6328.125	8508.67	-3360.935	1	9148.406	-21.55408	1.489517E-007	0.0015484	7
	23	9	5015.625	8920.706	-3718.389	1	9664.65	-22.62768	3.325079E-008	0.0012468	6
	24	9	3984.375	9336.611	-4203.327	1	10239.15	-24.23719	-1.264005E-008	0.0021043	6
	25	10	3170.956	9806	-4768.733	1	10904.05	-25.93402	1.527163E-008	0.0014705	6
	26	10	2527.573	10326.89	-5405.877	1	11656.25	-27.63097	-7.539398E-009	0.0020968	6
	27	10	1976.103	10970.88	-6195.344	1	12599.3	-29.45377	-9.682162E-009	0.001831	6
	28	11	1577.524	11675.42	-7032.054	1	13629.57	-31.06038	-1.555525E-008	0.0019782	6
	29	11	1265.625	12378.15	-7965.517	1	14719.65	-32.76186	8.408881E-009	0.0018453	6
	30	11	998.264	13279.52	-9116.052	1	16107.39	-34.4686	-1.866245E-009	0.0018273	6
	31	11	796.875	14264.29	-10378.79	1	17640.56	-36.03989	-1.683573E-008	0.002037	6
	32	12	627.7902	15429.28	-11908.27	1	19490.24	-37.66085	2.656724E-008	0.0015331	6
	33	12	505.5147	16665.03	-13481.75	1	21435.51	-38.97232	3.453406E-009	0.0019169	6
	34	12	397.9953	18192.34	-15461.29	1	23874.94	-40.36051	1.035245E-009	0.0018119	6
	35	13	315.5048	19873.54	-17647.81	1	26578.24	-41.60526	1.297829E-009	0.001807	6
	36	13	252.4038	21671.4	-20033.77	1	29512.73	-42.75134	9.384892E-010	0.0018124	6
	37	13	198.6229	23764.3	-22956.44	1	33041.49	-44.00938	8.841875E-010	0.0018083	6
	38	14	158.3615	25884.6	-26192.65	1	36824.82	-45.33892	1.200301E-009	0.0018079	6
	39	14	125.558	28198.63	-30094.7	1	41241.41	-46.86296	8.977336E-010	0.0018138	6
	40	14	100.4464	30468.74	-34594.02	1	46098.7	-48.62796	4.63382E-010	0.0018068	6
	41	15	79.00281	33333.93	-40696.84	1	52605.93	-50.67981	4.708688E-010	0.0018012	6
	42	15	63.3446	35487.98	-47123.16	1	58991.43	-53.01697	7.210599E-010	0.0018049	6
	43	15	49.86702	39321.89	-56228.7	1	68613.98	-55.03411	6.936379E-010	0.0018047	6
	44	16	39.72458	43782.01	-67143.36	1	80156.69	-56.89293	1.220422E-009	0.0018035	6
	45	16	31.6723	49222.14	-80209.62	1	94108.46	-58.46386	1.379751E-009	0.0018021	6
	46	16	24.93351	56454.74	-96175.9	1	111521	-59.5873	3.713181E-010	0.0017975	5
	47	17	19.86229	65363.88	-114632.5	1	131958.5	-60.30806	1.555549E-009	0.0018024	5
	48	17	15.83615	77288.95	-134877.8	1	155452.9	-60.18602	4.366364E-010	0.0017932	5
	49	17	12.40079	95370.3	-162457.5	1	188382.4	-59.58504	1.719009E-010	0.0017947	5
	50	18	9.93114	112978.1	-188138	1	219453.8	-59.0149	-3.953274E-010	0.0017954	5
	51	18	7.944915	136035.8	-216241.7	1	255472.5	-57.82635	-3.281933E-010	0.0017983	5
	52	19	6.317385	164066.6	-247194.9	1	296687	-56.42724	-9.646495E-011	0.0018064	5
	53	20	5.008013	196163.8	-279909.1	1	341803.1	-54.97674	-6.748776E-011	0.0017876	5
	54	21	3.945707	232835.3	-315588.5	1	392184.1	-53.58079	3.472488E-010	0.0017849	5
	55	22	3.158693	266693.3	-351597.3	1	441300.3	-52.81899	2.266111E-010	0.001805	5
	56	24	2.504006	304861	-394695.9	1	498723.4	-52.31769	6.358174E-011	0.0017897	5
	57	25	1.998082	340610	-443648.8	1	559320.6	-52.48486	1.86319E-010	0.0017911	5
	58	27	1.584686	381067	-505209.8	1	632810.4	-52.97367	2.831728E-010	0.0018348	5
	59	29	1.266892	421573.3	-579736.3	1	716811.1	-53.97606	2.524088E-010	0.0018283	5
	60	31	0.999041	469064.1	-676271.1	1	823021.1	-55.25468	2.402761E-010	0.0018051	5
