EXPLAIN
TAG	EISPOT
TITLE	LABEL	Potentiostatic EIS	Test &Identifier
DATE	LABEL	1/18/2020	Date
TIME	LABEL	22:13:44	Time
NOTES	NOTES	6	&Notes...
	
	
	
	
	
	
PSTAT	PSTAT	REF600-11020	Potentiostat
VDC	POTEN	0.00000E+000	T	DC &Voltage (V)
FREQINIT	QUANT	1.00000E+006	Initial Fre&q. (Hz)
FREQFINAL	QUANT	1.00000E+000	Final Fre&q. (Hz)
PTSPERDEC	QUANT	1.00000E+001	Points/&decade
VAC	QUANT	2.50000E+001	AC &Voltage (mV rms)
AREA	QUANT	1.00000E-001	&Area (cm^2)
CONDIT	TWOPARAM	F	5.00000E+000	0.00000E+000	Conditionin&g	Time(s)	E(V)
DELAY	TWOPARAM	F	5.00000E+000	0.00000E+000	Init. De&lay	Time(s)	Stab.(mV/s)
SPEED	SELECTOR	0	&Optimize for:
ZGUESS	QUANT	5.00000E+002	E&stimated Z (ohms)
OCVCURVE	TABLE	39
	Pt	T	Vf	Vm	Ach	Over
	#	s	V vs. Ref.	V	V	bits
	0	0.258333	-6.01318E-003	-6.01318E-003	6.97379E-004	...........
	1	0.516667	-6.01568E-003	-6.14413E-003	7.08212E-004	...........
	2	0.775	-6.02610E-003	-6.00928E-003	7.01779E-004	...........
	3	1.03333	-6.03813E-003	-5.82805E-003	7.04012E-004	...........
	4	1.29167	-6.02529E-003	-5.74847E-003	6.99512E-004	...........
	5	1.55	-5.96927E-003	-5.74992E-003	6.99579E-004	...........
	6	1.80833	-5.88836E-003	-5.80374E-003	6.98712E-004	...........
	7	2.06667	-5.81706E-003	-5.61431E-003	7.00845E-004	...........
	8	2.325	-5.76421E-003	-5.54433E-003	7.02179E-004	...........
	9	2.58333	-5.71179E-003	-5.54741E-003	6.99312E-004	...........
	10	2.84167	-5.65072E-003	-5.49516E-003	7.02312E-004	...........
	11	3.1	-5.59140E-003	-5.47686E-003	7.05412E-004	...........
	12	3.35833	-5.54403E-003	-5.48132E-003	7.04245E-004	...........
	13	3.61667	-5.51075E-003	-5.47135E-003	7.04412E-004	...........
	14	3.875	-5.48940E-003	-5.42950E-003	7.06045E-004	...........
	15	4.13333	-5.47367E-003	-5.39969E-003	7.06779E-004	...........
	16	4.39167	-5.45578E-003	-5.37502E-003	7.04712E-004	...........
	17	4.65	-5.43256E-003	-5.35278E-003	6.98912E-004	...........
	18	4.90833	-5.40629E-003	-5.33456E-003	7.00279E-004	...........
	19	5.16667	-5.38052E-003	-5.31421E-003	6.99379E-004	...........
	20	5.425	-5.35695E-003	-5.28937E-003	6.99812E-004	...........
	21	5.68333	-5.33444E-003	-5.23423E-003	7.06512E-004	...........
	22	5.94167	-5.30989E-003	-5.22701E-003	7.02845E-004	...........
	23	6.2	-5.28246E-003	-5.22119E-003	7.02779E-004	...........
	24	6.45833	-5.25628E-003	-5.21768E-003	7.00912E-004	...........
	25	6.71667	-5.23639E-003	-5.20718E-003	7.01046E-004	...........
	26	6.975	-5.22349E-003	-5.19775E-003	7.06445E-004	...........
	27	7.23333	-5.21461E-003	-5.18984E-003	7.01946E-004	...........
	28	7.49167	-5.20685E-003	-5.18498E-003	7.00879E-004	...........
	29	7.75	-5.19924E-003	-5.17914E-003	6.98246E-004	...........
	30	8.00833	-5.19207E-003	-5.17498E-003	7.00745E-004	...........
	31	8.26667	-5.18575E-003	-5.17132E-003	7.01379E-004	...........
	32	8.525	-5.18035E-003	-5.16820E-003	7.01446E-004	...........
	33	8.78333	-5.17585E-003	-5.16781E-003	7.05045E-004	...........
	34	9.04167	-5.17225E-003	-5.16549E-003	7.03079E-004	...........
	35	9.3	-5.16953E-003	-5.16378E-003	7.04445E-004	...........
	36	9.5583	-5.16740E-003	-5.16083E-003	7.02612E-004	...........
	37	9.8167	-5.16554E-003	-5.16224E-003	7.08112E-004	...........
	38	10.075	-5.16393E-003	-5.16431E-003	7.06879E-004	...........
EOC	QUANT	-0.0051639	Open Circuit (V)
PSTATMODEL	IQUANT	4	Pstat Model
PSTATSECTION	LABEL	REF600-11020	Pstat Section
PSTATSERIALNO	LABEL	11020	Pstat Serial Number
CTRLMODE	IQUANT	1	Control Mode
IESTAB	IQUANT	0	I/E Stability
CASPEED	IQUANT	1	Control Amp Speed
CONVENTION	IQUANT	1	Current Convention
ICHRANGE	IQUANT	2	Ich Range
ICHRANGEMODE	TOGGLE	F	Ich Auto Range
ICHOFFSETENABLE	TOGGLE	T	Ich Offset Enable
ICHOFFSET	QUANT	0	Ich Offset (V)
ICHFILTER	IQUANT	3	Ich Filter
VCHRANGE	IQUANT	2	Vch Range
VCHRANGEMODE	TOGGLE	F	Vch Auto Range
VCHOFFSETENABLE	TOGGLE	T	Vch Offset Enable
VCHOFFSET	QUANT	0	Vch Offset (V)
VCHFILTER	IQUANT	3	Vch Filter
ACHRANGE	IQUANT	2	Ach Range
ACHOFFSETENABLE	TOGGLE	F	Ach Offset Enable
ACHOFFSET	QUANT	0	Ach Offset (V)
ACHFILTER	IQUANT	3	Ach Filter
IERANGELOWERLIMIT	IQUANT	1	I/E Range Lower Limit
IERANGEMODE	TOGGLE	F	I/E AutoRange
IERANGE	IQUANT	7	I/E Range
POSFEEDENABLE	TOGGLE	F	Positive Feedback IR Comp
POSFEEDRESISTANCE	QUANT	0	Positive Feedback Resistance (ohm)
ACHSELECT	IQUANT	0	Ach Select
CABLEID	IQUANT	14	Cable ID
DCCALDATE	LABEL	12/22/2019	DC Calibration Date
ACCALDATE	LABEL	12/22/2019	AC Calibration Date
THERMOSELECT	IQUANT	1	Thermo Select
FRAMEWORKVERSION	QUANT	6.33	Framework Version
INSTRUMENTVERSION	LABEL	3.50	Instrument Version
ZCURVE	TABLE
	Pt	Time	Freq	Zreal	Zimag	Zsig	Zmod	Zphz	Idc	Vdc	IERange
	#	s	Hz	ohm	ohm	V	ohm	°	A	V	#
	0	1	1000078	2176.232	-2082.923	1	3012.4	-43.74496	4.469378E-006	-0.0035163	8
	1	2	794390.6	2571.283	-2165.719	1	3361.82	-40.10648	-2.977448E-006	-0.0028913	8
	2	2	630984.4	2965.713	-2218.427	1	3703.629	-36.79741	-7.045303E-008	-0.0033615	8
	3	2	501234.4	3366.387	-2241.845	1	4044.556	-33.66163	3.306733E-007	-0.0036493	8
	4	3	398109.4	3760.716	-2218.391	1	4366.262	-30.53573	1.751499E-006	-0.0039747	8
	5	3	316265.6	4134.195	-2141.362	1	4655.856	-27.38251	-6.721467E-008	-0.0036443	8
	6	3	251203.1	4506.542	-2062.286	1	4956	-24.58981	1.393975E-006	-0.0038844	8
	7	4	199546.9	4852.285	-1959.643	1	5233.056	-21.9918	-6.50688E-007	-0.0035544	8
	8	4	158578.1	5148.217	-1838.376	1	5466.605	-19.65113	2.694746E-006	-0.0041104	8
	9	4	125953.1	5455.415	-1670.257	1	5705.375	-17.02276	-6.258182E-007	-0.0018066	7
	10	5	100078.1	5667.823	-1532.384	1	5871.322	-15.12909	-2.954224E-008	-0.0035524	7
	11	5	79453.13	5873.519	-1409.676	1	6040.315	-13.49603	1.029899E-007	-0.0038164	7
	12	5	63140.62	6043.683	-1296.197	1	6181.119	-12.10493	1.16075E-009	-0.0035871	7
	13	6	50203.12	6188.121	-1199.183	1	6303.244	-10.96729	-2.896352E-008	-0.0035673	7
	14	6	39890.62	6310.614	-1119.53	1	6409.149	-10.05985	-2.712515E-008	-0.0036813	7
	15	6	31640.63	6420.453	-1067.227	1	6508.547	-9.437588	5.857513E-008	-0.0036967	7
	16	7	25171.88	6515.616	-1037.803	1	6597.749	-9.050016	-3.784958E-008	-0.0036116	7
	17	7	20015.62	6605.126	-1034.336	1	6685.622	-8.90001	3.963301E-008	-0.00381	7
	18	7	15890.62	6688.578	-1059.071	1	6771.906	-8.997532	4.047517E-008	-0.0038103	7
	19	8	12609.37	6777.723	-1111.739	1	6868.296	-9.315181	7.267095E-008	-0.0038144	7
	20	8	10078.13	6858.97	-1194.28	1	6962.167	-9.87728	5.217537E-010	-0.0036035	7
	21	8	8015.625	6951.968	-1315.174	1	7075.277	-10.71262	-1.430623E-008	-0.0036383	7
	22	8	6328.125	7052.219	-1479.621	1	7205.767	-11.84931	-3.910193E-008	-0.0036172	7
	23	9	5015.625	7162.181	-1683.882	1	7357.465	-13.23038	-3.158716E-008	-0.0036839	7
	24	9	3984.375	7286.183	-1941.81	1	7540.497	-14.92281	4.217288E-010	-0.0036069	7
	25	9	3170.956	7425.57	-2252.198	1	7759.606	-16.87271	-3.921477E-008	-0.003618	7
	26	10	2527.573	7584.75	-2632.353	1	8028.557	-19.13977	-1.751852E-008	-0.0036509	7
	27	10	1976.103	7785.449	-3134.888	1	8392.897	-21.93267	6.701639E-009	-0.0037676	7
	28	10	1577.524	8000.021	-3691.526	1	8810.659	-24.77047	7.742258E-009	-0.0037638	7
	29	11	1265.625	8254.955	-4350.789	1	9331.326	-27.79155	6.826336E-009	-0.0036931	6
	30	11	998.264	8571.93	-5206.527	1	10029.25	-31.27419	1.985813E-009	-0.0036166	6
	31	11	796.875	8927.821	-6186.234	1	10861.65	-34.71872	-8.283857E-009	-0.0036356	6
	32	12	627.7902	9382.196	-7438.092	1	11972.92	-38.40696	-2.334368E-009	-0.0037176	6
	33	12	505.5147	9871.84	-8800.813	1	13225.26	-41.71722	5.945134E-009	-0.0036933	6
	34	12	397.9953	10528.8	-10608.01	1	14946.09	-45.21473	8.598688E-010	-0.0036852	6
	35	13	315.5048	11312.06	-12725.57	1	17026.53	-48.36534	1.258003E-010	-0.0036877	6
	36	13	252.4038	12235.09	-15155.05	1	19477.5	-51.08511	3.548181E-010	-0.0036937	6
	37	13	198.6229	13455.14	-18278.83	1	22697.05	-53.64302	6.919729E-010	-0.0036872	6
	38	14	158.3615	14893.98	-21796.59	1	26399.28	-55.65454	7.821663E-010	-0.0036899	6
	39	14	125.558	16707.13	-26065.32	1	30960.12	-57.34129	6.494344E-010	-0.0036875	6
	40	14	100.4464	18842.73	-30880.73	1	36175.51	-58.6094	-1.775532E-010	-0.0036874	6
	41	15	79.00281	21662.44	-36973.01	1	42851.66	-59.63401	6.424964E-010	-0.0036919	6
	42	15	63.3446	25180.33	-43827.7	1	50546.18	-60.12134	1.291051E-010	-0.0037028	6
	43	15	49.86702	29325.31	-52247.43	1	59914.67	-60.69548	1.019379E-009	-0.0036975	6
	44	16	39.72458	34166.63	-61330.62	1	70205.44	-60.87829	6.57092E-010	-0.0036924	6
	45	16	31.6723	40240.73	-72042.98	1	82519.74	-60.81378	1.389681E-010	-0.0036896	6
	46	16	24.93351	48122.97	-85277.97	1	97919.1	-60.56365	1.144224E-009	-0.0036947	6
	47	17	19.86229	57294.13	-99598.9	1	114902.4	-60.09039	2.009785E-009	-0.0036883	5
	48	17	15.83615	68324.81	-115522.1	1	134214.9	-59.39807	-2.533499E-010	-0.0036973	5
	49	17	12.40079	83017.73	-134186.8	1	157791.1	-58.25604	1.717895E-009	-0.0036983	5
	50	17	9.93114	99350.1	-154039.7	1	183299.4	-57.17942	5.228905E-010	-0.0036978	5
	51	18	7.944915	117360.5	-175302.9	1	210961.1	-56.19877	-8.539021E-010	-0.0036965	5
	52	18	6.317385	138946.5	-199026.9	1	242730	-55.07998	-5.762392E-010	-0.0036892	5
	53	19	5.008013	163482.7	-225466.1	1	278498.8	-54.0546	-2.045249E-010	-0.0037089	5
	54	20	3.945707	190767.9	-255429.5	1	318805	-53.24574	5.64378E-012	-0.0037099	5
	55	21	3.158693	218927.8	-286663.8	1	360701.4	-52.63069	2.140271E-010	-0.003686	5
	56	23	2.504006	251184.6	-323757.2	1	409771.2	-52.19418	-8.299366E-012	-0.0036958	5
	57	24	1.998082	283884.3	-365727.2	1	462975.8	-52.18072	-2.336111E-011	-0.0037206	5
	58	26	1.584686	321324.2	-414713	1	524629.4	-52.23108	1.44356E-010	-0.0036796	5
	59	28	1.266892	361731.7	-472541.5	1	595101.1	-52.56585	1.782283E-010	-0.0036688	5
	60	30	0.999041	408281.8	-545486	1	681358.2	-53.18612	1.819443E-010	-0.0036766	5
