EXPLAIN
TAG	EISPOT
TITLE	LABEL	Potentiostatic EIS	Test &Identifier
DATE	LABEL	2/18/2020	Date
TIME	LABEL	16:15:43	Time
NOTES	NOTES	1	&Notes...
	
PSTAT	PSTAT	REF600-11020	Potentiostat
VDC	POTEN	0.00000E+000	T	DC &Voltage (V)
FREQINIT	QUANT	1.00000E+006	Initial Fre&q. (Hz)
FREQFINAL	QUANT	1.00000E+000	Final Fre&q. (Hz)
PTSPERDEC	QUANT	1.00000E+001	Points/&decade
VAC	QUANT	2.50000E+001	AC &Voltage (mV rms)
AREA	QUANT	1.60000E-004	&Area (cm^2)
CONDIT	TWOPARAM	F	1.50000E+001	0.00000E+000	Conditionin&g	Time(s)	E(V)
DELAY	TWOPARAM	F	1.00000E+002	0.00000E+000	Init. De&lay	Time(s)	Stab.(mV/s)
SPEED	SELECTOR	1	&Optimize for:
ZGUESS	QUANT	1.00000E+003	E&stimated Z (ohms)
OCVCURVE	TABLE	39
	Pt	T	Vf	Vm	Ach	Over
	#	s	V vs. Ref.	V	V	bits
	0	0.258333	7.23221E-003	7.23221E-003	6.01670E-004	...........
	1	0.516667	7.23118E-003	7.17821E-003	6.04637E-004	...........
	2	0.775	7.22592E-003	7.18337E-003	6.07870E-004	...........
	3	1.03333	7.21398E-003	7.15460E-003	6.08770E-004	...........
	4	1.29167	7.19728E-003	7.15542E-003	6.08737E-004	...........
	5	1.55	7.17993E-003	7.13230E-003	6.05570E-004	...........
	6	1.80833	7.16404E-003	7.11366E-003	6.01137E-004	...........
	7	2.06667	7.14939E-003	7.12577E-003	6.02904E-004	...........
	8	2.325	7.13678E-003	7.13335E-003	6.06337E-004	...........
	9	2.58333	7.12826E-003	7.09579E-003	6.05170E-004	...........
	10	2.84167	7.12136E-003	7.02741E-003	6.14670E-004	...........
	11	3.1	7.10811E-003	7.02997E-003	6.06337E-004	...........
	12	3.35833	7.08568E-003	7.05414E-003	6.08370E-004	...........
	13	3.61667	7.06240E-003	7.03569E-003	6.03937E-004	...........
	14	3.875	7.04694E-003	7.01410E-003	6.04337E-004	...........
	15	4.13333	7.03790E-003	7.00040E-003	6.11137E-004	...........
	16	4.39167	7.02882E-003	6.98524E-003	6.04870E-004	...........
	17	4.65	7.01697E-003	6.98634E-003	6.03704E-004	...........
	18	4.90833	7.00437E-003	6.98551E-003	6.07737E-004	...........
	19	5.16667	6.99412E-003	6.97426E-003	6.04937E-004	...........
	20	5.425	6.98637E-003	6.93843E-003	6.09770E-004	...........
	21	5.68333	6.97798E-003	6.94840E-003	6.02870E-004	...........
	22	5.94167	6.96819E-003	6.99580E-003	6.11770E-004	...........
	23	6.2	6.96055E-003	6.88574E-003	6.12870E-004	...........
	24	6.45833	6.95366E-003	6.88775E-003	6.16504E-004	...........
	25	6.71667	6.94036E-003	6.89407E-003	6.13737E-004	...........
	26	6.975	6.92031E-003	6.85436E-003	6.12604E-004	...........
	27	7.23333	6.89968E-003	6.84921E-003	6.10170E-004	...........
	28	7.49167	6.88104E-003	6.82251E-003	6.10270E-004	...........
	29	7.75	6.86121E-003	6.70306E-003	6.02337E-004	...........
	30	8.00833	6.83383E-003	6.73720E-003	6.05537E-004	...........
	31	8.26667	6.79814E-003	6.74110E-003	6.10904E-004	...........
	32	8.525	6.76615E-003	6.80414E-003	6.02970E-004	...........
	33	8.78333	6.75302E-003	6.83176E-003	6.12004E-004	...........
	34	9.04167	6.76242E-003	6.81011E-003	6.12237E-004	...........
	35	9.3	6.78304E-003	6.77437E-003	6.12637E-004	...........
	36	9.5583	6.79751E-003	6.75072E-003	6.19103E-004	...........
	37	9.8167	6.79619E-003	6.74951E-003	6.10937E-004	...........
	38	10.075	6.78465E-003	6.85303E-003	6.09370E-004	...........
EOC	QUANT	0.0067846	Open Circuit (V)
PSTATMODEL	IQUANT	4	Pstat Model
PSTATSECTION	LABEL	REF600-11020	Pstat Section
PSTATSERIALNO	LABEL	11020	Pstat Serial Number
CTRLMODE	IQUANT	1	Control Mode
IESTAB	IQUANT	0	I/E Stability
CASPEED	IQUANT	1	Control Amp Speed
CONVENTION	IQUANT	1	Current Convention
ICHRANGE	IQUANT	2	Ich Range
ICHRANGEMODE	TOGGLE	F	Ich Auto Range
ICHOFFSETENABLE	TOGGLE	T	Ich Offset Enable
ICHOFFSET	QUANT	0	Ich Offset (V)
ICHFILTER	IQUANT	3	Ich Filter
VCHRANGE	IQUANT	2	Vch Range
VCHRANGEMODE	TOGGLE	F	Vch Auto Range
VCHOFFSETENABLE	TOGGLE	T	Vch Offset Enable
VCHOFFSET	QUANT	0	Vch Offset (V)
VCHFILTER	IQUANT	3	Vch Filter
ACHRANGE	IQUANT	2	Ach Range
ACHOFFSETENABLE	TOGGLE	F	Ach Offset Enable
ACHOFFSET	QUANT	0	Ach Offset (V)
ACHFILTER	IQUANT	3	Ach Filter
IERANGELOWERLIMIT	IQUANT	1	I/E Range Lower Limit
IERANGEMODE	TOGGLE	F	I/E AutoRange
IERANGE	IQUANT	7	I/E Range
POSFEEDENABLE	TOGGLE	F	Positive Feedback IR Comp
POSFEEDRESISTANCE	QUANT	0	Positive Feedback Resistance (ohm)
ACHSELECT	IQUANT	0	Ach Select
CABLEID	IQUANT	14	Cable ID
DCCALDATE	LABEL	1/27/2020	DC Calibration Date
ACCALDATE	LABEL	1/27/2020	AC Calibration Date
THERMOSELECT	IQUANT	1	Thermo Select
FRAMEWORKVERSION	QUANT	6.33	Framework Version
INSTRUMENTVERSION	LABEL	3.50	Instrument Version
ZCURVE	TABLE
	Pt	Time	Freq	Zreal	Zimag	Zsig	Zmod	Zphz	Idc	Vdc	IERange
	#	s	Hz	ohm	ohm	V	ohm	°	A	V	#
	0	1	1000078	1953.625	-1969.69	1	2774.226	-45.23461	1.234061E-006	0.0088741	8
	1	3	794390.6	2364.81	-2045.548	1	3126.755	-40.85963	-6.326806E-007	0.0086959	8
	2	4	630984.4	2794.656	-2052.312	1	3467.288	-36.29245	4.231646E-006	0.0079193	8
	3	6	501234.4	3197.12	-1956.42	1	3748.22	-31.46379	-8.428383E-007	0.0086584	8
	4	7	398109.4	3557.31	-1854.76	1	4011.806	-27.53726	-4.537194E-009	0.0083659	8
	5	8	316265.6	3871.912	-1673.669	1	4218.16	-23.37685	5.740578E-007	0.0082712	8
	6	10	251203.1	4131.774	-1515.272	1	4400.864	-20.13982	-5.766097E-008	0.0083402	8
	7	11	199546.9	4331.867	-1343.321	1	4535.37	-17.22877	4.3247E-007	0.0082574	8
	8	12	158578.1	4487.407	-1179.848	1	4639.921	-14.73103	3.259596E-007	0.0082584	8
	9	14	125953.1	4628.545	-1034.024	1	4742.64	-12.59318	8.449966E-007	0.0064638	7
	10	15	100078.1	4735.941	-920.6075	1	4824.588	-11.00039	9.494248E-009	0.0082476	7
	11	16	79453.13	4820.404	-836.7769	1	4892.494	-9.84787	8.414398E-009	0.0082436	7
	12	18	63140.62	4891.48	-777.2786	1	4952.852	-9.029071	-1.348076E-008	0.0082769	7
	13	19	50203.12	4954.132	-738.4667	1	5008.868	-8.478129	-1.787511E-008	0.0082788	7
	14	21	39890.62	5014.859	-718.8734	1	5066.122	-8.157699	-2.226789E-008	0.0083001	7
	15	22	31640.63	5074.416	-720.0859	1	5125.253	-8.076644	-2.324557E-009	0.0082956	7
	16	23	25171.88	5132.941	-741.1349	1	5186.171	-8.216039	-2.258043E-008	0.0083337	7
	17	25	20015.62	5194.595	-780.1385	1	5252.85	-8.541004	-1.087257E-008	0.0082676	7
	18	26	15890.62	5261.198	-841.0745	1	5328.003	-9.082662	1.440119E-008	0.0083398	7
	19	27	12609.37	5334.459	-922.5199	1	5413.64	-9.81146	-2.2246E-008	0.0083069	7
	20	29	10078.13	5409.083	-1025.039	1	5505.35	-10.73049	-1.462779E-008	0.0082825	7
	21	30	8015.625	5494.796	-1158.092	1	5615.511	-11.90157	4.815481E-009	0.0082277	7
	22	31	6328.125	5595.888	-1323.767	1	5750.332	-13.30926	-2.627781E-008	0.0083196	7
	23	33	5015.625	5706.088	-1526.419	1	5906.725	-14.97636	-4.110171E-008	0.0083682	7
	24	34	3984.375	5830.476	-1766.045	1	6092.073	-16.8515	-3.449838E-008	0.00831	7
	25	36	3170.956	5972.256	-2054.412	1	6315.73	-18.98284	-9.450886E-009	0.0083163	7
	26	37	2527.573	6130.194	-2395.363	1	6581.569	-21.34299	-9.810791E-009	0.0083095	7
	27	38	1976.103	6328.952	-2843.73	1	6938.475	-24.19538	-8.772982E-009	0.0083173	7
	28	40	1577.524	6541.831	-3338.485	1	7344.456	-27.03654	5.507393E-009	0.0083008	7
	29	41	1265.625	6776.488	-3906.98	1	7822.102	-29.96557	2.811768E-008	0.0081901	7
	30	42	998.264	7066.185	-4648.156	1	8457.915	-33.33703	-2.621429E-008	0.0082885	7
	31	44	796.875	7383.801	-5493.655	1	9203.302	-36.64978	2.840849E-008	0.0081918	7
	32	45	627.7902	7782.461	-6577.949	1	10190	-40.20541	1.041012E-008	0.008163	6
	33	46	505.5147	8198.194	-7760.958	1	11289.06	-43.43065	1.391594E-008	0.0080317	6
	34	48	397.9953	8730.917	-9341.062	1	12786.1	-46.93368	1.5767E-009	0.0082883	6
	35	49	315.5048	9345.815	-11204.36	1	14590.47	-50.16772	1.030599E-009	0.0082831	6
	36	51	252.4038	10051.92	-13369.73	1	16726.94	-53.06263	1.584227E-009	0.0082811	6
	37	52	198.6229	10963.92	-16186.97	1	19550.58	-55.88904	1.301574E-009	0.008284	6
	38	53	158.3615	12017.46	-19417.89	1	22835.8	-58.24723	1.067502E-009	0.0082811	6
	39	55	125.558	13354.3	-23408.4	1	26949.78	-60.29561	1.039995E-009	0.0082817	6
	40	56	100.4464	14948.66	-27990.63	1	31732.29	-61.89514	8.817638E-010	0.0082792	6
	41	57	79.00281	17067.85	-34037.8	1	38077.33	-63.36907	8.025497E-010	0.0082797	6
	42	59	63.3446	19526.02	-40840.64	1	45268.35	-64.44741	9.782504E-010	0.0082804	6
	43	60	49.86702	22688.42	-48784.76	1	53802.57	-65.05818	1.463701E-009	0.0082786	6
	44	62	39.72458	26679.81	-58562.18	1	64353.25	-65.5069	1.293171E-009	0.0082819	6
	45	63	31.6723	31524.22	-69975.9	1	76748.96	-65.74838	5.146704E-010	0.0082801	6
	46	64	24.93351	38053.67	-83942.48	1	92165.19	-65.61378	5.277163E-010	0.0082779	6
	47	66	19.86229	45716	-99649.5	1	109635.7	-65.35587	2.932227E-010	0.0082808	5
	48	67	15.83615	54857.02	-117161.3	1	129367.9	-64.91016	4.44089E-010	0.0082771	5
	49	69	12.40079	67562.45	-140343	1	155759	-64.2934	2.050308E-010	0.0082779	5
	50	70	9.93114	82403.2	-163989.1	1	183528.5	-63.32084	7.884514E-010	0.0082779	5
	51	72	7.944915	99675	-191224.1	1	215642.7	-62.46936	7.322541E-011	0.008269	5
	52	73	6.317385	120981.1	-222218	1	253016.3	-61.435	6.627727E-010	0.0082758	5
	53	75	5.008013	146849.3	-257978.3	1	296846	-60.35012	5.485781E-010	0.0082871	5
	54	78	3.945707	178849.4	-299182.1	1	348564.3	-59.12925	2.034499E-010	0.0082768	5
	55	80	3.158693	213667.5	-341673	1	402981.7	-57.97992	2.399168E-010	0.0082948	5
	56	84	2.504006	256054.7	-390780.4	1	467197.3	-56.76561	3.47385E-010	0.0082749	5
	57	87	1.998082	302798.7	-442747.4	1	536388.2	-55.63145	-3.686063E-011	0.0083251	5
	58	90	1.584686	357233.4	-502811	1	616793.8	-54.60725	3.622208E-010	0.0082955	5
	59	93	1.266892	417953.7	-564091.6	1	702057.4	-53.46405	8.45955E-011	0.0083182	5
	60	98	0.999041	487615.4	-636409.6	1	801739.3	-52.54075	2.213264E-010	0.0082431	5
