EXPLAIN
TAG	EISPOT
TITLE	LABEL	Potentiostatic EIS	Test &Identifier
DATE	LABEL	3/17/2020	Date
TIME	LABEL	15:47:10	Time
NOTES	NOTES	1	&Notes...
	
PSTAT	PSTAT	REF600-11020	Potentiostat
VDC	POTEN	0.00000E+000	T	DC &Voltage (V)
FREQINIT	QUANT	1.00000E+006	Initial Fre&q. (Hz)
FREQFINAL	QUANT	1.00000E+000	Final Fre&q. (Hz)
PTSPERDEC	QUANT	1.00000E+001	Points/&decade
VAC	QUANT	2.50000E+001	AC &Voltage (mV rms)
AREA	QUANT	4.00000E-004	&Area (cm^2)
CONDIT	TWOPARAM	F	5.00000E+000	0.00000E+000	Conditionin&g	Time(s)	E(V)
DELAY	TWOPARAM	T	3.00000E+000	0.00000E+000	Init. De&lay	Time(s)	Stab.(mV/s)
SPEED	SELECTOR	0	&Optimize for:
ZGUESS	QUANT	5.00000E+003	E&stimated Z (ohms)
OCVCURVE	TABLE	12
	Pt	T	Vf	Vm	Ach	Over
	#	s	V vs. Ref.	V	V	bits
	0	0.258333	-1.19253E-002	-1.19253E-002	5.77897E-004	...........
	1	0.516667	-1.19243E-002	-1.18712E-002	5.78863E-004	...........
	2	0.775	-1.19179E-002	-1.18181E-002	5.74530E-004	...........
	3	1.03333	-1.18997E-002	-1.17680E-002	5.75697E-004	...........
	4	1.29167	-1.18671E-002	-1.17218E-002	5.78497E-004	...........
	5	1.55	-1.18239E-002	-1.16810E-002	5.80897E-004	...........
	6	1.80833	-1.17765E-002	-1.16393E-002	5.78497E-004	...........
	7	2.06667	-1.17297E-002	-1.15991E-002	5.81430E-004	...........
	8	2.325	-1.16854E-002	-1.15645E-002	5.81163E-004	...........
	9	2.58333	-1.16439E-002	-1.15319E-002	5.82597E-004	...........
	10	2.84167	-1.16052E-002	-1.15026E-002	5.77897E-004	...........
	11	3.1	-1.15694E-002	-1.14729E-002	5.79330E-004	...........
EOC	QUANT	-0.0115694	Open Circuit (V)
PSTATMODEL	IQUANT	4	Pstat Model
PSTATSECTION	LABEL	REF600-11020	Pstat Section
PSTATSERIALNO	LABEL	11020	Pstat Serial Number
CTRLMODE	IQUANT	1	Control Mode
IESTAB	IQUANT	0	I/E Stability
CASPEED	IQUANT	1	Control Amp Speed
CONVENTION	IQUANT	1	Current Convention
ICHRANGE	IQUANT	2	Ich Range
ICHRANGEMODE	TOGGLE	F	Ich Auto Range
ICHOFFSETENABLE	TOGGLE	T	Ich Offset Enable
ICHOFFSET	QUANT	0	Ich Offset (V)
ICHFILTER	IQUANT	3	Ich Filter
VCHRANGE	IQUANT	2	Vch Range
VCHRANGEMODE	TOGGLE	F	Vch Auto Range
VCHOFFSETENABLE	TOGGLE	T	Vch Offset Enable
VCHOFFSET	QUANT	0	Vch Offset (V)
VCHFILTER	IQUANT	3	Vch Filter
ACHRANGE	IQUANT	2	Ach Range
ACHOFFSETENABLE	TOGGLE	F	Ach Offset Enable
ACHOFFSET	QUANT	0	Ach Offset (V)
ACHFILTER	IQUANT	3	Ach Filter
IERANGELOWERLIMIT	IQUANT	1	I/E Range Lower Limit
IERANGEMODE	TOGGLE	F	I/E AutoRange
IERANGE	IQUANT	6	I/E Range
POSFEEDENABLE	TOGGLE	F	Positive Feedback IR Comp
POSFEEDRESISTANCE	QUANT	0	Positive Feedback Resistance (ohm)
ACHSELECT	IQUANT	0	Ach Select
CABLEID	IQUANT	14	Cable ID
DCCALDATE	LABEL	2/27/2020	DC Calibration Date
ACCALDATE	LABEL	2/27/2020	AC Calibration Date
THERMOSELECT	IQUANT	1	Thermo Select
FRAMEWORKVERSION	QUANT	6.33	Framework Version
INSTRUMENTVERSION	LABEL	3.50	Instrument Version
ZCURVE	TABLE
	Pt	Time	Freq	Zreal	Zimag	Zsig	Zmod	Zphz	Idc	Vdc	IERange
	#	s	Hz	ohm	ohm	V	ohm	°	A	V	#
	0	1	1000078	2077.979	-6271.66	1	6606.944	-71.6685	1.802649E-008	-0.0091019	8
	1	1	794390.6	2745.323	-7558.556	1	8041.677	-70.0386	7.065327E-008	-0.0094675	8
	2	1	630984.4	3616.085	-9033.339	1	9730.23	-68.18356	3.097444E-008	-0.0096557	8
	3	2	501234.4	4772.26	-10696.64	1	11712.92	-65.95616	4.262774E-008	-0.0097362	8
	4	2	398109.4	6256.008	-12483.41	1	13963.28	-63.38246	2.888591E-008	-0.0098005	8
	5	2	316265.6	8167.535	-14391.43	1	16547.57	-60.4239	4.04114E-008	-0.0098302	8
	6	3	251203.1	10478.93	-16325.97	1	19399.63	-57.30536	4.540315E-008	-0.0098496	8
	7	3	199546.9	13248.17	-18156.87	1	22476.34	-53.88362	6.860272E-008	-0.0098308	8
	8	3	158578.1	16445.22	-19808.35	1	25745.21	-50.29999	4.510639E-008	-0.0098298	8
	9	4	125953.1	20263.05	-21077.2	1	29237.64	-46.12823	6.211239E-009	-0.0099075	7
	10	4	100078.1	23939.21	-22086.6	1	32571.52	-42.69501	1.917877E-009	-0.0099119	7
	11	4	79453.13	27780.08	-22897.36	1	36000.3	-39.4966	1.978353E-009	-0.0099113	7
	12	5	63140.62	31654.99	-23430.15	1	39382.87	-36.50782	2.835344E-009	-0.0099142	7
	13	5	50203.12	35468.54	-23684.68	1	42649.52	-33.73364	2.54624E-009	-0.0099266	7
	14	5	39890.62	39173.29	-23876.31	1	45876.19	-31.36251	3.172421E-009	-0.0099322	7
	15	6	31640.63	42816.85	-23989.49	1	49079.31	-29.26111	3.568254E-009	-0.0099321	7
	16	6	25171.88	46356.88	-24108.17	1	52250.97	-27.47695	2.988177E-009	-0.0099246	7
	17	6	20015.62	49908.05	-24233.61	1	55480.46	-25.8996	3.815476E-009	-0.0099341	7
	18	6	15890.62	53366.73	-24304.81	1	58640.7	-24.48594	2.753298E-009	-0.0099355	7
	19	7	12609.37	57297.12	-24015.18	1	62126.39	-22.74023	5.279658E-010	-0.00988	6
	20	7	10078.13	60651.04	-24256.21	1	65321.6	-21.79798	5.20063E-010	-0.009888	6
	21	7	8015.625	64101.4	-24537.15	1	68637.17	-20.94617	6.098854E-010	-0.0098744	6
	22	8	6328.125	67706.5	-24867.92	1	72128.94	-20.16778	5.597247E-010	-0.0098863	6
	23	8	5015.625	71265.05	-25251.55	1	75606.54	-19.51091	5.827916E-010	-0.009884	6
	24	8	3984.375	74801.62	-25658.82	1	79080.06	-18.93324	5.285655E-010	-0.0098861	6
	25	9	3170.956	78317.55	-26169.75	1	82574.18	-18.47701	5.723523E-010	-0.0098762	6
	26	9	2527.573	81827.73	-26769.67	1	86095.25	-18.11534	4.112837E-010	-0.0098926	6
	27	9	1976.103	85654.42	-27573.62	1	89983.25	-17.84426	5.488174E-010	-0.0098922	6
	28	10	1577.524	89183.94	-28468.27	1	93617.4	-17.70352	4.848731E-010	-0.0098904	6
	29	10	1265.625	93130.84	-28189.27	1	97303.6	-16.84026	-5.097792E-011	-0.0098809	5
	30	10	998.264	96838	-29911.06	1	101352.2	-17.16473	-4.460994E-011	-0.0098904	5
	31	11	796.875	100486.6	-31821.53	1	105404.8	-17.57166	-7.094698E-011	-0.009888	5
	32	11	627.7902	104423.4	-34242.36	1	109894.4	-18.15528	-4.14153E-011	-0.0098803	5
	33	11	505.5147	108263.6	-36844.61	1	114361.4	-18.79462	-7.199738E-011	-0.0098866	5
	34	12	397.9953	112682.3	-40223.06	1	119646.1	-19.64454	7.170432E-011	-0.0098725	5
	35	12	315.5048	117257.1	-44128.8	1	125286	-20.62344	7.017792E-011	-0.0098718	5
	36	12	252.4038	121945.2	-48552.83	1	131255.5	-21.71011	7.052051E-011	-0.0098749	5
	37	13	198.6229	127360.5	-54186.22	1	138408.2	-23.04759	3.696185E-011	-0.0098714	5
	38	13	158.3615	132880.5	-60514.76	1	146011.2	-24.48486	5.094178E-011	-0.0098747	5
	39	13	125.558	139061	-68225.04	1	154895.5	-26.13314	1.14714E-011	-0.0098751	5
	40	14	100.4464	145575.5	-77018.33	1	164693.8	-27.88158	3.846361E-011	-0.0098748	5
	41	14	79.00281	153354.6	-88304.73	1	176961.4	-29.93423	9.536257E-011	-0.0098818	5
	42	14	63.3446	161387.7	-100654.1	1	190203.1	-31.95092	1.109266E-010	-0.0098824	5
	43	15	49.86702	171226.1	-116550.2	1	207128.8	-34.24234	-1.612519E-011	-0.0098767	5
	44	15	39.72458	181930.1	-134494.5	1	226246.2	-36.47421	4.371995E-011	-0.0098771	5
	45	15	31.6723	194229.4	-155646.5	1	248899.3	-38.70709	3.406592E-011	-0.0098738	5
	46	16	24.93351	209306.2	-182087.5	1	277425.6	-41.02188	-4.451723E-011	-0.0098863	5
	47	16	19.86229	226089.4	-212102.7	1	310006.4	-43.17179	-4.340319E-010	-0.0098845	5
	48	16	15.83615	246280.8	-246807.1	1	348666	-45.06116	4.567046E-010	-0.0098834	5
	49	16	12.40079	271729.2	-290847	1	398031	-46.94631	3.406325E-010	-0.0098838	5
	50	17	9.93114	299368.7	-337301.2	1	450991.9	-48.40963	4.964325E-010	-0.0098811	5
	51	17	7.944915	331997.3	-392405.8	1	514008.3	-49.76691	3.077462E-010	-0.0098866	5
	52	18	6.317385	372640.3	-456995.8	1	589666	-50.80575	4.815153E-011	-0.0098764	5
	53	18	5.008013	422047.9	-532320.7	1	679330.4	-51.59103	1.439683E-010	-0.0098801	5
	54	19	3.945707	482825.7	-621865.6	1	787297.5	-52.17371	2.247325E-010	-0.0098824	5
	55	20	3.158693	550287.5	-715530.9	1	902663.1	-52.43749	1.205787E-010	-0.0098708	5
	56	21	2.504006	635473.9	-828324.3	1	1044006	-52.5053	9.027587E-012	-0.0098881	4
	57	22	1.998082	730636.1	-947432.9	1	1196436	-52.3615	1.099943E-010	-0.0098599	4
	58	24	1.584686	847133.6	-1089596	1	1380165	-52.13584	1.292445E-010	-0.0098465	4
	59	26	1.266892	974968	-1239569	1	1577053	-51.8136	1.039476E-010	-0.0098798	4
	60	28	0.999041	1135744	-1413761	1	1813459	-51.22337	9.196351E-011	-0.009906	4
