EXPLAIN
TAG	EISPOT
TITLE	LABEL	Potentiostatic EIS	Test &Identifier
DATE	LABEL	1/10/2020	Date
TIME	LABEL	14:04:21	Time
NOTES	NOTES	5	&Notes...
	
	
	
	
	
PSTAT	PSTAT	REF600-11020	Potentiostat
VDC	POTEN	0.00000E+000	T	DC &Voltage (V)
FREQINIT	QUANT	1.00000E+006	Initial Fre&q. (Hz)
FREQFINAL	QUANT	1.00000E+000	Final Fre&q. (Hz)
PTSPERDEC	QUANT	1.00000E+001	Points/&decade
VAC	QUANT	2.50000E+001	AC &Voltage (mV rms)
AREA	QUANT	1.00000E-001	&Area (cm^2)
CONDIT	TWOPARAM	T	5.00000E+000	0.00000E+000	Conditionin&g	Time(s)	E(V)
DELAY	TWOPARAM	T	5.00000E+000	0.00000E+000	Init. De&lay	Time(s)	Stab.(mV/s)
SPEED	SELECTOR	0	&Optimize for:
ZGUESS	QUANT	5.00000E+002	E&stimated Z (ohms)
OCVCURVE	TABLE	19
	Pt	T	Vf	Vm	Ach	Over
	#	s	V vs. Ref.	V	V	bits
	0	0.258333	9.27683E-003	9.27683E-003	6.86479E-004	...........
	1	0.516667	9.28126E-003	9.50903E-003	6.81446E-004	...........
	2	0.775	9.30893E-003	9.75124E-003	6.79479E-004	...........
	3	1.03333	9.38858E-003	9.98360E-003	6.78846E-004	...........
	4	1.29167	9.53390E-003	1.02115E-002	6.81979E-004	...........
	5	1.55	9.73150E-003	1.04504E-002	6.84812E-004	...........
	6	1.80833	9.95683E-003	1.06787E-002	6.85079E-004	...........
	7	2.06667	1.01916E-002	1.09133E-002	6.79579E-004	...........
	8	2.325	1.04265E-002	1.11055E-002	6.82512E-004	...........
	9	2.58333	1.06567E-002	1.13318E-002	6.85312E-004	...........
	10	2.84167	1.08794E-002	1.15052E-002	6.81746E-004	...........
	11	3.1	1.10934E-002	1.17193E-002	6.79613E-004	...........
	12	3.35833	1.12996E-002	1.19120E-002	6.88179E-004	...........
	13	3.61667	1.15008E-002	1.21150E-002	6.84612E-004	...........
	14	3.875	1.16996E-002	1.22848E-002	6.79979E-004	...........
	15	4.13333	1.18953E-002	1.24594E-002	6.80446E-004	...........
	16	4.39167	1.20857E-002	1.26492E-002	6.80579E-004	...........
	17	4.65	1.22700E-002	1.28122E-002	6.86046E-004	...........
	18	4.90833	1.24500E-002	1.29904E-002	6.80446E-004	...........
EOC	QUANT	0.01245	Open Circuit (V)
PSTATMODEL	IQUANT	4	Pstat Model
PSTATSECTION	LABEL	REF600-11020	Pstat Section
PSTATSERIALNO	LABEL	11020	Pstat Serial Number
CTRLMODE	IQUANT	1	Control Mode
IESTAB	IQUANT	0	I/E Stability
CASPEED	IQUANT	1	Control Amp Speed
CONVENTION	IQUANT	1	Current Convention
ICHRANGE	IQUANT	2	Ich Range
ICHRANGEMODE	TOGGLE	F	Ich Auto Range
ICHOFFSETENABLE	TOGGLE	T	Ich Offset Enable
ICHOFFSET	QUANT	0	Ich Offset (V)
ICHFILTER	IQUANT	3	Ich Filter
VCHRANGE	IQUANT	2	Vch Range
VCHRANGEMODE	TOGGLE	F	Vch Auto Range
VCHOFFSETENABLE	TOGGLE	T	Vch Offset Enable
VCHOFFSET	QUANT	0	Vch Offset (V)
VCHFILTER	IQUANT	3	Vch Filter
ACHRANGE	IQUANT	2	Ach Range
ACHOFFSETENABLE	TOGGLE	F	Ach Offset Enable
ACHOFFSET	QUANT	0	Ach Offset (V)
ACHFILTER	IQUANT	3	Ach Filter
IERANGELOWERLIMIT	IQUANT	1	I/E Range Lower Limit
IERANGEMODE	TOGGLE	F	I/E AutoRange
IERANGE	IQUANT	7	I/E Range
POSFEEDENABLE	TOGGLE	F	Positive Feedback IR Comp
POSFEEDRESISTANCE	QUANT	0	Positive Feedback Resistance (ohm)
ACHSELECT	IQUANT	0	Ach Select
CABLEID	IQUANT	14	Cable ID
DCCALDATE	LABEL	12/22/2019	DC Calibration Date
ACCALDATE	LABEL	12/22/2019	AC Calibration Date
THERMOSELECT	IQUANT	1	Thermo Select
FRAMEWORKVERSION	QUANT	6.33	Framework Version
INSTRUMENTVERSION	LABEL	3.50	Instrument Version
ZCURVE	TABLE
	Pt	Time	Freq	Zreal	Zimag	Zsig	Zmod	Zphz	Idc	Vdc	IERange
	#	s	Hz	ohm	ohm	V	ohm	°	A	V	#
	0	1	1000078	2196.272	-1828.515	1	2857.81	-39.77921	6.077756E-007	0.0146813	8
	1	2	794390.6	2559.517	-1827.676	1	3145.08	-35.52951	-6.18007E-008	0.0143159	8
	2	2	630984.4	2898.005	-1781.715	1	3401.902	-31.58351	-1.748281E-006	0.0146476	8
	3	2	501234.4	3216.627	-1702.482	1	3639.386	-27.89117	6.698933E-007	0.0141095	8
	4	2	398109.4	3491.961	-1592.096	1	3837.781	-24.50974	1.389498E-007	0.0140714	8
	5	3	316265.6	3746.31	-1465.257	1	4022.663	-21.36147	1.521875E-006	0.0137987	8
	6	3	251203.1	3957.192	-1379.112	1	4190.623	-19.21384	-1.569411E-006	0.0144738	8
	7	3	199546.9	4153.205	-1239.658	1	4334.266	-16.61943	1.522656E-006	0.0137985	8
	8	4	158578.1	4318.146	-1120.179	1	4461.074	-14.54265	3.475386E-007	0.0140225	8
	9	4	125953.1	4488.28	-989.019	1	4595.956	-12.42686	2.636432E-007	0.0135698	7
	10	4	100078.1	4595.247	-883.2172	1	4679.355	-10.87971	-2.770919E-008	0.0140999	7
	11	5	79453.13	4696.477	-799.1982	1	4763.991	-9.6575	-2.453219E-008	0.0141572	7
	12	5	63140.62	4780.646	-725.6029	1	4835.398	-8.630441	4.37318E-008	0.0139635	7
	13	5	50203.12	4850.481	-666.27	1	4896.027	-7.821296	7.156686E-008	0.0139653	7
	14	6	39890.62	4909.11	-622.705	1	4948.447	-7.229179	-1.845636E-008	0.0140549	7
	15	6	31640.63	4961.76	-594.1279	1	4997.205	-6.828165	4.511791E-008	0.0139628	7
	16	6	25171.88	5007.79	-583.5367	1	5041.674	-6.646462	-3.043299E-008	0.0141073	7
	17	7	20015.62	5051.264	-588.9173	1	5085.478	-6.649985	4.765421E-008	0.0140388	7
	18	7	15890.62	5091.582	-615.6598	1	5128.669	-6.894573	4.609151E-008	0.0139648	7
	19	7	12609.37	5137.074	-660.6498	1	5179.381	-7.328259	2.759054E-008	0.0139758	7
	20	8	10078.13	5179.294	-722.9317	1	5229.504	-7.946071	-1.997998E-008	0.0140636	7
	21	8	8015.625	5224.638	-810.256	1	5287.094	-8.815413	-2.170992E-008	0.0140629	7
	22	8	6328.125	5278.606	-929.8478	1	5359.879	-9.99039	-2.808734E-008	0.0140871	7
	23	9	5015.625	5335.185	-1079.608	1	5443.322	-11.43969	4.597744E-008	0.0139569	7
	24	9	3984.375	5401.017	-1267.24	1	5547.691	-13.20445	4.840431E-008	0.0139699	7
	25	9	3170.956	5471.669	-1496.761	1	5672.694	-15.29885	7.533117E-009	0.0140059	7
	26	9	2527.573	5556.084	-1778.642	1	5833.835	-17.75118	-8.178384E-009	0.0140748	7
	27	10	1976.103	5662.196	-2156.865	1	6059.086	-20.85303	-1.459644E-008	0.0141032	7
	28	10	1577.524	5775.855	-2565.131	1	6319.842	-23.94662	4.904913E-008	0.0140288	7
	29	10	1265.625	5905.966	-3086.802	1	6663.991	-27.59419	2.831867E-008	0.0140153	7
	30	11	998.264	6070.991	-3753.602	1	7137.679	-31.72787	7.37378E-008	0.0139481	7
	31	11	796.875	6265.053	-4527.437	1	7729.72	-35.85374	-2.861614E-008	0.0140961	7
	32	11	627.7902	6511.756	-5531.775	1	8544.208	-40.34809	-1.408232E-008	0.014099	7
	33	12	505.5147	6779.366	-6637.243	1	9487.508	-44.39308	-9.71809E-009	0.014071	7
	34	12	397.9953	7142.457	-8124.419	1	10817.62	-48.68018	7.595113E-010	0.0140599	6
	35	12	315.5048	7576.217	-9898.25	1	12464.92	-52.56919	9.323129E-010	0.0140605	6
	36	13	252.4038	8087.245	-11976.47	1	14451.28	-55.97038	8.425703E-010	0.0140559	6
	37	13	198.6229	8780.974	-14694.03	1	17117.83	-59.13797	3.024619E-010	0.0140581	6
	38	13	158.3615	9595.33	-17844.16	1	20260.41	-61.73178	4.651559E-010	0.0140557	6
	39	14	125.558	10665.62	-21737.88	1	24213.45	-63.86528	7.039505E-010	0.0140551	6
	40	14	100.4464	11944	-26292.13	1	28877.94	-65.56863	-3.094956E-010	0.0140509	6
	41	14	79.00281	13694.16	-32143.82	1	34939.31	-66.92465	-3.323726E-010	0.0140532	6
	42	15	63.3446	16235.26	-38834.68	1	42091.76	-67.3121	5.016438E-010	0.0140538	6
	43	15	49.86702	19028.53	-47435.4	1	51109.7	-68.142	7.361356E-010	0.0140502	6
	44	15	39.72458	22415.13	-56881.88	1	61139.07	-68.49236	5.507656E-010	0.014056	6
	45	16	31.6723	26756.38	-68257.05	1	73313.9	-68.5951	6.237405E-010	0.014054	6
	46	16	24.93351	33146.16	-82859.6	1	89243.38	-68.19721	4.740458E-010	0.014051	6
	47	16	19.86229	41040.8	-98981.3	1	107152.5	-67.47955	-5.217147E-010	0.0140541	5
	48	17	15.83615	49808.64	-117742.7	1	127844.6	-67.0702	-1.70728E-010	0.0140506	5
	49	17	12.40079	63548.17	-141265	1	154900.5	-65.77937	-1.411585E-010	0.0140613	5
	50	17	9.93114	79824.51	-164048.7	1	182438.8	-64.05289	6.750441E-010	0.0140489	5
	51	18	7.944915	99255	-190480.1	1	214788.8	-62.47697	1.901996E-010	0.0140554	5
	52	19	6.317385	123078.9	-220409	1	252445.1	-60.82051	-4.628634E-011	0.0140503	5
	53	19	5.008013	152363	-252943.8	1	295288	-58.93696	8.611502E-011	0.0140595	5
	54	20	3.945707	187324.9	-288971.4	1	344376.3	-57.04679	-4.659748E-010	0.014045	5
	55	22	3.158693	224911.5	-323846	1	394286	-55.21997	-1.463772E-010	0.01404	5
	56	23	2.504006	268062.6	-363376.3	1	451552.8	-53.58381	5.330402E-011	0.0140447	5
	57	25	1.998082	313959.7	-402582.7	1	510532.6	-52.05062	-2.900806E-010	0.0140115	5
	58	26	1.584686	364443	-448607.9	1	577985.9	-50.91006	-3.627514E-010	0.0140082	5
	59	28	1.266892	415276.6	-495855	1	646781.9	-50.05396	-2.666278E-010	0.0140463	5
	60	31	0.999041	472774.2	-553430.6	1	727874.2	-49.49403	-2.18969E-010	0.0140745	5
