EXPLAIN
TAG	EISPOT
TITLE	LABEL	Potentiostatic EIS	Test &Identifier
DATE	LABEL	2/11/2020	Date
TIME	LABEL	12:47:43	Time
NOTES	NOTES	6	&Notes...
	
	
	
	
	
	
PSTAT	PSTAT	REF600-11020	Potentiostat
VDC	POTEN	0.00000E+000	T	DC &Voltage (V)
FREQINIT	QUANT	1.00000E+006	Initial Fre&q. (Hz)
FREQFINAL	QUANT	1.00000E+000	Final Fre&q. (Hz)
PTSPERDEC	QUANT	1.00000E+001	Points/&decade
VAC	QUANT	2.50000E+001	AC &Voltage (mV rms)
AREA	QUANT	4.00000E-005	&Area (cm^2)
CONDIT	TWOPARAM	F	5.00000E+000	0.00000E+000	Conditionin&g	Time(s)	E(V)
DELAY	TWOPARAM	F	5.00000E+000	0.00000E+000	Init. De&lay	Time(s)	Stab.(mV/s)
SPEED	SELECTOR	0	&Optimize for:
ZGUESS	QUANT	1.00000E+003	E&stimated Z (ohms)
OCVCURVE	TABLE	39
	Pt	T	Vf	Vm	Ach	Over
	#	s	V vs. Ref.	V	V	bits
	0	0.258333	-2.43307E-002	-2.43307E-002	5.73138E-004	...........
	1	0.516667	-2.43297E-002	-2.42778E-002	5.71638E-004	...........
	2	0.775	-2.43243E-002	-2.42698E-002	5.72404E-004	...........
	3	1.03333	-2.43116E-002	-2.42603E-002	5.76171E-004	...........
	4	1.29167	-2.42941E-002	-2.42540E-002	5.73571E-004	...........
	5	1.55	-2.42770E-002	-2.42360E-002	5.71238E-004	...........
	6	1.80833	-2.42627E-002	-2.42232E-002	5.78771E-004	...........
	7	2.06667	-2.42504E-002	-2.42235E-002	5.75971E-004	...........
	8	2.325	-2.42393E-002	-2.42214E-002	5.71604E-004	...........
	9	2.58333	-2.42314E-002	-2.42672E-002	5.72971E-004	...........
	10	2.84167	-2.42308E-002	-2.42847E-002	5.73604E-004	...........
	11	3.1	-2.42395E-002	-2.42635E-002	5.71771E-004	...........
	12	3.35833	-2.42524E-002	-2.42301E-002	5.74804E-004	...........
	13	3.61667	-2.42593E-002	-2.42302E-002	5.72371E-004	...........
	14	3.875	-2.42559E-002	-2.42445E-002	5.75271E-004	...........
	15	4.13333	-2.42477E-002	-2.42544E-002	5.78171E-004	...........
	16	4.39167	-2.42430E-002	-2.42559E-002	5.77737E-004	...........
	17	4.65	-2.42443E-002	-2.42630E-002	5.76071E-004	...........
	18	4.90833	-2.42494E-002	-2.42620E-002	5.78337E-004	...........
	19	5.16667	-2.42550E-002	-2.42627E-002	5.74504E-004	...........
	20	5.425	-2.42593E-002	-2.42671E-002	5.74738E-004	...........
	21	5.68333	-2.42623E-002	-2.42793E-002	5.75338E-004	...........
	22	5.94167	-2.42656E-002	-2.42851E-002	5.66704E-004	...........
	23	6.2	-2.42703E-002	-2.42824E-002	5.69271E-004	...........
	24	6.45833	-2.42757E-002	-2.42823E-002	5.67971E-004	...........
	25	6.71667	-2.42800E-002	-2.42876E-002	5.66638E-004	...........
	26	6.975	-2.42827E-002	-2.42914E-002	5.67071E-004	...........
	27	7.23333	-2.42849E-002	-2.42931E-002	5.64571E-004	...........
	28	7.49167	-2.42873E-002	-2.42868E-002	5.70438E-004	...........
	29	7.75	-2.42892E-002	-2.42938E-002	5.67671E-004	...........
	30	8.00833	-2.42905E-002	-2.43000E-002	5.67838E-004	...........
	31	8.26667	-2.42919E-002	-2.42976E-002	5.65238E-004	...........
	32	8.525	-2.42941E-002	-2.43031E-002	5.68038E-004	...........
	33	8.78333	-2.42967E-002	-2.43037E-002	5.71071E-004	...........
	34	9.04167	-2.42994E-002	-2.43110E-002	5.72804E-004	...........
	35	9.3	-2.43023E-002	-2.43147E-002	5.74004E-004	...........
	36	9.5583	-2.43057E-002	-2.43167E-002	5.75538E-004	...........
	37	9.8167	-2.43095E-002	-2.43177E-002	5.73804E-004	...........
	38	10.075	-2.43131E-002	-2.43241E-002	5.74738E-004	...........
EOC	QUANT	-0.0243131	Open Circuit (V)
PSTATMODEL	IQUANT	4	Pstat Model
PSTATSECTION	LABEL	REF600-11020	Pstat Section
PSTATSERIALNO	LABEL	11020	Pstat Serial Number
CTRLMODE	IQUANT	1	Control Mode
IESTAB	IQUANT	0	I/E Stability
CASPEED	IQUANT	1	Control Amp Speed
CONVENTION	IQUANT	1	Current Convention
ICHRANGE	IQUANT	2	Ich Range
ICHRANGEMODE	TOGGLE	F	Ich Auto Range
ICHOFFSETENABLE	TOGGLE	T	Ich Offset Enable
ICHOFFSET	QUANT	0	Ich Offset (V)
ICHFILTER	IQUANT	3	Ich Filter
VCHRANGE	IQUANT	2	Vch Range
VCHRANGEMODE	TOGGLE	F	Vch Auto Range
VCHOFFSETENABLE	TOGGLE	T	Vch Offset Enable
VCHOFFSET	QUANT	0	Vch Offset (V)
VCHFILTER	IQUANT	3	Vch Filter
ACHRANGE	IQUANT	2	Ach Range
ACHOFFSETENABLE	TOGGLE	F	Ach Offset Enable
ACHOFFSET	QUANT	0	Ach Offset (V)
ACHFILTER	IQUANT	3	Ach Filter
IERANGELOWERLIMIT	IQUANT	1	I/E Range Lower Limit
IERANGEMODE	TOGGLE	F	I/E AutoRange
IERANGE	IQUANT	7	I/E Range
POSFEEDENABLE	TOGGLE	F	Positive Feedback IR Comp
POSFEEDRESISTANCE	QUANT	0	Positive Feedback Resistance (ohm)
ACHSELECT	IQUANT	0	Ach Select
CABLEID	IQUANT	14	Cable ID
DCCALDATE	LABEL	1/27/2020	DC Calibration Date
ACCALDATE	LABEL	1/27/2020	AC Calibration Date
THERMOSELECT	IQUANT	1	Thermo Select
FRAMEWORKVERSION	QUANT	6.33	Framework Version
INSTRUMENTVERSION	LABEL	3.50	Instrument Version
ZCURVE	TABLE
	Pt	Time	Freq	Zreal	Zimag	Zsig	Zmod	Zphz	Idc	Vdc	IERange
	#	s	Hz	ohm	ohm	V	ohm	°	A	V	#
	0	1	1000078	1826.303	-2120.935	1	2798.883	-49.26879	-1.618831E-006	-0.0222853	8
	1	1	794390.6	2146.056	-2320.834	1	3160.985	-47.2407	-3.036246E-006	-0.0215802	8
	2	2	630984.4	2506.946	-2523.786	1	3557.284	-45.1918	-2.564854E-006	-0.0218169	8
	3	2	501234.4	2886.454	-2728.739	1	3972.106	-43.39114	-2.700223E-006	-0.0219604	8
	4	2	398109.4	3279.717	-2955.146	1	4414.684	-42.02002	5.825444E-007	-0.0227066	8
	5	3	316265.6	3757.974	-3149.292	1	4903.103	-39.96399	-9.099362E-007	-0.0225448	8
	6	3	251203.1	4253.47	-3392.467	1	5440.666	-38.57503	1.777531E-007	-0.0225182	8
	7	3	199546.9	4846.263	-3578.744	1	6024.423	-36.44418	-3.064729E-007	-0.0226518	8
	8	4	158578.1	5477.515	-3774.498	1	6652.068	-34.57032	-8.250313E-007	-0.0225704	8
	9	4	125953.1	6223.444	-3929.318	1	7360.082	-32.26723	1.191999E-006	-0.0253729	7
	10	4	100078.1	6948.064	-3952.616	1	7993.67	-29.63469	-1.072075E-008	-0.0226721	7
	11	5	79453.13	7686.328	-3899.812	1	8619.059	-26.90187	-5.67889E-008	-0.0226527	7
	12	5	63140.62	8402.615	-3783.089	1	9214.972	-24.23859	-2.810407E-008	-0.022621	7
	13	5	50203.12	9068.638	-3585.263	1	9751.63	-21.57124	7.635064E-008	-0.0228721	7
	14	6	39890.62	9657.8	-3335.186	1	10217.46	-19.05164	2.016445E-009	-0.0226439	7
	15	6	31640.63	10181.6	-3039.481	1	10625.61	-16.62177	3.830909E-009	-0.0227199	7
	16	6	25171.88	10605.37	-2752.929	1	10956.84	-14.55161	3.429452E-009	-0.0227234	7
	17	7	20015.62	10928.67	-2455.944	1	11201.23	-12.66537	-2.908296E-008	-0.0227327	7
	18	7	15890.62	11217.82	-2191.155	1	11429.81	-11.05231	4.097664E-009	-0.0227226	7
	19	7	12609.37	11468.42	-1892.597	1	11623.54	-9.370878	7.927202E-009	-0.0229219	6
	20	8	10078.13	11616.72	-1734.279	1	11745.47	-8.491063	3.82294E-009	-0.0227162	6
	21	8	8015.625	11761.44	-1634.398	1	11874.45	-7.9113	7.713116E-009	-0.0227622	6
	22	8	6328.125	11880.01	-1585.809	1	11985.39	-7.603206	1.648143E-008	-0.0230334	6
	23	9	5015.625	11959.99	-1591.45	1	12065.41	-7.57951	-5.507622E-009	-0.0226634	6
	24	9	3984.375	12035.16	-1652.835	1	12148.12	-7.819737	-1.206919E-009	-0.0227666	6
	25	9	3170.956	12122.07	-1789.225	1	12253.4	-8.39627	-5.186642E-009	-0.0227353	6
	26	9	2527.573	12189.65	-1986.818	1	12350.51	-9.25736	3.684328E-009	-0.0229329	6
	27	10	1976.103	12294.01	-2288.022	1	12505.11	-10.54263	-2.94198E-009	-0.0227879	6
	28	10	1577.524	12412.52	-2655.301	1	12693.36	-12.07479	-1.062077E-008	-0.0226752	6
	29	10	1265.625	12530.05	-3126.731	1	12914.28	-14.01136	1.470466E-008	-0.0229369	6
	30	11	998.264	12690.28	-3763.162	1	13236.49	-16.51714	-7.957085E-009	-0.0226751	6
	31	11	796.875	12842.51	-4508.902	1	13611.04	-19.34576	-5.158793E-009	-0.022617	6
	32	11	627.7902	13082.56	-5500.806	1	14191.98	-22.80523	3.449754E-009	-0.0226999	6
	33	12	505.5147	13333.88	-6591.758	1	14874.26	-26.30603	-2.608928E-009	-0.0228554	6
	34	12	397.9953	13681.74	-8076.362	1	15887.66	-30.55344	1.16658E-009	-0.0227481	6
	35	12	315.5048	14107.38	-9841.72	1	17201.09	-34.90075	4.831856E-010	-0.0227486	6
	36	13	252.4038	14591.22	-11903.72	1	18830.88	-39.20804	8.983997E-010	-0.0227537	6
	37	13	198.6229	15251.93	-14592.85	1	21108.59	-43.73491	5.155364E-010	-0.022752	6
	38	13	158.3615	16029.55	-17688.43	1	23871.05	-47.81661	5.855247E-010	-0.0227544	6
	39	14	125.558	17020.56	-21549.67	1	27460.66	-51.6973	4.699556E-010	-0.022755	6
	40	14	100.4464	18199.34	-26021.55	1	31754.33	-55.03126	1.814521E-010	-0.0227533	6
	41	14	79.00281	19877.5	-31905.95	1	37591.29	-58.07697	5.22044E-010	-0.0227562	6
	42	15	63.3446	21389.03	-38899.13	1	44391.81	-61.19542	1.311416E-009	-0.0227575	6
	43	15	49.86702	23907.86	-47425.42	1	53110.79	-63.24665	1.191011E-009	-0.0227606	6
	44	15	39.72458	27369.93	-57317.67	1	63517.15	-64.47492	7.526736E-010	-0.022758	6
	45	16	31.6723	31544.87	-69392.26	1	76225.74	-65.55404	-5.857326E-011	-0.0227604	6
	46	16	24.93351	37117.04	-84465.44	1	92260.96	-66.27765	1.001153E-009	-0.0227631	6
	47	16	19.86229	44135.53	-101464.2	1	110647.7	-66.49162	1.201812E-009	-0.022758	5
	48	17	15.83615	53787.74	-121372.2	1	132756.7	-66.09883	5.29054E-010	-0.0227635	5
	49	17	12.40079	66809.88	-147371.9	1	161808.6	-65.61321	-5.284333E-010	-0.0227553	5
	50	17	9.93114	81364.35	-174016.8	1	192099	-64.94081	3.791081E-010	-0.0227533	5
	51	18	7.944915	100951.8	-203320.8	1	227003.5	-63.59492	9.253676E-010	-0.0227646	5
	52	19	6.317385	125770.7	-237363	1	268625.1	-62.08239	7.134505E-010	-0.022771	5
	53	19	5.008013	156927.5	-275385.4	1	316959.6	-60.32348	3.682269E-010	-0.022763	5
	54	20	3.945707	193678.2	-317022.3	1	371502.9	-58.57802	2.650574E-010	-0.0227622	5
	55	22	3.158693	234271	-358255.5	1	428053.7	-56.81847	-9.410908E-011	-0.0227679	5
	56	23	2.504006	281665.1	-403365.8	1	491974.8	-55.07391	4.609913E-011	-0.0227724	5
	57	25	1.998082	332567.3	-450959.6	1	560326.4	-53.59249	2.7403E-010	-0.0227347	5
	58	26	1.584686	388015.9	-502610.2	1	634959.3	-52.3318	1.268472E-010	-0.0227716	5
	59	28	1.266892	447749.1	-557705.3	1	715202.4	-51.24105	4.140365E-011	-0.0228023	5
	60	31	0.999041	514965.9	-625301.7	1	810056.8	-50.52691	-2.067943E-011	-0.0228064	5
