EXPLAIN
TAG	EISPOT
TITLE	LABEL	Potentiostatic EIS	Test &Identifier
DATE	LABEL	6/6/2020	Date
TIME	LABEL	18:20:59	Time
NOTES	NOTES	1	&Notes...
	
PSTAT	PSTAT	REF600-11020	Potentiostat
VDC	POTEN	0.00000E+000	T	DC &Voltage (V)
FREQINIT	QUANT	1.00000E+006	Initial Fre&q. (Hz)
FREQFINAL	QUANT	1.00000E+000	Final Fre&q. (Hz)
PTSPERDEC	QUANT	1.00000E+001	Points/&decade
VAC	QUANT	2.50000E+001	AC &Voltage (mV rms)
AREA	QUANT	4.00000E-004	&Area (cm^2)
CONDIT	TWOPARAM	F	5.00000E+000	0.00000E+000	Conditionin&g	Time(s)	E(V)
DELAY	TWOPARAM	T	3.00000E+000	0.00000E+000	Init. De&lay	Time(s)	Stab.(mV/s)
SPEED	SELECTOR	0	&Optimize for:
ZGUESS	QUANT	1.00000E+003	E&stimated Z (ohms)
OCVCURVE	TABLE	12
	Pt	T	Vf	Vm	Ach	Over
	#	s	V vs. Ref.	V	V	bits
	0	0.258333	-9.82081E-002	-9.82081E-002	5.86630E-004	...........
	1	0.516667	-9.82082E-002	-9.82157E-002	5.85396E-004	...........
	2	0.775	-9.82091E-002	-9.82245E-002	5.89930E-004	...........
	3	1.03333	-9.82119E-002	-9.82331E-002	5.92863E-004	...........
	4	1.29167	-9.82170E-002	-9.82442E-002	5.93430E-004	...........
	5	1.55	-9.82242E-002	-9.82498E-002	5.91930E-004	...........
	6	1.80833	-9.82326E-002	-9.82556E-002	5.92130E-004	...........
	7	2.06667	-9.82410E-002	-9.82633E-002	5.89796E-004	...........
	8	2.325	-9.82488E-002	-9.82737E-002	5.89930E-004	...........
	9	2.58333	-9.82563E-002	-9.82839E-002	5.88363E-004	...........
	10	2.84167	-9.82644E-002	-9.82918E-002	5.91896E-004	...........
	11	3.1	-9.82731E-002	-9.83010E-002	5.91963E-004	...........
EOC	QUANT	-0.0982731	Open Circuit (V)
PSTATMODEL	IQUANT	4	Pstat Model
PSTATSECTION	LABEL	REF600-11020	Pstat Section
PSTATSERIALNO	LABEL	11020	Pstat Serial Number
CTRLMODE	IQUANT	1	Control Mode
IESTAB	IQUANT	0	I/E Stability
CASPEED	IQUANT	1	Control Amp Speed
CONVENTION	IQUANT	1	Current Convention
ICHRANGE	IQUANT	2	Ich Range
ICHRANGEMODE	TOGGLE	F	Ich Auto Range
ICHOFFSETENABLE	TOGGLE	T	Ich Offset Enable
ICHOFFSET	QUANT	0	Ich Offset (V)
ICHFILTER	IQUANT	3	Ich Filter
VCHRANGE	IQUANT	2	Vch Range
VCHRANGEMODE	TOGGLE	F	Vch Auto Range
VCHOFFSETENABLE	TOGGLE	T	Vch Offset Enable
VCHOFFSET	QUANT	0	Vch Offset (V)
VCHFILTER	IQUANT	3	Vch Filter
ACHRANGE	IQUANT	2	Ach Range
ACHOFFSETENABLE	TOGGLE	F	Ach Offset Enable
ACHOFFSET	QUANT	0	Ach Offset (V)
ACHFILTER	IQUANT	3	Ach Filter
IERANGELOWERLIMIT	IQUANT	1	I/E Range Lower Limit
IERANGEMODE	TOGGLE	F	I/E AutoRange
IERANGE	IQUANT	8	I/E Range
POSFEEDENABLE	TOGGLE	F	Positive Feedback IR Comp
POSFEEDRESISTANCE	QUANT	0	Positive Feedback Resistance (ohm)
ACHSELECT	IQUANT	0	Ach Select
CABLEID	IQUANT	14	Cable ID
DCCALDATE	LABEL	2/27/2020	DC Calibration Date
ACCALDATE	LABEL	2/27/2020	AC Calibration Date
THERMOSELECT	IQUANT	1	Thermo Select
FRAMEWORKVERSION	QUANT	6.33	Framework Version
INSTRUMENTVERSION	LABEL	3.50	Instrument Version
ZCURVE	TABLE
	Pt	Time	Freq	Zreal	Zimag	Zsig	Zmod	Zphz	Idc	Vdc	IERange
	#	s	Hz	ohm	ohm	V	ohm	°	A	V	#
	0	1	1000078	1789.416	-1493.454	1	2330.754	-39.84851	8.006803E-008	-0.0957921	8
	1	1	794390.6	2056.949	-1552.16	1	2576.866	-37.03795	5.244281E-008	-0.096143	8
	2	2	630984.4	2332.017	-1584.176	1	2819.205	-34.1889	6.030055E-008	-0.096318	8
	3	2	501234.4	2604.565	-1595.611	1	3054.461	-31.4925	3.567204E-008	-0.0964263	8
	4	2	398109.4	2870.11	-1589.559	1	3280.889	-28.97909	2.481728E-008	-0.0965198	8
	5	3	316265.6	3127.006	-1569.748	1	3498.896	-26.65651	5.086303E-008	-0.0965431	8
	6	3	251203.1	3365.483	-1539.34	1	3700.817	-24.57891	5.98034E-008	-0.0965486	8
	7	3	199546.9	3597	-1503.068	1	3898.413	-22.67844	5.124823E-008	-0.0965572	8
	8	4	158578.1	3810.176	-1473.801	1	4085.282	-21.14679	4.166221E-008	-0.0965594	8
	9	4	125953.1	4040.866	-1401.144	1	4276.892	-19.12366	4.095031E-009	-0.0966253	7
	10	4	100078.1	4220.967	-1383.079	1	4441.787	-18.14235	2.507564E-009	-0.0966303	7
	11	4	79453.13	4406.366	-1382.626	1	4618.194	-17.42077	2.060608E-009	-0.0966422	7
	12	5	63140.62	4587.643	-1388.768	1	4793.24	-16.84208	1.252722E-009	-0.0966488	7
	13	5	50203.12	4766.958	-1404.201	1	4969.473	-16.41337	1.912208E-009	-0.096648	7
	14	5	39890.62	4947.245	-1431.694	1	5150.24	-16.14003	2.627961E-009	-0.0966515	7
	15	6	31640.63	5132.17	-1473.179	1	5339.422	-16.01602	1.841946E-009	-0.0966542	7
	16	6	25171.88	5319.697	-1527.574	1	5534.678	-16.02165	3.310952E-009	-0.0966453	7
	17	6	20015.62	5513.793	-1595.648	1	5740.035	-16.14002	3.767244E-009	-0.0966468	7
	18	7	15890.62	5718.676	-1677.932	1	5959.757	-16.35236	2.50457E-009	-0.0966531	7
	19	7	12609.37	5933.143	-1773.172	1	6192.44	-16.63924	2.329029E-009	-0.0966646	7
	20	7	10078.13	6154.198	-1881.166	1	6435.288	-16.99693	2.3442E-009	-0.096658	7
	21	8	8015.625	6390.679	-2005.794	1	6698.058	-17.42511	4.056442E-009	-0.0966521	7
	22	8	6328.125	6645.98	-2152.094	1	6985.74	-17.94293	2.879098E-009	-0.0966632	7
	23	8	5015.625	6905.651	-2319.584	1	7284.812	-18.56702	4.269916E-009	-0.0966588	7
	24	9	3984.375	7168.247	-2509.735	1	7594.902	-19.29609	3.384326E-009	-0.0966589	7
	25	9	3170.956	7434.599	-2737.263	1	7922.491	-20.21264	1.968199E-009	-0.0966673	7
	26	9	2527.573	7711.333	-3011.944	1	8278.676	-21.33495	3.841737E-009	-0.0966643	7
	27	10	1976.103	8013.96	-3367.256	1	8692.639	-22.79087	2.767688E-009	-0.0966686	7
	28	10	1577.524	8299.6	-3768.203	1	9114.972	-24.4191	2.748613E-009	-0.0966743	7
	29	10	1265.625	8593.405	-4239.415	1	9582.24	-26.25867	-1.669102E-010	-0.0966191	6
	30	11	998.264	8912.682	-4879.415	1	10160.93	-28.69933	-2.368823E-010	-0.0966142	6
	31	11	796.875	9228.475	-5638.16	1	10814.51	-31.42295	7.842881E-011	-0.0966132	6
	32	11	627.7902	9583.56	-6634.619	1	11656.02	-34.69452	5.984402E-011	-0.0966142	6
	33	12	505.5147	9931.6	-7759.21	1	12603.25	-37.99927	-1.778599E-010	-0.0966181	6
	34	12	397.9953	10356.83	-9298.3	1	13918.42	-41.91731	5.279569E-010	-0.0965968	6
	35	12	315.5048	10828.68	-11158.9	1	15549.32	-45.86042	5.121199E-010	-0.0966005	6
	36	12	252.4038	11353.29	-13365.17	1	17536.39	-49.65316	4.832972E-010	-0.0966026	6
	37	13	198.6229	12019.58	-16295.03	1	20248.42	-53.58669	4.805578E-010	-0.096604	6
	38	13	158.3615	12779.13	-19718.96	1	23497.74	-57.05421	4.812416E-010	-0.0966058	6
	39	13	125.558	13738.9	-24037.96	1	27687.2	-60.24987	4.972624E-010	-0.0966055	6
	40	14	100.4464	14880.59	-29132.01	1	32712.48	-62.94211	3.966556E-010	-0.0966097	6
	41	14	79.00281	16438.11	-35868.54	1	39455.84	-65.37859	3.331717E-010	-0.0966149	6
	42	14	63.3446	18271.61	-43458.11	1	47142.97	-67.19608	2.914991E-010	-0.0966123	6
	43	15	49.86702	20835.87	-53499.32	1	57413.5	-68.72105	4.626E-010	-0.0966109	6
	44	15	39.72458	24025.81	-65136.82	1	69426.54	-69.75343	3.434433E-010	-0.0966064	6
	45	16	31.6723	28175.96	-79162.13	1	84026.95	-70.40797	3.322416E-010	-0.0966092	6
	46	16	24.93351	33982.24	-97078.8	1	102854.7	-70.7075	3.154943E-010	-0.0966069	6
	47	16	19.86229	41363.43	-117518.8	1	124585.8	-70.60932	-2.945686E-010	-0.0966062	5
	48	16	15.83615	50966.9	-141765.3	1	150648.7	-70.22568	-1.919918E-010	-0.0966042	5
	49	17	12.40079	64914.12	-172817.1	1	184606.6	-69.41266	-8.087334E-010	-0.0965982	5
	50	17	9.93114	81381.14	-205479.6	1	221008.5	-68.39373	-8.329529E-010	-0.0966033	5
	51	17	7.944915	102781.9	-243215	1	264041	-67.09123	2.215237E-010	-0.0966028	5
	52	18	6.317385	130545.9	-286935.5	1	315236.8	-65.53608	-7.534613E-011	-0.0965952	5
	53	19	5.008013	166045.9	-336168.3	1	374940.4	-63.71354	-3.169095E-010	-0.0966098	5
	54	20	3.945707	211508.4	-391318.2	1	444821	-61.60867	-1.136005E-010	-0.0966028	5
	55	20	3.158693	261139.7	-446063.8	1	516881.9	-59.65396	-1.530445E-010	-0.0966178	5
	56	21	2.504006	322437.6	-506139.4	1	600119.2	-57.50071	1.871888E-010	-0.0966183	5
	57	23	1.998082	386962.7	-566715.4	1	686226.3	-55.67409	1.279674E-010	-0.0966111	5
	58	24	1.584686	462920.6	-632538.8	1	783837.2	-53.80164	-7.588144E-012	-0.0966594	5
	59	26	1.266892	539522.3	-703254.9	1	886370	-52.50534	-9.393712E-012	-0.0966553	5
	60	29	0.999041	625649.4	-785901.8	1	1004529	-51.47702	-4.968325E-011	-0.0966326	4
