EXPLAIN
TAG	EISPOT
TITLE	LABEL	Potentiostatic EIS	Test &Identifier
DATE	LABEL	6/6/2020	Date
TIME	LABEL	13:56:58	Time
NOTES	NOTES	1	&Notes...
	
PSTAT	PSTAT	REF600-11020	Potentiostat
VDC	POTEN	0.00000E+000	T	DC &Voltage (V)
FREQINIT	QUANT	1.00000E+006	Initial Fre&q. (Hz)
FREQFINAL	QUANT	1.00000E+000	Final Fre&q. (Hz)
PTSPERDEC	QUANT	1.00000E+001	Points/&decade
VAC	QUANT	2.50000E+001	AC &Voltage (mV rms)
AREA	QUANT	2.50000E-001	&Area (cm^2)
CONDIT	TWOPARAM	F	5.00000E+000	0.00000E+000	Conditionin&g	Time(s)	E(V)
DELAY	TWOPARAM	T	3.00000E+000	0.00000E+000	Init. De&lay	Time(s)	Stab.(mV/s)
SPEED	SELECTOR	0	&Optimize for:
ZGUESS	QUANT	1.00000E+003	E&stimated Z (ohms)
OCVCURVE	TABLE	12
	Pt	T	Vf	Vm	Ach	Over
	#	s	V vs. Ref.	V	V	bits
	0	0.258333	-2.14729E-001	-2.14729E-001	5.77363E-004	...........
	1	0.516667	-2.14729E-001	-2.14711E-001	5.75363E-004	...........
	2	0.775	-2.14727E-001	-2.14694E-001	5.75163E-004	...........
	3	1.03333	-2.14721E-001	-2.14679E-001	5.77763E-004	...........
	4	1.29167	-2.14710E-001	-2.14665E-001	5.75563E-004	...........
	5	1.55	-2.14696E-001	-2.14653E-001	5.78830E-004	...........
	6	1.80833	-2.14682E-001	-2.14641E-001	5.76963E-004	...........
	7	2.06667	-2.14668E-001	-2.14632E-001	5.71697E-004	...........
	8	2.325	-2.14655E-001	-2.14623E-001	5.69130E-004	...........
	9	2.58333	-2.14643E-001	-2.14615E-001	5.75763E-004	...........
	10	2.84167	-2.14633E-001	-2.14610E-001	5.75397E-004	...........
	11	3.1	-2.14624E-001	-2.14600E-001	5.73897E-004	...........
EOC	QUANT	-0.2146244	Open Circuit (V)
PSTATMODEL	IQUANT	4	Pstat Model
PSTATSECTION	LABEL	REF600-11020	Pstat Section
PSTATSERIALNO	LABEL	11020	Pstat Serial Number
CTRLMODE	IQUANT	1	Control Mode
IESTAB	IQUANT	0	I/E Stability
CASPEED	IQUANT	1	Control Amp Speed
CONVENTION	IQUANT	1	Current Convention
ICHRANGE	IQUANT	2	Ich Range
ICHRANGEMODE	TOGGLE	F	Ich Auto Range
ICHOFFSETENABLE	TOGGLE	T	Ich Offset Enable
ICHOFFSET	QUANT	0	Ich Offset (V)
ICHFILTER	IQUANT	3	Ich Filter
VCHRANGE	IQUANT	2	Vch Range
VCHRANGEMODE	TOGGLE	F	Vch Auto Range
VCHOFFSETENABLE	TOGGLE	T	Vch Offset Enable
VCHOFFSET	QUANT	0	Vch Offset (V)
VCHFILTER	IQUANT	3	Vch Filter
ACHRANGE	IQUANT	2	Ach Range
ACHOFFSETENABLE	TOGGLE	F	Ach Offset Enable
ACHOFFSET	QUANT	0	Ach Offset (V)
ACHFILTER	IQUANT	3	Ach Filter
IERANGELOWERLIMIT	IQUANT	1	I/E Range Lower Limit
IERANGEMODE	TOGGLE	F	I/E AutoRange
IERANGE	IQUANT	8	I/E Range
POSFEEDENABLE	TOGGLE	F	Positive Feedback IR Comp
POSFEEDRESISTANCE	QUANT	0	Positive Feedback Resistance (ohm)
ACHSELECT	IQUANT	0	Ach Select
CABLEID	IQUANT	14	Cable ID
DCCALDATE	LABEL	2/27/2020	DC Calibration Date
ACCALDATE	LABEL	2/27/2020	AC Calibration Date
THERMOSELECT	IQUANT	1	Thermo Select
FRAMEWORKVERSION	QUANT	6.33	Framework Version
INSTRUMENTVERSION	LABEL	3.50	Instrument Version
ZCURVE	TABLE
	Pt	Time	Freq	Zreal	Zimag	Zsig	Zmod	Zphz	Idc	Vdc	IERange
	#	s	Hz	ohm	ohm	V	ohm	°	A	V	#
	0	1	1000078	2121.058	-6284.342	1	6632.635	-71.3497	2.511661E-008	-0.2119218	8
	1	2	794390.6	2769.813	-7576.089	1	8066.536	-69.91763	8.184659E-008	-0.2123427	8
	2	2	630984.4	3645.356	-9042.205	1	9749.36	-68.04322	6.637014E-008	-0.2125226	8
	3	2	501234.4	4791.882	-10707.68	1	11731.01	-65.89062	6.242588E-008	-0.2126711	8
	4	3	398109.4	6302.088	-12503.72	1	14002.12	-63.25113	3.82827E-008	-0.2127151	8
	5	3	316265.6	8145.618	-14455.91	1	16592.9	-60.5996	4.043345E-008	-0.2127838	8
	6	3	251203.1	10486.61	-16360.3	1	19432.66	-57.34097	9.971174E-008	-0.2128277	8
	7	3	199546.9	13184.71	-18268.45	1	22529.37	-54.18126	6.852643E-008	-0.212795	8
	8	4	158578.1	16308.79	-19932.36	1	25754.13	-50.70974	3.989751E-008	-0.2127886	8
	9	4	125953.1	20234.35	-21289.91	1	29371.58	-46.45617	4.408277E-009	-0.2128591	7
	10	4	100078.1	23891.61	-22446.73	1	32782.07	-43.21404	3.431365E-009	-0.2128862	7
	11	5	79453.13	27717.26	-23407.4	1	36278.82	-40.1813	4.320234E-009	-0.2128839	7
	12	5	63140.62	31679.1	-24103.2	1	39806.15	-37.26588	3.866736E-009	-0.2128989	7
	13	5	50203.12	35615.08	-24658.45	1	43318.28	-34.69717	4.284447E-009	-0.2128961	7
	14	6	39890.62	39541.21	-24955.08	1	46757.5	-32.25667	3.866266E-009	-0.2129024	7
	15	6	31640.63	43495.77	-25261.76	1	50299.49	-30.14744	4.604336E-009	-0.2128998	7
	16	6	25171.88	47368.64	-25416.93	1	53756.94	-28.21698	4.12958E-009	-0.2129058	7
	17	7	20015.62	51205.88	-25511.95	1	57209.28	-26.48354	4.272569E-009	-0.2129063	7
	18	7	15890.62	55056.38	-25559.34	1	60699.96	-24.90259	4.593081E-009	-0.2129075	7
	19	7	12609.37	59375.54	-24861.33	1	64370.34	-22.71971	7.761285E-010	-0.2128533	6
	20	8	10078.13	62925.42	-24937.1	1	67686.54	-21.61823	6.988654E-010	-0.2128555	6
	21	8	8015.625	66528.6	-25016.88	1	71076.71	-20.60786	6.482678E-010	-0.2128533	6
	22	8	6328.125	70203.09	-25124.22	1	74563.4	-19.69123	8.140369E-010	-0.2128485	6
	23	9	5015.625	73782.26	-25267.25	1	77988.82	-18.90413	7.058539E-010	-0.2128506	6
	24	9	3984.375	77274.44	-25454.19	1	81358.8	-18.23188	7.033834E-010	-0.2128535	6
	25	9	3170.956	80680.11	-25738.35	1	84686.14	-17.69358	7.46734E-010	-0.2128456	6
	26	10	2527.573	84046.13	-26160.47	1	88023.41	-17.28944	6.687396E-010	-0.2128588	6
	27	10	1976.103	87630.68	-26809.46	1	91639.96	-17.0108	5.202367E-010	-0.2128607	6
	28	10	1577.524	90907.92	-27626.46	1	95013	-16.90376	6.526604E-010	-0.2128601	6
	29	11	1265.625	94864.05	-26956.87	1	98619.8	-15.8632	-2.846058E-011	-0.2128532	5
	30	11	998.264	98083	-28745.37	1	102208.5	-16.33437	-8.669915E-012	-0.2128585	5
	31	11	796.875	101316.6	-30831.22	1	105903.8	-16.92531	-5.554187E-012	-0.2128518	5
	32	11	627.7902	104846.1	-33568.59	1	110088.9	-17.75351	-1.009504E-011	-0.2128597	5
	33	12	505.5147	108160	-36571.17	1	114175.5	-18.68147	-5.447889E-011	-0.2128613	5
	34	12	397.9953	112070.8	-40659.55	1	119218.5	-19.9409	1.07833E-010	-0.2128414	5
	35	12	315.5048	116160.2	-45480.94	1	124746.6	-21.38215	1.073507E-010	-0.2128429	5
	36	13	252.4038	120444.8	-51064.77	1	130822.7	-22.97539	1.00111E-010	-0.2128471	5
	37	13	198.6229	125545.7	-58283.7	1	138415	-24.90275	9.799951E-011	-0.2128444	5
	38	13	158.3615	130960.1	-66465.33	1	146861.1	-26.90887	1.141585E-010	-0.2128472	5
	39	14	125.558	137232.7	-76435.69	1	157083.5	-29.11687	1.360242E-010	-0.2128461	5
	40	14	100.4464	144081.2	-87778.44	1	168714.1	-31.35098	9.217065E-011	-0.2128481	5
	41	14	79.00281	152530	-102231.4	1	183620.9	-33.8315	1.047125E-010	-0.212844	5
	42	15	63.3446	161446.9	-117944.9	1	199940.2	-36.14996	9.37691E-011	-0.2128498	5
	43	15	49.86702	172549.4	-138052.7	1	220979.3	-38.66248	1.291532E-010	-0.2128521	5
	44	15	39.72458	184723.1	-160667.1	1	244819.5	-41.01585	7.719798E-011	-0.2128525	5
	45	16	31.6723	198750.9	-187251.3	1	273065.9	-43.29358	3.868633E-011	-0.2128528	5
	46	16	24.93351	215993.4	-220510	1	308671.1	-45.59283	1.490841E-010	-0.2128544	5
	47	16	19.86229	235249.9	-258156.5	1	349266.8	-47.65807	1.426606E-011	-0.2128531	5
	48	17	15.83615	257883.6	-302238.3	1	397305.8	-49.52767	2.992766E-010	-0.2128551	5
	49	17	12.40079	286973.7	-358948.8	1	459562.9	-51.35824	4.357401E-010	-0.2128565	5
	50	17	9.93114	318158.3	-419306.9	1	526348.8	-52.8098	4.426416E-010	-0.2128566	5
	51	18	7.944915	355847.6	-491330.3	1	606657.2	-54.08595	1.490212E-010	-0.212866	5
	52	18	6.317385	402414.1	-577053.6	1	703511.2	-55.10963	9.345819E-011	-0.2128491	5
	53	19	5.008013	459999.4	-678592.5	1	819809.3	-55.86772	1.560522E-010	-0.212844	5
	54	20	3.945707	532092.8	-800557.1	1	961257	-56.38988	1.713639E-010	-0.2128475	5
	55	21	3.158693	613891.1	-931244.8	1	1115383	-56.60651	7.301284E-011	-0.2128394	4
	56	22	2.504006	716843.1	-1087783	1	1302742	-56.61533	-1.888287E-011	-0.2128564	4
	57	23	1.998082	833870.4	-1256805	1	1508277	-56.43634	5.130458E-011	-0.2128355	4
	58	25	1.584686	980837	-1459926	1	1758814	-56.10522	6.676772E-011	-0.2128075	4
	59	27	1.266892	1143372	-1678693	1	2031086	-55.74089	4.710309E-011	-0.2128356	4
	60	29	0.999041	1350569	-1936041	1	2360570	-55.10064	4.038619E-011	-0.2128637	4
