EXPLAIN
TAG	EISPOT
TITLE	LABEL	Potentiostatic EIS	Test &Identifier
DATE	LABEL	5/26/2020	Date
TIME	LABEL	17:47:19	Time
NOTES	NOTES	1	&Notes...
	
PSTAT	PSTAT	REF600-11020	Potentiostat
VDC	POTEN	0.00000E+000	T	DC &Voltage (V)
FREQINIT	QUANT	1.00000E+006	Initial Fre&q. (Hz)
FREQFINAL	QUANT	1.00000E+000	Final Fre&q. (Hz)
PTSPERDEC	QUANT	1.00000E+001	Points/&decade
VAC	QUANT	2.50000E+001	AC &Voltage (mV rms)
AREA	QUANT	5.00000E-004	&Area (cm^2)
CONDIT	TWOPARAM	F	5.00000E+000	0.00000E+000	Conditionin&g	Time(s)	E(V)
DELAY	TWOPARAM	T	3.00000E+000	0.00000E+000	Init. De&lay	Time(s)	Stab.(mV/s)
SPEED	SELECTOR	0	&Optimize for:
ZGUESS	QUANT	1.00000E+003	E&stimated Z (ohms)
OCVCURVE	TABLE	12
	Pt	T	Vf	Vm	Ach	Over
	#	s	V vs. Ref.	V	V	bits
	0	0.258333	1.10296E-001	1.10296E-001	5.59997E-004	...........
	1	0.516667	1.10295E-001	1.10266E-001	5.56897E-004	...........
	2	0.775	1.10292E-001	1.10238E-001	5.57864E-004	...........
	3	1.03333	1.10282E-001	1.10214E-001	5.59964E-004	...........
	4	1.29167	1.10265E-001	1.10193E-001	5.55364E-004	...........
	5	1.55	1.10243E-001	1.10172E-001	5.57297E-004	...........
	6	1.80833	1.10219E-001	1.10153E-001	5.54730E-004	...........
	7	2.06667	1.10196E-001	1.10137E-001	5.56830E-004	...........
	8	2.325	1.10175E-001	1.10124E-001	5.52630E-004	...........
	9	2.58333	1.10156E-001	1.10108E-001	5.55630E-004	...........
	10	2.84167	1.10139E-001	1.10092E-001	5.47964E-004	...........
	11	3.1	1.10124E-001	1.10084E-001	5.52230E-004	...........
EOC	QUANT	0.1101238	Open Circuit (V)
PSTATMODEL	IQUANT	4	Pstat Model
PSTATSECTION	LABEL	REF600-11020	Pstat Section
PSTATSERIALNO	LABEL	11020	Pstat Serial Number
CTRLMODE	IQUANT	1	Control Mode
IESTAB	IQUANT	0	I/E Stability
CASPEED	IQUANT	1	Control Amp Speed
CONVENTION	IQUANT	1	Current Convention
ICHRANGE	IQUANT	2	Ich Range
ICHRANGEMODE	TOGGLE	F	Ich Auto Range
ICHOFFSETENABLE	TOGGLE	T	Ich Offset Enable
ICHOFFSET	QUANT	0	Ich Offset (V)
ICHFILTER	IQUANT	3	Ich Filter
VCHRANGE	IQUANT	2	Vch Range
VCHRANGEMODE	TOGGLE	F	Vch Auto Range
VCHOFFSETENABLE	TOGGLE	T	Vch Offset Enable
VCHOFFSET	QUANT	0	Vch Offset (V)
VCHFILTER	IQUANT	3	Vch Filter
ACHRANGE	IQUANT	2	Ach Range
ACHOFFSETENABLE	TOGGLE	F	Ach Offset Enable
ACHOFFSET	QUANT	0	Ach Offset (V)
ACHFILTER	IQUANT	3	Ach Filter
IERANGELOWERLIMIT	IQUANT	1	I/E Range Lower Limit
IERANGEMODE	TOGGLE	F	I/E AutoRange
IERANGE	IQUANT	8	I/E Range
POSFEEDENABLE	TOGGLE	F	Positive Feedback IR Comp
POSFEEDRESISTANCE	QUANT	0	Positive Feedback Resistance (ohm)
ACHSELECT	IQUANT	0	Ach Select
CABLEID	IQUANT	14	Cable ID
DCCALDATE	LABEL	2/27/2020	DC Calibration Date
ACCALDATE	LABEL	2/27/2020	AC Calibration Date
THERMOSELECT	IQUANT	1	Thermo Select
FRAMEWORKVERSION	QUANT	6.33	Framework Version
INSTRUMENTVERSION	LABEL	3.50	Instrument Version
ZCURVE	TABLE
	Pt	Time	Freq	Zreal	Zimag	Zsig	Zmod	Zphz	Idc	Vdc	IERange
	#	s	Hz	ohm	ohm	V	ohm	°	A	V	#
	0	1	1000078	2055.974	-2365.727	1	3134.277	-49.00719	6.5481E-008	0.1123186	8
	1	1	794390.6	2507.343	-2567.998	1	3589.065	-45.6847	5.170595E-008	0.1120025	8
	2	2	630984.4	3008.844	-2714.187	1	4052.154	-42.05266	6.883279E-008	0.1118418	8
	3	2	501234.4	3539.129	-2791.032	1	4507.249	-38.26006	5.874105E-008	0.1117535	8
	4	2	398109.4	4069.589	-2786.664	1	4932.246	-34.40152	6.10266E-008	0.1116973	8
	5	3	316265.6	4574.844	-2724.045	1	5324.437	-30.77126	6.509177E-008	0.1116655	8
	6	3	251203.1	5040.026	-2610.082	1	5675.772	-27.37831	4.803425E-008	0.1116389	8
	7	3	199546.9	5448.406	-2477.797	1	5985.366	-24.45483	6.600335E-008	0.111667	8
	8	3	158578.1	5807.596	-2332.088	1	6258.338	-21.87833	5.98702E-008	0.1116422	8
	9	4	125953.1	6181.321	-2111.204	1	6531.915	-18.85739	3.066301E-009	0.111596	7
	10	4	100078.1	6424.024	-2006.905	1	6730.212	-17.34913	3.981914E-009	0.1115742	7
	11	5	79453.13	6667.131	-1938.828	1	6943.32	-16.21464	4.614656E-009	0.1115662	7
	12	5	63140.62	6888.543	-1895.05	1	7144.455	-15.38167	3.801886E-009	0.1115616	7
	13	5	50203.12	7101.922	-1881.454	1	7346.915	-14.83804	4.323835E-009	0.1115629	7
	14	6	39890.62	7309.586	-1895.548	1	7551.367	-14.53791	4.053625E-009	0.111562	7
	15	6	31640.63	7520.784	-1943.299	1	7767.793	-14.4878	3.955819E-009	0.1115582	7
	16	6	25171.88	7732.688	-2019.826	1	7992.131	-14.63893	3.948783E-009	0.1115517	7
	17	7	20015.62	7954.571	-2129.63	1	8234.715	-14.98796	3.357296E-009	0.1115419	7
	18	7	15890.62	8190.544	-2275.21	1	8500.683	-15.52449	3.513878E-009	0.1115411	7
	19	7	12609.37	8446.027	-2459.442	1	8796.831	-16.2353	3.710323E-009	0.1115481	7
	20	8	10078.13	8765.122	-2579.578	1	9136.826	-16.39917	4.647316E-010	0.1116033	6
	21	8	8015.625	9053.226	-2859.784	1	9494.17	-17.53058	7.400847E-010	0.1116006	6
	22	8	6328.125	9385.601	-3195.302	1	9914.61	-18.801	3.572106E-010	0.111603	6
	23	9	5015.625	9752	-3579.218	1	10388.09	-20.15434	4.983223E-010	0.1115974	6
	24	9	3984.375	10159.02	-4017.359	1	10924.5	-21.5762	2.806446E-010	0.1115973	6
	25	9	3170.956	10603.01	-4515.696	1	11524.55	-23.06859	5.536414E-010	0.1115994	6
	26	9	2527.573	11104.62	-5085.373	1	12213.67	-24.60546	3.414271E-010	0.1115937	6
	27	10	1976.103	11716.02	-5796.439	1	13071.49	-26.32367	2.551615E-010	0.1115839	6
	28	10	1577.524	12341.82	-6546.016	1	13970.35	-27.94118	2.850103E-010	0.111584	6
	29	10	1265.625	13033.87	-7385.071	1	14980.69	-29.53616	2.242159E-010	0.1115923	6
	30	11	998.264	13872.74	-8425.155	1	16230.71	-31.27104	4.017194E-010	0.1115934	6
	31	11	796.875	14772.94	-9552.15	1	17592.13	-32.88661	2.103083E-010	0.1115901	6
	32	11	627.7902	15851.57	-10921.85	1	19249.91	-34.56713	3.152479E-010	0.1115967	6
	33	12	505.5147	16955.75	-12346.84	1	20974.8	-36.06137	3.315635E-010	0.111589	6
	34	12	397.9953	18321.93	-14137.95	1	23142.49	-37.65524	5.576613E-010	0.1116102	6
	35	12	315.5048	19799.47	-16138.25	1	25543.34	-39.18296	5.516823E-010	0.111608	6
	36	13	252.4038	21360.29	-18350.07	1	28160.02	-40.66502	4.913358E-010	0.1116071	6
	37	13	198.6229	23191.17	-21112.5	1	31361.88	-42.31372	4.749277E-010	0.11161	6
	38	13	158.3615	25067.58	-24185.84	1	34833.01	-43.9744	5.040346E-010	0.1116122	6
	39	14	125.558	27140.75	-27925.82	1	38941.9	-45.8168	5.250399E-010	0.1116087	6
	40	14	100.4464	29292.53	-32232.88	1	43554.69	-47.73613	5.605066E-010	0.1116031	6
	41	14	79.00281	31809.56	-37856.93	1	49446.89	-49.9611	4.810994E-010	0.1116059	6
	42	15	63.3446	34366.94	-44170.26	1	55965.15	-52.11509	4.611933E-010	0.111599	6
	43	15	49.86702	37479.42	-52551.31	1	64547.25	-54.50366	4.336911E-010	0.111601	6
	44	15	39.72458	40908.49	-62356.75	1	74577.94	-56.73354	5.272736E-010	0.1116084	6
	45	16	31.6723	44993.68	-74304.92	1	86865.72	-58.80394	3.067687E-010	0.1116057	6
	46	16	24.93351	50323.55	-89778.27	1	102920.3	-60.728	1.785067E-010	0.1115974	6
	47	16	19.86229	56677.49	-107614.1	1	121627	-62.22541	2.209187E-010	0.111611	5
	48	17	15.83615	64794.01	-129107	1	144453.7	-63.34962	-6.118513E-010	0.1116072	5
	49	17	12.40079	76190.52	-156959.9	1	174474.7	-64.10741	-7.30553E-010	0.1116153	5
	50	17	9.93114	89647.61	-186800.4	1	207198.2	-64.36313	-8.00765E-010	0.1116057	5
	51	17	7.944915	106690.4	-221929.1	1	246242.5	-64.3245	-2.503686E-010	0.1116094	5
	52	18	6.317385	129128.4	-263407.9	1	293356.2	-63.88488	-8.516832E-011	0.1116095	5
	53	19	5.008013	157893.3	-311475.2	1	349209.3	-63.11859	-2.703369E-010	0.1115952	5
	54	20	3.945707	194970.9	-367376	1	415907.2	-62.04457	-1.346312E-010	0.1116044	5
	55	20	3.158693	236339.8	-425252.2	1	486514.1	-60.93628	-1.565603E-010	0.1115874	5
	56	22	2.504006	288646.7	-491963	1	570389.8	-59.59881	1.192001E-010	0.1115921	5
	57	23	1.998082	346326.8	-562770.8	1	660797.4	-58.39204	9.757293E-011	0.1116014	5
	58	24	1.584686	417747.2	-642290.6	1	766191.8	-56.95993	-3.104683E-012	0.1115539	5
	59	26	1.266892	494947.6	-728958.7	1	881109.5	-55.82432	-2.96865E-011	0.1115502	5
	60	29	0.999041	587637.3	-829996.1	1	1016962	-54.70151	-8.686704E-011	0.111567	4
