EXPLAIN
TAG	EISPOT
TITLE	LABEL	Potentiostatic EIS	Test &Identifier
DATE	LABEL	6/19/2020	Date
TIME	LABEL	17:10:42	Time
NOTES	NOTES	1	&Notes...
	
PSTAT	PSTAT	REF600-10037	Potentiostat
VDC	POTEN	0.00000E+000	T	DC &Voltage (V)
FREQINIT	QUANT	1.00000E+006	Initial Fre&q. (Hz)
FREQFINAL	QUANT	1.00000E+000	Final Fre&q. (Hz)
PTSPERDEC	QUANT	1.00000E+001	Points/&decade
VAC	QUANT	1.00000E+002	AC &Voltage (mV rms)
AREA	QUANT	2.50000E-001	&Area (cm^2)
CONDIT	TWOPARAM	F	5.00000E+000	0.00000E+000	Conditionin&g	Time(s)	E(V)
DELAY	TWOPARAM	F	5.00000E+000	0.00000E+000	Init. De&lay	Time(s)	Stab.(mV/s)
SPEED	SELECTOR	0	&Optimize for:
ZGUESS	QUANT	1.00000E+003	E&stimated Z (ohms)
OCVCURVE	TABLE	39
	Pt	T	Vf	Vm	Ach	Over
	#	s	V vs. Ref.	V	V	bits
	0	0.258333	4.94416E-002	4.94416E-002	5.29054E-004	...........
	1	0.516667	4.94425E-002	4.94898E-002	5.28754E-004	...........
	2	0.775	4.94480E-002	4.95278E-002	5.28654E-004	...........
	3	1.03333	4.94632E-002	4.95704E-002	5.32154E-004	...........
	4	1.29167	4.94900E-002	4.96096E-002	5.31387E-004	...........
	5	1.55	4.95254E-002	4.96536E-002	5.33187E-004	...........
	6	1.80833	4.95653E-002	4.96875E-002	5.36954E-004	...........
	7	2.06667	4.96062E-002	4.97264E-002	5.35854E-004	...........
	8	2.325	4.96464E-002	4.97623E-002	5.31421E-004	...........
	9	2.58333	4.96852E-002	4.98036E-002	5.31321E-004	...........
	10	2.84167	4.97232E-002	4.98393E-002	5.33221E-004	...........
	11	3.1	4.97613E-002	4.98848E-002	5.33554E-004	...........
	12	3.35833	4.97997E-002	4.99143E-002	5.30387E-004	...........
	13	3.61667	4.98384E-002	4.99559E-002	5.32587E-004	...........
	14	3.875	4.98767E-002	4.99902E-002	5.27087E-004	...........
	15	4.13333	4.99140E-002	5.00116E-002	5.31887E-004	...........
	16	4.39167	4.99496E-002	5.00565E-002	5.33821E-004	...........
	17	4.65	4.99834E-002	5.00787E-002	5.29954E-004	...........
	18	4.90833	5.00163E-002	5.01317E-002	5.29221E-004	...........
	19	5.16667	5.00498E-002	5.01517E-002	5.28687E-004	...........
	20	5.425	5.00841E-002	5.01791E-002	5.31154E-004	...........
	21	5.68333	5.01178E-002	5.02188E-002	5.30221E-004	...........
	22	5.94167	5.01499E-002	5.02389E-002	5.30687E-004	...........
	23	6.2	5.01809E-002	5.02825E-002	5.25354E-004	...........
	24	6.45833	5.02118E-002	5.03049E-002	5.24421E-004	...........
	25	6.71667	5.02427E-002	5.03290E-002	5.26354E-004	...........
	26	6.975	5.02732E-002	5.03741E-002	5.29421E-004	...........
	27	7.23333	5.03033E-002	5.03934E-002	5.28154E-004	...........
	28	7.49167	5.03333E-002	5.04141E-002	5.31754E-004	...........
	29	7.75	5.03628E-002	5.04580E-002	5.28654E-004	...........
	30	8.00833	5.03914E-002	5.04788E-002	5.29887E-004	...........
	31	8.26667	5.04201E-002	5.05087E-002	5.22588E-004	...........
	32	8.525	5.04491E-002	5.05367E-002	5.29954E-004	...........
	33	8.78333	5.04778E-002	5.05592E-002	5.25821E-004	...........
	34	9.04167	5.05057E-002	5.05912E-002	5.27821E-004	...........
	35	9.3	5.05331E-002	5.06205E-002	5.26254E-004	...........
	36	9.5583	5.05605E-002	5.06426E-002	5.23987E-004	...........
	37	9.8167	5.05882E-002	5.06732E-002	5.27787E-004	...........
	38	10.075	5.06157E-002	5.06972E-002	5.29121E-004	...........
EOC	QUANT	0.0506157	Open Circuit (V)
PSTATMODEL	IQUANT	4	Pstat Model
PSTATSECTION	LABEL	REF600-10037	Pstat Section
PSTATSERIALNO	LABEL	10037	Pstat Serial Number
CTRLMODE	IQUANT	1	Control Mode
IESTAB	IQUANT	0	I/E Stability
CASPEED	IQUANT	1	Control Amp Speed
CONVENTION	IQUANT	1	Current Convention
ICHRANGE	IQUANT	2	Ich Range
ICHRANGEMODE	TOGGLE	F	Ich Auto Range
ICHOFFSETENABLE	TOGGLE	T	Ich Offset Enable
ICHOFFSET	QUANT	0	Ich Offset (V)
ICHFILTER	IQUANT	3	Ich Filter
VCHRANGE	IQUANT	2	Vch Range
VCHRANGEMODE	TOGGLE	F	Vch Auto Range
VCHOFFSETENABLE	TOGGLE	T	Vch Offset Enable
VCHOFFSET	QUANT	0	Vch Offset (V)
VCHFILTER	IQUANT	3	Vch Filter
ACHRANGE	IQUANT	2	Ach Range
ACHOFFSETENABLE	TOGGLE	F	Ach Offset Enable
ACHOFFSET	QUANT	0	Ach Offset (V)
ACHFILTER	IQUANT	3	Ach Filter
IERANGELOWERLIMIT	IQUANT	1	I/E Range Lower Limit
IERANGEMODE	TOGGLE	F	I/E AutoRange
IERANGE	IQUANT	7	I/E Range
POSFEEDENABLE	TOGGLE	F	Positive Feedback IR Comp
POSFEEDRESISTANCE	QUANT	0	Positive Feedback Resistance (ohm)
ACHSELECT	IQUANT	0	Ach Select
CABLEID	IQUANT	14	Cable ID
DCCALDATE	LABEL	6/8/2020	DC Calibration Date
ACCALDATE	LABEL	6/8/2020	AC Calibration Date
THERMOSELECT	IQUANT	1	Thermo Select
FRAMEWORKVERSION	QUANT	6.33	Framework Version
INSTRUMENTVERSION	LABEL	3.50	Instrument Version
ZCURVE	TABLE
	Pt	Time	Freq	Zreal	Zimag	Zsig	Zmod	Zphz	Idc	Vdc	IERange
	#	s	Hz	ohm	ohm	V	ohm	°	A	V	#
	0	2	1000078	1820.669	-2360.096	1	2980.753	-52.35202	7.76111E-008	0.0594675	8
	1	3	794390.6	2190.379	-2655.049	1	3441.954	-50.47784	8.491439E-008	0.0591894	8
	2	3	630984.4	2625.784	-2945.99	1	3946.34	-48.28913	1.07787E-007	0.0590633	8
	3	3	501234.4	3136.647	-3219.571	1	4494.907	-45.74744	5.991559E-008	0.0590435	8
	4	4	398109.4	3718.987	-3465.949	1	5083.667	-42.983	8.035416E-008	0.0589568	8
	5	4	316265.6	4368.751	-3659.063	1	5698.661	-39.94798	1.092182E-007	0.0588961	8
	6	4	251203.1	5067.415	-3772.291	1	6317.347	-36.66478	8.60656E-008	0.0589533	8
	7	4	199546.9	5799.056	-3799.325	1	6932.815	-33.23132	1.014744E-007	0.0589935	8
	8	5	158578.1	6509.569	-3709.133	1	7492.14	-29.67436	8.686283E-008	0.0590389	8
	9	5	125953.1	7324.868	-3456.299	1	8099.363	-25.26066	5.482853E-009	0.0590185	7
	10	5	100078.1	7928.488	-3210.066	1	8553.681	-22.04192	-1.381477E-009	0.0589898	7
	11	6	79453.13	8452.837	-2969.521	1	8959.27	-19.35661	1.294383E-008	0.0589714	7
	12	6	63140.62	8865.035	-2686.18	1	9263.067	-16.85725	1.158744E-008	0.0589563	7
	13	6	50203.12	9227.031	-2424.998	1	9540.37	-14.72516	1.327828E-008	0.0589421	7
	14	7	39890.62	9532.16	-2180.856	1	9778.46	-12.88686	-1.845681E-009	0.0589227	7
	15	7	31640.63	9809.88	-1977.778	1	10007.27	-11.39865	-6.876596E-010	0.0589047	7
	16	7	25171.88	9972.89	-1777.962	1	10130.13	-10.10846	1.163742E-008	0.0589321	7
	17	8	20015.62	10137.63	-1633.664	1	10268.42	-9.154428	1.314391E-008	0.0589286	7
	18	8	15890.62	10287.59	-1531.28	1	10400.93	-8.466163	-6.970235E-010	0.0589209	7
	19	8	12609.37	10414.46	-1469.062	1	10517.57	-8.029156	1.164369E-008	0.05893	7
	20	9	10078.13	10532.29	-1446.872	1	10631.2	-7.822043	2.678345E-009	0.058925	7
	21	9	8015.625	10641.14	-1461.697	1	10741.06	-7.821362	9.000226E-010	0.0589225	7
	22	9	6328.125	10743.11	-1517.695	1	10849.78	-8.041049	1.228597E-008	0.0589269	7
	23	10	5015.625	10857.06	-1624.906	1	10977.99	-8.51191	1.209529E-008	0.0589301	7
	24	10	3984.375	11009.44	-1783.314	1	11152.94	-9.20088	1.180153E-008	0.0589057	7
	25	10	3170.956	11068.9	-1979.421	1	11244.5	-10.13888	7.107111E-009	0.0589222	7
	26	10	2527.573	11180.99	-2247.379	1	11404.62	-11.36501	9.541801E-009	0.0589236	7
	27	11	1976.103	11325.46	-2630.965	1	11627.04	-13.07815	9.183967E-009	0.0589302	7
	28	11	1577.524	11464.1	-3069.378	1	11867.88	-14.98873	2.689288E-009	0.0589244	7
	29	11	1265.625	11608.36	-3599.762	1	12153.69	-17.22871	-1.22373E-009	0.0589208	7
	30	12	998.264	11788.36	-4311.131	1	12551.94	-20.08801	-2.585534E-009	0.0589183	7
	31	12	796.875	11982.42	-5146.775	1	13041	-23.24484	1.283911E-008	0.0589336	7
	32	12	627.7902	12229.79	-6248.521	1	13733.6	-27.06368	-8.769681E-010	0.0589089	7
	33	13	505.5147	12567.17	-7429.857	1	14599.19	-30.59208	1.053726E-008	0.0589102	7
	34	13	397.9953	12814.61	-9087.21	1	15709.6	-35.34156	4.858275E-009	0.0589463	7
	35	13	315.5048	13218.06	-11035.83	1	17219.37	-39.8587	5.814133E-009	0.0589442	7
	36	14	252.4038	13701.35	-13315.36	1	19105.65	-44.18147	4.583492E-009	0.0589369	7
	37	14	198.6229	14364.84	-16302.11	1	21728.03	-48.61464	5.216374E-009	0.0589419	7
	38	14	158.3615	15176.71	-19746.91	1	24905.28	-52.45551	4.891024E-009	0.0589392	7
	39	15	125.558	16253.69	-24039.06	1	29018.25	-55.93593	5.503983E-009	0.0589471	7
	40	15	100.4464	17569.78	-29027.15	1	33930.41	-58.81399	6.145122E-009	0.0589422	7
	41	15	79.00281	19382.33	-35554.69	1	40494.57	-61.40337	5.777544E-009	0.0589405	7
	42	16	63.3446	21496.7	-42591	1	47708.5	-63.21883	9.613039E-010	0.058924	6
	43	16	49.86702	24406.19	-52406.95	1	57811.34	-65.02836	5.195496E-010	0.058935	6
	44	16	39.72458	27975.32	-63410.33	1	69307.2	-66.19392	8.693926E-010	0.0589388	6
	45	17	31.6723	32543.81	-76548.47	1	83179.13	-66.96771	1.945129E-009	0.0589384	6
	46	17	24.93351	38869.68	-93180.14	1	100962.3	-67.35677	-7.133186E-010	0.0589369	6
	47	17	19.86229	46985.86	-112317.9	1	121749.6	-67.299	-4.586918E-009	0.050366	6
	48	18	15.83615	57045.58	-134241.8	1	145859.7	-66.9771	-3.388336E-009	0.0503653	6
	49	18	12.40079	70735.55	-161609.3	1	176411.7	-66.36126	-2.696066E-009	0.0503651	6
	50	18	9.93114	86381.77	-190132.8	1	208835.6	-65.5666	-2.106549E-009	0.0503664	6
	51	19	7.944915	105433.4	-222530	1	246243.3	-64.64868	-1.65751E-009	0.0503629	6
	52	19	6.317385	128753.1	-259942.4	1	290081.8	-63.65014	-8.409192E-010	0.0503665	6
	53	20	5.008013	156328.6	-302913.1	1	340873.9	-62.70246	-6.445726E-010	0.0503661	6
	54	21	3.945707	189074	-353241.3	1	400659.9	-61.84188	-5.249442E-010	0.0503621	6
	55	22	3.158693	223811.7	-406491.9	1	464033.8	-61.16311	-7.970313E-010	0.0503727	5
	56	24	2.504006	266498.8	-471424.4	1	541537.2	-60.52028	-6.857054E-010	0.050367	5
	57	25	1.998082	312690.3	-542898.5	1	626509.4	-60.05959	-5.349222E-010	0.0503697	5
	58	27	1.584686	367900.9	-630171.3	1	729703.3	-59.72315	-4.885105E-010	0.0503689	5
	59	30	1.266892	429526.1	-727695.5	1	845005	-59.44855	-4.034097E-010	0.0503686	5
	60	33	0.999041	505736.9	-848387.2	1	987690	-59.20017	-4.147824E-010	0.0503652	5
