EXPLAIN
TAG	EISPOT
TITLE	LABEL	Potentiostatic EIS	Test &Identifier
DATE	LABEL	1/18/2020	Date
TIME	LABEL	21:43:44	Time
NOTES	NOTES	6	&Notes...
	
	
	
	
	
	
PSTAT	PSTAT	REF600-11020	Potentiostat
VDC	POTEN	0.00000E+000	T	DC &Voltage (V)
FREQINIT	QUANT	1.00000E+006	Initial Fre&q. (Hz)
FREQFINAL	QUANT	1.00000E+000	Final Fre&q. (Hz)
PTSPERDEC	QUANT	1.00000E+001	Points/&decade
VAC	QUANT	2.50000E+001	AC &Voltage (mV rms)
AREA	QUANT	1.00000E-001	&Area (cm^2)
CONDIT	TWOPARAM	F	5.00000E+000	0.00000E+000	Conditionin&g	Time(s)	E(V)
DELAY	TWOPARAM	F	5.00000E+000	0.00000E+000	Init. De&lay	Time(s)	Stab.(mV/s)
SPEED	SELECTOR	0	&Optimize for:
ZGUESS	QUANT	5.00000E+002	E&stimated Z (ohms)
OCVCURVE	TABLE	39
	Pt	T	Vf	Vm	Ach	Over
	#	s	V vs. Ref.	V	V	bits
	0	0.258333	4.21414E-002	4.21414E-002	6.55213E-004	...........
	1	0.516667	4.21398E-002	4.20588E-002	6.58913E-004	...........
	2	0.775	4.21294E-002	4.19450E-002	6.54946E-004	...........
	3	1.03333	4.20971E-002	4.17953E-002	6.54013E-004	...........
	4	1.29167	4.20315E-002	4.16559E-002	6.59113E-004	...........
	5	1.55	4.19323E-002	4.15340E-002	6.59446E-004	...........
	6	1.80833	4.18101E-002	4.14163E-002	6.56046E-004	...........
	7	2.06667	4.16799E-002	4.13091E-002	6.53780E-004	...........
	8	2.325	4.15527E-002	4.12123E-002	6.58713E-004	...........
	9	2.58333	4.14338E-002	4.11157E-002	6.53713E-004	...........
	10	2.84167	4.13239E-002	4.10161E-002	6.53313E-004	...........
	11	3.1	4.12199E-002	4.08682E-002	6.53213E-004	...........
	12	3.35833	4.11101E-002	4.04823E-002	6.54213E-004	...........
	13	3.61667	4.09728E-002	4.04024E-002	6.58513E-004	...........
	14	3.875	4.08033E-002	4.05031E-002	6.55779E-004	...........
	15	4.13333	4.06444E-002	4.07444E-002	6.58313E-004	...........
	16	4.39167	4.05574E-002	4.05885E-002	6.54479E-004	...........
	17	4.65	4.05449E-002	4.02040E-002	6.59579E-004	...........
	18	4.90833	4.05347E-002	4.01571E-002	6.56680E-004	...........
	19	5.16667	4.04620E-002	4.00636E-002	6.55113E-004	...........
	20	5.425	4.03440E-002	4.04417E-002	6.53246E-004	...........
	21	5.68333	4.02551E-002	4.03708E-002	6.55380E-004	...........
	22	5.94167	4.02412E-002	4.02490E-002	6.53580E-004	...........
	23	6.2	4.02689E-002	4.00350E-002	6.56380E-004	...........
	24	6.45833	4.02644E-002	3.97730E-002	6.54813E-004	...........
	25	6.71667	4.01861E-002	3.98263E-002	6.59179E-004	...........
	26	6.975	4.00529E-002	3.96444E-002	6.55446E-004	...........
	27	7.23333	3.99093E-002	3.95117E-002	6.53746E-004	...........
	28	7.49167	3.97808E-002	3.95808E-002	6.54146E-004	...........
	29	7.75	3.96743E-002	3.94616E-002	6.58713E-004	...........
	30	8.00833	3.95920E-002	3.93543E-002	6.57379E-004	...........
	31	8.26667	3.95258E-002	3.94132E-002	6.54779E-004	...........
	32	8.525	3.94687E-002	3.93969E-002	6.55813E-004	...........
	33	8.78333	3.94256E-002	3.93446E-002	6.56913E-004	...........
	34	9.04167	3.93975E-002	3.93067E-002	6.50713E-004	...........
	35	9.3	3.93731E-002	3.92383E-002	6.53113E-004	...........
	36	9.5583	3.93424E-002	3.92468E-002	6.55146E-004	...........
	37	9.8167	3.93054E-002	3.91892E-002	6.54446E-004	...........
	38	10.075	3.92672E-002	3.91319E-002	6.51313E-004	...........
EOC	QUANT	0.0392672	Open Circuit (V)
PSTATMODEL	IQUANT	4	Pstat Model
PSTATSECTION	LABEL	REF600-11020	Pstat Section
PSTATSERIALNO	LABEL	11020	Pstat Serial Number
CTRLMODE	IQUANT	1	Control Mode
IESTAB	IQUANT	0	I/E Stability
CASPEED	IQUANT	1	Control Amp Speed
CONVENTION	IQUANT	1	Current Convention
ICHRANGE	IQUANT	2	Ich Range
ICHRANGEMODE	TOGGLE	F	Ich Auto Range
ICHOFFSETENABLE	TOGGLE	T	Ich Offset Enable
ICHOFFSET	QUANT	0	Ich Offset (V)
ICHFILTER	IQUANT	3	Ich Filter
VCHRANGE	IQUANT	2	Vch Range
VCHRANGEMODE	TOGGLE	F	Vch Auto Range
VCHOFFSETENABLE	TOGGLE	T	Vch Offset Enable
VCHOFFSET	QUANT	0	Vch Offset (V)
VCHFILTER	IQUANT	3	Vch Filter
ACHRANGE	IQUANT	2	Ach Range
ACHOFFSETENABLE	TOGGLE	F	Ach Offset Enable
ACHOFFSET	QUANT	0	Ach Offset (V)
ACHFILTER	IQUANT	3	Ach Filter
IERANGELOWERLIMIT	IQUANT	1	I/E Range Lower Limit
IERANGEMODE	TOGGLE	F	I/E AutoRange
IERANGE	IQUANT	8	I/E Range
POSFEEDENABLE	TOGGLE	F	Positive Feedback IR Comp
POSFEEDRESISTANCE	QUANT	0	Positive Feedback Resistance (ohm)
ACHSELECT	IQUANT	0	Ach Select
CABLEID	IQUANT	14	Cable ID
DCCALDATE	LABEL	12/22/2019	DC Calibration Date
ACCALDATE	LABEL	12/22/2019	AC Calibration Date
THERMOSELECT	IQUANT	1	Thermo Select
FRAMEWORKVERSION	QUANT	6.33	Framework Version
INSTRUMENTVERSION	LABEL	3.50	Instrument Version
ZCURVE	TABLE
	Pt	Time	Freq	Zreal	Zimag	Zsig	Zmod	Zphz	Idc	Vdc	IERange
	#	s	Hz	ohm	ohm	V	ohm	°	A	V	#
	0	1	1000078	2335.368	-1649.957	1	2859.424	-35.24153	1.604505E-006	0.041361	8
	1	1	794390.6	2657.828	-1617.761	1	3111.462	-31.32795	-7.542504E-007	0.0412619	8
	2	2	630984.4	2951.206	-1526.391	1	3322.572	-27.34843	-1.301495E-006	0.0413357	8
	3	2	501234.4	3213.706	-1408.973	1	3509.004	-23.6739	-2.695834E-007	0.040967	8
	4	2	398109.4	3433.366	-1272.26	1	3661.509	-20.33258	-1.331799E-006	0.0412787	8
	5	3	316265.6	3610.541	-1132.84	1	3784.09	-17.41972	5.667338E-007	0.0407823	8
	6	3	251203.1	3752.821	-1013.164	1	3887.179	-15.10818	2.921474E-008	0.0408777	8
	7	3	199546.9	3871.409	-904.8463	1	3975.746	-13.15532	-1.673847E-007	0.0408817	8
	8	4	158578.1	3966.209	-808.6606	1	4047.808	-11.52394	-1.228315E-006	0.0412041	8
	9	4	125953.1	4058.476	-706.3628	1	4119.487	-9.87322	-1.429585E-007	0.0409231	7
	10	4	100078.1	4112.416	-644.8646	1	4162.669	-8.911931	7.073858E-008	0.0407121	7
	11	4	79453.13	4173.05	-611.2399	1	4217.577	-8.333039	-2.693879E-008	0.0408241	7
	12	5	63140.62	4228.85	-590.4777	1	4269.875	-7.948862	-3.082834E-008	0.0408677	7
	13	5	50203.12	4282.546	-583.0844	1	4322.059	-7.753355	4.501634E-008	0.0408053	7
	14	5	39890.62	4335.251	-589.2636	1	4375.116	-7.740421	-3.444602E-008	0.0408343	7
	15	6	31640.63	4389.342	-608.5677	1	4431.33	-7.893547	2.238981E-008	0.0408371	7
	16	6	25171.88	4444.87	-642.8642	1	4491.118	-8.229657	-3.664478E-008	0.0408559	7
	17	6	20015.62	4505.05	-691.2113	1	4557.768	-8.722886	1.62343E-008	0.0407961	7
	18	7	15890.62	4569.807	-754.7331	1	4631.712	-9.378112	7.777395E-008	0.0407215	7
	19	7	12609.37	4641.243	-836.4617	1	4716.016	-10.21638	7.810993E-008	0.0407192	7
	20	7	10078.13	4714.76	-933.1882	1	4806.225	-11.1958	-1.152418E-008	0.0408907	7
	21	8	8015.625	4799.873	-1055.426	1	4914.54	-12.4012	2.640129E-008	0.0407657	7
	22	8	6328.125	4897.501	-1207.411	1	5044.141	-13.8493	7.267169E-008	0.0406879	7
	23	8	5015.625	5004.353	-1387.767	1	5193.212	-15.49934	-3.160348E-008	0.0408354	7
	24	9	3984.375	5124.08	-1602.073	1	5368.69	-17.36215	4.333956E-008	0.0407961	7
	25	9	3170.956	5257.64	-1854.959	1	5575.271	-19.43346	-3.213009E-008	0.0408306	7
	26	9	2527.573	5407.801	-2156.35	1	5821.869	-21.73954	4.297545E-008	0.0407933	7
	27	10	1976.103	5592.15	-2546.855	1	6144.804	-24.48613	-1.468239E-008	0.0407814	7
	28	10	1577.524	5783.2	-2982.793	1	6507.108	-27.28326	-1.923063E-008	0.0408773	7
	29	10	1265.625	5996.466	-3482.62	1	6934.425	-30.14711	2.371053E-008	0.0408303	7
	30	11	998.264	6257.918	-4136.696	1	7501.586	-33.46606	-2.917169E-008	0.040851	7
	31	11	796.875	6547.679	-4878.699	1	8165.403	-36.68993	-1.581314E-008	0.0407776	7
	32	11	627.7902	6897.822	-5837.483	1	9036.379	-40.24054	-2.780451E-008	0.0408329	7
	33	11	505.5147	7277.328	-6882.432	1	10016.36	-43.40252	-2.799258E-009	0.0407773	6
	34	12	397.9953	7758.26	-8270.615	1	11339.92	-46.83081	6.544577E-010	0.0408075	6
	35	12	315.5048	8317.239	-9910.77	1	12938.31	-49.9962	1.1153E-009	0.0408096	6
	36	12	252.4038	8957.739	-11810.95	1	14823.62	-52.82236	9.281358E-010	0.0408092	6
	37	13	198.6229	9783.39	-14278.67	1	17308.81	-55.58204	8.712899E-010	0.0408162	6
	38	13	158.3615	10734.8	-17105.43	1	20194.84	-57.88899	5.91959E-010	0.0408105	6
	39	13	125.558	11933.19	-20604.41	1	23810.56	-59.92242	6.28941E-010	0.0408095	6
	40	14	100.4464	13369.82	-24660.05	1	28051.21	-61.535	1.011438E-009	0.0408067	6
	41	14	79.00281	15259.64	-29905.83	1	33574.02	-62.96676	1.078222E-009	0.0408041	6
	42	14	63.3446	17702.45	-35549.07	1	39712.88	-63.52797	4.785142E-010	0.0408041	6
	43	15	49.86702	20797.42	-43050.39	1	47810.76	-64.21505	-6.670781E-011	0.0408033	6
	44	15	39.72458	24402.59	-51388.54	1	56888.21	-64.59862	5.329909E-010	0.0408033	6
	45	15	31.6723	29026.8	-61135	1	67676.02	-64.60171	5.609507E-010	0.0407978	6
	46	16	24.93351	35396.33	-73022.41	1	81149.08	-64.13903	1.051936E-011	0.0408008	6
	47	16	19.86229	42789	-86007.84	1	96063.8	-63.5496	-8.665622E-010	0.0407972	6
	48	16	15.83615	51200.17	-100606.3	1	112885.3	-63.02773	1.283094E-010	0.0407968	5
	49	17	12.40079	63995.47	-119515.6	1	135570.7	-61.83287	-2.938977E-010	0.0408026	5
	50	17	9.93114	76915.85	-138104.7	1	158079	-60.88488	-4.960544E-010	0.0407924	5
	51	17	7.944915	92166.27	-158619.7	1	183452.5	-59.84119	2.022438E-009	0.0407954	5
	52	18	6.317385	112703.1	-182996.8	1	214918.2	-58.37213	-1.54751E-010	0.0408144	5
	53	19	5.008013	136296.7	-209674.5	1	250080.4	-56.97454	-1.47175E-010	0.0407933	5
	54	20	3.945707	165180.6	-239197.9	1	290689.3	-55.37258	5.369745E-010	0.040794	5
	55	21	3.158693	194866.1	-268588.6	1	331832.2	-54.03839	4.034619E-010	0.0408108	5
	56	22	2.504006	230938.2	-301666.9	1	379915	-52.56448	3.871255E-011	0.0407971	5
	57	24	1.998082	269616.5	-335261.7	1	430224.9	-51.19386	3.773129E-010	0.0408027	5
	58	25	1.584686	310663	-373249.3	1	485619.8	-50.2287	4.134101E-010	0.0408407	5
	59	27	1.266892	353597.1	-414902.3	1	545137.5	-49.56098	4.2291E-010	0.0408292	5
	60	30	0.999041	401413.8	-464736.3	1	614095.1	-49.18134	4.127642E-010	0.04081	5
