EXPLAIN
TAG	EISPOT
TITLE	LABEL	Potentiostatic EIS	Test &Identifier
DATE	LABEL	2/21/2020	Date
TIME	LABEL	15:25:46	Time
NOTES	NOTES	1	&Notes...
	
PSTAT	PSTAT	REF600-11020	Potentiostat
VDC	POTEN	0.00000E+000	T	DC &Voltage (V)
FREQINIT	QUANT	1.00000E+006	Initial Fre&q. (Hz)
FREQFINAL	QUANT	1.00000E+000	Final Fre&q. (Hz)
PTSPERDEC	QUANT	1.00000E+001	Points/&decade
VAC	QUANT	2.50000E+001	AC &Voltage (mV rms)
AREA	QUANT	2.08200E-005	&Area (cm^2)
CONDIT	TWOPARAM	F	1.50000E+001	0.00000E+000	Conditionin&g	Time(s)	E(V)
DELAY	TWOPARAM	F	1.00000E+002	0.00000E+000	Init. De&lay	Time(s)	Stab.(mV/s)
SPEED	SELECTOR	1	&Optimize for:
ZGUESS	QUANT	2.00000E+003	E&stimated Z (ohms)
OCVCURVE	TABLE	39
	Pt	T	Vf	Vm	Ach	Over
	#	s	V vs. Ref.	V	V	bits
	0	0.258333	5.43606E-002	5.43606E-002	5.63571E-004	...........
	1	0.516667	5.43612E-002	5.43891E-002	5.66104E-004	...........
	2	0.775	5.43645E-002	5.44139E-002	5.63904E-004	...........
	3	1.03333	5.43737E-002	5.44392E-002	5.64738E-004	...........
	4	1.29167	5.43901E-002	5.44681E-002	5.62238E-004	...........
	5	1.55	5.44122E-002	5.44880E-002	5.60438E-004	...........
	6	1.80833	5.44370E-002	5.45111E-002	5.61571E-004	...........
	7	2.06667	5.44627E-002	5.45657E-002	5.68604E-004	...........
	8	2.325	5.44899E-002	5.45809E-002	5.64538E-004	...........
	9	2.58333	5.45184E-002	5.45525E-002	5.57804E-004	...........
	10	2.84167	5.45414E-002	5.44783E-002	5.61438E-004	...........
	11	3.1	5.45473E-002	5.44530E-002	5.63638E-004	...........
	12	3.35833	5.45318E-002	5.44737E-002	5.64638E-004	...........
	13	3.61667	5.45059E-002	5.45014E-002	5.62038E-004	...........
	14	3.875	5.44876E-002	5.45375E-002	5.62738E-004	...........
	15	4.13333	5.44874E-002	5.45731E-002	5.64538E-004	...........
	16	4.39167	5.45048E-002	5.45951E-002	5.70504E-004	...........
	17	4.65	5.45324E-002	5.46180E-002	5.64004E-004	...........
	18	4.90833	5.45624E-002	5.46409E-002	5.66304E-004	...........
	19	5.16667	5.45905E-002	5.46612E-002	5.67538E-004	...........
	20	5.425	5.46154E-002	5.46790E-002	5.63571E-004	...........
	21	5.68333	5.46379E-002	5.46995E-002	5.62638E-004	...........
	22	5.94167	5.46586E-002	5.47155E-002	5.61471E-004	...........
	23	6.2	5.46781E-002	5.47374E-002	5.62404E-004	...........
	24	6.45833	5.46972E-002	5.47635E-002	5.67671E-004	...........
	25	6.71667	5.47168E-002	5.47793E-002	5.67938E-004	...........
	26	6.975	5.47371E-002	5.47848E-002	5.70971E-004	...........
	27	7.23333	5.47562E-002	5.48016E-002	5.69838E-004	...........
	28	7.49167	5.47730E-002	5.48215E-002	5.66604E-004	...........
	29	7.75	5.47881E-002	5.48408E-002	5.66471E-004	...........
	30	8.00833	5.48036E-002	5.48571E-002	5.66504E-004	...........
	31	8.26667	5.48205E-002	5.48799E-002	5.66171E-004	...........
	32	8.525	5.48386E-002	5.48981E-002	5.69104E-004	...........
	33	8.78333	5.48576E-002	5.49149E-002	5.62471E-004	...........
	34	9.04167	5.48767E-002	5.49321E-002	5.65638E-004	...........
	35	9.3	5.48954E-002	5.49485E-002	5.65771E-004	...........
	36	9.5583	5.49133E-002	5.49682E-002	5.64938E-004	...........
	37	9.8167	5.49308E-002	5.49807E-002	5.65404E-004	...........
	38	10.075	5.49478E-002	5.49922E-002	5.64938E-004	...........
EOC	QUANT	0.0549478	Open Circuit (V)
PSTATMODEL	IQUANT	4	Pstat Model
PSTATSECTION	LABEL	REF600-11020	Pstat Section
PSTATSERIALNO	LABEL	11020	Pstat Serial Number
CTRLMODE	IQUANT	1	Control Mode
IESTAB	IQUANT	0	I/E Stability
CASPEED	IQUANT	1	Control Amp Speed
CONVENTION	IQUANT	1	Current Convention
ICHRANGE	IQUANT	2	Ich Range
ICHRANGEMODE	TOGGLE	F	Ich Auto Range
ICHOFFSETENABLE	TOGGLE	T	Ich Offset Enable
ICHOFFSET	QUANT	0	Ich Offset (V)
ICHFILTER	IQUANT	3	Ich Filter
VCHRANGE	IQUANT	2	Vch Range
VCHRANGEMODE	TOGGLE	F	Vch Auto Range
VCHOFFSETENABLE	TOGGLE	T	Vch Offset Enable
VCHOFFSET	QUANT	0	Vch Offset (V)
VCHFILTER	IQUANT	3	Vch Filter
ACHRANGE	IQUANT	2	Ach Range
ACHOFFSETENABLE	TOGGLE	F	Ach Offset Enable
ACHOFFSET	QUANT	0	Ach Offset (V)
ACHFILTER	IQUANT	3	Ach Filter
IERANGELOWERLIMIT	IQUANT	1	I/E Range Lower Limit
IERANGEMODE	TOGGLE	F	I/E AutoRange
IERANGE	IQUANT	7	I/E Range
POSFEEDENABLE	TOGGLE	F	Positive Feedback IR Comp
POSFEEDRESISTANCE	QUANT	0	Positive Feedback Resistance (ohm)
ACHSELECT	IQUANT	0	Ach Select
CABLEID	IQUANT	14	Cable ID
DCCALDATE	LABEL	1/27/2020	DC Calibration Date
ACCALDATE	LABEL	1/27/2020	AC Calibration Date
THERMOSELECT	IQUANT	1	Thermo Select
FRAMEWORKVERSION	QUANT	6.33	Framework Version
INSTRUMENTVERSION	LABEL	3.50	Instrument Version
ZCURVE	TABLE
	Pt	Time	Freq	Zreal	Zimag	Zsig	Zmod	Zphz	Idc	Vdc	IERange
	#	s	Hz	ohm	ohm	V	ohm	°	A	V	#
	0	2	1000078	1300.51	-2199.362	1	2555.097	-59.40365	5.84201E-007	0.0572662	8
	1	3	794390.6	1515.895	-2555.707	1	2971.46	-59.32607	-7.459095E-007	0.0570295	8
	2	4	630984.4	1784.178	-2968.914	1	3463.775	-58.99611	-7.256342E-008	0.0569026	8
	3	6	501234.4	2093.996	-3466.723	1	4050.061	-58.86687	-6.005517E-007	0.0567665	8
	4	7	398109.4	2481.39	-4048.953	1	4748.823	-58.49805	4.251813E-007	0.0565621	8
	5	8	316265.6	2985.83	-4696.87	1	5565.588	-57.55563	-2.168929E-007	0.0566661	8
	6	10	251203.1	3576.927	-5441.741	1	6512.062	-56.68256	-8.47385E-008	0.0565741	8
	7	11	199546.9	4310.734	-6249.838	1	7592.292	-55.4046	3.547421E-007	0.0564876	8
	8	12	158578.1	5212.915	-7138.228	1	8839.049	-53.86004	-8.826873E-008	0.0565649	8
	9	14	125953.1	6362.546	-8006.425	1	10226.67	-51.52654	8.998782E-008	0.0563145	7
	10	15	100078.1	7627.664	-8900.111	1	11721.49	-49.40243	-1.096221E-008	0.0565559	7
	11	17	79453.13	9095.434	-9745.61	1	13330.56	-46.97642	-9.587166E-009	0.056538	7
	12	18	63140.62	10719.32	-10515.57	1	15016.02	-44.45026	4.739888E-008	0.0564376	7
	13	19	50203.12	12430.96	-11196.12	1	16729.67	-42.00821	4.08494E-008	0.0564703	7
	14	21	39890.62	14215.24	-11755.4	1	18446.2	-39.5893	6.223471E-010	0.0564912	7
	15	22	31640.63	16062.76	-12328.84	1	20248.77	-37.50774	4.810694E-008	0.0564265	7
	16	23	25171.88	17901.38	-12854.64	1	22038.63	-35.68141	2.277896E-008	0.0565067	7
	17	25	20015.62	19762.46	-13333.89	1	23840.04	-34.00785	3.248171E-009	0.0564614	7
	18	26	15890.62	21685.67	-13958.49	1	25789.68	-32.76831	-7.074173E-009	0.0565336	7
	19	27	12609.37	23697.35	-14521.17	1	27792.6	-31.49898	1.031375E-009	0.0564562	6
	20	29	10078.13	25688.16	-15245.14	1	29871.32	-30.68783	-2.232789E-009	0.0564961	6
	21	30	8015.625	27842.15	-16065.16	1	32144.59	-29.98532	4.834675E-009	0.0564443	6
	22	31	6328.125	30218.88	-16991.72	1	34668.42	-29.34853	-1.776638E-009	0.056497	6
	23	33	5015.625	32758.2	-17977.13	1	37366.79	-28.75721	1.488623E-009	0.0564547	6
	24	34	3984.375	35508.47	-18961.01	1	40253.84	-28.10157	5.805579E-009	0.0563961	6
	25	35	3170.956	38474.62	-19919.16	1	43325.16	-27.37159	8.715147E-010	0.0564577	6
	26	37	2527.573	41644.74	-20740.41	1	46523.64	-26.47477	-9.474717E-010	0.0565402	6
	27	38	1976.103	45291.91	-21490.33	1	50131.73	-25.38363	6.328614E-009	0.0564021	6
	28	40	1577.524	48749.23	-21859.23	1	53425.78	-24.15153	5.259884E-009	0.0564753	6
	29	41	1265.625	52096.34	-22190.8	1	56625.61	-23.07192	3.43465E-009	0.0565023	6
	30	42	998.264	55584.61	-22231.26	1	59865.49	-21.79912	-6.267008E-011	0.0565333	6
	31	44	796.875	58678.81	-22117.21	1	62708.64	-20.65242	5.564198E-009	0.0564429	6
	32	45	627.7902	61697.83	-22132.15	1	65547.34	-19.73384	2.533242E-010	0.0564836	6
	33	46	505.5147	64194.84	-22403.85	1	67991.98	-19.23886	1.90267E-009	0.0565152	6
	34	48	397.9953	66627.72	-22948.45	1	70469.03	-19.00514	2.041002E-009	0.0565074	6
	35	49	315.5048	68907.48	-23958.32	1	72953.7	-19.17196	1.613088E-009	0.0565054	6
	36	50	252.4038	71002.7	-25549.86	1	75459.78	-19.79093	2.026001E-009	0.0565055	6
	37	52	198.6229	73259.22	-27905.2	1	78393.96	-20.85236	1.834356E-009	0.0565015	6
	38	53	158.3615	75652.8	-31057.94	1	81779.84	-22.31975	1.93485E-009	0.0564964	6
	39	55	125.558	78307.17	-35053.8	1	85795	-24.11543	1.62805E-009	0.0564999	6
	40	56	100.4464	81354.55	-40067.2	1	90685.95	-26.22029	1.334775E-009	0.0564971	6
	41	57	79.00281	85037.65	-46456.66	1	96900.1	-28.64809	1.30502E-009	0.0564936	5
	42	59	63.3446	89354.97	-54372.33	1	104597.6	-31.32043	9.760386E-010	0.0564986	5
	43	60	49.86702	93790.77	-61881.39	1	112365.5	-33.41608	4.586606E-010	0.0564928	5
	44	61	39.72458	100499.6	-72086.56	1	123679.6	-35.65119	6.200339E-010	0.0564962	5
	45	63	31.6723	107770.4	-84189.39	1	136756.4	-37.99667	1.070602E-009	0.0564947	5
	46	64	24.93351	117123.3	-98493.3	1	153032	-40.06173	4.72083E-010	0.056497	5
	47	66	19.86229	127492.4	-113899.1	1	170960	-41.77694	1.176032E-009	0.0564989	5
	48	67	15.83615	139703.7	-132270.4	1	192386.5	-43.43444	1.895896E-010	0.0564992	5
	49	68	12.40079	156832.9	-153024.6	1	219118.9	-44.29585	-4.019693E-010	0.0565043	5
	50	70	9.93114	173359.9	-176152.6	1	247150.5	-45.45779	-1.188451E-010	0.0565069	5
	51	71	7.944915	193384.8	-201611	1	279364.8	-46.19307	6.743968E-010	0.0564961	5
	52	73	6.317385	218624	-230087.7	1	317390.7	-46.46347	7.992361E-010	0.0564964	5
	53	75	5.008013	248552.5	-262811.6	1	361729.5	-46.59725	4.215861E-010	0.0565077	5
	54	78	3.945707	283977.4	-298805.5	1	412223.1	-46.45749	-1.009538E-010	0.0564953	5
	55	80	3.158693	321935.4	-334794	1	464466.8	-46.1217	1.812295E-010	0.0564977	5
	56	84	2.504006	366267.1	-375212.9	1	524343.7	-45.69123	-5.238401E-011	0.0565077	5
	57	86	1.998082	412623.8	-417637.8	1	587094.3	-45.346	4.839876E-010	0.0564722	5
	58	89	1.584686	469164.1	-465589.9	1	660975.8	-44.78092	-1.087368E-011	0.0564512	5
	59	93	1.266892	523696.8	-514699.7	1	734284.8	-44.50358	3.492598E-010	0.0564733	5
	60	97	0.999041	588603.9	-574442.6	1	822459	-44.3024	-2.37248E-010	0.0564999	5
