EXPLAIN
TAG	EISPOT
TITLE	LABEL	Potentiostatic EIS	Test &Identifier
DATE	LABEL	3/9/2020	Date
TIME	LABEL	21:03:25	Time
NOTES	NOTES	1	&Notes...
	
PSTAT	PSTAT	REF600-11020	Potentiostat
VDC	POTEN	0.00000E+000	T	DC &Voltage (V)
FREQINIT	QUANT	1.00000E+006	Initial Fre&q. (Hz)
FREQFINAL	QUANT	1.00000E+000	Final Fre&q. (Hz)
PTSPERDEC	QUANT	1.00000E+001	Points/&decade
VAC	QUANT	2.50000E+001	AC &Voltage (mV rms)
AREA	QUANT	4.00000E-005	&Area (cm^2)
CONDIT	TWOPARAM	F	5.00000E+000	0.00000E+000	Conditionin&g	Time(s)	E(V)
DELAY	TWOPARAM	T	3.00000E+000	0.00000E+000	Init. De&lay	Time(s)	Stab.(mV/s)
SPEED	SELECTOR	0	&Optimize for:
ZGUESS	QUANT	1.00000E+003	E&stimated Z (ohms)
OCVCURVE	TABLE	12
	Pt	T	Vf	Vm	Ach	Over
	#	s	V vs. Ref.	V	V	bits
	0	0.258333	4.71551E-002	4.71551E-002	5.62697E-004	...........
	1	0.516667	4.71551E-002	4.71536E-002	5.65964E-004	...........
	2	0.775	4.71550E-002	4.71553E-002	5.64997E-004	...........
	3	1.03333	4.71548E-002	4.71553E-002	5.65230E-004	...........
	4	1.29167	4.71547E-002	4.71539E-002	5.66063E-004	...........
	5	1.55	4.71547E-002	4.71527E-002	5.66363E-004	...........
	6	1.80833	4.71544E-002	4.71493E-002	5.67897E-004	...........
	7	2.06667	4.71535E-002	4.71477E-002	5.69597E-004	...........
	8	2.325	4.71520E-002	4.71453E-002	5.60330E-004	...........
	9	2.58333	4.71500E-002	4.71425E-002	5.65497E-004	...........
	10	2.84167	4.71477E-002	4.71397E-002	5.68230E-004	...........
	11	3.1	4.71453E-002	4.71367E-002	5.72630E-004	...........
EOC	QUANT	0.0471453	Open Circuit (V)
PSTATMODEL	IQUANT	4	Pstat Model
PSTATSECTION	LABEL	REF600-11020	Pstat Section
PSTATSERIALNO	LABEL	11020	Pstat Serial Number
CTRLMODE	IQUANT	1	Control Mode
IESTAB	IQUANT	0	I/E Stability
CASPEED	IQUANT	1	Control Amp Speed
CONVENTION	IQUANT	1	Current Convention
ICHRANGE	IQUANT	2	Ich Range
ICHRANGEMODE	TOGGLE	F	Ich Auto Range
ICHOFFSETENABLE	TOGGLE	T	Ich Offset Enable
ICHOFFSET	QUANT	0	Ich Offset (V)
ICHFILTER	IQUANT	3	Ich Filter
VCHRANGE	IQUANT	2	Vch Range
VCHRANGEMODE	TOGGLE	F	Vch Auto Range
VCHOFFSETENABLE	TOGGLE	T	Vch Offset Enable
VCHOFFSET	QUANT	0	Vch Offset (V)
VCHFILTER	IQUANT	3	Vch Filter
ACHRANGE	IQUANT	2	Ach Range
ACHOFFSETENABLE	TOGGLE	F	Ach Offset Enable
ACHOFFSET	QUANT	0	Ach Offset (V)
ACHFILTER	IQUANT	3	Ach Filter
IERANGELOWERLIMIT	IQUANT	1	I/E Range Lower Limit
IERANGEMODE	TOGGLE	F	I/E AutoRange
IERANGE	IQUANT	7	I/E Range
POSFEEDENABLE	TOGGLE	F	Positive Feedback IR Comp
POSFEEDRESISTANCE	QUANT	0	Positive Feedback Resistance (ohm)
ACHSELECT	IQUANT	0	Ach Select
CABLEID	IQUANT	14	Cable ID
DCCALDATE	LABEL	2/27/2020	DC Calibration Date
ACCALDATE	LABEL	2/27/2020	AC Calibration Date
THERMOSELECT	IQUANT	1	Thermo Select
FRAMEWORKVERSION	QUANT	6.33	Framework Version
INSTRUMENTVERSION	LABEL	3.50	Instrument Version
ZCURVE	TABLE
	Pt	Time	Freq	Zreal	Zimag	Zsig	Zmod	Zphz	Idc	Vdc	IERange
	#	s	Hz	ohm	ohm	V	ohm	°	A	V	#
	0	1	1000078	1469.611	-1562.155	1	2144.781	-46.74839	2.619987E-008	0.0496308	8
	1	2	794390.6	1680.236	-1729.151	1	2411.049	-45.82196	6.276231E-008	0.0492603	8
	2	2	630984.4	1911.506	-1909.896	1	2702.14	-44.97586	3.266921E-008	0.049098	8
	3	2	501234.4	2164.278	-2106.936	1	3020.477	-44.23083	4.121998E-008	0.0490174	8
	4	3	398109.4	2449.204	-2329.757	1	3380.291	-43.56824	7.865905E-008	0.048925	8
	5	3	316265.6	2762.898	-2573.799	1	3775.983	-42.97065	4.297306E-008	0.0489364	8
	6	3	251203.1	3128.519	-2842.586	1	4227.047	-42.25842	2.355247E-008	0.0488909	8
	7	4	199546.9	3540.119	-3141.831	1	4733.238	-41.58883	4.003202E-008	0.0488986	8
	8	4	158578.1	4014.538	-3447.678	1	5291.786	-40.65593	4.362363E-008	0.0489132	8
	9	4	125953.1	4656.681	-3678.725	1	5934.449	-38.30833	-1.185218E-009	0.0488566	7
	10	5	100078.1	5241.089	-3964.583	1	6571.677	-37.10542	1.97164E-009	0.048834	7
	11	5	79453.13	5919.827	-4243.618	1	7283.724	-35.63478	1.599553E-009	0.0488276	7
	12	5	63140.62	6662.28	-4480.925	1	8028.989	-33.92404	3.23151E-009	0.0488317	7
	13	6	50203.12	7450.576	-4642.171	1	8778.43	-31.92547	1.270118E-009	0.0488216	7
	14	6	39890.62	8268.439	-4748.771	1	9535.09	-29.86983	3.140397E-009	0.0488251	7
	15	6	31640.63	9094.081	-4780.047	1	10273.81	-27.72739	3.60561E-009	0.0488274	7
	16	7	25171.88	9892.63	-4743.701	1	10971.18	-25.6186	3.529205E-009	0.0488243	7
	17	7	20015.62	10648.3	-4654.055	1	11620.95	-23.6087	1.873024E-009	0.0488149	7
	18	7	15890.62	11361.43	-4533.705	1	12232.61	-21.75414	1.915848E-009	0.0488138	7
	19	7	12609.37	12163.27	-4223.132	1	12875.56	-19.14718	5.684911E-010	0.0488709	6
	20	8	10078.13	12731.8	-4129.441	1	13384.74	-17.96998	4.236256E-010	0.0488667	6
	21	8	8015.625	13277.54	-4056.653	1	13883.42	-16.98935	2.342191E-010	0.0488632	6
	22	8	6328.125	13808.25	-4015.398	1	14380.24	-16.21427	2.892385E-010	0.0488669	6
	23	9	5015.625	14314.37	-4016.106	1	14867.09	-15.67224	3.708036E-010	0.0488666	6
	24	9	3984.375	14807.3	-4058.822	1	15353.51	-15.3288	1.417045E-010	0.0488554	6
	25	9	3170.956	15304.76	-4146.037	1	15856.39	-15.15755	2.575984E-011	0.0488527	6
	26	10	2527.573	15797.37	-4272.306	1	16364.88	-15.13329	-5.644403E-011	0.0488593	6
	27	10	1976.103	16329.97	-4455.824	1	16926.97	-15.26229	2.373383E-010	0.0488642	6
	28	10	1577.524	16825.05	-4681.232	1	17464.14	-15.54816	2.390553E-010	0.0488577	6
	29	11	1265.625	17312.03	-4959.922	1	18008.53	-15.98709	-9.729162E-013	0.0488509	6
	30	11	998.264	17850.94	-5345.458	1	18634.1	-16.67032	-1.025124E-010	0.0488519	6
	31	11	796.875	18377.26	-5804.494	1	19272.15	-17.52883	1.996131E-011	0.0488533	6
	32	12	627.7902	18966.3	-6418.514	1	20022.93	-18.69668	3.412892E-010	0.0488615	6
	33	12	505.5147	19529.2	-7094.169	1	20777.8	-19.96404	-2.453868E-010	0.0488498	6
	34	12	397.9953	20199.3	-8013.724	1	21730.89	-21.63984	3.718768E-010	0.0488684	6
	35	13	315.5048	20904.7	-9098.711	1	22798.96	-23.52095	2.825747E-010	0.0488672	6
	36	13	252.4038	21620.1	-10355.52	1	23972.18	-25.59332	3.133657E-010	0.0488605	6
	37	13	198.6229	22451.39	-11994.18	1	25454.37	-28.11242	2.037872E-010	0.0488688	6
	38	14	158.3615	23311.65	-13888.8	1	27135.43	-30.78598	1.905997E-010	0.0488642	6
	39	14	125.558	24229.91	-16256.39	1	29178.05	-33.85854	1.83161E-010	0.0488653	6
	40	14	100.4464	25199.19	-19047.97	1	31588.36	-37.0855	2.218553E-010	0.0488608	6
	41	15	79.00281	26335.58	-22763.69	1	34810.18	-40.83915	1.74303E-010	0.0488632	6
	42	15	63.3446	27511.51	-26989.49	1	38539.8	-44.45123	1.949288E-010	0.0488627	6
	43	15	49.86702	29025.64	-32663.51	1	43696.6	-48.37488	7.871434E-012	0.048861	6
	44	16	39.72458	30741.81	-39337.39	1	49924.83	-51.99269	1.041643E-010	0.0488631	6
	45	16	31.6723	32860.81	-47496.59	1	57756.03	-55.32234	1.218217E-010	0.0488594	6
	46	16	24.93351	35697.7	-58083.36	1	68176.26	-58.42536	-1.695133E-010	0.048855	6
	47	17	19.86229	39177.04	-70366.26	1	80537.27	-60.89273	3.852033E-011	0.0488607	6
	48	17	15.83615	43673.7	-85188.7	1	95731.4	-62.85714	-6.550837E-010	0.0488563	6
	49	17	12.40079	49941.52	-104456.1	1	115780.9	-64.44706	-8.841994E-010	0.0488667	5
	50	17	9.93114	57356.17	-125480.7	1	137967.9	-65.43526	-1.05554E-009	0.0488674	5
	51	18	7.944915	66587.08	-150531	1	164600.8	-66.13789	-7.331367E-010	0.0488675	5
	52	18	6.317385	78929.97	-180828.8	1	197304.3	-66.4192	8.146744E-011	0.0488509	5
	53	19	5.008013	94890.87	-217173.4	1	236999	-66.39775	-8.643112E-012	0.0488604	5
	54	20	3.945707	115387	-260934.9	1	285308.9	-66.14469	-2.679249E-010	0.0488564	5
	55	21	3.158693	139611.3	-307867.3	1	338043.7	-65.60671	3.029361E-011	0.048845	5
	56	22	2.504006	170409.5	-364659.8	1	402512.3	-64.9528	2.069706E-010	0.0488527	5
	57	23	1.998082	206841.5	-426532.5	1	474039.5	-64.12952	-9.480526E-012	0.0488232	5
	58	25	1.584686	251479.6	-501033.7	1	560603.9	-63.34694	-3.569805E-011	0.0488071	5
	59	27	1.266892	301280.6	-580967.7	1	654441.3	-62.58947	2.451009E-011	0.0488361	5
	60	29	0.999041	364193.8	-676782.1	1	768551.3	-61.71416	5.629942E-011	0.0488688	5
