EXPLAIN
TAG	EISPOT
TITLE	LABEL	Potentiostatic EIS	Test &Identifier
DATE	LABEL	3/19/2020	Date
TIME	LABEL	21:02:07	Time
NOTES	NOTES	1	&Notes...
	
PSTAT	PSTAT	REF600-11020	Potentiostat
VDC	POTEN	0.00000E+000	T	DC &Voltage (V)
FREQINIT	QUANT	1.00000E+006	Initial Fre&q. (Hz)
FREQFINAL	QUANT	1.00000E+000	Final Fre&q. (Hz)
PTSPERDEC	QUANT	1.00000E+001	Points/&decade
VAC	QUANT	2.50000E+001	AC &Voltage (mV rms)
AREA	QUANT	4.00000E-004	&Area (cm^2)
CONDIT	TWOPARAM	F	5.00000E+000	0.00000E+000	Conditionin&g	Time(s)	E(V)
DELAY	TWOPARAM	T	3.00000E+000	0.00000E+000	Init. De&lay	Time(s)	Stab.(mV/s)
SPEED	SELECTOR	0	&Optimize for:
ZGUESS	QUANT	1.00000E+003	E&stimated Z (ohms)
OCVCURVE	TABLE	12
	Pt	T	Vf	Vm	Ach	Over
	#	s	V vs. Ref.	V	V	bits
	0	0.258333	6.97179E-002	6.97179E-002	5.73063E-004	...........
	1	0.516667	6.97174E-002	6.96915E-002	5.68463E-004	...........
	2	0.775	6.97145E-002	6.96790E-002	5.73430E-004	...........
	3	1.03333	6.97068E-002	6.96417E-002	5.68130E-004	...........
	4	1.29167	6.96922E-002	6.95996E-002	5.68997E-004	...........
	5	1.55	6.96698E-002	6.95692E-002	5.71263E-004	...........
	6	1.80833	6.96406E-002	6.95421E-002	5.67030E-004	...........
	7	2.06667	6.96077E-002	6.94998E-002	5.72730E-004	...........
	8	2.325	6.95735E-002	6.94533E-002	5.67330E-004	...........
	9	2.58333	6.95379E-002	6.94171E-002	5.68697E-004	...........
	10	2.84167	6.94998E-002	6.93747E-002	5.69530E-004	...........
	11	3.1	6.94600E-002	6.93384E-002	5.72030E-004	...........
EOC	QUANT	0.06946	Open Circuit (V)
PSTATMODEL	IQUANT	4	Pstat Model
PSTATSECTION	LABEL	REF600-11020	Pstat Section
PSTATSERIALNO	LABEL	11020	Pstat Serial Number
CTRLMODE	IQUANT	1	Control Mode
IESTAB	IQUANT	0	I/E Stability
CASPEED	IQUANT	1	Control Amp Speed
CONVENTION	IQUANT	1	Current Convention
ICHRANGE	IQUANT	2	Ich Range
ICHRANGEMODE	TOGGLE	F	Ich Auto Range
ICHOFFSETENABLE	TOGGLE	T	Ich Offset Enable
ICHOFFSET	QUANT	0	Ich Offset (V)
ICHFILTER	IQUANT	3	Ich Filter
VCHRANGE	IQUANT	2	Vch Range
VCHRANGEMODE	TOGGLE	F	Vch Auto Range
VCHOFFSETENABLE	TOGGLE	T	Vch Offset Enable
VCHOFFSET	QUANT	0	Vch Offset (V)
VCHFILTER	IQUANT	3	Vch Filter
ACHRANGE	IQUANT	2	Ach Range
ACHOFFSETENABLE	TOGGLE	F	Ach Offset Enable
ACHOFFSET	QUANT	0	Ach Offset (V)
ACHFILTER	IQUANT	3	Ach Filter
IERANGELOWERLIMIT	IQUANT	1	I/E Range Lower Limit
IERANGEMODE	TOGGLE	F	I/E AutoRange
IERANGE	IQUANT	8	I/E Range
POSFEEDENABLE	TOGGLE	F	Positive Feedback IR Comp
POSFEEDRESISTANCE	QUANT	0	Positive Feedback Resistance (ohm)
ACHSELECT	IQUANT	0	Ach Select
CABLEID	IQUANT	14	Cable ID
DCCALDATE	LABEL	2/27/2020	DC Calibration Date
ACCALDATE	LABEL	2/27/2020	AC Calibration Date
THERMOSELECT	IQUANT	1	Thermo Select
FRAMEWORKVERSION	QUANT	6.33	Framework Version
INSTRUMENTVERSION	LABEL	3.50	Instrument Version
ZCURVE	TABLE
	Pt	Time	Freq	Zreal	Zimag	Zsig	Zmod	Zphz	Idc	Vdc	IERange
	#	s	Hz	ohm	ohm	V	ohm	°	A	V	#
	0	1	1000078	1563.45	-2409.604	1	2872.38	-57.02285	2.33134E-007	0.0717911	8
	1	1	794390.6	1856.656	-2739.145	1	3309.092	-55.86967	8.219285E-009	0.071486	8
	2	1	630984.4	2171.548	-3104.515	1	3788.619	-55.02795	-2.736948E-008	0.0713529	8
	3	2	501234.4	2523.996	-3518.25	1	4329.97	-54.34431	2.003891E-007	0.0712145	8
	4	2	398109.4	2906.454	-3990.255	1	4936.558	-53.93085	3.538577E-007	0.0711396	8
	5	2	316265.6	3342.685	-4545.5	1	5642.262	-53.66986	-1.113517E-007	0.0711782	8
	6	3	251203.1	3838.598	-5200.774	1	6463.969	-53.56963	1.783648E-007	0.0711269	8
	7	3	199546.9	4393.983	-5931.531	1	7381.744	-53.46954	-7.340117E-008	0.071193	8
	8	3	158578.1	5040.318	-6835.677	1	8493.014	-53.59662	1.751638E-007	0.0711257	8
	9	3	125953.1	5989.489	-7771.867	1	9812.03	-52.37989	-3.359382E-008	0.0711607	7
	10	4	100078.1	6870.391	-8922.836	1	11261.41	-52.40451	2.174633E-009	0.0710826	7
	11	4	79453.13	7954.602	-10278.77	1	12997.26	-52.26419	-3.955585E-010	0.0710887	7
	12	4	63140.62	9269.957	-11765.79	1	14978.85	-51.76634	3.129715E-010	0.0710819	7
	13	5	50203.12	10855.88	-13420.63	1	17261.62	-51.03078	1.024792E-008	0.0710561	7
	14	5	39890.62	12753.64	-15191.03	1	19834.89	-49.98483	4.074574E-009	0.071065	7
	15	5	31640.63	15017.44	-17107.63	1	22763.88	-48.72265	2.993737E-010	0.0710858	7
	16	6	25171.88	17664.28	-19028.71	1	25963.8	-47.12957	6.634837E-010	0.0710893	7
	17	6	20015.62	20726.01	-20925.89	1	29452.68	-45.27495	4.675217E-010	0.0710892	7
	18	6	15890.62	24196.2	-22672.65	1	33158.79	-43.13816	-1.986718E-009	0.071083	7
	19	7	12609.37	28602.21	-23917.69	1	37284.61	-39.90299	8.181546E-010	0.071139	6
	20	7	10078.13	32571.24	-25256.7	1	41216.34	-37.79106	2.23787E-009	0.0710974	6
	21	7	8015.625	36870.75	-26381.67	1	45337.01	-35.58439	2.040343E-009	0.0711224	6
	22	8	6328.125	41484.65	-27212.77	1	49613.62	-33.26376	1.095849E-009	0.0711283	6
	23	8	5015.625	46119.65	-27729.33	1	53813.92	-31.01629	3.098444E-009	0.0710983	6
	24	8	3984.375	50721.62	-27959.96	1	57917.54	-28.86546	1.61998E-009	0.0711037	6
	25	9	3170.956	55248.09	-27972.34	1	61925.79	-26.85328	9.272335E-010	0.0711153	6
	26	9	2527.573	59662.9	-27832.33	1	65835.41	-25.00873	6.198841E-010	0.0711304	6
	27	9	1976.103	64322.39	-27456.25	1	69937.22	-23.11539	8.868904E-010	0.0711304	6
	28	10	1577.524	68450.88	-26897.91	1	73546.05	-21.45244	3.778572E-010	0.0711112	6
	29	10	1265.625	72371.51	-26307.41	1	77004.64	-19.97646	2.366502E-009	0.071112	6
	30	10	998.264	76383.44	-25543.54	1	80541.3	-18.49055	1.696233E-009	0.0711202	6
	31	10	796.875	79820.29	-24793.64	1	83582.31	-17.25575	1.479278E-009	0.071125	6
	32	11	627.7902	83108.09	-23966.18	1	86494.7	-16.08617	1.600284E-009	0.0710972	6
	33	11	505.5147	85883.27	-23467.46	1	89031.78	-15.2829	8.259307E-010	0.0711084	6
	34	11	397.9953	88761.54	-22540.17	1	91578.77	-14.24855	7.764562E-010	0.0711274	5
	35	12	315.5048	91103.92	-22792.09	1	93911.68	-14.04578	8.890423E-010	0.0711298	5
	36	12	252.4038	93259.7	-23485.58	1	96171.4	-14.13488	7.791844E-010	0.0711197	5
	37	12	198.6229	95431.8	-24755.13	1	98590.3	-14.54208	6.700215E-010	0.0711232	5
	38	13	158.3615	97671.6	-26636.57	1	101238.6	-15.2545	5.907465E-010	0.0711216	5
	39	13	125.558	99961.6	-29229.33	1	104147.4	-16.29922	8.013508E-010	0.0711235	5
	40	13	100.4464	102297.1	-32492.33	1	107333.4	-17.62125	7.88475E-010	0.0711207	5
	41	14	79.00281	105412.9	-37012.21	1	111721.9	-19.34702	5.240569E-010	0.0711193	5
	42	14	63.3446	108527.3	-41876.91	1	116326.5	-21.09987	5.539167E-010	0.0711159	5
	43	14	49.86702	112520.4	-48583.25	1	122560.9	-23.35338	2.399807E-010	0.07111	5
	44	15	39.72458	116937.4	-56234.96	1	129756.4	-25.68282	6.126891E-010	0.0711222	5
	45	15	31.6723	122303.1	-65080.95	1	138540.9	-28.01871	6.288439E-010	0.071117	5
	46	15	24.93351	129298.3	-76001.54	1	149981	-30.44701	-2.103669E-010	0.0711157	5
	47	16	19.86229	137594.4	-88073.87	1	163368.3	-32.62322	-9.336594E-010	0.0711236	5
	48	16	15.83615	146774.1	-101686.2	1	178557.3	-34.7145	-4.855182E-010	0.0711142	5
	49	16	12.40079	158211	-117972.7	1	197353.2	-36.71067	5.889231E-010	0.0711158	5
	50	17	9.93114	171361.5	-134948.7	1	218119	-38.22074	-2.749636E-010	0.0711243	5
	51	17	7.944915	185585	-153867.4	1	241074.7	-39.66192	-1.008803E-009	0.071122	5
	52	17	6.317385	202183	-176060.4	1	268095.5	-41.04926	5.269637E-010	0.0711054	5
	53	18	5.008013	221711.1	-201599.4	1	299663.4	-42.27989	5.492254E-010	0.071122	5
	54	19	3.945707	243755.6	-231631.1	1	336258.5	-43.53901	-5.706019E-012	0.0711119	5
	55	20	3.158693	267767.5	-263995.3	1	376022.5	-44.59356	4.941167E-010	0.0711111	5
	56	21	2.504006	295630.8	-303095.8	1	423396.6	-45.71433	4.039616E-010	0.0711169	5
	57	22	1.998082	327520.9	-347158.3	1	477272.3	-46.66719	1.556956E-010	0.0710625	5
	58	24	1.584686	363669.8	-399871	1	540511.3	-47.71449	2.622653E-010	0.071095	5
	59	26	1.266892	405950.7	-457119.4	1	611354.3	-48.39291	3.648944E-010	0.0711376	5
	60	28	0.999041	459463.9	-527629.4	1	699642.6	-48.95039	4.492102E-010	0.0711497	5
