EXPLAIN
TAG	EISPOT
TITLE	LABEL	Potentiostatic EIS	Test &Identifier
DATE	LABEL	1/14/2020	Date
TIME	LABEL	17:44:13	Time
NOTES	NOTES	5	&Notes...
	
	
	
	
	
PSTAT	PSTAT	REF600-11020	Potentiostat
VDC	POTEN	0.00000E+000	T	DC &Voltage (V)
FREQINIT	QUANT	1.00000E+006	Initial Fre&q. (Hz)
FREQFINAL	QUANT	1.00000E+000	Final Fre&q. (Hz)
PTSPERDEC	QUANT	1.00000E+001	Points/&decade
VAC	QUANT	2.50000E+001	AC &Voltage (mV rms)
AREA	QUANT	1.00000E-001	&Area (cm^2)
CONDIT	TWOPARAM	T	5.00000E+000	0.00000E+000	Conditionin&g	Time(s)	E(V)
DELAY	TWOPARAM	T	5.00000E+000	0.00000E+000	Init. De&lay	Time(s)	Stab.(mV/s)
SPEED	SELECTOR	0	&Optimize for:
ZGUESS	QUANT	5.00000E+002	E&stimated Z (ohms)
OCVCURVE	TABLE	19
	Pt	T	Vf	Vm	Ach	Over
	#	s	V vs. Ref.	V	V	bits
	0	0.258333	1.07367E-002	1.07367E-002	6.49080E-004	...........
	1	0.516667	1.07409E-002	1.09575E-002	6.49146E-004	...........
	2	0.775	1.07671E-002	1.11793E-002	6.45980E-004	...........
	3	1.03333	1.08420E-002	1.14036E-002	6.44280E-004	...........
	4	1.29167	1.09786E-002	1.16189E-002	6.52780E-004	...........
	5	1.55	1.11645E-002	1.18338E-002	6.49113E-004	...........
	6	1.80833	1.13762E-002	1.20449E-002	6.45446E-004	...........
	7	2.06667	1.15950E-002	1.22484E-002	6.53313E-004	...........
	8	2.325	1.18119E-002	1.24556E-002	6.50246E-004	...........
	9	2.58333	1.20244E-002	1.26658E-002	6.51713E-004	...........
	10	2.84167	1.22332E-002	1.28539E-002	6.52313E-004	...........
	11	3.1	1.24388E-002	1.30468E-002	6.52313E-004	...........
	12	3.35833	1.26403E-002	1.32299E-002	6.57779E-004	...........
	13	3.61667	1.28364E-002	1.34048E-002	6.53413E-004	...........
	14	3.875	1.30264E-002	1.35766E-002	6.45046E-004	...........
	15	4.13333	1.32099E-002	1.37317E-002	6.50113E-004	...........
	16	4.39167	1.33861E-002	1.38836E-002	6.49646E-004	...........
	17	4.65	1.35549E-002	1.40527E-002	6.54546E-004	...........
	18	4.90833	1.37176E-002	1.41980E-002	6.51546E-004	...........
EOC	QUANT	0.0137176	Open Circuit (V)
PSTATMODEL	IQUANT	4	Pstat Model
PSTATSECTION	LABEL	REF600-11020	Pstat Section
PSTATSERIALNO	LABEL	11020	Pstat Serial Number
CTRLMODE	IQUANT	1	Control Mode
IESTAB	IQUANT	0	I/E Stability
CASPEED	IQUANT	1	Control Amp Speed
CONVENTION	IQUANT	1	Current Convention
ICHRANGE	IQUANT	2	Ich Range
ICHRANGEMODE	TOGGLE	F	Ich Auto Range
ICHOFFSETENABLE	TOGGLE	T	Ich Offset Enable
ICHOFFSET	QUANT	0	Ich Offset (V)
ICHFILTER	IQUANT	3	Ich Filter
VCHRANGE	IQUANT	2	Vch Range
VCHRANGEMODE	TOGGLE	F	Vch Auto Range
VCHOFFSETENABLE	TOGGLE	T	Vch Offset Enable
VCHOFFSET	QUANT	0	Vch Offset (V)
VCHFILTER	IQUANT	3	Vch Filter
ACHRANGE	IQUANT	2	Ach Range
ACHOFFSETENABLE	TOGGLE	F	Ach Offset Enable
ACHOFFSET	QUANT	0	Ach Offset (V)
ACHFILTER	IQUANT	3	Ach Filter
IERANGELOWERLIMIT	IQUANT	1	I/E Range Lower Limit
IERANGEMODE	TOGGLE	F	I/E AutoRange
IERANGE	IQUANT	7	I/E Range
POSFEEDENABLE	TOGGLE	F	Positive Feedback IR Comp
POSFEEDRESISTANCE	QUANT	0	Positive Feedback Resistance (ohm)
ACHSELECT	IQUANT	0	Ach Select
CABLEID	IQUANT	14	Cable ID
DCCALDATE	LABEL	12/22/2019	DC Calibration Date
ACCALDATE	LABEL	12/22/2019	AC Calibration Date
THERMOSELECT	IQUANT	1	Thermo Select
FRAMEWORKVERSION	QUANT	6.33	Framework Version
INSTRUMENTVERSION	LABEL	3.50	Instrument Version
ZCURVE	TABLE
	Pt	Time	Freq	Zreal	Zimag	Zsig	Zmod	Zphz	Idc	Vdc	IERange
	#	s	Hz	ohm	ohm	V	ohm	°	A	V	#
	0	1	1000078	2297.431	-2169.746	1	3160.061	-43.36275	-1.229012E-006	0.0161214	8
	1	1	794390.6	2713.925	-2215.168	1	3503.193	-39.22212	2.437819E-006	0.01534	8
	2	2	630984.4	3129.152	-2227.921	1	3841.253	-35.45044	-2.393299E-007	0.0154768	8
	3	2	501234.4	3536.345	-2214.35	1	4172.419	-32.05353	-4.229692E-008	0.0154384	8
	4	2	398109.4	3925.347	-2147.152	1	4474.216	-28.67852	1.119592E-006	0.0152205	8
	5	3	316265.6	4282.641	-2050.119	1	4748.052	-25.58064	1.506528E-006	0.0150709	8
	6	3	251203.1	4605.19	-1949.824	1	5000.959	-22.94765	1.441329E-006	0.0150708	8
	7	3	199546.9	4914.602	-1811.554	1	5237.847	-20.23421	-1.963868E-007	0.0154685	8
	8	4	158578.1	5190.944	-1683.575	1	5457.136	-17.96939	2.203274E-006	0.0149688	8
	9	4	125953.1	5435.544	-1508.834	1	5641.075	-15.51394	-4.830618E-007	0.0165877	7
	10	4	100078.1	5629.924	-1378.477	1	5796.227	-13.7581	2.004244E-009	0.0153517	7
	11	5	79453.13	5801.766	-1264.771	1	5938.024	-12.29794	-2.366332E-008	0.0153375	7
	12	5	63140.62	5944.976	-1165.761	1	6058.195	-11.09446	9.034894E-009	0.0152792	7
	13	5	50203.12	6067.064	-1084.77	1	6163.278	-10.13717	-2.936405E-008	0.0153775	7
	14	6	39890.62	6171.65	-1025.233	1	6256.227	-9.431829	-2.983224E-008	0.0153736	7
	15	6	31640.63	6268.515	-990.666	1	6346.313	-8.980657	-2.96516E-008	0.0153724	7
	16	6	25171.88	6354.437	-978.088	1	6429.271	-8.750411	-3.812618E-008	0.0153702	7
	17	7	20015.62	6440.451	-991.443	1	6516.315	-8.751419	2.007112E-009	0.0153335	7
	18	7	15890.62	6519.229	-1036.205	1	6601.065	-9.031383	-1.100638E-008	0.015344	7
	19	7	12609.37	6598.536	-1104.901	1	6690.402	-9.50578	-3.790022E-008	0.015366	7
	20	8	10078.13	6694.78	-1201.317	1	6801.708	-10.17294	-1.083432E-008	0.015342	7
	21	8	8015.625	6779.846	-1333.282	1	6909.7	-11.12546	5.589522E-008	0.0152195	7
	22	8	6328.125	6882.383	-1514.029	1	7046.948	-12.40666	2.840087E-008	0.0152851	7
	23	8	5015.625	6996.404	-1737.703	1	7208.973	-13.94836	-3.764643E-008	0.0153694	7
	24	9	3984.375	7119.25	-1994.214	1	7393.282	-15.6484	5.928509E-010	0.0153882	7
	25	9	3170.956	7263.465	-2343.064	1	7632.029	-17.87877	2.704724E-008	0.015283	7
	26	9	2527.573	7425.234	-2749.007	1	7917.773	-20.31581	-2.34262E-008	0.0154087	7
	27	10	1976.103	7622.253	-3283.33	1	8299.338	-23.30424	8.71234E-008	0.0151957	7
	28	10	1577.524	7847.756	-3891.479	1	8759.616	-26.3755	8.725686E-008	0.0151926	7
	29	10	1265.625	8093.672	-4583.373	1	9301.335	-29.52248	1.303641E-008	0.0152588	7
	30	11	998.264	8406.811	-5497.903	1	10044.97	-33.18396	-5.057798E-009	0.0154153	6
	31	11	796.875	8755.783	-6549.525	1	10934.35	-36.79733	3.05914E-009	0.0151758	6
	32	11	627.7902	9192.562	-7900.711	1	12121.24	-40.678	3.308718E-009	0.0151775	6
	33	12	505.5147	9658.96	-9378.069	1	13462.68	-44.15466	5.234262E-009	0.0151767	6
	34	12	397.9953	10285.71	-11358.79	1	15323.77	-47.83826	2.846239E-010	0.015317	6
	35	12	315.5048	11023.88	-13697.78	1	17582.81	-51.17312	4.550627E-010	0.015318	6
	36	13	252.4038	11887.66	-16409.75	1	20263.17	-54.07943	6.843507E-010	0.0153122	6
	37	13	198.6229	13033.57	-19933.58	1	23816.41	-56.82135	3.311816E-010	0.015314	6
	38	13	158.3615	14388.26	-23961.82	1	27949.79	-59.0166	4.600239E-010	0.015307	6
	39	14	125.558	16119.27	-28918.21	1	33107.31	-60.86432	2.471279E-010	0.015308	6
	40	14	100.4464	18219.59	-34636.32	1	39136.03	-62.25448	2.707187E-010	0.0153048	6
	41	14	79.00281	20997.73	-41968.93	1	46928.63	-63.42046	2.229131E-010	0.0152999	6
	42	15	63.3446	24505.37	-49754.96	1	55462.33	-63.77878	4.107108E-010	0.0152986	6
	43	15	49.86702	29026.44	-60135.85	1	66774.65	-64.23428	6.955104E-010	0.0152976	6
	44	15	39.72458	34240.45	-71760	1	79510.41	-64.49175	5.532102E-010	0.0153016	6
	45	16	31.6723	40990.61	-85315.55	1	94651.86	-64.33763	5.698255E-010	0.0153021	6
	46	16	24.93351	50309.1	-101634.6	1	113404.6	-63.6646	2.191261E-010	0.0152974	5
	47	16	19.86229	61331.32	-119661.5	1	134463.4	-62.86305	4.779274E-010	0.0152966	5
	48	16	15.83615	75761.28	-140632.9	1	159741.6	-61.68791	1.308271E-009	0.0152967	5
	49	17	12.40079	92742.37	-163740	1	188180.5	-60.47277	-9.660064E-010	0.0152966	5
	50	17	9.93114	113954.7	-187574.9	1	219476.7	-58.72065	4.945311E-010	0.0153023	5
	51	17	7.944915	137893	-212546.7	1	253358.6	-57.02588	5.8545E-010	0.015299	5
	52	18	6.317385	165684	-241381.1	1	292773	-55.53429	-5.626989E-010	0.0153182	5
	53	19	5.008013	198268.8	-271407.1	1	336113.6	-53.85106	-3.362605E-010	0.0153044	5
	54	20	3.945707	233996.2	-304064.7	1	383678.9	-52.41954	-3.338952E-010	0.015294	5
	55	21	3.158693	270404.8	-337161.4	1	432199.7	-51.27025	-8.453624E-011	0.0153021	5
	56	22	2.504006	310426.9	-375544.4	1	487235.5	-50.4227	-1.675897E-010	0.0153017	5
	57	24	1.998082	351358.5	-417917.9	1	545992.8	-49.94503	-3.675939E-010	0.0152589	5
	58	25	1.584686	393895.4	-468379.7	1	611991.1	-49.93702	-2.254806E-010	0.0152932	5
	59	27	1.266892	439656.8	-526096.8	1	685620.9	-50.11464	-1.608436E-010	0.0153259	5
	60	30	0.999041	492495.2	-601507.6	1	777407.8	-50.69048	-1.111879E-010	0.015333	5
