EXPLAIN
TAG	EISPOT
TITLE	LABEL	Potentiostatic EIS	Test &Identifier
DATE	LABEL	3/12/2020	Date
TIME	LABEL	13:04:42	Time
NOTES	NOTES	1	&Notes...
	
PSTAT	PSTAT	REF600-11020	Potentiostat
VDC	POTEN	0.00000E+000	T	DC &Voltage (V)
FREQINIT	QUANT	1.00000E+006	Initial Fre&q. (Hz)
FREQFINAL	QUANT	1.00000E+000	Final Fre&q. (Hz)
PTSPERDEC	QUANT	1.00000E+001	Points/&decade
VAC	QUANT	2.50000E+001	AC &Voltage (mV rms)
AREA	QUANT	2.50000E-001	&Area (cm^2)
CONDIT	TWOPARAM	F	5.00000E+000	0.00000E+000	Conditionin&g	Time(s)	E(V)
DELAY	TWOPARAM	T	5.00000E+000	0.00000E+000	Init. De&lay	Time(s)	Stab.(mV/s)
SPEED	SELECTOR	1	&Optimize for:
ZGUESS	QUANT	5.00000E+003	E&stimated Z (ohms)
OCVCURVE	TABLE	19
	Pt	T	Vf	Vm	Ach	Over
	#	s	V vs. Ref.	V	V	bits
	0	0.258333	2.81752E-002	2.81752E-002	5.71297E-004	...........
	1	0.516667	2.81717E-002	2.79941E-002	5.69163E-004	...........
	2	0.775	2.81515E-002	2.78747E-002	5.75030E-004	...........
	3	1.03333	2.80969E-002	2.77274E-002	5.71163E-004	...........
	4	1.29167	2.80036E-002	2.76207E-002	5.71263E-004	...........
	5	1.55	2.78835E-002	2.74423E-002	5.74730E-004	...........
	6	1.80833	2.77503E-002	2.73235E-002	5.76297E-004	...........
	7	2.06667	2.76114E-002	2.71812E-002	5.73363E-004	...........
	8	2.325	2.74721E-002	2.71113E-002	5.69230E-004	...........
	9	2.58333	2.73394E-002	2.69967E-002	5.79530E-004	...........
	10	2.84167	2.72185E-002	2.68873E-002	5.80697E-004	...........
	11	3.1	2.71079E-002	2.67858E-002	5.73763E-004	...........
	12	3.35833	2.70022E-002	2.66841E-002	5.76930E-004	...........
	13	3.61667	2.68981E-002	2.65822E-002	5.75263E-004	...........
	14	3.875	2.67948E-002	2.64819E-002	5.72830E-004	...........
	15	4.13333	2.66924E-002	2.63854E-002	5.70930E-004	...........
	16	4.39167	2.65913E-002	2.62872E-002	5.62297E-004	...........
	17	4.65	2.64915E-002	2.61928E-002	5.72830E-004	...........
	18	4.90833	2.63932E-002	2.60968E-002	5.73097E-004	...........
EOC	QUANT	0.0263932	Open Circuit (V)
PSTATMODEL	IQUANT	4	Pstat Model
PSTATSECTION	LABEL	REF600-11020	Pstat Section
PSTATSERIALNO	LABEL	11020	Pstat Serial Number
CTRLMODE	IQUANT	1	Control Mode
IESTAB	IQUANT	0	I/E Stability
CASPEED	IQUANT	1	Control Amp Speed
CONVENTION	IQUANT	1	Current Convention
ICHRANGE	IQUANT	2	Ich Range
ICHRANGEMODE	TOGGLE	F	Ich Auto Range
ICHOFFSETENABLE	TOGGLE	T	Ich Offset Enable
ICHOFFSET	QUANT	0	Ich Offset (V)
ICHFILTER	IQUANT	3	Ich Filter
VCHRANGE	IQUANT	2	Vch Range
VCHRANGEMODE	TOGGLE	F	Vch Auto Range
VCHOFFSETENABLE	TOGGLE	T	Vch Offset Enable
VCHOFFSET	QUANT	0	Vch Offset (V)
VCHFILTER	IQUANT	3	Vch Filter
ACHRANGE	IQUANT	2	Ach Range
ACHOFFSETENABLE	TOGGLE	F	Ach Offset Enable
ACHOFFSET	QUANT	0	Ach Offset (V)
ACHFILTER	IQUANT	3	Ach Filter
IERANGELOWERLIMIT	IQUANT	1	I/E Range Lower Limit
IERANGEMODE	TOGGLE	F	I/E AutoRange
IERANGE	IQUANT	6	I/E Range
POSFEEDENABLE	TOGGLE	F	Positive Feedback IR Comp
POSFEEDRESISTANCE	QUANT	0	Positive Feedback Resistance (ohm)
ACHSELECT	IQUANT	0	Ach Select
CABLEID	IQUANT	14	Cable ID
DCCALDATE	LABEL	2/27/2020	DC Calibration Date
ACCALDATE	LABEL	2/27/2020	AC Calibration Date
THERMOSELECT	IQUANT	1	Thermo Select
FRAMEWORKVERSION	QUANT	6.33	Framework Version
INSTRUMENTVERSION	LABEL	3.50	Instrument Version
ZCURVE	TABLE
	Pt	Time	Freq	Zreal	Zimag	Zsig	Zmod	Zphz	Idc	Vdc	IERange
	#	s	Hz	ohm	ohm	V	ohm	°	A	V	#
	0	1	1000078	1447.72	-2105.733	1	2555.387	-55.49094	-1.73981E-006	0.0291514	8
	1	2	794390.6	1819.465	-2336.479	1	2961.349	-52.09136	-4.643729E-006	0.0297707	8
	2	4	630984.4	2254.999	-2565.003	1	3415.298	-48.67998	1.954926E-006	0.0281981	8
	3	5	501234.4	2758.663	-2722.961	1	3876.176	-44.62683	3.127891E-006	0.0274238	8
	4	7	398109.4	3294.446	-2794.357	1	4319.931	-40.30469	1.830191E-006	0.027768	8
	5	8	316265.6	3838.944	-2803.862	1	4753.854	-36.14339	-8.342836E-007	0.0283339	8
	6	9	251203.1	4408.3	-2747.701	1	5194.514	-31.93536	6.212855E-007	0.0279845	8
	7	11	199546.9	4874.055	-2605.368	1	5526.694	-28.1262	-9.332689E-007	0.028458	8
	8	12	158578.1	5351.157	-2456.928	1	5888.241	-24.66173	2.560619E-006	0.027734	8
	9	14	125953.1	5813.932	-2112.952	1	6185.982	-19.97262	-9.019741E-007	0.0299986	7
	10	15	100078.1	6114.336	-1902.107	1	6403.368	-17.28038	6.368322E-008	0.0279043	7
	11	17	79453.13	6366.835	-1703.597	1	6590.814	-14.97992	6.288467E-009	0.0280593	7
	12	18	63140.62	6574.163	-1518.01	1	6747.146	-13.00203	-5.063131E-008	0.0280643	7
	13	19	50203.12	6743.088	-1352.023	1	6877.296	-11.33775	5.341785E-009	0.0280475	7
	14	21	39890.62	6879.885	-1211.875	1	6985.804	-9.99003	3.746648E-008	0.0279797	7
	15	22	31640.63	6993.954	-1096.473	1	7079.382	-8.909985	-6.020433E-008	0.0281166	7
	16	23	25171.88	7092.28	-1008.651	1	7163.645	-8.094221	-1.383535E-008	0.0281097	7
	17	25	20015.62	7175.462	-947.6015	1	7237.763	-7.523027	1.43617E-007	0.0278494	7
	18	26	15890.62	7240.876	-910.958	1	7297.954	-7.170578	9.530997E-008	0.0279946	7
	19	28	12609.37	7304.682	-902.2078	1	7360.188	-7.040994	-5.000436E-008	0.0280621	7
	20	29	10078.13	7360.476	-921.7188	1	7417.963	-7.137733	6.378537E-008	0.0278856	7
	21	30	8015.625	7419.239	-974.692	1	7482.989	-7.484288	8.089502E-009	0.0280473	7
	22	32	6328.125	7473.215	-1058.048	1	7547.742	-8.058308	2.692567E-008	0.0279146	7
	23	33	5015.625	7527.117	-1190.087	1	7620.617	-8.984468	6.381605E-009	0.0280479	7
	24	34	3984.375	7585.332	-1356.514	1	7705.673	-10.13924	6.350664E-009	0.0279624	7
	25	36	3170.956	7645.834	-1579.893	1	7807.358	-11.67497	-5.137309E-009	0.0281496	7
	26	37	2527.573	7718.832	-1861.947	1	7940.228	-13.56188	3.394554E-008	0.0281061	7
	27	38	1976.103	7808.225	-2250.947	1	8126.2	-16.08116	3.913905E-008	0.0279706	7
	28	40	1577.524	7901.22	-2696.33	1	8348.621	-18.84246	-4.43209E-008	0.0280884	7
	29	41	1265.625	8025.362	-3236.558	1	8653.424	-21.96379	-5.699297E-008	0.0280879	7
	30	42	998.264	8172.331	-3950.894	1	9077.255	-25.80134	9.589682E-008	0.0279797	7
	31	44	796.875	8363.786	-4782.918	1	9634.79	-29.76353	-5.342415E-009	0.0282157	6
	32	45	627.7902	8603.959	-5871.69	1	10416.57	-34.31121	-1.129159E-008	0.0282244	6
	33	46	505.5147	8871.153	-7072.482	1	11345.37	-38.56343	1.493172E-008	0.0277963	6
	34	48	397.9953	9234.797	-8694.944	1	12683.99	-43.27538	9.974886E-010	0.0281065	6
	35	49	315.5048	9671.21	-10623.23	1	14366.12	-47.68579	8.201272E-010	0.0281051	6
	36	50	252.4038	10198.79	-12878.34	1	16427.63	-51.62313	2.817007E-010	0.0281039	6
	37	52	198.6229	10898.13	-15837.21	1	19224.63	-55.4668	1.198428E-009	0.0281095	6
	38	53	158.3615	11733.74	-19251.41	1	22545.46	-58.63768	1.618435E-009	0.0281021	6
	39	54	125.558	12803.72	-23529.49	1	26787.54	-61.4469	8.554616E-010	0.0281057	6
	40	56	100.4464	14078.57	-28505.16	1	31792.3	-63.71545	-1.781949E-010	0.0281037	6
	41	57	79.00281	15940.56	-34960.11	1	38422.79	-65.48872	2.099832E-010	0.0280999	6
	42	59	63.3446	17563.12	-42095.35	1	45612.3	-67.35301	1.234743E-009	0.0281018	6
	43	60	49.86702	21619.07	-51649.43	1	55991.5	-67.28711	2.57496E-010	0.0280993	6
	44	61	39.72458	25219.17	-62934.34	1	67799.25	-68.16294	1.412136E-009	0.0281031	6
	45	63	31.6723	30426.13	-75653.09	1	81542.25	-68.09101	8.308977E-010	0.0281039	6
	46	64	24.93351	37355.84	-91889.41	1	99192.3	-67.87676	9.290716E-010	0.0281005	6
	47	65	19.86229	46089.71	-109627.3	1	118921.9	-67.19705	5.188998E-010	0.0281087	5
	48	67	15.83615	55415.98	-130015.1	1	141332.4	-66.91497	2.216226E-009	0.0280988	5
	49	68	12.40079	73171.47	-153421.4	1	169977	-64.50206	-6.68545E-010	0.0281052	5
	50	70	9.93114	90841.84	-181412.1	1	202885.6	-63.40065	3.94423E-010	0.0281015	5
	51	71	7.944915	110623.8	-209340.3	1	236772	-62.14623	1.170246E-009	0.0281022	5
	52	73	6.317385	138253.4	-240519.7	1	277423.4	-60.10923	9.505964E-010	0.0281041	5
	53	75	5.008013	169668.9	-275374.8	1	323448.4	-58.3612	7.23807E-010	0.0281128	5
	54	77	3.945707	206879.7	-314162.4	1	376161.1	-56.63462	1.842129E-010	0.0281049	5
	55	80	3.158693	246649.1	-353115.6	1	430727.7	-55.06594	5.769437E-010	0.0281139	5
	56	83	2.504006	292819.4	-396441.1	1	492857.7	-53.54967	4.961915E-011	0.0281062	5
	57	86	1.998082	340819.1	-440720	1	557128.2	-52.28438	5.856255E-010	0.0280681	5
	58	89	1.584686	395293.8	-492966.8	1	631880.8	-51.27502	1.928773E-010	0.0280835	5
	59	93	1.266892	451029.5	-545936.8	1	708148.8	-50.43795	5.237145E-010	0.028067	5
	60	97	0.999041	513482.5	-612262.1	1	799080.1	-50.01463	1.90401E-010	0.0281339	5
