EXPLAIN
TAG	EISPOT
TITLE	LABEL	Potentiostatic EIS	Test &Identifier
DATE	LABEL	3/9/2020	Date
TIME	LABEL	21:12:58	Time
NOTES	NOTES	1	&Notes...
	
PSTAT	PSTAT	REF600-11020	Potentiostat
VDC	POTEN	0.00000E+000	T	DC &Voltage (V)
FREQINIT	QUANT	1.00000E+006	Initial Fre&q. (Hz)
FREQFINAL	QUANT	1.00000E+000	Final Fre&q. (Hz)
PTSPERDEC	QUANT	1.00000E+001	Points/&decade
VAC	QUANT	2.50000E+001	AC &Voltage (mV rms)
AREA	QUANT	4.00000E-005	&Area (cm^2)
CONDIT	TWOPARAM	F	5.00000E+000	0.00000E+000	Conditionin&g	Time(s)	E(V)
DELAY	TWOPARAM	T	3.00000E+000	0.00000E+000	Init. De&lay	Time(s)	Stab.(mV/s)
SPEED	SELECTOR	0	&Optimize for:
ZGUESS	QUANT	1.00000E+003	E&stimated Z (ohms)
OCVCURVE	TABLE	12
	Pt	T	Vf	Vm	Ach	Over
	#	s	V vs. Ref.	V	V	bits
	0	0.258333	5.01461E-002	5.01461E-002	5.50630E-004	...........
	1	0.516667	5.01460E-002	5.01410E-002	5.50197E-004	...........
	2	0.775	5.01453E-002	5.01326E-002	5.53897E-004	...........
	3	1.03333	5.01433E-002	5.01297E-002	5.52197E-004	...........
	4	1.29167	5.01396E-002	5.01229E-002	5.46864E-004	...........
	5	1.55	5.01347E-002	5.01156E-002	5.49530E-004	...........
	6	1.80833	5.01290E-002	5.01077E-002	5.48464E-004	...........
	7	2.06667	5.01227E-002	5.01015E-002	5.56364E-004	...........
	8	2.325	5.01160E-002	5.00961E-002	5.56130E-004	...........
	9	2.58333	5.01091E-002	5.00897E-002	5.42497E-004	...........
	10	2.84167	5.01025E-002	5.00821E-002	5.45664E-004	...........
	11	3.1	5.00961E-002	5.00778E-002	5.47064E-004	...........
EOC	QUANT	0.0500961	Open Circuit (V)
PSTATMODEL	IQUANT	4	Pstat Model
PSTATSECTION	LABEL	REF600-11020	Pstat Section
PSTATSERIALNO	LABEL	11020	Pstat Serial Number
CTRLMODE	IQUANT	1	Control Mode
IESTAB	IQUANT	0	I/E Stability
CASPEED	IQUANT	1	Control Amp Speed
CONVENTION	IQUANT	1	Current Convention
ICHRANGE	IQUANT	2	Ich Range
ICHRANGEMODE	TOGGLE	F	Ich Auto Range
ICHOFFSETENABLE	TOGGLE	T	Ich Offset Enable
ICHOFFSET	QUANT	0	Ich Offset (V)
ICHFILTER	IQUANT	3	Ich Filter
VCHRANGE	IQUANT	2	Vch Range
VCHRANGEMODE	TOGGLE	F	Vch Auto Range
VCHOFFSETENABLE	TOGGLE	T	Vch Offset Enable
VCHOFFSET	QUANT	0	Vch Offset (V)
VCHFILTER	IQUANT	3	Vch Filter
ACHRANGE	IQUANT	2	Ach Range
ACHOFFSETENABLE	TOGGLE	F	Ach Offset Enable
ACHOFFSET	QUANT	0	Ach Offset (V)
ACHFILTER	IQUANT	3	Ach Filter
IERANGELOWERLIMIT	IQUANT	1	I/E Range Lower Limit
IERANGEMODE	TOGGLE	F	I/E AutoRange
IERANGE	IQUANT	7	I/E Range
POSFEEDENABLE	TOGGLE	F	Positive Feedback IR Comp
POSFEEDRESISTANCE	QUANT	0	Positive Feedback Resistance (ohm)
ACHSELECT	IQUANT	0	Ach Select
CABLEID	IQUANT	14	Cable ID
DCCALDATE	LABEL	2/27/2020	DC Calibration Date
ACCALDATE	LABEL	2/27/2020	AC Calibration Date
THERMOSELECT	IQUANT	1	Thermo Select
FRAMEWORKVERSION	QUANT	6.33	Framework Version
INSTRUMENTVERSION	LABEL	3.50	Instrument Version
ZCURVE	TABLE
	Pt	Time	Freq	Zreal	Zimag	Zsig	Zmod	Zphz	Idc	Vdc	IERange
	#	s	Hz	ohm	ohm	V	ohm	°	A	V	#
	0	1	1000078	2020.412	-1807.325	1	2710.81	-41.81367	3.22004E-010	0.0523722	8
	1	1	794390.6	2386.133	-1862.922	1	3027.228	-37.98017	5.417854E-008	0.0520552	8
	2	2	630984.4	2758.292	-1863.291	1	3328.668	-34.03995	2.626143E-008	0.0518725	8
	3	2	501234.4	3120.184	-1806.599	1	3605.461	-30.07102	2.704269E-008	0.0517748	8
	4	2	398109.4	3455.4	-1709.861	1	3855.31	-26.32792	1.81496E-008	0.0517229	8
	5	2	316265.6	3749.228	-1574.789	1	4066.531	-22.78388	3.023524E-008	0.0516771	8
	6	3	251203.1	3997.149	-1423.712	1	4243.13	-19.60497	2.929295E-008	0.051666	8
	7	3	199546.9	4200.007	-1266.521	1	4386.813	-16.7808	7.959341E-009	0.051663	8
	8	3	158578.1	4361.317	-1114.374	1	4501.435	-14.33316	5.606127E-008	0.0516745	8
	9	4	125953.1	4535.139	-898.2709	1	4623.243	-11.20352	3.610015E-009	0.0516241	7
	10	4	100078.1	4613.92	-789.3286	1	4680.95	-9.70792	5.088799E-010	0.0516062	7
	11	4	79453.13	4690.184	-706.3911	1	4743.081	-8.564974	-3.428443E-010	0.0515866	7
	12	5	63140.62	4753.974	-639.5515	1	4796.8	-7.661993	-1.6621E-010	0.0515966	7
	13	5	50203.12	4807.703	-588.06	1	4843.534	-6.973562	4.11976E-010	0.0515977	7
	14	5	39890.62	4854.052	-552.3788	1	4885.381	-6.492187	4.870118E-010	0.0515912	7
	15	6	31640.63	4897.012	-532.192	1	4925.845	-6.202385	2.088536E-010	0.0515912	7
	16	6	25171.88	4935.225	-527.8088	1	4963.368	-6.104424	-5.474878E-010	0.0515856	7
	17	6	20015.62	4973.375	-538.9348	1	5002.49	-6.184667	9.824078E-010	0.0515911	7
	18	7	15890.62	5010.644	-566.6573	1	5042.584	-6.452207	1.057418E-009	0.0515892	7
	19	7	12609.37	5048.243	-611.6144	1	5085.157	-6.907941	-8.960827E-011	0.0515792	7
	20	7	10078.13	5086.425	-675.9975	1	5131.149	-7.570376	1.987234E-009	0.0515839	7
	21	8	8015.625	5127.098	-763.0917	1	5183.574	-8.465475	2.104444E-010	0.0515862	7
	22	8	6328.125	5172.584	-880.9003	1	5247.057	-9.66485	1.704431E-009	0.0515809	7
	23	8	5015.625	5221.541	-1029.252	1	5322.016	-11.15099	1.460648E-009	0.0515742	7
	24	9	3984.375	5276.826	-1214.703	1	5414.831	-12.96341	1.543505E-009	0.051581	7
	25	9	3170.956	5339.372	-1443.443	1	5531.041	-15.1277	6.246256E-010	0.0515791	7
	26	9	2527.573	5412.081	-1723.548	1	5679.897	-17.66475	7.261892E-010	0.0515742	7
	27	9	1976.103	5504.903	-2104.634	1	5893.508	-20.92285	1.768542E-009	0.0515842	7
	28	10	1577.524	5605.859	-2533.479	1	6151.762	-24.31984	2.298869E-009	0.0515821	7
	29	10	1265.625	5725.988	-3043.707	1	6484.681	-27.99333	1.337325E-009	0.0515718	7
	30	10	998.264	5881.382	-3716.315	1	6957.13	-32.28788	1.322997E-009	0.0515672	7
	31	11	796.875	6061.818	-4501.147	1	7550.229	-36.59539	1.54251E-009	0.0515709	7
	32	11	627.7902	6293.083	-5521.546	1	8371.999	-41.26369	2.102263E-009	0.0515762	7
	33	11	505.5147	6553.544	-6648.051	1	9335.177	-45.41016	3.187585E-009	0.0515756	7
	34	12	397.9953	6917.328	-8157.372	1	10695.43	-49.70256	5.644744E-010	0.0516407	6
	35	12	315.5048	7350.054	-9965.27	1	12382.64	-53.58873	5.557492E-010	0.0516393	6
	36	12	252.4038	7871.251	-12079.79	1	14417.97	-56.91153	4.295704E-010	0.0516356	6
	37	13	198.6229	8579.967	-14849.52	1	17150.05	-59.98093	3.403034E-010	0.0516397	6
	38	13	158.3615	9440.055	-18040.46	1	20361.06	-62.37823	3.769843E-010	0.0516324	6
	39	13	125.558	10568.96	-22005.29	1	24411.79	-64.34542	4.369938E-010	0.0516398	6
	40	14	100.4464	11973.08	-26603.87	1	29173.97	-65.76985	1.635899E-010	0.0516386	6
	41	14	79.00281	13936.75	-32566.78	1	35423.55	-66.83179	2.75879E-010	0.0516349	6
	42	14	63.3446	16284.25	-39136.2	1	42388.9	-67.4082	3.783854E-010	0.0516332	6
	43	15	49.86702	19581.65	-47608.7	1	51478.43	-67.64244	1.07485E-010	0.0516296	6
	44	15	39.72458	23651.89	-57148.09	1	61849.14	-67.51679	2.1843E-010	0.0516337	6
	45	15	31.6723	28832.51	-68259.13	1	74098.73	-67.10091	1.481764E-010	0.0516321	6
	46	16	24.93351	35890.23	-81988.8	1	89500.13	-66.35881	6.704629E-012	0.0516304	6
	47	16	19.86229	44372.13	-97021.5	1	106686.7	-65.42333	-1.471955E-009	0.0516303	5
	48	16	15.83615	55066.02	-114020.5	1	126621.3	-64.22186	1.312366E-009	0.0516359	5
	49	17	12.40079	69656.98	-134705.8	1	151650.1	-62.65631	-1.943879E-010	0.0516342	5
	50	17	9.93114	85921.98	-155567.5	1	177718.4	-61.08754	2.508765E-010	0.0516341	5
	51	17	7.944915	105311.6	-177690.1	1	206553.4	-59.34605	1.753113E-009	0.0516272	5
	52	18	6.317385	129287.1	-202782.8	1	240491.2	-57.47986	-4.967239E-010	0.0516491	5
	53	18	5.008013	157351.1	-229373.7	1	278157.6	-55.54975	-4.559337E-010	0.0516289	5
	54	19	3.945707	189092.1	-256963.5	1	319039.3	-53.65171	4.275631E-010	0.0516388	5
	55	20	3.158693	222161.7	-284575.9	1	361025.3	-52.02168	-3.168902E-010	0.051635	5
	56	21	2.504006	257577.2	-314414.6	1	406451.2	-50.67471	-7.347813E-011	0.0516266	5
	57	23	1.998082	293745.8	-346431	1	454203.8	-49.70472	2.808802E-010	0.0516747	5
	58	24	1.584686	329708.5	-384471.5	1	506484	-49.38484	1.476912E-010	0.0516453	5
	59	26	1.266892	366008.4	-426775.3	1	562227.1	-49.38315	3.151198E-011	0.0516111	5
	60	29	0.999041	405806.6	-482839.9	1	630724.5	-49.95436	-2.350811E-011	0.0515858	5
