EXPLAIN
TAG	EISPOT
TITLE	LABEL	Potentiostatic EIS	Test &Identifier
DATE	LABEL	2/28/2020	Date
TIME	LABEL	16:27:36	Time
NOTES	NOTES	1	&Notes...
	
PSTAT	PSTAT	REF600-11020	Potentiostat
VDC	POTEN	0.00000E+000	T	DC &Voltage (V)
FREQINIT	QUANT	1.00000E+006	Initial Fre&q. (Hz)
FREQFINAL	QUANT	1.00000E+000	Final Fre&q. (Hz)
PTSPERDEC	QUANT	1.00000E+001	Points/&decade
VAC	QUANT	2.50000E+001	AC &Voltage (mV rms)
AREA	QUANT	1.60000E-004	&Area (cm^2)
CONDIT	TWOPARAM	F	1.50000E+001	0.00000E+000	Conditionin&g	Time(s)	E(V)
DELAY	TWOPARAM	F	1.00000E+002	0.00000E+000	Init. De&lay	Time(s)	Stab.(mV/s)
SPEED	SELECTOR	1	&Optimize for:
ZGUESS	QUANT	1.00000E+003	E&stimated Z (ohms)
OCVCURVE	TABLE	39
	Pt	T	Vf	Vm	Ach	Over
	#	s	V vs. Ref.	V	V	bits
	0	0.258333	-1.25843E-001	-1.25843E-001	5.12498E-004	...........
	1	0.516667	-1.25841E-001	-1.25739E-001	5.11564E-004	...........
	2	0.775	-1.25829E-001	-1.25673E-001	5.18697E-004	...........
	3	1.03333	-1.25798E-001	-1.25574E-001	5.12898E-004	...........
	4	1.29167	-1.25743E-001	-1.25485E-001	5.08664E-004	...........
	5	1.55	-1.25669E-001	-1.25394E-001	5.13864E-004	...........
	6	1.80833	-1.25584E-001	-1.25314E-001	5.12964E-004	...........
	7	2.06667	-1.25495E-001	-1.25228E-001	5.03798E-004	...........
	8	2.325	-1.25406E-001	-1.25124E-001	5.08664E-004	...........
	9	2.58333	-1.25318E-001	-1.25054E-001	5.21997E-004	...........
	10	2.84167	-1.25229E-001	-1.24962E-001	5.20997E-004	...........
	11	3.1	-1.25142E-001	-1.24882E-001	5.11698E-004	...........
	12	3.35833	-1.25056E-001	-1.24803E-001	4.99831E-004	...........
	13	3.61667	-1.24972E-001	-1.24721E-001	5.18498E-004	...........
	14	3.875	-1.24890E-001	-1.24645E-001	5.15664E-004	...........
	15	4.13333	-1.24809E-001	-1.24569E-001	5.05964E-004	...........
	16	4.39167	-1.24729E-001	-1.24486E-001	5.12298E-004	...........
	17	4.65	-1.24651E-001	-1.24415E-001	5.15831E-004	...........
	18	4.90833	-1.24573E-001	-1.24344E-001	5.19664E-004	...........
	19	5.16667	-1.24497E-001	-1.24273E-001	5.10298E-004	...........
	20	5.425	-1.24422E-001	-1.24205E-001	5.13264E-004	...........
	21	5.68333	-1.24350E-001	-1.24120E-001	5.20564E-004	...........
	22	5.94167	-1.24278E-001	-1.24059E-001	5.16764E-004	...........
	23	6.2	-1.24206E-001	-1.23983E-001	5.17598E-004	...........
	24	6.45833	-1.24133E-001	-1.23911E-001	5.15198E-004	...........
	25	6.71667	-1.24061E-001	-1.23847E-001	5.18231E-004	...........
	26	6.975	-1.23990E-001	-1.23774E-001	5.11098E-004	...........
	27	7.23333	-1.23920E-001	-1.23707E-001	5.09631E-004	...........
	28	7.49167	-1.23850E-001	-1.23644E-001	5.16431E-004	...........
	29	7.75	-1.23782E-001	-1.23581E-001	5.11498E-004	...........
	30	8.00833	-1.23715E-001	-1.23518E-001	5.09831E-004	...........
	31	8.26667	-1.23650E-001	-1.23455E-001	5.09798E-004	...........
	32	8.525	-1.23586E-001	-1.23393E-001	5.21997E-004	...........
	33	8.78333	-1.23523E-001	-1.23335E-001	5.20598E-004	...........
	34	9.04167	-1.23461E-001	-1.23271E-001	5.11264E-004	...........
	35	9.3	-1.23399E-001	-1.23211E-001	5.14564E-004	...........
	36	9.5583	-1.23338E-001	-1.23150E-001	5.22331E-004	...........
	37	9.8167	-1.23277E-001	-1.23093E-001	5.18731E-004	...........
	38	10.075	-1.23216E-001	-1.23031E-001	5.05698E-004	...........
EOC	QUANT	-0.123216	Open Circuit (V)
PSTATMODEL	IQUANT	4	Pstat Model
PSTATSECTION	LABEL	REF600-11020	Pstat Section
PSTATSERIALNO	LABEL	11020	Pstat Serial Number
CTRLMODE	IQUANT	1	Control Mode
IESTAB	IQUANT	0	I/E Stability
CASPEED	IQUANT	1	Control Amp Speed
CONVENTION	IQUANT	1	Current Convention
ICHRANGE	IQUANT	2	Ich Range
ICHRANGEMODE	TOGGLE	F	Ich Auto Range
ICHOFFSETENABLE	TOGGLE	T	Ich Offset Enable
ICHOFFSET	QUANT	0	Ich Offset (V)
ICHFILTER	IQUANT	3	Ich Filter
VCHRANGE	IQUANT	2	Vch Range
VCHRANGEMODE	TOGGLE	F	Vch Auto Range
VCHOFFSETENABLE	TOGGLE	T	Vch Offset Enable
VCHOFFSET	QUANT	0	Vch Offset (V)
VCHFILTER	IQUANT	3	Vch Filter
ACHRANGE	IQUANT	2	Ach Range
ACHOFFSETENABLE	TOGGLE	F	Ach Offset Enable
ACHOFFSET	QUANT	0	Ach Offset (V)
ACHFILTER	IQUANT	3	Ach Filter
IERANGELOWERLIMIT	IQUANT	1	I/E Range Lower Limit
IERANGEMODE	TOGGLE	F	I/E AutoRange
IERANGE	IQUANT	8	I/E Range
POSFEEDENABLE	TOGGLE	F	Positive Feedback IR Comp
POSFEEDRESISTANCE	QUANT	0	Positive Feedback Resistance (ohm)
ACHSELECT	IQUANT	0	Ach Select
CABLEID	IQUANT	14	Cable ID
DCCALDATE	LABEL	2/27/2020	DC Calibration Date
ACCALDATE	LABEL	2/27/2020	AC Calibration Date
THERMOSELECT	IQUANT	1	Thermo Select
FRAMEWORKVERSION	QUANT	6.33	Framework Version
INSTRUMENTVERSION	LABEL	3.50	Instrument Version
ZCURVE	TABLE
	Pt	Time	Freq	Zreal	Zimag	Zsig	Zmod	Zphz	Idc	Vdc	IERange
	#	s	Hz	ohm	ohm	V	ohm	°	A	V	#
	0	1	1000078	2304.704	-1727.306	1	2880.147	-36.85045	-2.118719E-006	-0.1208481	8
	1	2	794390.6	2565.462	-1754.86	1	3108.235	-34.3734	6.449021E-007	-0.1213142	8
	2	4	630984.4	2811.478	-1789.417	1	3332.63	-32.47546	-7.093644E-007	-0.1213334	8
	3	5	501234.4	3036.12	-1825.857	1	3542.849	-31.0218	5.819074E-007	-0.1216563	8
	4	6	398109.4	3227.137	-1877.288	1	3733.446	-30.18739	1.59856E-006	-0.121995	8
	5	8	316265.6	3435.565	-1963.874	1	3957.26	-29.75361	-1.61189E-006	-0.1211568	8
	6	9	251203.1	3622.947	-2115.34	1	4195.284	-30.2795	-1.045086E-006	-0.1214602	8
	7	10	199546.9	3815.778	-2301.514	1	4456.134	-31.09658	1.553967E-006	-0.1220142	8
	8	12	158578.1	4016.976	-2549.259	1	4757.606	-32.40009	-5.81146E-007	-0.1215244	8
	9	13	125953.1	4292.835	-2827.007	1	5140.078	-33.36653	-1.081098E-006	-0.1194177	7
	10	14	100078.1	4506.623	-3239.648	1	5550.223	-35.71099	7.436475E-009	-0.1217392	7
	11	16	79453.13	4790.155	-3754.166	1	6085.997	-38.0867	-2.911795E-009	-0.1217214	7
	12	17	63140.62	5127	-4379.915	1	6743.129	-40.50674	-2.217869E-008	-0.1216417	7
	13	19	50203.12	5546.004	-5127.515	1	7553.117	-42.75469	3.082058E-008	-0.1217993	7
	14	20	39890.62	6066.251	-6031.2	1	8554.226	-44.83399	8.478823E-008	-0.1218822	7
	15	21	31640.63	6737.466	-7086.852	1	9778.39	-46.44774	-4.163603E-008	-0.1216943	7
	16	23	25171.88	7597.66	-8307.639	1	11257.94	-47.55587	-3.718291E-008	-0.1217333	7
	17	24	20015.62	8724.246	-9625.19	1	12990.64	-47.81093	-3.897331E-008	-0.1216982	7
	18	25	15890.62	10146	-11225.75	1	15131.39	-47.89227	2.700076E-008	-0.1217138	7
	19	27	12609.37	12213.64	-12595.88	1	17545.06	-45.88269	-7.987693E-009	-0.1215787	6
	20	28	10078.13	14421.89	-14142.32	1	20198.91	-44.43923	-4.045012E-009	-0.1216812	6
	21	30	8015.625	17202.96	-15244.25	1	22985.41	-41.54546	3.116831E-009	-0.1216683	6
	22	31	6328.125	20471.41	-16415.67	1	26240.29	-38.72552	-5.778538E-009	-0.1216861	6
	23	33	5015.625	23923.06	-16688.44	1	29168.76	-34.89917	-5.18175E-009	-0.1216863	6
	24	35	3984.375	27377.21	-16484.82	1	31957.17	-31.05369	-4.365941E-009	-0.1216902	6
	25	36	3170.956	30268.84	-15183.68	1	33863.65	-26.6396	5.728934E-009	-0.1217625	6
	26	38	2527.573	32768.26	-13872.86	1	35583.92	-22.94598	-3.796961E-009	-0.1217032	6
	27	39	1976.103	35661.66	-12895.21	1	37921.5	-19.87992	5.918338E-009	-0.1217632	6
	28	41	1577.524	37495.22	-11593.21	1	39246.58	-17.18117	2.587763E-012	-0.1216254	6
	29	42	1265.625	38569.52	-10315.38	1	39925.12	-14.97325	-7.136764E-009	-0.1215703	6
	30	44	998.264	38745.92	-8873.47	1	39749.02	-12.89925	1.067191E-008	-0.1218999	6
	31	45	796.875	40227.47	-8458.671	1	41107.16	-11.87465	3.178925E-009	-0.1217269	6
	32	47	627.7902	40476.26	-7926.192	1	41245.03	-11.07964	-1.278221E-009	-0.121624	6
	33	48	505.5147	40155.66	-7666.816	1	40881.01	-10.80925	-2.292555E-009	-0.1216087	6
	34	49	397.9953	41176.41	-7986.95	1	41943.87	-10.97729	-2.569279E-009	-0.1216688	6
	35	51	315.5048	41700.23	-8552.324	1	42568.2	-11.59011	-2.033641E-009	-0.1216707	6
	36	52	252.4038	41888.73	-9402.185	1	42930.96	-12.65072	-2.018366E-009	-0.1216695	6
	37	54	198.6229	42307.14	-10746.44	1	43650.66	-14.25228	-2.448108E-009	-0.1216656	6
	38	55	158.3615	43076.17	-12471.95	1	44845.36	-16.14745	-1.439972E-009	-0.1216724	6
	39	56	125.558	43603.99	-14758.91	1	46034.05	-18.69974	-1.861903E-009	-0.121671	6
	40	58	100.4464	43589.3	-17488.79	1	46966.84	-21.86152	-1.487862E-009	-0.1216718	6
	41	59	79.00281	45284.38	-21204.03	1	50002.86	-25.09095	-1.288527E-009	-0.1216717	6
	42	61	63.3446	46352.16	-25666.07	1	52983.67	-28.97413	-1.107908E-009	-0.121673	6
	43	63	49.86702	47161.29	-31034.74	1	56456.55	-33.34713	-7.555218E-010	-0.1216808	6
	44	64	39.72458	50301.82	-37485.5	1	62733.05	-36.6939	-1.902739E-009	-0.1216728	6
	45	66	31.6723	53361.29	-45203.43	1	69934.09	-40.26861	-1.058428E-009	-0.1216766	6
	46	67	24.93351	56650.91	-54837.68	1	78844.77	-44.06824	-4.495416E-010	-0.1216811	6
	47	69	19.86229	62242.29	-65655.06	1	90469.27	-46.5285	-2.142471E-010	-0.1216693	6
	48	70	15.83615	68292.73	-77980.13	1	103657.1	-48.78907	7.810272E-011	-0.1216724	5
	49	71	12.40079	77404.55	-93548.82	1	121420.1	-50.39482	-4.653563E-010	-0.1216748	5
	50	73	9.93114	87877.48	-109379.9	1	140308.3	-51.22107	6.321356E-011	-0.1216762	5
	51	74	7.944915	99236.6	-127035.3	1	161201.3	-52.004	-1.051512E-009	-0.1216683	5
	52	76	6.317385	115565.1	-146591.5	1	186666.5	-51.7496	-9.962972E-010	-0.1216611	5
	53	78	5.008013	134362.5	-168350	1	215395	-51.40614	7.849111E-011	-0.1216657	5
	54	81	3.945707	155326.7	-192403.7	1	247276.3	-51.0862	-1.183911E-010	-0.1216757	5
	55	83	3.158693	178235.5	-216492.2	1	280422.5	-50.53577	1.0916E-010	-0.1216584	5
	56	87	2.504006	204306.1	-244200.3	1	318394.1	-50.08303	-5.497617E-010	-0.1216787	5
	57	89	1.998082	230360.3	-273761.5	1	357786.6	-49.92062	-4.636432E-010	-0.121695	5
	58	92	1.584686	259425.7	-307363	1	402211	-49.8344	-1.547925E-010	-0.1216363	5
	59	96	1.266892	288770.7	-347084.2	1	451504.1	-50.23987	-2.537217E-010	-0.1217019	5
	60	100	0.999041	320663.7	-396293.3	1	509777.9	-51.02169	1.800427E-010	-0.1216335	5
