EXPLAIN
TAG	EISPOT
TITLE	LABEL	Potentiostatic EIS	Test &Identifier
DATE	LABEL	3/9/2020	Date
TIME	LABEL	20:48:01	Time
NOTES	NOTES	1	&Notes...
	
PSTAT	PSTAT	REF600-11020	Potentiostat
VDC	POTEN	0.00000E+000	T	DC &Voltage (V)
FREQINIT	QUANT	1.00000E+006	Initial Fre&q. (Hz)
FREQFINAL	QUANT	1.00000E+000	Final Fre&q. (Hz)
PTSPERDEC	QUANT	1.00000E+001	Points/&decade
VAC	QUANT	2.50000E+001	AC &Voltage (mV rms)
AREA	QUANT	4.00000E-005	&Area (cm^2)
CONDIT	TWOPARAM	F	5.00000E+000	0.00000E+000	Conditionin&g	Time(s)	E(V)
DELAY	TWOPARAM	T	3.00000E+000	0.00000E+000	Init. De&lay	Time(s)	Stab.(mV/s)
SPEED	SELECTOR	0	&Optimize for:
ZGUESS	QUANT	1.00000E+003	E&stimated Z (ohms)
OCVCURVE	TABLE	12
	Pt	T	Vf	Vm	Ach	Over
	#	s	V vs. Ref.	V	V	bits
	0	0.258333	3.24227E-002	3.24227E-002	5.54764E-004	...........
	1	0.516667	3.24226E-002	3.24200E-002	5.50097E-004	...........
	2	0.775	3.24223E-002	3.24178E-002	5.52330E-004	...........
	3	1.03333	3.24214E-002	3.24149E-002	5.56930E-004	...........
	4	1.29167	3.24199E-002	3.24143E-002	5.52397E-004	...........
	5	1.55	3.24180E-002	3.24112E-002	5.54430E-004	...........
	6	1.80833	3.24159E-002	3.24098E-002	5.53830E-004	...........
	7	2.06667	3.24138E-002	3.24065E-002	5.56164E-004	...........
	8	2.325	3.24116E-002	3.24022E-002	5.57664E-004	...........
	9	2.58333	3.24092E-002	3.24015E-002	5.58497E-004	...........
	10	2.84167	3.24065E-002	3.23988E-002	5.47730E-004	...........
	11	3.1	3.24038E-002	3.23949E-002	5.54030E-004	...........
EOC	QUANT	0.0324038	Open Circuit (V)
PSTATMODEL	IQUANT	4	Pstat Model
PSTATSECTION	LABEL	REF600-11020	Pstat Section
PSTATSERIALNO	LABEL	11020	Pstat Serial Number
CTRLMODE	IQUANT	1	Control Mode
IESTAB	IQUANT	0	I/E Stability
CASPEED	IQUANT	1	Control Amp Speed
CONVENTION	IQUANT	1	Current Convention
ICHRANGE	IQUANT	2	Ich Range
ICHRANGEMODE	TOGGLE	F	Ich Auto Range
ICHOFFSETENABLE	TOGGLE	T	Ich Offset Enable
ICHOFFSET	QUANT	0	Ich Offset (V)
ICHFILTER	IQUANT	3	Ich Filter
VCHRANGE	IQUANT	2	Vch Range
VCHRANGEMODE	TOGGLE	F	Vch Auto Range
VCHOFFSETENABLE	TOGGLE	T	Vch Offset Enable
VCHOFFSET	QUANT	0	Vch Offset (V)
VCHFILTER	IQUANT	3	Vch Filter
ACHRANGE	IQUANT	2	Ach Range
ACHOFFSETENABLE	TOGGLE	F	Ach Offset Enable
ACHOFFSET	QUANT	0	Ach Offset (V)
ACHFILTER	IQUANT	3	Ach Filter
IERANGELOWERLIMIT	IQUANT	1	I/E Range Lower Limit
IERANGEMODE	TOGGLE	F	I/E AutoRange
IERANGE	IQUANT	7	I/E Range
POSFEEDENABLE	TOGGLE	F	Positive Feedback IR Comp
POSFEEDRESISTANCE	QUANT	0	Positive Feedback Resistance (ohm)
ACHSELECT	IQUANT	0	Ach Select
CABLEID	IQUANT	14	Cable ID
DCCALDATE	LABEL	2/27/2020	DC Calibration Date
ACCALDATE	LABEL	2/27/2020	AC Calibration Date
THERMOSELECT	IQUANT	1	Thermo Select
FRAMEWORKVERSION	QUANT	6.33	Framework Version
INSTRUMENTVERSION	LABEL	3.50	Instrument Version
ZCURVE	TABLE
	Pt	Time	Freq	Zreal	Zimag	Zsig	Zmod	Zphz	Idc	Vdc	IERange
	#	s	Hz	ohm	ohm	V	ohm	°	A	V	#
	0	1	1000078	1770.069	-1782.652	1	2512.169	-45.20294	4.892016E-008	0.0348507	8
	1	1	794390.6	2026.575	-1918.26	1	2790.471	-43.42721	-6.196272E-009	0.0344964	8
	2	2	630984.4	2286.344	-2058.77	1	3076.671	-42.00189	5.809298E-008	0.034347	8
	3	2	501234.4	2547.549	-2214.471	1	3375.484	-40.99899	3.796968E-008	0.0342425	8
	4	2	398109.4	2807.348	-2405.037	1	3696.676	-40.58645	4.332045E-008	0.0341688	8
	5	3	316265.6	3075.025	-2636.067	1	4050.262	-40.60485	4.14342E-008	0.0341516	8
	6	3	251203.1	3364.415	-2909.385	1	4447.899	-40.85168	3.948856E-008	0.0341386	8
	7	3	199546.9	3687.476	-3256.025	1	4919.266	-41.44436	3.47521E-008	0.0341284	8
	8	4	158578.1	4060.365	-3670.493	1	5473.489	-42.11298	3.373781E-008	0.0341178	8
	9	4	125953.1	4623.936	-4104.66	1	6182.961	-41.59541	8.877116E-010	0.0340701	7
	10	4	100078.1	5139.714	-4668.783	1	6943.645	-42.25119	2.07197E-009	0.0340581	7
	11	5	79453.13	5812.478	-5313.648	1	7875.262	-42.43292	2.148062E-009	0.0340505	7
	12	5	63140.62	6643.739	-6004.644	1	8955.167	-42.10743	2.61906E-009	0.0340479	7
	13	5	50203.12	7666.044	-6686.135	1	10172.15	-41.09414	3.214293E-009	0.034055	7
	14	6	39890.62	8896.837	-7307.663	1	11513.28	-39.39892	2.812373E-009	0.0340541	7
	15	6	31640.63	10318.77	-7806.36	1	12938.95	-37.10825	2.130095E-009	0.0340473	7
	16	6	25171.88	11875.45	-8095.075	1	14372.08	-34.28086	1.834583E-009	0.0340425	7
	17	6	20015.62	13509.49	-8146.745	1	15775.8	-31.0916	2.12197E-009	0.0340365	7
	18	7	15890.62	15136.44	-7946.652	1	17095.65	-27.69953	2.855351E-009	0.0340342	7
	19	7	12609.37	16865.52	-7217.65	1	18345.04	-23.16865	6.658332E-010	0.0340948	6
	20	7	10078.13	18059.49	-6646.526	1	19243.74	-20.20539	4.003253E-010	0.0340913	6
	21	8	8015.625	19047.44	-5985.879	1	19965.86	-17.44593	4.9268E-010	0.0340977	6
	22	8	6328.125	19857.1	-5321.448	1	20557.78	-15.00203	6.378505E-010	0.0340945	6
	23	8	5015.625	20460.33	-4739.477	1	21002.09	-13.0421	5.719034E-010	0.0340964	6
	24	9	3984.375	20917.43	-4265.935	1	21348	-11.52692	3.998488E-010	0.0340934	6
	25	9	3170.956	21254.87	-3915.034	1	21612.43	-10.4366	4.740768E-010	0.0340949	6
	26	9	2527.573	21516.57	-3696.828	1	21831.84	-9.74898	1.634094E-010	0.0340888	6
	27	10	1976.103	21748.8	-3614.854	1	22047.16	-9.436827	2.171654E-010	0.0340949	6
	28	10	1577.524	21915.67	-3675.407	1	22221.73	-9.5203	1.960729E-010	0.0340868	6
	29	10	1265.625	22109.5	-3882.189	1	22447.75	-9.959	4.690786E-010	0.0340909	6
	30	11	998.264	22290.16	-4256.797	1	22692.98	-10.81171	3.99791E-010	0.0340956	6
	31	11	796.875	22489.42	-4778.344	1	22991.45	-11.9953	4.06248E-010	0.0340928	6
	32	11	627.7902	22730.18	-5528.964	1	23392.96	-13.67131	1.190286E-010	0.0340847	6
	33	12	505.5147	22995.6	-6410.529	1	23872.42	-15.57698	-9.553483E-011	0.0340854	6
	34	12	397.9953	23313.09	-7634.255	1	24531.24	-18.13189	4.797105E-010	0.0341026	6
	35	12	315.5048	23683.68	-9120.933	1	25379.28	-21.06243	4.007315E-010	0.0340991	6
	36	13	252.4038	24120.49	-10880.91	1	26461.14	-24.28045	3.426752E-010	0.0341008	6
	37	13	198.6229	24702.86	-13209.57	1	28012.93	-28.13513	2.862278E-010	0.0341007	6
	38	13	158.3615	25344.93	-15917.19	1	29928.62	-32.12976	2.461872E-010	0.0340968	6
	39	14	125.558	26164.99	-19320.93	1	32525.45	-36.44315	2.805658E-010	0.0340986	6
	40	14	100.4464	27155.21	-23323.77	1	35796.7	-40.65947	7.786487E-011	0.0340958	6
	41	14	79.00281	28490.79	-28605.96	1	40373.58	-45.11557	2.019068E-010	0.0340969	6
	42	15	63.3446	30085.25	-34545.4	1	45809.46	-48.94772	2.483673E-010	0.0340904	6
	43	15	49.86702	32330.07	-42381.93	1	53305.36	-52.66264	3.461808E-010	0.0340922	6
	44	15	39.72458	35200.14	-51436.84	1	62328.15	-55.61472	-1.09935E-010	0.0340969	6
	45	16	31.6723	38990.21	-62264.35	1	73464.86	-57.94501	-2.476911E-011	0.0340928	6
	46	16	24.93351	44336.34	-75942.65	1	87937.46	-59.72304	-3.13006E-011	0.0340907	6
	47	16	19.86229	51146.3	-91356.46	1	104699.3	-60.75753	-1.153739E-009	0.0340918	5
	48	16	15.83615	59951.82	-109160.3	1	124539.9	-61.224	1.240957E-009	0.0340938	5
	49	17	12.40079	72657.7	-131343.9	1	150101.2	-61.04921	2.738592E-010	0.0340977	5
	50	17	9.93114	87526.43	-154028.1	1	177159.6	-60.39261	8.51993E-010	0.0340848	5
	51	17	7.944915	105626.4	-179018.5	1	207857.1	-59.45809	1.310846E-009	0.0340905	5
	52	18	6.317385	129220.3	-207193.4	1	244186.4	-58.04945	-4.384175E-010	0.0341112	5
	53	19	5.008013	157642.4	-237320.4	1	284907.2	-56.40551	-2.312729E-010	0.0341011	5
	54	20	3.945707	190633.5	-269416.3	1	330039.8	-54.71755	4.613853E-010	0.0340937	5
	55	20	3.158693	225989.9	-300376.8	1	375895.8	-53.04387	-1.679785E-010	0.0341085	5
	56	21	2.504006	264943.3	-334656.9	1	426837.5	-51.63182	-2.20432E-010	0.0340958	5
	57	23	1.998082	304993	-369170.8	1	478861	-50.43795	1.613139E-010	0.0341329	5
	58	24	1.584686	346755.7	-410859.3	1	537628.9	-49.83641	1.711545E-010	0.0341331	5
	59	26	1.266892	387815.4	-455659.5	1	598353	-49.59863	8.001676E-011	0.0340903	5
	60	29	0.999041	433978.5	-512526.1	1	671580.4	-49.74393	2.314759E-011	0.034065	5
