EXPLAIN
TAG	EISPOT
TITLE	LABEL	Potentiostatic EIS	Test &Identifier
DATE	LABEL	6/14/2020	Date
TIME	LABEL	21:45:37	Time
NOTES	NOTES	1	&Notes...
	
PSTAT	PSTAT	REF600-10037	Potentiostat
VDC	POTEN	0.00000E+000	T	DC &Voltage (V)
FREQINIT	QUANT	1.00000E+006	Initial Fre&q. (Hz)
FREQFINAL	QUANT	1.00000E+000	Final Fre&q. (Hz)
PTSPERDEC	QUANT	1.00000E+001	Points/&decade
VAC	QUANT	2.50000E+001	AC &Voltage (mV rms)
AREA	QUANT	2.50000E-001	&Area (cm^2)
CONDIT	TWOPARAM	F	5.00000E+000	0.00000E+000	Conditionin&g	Time(s)	E(V)
DELAY	TWOPARAM	F	3.00000E+000	0.00000E+000	Init. De&lay	Time(s)	Stab.(mV/s)
SPEED	SELECTOR	0	&Optimize for:
ZGUESS	QUANT	1.00000E+003	E&stimated Z (ohms)
OCVCURVE	TABLE	39
	Pt	T	Vf	Vm	Ach	Over
	#	s	V vs. Ref.	V	V	bits
	0	0.258333	-1.69752E-002	-1.69752E-002	4.95288E-004	...........
	1	0.516667	-1.69749E-002	-1.69594E-002	4.92688E-004	...........
	2	0.775	-1.69731E-002	-1.69457E-002	4.90488E-004	...........
	3	1.03333	-1.69680E-002	-1.69358E-002	4.91555E-004	...........
	4	1.29167	-1.69594E-002	-1.69238E-002	4.96588E-004	...........
	5	1.55	-1.69485E-002	-1.69155E-002	4.93821E-004	...........
	6	1.80833	-1.69371E-002	-1.69060E-002	4.96488E-004	...........
	7	2.06667	-1.69264E-002	-1.69020E-002	4.91488E-004	...........
	8	2.325	-1.69169E-002	-1.68958E-002	4.94288E-004	...........
	9	2.58333	-1.69088E-002	-1.68853E-002	4.89321E-004	...........
	10	2.84167	-1.69017E-002	-1.68832E-002	4.93188E-004	...........
	11	3.1	-1.68951E-002	-1.68822E-002	4.88821E-004	...........
	12	3.35833	-1.68893E-002	-1.68768E-002	4.90588E-004	...........
	13	3.61667	-1.68847E-002	-1.68734E-002	4.92121E-004	...........
	14	3.875	-1.68809E-002	-1.68722E-002	4.91255E-004	...........
	15	4.13333	-1.68776E-002	-1.68705E-002	4.92188E-004	...........
	16	4.39167	-1.68749E-002	-1.68735E-002	4.94721E-004	...........
	17	4.65	-1.68730E-002	-1.68686E-002	4.94055E-004	...........
	18	4.90833	-1.68718E-002	-1.68671E-002	4.96588E-004	...........
	19	5.16667	-1.68708E-002	-1.68677E-002	4.96121E-004	...........
	20	5.425	-1.68696E-002	-1.68685E-002	4.95488E-004	...........
	21	5.68333	-1.68686E-002	-1.68688E-002	4.95155E-004	...........
	22	5.94167	-1.68682E-002	-1.68698E-002	4.94588E-004	...........
	23	6.2	-1.68684E-002	-1.68721E-002	4.94221E-004	...........
	24	6.45833	-1.68691E-002	-1.68732E-002	4.92821E-004	...........
	25	6.71667	-1.68702E-002	-1.68759E-002	4.92188E-004	...........
	26	6.975	-1.68717E-002	-1.68771E-002	4.92655E-004	...........
	27	7.23333	-1.68735E-002	-1.68826E-002	4.91288E-004	...........
	28	7.49167	-1.68758E-002	-1.68876E-002	4.90121E-004	...........
	29	7.75	-1.68786E-002	-1.68865E-002	4.88555E-004	...........
	30	8.00833	-1.68818E-002	-1.68872E-002	4.90488E-004	...........
	31	8.26667	-1.68846E-002	-1.68896E-002	4.90721E-004	...........
	32	8.525	-1.68866E-002	-1.68935E-002	4.92888E-004	...........
	33	8.78333	-1.68883E-002	-1.68969E-002	4.91955E-004	...........
	34	9.04167	-1.68905E-002	-1.69001E-002	4.91321E-004	...........
	35	9.3	-1.68933E-002	-1.69033E-002	4.95488E-004	...........
	36	9.5583	-1.68965E-002	-1.69084E-002	4.94355E-004	...........
	37	9.8167	-1.68999E-002	-1.69118E-002	4.96488E-004	...........
	38	10.075	-1.69037E-002	-1.69178E-002	4.93655E-004	...........
EOC	QUANT	-0.0169037	Open Circuit (V)
PSTATMODEL	IQUANT	4	Pstat Model
PSTATSECTION	LABEL	REF600-10037	Pstat Section
PSTATSERIALNO	LABEL	10037	Pstat Serial Number
CTRLMODE	IQUANT	1	Control Mode
IESTAB	IQUANT	0	I/E Stability
CASPEED	IQUANT	1	Control Amp Speed
CONVENTION	IQUANT	1	Current Convention
ICHRANGE	IQUANT	2	Ich Range
ICHRANGEMODE	TOGGLE	F	Ich Auto Range
ICHOFFSETENABLE	TOGGLE	T	Ich Offset Enable
ICHOFFSET	QUANT	0	Ich Offset (V)
ICHFILTER	IQUANT	3	Ich Filter
VCHRANGE	IQUANT	2	Vch Range
VCHRANGEMODE	TOGGLE	F	Vch Auto Range
VCHOFFSETENABLE	TOGGLE	T	Vch Offset Enable
VCHOFFSET	QUANT	0	Vch Offset (V)
VCHFILTER	IQUANT	3	Vch Filter
ACHRANGE	IQUANT	2	Ach Range
ACHOFFSETENABLE	TOGGLE	F	Ach Offset Enable
ACHOFFSET	QUANT	0	Ach Offset (V)
ACHFILTER	IQUANT	3	Ach Filter
IERANGELOWERLIMIT	IQUANT	1	I/E Range Lower Limit
IERANGEMODE	TOGGLE	F	I/E AutoRange
IERANGE	IQUANT	7	I/E Range
POSFEEDENABLE	TOGGLE	F	Positive Feedback IR Comp
POSFEEDRESISTANCE	QUANT	0	Positive Feedback Resistance (ohm)
ACHSELECT	IQUANT	0	Ach Select
CABLEID	IQUANT	14	Cable ID
DCCALDATE	LABEL	6/8/2020	DC Calibration Date
ACCALDATE	LABEL	6/8/2020	AC Calibration Date
THERMOSELECT	IQUANT	1	Thermo Select
FRAMEWORKVERSION	QUANT	6.33	Framework Version
INSTRUMENTVERSION	LABEL	3.50	Instrument Version
ZCURVE	TABLE
	Pt	Time	Freq	Zreal	Zimag	Zsig	Zmod	Zphz	Idc	Vdc	IERange
	#	s	Hz	ohm	ohm	V	ohm	°	A	V	#
	0	1	1000078	1761.973	-1246.779	1	2158.473	-35.28337	-9.712402E-008	-0.0080064	8
	1	1	794390.6	1948.551	-1310.36	1	2348.169	-33.92002	3.181733E-007	-0.0082787	8
	2	2	630984.4	2139.132	-1382.096	1	2546.777	-32.86657	7.179354E-008	-0.0083832	8
	3	2	501234.4	2337.323	-1456.249	1	2753.859	-31.92462	-3.023215E-008	-0.0084745	8
	4	2	398109.4	2550.729	-1534.059	1	2976.5	-31.02353	2.530336E-007	-0.0084758	8
	5	3	316265.6	2770.456	-1616.497	1	3207.567	-30.26257	3.051366E-007	-0.0085362	8
	6	3	251203.1	3008.145	-1704.865	1	3457.673	-29.54238	1.955265E-008	-0.0084526	8
	7	3	199546.9	3257.538	-1800.631	1	3722.073	-28.93198	-2.096765E-008	-0.0085172	8
	8	4	158578.1	3514.843	-1889.033	1	3990.309	-28.25556	7.253606E-008	-0.008483	8
	9	4	125953.1	3900.977	-1869.367	1	4325.755	-25.60397	1.489549E-007	-0.008767	7
	10	4	100078.1	4171.204	-1978.112	1	4616.478	-25.37173	-4.021193E-008	-0.0084018	7
	11	5	79453.13	4458.146	-2103.56	1	4929.506	-25.26011	-3.744592E-008	-0.0084795	7
	12	5	63140.62	4762.814	-2229.381	1	5258.758	-25.08338	-5.257143E-008	-0.0084661	7
	13	5	50203.12	5082.572	-2359.149	1	5603.403	-24.89906	6.165814E-008	-0.0085567	7
	14	6	39890.62	5426.781	-2494.153	1	5972.5	-24.68355	3.106641E-008	-0.0084841	7
	15	6	31640.63	5794.679	-2638.9	1	6367.268	-24.48454	6.310606E-008	-0.0085641	7
	16	6	25171.88	6178.23	-2782.721	1	6775.992	-24.24716	5.498651E-008	-0.0085281	7
	17	7	20015.62	6581.336	-2929.718	1	7203.974	-23.9965	6.016722E-008	-0.0085313	7
	18	7	15890.62	7009.804	-3086.361	1	7659.175	-23.76351	5.240602E-008	-0.0085828	7
	19	7	12609.37	7453.027	-3239.947	1	8126.799	-23.49533	-2.31635E-008	-0.0084298	7
	20	7	10078.13	7905.596	-3402.721	1	8606.797	-23.28798	2.500009E-008	-0.0085697	7
	21	8	8015.625	8374.841	-3571.846	1	9104.727	-23.09811	5.331488E-008	-0.0085281	7
	22	8	6328.125	8969.141	-3606.104	1	9666.93	-21.90293	7.528599E-009	-0.0085526	6
	23	8	5015.625	9456.627	-3845.513	1	10208.61	-22.12899	-9.576856E-009	-0.0084174	6
	24	9	3984.375	9959.06	-4104.921	1	10771.88	-22.40045	-7.986816E-009	-0.0084593	6
	25	9	3170.956	10473.17	-4396.642	1	11358.6	-22.77268	8.302438E-009	-0.008606	6
	26	9	2527.573	11006.12	-4734.036	1	11981.06	-23.27387	8.53388E-009	-0.008601	6
	27	10	1976.103	11609.02	-5161.12	1	12704.58	-23.9689	-9.606249E-009	-0.0084216	6
	28	10	1577.524	12190.86	-5624.421	1	13425.77	-24.76688	-1.245662E-010	-0.0085861	6
	29	10	1265.625	12792.89	-6162.084	1	14199.63	-25.7192	-2.03169E-009	-0.0084129	6
	30	11	998.264	13492.55	-6853.926	1	15133.58	-26.92959	-4.654999E-009	-0.0083823	6
	31	11	796.875	14225.57	-7634.726	1	16144.84	-28.22203	-2.23672E-009	-0.0084157	6
	32	11	627.7902	15105.4	-8620.459	1	17392.11	-29.71285	-7.975384E-009	-0.008463	6
	33	12	505.5147	16022.1	-9645.08	1	18701.21	-31.04733	6.238253E-009	-0.0085179	6
	34	12	397.9953	17156	-10942.59	1	20348.68	-32.5309	2.914439E-010	-0.0084872	6
	35	12	315.5048	18411.33	-12355.18	1	22172.67	-33.86414	1.128656E-010	-0.008491	6
	36	13	252.4038	19755.68	-13871.32	1	24139.19	-35.07437	2.959041E-010	-0.0084956	6
	37	13	198.6229	21334	-15711.88	1	26495.33	-36.37058	4.906661E-010	-0.008491	6
	38	13	158.3615	22874.33	-17677.26	1	28908.83	-37.69682	2.971803E-010	-0.0084963	6
	39	14	125.558	24510.37	-20043.79	1	31662.47	-39.27519	1.806987E-010	-0.0084899	6
	40	14	100.4464	26191.59	-22812.59	1	34733.46	-41.0555	3.925008E-010	-0.0084954	6
	41	14	79.00281	28105.1	-26461.62	1	38601.99	-43.27485	3.392189E-010	-0.0084925	6
	42	15	63.3446	30032.91	-30587.38	1	42866.81	-45.52404	3.712018E-010	-0.0084946	6
	43	15	49.86702	32500.33	-36089.74	1	48566.87	-47.99563	6.543544E-010	-0.0084959	6
	44	15	39.72458	35365.96	-42506.33	1	55295.02	-50.23899	6.443893E-010	-0.008491	6
	45	16	31.6723	38915.95	-50186.4	1	63506.89	-52.209	9.104071E-010	-0.0085008	6
	46	16	24.93351	43544.16	-59828.23	1	73996.7	-53.95214	8.328516E-010	-0.0084993	6
	47	16	19.86229	47787.84	-70134.16	1	84867.41	-55.73036	-7.191952E-009	-0.0171365	6
	48	17	15.83615	54947.5	-82679.48	1	99273	-56.3926	-4.5649E-009	-0.017143	6
	49	17	12.40079	63899.18	-97934.3	1	116936.9	-56.87676	-3.430117E-009	-0.0171301	5
	50	17	9.93114	74206.02	-113999.7	1	136023.8	-56.93863	-2.715351E-009	-0.017133	5
	51	18	7.944915	86702.94	-132038.5	1	157960.6	-56.70914	-2.31243E-009	-0.0171317	5
	52	18	6.317385	101695.2	-152500.4	1	183298.3	-56.30259	-1.352275E-009	-0.0171288	5
	53	19	5.008013	119548.7	-175558.4	1	212397.4	-55.7466	-9.690009E-010	-0.0171242	5
	54	20	3.945707	140411.4	-201643.8	1	245714.4	-55.14919	-6.436821E-010	-0.0171318	5
	55	21	3.158693	162288.4	-228618.8	1	280364.2	-54.63041	-5.222777E-010	-0.0171263	5
	56	23	2.504006	187453.5	-260022.7	1	320547.4	-54.21172	-3.467468E-010	-0.0171279	5
	57	24	1.998082	212858.9	-294732.4	1	363560.3	-54.16279	-2.678527E-010	-0.0171326	5
	58	26	1.584686	240041.5	-336168.5	1	413072.9	-54.47123	-1.306564E-010	-0.0171348	5
	59	29	1.266892	267410.8	-383947.3	1	467893.2	-55.14364	-6.885238E-011	-0.0171381	5
	60	32	0.999041	298019.9	-445838.7	1	536272.3	-56.23934	-6.440112E-011	-0.0171352	5
