EXPLAIN
TAG	EISPOT
TITLE	LABEL	Potentiostatic EIS	Test &Identifier
DATE	LABEL	3/12/2020	Date
TIME	LABEL	13:47:48	Time
NOTES	NOTES	1	&Notes...
	
PSTAT	PSTAT	REF600-11020	Potentiostat
VDC	POTEN	0.00000E+000	T	DC &Voltage (V)
FREQINIT	QUANT	1.00000E+006	Initial Fre&q. (Hz)
FREQFINAL	QUANT	1.00000E+000	Final Fre&q. (Hz)
PTSPERDEC	QUANT	1.00000E+001	Points/&decade
VAC	QUANT	2.50000E+001	AC &Voltage (mV rms)
AREA	QUANT	2.50000E-001	&Area (cm^2)
CONDIT	TWOPARAM	F	5.00000E+000	0.00000E+000	Conditionin&g	Time(s)	E(V)
DELAY	TWOPARAM	T	5.00000E+000	0.00000E+000	Init. De&lay	Time(s)	Stab.(mV/s)
SPEED	SELECTOR	1	&Optimize for:
ZGUESS	QUANT	5.00000E+003	E&stimated Z (ohms)
OCVCURVE	TABLE	19
	Pt	T	Vf	Vm	Ach	Over
	#	s	V vs. Ref.	V	V	bits
	0	0.258333	5.77222E-003	5.77222E-003	5.71597E-004	...........
	1	0.516667	5.77071E-003	5.69337E-003	5.70997E-004	...........
	2	0.775	5.76145E-003	5.61799E-003	5.70563E-004	...........
	3	1.03333	5.73517E-003	5.54380E-003	5.68530E-004	...........
	4	1.29167	5.68789E-003	5.47036E-003	5.67730E-004	...........
	5	1.55	5.62443E-003	5.40510E-003	5.65164E-004	...........
	6	1.80833	5.55363E-003	5.34983E-003	5.74430E-004	...........
	7	2.06667	5.48302E-003	5.29185E-003	5.76330E-004	...........
	8	2.325	5.41653E-003	5.22932E-003	5.74930E-004	...........
	9	2.58333	5.35411E-003	5.16644E-003	5.71397E-004	...........
	10	2.84167	5.29347E-003	5.10103E-003	5.69830E-004	...........
	11	3.1	5.23251E-003	5.04315E-003	5.72397E-004	...........
	12	3.35833	5.17071E-003	4.98057E-003	5.70297E-004	...........
	13	3.61667	5.10877E-003	4.92290E-003	5.71530E-004	...........
	14	3.875	5.04746E-003	4.86578E-003	5.71463E-004	...........
	15	4.13333	4.98736E-003	4.81417E-003	5.73163E-004	...........
	16	4.39167	4.92902E-003	4.76033E-003	5.74663E-004	...........
	17	4.65	4.87267E-003	4.70603E-003	5.73730E-004	...........
	18	4.90833	4.81793E-003	4.65329E-003	5.76197E-004	...........
EOC	QUANT	0.0048179	Open Circuit (V)
PSTATMODEL	IQUANT	4	Pstat Model
PSTATSECTION	LABEL	REF600-11020	Pstat Section
PSTATSERIALNO	LABEL	11020	Pstat Serial Number
CTRLMODE	IQUANT	1	Control Mode
IESTAB	IQUANT	0	I/E Stability
CASPEED	IQUANT	1	Control Amp Speed
CONVENTION	IQUANT	1	Current Convention
ICHRANGE	IQUANT	2	Ich Range
ICHRANGEMODE	TOGGLE	F	Ich Auto Range
ICHOFFSETENABLE	TOGGLE	T	Ich Offset Enable
ICHOFFSET	QUANT	0	Ich Offset (V)
ICHFILTER	IQUANT	3	Ich Filter
VCHRANGE	IQUANT	2	Vch Range
VCHRANGEMODE	TOGGLE	F	Vch Auto Range
VCHOFFSETENABLE	TOGGLE	T	Vch Offset Enable
VCHOFFSET	QUANT	0	Vch Offset (V)
VCHFILTER	IQUANT	3	Vch Filter
ACHRANGE	IQUANT	2	Ach Range
ACHOFFSETENABLE	TOGGLE	F	Ach Offset Enable
ACHOFFSET	QUANT	0	Ach Offset (V)
ACHFILTER	IQUANT	3	Ach Filter
IERANGELOWERLIMIT	IQUANT	1	I/E Range Lower Limit
IERANGEMODE	TOGGLE	F	I/E AutoRange
IERANGE	IQUANT	6	I/E Range
POSFEEDENABLE	TOGGLE	F	Positive Feedback IR Comp
POSFEEDRESISTANCE	QUANT	0	Positive Feedback Resistance (ohm)
ACHSELECT	IQUANT	0	Ach Select
CABLEID	IQUANT	14	Cable ID
DCCALDATE	LABEL	2/27/2020	DC Calibration Date
ACCALDATE	LABEL	2/27/2020	AC Calibration Date
THERMOSELECT	IQUANT	1	Thermo Select
FRAMEWORKVERSION	QUANT	6.33	Framework Version
INSTRUMENTVERSION	LABEL	3.50	Instrument Version
ZCURVE	TABLE
	Pt	Time	Freq	Zreal	Zimag	Zsig	Zmod	Zphz	Idc	Vdc	IERange
	#	s	Hz	ohm	ohm	V	ohm	°	A	V	#
	0	1	1000078	1458.649	-2269.471	1	2697.805	-57.27007	-2.33259E-006	0.0071589	8
	1	2	794390.6	1734.276	-2568.119	1	3098.862	-55.96845	1.616247E-006	0.0066152	8
	2	4	630984.4	2021.757	-2892.938	1	3529.39	-55.05186	-1.993205E-006	0.0069937	8
	3	5	501234.4	2354.934	-3298.393	1	4052.79	-54.47453	1.325372E-006	0.00635	8
	4	6	398109.4	2714.439	-3740.939	1	4621.992	-54.03523	1.718631E-008	0.0064079	8
	5	8	316265.6	3134.313	-4268.337	1	5295.528	-53.70953	-3.002988E-007	0.0064841	8
	6	9	251203.1	3567.674	-4882.586	1	6047.144	-53.84464	1.139638E-006	0.0062843	8
	7	10	199546.9	4084.701	-5603.084	1	6933.926	-53.9076	7.002104E-007	0.0062833	8
	8	12	158578.1	4694.642	-6399.841	1	7937.104	-53.73787	9.868344E-007	0.0061964	8
	9	13	125953.1	5475.1	-7343.09	1	9159.568	-53.29133	5.921555E-007	0.0052774	7
	10	15	100078.1	6353.254	-8434.526	1	10559.6	-53.01134	-2.071412E-008	0.0063705	7
	11	16	79453.13	7402.211	-9708.75	1	12208.71	-52.67714	-2.757709E-008	0.0063683	7
	12	18	63140.62	8670.279	-11115.58	1	14097.16	-52.04536	-2.724219E-008	0.0063674	7
	13	19	50203.12	10215.69	-12675.78	1	16279.92	-51.13388	1.42194E-008	0.0063181	7
	14	20	39890.62	12064.35	-14322.86	1	18726.79	-49.89209	1.412266E-008	0.0063126	7
	15	22	31640.63	14326.69	-16023.94	1	21494.67	-48.20072	6.749163E-009	0.0063	7
	16	23	25171.88	16906.13	-17718.52	1	24490.06	-46.34409	1.434613E-008	0.0063181	7
	17	24	20015.62	19885	-19340.67	1	27739.41	-44.20497	-1.842302E-008	0.006381	7
	18	26	15890.62	23278.07	-20799.58	1	31216.84	-41.78164	-1.210036E-008	0.0063763	7
	19	28	12609.37	27141.22	-21804.65	1	34815.06	-38.77762	2.586832E-011	0.0063771	6
	20	29	10078.13	30932.82	-22646.91	1	38336.95	-36.20905	8.467565E-009	0.0062999	6
	21	31	8015.625	34936.57	-23129.73	1	41899.27	-33.50652	4.083411E-010	0.0063322	6
	22	32	6328.125	39104.11	-23292.82	1	45515.79	-30.78064	9.691785E-009	0.0062335	6
	23	34	5015.625	43155.06	-23171.16	1	48982.26	-28.23259	-1.451193E-009	0.006451	6
	24	35	3984.375	46991.42	-22735.19	1	52202.32	-25.81843	1.680845E-009	0.0064341	6
	25	37	3170.956	50628.5	-22054.46	1	55223.59	-23.53859	1.987054E-009	0.0063158	6
	26	39	2527.573	54014.6	-21229.59	1	58036.82	-21.45653	5.428875E-010	0.0063397	6
	27	40	1976.103	57504.35	-20279.41	1	60975.45	-19.42564	5.288962E-009	0.0063884	6
	28	42	1577.524	60338.74	-19254.36	1	63336.36	-17.69811	-3.010142E-009	0.0064542	6
	29	44	1265.625	62956.88	-18343.59	1	65574.81	-16.24441	-2.9358E-009	0.0064454	6
	30	45	998.264	65358.89	-17252.9	1	67597.69	-14.78717	5.468586E-009	0.0063848	6
	31	46	796.875	67241.25	-16471.45	1	69229.29	-13.76417	3.396336E-010	0.0064336	6
	32	48	627.7902	69043.2	-15821.07	1	70832.69	-12.90636	1.534927E-009	0.0063549	6
	33	49	505.5147	70580.8	-15672.07	1	72299.82	-12.5191	-2.321174E-009	0.0064428	6
	34	51	397.9953	71983.45	-15670.25	1	73669.35	-12.28125	2.692938E-009	0.0063822	6
	35	52	315.5048	73242.19	-16213.42	1	75015.28	-12.48212	2.603299E-009	0.0063847	6
	36	53	252.4038	74484.06	-17180.84	1	76439.89	-12.98893	1.977498E-009	0.006378	6
	37	55	198.6229	75751.45	-18779.34	1	78044.51	-13.92334	2.186685E-009	0.0063817	6
	38	56	158.3615	77141.8	-20953.14	1	79936.8	-15.19597	1.769533E-009	0.0063802	6
	39	58	125.558	78721.77	-23767.99	1	82231.59	-16.80033	1.983473E-009	0.0063835	6
	40	59	100.4464	80588.23	-27218.25	1	85060.54	-18.66212	1.689388E-009	0.0063869	6
	41	61	79.00281	82961.76	-31967.79	1	88907.77	-21.07325	1.683626E-009	0.0063855	6
	42	62	63.3446	84928.92	-36220.91	1	92330.26	-23.09752	1.351808E-009	0.0063882	5
	43	64	49.86702	89080.74	-43421.54	1	99100	-25.98647	1.061637E-009	0.0063834	5
	44	66	39.72458	93005.91	-50874.25	1	106010.8	-28.67867	1.36442E-009	0.0063866	5
	45	67	31.6723	98098.3	-59339.78	1	114649.4	-31.16979	1.050739E-009	0.0063907	5
	46	69	24.93351	104523	-69825.03	1	125700.4	-33.74432	8.531281E-010	0.006385	5
	47	70	19.86229	112001.7	-81049.56	1	138251.3	-35.89123	1.199429E-009	0.0063866	5
	48	71	15.83615	119776.7	-93064.15	1	151681.9	-37.8465	1.315877E-009	0.0063898	5
	49	73	12.40079	131343	-108880.6	1	170604.7	-39.65803	1.09975E-009	0.0063947	5
	50	74	9.93114	143531.9	-124255.9	1	189844.4	-40.88281	2.25134E-010	0.0063997	5
	51	76	7.944915	156378.9	-141214.4	1	210703.2	-42.08289	1.28601E-009	0.0063957	5
	52	78	6.317385	171528.1	-162028.2	1	235955.5	-43.36863	9.194781E-011	0.0064017	5
	53	80	5.008013	188824.3	-185680.8	1	264824.5	-44.51909	1.511283E-010	0.0063883	5
	54	82	3.945707	208175.2	-214088.9	1	298615.1	-45.80236	9.807846E-011	0.0063934	5
	55	85	3.158693	228736.5	-244817	1	335045.9	-46.94486	2.992378E-010	0.0063871	5
	56	89	2.504006	253099.5	-282809.1	1	379526.4	-48.1731	-5.199442E-011	0.0063936	5
	57	91	1.998082	279704.7	-325276.3	1	428998.1	-49.30781	3.593245E-010	0.006345	5
	58	94	1.584686	311195.7	-377588.4	1	489301.3	-50.5058	7.678493E-011	0.0063823	5
	59	98	1.266892	347854	-435695.6	1	557524	-51.39656	2.094232E-010	0.0063461	5
	60	102	0.999041	392626.1	-507391.9	1	641562	-52.26685	2.819872E-010	0.0064347	5
