EXPLAIN
TAG	EISPOT
TITLE	LABEL	Potentiostatic EIS	Test &Identifier
DATE	LABEL	6/19/2020	Date
TIME	LABEL	16:43:52	Time
NOTES	NOTES	1	&Notes...
	
PSTAT	PSTAT	REF600-10037	Potentiostat
VDC	POTEN	0.00000E+000	T	DC &Voltage (V)
FREQINIT	QUANT	1.00000E+006	Initial Fre&q. (Hz)
FREQFINAL	QUANT	1.00000E+000	Final Fre&q. (Hz)
PTSPERDEC	QUANT	1.00000E+001	Points/&decade
VAC	QUANT	1.00000E+002	AC &Voltage (mV rms)
AREA	QUANT	2.50000E-001	&Area (cm^2)
CONDIT	TWOPARAM	F	5.00000E+000	0.00000E+000	Conditionin&g	Time(s)	E(V)
DELAY	TWOPARAM	F	5.00000E+000	0.00000E+000	Init. De&lay	Time(s)	Stab.(mV/s)
SPEED	SELECTOR	0	&Optimize for:
ZGUESS	QUANT	1.00000E+003	E&stimated Z (ohms)
OCVCURVE	TABLE	39
	Pt	T	Vf	Vm	Ach	Over
	#	s	V vs. Ref.	V	V	bits
	0	0.258333	7.37518E-002	7.37518E-002	5.29454E-004	...........
	1	0.516667	7.37520E-002	7.37620E-002	5.34421E-004	...........
	2	0.775	7.37532E-002	7.37737E-002	5.32554E-004	...........
	3	1.03333	7.37569E-002	7.37874E-002	5.30654E-004	...........
	4	1.29167	7.37640E-002	7.38034E-002	5.28521E-004	...........
	5	1.55	7.37744E-002	7.38183E-002	5.29254E-004	...........
	6	1.80833	7.37873E-002	7.38277E-002	5.27921E-004	...........
	7	2.06667	7.38011E-002	7.38396E-002	5.20521E-004	...........
	8	2.325	7.38144E-002	7.38463E-002	5.24387E-004	...........
	9	2.58333	7.38264E-002	7.38558E-002	5.23921E-004	...........
	10	2.84167	7.38370E-002	7.38705E-002	5.21954E-004	...........
	11	3.1	7.38471E-002	7.38824E-002	5.24787E-004	...........
	12	3.35833	7.38578E-002	7.39004E-002	5.24921E-004	...........
	13	3.61667	7.38697E-002	7.39062E-002	5.22121E-004	...........
	14	3.875	7.38825E-002	7.39194E-002	5.19288E-004	...........
	15	4.13333	7.38949E-002	7.39238E-002	5.23487E-004	...........
	16	4.39167	7.39062E-002	7.39369E-002	5.21454E-004	...........
	17	4.65	7.39163E-002	7.39504E-002	5.24387E-004	...........
	18	4.90833	7.39265E-002	7.39677E-002	5.21888E-004	...........
	19	5.16667	7.39379E-002	7.39807E-002	5.20821E-004	...........
	20	5.425	7.39508E-002	7.39904E-002	5.24554E-004	...........
	21	5.68333	7.39644E-002	7.40014E-002	5.26621E-004	...........
	22	5.94167	7.39774E-002	7.40075E-002	5.27621E-004	...........
	23	6.2	7.39889E-002	7.40186E-002	5.25254E-004	...........
	24	6.45833	7.39992E-002	7.40348E-002	5.27987E-004	...........
	25	6.71667	7.40094E-002	7.40487E-002	5.25921E-004	...........
	26	6.975	7.40207E-002	7.40600E-002	5.27954E-004	...........
	27	7.23333	7.40330E-002	7.40655E-002	5.28521E-004	...........
	28	7.49167	7.40452E-002	7.40727E-002	5.28521E-004	...........
	29	7.75	7.40560E-002	7.40815E-002	5.26287E-004	...........
	30	8.00833	7.40650E-002	7.40924E-002	5.30987E-004	...........
	31	8.26667	7.40735E-002	7.41046E-002	5.22787E-004	...........
	32	8.525	7.40826E-002	7.41198E-002	5.27721E-004	...........
	33	8.78333	7.40930E-002	7.41314E-002	5.28254E-004	...........
	34	9.04167	7.41048E-002	7.41405E-002	5.25021E-004	...........
	35	9.3	7.41169E-002	7.41462E-002	5.29954E-004	...........
	36	9.5583	7.41282E-002	7.41540E-002	5.22954E-004	...........
	37	9.8167	7.41379E-002	7.41630E-002	5.28187E-004	...........
	38	10.075	7.41463E-002	7.41680E-002	5.21087E-004	...........
EOC	QUANT	0.0741463	Open Circuit (V)
PSTATMODEL	IQUANT	4	Pstat Model
PSTATSECTION	LABEL	REF600-10037	Pstat Section
PSTATSERIALNO	LABEL	10037	Pstat Serial Number
CTRLMODE	IQUANT	1	Control Mode
IESTAB	IQUANT	0	I/E Stability
CASPEED	IQUANT	1	Control Amp Speed
CONVENTION	IQUANT	1	Current Convention
ICHRANGE	IQUANT	2	Ich Range
ICHRANGEMODE	TOGGLE	F	Ich Auto Range
ICHOFFSETENABLE	TOGGLE	T	Ich Offset Enable
ICHOFFSET	QUANT	0	Ich Offset (V)
ICHFILTER	IQUANT	3	Ich Filter
VCHRANGE	IQUANT	2	Vch Range
VCHRANGEMODE	TOGGLE	F	Vch Auto Range
VCHOFFSETENABLE	TOGGLE	T	Vch Offset Enable
VCHOFFSET	QUANT	0	Vch Offset (V)
VCHFILTER	IQUANT	3	Vch Filter
ACHRANGE	IQUANT	2	Ach Range
ACHOFFSETENABLE	TOGGLE	F	Ach Offset Enable
ACHOFFSET	QUANT	0	Ach Offset (V)
ACHFILTER	IQUANT	3	Ach Filter
IERANGELOWERLIMIT	IQUANT	1	I/E Range Lower Limit
IERANGEMODE	TOGGLE	F	I/E AutoRange
IERANGE	IQUANT	8	I/E Range
POSFEEDENABLE	TOGGLE	F	Positive Feedback IR Comp
POSFEEDRESISTANCE	QUANT	0	Positive Feedback Resistance (ohm)
ACHSELECT	IQUANT	0	Ach Select
CABLEID	IQUANT	14	Cable ID
DCCALDATE	LABEL	6/8/2020	DC Calibration Date
ACCALDATE	LABEL	6/8/2020	AC Calibration Date
THERMOSELECT	IQUANT	1	Thermo Select
FRAMEWORKVERSION	QUANT	6.33	Framework Version
INSTRUMENTVERSION	LABEL	3.50	Instrument Version
ZCURVE	TABLE
	Pt	Time	Freq	Zreal	Zimag	Zsig	Zmod	Zphz	Idc	Vdc	IERange
	#	s	Hz	ohm	ohm	V	ohm	°	A	V	#
	0	2	1000078	1988.848	-2047.462	1	2854.403	-45.83196	5.987079E-008	0.0831736	8
	1	2	794390.6	2403.101	-2173.372	1	3240.129	-42.12628	8.635892E-008	0.0829663	8
	2	3	630984.4	2846.964	-2234.103	1	3618.897	-38.12241	5.771065E-008	0.0827364	8
	3	3	501234.4	3297.946	-2213.556	1	3971.936	-33.86921	6.920246E-008	0.0827328	8
	4	3	398109.4	3721.58	-2132.086	1	4289.05	-29.80831	1.432146E-007	0.0826199	8
	5	4	316265.6	4104.273	-1999.16	1	4565.271	-25.97036	9.021552E-008	0.0826091	8
	6	4	251203.1	4427.841	-1830.49	1	4791.291	-22.46043	7.57741E-008	0.0826129	8
	7	4	199546.9	4702.36	-1661.751	1	4987.344	-19.46272	6.211331E-008	0.0826532	8
	8	5	158578.1	4915.373	-1488.274	1	5135.742	-16.84524	1.054169E-007	0.0826626	8
	9	5	125953.1	5166.804	-1233.712	1	5312.053	-13.42943	-9.24145E-009	0.0826752	7
	10	5	100078.1	5303.919	-1101.019	1	5416.992	-11.72724	-1.158061E-009	0.0826615	7
	11	6	79453.13	5416.156	-1019.971	1	5511.359	-10.66504	1.907605E-008	0.0826443	7
	12	6	63140.62	5498.333	-956.23	1	5580.864	-9.86579	9.826317E-009	0.0826324	7
	13	6	50203.12	5581.964	-920.0701	1	5657.283	-9.359852	1.325643E-008	0.0826117	7
	14	6	39890.62	5673.326	-909.2479	1	5745.725	-9.105203	1.453316E-008	0.0825954	7
	15	7	31640.63	5743.652	-916.9118	1	5816.379	-9.070118	5.76491E-009	0.0826063	7
	16	7	25171.88	5823.475	-945.9928	1	5899.81	-9.226801	9.130923E-009	0.0826001	7
	17	7	20015.62	5908.515	-999.432	1	5992.447	-9.60077	1.280327E-008	0.0825971	7
	18	8	15890.62	5997.465	-1075.4	1	6093.117	-10.16562	1.545039E-008	0.0826085	7
	19	8	12609.37	6094.548	-1177.045	1	6207.169	-10.931	1.670447E-009	0.0826047	7
	20	8	10078.13	6198.168	-1304.261	1	6333.907	-11.8832	1.394556E-008	0.0826052	7
	21	9	8015.625	6314.43	-1463.64	1	6481.841	-13.05029	1.463164E-008	0.082616	7
	22	9	6328.125	6458.671	-1664.96	1	6669.822	-14.45537	1.431287E-008	0.0825949	7
	23	9	5015.625	6598.321	-1906.858	1	6868.33	-16.11884	9.125318E-010	0.0826033	7
	24	10	3984.375	6765.137	-2190.485	1	7110.929	-17.94144	-5.299261E-009	0.0825971	7
	25	10	3170.956	6954.505	-2526.862	1	7399.336	-19.9682	-6.119697E-009	0.0825973	7
	26	10	2527.573	7168.468	-2920.839	1	7740.687	-22.16876	-2.481718E-009	0.0826015	7
	27	11	1976.103	7435.272	-3431.41	1	8188.885	-24.77353	-1.976914E-009	0.0825991	7
	28	11	1577.524	7717.145	-3993.272	1	8689.104	-27.35952	4.31926E-009	0.0826007	7
	29	11	1265.625	8026.411	-4622.143	1	9262.152	-29.93621	3.975431E-009	0.0826004	7
	30	12	998.264	8405.377	-5439	1	10011.65	-32.90633	1.298432E-008	0.0826002	7
	31	12	796.875	8808.989	-6352.572	1	10860.64	-35.79713	3.890594E-010	0.0825728	7
	32	12	627.7902	9295.562	-7531.726	1	11963.88	-39.01611	-2.632419E-009	0.082601	7
	33	12	505.5147	9795.93	-8794.516	1	13164.49	-41.91661	8.519833E-009	0.0826006	7
	34	13	397.9953	10420.56	-10499.63	1	14792.91	-45.21654	6.728286E-009	0.0826215	7
	35	13	315.5048	11122.91	-12501.56	1	16733.44	-48.33982	5.756288E-009	0.0826194	7
	36	13	252.4038	11909.98	-14831.52	1	19021.61	-51.23491	5.569949E-009	0.0826176	7
	37	14	198.6229	12913.64	-17876.93	1	22053.27	-54.15704	6.230208E-009	0.0826176	7
	38	14	158.3615	14059.04	-21377.54	1	25586.24	-56.6689	6.8913E-009	0.0826175	7
	39	14	125.558	15501.86	-25733.97	1	30042.38	-58.9357	7.091001E-009	0.0826199	7
	40	15	100.4464	17192.57	-30596.56	1	35096.06	-60.66785	7.373178E-009	0.0826018	7
	41	15	79.00281	19526.37	-37332.82	1	42130.97	-62.38885	2.486033E-010	0.0826154	6
	42	15	63.3446	22193.38	-44549.9	1	49771.88	-63.51894	9.809655E-010	0.0826133	6
	43	16	49.86702	25828.83	-53883.57	1	59754.23	-64.3895	1.420438E-009	0.0826109	6
	44	16	39.72458	30195.84	-64451.11	1	71173.98	-64.89655	1.798231E-009	0.082616	6
	45	16	31.6723	35700.88	-76920.99	1	84802.08	-65.10285	-6.458226E-010	0.0826092	6
	46	17	24.93351	43018.6	-92344.41	1	101872.9	-65.02157	2.479589E-009	0.0826117	6
	47	17	19.86229	52110.91	-109950.6	1	121674.5	-64.64147	-6.266043E-009	0.0740367	6
	48	18	15.83615	63448.56	-129992.6	1	144650.6	-63.98329	-4.888529E-009	0.0740342	6
	49	18	12.40079	78405.79	-154479.3	1	173237.8	-63.08999	-4.101973E-009	0.0740382	6
	50	18	9.93114	95440.2	-179720.5	1	203490.3	-62.02954	-3.442262E-009	0.0740361	6
	51	19	7.944915	116238.4	-207886.8	1	238177	-60.78859	-3.014557E-009	0.0740364	6
	52	19	6.317385	141819.3	-239549.4	1	278382.2	-59.37339	-1.810272E-009	0.074039	6
	53	20	5.008013	172423.9	-274548.7	1	324202.1	-57.87009	-1.329843E-009	0.0740362	6
	54	21	3.945707	208951.5	-313353.6	1	376631.4	-56.30371	-1.01142E-009	0.0740387	6
	55	22	3.158693	247194	-351687	1	429870.4	-54.89736	-1.126419E-009	0.0740462	5
	56	23	2.504006	293229.4	-395087.4	1	492013.8	-53.41761	-9.051453E-010	0.0740396	5
	57	25	1.998082	339549.3	-439683.8	1	555531.8	-52.32261	-7.547267E-010	0.0740391	5
	58	27	1.584686	390995.2	-491086.3	1	627728.4	-51.47375	-4.839638E-010	0.0740414	5
	59	30	1.266892	442486.3	-546746.2	1	703367.3	-51.01646	-3.395906E-010	0.0740454	5
	60	33	0.999041	498708.1	-615772.7	1	792392.4	-50.99634	-3.886048E-010	0.0740407	5
