EXPLAIN
TAG	EISPOT
TITLE	LABEL	Potentiostatic EIS	Test &Identifier
DATE	LABEL	2/25/2020	Date
TIME	LABEL	14:34:31	Time
NOTES	NOTES	1	&Notes...
	
PSTAT	PSTAT	REF600-11020	Potentiostat
VDC	POTEN	0.00000E+000	T	DC &Voltage (V)
FREQINIT	QUANT	1.00000E+006	Initial Fre&q. (Hz)
FREQFINAL	QUANT	1.00000E+000	Final Fre&q. (Hz)
PTSPERDEC	QUANT	1.00000E+001	Points/&decade
VAC	QUANT	2.50000E+001	AC &Voltage (mV rms)
AREA	QUANT	1.60000E-004	&Area (cm^2)
CONDIT	TWOPARAM	F	1.50000E+001	0.00000E+000	Conditionin&g	Time(s)	E(V)
DELAY	TWOPARAM	F	1.00000E+002	0.00000E+000	Init. De&lay	Time(s)	Stab.(mV/s)
SPEED	SELECTOR	1	&Optimize for:
ZGUESS	QUANT	1.00000E+003	E&stimated Z (ohms)
OCVCURVE	TABLE	39
	Pt	T	Vf	Vm	Ach	Over
	#	s	V vs. Ref.	V	V	bits
	0	0.258333	4.52096E-002	4.52096E-002	5.51405E-004	...........
	1	0.516667	4.51885E-002	4.41077E-002	5.52505E-004	...........
	2	0.775	4.50877E-002	4.45535E-002	5.56804E-004	...........
	3	1.03333	4.48878E-002	4.44887E-002	5.51938E-004	...........
	4	1.29167	4.46700E-002	4.43078E-002	5.49571E-004	...........
	5	1.55	4.45164E-002	4.43621E-002	5.50471E-004	...........
	6	1.80833	4.44282E-002	4.43091E-002	5.49371E-004	...........
	7	2.06667	4.43609E-002	4.34979E-002	5.44005E-004	...........
	8	2.325	4.42555E-002	4.38762E-002	5.47905E-004	...........
	9	2.58333	4.40936E-002	4.38202E-002	5.51105E-004	...........
	10	2.84167	4.39347E-002	4.37895E-002	5.46438E-004	...........
	11	3.1	4.38388E-002	4.37959E-002	5.50371E-004	...........
	12	3.35833	4.38015E-002	4.37894E-002	5.48571E-004	...........
	13	3.61667	4.37914E-002	4.37597E-002	5.51038E-004	...........
	14	3.875	4.37867E-002	4.37380E-002	5.44771E-004	...........
	15	4.13333	4.37774E-002	4.37217E-002	5.46405E-004	...........
	16	4.39167	4.37622E-002	4.37174E-002	5.44671E-004	...........
	17	4.65	4.37446E-002	4.36832E-002	5.43838E-004	...........
	18	4.90833	4.37265E-002	4.36535E-002	5.48738E-004	...........
	19	5.16667	4.37067E-002	4.36293E-002	5.46605E-004	...........
	20	5.425	4.36839E-002	4.36128E-002	5.50938E-004	...........
	21	5.68333	4.36593E-002	4.35878E-002	5.48571E-004	...........
	22	5.94167	4.36354E-002	4.35772E-002	5.44238E-004	...........
	23	6.2	4.36136E-002	4.35601E-002	5.47538E-004	...........
	24	6.45833	4.35944E-002	4.35468E-002	5.50871E-004	...........
	25	6.71667	4.35776E-002	4.35383E-002	5.51471E-004	...........
	26	6.975	4.35627E-002	4.35167E-002	5.50471E-004	...........
	27	7.23333	4.35490E-002	4.35178E-002	5.46238E-004	...........
	28	7.49167	4.35362E-002	4.34994E-002	5.44405E-004	...........
	29	7.75	4.35244E-002	4.34928E-002	5.44938E-004	...........
	30	8.00833	4.35135E-002	4.34814E-002	5.48571E-004	...........
	31	8.26667	4.35031E-002	4.34767E-002	5.47705E-004	...........
	32	8.525	4.34931E-002	4.34598E-002	5.46705E-004	...........
	33	8.78333	4.34834E-002	4.34478E-002	5.46971E-004	...........
	34	9.04167	4.34730E-002	4.34382E-002	5.48271E-004	...........
	35	9.3	4.34619E-002	4.34348E-002	5.53138E-004	...........
	36	9.5583	4.34511E-002	4.34223E-002	5.48738E-004	...........
	37	9.8167	4.34413E-002	4.34083E-002	5.44205E-004	...........
	38	10.075	4.34319E-002	4.34085E-002	5.48105E-004	...........
EOC	QUANT	0.0434319	Open Circuit (V)
PSTATMODEL	IQUANT	4	Pstat Model
PSTATSECTION	LABEL	REF600-11020	Pstat Section
PSTATSERIALNO	LABEL	11020	Pstat Serial Number
CTRLMODE	IQUANT	1	Control Mode
IESTAB	IQUANT	0	I/E Stability
CASPEED	IQUANT	1	Control Amp Speed
CONVENTION	IQUANT	1	Current Convention
ICHRANGE	IQUANT	2	Ich Range
ICHRANGEMODE	TOGGLE	F	Ich Auto Range
ICHOFFSETENABLE	TOGGLE	T	Ich Offset Enable
ICHOFFSET	QUANT	0	Ich Offset (V)
ICHFILTER	IQUANT	3	Ich Filter
VCHRANGE	IQUANT	2	Vch Range
VCHRANGEMODE	TOGGLE	F	Vch Auto Range
VCHOFFSETENABLE	TOGGLE	T	Vch Offset Enable
VCHOFFSET	QUANT	0	Vch Offset (V)
VCHFILTER	IQUANT	3	Vch Filter
ACHRANGE	IQUANT	2	Ach Range
ACHOFFSETENABLE	TOGGLE	F	Ach Offset Enable
ACHOFFSET	QUANT	0	Ach Offset (V)
ACHFILTER	IQUANT	3	Ach Filter
IERANGELOWERLIMIT	IQUANT	1	I/E Range Lower Limit
IERANGEMODE	TOGGLE	F	I/E AutoRange
IERANGE	IQUANT	7	I/E Range
POSFEEDENABLE	TOGGLE	F	Positive Feedback IR Comp
POSFEEDRESISTANCE	QUANT	0	Positive Feedback Resistance (ohm)
ACHSELECT	IQUANT	0	Ach Select
CABLEID	IQUANT	14	Cable ID
DCCALDATE	LABEL	1/27/2020	DC Calibration Date
ACCALDATE	LABEL	1/27/2020	AC Calibration Date
THERMOSELECT	IQUANT	1	Thermo Select
FRAMEWORKVERSION	QUANT	6.33	Framework Version
INSTRUMENTVERSION	LABEL	3.50	Instrument Version
ZCURVE	TABLE
	Pt	Time	Freq	Zreal	Zimag	Zsig	Zmod	Zphz	Idc	Vdc	IERange
	#	s	Hz	ohm	ohm	V	ohm	°	A	V	#
	0	2	1000078	1610.827	-2319.118	1	2823.663	-55.21669	-4.18503E-007	0.0457121	8
	1	3	794390.6	2046.948	-2561.137	1	3278.631	-51.36696	-7.584086E-008	0.0453923	8
	2	4	630984.4	2547.466	-2752.419	1	3750.385	-47.2146	-6.887268E-007	0.0453216	8
	3	6	501234.4	3100.447	-2885.608	1	4235.505	-42.94455	6.863149E-008	0.0451561	8
	4	7	398109.4	3685.294	-2926.04	1	4705.645	-38.44878	1.169165E-007	0.0450536	8
	5	8	316265.6	4260.027	-2891.807	1	5148.823	-34.16959	-1.808768E-007	0.0450719	8
	6	10	251203.1	4805.427	-2768.607	1	5545.928	-29.94804	-5.473757E-007	0.0451272	8
	7	11	199546.9	5288.624	-2585.794	1	5886.924	-26.05564	-1.796282E-007	0.0450678	8
	8	12	158578.1	5708.743	-2361.735	1	6177.988	-22.47512	-1.229516E-006	0.0453353	8
	9	14	125953.1	6084.549	-2084.925	1	6431.846	-18.91448	-2.284608E-007	0.0458147	7
	10	15	100078.1	6373.671	-1862.021	1	6640.091	-16.28534	-1.010536E-008	0.0449795	7
	11	17	79453.13	6614.483	-1656.709	1	6818.803	-14.06142	1.95629E-008	0.0449206	7
	12	18	63140.62	6787.685	-1457.472	1	6942.397	-12.11871	1.125584E-008	0.0450124	7
	13	19	50203.12	6937.047	-1293.571	1	7056.625	-10.56279	1.029616E-008	0.0449713	7
	14	21	39890.62	7055.769	-1159.811	1	7150.457	-9.334668	-1.571394E-008	0.044982	7
	15	22	31640.63	7160.342	-1051.38	1	7237.119	-8.353265	3.341838E-008	0.0449038	7
	16	23	25171.88	7244.545	-973.545	1	7309.667	-7.653737	2.19687E-008	0.0449176	7
	17	25	20015.62	7322.94	-924.0771	1	7381.015	-7.192103	3.984756E-008	0.0449066	7
	18	26	15890.62	7388.591	-894.6061	1	7442.553	-6.903732	-1.145726E-008	0.0449773	7
	19	27	12609.37	7454.051	-893.5944	1	7507.422	-6.836016	1.201703E-008	0.0449987	7
	20	29	10078.13	7509.082	-927.8489	1	7566.188	-7.043967	-9.343377E-009	0.0449704	7
	21	30	8015.625	7565.16	-984	1	7628.886	-7.410851	-1.198735E-008	0.0449788	7
	22	32	6328.125	7624.724	-1081.753	1	7701.078	-8.074911	6.048457E-008	0.0448878	7
	23	33	5015.625	7680.525	-1216.017	1	7776.192	-8.996664	-4.481794E-009	0.0449498	7
	24	34	3984.375	7741.935	-1399.345	1	7867.383	-10.24553	-1.379463E-008	0.0449987	7
	25	36	3170.956	7814.847	-1629.292	1	7982.884	-11.77672	3.872661E-008	0.0448979	7
	26	37	2527.573	7885.122	-1925.043	1	8116.707	-13.71959	-2.032317E-008	0.0450012	7
	27	38	1976.103	7975.994	-2332.183	1	8309.967	-16.29893	2.683404E-008	0.044931	7
	28	40	1577.524	8084.182	-2794.44	1	8553.531	-19.06861	-3.900616E-009	0.0449512	7
	29	41	1265.625	8201.493	-3356.097	1	8861.596	-22.25465	-1.310124E-008	0.0449754	7
	30	43	998.264	8363.401	-4095.179	1	9312.195	-26.0889	7.872818E-009	0.0448697	6
	31	44	796.875	8552.188	-4964.403	1	9888.64	-30.13445	1.846096E-009	0.0449732	6
	32	45	627.7902	8796.926	-6092.736	1	10700.81	-34.70641	7.247229E-009	0.0448708	6
	33	47	505.5147	9071.786	-7343.986	1	11671.82	-38.9916	1.557802E-009	0.0449924	6
	34	48	397.9953	9444.544	-9025.043	1	13063.34	-43.69886	1.056486E-009	0.0449779	6
	35	49	315.5048	9896.77	-11023.97	1	14814.65	-48.08409	1.023569E-009	0.0449777	6
	36	51	252.4038	10429.21	-13362.87	1	16950.95	-52.02931	1.131634E-009	0.0449758	6
	37	52	198.6229	11136.79	-16427.9	1	19847.01	-55.8659	1.170697E-009	0.0449785	6
	38	53	158.3615	11963.25	-19969.21	1	23278.5	-59.07481	1.144741E-009	0.0449776	6
	39	55	125.558	13021.06	-24404.79	1	27661.2	-61.91806	1.284994E-009	0.044977	6
	40	56	100.4464	14306.05	-29617.71	1	32891.82	-64.21837	1.175104E-009	0.0449756	6
	41	58	79.00281	16016.56	-36372.07	1	39742.39	-66.23355	9.48143E-010	0.0449751	6
	42	59	63.3446	17953.01	-43830.28	1	47364.59	-67.72585	9.798127E-010	0.0449729	6
	43	60	49.86702	21248.62	-54142.76	1	58163.07	-68.5722	1.334388E-009	0.0449675	6
	44	62	39.72458	24696.4	-65731.71	1	70218.02	-69.40804	8.954662E-010	0.0449745	6
	45	63	31.6723	29196.33	-79549.13	1	84737.77	-69.84572	5.4896E-010	0.044974	6
	46	65	24.93351	35971.37	-97046.8	1	103498.9	-69.66225	7.828426E-010	0.0449663	6
	47	66	19.86229	44205.03	-116712.7	1	124803.6	-69.25578	6.506983E-010	0.0449725	5
	48	67	15.83615	54006.31	-139769.6	1	149840.7	-68.8737	-2.205839E-010	0.044974	5
	49	69	12.40079	70637.16	-168297.9	1	182520.6	-67.23147	1.18546E-009	0.0449685	5
	50	70	9.93114	87097.72	-198436.6	1	216709.7	-66.30239	2.058282E-010	0.0449717	5
	51	72	7.944915	108587.2	-231518.7	1	255718.7	-64.87242	9.379315E-010	0.0449717	5
	52	73	6.317385	135542.6	-271193.3	1	303179.1	-63.44409	-1.689929E-011	0.0449784	5
	53	75	5.008013	168709.7	-315176.2	1	357489.8	-61.84044	6.379234E-011	0.0449651	5
	54	78	3.945707	209025	-364077.1	1	419813.8	-60.13889	4.61272E-010	0.0449771	5
	55	81	3.158693	253464.5	-415322.2	1	486556.1	-58.60495	-8.200948E-011	0.0449586	5
	56	84	2.504006	306628.5	-472214	1	563033.8	-57.00264	5.644993E-010	0.0449673	5
	57	87	1.998082	365775.9	-532540.9	1	646058.7	-55.51677	3.200822E-010	0.0449944	5
	58	90	1.584686	433691.8	-597522.9	1	738323.9	-54.02724	1.967438E-010	0.0449251	5
	59	94	1.266892	505567.8	-668892.2	1	838460.2	-52.91697	3.252282E-010	0.044985	5
	60	98	0.999041	591225.9	-750988.8	1	955789	-51.78794	-1.567105E-010	0.0449454	5
