EXPLAIN
TAG	EISPOT
TITLE	LABEL	Potentiostatic EIS	Test &Identifier
DATE	LABEL	2/21/2020	Date
TIME	LABEL	17:31:14	Time
NOTES	NOTES	1	&Notes...
	
PSTAT	PSTAT	REF600-11020	Potentiostat
VDC	POTEN	0.00000E+000	T	DC &Voltage (V)
FREQINIT	QUANT	1.00000E+006	Initial Fre&q. (Hz)
FREQFINAL	QUANT	1.00000E+000	Final Fre&q. (Hz)
PTSPERDEC	QUANT	1.00000E+001	Points/&decade
VAC	QUANT	2.50000E+001	AC &Voltage (mV rms)
AREA	QUANT	2.08200E-005	&Area (cm^2)
CONDIT	TWOPARAM	F	1.50000E+001	0.00000E+000	Conditionin&g	Time(s)	E(V)
DELAY	TWOPARAM	F	1.00000E+002	0.00000E+000	Init. De&lay	Time(s)	Stab.(mV/s)
SPEED	SELECTOR	1	&Optimize for:
ZGUESS	QUANT	2.00000E+003	E&stimated Z (ohms)
OCVCURVE	TABLE	39
	Pt	T	Vf	Vm	Ach	Over
	#	s	V vs. Ref.	V	V	bits
	0	0.258333	6.00186E-002	6.00186E-002	5.75338E-004	...........
	1	0.516667	6.00192E-002	6.00505E-002	5.71871E-004	...........
	2	0.775	6.00209E-002	5.99733E-002	5.81471E-004	...........
	3	1.03333	6.00194E-002	5.99288E-002	5.70804E-004	...........
	4	1.29167	6.00068E-002	5.99235E-002	5.72138E-004	...........
	5	1.55	5.99826E-002	5.99477E-002	5.69204E-004	...........
	6	1.80833	5.99569E-002	5.98869E-002	5.73771E-004	...........
	7	2.06667	5.99373E-002	5.99125E-002	5.77338E-004	...........
	8	2.325	5.99231E-002	5.99004E-002	5.75837E-004	...........
	9	2.58333	5.99122E-002	5.98690E-002	5.78471E-004	...........
	10	2.84167	5.99017E-002	5.98174E-002	5.76171E-004	...........
	11	3.1	5.98857E-002	5.97978E-002	5.75471E-004	...........
	12	3.35833	5.98617E-002	5.97881E-002	5.75304E-004	...........
	13	3.61667	5.98341E-002	5.97707E-002	5.71571E-004	...........
	14	3.875	5.98090E-002	5.97555E-002	5.70704E-004	...........
	15	4.13333	5.97886E-002	5.97370E-002	5.74471E-004	...........
	16	4.39167	5.97713E-002	5.97219E-002	5.65738E-004	...........
	17	4.65	5.97552E-002	5.97050E-002	5.74738E-004	...........
	18	4.90833	5.97391E-002	5.96917E-002	5.76171E-004	...........
	19	5.16667	5.97230E-002	5.96697E-002	5.74704E-004	...........
	20	5.425	5.97068E-002	5.96552E-002	5.76738E-004	...........
	21	5.68333	5.96902E-002	5.96386E-002	5.75438E-004	...........
	22	5.94167	5.96733E-002	5.96252E-002	5.82971E-004	...........
	23	6.2	5.96568E-002	5.96057E-002	5.79037E-004	...........
	24	6.45833	5.96405E-002	5.95862E-002	5.80937E-004	...........
	25	6.71667	5.96239E-002	5.95701E-002	5.76038E-004	...........
	26	6.975	5.96067E-002	5.95585E-002	5.84537E-004	...........
	27	7.23333	5.95887E-002	5.94895E-002	5.77504E-004	...........
	28	7.49167	5.95672E-002	5.94692E-002	5.77237E-004	...........
	29	7.75	5.95403E-002	5.94836E-002	5.74838E-004	...........
	30	8.00833	5.95131E-002	5.94984E-002	5.72971E-004	...........
	31	8.26667	5.94943E-002	5.94830E-002	5.79171E-004	...........
	32	8.525	5.94864E-002	5.94659E-002	5.82104E-004	...........
	33	8.78333	5.94829E-002	5.94473E-002	5.77837E-004	...........
	34	9.04167	5.94765E-002	5.94229E-002	5.79271E-004	...........
	35	9.3	5.94644E-002	5.94179E-002	5.77671E-004	...........
	36	9.5583	5.94487E-002	5.94098E-002	5.79637E-004	...........
	37	9.8167	5.94331E-002	5.93962E-002	5.76704E-004	...........
	38	10.075	5.94196E-002	5.93787E-002	5.77571E-004	...........
EOC	QUANT	0.0594196	Open Circuit (V)
PSTATMODEL	IQUANT	4	Pstat Model
PSTATSECTION	LABEL	REF600-11020	Pstat Section
PSTATSERIALNO	LABEL	11020	Pstat Serial Number
CTRLMODE	IQUANT	1	Control Mode
IESTAB	IQUANT	0	I/E Stability
CASPEED	IQUANT	1	Control Amp Speed
CONVENTION	IQUANT	1	Current Convention
ICHRANGE	IQUANT	2	Ich Range
ICHRANGEMODE	TOGGLE	F	Ich Auto Range
ICHOFFSETENABLE	TOGGLE	T	Ich Offset Enable
ICHOFFSET	QUANT	0	Ich Offset (V)
ICHFILTER	IQUANT	3	Ich Filter
VCHRANGE	IQUANT	2	Vch Range
VCHRANGEMODE	TOGGLE	F	Vch Auto Range
VCHOFFSETENABLE	TOGGLE	T	Vch Offset Enable
VCHOFFSET	QUANT	0	Vch Offset (V)
VCHFILTER	IQUANT	3	Vch Filter
ACHRANGE	IQUANT	2	Ach Range
ACHOFFSETENABLE	TOGGLE	F	Ach Offset Enable
ACHOFFSET	QUANT	0	Ach Offset (V)
ACHFILTER	IQUANT	3	Ach Filter
IERANGELOWERLIMIT	IQUANT	1	I/E Range Lower Limit
IERANGEMODE	TOGGLE	F	I/E AutoRange
IERANGE	IQUANT	7	I/E Range
POSFEEDENABLE	TOGGLE	F	Positive Feedback IR Comp
POSFEEDRESISTANCE	QUANT	0	Positive Feedback Resistance (ohm)
ACHSELECT	IQUANT	0	Ach Select
CABLEID	IQUANT	14	Cable ID
DCCALDATE	LABEL	1/27/2020	DC Calibration Date
ACCALDATE	LABEL	1/27/2020	AC Calibration Date
THERMOSELECT	IQUANT	1	Thermo Select
FRAMEWORKVERSION	QUANT	6.33	Framework Version
INSTRUMENTVERSION	LABEL	3.50	Instrument Version
ZCURVE	TABLE
	Pt	Time	Freq	Zreal	Zimag	Zsig	Zmod	Zphz	Idc	Vdc	IERange
	#	s	Hz	ohm	ohm	V	ohm	°	A	V	#
	0	1	1000078	1644.956	-1722.019	1	2381.434	-46.31114	1.526048E-006	0.0614941	8
	1	2	794390.6	1972.936	-1815.02	1	2680.815	-42.61277	1.498941E-006	0.060957	8
	2	4	630984.4	2324.136	-1863.866	1	2979.195	-38.72824	-8.904158E-007	0.0612687	8
	3	5	501234.4	2678.57	-1867.76	1	3265.466	-34.88797	-5.044008E-007	0.0612465	8
	4	6	398109.4	3014.15	-1832.025	1	3527.239	-31.29158	-1.540471E-007	0.0611481	8
	5	8	316265.6	3332.687	-1760.022	1	3768.883	-27.83893	-4.226111E-008	0.0610387	8
	6	9	251203.1	3610.131	-1681.408	1	3982.484	-24.97361	1.193069E-006	0.0609249	8
	7	11	199546.9	3866.57	-1576.315	1	4175.54	-22.17964	-4.874781E-007	0.0610836	8
	8	12	158578.1	4099.377	-1468.8	1	4354.569	-19.71252	1.444454E-007	0.0609947	8
	9	13	125953.1	4305.094	-1371.178	1	4518.181	-17.66674	-1.879176E-007	0.0614559	7
	10	15	100078.1	4478.727	-1288.996	1	4660.526	-16.05603	-1.434028E-008	0.0610162	7
	11	16	79453.13	4636.157	-1226.597	1	4795.674	-14.8193	1.66515E-008	0.0609676	7
	12	17	63140.62	4779.912	-1179.729	1	4923.344	-13.86408	2.415718E-008	0.0609292	7
	13	19	50203.12	4916.011	-1149.19	1	5048.544	-13.15746	8.06748E-009	0.0610043	7
	14	20	39890.62	5047.781	-1133.145	1	5173.404	-12.65222	-1.222902E-008	0.0609918	7
	15	21	31640.63	5179.688	-1134.602	1	5302.498	-12.3554	1.029593E-008	0.0609644	7
	16	23	25171.88	5310.771	-1151.536	1	5434.182	-12.23408	-6.095382E-009	0.0610069	7
	17	24	20015.62	5446.21	-1182.401	1	5573.085	-12.24913	2.090517E-008	0.0609789	7
	18	26	15890.62	5586.626	-1226.519	1	5719.68	-12.38258	1.577635E-008	0.0609476	7
	19	27	12609.37	5733.437	-1286.859	1	5876.079	-12.65028	-1.087573E-008	0.0609915	7
	20	28	10078.13	5879.438	-1359.51	1	6034.571	-13.01975	7.295527E-009	0.0610023	7
	21	30	8015.625	6035.191	-1447.175	1	6206.275	-13.48433	4.594602E-008	0.0609064	7
	22	31	6328.125	6199.151	-1557.565	1	6391.83	-14.10388	1.252974E-008	0.060956	7
	23	32	5015.625	6363.55	-1690.545	1	6584.278	-14.87759	1.704992E-009	0.0609613	7
	24	34	3984.375	6534.081	-1853.473	1	6791.875	-15.83665	1.745809E-008	0.0609493	7
	25	35	3170.956	6701.517	-2052.653	1	7008.832	-17.02966	-1.014128E-009	0.0610126	7
	26	36	2527.573	6874.732	-2296.503	1	7248.163	-18.47189	2.075805E-008	0.0609661	7
	27	38	1976.103	7069.167	-2627.765	1	7541.769	-20.39121	-5.669119E-009	0.0609874	7
	28	39	1577.524	7256.053	-3009.017	1	7855.22	-22.52333	3.684729E-008	0.0609384	7
	29	41	1265.625	7452.175	-3466.83	1	8219.113	-24.94834	-3.555086E-009	0.0609915	7
	30	42	998.264	7685.237	-4075.345	1	8698.926	-27.93621	1.740901E-008	0.0609387	7
	31	43	796.875	7936.391	-4797.528	1	9273.757	-31.15285	2.287742E-008	0.0609697	7
	32	45	627.7902	8235.032	-5724.667	1	10029.33	-34.80549	2.536381E-009	0.0609671	6
	33	46	505.5147	8550.527	-6760.453	1	10900.24	-38.33157	8.753557E-010	0.060933	6
	34	47	397.9953	8956.988	-8155.403	1	12113.56	-42.31809	9.092496E-010	0.0609835	6
	35	49	315.5048	9424.04	-9814.99	1	13606.86	-46.16412	1.172494E-009	0.0609783	6
	36	50	252.4038	9952.23	-11752.36	1	15400.16	-49.74115	1.385568E-009	0.0609839	6
	37	52	198.6229	10622.24	-14289.54	1	17805.14	-53.37445	1.174416E-009	0.0609832	6
	38	53	158.3615	11371.64	-17218.88	1	20635.02	-56.55856	7.900128E-010	0.0609811	6
	39	54	125.558	12286.53	-20888.44	1	24233.98	-59.53606	1.050582E-009	0.0609846	6
	40	56	100.4464	13345.55	-25178.27	1	28496.48	-62.07451	1.358612E-009	0.0609827	6
	41	57	79.00281	14697.31	-30891.63	1	34209.7	-64.5563	1.292977E-009	0.0609864	6
	42	59	63.3446	16160.08	-37156.44	1	40518.51	-66.49481	7.791607E-010	0.0609856	6
	43	60	49.86702	18600.95	-45794.05	1	49427.63	-67.89365	5.882E-010	0.0609845	6
	44	61	39.72458	21096.74	-55629.34	1	59495.34	-69.23139	8.521001E-010	0.0609962	6
	45	63	31.6723	24357.58	-67453.89	1	71716.94	-70.14536	1.207884E-009	0.0609846	6
	46	64	24.93351	29029.24	-82830.4	1	87769.99	-70.68617	8.530394E-010	0.0609804	6
	47	65	19.86229	34829.43	-100347.8	1	106220.4	-70.85877	1.694689E-010	0.0609774	5
	48	67	15.83615	42449.01	-121079	1	128304.5	-70.67988	1.675174E-010	0.0609788	5
	49	68	12.40079	52666.33	-148101.7	1	157187.4	-70.42415	9.614749E-011	0.0609819	5
	50	70	9.93114	65591.34	-177336.9	1	189078.3	-69.70215	3.069102E-010	0.0609759	5
	51	71	7.944915	81722.55	-211065.4	1	226334.2	-68.83406	-1.521882E-010	0.060974	5
	52	73	6.317385	103222.6	-251351.2	1	271721	-67.67348	2.25397E-010	0.0609621	5
	53	75	5.008013	131242.1	-298266	1	325863.6	-66.24969	9.602085E-011	0.0609798	5
	54	78	3.945707	166989.7	-352167.9	1	389753.5	-64.6308	3.172722E-011	0.0609711	5
	55	80	3.158693	208607.3	-407761.1	1	458024.1	-62.90607	2.364952E-010	0.060976	5
	56	84	2.504006	260715.9	-470839.4	1	538203.1	-61.02557	-9.428036E-012	0.0609821	5
	57	86	1.998082	319220.8	-535945	1	623810.1	-59.22102	3.539285E-010	0.0609328	5
	58	89	1.584686	387686.4	-609688.9	1	722510.4	-57.54871	4.281593E-011	0.0609555	5
	59	93	1.266892	463427.2	-683828.6	1	826066.8	-55.87471	2.600433E-010	0.0609269	5
	60	97	0.999041	550172.2	-770299.3	1	946599.4	-54.46437	1.019912E-010	0.0610111	5
