EXPLAIN
TAG	EISPOT
TITLE	LABEL	Potentiostatic EIS	Test &Identifier
DATE	LABEL	7/5/2020	Date
TIME	LABEL	16:49:27	Time
NOTES	NOTES	1	&Notes...
	
PSTAT	PSTAT	REF600-11020	Potentiostat
VDC	POTEN	0.00000E+000	T	DC &Voltage (V)
FREQINIT	QUANT	1.00000E+006	Initial Fre&q. (Hz)
FREQFINAL	QUANT	1.00000E+000	Final Fre&q. (Hz)
PTSPERDEC	QUANT	1.00000E+001	Points/&decade
VAC	QUANT	2.50000E+001	AC &Voltage (mV rms)
AREA	QUANT	4.00000E-004	&Area (cm^2)
CONDIT	TWOPARAM	F	5.00000E+000	0.00000E+000	Conditionin&g	Time(s)	E(V)
DELAY	TWOPARAM	F	3.00000E+000	0.00000E+000	Init. De&lay	Time(s)	Stab.(mV/s)
SPEED	SELECTOR	0	&Optimize for:
ZGUESS	QUANT	1.00000E+003	E&stimated Z (ohms)
OCVCURVE	TABLE	39
	Pt	T	Vf	Vm	Ach	Over
	#	s	V vs. Ref.	V	V	bits
	0	0.258333	6.54523E-002	6.54523E-002	4.93817E-004	...........
	1	0.516667	6.54524E-002	6.54572E-002	4.98550E-004	...........
	2	0.775	6.54529E-002	6.54601E-002	4.98217E-004	...........
	3	1.03333	6.54543E-002	6.54617E-002	5.02417E-004	...........
	4	1.29167	6.54565E-002	6.54620E-002	5.00150E-004	...........
	5	1.55	6.54590E-002	6.54722E-002	4.97350E-004	...........
	6	1.80833	6.54618E-002	6.54761E-002	4.95484E-004	...........
	7	2.06667	6.54656E-002	6.54814E-002	4.97217E-004	...........
	8	2.325	6.54703E-002	6.54873E-002	4.92250E-004	...........
	9	2.58333	6.54756E-002	6.54900E-002	4.91351E-004	...........
	10	2.84167	6.54828E-002	6.55940E-002	4.87851E-004	...........
	11	3.1	6.54975E-002	6.56011E-002	4.89984E-004	...........
	12	3.35833	6.55243E-002	6.56126E-002	4.93984E-004	...........
	13	3.61667	6.55575E-002	6.56177E-002	4.89151E-004	...........
	14	3.875	6.55864E-002	6.56240E-002	4.93484E-004	...........
	15	4.13333	6.56059E-002	6.56346E-002	4.92084E-004	...........
	16	4.39167	6.56178E-002	6.56391E-002	4.92317E-004	...........
	17	4.65	6.56256E-002	6.56316E-002	4.89484E-004	...........
	18	4.90833	6.56311E-002	6.56447E-002	4.91317E-004	...........
	19	5.16667	6.56348E-002	6.56365E-002	4.93384E-004	...........
	20	5.425	6.56373E-002	6.56472E-002	4.90117E-004	...........
	21	5.68333	6.56396E-002	6.56584E-002	4.89351E-004	...........
	22	5.94167	6.56431E-002	6.56649E-002	4.90850E-004	...........
	23	6.2	6.56485E-002	6.56609E-002	4.92950E-004	...........
	24	6.45833	6.56549E-002	6.56803E-002	4.91017E-004	...........
	25	6.71667	6.56591E-002	6.55690E-002	4.96217E-004	...........
	26	6.975	6.56546E-002	6.55798E-002	4.95150E-004	...........
	27	7.23333	6.56370E-002	6.55820E-002	4.94584E-004	...........
	28	7.49167	6.56130E-002	6.55874E-002	4.96084E-004	...........
	29	7.75	6.55943E-002	6.55892E-002	4.95150E-004	...........
	30	8.00833	6.55861E-002	6.55999E-002	4.96350E-004	...........
	31	8.26667	6.55860E-002	6.55979E-002	4.98617E-004	...........
	32	8.525	6.55900E-002	6.56077E-002	4.93484E-004	...........
	33	8.78333	6.55953E-002	6.56137E-002	4.94484E-004	...........
	34	9.04167	6.56009E-002	6.56201E-002	4.97484E-004	...........
	35	9.3	6.56068E-002	6.56256E-002	4.89817E-004	...........
	36	9.5583	6.56130E-002	6.56316E-002	4.87184E-004	...........
	37	9.8167	6.56191E-002	6.56346E-002	4.93017E-004	...........
	38	10.075	6.56249E-002	6.56426E-002	4.91384E-004	...........
EOC	QUANT	0.0656249	Open Circuit (V)
PSTATMODEL	IQUANT	4	Pstat Model
PSTATSECTION	LABEL	REF600-11020	Pstat Section
PSTATSERIALNO	LABEL	11020	Pstat Serial Number
CTRLMODE	IQUANT	1	Control Mode
IESTAB	IQUANT	0	I/E Stability
CASPEED	IQUANT	1	Control Amp Speed
CONVENTION	IQUANT	1	Current Convention
ICHRANGE	IQUANT	2	Ich Range
ICHRANGEMODE	TOGGLE	F	Ich Auto Range
ICHOFFSETENABLE	TOGGLE	T	Ich Offset Enable
ICHOFFSET	QUANT	0	Ich Offset (V)
ICHFILTER	IQUANT	3	Ich Filter
VCHRANGE	IQUANT	2	Vch Range
VCHRANGEMODE	TOGGLE	F	Vch Auto Range
VCHOFFSETENABLE	TOGGLE	T	Vch Offset Enable
VCHOFFSET	QUANT	0	Vch Offset (V)
VCHFILTER	IQUANT	3	Vch Filter
ACHRANGE	IQUANT	2	Ach Range
ACHOFFSETENABLE	TOGGLE	F	Ach Offset Enable
ACHOFFSET	QUANT	0	Ach Offset (V)
ACHFILTER	IQUANT	3	Ach Filter
IERANGELOWERLIMIT	IQUANT	1	I/E Range Lower Limit
IERANGEMODE	TOGGLE	F	I/E AutoRange
IERANGE	IQUANT	8	I/E Range
POSFEEDENABLE	TOGGLE	F	Positive Feedback IR Comp
POSFEEDRESISTANCE	QUANT	0	Positive Feedback Resistance (ohm)
ACHSELECT	IQUANT	0	Ach Select
CABLEID	IQUANT	14	Cable ID
DCCALDATE	LABEL	6/26/2020	DC Calibration Date
ACCALDATE	LABEL	6/26/2020	AC Calibration Date
THERMOSELECT	IQUANT	1	Thermo Select
FRAMEWORKVERSION	QUANT	6.33	Framework Version
INSTRUMENTVERSION	LABEL	3.50	Instrument Version
ZCURVE	TABLE
	Pt	Time	Freq	Zreal	Zimag	Zsig	Zmod	Zphz	Idc	Vdc	IERange
	#	s	Hz	ohm	ohm	V	ohm	°	A	V	#
	0	1	1000078	1521.375	-1531.893	1	2159	-45.19737	1.693733E-005	0.0664374	8
	1	1	794390.6	1763.804	-1622.327	1	2396.445	-42.6075	-7.85357E-006	0.0671621	8
	2	1	630984.4	2013.978	-1712.19	1	2643.426	-40.36963	1.250345E-005	0.0663655	8
	3	2	501234.4	2263.146	-1793.098	1	2887.392	-38.38989	-3.99912E-006	0.0669813	8
	4	2	398109.4	2513.802	-1885.838	1	3142.544	-36.87699	5.396775E-006	0.0672663	8
	5	2	316265.6	2763.09	-1987.887	1	3403.875	-35.73288	-4.942155E-006	0.0678369	8
	6	3	251203.1	3013.022	-2117.318	1	3682.573	-35.09657	9.240667E-007	0.0677141	8
	7	3	199546.9	3289.124	-2268.803	1	3995.723	-34.5975	-1.348483E-006	0.0677679	8
	8	3	158578.1	3577.945	-2449.364	1	4336.021	-34.39448	-2.27846E-006	0.0677494	8
	9	4	125953.1	3897.129	-2662.647	1	4719.884	-34.34218	-3.390282E-006	0.0721109	7
	10	4	100078.1	4261.849	-2915.534	1	5163.689	-34.37606	1.415787E-006	0.0661636	7
	11	4	79453.13	4663.606	-3181.36	1	5645.376	-34.30053	1.354724E-007	0.0653057	7
	12	5	63140.62	5109.526	-3471.348	1	6177.177	-34.1917	6.523522E-007	0.0648699	7
	13	5	50203.12	5606.149	-3782.53	1	6762.872	-34.00797	8.808271E-007	0.0673922	7
	14	5	39890.62	6154.089	-4082.369	1	7385.021	-33.55865	-4.44552E-007	0.0660114	7
	15	6	31640.63	6770.964	-4395.35	1	8072.487	-32.98949	-1.461558E-006	0.0678721	7
	16	6	25171.88	7425.876	-4713.311	1	8795.393	-32.40389	-1.529537E-006	0.0694315	7
	17	6	20015.62	8136.355	-5040.921	1	9571.37	-31.7805	-1.24315E-006	0.0695153	7
	18	7	15890.62	8899.322	-5360.18	1	10388.91	-31.06112	1.285686E-007	0.065294	7
	19	7	12609.37	9718.48	-5694.557	1	11263.96	-30.36824	2.130008E-007	0.0659533	6
	20	7	10078.13	10510.93	-5986.085	1	12095.99	-29.66196	-7.407686E-008	0.0655367	6
	21	8	8015.625	11376.14	-6315.008	1	13011.37	-29.03509	-2.154016E-007	0.0681084	6
	22	8	6328.125	12304.57	-6669.484	1	13995.88	-28.45915	-2.605572E-007	0.0694418	6
	23	8	5015.625	13246.72	-7039.861	1	15001.17	-27.98805	-7.488669E-008	0.0655282	6
	24	9	3984.375	14261.82	-7474.634	1	16101.85	-27.65908	1.935642E-007	0.0635186	6
	25	9	3170.956	15315.87	-7937.016	1	17250.28	-27.39417	2.292534E-007	0.0651839	6
	26	9	2527.573	16402.77	-8410.17	1	18433.18	-27.14551	-1.279722E-007	0.0707371	6
	27	9	1976.103	17654.45	-8925.829	1	19782.57	-26.82048	-7.498044E-008	0.0655212	6
	28	10	1577.524	18921.91	-9457.267	1	21153.69	-26.55612	-2.598879E-007	0.0694299	6
	29	10	1265.625	20218.15	-9955.14	1	22536.16	-26.21499	-7.448052E-008	0.0655185	6
	30	10	998.264	21656.55	-10531.65	1	24081.57	-25.9338	-2.010876E-007	0.0711438	6
	31	11	796.875	23034.35	-11092.65	1	25566.15	-25.71407	-1.280634E-007	0.0707282	6
	32	11	627.7902	24464.24	-11747.63	1	27138.64	-25.65013	1.041296E-007	0.0681586	6
	33	11	505.5147	25618.53	-12432.02	1	28475.68	-25.88611	1.424129E-007	0.0635453	6
	34	12	397.9953	26921.48	-13439.02	1	30089.42	-26.52806	8.607859E-010	0.0671588	6
	35	12	315.5048	28167.76	-14745.17	1	31793.76	-27.63102	8.447029E-010	0.0671646	6
	36	12	252.4038	29336.9	-16349.34	1	33585.04	-29.13075	1.0832E-010	0.0671578	6
	37	13	198.6229	30722.49	-18594.4	1	35911.32	-31.18389	9.099831E-010	0.0671564	6
	38	13	158.3615	32132.8	-21256.36	1	38527.26	-33.48528	4.376832E-010	0.0671541	6
	39	13	125.558	33768	-24669.25	1	41819.25	-36.15004	2.263223E-010	0.0671564	6
	40	14	100.4464	35594.94	-28717.27	1	45734.91	-38.89588	5.691702E-010	0.0671478	6
	41	14	79.00281	37910.11	-34051.16	1	50957.42	-41.93044	1.350694E-010	0.0671531	6
	42	14	63.3446	40720.47	-39703.24	1	56872.7	-44.27534	3.708739E-010	0.0671501	6
	43	15	49.86702	44332.18	-47501.18	1	64974.64	-46.97639	-4.005517E-010	0.0671537	6
	44	15	39.72458	48619.17	-56320.42	1	74403.05	-49.19727	1.772833E-010	0.0671422	6
	45	15	31.6723	54114.48	-66451.2	1	85697.95	-50.84238	1.746863E-010	0.0671397	6
	46	16	24.93351	61549.84	-78580.15	1	99815.9	-51.9293	1.19323E-009	0.0671381	6
	47	16	19.86229	70356.37	-91735.41	1	115608.8	-52.51364	1.230105E-009	0.0671356	5
	48	16	15.83615	80723.95	-106425.3	1	133576.6	-52.81956	-1.110373E-009	0.0671315	5
	49	16	12.40079	94999.95	-123436	1	155760.8	-52.41707	-8.975263E-010	0.0671408	5
	50	17	9.93114	109560	-140590.6	1	178238.9	-52.0713	-1.375617E-009	0.0671443	5
	51	17	7.944915	125836.4	-160085.3	1	203622.5	-51.83059	-1.257332E-009	0.0671536	5
	52	18	6.317385	144881.7	-180497.6	1	231452.2	-51.24672	7.17896E-011	0.0671381	5
	53	18	5.008013	166719.9	-204503.3	1	263850.6	-50.81159	-2.760394E-010	0.067133	5
	54	19	3.945707	191266.9	-232461.1	1	301033.5	-50.55276	-3.990227E-010	0.067143	5
	55	20	3.158693	217615.9	-261182.2	1	339960.1	-50.19908	-1.244258E-010	0.0671156	5
	56	22	2.504006	248026.5	-295420	1	385733.2	-49.9841	2.745439E-010	0.067127	5
	57	23	1.998082	279916.1	-332299.4	1	434483.5	-49.89052	2.714021E-012	0.0671072	5
	58	25	1.584686	317525.3	-376043	1	492169.3	-49.82273	-1.697678E-010	0.0670743	5
	59	27	1.266892	355246.3	-424687.4	1	553678	-50.08789	-1.390256E-010	0.0670884	5
	60	29	0.999041	398280.6	-483134.6	1	626136.1	-50.49893	-1.012417E-010	0.0671142	5
