EXPLAIN
TAG	EISPOT
TITLE	LABEL	Potentiostatic EIS	Test &Identifier
DATE	LABEL	2/25/2020	Date
TIME	LABEL	16:49:09	Time
NOTES	NOTES	1	&Notes...
	
PSTAT	PSTAT	REF600-11020	Potentiostat
VDC	POTEN	0.00000E+000	T	DC &Voltage (V)
FREQINIT	QUANT	1.00000E+006	Initial Fre&q. (Hz)
FREQFINAL	QUANT	1.00000E+000	Final Fre&q. (Hz)
PTSPERDEC	QUANT	1.00000E+001	Points/&decade
VAC	QUANT	2.50000E+001	AC &Voltage (mV rms)
AREA	QUANT	1.60000E-004	&Area (cm^2)
CONDIT	TWOPARAM	F	1.50000E+001	0.00000E+000	Conditionin&g	Time(s)	E(V)
DELAY	TWOPARAM	F	1.00000E+002	0.00000E+000	Init. De&lay	Time(s)	Stab.(mV/s)
SPEED	SELECTOR	1	&Optimize for:
ZGUESS	QUANT	1.00000E+003	E&stimated Z (ohms)
OCVCURVE	TABLE	39
	Pt	T	Vf	Vm	Ach	Over
	#	s	V vs. Ref.	V	V	bits
	0	0.258333	1.00652E-001	1.00652E-001	5.71638E-004	...........
	1	0.516667	1.00653E-001	1.00706E-001	5.65704E-004	...........
	2	0.775	1.00662E-001	1.00902E-001	5.72938E-004	...........
	3	1.03333	1.00694E-001	1.00920E-001	5.72071E-004	...........
	4	1.29167	1.00753E-001	1.00864E-001	5.69204E-004	...........
	5	1.55	1.00815E-001	1.00747E-001	5.70204E-004	...........
	6	1.80833	1.00847E-001	1.00734E-001	5.71938E-004	...........
	7	2.06667	1.00834E-001	1.00731E-001	5.72404E-004	...........
	8	2.325	1.00793E-001	1.00516E-001	5.76004E-004	...........
	9	2.58333	1.00741E-001	1.00759E-001	5.70938E-004	...........
	10	2.84167	1.00697E-001	1.00792E-001	5.70071E-004	...........
	11	3.1	1.00687E-001	1.00904E-001	5.70438E-004	...........
	12	3.35833	1.00721E-001	1.00787E-001	5.69171E-004	...........
	13	3.61667	1.00772E-001	1.00829E-001	5.67771E-004	...........
	14	3.875	1.00809E-001	1.00753E-001	5.69371E-004	...........
	15	4.13333	1.00817E-001	1.00747E-001	5.68738E-004	...........
	16	4.39167	1.00801E-001	1.00667E-001	5.72104E-004	...........
	17	4.65	1.00771E-001	1.00701E-001	5.72771E-004	...........
	18	4.90833	1.00738E-001	1.00678E-001	5.71504E-004	...........
	19	5.16667	1.00711E-001	1.00702E-001	5.68438E-004	...........
	20	5.425	1.00695E-001	1.00676E-001	5.70338E-004	...........
	21	5.68333	1.00687E-001	1.00594E-001	5.70971E-004	...........
	22	5.94167	1.00676E-001	1.00609E-001	5.69604E-004	...........
	23	6.2	1.00660E-001	1.00791E-001	5.70271E-004	...........
	24	6.45833	1.00654E-001	1.00722E-001	5.70638E-004	...........
	25	6.71667	1.00669E-001	1.00634E-001	5.68271E-004	...........
	26	6.975	1.00688E-001	1.00607E-001	5.67238E-004	...........
	27	7.23333	1.00684E-001	1.00567E-001	5.71371E-004	...........
	28	7.49167	1.00658E-001	1.00598E-001	5.69671E-004	...........
	29	7.75	1.00624E-001	1.00561E-001	5.67004E-004	...........
	30	8.00833	1.00597E-001	1.00504E-001	5.69604E-004	...........
	31	8.26667	1.00576E-001	1.00581E-001	5.71804E-004	...........
	32	8.525	1.00560E-001	1.00574E-001	5.71471E-004	...........
	33	8.78333	1.00554E-001	1.00557E-001	5.72338E-004	...........
	34	9.04167	1.00557E-001	1.00585E-001	5.69004E-004	...........
	35	9.3	1.00564E-001	1.00598E-001	5.71671E-004	...........
	36	9.5583	1.00572E-001	1.00573E-001	5.67738E-004	...........
	37	9.8167	1.00578E-001	1.00558E-001	5.65104E-004	...........
	38	10.075	1.00578E-001	1.00492E-001	5.64104E-004	...........
EOC	QUANT	0.1005781	Open Circuit (V)
PSTATMODEL	IQUANT	4	Pstat Model
PSTATSECTION	LABEL	REF600-11020	Pstat Section
PSTATSERIALNO	LABEL	11020	Pstat Serial Number
CTRLMODE	IQUANT	1	Control Mode
IESTAB	IQUANT	0	I/E Stability
CASPEED	IQUANT	1	Control Amp Speed
CONVENTION	IQUANT	1	Current Convention
ICHRANGE	IQUANT	2	Ich Range
ICHRANGEMODE	TOGGLE	F	Ich Auto Range
ICHOFFSETENABLE	TOGGLE	T	Ich Offset Enable
ICHOFFSET	QUANT	0	Ich Offset (V)
ICHFILTER	IQUANT	3	Ich Filter
VCHRANGE	IQUANT	2	Vch Range
VCHRANGEMODE	TOGGLE	F	Vch Auto Range
VCHOFFSETENABLE	TOGGLE	T	Vch Offset Enable
VCHOFFSET	QUANT	0	Vch Offset (V)
VCHFILTER	IQUANT	3	Vch Filter
ACHRANGE	IQUANT	2	Ach Range
ACHOFFSETENABLE	TOGGLE	F	Ach Offset Enable
ACHOFFSET	QUANT	0	Ach Offset (V)
ACHFILTER	IQUANT	3	Ach Filter
IERANGELOWERLIMIT	IQUANT	1	I/E Range Lower Limit
IERANGEMODE	TOGGLE	F	I/E AutoRange
IERANGE	IQUANT	8	I/E Range
POSFEEDENABLE	TOGGLE	F	Positive Feedback IR Comp
POSFEEDRESISTANCE	QUANT	0	Positive Feedback Resistance (ohm)
ACHSELECT	IQUANT	0	Ach Select
CABLEID	IQUANT	14	Cable ID
DCCALDATE	LABEL	1/27/2020	DC Calibration Date
ACCALDATE	LABEL	1/27/2020	AC Calibration Date
THERMOSELECT	IQUANT	1	Thermo Select
FRAMEWORKVERSION	QUANT	6.33	Framework Version
INSTRUMENTVERSION	LABEL	3.50	Instrument Version
ZCURVE	TABLE
	Pt	Time	Freq	Zreal	Zimag	Zsig	Zmod	Zphz	Idc	Vdc	IERange
	#	s	Hz	ohm	ohm	V	ohm	°	A	V	#
	0	2	1000078	1320.811	-2245.948	1	2605.537	-59.54079	-2.247252E-007	0.1027731	8
	1	3	794390.6	1607.329	-2567.214	1	3028.877	-57.94938	-3.35763E-007	0.1025451	8
	2	4	630984.4	1923.377	-2902.643	1	3482.056	-56.47036	-1.820785E-007	0.1023524	8
	3	6	501234.4	2258.766	-3297.883	1	3997.256	-55.59221	-1.094613E-006	0.1023383	8
	4	7	398109.4	2628.496	-3723.06	1	4557.43	-54.77775	1.154377E-008	0.1021212	8
	5	8	316265.6	3055.802	-4240.007	1	5226.432	-54.21946	1.020368E-006	0.1019158	8
	6	10	251203.1	3556.049	-4858.61	1	6020.928	-53.79935	1.434334E-006	0.1017588	8
	7	11	199546.9	4078.95	-5497.749	1	6845.661	-53.42714	7.473819E-008	0.1019975	8
	8	13	158578.1	4745.664	-6271.851	1	7864.95	-52.88663	5.376016E-007	0.1019419	8
	9	14	125953.1	5585.541	-7179.498	1	9096.343	-52.11763	2.348405E-007	0.1015421	7
	10	15	100078.1	6513.907	-8192.865	1	10466.81	-51.51282	-1.73226E-008	0.1020216	7
	11	17	79453.13	7674.487	-9321.545	1	12074.31	-50.53516	3.443851E-008	0.1020038	7
	12	18	63140.62	9058.128	-10532.84	1	13892.1	-49.30483	2.745382E-008	0.1019318	7
	13	20	50203.12	10733.06	-11781.95	1	15937.79	-47.66727	4.501012E-008	0.1019843	7
	14	21	39890.62	12719.45	-12981.42	1	18174.2	-45.58401	5.379714E-009	0.1019565	7
	15	22	31640.63	15065.67	-14082.36	1	20622.5	-43.06785	-7.295454E-009	0.101981	7
	16	24	25171.88	17653.28	-14972.33	1	23147.55	-40.30238	-8.088523E-009	0.1019796	7
	17	26	20015.62	20468.67	-15626.04	1	25751.5	-37.35856	6.992046E-008	0.1019004	7
	18	27	15890.62	23399.48	-15853.74	1	28264.4	-34.11863	1.126824E-008	0.1019492	7
	19	29	12609.37	26467.08	-15695.91	1	30771.21	-30.66943	3.304089E-009	0.1019034	6
	20	30	10078.13	29217.77	-15338.26	1	32999.09	-27.69782	5.750157E-011	0.1019769	6
	21	32	8015.625	31823.67	-14696.68	1	35053.36	-24.78825	3.048278E-009	0.1018976	6
	22	33	6328.125	34288.24	-13886.25	1	36993.4	-22.04725	4.11778E-011	0.1019734	6
	23	35	5015.625	36416.02	-12973.95	1	38658.11	-19.60948	5.017594E-009	0.101995	6
	24	37	3984.375	38263.38	-12047.72	1	40115.25	-17.47728	-2.68644E-009	0.1020385	6
	25	38	3170.956	39833.84	-11158.71	1	41367.28	-15.64922	-3.149857E-009	0.1020124	6
	26	40	2527.573	41170.12	-10370.66	1	42456.21	-14.13854	6.686394E-009	0.1019535	6
	27	41	1976.103	42477.53	-9677.13	1	43565.9	-12.83395	-1.351117E-009	0.1020301	6
	28	43	1577.524	43377.09	-9126.361	1	44326.77	-11.8815	1.399781E-009	0.1019632	6
	29	44	1265.625	44254.72	-8823.44	1	45125.75	-11.27569	1.010519E-008	0.1018341	6
	30	46	998.264	44933.3	-8651.164	1	45758.54	-10.898	1.426411E-009	0.1020413	6
	31	47	796.875	45523.74	-8781.659	1	46363	-10.91841	7.629058E-010	0.1019773	6
	32	49	627.7902	46181.26	-9195.44	1	47087.84	-11.26124	-9.132004E-011	0.1020576	6
	33	50	505.5147	46603.58	-9857.83	1	47634.77	-11.94345	-2.309718E-010	0.1020379	6
	34	51	397.9953	47132.61	-10985.06	1	48395.81	-13.11955	2.591406E-009	0.1019975	6
	35	53	315.5048	47695.73	-12530.39	1	49314.23	-14.71984	2.068543E-009	0.1019892	6
	36	54	252.4038	48433.59	-14501.45	1	50557.93	-16.66817	1.968062E-009	0.1019883	6
	37	55	198.6229	49296.25	-17191.66	1	52207.99	-19.2258	2.449764E-009	0.1019933	6
	38	57	158.3615	50377.42	-20402.79	1	54352.17	-22.04789	1.761008E-009	0.1019922	6
	39	58	125.558	51612.83	-24402.57	1	57090.89	-25.30481	2.057309E-009	0.1019975	6
	40	60	100.4464	53272.61	-29122.66	1	60713.26	-28.6642	1.812798E-009	0.1019941	6
	41	61	79.00281	55671.46	-35266.37	1	65901.66	-32.35315	1.636836E-009	0.1019976	6
	42	63	63.3446	58939.22	-42053.74	1	72404.06	-35.50825	1.265279E-009	0.1019911	6
	43	65	49.86702	62203.02	-50465.78	1	80100.01	-39.05268	1.470382E-009	0.1019903	6
	44	66	39.72458	66707.77	-59916.6	1	89665.63	-41.93003	1.532404E-009	0.1019975	6
	45	68	31.6723	72598.2	-70523.08	1	101212.7	-44.16932	8.480942E-010	0.1019877	5
	46	69	24.93351	80167.55	-83904.34	1	116046.4	-46.3047	4.625663E-010	0.101987	5
	47	71	19.86229	89367.78	-98018	1	132642.9	-47.64305	2.715817E-010	0.1019861	5
	48	72	15.83615	100052.8	-112770.6	1	150757.3	-48.41977	2.171669E-010	0.1019895	5
	49	73	12.40079	114523.2	-133327.1	1	175760.3	-49.33859	1.332313E-009	0.101994	5
	50	75	9.93114	128896.1	-152388.6	1	199590.8	-49.77418	-3.639596E-011	0.1019941	5
	51	76	7.944915	144851.5	-173121	1	225727.3	-50.08056	1.144746E-009	0.1019878	5
	52	78	6.317385	165014.1	-198279.6	1	257962.2	-50.23177	2.839102E-010	0.1020021	5
	53	80	5.008013	186609.5	-227105.1	1	293938.4	-50.59047	1.004562E-011	0.10198	5
	54	83	3.945707	211101.6	-260374.2	1	335199.4	-50.96616	3.980795E-010	0.1019919	5
	55	85	3.158693	237564.4	-296530.9	1	379957.1	-51.30019	3.525321E-010	0.1019813	5
	56	89	2.504006	267622.7	-340917.1	1	433412.4	-51.86779	5.784264E-010	0.1019725	5
	57	92	1.998082	298812.8	-389776.1	1	491135.9	-52.52526	9.226125E-011	0.102019	5
	58	95	1.584686	340945.8	-451932.8	1	566116	-52.96848	3.800339E-010	0.1020178	5
	59	98	1.266892	384825.7	-517630.5	1	645005.6	-53.37152	6.047698E-011	0.1020146	5
	60	103	0.999041	438049.7	-605576.6	1	747402.5	-54.11954	1.945221E-010	0.1019685	5
