EXPLAIN
TAG	EISPOT
TITLE	LABEL	Potentiostatic EIS	Test &Identifier
DATE	LABEL	2/25/2020	Date
TIME	LABEL	15:22:06	Time
NOTES	NOTES	1	&Notes...
	
PSTAT	PSTAT	REF600-11020	Potentiostat
VDC	POTEN	0.00000E+000	T	DC &Voltage (V)
FREQINIT	QUANT	1.00000E+006	Initial Fre&q. (Hz)
FREQFINAL	QUANT	1.00000E+000	Final Fre&q. (Hz)
PTSPERDEC	QUANT	1.00000E+001	Points/&decade
VAC	QUANT	2.50000E+001	AC &Voltage (mV rms)
AREA	QUANT	1.60000E-004	&Area (cm^2)
CONDIT	TWOPARAM	F	1.50000E+001	0.00000E+000	Conditionin&g	Time(s)	E(V)
DELAY	TWOPARAM	F	1.00000E+002	0.00000E+000	Init. De&lay	Time(s)	Stab.(mV/s)
SPEED	SELECTOR	1	&Optimize for:
ZGUESS	QUANT	1.00000E+003	E&stimated Z (ohms)
OCVCURVE	TABLE	39
	Pt	T	Vf	Vm	Ach	Over
	#	s	V vs. Ref.	V	V	bits
	0	0.258333	9.42575E-002	9.42575E-002	5.72938E-004	...........
	1	0.516667	9.42541E-002	9.40784E-002	5.76271E-004	...........
	2	0.775	9.42383E-002	9.41820E-002	5.71004E-004	...........
	3	1.03333	9.42100E-002	9.42274E-002	5.74504E-004	...........
	4	1.29167	9.41890E-002	9.43061E-002	5.72438E-004	...........
	5	1.55	9.41970E-002	9.43786E-002	5.75204E-004	...........
	6	1.80833	9.42348E-002	9.43424E-002	5.75571E-004	...........
	7	2.06667	9.42835E-002	9.43153E-002	5.75804E-004	...........
	8	2.325	9.43183E-002	9.42531E-002	5.78104E-004	...........
	9	2.58333	9.43275E-002	9.43612E-002	5.76904E-004	...........
	10	2.84167	9.43221E-002	9.43796E-002	5.70104E-004	...........
	11	3.1	9.43219E-002	9.43064E-002	5.75037E-004	...........
	12	3.35833	9.43286E-002	9.42463E-002	5.70404E-004	...........
	13	3.61667	9.43266E-002	9.42800E-002	5.73704E-004	...........
	14	3.875	9.43110E-002	9.43144E-002	5.70304E-004	...........
	15	4.13333	9.42959E-002	9.43379E-002	5.76371E-004	...........
	16	4.39167	9.42973E-002	9.44706E-002	5.72904E-004	...........
	17	4.65	9.43230E-002	9.45145E-002	5.77304E-004	...........
	18	4.90833	9.43704E-002	9.44611E-002	5.75204E-004	...........
	19	5.16667	9.44207E-002	9.43767E-002	5.75071E-004	...........
	20	5.425	9.44462E-002	9.43096E-002	5.71971E-004	...........
	21	5.68333	9.44337E-002	9.43156E-002	5.70104E-004	...........
	22	5.94167	9.43971E-002	9.44136E-002	5.73704E-004	...........
	23	6.2	9.43681E-002	9.44924E-002	5.72138E-004	...........
	24	6.45833	9.43716E-002	9.45230E-002	5.71371E-004	...........
	25	6.71667	9.44074E-002	9.45181E-002	5.71571E-004	...........
	26	6.975	9.44538E-002	9.44828E-002	5.66838E-004	...........
	27	7.23333	9.44863E-002	9.44150E-002	5.65238E-004	...........
	28	7.49167	9.44911E-002	9.43660E-002	5.67671E-004	...........
	29	7.75	9.44700E-002	9.44366E-002	5.65138E-004	...........
	30	8.00833	9.44404E-002	9.44373E-002	5.71471E-004	...........
	31	8.26667	9.44217E-002	9.44142E-002	5.72338E-004	...........
	32	8.525	9.44169E-002	9.43722E-002	5.70271E-004	...........
	33	8.78333	9.44141E-002	9.43756E-002	5.69671E-004	...........
	34	9.04167	9.44061E-002	9.44285E-002	5.69271E-004	...........
	35	9.3	9.43967E-002	9.43293E-002	5.68871E-004	...........
	36	9.5583	9.43871E-002	9.42636E-002	5.67204E-004	...........
	37	9.8167	9.43695E-002	9.43391E-002	5.68404E-004	...........
	38	10.075	9.43447E-002	9.43169E-002	5.72038E-004	...........
EOC	QUANT	0.0943447	Open Circuit (V)
PSTATMODEL	IQUANT	4	Pstat Model
PSTATSECTION	LABEL	REF600-11020	Pstat Section
PSTATSERIALNO	LABEL	11020	Pstat Serial Number
CTRLMODE	IQUANT	1	Control Mode
IESTAB	IQUANT	0	I/E Stability
CASPEED	IQUANT	1	Control Amp Speed
CONVENTION	IQUANT	1	Current Convention
ICHRANGE	IQUANT	2	Ich Range
ICHRANGEMODE	TOGGLE	F	Ich Auto Range
ICHOFFSETENABLE	TOGGLE	T	Ich Offset Enable
ICHOFFSET	QUANT	0	Ich Offset (V)
ICHFILTER	IQUANT	3	Ich Filter
VCHRANGE	IQUANT	2	Vch Range
VCHRANGEMODE	TOGGLE	F	Vch Auto Range
VCHOFFSETENABLE	TOGGLE	T	Vch Offset Enable
VCHOFFSET	QUANT	0	Vch Offset (V)
VCHFILTER	IQUANT	3	Vch Filter
ACHRANGE	IQUANT	2	Ach Range
ACHOFFSETENABLE	TOGGLE	F	Ach Offset Enable
ACHOFFSET	QUANT	0	Ach Offset (V)
ACHFILTER	IQUANT	3	Ach Filter
IERANGELOWERLIMIT	IQUANT	1	I/E Range Lower Limit
IERANGEMODE	TOGGLE	F	I/E AutoRange
IERANGE	IQUANT	8	I/E Range
POSFEEDENABLE	TOGGLE	F	Positive Feedback IR Comp
POSFEEDRESISTANCE	QUANT	0	Positive Feedback Resistance (ohm)
ACHSELECT	IQUANT	0	Ach Select
CABLEID	IQUANT	14	Cable ID
DCCALDATE	LABEL	1/27/2020	DC Calibration Date
ACCALDATE	LABEL	1/27/2020	AC Calibration Date
THERMOSELECT	IQUANT	1	Thermo Select
FRAMEWORKVERSION	QUANT	6.33	Framework Version
INSTRUMENTVERSION	LABEL	3.50	Instrument Version
ZCURVE	TABLE
	Pt	Time	Freq	Zreal	Zimag	Zsig	Zmod	Zphz	Idc	Vdc	IERange
	#	s	Hz	ohm	ohm	V	ohm	°	A	V	#
	0	2	1000078	2075.401	-1831.751	1	2768.14	-41.43166	-3.162678E-006	0.0969771	8
	1	3	794390.6	2357.143	-1874.022	1	3011.326	-38.48608	6.766867E-007	0.0961252	8
	2	4	630984.4	2634.804	-1909.196	1	3253.801	-35.92732	1.286821E-006	0.0957773	8
	3	6	501234.4	2906.431	-1945.153	1	3497.279	-33.79274	-2.58084E-006	0.0963794	8
	4	7	398109.4	3136.784	-1984.093	1	3711.609	-32.31436	2.05961E-006	0.0954227	8
	5	8	316265.6	3366.643	-2061.862	1	3947.855	-31.48491	-1.696175E-006	0.0961925	8
	6	10	251203.1	3583.709	-2179.993	1	4194.68	-31.31242	-3.843471E-007	0.0958394	8
	7	11	199546.9	3771.201	-2338.403	1	4437.352	-31.80175	1.947912E-008	0.0957263	8
	8	12	158578.1	3976.522	-2560.008	1	4729.31	-32.77265	1.689638E-006	0.0954158	8
	9	14	125953.1	4236.379	-2822.43	1	5090.483	-33.673	1.952036E-007	0.0952584	7
	10	15	100078.1	4480.998	-3207.109	1	5510.435	-35.59179	6.684269E-008	0.0956557	7
	11	17	79453.13	4764.097	-3684.645	1	6022.726	-37.71906	3.588067E-008	0.0956663	7
	12	18	63140.62	5094.606	-4273.82	1	6649.854	-39.99299	-1.727587E-008	0.0957277	7
	13	19	50203.12	5504.001	-4989.463	1	7428.915	-42.1928	7.300532E-008	0.0955981	7
	14	21	39890.62	6020.518	-5838.314	1	8386.45	-44.11975	1.582817E-008	0.0956956	7
	15	22	31640.63	6685.783	-6846.786	1	9569.65	-45.68164	7.183002E-008	0.0956373	7
	16	23	25171.88	7522.713	-8007.566	1	10986.92	-46.78818	1.743525E-008	0.0957287	7
	17	25	20015.62	8627.105	-9300.543	1	12685.7	-47.15126	5.090247E-008	0.0955967	7
	18	26	15890.62	10057.02	-10701.85	1	14685.82	-46.7792	3.859806E-008	0.0956517	7
	19	28	12609.37	11975.22	-12084.76	1	17013.15	-45.26085	-1.907972E-009	0.0957627	6
	20	29	10078.13	14150.28	-13437.47	1	19514	-43.51994	3.070572E-011	0.0957553	6
	21	31	8015.625	16816.71	-14504.33	1	22207.6	-40.77761	6.307129E-009	0.0956937	6
	22	32	6328.125	19918.3	-15349.32	1	25146.37	-37.61834	6.858523E-009	0.0956917	6
	23	34	5015.625	23147.09	-15442.99	1	27825.77	-33.70994	-1.619426E-009	0.0957822	6
	24	35	3984.375	26279.87	-15044.27	1	30281.37	-29.78957	1.700524E-009	0.0957668	6
	25	37	3170.956	29116.72	-14187.51	1	32389.33	-25.97828	7.086677E-009	0.0956878	6
	26	39	2527.573	31597.44	-13099.61	1	34205.23	-22.51783	3.310549E-010	0.0957626	6
	27	40	1976.103	33574.74	-11605.16	1	35523.84	-19.06779	1.701933E-009	0.0956703	6
	28	42	1577.524	34984.18	-10325.15	1	36476.04	-16.44332	7.402109E-009	0.095689	6
	29	43	1265.625	36118.93	-9307	1	37298.76	-14.44945	-4.844059E-009	0.0958015	6
	30	45	998.264	36952.5	-8390.958	1	37893.21	-12.79345	7.519723E-009	0.0956885	6
	31	46	796.875	37641.45	-7804.858	1	38442.09	-11.71414	2.08995E-009	0.0957653	6
	32	47	627.7902	38109.73	-7437.986	1	38828.79	-11.04375	9.756986E-009	0.0955479	6
	33	49	505.5147	38580.46	-7442.536	1	39291.77	-10.91877	1.60848E-009	0.0956802	6
	34	50	397.9953	38872.16	-7692.963	1	39626.08	-11.19442	2.989895E-009	0.09572	6
	35	52	315.5048	39349.71	-8329.423	1	40221.63	-11.95177	3.570455E-009	0.0957214	6
	36	53	252.4038	39628.46	-9225.193	1	40688.07	-13.10461	3.5417E-009	0.0957119	6
	37	54	198.6229	40142	-10607.05	1	41519.75	-14.80144	3.255727E-009	0.0957168	6
	38	56	158.3615	40634.42	-12369.93	1	42475.54	-16.93129	2.04352E-009	0.0957175	6
	39	57	125.558	41183.8	-14666.43	1	43717.39	-19.6019	2.658602E-009	0.095714	6
	40	59	100.4464	41783.69	-17466.13	1	45287.33	-22.68557	1.920181E-009	0.0957189	6
	41	60	79.00281	42990.66	-21152.73	1	47912.79	-26.19861	2.315896E-009	0.0957161	6
	42	62	63.3446	44374.81	-25230.94	1	51046.3	-29.622	2.331391E-009	0.0957117	6
	43	63	49.86702	45914.67	-31038.75	1	55421.67	-34.05907	1.760617E-009	0.0957112	6
	44	65	39.72458	47818.65	-37514.07	1	60777.7	-38.11444	2.458946E-009	0.0957118	6
	45	66	31.6723	50809.34	-45315.46	1	68081.41	-41.7289	1.91515E-009	0.0957085	6
	46	68	24.93351	54819.35	-54876.9	1	77566.98	-45.03006	6.646243E-010	0.0957128	6
	47	70	19.86229	59770.79	-65876.88	1	88951.17	-47.78221	2.608151E-010	0.095704	6
	48	71	15.83615	65979.95	-77885.04	1	102075.6	-49.73055	4.957301E-010	0.0957081	5
	49	72	12.40079	74630.44	-94316.13	1	120271.5	-51.64614	4.151173E-010	0.0957172	5
	50	74	9.93114	85271.19	-109794.5	1	139018	-52.16553	-5.766504E-010	0.0957229	5
	51	75	7.944915	97779.4	-127505	1	160680.8	-52.51659	7.278216E-010	0.0957105	5
	52	77	6.317385	113472.9	-147543.2	1	186132	-52.43675	1.467494E-009	0.0957109	5
	53	79	5.008013	131958.5	-169676.7	1	214949.4	-52.12759	5.881228E-010	0.0957111	5
	54	81	3.945707	154210.2	-194267.6	1	248033.6	-51.55734	-2.281157E-010	0.0957005	5
	55	84	3.158693	177476.5	-218798.4	1	281727.9	-50.95305	5.148314E-010	0.0957165	5
	56	87	2.504006	204690.2	-246471.1	1	320384.3	-50.29093	-3.098211E-010	0.0957112	5
	57	90	1.998082	231794.8	-275083.1	1	359721.5	-49.88133	2.384511E-010	0.0956616	5
	58	93	1.584686	261173.4	-309344	1	404852.1	-49.82621	-9.58693E-011	0.095688	5
	59	97	1.266892	291164.9	-346699.6	1	452744.5	-49.97583	2.078389E-010	0.0956588	5
	60	101	0.999041	323262.5	-394553.4	1	510069.6	-50.67181	1.881312E-011	0.0957303	5
