EXPLAIN
TAG	EISPOT
TITLE	LABEL	Potentiostatic EIS	Test &Identifier
DATE	LABEL	2/28/2020	Date
TIME	LABEL	16:07:32	Time
NOTES	NOTES	1	&Notes...
	
PSTAT	PSTAT	REF600-11020	Potentiostat
VDC	POTEN	0.00000E+000	T	DC &Voltage (V)
FREQINIT	QUANT	1.00000E+006	Initial Fre&q. (Hz)
FREQFINAL	QUANT	1.00000E+000	Final Fre&q. (Hz)
PTSPERDEC	QUANT	1.00000E+001	Points/&decade
VAC	QUANT	2.50000E+001	AC &Voltage (mV rms)
AREA	QUANT	1.60000E-004	&Area (cm^2)
CONDIT	TWOPARAM	F	1.50000E+001	0.00000E+000	Conditionin&g	Time(s)	E(V)
DELAY	TWOPARAM	F	1.00000E+002	0.00000E+000	Init. De&lay	Time(s)	Stab.(mV/s)
SPEED	SELECTOR	1	&Optimize for:
ZGUESS	QUANT	1.00000E+003	E&stimated Z (ohms)
OCVCURVE	TABLE	39
	Pt	T	Vf	Vm	Ach	Over
	#	s	V vs. Ref.	V	V	bits
	0	0.258333	-8.71680E-002	-8.71680E-002	5.74130E-004	...........
	1	0.516667	-8.71668E-002	-8.71080E-002	5.73763E-004	...........
	2	0.775	-8.71591E-002	-8.70161E-002	5.73063E-004	...........
	3	1.03333	-8.71371E-002	-8.70330E-002	5.71397E-004	...........
	4	1.29167	-8.71025E-002	-8.70685E-002	5.71697E-004	...........
	5	1.55	-8.70668E-002	-8.68549E-002	5.73530E-004	...........
	6	1.80833	-8.70291E-002	-8.67962E-002	5.73963E-004	...........
	7	2.06667	-8.69749E-002	-8.67389E-002	5.71863E-004	...........
	8	2.325	-8.69009E-002	-8.66506E-002	5.67797E-004	...........
	9	2.58333	-8.68202E-002	-8.66506E-002	5.65997E-004	...........
	10	2.84167	-8.67464E-002	-8.65625E-002	5.61664E-004	...........
	11	3.1	-8.66845E-002	-8.65613E-002	5.64930E-004	...........
	12	3.35833	-8.66307E-002	-8.63691E-002	5.70697E-004	...........
	13	3.61667	-8.65711E-002	-8.62104E-002	5.68130E-004	...........
	14	3.875	-8.64909E-002	-8.62668E-002	5.69063E-004	...........
	15	4.13333	-8.63965E-002	-8.62129E-002	5.76763E-004	...........
	16	4.39167	-8.63120E-002	-8.61387E-002	5.74130E-004	...........
	17	4.65	-8.62488E-002	-8.61026E-002	5.73063E-004	...........
	18	4.90833	-8.61979E-002	-8.60254E-002	5.74063E-004	...........
	19	5.16667	-8.61476E-002	-8.59589E-002	5.70063E-004	...........
	20	5.425	-8.60922E-002	-8.58959E-002	5.70430E-004	...........
	21	5.68333	-8.60317E-002	-8.58624E-002	5.70997E-004	...........
	22	5.94167	-8.59702E-002	-8.57874E-002	5.67463E-004	...........
	23	6.2	-8.59110E-002	-8.57330E-002	5.67297E-004	...........
	24	6.45833	-8.58547E-002	-8.57378E-002	5.73163E-004	...........
	25	6.71667	-8.58034E-002	-8.56884E-002	5.69430E-004	...........
	26	6.975	-8.57559E-002	-8.54132E-002	5.66930E-004	...........
	27	7.23333	-8.56960E-002	-8.53788E-002	5.67397E-004	...........
	28	7.49167	-8.56097E-002	-8.53708E-002	5.74997E-004	...........
	29	7.75	-8.55205E-002	-8.58037E-002	5.73863E-004	...........
	30	8.00833	-8.54797E-002	-8.55200E-002	5.68330E-004	...........
	31	8.26667	-8.54967E-002	-8.52388E-002	5.74563E-004	...........
	32	8.525	-8.55053E-002	-8.50610E-002	5.75897E-004	...........
	33	8.78333	-8.54390E-002	-8.50183E-002	5.72030E-004	...........
	34	9.04167	-8.53072E-002	-8.49863E-002	5.67563E-004	...........
	35	9.3	-8.51675E-002	-8.49536E-002	5.70097E-004	...........
	36	9.5583	-8.50614E-002	-8.49074E-002	5.72763E-004	...........
	37	9.8167	-8.49930E-002	-8.48683E-002	5.67263E-004	...........
	38	10.075	-8.49468E-002	-8.48321E-002	5.65430E-004	...........
EOC	QUANT	-0.0849468	Open Circuit (V)
PSTATMODEL	IQUANT	4	Pstat Model
PSTATSECTION	LABEL	REF600-11020	Pstat Section
PSTATSERIALNO	LABEL	11020	Pstat Serial Number
CTRLMODE	IQUANT	1	Control Mode
IESTAB	IQUANT	0	I/E Stability
CASPEED	IQUANT	1	Control Amp Speed
CONVENTION	IQUANT	1	Current Convention
ICHRANGE	IQUANT	2	Ich Range
ICHRANGEMODE	TOGGLE	F	Ich Auto Range
ICHOFFSETENABLE	TOGGLE	T	Ich Offset Enable
ICHOFFSET	QUANT	0	Ich Offset (V)
ICHFILTER	IQUANT	3	Ich Filter
VCHRANGE	IQUANT	2	Vch Range
VCHRANGEMODE	TOGGLE	F	Vch Auto Range
VCHOFFSETENABLE	TOGGLE	T	Vch Offset Enable
VCHOFFSET	QUANT	0	Vch Offset (V)
VCHFILTER	IQUANT	3	Vch Filter
ACHRANGE	IQUANT	2	Ach Range
ACHOFFSETENABLE	TOGGLE	F	Ach Offset Enable
ACHOFFSET	QUANT	0	Ach Offset (V)
ACHFILTER	IQUANT	3	Ach Filter
IERANGELOWERLIMIT	IQUANT	1	I/E Range Lower Limit
IERANGEMODE	TOGGLE	F	I/E AutoRange
IERANGE	IQUANT	8	I/E Range
POSFEEDENABLE	TOGGLE	F	Positive Feedback IR Comp
POSFEEDRESISTANCE	QUANT	0	Positive Feedback Resistance (ohm)
ACHSELECT	IQUANT	0	Ach Select
CABLEID	IQUANT	14	Cable ID
DCCALDATE	LABEL	2/27/2020	DC Calibration Date
ACCALDATE	LABEL	2/27/2020	AC Calibration Date
THERMOSELECT	IQUANT	1	Thermo Select
FRAMEWORKVERSION	QUANT	6.33	Framework Version
INSTRUMENTVERSION	LABEL	3.50	Instrument Version
ZCURVE	TABLE
	Pt	Time	Freq	Zreal	Zimag	Zsig	Zmod	Zphz	Idc	Vdc	IERange
	#	s	Hz	ohm	ohm	V	ohm	°	A	V	#
	0	2	1000078	1973.793	-2160.122	1	2926.087	-47.58075	1.206327E-006	-0.0833783	8
	1	3	794390.6	2428.544	-2294.031	1	3340.719	-43.36848	1.793898E-006	-0.08366	8
	2	4	630984.4	2892.663	-2350.497	1	3727.242	-39.09634	3.566957E-006	-0.084153	8
	3	6	501234.4	3388.9	-2342.506	1	4119.706	-34.65335	2.503408E-006	-0.0837478	8
	4	7	398109.4	3833.523	-2241.125	1	4440.557	-30.31109	-1.274951E-006	-0.0831902	8
	5	9	316265.6	4249.308	-2085.406	1	4733.448	-26.14012	-5.713755E-007	-0.0832988	8
	6	10	251203.1	4595.131	-1887.406	1	4967.648	-22.32994	-4.842064E-007	-0.0833397	8
	7	12	199546.9	4868.851	-1694.619	1	5155.332	-19.19062	2.699152E-006	-0.0837854	8
	8	13	158578.1	5110.134	-1516.288	1	5330.347	-16.52677	3.249608E-006	-0.084163	8
	9	15	125953.1	5302.724	-1267.28	1	5452.053	-13.44082	3.950048E-008	-0.0839549	7
	10	16	100078.1	5419.939	-1119.391	1	5534.328	-11.66934	-3.37785E-008	-0.0834935	7
	11	17	79453.13	5531.569	-1000.882	1	5621.39	-10.25613	9.006958E-008	-0.0836213	7
	12	19	63140.62	5624.308	-907.8616	1	5697.109	-9.169449	-3.267678E-008	-0.0835064	7
	13	20	50203.12	5701.742	-835.4223	1	5762.62	-8.335695	3.136632E-008	-0.083582	7
	14	21	39890.62	5768.991	-787.3588	1	5822.473	-7.771779	3.52309E-008	-0.0834941	7
	15	23	31640.63	5832.072	-764.2817	1	5881.938	-7.465956	9.241525E-008	-0.083637	7
	16	24	25171.88	5891.508	-759.3314	1	5940.24	-7.344122	-2.713383E-008	-0.0834462	7
	17	26	20015.62	5944.299	-777.6821	1	5994.955	-7.453572	3.501056E-009	-0.0835455	7
	18	27	15890.62	6005.777	-820.0781	1	6061.509	-7.775547	7.750073E-008	-0.0836566	7
	19	29	12609.37	6065.857	-886.2881	1	6130.263	-8.312719	-1.093142E-009	-0.0834504	7
	20	30	10078.13	6129.886	-971.636	1	6206.414	-9.00691	-4.544702E-008	-0.0834521	7
	21	31	8015.625	6196.89	-1092.434	1	6292.444	-9.9978	-4.054153E-010	-0.083449	7
	22	33	6328.125	6276.455	-1250.266	1	6399.77	-11.26581	-4.493632E-008	-0.0834512	7
	23	34	5015.625	6364.776	-1448.027	1	6527.416	-12.81699	-2.639894E-008	-0.0834726	7
	24	35	3984.375	6460.529	-1690.447	1	6678.027	-14.66315	2.366524E-008	-0.0835018	7
	25	37	3170.956	6568.871	-1984.449	1	6862.077	-16.80951	-3.344567E-008	-0.0835143	7
	26	38	2527.573	6691.175	-2345.885	1	7090.486	-19.32036	3.406288E-008	-0.0835953	7
	27	39	1976.103	6846.094	-2817.699	1	7403.272	-22.37097	4.653554E-009	-0.0835152	7
	28	41	1577.524	7010.597	-3354.772	1	7771.935	-25.57245	1.069939E-008	-0.0835331	7
	29	42	1265.625	7209	-4002.827	1	8245.744	-29.0414	2.800769E-008	-0.0834958	7
	30	43	998.264	7451.235	-4827.737	1	8878.51	-32.93964	1.0788E-008	-0.0835389	7
	31	45	796.875	7730.466	-5786.359	1	9656.19	-36.81535	-9.432661E-010	-0.083391	6
	32	46	627.7902	8078.352	-7019.03	1	10701.71	-40.98637	-2.138867E-009	-0.0834888	6
	33	48	505.5147	8455.777	-8379.603	1	11904.53	-44.74076	-1.047885E-008	-0.0833339	6
	34	49	397.9953	8947.628	-10199.29	1	13567.81	-48.74018	5.805638E-010	-0.0834496	6
	35	50	315.5048	9526.89	-12354.67	1	15601.27	-52.36359	-8.967609E-011	-0.0834606	6
	36	52	252.4038	10191.26	-14866.08	1	18023.93	-55.5679	2.793646E-010	-0.0834578	6
	37	53	198.6229	11052.31	-18150.7	1	21250.91	-58.66196	3.039799E-010	-0.0834575	6
	38	54	158.3615	12041.59	-21946.19	1	25032.68	-61.24699	-2.126856E-011	-0.0834614	6
	39	56	125.558	13286.61	-26666	1	29792.78	-63.51475	2.220443E-011	-0.0834617	6
	40	57	100.4464	14768.16	-32205.53	1	35430.14	-65.36572	-2.900403E-010	-0.0834548	6
	41	58	79.00281	16691.25	-39400.52	1	42790.17	-67.04102	1.422595E-010	-0.083461	6
	42	60	63.3446	18788.04	-47317.45	1	50911.01	-68.34377	6.427766E-011	-0.083459	6
	43	61	49.86702	22412.02	-58069.14	1	62244.07	-68.89571	1.320861E-010	-0.0834634	6
	44	63	39.72458	25961.29	-70201.75	1	74848.34	-69.70511	1.251713E-010	-0.0834563	6
	45	64	31.6723	30790.54	-84712.69	1	90134.88	-70.02531	-3.02393E-010	-0.0834564	6
	46	65	24.93351	37094.69	-103059.4	1	109531.9	-70.20441	-3.46491E-010	-0.0834556	5
	47	67	19.86229	44868.54	-124006.2	1	131873.9	-70.10861	-4.746944E-010	-0.0834469	5
	48	68	15.83615	54017.12	-148713	1	158219.4	-70.03742	-5.20675E-010	-0.0834554	5
	49	69	12.40079	68524.35	-182163.8	1	194625.8	-69.38525	-7.253971E-010	-0.083454	5
	50	71	9.93114	84446.32	-215485.8	1	231441.8	-68.60038	4.210648E-010	-0.0834503	5
	51	72	7.944915	105073.6	-256079.6	1	276798.2	-67.69086	-1.918199E-010	-0.0834442	5
	52	74	6.317385	132708.9	-303170.7	1	330944.3	-66.35925	-2.286337E-010	-0.0834333	5
	53	76	5.008013	167932.6	-357706.7	1	395165.1	-64.85135	9.555974E-011	-0.0834505	5
	54	79	3.945707	213669	-420017	1	471241.6	-63.03687	2.10705E-011	-0.0834503	5
	55	81	3.158693	267967.1	-487129.6	1	555969.1	-61.18507	2.077872E-010	-0.0834296	5
	56	85	2.504006	329193.2	-554076.8	1	644491.4	-59.28422	-7.111382E-011	-0.0834548	5
	57	87	1.998082	400501.1	-627047.9	1	744036.5	-57.43327	-2.612423E-010	-0.083449	5
	58	90	1.584686	486102.4	-705096.3	1	856420.6	-55.41713	-4.73425E-012	-0.0834013	5
	59	94	1.266892	573976.1	-787602.1	1	974559	-53.91678	-1.49344E-010	-0.0834582	5
	60	98	0.999041	681941.4	-882923.3	1	1115615	-52.31866	2.203092E-010	-0.0834238	4
