EXPLAIN
TAG	EISPOT
TITLE	LABEL	Potentiostatic EIS	Test &Identifier
DATE	LABEL	9/11/2020	Date
TIME	LABEL	19:21:35	Time
NOTES	NOTES	1	&Notes...
	
PSTAT	PSTAT	REF600-11020	Potentiostat
VDC	POTEN	0.00000E+000	T	DC &Voltage (V)
FREQINIT	QUANT	1.00000E+006	Initial Fre&q. (Hz)
FREQFINAL	QUANT	1.00000E+000	Final Fre&q. (Hz)
PTSPERDEC	QUANT	1.00000E+001	Points/&decade
VAC	QUANT	2.50000E+001	AC &Voltage (mV rms)
AREA	QUANT	4.00000E-005	&Area (cm^2)
CONDIT	TWOPARAM	F	5.00000E+000	0.00000E+000	Conditionin&g	Time(s)	E(V)
DELAY	TWOPARAM	F	3.00000E+000	0.00000E+000	Init. De&lay	Time(s)	Stab.(mV/s)
SPEED	SELECTOR	0	&Optimize for:
ZGUESS	QUANT	1.00000E+003	E&stimated Z (ohms)
OCVCURVE	TABLE	39
	Pt	T	Vf	Vm	Ach	Over
	#	s	V vs. Ref.	V	V	bits
	0	0.258333	-1.39444E-001	-1.39444E-001	6.10258E-004	...........
	1	0.516667	-1.39445E-001	-1.39496E-001	6.11691E-004	...........
	2	0.775	-1.39451E-001	-1.39554E-001	6.14958E-004	...........
	3	1.03333	-1.39469E-001	-1.39601E-001	6.09791E-004	...........
	4	1.29167	-1.39502E-001	-1.39644E-001	6.10925E-004	...........
	5	1.55	-1.39545E-001	-1.39683E-001	6.11891E-004	...........
	6	1.80833	-1.39592E-001	-1.39729E-001	6.11124E-004	...........
	7	2.06667	-1.39637E-001	-1.39767E-001	6.09558E-004	...........
	8	2.325	-1.39681E-001	-1.39804E-001	6.08358E-004	...........
	9	2.58333	-1.39723E-001	-1.39827E-001	6.12924E-004	...........
	10	2.84167	-1.39761E-001	-1.39844E-001	6.11391E-004	...........
	11	3.1	-1.39794E-001	-1.39865E-001	6.10591E-004	...........
	12	3.35833	-1.39821E-001	-1.39882E-001	6.18624E-004	...........
	13	3.61667	-1.39843E-001	-1.39904E-001	6.13124E-004	...........
	14	3.875	-1.39863E-001	-1.39922E-001	6.13258E-004	...........
	15	4.13333	-1.39883E-001	-1.39945E-001	6.12791E-004	...........
	16	4.39167	-1.39902E-001	-1.39974E-001	6.12624E-004	...........
	17	4.65	-1.39924E-001	-1.40009E-001	6.17124E-004	...........
	18	4.90833	-1.39948E-001	-1.40036E-001	6.16591E-004	...........
	19	5.16667	-1.39975E-001	-1.40060E-001	6.18891E-004	...........
	20	5.425	-1.40003E-001	-1.40090E-001	6.11458E-004	...........
	21	5.68333	-1.40032E-001	-1.40122E-001	6.12691E-004	...........
	22	5.94167	-1.40060E-001	-1.40147E-001	6.10491E-004	...........
	23	6.2	-1.40089E-001	-1.40163E-001	6.15191E-004	...........
	24	6.45833	-1.40116E-001	-1.40193E-001	6.12724E-004	...........
	25	6.71667	-1.40141E-001	-1.40218E-001	6.18358E-004	...........
	26	6.975	-1.40166E-001	-1.40241E-001	6.13624E-004	...........
	27	7.23333	-1.40191E-001	-1.40285E-001	6.16691E-004	...........
	28	7.49167	-1.40217E-001	-1.40318E-001	6.17524E-004	...........
	29	7.75	-1.40247E-001	-1.40356E-001	6.05891E-004	...........
	30	8.00833	-1.40281E-001	-1.40396E-001	6.11991E-004	...........
	31	8.26667	-1.40316E-001	-1.40430E-001	6.15391E-004	...........
	32	8.525	-1.40353E-001	-1.40460E-001	6.11024E-004	...........
	33	8.78333	-1.40390E-001	-1.40485E-001	6.11158E-004	...........
	34	9.04167	-1.40424E-001	-1.40516E-001	6.12824E-004	...........
	35	9.3	-1.40455E-001	-1.40549E-001	6.12324E-004	...........
	36	9.5583	-1.40486E-001	-1.40604E-001	6.13024E-004	...........
	37	9.8167	-1.40518E-001	-1.40640E-001	6.12024E-004	...........
	38	10.075	-1.40555E-001	-1.40679E-001	6.12791E-004	...........
EOC	QUANT	-0.1405551	Open Circuit (V)
PSTATMODEL	IQUANT	4	Pstat Model
PSTATSECTION	LABEL	REF600-11020	Pstat Section
PSTATSERIALNO	LABEL	11020	Pstat Serial Number
CTRLMODE	IQUANT	1	Control Mode
IESTAB	IQUANT	0	I/E Stability
CASPEED	IQUANT	1	Control Amp Speed
CONVENTION	IQUANT	1	Current Convention
ICHRANGE	IQUANT	2	Ich Range
ICHRANGEMODE	TOGGLE	F	Ich Auto Range
ICHOFFSETENABLE	TOGGLE	T	Ich Offset Enable
ICHOFFSET	QUANT	0	Ich Offset (V)
ICHFILTER	IQUANT	3	Ich Filter
VCHRANGE	IQUANT	2	Vch Range
VCHRANGEMODE	TOGGLE	F	Vch Auto Range
VCHOFFSETENABLE	TOGGLE	T	Vch Offset Enable
VCHOFFSET	QUANT	0	Vch Offset (V)
VCHFILTER	IQUANT	3	Vch Filter
ACHRANGE	IQUANT	2	Ach Range
ACHOFFSETENABLE	TOGGLE	F	Ach Offset Enable
ACHOFFSET	QUANT	0	Ach Offset (V)
ACHFILTER	IQUANT	3	Ach Filter
IERANGELOWERLIMIT	IQUANT	1	I/E Range Lower Limit
IERANGEMODE	TOGGLE	F	I/E AutoRange
IERANGE	IQUANT	8	I/E Range
POSFEEDENABLE	TOGGLE	F	Positive Feedback IR Comp
POSFEEDRESISTANCE	QUANT	0	Positive Feedback Resistance (ohm)
ACHSELECT	IQUANT	0	Ach Select
CABLEID	IQUANT	14	Cable ID
DCCALDATE	LABEL	9/1/2020	DC Calibration Date
ACCALDATE	LABEL	9/1/2020	AC Calibration Date
THERMOSELECT	IQUANT	1	Thermo Select
FRAMEWORKVERSION	QUANT	6.33	Framework Version
INSTRUMENTVERSION	LABEL	3.50	Instrument Version
ZCURVE	TABLE
	Pt	Time	Freq	Zreal	Zimag	Zsig	Zmod	Zphz	Idc	Vdc	IERange
	#	s	Hz	ohm	ohm	V	ohm	°	A	V	#
	0	1	1000078	1846.349	-1511.741	1	2386.287	-39.3097	1.461219E-007	-0.1384522	8
	1	2	794390.6	2067.556	-1566.02	1	2593.686	-37.14123	1.102498E-007	-0.1386756	8
	2	2	630984.4	2274.148	-1626.156	1	2795.735	-35.5671	5.578881E-008	-0.138848	8
	3	2	501234.4	2469.489	-1703.187	1	2999.87	-34.59373	7.103984E-008	-0.1389383	8
	4	3	398109.4	2655.705	-1813.023	1	3215.559	-34.32096	8.011513E-008	-0.1389721	8
	5	3	316265.6	2850.33	-1954.37	1	3456.001	-34.43705	1.197364E-007	-0.1389724	8
	6	3	251203.1	3059.442	-2153.5	1	3741.357	-35.1412	6.557954E-008	-0.1390217	8
	7	4	199546.9	3293.116	-2400.876	1	4075.392	-36.09426	6.358012E-008	-0.1390199	8
	8	4	158578.1	3574.26	-2708.373	1	4484.486	-37.15281	1.145402E-007	-0.1389811	8
	9	4	125953.1	3976.591	-3051.876	1	5012.706	-37.50482	2.515264E-009	-0.1390042	7
	10	5	100078.1	4431.757	-3448.592	1	5615.448	-37.88843	2.202638E-009	-0.1390283	7
	11	5	79453.13	4998.98	-3869.931	1	6321.88	-37.74503	2.866798E-009	-0.1390287	7
	12	5	63140.62	5691.378	-4272.114	1	7116.372	-36.89296	3.677884E-009	-0.1390333	7
	13	5	50203.12	6510.925	-4576.007	1	7958.139	-35.10031	5.57032E-009	-0.1390304	7
	14	6	39890.62	7422.14	-4784.807	1	8830.772	-32.80853	2.134229E-009	-0.1390357	7
	15	6	31640.63	8376.893	-4836.013	1	9672.61	-29.99801	2.12486E-009	-0.1390402	7
	16	6	25171.88	9305.799	-4766.201	1	10455.36	-27.12041	5.470478E-009	-0.139032	7
	17	7	20015.62	10149.44	-4551.863	1	11123.42	-24.15549	2.720868E-009	-0.1390429	7
	18	7	15890.62	10871.47	-4254.4	1	11674.28	-21.3722	2.985133E-009	-0.1390397	7
	19	7	12609.37	11599.76	-3902.58	1	12238.65	-18.5948	1.536908E-009	-0.1390373	6
	20	8	10078.13	12070.99	-3618.569	1	12601.7	-16.68736	1.301413E-009	-0.1390388	6
	21	8	8015.625	12531.51	-3421.409	1	12990.18	-15.27097	1.184363E-009	-0.1390443	6
	22	8	6328.125	12847.19	-3231.902	1	13247.47	-14.12061	1.406578E-009	-0.1390453	6
	23	9	5015.625	13181.07	-3150.68	1	13552.39	-13.44321	1.539724E-009	-0.1390422	6
	24	9	3984.375	13474.54	-3140.283	1	13835.62	-13.1188	1.120925E-009	-0.1390437	6
	25	9	3170.956	13787.29	-3212.342	1	14156.57	-13.11552	6.243001E-010	-0.1390403	6
	26	10	2527.573	14083.16	-3356.438	1	14477.61	-13.40522	4.528767E-010	-0.1390485	6
	27	10	1976.103	14422.76	-3603.064	1	14866.01	-14.02642	1.101854E-009	-0.1390497	6
	28	10	1577.524	14711.5	-3908.644	1	15221.88	-14.87896	8.074353E-010	-0.1390521	6
	29	11	1265.625	15066.38	-4299.803	1	15667.94	-15.92825	6.882096E-010	-0.1390537	6
	30	11	998.264	15471.5	-4823.296	1	16205.91	-17.31505	1.617187E-009	-0.1390532	6
	31	11	796.875	15913.62	-5434.264	1	16815.9	-18.85427	1.249375E-009	-0.1390503	6
	32	11	627.7902	16411.56	-6216.553	1	17549.5	-20.74624	1.332946E-009	-0.1390557	6
	33	12	505.5147	16952.97	-7072.01	1	18368.9	-22.64369	3.920743E-010	-0.1390502	6
	34	12	397.9953	17575.96	-8200.693	1	19395	-25.01308	1.135313E-009	-0.1390338	6
	35	12	315.5048	18404.96	-9518.51	1	20720.63	-27.34668	1.055952E-009	-0.1390355	6
	36	13	252.4038	19209.86	-11024.9	1	22148.75	-29.85232	1.288836E-009	-0.1390397	6
	37	13	198.6229	20252.2	-12951.13	1	24039.21	-32.59862	1.109915E-009	-0.1390413	6
	38	13	158.3615	21394.84	-15116.85	1	26196.53	-35.24371	1.226152E-009	-0.1390465	6
	39	14	125.558	22796.79	-17742.24	1	28887.38	-37.89284	1.438168E-009	-0.1390423	6
	40	14	100.4464	24404.38	-20712.16	1	32008.87	-40.32149	1.039302E-009	-0.1390462	6
	41	14	79.00281	26498.39	-24477.35	1	36073.61	-42.72958	1.328254E-009	-0.1390434	6
	42	15	63.3446	28799.42	-28535.88	1	40542.61	-44.73664	1.135204E-009	-0.139043	6
	43	15	49.86702	31885.92	-33646.52	1	46355.15	-46.53894	1.598463E-009	-0.1390466	6
	44	15	39.72458	35479.1	-39263.05	1	52918.37	-47.89822	4.959692E-010	-0.1390433	6
	45	16	31.6723	39858.69	-45639.64	1	60594.48	-48.86815	4.305008E-010	-0.1390467	6
	46	16	24.93351	45510.93	-53210.21	1	70018.37	-49.45948	1.932382E-009	-0.1390498	6
	47	16	19.86229	51942.09	-61237.09	1	80299.2	-49.69496	2.243533E-009	-0.1390426	6
	48	17	15.83615	59565.25	-70078.63	1	91973	-49.63622	1.149956E-009	-0.1390453	6
	49	17	12.40079	69294.03	-80227.05	1	106009.6	-49.18204	2.887492E-009	-0.1390566	5
	50	17	9.93114	79342.16	-90405.77	1	120284.6	-48.72907	2.649477E-009	-0.1390524	5
	51	18	7.944915	91085.18	-101237.5	1	136182	-48.02173	-5.360358E-010	-0.1390562	5
	52	18	6.317385	104419.6	-113424.4	1	154170.5	-47.36702	1.208507E-009	-0.1390638	5
	53	19	5.008013	119513.2	-126724	1	174190.6	-46.67737	1.851774E-009	-0.1390512	5
	54	20	3.945707	136437.7	-141015.1	1	196215.5	-45.94518	6.178613E-010	-0.1390621	5
	55	21	3.158693	153736.1	-156052.8	1	219059.9	-45.42846	1.502413E-009	-0.1390547	5
	56	22	2.504006	172798.1	-172950.6	1	244481.3	-45.02526	1.088734E-009	-0.139054	5
	57	23	1.998082	192851.9	-192161.8	1	272246.3	-44.89729	7.501683E-010	-0.1390997	5
	58	25	1.584686	214180.7	-214559.3	1	303165.1	-45.05059	1.158252E-009	-0.1390597	5
	59	27	1.266892	237577.7	-239986.4	1	337693.1	-45.28898	1.467776E-009	-0.1390366	5
	60	29	0.999041	265171.2	-272373.7	1	380135.8	-45.76766	1.732005E-009	-0.139026	5
