EXPLAIN
TAG	EISPOT
TITLE	LABEL	Potentiostatic EIS	Test &Identifier
DATE	LABEL	1/7/2020	Date
TIME	LABEL	17:55:32	Time
NOTES	NOTES	5	&Notes...
	
	
	
	
	
PSTAT	PSTAT	REF600-11020	Potentiostat
VDC	POTEN	0.00000E+000	T	DC &Voltage (V)
FREQINIT	QUANT	1.00000E+006	Initial Fre&q. (Hz)
FREQFINAL	QUANT	1.00000E+000	Final Fre&q. (Hz)
PTSPERDEC	QUANT	1.00000E+001	Points/&decade
VAC	QUANT	2.50000E+001	AC &Voltage (mV rms)
AREA	QUANT	1.00000E-001	&Area (cm^2)
CONDIT	TWOPARAM	T	5.00000E+000	0.00000E+000	Conditionin&g	Time(s)	E(V)
DELAY	TWOPARAM	T	5.00000E+000	0.00000E+000	Init. De&lay	Time(s)	Stab.(mV/s)
SPEED	SELECTOR	0	&Optimize for:
ZGUESS	QUANT	1.00000E+003	E&stimated Z (ohms)
OCVCURVE	TABLE	19
	Pt	T	Vf	Vm	Ach	Over
	#	s	V vs. Ref.	V	V	bits
	0	0.258333	1.47423E-003	1.47423E-003	6.54513E-004	...........
	1	0.516667	1.46391E-003	9.34244E-004	6.53013E-004	...........
	2	0.775	1.39782E-003	2.78676E-004	6.50780E-004	...........
	3	1.03333	1.20975E-003	6.88754E-005	6.51580E-004	...........
	4	1.29167	8.90291E-004	-1.44998E-004	6.51013E-004	...........
	5	1.55	5.16378E-004	-3.32303E-004	6.51646E-004	...........
	6	1.80833	1.76536E-004	-5.12127E-004	6.49013E-004	...........
	7	2.06667	-9.64422E-005	-7.20749E-004	6.52046E-004	...........
	8	2.325	-3.17517E-004	-8.98165E-004	6.52680E-004	...........
	9	2.58333	-5.12675E-004	-1.05942E-003	6.45613E-004	...........
	10	2.84167	-6.96990E-004	-1.22159E-003	6.44380E-004	...........
	11	3.1	-8.73731E-004	-1.37178E-003	6.46346E-004	...........
	12	3.35833	-1.04215E-003	-1.50697E-003	6.48980E-004	...........
	13	3.61667	-1.20203E-003	-1.67127E-003	6.49280E-004	...........
	14	3.875	-1.35512E-003	-1.80612E-003	6.49680E-004	...........
	15	4.13333	-1.50400E-003	-1.93654E-003	6.45446E-004	...........
	16	4.39167	-1.64960E-003	-2.08772E-003	6.39813E-004	...........
	17	4.65	-1.79224E-003	-2.23143E-003	6.45513E-004	...........
	18	4.90833	-1.93359E-003	-2.36246E-003	6.38580E-004	...........
EOC	QUANT	-0.0019336	Open Circuit (V)
PSTATMODEL	IQUANT	4	Pstat Model
PSTATSECTION	LABEL	REF600-11020	Pstat Section
PSTATSERIALNO	LABEL	11020	Pstat Serial Number
CTRLMODE	IQUANT	1	Control Mode
IESTAB	IQUANT	0	I/E Stability
CASPEED	IQUANT	1	Control Amp Speed
CONVENTION	IQUANT	1	Current Convention
ICHRANGE	IQUANT	2	Ich Range
ICHRANGEMODE	TOGGLE	F	Ich Auto Range
ICHOFFSETENABLE	TOGGLE	T	Ich Offset Enable
ICHOFFSET	QUANT	0	Ich Offset (V)
ICHFILTER	IQUANT	3	Ich Filter
VCHRANGE	IQUANT	2	Vch Range
VCHRANGEMODE	TOGGLE	F	Vch Auto Range
VCHOFFSETENABLE	TOGGLE	T	Vch Offset Enable
VCHOFFSET	QUANT	0	Vch Offset (V)
VCHFILTER	IQUANT	3	Vch Filter
ACHRANGE	IQUANT	2	Ach Range
ACHOFFSETENABLE	TOGGLE	F	Ach Offset Enable
ACHOFFSET	QUANT	0	Ach Offset (V)
ACHFILTER	IQUANT	3	Ach Filter
IERANGELOWERLIMIT	IQUANT	1	I/E Range Lower Limit
IERANGEMODE	TOGGLE	F	I/E AutoRange
IERANGE	IQUANT	6	I/E Range
POSFEEDENABLE	TOGGLE	F	Positive Feedback IR Comp
POSFEEDRESISTANCE	QUANT	0	Positive Feedback Resistance (ohm)
ACHSELECT	IQUANT	0	Ach Select
CABLEID	IQUANT	14	Cable ID
DCCALDATE	LABEL	12/22/2019	DC Calibration Date
ACCALDATE	LABEL	12/22/2019	AC Calibration Date
THERMOSELECT	IQUANT	1	Thermo Select
FRAMEWORKVERSION	QUANT	6.33	Framework Version
INSTRUMENTVERSION	LABEL	3.50	Instrument Version
ZCURVE	TABLE
	Pt	Time	Freq	Zreal	Zimag	Zsig	Zmod	Zphz	Idc	Vdc	IERange
	#	s	Hz	ohm	ohm	V	ohm	°	A	V	#
	0	1	1000078	2279.219	-1902.283	1	2968.758	-39.84907	-1.839909E-006	0.0001383	8
	1	1	794390.6	2633.718	-1982.833	1	3296.679	-36.97479	-4.032678E-006	0.0008833	8
	2	1	630984.4	2994.761	-1930.22	1	3562.912	-32.80308	7.814454E-006	-0.0020835	8
	3	2	501234.4	3359.983	-1837.845	1	3829.773	-28.6778	-2.568476E-006	0.0001501	8
	4	2	398109.4	3679.554	-1813.284	1	4102.087	-26.23408	-2.072645E-006	0.0005545	8
	5	2	316265.6	4050.052	-1654.57	1	4374.989	-22.22152	-5.923074E-007	-0.0004632	8
	6	3	251203.1	4269.938	-1520.217	1	4532.485	-19.59715	3.480414E-006	-0.0012176	8
	7	3	199546.9	4492.652	-1361.59	1	4694.449	-16.8605	8.66088E-007	-0.0007788	8
	8	3	158578.1	4653.338	-1259.743	1	4820.841	-15.14792	-7.854917E-006	0.0010621	8
	9	3	125953.1	4890.813	-1036.797	1	4999.5	-11.96886	1.413586E-006	-0.0033985	7
	10	4	100078.1	4980.378	-915.0147	1	5063.735	-10.41051	-1.032507E-007	-0.0003048	7
	11	4	79453.13	5079.665	-839.5327	1	5148.573	-9.384626	2.103808E-008	-0.0006484	7
	12	4	63140.62	5164.511	-776.3217	1	5222.533	-8.548614	-1.156977E-007	-0.0002631	7
	13	5	50203.12	5241.473	-730.7286	1	5292.164	-7.936613	-7.974128E-008	-0.0003977	7
	14	5	39890.62	5306.313	-699.9302	1	5352.276	-7.514232	2.088962E-008	-0.0006505	7
	15	5	31640.63	5373.77	-685.4874	1	5417.314	-7.269488	1.089485E-007	-0.000799	7
	16	6	25171.88	5438.891	-683.4791	1	5481.667	-7.162539	2.186163E-008	-0.0006583	7
	17	6	20015.62	5505.417	-703.6407	1	5550.201	-7.283418	-6.079024E-008	-0.0003297	7
	18	6	15890.62	5574.612	-729.7628	1	5622.175	-7.458082	4.409747E-008	-0.0006465	7
	19	7	12609.37	5649.015	-777.0817	1	5702.212	-7.832482	3.511345E-008	-0.0005024	7
	20	7	10078.13	5723.802	-836.7406	1	5784.638	-8.316938	-1.274933E-008	-0.0004331	7
	21	7	8015.625	5808.045	-905.2665	1	5878.171	-8.859082	8.037587E-008	-0.0004393	7
	22	8	6328.125	5901.297	-998.046	1	5985.099	-9.59921	-1.161479E-008	-0.0004339	7
	23	8	5015.625	5989.648	-1110.375	1	6091.701	-10.5024	-9.290239E-008	-0.0003458	7
	24	8	3984.375	6087.295	-1242.083	1	6212.724	-11.53261	-6.359182E-009	-0.0004163	7
	25	9	3170.956	6182.562	-1406.641	1	6340.561	-12.81761	-1.355079E-008	-0.0004387	7
	26	9	2527.573	6283.909	-1611.402	1	6487.228	-14.38262	-9.18585E-008	-0.0004302	7
	27	9	1976.103	6393.377	-1885.825	1	6665.704	-16.43423	8.796336E-008	-0.0004541	7
	28	10	1577.524	6502.859	-2206.335	1	6866.957	-18.74141	8.635001E-008	-0.0004489	7
	29	10	1265.625	6621.593	-2585.637	1	7108.517	-21.32993	1.385004E-007	-0.0007648	7
	30	10	998.264	6762.76	-3099.395	1	7439.165	-24.62214	-1.217617E-008	-0.0004433	7
	31	10	796.875	6919.829	-3700.098	1	7846.958	-28.13383	3.478549E-008	-0.000504	7
	32	11	627.7902	7103.468	-4501.025	1	8409.428	-32.35989	-7.946331E-008	-0.0004133	7
	33	11	505.5147	7309.534	-5379.055	1	9075.435	-36.34919	-9.446197E-008	-0.0004262	7
	34	11	397.9953	7589.779	-6578.623	1	10044.05	-40.91789	1.428512E-009	-0.0004926	6
	35	12	315.5048	7920.64	-8022.334	1	11273.61	-45.36546	7.494866E-010	-0.0004949	6
	36	12	252.4038	8318.313	-9718.11	1	12792.03	-49.43781	6.050425E-010	-0.0004977	6
	37	12	198.6229	8860.743	-11948.67	1	14875.6	-53.44058	7.409976E-010	-0.0004962	6
	38	13	158.3615	9514.43	-14523.19	1	17362.25	-56.7704	4.372496E-010	-0.000494	6
	39	13	125.558	10369.49	-17721.25	1	20532.15	-59.66621	5.716398E-010	-0.0004958	6
	40	13	100.4464	11434.57	-21415.36	1	24276.88	-61.90034	1.182215E-009	-0.0005014	6
	41	14	79.00281	12901.22	-26290.65	1	29285.49	-63.86212	4.841323E-010	-0.0005009	6
	42	14	63.3446	14401.92	-31414.58	1	34558.52	-65.37106	4.985141E-010	-0.0005032	6
	43	14	49.86702	16798.67	-38335.64	1	41854.71	-66.33698	7.181559E-010	-0.0005068	6
	44	15	39.72458	19605.76	-46322.26	1	50300.47	-67.05964	8.535315E-010	-0.0005024	6
	45	15	31.6723	23036.86	-55732.62	1	60306.07	-67.54243	1.053426E-009	-0.0005052	6
	46	15	24.93351	27651.26	-67435.2	1	72884.14	-67.70432	3.260918E-010	-0.0005035	6
	47	16	19.86229	33187.9	-80724.45	1	87280.43	-67.65117	4.046946E-010	-0.0005044	6
	48	16	15.83615	39825.29	-97253.9	1	105092.2	-67.731	1.424687E-009	-0.0005071	5
	49	16	12.40079	50325.99	-116127.6	1	126563.5	-66.56963	-1.681551E-009	-0.0005062	5
	50	17	9.93114	61145.66	-137271.2	1	150273.7	-65.99004	-6.077579E-010	-0.0005055	5
	51	17	7.944915	74856.73	-161427.3	1	177939	-65.122	1.487906E-010	-0.0005087	5
	52	18	6.317385	92189.28	-188845.5	1	210146.4	-63.97962	1.814998E-010	-0.0004994	5
	53	18	5.008013	113246.3	-220428.7	1	247817.6	-62.80796	-2.168039E-011	-0.0005102	5
	54	20	3.945707	138929	-256221.2	1	291462.8	-61.53244	3.460862E-010	-0.0005033	5
	55	21	3.158693	166745	-293575.6	1	337624.8	-60.40431	2.863093E-010	-0.0004927	5
	56	23	2.504006	199211.6	-338113	1	392435.5	-59.49398	1.188667E-010	-0.0005021	5
	57	24	1.998082	233034.8	-385435	1	450405.7	-58.84275	3.587182E-010	-0.0004812	5
	58	25	1.584686	272167.4	-443918	1	520709.4	-58.48742	3.901494E-010	-0.0004577	5
	59	27	1.266892	312251.3	-510719.8	1	598611.4	-58.55862	4.194978E-010	-0.0004905	5
	60	30	0.999041	358485.4	-591187.6	1	691385.9	-58.76814	3.329326E-010	-0.0005212	5
