EXPLAIN
TAG	EISPOT
TITLE	LABEL	Potentiostatic EIS	Test &Identifier
DATE	LABEL	1/7/2020	Date
TIME	LABEL	17:10:11	Time
NOTES	NOTES	5	&Notes...
	
	
	
	
	
PSTAT	PSTAT	REF600-11020	Potentiostat
VDC	POTEN	0.00000E+000	T	DC &Voltage (V)
FREQINIT	QUANT	1.00000E+006	Initial Fre&q. (Hz)
FREQFINAL	QUANT	1.00000E+000	Final Fre&q. (Hz)
PTSPERDEC	QUANT	1.00000E+001	Points/&decade
VAC	QUANT	2.50000E+001	AC &Voltage (mV rms)
AREA	QUANT	1.00000E-001	&Area (cm^2)
CONDIT	TWOPARAM	T	5.00000E+000	0.00000E+000	Conditionin&g	Time(s)	E(V)
DELAY	TWOPARAM	T	5.00000E+000	0.00000E+000	Init. De&lay	Time(s)	Stab.(mV/s)
SPEED	SELECTOR	0	&Optimize for:
ZGUESS	QUANT	1.00000E+003	E&stimated Z (ohms)
OCVCURVE	TABLE	19
	Pt	T	Vf	Vm	Ach	Over
	#	s	V vs. Ref.	V	V	bits
	0	0.258333	-5.61367E-005	-5.61367E-005	6.50546E-004	...........
	1	0.516667	-6.52192E-005	-5.31570E-004	6.45113E-004	...........
	2	0.775	-1.19918E-004	-9.26049E-004	6.48046E-004	...........
	3	1.03333	-2.71637E-004	-1.33327E-003	6.49146E-004	...........
	4	1.29167	-5.37907E-004	-1.68974E-003	6.44946E-004	...........
	5	1.55	-8.84888E-004	-2.00157E-003	6.44146E-004	...........
	6	1.80833	-1.26001E-003	-2.33200E-003	6.46746E-004	...........
	7	2.06667	-1.62635E-003	-2.63847E-003	6.43946E-004	...........
	8	2.325	-1.97079E-003	-2.90556E-003	6.41413E-004	...........
	9	2.58333	-2.29077E-003	-3.06278E-003	6.45946E-004	...........
	10	2.84167	-2.58240E-003	-3.38027E-003	6.38913E-004	...........
	11	3.1	-2.84716E-003	-3.61763E-003	6.44546E-004	...........
	12	3.35833	-3.09720E-003	-3.83126E-003	6.46613E-004	...........
	13	3.61667	-3.34369E-003	-4.13791E-003	6.44780E-004	...........
	14	3.875	-3.59046E-003	-4.32552E-003	6.45746E-004	...........
	15	4.13333	-3.83694E-003	-4.55753E-003	6.49546E-004	...........
	16	4.39167	-4.07980E-003	-4.83091E-003	6.48580E-004	...........
	17	4.65	-4.31726E-003	-4.98392E-003	6.51346E-004	...........
	18	4.90833	-4.54848E-003	-5.19982E-003	6.56513E-004	...........
EOC	QUANT	-0.0045485	Open Circuit (V)
PSTATMODEL	IQUANT	4	Pstat Model
PSTATSECTION	LABEL	REF600-11020	Pstat Section
PSTATSERIALNO	LABEL	11020	Pstat Serial Number
CTRLMODE	IQUANT	1	Control Mode
IESTAB	IQUANT	0	I/E Stability
CASPEED	IQUANT	1	Control Amp Speed
CONVENTION	IQUANT	1	Current Convention
ICHRANGE	IQUANT	2	Ich Range
ICHRANGEMODE	TOGGLE	F	Ich Auto Range
ICHOFFSETENABLE	TOGGLE	T	Ich Offset Enable
ICHOFFSET	QUANT	0	Ich Offset (V)
ICHFILTER	IQUANT	3	Ich Filter
VCHRANGE	IQUANT	2	Vch Range
VCHRANGEMODE	TOGGLE	F	Vch Auto Range
VCHOFFSETENABLE	TOGGLE	T	Vch Offset Enable
VCHOFFSET	QUANT	0	Vch Offset (V)
VCHFILTER	IQUANT	3	Vch Filter
ACHRANGE	IQUANT	2	Ach Range
ACHOFFSETENABLE	TOGGLE	F	Ach Offset Enable
ACHOFFSET	QUANT	0	Ach Offset (V)
ACHFILTER	IQUANT	3	Ach Filter
IERANGELOWERLIMIT	IQUANT	1	I/E Range Lower Limit
IERANGEMODE	TOGGLE	F	I/E AutoRange
IERANGE	IQUANT	6	I/E Range
POSFEEDENABLE	TOGGLE	F	Positive Feedback IR Comp
POSFEEDRESISTANCE	QUANT	0	Positive Feedback Resistance (ohm)
ACHSELECT	IQUANT	0	Ach Select
CABLEID	IQUANT	14	Cable ID
DCCALDATE	LABEL	12/22/2019	DC Calibration Date
ACCALDATE	LABEL	12/22/2019	AC Calibration Date
THERMOSELECT	IQUANT	1	Thermo Select
FRAMEWORKVERSION	QUANT	6.33	Framework Version
INSTRUMENTVERSION	LABEL	3.50	Instrument Version
ZCURVE	TABLE
	Pt	Time	Freq	Zreal	Zimag	Zsig	Zmod	Zphz	Idc	Vdc	IERange
	#	s	Hz	ohm	ohm	V	ohm	°	A	V	#
	0	1	1000078	2351.831	-2153.833	1	3189.06	-42.48379	-8.178377E-007	-0.0015169	8
	1	1	794390.6	2756.272	-2212.787	1	3534.609	-38.75815	1.938895E-007	-0.002898	8
	2	1	630984.4	3185.896	-2225.05	1	3885.972	-34.93069	-2.252161E-007	-0.0025334	8
	3	2	501234.4	3587.21	-2188.846	1	4202.276	-31.39073	-6.083786E-008	-0.0030731	8
	4	2	398109.4	3972.651	-2087.198	1	4487.577	-27.71706	-1.734149E-006	-0.0025613	8
	5	2	316265.6	4317.87	-1988.12	1	4753.59	-24.72323	-1.635262E-006	-0.0025813	8
	6	3	251203.1	4633.165	-1913.089	1	5012.597	-22.43632	1.117792E-007	-0.00288	8
	7	3	199546.9	4922.703	-1744.321	1	5222.611	-19.51138	1.241474E-006	-0.0031399	8
	8	3	158578.1	5189.905	-1658.174	1	5448.363	-17.71867	-4.103173E-006	-0.0021705	8
	9	4	125953.1	5473.72	-1432.779	1	5658.133	-14.66841	-1.759262E-006	0.0010469	7
	10	4	100078.1	5647.14	-1298.271	1	5794.454	-12.94726	-6.497832E-008	-0.0029602	7
	11	4	79453.13	5814.697	-1201.263	1	5937.485	-11.67257	-6.064646E-008	-0.0028682	7
	12	4	63140.62	5956.578	-1111.571	1	6059.407	-10.57052	-7.912712E-008	-0.0028831	7
	13	5	50203.12	6077.201	-1040.978	1	6165.712	-9.71999	-7.680566E-008	-0.0028909	7
	14	5	39890.62	6184.612	-981.318	1	6261.982	-9.016014	6.594099E-008	-0.0031982	7
	15	6	31640.63	6282.134	-944.2629	1	6352.703	-8.548095	-4.825489E-008	-0.002997	7
	16	6	25171.88	6367.443	-928.8194	1	6434.83	-8.299207	-7.859325E-008	-0.002892	7
	17	6	20015.62	6451.567	-936.4784	1	6519.181	-8.259095	3.008016E-008	-0.0028605	7
	18	7	15890.62	6534.18	-966.976	1	6605.342	-8.417953	8.18683E-008	-0.0030874	7
	19	7	12609.37	6613.598	-1025.146	1	6692.578	-8.811056	1.465231E-007	-0.0030802	7
	20	7	10078.13	6708.086	-1105.125	1	6798.509	-9.355169	-5.521022E-008	-0.0028365	7
	21	8	8015.625	6789.506	-1212.697	1	6896.958	-10.127	8.06336E-008	-0.0030887	7
	22	8	6328.125	6886.448	-1360.306	1	7019.515	-11.174	7.954801E-009	-0.002947	7
	23	8	5015.625	6992.817	-1545.135	1	7161.49	-12.45988	-4.243223E-008	-0.0030167	7
	24	9	3984.375	7106.269	-1777.649	1	7325.237	-14.04445	-5.434073E-008	-0.0028406	7
	25	9	3170.956	7230.804	-2052.017	1	7516.335	-15.84331	1.456775E-007	-0.0030853	7
	26	9	2527.573	7367.457	-2395.055	1	7746.98	-18.0086	8.158905E-008	-0.0030914	7
	27	10	1976.103	7536.873	-2856.815	1	8060.14	-20.75897	-9.960972E-008	-0.0028338	7
	28	10	1577.524	7731.339	-3377.674	1	8436.96	-23.5996	-9.855285E-008	-0.002885	7
	29	10	1265.625	7916.675	-3978.616	1	8860.199	-26.68234	-8.137535E-008	-0.0027005	7
	30	10	998.264	8169.943	-4780.108	1	9465.591	-30.33125	-6.423743E-008	-0.0029733	7
	31	11	796.875	8453.883	-5701.389	1	10196.76	-33.99615	1.385629E-008	-0.0032751	6
	32	11	627.7902	8806.017	-6906.619	1	11191.39	-38.10733	2.531063E-011	-0.003023	6
	33	11	505.5147	9189.173	-8233.658	1	12338.32	-41.86089	-1.235673E-008	-0.0028813	6
	34	12	397.9953	9692.23	-10006.4	1	13930.81	-45.91375	1.280414E-009	-0.002987	6
	35	12	315.5048	10293.26	-12111.47	1	15894.62	-49.63955	1.681629E-009	-0.0029843	6
	36	12	252.4038	10994.78	-14557.96	1	18243.34	-52.93839	1.643651E-009	-0.0029894	6
	37	13	198.6229	11918.26	-17754.86	1	21384.1	-56.12782	1.071319E-009	-0.0029844	6
	38	13	158.3615	13005.46	-21435.48	1	25072.33	-58.75372	1.04983E-009	-0.0029913	6
	39	13	125.558	14386.77	-26000.88	1	29715.74	-61.04343	1.018233E-009	-0.0029893	6
	40	14	100.4464	16087.1	-31284.04	1	35177.92	-62.78655	2.758508E-010	-0.0029921	6
	41	14	79.00281	18482.36	-38230.09	1	42463.37	-64.19852	1.535576E-009	-0.002994	6
	42	14	63.3446	20671.51	-46016.55	1	50446.35	-65.80948	1.707116E-009	-0.002994	6
	43	15	49.86702	24701.92	-55871.6	1	61088.63	-66.14884	1.461626E-009	-0.0029954	6
	44	15	39.72458	29980.29	-67082.13	1	73476.73	-65.91922	1.049973E-009	-0.0029912	6
	45	15	31.6723	36475.87	-80039.75	1	87959.37	-65.50021	9.452312E-010	-0.0029911	6
	46	16	24.93351	45086.85	-95795.4	1	105875.3	-64.79562	3.776014E-010	-0.0030012	5
	47	16	19.86229	55512	-113074.3	1	125965.8	-63.85201	-3.633517E-010	-0.0029997	5
	48	16	15.83615	68468.59	-131269.8	1	148053	-62.45404	1.324288E-009	-0.0030013	5
	49	17	12.40079	86912.01	-154672.5	1	177418.3	-60.66793	7.637731E-010	-0.0030039	5
	50	17	9.93114	105418.9	-177725.1	1	206638.3	-59.32539	-1.386742E-011	-0.0029993	5
	51	18	7.944915	127225.9	-202130.4	1	238837	-57.81267	9.981994E-010	-0.0030072	5
	52	18	6.317385	153524.7	-228305.7	1	275124.2	-56.08105	8.261026E-010	-0.0030069	5
	53	19	5.008013	183457.2	-256894.9	1	315676.3	-54.4681	4.12873E-010	-0.0030101	5
	54	20	3.945707	216681.8	-288513.7	1	360820.1	-53.09243	5.954681E-010	-0.0030009	5
	55	21	3.158693	251054.1	-321265.2	1	407724.7	-51.99399	3.751243E-010	-0.0029938	5
	56	23	2.504006	288581.8	-359121.9	1	460703.9	-51.21547	3.314438E-010	-0.0030018	5
	57	24	1.998082	326778.3	-400107.3	1	516594.5	-50.76057	5.049867E-010	-0.0029551	5
	58	28	1.584686	365765.4	-448850	1	579008.3	-50.8236	2.74002E-010	-0.002991	5
	59	30	1.266892	411268.7	-509081	1	654450.4	-51.06647	5.326945E-010	-0.0029629	5
	60	33	0.999041	461825	-583003.6	1	743757.7	-51.61557	5.057665E-010	-0.0029646	5
