EXPLAIN
TAG	EISPOT
TITLE	LABEL	Potentiostatic EIS	Test &Identifier
DATE	LABEL	1/10/2020	Date
TIME	LABEL	14:02:16	Time
NOTES	NOTES	5	&Notes...
	
	
	
	
	
PSTAT	PSTAT	REF600-11020	Potentiostat
VDC	POTEN	0.00000E+000	T	DC &Voltage (V)
FREQINIT	QUANT	1.00000E+006	Initial Fre&q. (Hz)
FREQFINAL	QUANT	1.00000E+000	Final Fre&q. (Hz)
PTSPERDEC	QUANT	1.00000E+001	Points/&decade
VAC	QUANT	2.50000E+001	AC &Voltage (mV rms)
AREA	QUANT	1.00000E-001	&Area (cm^2)
CONDIT	TWOPARAM	T	5.00000E+000	0.00000E+000	Conditionin&g	Time(s)	E(V)
DELAY	TWOPARAM	T	5.00000E+000	0.00000E+000	Init. De&lay	Time(s)	Stab.(mV/s)
SPEED	SELECTOR	0	&Optimize for:
ZGUESS	QUANT	5.00000E+002	E&stimated Z (ohms)
OCVCURVE	TABLE	19
	Pt	T	Vf	Vm	Ach	Over
	#	s	V vs. Ref.	V	V	bits
	0	0.258333	6.44984E-003	6.44984E-003	6.67013E-004	...........
	1	0.516667	6.44097E-003	5.98552E-003	6.61546E-004	...........
	2	0.775	6.40382E-003	6.45192E-003	6.61813E-004	...........
	3	1.03333	6.34630E-003	6.37737E-003	6.62879E-004	...........
	4	1.29167	6.31366E-003	6.42696E-003	6.53713E-004	...........
	5	1.55	6.33382E-003	6.73489E-003	6.52646E-004	...........
	6	1.80833	6.39977E-003	6.60566E-003	6.55346E-004	...........
	7	2.06667	6.48617E-003	6.48338E-003	6.59046E-004	...........
	8	2.325	6.54788E-003	6.33534E-003	6.61013E-004	...........
	9	2.58333	6.54982E-003	6.48552E-003	6.61313E-004	...........
	10	2.84167	6.50807E-003	6.47036E-003	6.59779E-004	...........
	11	3.1	6.47094E-003	6.59891E-003	6.55179E-004	...........
	12	3.35833	6.47570E-003	6.91547E-003	6.60746E-004	...........
	13	3.61667	6.53872E-003	6.90932E-003	6.57013E-004	...........
	14	3.875	6.64926E-003	6.84793E-003	6.58613E-004	...........
	15	4.13333	6.76148E-003	6.77813E-003	6.58346E-004	...........
	16	4.39167	6.82878E-003	6.85352E-003	6.63079E-004	...........
	17	4.65	6.84757E-003	6.89063E-003	6.61246E-004	...........
	18	4.90833	6.84960E-003	6.95062E-003	6.58079E-004	...........
EOC	QUANT	0.0068496	Open Circuit (V)
PSTATMODEL	IQUANT	4	Pstat Model
PSTATSECTION	LABEL	REF600-11020	Pstat Section
PSTATSERIALNO	LABEL	11020	Pstat Serial Number
CTRLMODE	IQUANT	1	Control Mode
IESTAB	IQUANT	0	I/E Stability
CASPEED	IQUANT	1	Control Amp Speed
CONVENTION	IQUANT	1	Current Convention
ICHRANGE	IQUANT	2	Ich Range
ICHRANGEMODE	TOGGLE	F	Ich Auto Range
ICHOFFSETENABLE	TOGGLE	T	Ich Offset Enable
ICHOFFSET	QUANT	0	Ich Offset (V)
ICHFILTER	IQUANT	3	Ich Filter
VCHRANGE	IQUANT	2	Vch Range
VCHRANGEMODE	TOGGLE	F	Vch Auto Range
VCHOFFSETENABLE	TOGGLE	T	Vch Offset Enable
VCHOFFSET	QUANT	0	Vch Offset (V)
VCHFILTER	IQUANT	3	Vch Filter
ACHRANGE	IQUANT	2	Ach Range
ACHOFFSETENABLE	TOGGLE	F	Ach Offset Enable
ACHOFFSET	QUANT	0	Ach Offset (V)
ACHFILTER	IQUANT	3	Ach Filter
IERANGELOWERLIMIT	IQUANT	1	I/E Range Lower Limit
IERANGEMODE	TOGGLE	F	I/E AutoRange
IERANGE	IQUANT	7	I/E Range
POSFEEDENABLE	TOGGLE	F	Positive Feedback IR Comp
POSFEEDRESISTANCE	QUANT	0	Positive Feedback Resistance (ohm)
ACHSELECT	IQUANT	0	Ach Select
CABLEID	IQUANT	14	Cable ID
DCCALDATE	LABEL	12/22/2019	DC Calibration Date
ACCALDATE	LABEL	12/22/2019	AC Calibration Date
THERMOSELECT	IQUANT	1	Thermo Select
FRAMEWORKVERSION	QUANT	6.33	Framework Version
INSTRUMENTVERSION	LABEL	3.50	Instrument Version
ZCURVE	TABLE
	Pt	Time	Freq	Zreal	Zimag	Zsig	Zmod	Zphz	Idc	Vdc	IERange
	#	s	Hz	ohm	ohm	V	ohm	°	A	V	#
	0	1	1000078	1964.407	-2219.73	1	2964.135	-48.49195	-3.338446E-006	0.0090997	8
	1	2	794390.6	2362.712	-2371.152	1	3347.353	-45.10215	3.535097E-006	0.0082221	8
	2	2	630984.4	2804.077	-2496.629	1	3754.465	-41.68048	-2.443523E-007	0.0083638	8
	3	2	501234.4	3252.954	-2570.928	1	4146.249	-38.3206	-2.892663E-007	0.0084858	8
	4	2	398109.4	3737.104	-2603.335	1	4554.482	-34.86178	1.733804E-006	0.0079764	8
	5	3	316265.6	4214.14	-2595.932	1	4949.529	-31.63328	-4.010494E-007	0.0084049	8
	6	3	251203.1	4687.788	-2550.165	1	5336.543	-28.54627	-2.988086E-007	0.0083986	8
	7	3	199546.9	5102.594	-2465.905	1	5667.2	-25.79285	1.042182E-006	0.0081783	8
	8	4	158578.1	5533.124	-2335.224	1	6005.725	-22.88191	-3.003473E-006	0.0090179	8
	9	4	125953.1	5926.059	-2118.368	1	6293.303	-19.67027	-3.827986E-007	0.0090623	7
	10	4	100078.1	6230.749	-1939.561	1	6525.652	-17.29077	2.212614E-009	0.0082861	7
	11	5	79453.13	6508.264	-1769.311	1	6744.477	-15.20864	2.208733E-008	0.0082628	7
	12	5	63140.62	6736.619	-1601.63	1	6924.395	-13.37376	-2.411084E-008	0.0083569	7
	13	5	50203.12	6927.793	-1450.628	1	7078.039	-11.82644	-3.824995E-008	0.0083992	7
	14	6	39890.62	7088.5	-1320.772	1	7210.497	-10.55466	-1.749868E-008	0.0083929	7
	15	6	31640.63	7219.167	-1213.529	1	7320.452	-9.54211	-1.785653E-008	0.0083905	7
	16	6	25171.88	7325.641	-1134.439	1	7412.959	-8.802829	2.056417E-008	0.0082479	7
	17	7	20015.62	7426.815	-1086.486	1	7505.867	-8.322897	4.551117E-008	0.0083083	7
	18	7	15890.62	7509.896	-1067.917	1	7585.446	-8.093273	5.715509E-008	0.00822	7
	19	7	12609.37	7589.97	-1078.466	1	7666.207	-8.087079	9.380695E-008	0.0081869	7
	20	8	10078.13	7667.943	-1118.962	1	7749.156	-8.302414	-2.35892E-008	0.0083483	7
	21	8	8015.625	7750.75	-1193.071	1	7842.037	-8.750842	3.394473E-008	0.0082152	7
	22	8	6328.125	7831.204	-1317.283	1	7941.221	-9.54831	-3.052171E-008	0.0083413	7
	23	9	5015.625	7920.273	-1475.021	1	8056.452	-10.54954	-3.097192E-008	0.0083435	7
	24	9	3984.375	8017.429	-1684.369	1	8192.452	-11.86463	2.08415E-009	0.0083287	7
	25	9	3170.956	8123.234	-1940.729	1	8351.849	-13.43672	3.394506E-008	0.0082096	7
	26	10	2527.573	8240.679	-2265.244	1	8546.351	-15.37016	-2.417599E-008	0.0083416	7
	27	10	1976.103	8385.73	-2708.253	1	8812.214	-17.89837	9.19425E-008	0.0081752	7
	28	10	1577.524	8546.985	-3212.503	1	9130.779	-20.59943	-2.745473E-008	0.0083253	7
	29	11	1265.625	8720.368	-3798.704	1	9511.83	-23.53856	-1.165465E-009	0.0082632	6
	30	11	998.264	8943.533	-4583.862	1	10049.8	-27.13667	2.324396E-009	0.0083535	6
	31	11	796.875	9200.354	-5495.989	1	10716.92	-30.85271	-3.832366E-009	0.0084075	6
	32	11	627.7902	9526.55	-6671.676	1	11630.41	-35.00449	-6.264381E-009	0.0083856	6
	33	12	505.5147	9887.08	-7960.352	1	12693.37	-38.83847	2.981155E-009	0.0081794	6
	34	12	397.9953	10363.22	-9691.49	1	14188.77	-43.08161	2.700396E-010	0.0083174	6
	35	12	315.5048	10925.09	-11737.46	1	16035.14	-47.05297	9.005907E-010	0.0083128	6
	36	13	252.4038	11580.38	-14109.25	1	18253.12	-50.62204	9.265667E-010	0.0083125	6
	37	13	198.6229	12428.11	-17209.42	1	21227.86	-54.16434	7.66785E-010	0.0083088	6
	38	13	158.3615	13390.12	-20750.56	1	24695.78	-57.16627	6.772348E-010	0.0083057	6
	39	14	125.558	14609.85	-25192.2	1	29122.06	-59.88903	4.054812E-010	0.0083081	6
	40	14	100.4464	16024.86	-30428.5	1	34390.25	-62.22692	3.676046E-010	0.0083095	6
	41	14	79.00281	17863.88	-37114.9	1	41190.22	-64.29788	-2.742885E-010	0.0083039	6
	42	15	63.3446	20557.28	-45130.16	1	49591.66	-65.51022	9.592097E-010	0.0083069	6
	43	15	49.86702	23449.31	-55222.23	1	59994.7	-66.9922	1.045166E-009	0.0083076	6
	44	16	39.72458	27153.93	-66358.2	1	71699	-67.74551	7.953308E-010	0.0083087	6
	45	16	31.6723	31905.92	-79946.94	1	86078.45	-68.24361	9.639174E-010	0.0083055	6
	46	16	24.93351	39015.87	-97727.7	1	105228	-68.2366	5.781816E-010	0.0083062	6
	47	16	19.86229	47948.03	-117021.9	1	126464	-67.71935	-4.575774E-010	0.008299	5
	48	17	15.83615	57798.72	-139429.2	1	150934.4	-67.48413	-5.482051E-010	0.0083029	5
	49	17	12.40079	73882.37	-168403.1	1	183897.3	-66.31182	5.931652E-010	0.0083105	5
	50	18	9.93114	94940.09	-197694.7	1	219309.9	-64.34801	3.908946E-010	0.0083003	5
	51	18	7.944915	118275.3	-230379	1	258966.3	-62.8243	-2.301E-011	0.008306	5
	52	19	6.317385	147616	-265355.4	1	303651.1	-60.91302	8.175582E-011	0.0083068	5
	53	19	5.008013	183399	-304308.4	1	355301	-58.92368	1.695695E-010	0.0083142	5
	54	20	3.945707	226454.1	-346278.7	1	413751.6	-56.81673	-8.189016E-011	0.008299	5
	55	22	3.158693	272059.5	-387046.4	1	473097.5	-54.89616	7.398231E-012	0.0082886	5
	56	24	2.504006	324645.1	-432210.1	1	540555.3	-53.08876	2.16104E-010	0.0082986	5
	57	25	1.998082	378921.6	-477230.7	1	609369.1	-51.5504	-5.857115E-011	0.0082685	5
	58	26	1.584686	438606.3	-530397.8	1	688256.6	-50.41135	-1.353045E-010	0.0082587	5
	59	28	1.266892	497759.8	-586193.6	1	769017.4	-49.66411	-8.268709E-011	0.0082916	5
	60	31	0.999041	565794.9	-657158.8	1	867168.7	-49.2725	4.881905E-011	0.0083208	5
