EXPLAIN
TAG	EISPOT
TITLE	LABEL	Potentiostatic EIS	Test &Identifier
DATE	LABEL	3/3/2020	Date
TIME	LABEL	19:06:40	Time
NOTES	NOTES	1	&Notes...
	
PSTAT	PSTAT	REF600-11020	Potentiostat
VDC	POTEN	0.00000E+000	T	DC &Voltage (V)
FREQINIT	QUANT	1.00000E+006	Initial Fre&q. (Hz)
FREQFINAL	QUANT	1.00000E+000	Final Fre&q. (Hz)
PTSPERDEC	QUANT	1.00000E+001	Points/&decade
VAC	QUANT	2.50000E+001	AC &Voltage (mV rms)
AREA	QUANT	1.60000E-004	&Area (cm^2)
CONDIT	TWOPARAM	F	1.50000E+001	0.00000E+000	Conditionin&g	Time(s)	E(V)
DELAY	TWOPARAM	F	1.00000E+002	0.00000E+000	Init. De&lay	Time(s)	Stab.(mV/s)
SPEED	SELECTOR	1	&Optimize for:
ZGUESS	QUANT	1.00000E+004	E&stimated Z (ohms)
OCVCURVE	TABLE	39
	Pt	T	Vf	Vm	Ach	Over
	#	s	V vs. Ref.	V	V	bits
	0	0.258333	9.06620E-002	9.06620E-002	5.30797E-004	...........
	1	0.516667	9.06605E-002	9.05821E-002	5.32564E-004	...........
	2	0.775	9.06525E-002	9.05774E-002	5.37931E-004	...........
	3	1.03333	9.06341E-002	9.05628E-002	5.39964E-004	...........
	4	1.29167	9.06116E-002	9.06797E-002	5.38831E-004	...........
	5	1.55	9.05952E-002	9.03858E-002	5.37764E-004	...........
	6	1.80833	9.05784E-002	9.04566E-002	5.40197E-004	...........
	7	2.06667	9.05474E-002	9.05444E-002	5.40831E-004	...........
	8	2.325	9.05124E-002	9.04717E-002	5.37097E-004	...........
	9	2.58333	9.04926E-002	9.04810E-002	5.35797E-004	...........
	10	2.84167	9.04861E-002	9.04182E-002	5.34831E-004	...........
	11	3.1	9.04739E-002	9.01966E-002	5.35764E-004	...........
	12	3.35833	9.04355E-002	9.01724E-002	5.41564E-004	...........
	13	3.61667	9.03640E-002	9.01093E-002	5.37497E-004	...........
	14	3.875	9.02770E-002	9.01638E-002	5.40431E-004	...........
	15	4.13333	9.02053E-002	9.02090E-002	5.36964E-004	...........
	16	4.39167	9.01707E-002	9.02947E-002	5.42464E-004	...........
	17	4.65	9.01782E-002	9.03447E-002	5.35731E-004	...........
	18	4.90833	9.02167E-002	9.03246E-002	5.38664E-004	...........
	19	5.16667	9.02644E-002	9.03068E-002	5.36597E-004	...........
	20	5.425	9.03003E-002	9.03241E-002	5.41531E-004	...........
	21	5.68333	9.03174E-002	9.03265E-002	5.39897E-004	...........
	22	5.94167	9.03221E-002	9.03111E-002	5.38431E-004	...........
	23	6.2	9.03215E-002	9.02945E-002	5.41997E-004	...........
	24	6.45833	9.03177E-002	9.03000E-002	5.42330E-004	...........
	25	6.71667	9.03117E-002	9.03208E-002	5.38431E-004	...........
	26	6.975	9.03073E-002	9.03120E-002	5.40164E-004	...........
	27	7.23333	9.03053E-002	9.02118E-002	5.38797E-004	...........
	28	7.49167	9.02958E-002	9.01107E-002	5.36964E-004	...........
	29	7.75	9.02657E-002	9.01092E-002	5.36797E-004	...........
	30	8.00833	9.02168E-002	9.01436E-002	5.43897E-004	...........
	31	8.26667	9.01703E-002	9.01896E-002	5.41364E-004	...........
	32	8.525	9.01487E-002	9.02759E-002	5.40264E-004	...........
	33	8.78333	9.01603E-002	9.03056E-002	5.41097E-004	...........
	34	9.04167	9.01967E-002	9.02659E-002	5.40964E-004	...........
	35	9.3	9.02361E-002	9.01858E-002	5.35564E-004	...........
	36	9.5583	9.02538E-002	9.01268E-002	5.41564E-004	...........
	37	9.8167	9.02395E-002	9.01370E-002	5.38664E-004	...........
	38	10.075	9.02049E-002	9.01746E-002	5.41464E-004	...........
EOC	QUANT	0.0902049	Open Circuit (V)
PSTATMODEL	IQUANT	4	Pstat Model
PSTATSECTION	LABEL	REF600-11020	Pstat Section
PSTATSERIALNO	LABEL	11020	Pstat Serial Number
CTRLMODE	IQUANT	1	Control Mode
IESTAB	IQUANT	0	I/E Stability
CASPEED	IQUANT	1	Control Amp Speed
CONVENTION	IQUANT	1	Current Convention
ICHRANGE	IQUANT	2	Ich Range
ICHRANGEMODE	TOGGLE	F	Ich Auto Range
ICHOFFSETENABLE	TOGGLE	T	Ich Offset Enable
ICHOFFSET	QUANT	0	Ich Offset (V)
ICHFILTER	IQUANT	3	Ich Filter
VCHRANGE	IQUANT	2	Vch Range
VCHRANGEMODE	TOGGLE	F	Vch Auto Range
VCHOFFSETENABLE	TOGGLE	T	Vch Offset Enable
VCHOFFSET	QUANT	0	Vch Offset (V)
VCHFILTER	IQUANT	3	Vch Filter
ACHRANGE	IQUANT	2	Ach Range
ACHOFFSETENABLE	TOGGLE	F	Ach Offset Enable
ACHOFFSET	QUANT	0	Ach Offset (V)
ACHFILTER	IQUANT	3	Ach Filter
IERANGELOWERLIMIT	IQUANT	1	I/E Range Lower Limit
IERANGEMODE	TOGGLE	F	I/E AutoRange
IERANGE	IQUANT	7	I/E Range
POSFEEDENABLE	TOGGLE	F	Positive Feedback IR Comp
POSFEEDRESISTANCE	QUANT	0	Positive Feedback Resistance (ohm)
ACHSELECT	IQUANT	0	Ach Select
CABLEID	IQUANT	14	Cable ID
DCCALDATE	LABEL	2/27/2020	DC Calibration Date
ACCALDATE	LABEL	2/27/2020	AC Calibration Date
THERMOSELECT	IQUANT	1	Thermo Select
FRAMEWORKVERSION	QUANT	6.33	Framework Version
INSTRUMENTVERSION	LABEL	3.50	Instrument Version
ZCURVE	TABLE
	Pt	Time	Freq	Zreal	Zimag	Zsig	Zmod	Zphz	Idc	Vdc	IERange
	#	s	Hz	ohm	ohm	V	ohm	°	A	V	#
	0	2	1000078	1962.341	-1623.745	1	2547.023	-39.60616	2.926961E-007	0.0924148	8
	1	3	794390.6	2285.444	-1618.097	1	2800.266	-35.29853	2.733695E-006	0.0915437	8
	2	4	630984.4	2597.915	-1567.317	1	3034.08	-31.1025	-2.148857E-006	0.0923939	8
	3	6	501234.4	2868.341	-1481.212	1	3228.214	-27.31185	-4.410638E-007	0.0920051	8
	4	7	398109.4	3108	-1381.36	1	3401.15	-23.96289	6.826189E-008	0.0918437	8
	5	9	316265.6	3314.268	-1274.154	1	3550.752	-21.02901	-1.305548E-006	0.0920051	8
	6	10	251203.1	3484.488	-1172.944	1	3676.609	-18.6042	-4.462181E-007	0.0919363	8
	7	11	199546.9	3624.405	-1092.3	1	3785.423	-16.77142	-4.880064E-007	0.0919304	8
	8	13	158578.1	3757.707	-1014.516	1	3892.249	-15.10865	-4.758494E-007	0.0919332	8
	9	14	125953.1	3892.423	-933.8628	1	4002.881	-13.4913	-8.430001E-008	0.0917761	7
	10	15	100078.1	3991.002	-892.0753	1	4089.486	-12.59974	9.720949E-008	0.0915821	7
	11	17	79453.13	4096.539	-870.1913	1	4187.942	-11.99258	6.421126E-008	0.0915962	7
	12	18	63140.62	4210.062	-848.7559	1	4294.765	-11.39815	-4.799152E-008	0.0918007	7
	13	19	50203.12	4318.271	-834.8212	1	4398.226	-10.94162	-2.250679E-008	0.0917114	7
	14	21	39890.62	4423.757	-826.5381	1	4500.311	-10.58316	9.759864E-008	0.0915747	7
	15	22	31640.63	4527.646	-822.8844	1	4601.816	-10.30088	-2.850759E-008	0.0918579	7
	16	24	25171.88	4624.679	-826.5643	1	4697.963	-10.13342	5.536791E-008	0.0917687	7
	17	25	20015.62	4719.267	-840.0842	1	4793.456	-10.09358	-2.785435E-008	0.0917013	7
	18	26	15890.62	4809.38	-863.4758	1	4886.28	-10.17844	9.915514E-008	0.0915718	7
	19	28	12609.37	4900.823	-899.436	1	4982.675	-10.39962	8.110894E-008	0.0917036	7
	20	29	10078.13	4984.54	-953.572	1	5074.933	-10.83017	9.881137E-008	0.0915683	7
	21	30	8015.625	5067.813	-1028.914	1	5171.208	-11.47672	-2.633221E-008	0.0916989	7
	22	32	6328.125	5155.779	-1135.675	1	5279.377	-12.4223	3.102717E-008	0.091792	7
	23	33	5015.625	5246.168	-1269.884	1	5397.674	-13.60725	-3.792284E-008	0.0917773	7
	24	35	3984.375	5337.296	-1438.281	1	5527.692	-15.08167	9.063221E-008	0.0916394	7
	25	36	3170.956	5433.518	-1652.036	1	5679.115	-16.91165	-1.58573E-008	0.091722	7
	26	37	2527.573	5536.703	-1917.863	1	5859.46	-19.10561	-9.600885E-008	0.0918705	7
	27	39	1976.103	5658.814	-2275.802	1	6099.3	-21.90848	6.644922E-008	0.0915777	7
	28	40	1577.524	5785.419	-2686.19	1	6378.612	-24.90561	-2.703325E-008	0.0918478	7
	29	41	1265.625	5927.471	-3186.029	1	6729.465	-28.25813	-1.727441E-008	0.0917218	7
	30	43	998.264	6105.491	-3844.826	1	7215.242	-32.19995	9.502379E-008	0.0916633	7
	31	44	796.875	6304.52	-4606.135	1	7807.909	-36.15218	-6.499682E-009	0.0918335	7
	32	45	627.7902	6560.802	-5598.566	1	8624.852	-40.47531	-7.858548E-008	0.0918007	7
	33	47	505.5147	6836.713	-6722.772	1	9588.34	-44.51855	9.490478E-008	0.091655	7
	34	48	397.9953	7214.65	-8199.691	1	10921.82	-48.65647	4.198343E-010	0.091823	6
	35	50	315.5048	7660.082	-9971.81	1	12574.34	-52.46949	1.022214E-009	0.0918246	6
	36	51	252.4038	8194.425	-12053.3	1	14575	-55.79021	3.498692E-010	0.0918199	6
	37	52	198.6229	8910.509	-14777.98	1	17256.47	-58.91177	5.413087E-010	0.0918214	6
	38	54	158.3615	9772.05	-17914.44	1	20406.37	-61.38823	2.678125E-010	0.0918233	6
	39	55	125.558	10896.19	-21813.9	1	24383.87	-63.45757	8.075255E-010	0.0918219	6
	40	56	100.4464	12276.58	-26329.6	1	29051.03	-65.00198	2.629513E-011	0.0918223	6
	41	58	79.00281	14170.23	-32226.21	1	35204.04	-66.26436	8.538157E-010	0.0918163	6
	42	59	63.3446	16379.45	-38907.27	1	42214.48	-67.16955	-1.523075E-010	0.0918118	6
	43	61	49.86702	19636.37	-46855.99	1	50804.24	-67.26245	4.079113E-010	0.0918101	6
	44	62	39.72458	23624.02	-56427.9	1	61173.55	-67.28296	1.891277E-010	0.0918174	6
	45	63	31.6723	28691.92	-67695.55	1	73524.92	-67.03094	-2.257765E-010	0.0918125	6
	46	65	24.93351	35397.57	-81219.89	1	88598.3	-66.45127	7.181084E-010	0.0918108	6
	47	66	19.86229	43733.35	-96196.9	1	105671.4	-65.55235	-1.796411E-010	0.0918069	5
	48	68	15.83615	54152.07	-112558.2	1	124907.1	-64.30766	1.402118E-010	0.0918191	5
	49	69	12.40079	67918.46	-133670.1	1	149935.4	-63.06465	-7.266363E-011	0.0918229	5
	50	70	9.93114	84229.07	-155477.5	1	176827	-61.55363	-3.157069E-010	0.0918223	5
	51	72	7.944915	103561.1	-178231.1	1	206134	-59.84129	9.359877E-010	0.0918163	5
	52	74	6.317385	126516.7	-203328.1	1	239476.1	-58.10892	-5.341514E-011	0.0918282	5
	53	76	5.008013	153519.4	-230462.8	1	276913.9	-56.33101	4.244648E-011	0.0918048	5
	54	78	3.945707	184139.7	-259602.3	1	318277.8	-54.65136	4.77275E-010	0.0918158	5
	55	81	3.158693	215363.9	-288903.2	1	360342.4	-53.2972	-1.446352E-010	0.0918038	5
	56	84	2.504006	249763.8	-322342.9	1	407782.9	-52.23008	5.310541E-010	0.0918127	5
	57	87	1.998082	284137.8	-358415.5	1	457379.4	-51.59399	1.346363E-010	0.0918567	5
	58	90	1.584686	319536.8	-402231.7	1	513706.2	-51.53603	2.147627E-010	0.0918061	5
	59	94	1.266892	357345.4	-453255.8	1	577179.9	-51.74787	1.246382E-010	0.0918567	5
	60	98	0.999041	399027.9	-518579	1	654329.8	-52.42301	-1.083451E-011	0.0917775	5
