EXPLAIN
TAG	EISPOT
TITLE	LABEL	Potentiostatic EIS	Test &Identifier
DATE	LABEL	7/13/2020	Date
TIME	LABEL	20:29:56	Time
NOTES	NOTES	1	&Notes...
	
PSTAT	PSTAT	REF600-11020	Potentiostat
VDC	POTEN	0.00000E+000	T	DC &Voltage (V)
FREQINIT	QUANT	1.00000E+006	Initial Fre&q. (Hz)
FREQFINAL	QUANT	1.00000E+000	Final Fre&q. (Hz)
PTSPERDEC	QUANT	1.00000E+001	Points/&decade
VAC	QUANT	2.50000E+001	AC &Voltage (mV rms)
AREA	QUANT	4.00000E-004	&Area (cm^2)
CONDIT	TWOPARAM	F	5.00000E+000	0.00000E+000	Conditionin&g	Time(s)	E(V)
DELAY	TWOPARAM	F	3.00000E+000	0.00000E+000	Init. De&lay	Time(s)	Stab.(mV/s)
SPEED	SELECTOR	0	&Optimize for:
ZGUESS	QUANT	1.00000E+003	E&stimated Z (ohms)
OCVCURVE	TABLE	39
	Pt	T	Vf	Vm	Ach	Over
	#	s	V vs. Ref.	V	V	bits
	0	0.258333	1.87372E-001	1.87372E-001	5.23883E-004	...........
	1	0.516667	1.87373E-001	1.87412E-001	5.20117E-004	...........
	2	0.775	1.87378E-001	1.87446E-001	5.21250E-004	...........
	3	1.03333	1.87390E-001	1.87475E-001	5.23450E-004	...........
	4	1.29167	1.87412E-001	1.87496E-001	5.25283E-004	...........
	5	1.55	1.87439E-001	1.87518E-001	5.25850E-004	...........
	6	1.80833	1.87467E-001	1.87541E-001	5.25283E-004	...........
	7	2.06667	1.87493E-001	1.87556E-001	5.26250E-004	...........
	8	2.325	1.87516E-001	1.87575E-001	5.24350E-004	...........
	9	2.58333	1.87536E-001	1.87586E-001	5.21983E-004	...........
	10	2.84167	1.87555E-001	1.87601E-001	5.24850E-004	...........
	11	3.1	1.87571E-001	1.87609E-001	5.23683E-004	...........
	12	3.35833	1.87585E-001	1.87625E-001	5.20650E-004	...........
	13	3.61667	1.87598E-001	1.87632E-001	5.21217E-004	...........
	14	3.875	1.87610E-001	1.87642E-001	5.17517E-004	...........
	15	4.13333	1.87621E-001	1.87647E-001	5.19783E-004	...........
	16	4.39167	1.87631E-001	1.87658E-001	5.19617E-004	...........
	17	4.65	1.87640E-001	1.87663E-001	5.19483E-004	...........
	18	4.90833	1.87648E-001	1.87676E-001	5.24483E-004	...........
	19	5.16667	1.87656E-001	1.87680E-001	5.20417E-004	...........
	20	5.425	1.87664E-001	1.87690E-001	5.20217E-004	...........
	21	5.68333	1.87673E-001	1.87691E-001	5.22217E-004	...........
	22	5.94167	1.87680E-001	1.87703E-001	5.21083E-004	...........
	23	6.2	1.87687E-001	1.87705E-001	5.24417E-004	...........
	24	6.45833	1.87693E-001	1.87715E-001	5.23550E-004	...........
	25	6.71667	1.87700E-001	1.87716E-001	5.26483E-004	...........
	26	6.975	1.87706E-001	1.87725E-001	5.22183E-004	...........
	27	7.23333	1.87712E-001	1.87728E-001	5.21783E-004	...........
	28	7.49167	1.87718E-001	1.87735E-001	5.26217E-004	...........
	29	7.75	1.87723E-001	1.87735E-001	5.28650E-004	...........
	30	8.00833	1.87728E-001	1.87741E-001	5.23250E-004	...........
	31	8.26667	1.87733E-001	1.87745E-001	5.23150E-004	...........
	32	8.525	1.87737E-001	1.87747E-001	5.21950E-004	...........
	33	8.78333	1.87740E-001	1.87754E-001	5.26517E-004	...........
	34	9.04167	1.87744E-001	1.87759E-001	5.23583E-004	...........
	35	9.3	1.87749E-001	1.87764E-001	5.19850E-004	...........
	36	9.5583	1.87753E-001	1.87765E-001	5.23750E-004	...........
	37	9.8167	1.87758E-001	1.87770E-001	5.24050E-004	...........
	38	10.075	1.87762E-001	1.87774E-001	5.23117E-004	...........
EOC	QUANT	0.187762	Open Circuit (V)
PSTATMODEL	IQUANT	4	Pstat Model
PSTATSECTION	LABEL	REF600-11020	Pstat Section
PSTATSERIALNO	LABEL	11020	Pstat Serial Number
CTRLMODE	IQUANT	1	Control Mode
IESTAB	IQUANT	0	I/E Stability
CASPEED	IQUANT	1	Control Amp Speed
CONVENTION	IQUANT	1	Current Convention
ICHRANGE	IQUANT	2	Ich Range
ICHRANGEMODE	TOGGLE	F	Ich Auto Range
ICHOFFSETENABLE	TOGGLE	T	Ich Offset Enable
ICHOFFSET	QUANT	0	Ich Offset (V)
ICHFILTER	IQUANT	3	Ich Filter
VCHRANGE	IQUANT	2	Vch Range
VCHRANGEMODE	TOGGLE	F	Vch Auto Range
VCHOFFSETENABLE	TOGGLE	T	Vch Offset Enable
VCHOFFSET	QUANT	0	Vch Offset (V)
VCHFILTER	IQUANT	3	Vch Filter
ACHRANGE	IQUANT	2	Ach Range
ACHOFFSETENABLE	TOGGLE	F	Ach Offset Enable
ACHOFFSET	QUANT	0	Ach Offset (V)
ACHFILTER	IQUANT	3	Ach Filter
IERANGELOWERLIMIT	IQUANT	1	I/E Range Lower Limit
IERANGEMODE	TOGGLE	F	I/E AutoRange
IERANGE	IQUANT	8	I/E Range
POSFEEDENABLE	TOGGLE	F	Positive Feedback IR Comp
POSFEEDRESISTANCE	QUANT	0	Positive Feedback Resistance (ohm)
ACHSELECT	IQUANT	0	Ach Select
CABLEID	IQUANT	14	Cable ID
DCCALDATE	LABEL	6/26/2020	DC Calibration Date
ACCALDATE	LABEL	6/26/2020	AC Calibration Date
THERMOSELECT	IQUANT	1	Thermo Select
FRAMEWORKVERSION	QUANT	6.33	Framework Version
INSTRUMENTVERSION	LABEL	3.50	Instrument Version
ZCURVE	TABLE
	Pt	Time	Freq	Zreal	Zimag	Zsig	Zmod	Zphz	Idc	Vdc	IERange
	#	s	Hz	ohm	ohm	V	ohm	°	A	V	#
	0	1	1000078	1587.656	-1322.091	1	2066.053	-39.78522	-2.144546E-008	0.1901503	8
	1	2	794390.6	1794.765	-1380.714	1	2264.41	-37.57111	1.044088E-007	0.1897644	8
	2	2	630984.4	1999.633	-1436.005	1	2461.837	-35.68342	1.110337E-008	0.1896426	8
	3	2	501234.4	2201.596	-1493.325	1	2660.272	-34.14873	4.933069E-008	0.1895159	8
	4	3	398109.4	2409.237	-1557.492	1	2868.834	-32.88134	1.572093E-007	0.1894477	8
	5	3	316265.6	2613.243	-1639.616	1	3085.025	-32.10521	-2.297118E-008	0.1894068	8
	6	3	251203.1	2823.434	-1724.629	1	3308.493	-31.4177	7.050482E-009	0.1893935	8
	7	4	199546.9	3047.194	-1835.33	1	3557.222	-31.06062	1.036513E-008	0.1893905	8
	8	4	158578.1	3277.692	-1965.175	1	3821.673	-30.94524	3.157014E-008	0.189388	8
	9	4	125953.1	3565.954	-2073.282	1	4124.867	-30.17416	1.42256E-008	0.1893332	7
	10	5	100078.1	3828.266	-2251.07	1	4441.051	-30.45608	-9.559849E-009	0.1893824	7
	11	5	79453.13	4103.504	-2465.166	1	4787.044	-30.99519	7.51902E-009	0.1893381	7
	12	5	63140.62	4406.598	-2706.48	1	5171.377	-31.55775	1.119295E-008	0.1893274	7
	13	6	50203.12	4741.165	-2981.48	1	5600.702	-32.16372	1.404022E-008	0.1893353	7
	14	6	39890.62	5117.45	-3295.558	1	6086.788	-32.7809	1.180241E-008	0.1893248	7
	15	6	31640.63	5542.589	-3650.47	1	6636.733	-33.36977	-6.745804E-009	0.1893439	7
	16	7	25171.88	6017.054	-4040.684	1	7247.901	-33.88288	-2.020628E-009	0.1893382	7
	17	7	20015.62	6548.685	-4463.274	1	7925.03	-34.27649	-4.728661E-009	0.189357	7
	18	7	15890.62	7154.787	-4938.796	1	8693.83	-34.61649	1.377418E-008	0.189332	7
	19	7	12609.37	7831.44	-5436.771	1	9533.62	-34.76929	4.230694E-009	0.189347	7
	20	8	10078.13	8659.195	-5874.929	1	10464.06	-34.15537	-9.920786E-010	0.1893569	6
	21	8	8015.625	9460.727	-6443.975	1	11446.84	-34.25991	-1.983149E-009	0.1893536	6
	22	8	6328.125	10364.27	-7067.753	1	12544.77	-34.29144	-1.862677E-009	0.1893489	6
	23	9	5015.625	11330.49	-7729.469	1	13715.85	-34.30115	2.686301E-009	0.1893052	6
	24	9	3984.375	12352.79	-8431.504	1	14956	-34.31582	2.055216E-010	0.1893144	6
	25	9	3170.956	13439.15	-9191.026	1	16281.45	-34.3682	-1.716286E-009	0.1893428	6
	26	10	2527.573	14598.64	-10015.77	1	17704.12	-34.45307	-1.933032E-009	0.1893543	6
	27	10	1976.103	15928.62	-11006.49	1	19361.4	-34.644	1.400056E-009	0.1892944	6
	28	10	1577.524	17209.59	-12005.36	1	20983.29	-34.89952	-1.148703E-009	0.1893288	6
	29	11	1265.625	18485.85	-13099.04	1	22656.38	-35.32132	-1.995951E-011	0.189337	6
	30	11	998.264	19861.57	-14464.58	1	24570.43	-36.06471	2.448744E-009	0.1893017	6
	31	11	796.875	21121.14	-16029.75	1	26515.2	-37.19644	-1.736102E-009	0.1893344	6
	32	12	627.7902	22401.33	-18099.77	1	28799.67	-38.93744	9.015215E-010	0.1892907	6
	33	12	505.5147	23537.17	-20488.68	1	31205.51	-41.03898	1.725281E-009	0.1892851	6
	34	12	397.9953	24737.77	-23847.45	1	34360.71	-43.95017	3.152269E-010	0.1893411	6
	35	13	315.5048	25970.87	-28072.15	1	38243.06	-47.22664	3.213565E-010	0.189337	6
	36	13	252.4038	27269.48	-33221.37	1	42980.05	-50.61943	3.126377E-010	0.189335	6
	37	13	198.6229	28892.95	-40201.45	1	49507.16	-54.29504	3.108744E-010	0.1893379	6
	38	14	158.3615	30767.97	-48465.03	1	57406.68	-57.59062	3.218049E-010	0.1893384	6
	39	14	125.558	33164.72	-58949.57	1	67638.38	-60.63812	3.263185E-010	0.1893375	6
	40	14	100.4464	36061.91	-71360.49	1	79954.87	-63.19032	3.764768E-010	0.18933	6
	41	15	79.00281	40125.31	-87753.57	1	96492.1	-65.42776	3.58489E-010	0.1893327	6
	42	15	63.3446	45156.44	-106086.6	1	115297.3	-66.94266	7.934454E-011	0.1893223	5
	43	15	49.86702	52050.2	-130362.6	1	140369.7	-68.23454	9.82268E-011	0.1893181	5
	44	16	39.72458	60706.55	-158279.5	1	169521.9	-69.01617	1.289704E-010	0.1893198	5
	45	16	31.6723	72002.25	-191576.9	1	204660.8	-69.40177	6.729332E-011	0.1893193	5
	46	16	24.93351	87725.96	-233440.7	1	249380.1	-69.40401	2.136584E-010	0.189319	5
	47	17	19.86229	106965.9	-280496.6	1	300200	-69.12592	4.124917E-010	0.1893239	5
	48	17	15.83615	131820.5	-335369	1	360345.7	-68.54214	-2.338356E-011	0.1893216	5
	49	17	12.40079	165552.8	-404935.8	1	437470.8	-67.76344	7.745327E-011	0.1893197	5
	50	17	9.93114	203955	-478384.6	1	520047.6	-66.90946	1.829756E-011	0.1893228	5
	51	18	7.944915	249936.3	-563771.3	1	616689.7	-66.09089	-1.09012E-010	0.1893303	5
	52	18	6.317385	312115.7	-662356.3	1	732210.4	-64.76923	1.45662E-010	0.1893097	5
	53	19	5.008013	389813.4	-777936.9	1	870138.1	-63.38519	1.365414E-010	0.1893191	5
	54	20	3.945707	487415.9	-912830.8	1	1034811	-61.89953	5.577639E-011	0.1893211	5
	55	21	3.158693	602409.6	-1055683	1	1215469	-60.28941	1.475357E-010	0.1893041	4
	56	22	2.504006	745576.7	-1216498	1	1426798	-58.49639	1.60862E-010	0.1893138	4
	57	23	1.998082	918323.6	-1364721	1	1644926	-56.06332	9.827433E-011	0.1892748	4
	58	25	1.584686	1119496	-1544163	1	1907278	-54.05844	7.630003E-011	0.1892741	4
	59	27	1.266892	1343291	-1703777	1	2169628	-51.74706	6.004176E-011	0.1893121	4
	60	29	0.999041	1612349	-1886994	1	2482019	-49.48764	7.217591E-011	0.1893366	4
