EXPLAIN
TAG	EISPOT
TITLE	LABEL	Potentiostatic EIS	Test &Identifier
DATE	LABEL	6/19/2020	Date
TIME	LABEL	16:06:39	Time
NOTES	NOTES	1	&Notes...
	
PSTAT	PSTAT	REF600-10037	Potentiostat
VDC	POTEN	0.00000E+000	T	DC &Voltage (V)
FREQINIT	QUANT	1.00000E+006	Initial Fre&q. (Hz)
FREQFINAL	QUANT	1.00000E+000	Final Fre&q. (Hz)
PTSPERDEC	QUANT	1.00000E+001	Points/&decade
VAC	QUANT	1.00000E+002	AC &Voltage (mV rms)
AREA	QUANT	2.50000E-001	&Area (cm^2)
CONDIT	TWOPARAM	F	5.00000E+000	0.00000E+000	Conditionin&g	Time(s)	E(V)
DELAY	TWOPARAM	F	5.00000E+000	0.00000E+000	Init. De&lay	Time(s)	Stab.(mV/s)
SPEED	SELECTOR	0	&Optimize for:
ZGUESS	QUANT	1.00000E+003	E&stimated Z (ohms)
OCVCURVE	TABLE	39
	Pt	T	Vf	Vm	Ach	Over
	#	s	V vs. Ref.	V	V	bits
	0	0.258333	3.30790E-002	3.30790E-002	5.37321E-004	...........
	1	0.516667	3.30795E-002	3.31057E-002	5.41621E-004	...........
	2	0.775	3.30826E-002	3.31322E-002	5.39587E-004	...........
	3	1.03333	3.30919E-002	3.31725E-002	5.35421E-004	...........
	4	1.29167	3.31094E-002	3.31859E-002	5.32754E-004	...........
	5	1.55	3.31334E-002	3.32053E-002	5.36987E-004	...........
	6	1.80833	3.31591E-002	3.32286E-002	5.36154E-004	...........
	7	2.06667	3.31834E-002	3.32582E-002	5.31254E-004	...........
	8	2.325	3.32064E-002	3.32758E-002	5.32887E-004	...........
	9	2.58333	3.32292E-002	3.32926E-002	5.33854E-004	...........
	10	2.84167	3.32516E-002	3.33171E-002	5.35087E-004	...........
	11	3.1	3.32731E-002	3.33390E-002	5.36021E-004	...........
	12	3.35833	3.32939E-002	3.33505E-002	5.37121E-004	...........
	13	3.61667	3.33140E-002	3.33639E-002	5.42354E-004	...........
	14	3.875	3.33325E-002	3.33785E-002	5.45687E-004	...........
	15	4.13333	3.33489E-002	3.33985E-002	5.37687E-004	...........
	16	4.39167	3.33643E-002	3.34164E-002	5.39187E-004	...........
	17	4.65	3.33800E-002	3.34258E-002	5.40821E-004	...........
	18	4.90833	3.33959E-002	3.34382E-002	5.42554E-004	...........
	19	5.16667	3.34112E-002	3.34557E-002	5.38221E-004	...........
	20	5.425	3.34255E-002	3.34704E-002	5.39121E-004	...........
	21	5.68333	3.34397E-002	3.34902E-002	5.46387E-004	...........
	22	5.94167	3.34546E-002	3.34996E-002	5.41121E-004	...........
	23	6.2	3.34700E-002	3.35135E-002	5.41821E-004	...........
	24	6.45833	3.34849E-002	3.35216E-002	5.40121E-004	...........
	25	6.71667	3.34986E-002	3.35361E-002	5.48254E-004	...........
	26	6.975	3.35110E-002	3.35496E-002	5.39187E-004	...........
	27	7.23333	3.35232E-002	3.35660E-002	5.42054E-004	...........
	28	7.49167	3.35359E-002	3.35768E-002	5.41221E-004	...........
	29	7.75	3.35491E-002	3.35841E-002	5.32454E-004	...........
	30	8.00833	3.35621E-002	3.35961E-002	5.42354E-004	...........
	31	8.26667	3.35739E-002	3.36037E-002	5.40821E-004	...........
	32	8.525	3.35846E-002	3.36196E-002	5.37621E-004	...........
	33	8.78333	3.35950E-002	3.36298E-002	5.37054E-004	...........
	34	9.04167	3.36059E-002	3.36475E-002	5.36887E-004	...........
	35	9.3	3.36179E-002	3.36577E-002	5.35387E-004	...........
	36	9.5583	3.36308E-002	3.36681E-002	5.37121E-004	...........
	37	9.8167	3.36437E-002	3.36797E-002	5.35454E-004	...........
	38	10.075	3.36559E-002	3.36863E-002	5.40287E-004	...........
EOC	QUANT	0.0336559	Open Circuit (V)
PSTATMODEL	IQUANT	4	Pstat Model
PSTATSECTION	LABEL	REF600-10037	Pstat Section
PSTATSERIALNO	LABEL	10037	Pstat Serial Number
CTRLMODE	IQUANT	1	Control Mode
IESTAB	IQUANT	0	I/E Stability
CASPEED	IQUANT	1	Control Amp Speed
CONVENTION	IQUANT	1	Current Convention
ICHRANGE	IQUANT	2	Ich Range
ICHRANGEMODE	TOGGLE	F	Ich Auto Range
ICHOFFSETENABLE	TOGGLE	T	Ich Offset Enable
ICHOFFSET	QUANT	0	Ich Offset (V)
ICHFILTER	IQUANT	3	Ich Filter
VCHRANGE	IQUANT	2	Vch Range
VCHRANGEMODE	TOGGLE	F	Vch Auto Range
VCHOFFSETENABLE	TOGGLE	T	Vch Offset Enable
VCHOFFSET	QUANT	0	Vch Offset (V)
VCHFILTER	IQUANT	3	Vch Filter
ACHRANGE	IQUANT	2	Ach Range
ACHOFFSETENABLE	TOGGLE	F	Ach Offset Enable
ACHOFFSET	QUANT	0	Ach Offset (V)
ACHFILTER	IQUANT	3	Ach Filter
IERANGELOWERLIMIT	IQUANT	1	I/E Range Lower Limit
IERANGEMODE	TOGGLE	F	I/E AutoRange
IERANGE	IQUANT	7	I/E Range
POSFEEDENABLE	TOGGLE	F	Positive Feedback IR Comp
POSFEEDRESISTANCE	QUANT	0	Positive Feedback Resistance (ohm)
ACHSELECT	IQUANT	0	Ach Select
CABLEID	IQUANT	14	Cable ID
DCCALDATE	LABEL	6/8/2020	DC Calibration Date
ACCALDATE	LABEL	6/8/2020	AC Calibration Date
THERMOSELECT	IQUANT	1	Thermo Select
FRAMEWORKVERSION	QUANT	6.33	Framework Version
INSTRUMENTVERSION	LABEL	3.50	Instrument Version
ZCURVE	TABLE
	Pt	Time	Freq	Zreal	Zimag	Zsig	Zmod	Zphz	Idc	Vdc	IERange
	#	s	Hz	ohm	ohm	V	ohm	°	A	V	#
	0	2	1000078	2098.771	-1947.99	1	2863.478	-42.86617	1.735587E-007	0.0427077	8
	1	2	794390.6	2501.273	-2011.625	1	3209.829	-38.80764	1.693004E-007	0.0424169	8
	2	3	630984.4	2913.156	-2002.045	1	3534.778	-34.49851	8.714004E-008	0.0422521	8
	3	3	501234.4	3303.052	-1923.061	1	3822.082	-30.20828	4.618157E-008	0.0421894	8
	4	3	398109.4	3651.141	-1798.173	1	4069.921	-26.22007	4.004678E-008	0.0421368	8
	5	3	316265.6	3947.18	-1639.792	1	4274.242	-22.55964	7.061194E-008	0.0421026	8
	6	4	251203.1	4185.858	-1471.1	1	4436.839	-19.36378	1.488528E-007	0.0421884	8
	7	4	199546.9	4382.824	-1313.762	1	4575.491	-16.68623	1.052316E-007	0.0421525	8
	8	4	158578.1	4536.558	-1170.452	1	4685.117	-14.46707	1.363077E-007	0.0422479	8
	9	5	125953.1	4699.163	-967.318	1	4797.69	-11.6318	-5.337196E-008	0.0422522	7
	10	5	100078.1	4805.203	-865.661	1	4882.555	-10.21234	-1.307528E-008	0.0421947	7
	11	5	79453.13	4889.854	-805.51	1	4955.756	-9.354373	-8.244896E-009	0.0421637	7
	12	6	63140.62	4949.138	-759.0895	1	5007.013	-8.719965	1.885727E-008	0.0421557	7
	13	6	50203.12	5023.396	-738.4995	1	5077.39	-8.363259	2.141069E-008	0.0421318	7
	14	6	39890.62	5076.453	-732.5771	1	5129.039	-8.211599	2.259987E-008	0.0421334	7
	15	7	31640.63	5141.621	-746.3629	1	5195.51	-8.259423	-1.935114E-008	0.042113	7
	16	7	25171.88	5206.522	-776.2653	1	5264.073	-8.480035	2.226704E-008	0.0421259	7
	17	7	20015.62	5274.803	-824.6733	1	5338.879	-8.885805	-1.818533E-008	0.0421238	7
	18	8	15890.62	5347.716	-893.4486	1	5421.837	-9.484865	1.240006E-008	0.0421131	7
	19	8	12609.37	5424.64	-982.791	1	5512.948	-10.26898	-1.987902E-009	0.0421244	7
	20	8	10078.13	5516.971	-1095.306	1	5624.647	-11.22914	1.215474E-008	0.0420977	7
	21	9	8015.625	5598.869	-1235.577	1	5733.583	-12.44476	2.59676E-008	0.0421121	7
	22	9	6328.125	5704.773	-1414.502	1	5877.521	-13.92567	1.242503E-008	0.042102	7
	23	9	5015.625	5820.385	-1626.594	1	6043.401	-15.61382	-2.231599E-009	0.0421228	7
	24	10	3984.375	5950.797	-1883.703	1	6241.821	-17.56499	-1.61195E-008	0.0421173	7
	25	10	3170.956	6097.154	-2191.623	1	6479.082	-19.77098	-2.011998E-008	0.0421102	7
	26	10	2527.573	6262.933	-2556.884	1	6764.761	-22.20807	-1.578502E-008	0.0421101	7
	27	10	1976.103	6467.555	-3033.332	1	7143.555	-25.12693	2.845072E-008	0.0421211	7
	28	11	1577.524	6683.793	-3558.166	1	7571.898	-28.02893	2.998528E-008	0.0421231	7
	29	11	1265.625	6928.333	-4165.146	1	8083.95	-31.01327	1.302196E-008	0.0420965	7
	30	11	998.264	7220.671	-4965.152	1	8763.037	-34.51359	-2.047683E-008	0.0421264	7
	31	12	796.875	7547.27	-5864.284	1	9557.78	-37.84747	1.56286E-008	0.042121	7
	32	12	627.7902	7946.143	-7023.243	1	10605.05	-41.47204	2.901366E-009	0.0421204	7
	33	12	505.5147	8368.716	-8296.944	1	11784.51	-44.75325	2.387343E-008	0.0421306	7
	34	13	397.9953	8904.698	-10005.95	1	13394.5	-48.33284	7.507946E-009	0.0421435	7
	35	13	315.5048	9534.13	-12023.98	1	15345.22	-51.58819	7.489336E-009	0.0421429	7
	36	13	252.4038	10263.61	-14374.08	1	17662.28	-54.47179	7.591701E-009	0.0421426	7
	37	14	198.6229	11224.06	-17440.37	1	20739.96	-57.23596	7.345579E-009	0.0421476	7
	38	14	158.3615	12339.34	-20841.68	1	24220.55	-59.3723	8.293277E-009	0.0421311	7
	39	14	125.558	13793.25	-25322.24	1	28835.22	-61.42247	8.165101E-009	0.0421448	7
	40	15	100.4464	15528.53	-30344.93	1	34087.39	-62.89964	8.314374E-009	0.0421455	7
	41	15	79.00281	17888.2	-36830.09	1	40944.39	-64.09438	8.217976E-009	0.0421438	7
	42	15	63.3446	20627.95	-43943.87	1	48544.57	-64.8539	1.49947E-009	0.0421414	6
	43	16	49.86702	24377.89	-53123.94	1	58450.28	-65.35022	5.371218E-010	0.0421403	6
	44	16	39.72458	28902.21	-63472.46	1	69743.04	-65.51784	9.465545E-010	0.0421436	6
	45	16	31.6723	34598.41	-75593.3	1	83134.82	-65.40684	-3.797183E-010	0.0421404	6
	46	17	24.93351	42306.41	-90554.56	1	99949.8	-64.95837	2.049221E-009	0.0421369	6
	47	17	19.86229	51738.79	-107362.5	1	119178.9	-64.27023	-7.677162E-009	0.0335675	6
	48	17	15.83615	63594.55	-126258.7	1	141370.2	-63.26631	-5.880843E-009	0.0335552	6
	49	18	12.40079	78991.55	-148852.6	1	168513.4	-62.04647	-4.817169E-009	0.0335669	6
	50	18	9.93114	96180.1	-171643.3	1	196753.8	-60.73595	-3.937633E-009	0.0335662	6
	51	18	7.944915	116559.4	-196559.3	1	228520.5	-59.33212	-3.383042E-009	0.033563	6
	52	19	6.317385	140654.6	-224026.9	1	264521.7	-57.87746	-1.842062E-009	0.0335659	6
	53	20	5.008013	168205.5	-254415.2	1	304992.1	-56.5295	-1.20532E-009	0.0335728	6
	54	21	3.945707	199393.3	-288593.3	1	350776	-55.35884	-8.036032E-010	0.0335709	6
	55	22	3.158693	230458.6	-323651.2	1	397317.6	-54.54691	-9.579078E-010	0.0335768	5
	56	23	2.504006	266808.8	-365860.7	1	452814.5	-53.89809	-7.414075E-010	0.0335682	5
	57	25	1.998082	302876.2	-412668.7	1	511888.1	-53.72337	-5.440809E-010	0.0335706	5
	58	27	1.584686	343573.9	-470498.7	1	582590.8	-53.86182	-3.887669E-010	0.0335694	5
	59	30	1.266892	386538.5	-536797.3	1	661485.7	-54.24298	-2.951554E-010	0.0335636	5
	60	33	0.999041	437502.5	-621365.1	1	759936.1	-54.85067	-3.465075E-010	0.0335668	5
