EXPLAIN
TAG	EISPOT
TITLE	LABEL	Potentiostatic EIS	Test &Identifier
DATE	LABEL	1/7/2020	Date
TIME	LABEL	18:00:08	Time
NOTES	NOTES	5	&Notes...
	
	
	
	
	
PSTAT	PSTAT	REF600-11020	Potentiostat
VDC	POTEN	0.00000E+000	T	DC &Voltage (V)
FREQINIT	QUANT	1.00000E+006	Initial Fre&q. (Hz)
FREQFINAL	QUANT	1.00000E+000	Final Fre&q. (Hz)
PTSPERDEC	QUANT	1.00000E+001	Points/&decade
VAC	QUANT	2.50000E+001	AC &Voltage (mV rms)
AREA	QUANT	1.00000E-001	&Area (cm^2)
CONDIT	TWOPARAM	T	5.00000E+000	0.00000E+000	Conditionin&g	Time(s)	E(V)
DELAY	TWOPARAM	T	5.00000E+000	0.00000E+000	Init. De&lay	Time(s)	Stab.(mV/s)
SPEED	SELECTOR	0	&Optimize for:
ZGUESS	QUANT	1.00000E+003	E&stimated Z (ohms)
OCVCURVE	TABLE	19
	Pt	T	Vf	Vm	Ach	Over
	#	s	V vs. Ref.	V	V	bits
	0	0.258333	3.87932E-003	3.87932E-003	6.49946E-004	...........
	1	0.516667	3.87234E-003	3.51387E-003	6.47680E-004	...........
	2	0.775	3.82992E-003	3.19084E-003	6.47446E-004	...........
	3	1.03333	3.71174E-003	2.89904E-003	6.47113E-004	...........
	4	1.29167	3.49626E-003	2.17807E-003	6.48980E-004	...........
	5	1.55	3.16525E-003	9.36885E-004	6.53380E-004	...........
	6	1.80833	2.67469E-003	3.79360E-004	6.48513E-004	...........
	7	2.06667	2.02134E-003	1.95533E-004	6.54879E-004	...........
	8	2.325	1.32888E-003	5.42519E-004	6.49946E-004	...........
	9	2.58333	7.92844E-004	7.16461E-004	6.47113E-004	...........
	10	2.84167	5.26323E-004	5.53522E-004	6.46780E-004	...........
	11	3.1	4.79989E-004	5.08232E-004	6.48213E-004	...........
	12	3.35833	5.16660E-004	4.98133E-004	6.44413E-004	...........
	13	3.61667	5.39301E-004	4.55547E-004	6.48313E-004	...........
	14	3.875	5.29774E-004	4.94917E-004	6.47446E-004	...........
	15	4.13333	5.08403E-004	5.34370E-004	6.49046E-004	...........
	16	4.39167	4.93087E-004	3.58895E-004	6.43613E-004	...........
	17	4.65	4.80678E-004	3.99317E-004	6.49213E-004	...........
	18	4.90833	4.61286E-004	5.16491E-004	6.42746E-004	...........
EOC	QUANT	0.0004613	Open Circuit (V)
PSTATMODEL	IQUANT	4	Pstat Model
PSTATSECTION	LABEL	REF600-11020	Pstat Section
PSTATSERIALNO	LABEL	11020	Pstat Serial Number
CTRLMODE	IQUANT	1	Control Mode
IESTAB	IQUANT	0	I/E Stability
CASPEED	IQUANT	1	Control Amp Speed
CONVENTION	IQUANT	1	Current Convention
ICHRANGE	IQUANT	2	Ich Range
ICHRANGEMODE	TOGGLE	F	Ich Auto Range
ICHOFFSETENABLE	TOGGLE	T	Ich Offset Enable
ICHOFFSET	QUANT	0	Ich Offset (V)
ICHFILTER	IQUANT	3	Ich Filter
VCHRANGE	IQUANT	2	Vch Range
VCHRANGEMODE	TOGGLE	F	Vch Auto Range
VCHOFFSETENABLE	TOGGLE	T	Vch Offset Enable
VCHOFFSET	QUANT	0	Vch Offset (V)
VCHFILTER	IQUANT	3	Vch Filter
ACHRANGE	IQUANT	2	Ach Range
ACHOFFSETENABLE	TOGGLE	F	Ach Offset Enable
ACHOFFSET	QUANT	0	Ach Offset (V)
ACHFILTER	IQUANT	3	Ach Filter
IERANGELOWERLIMIT	IQUANT	1	I/E Range Lower Limit
IERANGEMODE	TOGGLE	F	I/E AutoRange
IERANGE	IQUANT	5	I/E Range
POSFEEDENABLE	TOGGLE	F	Positive Feedback IR Comp
POSFEEDRESISTANCE	QUANT	0	Positive Feedback Resistance (ohm)
ACHSELECT	IQUANT	0	Ach Select
CABLEID	IQUANT	14	Cable ID
DCCALDATE	LABEL	12/22/2019	DC Calibration Date
ACCALDATE	LABEL	12/22/2019	AC Calibration Date
THERMOSELECT	IQUANT	1	Thermo Select
FRAMEWORKVERSION	QUANT	6.33	Framework Version
INSTRUMENTVERSION	LABEL	3.50	Instrument Version
ZCURVE	TABLE
	Pt	Time	Freq	Zreal	Zimag	Zsig	Zmod	Zphz	Idc	Vdc	IERange
	#	s	Hz	ohm	ohm	V	ohm	°	A	V	#
	0	1	1000078	2189.195	-1975.996	1	2949.091	-42.06982	-7.508039E-006	0.0038062	8
	1	2	794390.6	2513.278	-2024.246	1	3227.094	-38.84869	1.246929E-005	0.0006157	8
	2	2	630984.4	2874.766	-2052.499	1	3532.284	-35.52573	1.5345E-006	0.0010575	8
	3	2	501234.4	3275.817	-2046.211	1	3862.377	-31.99061	4.19855E-006	0.0010161	8
	4	3	398109.4	3664.985	-2009.892	1	4179.926	-28.74053	7.492992E-006	0.000666	8
	5	3	316265.6	4003.905	-1900.953	1	4432.254	-25.39718	-3.320289E-006	0.0027992	8
	6	3	251203.1	4318.849	-1807.107	1	4681.676	-22.70557	-2.331198E-006	0.0029439	8
	7	4	199546.9	4549.261	-1720.252	1	4863.646	-20.71355	-7.227475E-007	0.0021543	8
	8	4	158578.1	4799.41	-1584.423	1	5054.179	-18.26954	-7.975701E-006	0.003852	8
	9	4	125953.1	5088.434	-1405.984	1	5279.105	-15.44599	-2.175886E-006	0.0064236	7
	10	4	100078.1	5252.774	-1328.334	1	5418.127	-14.19157	-4.331284E-008	0.0020422	7
	11	5	79453.13	5415.426	-1269.522	1	5562.241	-13.19343	4.859654E-008	0.0020121	7
	12	5	63140.62	5559.622	-1225.486	1	5693.084	-12.4307	-3.091117E-008	0.0022864	7
	13	5	50203.12	5699.45	-1198.135	1	5824.024	-11.87182	-1.04965E-007	0.0021786	7
	14	6	39890.62	5833.017	-1188.372	1	5952.841	-11.51539	2.353533E-007	0.0017018	7
	15	6	31640.63	5966.969	-1197.979	1	6086.04	-11.35226	1.426203E-007	0.0017509	7
	16	6	25171.88	6097.458	-1229.408	1	6220.163	-11.3995	-5.36719E-008	0.0020643	7
	17	7	20015.62	6229.313	-1272.778	1	6358.011	-11.54777	-3.709258E-008	0.0021523	7
	18	7	15890.62	6376.092	-1342.097	1	6515.809	-11.88661	-1.074959E-007	0.0022536	7
	19	7	12609.37	6527.34	-1435.126	1	6683.245	-12.39998	8.371717E-008	0.0017702	7
	20	8	10078.13	6681.789	-1536.161	1	6856.099	-12.94747	4.642598E-008	0.0018728	7
	21	8	8015.625	6855.359	-1680.089	1	7058.232	-13.77045	-1.116604E-009	0.0020905	7
	22	8	6328.125	7049.943	-1848.294	1	7288.202	-14.69069	2.390524E-007	0.0017016	7
	23	9	5015.625	7259.739	-2048.088	1	7543.108	-15.7546	8.358168E-008	0.0017782	7
	24	9	3984.375	7484.676	-2272.258	1	7821.991	-16.88766	-8.989246E-008	0.00212	7
	25	9	3170.956	7736.899	-2546.411	1	8145.171	-18.21769	-3.158952E-008	0.0022789	7
	26	10	2527.573	8024.404	-2855.486	1	8517.327	-19.58811	-3.063657E-008	0.0022764	7
	27	10	1976.103	8367.872	-3245.862	1	8975.35	-21.20106	-1.027983E-007	0.0021759	7
	28	10	1577.524	8727.366	-3636.565	1	9454.709	-22.62077	-8.362006E-009	0.0023187	6
	29	11	1265.625	9116.019	-4066.924	1	9982.07	-24.04306	-8.943172E-009	0.002053	6
	30	11	998.264	9565.7	-4609.188	1	10618.25	-25.72688	1.456032E-008	0.0017023	6
	31	11	796.875	10030.23	-5197.317	1	11296.8	-27.39162	2.436186E-008	0.001796	6
	32	12	627.7902	10552.66	-5918.09	1	12098.86	-29.28436	-3.064135E-009	0.0020573	6
	33	12	505.5147	11050.83	-6686.144	1	12916.09	-31.17542	3.861118E-009	0.0019023	6
	34	12	397.9953	11609.63	-7701.457	1	13931.83	-33.55901	1.295861E-009	0.0020452	6
	35	12	315.5048	12171.17	-8907.04	1	15082.2	-36.1972	3.04421E-010	0.0020431	6
	36	13	252.4038	12732.01	-10335.22	1	16398.81	-39.068	2.014733E-010	0.0020427	6
	37	13	198.6229	13369.22	-12244.79	1	18129.29	-42.48639	8.222654E-010	0.0020393	6
	38	13	158.3615	14022.81	-14498.99	1	20170.77	-45.95649	1.275748E-009	0.0020395	6
	39	14	125.558	14780.21	-17382.43	1	22816.74	-49.62562	7.32082E-010	0.0020388	6
	40	14	100.4464	15628	-20791.56	1	26010.06	-53.06961	1.058313E-009	0.0020419	6
	41	14	79.00281	16693.68	-25415.04	1	30407.29	-56.70139	1.009462E-009	0.0020361	6
	42	15	63.3446	18231.08	-30539.38	1	35567.21	-59.16409	5.300779E-010	0.002037	6
	43	15	49.86702	19976.99	-37597.79	1	42575.51	-62.01676	-5.772405E-011	0.0020314	6
	44	16	39.72458	21987.19	-45693.49	1	50708.3	-64.30367	1.561237E-009	0.00204	6
	45	16	31.6723	24837.37	-55606.62	1	60901.49	-65.9315	1.077757E-009	0.0020369	6
	46	16	24.93351	29087.82	-68061.93	1	74017.08	-66.85945	1.11041E-009	0.0020297	6
	47	16	19.86229	34305.88	-82214.2	1	89084.61	-67.35047	2.125927E-009	0.0020451	6
	48	17	15.83615	40843.36	-99191.9	1	107271.7	-67.62005	-4.586646E-010	0.0020316	5
	49	17	12.40079	51521.11	-119898.5	1	130499.4	-66.74652	-8.356611E-010	0.0020418	5
	50	17	9.93114	62127.65	-142366.4	1	155332	-66.4239	7.721964E-010	0.0020297	5
	51	18	7.944915	76285.95	-167816.9	1	184342.2	-65.55447	4.61615E-010	0.0020281	5
	52	19	6.317385	93983.95	-197270.4	1	218514.5	-64.52584	5.494498E-010	0.0020337	5
	53	19	5.008013	115429.1	-230074	1	257406.1	-63.35688	3.149377E-010	0.002035	5
	54	20	3.945707	140756.6	-268706.8	1	303341	-62.35311	7.713844E-011	0.0020233	5
	55	22	3.158693	166971.4	-307769.8	1	350145.3	-61.51927	1.282843E-010	0.0020156	5
	56	23	2.504006	197382.2	-356688.5	1	407659.7	-61.04099	3.674437E-010	0.0020244	5
	57	25	1.998082	229152	-409963.9	1	469660.5	-60.79671	2.057982E-010	0.0019954	5
	58	26	1.584686	265855.4	-477398.4	1	546432.4	-60.88728	1.274668E-010	0.0019764	5
	59	28	1.266892	300111.8	-558208.4	1	633769.4	-61.73601	1.486007E-010	0.0020062	5
	60	31	0.999041	348866.2	-652598.1	1	739994.6	-61.87191	2.348488E-010	0.0020392	5
