EXPLAIN
TAG	EISPOT
TITLE	LABEL	Potentiostatic EIS	Test &Identifier
DATE	LABEL	2/21/2020	Date
TIME	LABEL	15:21:00	Time
NOTES	NOTES	1	&Notes...
	
PSTAT	PSTAT	REF600-11020	Potentiostat
VDC	POTEN	0.00000E+000	T	DC &Voltage (V)
FREQINIT	QUANT	1.00000E+006	Initial Fre&q. (Hz)
FREQFINAL	QUANT	1.00000E+000	Final Fre&q. (Hz)
PTSPERDEC	QUANT	1.00000E+001	Points/&decade
VAC	QUANT	2.50000E+001	AC &Voltage (mV rms)
AREA	QUANT	2.08200E-005	&Area (cm^2)
CONDIT	TWOPARAM	F	1.50000E+001	0.00000E+000	Conditionin&g	Time(s)	E(V)
DELAY	TWOPARAM	F	1.00000E+002	0.00000E+000	Init. De&lay	Time(s)	Stab.(mV/s)
SPEED	SELECTOR	1	&Optimize for:
ZGUESS	QUANT	2.00000E+003	E&stimated Z (ohms)
OCVCURVE	TABLE	39
	Pt	T	Vf	Vm	Ach	Over
	#	s	V vs. Ref.	V	V	bits
	0	0.258333	-1.51311E-001	-1.51311E-001	5.57138E-004	...........
	1	0.516667	-1.51310E-001	-1.51263E-001	5.57738E-004	...........
	2	0.775	-1.51304E-001	-1.51195E-001	5.52071E-004	...........
	3	1.03333	-1.51288E-001	-1.51253E-001	5.57971E-004	...........
	4	1.29167	-1.51266E-001	-1.51276E-001	5.56004E-004	...........
	5	1.55	-1.51250E-001	-1.51241E-001	5.57071E-004	...........
	6	1.80833	-1.51250E-001	-1.51408E-001	5.59971E-004	...........
	7	2.06667	-1.51262E-001	-1.51098E-001	5.57504E-004	...........
	8	2.325	-1.51265E-001	-1.50949E-001	5.63304E-004	...........
	9	2.58333	-1.51226E-001	-1.50976E-001	5.60904E-004	...........
	10	2.84167	-1.51137E-001	-1.50574E-001	5.58004E-004	...........
	11	3.1	-1.51010E-001	-1.50523E-001	5.55605E-004	...........
	12	3.35833	-1.50861E-001	-1.50575E-001	5.58104E-004	...........
	13	3.61667	-1.50720E-001	-1.50653E-001	5.56404E-004	...........
	14	3.875	-1.50629E-001	-1.50645E-001	5.58738E-004	...........
	15	4.13333	-1.50599E-001	-1.50581E-001	5.55871E-004	...........
	16	4.39167	-1.50602E-001	-1.50521E-001	5.61504E-004	...........
	17	4.65	-1.50598E-001	-1.50444E-001	5.62804E-004	...........
	18	4.90833	-1.50569E-001	-1.50303E-001	5.63471E-004	...........
	19	5.16667	-1.50512E-001	-1.50328E-001	5.61238E-004	...........
	20	5.425	-1.50441E-001	-1.50309E-001	5.57371E-004	...........
	21	5.68333	-1.50377E-001	-1.50270E-001	5.59104E-004	...........
	22	5.94167	-1.50331E-001	-1.50197E-001	5.62604E-004	...........
	23	6.2	-1.50293E-001	-1.50151E-001	5.59004E-004	...........
	24	6.45833	-1.50254E-001	-1.50105E-001	5.57671E-004	...........
	25	6.71667	-1.50208E-001	-1.50061E-001	5.64971E-004	...........
	26	6.975	-1.50159E-001	-1.50020E-001	5.57171E-004	...........
	27	7.23333	-1.50111E-001	-1.49974E-001	5.60138E-004	...........
	28	7.49167	-1.50065E-001	-1.49910E-001	5.61338E-004	...........
	29	7.75	-1.50020E-001	-1.49891E-001	5.54538E-004	...........
	30	8.00833	-1.49974E-001	-1.49836E-001	5.56771E-004	...........
	31	8.26667	-1.49929E-001	-1.49801E-001	5.57238E-004	...........
	32	8.525	-1.49886E-001	-1.49767E-001	5.60538E-004	...........
	33	8.78333	-1.49845E-001	-1.49722E-001	5.55605E-004	...........
	34	9.04167	-1.49804E-001	-1.49647E-001	5.56738E-004	...........
	35	9.3	-1.49762E-001	-1.49632E-001	5.58604E-004	...........
	36	9.5583	-1.49717E-001	-1.49595E-001	5.53738E-004	...........
	37	9.8167	-1.49672E-001	-1.49506E-001	5.55038E-004	...........
	38	10.075	-1.49626E-001	-1.49465E-001	5.54871E-004	...........
EOC	QUANT	-0.1496264	Open Circuit (V)
PSTATMODEL	IQUANT	4	Pstat Model
PSTATSECTION	LABEL	REF600-11020	Pstat Section
PSTATSERIALNO	LABEL	11020	Pstat Serial Number
CTRLMODE	IQUANT	1	Control Mode
IESTAB	IQUANT	0	I/E Stability
CASPEED	IQUANT	1	Control Amp Speed
CONVENTION	IQUANT	1	Current Convention
ICHRANGE	IQUANT	2	Ich Range
ICHRANGEMODE	TOGGLE	F	Ich Auto Range
ICHOFFSETENABLE	TOGGLE	T	Ich Offset Enable
ICHOFFSET	QUANT	0	Ich Offset (V)
ICHFILTER	IQUANT	3	Ich Filter
VCHRANGE	IQUANT	2	Vch Range
VCHRANGEMODE	TOGGLE	F	Vch Auto Range
VCHOFFSETENABLE	TOGGLE	T	Vch Offset Enable
VCHOFFSET	QUANT	0	Vch Offset (V)
VCHFILTER	IQUANT	3	Vch Filter
ACHRANGE	IQUANT	2	Ach Range
ACHOFFSETENABLE	TOGGLE	F	Ach Offset Enable
ACHOFFSET	QUANT	0	Ach Offset (V)
ACHFILTER	IQUANT	3	Ach Filter
IERANGELOWERLIMIT	IQUANT	1	I/E Range Lower Limit
IERANGEMODE	TOGGLE	F	I/E AutoRange
IERANGE	IQUANT	8	I/E Range
POSFEEDENABLE	TOGGLE	F	Positive Feedback IR Comp
POSFEEDRESISTANCE	QUANT	0	Positive Feedback Resistance (ohm)
ACHSELECT	IQUANT	0	Ach Select
CABLEID	IQUANT	14	Cable ID
DCCALDATE	LABEL	1/27/2020	DC Calibration Date
ACCALDATE	LABEL	1/27/2020	AC Calibration Date
THERMOSELECT	IQUANT	1	Thermo Select
FRAMEWORKVERSION	QUANT	6.33	Framework Version
INSTRUMENTVERSION	LABEL	3.50	Instrument Version
ZCURVE	TABLE
	Pt	Time	Freq	Zreal	Zimag	Zsig	Zmod	Zphz	Idc	Vdc	IERange
	#	s	Hz	ohm	ohm	V	ohm	°	A	V	#
	0	1	1000078	1693.474	-2315.272	1	2868.508	-53.81691	-3.654925E-007	-0.1475031	8
	1	2	794390.6	2075.955	-2567.656	1	3301.885	-51.04438	1.62648E-006	-0.1479682	8
	2	4	630984.4	2519.366	-2800.535	1	3766.989	-48.02539	-4.493776E-007	-0.1479928	8
	3	5	501234.4	3008.266	-3010.003	1	4255.559	-45.01654	9.477149E-007	-0.1482398	8
	4	6	398109.4	3549.789	-3186.982	1	4770.52	-41.91733	6.857267E-008	-0.1481779	8
	5	8	316265.6	4130.668	-3316.7	1	5297.445	-38.76256	-9.881534E-007	-0.147949	8
	6	9	251203.1	4742.24	-3371.394	1	5818.517	-35.41011	2.12244E-007	-0.148223	8
	7	10	199546.9	5353.55	-3416.105	1	6350.612	-32.54198	1.513453E-006	-0.1484695	8
	8	12	158578.1	5962.759	-3352.017	1	6840.359	-29.3429	-1.59872E-008	-0.1481634	8
	9	13	125953.1	6582.5	-3220.016	1	7327.879	-26.06688	-3.357175E-007	-0.1473195	7
	10	15	100078.1	7123.292	-3060.722	1	7753.02	-23.25213	1.451691E-008	-0.1482303	7
	11	16	79453.13	7613.585	-2872.347	1	8137.387	-20.66979	5.966823E-009	-0.1481933	7
	12	17	63140.62	8037.583	-2654.61	1	8464.614	-18.27708	2.335607E-008	-0.1482827	7
	13	19	50203.12	8397.664	-2441.452	1	8745.367	-16.21073	1.505113E-008	-0.1482462	7
	14	20	39890.62	8700.516	-2241.796	1	8984.688	-14.44869	1.573339E-008	-0.1482489	7
	15	22	31640.63	8957.054	-2070.757	1	9193.305	-13.01736	7.060025E-009	-0.1482061	7
	16	23	25171.88	9166.154	-1934.34	1	9368.034	-11.91633	-1.061574E-008	-0.148229	7
	17	25	20015.62	9357.782	-1839.9	1	9536.95	-11.12344	1.85533E-008	-0.1482256	7
	18	27	15890.62	9521.81	-1785.703	1	9687.81	-10.62177	1.772585E-008	-0.1482636	7
	19	28	12609.37	9688.1	-1755.696	1	9845.9	-10.27177	-1.007769E-009	-0.1482015	6
	20	30	10078.13	9839.13	-1796.109	1	10001.73	-10.34529	-3.266118E-009	-0.1481913	6
	21	31	8015.625	9991.46	-1885.226	1	10167.76	-10.68516	-3.482702E-009	-0.1482348	6
	22	33	6328.125	10152.3	-2025.196	1	10352.33	-11.28136	3.609156E-009	-0.1482795	6
	23	35	5015.625	10327.62	-2216.469	1	10562.79	-12.11283	2.815678E-009	-0.148249	6
	24	36	3984.375	10512.82	-2461.522	1	10797.15	-13.1781	3.75315E-009	-0.1482803	6
	25	38	3170.956	10717.92	-2766.066	1	11069.1	-14.47105	-3.481908E-009	-0.1482031	6
	26	39	2527.573	10937.28	-3139.968	1	11379.08	-16.01817	-3.451593E-009	-0.1482364	6
	27	41	1976.103	11197.24	-3638.027	1	11773.42	-17.99919	-1.944214E-009	-0.1482453	6
	28	42	1577.524	11456.79	-4197.228	1	12201.42	-20.12045	2.779683E-009	-0.1482535	6
	29	43	1265.625	11738.63	-4856.732	1	12703.68	-22.4768	-1.266132E-009	-0.1482669	6
	30	45	998.264	12077.26	-5730.597	1	13367.87	-25.38409	-2.719608E-009	-0.1482443	6
	31	46	796.875	12431.49	-6745.582	1	14143.72	-28.48516	-1.948688E-009	-0.1482428	6
	32	47	627.7902	12860.91	-8056.505	1	15175.97	-32.06441	3.496818E-009	-0.1482805	6
	33	49	505.5147	13307.38	-9519.37	1	16361.69	-35.57784	-1.594738E-009	-0.1482025	6
	34	50	397.9953	13879.42	-11486.67	1	18016.16	-39.61131	7.441575E-011	-0.1482205	6
	35	52	315.5048	14543.32	-13834.75	1	20072.58	-43.56967	-3.159795E-010	-0.148225	6
	36	53	252.4038	15305.69	-16574.44	1	22560.49	-47.27903	6.313424E-011	-0.148231	6
	37	54	198.6229	16298.29	-20164.7	1	25927.78	-51.05283	-1.290799E-010	-0.1482263	6
	38	56	158.3615	17439.82	-24297.22	1	29908.23	-54.33034	-2.136873E-010	-0.1482315	6
	39	57	125.558	18879.55	-29440.11	1	34973.67	-57.32849	-2.461061E-010	-0.1482259	6
	40	58	100.4464	20566.02	-35435.93	1	40971.53	-59.87033	1.341245E-010	-0.1482256	6
	41	60	79.00281	22712.42	-43272.21	1	48870.63	-62.30623	-5.275675E-010	-0.1482323	6
	42	61	63.3446	25310.61	-51559.38	1	57436.89	-63.85349	-4.725589E-010	-0.1482304	6
	43	63	49.86702	28756.37	-63592.01	1	69791.64	-65.66747	-2.396412E-010	-0.148233	6
	44	64	39.72458	32587.41	-76678.91	1	83316.23	-66.97522	-5.750131E-010	-0.1482283	6
	45	65	31.6723	37491.45	-92479.07	1	99789.7	-67.93214	-5.140341E-010	-0.1482317	6
	46	67	24.93351	44239.57	-113007.3	1	121358.1	-68.62089	-1.011692E-009	-0.1482326	5
	47	68	19.86229	52627.23	-136661.9	1	146444.9	-68.93877	-8.192771E-010	-0.1482231	5
	48	70	15.83615	62452.58	-164734.5	1	176175.4	-69.23775	-1.555907E-009	-0.148231	5
	49	71	12.40079	79191.77	-201256.4	1	216276.4	-68.52101	-5.044203E-010	-0.148227	5
	50	72	9.93114	98502.1	-238627.6	1	258158.5	-67.56986	-1.288446E-009	-0.1482228	5
	51	74	7.944915	123031.3	-282772.9	1	308378.3	-66.48669	-5.757326E-010	-0.148225	5
	52	76	6.317385	155124.7	-334539.7	1	368755.3	-65.12303	-1.090728E-009	-0.1482176	5
	53	78	5.008013	197049.5	-392232.5	1	438947.4	-63.32599	-9.906307E-010	-0.1482386	5
	54	80	3.945707	250161.7	-456561.4	1	520604.6	-61.28054	-7.555462E-010	-0.1482207	5
	55	83	3.158693	310030.1	-520537	1	605869.2	-59.22211	-1.220797E-009	-0.1482442	5
	56	86	2.504006	382602.1	-590128	1	703303.3	-57.04314	-8.120344E-010	-0.1482287	5
	57	89	1.998082	462258.5	-659686.3	1	805524	-54.98012	-1.040851E-009	-0.1481947	5
	58	92	1.584686	551638.9	-732327.8	1	916847.6	-53.01046	-1.139078E-009	-0.1482686	5
	59	96	1.266892	646154.8	-811370.7	1	1037226	-51.46708	-1.150144E-009	-0.1482604	4
	60	100	0.999041	754501.3	-899986.3	1	1174414	-50.0253	-1.566322E-009	-0.1483077	4
