EXPLAIN
TAG	EISPOT
TITLE	LABEL	Potentiostatic EIS	Test &Identifier
DATE	LABEL	1/21/2020	Date
TIME	LABEL	16:24:49	Time
NOTES	NOTES	6	&Notes...
	
	
	
	
	
	
PSTAT	PSTAT	REF600-11020	Potentiostat
VDC	POTEN	0.00000E+000	T	DC &Voltage (V)
FREQINIT	QUANT	1.00000E+006	Initial Fre&q. (Hz)
FREQFINAL	QUANT	1.00000E+000	Final Fre&q. (Hz)
PTSPERDEC	QUANT	1.00000E+001	Points/&decade
VAC	QUANT	2.50000E+001	AC &Voltage (mV rms)
AREA	QUANT	1.00000E-001	&Area (cm^2)
CONDIT	TWOPARAM	F	5.00000E+000	0.00000E+000	Conditionin&g	Time(s)	E(V)
DELAY	TWOPARAM	F	5.00000E+000	0.00000E+000	Init. De&lay	Time(s)	Stab.(mV/s)
SPEED	SELECTOR	0	&Optimize for:
ZGUESS	QUANT	5.00000E+002	E&stimated Z (ohms)
OCVCURVE	TABLE	39
	Pt	T	Vf	Vm	Ach	Over
	#	s	V vs. Ref.	V	V	bits
	0	0.258333	-7.21028E-002	-7.21028E-002	6.51080E-004	...........
	1	0.516667	-7.21029E-002	-7.21083E-002	6.55380E-004	...........
	2	0.775	-7.21037E-002	-7.21190E-002	6.57246E-004	...........
	3	1.03333	-7.21059E-002	-7.21173E-002	6.60646E-004	...........
	4	1.29167	-7.21097E-002	-7.21207E-002	6.54246E-004	...........
	5	1.55	-7.21140E-002	-7.21260E-002	6.52313E-004	...........
	6	1.80833	-7.21178E-002	-7.21259E-002	6.48980E-004	...........
	7	2.06667	-7.21211E-002	-7.21268E-002	6.50646E-004	...........
	8	2.325	-7.21237E-002	-7.21286E-002	6.54946E-004	...........
	9	2.58333	-7.21256E-002	-7.21252E-002	6.55913E-004	...........
	10	2.84167	-7.21265E-002	-7.21217E-002	6.57279E-004	...........
	11	3.1	-7.21265E-002	-7.21322E-002	6.52513E-004	...........
	12	3.35833	-7.21264E-002	-7.21353E-002	6.50980E-004	...........
	13	3.61667	-7.21276E-002	-7.21403E-002	6.53046E-004	...........
	14	3.875	-7.21305E-002	-7.21368E-002	6.57013E-004	...........
	15	4.13333	-7.21339E-002	-7.21360E-002	6.58146E-004	...........
	16	4.39167	-7.21362E-002	-7.21368E-002	6.52546E-004	...........
	17	4.65	-7.21370E-002	-7.21355E-002	6.52013E-004	...........
	18	4.90833	-7.21369E-002	-7.21350E-002	6.51480E-004	...........
	19	5.16667	-7.21363E-002	-7.21285E-002	6.46513E-004	...........
	20	5.425	-7.21352E-002	-7.21353E-002	6.51113E-004	...........
	21	5.68333	-7.21339E-002	-7.21291E-002	6.54580E-004	...........
	22	5.94167	-7.21326E-002	-7.21249E-002	6.57313E-004	...........
	23	6.2	-7.21312E-002	-7.21277E-002	6.52980E-004	...........
	24	6.45833	-7.21300E-002	-7.21526E-002	6.52080E-004	...........
	25	6.71667	-7.21309E-002	-7.21421E-002	6.53246E-004	...........
	26	6.975	-7.21345E-002	-7.21335E-002	6.56046E-004	...........
	27	7.23333	-7.21381E-002	-7.21296E-002	6.56613E-004	...........
	28	7.49167	-7.21385E-002	-7.21264E-002	6.52113E-004	...........
	29	7.75	-7.21358E-002	-7.21254E-002	6.56546E-004	...........
	30	8.00833	-7.21318E-002	-7.21218E-002	6.52713E-004	...........
	31	8.26667	-7.21281E-002	-7.21215E-002	6.54546E-004	...........
	32	8.525	-7.21252E-002	-7.21202E-002	6.49180E-004	...........
	33	8.78333	-7.21232E-002	-7.21242E-002	6.50946E-004	...........
	34	9.04167	-7.21221E-002	-7.21202E-002	6.56546E-004	...........
	35	9.3	-7.21217E-002	-7.21226E-002	6.53713E-004	...........
	36	9.5583	-7.21218E-002	-7.21241E-002	6.58546E-004	...........
	37	9.8167	-7.21219E-002	-7.21154E-002	6.56313E-004	...........
	38	10.075	-7.21217E-002	-7.21169E-002	6.50380E-004	...........
EOC	QUANT	-0.0721217	Open Circuit (V)
PSTATMODEL	IQUANT	4	Pstat Model
PSTATSECTION	LABEL	REF600-11020	Pstat Section
PSTATSERIALNO	LABEL	11020	Pstat Serial Number
CTRLMODE	IQUANT	1	Control Mode
IESTAB	IQUANT	0	I/E Stability
CASPEED	IQUANT	1	Control Amp Speed
CONVENTION	IQUANT	1	Current Convention
ICHRANGE	IQUANT	2	Ich Range
ICHRANGEMODE	TOGGLE	F	Ich Auto Range
ICHOFFSETENABLE	TOGGLE	T	Ich Offset Enable
ICHOFFSET	QUANT	0	Ich Offset (V)
ICHFILTER	IQUANT	3	Ich Filter
VCHRANGE	IQUANT	2	Vch Range
VCHRANGEMODE	TOGGLE	F	Vch Auto Range
VCHOFFSETENABLE	TOGGLE	T	Vch Offset Enable
VCHOFFSET	QUANT	0	Vch Offset (V)
VCHFILTER	IQUANT	3	Vch Filter
ACHRANGE	IQUANT	2	Ach Range
ACHOFFSETENABLE	TOGGLE	F	Ach Offset Enable
ACHOFFSET	QUANT	0	Ach Offset (V)
ACHFILTER	IQUANT	3	Ach Filter
IERANGELOWERLIMIT	IQUANT	1	I/E Range Lower Limit
IERANGEMODE	TOGGLE	F	I/E AutoRange
IERANGE	IQUANT	8	I/E Range
POSFEEDENABLE	TOGGLE	F	Positive Feedback IR Comp
POSFEEDRESISTANCE	QUANT	0	Positive Feedback Resistance (ohm)
ACHSELECT	IQUANT	0	Ach Select
CABLEID	IQUANT	14	Cable ID
DCCALDATE	LABEL	12/22/2019	DC Calibration Date
ACCALDATE	LABEL	12/22/2019	AC Calibration Date
THERMOSELECT	IQUANT	1	Thermo Select
FRAMEWORKVERSION	QUANT	6.33	Framework Version
INSTRUMENTVERSION	LABEL	3.50	Instrument Version
ZCURVE	TABLE
	Pt	Time	Freq	Zreal	Zimag	Zsig	Zmod	Zphz	Idc	Vdc	IERange
	#	s	Hz	ohm	ohm	V	ohm	°	A	V	#
	0	1	1000078	2056.583	-2227.375	1	3031.622	-47.28305	-1.231404E-006	-0.0702051	8
	1	1	794390.6	2484.107	-2349.129	1	3418.947	-43.40032	-2.531697E-006	-0.069524	8
	2	1	630984.4	2933.603	-2435.678	1	3812.946	-39.70178	-4.752859E-007	-0.0699323	8
	3	2	501234.4	3389.754	-2449.85	1	4182.368	-35.85646	4.369982E-006	-0.0710942	8
	4	2	398109.4	3878.849	-2372.964	1	4547.134	-31.45705	3.612621E-007	-0.0706835	8
	5	2	316265.6	4293.614	-2292.724	1	4867.413	-28.10154	-7.447097E-007	-0.070337	8
	6	3	251203.1	4710.452	-2131.365	1	5170.21	-24.34559	-2.475298E-007	-0.0703641	8
	7	3	199546.9	5064.499	-1973.516	1	5435.432	-21.28969	-2.236263E-006	-0.0699793	8
	8	3	158578.1	5340.558	-1791.76	1	5633.113	-18.54663	3.145723E-007	-0.0705632	8
	9	3	125953.1	5623.913	-1563.27	1	5837.141	-15.53425	-5.160783E-007	-0.0694365	7
	10	4	100078.1	5802.27	-1385.45	1	5965.384	-13.42947	-1.632636E-008	-0.0704217	7
	11	4	79453.13	5950.204	-1264.606	1	6083.104	-11.99862	6.00006E-008	-0.0704815	8
	12	5	63140.62	6100.004	-1103.754	1	6199.058	-10.25631	-3.560864E-008	-0.0704462	7
	13	5	50203.12	6211.897	-993.858	1	6290.899	-9.089869	2.637357E-009	-0.0704633	7
	14	5	39890.62	6302.593	-904.6373	1	6367.186	-8.168112	1.788945E-010	-0.0704019	7
	15	5	31640.63	6382.865	-836.5323	1	6437.449	-7.466576	-1.5497E-008	-0.0704377	7
	16	6	25171.88	6452.345	-791.2272	1	6500.677	-6.991066	-2.246174E-010	-0.0704014	7
	17	6	20015.62	6510.36	-764.2511	1	6555.064	-6.695308	3.592627E-008	-0.0706068	7
	18	6	15890.62	6569.077	-762.9628	1	6613.236	-6.624913	-3.349773E-008	-0.0704703	7
	19	7	12609.37	6624.565	-784.1063	1	6670.808	-6.750319	-3.091565E-008	-0.0704887	7
	20	7	10078.13	6675.299	-825.1158	1	6726.101	-7.046435	-3.680513E-010	-0.0704067	7
	21	7	8015.625	6717.422	-902.3049	1	6777.751	-7.650354	-2.709765E-008	-0.0704907	7
	22	8	6328.125	6775.336	-1002.638	1	6849.121	-8.417735	-3.938196E-008	-0.0704276	7
	23	8	5015.625	6830.321	-1142.744	1	6925.255	-9.497882	-3.018822E-008	-0.0704872	7
	24	8	3984.375	6888.34	-1330.576	1	7015.673	-10.93281	1.094708E-008	-0.0705556	7
	25	9	3170.956	6955.019	-1559.324	1	7127.677	-12.63682	5.957528E-008	-0.0705145	7
	26	9	2527.573	7027.371	-1849.188	1	7266.597	-14.74265	-3.373713E-008	-0.0704771	7
	27	9	1976.103	7124.795	-2244.948	1	7470.107	-17.48909	3.187118E-008	-0.070539	7
	28	10	1577.524	7222.728	-2699.038	1	7710.552	-20.49005	5.860091E-008	-0.0705191	7
	29	10	1265.625	7349.163	-3239.632	1	8031.526	-23.78867	-2.693528E-008	-0.0705023	7
	30	10	998.264	7512.546	-3963.091	1	8493.788	-27.81298	-1.61642E-008	-0.0704653	7
	31	10	796.875	7703.109	-4798.89	1	9075.64	-31.92212	-3.811835E-008	-0.0704337	7
	32	11	627.7902	7958.215	-5874.342	1	9891.46	-36.43282	1.359926E-008	-0.0707299	6
	33	11	505.5147	8242.12	-7074.744	1	10862.07	-40.64162	-5.917466E-009	-0.070408	6
	34	11	397.9953	8631.611	-8681.255	1	12242.1	-45.16429	6.872794E-010	-0.0704815	6
	35	12	315.5048	9104.218	-10591.12	1	13966.34	-49.31738	8.501669E-011	-0.070489	6
	36	12	252.4038	9669.67	-12819.89	1	16057.77	-52.97382	1.024423E-010	-0.0704924	6
	37	12	198.6229	10432.36	-15732.84	1	18877.41	-56.45187	5.112836E-010	-0.0704904	6
	38	13	158.3615	11348.26	-19087.14	1	22205.9	-59.2664	4.54218E-010	-0.0704948	6
	39	13	125.558	12543.11	-23268.77	1	26434.17	-61.67296	5.851919E-010	-0.0704916	6
	40	13	100.4464	14000.96	-28105.56	1	31399.83	-63.51952	1.227977E-009	-0.0705009	6
	41	14	79.00281	16119.51	-34387.74	1	37978.35	-64.88481	8.766361E-010	-0.0704967	6
	42	14	63.3446	18849.25	-41649.98	1	45716.68	-65.65025	7.104239E-010	-0.0704991	6
	43	14	49.86702	22294.83	-50624.68	1	55316.53	-66.23158	9.525755E-010	-0.0704977	6
	44	15	39.72458	26588.2	-60468.37	1	66055.7	-66.2647	6.773451E-010	-0.0704957	6
	45	15	31.6723	32266.27	-72051.93	1	78946.77	-65.87623	8.297713E-010	-0.0705016	6
	46	15	24.93351	39850.04	-86394.05	1	95141.8	-65.23806	1.734131E-010	-0.0705026	6
	47	16	19.86229	49056.85	-101763.6	1	112970.8	-64.26283	1.3792E-010	-0.0705037	5
	48	16	15.83615	58826.2	-119405.7	1	133109.9	-63.77245	2.672953E-010	-0.0705088	5
	49	16	12.40079	74304.75	-139730.6	1	158258.8	-61.99723	-4.890628E-010	-0.0705009	5
	50	17	9.93114	90400.73	-160851.2	1	184514	-60.66338	4.357784E-010	-0.0705082	5
	51	17	7.944915	108302.3	-184711.8	1	214121.1	-59.61558	1.605887E-010	-0.0705056	5
	52	18	6.317385	129163.4	-211468.7	1	247794.7	-58.58375	2.53725E-010	-0.07051	5
	53	19	5.008013	153819.2	-242673	1	287316.1	-57.63128	3.617547E-010	-0.0704967	5
	54	20	3.945707	183317	-279013.3	1	333846.6	-56.69432	-1.009215E-010	-0.070519	5
	55	21	3.158693	214863	-316959.8	1	382922.5	-55.86715	5.578966E-011	-0.0705233	5
	56	23	2.504006	253327.2	-362270.9	1	442057.5	-55.03584	2.894328E-010	-0.0705148	5
	57	24	1.998082	295731.6	-410197.2	1	505686.5	-54.21029	4.027184E-011	-0.0705415	5
	58	26	1.584686	347087.8	-467023.2	1	581876.8	-53.38057	-5.851558E-011	-0.0705611	5
	59	28	1.266892	401967.9	-526901.3	1	662724	-52.66034	-3.013676E-011	-0.0705339	5
	60	30	0.999041	468813.9	-595849.3	1	758170.8	-51.80435	-1.290671E-011	-0.070502	5
