EXPLAIN
TAG	EISPOT
TITLE	LABEL	Potentiostatic EIS	Test &Identifier
DATE	LABEL	3/9/2020	Date
TIME	LABEL	20:31:29	Time
NOTES	NOTES	1	&Notes...
	
PSTAT	PSTAT	REF600-11020	Potentiostat
VDC	POTEN	0.00000E+000	T	DC &Voltage (V)
FREQINIT	QUANT	1.00000E+006	Initial Fre&q. (Hz)
FREQFINAL	QUANT	1.00000E+000	Final Fre&q. (Hz)
PTSPERDEC	QUANT	1.00000E+001	Points/&decade
VAC	QUANT	2.50000E+001	AC &Voltage (mV rms)
AREA	QUANT	4.00000E-005	&Area (cm^2)
CONDIT	TWOPARAM	T	5.00000E+000	0.00000E+000	Conditionin&g	Time(s)	E(V)
DELAY	TWOPARAM	F	5.00000E+000	0.00000E+000	Init. De&lay	Time(s)	Stab.(mV/s)
SPEED	SELECTOR	0	&Optimize for:
ZGUESS	QUANT	1.00000E+003	E&stimated Z (ohms)
OCVCURVE	TABLE	39
	Pt	T	Vf	Vm	Ach	Over
	#	s	V vs. Ref.	V	V	bits
	0	0.258333	7.79212E-003	7.79212E-003	5.63230E-004	...........
	1	0.516667	7.79443E-003	7.91331E-003	5.60164E-004	...........
	2	0.775	7.80889E-003	8.04084E-003	5.65197E-004	...........
	3	1.03333	7.85077E-003	8.17240E-003	5.61730E-004	...........
	4	1.29167	7.92813E-003	8.30443E-003	5.61597E-004	...........
	5	1.55	8.03537E-003	8.44084E-003	5.61997E-004	...........
	6	1.80833	8.16041E-003	8.57536E-003	5.65397E-004	...........
	7	2.06667	8.29331E-003	8.70834E-003	5.69130E-004	...........
	8	2.325	8.42849E-003	8.84254E-003	5.65997E-004	...........
	9	2.58333	8.56352E-003	8.97293E-003	5.57297E-004	...........
	10	2.84167	8.69751E-003	9.09857E-003	5.62364E-004	...........
	11	3.1	8.83001E-003	9.23294E-003	5.60730E-004	...........
	12	3.35833	8.96102E-003	9.35876E-003	5.59164E-004	...........
	13	3.61667	9.09094E-003	9.48296E-003	5.64963E-004	...........
	14	3.875	9.21969E-003	9.60403E-003	5.60297E-004	...........
	15	4.13333	9.34665E-003	9.72643E-003	5.58130E-004	...........
	16	4.39167	9.47151E-003	9.84754E-003	5.63530E-004	...........
	17	4.65	9.59456E-003	9.96469E-003	5.65130E-004	...........
	18	4.90833	9.71614E-003	1.00832E-002	5.67030E-004	...........
	19	5.16667	9.83636E-003	1.01992E-002	5.68263E-004	...........
	20	5.425	9.95526E-003	1.03143E-002	5.66263E-004	...........
	21	5.68333	1.00729E-002	1.04272E-002	5.64163E-004	...........
	22	5.94167	1.01891E-002	1.05366E-002	5.65930E-004	...........
	23	6.2	1.03038E-002	1.06487E-002	5.70497E-004	...........
	24	6.45833	1.04167E-002	1.07539E-002	5.67164E-004	...........
	25	6.71667	1.05279E-002	1.08608E-002	5.67263E-004	...........
	26	6.975	1.06374E-002	1.09655E-002	5.66030E-004	...........
	27	7.23333	1.07453E-002	1.10696E-002	5.62397E-004	...........
	28	7.49167	1.08516E-002	1.11716E-002	5.62030E-004	...........
	29	7.75	1.09566E-002	1.12729E-002	5.62930E-004	...........
	30	8.00833	1.10603E-002	1.13723E-002	5.69163E-004	...........
	31	8.26667	1.11628E-002	1.14709E-002	5.69397E-004	...........
	32	8.525	1.12639E-002	1.15691E-002	5.69463E-004	...........
	33	8.78333	1.13638E-002	1.16636E-002	5.65864E-004	...........
	34	9.04167	1.14625E-002	1.17602E-002	5.65030E-004	...........
	35	9.3	1.15600E-002	1.18565E-002	5.61964E-004	...........
	36	9.5583	1.16566E-002	1.19519E-002	5.64930E-004	...........
	37	9.8167	1.17527E-002	1.20437E-002	5.65130E-004	...........
	38	10.075	1.18482E-002	1.21342E-002	5.70897E-004	...........
EOC	QUANT	0.0118482	Open Circuit (V)
PSTATMODEL	IQUANT	4	Pstat Model
PSTATSECTION	LABEL	REF600-11020	Pstat Section
PSTATSERIALNO	LABEL	11020	Pstat Serial Number
CTRLMODE	IQUANT	1	Control Mode
IESTAB	IQUANT	0	I/E Stability
CASPEED	IQUANT	1	Control Amp Speed
CONVENTION	IQUANT	1	Current Convention
ICHRANGE	IQUANT	2	Ich Range
ICHRANGEMODE	TOGGLE	F	Ich Auto Range
ICHOFFSETENABLE	TOGGLE	T	Ich Offset Enable
ICHOFFSET	QUANT	0	Ich Offset (V)
ICHFILTER	IQUANT	3	Ich Filter
VCHRANGE	IQUANT	2	Vch Range
VCHRANGEMODE	TOGGLE	F	Vch Auto Range
VCHOFFSETENABLE	TOGGLE	T	Vch Offset Enable
VCHOFFSET	QUANT	0	Vch Offset (V)
VCHFILTER	IQUANT	3	Vch Filter
ACHRANGE	IQUANT	2	Ach Range
ACHOFFSETENABLE	TOGGLE	F	Ach Offset Enable
ACHOFFSET	QUANT	0	Ach Offset (V)
ACHFILTER	IQUANT	3	Ach Filter
IERANGELOWERLIMIT	IQUANT	1	I/E Range Lower Limit
IERANGEMODE	TOGGLE	F	I/E AutoRange
IERANGE	IQUANT	7	I/E Range
POSFEEDENABLE	TOGGLE	F	Positive Feedback IR Comp
POSFEEDRESISTANCE	QUANT	0	Positive Feedback Resistance (ohm)
ACHSELECT	IQUANT	0	Ach Select
CABLEID	IQUANT	14	Cable ID
DCCALDATE	LABEL	2/27/2020	DC Calibration Date
ACCALDATE	LABEL	2/27/2020	AC Calibration Date
THERMOSELECT	IQUANT	1	Thermo Select
FRAMEWORKVERSION	QUANT	6.33	Framework Version
INSTRUMENTVERSION	LABEL	3.50	Instrument Version
ZCURVE	TABLE
	Pt	Time	Freq	Zreal	Zimag	Zsig	Zmod	Zphz	Idc	Vdc	IERange
	#	s	Hz	ohm	ohm	V	ohm	°	A	V	#
	0	1	1000078	1327.399	-2355.18	1	2703.49	-60.59403	4.992646E-008	0.0139447	8
	1	2	794390.6	1562.717	-2781.671	1	3190.577	-60.67313	4.699056E-008	0.0136696	8
	2	2	630984.4	1860.418	-3277.356	1	3768.583	-60.41823	5.607237E-008	0.013536	8
	3	2	501234.4	2233.395	-3844.848	1	4446.449	-59.84856	8.898493E-008	0.013452	8
	4	3	398109.4	2699.767	-4477.357	1	5228.333	-58.91077	3.343736E-008	0.0134425	8
	5	3	316265.6	3275.946	-5201.227	1	6146.917	-57.79559	4.32362E-008	0.0134026	8
	6	3	251203.1	3974.853	-5961.648	1	7165.243	-56.30714	4.637236E-008	0.0134014	8
	7	4	199546.9	4832.269	-6777.475	1	8323.761	-54.51153	4.718233E-008	0.0134011	8
	8	4	158578.1	5820.49	-7622.831	1	9590.92	-52.63609	5.254234E-008	0.013401	8
	9	4	125953.1	7134.871	-8393.909	1	11016.54	-49.63527	-1.750877E-009	0.013344	7
	10	5	100078.1	8368.397	-9200.063	1	12436.69	-47.71028	1.126515E-009	0.0133439	7
	11	5	79453.13	9742.2	-10074.6	1	14014.56	-45.96095	1.937728E-009	0.0133397	7
	12	5	63140.62	11230.02	-10911.48	1	15658.03	-44.17577	1.48735E-009	0.0133311	7
	13	6	50203.12	12787.73	-11783.55	1	17389.02	-42.65975	1.685188E-009	0.0133347	7
	14	6	39890.62	14432.18	-12687.96	1	19216.45	-41.32013	2.381066E-009	0.0133326	7
	15	6	31640.63	16163.82	-13644.32	1	21152.7	-40.16862	1.678465E-009	0.013333	7
	16	7	25171.88	17949.73	-14730.9	1	23220.51	-39.37487	3.031154E-009	0.0133353	7
	17	7	20015.62	19854.56	-15946.43	1	25465.51	-38.7701	2.882377E-009	0.0133194	7
	18	7	15890.62	21885.04	-17355.39	1	27931.43	-38.41531	3.221335E-009	0.0133288	7
	19	8	12609.37	24485.34	-18592.72	1	30744.45	-37.2109	4.495134E-010	0.0133784	6
	20	8	10078.13	26781.59	-20410.03	1	33672.29	-37.31073	5.720299E-010	0.013376	6
	21	8	8015.625	29401.68	-22525.51	1	37038.59	-37.45681	4.898325E-010	0.0133711	6
	22	9	6328.125	32491.12	-24990.42	1	40990.16	-37.56554	4.97489E-010	0.0133743	6
	23	9	5015.625	35992.73	-27693.53	1	45413.75	-37.57541	7.723677E-010	0.0133807	6
	24	9	3984.375	40023.1	-30585.52	1	50371.84	-37.38694	8.547238E-010	0.0133801	6
	25	9	3170.956	44665.82	-33526.22	1	55848.39	-36.89194	6.573561E-010	0.0133762	6
	26	10	2527.573	49962.21	-36544.89	1	61901.14	-36.18363	6.264154E-010	0.0133683	6
	27	10	1976.103	56515.33	-39501.89	1	68952.02	-34.95196	7.64609E-010	0.0133772	6
	28	10	1577.524	63160.86	-41860.06	1	75773.07	-33.53455	8.370882E-010	0.0133799	6
	29	11	1265.625	70031.18	-43568.31	1	82477.66	-31.88687	7.492025E-010	0.0133753	6
	30	11	998.264	77714.62	-44732.6	1	89669.21	-29.92477	4.995201E-010	0.0133697	6
	31	11	796.875	85588.26	-44099.38	1	96281.4	-27.2598	1.00091E-010	0.0133684	5
	32	12	627.7902	92678.29	-44505.95	1	102810.7	-25.65124	1.347193E-010	0.0133672	5
	33	12	505.5147	98573.1	-44705.93	1	108237.2	-24.39574	9.079288E-011	0.0133719	5
	34	12	397.9953	104277	-44916.19	1	113539.2	-23.30344	1.817444E-010	0.0133852	5
	35	13	315.5048	109354.8	-45881.66	1	118590.1	-22.76131	1.299476E-010	0.0133834	5
	36	13	252.4038	113821.1	-47692.67	1	123409.2	-22.73438	9.63832E-011	0.0133793	5
	37	13	198.6229	118370.7	-50857.5	1	128833.6	-23.25059	1.293126E-010	0.0133831	5
	38	14	158.3615	123179.9	-55622.66	1	135156.1	-24.30185	1.1968E-011	0.0133806	5
	39	14	125.558	127914.4	-61611.02	1	141978.9	-25.71818	-5.816648E-011	0.0133809	5
	40	14	100.4464	133362.7	-69191.37	1	150243.3	-27.42123	-7.303591E-011	0.0133791	5
	41	15	79.00281	140306.1	-79318.29	1	161174.4	-29.48048	-1.893839E-011	0.0133708	5
	42	15	63.3446	147634.4	-90212.23	1	173014.9	-31.42708	-3.351689E-011	0.0133764	5
	43	15	49.86702	157690.5	-104631.3	1	189245.9	-33.56521	-2.714868E-010	0.0133764	5
	44	16	39.72458	168341.6	-119886.6	1	206668.1	-35.45705	-1.314621E-010	0.0133806	5
	45	16	31.6723	181971.5	-138150.2	1	228471.2	-37.20526	-7.870594E-011	0.0133745	5
	46	16	24.93351	198757.8	-159737	1	254991.3	-38.78803	-5.903188E-010	0.0133787	5
	47	17	19.86229	218035.3	-183403.4	1	284914.4	-40.06933	-9.960838E-010	0.0133724	5
	48	17	15.83615	240750.9	-208732.8	1	318638.3	-40.92553	-4.562587E-012	0.013371	5
	49	17	12.40079	269730.9	-238291.2	1	359913.1	-41.45869	-6.357059E-010	0.0133754	5
	50	17	9.93114	299457.8	-267179.1	1	401322.3	-41.73965	-4.170387E-010	0.0133716	5
	51	18	7.944915	334610	-298167.3	1	448182.5	-41.70388	6.257893E-010	0.0133641	5
	52	18	6.317385	377873	-334249.9	1	504490.8	-41.49457	-5.409888E-010	0.0133951	5
	53	19	5.008013	425331.5	-370528.7	1	564090.8	-41.06084	-6.066683E-010	0.0133694	5
	54	20	3.945707	479377.2	-408493.4	1	629816.9	-40.43544	-5.881881E-011	0.0133858	5
	55	21	3.158693	534053.4	-446260.1	1	695960.6	-39.88245	-4.898051E-010	0.0133761	5
	56	22	2.504006	594071.3	-486531.5	1	767876	-39.31673	-3.160837E-010	0.0133696	5
	57	23	1.998082	658462.7	-528205.6	1	844141.2	-38.73589	2.886643E-012	0.0134123	5
	58	25	1.584686	722903.6	-575721.6	1	924145.5	-38.53387	-7.522549E-011	0.0133796	5
	59	27	1.266892	790404.9	-624286.3	1	1007211	-38.30277	-1.932485E-010	0.0133385	4
	60	29	0.999041	864944.8	-685646.4	1	1103739	-38.40406	-2.915217E-010	0.0133249	4
