EXPLAIN
TAG	EISPOT
TITLE	LABEL	Potentiostatic EIS	Test &Identifier
DATE	LABEL	1/7/2020	Date
TIME	LABEL	18:13:11	Time
NOTES	NOTES	5	&Notes...
	
	
	
	
	
PSTAT	PSTAT	REF600-11020	Potentiostat
VDC	POTEN	0.00000E+000	T	DC &Voltage (V)
FREQINIT	QUANT	1.00000E+006	Initial Fre&q. (Hz)
FREQFINAL	QUANT	1.00000E+000	Final Fre&q. (Hz)
PTSPERDEC	QUANT	1.00000E+001	Points/&decade
VAC	QUANT	2.50000E+001	AC &Voltage (mV rms)
AREA	QUANT	1.00000E-001	&Area (cm^2)
CONDIT	TWOPARAM	T	5.00000E+000	0.00000E+000	Conditionin&g	Time(s)	E(V)
DELAY	TWOPARAM	T	5.00000E+000	0.00000E+000	Init. De&lay	Time(s)	Stab.(mV/s)
SPEED	SELECTOR	0	&Optimize for:
ZGUESS	QUANT	1.00000E+003	E&stimated Z (ohms)
OCVCURVE	TABLE	19
	Pt	T	Vf	Vm	Ach	Over
	#	s	V vs. Ref.	V	V	bits
	0	0.258333	3.36923E-003	3.36923E-003	6.45180E-004	...........
	1	0.516667	3.36695E-003	3.25017E-003	6.45046E-004	...........
	2	0.775	3.35071E-003	3.01808E-003	6.47846E-004	...........
	3	1.03333	3.29680E-003	2.77499E-003	6.45080E-004	...........
	4	1.29167	3.17879E-003	2.27008E-003	6.51446E-004	...........
	5	1.55	2.98729E-003	2.44190E-003	6.48713E-004	...........
	6	1.80833	2.76546E-003	2.77518E-003	6.47180E-004	...........
	7	2.06667	2.61532E-003	3.14476E-003	6.44346E-004	...........
	8	2.325	2.62586E-003	3.46110E-003	6.42546E-004	...........
	9	2.58333	2.81555E-003	4.44768E-003	6.46013E-004	...........
	10	2.84167	3.11990E-003	2.38064E-003	6.43913E-004	...........
	11	3.1	3.35011E-003	2.36534E-003	6.48913E-004	...........
	12	3.35833	3.30918E-003	2.71596E-003	6.49413E-004	...........
	13	3.61667	3.03194E-003	1.99805E-003	6.48546E-004	...........
	14	3.875	2.72248E-003	2.81259E-003	6.44580E-004	...........
	15	4.13333	2.51071E-003	1.86819E-003	6.44746E-004	...........
	16	4.39167	2.40899E-003	3.11528E-003	6.44380E-004	...........
	17	4.65	2.38358E-003	1.58381E-003	6.42813E-004	...........
	18	4.90833	2.35904E-003	1.62072E-003	6.45780E-004	...........
EOC	QUANT	0.002359	Open Circuit (V)
PSTATMODEL	IQUANT	4	Pstat Model
PSTATSECTION	LABEL	REF600-11020	Pstat Section
PSTATSERIALNO	LABEL	11020	Pstat Serial Number
CTRLMODE	IQUANT	1	Control Mode
IESTAB	IQUANT	0	I/E Stability
CASPEED	IQUANT	1	Control Amp Speed
CONVENTION	IQUANT	1	Current Convention
ICHRANGE	IQUANT	2	Ich Range
ICHRANGEMODE	TOGGLE	F	Ich Auto Range
ICHOFFSETENABLE	TOGGLE	T	Ich Offset Enable
ICHOFFSET	QUANT	0	Ich Offset (V)
ICHFILTER	IQUANT	3	Ich Filter
VCHRANGE	IQUANT	2	Vch Range
VCHRANGEMODE	TOGGLE	F	Vch Auto Range
VCHOFFSETENABLE	TOGGLE	T	Vch Offset Enable
VCHOFFSET	QUANT	0	Vch Offset (V)
VCHFILTER	IQUANT	3	Vch Filter
ACHRANGE	IQUANT	2	Ach Range
ACHOFFSETENABLE	TOGGLE	F	Ach Offset Enable
ACHOFFSET	QUANT	0	Ach Offset (V)
ACHFILTER	IQUANT	3	Ach Filter
IERANGELOWERLIMIT	IQUANT	1	I/E Range Lower Limit
IERANGEMODE	TOGGLE	F	I/E AutoRange
IERANGE	IQUANT	6	I/E Range
POSFEEDENABLE	TOGGLE	F	Positive Feedback IR Comp
POSFEEDRESISTANCE	QUANT	0	Positive Feedback Resistance (ohm)
ACHSELECT	IQUANT	0	Ach Select
CABLEID	IQUANT	14	Cable ID
DCCALDATE	LABEL	12/22/2019	DC Calibration Date
ACCALDATE	LABEL	12/22/2019	AC Calibration Date
THERMOSELECT	IQUANT	1	Thermo Select
FRAMEWORKVERSION	QUANT	6.33	Framework Version
INSTRUMENTVERSION	LABEL	3.50	Instrument Version
ZCURVE	TABLE
	Pt	Time	Freq	Zreal	Zimag	Zsig	Zmod	Zphz	Idc	Vdc	IERange
	#	s	Hz	ohm	ohm	V	ohm	°	A	V	#
	0	1	1000078	1850.332	-2171.213	1	2852.699	-49.56199	-1.455408E-005	0.006938	8
	1	1	794390.6	2067.163	-2412.073	1	3176.675	-49.4032	9.767499E-006	0.0028261	8
	2	1	630984.4	2299.442	-2671.809	1	3525.053	-49.2837	-2.956987E-006	0.004055	8
	3	2	501234.4	2542.932	-3057.923	1	3977.108	-50.2535	5.104769E-007	0.0040415	8
	4	2	398109.4	2784.771	-3481.848	1	4458.5	-51.34729	2.687027E-006	0.0033881	8
	5	2	316265.6	3027.354	-3982.04	1	5002.151	-52.75601	-6.939073E-006	0.0051949	8
	6	3	251203.1	3375.69	-4608.958	1	5712.948	-53.78023	2.655473E-006	0.0032458	8
	7	3	199546.9	3594.007	-5519.69	1	6586.643	-56.93085	2.189389E-006	0.003452	8
	8	3	158578.1	4316.714	-6553.909	1	7847.786	-56.62922	-2.316192E-006	0.0046443	8
	9	4	125953.1	4862.847	-7782.85	1	9177.147	-58.00221	-1.54573E-006	0.0084403	7
	10	4	100078.1	5607.175	-9236.441	1	10805.2	-58.73928	-6.680103E-009	0.0037013	7
	11	4	79453.13	6618.131	-11025.99	1	12859.71	-59.02655	-6.759397E-009	0.0036942	7
	12	5	63140.62	7992.006	-13127.28	1	15368.72	-58.66657	1.20176E-007	0.0037939	7
	13	5	50203.12	9805.4	-15461.69	1	18308.74	-57.61821	5.310994E-009	0.0038595	7
	14	5	39890.62	12277.02	-17904.74	1	21709.56	-55.56214	-7.674613E-008	0.0038492	7
	15	6	31640.63	15486.35	-20501.23	1	25692.94	-52.93309	-3.306065E-008	0.003978	7
	16	6	25171.88	19469.61	-22681.4	1	29891.67	-49.35736	-7.442488E-008	0.0039036	7
	17	6	20015.62	24299.27	-24428.46	1	34455.83	-45.1519	-5.827127E-008	0.0038385	7
	18	7	15890.62	29441.1	-25473.8	1	38931.91	-40.86788	-4.813302E-008	0.0038062	7
	19	7	12609.37	35425.9	-24801.13	1	43244.54	-34.99528	-4.23976E-009	0.004047	6
	20	7	10078.13	40370.91	-23710.54	1	46818.8	-30.42646	-1.537133E-008	0.0040346	6
	21	8	8015.625	44859.9	-21749.35	1	49854.24	-25.86542	-1.958905E-008	0.003994	6
	22	8	6328.125	48699.63	-19553.61	1	52478.54	-21.87618	7.921007E-009	0.0034848	6
	23	8	5015.625	51615.25	-17025.62	1	54350.77	-18.25546	7.804117E-009	0.0038685	6
	24	8	3984.375	53760.17	-14577.64	1	55701.56	-15.17153	7.359685E-009	0.0038614	6
	25	9	3170.956	55361.72	-12493.96	1	56754.02	-12.71739	-8.761271E-009	0.0040462	6
	26	9	2527.573	56293.29	-10673.12	1	57296.16	-10.73576	1.331466E-008	0.0034632	6
	27	9	1976.103	57136.54	-9218.695	1	57875.46	-9.165401	5.977793E-009	0.0038752	6
	28	10	1577.524	57509.51	-8138.946	1	58082.58	-8.055203	2.390726E-008	0.0035207	6
	29	10	1265.625	57938.3	-7244.821	1	58389.5	-7.127483	7.818651E-009	0.0038551	6
	30	10	998.264	58341.4	-6753.743	1	58731.01	-6.603308	-1.545704E-008	0.0040269	6
	31	11	796.875	58807.71	-6553.556	1	59171.75	-6.358829	-9.526212E-009	0.0039448	6
	32	11	627.7902	58984.26	-6648.966	1	59357.83	-6.431483	-3.371818E-009	0.0036318	6
	33	11	505.5147	59188.92	-6966.973	1	59597.54	-6.713245	-1.56334E-008	0.0039799	6
	34	12	397.9953	59737.41	-7741.777	1	60236.97	-7.384193	7.763794E-010	0.0038002	6
	35	12	315.5048	59972.09	-8790.053	1	60612.84	-8.338417	5.933866E-010	0.0038028	6
	36	13	252.4038	60509.18	-10158.66	1	61356	-9.5303	9.121391E-010	0.0037986	6
	37	13	198.6229	61124.25	-11999.79	1	62291	-11.10694	6.322228E-010	0.0037983	6
	38	14	158.3615	61717.15	-14242.28	1	63339.16	-12.9945	8.839823E-010	0.0037879	6
	39	14	125.558	62634.79	-17057.95	1	64916.02	-15.23446	1.117917E-009	0.0037937	6
	40	14	100.4464	63811.54	-20202.33	1	66933.16	-17.56745	5.329495E-010	0.0038009	6
	41	15	79.00281	65492.36	-24352.74	1	69873.49	-20.39719	1.492906E-009	0.0037967	6
	42	15	63.3446	67312.13	-30137.47	1	73750.87	-24.11936	1.211891E-009	0.0037921	6
	43	15	49.86702	69926.75	-35515.63	1	78429.02	-26.92591	1.033525E-009	0.0037899	6
	44	16	39.72458	73410.04	-41669.23	1	84411.84	-29.58025	1.669564E-009	0.0037939	6
	45	16	31.6723	77228.7	-49086.26	1	91508.1	-32.43988	1.706065E-009	0.0037924	6
	46	16	24.93351	82037.74	-57731.8	1	100315.3	-35.13491	-9.809849E-011	0.0037872	5
	47	17	19.86229	87570.52	-67550.42	1	110596.8	-37.64599	5.502774E-010	0.0037966	5
	48	17	15.83615	94455.27	-78455.46	1	122788.7	-39.71335	-1.094551E-009	0.0037943	5
	49	17	12.40079	101916.9	-92823.3	1	137852.2	-42.32645	-6.157061E-011	0.0038013	5
	50	18	9.93114	109661	-106793.2	1	153069.6	-44.24093	6.840286E-010	0.0037964	5
	51	18	7.944915	118528.9	-124459.9	1	171870.3	-46.39824	5.495553E-010	0.0037885	5
	52	19	6.317385	128557.8	-145746.8	1	194343.1	-48.5857	7.523805E-010	0.0037746	5
	53	20	5.008013	140374.8	-171873.5	1	221913.4	-50.76035	7.081463E-010	0.0037898	5
	54	21	3.945707	155439.4	-204358.5	1	256756.3	-52.74261	2.254231E-010	0.0037833	5
	55	22	3.158693	170762.5	-239664.7	1	294277	-54.5299	1.637737E-010	0.0037711	5
	56	23	2.504006	191044.1	-284449.9	1	342650.8	-56.11365	3.984784E-010	0.003772	5
	57	25	1.998082	213959.9	-335859.8	1	398221.8	-57.50077	3.21618E-010	0.0037866	5
	58	26	1.584686	244640.5	-397275.1	1	466558.1	-58.37539	1.762515E-010	0.0037393	5
	59	28	1.266892	279183.9	-468420	1	545308.1	-59.20456	1.698899E-010	0.0037365	5
	60	31	0.999041	322713.3	-558537.2	1	645064.1	-59.98141	2.461513E-010	0.0037499	5
