EXPLAIN
TAG	EISPOT
TITLE	LABEL	Potentiostatic EIS	Test &Identifier
DATE	LABEL	1/14/2020	Date
TIME	LABEL	17:33:26	Time
NOTES	NOTES	5	&Notes...
	
	
	
	
	
PSTAT	PSTAT	REF600-11020	Potentiostat
VDC	POTEN	0.00000E+000	T	DC &Voltage (V)
FREQINIT	QUANT	1.00000E+006	Initial Fre&q. (Hz)
FREQFINAL	QUANT	1.00000E+000	Final Fre&q. (Hz)
PTSPERDEC	QUANT	1.00000E+001	Points/&decade
VAC	QUANT	2.50000E+001	AC &Voltage (mV rms)
AREA	QUANT	1.00000E-001	&Area (cm^2)
CONDIT	TWOPARAM	T	5.00000E+000	0.00000E+000	Conditionin&g	Time(s)	E(V)
DELAY	TWOPARAM	T	5.00000E+000	0.00000E+000	Init. De&lay	Time(s)	Stab.(mV/s)
SPEED	SELECTOR	0	&Optimize for:
ZGUESS	QUANT	5.00000E+002	E&stimated Z (ohms)
OCVCURVE	TABLE	19
	Pt	T	Vf	Vm	Ach	Over
	#	s	V vs. Ref.	V	V	bits
	0	0.258333	5.91113E-003	5.91113E-003	6.55046E-004	...........
	1	0.516667	5.90936E-003	5.81832E-003	6.46413E-004	...........
	2	0.775	5.89875E-003	5.74515E-003	6.51480E-004	...........
	3	1.03333	5.86999E-003	5.69048E-003	6.51080E-004	...........
	4	1.29167	5.82187E-003	5.64991E-003	6.48580E-004	...........
	5	1.55	5.76412E-003	5.61843E-003	6.40780E-004	...........
	6	1.80833	5.70904E-003	5.61093E-003	6.39146E-004	...........
	7	2.06667	5.66448E-003	5.58963E-003	6.47180E-004	...........
	8	2.325	5.63242E-003	5.58678E-003	6.48213E-004	...........
	9	2.58333	5.61101E-003	5.58804E-003	6.52780E-004	...........
	10	2.84167	5.59786E-003	5.59499E-003	6.53280E-004	...........
	11	3.1	5.59171E-003	5.60481E-003	6.47880E-004	...........
	12	3.35833	5.59159E-003	5.61091E-003	6.44246E-004	...........
	13	3.61667	5.59592E-003	5.62028E-003	6.45213E-004	...........
	14	3.875	5.60284E-003	5.62898E-003	6.48113E-004	...........
	15	4.13333	5.61093E-003	5.63792E-003	6.50246E-004	...........
	16	4.39167	5.61949E-003	5.64599E-003	6.39880E-004	...........
	17	4.65	5.62828E-003	5.65836E-003	6.47780E-004	...........
	18	4.90833	5.63732E-003	5.66714E-003	6.44113E-004	...........
EOC	QUANT	0.0056373	Open Circuit (V)
PSTATMODEL	IQUANT	4	Pstat Model
PSTATSECTION	LABEL	REF600-11020	Pstat Section
PSTATSERIALNO	LABEL	11020	Pstat Serial Number
CTRLMODE	IQUANT	1	Control Mode
IESTAB	IQUANT	0	I/E Stability
CASPEED	IQUANT	1	Control Amp Speed
CONVENTION	IQUANT	1	Current Convention
ICHRANGE	IQUANT	2	Ich Range
ICHRANGEMODE	TOGGLE	F	Ich Auto Range
ICHOFFSETENABLE	TOGGLE	T	Ich Offset Enable
ICHOFFSET	QUANT	0	Ich Offset (V)
ICHFILTER	IQUANT	3	Ich Filter
VCHRANGE	IQUANT	2	Vch Range
VCHRANGEMODE	TOGGLE	F	Vch Auto Range
VCHOFFSETENABLE	TOGGLE	T	Vch Offset Enable
VCHOFFSET	QUANT	0	Vch Offset (V)
VCHFILTER	IQUANT	3	Vch Filter
ACHRANGE	IQUANT	2	Ach Range
ACHOFFSETENABLE	TOGGLE	F	Ach Offset Enable
ACHOFFSET	QUANT	0	Ach Offset (V)
ACHFILTER	IQUANT	3	Ach Filter
IERANGELOWERLIMIT	IQUANT	1	I/E Range Lower Limit
IERANGEMODE	TOGGLE	F	I/E AutoRange
IERANGE	IQUANT	7	I/E Range
POSFEEDENABLE	TOGGLE	F	Positive Feedback IR Comp
POSFEEDRESISTANCE	QUANT	0	Positive Feedback Resistance (ohm)
ACHSELECT	IQUANT	0	Ach Select
CABLEID	IQUANT	14	Cable ID
DCCALDATE	LABEL	12/22/2019	DC Calibration Date
ACCALDATE	LABEL	12/22/2019	AC Calibration Date
THERMOSELECT	IQUANT	1	Thermo Select
FRAMEWORKVERSION	QUANT	6.33	Framework Version
INSTRUMENTVERSION	LABEL	3.50	Instrument Version
ZCURVE	TABLE
	Pt	Time	Freq	Zreal	Zimag	Zsig	Zmod	Zphz	Idc	Vdc	IERange
	#	s	Hz	ohm	ohm	V	ohm	°	A	V	#
	0	1	1000078	2304.396	-1798.161	1	2922.948	-37.96554	-2.67838E-006	0.0085841	8
	1	1	794390.6	2674.556	-1784.902	1	3215.45	-33.71771	3.632433E-006	0.0072812	8
	2	2	630984.4	3017.388	-1705.454	1	3466.006	-29.47551	-9.177326E-007	0.0074893	8
	3	2	501234.4	3314.851	-1571.102	1	3668.323	-25.35902	4.549377E-007	0.0074958	8
	4	2	398109.4	3573.756	-1423.432	1	3846.802	-21.71745	-1.581373E-007	0.0073904	8
	5	2	316265.6	3790.936	-1276.356	1	4000.035	-18.60766	-5.14005E-007	0.0075844	8
	6	3	251203.1	3951.095	-1135.996	1	4111.161	-16.04069	-7.185388E-008	0.0073428	8
	7	3	199546.9	4100.42	-1002.69	1	4221.236	-13.74107	5.671527E-007	0.007288	8
	8	3	158578.1	4208.477	-871.2653	1	4297.718	-11.6965	-8.555961E-008	0.0073396	8
	9	4	125953.1	4299.61	-755.6141	1	4365.501	-9.96739	1.51586E-007	0.0066998	7
	10	4	100078.1	4366.683	-668.1016	1	4417.497	-8.698784	4.67853E-008	0.0072629	7
	11	4	79453.13	4425.661	-612.0716	1	4467.786	-7.874092	3.057375E-008	0.0072971	7
	12	5	63140.62	4479.757	-568.4867	1	4515.684	-7.232248	2.174564E-009	0.0073483	7
	13	5	50203.12	4527.769	-538.2856	1	4559.654	-6.779809	5.260916E-009	0.0072962	7
	14	5	39890.62	4573.34	-522.4655	1	4603.087	-6.517305	-1.625918E-008	0.0073611	7
	15	6	31640.63	4615.178	-519.411	1	4644.314	-6.421281	-1.830947E-008	0.0073573	7
	16	6	25171.88	4658.054	-530.241	1	4688.137	-6.494205	-3.433979E-008	0.0073814	7
	17	6	20015.62	4699.093	-554.4706	1	4731.692	-6.729514	-2.060667E-008	0.0073297	7
	18	6	15890.62	4745.518	-595.0927	1	4782.685	-7.147637	-3.385221E-008	0.0073584	7
	19	7	12609.37	4791.761	-650.2427	1	4835.679	-7.727842	-3.427103E-008	0.0073743	7
	20	7	10078.13	4841.999	-722.6129	1	4895.623	-8.488093	2.901237E-009	0.0073395	7
	21	7	8015.625	4895.234	-813.0379	1	4962.292	-9.43004	-1.559504E-008	0.0073608	7
	22	8	6328.125	4953.55	-936.9033	1	5041.374	-10.71028	-2.811392E-008	0.0073533	7
	23	8	5015.625	5018.123	-1086.397	1	5134.375	-12.21571	2.828283E-008	0.0072315	7
	24	8	3984.375	5085.991	-1274.73	1	5243.304	-14.07051	-2.796704E-008	0.0073511	7
	25	9	3170.956	5165.55	-1494.921	1	5377.518	-16.14056	7.578149E-008	0.0072145	7
	26	9	2527.573	5253.352	-1768.809	1	5543.139	-18.60843	3.221596E-009	0.0073373	7
	27	9	1976.103	5361.547	-2138.037	1	5772.122	-21.74075	3.124887E-008	0.0072787	7
	28	10	1577.524	5473.283	-2531.759	1	6030.475	-24.82369	5.633822E-008	0.0072766	7
	29	10	1265.625	5604.263	-3045.713	1	6378.411	-28.52247	-2.558558E-008	0.007348	7
	30	10	998.264	5774.92	-3699.656	1	6858.364	-32.64533	-3.386713E-008	0.0073515	7
	31	10	796.875	5965.318	-4455.326	1	7445.465	-36.755	-3.26973E-008	0.0073571	7
	32	11	627.7902	6208.586	-5434.556	1	8251.117	-41.1966	-3.306199E-008	0.0073537	7
	33	11	505.5147	6479.011	-6517.772	1	9190.154	-45.17088	5.651532E-008	0.0072739	7
	34	11	397.9953	6840.116	-7963.143	1	10497.56	-49.33835	5.615713E-010	0.0073277	6
	35	12	315.5048	7266.387	-9685.26	1	12108.04	-53.12085	5.185061E-010	0.0073262	6
	36	12	252.4038	7763.578	-11693.81	1	14036.32	-56.41962	4.958437E-010	0.0073237	6
	37	12	198.6229	8413.023	-14319.35	1	16607.91	-59.56456	8.597637E-010	0.0073244	6
	38	13	158.3615	9161.003	-17349.77	1	19619.85	-62.16511	5.823566E-010	0.0073175	6
	39	13	125.558	10098.2	-21124.45	1	23414.02	-64.45063	4.551373E-010	0.0073252	6
	40	13	100.4464	11189.68	-25534.58	1	27878.73	-66.33615	4.990895E-010	0.0073196	6
	41	14	79.00281	12685.53	-31365.39	1	33833.57	-67.97945	6.099364E-010	0.0073136	6
	42	14	63.3446	14227.43	-37922.29	1	40503.33	-69.43526	5.941541E-010	0.0073141	6
	43	14	49.86702	16571.15	-46433.27	1	49301.64	-70.35949	2.216123E-010	0.0073125	6
	44	15	39.72458	19504.34	-56425.54	1	59701.43	-70.93151	6.558587E-010	0.0073177	6
	45	15	31.6723	23112.61	-68420.85	1	72219.15	-71.335	6.795066E-010	0.007315	6
	46	15	24.93351	28253	-83707.31	1	88346.74	-71.34937	1.006552E-010	0.0073126	6
	47	16	19.86229	34616.18	-101159.3	1	106918.1	-71.10933	-6.521098E-010	0.0073154	5
	48	16	15.83615	42247.2	-121483.8	1	128620.2	-70.82438	1.564664E-011	0.0073111	5
	49	16	12.40079	54415.95	-148718.6	1	158361.3	-69.90249	-1.582156E-010	0.0073169	5
	50	16	9.93114	68660.29	-175887	1	188813.4	-68.67603	-6.569192E-010	0.0073108	5
	51	17	7.944915	87162.75	-207409.3	1	224979.9	-67.20566	1.103365E-010	0.0073073	5
	52	17	6.317385	109089.7	-245271.7	1	268437.6	-66.0219	-3.436399E-010	0.0073278	5
	53	18	5.008013	138143.1	-287574.3	1	319033.7	-64.34161	-1.059619E-010	0.0073192	5
	54	19	3.945707	173786.2	-335128.3	1	377508.5	-62.59027	-9.744214E-011	0.0073019	5
	55	20	3.158693	213780.2	-384996.7	1	440368.6	-60.95755	4.475122E-011	0.007298	5
	56	22	2.504006	261939.5	-441064.7	1	512981.8	-59.29477	1.327856E-010	0.0073034	5
	57	23	1.998082	315404	-499505.8	1	590750.2	-57.73037	-7.080316E-011	0.0072657	5
	58	25	1.584686	376009.9	-567102.1	1	680432.4	-56.45414	-8.347287E-011	0.0072664	5
	59	27	1.266892	440560	-637434.9	1	774865.4	-55.3499	-3.088132E-011	0.0072929	5
	60	29	0.999041	516284.4	-720933.7	1	886732.8	-54.3923	-1.954281E-011	0.0073262	5
