EXPLAIN
TAG	EISPOT
TITLE	LABEL	Potentiostatic EIS	Test &Identifier
DATE	LABEL	3/19/2020	Date
TIME	LABEL	21:05:54	Time
NOTES	NOTES	1	&Notes...
	
PSTAT	PSTAT	REF600-11020	Potentiostat
VDC	POTEN	0.00000E+000	T	DC &Voltage (V)
FREQINIT	QUANT	1.00000E+006	Initial Fre&q. (Hz)
FREQFINAL	QUANT	1.00000E+000	Final Fre&q. (Hz)
PTSPERDEC	QUANT	1.00000E+001	Points/&decade
VAC	QUANT	2.50000E+001	AC &Voltage (mV rms)
AREA	QUANT	4.00000E-004	&Area (cm^2)
CONDIT	TWOPARAM	F	5.00000E+000	0.00000E+000	Conditionin&g	Time(s)	E(V)
DELAY	TWOPARAM	T	3.00000E+000	0.00000E+000	Init. De&lay	Time(s)	Stab.(mV/s)
SPEED	SELECTOR	0	&Optimize for:
ZGUESS	QUANT	1.00000E+003	E&stimated Z (ohms)
OCVCURVE	TABLE	12
	Pt	T	Vf	Vm	Ach	Over
	#	s	V vs. Ref.	V	V	bits
	0	0.258333	1.15865E-003	1.15865E-003	5.71130E-004	...........
	1	0.516667	1.16041E-003	1.25070E-003	5.68263E-004	...........
	2	0.775	1.17125E-003	1.34018E-003	5.64063E-004	...........
	3	1.03333	1.20236E-003	1.44188E-003	5.69163E-004	...........
	4	1.29167	1.25967E-003	1.54209E-003	5.71230E-004	...........
	5	1.55	1.33951E-003	1.64920E-003	5.75863E-004	...........
	6	1.80833	1.43356E-003	1.74604E-003	5.72763E-004	...........
	7	2.06667	1.53434E-003	1.85345E-003	5.68563E-004	...........
	8	2.325	1.63730E-003	1.95418E-003	5.75363E-004	...........
	9	2.58333	1.74049E-003	2.05354E-003	5.76030E-004	...........
	10	2.84167	1.84311E-003	2.15019E-003	5.71330E-004	...........
	11	3.1	1.94446E-003	2.24674E-003	5.66730E-004	...........
EOC	QUANT	0.0019445	Open Circuit (V)
PSTATMODEL	IQUANT	4	Pstat Model
PSTATSECTION	LABEL	REF600-11020	Pstat Section
PSTATSERIALNO	LABEL	11020	Pstat Serial Number
CTRLMODE	IQUANT	1	Control Mode
IESTAB	IQUANT	0	I/E Stability
CASPEED	IQUANT	1	Control Amp Speed
CONVENTION	IQUANT	1	Current Convention
ICHRANGE	IQUANT	2	Ich Range
ICHRANGEMODE	TOGGLE	F	Ich Auto Range
ICHOFFSETENABLE	TOGGLE	T	Ich Offset Enable
ICHOFFSET	QUANT	0	Ich Offset (V)
ICHFILTER	IQUANT	3	Ich Filter
VCHRANGE	IQUANT	2	Vch Range
VCHRANGEMODE	TOGGLE	F	Vch Auto Range
VCHOFFSETENABLE	TOGGLE	T	Vch Offset Enable
VCHOFFSET	QUANT	0	Vch Offset (V)
VCHFILTER	IQUANT	3	Vch Filter
ACHRANGE	IQUANT	2	Ach Range
ACHOFFSETENABLE	TOGGLE	F	Ach Offset Enable
ACHOFFSET	QUANT	0	Ach Offset (V)
ACHFILTER	IQUANT	3	Ach Filter
IERANGELOWERLIMIT	IQUANT	1	I/E Range Lower Limit
IERANGEMODE	TOGGLE	F	I/E AutoRange
IERANGE	IQUANT	6	I/E Range
POSFEEDENABLE	TOGGLE	F	Positive Feedback IR Comp
POSFEEDRESISTANCE	QUANT	0	Positive Feedback Resistance (ohm)
ACHSELECT	IQUANT	0	Ach Select
CABLEID	IQUANT	14	Cable ID
DCCALDATE	LABEL	2/27/2020	DC Calibration Date
ACCALDATE	LABEL	2/27/2020	AC Calibration Date
THERMOSELECT	IQUANT	1	Thermo Select
FRAMEWORKVERSION	QUANT	6.33	Framework Version
INSTRUMENTVERSION	LABEL	3.50	Instrument Version
ZCURVE	TABLE
	Pt	Time	Freq	Zreal	Zimag	Zsig	Zmod	Zphz	Idc	Vdc	IERange
	#	s	Hz	ohm	ohm	V	ohm	°	A	V	#
	0	1	1000078	1589.683	-2228.04	1	2737.015	-54.49255	1.77437E-007	0.0044177	8
	1	1	794390.6	1896.448	-2504.957	1	3141.866	-52.87144	3.971997E-007	0.0039808	8
	2	2	630984.4	2246.899	-2797.784	1	3588.335	-51.23206	-5.737632E-008	0.0038972	8
	3	2	501234.4	2633.663	-3113.375	1	4077.902	-49.77148	9.327041E-010	0.0037912	8
	4	2	398109.4	3063.936	-3452.015	1	4615.637	-48.40841	-2.743835E-007	0.0038196	8
	5	3	316265.6	3544.256	-3814.094	1	5206.637	-47.10015	-2.544586E-007	0.0037832	8
	6	3	251203.1	4087.219	-4217.665	1	5873.164	-45.89988	2.030722E-007	0.0036483	8
	7	3	199546.9	4700.545	-4655.934	1	6616.105	-44.72682	6.125626E-007	0.0036255	8
	8	4	158578.1	5419.411	-5103.713	1	7444.32	-43.28162	-5.707711E-008	0.0036954	8
	9	4	125953.1	6331.063	-5500.096	1	8386.502	-40.9824	9.704311E-008	0.0034732	7
	10	4	100078.1	7236.786	-5930.167	1	9356.172	-39.33282	-1.99172E-009	0.003624	7
	11	4	79453.13	8295.98	-6345.424	1	10444.51	-37.41163	4.978763E-009	0.0036027	7
	12	5	63140.62	9451.601	-6659.875	1	11562.3	-35.16965	-1.854045E-009	0.003602	7
	13	5	50203.12	10705.57	-6871.955	1	12721.36	-32.69659	1.131915E-008	0.0035863	7
	14	5	39890.62	12009.97	-6914.949	1	13858.43	-29.93193	7.978706E-009	0.0035797	7
	15	6	31640.63	13327.97	-6798.158	1	14961.61	-27.02464	1.119851E-008	0.0035901	7
	16	6	25171.88	14545.56	-6504.274	1	15933.58	-24.09255	2.078012E-010	0.0035965	7
	17	6	20015.62	15667.84	-6092.424	1	16810.68	-21.24852	1.077603E-009	0.0035793	7
	18	7	15890.62	16649.11	-5595.023	1	17564.09	-18.5752	4.198559E-010	0.0035737	7
	19	7	12609.37	17596.48	-4864.013	1	18256.36	-15.45185	-5.329164E-010	0.0036496	6
	20	7	10078.13	18205.69	-4395.357	1	18728.76	-13.57305	-6.68556E-010	0.0036492	6
	21	8	8015.625	18710.5	-3973.53	1	19127.77	-11.98972	-6.13711E-010	0.0036547	6
	22	8	6328.125	19116.84	-3613.336	1	19455.33	-10.70339	9.355494E-010	0.0036373	6
	23	8	5015.625	19442.13	-3347.737	1	19728.25	-9.76994	-5.99958E-010	0.003647	6
	24	9	3984.375	19703.33	-3190.729	1	19960.01	-9.198542	-1.144876E-009	0.0036341	6
	25	9	3170.956	19932	-3134.56	1	20176.96	-8.937293	1.53344E-009	0.003604	6
	26	9	2527.573	20143.41	-3181.896	1	20393.17	-8.976395	1.255998E-010	0.0036203	6
	27	10	1976.103	20370.07	-3356.386	1	20644.73	-9.356584	-7.906064E-010	0.003644	6
	28	10	1577.524	20561.28	-3636.298	1	20880.34	-10.02916	-8.496828E-010	0.0036413	6
	29	10	1265.625	20765.49	-4024.121	1	21151.81	-10.96735	1.242456E-009	0.0035998	6
	30	11	998.264	21018.94	-4598.211	1	21516.02	-12.33992	1.082526E-009	0.0036084	6
	31	11	796.875	21279.52	-5307.345	1	21931.39	-14.00447	-1.145665E-011	0.0036401	6
	32	11	627.7902	21604.37	-6256.15	1	22491.96	-16.14985	-1.704142E-010	0.0036187	6
	33	11	505.5147	21940.05	-7332.697	1	23132.97	-18.4804	-1.539306E-009	0.0036378	6
	34	12	397.9953	22386.23	-8801.842	1	24054.43	-21.46381	-1.655141E-010	0.0036482	6
	35	12	315.5048	22917.01	-10558.39	1	25232.29	-24.7366	-1.727867E-010	0.0036469	6
	36	12	252.4038	23513.63	-12614.64	1	26683.7	-28.21275	-2.609109E-010	0.0036447	6
	37	13	198.6229	24307.04	-15309.17	1	28726.35	-32.20372	-3.181389E-010	0.0036438	6
	38	13	158.3615	25228.53	-18410.29	1	31231.68	-36.11975	-4.541237E-010	0.003643	6
	39	13	125.558	26409.61	-22258.98	1	34538.81	-40.1254	-5.254381E-010	0.0036445	6
	40	14	100.4464	27830.36	-26722.65	1	38582.76	-43.83676	-4.53234E-010	0.0036439	6
	41	14	79.00281	29750.16	-32518.15	1	44073.83	-47.54527	-4.552101E-010	0.0036421	6
	42	14	63.3446	32018.89	-38907.81	1	50388.75	-50.54758	-5.414302E-010	0.0036416	6
	43	15	49.86702	35099.57	-47234.68	1	58848.07	-53.38437	-7.805296E-010	0.0036341	6
	44	15	39.72458	38782.02	-56674.49	1	68673.45	-55.61639	-3.064436E-010	0.0036383	6
	45	15	31.6723	43465.19	-67788.34	1	80526.27	-57.33242	-2.661818E-010	0.0036333	6
	46	16	24.93351	49814.31	-81700.38	1	95689.2	-58.62852	-4.174117E-010	0.0036368	6
	47	16	19.86229	57382.68	-97124.1	1	112809	-59.42463	2.422486E-010	0.0036435	5
	48	16	15.83615	66939.18	-115012.2	1	133073.8	-59.79981	-1.630481E-009	0.0036407	5
	49	17	12.40079	80134.31	-137124	1	158822.2	-59.69828	-2.080341E-010	0.003643	5
	50	17	9.93114	94555.69	-159886	1	185753.4	-59.40017	-6.750741E-012	0.0036418	5
	51	17	7.944915	112649.8	-185658.1	1	217161	-58.75233	-1.414662E-009	0.0036409	5
	52	18	6.317385	134641.8	-215316.9	1	253948.4	-57.98147	-4.147673E-010	0.0036258	5
	53	18	5.008013	161720	-248596.2	1	296569.5	-56.95467	-5.441051E-010	0.0036358	5
	54	19	3.945707	194062.4	-285761.6	1	345427.1	-55.81934	-1.024345E-009	0.0036279	5
	55	20	3.158693	229645.3	-323473.4	1	396701.4	-54.6277	-5.387512E-010	0.0036296	5
	56	21	2.504006	270984.8	-365941.8	1	455352.8	-53.47955	-6.707309E-010	0.0036338	5
	57	23	1.998082	316732	-410977.2	1	518865.5	-52.37927	-9.506055E-010	0.0035889	5
	58	24	1.584686	367193.3	-461625.2	1	589854.8	-51.5	-8.675504E-010	0.0036193	5
	59	26	1.266892	422427.8	-514767.8	1	665906.3	-50.62708	-7.505837E-010	0.0036566	5
	60	29	0.999041	487911.1	-579220.8	1	757333.4	-49.89063	-6.287179E-010	0.0036719	5
