EXPLAIN
TAG	EISPOT
TITLE	LABEL	Potentiostatic EIS	Test &Identifier
DATE	LABEL	1/10/2020	Date
TIME	LABEL	13:12:00	Time
NOTES	NOTES	5	&Notes...
	
	
	
	
	
PSTAT	PSTAT	REF600-11020	Potentiostat
VDC	POTEN	0.00000E+000	T	DC &Voltage (V)
FREQINIT	QUANT	1.00000E+006	Initial Fre&q. (Hz)
FREQFINAL	QUANT	1.00000E+000	Final Fre&q. (Hz)
PTSPERDEC	QUANT	1.00000E+001	Points/&decade
VAC	QUANT	2.50000E+001	AC &Voltage (mV rms)
AREA	QUANT	1.00000E-001	&Area (cm^2)
CONDIT	TWOPARAM	T	5.00000E+000	0.00000E+000	Conditionin&g	Time(s)	E(V)
DELAY	TWOPARAM	T	5.00000E+000	0.00000E+000	Init. De&lay	Time(s)	Stab.(mV/s)
SPEED	SELECTOR	0	&Optimize for:
ZGUESS	QUANT	5.00000E+002	E&stimated Z (ohms)
OCVCURVE	TABLE	19
	Pt	T	Vf	Vm	Ach	Over
	#	s	V vs. Ref.	V	V	bits
	0	0.258333	6.81056E-003	6.81056E-003	6.54046E-004	...........
	1	0.516667	6.80921E-003	6.73992E-003	6.47180E-004	...........
	2	0.775	6.80224E-003	6.74188E-003	6.47613E-004	...........
	3	1.03333	6.78634E-003	6.71455E-003	6.47146E-004	...........
	4	1.29167	6.76363E-003	6.67226E-003	6.48413E-004	...........
	5	1.55	6.73366E-003	6.43670E-003	6.47313E-004	...........
	6	1.80833	6.68773E-003	6.56898E-003	6.49046E-004	...........
	7	2.06667	6.62959E-003	6.64095E-003	6.48980E-004	...........
	8	2.325	6.59003E-003	6.78360E-003	6.51980E-004	...........
	9	2.58333	6.59879E-003	6.81797E-003	6.47880E-004	...........
	10	2.84167	6.65297E-003	6.82711E-003	6.49613E-004	...........
	11	3.1	6.72344E-003	6.84894E-003	6.54013E-004	...........
	12	3.35833	6.78360E-003	6.90330E-003	6.54113E-004	...........
	13	3.61667	6.82716E-003	6.92620E-003	6.55079E-004	...........
	14	3.875	6.86208E-003	6.98691E-003	6.54113E-004	...........
	15	4.13333	6.89642E-003	6.99778E-003	6.52913E-004	...........
	16	4.39167	6.93275E-003	7.06169E-003	6.57180E-004	...........
	17	4.65	6.97035E-003	7.07634E-003	6.48713E-004	...........
	18	4.90833	7.00845E-003	7.14178E-003	6.45713E-004	...........
EOC	QUANT	0.0070085	Open Circuit (V)
PSTATMODEL	IQUANT	4	Pstat Model
PSTATSECTION	LABEL	REF600-11020	Pstat Section
PSTATSERIALNO	LABEL	11020	Pstat Serial Number
CTRLMODE	IQUANT	1	Control Mode
IESTAB	IQUANT	0	I/E Stability
CASPEED	IQUANT	1	Control Amp Speed
CONVENTION	IQUANT	1	Current Convention
ICHRANGE	IQUANT	2	Ich Range
ICHRANGEMODE	TOGGLE	F	Ich Auto Range
ICHOFFSETENABLE	TOGGLE	T	Ich Offset Enable
ICHOFFSET	QUANT	0	Ich Offset (V)
ICHFILTER	IQUANT	3	Ich Filter
VCHRANGE	IQUANT	2	Vch Range
VCHRANGEMODE	TOGGLE	F	Vch Auto Range
VCHOFFSETENABLE	TOGGLE	T	Vch Offset Enable
VCHOFFSET	QUANT	0	Vch Offset (V)
VCHFILTER	IQUANT	3	Vch Filter
ACHRANGE	IQUANT	2	Ach Range
ACHOFFSETENABLE	TOGGLE	F	Ach Offset Enable
ACHOFFSET	QUANT	0	Ach Offset (V)
ACHFILTER	IQUANT	3	Ach Filter
IERANGELOWERLIMIT	IQUANT	1	I/E Range Lower Limit
IERANGEMODE	TOGGLE	F	I/E AutoRange
IERANGE	IQUANT	7	I/E Range
POSFEEDENABLE	TOGGLE	F	Positive Feedback IR Comp
POSFEEDRESISTANCE	QUANT	0	Positive Feedback Resistance (ohm)
ACHSELECT	IQUANT	0	Ach Select
CABLEID	IQUANT	14	Cable ID
DCCALDATE	LABEL	12/22/2019	DC Calibration Date
ACCALDATE	LABEL	12/22/2019	AC Calibration Date
THERMOSELECT	IQUANT	1	Thermo Select
FRAMEWORKVERSION	QUANT	6.33	Framework Version
INSTRUMENTVERSION	LABEL	3.50	Instrument Version
ZCURVE	TABLE
	Pt	Time	Freq	Zreal	Zimag	Zsig	Zmod	Zphz	Idc	Vdc	IERange
	#	s	Hz	ohm	ohm	V	ohm	°	A	V	#
	0	1	1000078	2300.391	-1749.896	1	2890.317	-37.26006	2.542514E-007	0.0090313	8
	1	2	794390.6	2664.154	-1685.882	1	3152.763	-32.32572	-4.059752E-006	0.0096504	8
	2	2	630984.4	2980.82	-1591.778	1	3379.208	-28.10252	-6.15796E-007	0.0090639	8
	3	2	501234.4	3241.53	-1456.971	1	3553.91	-24.20249	5.349941E-007	0.0086194	8
	4	3	398109.4	3473.605	-1301.806	1	3709.532	-20.54453	-3.967405E-007	0.0086721	8
	5	3	316265.6	3651.368	-1168.671	1	3833.833	-17.748	-1.664126E-006	0.0090274	8
	6	3	251203.1	3795.845	-1020.164	1	3930.544	-15.04323	-1.236104E-006	0.008862	8
	7	4	199546.9	3916.655	-904.6428	1	4019.771	-13.00572	9.218076E-007	0.0083915	8
	8	4	158578.1	4001.055	-813.3492	1	4082.889	-11.49072	2.944516E-006	0.008086	8
	9	4	125953.1	4089.387	-711.1551	1	4150.762	-9.86523	7.421004E-007	0.0073376	7
	10	4	100078.1	4141.663	-657.3568	1	4193.505	-9.018648	3.135639E-009	0.008609	7
	11	5	79453.13	4196.759	-628.1649	1	4243.51	-8.512753	6.943839E-008	0.00846	7
	12	5	63140.62	4250.357	-615.8665	1	4294.745	-8.244639	-3.86982E-008	0.0086394	7
	13	5	50203.12	4302.152	-620.2516	1	4346.634	-8.20394	-2.698408E-008	0.008612	7
	14	6	39890.62	4356.212	-637.5693	1	4402.622	-8.326614	2.272421E-008	0.0085032	7
	15	6	31640.63	4413.575	-674.4051	1	4464.803	-8.687736	1.202278E-008	0.0085773	7
	16	6	25171.88	4474.412	-724.6738	1	4532.716	-9.199716	-3.930763E-008	0.0086372	7
	17	7	20015.62	4543.336	-793.306	1	4612.075	-9.90449	6.813825E-008	0.0084535	7
	18	7	15890.62	4619.415	-881.5349	1	4702.776	-10.804	-1.864545E-008	0.0086258	7
	19	7	12609.37	4706.718	-988.502	1	4809.4	-11.86085	-2.615742E-008	0.0085957	7
	20	8	10078.13	4800.177	-1107.981	1	4926.391	-12.99742	-1.287748E-008	0.0086591	7
	21	8	8015.625	4907.062	-1255.163	1	5065.046	-14.34789	4.464912E-008	0.0084475	7
	22	8	6328.125	5035.901	-1439.194	1	5237.517	-15.94923	2.995007E-009	0.008587	7
	23	9	5015.625	5176.208	-1648.724	1	5432.442	-17.6677	2.406976E-008	0.0084994	7
	24	9	3984.375	5335.996	-1897.924	1	5663.477	-19.57962	-1.892516E-008	0.0086201	7
	25	9	3170.956	5506.678	-2180.102	1	5922.529	-21.59869	-1.265714E-008	0.0086553	7
	26	10	2527.573	5696.159	-2512.381	1	6225.615	-23.80063	4.506233E-008	0.0084447	7
	27	10	1976.103	5929.708	-2945.805	1	6621.119	-26.41761	-1.154723E-008	0.0086571	7
	28	10	1577.524	6149.217	-3416.743	1	7034.7	-29.05824	-5.641918E-009	0.0086184	7
	29	11	1265.625	6431.34	-3954.133	1	7549.656	-31.58414	5.958105E-008	0.0084583	7
	30	11	998.264	6752.021	-4655.812	1	8201.607	-34.58795	3.25749E-008	0.0085912	7
	31	11	796.875	7082.286	-5459.863	1	8942.532	-37.62928	5.611187E-009	0.0085886	7
	32	11	627.7902	7488.393	-6471.682	1	9897.41	-40.83451	-2.631273E-009	0.0085988	6
	33	12	505.5147	7898.546	-7590.137	1	10954.32	-43.85928	-2.905837E-009	0.0085477	6
	34	12	397.9953	8408.572	-9080.097	1	12375.47	-47.19894	9.147357E-010	0.0085694	6
	35	12	315.5048	8981.412	-10846.33	1	14082.21	-50.37321	4.116221E-010	0.008568	6
	36	13	252.4038	9618.43	-12911.03	1	16099.97	-53.3147	1.172304E-009	0.0085655	6
	37	13	198.6229	10410.22	-15615.75	1	18767.64	-56.31064	6.794671E-010	0.0085672	6
	38	13	158.3615	11322.74	-18736.69	1	21892.19	-58.85507	6.707615E-010	0.0085639	6
	39	14	125.558	12417.87	-22640.16	1	25822.09	-61.25573	5.678308E-010	0.0085672	6
	40	14	100.4464	13691.19	-27150.62	1	30407.32	-63.23965	-1.867106E-010	0.0085646	6
	41	14	79.00281	15436.7	-33091.86	1	36515.24	-64.99187	3.026047E-010	0.0085653	6
	42	15	63.3446	16949.01	-40044.27	1	43483.47	-67.05916	8.53877E-010	0.0085602	6
	43	15	49.86702	19476.68	-48673.26	1	52425.45	-68.1911	9.275674E-010	0.0085632	6
	44	16	39.72458	22718.63	-58596.82	1	62846.82	-68.80814	5.046655E-010	0.0085637	6
	45	16	31.6723	26405.05	-70636.36	1	75410.36	-69.50342	2.743892E-010	0.0085599	6
	46	16	24.93351	31052.91	-86183.57	1	91607.27	-70.18533	4.653892E-010	0.0085566	6
	47	16	19.86229	36768.85	-104325.4	1	110615.3	-70.5853	-7.027384E-010	0.0085595	5
	48	17	15.83615	43418.35	-124549.2	1	131900.2	-70.78124	-7.727031E-010	0.0085592	5
	49	17	12.40079	53770.69	-153103.4	1	162271.2	-70.64847	6.323603E-010	0.0085632	5
	50	17	9.93114	66887.34	-184462.4	1	196214.9	-70.06901	2.12743E-010	0.0085587	5
	51	18	7.944915	82313.86	-220970.4	1	235803.9	-69.56909	-3.727113E-010	0.0085668	5
	52	19	6.317385	103854.2	-263171.6	1	282922.2	-68.46455	-7.470125E-011	0.0085654	5
	53	19	5.008013	131925.2	-313848	1	340448	-67.20068	9.845969E-011	0.008558	5
	54	20	3.945707	169002.5	-372833	1	409348.6	-65.61555	-8.176217E-011	0.0085474	5
	55	22	3.158693	212801.8	-435104.7	1	484356	-63.93758	7.418934E-011	0.0085449	5
	56	23	2.504006	268963.4	-506056.5	1	573092.1	-62.00985	1.378587E-010	0.0085508	5
	57	25	1.998082	334908.4	-579086.1	1	668957.7	-59.95751	-6.863629E-011	0.0085019	5
	58	26	1.584686	412465.2	-659817.3	1	778130	-57.98966	-8.166998E-011	0.0085158	5
	59	28	1.266892	498850.1	-739314.8	1	891873.2	-55.99063	-2.361059E-011	0.0085565	5
	60	31	0.999041	604297.7	-829163.6	1	1026006	-53.91529	4.20266E-012	0.0086201	4
