EXPLAIN
TAG	EISPOT
TITLE	LABEL	Potentiostatic EIS	Test &Identifier
DATE	LABEL	2/28/2020	Date
TIME	LABEL	16:42:45	Time
NOTES	NOTES	1	&Notes...
	
PSTAT	PSTAT	REF600-11020	Potentiostat
VDC	POTEN	0.00000E+000	T	DC &Voltage (V)
FREQINIT	QUANT	1.00000E+006	Initial Fre&q. (Hz)
FREQFINAL	QUANT	1.00000E+000	Final Fre&q. (Hz)
PTSPERDEC	QUANT	1.00000E+001	Points/&decade
VAC	QUANT	2.50000E+001	AC &Voltage (mV rms)
AREA	QUANT	1.60000E-004	&Area (cm^2)
CONDIT	TWOPARAM	F	1.50000E+001	0.00000E+000	Conditionin&g	Time(s)	E(V)
DELAY	TWOPARAM	F	1.00000E+002	0.00000E+000	Init. De&lay	Time(s)	Stab.(mV/s)
SPEED	SELECTOR	1	&Optimize for:
ZGUESS	QUANT	1.00000E+003	E&stimated Z (ohms)
OCVCURVE	TABLE	39
	Pt	T	Vf	Vm	Ach	Over
	#	s	V vs. Ref.	V	V	bits
	0	0.258333	-1.03323E-001	-1.03323E-001	5.90196E-004	...........
	1	0.516667	-1.03325E-001	-1.03465E-001	5.89296E-004	...........
	2	0.775	-1.03337E-001	-1.03325E-001	5.87863E-004	...........
	3	1.03333	-1.03354E-001	-1.03325E-001	5.87496E-004	...........
	4	1.29167	-1.03359E-001	-1.03107E-001	5.89696E-004	...........
	5	1.55	-1.03331E-001	-1.03182E-001	5.91463E-004	...........
	6	1.80833	-1.03278E-001	-1.03229E-001	5.91796E-004	...........
	7	2.06667	-1.03228E-001	-1.03236E-001	5.89563E-004	...........
	8	2.325	-1.03206E-001	-1.03262E-001	5.92296E-004	...........
	9	2.58333	-1.03215E-001	-1.03416E-001	5.85896E-004	...........
	10	2.84167	-1.03249E-001	-1.03465E-001	5.89996E-004	...........
	11	3.1	-1.03308E-001	-1.03663E-001	5.90396E-004	...........
	12	3.35833	-1.03400E-001	-1.04096E-001	5.91930E-004	...........
	13	3.61667	-1.03541E-001	-1.04153E-001	5.94396E-004	...........
	14	3.875	-1.03728E-001	-1.04190E-001	5.93663E-004	...........
	15	4.13333	-1.03922E-001	-1.04233E-001	5.93130E-004	...........
	16	4.39167	-1.04075E-001	-1.04246E-001	5.92030E-004	...........
	17	4.65	-1.04167E-001	-1.04120E-001	5.90563E-004	...........
	18	4.90833	-1.04202E-001	-1.04021E-001	5.94096E-004	...........
	19	5.16667	-1.04185E-001	-1.04001E-001	5.99730E-004	...........
	20	5.425	-1.04135E-001	-1.04097E-001	5.92896E-004	...........
	21	5.68333	-1.04084E-001	-1.04003E-001	5.90230E-004	...........
	22	5.94167	-1.04049E-001	-1.03883E-001	5.96230E-004	...........
	23	6.2	-1.04019E-001	-1.03773E-001	5.94230E-004	...........
	24	6.45833	-1.03969E-001	-1.03766E-001	5.93330E-004	...........
	25	6.71667	-1.03901E-001	-1.03793E-001	5.92896E-004	...........
	26	6.975	-1.03839E-001	-1.03832E-001	5.93830E-004	...........
	27	7.23333	-1.03806E-001	-1.03862E-001	5.93896E-004	...........
	28	7.49167	-1.03804E-001	-1.03868E-001	5.92930E-004	...........
	29	7.75	-1.03825E-001	-1.04068E-001	5.97263E-004	...........
	30	8.00833	-1.03865E-001	-1.03994E-001	5.92730E-004	...........
	31	8.26667	-1.03912E-001	-1.03741E-001	5.95663E-004	...........
	32	8.525	-1.03934E-001	-1.03733E-001	5.91596E-004	...........
	33	8.78333	-1.03905E-001	-1.03798E-001	5.92896E-004	...........
	34	9.04167	-1.03848E-001	-1.03824E-001	5.92096E-004	...........
	35	9.3	-1.03806E-001	-1.03835E-001	5.94930E-004	...........
	36	9.5583	-1.03796E-001	-1.03856E-001	5.89930E-004	...........
	37	9.8167	-1.03810E-001	-1.03882E-001	5.95363E-004	...........
	38	10.075	-1.03833E-001	-1.03969E-001	5.90096E-004	...........
EOC	QUANT	-0.1038331	Open Circuit (V)
PSTATMODEL	IQUANT	4	Pstat Model
PSTATSECTION	LABEL	REF600-11020	Pstat Section
PSTATSERIALNO	LABEL	11020	Pstat Serial Number
CTRLMODE	IQUANT	1	Control Mode
IESTAB	IQUANT	0	I/E Stability
CASPEED	IQUANT	1	Control Amp Speed
CONVENTION	IQUANT	1	Current Convention
ICHRANGE	IQUANT	2	Ich Range
ICHRANGEMODE	TOGGLE	F	Ich Auto Range
ICHOFFSETENABLE	TOGGLE	T	Ich Offset Enable
ICHOFFSET	QUANT	0	Ich Offset (V)
ICHFILTER	IQUANT	3	Ich Filter
VCHRANGE	IQUANT	2	Vch Range
VCHRANGEMODE	TOGGLE	F	Vch Auto Range
VCHOFFSETENABLE	TOGGLE	T	Vch Offset Enable
VCHOFFSET	QUANT	0	Vch Offset (V)
VCHFILTER	IQUANT	3	Vch Filter
ACHRANGE	IQUANT	2	Ach Range
ACHOFFSETENABLE	TOGGLE	F	Ach Offset Enable
ACHOFFSET	QUANT	0	Ach Offset (V)
ACHFILTER	IQUANT	3	Ach Filter
IERANGELOWERLIMIT	IQUANT	1	I/E Range Lower Limit
IERANGEMODE	TOGGLE	F	I/E AutoRange
IERANGE	IQUANT	8	I/E Range
POSFEEDENABLE	TOGGLE	F	Positive Feedback IR Comp
POSFEEDRESISTANCE	QUANT	0	Positive Feedback Resistance (ohm)
ACHSELECT	IQUANT	0	Ach Select
CABLEID	IQUANT	14	Cable ID
DCCALDATE	LABEL	2/27/2020	DC Calibration Date
ACCALDATE	LABEL	2/27/2020	AC Calibration Date
THERMOSELECT	IQUANT	1	Thermo Select
FRAMEWORKVERSION	QUANT	6.33	Framework Version
INSTRUMENTVERSION	LABEL	3.50	Instrument Version
ZCURVE	TABLE
	Pt	Time	Freq	Zreal	Zimag	Zsig	Zmod	Zphz	Idc	Vdc	IERange
	#	s	Hz	ohm	ohm	V	ohm	°	A	V	#
	0	1	1000078	2163.715	-1997.492	1	2944.765	-42.71249	3.204433E-006	-0.1017864	8
	1	2	794390.6	2515.94	-2060.075	1	3251.747	-39.31094	1.477558E-006	-0.1021101	8
	2	4	630984.4	2846.248	-2127.677	1	3553.609	-36.7795	1.561993E-006	-0.1022421	8
	3	5	501234.4	3170.984	-2164.336	1	3839.205	-34.31525	-1.222731E-006	-0.1017302	8
	4	6	398109.4	3475.26	-2242.19	1	4135.801	-32.82956	6.025603E-008	-0.1020584	8
	5	8	316265.6	3810.37	-2288.679	1	4444.881	-30.99091	-7.883971E-007	-0.1019673	8
	6	9	251203.1	4146.862	-2375.455	1	4779.043	-29.80546	-2.136204E-006	-0.1017163	8
	7	11	199546.9	4537.523	-2497.434	1	5179.41	-28.82821	-2.080625E-006	-0.1017206	8
	8	12	158578.1	4929.047	-2561.85	1	5555.05	-27.46295	-2.933201E-007	-0.1019634	8
	9	13	125953.1	5410.761	-2556.112	1	5984.149	-25.28665	-1.051928E-009	-0.1022023	7
	10	15	100078.1	5858.665	-2577.489	1	6400.578	-23.74684	5.413831E-009	-0.1021519	7
	11	16	79453.13	6323.736	-2550.106	1	6818.554	-21.96222	-1.506817E-009	-0.1021863	7
	12	18	63140.62	6767.882	-2475.508	1	7206.412	-20.09115	-4.07531E-008	-0.1021316	7
	13	19	50203.12	7176.058	-2362.667	1	7554.999	-18.22377	1.443505E-008	-0.1021448	7
	14	20	39890.62	7541.787	-2223.645	1	7862.77	-16.4278	2.544125E-008	-0.1022374	7
	15	22	31640.63	7860.712	-2081.917	1	8131.739	-14.83425	1.550332E-008	-0.1021424	7
	16	23	25171.88	8129.007	-1942.737	1	8357.93	-13.4409	2.601881E-008	-0.1022402	7
	17	24	20015.62	8358.81	-1830.201	1	8556.83	-12.35028	-1.958025E-011	-0.1021877	7
	18	26	15890.62	8564.012	-1737.717	1	8738.533	-11.47012	4.861892E-008	-0.1023206	7
	19	27	12609.37	8729.839	-1685.286	1	8891.022	-10.92647	-2.566839E-008	-0.1021745	7
	20	28	10078.13	8919.718	-1595.063	1	9061.214	-10.13871	-9.502791E-009	-0.1020734	6
	21	30	8015.625	9062.912	-1628.676	1	9208.092	-10.18776	6.804763E-009	-0.1021909	6
	22	31	6328.125	9212.028	-1704.558	1	9368.403	-10.48322	9.730901E-009	-0.1022922	6
	23	32	5015.625	9360.258	-1825.161	1	9536.54	-11.03368	-3.66049E-009	-0.1021621	6
	24	34	3984.375	9509.67	-1992.558	1	9716.18	-11.83396	2.241222E-009	-0.1021444	6
	25	35	3170.956	9679.75	-2212.425	1	9929.37	-12.8745	-4.005841E-009	-0.1022098	6
	26	36	2527.573	9857.12	-2491.229	1	10167.06	-14.18358	4.326886E-011	-0.1022207	6
	27	38	1976.103	10062.89	-2859.482	1	10461.28	-15.86308	3.768582E-009	-0.1023041	6
	28	39	1577.524	10284.09	-3291.916	1	10798.11	-17.74977	3.328058E-009	-0.1021413	6
	29	40	1265.625	10522.8	-3793.9	1	11185.84	-19.82631	-2.439401E-009	-0.102084	6
	30	42	998.264	10821.54	-4455.167	1	11702.75	-22.37668	1.169517E-008	-0.1023979	6
	31	43	796.875	11141.93	-5218.032	1	12303.27	-25.09481	-9.273192E-010	-0.1022261	6
	32	45	627.7902	11537.07	-6191.209	1	13093.32	-28.21962	-5.35886E-010	-0.1020756	6
	33	46	505.5147	11953.93	-7257.319	1	13984.46	-31.26224	-5.561204E-009	-0.102138	6
	34	47	397.9953	12484.75	-8673.199	1	15201.75	-34.78785	-6.01416E-011	-0.1021537	6
	35	49	315.5048	13098.09	-10328.9	1	16680.71	-38.25864	4.46642E-010	-0.1021474	6
	36	50	252.4038	13786.77	-12235.65	1	18433.29	-41.58879	4.886549E-011	-0.1021578	6
	37	51	198.6229	14652.83	-14708.17	1	20761.4	-45.10799	-1.056449E-010	-0.1021515	6
	38	53	158.3615	15614.52	-17542.63	1	23485.25	-48.32803	-6.709121E-010	-0.1021532	6
	39	54	125.558	16776.7	-21052.09	1	26919.29	-51.44818	1.616284E-010	-0.1021551	6
	40	55	100.4464	18135.53	-25146.48	1	31003.92	-54.20102	3.874986E-010	-0.1021573	6
	41	57	79.00281	19940.93	-30499.36	1	36439.7	-56.82275	-5.356831E-010	-0.1021617	6
	42	58	63.3446	22038.05	-36278.2	1	42447.43	-58.72242	-6.573385E-011	-0.1021603	6
	43	60	49.86702	24768.59	-44329.85	1	50780.11	-60.80642	7.575673E-010	-0.1021599	6
	44	61	39.72458	28066.78	-53060.63	1	60026.45	-62.1231	-2.765551E-010	-0.1021574	6
	45	62	31.6723	32364.89	-63593.49	1	71355.58	-63.02691	7.698175E-010	-0.1021605	6
	46	64	24.93351	38014.39	-76500.82	1	85425.23	-63.57653	-5.735875E-010	-0.1021583	6
	47	65	19.86229	44833.27	-91048.43	1	101488.1	-63.78385	5.47739E-011	-0.1021621	6
	48	66	15.83615	53161.89	-108233.1	1	120584.4	-63.84068	-1.291245E-009	-0.1021531	5
	49	68	12.40079	64825.4	-128982.8	1	144356.8	-63.31637	-1.149631E-009	-0.1021452	5
	50	69	9.93114	77075.93	-151718.3	1	170173.9	-63.06852	3.711985E-013	-0.1021464	5
	51	71	7.944915	92741.73	-177315	1	200104	-62.38891	6.576185E-010	-0.1021474	5
	52	72	6.317385	112425.5	-207444.9	1	235951	-61.54436	1.106535E-010	-0.102141	5
	53	74	5.008013	136698.1	-241834.5	1	277795.4	-60.52248	3.151132E-010	-0.1021423	5
	54	77	3.945707	166512.9	-281025.4	1	326652.4	-59.35246	-5.834287E-011	-0.1021518	5
	55	79	3.158693	200184.9	-321470	1	378704.3	-58.08877	4.21861E-010	-0.1021387	5
	56	83	2.504006	240280	-367931.4	1	439440.5	-56.85319	-4.57637E-010	-0.1021527	5
	57	85	1.998082	285453.1	-415192.1	1	503853.1	-55.49068	-3.293669E-010	-0.1021868	5
	58	88	1.584686	335118.9	-468054.4	1	575655.9	-54.39799	7.16246E-011	-0.1021407	5
	59	92	1.266892	389885	-525439.7	1	654291.4	-53.42397	-7.312807E-011	-0.1021968	5
	60	96	0.999041	450548.6	-592727.1	1	744526.4	-52.76051	1.52502E-010	-0.1021128	5
