EXPLAIN
TAG	EISPOT
TITLE	LABEL	Potentiostatic EIS	Test &Identifier
DATE	LABEL	1/14/2020	Date
TIME	LABEL	17:23:10	Time
NOTES	NOTES	5	&Notes...
	
	
	
	
	
PSTAT	PSTAT	REF600-11020	Potentiostat
VDC	POTEN	0.00000E+000	T	DC &Voltage (V)
FREQINIT	QUANT	1.00000E+006	Initial Fre&q. (Hz)
FREQFINAL	QUANT	1.00000E+000	Final Fre&q. (Hz)
PTSPERDEC	QUANT	1.00000E+001	Points/&decade
VAC	QUANT	2.50000E+001	AC &Voltage (mV rms)
AREA	QUANT	1.00000E-001	&Area (cm^2)
CONDIT	TWOPARAM	T	5.00000E+000	0.00000E+000	Conditionin&g	Time(s)	E(V)
DELAY	TWOPARAM	T	5.00000E+000	0.00000E+000	Init. De&lay	Time(s)	Stab.(mV/s)
SPEED	SELECTOR	0	&Optimize for:
ZGUESS	QUANT	5.00000E+002	E&stimated Z (ohms)
OCVCURVE	TABLE	19
	Pt	T	Vf	Vm	Ach	Over
	#	s	V vs. Ref.	V	V	bits
	0	0.258333	4.97659E-003	4.97659E-003	5.86847E-004	...........
	1	0.516667	4.96881E-003	4.56914E-003	5.85914E-004	...........
	2	0.775	4.92186E-003	4.22731E-003	5.79981E-004	...........
	3	1.03333	4.79259E-003	3.93756E-003	5.84547E-004	...........
	4	1.29167	4.57068E-003	3.69668E-003	5.82681E-004	...........
	5	1.55	4.29310E-003	3.50052E-003	5.86414E-004	...........
	6	1.80833	4.01053E-003	3.32211E-003	5.78481E-004	...........
	7	2.06667	3.75541E-003	3.16584E-003	5.84847E-004	...........
	8	2.325	3.53669E-003	3.01867E-003	5.87214E-004	...........
	9	2.58333	3.34946E-003	2.88356E-003	5.83114E-004	...........
	10	2.84167	3.18530E-003	2.76551E-003	5.79814E-004	...........
	11	3.1	3.03759E-003	2.64052E-003	5.84414E-004	...........
	12	3.35833	2.90234E-003	2.54730E-003	5.85914E-004	...........
	13	3.61667	2.77742E-003	2.43602E-003	5.79347E-004	...........
	14	3.875	2.66190E-003	2.36503E-003	5.80347E-004	...........
	15	4.13333	2.55590E-003	2.28913E-003	5.85814E-004	...........
	16	4.39167	2.46033E-003	2.22300E-003	5.82514E-004	...........
	17	4.65	2.37520E-003	2.15017E-003	5.82481E-004	...........
	18	4.90833	2.29846E-003	2.09117E-003	5.79247E-004	...........
EOC	QUANT	0.0022985	Open Circuit (V)
PSTATMODEL	IQUANT	4	Pstat Model
PSTATSECTION	LABEL	REF600-11020	Pstat Section
PSTATSERIALNO	LABEL	11020	Pstat Serial Number
CTRLMODE	IQUANT	1	Control Mode
IESTAB	IQUANT	0	I/E Stability
CASPEED	IQUANT	1	Control Amp Speed
CONVENTION	IQUANT	1	Current Convention
ICHRANGE	IQUANT	2	Ich Range
ICHRANGEMODE	TOGGLE	F	Ich Auto Range
ICHOFFSETENABLE	TOGGLE	T	Ich Offset Enable
ICHOFFSET	QUANT	0	Ich Offset (V)
ICHFILTER	IQUANT	3	Ich Filter
VCHRANGE	IQUANT	2	Vch Range
VCHRANGEMODE	TOGGLE	F	Vch Auto Range
VCHOFFSETENABLE	TOGGLE	T	Vch Offset Enable
VCHOFFSET	QUANT	0	Vch Offset (V)
VCHFILTER	IQUANT	3	Vch Filter
ACHRANGE	IQUANT	2	Ach Range
ACHOFFSETENABLE	TOGGLE	F	Ach Offset Enable
ACHOFFSET	QUANT	0	Ach Offset (V)
ACHFILTER	IQUANT	3	Ach Filter
IERANGELOWERLIMIT	IQUANT	1	I/E Range Lower Limit
IERANGEMODE	TOGGLE	F	I/E AutoRange
IERANGE	IQUANT	6	I/E Range
POSFEEDENABLE	TOGGLE	F	Positive Feedback IR Comp
POSFEEDRESISTANCE	QUANT	0	Positive Feedback Resistance (ohm)
ACHSELECT	IQUANT	0	Ach Select
CABLEID	IQUANT	14	Cable ID
DCCALDATE	LABEL	12/22/2019	DC Calibration Date
ACCALDATE	LABEL	12/22/2019	AC Calibration Date
THERMOSELECT	IQUANT	1	Thermo Select
FRAMEWORKVERSION	QUANT	6.33	Framework Version
INSTRUMENTVERSION	LABEL	3.50	Instrument Version
ZCURVE	TABLE
	Pt	Time	Freq	Zreal	Zimag	Zsig	Zmod	Zphz	Idc	Vdc	IERange
	#	s	Hz	ohm	ohm	V	ohm	°	A	V	#
	0	1	1000078	2048.06	-2043.66	1	2893.285	-44.93839	8.671199E-007	0.0045588	8
	1	2	794390.6	2454.861	-2139.938	1	3256.636	-41.07914	-1.263717E-006	0.0043883	8
	2	2	630984.4	2864.242	-2196.592	1	3609.556	-37.48465	-2.386759E-006	0.0045602	8
	3	2	501234.4	3267.123	-2167.716	1	3920.853	-33.56403	4.561343E-007	0.0040208	8
	4	3	398109.4	3657.283	-2125.823	1	4230.23	-30.16762	2.94121E-008	0.0039799	8
	5	3	316265.6	3986.479	-2030.338	1	4473.733	-26.99002	1.173065E-006	0.0035953	8
	6	3	251203.1	4319.687	-1956.183	1	4741.978	-24.36354	3.087757E-007	0.0037696	8
	7	4	199546.9	4583.286	-1853.036	1	4943.708	-22.01363	6.800927E-007	0.0036986	8
	8	4	158578.1	4811.359	-1746.464	1	5118.526	-19.95027	3.263028E-006	0.0033448	8
	9	4	125953.1	5039.704	-1709.503	1	5321.75	-18.7373	-7.140081E-007	0.005459	7
	10	5	100078.1	5229.11	-1682.055	1	5492.986	-17.8315	-4.003898E-008	0.0039015	7
	11	5	79453.13	5416.769	-1675.197	1	5669.892	-17.18482	9.025378E-008	0.0037062	7
	12	5	63140.62	5597.177	-1708.189	1	5852.034	-16.97154	2.534805E-008	0.0038038	7
	13	6	50203.12	5778.854	-1770.932	1	6044.117	-17.03771	5.798532E-008	0.003715	7
	14	6	39890.62	5965.03	-1867.013	1	6250.386	-17.37976	-2.111791E-008	0.0039131	7
	15	6	31640.63	6162.279	-1996.005	1	6477.478	-17.9475	-2.27308E-008	0.0038526	7
	16	6	25171.88	6372.571	-2164.928	1	6730.273	-18.76396	-1.573969E-008	0.0038206	7
	17	7	20015.62	6603.988	-2368.319	1	7015.81	-19.72882	-2.456136E-008	0.0038417	7
	18	7	15890.62	6850.701	-2621.031	1	7334.979	-20.9365	1.817651E-008	0.0037651	7
	19	7	12609.37	7123.749	-2927.059	1	7701.654	-22.33714	-5.319672E-009	0.0038487	7
	20	8	10078.13	7421.454	-3273.317	1	8111.263	-23.80042	5.864826E-008	0.0037048	7
	21	8	8015.625	7763.987	-3685.116	1	8594.159	-25.39099	5.074297E-008	0.0038078	7
	22	8	6328.125	8147.354	-4197.674	1	9165.143	-27.2584	-1.138628E-008	0.003818	7
	23	9	5015.625	8589.654	-4774.57	1	9827.45	-29.06755	4.206473E-009	0.0036844	6
	24	9	3984.375	9070.604	-5467.311	1	10590.91	-31.07949	-5.13643E-009	0.003894	6
	25	9	3170.956	9610.63	-6262.395	1	11470.91	-33.08871	-3.151657E-009	0.0038734	6
	26	10	2527.573	10220.46	-7190.016	1	12496.17	-35.12609	5.614776E-009	0.003693	6
	27	10	1976.103	10991.21	-8376.238	1	13819.12	-37.31049	2.783324E-009	0.0037536	6
	28	10	1577.524	11819.85	-9636.64	1	15250.37	-39.1901	1.85102E-009	0.0038841	6
	29	10	1265.625	12713.98	-11100.85	1	16878.22	-41.1249	-4.098804E-009	0.0039291	6
	30	11	998.264	13856.92	-12907.45	1	18937.17	-42.96828	5.892727E-009	0.0036954	6
	31	11	796.875	15124.99	-14915.84	1	21242.59	-44.60111	-4.260694E-009	0.0039299	6
	32	11	627.7902	16685.77	-17384.45	1	24096.35	-46.17479	-3.129428E-009	0.0038625	6
	33	12	505.5147	18348.47	-19959.83	1	27112.01	-47.4086	-4.527449E-009	0.0039299	6
	34	12	397.9953	20446.95	-23240.97	1	30955.13	-48.65932	6.575962E-010	0.0038264	6
	35	12	315.5048	22834.26	-26938.33	1	35313.98	-49.71375	7.499544E-010	0.0038217	6
	36	13	252.4038	25469.25	-31043.01	1	40154.09	-50.63282	9.394751E-010	0.0038178	6
	37	13	198.6229	28744.49	-36158.8	1	46192.05	-51.51701	7.314405E-010	0.0038166	6
	38	13	158.3615	32309.1	-41778.16	1	52813.75	-52.28347	8.645575E-010	0.003823	6
	39	14	125.558	36571.27	-48482.55	1	60729.04	-52.97208	7.795065E-010	0.0038224	6
	40	14	100.4464	41307.38	-56003.22	1	69589.23	-53.58791	8.964989E-010	0.0038212	6
	41	14	79.00281	47339.98	-65396.07	1	80732.4	-54.09936	9.234585E-010	0.0038189	6
	42	15	63.3446	53025.91	-75161.24	1	91983.48	-54.79721	8.171841E-010	0.0038144	6
	43	15	49.86702	61493.58	-87110.26	1	106628.6	-54.78066	-3.106131E-010	0.0038102	5
	44	15	39.72458	70943.4	-100882.9	1	123330.2	-54.88416	2.113979E-010	0.0038162	5
	45	16	31.6723	81359	-115955.8	1	141651.1	-54.94505	2.551395E-010	0.0038144	5
	46	16	24.93351	94023.11	-134178.7	1	163842.2	-54.9799	-1.410175E-010	0.0038137	5
	47	16	19.86229	107235.6	-153990	1	187649.6	-55.14741	-3.37322E-011	0.0038158	5
	48	16	15.83615	119915.9	-176669.7	1	213522.8	-55.833	4.484752E-010	0.0038133	5
	49	17	12.40079	139423.4	-205948.7	1	248704.1	-55.90274	-7.597074E-011	0.003817	5
	50	17	9.93114	155999.7	-237519.8	1	284168.2	-56.70365	-2.960231E-010	0.0038099	5
	51	18	7.944915	175528.1	-275698.4	1	326832.9	-57.51643	-2.063747E-010	0.0038114	5
	52	18	6.317385	199061.6	-322548.6	1	379029.2	-58.3191	-1.430845E-010	0.0038284	5
	53	19	5.008013	227348.9	-380031.2	1	442844.5	-59.11055	-2.242135E-011	0.003811	5
	54	20	3.945707	261626.1	-450376.1	1	520852.1	-59.84745	4.185724E-011	0.0038003	5
	55	21	3.158693	301827	-529346.2	1	609349.6	-60.30872	1.294813E-010	0.0037969	5
	56	23	2.504006	353145.6	-625879.1	1	718635.1	-60.5666	1.707035E-010	0.0038046	5
	57	24	1.998082	415700.6	-733725.1	1	843302.7	-60.46577	5.152025E-011	0.0037594	5
	58	26	1.584686	493155.8	-863542.5	1	994439	-60.26998	6.149221E-011	0.0037594	5
	59	28	1.266892	586486.1	-1004244	1	1162959	-59.71475	5.082055E-011	0.0038348	4
	60	30	0.999041	708056.7	-1171460	1	1368818	-58.8503	5.827213E-011	0.0038621	4
