EXPLAIN
TAG	EISPOT
TITLE	LABEL	Potentiostatic EIS	Test &Identifier
DATE	LABEL	2/11/2020	Date
TIME	LABEL	12:25:22	Time
NOTES	NOTES	6	&Notes...
	
	
	
	
	
	
PSTAT	PSTAT	REF600-11020	Potentiostat
VDC	POTEN	0.00000E+000	T	DC &Voltage (V)
FREQINIT	QUANT	1.00000E+006	Initial Fre&q. (Hz)
FREQFINAL	QUANT	1.00000E+000	Final Fre&q. (Hz)
PTSPERDEC	QUANT	1.00000E+001	Points/&decade
VAC	QUANT	2.50000E+001	AC &Voltage (mV rms)
AREA	QUANT	4.00000E-005	&Area (cm^2)
CONDIT	TWOPARAM	F	5.00000E+000	0.00000E+000	Conditionin&g	Time(s)	E(V)
DELAY	TWOPARAM	F	5.00000E+000	0.00000E+000	Init. De&lay	Time(s)	Stab.(mV/s)
SPEED	SELECTOR	0	&Optimize for:
ZGUESS	QUANT	1.00000E+003	E&stimated Z (ohms)
OCVCURVE	TABLE	39
	Pt	T	Vf	Vm	Ach	Over
	#	s	V vs. Ref.	V	V	bits
	0	0.258333	7.68997E-002	7.68997E-002	5.39171E-004	...........
	1	0.516667	7.69022E-002	7.70319E-002	5.31038E-004	...........
	2	0.775	7.69170E-002	7.71200E-002	5.35071E-004	...........
	3	1.03333	7.69560E-002	7.71775E-002	5.37938E-004	...........
	4	1.29167	7.70184E-002	7.72037E-002	5.30072E-004	...........
	5	1.55	7.70871E-002	7.71733E-002	5.32938E-004	...........
	6	1.80833	7.71429E-002	7.72384E-002	5.37005E-004	...........
	7	2.06667	7.71799E-002	7.72689E-002	5.36605E-004	...........
	8	2.325	7.72069E-002	7.73005E-002	5.41138E-004	...........
	9	2.58333	7.72341E-002	7.73199E-002	5.36305E-004	...........
	10	2.84167	7.72635E-002	7.73552E-002	5.37471E-004	...........
	11	3.1	7.72933E-002	7.73886E-002	5.32471E-004	...........
	12	3.35833	7.73226E-002	7.73888E-002	5.28672E-004	...........
	13	3.61667	7.73499E-002	7.74091E-002	5.28838E-004	...........
	14	3.875	7.73732E-002	7.74316E-002	5.28538E-004	...........
	15	4.13333	7.73928E-002	7.74492E-002	5.30538E-004	...........
	16	4.39167	7.74109E-002	7.74690E-002	5.30505E-004	...........
	17	4.65	7.74292E-002	7.74841E-002	5.34738E-004	...........
	18	4.90833	7.74473E-002	7.74855E-002	5.30872E-004	...........
	19	5.16667	7.74636E-002	7.74921E-002	5.29572E-004	...........
	20	5.425	7.74765E-002	7.75075E-002	5.32771E-004	...........
	21	5.68333	7.74865E-002	7.75136E-002	5.38171E-004	...........
	22	5.94167	7.74954E-002	7.75198E-002	5.38271E-004	...........
	23	6.2	7.75040E-002	7.75292E-002	5.33238E-004	...........
	24	6.45833	7.75123E-002	7.75364E-002	5.29705E-004	...........
	25	6.71667	7.75203E-002	7.75443E-002	5.34205E-004	...........
	26	6.975	7.75281E-002	7.75515E-002	5.32538E-004	...........
	27	7.23333	7.75358E-002	7.75573E-002	5.37338E-004	...........
	28	7.49167	7.75432E-002	7.75594E-002	5.31938E-004	...........
	29	7.75	7.75498E-002	7.75693E-002	5.38771E-004	...........
	30	8.00833	7.75558E-002	7.75754E-002	5.28172E-004	...........
	31	8.26667	7.75618E-002	7.75818E-002	5.37205E-004	...........
	32	8.525	7.75681E-002	7.75880E-002	5.32172E-004	...........
	33	8.78333	7.75746E-002	7.75908E-002	5.35605E-004	...........
	34	9.04167	7.75805E-002	7.75869E-002	5.31005E-004	...........
	35	9.3	7.75852E-002	7.75936E-002	5.40805E-004	...........
	36	9.5583	7.75883E-002	7.75980E-002	5.38938E-004	...........
	37	9.8167	7.75908E-002	7.76005E-002	5.36038E-004	...........
	38	10.075	7.75936E-002	7.76055E-002	5.35538E-004	...........
EOC	QUANT	0.0775936	Open Circuit (V)
PSTATMODEL	IQUANT	4	Pstat Model
PSTATSECTION	LABEL	REF600-11020	Pstat Section
PSTATSERIALNO	LABEL	11020	Pstat Serial Number
CTRLMODE	IQUANT	1	Control Mode
IESTAB	IQUANT	0	I/E Stability
CASPEED	IQUANT	1	Control Amp Speed
CONVENTION	IQUANT	1	Current Convention
ICHRANGE	IQUANT	2	Ich Range
ICHRANGEMODE	TOGGLE	F	Ich Auto Range
ICHOFFSETENABLE	TOGGLE	T	Ich Offset Enable
ICHOFFSET	QUANT	0	Ich Offset (V)
ICHFILTER	IQUANT	3	Ich Filter
VCHRANGE	IQUANT	2	Vch Range
VCHRANGEMODE	TOGGLE	F	Vch Auto Range
VCHOFFSETENABLE	TOGGLE	T	Vch Offset Enable
VCHOFFSET	QUANT	0	Vch Offset (V)
VCHFILTER	IQUANT	3	Vch Filter
ACHRANGE	IQUANT	2	Ach Range
ACHOFFSETENABLE	TOGGLE	F	Ach Offset Enable
ACHOFFSET	QUANT	0	Ach Offset (V)
ACHFILTER	IQUANT	3	Ach Filter
IERANGELOWERLIMIT	IQUANT	1	I/E Range Lower Limit
IERANGEMODE	TOGGLE	F	I/E AutoRange
IERANGE	IQUANT	8	I/E Range
POSFEEDENABLE	TOGGLE	F	Positive Feedback IR Comp
POSFEEDRESISTANCE	QUANT	0	Positive Feedback Resistance (ohm)
ACHSELECT	IQUANT	0	Ach Select
CABLEID	IQUANT	14	Cable ID
DCCALDATE	LABEL	1/27/2020	DC Calibration Date
ACCALDATE	LABEL	1/27/2020	AC Calibration Date
THERMOSELECT	IQUANT	1	Thermo Select
FRAMEWORKVERSION	QUANT	6.33	Framework Version
INSTRUMENTVERSION	LABEL	3.50	Instrument Version
ZCURVE	TABLE
	Pt	Time	Freq	Zreal	Zimag	Zsig	Zmod	Zphz	Idc	Vdc	IERange
	#	s	Hz	ohm	ohm	V	ohm	°	A	V	#
	0	1	1000078	2262.691	-2035.171	1	3043.303	-41.9697	5.987322E-007	0.0798382	8
	1	2	794390.6	2698.612	-2050.806	1	3389.441	-37.23296	-5.899174E-006	0.0806228	8
	2	2	630984.4	3099.723	-1977.423	1	3676.749	-32.53524	4.431446E-007	0.0793586	8
	3	2	501234.4	3475.863	-1867.388	1	3945.726	-28.24666	-1.389049E-006	0.0794693	8
	4	3	398109.4	3832.31	-1665.607	1	4178.618	-23.49084	9.265865E-007	0.078955	8
	5	3	316265.6	4040.119	-1527.003	1	4319.062	-20.70458	-1.734182E-006	0.0792845	8
	6	3	251203.1	4235.565	-1327.824	1	4438.821	-17.40589	-1.596476E-006	0.0792806	8
	7	4	199546.9	4403.29	-1140.445	1	4548.58	-14.52045	1.552925E-006	0.0786488	8
	8	4	158578.1	4529.835	-1020.477	1	4643.359	-12.6956	2.046588E-006	0.0785075	8
	9	4	125953.1	4651.309	-851.5853	1	4728.623	-10.3751	1.242148E-006	0.0762034	7
	10	5	100078.1	4734.137	-763.29	1	4795.275	-9.159039	4.25222E-008	0.0788948	7
	11	5	79453.13	4796.347	-700.2961	1	4847.201	-8.306841	4.276128E-008	0.0788881	7
	12	5	63140.62	4851.034	-655.6379	1	4895.139	-7.697129	-1.603578E-008	0.0791463	7
	13	6	50203.12	4902.369	-630.2514	1	4942.716	-7.325795	6.954931E-008	0.0788936	7
	14	6	39890.62	4954.09	-621.7276	1	4992.951	-7.1531	-6.51732E-009	0.0790534	7
	15	6	31640.63	5003.378	-630.7968	1	5042.985	-7.185607	6.654423E-008	0.0789922	7
	16	7	25171.88	5057.038	-655.6065	1	5099.358	-7.386763	-6.726709E-009	0.0790496	7
	17	7	20015.62	5112.098	-696.7148	1	5159.356	-7.760881	2.623092E-008	0.0789163	7
	18	7	15890.62	5172.94	-758.1227	1	5228.199	-8.337654	7.109172E-008	0.0788876	7
	19	8	12609.37	5240.299	-834.1553	1	5306.275	-9.044509	-1.737661E-008	0.0791375	7
	20	8	10078.13	5308.406	-931.8662	1	5389.578	-9.95656	-1.45762E-008	0.0790445	7
	21	8	8015.625	5386.368	-1054.319	1	5488.583	-11.07496	-2.255793E-009	0.0790291	7
	22	8	6328.125	5475.816	-1207.138	1	5607.293	-12.43195	-3.968433E-008	0.0790312	7
	23	9	5015.625	5578.759	-1393.762	1	5750.229	-14.02728	-1.258688E-008	0.0790397	7
	24	9	3984.375	5690.13	-1616.964	1	5915.417	-15.86356	8.014293E-008	0.0788388	7
	25	9	3170.956	5816.488	-1883.263	1	6113.772	-17.94092	-2.099153E-008	0.0789892	7
	26	10	2527.573	5960.453	-2201.672	1	6354.082	-20.27322	-7.487509E-009	0.0790392	7
	27	10	1976.103	6136.282	-2619.315	1	6671.939	-23.11555	-3.76355E-009	0.0789471	7
	28	10	1577.524	6330.95	-3080.229	1	7040.507	-25.94455	-1.487224E-008	0.0791253	7
	29	11	1265.625	6545.676	-3619.165	1	7479.588	-28.93861	-1.048056E-008	0.0791176	7
	30	11	998.264	6810.65	-4314.199	1	8062.089	-32.35217	-5.228243E-008	0.07907	7
	31	11	796.875	7110.068	-5105.103	1	8753.008	-35.67874	2.976092E-011	0.0789384	7
	32	12	627.7902	7483.804	-6124	1	9670.09	-39.29348	-6.190956E-009	0.0791412	6
	33	12	505.5147	7882.385	-7230.684	1	10696.48	-42.53084	1.400875E-008	0.0788365	6
	34	12	397.9953	8398.833	-8707.218	1	12097.77	-46.03281	8.835458E-010	0.079006	6
	35	13	315.5048	9004.605	-10442.34	1	13788.59	-49.22824	1.02201E-009	0.0790064	6
	36	13	252.4038	9703.56	-12447.7	1	15783.04	-52.06193	1.102715E-009	0.0790049	6
	37	13	198.6229	10624.38	-15041.63	1	18415.43	-54.76524	1.064627E-009	0.0790053	6
	38	14	158.3615	11693.09	-17999.68	1	21464.31	-56.99113	1.01236E-009	0.0790035	6
	39	14	125.558	13054.97	-21620.47	1	25256.23	-58.87539	1.106149E-009	0.0790048	6
	40	14	100.4464	14628.64	-25750.9	1	29615.98	-60.39985	2.720884E-010	0.0790004	6
	41	15	79.00281	16890.8	-31086.35	1	35378.81	-61.48251	9.778328E-010	0.0789992	6
	42	15	63.3446	18904.72	-37075.52	1	41617.1	-62.98307	1.066073E-009	0.0789988	6
	43	15	49.86702	22266.56	-44350.37	1	49626.15	-63.34059	6.428926E-010	0.0789957	6
	44	16	39.72458	26367.32	-52720.03	1	58946.05	-63.4286	2.531977E-010	0.0790023	6
	45	16	31.6723	31323.43	-62559.69	1	69963.36	-63.40302	-2.421889E-010	0.0789955	6
	46	16	24.93351	37504.45	-74355.93	1	83278.98	-63.23404	8.531634E-010	0.0789975	6
	47	17	19.86229	44754.35	-87609.19	1	98378.5	-62.9402	3.648517E-010	0.0790026	6
	48	17	15.83615	53939.75	-103078.8	1	116338.8	-62.37753	6.172199E-010	0.0789943	5
	49	17	12.40079	66522.14	-121060.6	1	138133.5	-61.21144	-1.389769E-009	0.0790011	5
	50	18	9.93114	78797.84	-140417.4	1	161016	-60.70022	1.159937E-009	0.0789965	5
	51	18	7.944915	95069	-162109.8	1	187930	-59.61057	8.180496E-010	0.0789912	5
	52	19	6.317385	114029.2	-186876.6	1	218919	-58.60911	7.490532E-010	0.0789829	5
	53	20	5.008013	137100.1	-215220.3	1	255178.8	-57.50196	6.772961E-010	0.078997	5
	54	21	3.945707	164468.2	-246599.3	1	296413.6	-56.29889	9.211294E-011	0.0789902	5
	55	22	3.158693	194381.1	-278973.6	1	340015.1	-55.13228	8.123824E-012	0.0789709	5
	56	24	2.504006	229841.3	-315620.3	1	390439.8	-53.93711	1.977757E-010	0.0789767	5
	57	25	1.998082	267817.6	-355115.4	1	444784.4	-52.97747	3.067754E-010	0.0789999	5
	58	26	1.584686	312159.3	-398083.9	1	505879.7	-51.89808	7.724681E-011	0.0789492	5
	59	28	1.266892	359503.8	-445914.3	1	572784.9	-51.12364	3.962898E-012	0.0789385	5
	60	31	0.999041	413372.2	-502388	1	650592.3	-50.55196	-2.324011E-011	0.0789478	5
