EXPLAIN
TAG	EISPOT
TITLE	LABEL	Potentiostatic EIS	Test &Identifier
DATE	LABEL	3/9/2020	Date
TIME	LABEL	20:36:54	Time
NOTES	NOTES	1	&Notes...
	
PSTAT	PSTAT	REF600-11020	Potentiostat
VDC	POTEN	0.00000E+000	T	DC &Voltage (V)
FREQINIT	QUANT	1.00000E+006	Initial Fre&q. (Hz)
FREQFINAL	QUANT	1.00000E+000	Final Fre&q. (Hz)
PTSPERDEC	QUANT	1.00000E+001	Points/&decade
VAC	QUANT	2.50000E+001	AC &Voltage (mV rms)
AREA	QUANT	4.00000E-005	&Area (cm^2)
CONDIT	TWOPARAM	F	5.00000E+000	0.00000E+000	Conditionin&g	Time(s)	E(V)
DELAY	TWOPARAM	T	3.00000E+000	0.00000E+000	Init. De&lay	Time(s)	Stab.(mV/s)
SPEED	SELECTOR	0	&Optimize for:
ZGUESS	QUANT	1.00000E+003	E&stimated Z (ohms)
OCVCURVE	TABLE	12
	Pt	T	Vf	Vm	Ach	Over
	#	s	V vs. Ref.	V	V	bits
	0	0.258333	-3.75787E-002	-3.75787E-002	5.73663E-004	...........
	1	0.516667	-3.75791E-002	-3.75987E-002	5.73497E-004	...........
	2	0.775	-3.75815E-002	-3.76205E-002	5.68830E-004	...........
	3	1.03333	-3.75884E-002	-3.76367E-002	5.70730E-004	...........
	4	1.29167	-3.76007E-002	-3.76536E-002	5.71897E-004	...........
	5	1.55	-3.76168E-002	-3.76703E-002	5.66497E-004	...........
	6	1.80833	-3.76343E-002	-3.76879E-002	5.73530E-004	...........
	7	2.06667	-3.76520E-002	-3.77087E-002	5.74197E-004	...........
	8	2.325	-3.76696E-002	-3.77219E-002	5.73763E-004	...........
	9	2.58333	-3.76873E-002	-3.77384E-002	5.77430E-004	...........
	10	2.84167	-3.77045E-002	-3.77534E-002	5.72530E-004	...........
	11	3.1	-3.77210E-002	-3.77693E-002	5.77897E-004	...........
EOC	QUANT	-0.037721	Open Circuit (V)
PSTATMODEL	IQUANT	4	Pstat Model
PSTATSECTION	LABEL	REF600-11020	Pstat Section
PSTATSERIALNO	LABEL	11020	Pstat Serial Number
CTRLMODE	IQUANT	1	Control Mode
IESTAB	IQUANT	0	I/E Stability
CASPEED	IQUANT	1	Control Amp Speed
CONVENTION	IQUANT	1	Current Convention
ICHRANGE	IQUANT	2	Ich Range
ICHRANGEMODE	TOGGLE	F	Ich Auto Range
ICHOFFSETENABLE	TOGGLE	T	Ich Offset Enable
ICHOFFSET	QUANT	0	Ich Offset (V)
ICHFILTER	IQUANT	3	Ich Filter
VCHRANGE	IQUANT	2	Vch Range
VCHRANGEMODE	TOGGLE	F	Vch Auto Range
VCHOFFSETENABLE	TOGGLE	T	Vch Offset Enable
VCHOFFSET	QUANT	0	Vch Offset (V)
VCHFILTER	IQUANT	3	Vch Filter
ACHRANGE	IQUANT	2	Ach Range
ACHOFFSETENABLE	TOGGLE	F	Ach Offset Enable
ACHOFFSET	QUANT	0	Ach Offset (V)
ACHFILTER	IQUANT	3	Ach Filter
IERANGELOWERLIMIT	IQUANT	1	I/E Range Lower Limit
IERANGEMODE	TOGGLE	F	I/E AutoRange
IERANGE	IQUANT	7	I/E Range
POSFEEDENABLE	TOGGLE	F	Positive Feedback IR Comp
POSFEEDRESISTANCE	QUANT	0	Positive Feedback Resistance (ohm)
ACHSELECT	IQUANT	0	Ach Select
CABLEID	IQUANT	14	Cable ID
DCCALDATE	LABEL	2/27/2020	DC Calibration Date
ACCALDATE	LABEL	2/27/2020	AC Calibration Date
THERMOSELECT	IQUANT	1	Thermo Select
FRAMEWORKVERSION	QUANT	6.33	Framework Version
INSTRUMENTVERSION	LABEL	3.50	Instrument Version
ZCURVE	TABLE
	Pt	Time	Freq	Zreal	Zimag	Zsig	Zmod	Zphz	Idc	Vdc	IERange
	#	s	Hz	ohm	ohm	V	ohm	°	A	V	#
	0	1	1000078	2056.623	-1887.804	1	2791.684	-42.54928	3.505584E-008	-0.0355152	8
	1	1	794390.6	2449.043	-1935.788	1	3121.712	-38.32376	5.133306E-008	-0.03579	8
	2	1	630984.4	2843.734	-1915.196	1	3428.527	-33.95945	4.320537E-008	-0.0359247	8
	3	2	501234.4	3220.722	-1836.329	1	3707.446	-29.6901	3.769415E-008	-0.0360313	8
	4	2	398109.4	3551.269	-1706.047	1	3939.811	-25.65986	3.338237E-008	-0.0360788	8
	5	2	316265.6	3830.017	-1553.889	1	4133.231	-22.08305	6.452304E-008	-0.0360873	8
	6	3	251203.1	4059.835	-1389.163	1	4290.925	-18.88953	5.182882E-008	-0.036086	8
	7	3	199546.9	4239.587	-1227.896	1	4413.822	-16.1524	2.890969E-008	-0.0360954	8
	8	3	158578.1	4383.168	-1085.8	1	4515.654	-13.91325	1.361657E-008	-0.03608	8
	9	4	125953.1	4544.019	-871.9701	1	4626.925	-10.86267	6.19824E-010	-0.0361504	7
	10	4	100078.1	4612.957	-783.951	1	4679.097	-9.64501	4.791703E-010	-0.0361741	7
	11	4	79453.13	4685.382	-723.5831	1	4740.926	-8.779071	9.135966E-010	-0.0361733	7
	12	5	63140.62	4748.664	-679.7009	1	4797.062	-8.145714	2.241915E-009	-0.036177	7
	13	5	50203.12	4806.297	-652.5238	1	4850.39	-7.731453	1.519925E-009	-0.0361789	7
	14	5	39890.62	4860.679	-642.2529	1	4902.926	-7.527024	3.432262E-010	-0.0361808	7
	15	6	31640.63	4914.747	-648.5797	1	4957.357	-7.517658	8.261035E-010	-0.0361786	7
	16	6	25171.88	4968.469	-671.9613	1	5013.703	-7.702241	1.663736E-009	-0.03618	7
	17	6	20015.62	5024.149	-712.4578	1	5074.414	-8.071109	2.041725E-010	-0.0361875	7
	18	6	15890.62	5083.295	-771.9807	1	5141.58	-8.63531	7.839516E-010	-0.0361928	7
	19	7	12609.37	5147.626	-852.7373	1	5217.779	-9.405994	1.776303E-009	-0.0361817	7
	20	7	10078.13	5215.264	-952.278	1	5301.492	-10.34789	1.946646E-009	-0.0361898	7
	21	7	8015.625	5291	-1079.323	1	5399.965	-11.5297	4.058419E-010	-0.0361954	7
	22	8	6328.125	5378.789	-1243.422	1	5520.641	-13.01649	3.535981E-009	-0.0361878	7
	23	8	5015.625	5474.594	-1439.817	1	5660.764	-14.73509	1.521622E-009	-0.0361962	7
	24	8	3984.375	5582.66	-1678.178	1	5829.44	-16.73106	1.885733E-009	-0.0361917	7
	25	9	3170.956	5704.791	-1964.404	1	6033.533	-19.00078	2.965554E-009	-0.0361911	7
	26	9	2527.573	5841.039	-2306.842	1	6280.068	-21.55089	2.989893E-009	-0.0361902	7
	27	9	1976.103	6013.139	-2757.899	1	6615.425	-24.63834	2.837857E-009	-0.0361889	7
	28	10	1577.524	6194.585	-3260.118	1	7000.089	-27.75717	1.996181E-009	-0.0361985	7
	29	10	1265.625	6400.193	-3851.071	1	7469.486	-31.03581	2.38311E-009	-0.0361979	7
	30	10	998.264	6656.463	-4624.738	1	8105.351	-34.79057	3.123402E-009	-0.036191	7
	31	11	796.875	6940.31	-5512.47	1	8863.139	-38.45901	3.272439E-009	-0.036188	7
	32	11	627.7902	7308.071	-6644.105	1	9876.84	-42.27542	-1.766379E-010	-0.0361395	6
	33	11	505.5147	7687.078	-7899.587	1	11022.46	-45.78112	-4.175726E-010	-0.0361393	6
	34	12	397.9953	8185.967	-9580.18	1	12601.19	-49.48714	3.939376E-010	-0.0361258	6
	35	12	315.5048	8776.291	-11572.44	1	14523.93	-52.82409	4.974278E-010	-0.0361279	6
	36	12	252.4038	9466.025	-13892.6	1	16811.01	-55.73058	5.032131E-010	-0.0361286	6
	37	13	198.6229	10381.81	-16918.04	1	19849.49	-58.46451	5.196307E-010	-0.0361311	6
	38	13	158.3615	11464.14	-20388.29	1	23390.37	-60.65137	3.836879E-010	-0.0361338	6
	39	13	125.558	12856.19	-24680.13	1	27827.87	-62.48442	2.904688E-010	-0.0361316	6
	40	14	100.4464	14544.58	-29631.74	1	33008.86	-63.85613	2.792233E-010	-0.0361356	6
	41	14	79.00281	16850.67	-36025.36	1	39771.49	-64.9324	3.852668E-010	-0.0361304	6
	42	14	63.3446	19540.94	-43038.17	1	47266.61	-65.58018	4.577673E-010	-0.0361329	6
	43	15	49.86702	23226.77	-52050.31	1	56997.52	-65.95181	2.020181E-010	-0.036135	6
	44	15	39.72458	27674.74	-62194.11	1	68073.48	-66.0122	3.623928E-010	-0.0361331	6
	45	15	31.6723	33228.1	-74041.84	1	81156.02	-65.83067	1.462127E-010	-0.0361322	6
	46	16	24.93351	40621.01	-88664.91	1	97527.1	-65.38555	2.262325E-010	-0.0361293	6
	47	16	19.86229	49496.42	-104829	1	115926.8	-64.72503	-8.838093E-010	-0.0361254	5
	48	16	15.83615	60503.08	-123259.7	1	137308.4	-63.8555	1.30861E-009	-0.0361245	5
	49	16	12.40079	75334.84	-145749	1	164067.4	-62.66644	4.47354E-010	-0.0361258	5
	50	17	9.93114	91899.86	-168576.4	1	191998.9	-61.40287	8.773067E-010	-0.0361344	5
	51	17	7.944915	111088.2	-193658	1	223257.7	-60.16008	1.172965E-009	-0.0361324	5
	52	18	6.317385	134740.3	-222202	1	259862.8	-58.76794	-2.573287E-010	-0.0361117	5
	53	18	5.008013	162246.5	-253680.6	1	301127.5	-57.39824	-1.122576E-010	-0.0361273	5
	54	19	3.945707	193211.3	-288900	1	347554	-56.22609	4.067308E-010	-0.0361286	5
	55	20	3.158693	225808.8	-325266.2	1	395964.2	-55.23054	-7.669151E-011	-0.0361209	5
	56	21	2.504006	261775.1	-368246.5	1	451809.3	-54.59214	-6.865986E-011	-0.0361333	5
	57	22	1.998082	300050.7	-415337.3	1	512382.3	-54.15465	2.015301E-010	-0.0360951	5
	58	24	1.584686	341104.2	-473346.4	1	583445.8	-54.22262	1.505213E-010	-0.0361103	5
	59	26	1.266892	384954.3	-537637.2	1	661244	-54.3969	7.55636E-011	-0.0361462	5
	60	28	0.999041	437757.8	-619804.2	1	758807.7	-54.76705	4.102478E-011	-0.0361666	5
