EXPLAIN
TAG	EISPOT
TITLE	LABEL	Potentiostatic EIS	Test &Identifier
DATE	LABEL	1/10/2020	Date
TIME	LABEL	13:09:02	Time
NOTES	NOTES	5	&Notes...
	
	
	
	
	
PSTAT	PSTAT	REF600-11020	Potentiostat
VDC	POTEN	0.00000E+000	T	DC &Voltage (V)
FREQINIT	QUANT	1.00000E+006	Initial Fre&q. (Hz)
FREQFINAL	QUANT	1.00000E+000	Final Fre&q. (Hz)
PTSPERDEC	QUANT	1.00000E+001	Points/&decade
VAC	QUANT	2.50000E+001	AC &Voltage (mV rms)
AREA	QUANT	1.00000E-001	&Area (cm^2)
CONDIT	TWOPARAM	T	5.00000E+000	0.00000E+000	Conditionin&g	Time(s)	E(V)
DELAY	TWOPARAM	T	5.00000E+000	0.00000E+000	Init. De&lay	Time(s)	Stab.(mV/s)
SPEED	SELECTOR	0	&Optimize for:
ZGUESS	QUANT	5.00000E+002	E&stimated Z (ohms)
OCVCURVE	TABLE	19
	Pt	T	Vf	Vm	Ach	Over
	#	s	V vs. Ref.	V	V	bits
	0	0.258333	6.46298E-003	6.46298E-003	6.43746E-004	...........
	1	0.516667	6.46441E-003	6.53791E-003	6.45680E-004	...........
	2	0.775	6.47411E-003	6.65668E-003	6.43880E-004	...........
	3	1.03333	6.50403E-003	6.74140E-003	6.47046E-004	...........
	4	1.29167	6.56189E-003	6.86975E-003	6.40980E-004	...........
	5	1.55	6.64508E-003	6.97605E-003	6.44213E-004	...........
	6	1.80833	6.74542E-003	7.09501E-003	6.46380E-004	...........
	7	2.06667	6.85493E-003	7.19568E-003	6.42213E-004	...........
	8	2.325	6.96743E-003	7.30485E-003	6.40880E-004	...........
	9	2.58333	7.07950E-003	7.43617E-003	6.42146E-004	...........
	10	2.84167	7.19115E-003	7.53085E-003	6.42046E-004	...........
	11	3.1	7.30366E-003	7.66183E-003	6.40746E-004	...........
	12	3.35833	7.41691E-003	7.74896E-003	6.38613E-004	...........
	13	3.61667	7.52959E-003	7.87472E-003	6.42613E-004	...........
	14	3.875	7.63996E-003	7.93244E-003	6.40346E-004	...........
	15	4.13333	7.74596E-003	8.05961E-003	6.40346E-004	...........
	16	4.39167	7.84720E-003	8.15672E-003	6.39546E-004	...........
	17	4.65	7.94663E-003	8.26506E-003	6.37613E-004	...........
	18	4.90833	8.04732E-003	8.35310E-003	6.42780E-004	...........
EOC	QUANT	0.0080473	Open Circuit (V)
PSTATMODEL	IQUANT	4	Pstat Model
PSTATSECTION	LABEL	REF600-11020	Pstat Section
PSTATSERIALNO	LABEL	11020	Pstat Serial Number
CTRLMODE	IQUANT	1	Control Mode
IESTAB	IQUANT	0	I/E Stability
CASPEED	IQUANT	1	Control Amp Speed
CONVENTION	IQUANT	1	Current Convention
ICHRANGE	IQUANT	2	Ich Range
ICHRANGEMODE	TOGGLE	F	Ich Auto Range
ICHOFFSETENABLE	TOGGLE	T	Ich Offset Enable
ICHOFFSET	QUANT	0	Ich Offset (V)
ICHFILTER	IQUANT	3	Ich Filter
VCHRANGE	IQUANT	2	Vch Range
VCHRANGEMODE	TOGGLE	F	Vch Auto Range
VCHOFFSETENABLE	TOGGLE	T	Vch Offset Enable
VCHOFFSET	QUANT	0	Vch Offset (V)
VCHFILTER	IQUANT	3	Vch Filter
ACHRANGE	IQUANT	2	Ach Range
ACHOFFSETENABLE	TOGGLE	F	Ach Offset Enable
ACHOFFSET	QUANT	0	Ach Offset (V)
ACHFILTER	IQUANT	3	Ach Filter
IERANGELOWERLIMIT	IQUANT	1	I/E Range Lower Limit
IERANGEMODE	TOGGLE	F	I/E AutoRange
IERANGE	IQUANT	7	I/E Range
POSFEEDENABLE	TOGGLE	F	Positive Feedback IR Comp
POSFEEDRESISTANCE	QUANT	0	Positive Feedback Resistance (ohm)
ACHSELECT	IQUANT	0	Ach Select
CABLEID	IQUANT	14	Cable ID
DCCALDATE	LABEL	12/22/2019	DC Calibration Date
ACCALDATE	LABEL	12/22/2019	AC Calibration Date
THERMOSELECT	IQUANT	1	Thermo Select
FRAMEWORKVERSION	QUANT	6.33	Framework Version
INSTRUMENTVERSION	LABEL	3.50	Instrument Version
ZCURVE	TABLE
	Pt	Time	Freq	Zreal	Zimag	Zsig	Zmod	Zphz	Idc	Vdc	IERange
	#	s	Hz	ohm	ohm	V	ohm	°	A	V	#
	0	1	1000078	2425.198	-1732.991	1	2980.746	-35.54873	-1.973106E-006	0.0105716	8
	1	1	794390.6	2727.14	-1698.294	1	3212.709	-31.91209	-3.171516E-006	0.0106511	8
	2	1	630984.4	3013.862	-1643.516	1	3432.857	-28.60447	-6.504014E-007	0.0100225	8
	3	2	501234.4	3290.108	-1571.069	1	3645.966	-25.52508	-3.751126E-006	0.0104878	8
	4	2	398109.4	3512.212	-1500.751	1	3819.409	-23.13678	-1.047495E-006	0.0098782	8
	5	2	316265.6	3728.389	-1413.23	1	3987.243	-20.75901	-3.495173E-006	0.0103531	8
	6	3	251203.1	3952.676	-1354.26	1	4178.237	-18.91241	1.496882E-006	0.0093013	8
	7	3	199546.9	4137.294	-1289.481	1	4333.585	-17.31082	2.44177E-006	0.0090439	8
	8	3	158578.1	4345.417	-1182.439	1	4503.423	-15.22229	1.038031E-006	0.0093277	8
	9	4	125953.1	4522.544	-1089.357	1	4651.892	-13.543	-2.398731E-007	0.0100254	7
	10	4	100078.1	4657.445	-994.417	1	4762.422	-12.05233	-4.385514E-008	0.0096428	7
	11	4	79453.13	4785.169	-924.2102	1	4873.603	-10.93154	-1.375728E-008	0.0096438	7
	12	5	63140.62	4894.65	-862.1879	1	4970.007	-9.99011	2.094744E-008	0.0094774	7
	13	5	50203.12	4988.717	-810.5438	1	5054.135	-9.228513	-3.710733E-008	0.0095747	7
	14	5	39890.62	5071.251	-774.5001	1	5130.053	-8.683324	-2.953286E-008	0.0095694	7
	15	6	31640.63	5146.256	-753.5522	1	5201.134	-8.330463	-4.494746E-008	0.009626	7
	16	6	25171.88	5216.518	-751.1887	1	5270.327	-8.194372	-2.792795E-008	0.0095684	7
	17	6	20015.62	5286.558	-766.1307	1	5341.784	-8.245926	-1.301812E-008	0.0096331	7
	18	7	15890.62	5353.604	-801.0363	1	5413.2	-8.509786	-4.344258E-008	0.0096287	7
	19	7	12609.37	5424.323	-853.2579	1	5491.022	-8.9395	-5.42175E-009	0.0095869	7
	20	7	10078.13	5500.152	-924.6191	1	5577.329	-9.54265	9.130212E-009	0.009543	7
	21	8	8015.625	5579.334	-1020.788	1	5671.946	-10.36809	5.56006E-008	0.0094327	7
	22	8	6328.125	5674.389	-1147.2	1	5789.193	-11.42952	-6.714115E-009	0.0095989	7
	23	8	5015.625	5774.011	-1298.907	1	5918.308	-12.67807	7.241383E-008	0.0094084	7
	24	8	3984.375	5880.996	-1485.842	1	6065.792	-14.17913	7.219434E-008	0.0094072	7
	25	9	3170.956	6001.841	-1704.136	1	6239.084	-15.85113	9.461829E-010	0.0095698	7
	26	9	2527.573	6134.349	-1970.566	1	6443.087	-17.80882	3.261597E-008	0.0095643	7
	27	9	1976.103	6294.933	-2318.215	1	6708.227	-20.21708	5.54322E-008	0.0094315	7
	28	10	1577.524	6464.737	-2702.069	1	7006.711	-22.68349	4.656222E-008	0.0094083	7
	29	10	1265.625	6638.428	-3172.079	1	7357.365	-25.54015	-3.818463E-008	0.0096077	7
	30	10	998.264	6862.892	-3768.798	1	7829.631	-28.77365	-1.559104E-008	0.0095295	7
	31	11	796.875	7101.337	-4460.715	1	8386.117	-32.13504	-2.75202E-008	0.0095624	7
	32	11	627.7902	7397.147	-5336.267	1	9121.049	-35.8065	5.580358E-008	0.009429	7
	33	11	505.5147	7703.713	-6308.762	1	9957.29	-39.3149	3.083036E-009	0.0094002	6
	34	12	397.9953	8090.461	-7618.763	1	11113.11	-43.28011	1.097224E-009	0.0095457	6
	35	12	315.5048	8530.072	-9177.541	1	12529.54	-47.09406	8.22458E-010	0.0095435	6
	36	12	252.4038	9022.711	-11002.29	1	14228.83	-50.64565	5.058218E-010	0.0095402	6
	37	13	198.6229	9666.54	-13403.68	1	16525.76	-54.20139	3.90754E-010	0.0095411	6
	38	13	158.3615	10403.04	-16209.58	1	19260.68	-57.30832	4.352389E-010	0.0095378	6
	39	13	125.558	11344.53	-19705.11	1	22737.41	-60.07031	5.994271E-010	0.0095414	6
	40	14	100.4464	12533.02	-23822	1	26917.73	-62.25064	1.800487E-011	0.0095394	6
	41	14	79.00281	14107.86	-29226.55	1	32453.4	-64.23307	-2.391332E-010	0.0095382	6
	42	14	63.3446	16187.62	-34845.61	1	38422.07	-65.08265	5.460224E-010	0.0095352	6
	43	15	49.86702	19032.54	-42673.36	1	46725.29	-65.96288	8.685694E-010	0.0095351	6
	44	15	39.72458	22352.7	-51656.32	1	56285.15	-66.60092	5.101363E-010	0.0095392	6
	45	15	31.6723	26802.45	-62012.89	1	67557.16	-66.62563	5.917571E-010	0.0095396	6
	46	16	24.93351	33052.37	-74614.16	1	81607.19	-66.10775	-6.614579E-011	0.009537	6
	47	16	19.86229	40529.39	-88481.38	1	97322.1	-65.38959	2.58189E-010	0.0095347	6
	48	16	15.83615	49427.93	-104466.9	1	115570.1	-64.67908	-1.498661E-010	0.0095286	5
	49	17	12.40079	62000.42	-124515.4	1	139097.5	-63.52973	1.394779E-010	0.0095325	5
	50	17	9.93114	75924.5	-143105.7	1	161999.3	-62.05189	-7.601459E-010	0.0095322	5
	51	18	7.944915	92310.38	-164907	1	188985.5	-60.7611	-1.156226E-009	0.0095393	5
	52	18	6.317385	112077	-189921.7	1	220525.5	-59.4542	-8.702238E-010	0.0095417	5
	53	19	5.008013	135553.8	-218070.7	1	256767.7	-58.13473	-7.288465E-010	0.0095255	5
	54	20	3.945707	162953.1	-249081.2	1	297649.4	-56.80661	-1.482421E-010	0.0095254	5
	55	21	3.158693	192282.8	-281206.9	1	340661.2	-55.63658	-1.197778E-010	0.0095447	5
	56	23	2.504006	226989.1	-318480.6	1	391093.3	-54.52157	-4.154021E-010	0.009537	5
	57	24	1.998082	262491.8	-357897.3	1	443838.3	-53.74265	-2.35533E-010	0.0095356	5
	58	26	1.584686	304481.5	-404001.6	1	505891.5	-52.99598	-6.021222E-011	0.0095737	5
	59	28	1.266892	347364.3	-456092	1	573307.8	-52.70674	-5.259946E-011	0.0095597	5
	60	30	0.999041	397116.1	-518959.6	1	653467.9	-52.57621	-5.499096E-011	0.0095392	5
