EXPLAIN
TAG	EISPOT
TITLE	LABEL	Potentiostatic EIS	Test &Identifier
DATE	LABEL	3/20/2020	Date
TIME	LABEL	14:22:32	Time
NOTES	NOTES	1	&Notes...
	
PSTAT	PSTAT	REF600-11020	Potentiostat
VDC	POTEN	0.00000E+000	T	DC &Voltage (V)
FREQINIT	QUANT	1.00000E+006	Initial Fre&q. (Hz)
FREQFINAL	QUANT	1.00000E+000	Final Fre&q. (Hz)
PTSPERDEC	QUANT	1.00000E+001	Points/&decade
VAC	QUANT	2.50000E+001	AC &Voltage (mV rms)
AREA	QUANT	4.00000E-004	&Area (cm^2)
CONDIT	TWOPARAM	F	5.00000E+000	0.00000E+000	Conditionin&g	Time(s)	E(V)
DELAY	TWOPARAM	T	3.00000E+000	0.00000E+000	Init. De&lay	Time(s)	Stab.(mV/s)
SPEED	SELECTOR	0	&Optimize for:
ZGUESS	QUANT	1.00000E+003	E&stimated Z (ohms)
OCVCURVE	TABLE	12
	Pt	T	Vf	Vm	Ach	Over
	#	s	V vs. Ref.	V	V	bits
	0	0.258333	-2.04441E-002	-2.04441E-002	6.00096E-004	...........
	1	0.516667	-2.04425E-002	-2.03626E-002	6.00263E-004	...........
	2	0.775	-2.04335E-002	-2.03119E-002	5.95030E-004	...........
	3	1.03333	-2.04090E-002	-2.02369E-002	6.01663E-004	...........
	4	1.29167	-2.03669E-002	-2.01911E-002	6.03096E-004	...........
	5	1.55	-2.03124E-002	-2.01338E-002	5.99730E-004	...........
	6	1.80833	-2.02535E-002	-2.00784E-002	5.98196E-004	...........
	7	2.06667	-2.01953E-002	-2.00365E-002	6.00530E-004	...........
	8	2.325	-2.01394E-002	-1.99568E-002	6.00596E-004	...........
	9	2.58333	-2.00838E-002	-1.98767E-002	5.96163E-004	...........
	10	2.84167	-2.00241E-002	-1.98087E-002	5.92063E-004	...........
	11	3.1	-1.99586E-002	-1.97694E-002	5.99396E-004	...........
EOC	QUANT	-0.0199586	Open Circuit (V)
PSTATMODEL	IQUANT	4	Pstat Model
PSTATSECTION	LABEL	REF600-11020	Pstat Section
PSTATSERIALNO	LABEL	11020	Pstat Serial Number
CTRLMODE	IQUANT	1	Control Mode
IESTAB	IQUANT	0	I/E Stability
CASPEED	IQUANT	1	Control Amp Speed
CONVENTION	IQUANT	1	Current Convention
ICHRANGE	IQUANT	2	Ich Range
ICHRANGEMODE	TOGGLE	F	Ich Auto Range
ICHOFFSETENABLE	TOGGLE	T	Ich Offset Enable
ICHOFFSET	QUANT	0	Ich Offset (V)
ICHFILTER	IQUANT	3	Ich Filter
VCHRANGE	IQUANT	2	Vch Range
VCHRANGEMODE	TOGGLE	F	Vch Auto Range
VCHOFFSETENABLE	TOGGLE	T	Vch Offset Enable
VCHOFFSET	QUANT	0	Vch Offset (V)
VCHFILTER	IQUANT	3	Vch Filter
ACHRANGE	IQUANT	2	Ach Range
ACHOFFSETENABLE	TOGGLE	F	Ach Offset Enable
ACHOFFSET	QUANT	0	Ach Offset (V)
ACHFILTER	IQUANT	3	Ach Filter
IERANGELOWERLIMIT	IQUANT	1	I/E Range Lower Limit
IERANGEMODE	TOGGLE	F	I/E AutoRange
IERANGE	IQUANT	7	I/E Range
POSFEEDENABLE	TOGGLE	F	Positive Feedback IR Comp
POSFEEDRESISTANCE	QUANT	0	Positive Feedback Resistance (ohm)
ACHSELECT	IQUANT	0	Ach Select
CABLEID	IQUANT	14	Cable ID
DCCALDATE	LABEL	2/27/2020	DC Calibration Date
ACCALDATE	LABEL	2/27/2020	AC Calibration Date
THERMOSELECT	IQUANT	1	Thermo Select
FRAMEWORKVERSION	QUANT	6.33	Framework Version
INSTRUMENTVERSION	LABEL	3.50	Instrument Version
ZCURVE	TABLE
	Pt	Time	Freq	Zreal	Zimag	Zsig	Zmod	Zphz	Idc	Vdc	IERange
	#	s	Hz	ohm	ohm	V	ohm	°	A	V	#
	0	1	1000078	2048.441	-2230.94	1	3028.73	-47.44197	2.3325E-007	-0.0176528	8
	1	1	794390.6	2467.353	-2379.493	1	3427.801	-43.9615	7.074868E-007	-0.0181543	8
	2	1	630984.4	2917.449	-2485.387	1	3832.578	-40.42781	-5.470611E-007	-0.0180704	8
	3	2	501234.4	3391.193	-2539.72	1	4236.787	-36.83014	-4.122513E-007	-0.0181953	8
	4	2	398109.4	3869.972	-2536.355	1	4627.07	-33.24058	-5.90012E-008	-0.0183077	8
	5	2	316265.6	4337.77	-2483.331	1	4998.317	-29.79071	2.194625E-007	-0.0183987	8
	6	3	251203.1	4769.679	-2376.658	1	5329.01	-26.48638	1.786176E-007	-0.0184281	8
	7	3	199546.9	5173.453	-2244.197	1	5639.241	-23.45076	-4.695851E-007	-0.0182972	8
	8	3	158578.1	5521.338	-2073.041	1	5897.684	-20.57914	-1.258058E-007	-0.0183528	8
	9	4	125953.1	5881.033	-1820.943	1	6156.491	-17.20408	-2.496534E-008	-0.0183857	7
	10	4	100078.1	6105.751	-1653.823	1	6325.767	-15.15566	8.982744E-009	-0.0184631	7
	11	4	79453.13	6314.74	-1514.64	1	6493.849	-13.48804	2.951455E-009	-0.0184336	7
	12	5	63140.62	6487.991	-1390.945	1	6635.417	-12.10034	-3.239529E-009	-0.0184597	7
	13	5	50203.12	6635.125	-1291.437	1	6759.638	-11.01414	-6.363866E-010	-0.0184464	7
	14	5	39890.62	6762.764	-1217.358	1	6871.458	-10.20447	-5.47969E-009	-0.01845	7
	15	6	31640.63	6875.968	-1170.652	1	6974.91	-9.66211	2.467958E-009	-0.0184726	7
	16	6	25171.88	6981.717	-1154.361	1	7076.505	-9.388381	2.435756E-009	-0.0184506	7
	17	6	20015.62	7084.552	-1166.503	1	7179.944	-9.35011	-5.646586E-009	-0.0184551	7
	18	7	15890.62	7187.846	-1208.661	1	7288.758	-9.54519	-2.691952E-009	-0.0184734	7
	19	7	12609.37	7298.694	-1283.849	1	7410.749	-9.97634	6.159692E-010	-0.0184554	7
	20	7	10078.13	7412.485	-1384.658	1	7540.704	-10.58095	2.549545E-009	-0.0184576	7
	21	7	8015.625	7538.745	-1522.064	1	7690.862	-11.41451	-2.961757E-010	-0.0184499	7
	22	8	6328.125	7682.305	-1700.06	1	7868.165	-12.47821	1.615651E-009	-0.0184587	7
	23	8	5015.625	7841.289	-1915.436	1	8071.847	-13.72714	-4.458128E-009	-0.0184583	7
	24	8	3984.375	8016.032	-2171.63	1	8304.983	-15.1582	-3.011385E-009	-0.0184733	7
	25	9	3170.956	8209.378	-2479.987	1	8575.793	-16.80914	1.216128E-008	-0.0184792	7
	26	9	2527.573	8422.514	-2841.599	1	8888.949	-18.64343	1.501702E-008	-0.0184989	7
	27	9	1976.103	8688.515	-3294.57	1	9292.173	-20.76607	-9.438887E-010	-0.0184263	6
	28	10	1577.524	8946.818	-3818.343	1	9727.55	-23.11193	-1.44098E-009	-0.0184159	6
	29	10	1265.625	9224.974	-4431.237	1	10234.06	-25.65741	-9.088781E-010	-0.0184267	6
	30	10	998.264	9557.68	-5232.039	1	10896.03	-28.69706	-4.728598E-010	-0.0184098	6
	31	11	796.875	9914.58	-6153.144	1	11668.76	-31.82439	-7.183888E-010	-0.0184143	6
	32	11	627.7902	10350.49	-7342.57	1	12690.39	-35.35164	-1.561532E-010	-0.0184428	6
	33	11	505.5147	10809.75	-8657.28	1	13849.16	-38.69043	-5.282123E-010	-0.0184444	6
	34	12	397.9953	11404	-10421.7	1	15448.73	-42.42305	7.981686E-011	-0.018411	6
	35	12	315.5048	12111.64	-12510.9	1	17413.06	-45.92899	2.378713E-010	-0.0184141	6
	36	12	252.4038	12944.05	-14937.68	1	19765.7	-49.08987	5.687371E-011	-0.0184137	6
	37	13	198.6229	14053.9	-18081.44	1	22900.88	-52.14366	1.365855E-010	-0.0184128	6
	38	13	158.3615	15364.39	-21654.49	1	26551.49	-54.64336	6.289805E-011	-0.0184164	6
	39	13	125.558	17041.87	-26027.45	1	31110.34	-56.78463	-6.808665E-011	-0.018412	6
	40	14	100.4464	19050.85	-31020.15	1	36403.09	-58.44407	-4.269069E-011	-0.0184158	6
	41	14	79.00281	21748.31	-37400.28	1	43263.95	-59.82195	4.824034E-011	-0.0184191	6
	42	14	63.3446	24808.28	-44298.5	1	50772.11	-60.75008	-4.480089E-011	-0.0184184	6
	43	15	49.86702	28975.34	-53124.63	1	60512.78	-61.39097	-1.152076E-010	-0.0184277	6
	44	15	39.72458	33895.66	-62984.32	1	71525.8	-61.71263	1.303092E-010	-0.0184195	6
	45	15	31.6723	39969.22	-74400.23	1	84456.69	-61.75446	2.80048E-010	-0.0184167	6
	46	16	24.93351	47957.57	-88370.27	1	100544.7	-61.5118	-5.17019E-010	-0.0184152	6
	47	16	19.86229	57325.32	-103601.5	1	118403.8	-61.04313	1.309162E-010	-0.0184094	5
	48	16	15.83615	68975.88	-120852.2	1	139150.7	-60.28461	-1.425319E-009	-0.0184122	5
	49	16	12.40079	84163.21	-141899.4	1	164981.5	-59.32702	-1.465633E-009	-0.018408	5
	50	17	9.93114	100855.7	-162890.9	1	191586.3	-58.23582	-1.672594E-009	-0.018411	5
	51	17	7.944915	120397.5	-186688.5	1	222144.4	-57.18157	-9.383945E-010	-0.0184074	5
	52	18	6.317385	144302.2	-212551.9	1	256907.5	-55.82728	1.720176E-011	-0.0184214	5
	53	18	5.008013	172437.6	-241019.4	1	296353	-54.41814	-3.070655E-010	-0.0184198	5
	54	19	3.945707	205186	-272938.4	1	341462.5	-53.06538	-5.779644E-010	-0.0184117	5
	55	20	3.158693	239285.4	-304020.3	1	386892.5	-51.79477	-2.076617E-010	-0.0184322	5
	56	21	2.504006	278595.9	-340037.7	1	439592.3	-50.67193	1.095803E-010	-0.0184243	5
	57	22	1.998082	319216.3	-377053.6	1	494032.8	-49.74851	-1.776591E-010	-0.0184451	5
	58	24	1.584686	365552.4	-421473.7	1	557914.5	-49.06426	-3.058646E-010	-0.0184719	5
	59	26	1.266892	412083.7	-469808.9	1	624926.7	-48.74501	-2.68653E-010	-0.0184438	5
	60	-64780	0.999041	466193.8	-527953.8	1	704323.7	-48.55486	-2.661964E-010	-0.0184142	5
