EXPLAIN
TAG	EISPOT
TITLE	LABEL	Potentiostatic EIS	Test &Identifier
DATE	LABEL	3/9/2020	Date
TIME	LABEL	21:04:37	Time
NOTES	NOTES	1	&Notes...
	
PSTAT	PSTAT	REF600-11020	Potentiostat
VDC	POTEN	0.00000E+000	T	DC &Voltage (V)
FREQINIT	QUANT	1.00000E+006	Initial Fre&q. (Hz)
FREQFINAL	QUANT	1.00000E+000	Final Fre&q. (Hz)
PTSPERDEC	QUANT	1.00000E+001	Points/&decade
VAC	QUANT	2.50000E+001	AC &Voltage (mV rms)
AREA	QUANT	4.00000E-005	&Area (cm^2)
CONDIT	TWOPARAM	F	5.00000E+000	0.00000E+000	Conditionin&g	Time(s)	E(V)
DELAY	TWOPARAM	T	3.00000E+000	0.00000E+000	Init. De&lay	Time(s)	Stab.(mV/s)
SPEED	SELECTOR	0	&Optimize for:
ZGUESS	QUANT	1.00000E+003	E&stimated Z (ohms)
OCVCURVE	TABLE	12
	Pt	T	Vf	Vm	Ach	Over
	#	s	V vs. Ref.	V	V	bits
	0	0.258333	4.09647E-002	4.09647E-002	5.61630E-004	...........
	1	0.516667	4.09646E-002	4.09568E-002	5.64897E-004	...........
	2	0.775	4.09637E-002	4.09504E-002	5.68997E-004	...........
	3	1.03333	4.09612E-002	4.09446E-002	5.64397E-004	...........
	4	1.29167	4.09569E-002	4.09408E-002	5.59664E-004	...........
	5	1.55	4.09516E-002	4.09362E-002	5.61830E-004	...........
	6	1.80833	4.09462E-002	4.09311E-002	5.59064E-004	...........
	7	2.06667	4.09411E-002	4.09257E-002	5.58030E-004	...........
	8	2.325	4.09362E-002	4.09190E-002	5.61830E-004	...........
	9	2.58333	4.09310E-002	4.09129E-002	5.63030E-004	...........
	10	2.84167	4.09255E-002	4.09086E-002	5.63097E-004	...........
	11	3.1	4.09198E-002	4.09042E-002	5.67830E-004	...........
EOC	QUANT	0.0409198	Open Circuit (V)
PSTATMODEL	IQUANT	4	Pstat Model
PSTATSECTION	LABEL	REF600-11020	Pstat Section
PSTATSERIALNO	LABEL	11020	Pstat Serial Number
CTRLMODE	IQUANT	1	Control Mode
IESTAB	IQUANT	0	I/E Stability
CASPEED	IQUANT	1	Control Amp Speed
CONVENTION	IQUANT	1	Current Convention
ICHRANGE	IQUANT	2	Ich Range
ICHRANGEMODE	TOGGLE	F	Ich Auto Range
ICHOFFSETENABLE	TOGGLE	T	Ich Offset Enable
ICHOFFSET	QUANT	0	Ich Offset (V)
ICHFILTER	IQUANT	3	Ich Filter
VCHRANGE	IQUANT	2	Vch Range
VCHRANGEMODE	TOGGLE	F	Vch Auto Range
VCHOFFSETENABLE	TOGGLE	T	Vch Offset Enable
VCHOFFSET	QUANT	0	Vch Offset (V)
VCHFILTER	IQUANT	3	Vch Filter
ACHRANGE	IQUANT	2	Ach Range
ACHOFFSETENABLE	TOGGLE	F	Ach Offset Enable
ACHOFFSET	QUANT	0	Ach Offset (V)
ACHFILTER	IQUANT	3	Ach Filter
IERANGELOWERLIMIT	IQUANT	1	I/E Range Lower Limit
IERANGEMODE	TOGGLE	F	I/E AutoRange
IERANGE	IQUANT	7	I/E Range
POSFEEDENABLE	TOGGLE	F	Positive Feedback IR Comp
POSFEEDRESISTANCE	QUANT	0	Positive Feedback Resistance (ohm)
ACHSELECT	IQUANT	0	Ach Select
CABLEID	IQUANT	14	Cable ID
DCCALDATE	LABEL	2/27/2020	DC Calibration Date
ACCALDATE	LABEL	2/27/2020	AC Calibration Date
THERMOSELECT	IQUANT	1	Thermo Select
FRAMEWORKVERSION	QUANT	6.33	Framework Version
INSTRUMENTVERSION	LABEL	3.50	Instrument Version
ZCURVE	TABLE
	Pt	Time	Freq	Zreal	Zimag	Zsig	Zmod	Zphz	Idc	Vdc	IERange
	#	s	Hz	ohm	ohm	V	ohm	°	A	V	#
	0	1	1000078	1775.954	-1988.939	1	2666.438	-48.23785	-3.792485E-008	0.0434344	8
	1	2	794390.6	2129.875	-2153.578	1	3028.906	-45.31705	7.390292E-008	0.0430522	8
	2	2	630984.4	2515.371	-2287.615	1	3400.041	-42.28508	5.84007E-009	0.0428599	8
	3	2	501234.4	2924.908	-2389.765	1	3777.044	-39.25018	3.650924E-008	0.0427436	8
	4	3	398109.4	3346.154	-2459.182	1	4152.629	-36.31321	5.729822E-009	0.0426851	8
	5	3	316265.6	3779.042	-2493.748	1	4527.685	-33.42038	4.039413E-008	0.0426455	8
	6	3	251203.1	4206.712	-2503.137	1	4895.112	-30.75409	3.332552E-008	0.0426511	8
	7	4	199546.9	4643.962	-2477.382	1	5263.44	-28.07827	4.124049E-008	0.042649	8
	8	4	158578.1	5070.784	-2426.522	1	5621.464	-25.57251	2.981962E-008	0.0426436	8
	9	4	125953.1	5554.959	-2244.979	1	5991.453	-22.00559	3.469136E-009	0.0425759	7
	10	5	100078.1	5907.622	-2121.534	1	6277.014	-19.75413	1.01105E-009	0.0425602	7
	11	5	79453.13	6247.922	-1988.342	1	6556.679	-17.65317	7.675574E-010	0.0425581	7
	12	5	63140.62	6545.823	-1837.049	1	6798.716	-15.67648	1.062442E-009	0.0425519	7
	13	6	50203.12	6800.18	-1682.076	1	7005.129	-13.89366	2.65194E-011	0.0425417	7
	14	6	39890.62	7014.499	-1534.854	1	7180.458	-12.34246	7.595956E-010	0.0425453	7
	15	6	31640.63	7194.816	-1403.289	1	7330.389	-11.03651	1.146991E-009	0.0425478	7
	16	6	25171.88	7343.359	-1294.637	1	7456.608	-9.99852	2.091344E-009	0.0425498	7
	17	7	20015.62	7468.337	-1211.572	1	7565.974	-9.214694	2.965673E-009	0.0425553	7
	18	7	15890.62	7573.629	-1155.51	1	7661.271	-8.67473	2.821276E-009	0.0425511	7
	19	7	12609.37	7666.393	-1127.529	1	7748.865	-8.366753	1.108859E-009	0.0425403	7
	20	8	10078.13	7748.234	-1136.435	1	7831.131	-8.344089	2.093217E-009	0.0425446	7
	21	8	8015.625	7822.376	-1179.643	1	7910.824	-8.575792	1.157771E-009	0.0425432	7
	22	8	6328.125	7899.754	-1266.675	1	8000.661	-9.109472	1.41656E-009	0.0425478	7
	23	9	5015.625	7974.098	-1397.47	1	8095.625	-9.94021	1.537047E-009	0.0425438	7
	24	9	3984.375	8049.333	-1575.897	1	8202.146	-11.07725	1.894133E-009	0.0425429	7
	25	9	3170.956	8131.511	-1814.184	1	8331.431	-12.57702	2.473267E-009	0.0425392	7
	26	10	2527.573	8220.903	-2116.092	1	8488.881	-14.4348	2.385909E-009	0.0425403	7
	27	10	1976.103	8329.443	-2533.593	1	8706.246	-16.91835	1.383585E-009	0.0425348	7
	28	10	1577.524	8456.153	-2999.691	1	8972.439	-19.53136	-2.577137E-010	0.0425921	6
	29	11	1265.625	8593.688	-3588.359	1	9312.776	-22.66334	-3.11145E-010	0.0425874	6
	30	11	998.264	8767.383	-4370.061	1	9796.14	-26.49374	-4.061793E-010	0.0425888	6
	31	11	796.875	8967.286	-5282.699	1	10407.65	-30.50267	-3.717821E-010	0.0425929	6
	32	12	627.7902	9233.882	-6471.101	1	11275.62	-35.02276	-1.648345E-010	0.042584	6
	33	12	505.5147	9535.13	-7791.59	1	12313.72	-39.25382	-5.944718E-010	0.0425839	6
	34	12	397.9953	9939.99	-9566.38	1	13795.61	-43.90274	4.072817E-010	0.042597	6
	35	13	315.5048	10437.68	-11685.02	1	15667.95	-48.22707	3.880397E-010	0.0426024	6
	36	13	252.4038	11038.12	-14164.76	1	17957.74	-52.07193	4.452027E-010	0.0425929	6
	37	13	198.6229	11854	-17415.25	1	21066.75	-55.75815	5.018599E-010	0.0425943	6
	38	14	158.3615	12840.41	-21167.26	1	24757.4	-58.7583	5.317021E-010	0.042588	6
	39	14	125.558	14140.48	-25839.15	1	29455.3	-61.31031	5.995363E-010	0.0425899	6
	40	14	100.4464	15751.95	-31272.23	1	35015.37	-63.26542	5.236772E-010	0.0425915	6
	41	15	79.00281	18033.59	-38354.71	1	42382.71	-64.81806	4.225078E-010	0.0425871	6
	42	15	63.3446	20788.27	-46186.93	1	50649.63	-65.76797	3.777532E-010	0.0425857	6
	43	15	49.86702	24729.68	-56326.08	1	61515.72	-66.29636	-8.944137E-012	0.0425846	6
	44	16	39.72458	29691.34	-67737.24	1	73958.84	-66.33067	2.171775E-010	0.0425904	6
	45	16	31.6723	36183.07	-81024.15	1	88736.28	-65.93583	4.407357E-010	0.0425871	6
	46	16	24.93351	45183.32	-97137.5	1	107131.8	-65.0546	-6.790339E-010	0.0425912	5
	47	17	19.86229	56171.68	-114563.7	1	127593.5	-63.88085	-9.092021E-010	0.042589	5
	48	17	15.83615	69911.72	-133848.1	1	151006.5	-62.42097	-1.041753E-010	0.0425931	5
	49	17	12.40079	88408.21	-156461.6	1	179711.6	-60.5315	-1.236197E-009	0.0426003	5
	50	17	9.93114	107977.5	-178397.2	1	208529.8	-58.81498	-8.081861E-010	0.0425892	5
	51	18	7.944915	130893	-201052.6	1	239906.5	-56.93432	1.148184E-009	0.0425925	5
	52	18	6.317385	157293.2	-226679	1	275906.7	-55.2431	-3.288494E-010	0.0426131	5
	53	19	5.008013	186565.4	-254201.6	1	315317.4	-53.72405	-4.863513E-010	0.0425925	5
	54	20	3.945707	218873.8	-283813.1	1	358407	-52.36095	1.494489E-010	0.0425951	5
	55	21	3.158693	251001.9	-315826.2	1	403420.6	-51.52419	-2.84305E-010	0.042585	5
	56	22	2.504006	286089.1	-352445	1	453943.2	-50.93283	5.00599E-011	0.0425761	5
	57	23	1.998082	322062.9	-394888.8	1	509570.1	-50.80004	2.185987E-010	0.042613	5
	58	25	1.584686	360595.9	-444575.1	1	572430.3	-50.95441	4.500537E-011	0.042566	5
	59	27	1.266892	402278.4	-502641.1	1	643798.1	-51.32869	-2.202247E-011	0.0425406	5
	60	29	0.999041	448933.4	-577595.1	1	731544.5	-52.14401	-4.995395E-011	0.0425402	5
