EXPLAIN
TAG	EISPOT
TITLE	LABEL	Potentiostatic EIS	Test &Identifier
DATE	LABEL	3/12/2020	Date
TIME	LABEL	14:21:29	Time
NOTES	NOTES	1	&Notes...
	
PSTAT	PSTAT	REF600-11020	Potentiostat
VDC	POTEN	0.00000E+000	T	DC &Voltage (V)
FREQINIT	QUANT	1.00000E+006	Initial Fre&q. (Hz)
FREQFINAL	QUANT	1.00000E+000	Final Fre&q. (Hz)
PTSPERDEC	QUANT	1.00000E+001	Points/&decade
VAC	QUANT	2.50000E+001	AC &Voltage (mV rms)
AREA	QUANT	2.50000E-001	&Area (cm^2)
CONDIT	TWOPARAM	F	5.00000E+000	0.00000E+000	Conditionin&g	Time(s)	E(V)
DELAY	TWOPARAM	T	5.00000E+000	0.00000E+000	Init. De&lay	Time(s)	Stab.(mV/s)
SPEED	SELECTOR	1	&Optimize for:
ZGUESS	QUANT	5.00000E+003	E&stimated Z (ohms)
OCVCURVE	TABLE	19
	Pt	T	Vf	Vm	Ach	Over
	#	s	V vs. Ref.	V	V	bits
	0	0.258333	7.67905E-003	7.67905E-003	5.83963E-004	...........
	1	0.516667	7.67760E-003	7.60299E-003	5.85863E-004	...........
	2	0.775	7.66209E-003	7.18602E-003	5.82097E-004	...........
	3	1.03333	7.59425E-003	6.67805E-003	5.84230E-004	...........
	4	1.29167	7.47539E-003	9.01160E-003	5.88096E-004	...........
	5	1.55	7.44504E-003	8.12223E-003	5.81597E-004	...........
	6	1.80833	7.61740E-003	7.58779E-003	5.84430E-004	...........
	7	2.06667	7.85578E-003	7.94243E-003	5.86630E-004	...........
	8	2.325	7.97103E-003	8.14935E-003	5.82330E-004	...........
	9	2.58333	7.98167E-003	8.10388E-003	5.80463E-004	...........
	10	2.84167	7.98816E-003	7.76093E-003	5.80730E-004	...........
	11	3.1	7.99624E-003	7.81016E-003	5.80797E-004	...........
	12	3.35833	7.96649E-003	7.84109E-003	5.87897E-004	...........
	13	3.61667	7.90641E-003	7.78039E-003	5.90363E-004	...........
	14	3.875	7.85021E-003	7.70687E-003	5.85630E-004	...........
	15	4.13333	7.80703E-003	7.66965E-003	5.88030E-004	...........
	16	4.39167	7.76608E-003	7.62505E-003	5.83397E-004	...........
	17	4.65	7.72406E-003	7.71332E-003	5.87830E-004	...........
	18	4.90833	7.68852E-003	7.54871E-003	5.81530E-004	...........
EOC	QUANT	0.0076885	Open Circuit (V)
PSTATMODEL	IQUANT	4	Pstat Model
PSTATSECTION	LABEL	REF600-11020	Pstat Section
PSTATSERIALNO	LABEL	11020	Pstat Serial Number
CTRLMODE	IQUANT	1	Control Mode
IESTAB	IQUANT	0	I/E Stability
CASPEED	IQUANT	1	Control Amp Speed
CONVENTION	IQUANT	1	Current Convention
ICHRANGE	IQUANT	2	Ich Range
ICHRANGEMODE	TOGGLE	F	Ich Auto Range
ICHOFFSETENABLE	TOGGLE	T	Ich Offset Enable
ICHOFFSET	QUANT	0	Ich Offset (V)
ICHFILTER	IQUANT	3	Ich Filter
VCHRANGE	IQUANT	2	Vch Range
VCHRANGEMODE	TOGGLE	F	Vch Auto Range
VCHOFFSETENABLE	TOGGLE	T	Vch Offset Enable
VCHOFFSET	QUANT	0	Vch Offset (V)
VCHFILTER	IQUANT	3	Vch Filter
ACHRANGE	IQUANT	2	Ach Range
ACHOFFSETENABLE	TOGGLE	F	Ach Offset Enable
ACHOFFSET	QUANT	0	Ach Offset (V)
ACHFILTER	IQUANT	3	Ach Filter
IERANGELOWERLIMIT	IQUANT	1	I/E Range Lower Limit
IERANGEMODE	TOGGLE	F	I/E AutoRange
IERANGE	IQUANT	6	I/E Range
POSFEEDENABLE	TOGGLE	F	Positive Feedback IR Comp
POSFEEDRESISTANCE	QUANT	0	Positive Feedback Resistance (ohm)
ACHSELECT	IQUANT	0	Ach Select
CABLEID	IQUANT	14	Cable ID
DCCALDATE	LABEL	2/27/2020	DC Calibration Date
ACCALDATE	LABEL	2/27/2020	AC Calibration Date
THERMOSELECT	IQUANT	1	Thermo Select
FRAMEWORKVERSION	QUANT	6.33	Framework Version
INSTRUMENTVERSION	LABEL	3.50	Instrument Version
ZCURVE	TABLE
	Pt	Time	Freq	Zreal	Zimag	Zsig	Zmod	Zphz	Idc	Vdc	IERange
	#	s	Hz	ohm	ohm	V	ohm	°	A	V	#
	0	1	1000078	1804.824	-2285.125	1	2911.904	-51.69783	3.981078E-007	0.0100971	8
	1	2	794390.6	2140.982	-2553.313	1	3332.148	-50.01979	3.237617E-006	0.0094371	8
	2	4	630984.4	2502.728	-2804.039	1	3758.494	-48.24968	-1.624491E-006	0.009767	8
	3	5	501234.4	2913.967	-3059.446	1	4225.094	-46.39513	1.336119E-006	0.0093162	8
	4	7	398109.4	3391.178	-3331.605	1	4753.913	-44.49229	3.895789E-006	0.0086216	8
	5	8	316265.6	3871.948	-3644.344	1	5317.257	-43.26553	1.460721E-006	0.0090526	8
	6	9	251203.1	4450.092	-3907.396	1	5922.083	-41.2847	1.256044E-006	0.0093018	8
	7	11	199546.9	5079.85	-4190.443	1	6585.187	-39.51973	1.871642E-006	0.0090357	8
	8	13	158578.1	5807.921	-4454.204	1	7319.281	-37.48528	1.850453E-006	0.0090321	8
	9	14	125953.1	6668.21	-4620.225	1	8112.429	-34.71705	-2.304757E-007	0.0097034	7
	10	16	100078.1	7495.203	-4748.464	1	8872.766	-32.35564	3.381523E-009	0.0093388	7
	11	17	79453.13	8370.221	-4807.57	1	9652.63	-29.87159	6.512094E-009	0.0092765	7
	12	19	63140.62	9259.287	-4770.741	1	10416.06	-27.25926	8.143731E-008	0.0092395	7
	13	20	50203.12	10103.41	-4625.425	1	11111.86	-24.59869	6.544684E-009	0.0093217	7
	14	22	39890.62	10890.86	-4413.135	1	11751.03	-22.0585	1.762111E-008	0.0093516	7
	15	23	31640.63	11594.96	-4124.381	1	12306.65	-19.58072	3.747811E-009	0.0092829	7
	16	25	25171.88	12223.69	-3836.877	1	12811.73	-17.42647	2.461268E-008	0.00934	7
	17	26	20015.62	12756.23	-3536.238	1	13237.31	-15.49426	3.10031E-008	0.0093434	7
	18	28	15890.62	13204.45	-3250.276	1	13598.6	-13.82844	1.868337E-008	0.0093379	7
	19	29	12609.37	13624.25	-2888.576	1	13927.1	-11.97043	8.66022E-009	0.0091983	6
	20	31	10078.13	13935.79	-2701.703	1	14195.26	-10.97171	-5.087311E-009	0.0094596	6
	21	33	8015.625	14190.64	-2559.204	1	14419.57	-10.22309	-1.574131E-009	0.009352	6
	22	34	6328.125	14418.27	-2472.158	1	14628.68	-9.72933	-2.318919E-009	0.0094403	6
	23	36	5015.625	14615.54	-2456.77	1	14820.59	-9.54182	2.125247E-009	0.0094263	6
	24	37	3984.375	14788.71	-2513.908	1	15000.86	-9.64739	-4.471465E-009	0.0094736	6
	25	39	3170.956	14947.28	-2652.584	1	15180.82	-10.0631	-1.795959E-009	0.0093582	6
	26	40	2527.573	15111.9	-2878.273	1	15383.56	-10.78363	-1.848855E-009	0.009363	6
	27	42	1976.103	15278.16	-3236.291	1	15617.16	-11.95988	7.696885E-009	0.0091937	6
	28	44	1577.524	15454.83	-3686.079	1	15888.33	-13.4148	4.411222E-010	0.0094331	6
	29	45	1265.625	15646.39	-4252.639	1	16214.02	-15.20549	3.518105E-010	0.0094355	6
	30	47	998.264	15869.29	-5027.076	1	16646.49	-17.57717	-4.612394E-010	0.0094429	6
	31	48	796.875	16115.68	-5949.038	1	17178.65	-20.26142	-9.725044E-010	0.0093616	6
	32	49	627.7902	16439	-7165.769	1	17932.9	-23.55242	7.463728E-009	0.0093026	6
	33	51	505.5147	16796.33	-8529.359	1	18837.91	-26.92196	7.010386E-009	0.0093172	6
	34	52	397.9953	17265.8	-10363.21	1	20137.13	-30.97286	1.005804E-009	0.0093861	6
	35	54	315.5048	17835.61	-12553.82	1	21810.71	-35.14029	5.010382E-010	0.0093791	6
	36	55	252.4038	18513.05	-15113.93	1	23899.03	-39.22797	1.200788E-009	0.0093843	6
	37	56	198.6229	19413.29	-18468.04	1	26794.49	-43.5706	7.612904E-010	0.0093799	6
	38	58	158.3615	20489.19	-22323.58	1	30300.97	-47.45343	5.381875E-010	0.009378	6
	39	59	125.558	21856.07	-27101.88	1	34816.66	-51.11587	4.102705E-010	0.0093774	6
	40	60	100.4464	23483.95	-32660.37	1	40226.8	-54.28254	9.13679E-010	0.0093719	6
	41	62	79.00281	25713.21	-39826.11	1	47405.57	-57.15222	1.367887E-010	0.0093759	6
	42	63	63.3446	27936.97	-47717.7	1	55294.23	-59.65259	5.015111E-010	0.0093734	6
	43	65	49.86702	32345.96	-58141.53	1	66533.44	-60.91143	8.767178E-010	0.0093739	6
	44	66	39.72458	36588.94	-70287.37	1	79240.55	-62.50023	2.313191E-010	0.0093834	6
	45	67	31.6723	42258.71	-84626.38	1	94590.81	-63.46446	2.204849E-010	0.009377	6
	46	69	24.93351	50237.44	-102212.6	1	113891.3	-63.82591	5.766997E-010	0.0093786	5
	47	70	19.86229	60027.48	-121968	1	135939.3	-63.79555	-2.280466E-010	0.0093809	5
	48	72	15.83615	73962.94	-145613.2	1	163320.9	-63.07212	-9.218625E-010	0.0093839	5
	49	73	12.40079	90049.18	-172924.7	1	194966.2	-62.49211	2.674111E-011	0.0093856	5
	50	75	9.93114	111039.5	-201377	1	229961.9	-61.12761	6.976641E-010	0.0093807	5
	51	76	7.944915	135712.8	-231586.4	1	268421.7	-59.62912	-6.274242E-010	0.0093843	5
	52	78	6.317385	167170.8	-266554.4	1	314638.4	-57.90593	5.880433E-010	0.0093731	5
	53	80	5.008013	204585.8	-303065.7	1	365655.7	-55.97852	2.54918E-010	0.0093868	5
	54	82	3.945707	248357.9	-341975.9	1	422645.5	-54.0112	-2.403599E-010	0.0093642	5
	55	85	3.158693	293536.5	-378993.3	1	479374.2	-52.24163	4.009844E-010	0.009389	5
	56	88	2.504006	345303.7	-420356.6	1	543998.4	-50.59846	-2.517366E-010	0.0093656	5
	57	91	1.998082	398548.8	-462037.7	1	610180.3	-49.2193	-1.417974E-010	0.0093528	5
	58	94	1.584686	454892.4	-506985.7	1	681147.3	-48.09999	3.751266E-011	0.0094285	5
	59	98	1.266892	512057.3	-559741.6	1	758625.9	-47.54741	-1.783728E-010	0.0093772	5
	60	102	0.999041	575716.1	-622452.2	1	847877.3	-47.23376	3.950975E-010	0.0094071	5
