EXPLAIN
TAG	EISPOT
TITLE	LABEL	Potentiostatic EIS	Test &Identifier
DATE	LABEL	7/30/2020	Date
TIME	LABEL	22:26:01	Time
NOTES	NOTES	1	&Notes...
	
PSTAT	PSTAT	REF600-11020	Potentiostat
VDC	POTEN	0.00000E+000	T	DC &Voltage (V)
FREQINIT	QUANT	1.00000E+006	Initial Fre&q. (Hz)
FREQFINAL	QUANT	1.00000E+000	Final Fre&q. (Hz)
PTSPERDEC	QUANT	1.00000E+001	Points/&decade
VAC	QUANT	2.50000E+001	AC &Voltage (mV rms)
AREA	QUANT	4.00000E-005	&Area (cm^2)
CONDIT	TWOPARAM	F	5.00000E+000	0.00000E+000	Conditionin&g	Time(s)	E(V)
DELAY	TWOPARAM	F	3.00000E+000	0.00000E+000	Init. De&lay	Time(s)	Stab.(mV/s)
SPEED	SELECTOR	0	&Optimize for:
ZGUESS	QUANT	1.00000E+003	E&stimated Z (ohms)
OCVCURVE	TABLE	39
	Pt	T	Vf	Vm	Ach	Over
	#	s	V vs. Ref.	V	V	bits
	0	0.258333	-3.15406E-003	-3.15406E-003	5.97312E-004	...........
	1	0.516667	-3.15372E-003	-3.13608E-003	5.96545E-004	...........
	2	0.775	-3.15152E-003	-3.11444E-003	5.97412E-004	...........
	3	1.03333	-3.14506E-003	-3.09631E-003	5.91679E-004	...........
	4	1.29167	-3.13349E-003	-3.09572E-003	5.96245E-004	...........
	5	1.55	-3.11894E-003	-3.07176E-003	5.95912E-004	...........
	6	1.80833	-3.10434E-003	-3.07010E-003	5.95212E-004	...........
	7	2.06667	-3.09086E-003	-3.04989E-003	5.95179E-004	...........
	8	2.325	-3.07859E-003	-3.05781E-003	5.95779E-004	...........
	9	2.58333	-3.06743E-003	-3.01773E-003	5.96245E-004	...........
	10	2.84167	-3.05588E-003	-2.99392E-003	6.01045E-004	...........
	11	3.1	-3.04255E-003	-3.05760E-003	5.91679E-004	...........
	12	3.35833	-3.03160E-003	-3.05148E-003	5.96579E-004	...........
	13	3.61667	-3.03004E-003	-3.06996E-003	5.94079E-004	...........
	14	3.875	-3.03834E-003	-3.06871E-003	5.90912E-004	...........
	15	4.13333	-3.05016E-003	-3.05779E-003	5.96212E-004	...........
	16	4.39167	-3.05885E-003	-3.04349E-003	5.94979E-004	...........
	17	4.65	-3.06064E-003	-3.03015E-003	5.90012E-004	...........
	18	4.90833	-3.05533E-003	-3.02105E-003	5.92579E-004	...........
	19	5.16667	-3.04508E-003	-2.99492E-003	5.90279E-004	...........
	20	5.425	-3.03163E-003	-2.96894E-003	5.91012E-004	...........
	21	5.68333	-3.01532E-003	-2.96662E-003	5.97479E-004	...........
	22	5.94167	-2.99724E-003	-2.94513E-003	5.93879E-004	...........
	23	6.2	-2.97946E-003	-2.92873E-003	5.96112E-004	...........
	24	6.45833	-2.96308E-003	-2.92823E-003	5.96012E-004	...........
	25	6.71667	-2.94833E-003	-2.90818E-003	5.92745E-004	...........
	26	6.975	-2.93514E-003	-2.89269E-003	5.90279E-004	...........
	27	7.23333	-2.92228E-003	-2.87076E-003	5.94945E-004	...........
	28	7.49167	-2.90799E-003	-2.85347E-003	6.03279E-004	...........
	29	7.75	-2.89125E-003	-2.81752E-003	5.90879E-004	...........
	30	8.00833	-2.87170E-003	-2.80535E-003	5.93679E-004	...........
	31	8.26667	-2.84988E-003	-2.78407E-003	5.96312E-004	...........
	32	8.525	-2.82749E-003	-2.76346E-003	5.93645E-004	...........
	33	8.78333	-2.80625E-003	-2.76016E-003	5.97945E-004	...........
	34	9.04167	-2.78738E-003	-2.74585E-003	5.97145E-004	...........
	35	9.3	-2.77125E-003	-2.71706E-003	6.01779E-004	...........
	36	9.5583	-2.75644E-003	-2.70882E-003	6.00112E-004	...........
	37	9.8167	-2.74128E-003	-2.70555E-003	5.97045E-004	...........
	38	10.075	-2.72686E-003	-2.70983E-003	6.01112E-004	...........
EOC	QUANT	-0.0027269	Open Circuit (V)
PSTATMODEL	IQUANT	4	Pstat Model
PSTATSECTION	LABEL	REF600-11020	Pstat Section
PSTATSERIALNO	LABEL	11020	Pstat Serial Number
CTRLMODE	IQUANT	1	Control Mode
IESTAB	IQUANT	0	I/E Stability
CASPEED	IQUANT	1	Control Amp Speed
CONVENTION	IQUANT	1	Current Convention
ICHRANGE	IQUANT	2	Ich Range
ICHRANGEMODE	TOGGLE	F	Ich Auto Range
ICHOFFSETENABLE	TOGGLE	T	Ich Offset Enable
ICHOFFSET	QUANT	0	Ich Offset (V)
ICHFILTER	IQUANT	3	Ich Filter
VCHRANGE	IQUANT	2	Vch Range
VCHRANGEMODE	TOGGLE	F	Vch Auto Range
VCHOFFSETENABLE	TOGGLE	T	Vch Offset Enable
VCHOFFSET	QUANT	0	Vch Offset (V)
VCHFILTER	IQUANT	3	Vch Filter
ACHRANGE	IQUANT	2	Ach Range
ACHOFFSETENABLE	TOGGLE	F	Ach Offset Enable
ACHOFFSET	QUANT	0	Ach Offset (V)
ACHFILTER	IQUANT	1	Ach Filter
IERANGELOWERLIMIT	IQUANT	1	I/E Range Lower Limit
IERANGEMODE	TOGGLE	F	I/E AutoRange
IERANGE	IQUANT	6	I/E Range
POSFEEDENABLE	TOGGLE	F	Positive Feedback IR Comp
POSFEEDRESISTANCE	QUANT	0	Positive Feedback Resistance (ohm)
ACHSELECT	IQUANT	0	Ach Select
CABLEID	IQUANT	14	Cable ID
DCCALDATE	LABEL	6/26/2020	DC Calibration Date
ACCALDATE	LABEL	6/26/2020	AC Calibration Date
THERMOSELECT	IQUANT	1	Thermo Select
FRAMEWORKVERSION	QUANT	6.33	Framework Version
INSTRUMENTVERSION	LABEL	3.50	Instrument Version
ZCURVE	TABLE
	Pt	Time	Freq	Zreal	Zimag	Zsig	Zmod	Zphz	Idc	Vdc	IERange
	#	s	Hz	ohm	ohm	V	ohm	°	A	V	#
	0	2	1000078	1368.713	-2083.795	1	2493.106	-56.70163	3.951923E-008	-0.0003005	8
	1	2	794390.6	1623.429	-2392.701	1	2891.46	-55.84342	7.884619E-008	-0.0007124	8
	2	2	630984.4	1922.923	-2731.439	1	3340.418	-54.8546	-7.867519E-008	-0.0008127	8
	3	2	501234.4	2267.523	-3100.6	1	3841.273	-53.82134	3.150282E-009	-0.0009331	8
	4	3	398109.4	2656.931	-3512.746	1	4404.392	-52.89728	2.689281E-008	-0.0010131	8
	5	3	316265.6	3097.31	-3943.827	1	5014.689	-51.85545	4.148488E-008	-0.0010362	8
	6	3	251203.1	3595.743	-4426.556	1	5702.961	-50.91264	2.502389E-008	-0.001071	8
	7	4	199546.9	4108.704	-4963.027	1	6443.065	-50.37992	6.693569E-008	-0.0010564	8
	8	4	158578.1	4689.562	-5594.793	1	7300.254	-50.03022	3.349526E-008	-0.0010712	8
	9	4	125953.1	5370.018	-6299.896	1	8278.03	-49.5558	-4.715877E-010	-0.0010504	7
	10	5	100078.1	6117.469	-7140.874	1	9402.951	-49.41388	-1.408361E-009	-0.0010911	7
	11	5	79453.13	6967.33	-8106.548	1	10689.24	-49.32195	-1.252394E-009	-0.0011014	7
	12	5	63140.62	7988.762	-9207.475	1	12190.07	-49.05383	-1.304913E-009	-0.0011009	7
	13	5	50203.12	9188.961	-10431.8	1	13901.78	-48.62444	-7.837331E-010	-0.0011059	7
	14	6	39890.62	10640.12	-11755.64	1	15855.83	-47.8515	-1.29146E-009	-0.0011106	7
	15	6	31640.63	12339.75	-13127.69	1	18016.82	-46.77213	-2.200653E-009	-0.0011101	7
	16	6	25171.88	14271.64	-14546.2	1	20378.21	-45.54588	-2.190811E-009	-0.0011133	7
	17	7	20015.62	16404.49	-15964.9	1	22890.72	-44.22194	-1.245523E-009	-0.0011091	7
	18	7	15890.62	18758.38	-17370.43	1	25565.77	-42.79997	-1.484465E-009	-0.0011148	7
	19	7	12609.37	21292.47	-18734.71	1	28361.22	-41.34374	-1.185388E-010	-0.0011237	6
	20	8	10078.13	23774.44	-20171.09	1	31178.46	-40.31248	4.163437E-011	-0.0011265	6
	21	8	8015.625	26379.31	-21780.04	1	34208.75	-39.54473	2.324383E-010	-0.0011224	6
	22	8	6328.125	29161.05	-23674.49	1	37561.26	-39.07153	1.614902E-010	-0.0011239	6
	23	9	5015.625	32035.6	-25866.85	1	41174.92	-38.91882	-1.212929E-011	-0.0011254	6
	24	9	3984.375	35102.66	-28476.72	1	45200.89	-39.05038	8.741499E-011	-0.0011261	6
	25	9	3170.956	38472.02	-31530.34	1	49741.92	-39.33687	6.521702E-011	-0.0011285	6
	26	9	2527.573	42255.2	-35085.49	1	54922.61	-39.70365	5.755107E-011	-0.0011307	6
	27	10	1976.103	47013.7	-39540.22	1	61430.59	-40.06505	2.202286E-010	-0.0011268	6
	28	10	1577.524	52084.48	-44010.11	1	68188.59	-40.19699	-1.422455E-010	-0.0011304	6
	29	10	1265.625	57818.4	-48839.15	1	75685.07	-40.18775	1.278829E-010	-0.0011252	6
	30	11	998.264	64925.66	-54372.32	1	84685.84	-39.94466	8.601577E-011	-0.0011313	6
	31	11	796.875	72463.24	-59711.84	1	93895.82	-39.48952	1.083785E-011	-0.0011343	6
	32	11	627.7902	81671.28	-65264.09	1	104544.7	-38.62859	1.130614E-010	-0.0011417	5
	33	12	505.5147	90394.99	-70780.94	1	114809.4	-38.0616	6.056244E-011	-0.0011485	5
	34	12	397.9953	100710.2	-77077.63	1	126820.7	-37.42832	1.760911E-010	-0.0011162	5
	35	12	315.5048	111315.7	-83504.85	1	139155.5	-36.87584	1.628625E-010	-0.0011163	5
	36	13	252.4038	121983.6	-90059.03	1	151626.6	-36.438	1.599489E-010	-0.0011187	5
	37	13	198.6229	134026.6	-97863.5	1	165953	-36.13617	1.460218E-010	-0.0011164	5
	38	13	158.3615	145643.9	-105929.2	1	180092	-36.029	1.37296E-010	-0.0011211	5
	39	13	125.558	157743	-115479.8	1	195495.3	-36.20693	1.399245E-010	-0.0011191	5
	40	14	100.4464	169283.3	-126230.8	1	211166	-36.71109	1.474968E-010	-0.0011186	5
	41	14	79.00281	181714.5	-140631.2	1	229776.6	-37.73676	1.493861E-010	-0.0011208	5
	42	14	63.3446	193364.6	-157254.9	1	249236.8	-39.11992	1.360616E-010	-0.0011205	5
	43	15	49.86702	206999.6	-180231.1	1	274466.9	-41.04554	9.521481E-011	-0.0011251	5
	44	15	39.72458	221548.7	-207958	1	303859.2	-43.18762	8.621027E-011	-0.0011206	5
	45	15	31.6723	238444.3	-241798.4	1	339591.1	-45.40016	1.968255E-010	-0.0011198	5
	46	16	24.93351	260336.6	-285718.7	1	386536.3	-47.66135	1.409661E-010	-0.0011249	5
	47	16	19.86229	286632.8	-336255.5	1	441843.9	-49.55488	3.061599E-010	-0.0011218	5
	48	16	15.83615	319255.6	-394750.5	1	507692.9	-51.0357	1.66389E-010	-0.0011255	5
	49	17	12.40079	364563.7	-469032.7	1	594052.5	-52.14326	1.882389E-010	-0.0011262	5
	50	17	9.93114	416095.5	-547643	1	687785.1	-52.77267	1.962945E-010	-0.0011198	5
	51	17	7.944915	481456.2	-636605.6	1	798164.6	-52.90028	4.427778E-011	-0.0011168	5
	52	18	6.317385	565999.4	-738360.3	1	930339.3	-52.52757	7.508236E-011	-0.0011247	5
	53	18	5.008013	674921.6	-852326.5	1	1087189	-51.62577	1.106446E-010	-0.0011366	4
	54	19	3.945707	813516.6	-971981	1	1267500	-50.07175	1.419904E-010	-0.0011284	4
	55	20	3.158693	969232	-1083976	1	1454102	-48.19867	8.332887E-011	-0.0011403	4
	56	21	2.504006	1157874	-1190137	1	1660451	-45.78722	9.896108E-011	-0.0011479	4
	57	22	1.998082	1364507	-1282881	1	1872875	-43.23398	1.389844E-010	-0.0011071	4
	58	24	1.584686	1590644	-1362214	1	2094224	-40.57646	8.761886E-011	-0.0011368	4
	59	26	1.266892	1825165	-1418005	1	2311269	-37.8443	5.150811E-011	-0.0011664	4
	60	28	0.999041	2084040	-1458883	1	2543927	-34.99304	2.659939E-011	-0.0011907	4
