EXPLAIN
TAG	EISPOT
TITLE	LABEL	Potentiostatic EIS	Test &Identifier
DATE	LABEL	3/20/2020	Date
TIME	LABEL	14:37:13	Time
NOTES	NOTES	1	&Notes...
	
PSTAT	PSTAT	REF600-11020	Potentiostat
VDC	POTEN	0.00000E+000	T	DC &Voltage (V)
FREQINIT	QUANT	1.00000E+006	Initial Fre&q. (Hz)
FREQFINAL	QUANT	1.00000E+000	Final Fre&q. (Hz)
PTSPERDEC	QUANT	1.00000E+001	Points/&decade
VAC	QUANT	2.50000E+001	AC &Voltage (mV rms)
AREA	QUANT	4.00000E-004	&Area (cm^2)
CONDIT	TWOPARAM	F	5.00000E+000	0.00000E+000	Conditionin&g	Time(s)	E(V)
DELAY	TWOPARAM	T	3.00000E+000	0.00000E+000	Init. De&lay	Time(s)	Stab.(mV/s)
SPEED	SELECTOR	0	&Optimize for:
ZGUESS	QUANT	1.00000E+003	E&stimated Z (ohms)
OCVCURVE	TABLE	12
	Pt	T	Vf	Vm	Ach	Over
	#	s	V vs. Ref.	V	V	bits
	0	0.258333	-2.23706E-001	-2.23706E-001	5.88763E-004	...........
	1	0.516667	-2.23706E-001	-2.23717E-001	5.87897E-004	...........
	2	0.775	-2.23708E-001	-2.23726E-001	5.85630E-004	...........
	3	1.03333	-2.23711E-001	-2.23714E-001	5.90863E-004	...........
	4	1.29167	-2.23714E-001	-2.23704E-001	5.86663E-004	...........
	5	1.55	-2.23715E-001	-2.23676E-001	5.86896E-004	...........
	6	1.80833	-2.23708E-001	-2.23568E-001	5.81663E-004	...........
	7	2.06667	-2.23679E-001	-2.23151E-001	5.83297E-004	...........
	8	2.325	-2.23598E-001	-2.22902E-001	5.86663E-004	...........
	9	2.58333	-2.23440E-001	-2.22709E-001	5.86096E-004	...........
	10	2.84167	-2.23219E-001	-2.22560E-001	5.87096E-004	...........
	11	3.1	-2.22982E-001	-2.22428E-001	5.83163E-004	...........
EOC	QUANT	-0.2229824	Open Circuit (V)
PSTATMODEL	IQUANT	4	Pstat Model
PSTATSECTION	LABEL	REF600-11020	Pstat Section
PSTATSERIALNO	LABEL	11020	Pstat Serial Number
CTRLMODE	IQUANT	1	Control Mode
IESTAB	IQUANT	0	I/E Stability
CASPEED	IQUANT	1	Control Amp Speed
CONVENTION	IQUANT	1	Current Convention
ICHRANGE	IQUANT	2	Ich Range
ICHRANGEMODE	TOGGLE	F	Ich Auto Range
ICHOFFSETENABLE	TOGGLE	T	Ich Offset Enable
ICHOFFSET	QUANT	0	Ich Offset (V)
ICHFILTER	IQUANT	3	Ich Filter
VCHRANGE	IQUANT	2	Vch Range
VCHRANGEMODE	TOGGLE	F	Vch Auto Range
VCHOFFSETENABLE	TOGGLE	T	Vch Offset Enable
VCHOFFSET	QUANT	0	Vch Offset (V)
VCHFILTER	IQUANT	3	Vch Filter
ACHRANGE	IQUANT	2	Ach Range
ACHOFFSETENABLE	TOGGLE	F	Ach Offset Enable
ACHOFFSET	QUANT	0	Ach Offset (V)
ACHFILTER	IQUANT	3	Ach Filter
IERANGELOWERLIMIT	IQUANT	1	I/E Range Lower Limit
IERANGEMODE	TOGGLE	F	I/E AutoRange
IERANGE	IQUANT	8	I/E Range
POSFEEDENABLE	TOGGLE	F	Positive Feedback IR Comp
POSFEEDRESISTANCE	QUANT	0	Positive Feedback Resistance (ohm)
ACHSELECT	IQUANT	0	Ach Select
CABLEID	IQUANT	14	Cable ID
DCCALDATE	LABEL	2/27/2020	DC Calibration Date
ACCALDATE	LABEL	2/27/2020	AC Calibration Date
THERMOSELECT	IQUANT	1	Thermo Select
FRAMEWORKVERSION	QUANT	6.33	Framework Version
INSTRUMENTVERSION	LABEL	3.50	Instrument Version
ZCURVE	TABLE
	Pt	Time	Freq	Zreal	Zimag	Zsig	Zmod	Zphz	Idc	Vdc	IERange
	#	s	Hz	ohm	ohm	V	ohm	°	A	V	#
	0	1	1000078	1478.326	-2647.829	1	3032.564	-60.82466	-4.496804E-007	-0.2206506	8
	1	2	794390.6	1834.394	-3096.875	1	3599.395	-59.36017	-4.402077E-008	-0.2209699	8
	2	2	630984.4	2290.471	-3577.278	1	4247.727	-57.36924	3.421052E-007	-0.2211996	8
	3	2	501234.4	2858.644	-4084.259	1	4985.28	-55.01115	-2.920425E-007	-0.2212244	8
	4	3	398109.4	3574.925	-4577.517	1	5808.076	-52.01106	4.847704E-007	-0.2213372	8
	5	3	316265.6	4431.307	-5042.657	1	6713.037	-48.69215	1.686163E-007	-0.2213636	8
	6	3	251203.1	5426.976	-5400.333	1	7656.086	-44.85901	2.323788E-007	-0.2213715	8
	7	3	199546.9	6502.532	-5623.401	1	8596.835	-40.85331	4.754177E-007	-0.2214046	8
	8	4	158578.1	7639.477	-5650.245	1	9501.94	-36.48706	1.006426E-007	-0.221349	8
	9	4	125953.1	8875.402	-5436.106	1	10407.88	-31.48711	7.08101E-009	-0.2214081	7
	10	4	100078.1	9866.63	-5141.354	1	11125.82	-27.52334	-2.293014E-009	-0.2214	7
	11	5	79453.13	10783.47	-4771.34	1	11791.9	-23.86786	2.05289E-009	-0.2214185	7
	12	5	63140.62	11543.78	-4327.467	1	12328.25	-20.54973	3.497783E-009	-0.221425	7
	13	5	50203.12	12164.51	-3867.384	1	12764.48	-17.63669	-2.943095E-009	-0.2214147	7
	14	6	39890.62	12665.45	-3419.365	1	13118.9	-15.10829	-1.87842E-009	-0.2214231	7
	15	6	31640.63	13071.92	-3010.334	1	13414.07	-12.96855	-2.55039E-009	-0.2214195	7
	16	6	25171.88	13399.09	-2658.376	1	13660.25	-11.22174	1.171843E-008	-0.2214361	7
	17	7	20015.62	13656.15	-2362.643	1	13859.02	-9.81555	1.187065E-008	-0.2214488	7
	18	7	15890.62	13867.62	-2122.243	1	14029.07	-8.700808	2.145099E-009	-0.2214185	7
	19	7	12609.37	14118.88	-1743.717	1	14226.14	-7.040524	-8.816295E-011	-0.2213834	6
	20	8	10078.13	14253.74	-1646.733	1	14348.54	-6.590161	-4.929061E-010	-0.2213633	6
	21	8	8015.625	14370.13	-1592.176	1	14458.06	-6.322451	4.395564E-010	-0.221369	6
	22	8	6328.125	14488.73	-1587.208	1	14575.41	-6.251698	1.197469E-009	-0.2214028	6
	23	9	5015.625	14599.86	-1627.796	1	14690.33	-6.361857	1.551561E-010	-0.2213985	6
	24	9	3984.375	14707.33	-1721.712	1	14807.76	-6.676933	-7.782484E-010	-0.2213696	6
	25	9	3170.956	14812.41	-1871.236	1	14930.13	-7.199978	-9.69532E-010	-0.221379	6
	26	9	2527.573	14921.22	-2079.307	1	15065.4	-7.933212	-9.128071E-010	-0.2213807	6
	27	10	1976.103	15042.86	-2387.825	1	15231.2	-9.019581	-9.515502E-010	-0.2213865	6
	28	10	1577.524	15167.85	-2756.278	1	15416.25	-10.29931	-9.234274E-010	-0.2213791	6
	29	10	1265.625	15295.99	-3215.327	1	15630.28	-11.87115	-6.480836E-010	-0.2213791	6
	30	11	998.264	15457.88	-3836.922	1	15926.96	-13.9401	-1.231697E-010	-0.2213932	6
	31	11	796.875	15636.8	-4574.904	1	16292.3	-16.30805	-1.906743E-010	-0.2213971	6
	32	11	627.7902	15865.41	-5541.227	1	16805.25	-19.25251	9.095995E-010	-0.2214202	6
	33	12	505.5147	16113.48	-6622.666	1	17421.36	-22.34275	-6.560517E-010	-0.2213792	6
	34	12	397.9953	16435.87	-8087.984	1	18318.12	-26.20149	2.971992E-010	-0.221372	6
	35	12	315.5048	16830.32	-9838.8	1	19495.17	-30.31004	1.397348E-010	-0.2213728	6
	36	13	252.4038	17292.12	-11892.51	1	20986.88	-34.51793	1.203595E-010	-0.2213758	6
	37	13	198.6229	17911.31	-14592.47	1	23103.14	-39.16994	1.049356E-010	-0.2213735	6
	38	13	158.3615	18650.83	-17714.24	1	25722.52	-43.52465	4.994585E-011	-0.2213767	6
	39	14	125.558	19599.34	-21611.31	1	29175.04	-47.79505	-2.554476E-011	-0.2213765	6
	40	14	100.4464	20753.78	-26160.89	1	33393.28	-51.57457	-3.532047E-011	-0.2213769	6
	41	14	79.00281	22328.27	-32125.87	1	39123.18	-55.19975	-8.380525E-011	-0.221379	6
	42	15	63.3446	24162.28	-38762.79	1	45676.79	-58.06319	-7.917431E-011	-0.2213805	6
	43	15	49.86702	26718.18	-47498.02	1	54497	-60.64175	-1.093504E-010	-0.2213839	6
	44	15	39.72458	29836.49	-57575.5	1	64847.16	-62.60613	7.583189E-011	-0.2213826	6
	45	16	31.6723	33835.43	-69614.53	1	77401.67	-64.07841	-4.441963E-010	-0.2213834	6
	46	16	24.93351	39328.53	-84933.9	1	93597.55	-65.15356	1.137799E-010	-0.2213874	6
	47	16	19.86229	46147.01	-102237.7	1	112169.9	-65.70702	4.303808E-010	-0.2213778	5
	48	17	15.83615	55013.98	-122825.9	1	134583.5	-65.87228	-4.144207E-010	-0.2213804	5
	49	17	12.40079	67702.61	-148790.1	1	163469.1	-65.53348	4.420955E-010	-0.2213797	5
	50	17	9.93114	82419.22	-176145.8	1	194474.3	-64.92494	2.767762E-010	-0.2213704	5
	51	17	7.944915	101310.9	-207458.6	1	230874.4	-63.97176	-8.671103E-010	-0.2213745	5
	52	18	6.317385	125757.4	-243580	1	274127.9	-62.69324	-7.8806E-011	-0.2213885	5
	53	19	5.008013	156541.8	-284306.3	1	324554.2	-61.1624	-1.386853E-011	-0.2213753	5
	54	20	3.945707	194927.2	-329224.6	1	382603.5	-59.37109	-5.149156E-010	-0.2213863	5
	55	20	3.158693	237701.5	-374708	1	443743.3	-57.6104	-1.726266E-010	-0.2213816	5
	56	22	2.504006	288960.5	-424428.3	1	513456.4	-55.75207	-3.615171E-010	-0.2213757	5
	57	23	1.998082	345736.3	-476197.3	1	588470.5	-54.01901	-5.467002E-010	-0.2214281	5
	58	24	1.584686	410136.5	-531056.8	1	670994.3	-52.321	-4.628476E-010	-0.221387	5
	59	26	1.266892	481281.6	-587902.3	1	759776.9	-50.6948	-3.887893E-010	-0.2213616	5
	60	29	0.999041	564376.4	-654770.1	1	864433.1	-49.24044	-3.562683E-010	-0.2213633	5
