EXPLAIN
TAG	EISPOT
TITLE	LABEL	Potentiostatic EIS	Test &Identifier
DATE	LABEL	5/26/2020	Date
TIME	LABEL	18:27:05	Time
NOTES	NOTES	1	&Notes...
	
PSTAT	PSTAT	REF600-11020	Potentiostat
VDC	POTEN	0.00000E+000	T	DC &Voltage (V)
FREQINIT	QUANT	1.00000E+006	Initial Fre&q. (Hz)
FREQFINAL	QUANT	1.00000E+000	Final Fre&q. (Hz)
PTSPERDEC	QUANT	1.00000E+001	Points/&decade
VAC	QUANT	2.50000E+001	AC &Voltage (mV rms)
AREA	QUANT	5.00000E-004	&Area (cm^2)
CONDIT	TWOPARAM	F	5.00000E+000	0.00000E+000	Conditionin&g	Time(s)	E(V)
DELAY	TWOPARAM	T	3.00000E+000	0.00000E+000	Init. De&lay	Time(s)	Stab.(mV/s)
SPEED	SELECTOR	0	&Optimize for:
ZGUESS	QUANT	1.00000E+003	E&stimated Z (ohms)
OCVCURVE	TABLE	12
	Pt	T	Vf	Vm	Ach	Over
	#	s	V vs. Ref.	V	V	bits
	0	0.258333	-1.28501E-001	-1.28501E-001	5.95596E-004	...........
	1	0.516667	-1.28577E-001	-1.32452E-001	5.94763E-004	...........
	2	0.775	-1.29034E-001	-1.35851E-001	5.90263E-004	...........
	3	1.03333	-1.30302E-001	-1.39023E-001	5.88696E-004	...........
	4	1.29167	-1.32528E-001	-1.42389E-001	5.92630E-004	...........
	5	1.55	-1.35449E-001	-1.45551E-001	5.92030E-004	...........
	6	1.80833	-1.38689E-001	-1.48758E-001	5.93796E-004	...........
	7	2.06667	-1.41996E-001	-1.51873E-001	5.92863E-004	...........
	8	2.325	-1.45263E-001	-1.55081E-001	5.92330E-004	...........
	9	2.58333	-1.48475E-001	-1.58117E-001	5.96163E-004	...........
	10	2.84167	-1.51640E-001	-1.61076E-001	5.94530E-004	...........
	11	3.1	-1.54759E-001	-1.64110E-001	5.95230E-004	...........
EOC	QUANT	-0.1547595	Open Circuit (V)
PSTATMODEL	IQUANT	4	Pstat Model
PSTATSECTION	LABEL	REF600-11020	Pstat Section
PSTATSERIALNO	LABEL	11020	Pstat Serial Number
CTRLMODE	IQUANT	1	Control Mode
IESTAB	IQUANT	0	I/E Stability
CASPEED	IQUANT	1	Control Amp Speed
CONVENTION	IQUANT	1	Current Convention
ICHRANGE	IQUANT	2	Ich Range
ICHRANGEMODE	TOGGLE	F	Ich Auto Range
ICHOFFSETENABLE	TOGGLE	T	Ich Offset Enable
ICHOFFSET	QUANT	0	Ich Offset (V)
ICHFILTER	IQUANT	3	Ich Filter
VCHRANGE	IQUANT	2	Vch Range
VCHRANGEMODE	TOGGLE	F	Vch Auto Range
VCHOFFSETENABLE	TOGGLE	T	Vch Offset Enable
VCHOFFSET	QUANT	0	Vch Offset (V)
VCHFILTER	IQUANT	3	Vch Filter
ACHRANGE	IQUANT	2	Ach Range
ACHOFFSETENABLE	TOGGLE	F	Ach Offset Enable
ACHOFFSET	QUANT	0	Ach Offset (V)
ACHFILTER	IQUANT	3	Ach Filter
IERANGELOWERLIMIT	IQUANT	1	I/E Range Lower Limit
IERANGEMODE	TOGGLE	F	I/E AutoRange
IERANGE	IQUANT	8	I/E Range
POSFEEDENABLE	TOGGLE	F	Positive Feedback IR Comp
POSFEEDRESISTANCE	QUANT	0	Positive Feedback Resistance (ohm)
ACHSELECT	IQUANT	0	Ach Select
CABLEID	IQUANT	14	Cable ID
DCCALDATE	LABEL	2/27/2020	DC Calibration Date
ACCALDATE	LABEL	2/27/2020	AC Calibration Date
THERMOSELECT	IQUANT	1	Thermo Select
FRAMEWORKVERSION	QUANT	6.33	Framework Version
INSTRUMENTVERSION	LABEL	3.50	Instrument Version
ZCURVE	TABLE
	Pt	Time	Freq	Zreal	Zimag	Zsig	Zmod	Zphz	Idc	Vdc	IERange
	#	s	Hz	ohm	ohm	V	ohm	°	A	V	#
	0	1	1000078	840.171	-6985.021	1	7035.369	-83.14131	-5.449819E-010	-0.1521862	8
	1	2	794390.6	950.089	-8710.513	1	8762.175	-83.77514	2.692422E-008	-0.152547	8
	2	2	630984.4	1073.77	-10862.75	1	10915.69	-84.35472	4.935148E-008	-0.1527681	8
	3	2	501234.4	1238.123	-13526.81	1	13583.35	-84.77023	5.397585E-008	-0.1528591	8
	4	3	398109.4	1407.478	-16943.4	1	17001.76	-85.25138	5.707699E-008	-0.1529353	8
	5	3	316265.6	1664.721	-21112.67	1	21178.2	-85.49159	5.800442E-008	-0.152979	8
	6	3	251203.1	1946.373	-26382.97	1	26454.67	-85.78072	6.045553E-008	-0.1529885	8
	7	4	199546.9	2348.447	-32873.21	1	32956.99	-85.91376	4.155597E-008	-0.1530034	8
	8	4	158578.1	2693.277	-40958.71	1	41047.17	-86.23788	2.073016E-008	-0.1529857	8
	9	4	125953.1	4009.812	-51511.13	1	51666.96	-85.54887	3.261978E-010	-0.1530529	7
	10	5	100078.1	4689.497	-63990.86	1	64162.46	-85.80864	3.827664E-009	-0.153066	7
	11	5	79453.13	5515.166	-80106.04	1	80295.67	-86.0615	3.671206E-009	-0.1530788	7
	12	5	63140.62	6591.833	-100008.1	1	100225.1	-86.22892	3.485713E-009	-0.153084	7
	13	5	50203.12	7703.15	-124780.4	1	125018	-86.46741	3.921694E-009	-0.1530776	7
	14	6	39890.62	9744.82	-155780.2	1	156084.7	-86.42053	3.29267E-009	-0.1530959	7
	15	6	31640.63	11934.36	-194864.4	1	195229.5	-86.49533	3.382839E-009	-0.1530964	7
	16	6	25171.88	14660.23	-242624.4	1	243066.9	-86.54219	3.440706E-009	-0.1530832	7
	17	7	20015.62	16579.53	-302551.8	1	303005.8	-86.86339	4.163882E-009	-0.15308	7
	18	7	15890.62	18857.66	-378699	1	379168.2	-87.14926	3.949916E-009	-0.1530881	7
	19	7	12609.37	32644.75	-474773.7	1	475894.7	-86.06662	6.139081E-010	-0.1530437	6
	20	8	10078.13	38404.12	-589076.3	1	590326.8	-86.26995	6.31098E-010	-0.153042	6
	21	8	8015.625	43244.21	-735513.7	1	736783.9	-86.63519	7.46799E-010	-0.1530379	6
	22	8	6328.125	52053.77	-923722.6	1	925188.1	-86.77467	7.097257E-010	-0.1530377	6
	23	9	5015.625	67049.2	-1155093	1	1157037	-86.6779	6.135649E-010	-0.1530428	6
	24	9	3984.375	80960.69	-1444522	1	1446789	-86.79211	6.145602E-010	-0.1530438	6
	25	9	3170.956	96070.5	-1801332	1	1803892	-86.94714	5.661902E-010	-0.153048	6
	26	10	2527.573	131263.8	-2241090	1	2244930	-86.64793	5.381397E-010	-0.1530538	6
	27	10	1976.103	152142.1	-2843725	1	2847792	-86.93754	5.591627E-010	-0.1530533	6
	28	10	1577.524	188725.3	-3536014	1	3541046	-86.94489	5.278697E-010	-0.1530523	6
	29	11	1265.625	299091.4	-4397206	1	4407366	-86.10882	4.70539E-011	-0.1530477	5
	30	11	998.264	357767.2	-5528195	1	5539759	-86.29716	4.585468E-011	-0.1530513	5
	31	11	796.875	420175.6	-6881041	1	6893858	-86.5057	4.831172E-011	-0.1530537	5
	32	11	627.7902	481616.8	-8673333	1	8686694	-86.82172	5.341811E-011	-0.1530399	5
	33	12	505.5147	539992.4	-1.072639E+007	1	1.073998E+007	-87.11803	5.684733E-011	-0.1530504	5
	34	12	397.9953	709292.6	-1.349313E+007	1	1.351176E+007	-86.99091	3.785975E-011	-0.1530255	5
	35	12	315.5048	854993.5	-1.690155E+007	1	1.692316E+007	-87.10406	3.583796E-011	-0.1530271	5
	36	13	252.4038	1037218	-2.101361E+007	1	2.103919E+007	-87.17421	3.554854E-011	-0.1530316	5
	37	13	198.6229	1284312	-2.651704E+007	1	2.654812E+007	-87.22713	3.380062E-011	-0.1530255	5
	38	13	158.3615	1560728	-3.305048E+007	1	3.308731E+007	-87.29636	3.565968E-011	-0.1530308	5
	39	14	125.558	2444439	-4.152994E+007	1	4.160182E+007	-86.63148	1.42804E-012	-0.1530345	4
	40	14	100.4464	2918922	-5.159201E+007	1	5.167451E+007	-86.76183	1.677253E-012	-0.1530353	4
	41	14	79.00281	3375559	-6.517788E+007	1	6.526523E+007	-87.0353	9.133508E-013	-0.1530378	4
	42	15	63.3446	4431692	-8.089246E+007	1	8.101376E+007	-86.86419	1.747491E-013	-0.1530362	4
	43	15	49.86702	5101954	-1.017033E+008	1	1.018312E+008	-87.12816	1.318129E-012	-0.1530436	4
	44	15	39.72458	6154704	-1.2719E+008	1	1.273389E+008	-87.22963	2.770841E-012	-0.1530402	4
	45	16	31.6723	6913014	-1.577598E+008	1	1.579112E+008	-87.49091	2.080496E-012	-0.1530416	4
	46	16	24.93351	1.058814E+007	-2.016345E+008	1	2.019123E+008	-86.99407	2.405428E-012	-0.1530437	4
	47	16	19.86229	1.607912E+007	-2.662517E+008	1	2.667367E+008	-86.54407	-9.898114E-013	-0.1530322	4
	48	17	15.83615	4038436	-2.911229E+008	1	2.911509E+008	-89.20525	-1.486393E-012	-0.1530401	4
	49	17	12.40079	2.903362E+007	-4.23202E+008	1	4.241968E+008	-86.07539	7.177739E-013	-0.1530335	3
	50	17	9.93114	2.319787E+007	-5.313603E+008	1	5.318664E+008	-87.5002	2.067666E-013	-0.1530285	3
	51	18	7.944915	4.084292E+007	-5.158915E+008	1	5.175057E+008	-85.47336	1.550919E-012	-0.1530294	3
	52	18	6.317385	6.103096E+007	-7.497519E+008	1	7.522318E+008	-85.3463	4.296375E-013	-0.1530278	3
	53	19	5.008013	5.98822E+007	-9.522308E+008	1	9.541118E+008	-86.40163	5.115473E-013	-0.1530404	3
	54	20	3.945707	7.962998E+007	-1.193354E+009	1	1.196008E+009	-86.18243	5.617977E-013	-0.1530337	3
	55	21	3.158693	9.715215E+007	-1.473942E+009	1	1.47714E+009	-86.22891	6.271266E-013	-0.1530521	3
	56	23	2.504006	1.216789E+008	-1.85335E+009	1	1.85734E+009	-86.24372	7.913585E-013	-0.1530512	3
	57	24	1.998082	1.50836E+008	-2.306227E+009	1	2.311154E+009	-86.25797	8.448468E-013	-0.15302	3
	58	26	1.584686	2.226978E+008	-2.8684E+009	1	2.877032E+009	-85.56055	8.522959E-013	-0.1530655	3
	59	28	1.266892	3.233341E+008	-3.566417E+009	1	3.581044E+009	-84.81969	1.294342E-012	-0.1530931	2
	60	30	0.999041	4.490995E+008	-4.460849E+009	1	4.483398E+009	-84.25108	1.364957E-012	-0.1530909	2
