EXPLAIN
TAG	EISPOT
TITLE	LABEL	Potentiostatic EIS	Test &Identifier
DATE	LABEL	9/1/2020	Date
TIME	LABEL	21:42:12	Time
NOTES	NOTES	1	&Notes...
	
PSTAT	PSTAT	REF600-11020	Potentiostat
VDC	POTEN	0.00000E+000	T	DC &Voltage (V)
FREQINIT	QUANT	1.00000E+006	Initial Fre&q. (Hz)
FREQFINAL	QUANT	1.00000E+000	Final Fre&q. (Hz)
PTSPERDEC	QUANT	1.00000E+001	Points/&decade
VAC	QUANT	2.50000E+001	AC &Voltage (mV rms)
AREA	QUANT	4.00000E-005	&Area (cm^2)
CONDIT	TWOPARAM	F	5.00000E+000	0.00000E+000	Conditionin&g	Time(s)	E(V)
DELAY	TWOPARAM	F	3.00000E+000	0.00000E+000	Init. De&lay	Time(s)	Stab.(mV/s)
SPEED	SELECTOR	0	&Optimize for:
ZGUESS	QUANT	1.00000E+003	E&stimated Z (ohms)
OCVCURVE	TABLE	39
	Pt	T	Vf	Vm	Ach	Over
	#	s	V vs. Ref.	V	V	bits
	0	0.258333	2.78459E-001	2.78459E-001	5.81592E-004	...........
	1	0.516667	2.78459E-001	2.78451E-001	5.77492E-004	...........
	2	0.775	2.78458E-001	2.78435E-001	5.80658E-004	...........
	3	1.03333	2.78454E-001	2.78422E-001	5.77958E-004	...........
	4	1.29167	2.78447E-001	2.78403E-001	5.76392E-004	...........
	5	1.55	2.78436E-001	2.78389E-001	5.80525E-004	...........
	6	1.80833	2.78421E-001	2.78372E-001	5.80258E-004	...........
	7	2.06667	2.78406E-001	2.78354E-001	5.82125E-004	...........
	8	2.325	2.78390E-001	2.78341E-001	5.72992E-004	...........
	9	2.58333	2.78373E-001	2.78329E-001	5.78158E-004	...........
	10	2.84167	2.78358E-001	2.78312E-001	5.80725E-004	...........
	11	3.1	2.78343E-001	2.78298E-001	5.77125E-004	...........
	12	3.35833	2.78328E-001	2.78282E-001	5.75425E-004	...........
	13	3.61667	2.78314E-001	2.78265E-001	5.76258E-004	...........
	14	3.875	2.78298E-001	2.78247E-001	5.73458E-004	...........
	15	4.13333	2.78283E-001	2.78228E-001	5.77258E-004	...........
	16	4.39167	2.78266E-001	2.78206E-001	5.76225E-004	...........
	17	4.65	2.78247E-001	2.78187E-001	5.77525E-004	...........
	18	4.90833	2.78228E-001	2.78178E-001	5.75958E-004	...........
	19	5.16667	2.78210E-001	2.78164E-001	5.76192E-004	...........
	20	5.425	2.78193E-001	2.78147E-001	5.76492E-004	...........
	21	5.68333	2.78178E-001	2.78126E-001	5.76992E-004	...........
	22	5.94167	2.78162E-001	2.78115E-001	5.72592E-004	...........
	23	6.2	2.78147E-001	2.78098E-001	5.73992E-004	...........
	24	6.45833	2.78131E-001	2.78079E-001	5.73658E-004	...........
	25	6.71667	2.78115E-001	2.78062E-001	5.76092E-004	...........
	26	6.975	2.78098E-001	2.78042E-001	5.77092E-004	...........
	27	7.23333	2.78080E-001	2.78022E-001	5.75025E-004	...........
	28	7.49167	2.78062E-001	2.78005E-001	5.76658E-004	...........
	29	7.75	2.78043E-001	2.77987E-001	5.71358E-004	...........
	30	8.00833	2.78025E-001	2.77975E-001	5.74458E-004	...........
	31	8.26667	2.78007E-001	2.77948E-001	5.73725E-004	...........
	32	8.525	2.77989E-001	2.77924E-001	5.77325E-004	...........
	33	8.78333	2.77970E-001	2.77907E-001	5.79225E-004	...........
	34	9.04167	2.77950E-001	2.77882E-001	5.76458E-004	...........
	35	9.3	2.77929E-001	2.77858E-001	5.77858E-004	...........
	36	9.5583	2.77906E-001	2.77826E-001	5.77825E-004	...........
	37	9.8167	2.77882E-001	2.77795E-001	5.79492E-004	...........
	38	10.075	2.77856E-001	2.77766E-001	5.76392E-004	...........
EOC	QUANT	0.2778562	Open Circuit (V)
PSTATMODEL	IQUANT	4	Pstat Model
PSTATSECTION	LABEL	REF600-11020	Pstat Section
PSTATSERIALNO	LABEL	11020	Pstat Serial Number
CTRLMODE	IQUANT	1	Control Mode
IESTAB	IQUANT	0	I/E Stability
CASPEED	IQUANT	1	Control Amp Speed
CONVENTION	IQUANT	1	Current Convention
ICHRANGE	IQUANT	2	Ich Range
ICHRANGEMODE	TOGGLE	F	Ich Auto Range
ICHOFFSETENABLE	TOGGLE	T	Ich Offset Enable
ICHOFFSET	QUANT	0	Ich Offset (V)
ICHFILTER	IQUANT	3	Ich Filter
VCHRANGE	IQUANT	2	Vch Range
VCHRANGEMODE	TOGGLE	F	Vch Auto Range
VCHOFFSETENABLE	TOGGLE	T	Vch Offset Enable
VCHOFFSET	QUANT	0	Vch Offset (V)
VCHFILTER	IQUANT	3	Vch Filter
ACHRANGE	IQUANT	2	Ach Range
ACHOFFSETENABLE	TOGGLE	F	Ach Offset Enable
ACHOFFSET	QUANT	0	Ach Offset (V)
ACHFILTER	IQUANT	3	Ach Filter
IERANGELOWERLIMIT	IQUANT	1	I/E Range Lower Limit
IERANGEMODE	TOGGLE	F	I/E AutoRange
IERANGE	IQUANT	8	I/E Range
POSFEEDENABLE	TOGGLE	F	Positive Feedback IR Comp
POSFEEDRESISTANCE	QUANT	0	Positive Feedback Resistance (ohm)
ACHSELECT	IQUANT	0	Ach Select
CABLEID	IQUANT	14	Cable ID
DCCALDATE	LABEL	9/1/2020	DC Calibration Date
ACCALDATE	LABEL	9/1/2020	AC Calibration Date
THERMOSELECT	IQUANT	1	Thermo Select
FRAMEWORKVERSION	QUANT	6.33	Framework Version
INSTRUMENTVERSION	LABEL	3.50	Instrument Version
ZCURVE	TABLE
	Pt	Time	Freq	Zreal	Zimag	Zsig	Zmod	Zphz	Idc	Vdc	IERange
	#	s	Hz	ohm	ohm	V	ohm	°	A	V	#
	0	1	1000078	1721.69	-1271.743	1	2140.454	-36.45178	1.182869E-008	0.2798291	8
	1	1	794390.6	1937.571	-1297.838	1	2332.073	-33.81527	1.021295E-007	0.2795322	8
	2	1	630984.4	2147.917	-1311.604	1	2516.715	-31.40991	7.954032E-008	0.2794095	8
	3	2	501234.4	2349.671	-1314.818	1	2692.527	-29.23029	7.452885E-008	0.2793357	8
	4	2	398109.4	2544.337	-1318.632	1	2865.736	-27.39597	7.652589E-008	0.2792939	8
	5	2	316265.6	2730.865	-1323.215	1	3034.554	-25.85208	5.141633E-008	0.2793112	8
	6	3	251203.1	2910.805	-1338.052	1	3203.618	-24.68751	9.456287E-008	0.2792948	8
	7	3	199546.9	3088.646	-1354.108	1	3372.439	-23.67335	7.350666E-008	0.2792933	8
	8	3	158578.1	3266.371	-1384.991	1	3547.87	-22.97768	8.808693E-008	0.279296	8
	9	3	125953.1	3465.969	-1406.156	1	3740.35	-22.08256	2.446921E-009	0.2792838	7
	10	4	100078.1	3642.153	-1455.346	1	3922.157	-21.78086	5.621851E-009	0.2792642	7
	11	4	79453.13	3820.3	-1532.635	1	4116.268	-21.85976	4.827993E-009	0.2792578	7
	12	4	63140.62	4005.869	-1627.308	1	4323.785	-22.10852	3.099649E-009	0.2792485	7
	13	5	50203.12	4201.618	-1743.313	1	4548.926	-22.53428	2.182329E-009	0.2792448	7
	14	5	39890.62	4412.305	-1883.447	1	4797.479	-23.11581	3.849734E-009	0.2792538	7
	15	5	31640.63	4645.479	-2050.713	1	5077.981	-23.81871	2.774602E-009	0.2792473	7
	16	6	25171.88	4901.717	-2243.148	1	5390.597	-24.59002	5.365576E-009	0.2792539	7
	17	6	20015.62	5188.171	-2460.139	1	5741.899	-25.36948	5.456205E-009	0.27925	7
	18	6	15890.62	5510.04	-2701.282	1	6136.567	-26.11628	4.546703E-009	0.2792451	7
	19	7	12609.37	5865.941	-2962.275	1	6571.479	-26.79358	5.242303E-009	0.2792471	7
	20	7	10078.13	6244.422	-3235.599	1	7032.916	-27.3913	6.694395E-009	0.2792501	7
	21	7	8015.625	6655.788	-3529.219	1	7533.584	-27.93469	4.643329E-009	0.2792426	7
	22	7	6328.125	7110.317	-3876.039	1	8098.166	-28.59608	5.385301E-009	0.2792447	7
	23	8	5015.625	7569.861	-4241.156	1	8676.993	-29.26054	4.988221E-009	0.2792452	7
	24	8	3984.375	8048.416	-4671.918	1	9306.117	-30.13417	5.418578E-009	0.2792377	7
	25	8	3170.956	8554.634	-5147.019	1	9983.67	-31.03383	9.818436E-010	0.2792331	6
	26	9	2527.573	9057.145	-5746.865	1	10726.52	-32.39561	1.193902E-009	0.2792417	6
	27	9	1976.103	9633.57	-6537.734	1	11642.5	-34.16241	7.116575E-010	0.2792379	6
	28	9	1577.524	10206.61	-7425.008	1	12621.63	-36.03478	8.677669E-010	0.2792387	6
	29	10	1265.625	10826.13	-8476.282	1	13749.64	-38.05905	1.193119E-009	0.2792358	6
	30	10	998.264	11589	-9860.65	1	15216.35	-40.39323	7.41896E-010	0.2792365	6
	31	10	796.875	12432.64	-11438.07	1	16893.78	-42.61415	4.817804E-010	0.2792296	6
	32	11	627.7902	13497.07	-13451.23	1	19055.36	-44.90254	1.274257E-009	0.2792329	6
	33	11	505.5147	14683.58	-15632.56	1	21447.25	-46.79294	9.177739E-010	0.2792364	6
	34	11	397.9953	16278.56	-18443.32	1	24599.75	-48.56753	7.731319E-010	0.2792546	6
	35	12	315.5048	18189.2	-21599.13	1	28237.73	-49.89838	7.429762E-010	0.2792568	6
	36	12	252.4038	20425.35	-25061.21	1	32330.47	-50.81933	5.991256E-010	0.2792513	6
	37	12	198.6229	23292.51	-29239.24	1	37382.8	-51.45854	6.471764E-010	0.2792509	6
	38	13	158.3615	26496.27	-33673.18	1	42847.81	-51.80201	5.943763E-010	0.2792466	6
	39	13	125.558	30210.98	-38691.55	1	49089.09	-52.01672	6.264186E-010	0.279248	6
	40	13	100.4464	34198.75	-44144.82	1	55841.91	-52.23525	5.273881E-010	0.2792467	6
	41	14	79.00281	38960.54	-50888.72	1	64090.45	-52.56223	3.692594E-010	0.2792475	6
	42	14	63.3446	43761.8	-58060.04	1	72705.32	-52.99343	2.913922E-010	0.2792419	6
	43	14	49.86702	49465.09	-67171.23	1	83419.23	-53.63196	2.613682E-010	0.2792401	6
	44	15	39.72458	55569.77	-77519.24	1	95379.4	-54.3651	3.133859E-010	0.2792476	6
	45	15	31.6723	62592.85	-89763.36	1	109431.8	-55.11156	-1.759036E-010	0.2792428	5
	46	15	24.93351	71205.2	-105276	1	127095.3	-55.92688	-3.690014E-010	0.2792337	5
	47	16	19.86229	80799.44	-122903	1	147084	-56.6781	-9.553789E-010	0.2792371	5
	48	16	15.83615	92539.78	-143474.1	1	170729.1	-57.17828	3.674048E-010	0.2792345	5
	49	16	12.40079	108143	-169652.4	1	201188.6	-57.48498	6.027255E-010	0.2792366	5
	50	16	9.93114	125040.8	-197377	1	233651.2	-57.64524	5.335427E-010	0.279242	5
	51	17	7.944915	146086.1	-229299.9	1	271881.6	-57.49894	-4.877522E-010	0.2792335	5
	52	17	6.317385	172441.5	-266915.3	1	317773.3	-57.1354	1.667049E-010	0.2792227	5
	53	18	5.008013	205327.4	-309888.6	1	371739.5	-56.47216	4.309571E-010	0.279236	5
	54	19	3.945707	246832.9	-358321.8	1	435110.3	-55.43867	1.220046E-010	0.2792296	5
	55	20	3.158693	293433.8	-408226.8	1	502745	-54.29138	3.750273E-010	0.2792382	5
	56	21	2.504006	350931.4	-462650.6	1	580687.9	-52.81882	2.254431E-010	0.2792339	5
	57	22	1.998082	416106.6	-518821.2	1	665071.5	-51.26958	4.087402E-011	0.279186	5
	58	24	1.584686	491220.9	-575978.1	1	756999.9	-49.54091	1.269757E-010	0.2792345	5
	59	26	1.266892	574566.1	-632064.4	1	854184.7	-47.7282	2.150102E-010	0.2792565	5
	60	28	0.999041	670531.2	-693027.4	1	964313	-45.94519	2.747649E-010	0.2792621	5
