EXPLAIN
TAG	EISPOT
TITLE	LABEL	Potentiostatic EIS	Test &Identifier
DATE	LABEL	6/19/2020	Date
TIME	LABEL	15:56:46	Time
NOTES	NOTES	1	&Notes...
	
PSTAT	PSTAT	REF600-10037	Potentiostat
VDC	POTEN	0.00000E+000	T	DC &Voltage (V)
FREQINIT	QUANT	1.00000E+006	Initial Fre&q. (Hz)
FREQFINAL	QUANT	1.00000E+000	Final Fre&q. (Hz)
PTSPERDEC	QUANT	1.00000E+001	Points/&decade
VAC	QUANT	1.00000E+002	AC &Voltage (mV rms)
AREA	QUANT	2.50000E-001	&Area (cm^2)
CONDIT	TWOPARAM	F	5.00000E+000	0.00000E+000	Conditionin&g	Time(s)	E(V)
DELAY	TWOPARAM	F	5.00000E+000	0.00000E+000	Init. De&lay	Time(s)	Stab.(mV/s)
SPEED	SELECTOR	0	&Optimize for:
ZGUESS	QUANT	1.00000E+003	E&stimated Z (ohms)
OCVCURVE	TABLE	39
	Pt	T	Vf	Vm	Ach	Over
	#	s	V vs. Ref.	V	V	bits
	0	0.258333	8.43880E-002	8.43880E-002	5.24354E-004	...........
	1	0.516667	8.43880E-002	8.43860E-002	5.25921E-004	...........
	2	0.775	8.43878E-002	8.43863E-002	5.32254E-004	...........
	3	1.03333	8.43873E-002	8.43843E-002	5.27021E-004	...........
	4	1.29167	8.43866E-002	8.43836E-002	5.19054E-004	...........
	5	1.55	8.43857E-002	8.43833E-002	5.27287E-004	...........
	6	1.80833	8.43848E-002	8.43822E-002	5.33187E-004	...........
	7	2.06667	8.43839E-002	8.43820E-002	5.26321E-004	...........
	8	2.325	8.43831E-002	8.43762E-002	5.29087E-004	...........
	9	2.58333	8.43819E-002	8.43757E-002	5.34021E-004	...........
	10	2.84167	8.43802E-002	8.43735E-002	5.31621E-004	...........
	11	3.1	8.43780E-002	8.43692E-002	5.25954E-004	...........
	12	3.35833	8.43755E-002	8.43685E-002	5.29354E-004	...........
	13	3.61667	8.43731E-002	8.43681E-002	5.26787E-004	...........
	14	3.875	8.43709E-002	8.43673E-002	5.33387E-004	...........
	15	4.13333	8.43692E-002	8.43676E-002	5.31354E-004	...........
	16	4.39167	8.43681E-002	8.43625E-002	5.30254E-004	...........
	17	4.65	8.43671E-002	8.43631E-002	5.30221E-004	...........
	18	4.90833	8.43658E-002	8.43586E-002	5.26487E-004	...........
	19	5.16667	8.43641E-002	8.43574E-002	5.27821E-004	...........
	20	5.425	8.43620E-002	8.43587E-002	5.29754E-004	...........
	21	5.68333	8.43601E-002	8.43539E-002	5.27287E-004	...........
	22	5.94167	8.43584E-002	8.43546E-002	5.25587E-004	...........
	23	6.2	8.43570E-002	8.43544E-002	5.26421E-004	...........
	24	6.45833	8.43557E-002	8.43517E-002	5.21988E-004	...........
	25	6.71667	8.43545E-002	8.43476E-002	5.20254E-004	...........
	26	6.975	8.43531E-002	8.43460E-002	5.17354E-004	...........
	27	7.23333	8.43511E-002	8.43446E-002	5.23254E-004	...........
	28	7.49167	8.43488E-002	8.43442E-002	5.25254E-004	...........
	29	7.75	8.43468E-002	8.43429E-002	5.25454E-004	...........
	30	8.00833	8.43451E-002	8.43380E-002	5.16088E-004	...........
	31	8.26667	8.43435E-002	8.43352E-002	5.19721E-004	...........
	32	8.525	8.43415E-002	8.43386E-002	5.22554E-004	...........
	33	8.78333	8.43394E-002	8.43342E-002	5.19088E-004	...........
	34	9.04167	8.43378E-002	8.43360E-002	5.25087E-004	...........
	35	9.3	8.43366E-002	8.43339E-002	5.26454E-004	...........
	36	9.5583	8.43358E-002	8.43349E-002	5.24421E-004	...........
	37	9.8167	8.43352E-002	8.43323E-002	5.20821E-004	...........
	38	10.075	8.43345E-002	8.43311E-002	5.20521E-004	...........
EOC	QUANT	0.0843345	Open Circuit (V)
PSTATMODEL	IQUANT	4	Pstat Model
PSTATSECTION	LABEL	REF600-10037	Pstat Section
PSTATSERIALNO	LABEL	10037	Pstat Serial Number
CTRLMODE	IQUANT	1	Control Mode
IESTAB	IQUANT	0	I/E Stability
CASPEED	IQUANT	1	Control Amp Speed
CONVENTION	IQUANT	1	Current Convention
ICHRANGE	IQUANT	2	Ich Range
ICHRANGEMODE	TOGGLE	F	Ich Auto Range
ICHOFFSETENABLE	TOGGLE	T	Ich Offset Enable
ICHOFFSET	QUANT	0	Ich Offset (V)
ICHFILTER	IQUANT	3	Ich Filter
VCHRANGE	IQUANT	2	Vch Range
VCHRANGEMODE	TOGGLE	F	Vch Auto Range
VCHOFFSETENABLE	TOGGLE	T	Vch Offset Enable
VCHOFFSET	QUANT	0	Vch Offset (V)
VCHFILTER	IQUANT	3	Vch Filter
ACHRANGE	IQUANT	2	Ach Range
ACHOFFSETENABLE	TOGGLE	F	Ach Offset Enable
ACHOFFSET	QUANT	0	Ach Offset (V)
ACHFILTER	IQUANT	3	Ach Filter
IERANGELOWERLIMIT	IQUANT	1	I/E Range Lower Limit
IERANGEMODE	TOGGLE	F	I/E AutoRange
IERANGE	IQUANT	8	I/E Range
POSFEEDENABLE	TOGGLE	F	Positive Feedback IR Comp
POSFEEDRESISTANCE	QUANT	0	Positive Feedback Resistance (ohm)
ACHSELECT	IQUANT	0	Ach Select
CABLEID	IQUANT	14	Cable ID
DCCALDATE	LABEL	6/8/2020	DC Calibration Date
ACCALDATE	LABEL	6/8/2020	AC Calibration Date
THERMOSELECT	IQUANT	1	Thermo Select
FRAMEWORKVERSION	QUANT	6.33	Framework Version
INSTRUMENTVERSION	LABEL	3.50	Instrument Version
ZCURVE	TABLE
	Pt	Time	Freq	Zreal	Zimag	Zsig	Zmod	Zphz	Idc	Vdc	IERange
	#	s	Hz	ohm	ohm	V	ohm	°	A	V	#
	0	2	1000078	1946.767	-2039.131	1	2819.212	-46.32747	6.674921E-008	0.0931342	8
	1	2	794390.6	2303.026	-2201.618	1	3186.071	-43.71038	3.412074E-008	0.0928519	8
	2	2	630984.4	2696.487	-2337.412	1	3568.548	-40.91993	1.277648E-007	0.0926779	8
	3	3	501234.4	3114.701	-2438.838	1	3955.919	-38.06126	5.362931E-009	0.0926367	8
	4	3	398109.4	3552.339	-2502.483	1	4345.289	-35.16319	1.043762E-007	0.0926024	8
	5	3	316265.6	3993.236	-2526.792	1	4725.527	-32.32432	1.047291E-007	0.0925795	8
	6	4	251203.1	4433.927	-2513.226	1	5096.667	-29.54531	6.750185E-008	0.0925842	8
	7	4	199546.9	4865.529	-2473.152	1	5458.008	-26.94426	7.928977E-008	0.0926264	8
	8	4	158578.1	5268.583	-2387.866	1	5784.452	-24.38134	6.265951E-008	0.0926626	8
	9	5	125953.1	5718.105	-2224.09	1	6135.414	-21.25383	7.226527E-008	0.092691	7
	10	5	100078.1	6065.313	-2093.91	1	6416.578	-19.04606	3.416087E-008	0.0926379	7
	11	5	79453.13	6384.754	-2011.673	1	6694.17	-17.48831	-1.484569E-009	0.0926255	7
	12	6	63140.62	6638.328	-1892.694	1	6902.875	-15.9137	3.242316E-008	0.0926037	7
	13	6	50203.12	6885.711	-1803.817	1	7118.06	-14.67964	-4.009989E-009	0.0925745	7
	14	6	39890.62	7138.919	-1749.749	1	7350.224	-13.77171	-1.447107E-009	0.092557	7
	15	7	31640.63	7309.642	-1666.694	1	7497.248	-12.84459	2.486123E-008	0.092585	7
	16	7	25171.88	7491.881	-1630.432	1	7667.242	-12.27764	3.1348E-008	0.0925694	7
	17	7	20015.62	7668.594	-1621.592	1	7838.169	-11.93981	-4.295979E-009	0.0925681	7
	18	7	15890.62	7832.786	-1637.135	1	8002.046	-11.80547	1.496446E-008	0.0925879	7
	19	8	12609.37	7998.09	-1686.533	1	8173.974	-11.90735	1.550829E-008	0.0925851	7
	20	8	10078.13	8159.949	-1766.346	1	8348.937	-12.2141	1.461753E-008	0.0925845	7
	21	8	8015.625	8330.311	-1882.947	1	8540.466	-12.73685	8.594763E-009	0.0925926	7
	22	9	6328.125	8517.53	-2048.648	1	8760.438	-13.52397	2.346869E-008	0.0925745	7
	23	9	5015.625	8756.565	-2258.832	1	9043.216	-14.46461	3.516246E-008	0.0925705	7
	24	9	3984.375	8916.563	-2505.108	1	9261.784	-15.69271	2.773961E-008	0.0925705	7
	25	10	3170.956	9137.793	-2804.769	1	9558.56	-17.06343	2.537835E-008	0.0925859	7
	26	10	2527.573	9389.624	-3167.381	1	9909.46	-18.64068	2.072306E-008	0.0925864	7
	27	10	1976.103	9702.4	-3639.764	1	10362.65	-20.5631	7.218758E-010	0.0925895	7
	28	11	1577.524	10031.87	-4159.35	1	10859.96	-22.51955	1.470504E-008	0.0925674	7
	29	11	1265.625	10384.4	-4740.872	1	11415.41	-24.5385	-1.941682E-008	0.0925759	7
	30	11	998.264	10800.44	-5479.213	1	12110.79	-26.89931	3.221436E-008	0.0925781	7
	31	12	796.875	11240.12	-6295.7	1	12883.17	-29.2536	2.280143E-008	0.0925899	7
	32	12	627.7902	11799.71	-7346.879	1	13900	-31.90771	-1.579392E-008	0.0925586	7
	33	12	505.5147	12281.35	-8494.045	1	14932.53	-34.66857	-2.012635E-008	0.0925735	7
	34	13	397.9953	12902.55	-9999.9	1	16324.03	-37.77685	8.346577E-009	0.0926024	7
	35	13	315.5048	13593.78	-11786.02	1	17991.69	-40.92581	9.103628E-009	0.0926065	7
	36	13	252.4038	14347.3	-13863.42	1	19950.93	-44.01734	9.498207E-009	0.0925999	7
	37	14	198.6229	15285.9	-16576.11	1	22548.31	-47.31884	9.476749E-009	0.0925977	7
	38	14	158.3615	16329.95	-19699.69	1	25587.98	-50.34315	9.581379E-009	0.0925972	7
	39	14	125.558	17603.68	-23591.71	1	29435.66	-53.27042	9.394438E-009	0.0925993	7
	40	14	100.4464	19068.78	-28128.13	1	33982.5	-55.86564	9.014253E-009	0.0926	7
	41	15	79.00281	20983.45	-33889.49	1	39859.79	-58.23534	1.023907E-008	0.0925879	7
	42	15	63.3446	23159.26	-40751.83	1	46872.84	-60.39044	5.327889E-010	0.0925967	6
	43	16	49.86702	26129.12	-49515.46	1	55986.71	-62.17956	1.31495E-009	0.0925963	6
	44	16	39.72458	29770.66	-59631.43	1	66649.83	-63.46959	1.182128E-009	0.0925986	6
	45	16	31.6723	34462.28	-71719.45	1	79569.65	-64.33501	4.577563E-011	0.092595	6
	46	17	24.93351	40981.31	-86929.73	1	96105.4	-64.75939	1.690728E-009	0.0925945	6
	47	17	19.86229	49460.97	-104435.2	1	115555.6	-64.65756	-5.299514E-009	0.0840255	6
	48	17	15.83615	60283.61	-124306.7	1	138153.1	-64.12854	-3.92278E-009	0.0840144	6
	49	18	12.40079	75238.68	-148645.4	1	166602.3	-63.1532	-3.409178E-009	0.0840199	6
	50	18	9.93114	92706.87	-173420.2	1	196644.7	-61.87196	-3.00314E-009	0.0840212	6
	51	18	7.944915	114491.9	-200510.2	1	230895.5	-60.27351	-2.776714E-009	0.0840166	6
	52	19	6.317385	141534.6	-229972.9	1	270036.2	-58.39018	-1.708898E-009	0.0840205	6
	53	20	5.008013	173908.3	-261286.9	1	313870.9	-56.35291	-1.209081E-009	0.0840192	6
	54	21	3.945707	211915.2	-294205.3	1	362580.7	-54.23491	-8.746931E-010	0.0840244	6
	55	22	3.158693	250625.2	-325091.9	1	410484.7	-52.37006	-1.279136E-009	0.0840289	5
	56	23	2.504006	295297.3	-358616.4	1	464549.5	-50.53077	-1.108353E-009	0.0840251	5
	57	25	1.998082	338231.6	-392402.9	1	518054.7	-49.24031	-8.552906E-010	0.0840273	5
	58	27	1.584686	383983	-431816.1	1	577847.8	-48.35561	-5.467634E-010	0.0840282	5
	59	30	1.266892	427883.4	-475644.7	1	639782.8	-48.02589	-3.730619E-010	0.0840178	5
	60	33	0.999041	474179.9	-532072.5	1	712704.5	-48.29276	-4.224962E-010	0.0840217	5
