EXPLAIN
TAG	EISPOT
TITLE	LABEL	Potentiostatic EIS	Test &Identifier
DATE	LABEL	9/11/2020	Date
TIME	LABEL	19:49:47	Time
NOTES	NOTES	1	&Notes...
	
PSTAT	PSTAT	REF600-11020	Potentiostat
VDC	POTEN	0.00000E+000	T	DC &Voltage (V)
FREQINIT	QUANT	1.00000E+006	Initial Fre&q. (Hz)
FREQFINAL	QUANT	1.00000E+000	Final Fre&q. (Hz)
PTSPERDEC	QUANT	1.00000E+001	Points/&decade
VAC	QUANT	2.50000E+001	AC &Voltage (mV rms)
AREA	QUANT	4.00000E-005	&Area (cm^2)
CONDIT	TWOPARAM	F	5.00000E+000	0.00000E+000	Conditionin&g	Time(s)	E(V)
DELAY	TWOPARAM	F	3.00000E+000	0.00000E+000	Init. De&lay	Time(s)	Stab.(mV/s)
SPEED	SELECTOR	0	&Optimize for:
ZGUESS	QUANT	1.00000E+003	E&stimated Z (ohms)
OCVCURVE	TABLE	39
	Pt	T	Vf	Vm	Ach	Over
	#	s	V vs. Ref.	V	V	bits
	0	0.258333	-2.86354E-001	-2.86354E-001	5.64092E-004	...........
	1	0.516667	-2.86355E-001	-2.86379E-001	5.58325E-004	...........
	2	0.775	-2.86358E-001	-2.86401E-001	5.61092E-004	...........
	3	1.03333	-2.86366E-001	-2.86420E-001	5.60992E-004	...........
	4	1.29167	-2.86380E-001	-2.86437E-001	5.58825E-004	...........
	5	1.55	-2.86398E-001	-2.86462E-001	5.58092E-004	...........
	6	1.80833	-2.86418E-001	-2.86489E-001	5.58525E-004	...........
	7	2.06667	-2.86439E-001	-2.86517E-001	5.57559E-004	...........
	8	2.325	-2.86463E-001	-2.86579E-001	5.59492E-004	...........
	9	2.58333	-2.86492E-001	-2.86605E-001	5.63692E-004	...........
	10	2.84167	-2.86526E-001	-2.86622E-001	5.63125E-004	...........
	11	3.1	-2.86561E-001	-2.86622E-001	5.68692E-004	...........
	12	3.35833	-2.86591E-001	-2.86633E-001	5.66525E-004	...........
	13	3.61667	-2.86611E-001	-2.86646E-001	5.64592E-004	...........
	14	3.875	-2.86625E-001	-2.86658E-001	5.64192E-004	...........
	15	4.13333	-2.86636E-001	-2.86676E-001	5.65125E-004	...........
	16	4.39167	-2.86647E-001	-2.86693E-001	5.67925E-004	...........
	17	4.65	-2.86660E-001	-2.86709E-001	5.66259E-004	...........
	18	4.90833	-2.86675E-001	-2.86723E-001	5.69458E-004	...........
	19	5.16667	-2.86691E-001	-2.86742E-001	5.64292E-004	...........
	20	5.425	-2.86707E-001	-2.86759E-001	5.64125E-004	...........
	21	5.68333	-2.86724E-001	-2.86775E-001	5.65858E-004	...........
	22	5.94167	-2.86740E-001	-2.86790E-001	5.66125E-004	...........
	23	6.2	-2.86757E-001	-2.86807E-001	5.65858E-004	...........
	24	6.45833	-2.86773E-001	-2.86821E-001	5.60059E-004	...........
	25	6.71667	-2.86789E-001	-2.86837E-001	5.61659E-004	...........
	26	6.975	-2.86805E-001	-2.86847E-001	5.63159E-004	...........
	27	7.23333	-2.86820E-001	-2.86864E-001	5.62025E-004	...........
	28	7.49167	-2.86834E-001	-2.86877E-001	5.60425E-004	...........
	29	7.75	-2.86848E-001	-2.86892E-001	5.61659E-004	...........
	30	8.00833	-2.86862E-001	-2.86907E-001	5.62192E-004	...........
	31	8.26667	-2.86877E-001	-2.86923E-001	5.64192E-004	...........
	32	8.525	-2.86891E-001	-2.86935E-001	5.63692E-004	...........
	33	8.78333	-2.86906E-001	-2.86946E-001	5.61325E-004	...........
	34	9.04167	-2.86920E-001	-2.86959E-001	5.62925E-004	...........
	35	9.3	-2.86933E-001	-2.86973E-001	5.62025E-004	...........
	36	9.5583	-2.86946E-001	-2.86984E-001	5.61359E-004	...........
	37	9.8167	-2.86959E-001	-2.86996E-001	5.61325E-004	...........
	38	10.075	-2.86971E-001	-2.87008E-001	5.63425E-004	...........
EOC	QUANT	-0.286971	Open Circuit (V)
PSTATMODEL	IQUANT	4	Pstat Model
PSTATSECTION	LABEL	REF600-11020	Pstat Section
PSTATSERIALNO	LABEL	11020	Pstat Serial Number
CTRLMODE	IQUANT	1	Control Mode
IESTAB	IQUANT	0	I/E Stability
CASPEED	IQUANT	1	Control Amp Speed
CONVENTION	IQUANT	1	Current Convention
ICHRANGE	IQUANT	2	Ich Range
ICHRANGEMODE	TOGGLE	F	Ich Auto Range
ICHOFFSETENABLE	TOGGLE	T	Ich Offset Enable
ICHOFFSET	QUANT	0	Ich Offset (V)
ICHFILTER	IQUANT	3	Ich Filter
VCHRANGE	IQUANT	2	Vch Range
VCHRANGEMODE	TOGGLE	F	Vch Auto Range
VCHOFFSETENABLE	TOGGLE	T	Vch Offset Enable
VCHOFFSET	QUANT	0	Vch Offset (V)
VCHFILTER	IQUANT	3	Vch Filter
ACHRANGE	IQUANT	2	Ach Range
ACHOFFSETENABLE	TOGGLE	F	Ach Offset Enable
ACHOFFSET	QUANT	0	Ach Offset (V)
ACHFILTER	IQUANT	3	Ach Filter
IERANGELOWERLIMIT	IQUANT	1	I/E Range Lower Limit
IERANGEMODE	TOGGLE	F	I/E AutoRange
IERANGE	IQUANT	8	I/E Range
POSFEEDENABLE	TOGGLE	F	Positive Feedback IR Comp
POSFEEDRESISTANCE	QUANT	0	Positive Feedback Resistance (ohm)
ACHSELECT	IQUANT	0	Ach Select
CABLEID	IQUANT	14	Cable ID
DCCALDATE	LABEL	9/1/2020	DC Calibration Date
ACCALDATE	LABEL	9/1/2020	AC Calibration Date
THERMOSELECT	IQUANT	1	Thermo Select
FRAMEWORKVERSION	QUANT	6.33	Framework Version
INSTRUMENTVERSION	LABEL	3.50	Instrument Version
ZCURVE	TABLE
	Pt	Time	Freq	Zreal	Zimag	Zsig	Zmod	Zphz	Idc	Vdc	IERange
	#	s	Hz	ohm	ohm	V	ohm	°	A	V	#
	0	1	1000078	1940.926	-1965.779	1	2762.513	-45.3645	9.551842E-008	-0.2850453	8
	1	1	794390.6	2265.955	-2079.256	1	3075.363	-42.53971	4.147828E-008	-0.2853115	8
	2	1	630984.4	2586.277	-2172.193	1	3377.462	-40.02663	5.136846E-008	-0.2854408	8
	3	2	501234.4	2893.345	-2258.395	1	3670.394	-37.97375	4.903128E-008	-0.2855159	8
	4	2	398109.4	3180.908	-2350.778	1	3955.291	-36.46541	6.103233E-008	-0.2855531	8
	5	2	316265.6	3447.655	-2474.086	1	4243.516	-35.66376	7.344916E-008	-0.2855677	8
	6	3	251203.1	3693.889	-2626.955	1	4532.737	-35.41901	6.133055E-008	-0.2855693	8
	7	3	199546.9	3929.974	-2853.269	1	4856.525	-35.98068	1.059846E-007	-0.2855897	8
	8	3	158578.1	4158.455	-3154.008	1	5219.245	-37.17875	1.106475E-007	-0.2855316	8
	9	4	125953.1	4443.449	-3533.75	1	5677.291	-38.49424	1.013645E-008	-0.2855646	7
	10	4	100078.1	4701.16	-4033.957	1	6194.652	-40.63213	2.566751E-009	-0.285577	7
	11	4	79453.13	4974.498	-4687.914	1	6835.361	-43.30112	3.93996E-009	-0.2855895	7
	12	5	63140.62	5284.455	-5499.628	1	7627.016	-46.14306	3.855733E-009	-0.2855788	7
	13	5	50203.12	5655.489	-6505.961	1	8620.446	-49.00029	3.44097E-009	-0.2855848	7
	14	5	39890.62	6110.725	-7750.282	1	9869.54	-51.74592	4.901958E-009	-0.2855879	7
	15	5	31640.63	6682.128	-9267.839	1	11425.57	-54.20833	2.743528E-009	-0.2855925	7
	16	6	25171.88	7390.196	-11111.2	1	13344.43	-56.37162	5.494374E-009	-0.2855864	7
	17	6	20015.62	8325.17	-13324.48	1	15711.47	-58.00275	4.815527E-009	-0.2855926	7
	18	6	15890.62	9558.96	-15946.15	1	18591.75	-59.05931	2.243927E-009	-0.2855982	7
	19	7	12609.37	11389.95	-19063.3	1	22206.76	-59.14252	1.598328E-009	-0.2855925	6
	20	7	10078.13	13434.94	-22539.61	1	26239.89	-59.20255	1.03935E-009	-0.285603	6
	21	7	8015.625	16130.08	-26582.42	1	31093.49	-58.75083	1.308759E-009	-0.2855999	6
	22	8	6328.125	19690.48	-31240.98	1	36928.5	-57.77771	1.33423E-009	-0.285601	6
	23	8	5015.625	24150.94	-36197.13	1	43514.37	-56.28854	1.390018E-009	-0.2856023	6
	24	8	3984.375	29588	-41319.18	1	50820.51	-54.39415	1.616142E-009	-0.2856047	6
	25	9	3170.956	36064.74	-46511.72	1	58855.8	-52.21035	1.461902E-009	-0.2856047	6
	26	9	2527.573	43679.72	-51293.98	1	67372.03	-49.58372	9.748071E-010	-0.2856043	6
	27	9	1976.103	53034.22	-56370.34	1	77396.66	-46.7466	7.813872E-010	-0.2856049	6
	28	10	1577.524	62531.63	-60422.84	1	86954.72	-44.01741	8.30206E-010	-0.2856098	6
	29	10	1265.625	72523.83	-63899.18	1	96658.2	-41.38258	1.109664E-009	-0.2856083	6
	30	10	998.264	85158.86	-65595.55	1	107493.3	-37.60608	6.028119E-010	-0.2856172	5
	31	11	796.875	96133.8	-67655.63	1	117554.2	-35.13655	5.849359E-010	-0.285621	5
	32	11	627.7902	107813.3	-69075.22	1	128043.3	-32.6474	6.028147E-010	-0.2856182	5
	33	11	505.5147	118289	-69474.59	1	137182.4	-30.42697	5.547528E-010	-0.2856183	5
	34	11	397.9953	129853.6	-69869.42	1	147457.4	-28.28306	6.005036E-010	-0.2856032	5
	35	12	315.5048	140055.7	-68960.5	1	156112.6	-26.21468	5.100968E-010	-0.2856033	5
	36	12	252.4038	150524.8	-69212.17	1	165674.5	-24.69325	5.204963E-010	-0.2856041	5
	37	12	198.6229	160691.9	-68849.98	1	174820.5	-23.19318	5.386416E-010	-0.2856064	5
	38	13	158.3615	169989.9	-68656.63	1	183331.1	-21.99312	4.822744E-010	-0.285609	5
	39	13	125.558	179495.6	-69124.77	1	192345.8	-21.06198	3.303716E-010	-0.2856056	5
	40	13	100.4464	187869.3	-69653.25	1	200365.8	-20.34245	3.26175E-010	-0.2856092	5
	41	14	79.00281	197041.9	-71171.41	1	209501.5	-19.85968	5.614741E-010	-0.2856145	5
	42	14	63.3446	204229.1	-72740.11	1	216796.3	-19.60433	5.15847E-010	-0.2856142	5
	43	14	49.86702	213858.1	-76562.45	1	227150	-19.69766	7.356542E-011	-0.285618	5
	44	15	39.72458	221565.3	-80812.94	1	235843	-20.03876	2.209731E-010	-0.2856119	5
	45	15	31.6723	230466	-86828.04	1	246279.7	-20.6439	2.046969E-010	-0.2856126	5
	46	15	24.93351	240510	-94657.38	1	258466.8	-21.48308	9.122683E-010	-0.2856161	5
	47	16	19.86229	251380.2	-104646.6	1	272291.9	-22.60139	1.946213E-009	-0.2856147	5
	48	16	15.83615	262811.8	-115494.6	1	287069.8	-23.72345	-2.982453E-010	-0.2856163	5
	49	16	12.40079	275611.7	-128656.8	1	304161.8	-25.02339	-1.170049E-009	-0.2856102	5
	50	17	9.93114	290514.7	-144222	1	324343.6	-26.40147	-1.561613E-009	-0.2856168	5
	51	17	7.944915	307399	-160951.8	1	346986.5	-27.63621	3.901685E-011	-0.2856147	5
	52	17	6.317385	329539.1	-181619.2	1	376273.3	-28.86052	-2.556323E-010	-0.2856106	5
	53	18	5.008013	352285.7	-203381.2	1	406779	-29.99866	-6.733722E-010	-0.2856218	5
	54	19	3.945707	380601.5	-227218.8	1	443267.3	-30.83717	-2.598992E-010	-0.2856161	5
	55	20	3.158693	408650.4	-252924.3	1	480589.1	-31.75443	-3.915468E-010	-0.2856274	5
	56	21	2.504006	441161.9	-279816	1	522418.3	-32.38575	2.17773E-010	-0.2856244	5
	57	22	1.998082	475534	-311348	1	568392.6	-33.21411	2.934921E-010	-0.2856113	5
	58	24	1.584686	511818.8	-344219.8	1	616802.9	-33.9225	3.59817E-011	-0.285657	5
	59	26	1.266892	551192.8	-382850.4	1	671109.4	-34.78328	-4.085375E-011	-0.2856622	5
	60	28	0.999041	597741.8	-430489	1	736624.8	-35.76114	-1.202185E-010	-0.2856453	5
