EXPLAIN
TAG	EISPOT
TITLE	LABEL	Potentiostatic EIS	Test &Identifier
DATE	LABEL	6/6/2020	Date
TIME	LABEL	18:14:08	Time
NOTES	NOTES	1	&Notes...
	
PSTAT	PSTAT	REF600-11020	Potentiostat
VDC	POTEN	0.00000E+000	T	DC &Voltage (V)
FREQINIT	QUANT	1.00000E+006	Initial Fre&q. (Hz)
FREQFINAL	QUANT	1.00000E+000	Final Fre&q. (Hz)
PTSPERDEC	QUANT	1.00000E+001	Points/&decade
VAC	QUANT	2.50000E+001	AC &Voltage (mV rms)
AREA	QUANT	4.00000E-004	&Area (cm^2)
CONDIT	TWOPARAM	F	5.00000E+000	0.00000E+000	Conditionin&g	Time(s)	E(V)
DELAY	TWOPARAM	T	3.00000E+000	0.00000E+000	Init. De&lay	Time(s)	Stab.(mV/s)
SPEED	SELECTOR	0	&Optimize for:
ZGUESS	QUANT	1.00000E+003	E&stimated Z (ohms)
OCVCURVE	TABLE	12
	Pt	T	Vf	Vm	Ach	Over
	#	s	V vs. Ref.	V	V	bits
	0	0.258333	5.56644E-002	5.56644E-002	5.65230E-004	...........
	1	0.516667	5.56643E-002	5.56580E-002	5.73597E-004	...........
	2	0.775	5.56636E-002	5.56540E-002	5.67663E-004	...........
	3	1.03333	5.56616E-002	5.56465E-002	5.66930E-004	...........
	4	1.29167	5.56581E-002	5.56423E-002	5.68163E-004	...........
	5	1.55	5.56534E-002	5.56378E-002	5.61897E-004	...........
	6	1.80833	5.56482E-002	5.56304E-002	5.67297E-004	...........
	7	2.06667	5.56427E-002	5.56216E-002	5.64497E-004	...........
	8	2.325	5.56368E-002	5.56187E-002	5.65230E-004	...........
	9	2.58333	5.56306E-002	5.56134E-002	5.74363E-004	...........
	10	2.84167	5.56245E-002	5.56065E-002	5.68997E-004	...........
	11	3.1	5.56186E-002	5.55976E-002	5.65397E-004	...........
EOC	QUANT	0.0556186	Open Circuit (V)
PSTATMODEL	IQUANT	4	Pstat Model
PSTATSECTION	LABEL	REF600-11020	Pstat Section
PSTATSERIALNO	LABEL	11020	Pstat Serial Number
CTRLMODE	IQUANT	1	Control Mode
IESTAB	IQUANT	0	I/E Stability
CASPEED	IQUANT	1	Control Amp Speed
CONVENTION	IQUANT	1	Current Convention
ICHRANGE	IQUANT	2	Ich Range
ICHRANGEMODE	TOGGLE	F	Ich Auto Range
ICHOFFSETENABLE	TOGGLE	T	Ich Offset Enable
ICHOFFSET	QUANT	0	Ich Offset (V)
ICHFILTER	IQUANT	3	Ich Filter
VCHRANGE	IQUANT	2	Vch Range
VCHRANGEMODE	TOGGLE	F	Vch Auto Range
VCHOFFSETENABLE	TOGGLE	T	Vch Offset Enable
VCHOFFSET	QUANT	0	Vch Offset (V)
VCHFILTER	IQUANT	3	Vch Filter
ACHRANGE	IQUANT	2	Ach Range
ACHOFFSETENABLE	TOGGLE	F	Ach Offset Enable
ACHOFFSET	QUANT	0	Ach Offset (V)
ACHFILTER	IQUANT	3	Ach Filter
IERANGELOWERLIMIT	IQUANT	1	I/E Range Lower Limit
IERANGEMODE	TOGGLE	F	I/E AutoRange
IERANGE	IQUANT	8	I/E Range
POSFEEDENABLE	TOGGLE	F	Positive Feedback IR Comp
POSFEEDRESISTANCE	QUANT	0	Positive Feedback Resistance (ohm)
ACHSELECT	IQUANT	0	Ach Select
CABLEID	IQUANT	14	Cable ID
DCCALDATE	LABEL	2/27/2020	DC Calibration Date
ACCALDATE	LABEL	2/27/2020	AC Calibration Date
THERMOSELECT	IQUANT	1	Thermo Select
FRAMEWORKVERSION	QUANT	6.33	Framework Version
INSTRUMENTVERSION	LABEL	3.50	Instrument Version
ZCURVE	TABLE
	Pt	Time	Freq	Zreal	Zimag	Zsig	Zmod	Zphz	Idc	Vdc	IERange
	#	s	Hz	ohm	ohm	V	ohm	°	A	V	#
	0	1	1000078	1990.725	-2143.403	1	2925.262	-47.11503	5.223602E-008	0.0578904	8
	1	1	794390.6	2432.981	-2271.392	1	3328.456	-43.03273	2.492729E-008	0.0575328	8
	2	1	630984.4	2905.141	-2323.611	1	3720.082	-38.65377	5.756499E-008	0.0574013	8
	3	2	501234.4	3377.075	-2294.824	1	4082.996	-34.19728	2.56818E-008	0.0572958	8
	4	2	398109.4	3823.339	-2194.007	1	4408.127	-29.84917	5.278129E-008	0.0572468	8
	5	2	316265.6	4206.678	-2038.344	1	4674.503	-25.85249	6.734798E-008	0.0572289	8
	6	3	251203.1	4536.072	-1863.073	1	4903.773	-22.32912	4.509117E-008	0.0572141	8
	7	3	199546.9	4804.06	-1676.159	1	5088.074	-19.23412	3.369416E-008	0.0572043	8
	8	3	158578.1	5016.612	-1497.52	1	5235.356	-16.621	4.973551E-008	0.057208	8
	9	4	125953.1	5214.407	-1297.299	1	5373.363	-13.97104	-8.943269E-010	0.057146	7
	10	4	100078.1	5332.834	-1173.905	1	5460.511	-12.4144	2.848386E-009	0.057139	7
	11	4	79453.13	5448.557	-1087.407	1	5556.008	-11.28664	1.99664E-009	0.0571265	7
	12	5	63140.62	5549.235	-1026.473	1	5643.373	-10.47986	2.657706E-009	0.0571296	7
	13	5	50203.12	5641.601	-989.309	1	5727.687	-9.94624	2.413937E-009	0.0571201	7
	14	5	39890.62	5729.161	-977.283	1	5811.916	-9.68036	2.692114E-009	0.0571268	7
	15	6	31640.63	5817.236	-989.945	1	5900.866	-9.65776	4.092292E-009	0.0571325	7
	16	6	25171.88	5903.241	-1025.671	1	5991.683	-9.85658	2.504362E-009	0.0571167	7
	17	6	20015.62	5996.118	-1086.955	1	6093.841	-10.2748	2.551875E-009	0.0571188	7
	18	7	15890.62	6097.197	-1175.248	1	6209.43	-10.91008	3.160694E-009	0.0571196	7
	19	7	12609.37	6205.839	-1289.784	1	6338.453	-11.74086	4.264908E-009	0.0571206	7
	20	7	10078.13	6323.699	-1431.182	1	6483.63	-12.75237	4.478838E-009	0.0571231	7
	21	8	8015.625	6456.178	-1606.671	1	6653.091	-13.97464	4.382425E-009	0.0571197	7
	22	8	6328.125	6610.249	-1827.197	1	6858.137	-15.4518	3.657172E-009	0.0571144	7
	23	8	5015.625	6782.871	-2091.409	1	7097.981	-17.13646	4.713558E-009	0.057124	7
	24	9	3984.375	6976.823	-2401.149	1	7378.453	-18.99146	4.53495E-009	0.057124	7
	25	9	3170.956	7196.204	-2765.082	1	7709.152	-21.01886	3.930649E-009	0.0571185	7
	26	9	2527.573	7446.033	-3192.491	1	8101.568	-23.20727	3.488101E-009	0.0571096	7
	27	9	1976.103	7760.084	-3745.462	1	8616.693	-25.76463	5.013439E-009	0.0571197	7
	28	10	1577.524	8092.206	-4337.315	1	9181.291	-28.19072	3.649815E-009	0.0571111	7
	29	10	1265.625	8470.941	-5015.909	1	9844.6	-30.6311	1.124894E-010	0.0571687	6
	30	10	998.264	8931.316	-5879.207	1	10692.68	-33.35566	2.451203E-010	0.0571638	6
	31	11	796.875	9434.23	-6847.979	1	11657.6	-35.97459	8.311592E-011	0.0571638	6
	32	11	627.7902	10045.12	-8054.286	1	12875.4	-38.72302	3.732557E-010	0.0571645	6
	33	11	505.5147	10678.55	-9347.613	1	14191.87	-41.19772	2.778212E-010	0.0571663	6
	34	12	397.9953	11478.53	-11042.48	1	15927.75	-43.89077	7.279862E-010	0.05718	6
	35	12	315.5048	12369.92	-13014.22	1	17955.08	-46.45396	6.48858E-010	0.0571798	6
	36	12	252.4038	13357.85	-15278.35	1	20294.34	-48.83681	4.516524E-010	0.0571751	6
	37	13	198.6229	14600.3	-18200.37	1	23332.86	-51.26349	4.85846E-010	0.0571774	6
	38	13	158.3615	15996.32	-21525.57	1	26818.51	-53.38282	6.109686E-010	0.057179	6
	39	13	125.558	17716.65	-25611.05	1	31141.7	-55.32613	6.931175E-010	0.0571814	6
	40	14	100.4464	19726.96	-30297.46	1	36153.69	-56.93147	4.973371E-010	0.0571802	6
	41	14	79.00281	22394.9	-36304.64	1	42656.29	-58.3312	6.83998E-010	0.0571788	6
	42	14	63.3446	25423.3	-42842.51	1	49817.91	-59.31456	6.305982E-010	0.0571734	6
	43	15	49.86702	29477.91	-51162.61	1	59047.09	-60.05112	1.809232E-010	0.0571756	6
	44	15	39.72458	34218.32	-60386.97	1	69408.06	-60.46191	8.688031E-010	0.057179	6
	45	15	31.6723	39973.62	-71049.7	1	81522.7	-60.63725	5.252571E-010	0.0571746	6
	46	16	24.93351	47372.98	-84076.61	1	96504.3	-60.60091	9.327593E-010	0.0571745	6
	47	16	19.86229	55849.59	-98272.6	1	113034	-60.38988	1.057278E-009	0.0571863	5
	48	16	15.83615	66014.6	-114673.5	1	132317.6	-60.07207	7.374988E-010	0.0571811	5
	49	17	12.40079	79226.52	-134921.7	1	156463.1	-59.57839	1.454424E-009	0.057177	5
	50	17	9.93114	93349.8	-155754.1	1	181586.2	-59.06403	1.526119E-009	0.0571836	5
	51	17	7.944915	110287.9	-179936.8	1	211046.6	-58.4948	1.840851E-010	0.0571759	5
	52	18	6.317385	130763.6	-207725.7	1	245456.9	-57.80954	1.791389E-010	0.057185	5
	53	19	5.008013	155418.8	-239433.4	1	285452.9	-57.01197	5.058128E-010	0.0571903	5
	54	19	3.945707	185624.6	-276282	1	332848.7	-56.10417	5.158474E-010	0.0571762	5
	55	20	3.158693	218267.5	-313747.7	1	382201.9	-55.1745	2.578077E-010	0.0571962	5
	56	21	2.504006	258292.7	-357255	1	440847.2	-54.13336	-8.969353E-011	0.0571787	5
	57	23	1.998082	301472.4	-401944.7	1	502439.2	-53.12884	1.526825E-010	0.0571957	5
	58	24	1.584686	353031.1	-453603.7	1	574793.3	-52.10706	2.932903E-010	0.0572227	5
	59	26	1.266892	405922.7	-507857.9	1	650148.4	-51.36522	2.279593E-010	0.057188	5
	60	29	0.999041	467423.4	-570124.8	1	737242.8	-50.65298	1.970948E-010	0.0571591	5
