EXPLAIN
TAG	EISPOT
TITLE	LABEL	Potentiostatic EIS	Test &Identifier
DATE	LABEL	3/17/2020	Date
TIME	LABEL	16:21:35	Time
NOTES	NOTES	1	&Notes...
	
PSTAT	PSTAT	REF600-11020	Potentiostat
VDC	POTEN	0.00000E+000	T	DC &Voltage (V)
FREQINIT	QUANT	1.00000E+006	Initial Fre&q. (Hz)
FREQFINAL	QUANT	1.00000E+000	Final Fre&q. (Hz)
PTSPERDEC	QUANT	1.00000E+001	Points/&decade
VAC	QUANT	2.50000E+001	AC &Voltage (mV rms)
AREA	QUANT	4.00000E-004	&Area (cm^2)
CONDIT	TWOPARAM	F	5.00000E+000	0.00000E+000	Conditionin&g	Time(s)	E(V)
DELAY	TWOPARAM	T	3.00000E+000	0.00000E+000	Init. De&lay	Time(s)	Stab.(mV/s)
SPEED	SELECTOR	0	&Optimize for:
ZGUESS	QUANT	5.00000E+003	E&stimated Z (ohms)
OCVCURVE	TABLE	12
	Pt	T	Vf	Vm	Ach	Over
	#	s	V vs. Ref.	V	V	bits
	0	0.258333	5.79626E-002	5.79626E-002	5.88130E-004	...........
	1	0.516667	5.79628E-002	5.79720E-002	5.90030E-004	...........
	2	0.775	5.79639E-002	5.79796E-002	5.88696E-004	...........
	3	1.03333	5.79668E-002	5.79880E-002	5.86063E-004	...........
	4	1.29167	5.79721E-002	5.79970E-002	5.87730E-004	...........
	5	1.55	5.79792E-002	5.80028E-002	5.85963E-004	...........
	6	1.80833	5.79871E-002	5.80088E-002	5.84530E-004	...........
	7	2.06667	5.79947E-002	5.80125E-002	5.81730E-004	...........
	8	2.325	5.80015E-002	5.80173E-002	5.84663E-004	...........
	9	2.58333	5.80073E-002	5.80205E-002	5.88130E-004	...........
	10	2.84167	5.80123E-002	5.80267E-002	5.83897E-004	...........
	11	3.1	5.80167E-002	5.80303E-002	5.84130E-004	...........
EOC	QUANT	0.0580167	Open Circuit (V)
PSTATMODEL	IQUANT	4	Pstat Model
PSTATSECTION	LABEL	REF600-11020	Pstat Section
PSTATSERIALNO	LABEL	11020	Pstat Serial Number
CTRLMODE	IQUANT	1	Control Mode
IESTAB	IQUANT	0	I/E Stability
CASPEED	IQUANT	1	Control Amp Speed
CONVENTION	IQUANT	1	Current Convention
ICHRANGE	IQUANT	2	Ich Range
ICHRANGEMODE	TOGGLE	F	Ich Auto Range
ICHOFFSETENABLE	TOGGLE	T	Ich Offset Enable
ICHOFFSET	QUANT	0	Ich Offset (V)
ICHFILTER	IQUANT	3	Ich Filter
VCHRANGE	IQUANT	2	Vch Range
VCHRANGEMODE	TOGGLE	F	Vch Auto Range
VCHOFFSETENABLE	TOGGLE	T	Vch Offset Enable
VCHOFFSET	QUANT	0	Vch Offset (V)
VCHFILTER	IQUANT	3	Vch Filter
ACHRANGE	IQUANT	2	Ach Range
ACHOFFSETENABLE	TOGGLE	F	Ach Offset Enable
ACHOFFSET	QUANT	0	Ach Offset (V)
ACHFILTER	IQUANT	3	Ach Filter
IERANGELOWERLIMIT	IQUANT	1	I/E Range Lower Limit
IERANGEMODE	TOGGLE	F	I/E AutoRange
IERANGE	IQUANT	7	I/E Range
POSFEEDENABLE	TOGGLE	F	Positive Feedback IR Comp
POSFEEDRESISTANCE	QUANT	0	Positive Feedback Resistance (ohm)
ACHSELECT	IQUANT	0	Ach Select
CABLEID	IQUANT	14	Cable ID
DCCALDATE	LABEL	2/27/2020	DC Calibration Date
ACCALDATE	LABEL	2/27/2020	AC Calibration Date
THERMOSELECT	IQUANT	1	Thermo Select
FRAMEWORKVERSION	QUANT	6.33	Framework Version
INSTRUMENTVERSION	LABEL	3.50	Instrument Version
ZCURVE	TABLE
	Pt	Time	Freq	Zreal	Zimag	Zsig	Zmod	Zphz	Idc	Vdc	IERange
	#	s	Hz	ohm	ohm	V	ohm	°	A	V	#
	0	2	1000078	1528.601	-1605.323	1	2216.683	-46.40238	6.22591E-009	0.0603462	8
	1	2	794390.6	1753.044	-1762.691	1	2486.01	-45.15721	5.596039E-008	0.0600164	8
	2	2	630984.4	1998.593	-1933.551	1	2780.826	-44.05235	3.375244E-008	0.0598654	8
	3	2	501234.4	2250.972	-2112.126	1	3086.738	-43.1773	3.139574E-008	0.0597626	8
	4	3	398109.4	2546.244	-2309.036	1	3437.297	-42.203	1.146719E-008	0.0597265	8
	5	3	316265.6	2874.693	-2524.274	1	3825.679	-41.28643	1.099976E-008	0.0596971	8
	6	3	251203.1	3241.466	-2758.144	1	4256.108	-40.39425	3.764494E-008	0.0596633	8
	7	4	199546.9	3657.239	-3008.116	1	4735.415	-39.43764	5.392636E-008	0.0596834	8
	8	4	158578.1	4130.349	-3257.668	1	5260.436	-38.26337	2.387025E-008	0.0596591	8
	9	4	125953.1	4709.459	-3456.317	1	5841.672	-36.2753	8.536542E-009	0.0596107	7
	10	5	100078.1	5274.292	-3666.09	1	6423.268	-34.80265	1.407561E-009	0.0595872	7
	11	5	79453.13	5905.698	-3869.911	1	7060.7	-33.23619	2.822059E-009	0.0595944	7
	12	5	63140.62	6577.148	-4016.802	1	7706.723	-31.41328	1.429512E-009	0.0595867	7
	13	6	50203.12	7278.048	-4103.833	1	8355.323	-29.41711	1.878188E-009	0.0595781	7
	14	6	39890.62	7984.419	-4138.387	1	8993.175	-27.39806	2.058987E-009	0.0595795	7
	15	6	31640.63	8688.562	-4120.26	1	9616.01	-25.37109	1.941471E-009	0.0595742	7
	16	7	25171.88	9349.777	-4055.629	1	10191.49	-23.44963	1.748326E-009	0.059576	7
	17	7	20015.62	9981.71	-3964.666	1	10740.26	-21.66262	3.370904E-009	0.0595812	7
	18	7	15890.62	10566.62	-3852.087	1	11246.87	-20.02945	2.106035E-009	0.0595699	7
	19	8	12609.37	11177.17	-3661.946	1	11761.76	-18.1402	6.349012E-010	0.0596247	6
	20	8	10078.13	11650.06	-3574.862	1	12186.2	-17.05882	3.895582E-010	0.0596257	6
	21	8	8015.625	12105.75	-3525.438	1	12608.65	-16.23662	5.748954E-010	0.0596251	6
	22	9	6328.125	12558.34	-3509.115	1	13039.39	-15.6117	2.434399E-010	0.0596194	6
	23	9	5015.625	12993.04	-3534.655	1	13465.24	-15.21858	3.376718E-010	0.0596219	6
	24	9	3984.375	13414.93	-3597.141	1	13888.84	-15.01044	1.282818E-010	0.0596203	6
	25	9	3170.956	13832.7	-3701.386	1	14319.35	-14.98038	3.014164E-010	0.0596233	6
	26	10	2527.573	14267.24	-3849.407	1	14777.42	-15.09929	-7.831721E-011	0.0596196	6
	27	10	1976.103	14744.27	-4061.334	1	15293.39	-15.40031	-1.92238E-010	0.0596146	6
	28	10	1577.524	15187.58	-4309.198	1	15787.08	-15.84032	6.904291E-011	0.0596154	6
	29	11	1265.625	15641.43	-4615.328	1	16308.15	-16.43978	5.216227E-011	0.0596208	6
	30	11	998.264	16124.76	-5021.477	1	16888.55	-17.29733	-1.388E-010	0.0596173	6
	31	11	796.875	16613.71	-5500.042	1	17500.46	-18.31735	1.628037E-010	0.0596232	6
	32	12	627.7902	17162.86	-6124.389	1	18222.84	-19.63841	4.281039E-010	0.0596223	6
	33	12	505.5147	17692.15	-6812.065	1	18958.28	-21.05837	-3.146108E-010	0.0596128	6
	34	12	397.9953	18318.82	-7738.32	1	19886.2	-22.90039	3.76384E-010	0.0596265	6
	35	13	315.5048	18986.23	-8830.105	1	20939.14	-24.94217	3.886762E-010	0.0596252	6
	36	13	252.4038	19671.73	-10099.54	1	22112.84	-27.17614	3.461749E-010	0.0596203	6
	37	13	198.6229	20472.82	-11752.56	1	23606.33	-29.85827	3.815371E-010	0.0596282	6
	38	14	158.3615	21295.78	-13655.09	1	25297.67	-32.66845	3.711893E-010	0.059621	6
	39	14	125.558	22253.65	-16034.57	1	27428.68	-35.77414	2.904612E-010	0.059628	6
	40	14	100.4464	23234.9	-18816.3	1	29898.39	-39.00157	2.836936E-010	0.0596236	6
	41	15	79.00281	24425.11	-22494.94	1	33205.54	-42.64433	4.321479E-010	0.0596184	6
	42	15	63.3446	25646.74	-26652.9	1	36988.27	-46.10214	3.793242E-010	0.0596192	6
	43	15	49.86702	27189.42	-32206.77	1	42149.03	-49.82846	2.387594E-010	0.0596157	6
	44	16	39.72458	28929.45	-38724.21	1	48337.13	-53.23793	2.239084E-010	0.0596161	6
	45	16	31.6723	31077.72	-46685.85	1	56083.8	-56.34919	4.292269E-010	0.0596134	6
	46	16	24.93351	33931.99	-57013.85	1	66347.27	-59.24086	-1.579473E-010	0.0596125	6
	47	17	19.86229	37351.5	-69004.16	1	78464.7	-61.5736	-5.913253E-010	0.0596116	6
	48	17	15.83615	41761.3	-83471.36	1	93335.28	-63.42088	2.604255E-010	0.0596141	6
	49	17	12.40079	48007.64	-102323.5	1	113025.8	-64.86521	-8.817511E-010	0.0596243	5
	50	18	9.93114	55260.85	-122859.2	1	134715.1	-65.78226	-9.757311E-010	0.0596166	5
	51	18	7.944915	64615.57	-147362.1	1	160906.1	-66.32343	9.798763E-011	0.0596194	5
	52	18	6.317385	76781.78	-177051.5	1	192983.7	-66.55511	-1.666995E-010	0.0596218	5
	53	19	5.008013	92633.65	-212492.4	1	231806	-66.44576	-3.694981E-010	0.0596119	5
	54	20	3.945707	113535.8	-255002.7	1	279135.8	-65.99976	-1.34674E-010	0.0596215	5
	55	21	3.158693	137436	-300936.1	1	330834.1	-65.45407	-2.246547E-010	0.0596064	5
	56	22	2.504006	168807.4	-355626.2	1	393657.1	-64.6074	9.730089E-011	0.0596066	5
	57	23	1.998082	204728.4	-415911.1	1	463568.5	-63.79171	8.088598E-011	0.0596226	5
	58	25	1.584686	251269.3	-485862.5	1	546990.6	-62.65375	-4.111613E-011	0.059579	5
	59	27	1.266892	303645.6	-563851.1	1	640412.9	-61.69661	-3.504693E-011	0.0595714	5
	60	29	0.999041	367962.4	-655948.5	1	752106.9	-60.70922	-4.371314E-011	0.059585	5
