EXPLAIN
TAG	EISPOT
TITLE	LABEL	Potentiostatic EIS	Test &Identifier
DATE	LABEL	2/13/2020	Date
TIME	LABEL	14:05:22	Time
NOTES	NOTES	1	&Notes...
	
PSTAT	PSTAT	REF600-11020	Potentiostat
VDC	POTEN	0.00000E+000	T	DC &Voltage (V)
FREQINIT	QUANT	1.00000E+006	Initial Fre&q. (Hz)
FREQFINAL	QUANT	1.00000E+000	Final Fre&q. (Hz)
PTSPERDEC	QUANT	1.00000E+001	Points/&decade
VAC	QUANT	2.50000E+001	AC &Voltage (mV rms)
AREA	QUANT	5.00000E-004	&Area (cm^2)
CONDIT	TWOPARAM	F	1.50000E+001	0.00000E+000	Conditionin&g	Time(s)	E(V)
DELAY	TWOPARAM	F	1.00000E+002	0.00000E+000	Init. De&lay	Time(s)	Stab.(mV/s)
SPEED	SELECTOR	0	&Optimize for:
ZGUESS	QUANT	1.00000E+003	E&stimated Z (ohms)
OCVCURVE	TABLE	39
	Pt	T	Vf	Vm	Ach	Over
	#	s	V vs. Ref.	V	V	bits
	0	0.258333	5.51093E-002	5.51093E-002	5.74271E-004	...........
	1	0.516667	5.51091E-002	5.50974E-002	5.79471E-004	...........
	2	0.775	5.51088E-002	5.51465E-002	5.79104E-004	...........
	3	1.03333	5.51116E-002	5.51758E-002	5.75971E-004	...........
	4	1.29167	5.51231E-002	5.52308E-002	5.76738E-004	...........
	5	1.55	5.51452E-002	5.51888E-002	5.77104E-004	...........
	6	1.80833	5.51717E-002	5.52328E-002	5.76804E-004	...........
	7	2.06667	5.51933E-002	5.51903E-002	5.75571E-004	...........
	8	2.325	5.52055E-002	5.52132E-002	5.80871E-004	...........
	9	2.58333	5.52093E-002	5.52009E-002	5.75638E-004	...........
	10	2.84167	5.52080E-002	5.51779E-002	5.76271E-004	...........
	11	3.1	5.52043E-002	5.52243E-002	5.74738E-004	...........
	12	3.35833	5.52002E-002	5.51548E-002	5.75137E-004	...........
	13	3.61667	5.51968E-002	5.52258E-002	5.76804E-004	...........
	14	3.875	5.51933E-002	5.51183E-002	5.78904E-004	...........
	15	4.13333	5.51881E-002	5.52187E-002	5.78571E-004	...........
	16	4.39167	5.51811E-002	5.51110E-002	5.76304E-004	...........
	17	4.65	5.51736E-002	5.51928E-002	5.74971E-004	...........
	18	4.90833	5.51660E-002	5.50959E-002	5.77471E-004	...........
	19	5.16667	5.51578E-002	5.51706E-002	5.75938E-004	...........
	20	5.425	5.51493E-002	5.50993E-002	5.77104E-004	...........
	21	5.68333	5.51413E-002	5.51355E-002	5.74537E-004	...........
	22	5.94167	5.51339E-002	5.51071E-002	5.79404E-004	...........
	23	6.2	5.51267E-002	5.50936E-002	5.82371E-004	...........
	24	6.45833	5.51194E-002	5.51221E-002	5.80037E-004	...........
	25	6.71667	5.51121E-002	5.50584E-002	5.77404E-004	...........
	26	6.975	5.51052E-002	5.51220E-002	5.78337E-004	...........
	27	7.23333	5.50981E-002	5.50215E-002	5.80304E-004	...........
	28	7.49167	5.50901E-002	5.51138E-002	5.77237E-004	...........
	29	7.75	5.50810E-002	5.49940E-002	5.76904E-004	...........
	30	8.00833	5.50710E-002	5.50839E-002	5.75404E-004	...........
	31	8.26667	5.50601E-002	5.49873E-002	5.73004E-004	...........
	32	8.525	5.50489E-002	5.50466E-002	5.69738E-004	...........
	33	8.78333	5.50384E-002	5.50054E-002	5.76571E-004	...........
	34	9.04167	5.50295E-002	5.50105E-002	5.73671E-004	...........
	35	9.3	5.50224E-002	5.50138E-002	5.68404E-004	...........
	36	9.5583	5.50160E-002	5.49603E-002	5.72804E-004	...........
	37	9.8167	5.50088E-002	5.50267E-002	5.72638E-004	...........
	38	10.075	5.50006E-002	5.49225E-002	5.73471E-004	...........
EOC	QUANT	0.0550006	Open Circuit (V)
PSTATMODEL	IQUANT	4	Pstat Model
PSTATSECTION	LABEL	REF600-11020	Pstat Section
PSTATSERIALNO	LABEL	11020	Pstat Serial Number
CTRLMODE	IQUANT	1	Control Mode
IESTAB	IQUANT	0	I/E Stability
CASPEED	IQUANT	1	Control Amp Speed
CONVENTION	IQUANT	1	Current Convention
ICHRANGE	IQUANT	2	Ich Range
ICHRANGEMODE	TOGGLE	F	Ich Auto Range
ICHOFFSETENABLE	TOGGLE	T	Ich Offset Enable
ICHOFFSET	QUANT	0	Ich Offset (V)
ICHFILTER	IQUANT	3	Ich Filter
VCHRANGE	IQUANT	2	Vch Range
VCHRANGEMODE	TOGGLE	F	Vch Auto Range
VCHOFFSETENABLE	TOGGLE	T	Vch Offset Enable
VCHOFFSET	QUANT	0	Vch Offset (V)
VCHFILTER	IQUANT	3	Vch Filter
ACHRANGE	IQUANT	2	Ach Range
ACHOFFSETENABLE	TOGGLE	F	Ach Offset Enable
ACHOFFSET	QUANT	0	Ach Offset (V)
ACHFILTER	IQUANT	3	Ach Filter
IERANGELOWERLIMIT	IQUANT	1	I/E Range Lower Limit
IERANGEMODE	TOGGLE	F	I/E AutoRange
IERANGE	IQUANT	8	I/E Range
POSFEEDENABLE	TOGGLE	F	Positive Feedback IR Comp
POSFEEDRESISTANCE	QUANT	0	Positive Feedback Resistance (ohm)
ACHSELECT	IQUANT	0	Ach Select
CABLEID	IQUANT	14	Cable ID
DCCALDATE	LABEL	1/27/2020	DC Calibration Date
ACCALDATE	LABEL	1/27/2020	AC Calibration Date
THERMOSELECT	IQUANT	1	Thermo Select
FRAMEWORKVERSION	QUANT	6.33	Framework Version
INSTRUMENTVERSION	LABEL	3.50	Instrument Version
ZCURVE	TABLE
	Pt	Time	Freq	Zreal	Zimag	Zsig	Zmod	Zphz	Idc	Vdc	IERange
	#	s	Hz	ohm	ohm	V	ohm	°	A	V	#
	0	2	1000078	2008.911	-2136.822	1	2932.871	-46.76722	-1.481529E-006	0.0575654	8
	1	2	794390.6	2425.884	-2257.149	1	3313.553	-42.93645	-6.446992E-007	0.0572184	8
	2	2	630984.4	2872.76	-2332.786	1	3700.627	-39.07787	1.025868E-007	0.0567227	8
	3	2	501234.4	3321.106	-2339.807	1	4062.566	-35.16571	2.666829E-007	0.0565609	8
	4	3	398109.4	3767.326	-2268.104	1	4397.39	-31.04988	-2.272191E-006	0.0571034	8
	5	3	316265.6	4180.478	-2205.424	1	4726.552	-27.81402	1.908679E-006	0.0561933	8
	6	3	251203.1	4543.09	-2050.79	1	4984.517	-24.29482	-2.674412E-008	0.0565605	8
	7	4	199546.9	4885.642	-1898.272	1	5241.463	-21.23319	-7.800259E-007	0.0568355	8
	8	4	158578.1	5148.813	-1725.882	1	5430.373	-18.53115	3.599302E-006	0.0559697	8
	9	4	125953.1	5409.989	-1508.496	1	5616.364	-15.58035	9.904217E-007	0.0543028	7
	10	5	100078.1	5603.627	-1373.59	1	5769.522	-13.77306	-3.181294E-008	0.0565644	7
	11	5	79453.13	5762.525	-1246.77	1	5895.857	-12.20824	-2.674976E-008	0.0565366	7
	12	5	63140.62	5897.527	-1140.155	1	6006.728	-10.94187	5.539031E-009	0.056534	7
	13	6	50203.12	6011.343	-1057.358	1	6103.626	-9.97592	7.357809E-008	0.0564017	7
	14	6	39890.62	6114.063	-992.783	1	6194.141	-9.223022	-2.778198E-008	0.0565345	7
	15	7	31640.63	6209.54	-953.568	1	6282.331	-8.730426	6.324386E-009	0.0565901	7
	16	7	25171.88	6298.349	-932.8183	1	6367.052	-8.424562	7.402017E-008	0.0563917	7
	17	7	20015.62	6384.44	-933.5215	1	6452.328	-8.318738	-2.804483E-008	0.0565319	7
	18	8	15890.62	6471.872	-956.965	1	6542.24	-8.411108	-2.806781E-008	0.0565319	7
	19	8	12609.37	6566.105	-1002.209	1	6642.15	-8.678284	5.325701E-008	0.0565089	7
	20	8	10078.13	6660.368	-1066.621	1	6745.234	-9.098347	-2.350891E-008	0.0565117	7
	21	9	8015.625	6765.849	-1151.972	1	6863.217	-9.66268	-2.723864E-008	0.0565331	7
	22	9	6328.125	6883.748	-1264.318	1	6998.892	-10.40736	6.83757E-009	0.0565838	7
	23	9	5015.625	7008.079	-1399.947	1	7146.539	-11.29682	1.041713E-007	0.0563774	7
	24	9	3984.375	7140.17	-1564.019	1	7309.458	-12.35522	-1.947837E-008	0.0565647	7
	25	10	3170.956	7279.161	-1756.589	1	7488.11	-13.56709	3.062675E-008	0.0564822	7
	26	10	2527.573	7424.548	-1988.098	1	7686.12	-14.99061	3.119385E-008	0.0564781	7
	27	10	1976.103	7593.753	-2295.084	1	7933	-16.81656	6.522163E-008	0.0563788	7
	28	11	1577.524	7762.447	-2638.788	1	8198.706	-18.77509	1.105503E-008	0.0564307	7
	29	11	1265.625	7926.207	-3060.606	1	8496.592	-21.11345	-3.489218E-008	0.0565556	7
	30	11	998.264	8123.444	-3610.129	1	8889.51	-23.96078	-1.929877E-008	0.0565598	7
	31	12	796.875	8335.688	-4254.138	1	9358.493	-27.0376	-1.680136E-009	0.0564646	6
	32	12	627.7902	8585.981	-5105.827	1	9989.42	-30.73869	-7.935436E-009	0.056582	6
	33	12	505.5147	8844.186	-6056.991	1	10719.46	-34.40552	2.906553E-009	0.0565459	6
	34	13	397.9953	9187.856	-7344.263	1	11762.44	-38.6369	7.854519E-010	0.0565086	6
	35	13	315.5048	9592.89	-8885.979	1	13076.09	-42.80923	1.327199E-009	0.0565092	6
	36	13	252.4038	10066.19	-10693.79	1	14686.23	-46.73158	1.474836E-009	0.0565062	6
	37	14	198.6229	10694.24	-13063.73	1	16882.76	-50.69554	8.1635E-010	0.0565114	6
	38	14	158.3615	11439.78	-15798.51	1	19505.42	-54.0915	1.0012E-009	0.0565068	6
	39	14	125.558	12387.44	-19191.14	1	22841.81	-57.15868	1.000581E-009	0.0565097	6
	40	15	100.4464	13507.34	-23128.65	1	26784	-59.71469	1.564883E-009	0.0565087	6
	41	15	79.00281	15025.66	-28205.56	1	31958.16	-61.9549	1.185933E-009	0.0565041	6
	42	15	63.3446	17042.97	-33983.25	1	38017.42	-63.36573	6.382064E-010	0.0565022	6
	43	16	49.86702	19337.95	-41360.27	1	45657.73	-64.94161	2.037793E-010	0.0565052	6
	44	16	39.72458	21971.19	-49707.99	1	54347.2	-66.15432	7.77286E-010	0.0565084	6
	45	16	31.6723	25333.05	-59780.37	1	64926.54	-67.03429	8.460441E-010	0.056504	6
	46	17	24.93351	29919.38	-72699.05	1	78615.02	-67.63033	4.524891E-010	0.0565047	6
	47	17	19.86229	35464.83	-87539.37	1	94450.49	-67.94565	-4.565811E-010	0.0565025	6
	48	17	15.83615	42546.21	-104479.4	1	112810.2	-67.84282	9.135198E-010	0.0565006	5
	49	17	12.40079	51543.97	-127042.4	1	137100.5	-67.9165	-5.466543E-011	0.0565007	5
	50	18	9.93114	63883.91	-150713.4	1	163693.8	-67.02904	7.714074E-010	0.0564988	5
	51	18	7.944915	78710.91	-177979.7	1	194607.7	-66.14275	-3.49612E-012	0.0565041	5
	52	19	6.317385	97438.8	-210221.5	1	231705.4	-65.13201	-9.783087E-011	0.0565091	5
	53	20	5.008013	120860.2	-246613.8	1	274637.2	-63.8915	1.595431E-010	0.0565082	5
	54	21	3.945707	149290.9	-288685.3	1	325003	-62.65468	-6.139667E-011	0.0564925	5
	55	22	3.158693	181102.1	-332356.8	1	378495.7	-61.41392	1.999328E-010	0.0564935	5
	56	24	2.504006	218279.9	-382597.2	1	440484.6	-60.29431	2.040995E-010	0.0564968	5
	57	25	1.998082	259502.7	-437434.7	1	508616.5	-59.32198	-1.321287E-011	0.0564527	5
	58	27	1.584686	304722.6	-502026.6	1	587270.4	-58.74288	2.841955E-011	0.0564653	5
	59	29	1.266892	354143.3	-572470.6	1	673156.8	-58.25812	1.043767E-010	0.0564962	5
	60	31	0.999041	413594.7	-660913.9	1	779658.8	-57.96199	1.314068E-010	0.0565262	5
