EXPLAIN
TAG	EISPOT
TITLE	LABEL	Potentiostatic EIS	Test &Identifier
DATE	LABEL	3/17/2020	Date
TIME	LABEL	16:57:26	Time
NOTES	NOTES	1	&Notes...
	
PSTAT	PSTAT	REF600-11020	Potentiostat
VDC	POTEN	0.00000E+000	T	DC &Voltage (V)
FREQINIT	QUANT	1.00000E+006	Initial Fre&q. (Hz)
FREQFINAL	QUANT	1.00000E+000	Final Fre&q. (Hz)
PTSPERDEC	QUANT	1.00000E+001	Points/&decade
VAC	QUANT	2.50000E+001	AC &Voltage (mV rms)
AREA	QUANT	4.00000E-004	&Area (cm^2)
CONDIT	TWOPARAM	F	5.00000E+000	0.00000E+000	Conditionin&g	Time(s)	E(V)
DELAY	TWOPARAM	T	3.00000E+000	0.00000E+000	Init. De&lay	Time(s)	Stab.(mV/s)
SPEED	SELECTOR	0	&Optimize for:
ZGUESS	QUANT	5.00000E+003	E&stimated Z (ohms)
OCVCURVE	TABLE	12
	Pt	T	Vf	Vm	Ach	Over
	#	s	V vs. Ref.	V	V	bits
	0	0.258333	1.15630E-001	1.15630E-001	5.77230E-004	...........
	1	0.516667	1.15630E-001	1.15624E-001	5.74930E-004	...........
	2	0.775	1.15629E-001	1.15616E-001	5.75697E-004	...........
	3	1.03333	1.15627E-001	1.15610E-001	5.70797E-004	...........
	4	1.29167	1.15623E-001	1.15597E-001	5.77730E-004	...........
	5	1.55	1.15616E-001	1.15587E-001	5.78330E-004	...........
	6	1.80833	1.15608E-001	1.15579E-001	5.75830E-004	...........
	7	2.06667	1.15599E-001	1.15568E-001	5.71297E-004	...........
	8	2.325	1.15589E-001	1.15557E-001	5.78463E-004	...........
	9	2.58333	1.15579E-001	1.15547E-001	5.72130E-004	...........
	10	2.84167	1.15568E-001	1.15536E-001	5.78597E-004	...........
	11	3.1	1.15558E-001	1.15526E-001	5.73463E-004	...........
EOC	QUANT	0.1155579	Open Circuit (V)
PSTATMODEL	IQUANT	4	Pstat Model
PSTATSECTION	LABEL	REF600-11020	Pstat Section
PSTATSERIALNO	LABEL	11020	Pstat Serial Number
CTRLMODE	IQUANT	1	Control Mode
IESTAB	IQUANT	0	I/E Stability
CASPEED	IQUANT	1	Control Amp Speed
CONVENTION	IQUANT	1	Current Convention
ICHRANGE	IQUANT	2	Ich Range
ICHRANGEMODE	TOGGLE	F	Ich Auto Range
ICHOFFSETENABLE	TOGGLE	T	Ich Offset Enable
ICHOFFSET	QUANT	0	Ich Offset (V)
ICHFILTER	IQUANT	3	Ich Filter
VCHRANGE	IQUANT	2	Vch Range
VCHRANGEMODE	TOGGLE	F	Vch Auto Range
VCHOFFSETENABLE	TOGGLE	T	Vch Offset Enable
VCHOFFSET	QUANT	0	Vch Offset (V)
VCHFILTER	IQUANT	3	Vch Filter
ACHRANGE	IQUANT	2	Ach Range
ACHOFFSETENABLE	TOGGLE	F	Ach Offset Enable
ACHOFFSET	QUANT	0	Ach Offset (V)
ACHFILTER	IQUANT	3	Ach Filter
IERANGELOWERLIMIT	IQUANT	1	I/E Range Lower Limit
IERANGEMODE	TOGGLE	F	I/E AutoRange
IERANGE	IQUANT	7	I/E Range
POSFEEDENABLE	TOGGLE	F	Positive Feedback IR Comp
POSFEEDRESISTANCE	QUANT	0	Positive Feedback Resistance (ohm)
ACHSELECT	IQUANT	0	Ach Select
CABLEID	IQUANT	14	Cable ID
DCCALDATE	LABEL	2/27/2020	DC Calibration Date
ACCALDATE	LABEL	2/27/2020	AC Calibration Date
THERMOSELECT	IQUANT	1	Thermo Select
FRAMEWORKVERSION	QUANT	6.33	Framework Version
INSTRUMENTVERSION	LABEL	3.50	Instrument Version
ZCURVE	TABLE
	Pt	Time	Freq	Zreal	Zimag	Zsig	Zmod	Zphz	Idc	Vdc	IERange
	#	s	Hz	ohm	ohm	V	ohm	°	A	V	#
	0	1	1000078	1409.452	-635.1085	1	1545.936	-24.25665	2.708581E-008	0.1177271	8
	1	1	794390.6	1508.34	-620.4627	1	1630.97	-22.36004	5.781891E-008	0.1174166	8
	2	1	630984.4	1601.94	-602.9821	1	1711.666	-20.62671	4.971072E-008	0.1172737	8
	3	2	501234.4	1689.069	-584.9444	1	1787.488	-19.10157	7.861016E-008	0.1171716	8
	4	2	398109.4	1770.048	-568.2725	1	1859.033	-17.79918	3.455654E-008	0.1171427	8
	5	2	316265.6	1846.851	-554.3521	1	1928.254	-16.70769	3.758579E-008	0.1171183	8
	6	3	251203.1	1918.042	-541.8941	1	1993.122	-15.77629	7.749298E-008	0.117096	8
	7	3	199546.9	1986.405	-537.924	1	2057.952	-15.15244	4.4057E-008	0.1171331	8
	8	3	158578.1	2053.392	-536.6395	1	2122.357	-14.64626	2.413088E-008	0.1171089	8
	9	3	125953.1	2135.65	-510.5581	1	2195.83	-13.44504	2.960634E-009	0.1170667	7
	10	4	100078.1	2195.682	-520.2295	1	2256.471	-13.32946	1.989009E-009	0.1170522	7
	11	4	79453.13	2259.587	-544.7405	1	2324.323	-13.55421	2.703159E-009	0.1170456	7
	12	4	63140.62	2325.141	-574.4028	1	2395.041	-13.87651	1.462272E-009	0.1170436	7
	13	5	50203.12	2393.769	-609.6763	1	2470.19	-14.28904	2.246723E-009	0.1170475	7
	14	5	39890.62	2464.281	-651.4946	1	2548.946	-14.80877	2.399821E-009	0.1170404	7
	15	5	31640.63	2537.285	-702.2322	1	2632.668	-15.47024	3.823558E-010	0.117034	7
	16	6	25171.88	2612.295	-764.2899	1	2721.806	-16.30811	1.329205E-009	0.1170445	7
	17	6	20015.62	2691.696	-841.2075	1	2820.081	-17.35504	1.301077E-009	0.1170392	7
	18	6	15890.62	2776.799	-935.9935	1	2930.306	-18.62775	-4.053867E-010	0.1170332	7
	19	6	12609.37	2870.708	-1052.44	1	3057.547	-20.13361	1.169825E-009	0.1170346	7
	20	7	10078.13	2973.866	-1189.863	1	3203.069	-21.80666	2.213706E-009	0.1170385	7
	21	7	8015.625	3094.066	-1355.906	1	3378.125	-23.66437	1.044761E-009	0.1170316	7
	22	7	6328.125	3240.95	-1561.669	1	3597.578	-25.72733	1.430818E-009	0.1170349	7
	23	8	5015.625	3413.008	-1796.954	1	3857.158	-27.76688	2.349696E-009	0.1170365	7
	24	8	3984.375	3618.432	-2063.854	1	4165.638	-29.69924	2.332493E-009	0.1170365	7
	25	8	3170.956	3860.424	-2359.25	1	4524.26	-31.43067	3.010119E-010	0.1170362	7
	26	9	2527.573	4143.824	-2686.292	1	4938.364	-32.9539	1.769993E-009	0.1170407	7
	27	9	1976.103	4498.735	-3065.981	1	5444.158	-34.27524	6.527507E-010	0.1170308	7
	28	9	1577.524	4860.715	-3443.393	1	5956.803	-35.31424	1.624753E-009	0.1170317	7
	29	10	1265.625	5238.503	-3834.429	1	6491.9	-36.20302	5.761327E-010	0.1170236	7
	30	10	998.264	5663.812	-4308.055	1	7116.046	-37.25764	8.213548E-010	0.1170314	7
	31	10	796.875	6069.708	-4827.963	1	7755.681	-38.49942	1.098548E-009	0.1170304	7
	32	10	627.7902	6497.063	-5478.809	1	8498.774	-40.14009	4.285891E-010	0.1170293	7
	33	11	505.5147	6872.058	-6212.001	1	9263.592	-42.11203	2.921917E-009	0.1170362	7
	34	11	397.9953	7295.674	-7226	1	10268.49	-44.7251	1.449838E-010	0.1171066	6
	35	11	315.5048	7720.83	-8474.26	1	11464.04	-47.6636	1.988477E-010	0.1171006	6
	36	12	252.4038	8167.021	-9979.45	1	12895.34	-50.70367	5.415164E-011	0.1171004	6
	37	12	198.6229	8720.315	-12006.57	1	14839.19	-54.00926	1.359872E-010	0.1171012	6
	38	12	158.3615	9340.986	-14394.47	1	17159.68	-57.01929	1.593116E-010	0.1170913	6
	39	13	125.558	10122.2	-17416.37	1	20144.2	-59.83532	2.29311E-010	0.1170959	6
	40	13	100.4464	11050.67	-20975.3	1	23708.24	-62.21784	-6.168414E-011	0.1170929	6
	41	13	79.00281	12325.53	-25666.78	1	28472.84	-64.34905	6.101248E-011	0.1170936	6
	42	14	63.3446	13819.6	-30919.78	1	33867.59	-65.91773	5.217455E-012	0.1170906	6
	43	14	49.86702	15891.39	-37806.48	1	41010.56	-67.20127	2.793909E-010	0.1170905	6
	44	14	39.72458	18422.01	-45725.66	1	49297.12	-68.05641	-9.859382E-011	0.1170911	6
	45	15	31.6723	21657.31	-55156.14	1	59255.71	-68.56232	5.078046E-010	0.1170894	6
	46	15	24.93351	26016.24	-67077.38	1	71945.95	-68.80102	7.072624E-010	0.1170939	6
	47	15	19.86229	31412.67	-80664.36	1	86564.98	-68.72285	-6.419562E-010	0.1170975	6
	48	15	15.83615	38201.73	-96549.7	1	103832.6	-68.41283	-6.527378E-010	0.1170948	6
	49	16	12.40079	47616.41	-116600.9	1	125948.7	-67.78632	-8.061775E-010	0.1170993	5
	50	16	9.93114	58337.35	-137960.9	1	149788	-67.07871	-3.819666E-011	0.1170911	5
	51	16	7.944915	71759.8	-162492.6	1	177632.6	-66.17284	-1.422081E-010	0.1170941	5
	52	17	6.317385	88671.06	-191288.7	1	210841	-65.13012	1.973645E-010	0.1170901	5
	53	18	5.008013	109768.2	-224633.1	1	250018.1	-63.95729	3.473255E-010	0.1171008	5
	54	18	3.945707	135913	-263102.3	1	296133.7	-62.68009	-1.004255E-010	0.1170891	5
	55	19	3.158693	165199.4	-303323.8	1	345392.8	-61.42594	2.787575E-010	0.1170894	5
	56	20	2.504006	200339.6	-349912.2	1	403205.2	-60.20703	1.96519E-010	0.1170965	5
	57	22	1.998082	240335.7	-400397.6	1	466989.8	-59.02603	-7.358635E-011	0.1170536	5
	58	23	1.584686	285401.3	-458139.9	1	539764.8	-58.07888	-3.370213E-011	0.1170765	5
	59	25	1.266892	335611.5	-519373.8	1	618372.2	-57.13007	4.807082E-011	0.1171086	5
	60	28	0.999041	395788.3	-593975.4	1	713761.3	-56.32298	1.028968E-010	0.1171281	5
