EXPLAIN
TAG	EISPOT
TITLE	LABEL	Potentiostatic EIS	Test &Identifier
DATE	LABEL	1/7/2020	Date
TIME	LABEL	16:13:43	Time
NOTES	NOTES	5	&Notes...
	
	
	
	
	
PSTAT	PSTAT	REF600-11020	Potentiostat
VDC	POTEN	0.00000E+000	T	DC &Voltage (V)
FREQINIT	QUANT	1.00000E+006	Initial Fre&q. (Hz)
FREQFINAL	QUANT	1.00000E+000	Final Fre&q. (Hz)
PTSPERDEC	QUANT	1.00000E+001	Points/&decade
VAC	QUANT	2.50000E+001	AC &Voltage (mV rms)
AREA	QUANT	1.00000E-001	&Area (cm^2)
CONDIT	TWOPARAM	T	5.00000E+000	0.00000E+000	Conditionin&g	Time(s)	E(V)
DELAY	TWOPARAM	T	5.00000E+000	0.00000E+000	Init. De&lay	Time(s)	Stab.(mV/s)
SPEED	SELECTOR	0	&Optimize for:
ZGUESS	QUANT	1.00000E+003	E&stimated Z (ohms)
OCVCURVE	TABLE	19
	Pt	T	Vf	Vm	Ach	Over
	#	s	V vs. Ref.	V	V	bits
	0	0.258333	1.00671E-002	1.00671E-002	6.50446E-004	...........
	1	0.516667	1.00712E-002	1.02838E-002	6.51413E-004	...........
	2	0.775	1.00941E-002	1.03530E-002	6.49046E-004	...........
	3	1.03333	1.01486E-002	1.03454E-002	6.42613E-004	...........
	4	1.29167	1.02238E-002	1.03709E-002	6.43146E-004	...........
	5	1.55	1.02905E-002	1.02774E-002	6.53046E-004	...........
	6	1.80833	1.03280E-002	1.03491E-002	6.43946E-004	...........
	7	2.06667	1.03371E-002	1.03111E-002	6.43113E-004	...........
	8	2.325	1.03321E-002	1.03062E-002	6.43480E-004	...........
	9	2.58333	1.03260E-002	1.03883E-002	6.46880E-004	...........
	10	2.84167	1.03279E-002	1.04370E-002	6.46246E-004	...........
	11	3.1	1.03457E-002	1.04733E-002	6.45780E-004	...........
	12	3.35833	1.03800E-002	1.05086E-002	6.48113E-004	...........
	13	3.61667	1.04222E-002	1.05274E-002	6.44746E-004	...........
	14	3.875	1.04627E-002	1.05435E-002	6.46980E-004	...........
	15	4.13333	1.04970E-002	1.05968E-002	6.42980E-004	...........
	16	4.39167	1.05258E-002	1.05837E-002	6.43180E-004	...........
	17	4.65	1.05507E-002	1.05759E-002	6.50146E-004	...........
	18	4.90833	1.05686E-002	1.05589E-002	6.40713E-004	...........
EOC	QUANT	0.0105686	Open Circuit (V)
PSTATMODEL	IQUANT	4	Pstat Model
PSTATSECTION	LABEL	REF600-11020	Pstat Section
PSTATSERIALNO	LABEL	11020	Pstat Serial Number
CTRLMODE	IQUANT	1	Control Mode
IESTAB	IQUANT	0	I/E Stability
CASPEED	IQUANT	1	Control Amp Speed
CONVENTION	IQUANT	1	Current Convention
ICHRANGE	IQUANT	2	Ich Range
ICHRANGEMODE	TOGGLE	F	Ich Auto Range
ICHOFFSETENABLE	TOGGLE	T	Ich Offset Enable
ICHOFFSET	QUANT	0	Ich Offset (V)
ICHFILTER	IQUANT	3	Ich Filter
VCHRANGE	IQUANT	2	Vch Range
VCHRANGEMODE	TOGGLE	F	Vch Auto Range
VCHOFFSETENABLE	TOGGLE	T	Vch Offset Enable
VCHOFFSET	QUANT	0	Vch Offset (V)
VCHFILTER	IQUANT	3	Vch Filter
ACHRANGE	IQUANT	2	Ach Range
ACHOFFSETENABLE	TOGGLE	F	Ach Offset Enable
ACHOFFSET	QUANT	0	Ach Offset (V)
ACHFILTER	IQUANT	3	Ach Filter
IERANGELOWERLIMIT	IQUANT	1	I/E Range Lower Limit
IERANGEMODE	TOGGLE	F	I/E AutoRange
IERANGE	IQUANT	7	I/E Range
POSFEEDENABLE	TOGGLE	F	Positive Feedback IR Comp
POSFEEDRESISTANCE	QUANT	0	Positive Feedback Resistance (ohm)
ACHSELECT	IQUANT	0	Ach Select
CABLEID	IQUANT	14	Cable ID
DCCALDATE	LABEL	12/22/2019	DC Calibration Date
ACCALDATE	LABEL	12/22/2019	AC Calibration Date
THERMOSELECT	IQUANT	1	Thermo Select
FRAMEWORKVERSION	QUANT	6.33	Framework Version
INSTRUMENTVERSION	LABEL	3.50	Instrument Version
ZCURVE	TABLE
	Pt	Time	Freq	Zreal	Zimag	Zsig	Zmod	Zphz	Idc	Vdc	IERange
	#	s	Hz	ohm	ohm	V	ohm	°	A	V	#
	0	1	1000078	2321.597	-1768.083	1	2918.207	-37.2922	-3.270544E-006	0.013442	8
	1	1	794390.6	2700.594	-1756.149	1	3221.376	-33.03524	-3.458764E-007	0.0130155	8
	2	1	630984.4	3027.48	-1674.31	1	3459.617	-28.94425	4.853123E-006	0.0114754	8
	3	2	501234.4	3324.255	-1508.957	1	3650.702	-24.41441	-5.46686E-006	0.0131784	8
	4	2	398109.4	3571.472	-1360.961	1	3821.992	-20.86006	3.299225E-008	0.0119643	8
	5	2	316265.6	3748.736	-1187.434	1	3932.305	-17.5759	4.097866E-006	0.0113988	8
	6	3	251203.1	3907.652	-1022.229	1	4039.146	-14.65988	-1.83763E-006	0.0124075	8
	7	3	199546.9	4009.449	-906.8523	1	4110.726	-12.74465	1.169488E-006	0.0119162	8
	8	3	158578.1	4126.742	-787.908	1	4201.286	-10.80924	-4.253558E-006	0.0129609	8
	9	4	125953.1	4197.201	-641.4357	1	4245.931	-8.688979	6.620025E-007	0.0099187	7
	10	4	100078.1	4238.731	-573.5034	1	4277.353	-7.705368	-8.226195E-008	0.0121317	7
	11	4	79453.13	4284.171	-536.0009	1	4317.571	-7.13133	-7.587046E-008	0.0122931	7
	12	5	63140.62	4327.694	-514.7892	1	4358.204	-6.783591	1.716617E-007	0.0118003	7
	13	5	50203.12	4371.443	-502.4166	1	4400.22	-6.556324	-3.59197E-008	0.0120109	7
	14	5	39890.62	4413.694	-504.2949	1	4442.411	-6.51817	-7.81317E-008	0.0121426	7
	15	5	31640.63	4457.243	-521.0276	1	4487.592	-6.667309	8.641081E-009	0.0121762	7
	16	6	25171.88	4502.359	-549.4381	1	4535.76	-6.957596	6.020123E-008	0.011966	7
	17	6	20015.62	4551.375	-590.4717	1	4589.517	-7.39197	-5.117803E-008	0.0120463	7
	18	6	15890.62	4605.583	-645.1381	1	4650.549	-7.973958	-5.734445E-008	0.0121494	7
	19	7	12609.37	4658.608	-717.0674	1	4713.472	-8.75047	1.084437E-007	0.0119914	7
	20	7	10078.13	4720.905	-802.0574	1	4788.553	-9.64219	1.081781E-007	0.0118249	7
	21	7	8015.625	4789.901	-910.0533	1	4875.587	-10.75764	-8.952853E-008	0.0121786	7
	22	8	6328.125	4866.026	-1046.228	1	4977.229	-12.13424	-3.629629E-008	0.0120082	7
	23	8	5015.625	4947.954	-1207.964	1	5093.272	-13.71948	1.07317E-007	0.0118195	7
	24	8	3984.375	5040.57	-1402.316	1	5232.001	-15.54688	6.680367E-008	0.0118278	7
	25	9	3170.956	5140.452	-1640.275	1	5395.808	-17.69745	-5.664282E-008	0.01214	7
	26	9	2527.573	5251.823	-1921.624	1	5592.342	-20.0974	1.538548E-009	0.0120787	7
	27	9	1976.103	5389.694	-2299.389	1	5859.692	-23.10441	1.727463E-007	0.0117941	7
	28	10	1577.524	5529.661	-2719.828	1	6162.355	-26.1908	-7.423894E-008	0.0122785	7
	29	10	1265.625	5692.224	-3214.834	1	6537.322	-29.45674	-7.740528E-008	0.0121379	7
	30	10	998.264	5886.302	-3863.126	1	7040.759	-33.27653	6.034691E-008	0.011958	7
	31	11	796.875	6102.194	-4615.399	1	7651.058	-37.10207	2.550002E-009	0.0119789	7
	32	11	627.7902	6368.474	-5590.392	1	8474.075	-41.2774	-7.404866E-008	0.0122749	7
	33	11	505.5147	6659.394	-6664.118	1	9421.146	-45.02032	-8.085389E-008	0.012111	7
	34	12	397.9953	7025.878	-8095.403	1	10719.07	-49.04578	5.811982E-010	0.0120353	6
	35	12	315.5048	7439.417	-9810.23	1	12312.01	-52.82577	4.078746E-010	0.0120317	6
	36	12	252.4038	7901.864	-11818.94	1	14217.13	-56.23424	7.777142E-010	0.0120324	6
	37	12	198.6229	8487.469	-14467.71	1	16773.54	-59.60202	8.271401E-010	0.0120311	6
	38	13	158.3615	9145.52	-17550.84	1	19790.72	-62.47655	1.53509E-010	0.0120301	6
	39	13	125.558	9958.02	-21444.86	1	23644.12	-65.09198	7.815683E-010	0.0120311	6
	40	13	100.4464	10920.75	-26006.47	1	28206.37	-67.22127	5.479807E-010	0.0120263	6
	41	14	79.00281	12253.7	-32084.78	1	34345.11	-69.09734	9.318504E-010	0.0120267	6
	42	14	63.3446	13618.37	-39249.1	1	41544.57	-70.86462	3.783427E-011	0.0120272	6
	43	14	49.86702	15714.68	-48319.64	1	50810.82	-71.98426	1.104539E-009	0.0120247	6
	44	15	39.72458	18608.99	-58848.25	1	61720.43	-72.452	9.588268E-010	0.0120278	6
	45	15	31.6723	22281.27	-71616.59	1	75002.61	-72.71809	3.638408E-010	0.0120285	6
	46	16	24.93351	27107.21	-88123.31	1	92198.26	-72.90182	7.262352E-010	0.0120275	6
	47	16	19.86229	33385.31	-106956.5	1	112045.8	-72.66481	9.148232E-010	0.0120221	5
	48	16	15.83615	43050.49	-129797.8	1	136750.9	-71.65069	-1.83708E-009	0.0120258	5
	49	16	12.40079	54317.21	-158272.7	1	167333.8	-71.05842	-5.44263E-010	0.012025	5
	50	17	9.93114	67739.51	-188250.2	1	200067	-70.20937	6.298878E-010	0.0120177	5
	51	17	7.944915	86079.09	-223333.3	1	239347.8	-68.9219	2.218426E-010	0.0120273	5
	52	18	6.317385	109476.5	-265019.8	1	286741.3	-67.55505	8.467972E-011	0.0120259	5
	53	19	5.008013	139706.2	-312474.9	1	342284	-65.91079	2.427624E-010	0.0120247	5
	54	20	3.945707	177304.1	-367568.4	1	408097.2	-64.24872	-8.457152E-011	0.0120131	5
	55	21	3.158693	220118	-423287.3	1	477099.6	-62.52465	2.261256E-010	0.0120095	5
	56	23	2.504006	272334.8	-487906.1	1	558765.2	-60.83103	2.841749E-010	0.012018	5
	57	24	1.998082	331201.8	-555201.6	1	646485.4	-59.18209	5.646686E-011	0.0119732	5
	58	26	1.584686	397207.2	-632071.3	1	746517	-57.85386	9.371397E-011	0.0119831	5
	59	28	1.266892	469644.6	-711909.5	1	852866.4	-56.58728	1.6376E-010	0.0120287	5
	60	30	0.999041	555194.2	-808277.1	1	980588	-55.51537	2.123249E-010	0.0120534	5
