EXPLAIN
TAG	EISPOT
TITLE	LABEL	Potentiostatic EIS	Test &Identifier
DATE	LABEL	2/11/2020	Date
TIME	LABEL	11:09:27	Time
NOTES	NOTES	6	&Notes...
	
	
	
	
	
	
PSTAT	PSTAT	REF600-11020	Potentiostat
VDC	POTEN	0.00000E+000	T	DC &Voltage (V)
FREQINIT	QUANT	1.00000E+000	Initial Fre&q. (Hz)
FREQFINAL	QUANT	1.00000E+006	Final Fre&q. (Hz)
PTSPERDEC	QUANT	1.00000E+001	Points/&decade
VAC	QUANT	2.50000E+001	AC &Voltage (mV rms)
AREA	QUANT	4.00000E-005	&Area (cm^2)
CONDIT	TWOPARAM	F	5.00000E+000	0.00000E+000	Conditionin&g	Time(s)	E(V)
DELAY	TWOPARAM	F	5.00000E+000	0.00000E+000	Init. De&lay	Time(s)	Stab.(mV/s)
SPEED	SELECTOR	1	&Optimize for:
ZGUESS	QUANT	2.00000E+002	E&stimated Z (ohms)
OCVCURVE	TABLE	39
	Pt	T	Vf	Vm	Ach	Over
	#	s	V vs. Ref.	V	V	bits
	0	0.258333	3.52086E-002	3.52086E-002	5.88634E-004	...........
	1	0.516667	3.52170E-002	3.56501E-002	5.85201E-004	...........
	2	0.775	3.52646E-002	3.58478E-002	5.79001E-004	...........
	3	1.03333	3.53777E-002	3.56475E-002	5.85534E-004	...........
	4	1.29167	3.55258E-002	3.57380E-002	5.86167E-004	...........
	5	1.55	3.56402E-002	3.55242E-002	5.85601E-004	...........
	6	1.80833	3.56701E-002	3.49404E-002	5.89467E-004	...........
	7	2.06667	3.55816E-002	3.45593E-002	5.88767E-004	...........
	8	2.325	3.53734E-002	3.51144E-002	5.84401E-004	...........
	9	2.58333	3.51385E-002	3.52542E-002	5.79767E-004	...........
	10	2.84167	3.50212E-002	3.57292E-002	5.87734E-004	...........
	11	3.1	3.50920E-002	3.59755E-002	5.85501E-004	...........
	12	3.35833	3.53084E-002	3.58592E-002	5.85834E-004	...........
	13	3.61667	3.55715E-002	3.63175E-002	5.88234E-004	...........
	14	3.875	3.58064E-002	3.61965E-002	5.82534E-004	...........
	15	4.13333	3.59906E-002	3.62076E-002	5.85967E-004	...........
	16	4.39167	3.61139E-002	3.59669E-002	5.85034E-004	...........
	17	4.65	3.61581E-002	3.59314E-002	5.81067E-004	...........
	18	4.90833	3.61275E-002	3.60095E-002	5.81267E-004	...........
	19	5.16667	3.60636E-002	3.60084E-002	5.83567E-004	...........
	20	5.425	3.60137E-002	3.59913E-002	5.80267E-004	...........
	21	5.68333	3.59935E-002	3.59904E-002	5.81734E-004	...........
	22	5.94167	3.59909E-002	3.60044E-002	5.78201E-004	...........
	23	6.2	3.59939E-002	3.60351E-002	5.76134E-004	...........
	24	6.45833	3.60007E-002	3.60654E-002	5.85334E-004	...........
	25	6.71667	3.60136E-002	3.60569E-002	5.81034E-004	...........
	26	6.975	3.60309E-002	3.60701E-002	5.82667E-004	...........
	27	7.23333	3.60472E-002	3.60787E-002	5.87334E-004	...........
	28	7.49167	3.60599E-002	3.60887E-002	5.85834E-004	...........
	29	7.75	3.60700E-002	3.61051E-002	5.90234E-004	...........
	30	8.00833	3.60798E-002	3.61144E-002	5.90167E-004	...........
	31	8.26667	3.60904E-002	3.61251E-002	5.89934E-004	...........
	32	8.525	3.61016E-002	3.61252E-002	5.82234E-004	...........
	33	8.78333	3.61142E-002	3.62552E-002	5.86834E-004	...........
	34	9.04167	3.61343E-002	3.62408E-002	5.91467E-004	...........
	35	9.3	3.61683E-002	3.63748E-002	5.80701E-004	...........
	36	9.5583	3.62167E-002	3.63996E-002	5.85467E-004	...........
	37	9.8167	3.62721E-002	3.62930E-002	5.87401E-004	...........
	38	10.075	3.63181E-002	3.63623E-002	5.87001E-004	...........
EOC	QUANT	0.0363181	Open Circuit (V)
PSTATMODEL	IQUANT	4	Pstat Model
PSTATSECTION	LABEL	REF600-11020	Pstat Section
PSTATSERIALNO	LABEL	11020	Pstat Serial Number
CTRLMODE	IQUANT	1	Control Mode
IESTAB	IQUANT	0	I/E Stability
CASPEED	IQUANT	1	Control Amp Speed
CONVENTION	IQUANT	1	Current Convention
ICHRANGE	IQUANT	2	Ich Range
ICHRANGEMODE	TOGGLE	F	Ich Auto Range
ICHOFFSETENABLE	TOGGLE	T	Ich Offset Enable
ICHOFFSET	QUANT	0	Ich Offset (V)
ICHFILTER	IQUANT	3	Ich Filter
VCHRANGE	IQUANT	2	Vch Range
VCHRANGEMODE	TOGGLE	F	Vch Auto Range
VCHOFFSETENABLE	TOGGLE	T	Vch Offset Enable
VCHOFFSET	QUANT	0	Vch Offset (V)
VCHFILTER	IQUANT	3	Vch Filter
ACHRANGE	IQUANT	2	Ach Range
ACHOFFSETENABLE	TOGGLE	F	Ach Offset Enable
ACHOFFSET	QUANT	0	Ach Offset (V)
ACHFILTER	IQUANT	0	Ach Filter
IERANGELOWERLIMIT	IQUANT	1	I/E Range Lower Limit
IERANGEMODE	TOGGLE	F	I/E AutoRange
IERANGE	IQUANT	8	I/E Range
POSFEEDENABLE	TOGGLE	F	Positive Feedback IR Comp
POSFEEDRESISTANCE	QUANT	0	Positive Feedback Resistance (ohm)
ACHSELECT	IQUANT	0	Ach Select
CABLEID	IQUANT	14	Cable ID
DCCALDATE	LABEL	1/27/2020	DC Calibration Date
ACCALDATE	LABEL	1/27/2020	AC Calibration Date
THERMOSELECT	IQUANT	1	Thermo Select
FRAMEWORKVERSION	QUANT	6.33	Framework Version
INSTRUMENTVERSION	LABEL	3.50	Instrument Version
ZCURVE	TABLE
	Pt	Time	Freq	Zreal	Zimag	Zsig	Zmod	Zphz	Idc	Vdc	IERange
	#	s	Hz	ohm	ohm	V	ohm	°	A	V	#
	0	5	0.999041	423104.4	-608137.9	1	740843.5	-55.17221	2.601138E-010	0.0377367	5
	1	10	1.266892	351846.8	-537512.8	1	642429.9	-56.79192	1.765103E-010	0.0377313	5
	2	14	1.584686	292366.4	-474971.6	1	557742	-58.38583	1.831037E-009	0.0377752	6
	3	19	1.998082	240234.6	-414712	1	479269	-59.91712	1.25247E-010	0.0378053	5
	4	22	2.504006	196054.8	-361062.9	1	410857.5	-61.49833	5.156867E-010	0.0377549	5
	5	24	3.158693	158482.9	-310319.7	1	348446.8	-62.94621	2.125917E-010	0.0377438	5
	6	28	3.945707	128529.2	-266490.3	1	295866.2	-64.25182	5.398568E-011	0.0377427	5
	7	30	5.008013	102947.9	-224969.6	1	247405.8	-65.41078	3.498578E-010	0.0377574	5
	8	33	6.317385	83108.63	-189354	1	206789.7	-66.30303	-1.008458E-010	0.037765	5
	9	35	7.944915	68293.78	-159193.3	1	173224	-66.78072	4.780211E-010	0.0377521	5
	10	37	9.93114	56199.34	-133856	1	145175.1	-67.22495	-2.165731E-010	0.0377517	5
	11	38	12.40079	47358.56	-112814.6	1	122351.8	-67.22777	1.719748E-009	0.0377368	5
	12	40	15.83615	38907.11	-92264.38	1	100132.3	-67.13526	9.149809E-011	0.0377357	5
	13	41	19.86229	32771.04	-77075.37	1	83752.93	-66.96569	8.218765E-010	0.0377364	5
	14	42	24.93351	28100.3	-64275.56	1	70149.66	-66.38578	1.904955E-009	0.0377371	6
	15	44	31.6723	24098.16	-53034.9	1	58253.08	-65.56376	1.128446E-009	0.0377385	6
	16	45	39.72458	21154.95	-44071.26	1	48885.66	-64.3582	1.672907E-009	0.0377347	6
	17	47	49.86702	18929.31	-36624.52	1	41227.1	-62.6679	1.942279E-009	0.0377294	6
	18	48	63.3446	16821.41	-30005.21	1	34398.73	-60.7243	9.291851E-010	0.0377297	6
	19	49	79.00281	15110.9	-25250.54	1	29426.68	-59.10207	1.294543E-009	0.0377364	6
	20	51	100.4464	13610.38	-20768.69	1	24831.05	-56.7619	1.346108E-009	0.0377338	6
	21	52	125.558	12560.41	-17308.28	1	21385.52	-54.03207	1.646841E-009	0.0377291	6
	22	54	158.3615	11646.36	-14301.39	1	18443.63	-50.84229	2.008692E-009	0.0377314	6
	23	55	198.6229	10919.93	-11867.74	1	16127.25	-47.38174	1.58969E-009	0.0377329	6
	24	56	252.4038	10294.54	-9735.3	1	14168.76	-43.40068	1.626418E-009	0.0377324	6
	25	58	315.5048	9830.57	-8093.498	1	12733.61	-39.46458	1.318295E-009	0.0377315	6
	26	59	397.9953	9439.371	-6681.421	1	11564.74	-35.29181	7.998588E-010	0.037735	6
	27	60	505.5147	9121.081	-5492.461	1	10647.12	-31.05518	-4.690356E-009	0.037785	6
	28	62	627.7902	8879.872	-4607.817	1	10004.2	-27.42506	-7.053381E-009	0.0377962	6
	29	63	796.875	8655.784	-3813.56	1	9458.639	-23.7773	2.164252E-009	0.0377918	6
	30	64	998.264	8480.224	-3205.9	1	9065.979	-20.70881	4.052705E-009	0.0377384	6
	31	66	1265.625	8324.577	-2687.142	1	8747.532	-17.88988	-5.71347E-009	0.0378643	6
	32	67	1577.524	8199.151	-2294.217	1	8514.077	-15.63223	5.730796E-009	0.0375354	6
	33	69	1976.103	8065.974	-1987.629	1	8307.263	-13.84311	-2.10042E-008	0.0377267	7
	34	70	2527.573	7947.087	-1710.931	1	8129.175	-12.14978	1.298939E-007	0.037539	7
	35	71	3170.956	7843.27	-1511.084	1	7987.506	-10.90499	8.03626E-008	0.0375597	7
	36	73	3984.375	7737.016	-1353.857	1	7854.574	-9.92538	-1.895376E-008	0.0377136	7
	37	74	5015.625	7655.042	-1234.222	1	7753.9	-9.158973	-1.062183E-008	0.0377625	7
	38	75	6328.125	7559.277	-1143.277	1	7645.244	-8.600324	1.308224E-007	0.0375311	7
	39	77	8015.625	7460.882	-1079.584	1	7538.585	-8.23351	-3.598716E-008	0.0377332	7
	40	78	10078.13	7372.845	-1045.889	1	7446.659	-8.07393	3.7209E-009	0.0377458	7
	41	79	12609.37	7286.446	-1037.33	1	7359.915	-8.102428	-1.151101E-008	0.0377641	7
	42	81	15890.62	7187.388	-1046.997	1	7263.246	-8.288064	-2.057868E-009	0.0377458	7
	43	82	20015.62	7081.079	-1086.524	1	7163.953	-8.723452	-1.057182E-008	0.0377576	7
	44	83	25171.88	6973.59	-1145.117	1	7066.983	-9.325184	-3.586903E-008	0.0377367	7
	45	85	31640.63	6850.502	-1230.828	1	6960.195	-10.18564	-1.026022E-008	0.0378395	7
	46	86	39890.62	6699.898	-1339.456	1	6832.48	-11.30562	-5.205014E-008	0.0377938	7
	47	88	50203.12	6527.5	-1464.484	1	6689.766	-12.64526	-3.576793E-008	0.0377366	7
	48	89	63140.62	6318.246	-1605.582	1	6519.059	-14.25811	-1.930974E-008	0.0377157	7
	49	90	79453.13	6073.722	-1757.289	1	6322.828	-16.13656	-1.710179E-008	0.0377168	7
	50	92	100078.1	5781.563	-1908.606	1	6088.453	-18.26906	-2.481549E-008	0.0378375	7
	51	93	125953.1	5436.81	-2027.204	1	5802.453	-20.44879	-8.536355E-007	0.0402406	7
	52	94	158578.1	5034.654	-2182.076	1	5487.185	-23.43245	-1.159753E-006	0.0379313	8
	53	96	199546.9	4640.589	-2236.346	1	5151.34	-25.72988	3.763828E-006	0.0370767	8
	54	97	251203.1	4232.008	-2252.475	1	4794.115	-28.02402	1.576389E-006	0.0374608	8
	55	99	316265.6	3830.969	-2262.805	1	4449.338	-30.5687	4.304511E-007	0.0377021	8
	56	101	398109.4	3438.413	-2193.844	1	4078.68	-32.5395	-1.32275E-006	0.0381333	8
	57	102	501234.4	3096.188	-2123.546	1	3754.441	-34.4446	2.500018E-006	0.0372492	8
	58	103	630984.4	2745.77	-2062.287	1	3433.989	-36.9094	-4.37682E-006	0.0386951	8
	59	105	794390.6	2452.697	-1947.413	1	3131.795	-38.44917	7.354339E-006	0.0371223	8
	60	106	1000078	2128.468	-1867.843	1	2831.821	-41.26867	-5.820762E-006	0.0387685	8
