EXPLAIN
TAG	EISPOT
TITLE	LABEL	Potentiostatic EIS	Test &Identifier
DATE	LABEL	3/9/2020	Date
TIME	LABEL	20:38:42	Time
NOTES	NOTES	1	&Notes...
	
PSTAT	PSTAT	REF600-11020	Potentiostat
VDC	POTEN	0.00000E+000	T	DC &Voltage (V)
FREQINIT	QUANT	1.00000E+006	Initial Fre&q. (Hz)
FREQFINAL	QUANT	1.00000E+000	Final Fre&q. (Hz)
PTSPERDEC	QUANT	1.00000E+001	Points/&decade
VAC	QUANT	2.50000E+001	AC &Voltage (mV rms)
AREA	QUANT	4.00000E-005	&Area (cm^2)
CONDIT	TWOPARAM	F	5.00000E+000	0.00000E+000	Conditionin&g	Time(s)	E(V)
DELAY	TWOPARAM	T	3.00000E+000	0.00000E+000	Init. De&lay	Time(s)	Stab.(mV/s)
SPEED	SELECTOR	0	&Optimize for:
ZGUESS	QUANT	1.00000E+003	E&stimated Z (ohms)
OCVCURVE	TABLE	12
	Pt	T	Vf	Vm	Ach	Over
	#	s	V vs. Ref.	V	V	bits
	0	0.258333	-9.97341E-002	-9.97341E-002	5.77030E-004	...........
	1	0.516667	-9.97351E-002	-9.97851E-002	5.75297E-004	...........
	2	0.775	-9.97411E-002	-9.98343E-002	5.76697E-004	...........
	3	1.03333	-9.97581E-002	-9.98818E-002	5.75897E-004	...........
	4	1.29167	-9.97886E-002	-9.99225E-002	5.74663E-004	...........
	5	1.55	-9.98289E-002	-9.99596E-002	5.73030E-004	...........
	6	1.80833	-9.98728E-002	-1.00001E-001	5.75097E-004	...........
	7	2.06667	-9.99159E-002	-1.00032E-001	5.67997E-004	...........
	8	2.325	-9.99563E-002	-1.00062E-001	5.72797E-004	...........
	9	2.58333	-9.99936E-002	-1.00091E-001	5.75130E-004	...........
	10	2.84167	-1.00028E-001	-1.00126E-001	5.77197E-004	...........
	11	3.1	-1.00059E-001	-1.00144E-001	5.74530E-004	...........
EOC	QUANT	-0.1000593	Open Circuit (V)
PSTATMODEL	IQUANT	4	Pstat Model
PSTATSECTION	LABEL	REF600-11020	Pstat Section
PSTATSERIALNO	LABEL	11020	Pstat Serial Number
CTRLMODE	IQUANT	1	Control Mode
IESTAB	IQUANT	0	I/E Stability
CASPEED	IQUANT	1	Control Amp Speed
CONVENTION	IQUANT	1	Current Convention
ICHRANGE	IQUANT	2	Ich Range
ICHRANGEMODE	TOGGLE	F	Ich Auto Range
ICHOFFSETENABLE	TOGGLE	T	Ich Offset Enable
ICHOFFSET	QUANT	0	Ich Offset (V)
ICHFILTER	IQUANT	3	Ich Filter
VCHRANGE	IQUANT	2	Vch Range
VCHRANGEMODE	TOGGLE	F	Vch Auto Range
VCHOFFSETENABLE	TOGGLE	T	Vch Offset Enable
VCHOFFSET	QUANT	0	Vch Offset (V)
VCHFILTER	IQUANT	3	Vch Filter
ACHRANGE	IQUANT	2	Ach Range
ACHOFFSETENABLE	TOGGLE	F	Ach Offset Enable
ACHOFFSET	QUANT	0	Ach Offset (V)
ACHFILTER	IQUANT	3	Ach Filter
IERANGELOWERLIMIT	IQUANT	1	I/E Range Lower Limit
IERANGEMODE	TOGGLE	F	I/E AutoRange
IERANGE	IQUANT	8	I/E Range
POSFEEDENABLE	TOGGLE	F	Positive Feedback IR Comp
POSFEEDRESISTANCE	QUANT	0	Positive Feedback Resistance (ohm)
ACHSELECT	IQUANT	0	Ach Select
CABLEID	IQUANT	14	Cable ID
DCCALDATE	LABEL	2/27/2020	DC Calibration Date
ACCALDATE	LABEL	2/27/2020	AC Calibration Date
THERMOSELECT	IQUANT	1	Thermo Select
FRAMEWORKVERSION	QUANT	6.33	Framework Version
INSTRUMENTVERSION	LABEL	3.50	Instrument Version
ZCURVE	TABLE
	Pt	Time	Freq	Zreal	Zimag	Zsig	Zmod	Zphz	Idc	Vdc	IERange
	#	s	Hz	ohm	ohm	V	ohm	°	A	V	#
	0	1	1000078	1742.95	-1815.09	1	2516.432	-46.16153	-7.212646E-009	-0.097674	8
	1	1	794390.6	2040.043	-1963.45	1	2831.415	-43.90397	6.118532E-008	-0.0980178	8
	2	2	630984.4	2364.776	-2102.067	1	3163.993	-41.63414	5.59827E-008	-0.0981672	8
	3	2	501234.4	2713.813	-2234.342	1	3515.262	-39.46538	3.040199E-008	-0.0982663	8
	4	2	398109.4	3092.28	-2351.566	1	3884.85	-37.25167	1.315698E-008	-0.0983333	8
	5	3	316265.6	3503.199	-2442.782	1	4270.783	-34.88808	3.18275E-008	-0.0983503	8
	6	3	251203.1	3942.308	-2512.892	1	4675.084	-32.51411	4.010534E-008	-0.0983738	8
	7	3	199546.9	4394.012	-2543.778	1	5077.218	-30.06738	3.318755E-008	-0.0983688	8
	8	4	158578.1	4853.119	-2510.529	1	5464.021	-27.35262	2.827262E-008	-0.0983658	8
	9	4	125953.1	5381.15	-2350.865	1	5872.251	-23.59909	-2.232132E-009	-0.0984048	7
	10	4	100078.1	5773.079	-2239.249	1	6192.146	-21.20017	1.323147E-009	-0.098422	7
	11	5	79453.13	6144.16	-2101.766	1	6493.699	-18.88456	6.434765E-010	-0.0984345	7
	12	5	63140.62	6467.035	-1941.642	1	6752.223	-16.71169	3.481306E-010	-0.0984381	7
	13	5	50203.12	6740.863	-1775.3	1	6970.719	-14.7546	6.342588E-010	-0.0984411	7
	14	6	39890.62	6970.109	-1615.76	1	7154.935	-13.05137	3.345508E-010	-0.0984504	7
	15	6	31640.63	7164.5	-1473.083	1	7314.372	-11.61859	1.508899E-009	-0.0984501	7
	16	6	25171.88	7321.863	-1354.4	1	7446.078	-10.48012	6.814653E-010	-0.0984431	7
	17	7	20015.62	7459.876	-1259.033	1	7565.376	-9.57976	1.8971E-009	-0.0984411	7
	18	7	15890.62	7572.12	-1187.45	1	7664.662	-8.912464	1.491558E-009	-0.0984492	7
	19	7	12609.37	7674.923	-1152.839	1	7761.023	-8.542449	1.307798E-009	-0.0984516	7
	20	8	10078.13	7766.044	-1148.882	1	7850.565	-8.41511	1.700492E-009	-0.0984515	7
	21	8	8015.625	7852.829	-1176.322	1	7940.444	-8.519332	1.939287E-009	-0.0984468	7
	22	8	6328.125	7945.135	-1240.587	1	8041.407	-8.874744	1.997258E-009	-0.0984564	7
	23	9	5015.625	8033.146	-1341.819	1	8144.44	-9.482876	2.390131E-009	-0.0984506	7
	24	9	3984.375	8126.019	-1485.341	1	8260.654	-10.35864	2.596726E-009	-0.098449	7
	25	9	3170.956	8223.541	-1671.715	1	8391.737	-11.49074	2.423112E-009	-0.0984591	7
	26	9	2527.573	8330.653	-1912.118	1	8547.279	-12.92708	3.727334E-009	-0.0984447	7
	27	10	1976.103	8454.806	-2240.104	1	8746.531	-14.83957	1.959127E-009	-0.0984521	7
	28	10	1577.524	8592.797	-2595.077	1	8976.112	-16.80464	-3.453749E-010	-0.0984025	6
	29	10	1265.625	8734.271	-3056.454	1	9253.616	-19.28689	-1.964611E-010	-0.0983952	6
	30	11	998.264	8909.185	-3668.529	1	9634.92	-22.38036	-2.686597E-010	-0.0983997	6
	31	11	796.875	9104.947	-4381.211	1	10104.21	-25.6964	-2.625538E-010	-0.0983973	6
	32	11	627.7902	9354.265	-5310.677	1	10756.65	-29.58479	-3.556553E-010	-0.0984052	6
	33	12	505.5147	9619.07	-6342.725	1	11522.01	-33.40048	-2.788083E-010	-0.0983982	6
	34	12	397.9953	9974.17	-7730.572	1	12619.26	-37.77782	3.600864E-010	-0.0983871	6
	35	12	315.5048	10402.03	-9385.486	1	14010.34	-42.05912	3.322495E-010	-0.0983899	6
	36	13	252.4038	10912.89	-11318.85	1	15722.84	-46.04613	2.48685E-010	-0.0983931	6
	37	13	198.6229	11599.91	-13845.79	1	18062.78	-50.04394	2.473317E-010	-0.0983901	6
	38	13	158.3615	12418.73	-16750.49	1	20851.95	-53.44694	2.557637E-010	-0.0983932	6
	39	14	125.558	13474.66	-20343.59	1	24401.4	-56.48133	3.946244E-010	-0.0983908	6
	40	14	100.4464	14747.7	-24499.88	1	28596.14	-58.95416	4.187581E-010	-0.0983947	6
	41	14	79.00281	16475.35	-29892.11	1	34131.74	-61.13818	2.050355E-010	-0.0983986	6
	42	15	63.3446	18472.56	-35848.87	1	40328.36	-62.7384	4.146906E-011	-0.0983979	6
	43	15	49.86702	21185.34	-43592.86	1	48468.09	-64.08109	4.715972E-010	-0.098399	6
	44	15	39.72458	24462.35	-52430.7	1	57856.58	-64.98787	3.588758E-010	-0.0983933	6
	45	16	31.6723	28595.17	-62921.12	1	69114.05	-65.56007	2.830013E-010	-0.0983994	6
	46	16	24.93351	34222.04	-76103.16	1	83443.63	-65.78752	9.643886E-010	-0.0983992	6
	47	16	19.86229	41051.57	-90893.85	1	99734.3	-65.69402	1.955015E-009	-0.0983927	6
	48	17	15.83615	49909.7	-108136	1	119098.1	-65.22451	-7.361468E-010	-0.0983953	5
	49	17	12.40079	62262.86	-129481.4	1	143673.6	-64.3188	1.047795E-009	-0.098393	5
	50	17	9.93114	76208.38	-151539.4	1	169622.9	-63.30242	9.311754E-010	-0.0983948	5
	51	18	7.944915	93862.04	-176184.2	1	199627	-61.95356	-9.463633E-010	-0.0983928	5
	52	18	6.317385	115578.7	-204128.7	1	234578.2	-60.48124	3.204718E-010	-0.0984082	5
	53	19	5.008013	141844.4	-234740.2	1	274267.8	-58.85705	6.404695E-010	-0.0983878	5
	54	20	3.945707	173669.7	-267812.1	1	319193.5	-57.03757	6.121424E-011	-0.0984032	5
	55	21	3.158693	206402.2	-301195.7	1	365131.1	-55.57809	3.685707E-010	-0.0983866	5
	56	22	2.504006	244144.2	-337648.2	1	416668.5	-54.13034	-1.630998E-011	-0.0983892	5
	57	23	1.998082	282311.8	-377295.5	1	471223.8	-53.19428	-1.176875E-010	-0.0984209	5
	58	24	1.584686	323755.6	-421514.7	1	531500.1	-52.47298	6.352636E-011	-0.0983741	5
	59	26	1.266892	366619.9	-473043.2	1	598481.4	-52.22345	1.080056E-010	-0.0983557	5
	60	29	0.999041	413407.3	-538719.2	1	679061.1	-52.49775	1.364011E-010	-0.098363	5
