EXPLAIN
TAG	EISPOT
TITLE	LABEL	Potentiostatic EIS	Test &Identifier
DATE	LABEL	2/13/2020	Date
TIME	LABEL	13:48:49	Time
NOTES	NOTES	1	&Notes...
	
PSTAT	PSTAT	REF600-11020	Potentiostat
VDC	POTEN	0.00000E+000	T	DC &Voltage (V)
FREQINIT	QUANT	1.00000E+006	Initial Fre&q. (Hz)
FREQFINAL	QUANT	1.00000E+000	Final Fre&q. (Hz)
PTSPERDEC	QUANT	1.00000E+001	Points/&decade
VAC	QUANT	2.50000E+001	AC &Voltage (mV rms)
AREA	QUANT	5.00000E-004	&Area (cm^2)
CONDIT	TWOPARAM	F	1.50000E+001	0.00000E+000	Conditionin&g	Time(s)	E(V)
DELAY	TWOPARAM	F	1.00000E+002	0.00000E+000	Init. De&lay	Time(s)	Stab.(mV/s)
SPEED	SELECTOR	0	&Optimize for:
ZGUESS	QUANT	1.00000E+003	E&stimated Z (ohms)
OCVCURVE	TABLE	39
	Pt	T	Vf	Vm	Ach	Over
	#	s	V vs. Ref.	V	V	bits
	0	0.258333	4.90850E-002	4.90850E-002	5.76704E-004	...........
	1	0.516667	4.90802E-002	4.88301E-002	5.76371E-004	...........
	2	0.775	4.90465E-002	4.83895E-002	5.77937E-004	...........
	3	1.03333	4.89464E-002	4.83827E-002	5.74471E-004	...........
	4	1.29167	4.87820E-002	4.86016E-002	5.74571E-004	...........
	5	1.55	4.86241E-002	4.86689E-002	5.73638E-004	...........
	6	1.80833	4.85455E-002	4.85614E-002	5.77471E-004	...........
	7	2.06667	4.85444E-002	4.85765E-002	5.80437E-004	...........
	8	2.325	4.85727E-002	4.88146E-002	5.80071E-004	...........
	9	2.58333	4.86025E-002	4.84313E-002	5.79204E-004	...........
	10	2.84167	4.86104E-002	4.80310E-002	5.77804E-004	...........
	11	3.1	4.85506E-002	4.80933E-002	5.77071E-004	...........
	12	3.35833	4.84159E-002	4.82462E-002	5.76004E-004	...........
	13	3.61667	4.82780E-002	4.83538E-002	5.79237E-004	...........
	14	3.875	4.82163E-002	4.84943E-002	5.74304E-004	...........
	15	4.13333	4.82466E-002	4.85092E-002	5.74404E-004	...........
	16	4.39167	4.83307E-002	4.85503E-002	5.78771E-004	...........
	17	4.65	4.84206E-002	4.85350E-002	5.78737E-004	...........
	18	4.90833	4.84850E-002	4.84325E-002	5.79904E-004	...........
	19	5.16667	4.85093E-002	4.83356E-002	5.82971E-004	...........
	20	5.425	4.84814E-002	4.78490E-002	5.82404E-004	...........
	21	5.68333	4.84044E-002	4.88449E-002	5.80537E-004	...........
	22	5.94167	4.83459E-002	4.89129E-002	5.80237E-004	...........
	23	6.2	4.83981E-002	4.87462E-002	5.78704E-004	...........
	24	6.45833	4.85452E-002	4.86285E-002	5.74904E-004	...........
	25	6.71667	4.86737E-002	4.86197E-002	5.78471E-004	...........
	26	6.975	4.87131E-002	4.84811E-002	5.78437E-004	...........
	27	7.23333	4.86739E-002	4.82989E-002	5.81671E-004	...........
	28	7.49167	4.85854E-002	4.81591E-002	5.82437E-004	...........
	29	7.75	4.84684E-002	4.82067E-002	5.79171E-004	...........
	30	8.00833	4.83396E-002	4.76731E-002	5.81071E-004	...........
	31	8.26667	4.81893E-002	4.72087E-002	5.79837E-004	...........
	32	8.525	4.79735E-002	4.68800E-002	5.79104E-004	...........
	33	8.78333	4.76748E-002	4.68210E-002	5.76838E-004	...........
	34	9.04167	4.73665E-002	4.77979E-002	5.82271E-004	...........
	35	9.3	4.72070E-002	4.85281E-002	5.81571E-004	...........
	36	9.5583	4.73381E-002	4.91038E-002	5.82637E-004	...........
	37	9.8167	4.77427E-002	4.86327E-002	5.81171E-004	...........
	38	10.075	4.82129E-002	4.81291E-002	5.79404E-004	...........
EOC	QUANT	0.0482129	Open Circuit (V)
PSTATMODEL	IQUANT	4	Pstat Model
PSTATSECTION	LABEL	REF600-11020	Pstat Section
PSTATSERIALNO	LABEL	11020	Pstat Serial Number
CTRLMODE	IQUANT	1	Control Mode
IESTAB	IQUANT	0	I/E Stability
CASPEED	IQUANT	1	Control Amp Speed
CONVENTION	IQUANT	1	Current Convention
ICHRANGE	IQUANT	2	Ich Range
ICHRANGEMODE	TOGGLE	F	Ich Auto Range
ICHOFFSETENABLE	TOGGLE	T	Ich Offset Enable
ICHOFFSET	QUANT	0	Ich Offset (V)
ICHFILTER	IQUANT	3	Ich Filter
VCHRANGE	IQUANT	2	Vch Range
VCHRANGEMODE	TOGGLE	F	Vch Auto Range
VCHOFFSETENABLE	TOGGLE	T	Vch Offset Enable
VCHOFFSET	QUANT	0	Vch Offset (V)
VCHFILTER	IQUANT	3	Vch Filter
ACHRANGE	IQUANT	2	Ach Range
ACHOFFSETENABLE	TOGGLE	F	Ach Offset Enable
ACHOFFSET	QUANT	0	Ach Offset (V)
ACHFILTER	IQUANT	3	Ach Filter
IERANGELOWERLIMIT	IQUANT	1	I/E Range Lower Limit
IERANGEMODE	TOGGLE	F	I/E AutoRange
IERANGE	IQUANT	7	I/E Range
POSFEEDENABLE	TOGGLE	F	Positive Feedback IR Comp
POSFEEDRESISTANCE	QUANT	0	Positive Feedback Resistance (ohm)
ACHSELECT	IQUANT	0	Ach Select
CABLEID	IQUANT	14	Cable ID
DCCALDATE	LABEL	1/27/2020	DC Calibration Date
ACCALDATE	LABEL	1/27/2020	AC Calibration Date
THERMOSELECT	IQUANT	1	Thermo Select
FRAMEWORKVERSION	QUANT	6.33	Framework Version
INSTRUMENTVERSION	LABEL	3.50	Instrument Version
ZCURVE	TABLE
	Pt	Time	Freq	Zreal	Zimag	Zsig	Zmod	Zphz	Idc	Vdc	IERange
	#	s	Hz	ohm	ohm	V	ohm	°	A	V	#
	0	1	1000078	1948.268	-1627.43	1	2538.558	-39.87272	7.425238E-007	0.0499136	8
	1	2	794390.6	2258.109	-1659.796	1	2802.495	-36.3173	-9.720493E-007	0.0503091	8
	2	2	630984.4	2567.475	-1651.716	1	3052.883	-32.75412	-4.404533E-007	0.05017	8
	3	2	501234.4	2864.77	-1602.624	1	3282.577	-29.22374	4.889454E-007	0.0498187	8
	4	2	398109.4	3137.33	-1525.513	1	3488.557	-25.93114	-1.499125E-007	0.0500444	8
	5	3	316265.6	3384.949	-1449.937	1	3682.417	-23.18778	-2.483925E-006	0.0502869	8
	6	3	251203.1	3607.977	-1347.822	1	3851.509	-20.48404	1.45838E-006	0.0495737	8
	7	3	199546.9	3791.915	-1235.747	1	3988.194	-18.05027	1.360876E-006	0.0495655	8
	8	4	158578.1	3944.029	-1156.549	1	4110.106	-16.34328	1.223595E-006	0.0494681	8
	9	4	125953.1	4112.816	-1051.573	1	4245.123	-14.34223	3.126276E-007	0.0490254	7
	10	4	100078.1	4233.615	-997.479	1	4349.535	-13.25763	6.470334E-008	0.0496736	7
	11	5	79453.13	4350.362	-958.361	1	4454.673	-12.42352	-4.064697E-008	0.0498595	7
	12	5	63140.62	4458.462	-933.5786	1	4555.157	-11.82656	2.537047E-009	0.0498146	7
	13	5	50203.12	4562.903	-922.6043	1	4655.242	-11.43091	-3.720274E-008	0.0498639	7
	14	6	39890.62	4666.697	-925.9153	1	4757.665	-11.22226	-2.063485E-008	0.0498882	7
	15	6	31640.63	4774.571	-942.1498	1	4866.639	-11.16257	-2.117557E-008	0.0497968	7
	16	6	25171.88	4884.695	-971.121	1	4980.293	-11.2443	-3.61064E-009	0.0498305	7
	17	7	20015.62	4997.42	-1010.054	1	5098.472	-11.42641	-2.094582E-008	0.0497999	7
	18	7	15890.62	5119.334	-1062.504	1	5228.432	-11.72511	6.523466E-008	0.0496597	7
	19	7	12609.37	5244.655	-1126.713	1	5364.316	-12.12461	6.620353E-008	0.0496605	7
	20	8	10078.13	5370.701	-1202.099	1	5503.587	-12.6163	1.814231E-008	0.0497297	7
	21	8	8015.625	5507.3	-1290.862	1	5656.561	-13.19149	-2.361026E-008	0.0497958	7
	22	8	6328.125	5649.835	-1403.7	1	5821.599	-13.95261	-4.133924E-008	0.0498458	7
	23	8	5015.625	5794.074	-1538.187	1	5994.774	-14.8677	-7.033402E-012	0.049874	7
	24	9	3984.375	5936.464	-1701.919	1	6175.608	-15.99701	-4.254415E-009	0.0498223	7
	25	9	3170.956	6082.945	-1902.699	1	6373.577	-17.36928	-3.745848E-008	0.0498624	7
	26	9	2527.573	6234.639	-2150.882	1	6595.227	-19.03387	5.743807E-008	0.049767	7
	27	10	1976.103	6403.261	-2484.827	1	6868.487	-21.20907	-3.167785E-008	0.0498071	7
	28	10	1577.524	6572.858	-2873.872	1	7173.675	-23.61655	5.856571E-008	0.0497677	7
	29	10	1265.625	6753.263	-3334.594	1	7531.672	-26.27902	3.776995E-009	0.0497963	7
	30	11	998.264	6971.299	-3943.305	1	8009.286	-29.49461	8.453275E-009	0.0497146	7
	31	11	796.875	7206.482	-4661.686	1	8582.813	-32.89778	7.142668E-008	0.0496622	7
	32	11	627.7902	7482.944	-5593.538	1	9342.49	-36.7783	4.207551E-009	0.049799	7
	33	12	505.5147	7783.933	-6627.615	1	10223.25	-40.41267	-4.726604E-009	0.0498332	6
	34	12	397.9953	8170.122	-8017.757	1	11447.07	-44.46074	1.001961E-009	0.0497882	6
	35	12	315.5048	8613.854	-9676.75	1	12955.23	-48.32581	7.94482E-010	0.0497844	6
	36	13	252.4038	9116.99	-11613.79	1	14764.81	-51.86759	7.915452E-010	0.0497831	6
	37	13	198.6229	9761.05	-14154.58	1	17193.9	-55.40972	8.632336E-010	0.0497852	6
	38	13	158.3615	10485.43	-17095.22	1	20054.7	-58.47694	9.38019E-010	0.0497785	6
	39	14	125.558	11384.79	-20780.31	1	23694.62	-61.28324	8.252112E-010	0.0497816	6
	40	14	100.4464	12413.73	-25111.31	1	28012.11	-63.6946	1.684989E-010	0.0497811	6
	41	14	79.00281	13804.11	-30771.57	1	33726	-65.83902	6.762297E-010	0.0497818	6
	42	15	63.3446	15701.36	-37436.85	1	40596.19	-67.24637	6.247692E-010	0.0497796	6
	43	15	49.86702	17801.26	-45995.26	1	49319.86	-68.84238	2.541741E-010	0.049777	6
	44	15	39.72458	20443.45	-55671.99	1	59306.87	-69.83614	8.544445E-010	0.0497837	6
	45	16	31.6723	23835.5	-67560.46	1	71641.8	-70.56703	1.081529E-009	0.0497798	6
	46	16	24.93351	28839.47	-82653.87	1	87540.72	-70.76517	9.764924E-010	0.0497786	6
	47	16	19.86229	34854.44	-99984.3	1	105885.3	-70.78149	-4.804383E-010	0.0497786	5
	48	17	15.83615	42589.11	-120294	1	127610.6	-70.50391	2.147834E-010	0.0497776	5
	49	17	12.40079	54406.2	-146279	1	156069.2	-69.5981	-9.78633E-010	0.0497819	5
	50	17	9.93114	67787.42	-174846.6	1	187527.2	-68.80886	4.225857E-010	0.0497833	5
	51	18	7.944915	84845.48	-207420.1	1	224102.3	-67.75291	5.834334E-010	0.0497751	5
	52	18	6.317385	106781	-245262.6	1	267499.4	-66.47295	5.468368E-010	0.0497682	5
	53	19	5.008013	135230.7	-288886.7	1	318971.6	-64.91525	4.333387E-010	0.0497806	5
	54	20	3.945707	172246.2	-338374.9	1	379692.4	-63.02211	3.458674E-011	0.0497767	5
	55	22	3.158693	212088	-389195.3	1	443231.6	-61.41228	-5.175296E-011	0.0497576	5
	56	23	2.504006	261857.1	-445385	1	516659.4	-59.54728	1.444837E-010	0.0497663	5
	57	25	1.998082	316062.1	-505190.2	1	595913.1	-57.96867	2.413826E-010	0.0498001	5
	58	26	1.584686	378018.4	-569483.2	1	683526.9	-56.42411	1.137559E-010	0.0497638	5
	59	28	1.266892	445887	-638493.8	1	778774.4	-55.07178	-6.680061E-012	0.0497335	5
	60	31	0.999041	521774.6	-722077.3	1	890867.3	-54.14804	-1.620377E-011	0.0497269	5
