EXPLAIN
TAG	EISPOT
TITLE	LABEL	Potentiostatic EIS	Test &Identifier
DATE	LABEL	3/20/2020	Date
TIME	LABEL	15:22:19	Time
NOTES	NOTES	1	&Notes...
	
PSTAT	PSTAT	REF600-11020	Potentiostat
VDC	POTEN	0.00000E+000	T	DC &Voltage (V)
FREQINIT	QUANT	1.00000E+006	Initial Fre&q. (Hz)
FREQFINAL	QUANT	1.00000E+000	Final Fre&q. (Hz)
PTSPERDEC	QUANT	1.00000E+001	Points/&decade
VAC	QUANT	2.50000E+001	AC &Voltage (mV rms)
AREA	QUANT	4.00000E-004	&Area (cm^2)
CONDIT	TWOPARAM	F	5.00000E+000	0.00000E+000	Conditionin&g	Time(s)	E(V)
DELAY	TWOPARAM	T	3.00000E+000	0.00000E+000	Init. De&lay	Time(s)	Stab.(mV/s)
SPEED	SELECTOR	0	&Optimize for:
ZGUESS	QUANT	1.00000E+003	E&stimated Z (ohms)
OCVCURVE	TABLE	12
	Pt	T	Vf	Vm	Ach	Over
	#	s	V vs. Ref.	V	V	bits
	0	0.258333	1.40602E-001	1.40602E-001	5.81763E-004	...........
	1	0.516667	1.40604E-001	1.40711E-001	5.81230E-004	...........
	2	0.775	1.40618E-001	1.40906E-001	5.76530E-004	...........
	3	1.03333	1.40663E-001	1.40974E-001	5.84230E-004	...........
	4	1.29167	1.40745E-001	1.41090E-001	5.83063E-004	...........
	5	1.55	1.40853E-001	1.41209E-001	5.83663E-004	...........
	6	1.80833	1.40968E-001	1.41322E-001	5.81763E-004	...........
	7	2.06667	1.41084E-001	1.41447E-001	5.77397E-004	...........
	8	2.325	1.41200E-001	1.41566E-001	5.83630E-004	...........
	9	2.58333	1.41317E-001	1.41683E-001	5.82463E-004	...........
	10	2.84167	1.41436E-001	1.41804E-001	5.82463E-004	...........
	11	3.1	1.41556E-001	1.41929E-001	5.85396E-004	...........
EOC	QUANT	0.1415556	Open Circuit (V)
PSTATMODEL	IQUANT	4	Pstat Model
PSTATSECTION	LABEL	REF600-11020	Pstat Section
PSTATSERIALNO	LABEL	11020	Pstat Serial Number
CTRLMODE	IQUANT	1	Control Mode
IESTAB	IQUANT	0	I/E Stability
CASPEED	IQUANT	1	Control Amp Speed
CONVENTION	IQUANT	1	Current Convention
ICHRANGE	IQUANT	2	Ich Range
ICHRANGEMODE	TOGGLE	F	Ich Auto Range
ICHOFFSETENABLE	TOGGLE	T	Ich Offset Enable
ICHOFFSET	QUANT	0	Ich Offset (V)
ICHFILTER	IQUANT	3	Ich Filter
VCHRANGE	IQUANT	2	Vch Range
VCHRANGEMODE	TOGGLE	F	Vch Auto Range
VCHOFFSETENABLE	TOGGLE	T	Vch Offset Enable
VCHOFFSET	QUANT	0	Vch Offset (V)
VCHFILTER	IQUANT	3	Vch Filter
ACHRANGE	IQUANT	2	Ach Range
ACHOFFSETENABLE	TOGGLE	F	Ach Offset Enable
ACHOFFSET	QUANT	0	Ach Offset (V)
ACHFILTER	IQUANT	3	Ach Filter
IERANGELOWERLIMIT	IQUANT	1	I/E Range Lower Limit
IERANGEMODE	TOGGLE	F	I/E AutoRange
IERANGE	IQUANT	8	I/E Range
POSFEEDENABLE	TOGGLE	F	Positive Feedback IR Comp
POSFEEDRESISTANCE	QUANT	0	Positive Feedback Resistance (ohm)
ACHSELECT	IQUANT	0	Ach Select
CABLEID	IQUANT	14	Cable ID
DCCALDATE	LABEL	2/27/2020	DC Calibration Date
ACCALDATE	LABEL	2/27/2020	AC Calibration Date
THERMOSELECT	IQUANT	1	Thermo Select
FRAMEWORKVERSION	QUANT	6.33	Framework Version
INSTRUMENTVERSION	LABEL	3.50	Instrument Version
ZCURVE	TABLE
	Pt	Time	Freq	Zreal	Zimag	Zsig	Zmod	Zphz	Idc	Vdc	IERange
	#	s	Hz	ohm	ohm	V	ohm	°	A	V	#
	0	2	1000078	2003.649	-1565.625	1	2542.792	-38.00361	-5.447986E-008	0.1437187	8
	1	2	794390.6	2307.988	-1565.964	1	2789.095	-34.1568	-6.217227E-008	0.1434088	8
	2	2	630984.4	2598.719	-1529.599	1	3015.462	-30.48096	-3.271633E-007	0.1433081	8
	3	3	501234.4	2871.162	-1459.926	1	3221.018	-26.95238	-2.35662E-007	0.1432125	8
	4	3	398109.4	3112.922	-1370.105	1	3401.099	-23.75596	3.097338E-007	0.143097	8
	5	3	316265.6	3323.626	-1270.109	1	3558.043	-20.91413	-9.182563E-008	0.1431271	8
	6	3	251203.1	3505.146	-1165.99	1	3693.993	-18.39975	-2.610885E-007	0.1431718	8
	7	4	199546.9	3665.858	-1067.175	1	3818.033	-16.23091	-5.966607E-008	0.1431102	8
	8	4	158578.1	3796.564	-974.404	1	3919.613	-14.39451	-7.459693E-008	0.1431186	8
	9	4	125953.1	3937.616	-855.3514	1	4029.447	-12.25571	1.545382E-007	0.1427729	7
	10	5	100078.1	4024.829	-791.303	1	4101.878	-11.12279	-9.570098E-010	0.1430349	7
	11	5	79453.13	4114.587	-748.6246	1	4182.136	-10.31183	1.469891E-009	0.1430176	7
	12	5	63140.62	4197.937	-716.0021	1	4258.561	-9.67925	-7.101552E-009	0.1430227	7
	13	6	50203.12	4276.365	-693.39	1	4332.215	-9.210053	-2.256366E-010	0.1430108	7
	14	6	39890.62	4352.241	-682.0318	1	4405.356	-8.906284	1.337778E-010	0.1430192	7
	15	6	31640.63	4426.775	-681.261	1	4478.89	-8.748927	7.260837E-010	0.143019	7
	16	7	25171.88	4499.101	-690.9633	1	4551.85	-8.731156	2.271567E-009	0.1430001	7
	17	7	20015.62	4571.846	-712.7673	1	4627.074	-8.861284	1.209014E-008	0.1429795	7
	18	7	15890.62	4646.705	-746.5082	1	4706.287	-9.126768	-1.585152E-009	0.143006	7
	19	8	12609.37	4722.844	-794.1608	1	4789.149	-9.54517	1.46214E-009	0.1429985	7
	20	8	10078.13	4798.887	-856.0604	1	4874.644	-10.11445	-2.55279E-010	0.1430061	7
	21	8	8015.625	4879.707	-936.3043	1	4968.723	-10.86174	1.795004E-009	0.1430001	7
	22	8	6328.125	4967.812	-1041.489	1	5075.811	-11.84043	2.17789E-009	0.143002	7
	23	9	5015.625	5059.635	-1169.451	1	5193.026	-13.01443	1.977865E-009	0.1429966	7
	24	9	3984.375	5155.671	-1326.662	1	5323.624	-14.43034	-2.758679E-009	0.143002	7
	25	9	3170.956	5257.355	-1518.004	1	5472.122	-16.1055	-6.521667E-009	0.1430103	7
	26	10	2527.573	5365.057	-1750.048	1	5643.271	-18.06601	2.040434E-009	0.1429944	7
	27	10	1976.103	5491.575	-2065.481	1	5867.163	-20.61219	2.939003E-009	0.1430097	7
	28	10	1577.524	5616.218	-2419.222	1	6115.107	-23.30428	-6.92744E-010	0.1429946	7
	29	11	1265.625	5751.909	-2846.53	1	6417.725	-26.33009	4.117238E-009	0.1429869	7
	30	11	998.264	5916.053	-3413.647	1	6830.276	-29.98556	8.811002E-009	0.1429797	7
	31	11	796.875	6096.081	-4081.847	1	7336.462	-33.80569	-4.865196E-010	0.1430013	7
	32	12	627.7902	6316.557	-4951.098	1	8025.725	-38.09036	8.383681E-010	0.1430093	7
	33	12	505.5147	6557.964	-5910.386	1	8828.338	-42.02686	5.331616E-010	0.1429984	7
	34	12	397.9953	6882.809	-7215.245	1	9971.6	-46.3508	-2.717389E-010	0.1430633	6
	35	13	315.5048	7262.404	-8772.791	1	11388.78	-50.38093	-3.102942E-010	0.1430656	6
	36	13	252.4038	7706.812	-10598.94	1	13104.67	-53.97795	-3.160101E-010	0.1430563	6
	37	13	198.6229	8297.038	-12997.6	1	15420.07	-57.44781	-2.871199E-010	0.1430582	6
	38	14	158.3615	8994.947	-15774.8	1	18159.11	-60.30779	-2.440895E-010	0.1430561	6
	39	14	125.558	9895.47	-19243.81	1	21638.96	-62.78706	-1.797648E-010	0.1430591	6
	40	14	100.4464	10997.04	-23293.02	1	25758.49	-64.72719	-3.197441E-010	0.1430568	6
	41	15	79.00281	12524.88	-28591.69	1	31214.7	-66.34369	-4.192616E-010	0.1430582	6
	42	15	63.3446	14332.83	-34506.83	1	37365.11	-67.44385	-6.858094E-010	0.1430598	6
	43	15	49.86702	16888.4	-42185.18	1	45440.16	-68.18182	-3.32412E-010	0.1430552	6
	44	16	39.72458	20069.47	-50938.73	1	54749.78	-68.49594	-2.429585E-010	0.1430581	6
	45	16	31.6723	24146.38	-61306.17	1	65890.02	-68.50224	-2.23314E-010	0.1430562	6
	46	16	24.93351	29730.74	-74290.29	1	80018.52	-68.18887	-4.869835E-010	0.1430553	6
	47	17	19.86229	36578.3	-88838.3	1	96074	-67.62106	4.374782E-010	0.1430625	6
	48	17	15.83615	45395.31	-105592	1	114936.5	-66.73653	-1.511332E-009	0.1430614	5
	49	17	12.40079	57638.04	-126582.8	1	139087.6	-65.51839	-2.208838E-009	0.1430633	5
	50	17	9.93114	71751.38	-148087.2	1	164554.2	-64.14883	-2.348166E-009	0.1430624	5
	51	18	7.944915	89096.55	-172403.6	1	194064.9	-62.6705	-1.568043E-009	0.14306	5
	52	18	6.317385	111329.1	-199271.5	1	228261.5	-60.80876	-9.032001E-010	0.1430601	5
	53	19	5.008013	138445.5	-228695.3	1	267336.3	-58.8105	-1.325306E-009	0.1430549	5
	54	20	3.945707	171787.5	-260505.7	1	312048.3	-56.59761	-1.089184E-009	0.1430606	5
	55	21	3.158693	206357.1	-290985.8	1	356729.5	-54.65705	-1.130252E-009	0.1430452	5
	56	22	2.504006	247165.6	-323561.8	1	407164.7	-52.62416	-5.322362E-010	0.1430476	5
	57	23	1.998082	288067.3	-356580.6	1	458402.1	-51.06662	-6.379992E-010	0.1430536	5
	58	25	1.584686	333971.3	-392060.1	1	515022.3	-49.57442	-8.489943E-010	0.143009	5
	59	27	1.266892	379027.3	-432090.1	1	574772.6	-48.74292	-7.942091E-010	0.1430029	5
	60	29	0.999041	426916.7	-480863.4	1	643029.9	-48.40092	-7.910027E-010	0.1430216	5
