EXPLAIN
TAG	EISPOT
TITLE	LABEL	Potentiostatic EIS	Test &Identifier
DATE	LABEL	7/5/2020	Date
TIME	LABEL	16:43:24	Time
NOTES	NOTES	1	&Notes...
	
PSTAT	PSTAT	REF600-11020	Potentiostat
VDC	POTEN	0.00000E+000	T	DC &Voltage (V)
FREQINIT	QUANT	1.00000E+006	Initial Fre&q. (Hz)
FREQFINAL	QUANT	1.00000E+000	Final Fre&q. (Hz)
PTSPERDEC	QUANT	1.00000E+001	Points/&decade
VAC	QUANT	2.50000E+001	AC &Voltage (mV rms)
AREA	QUANT	4.00000E-004	&Area (cm^2)
CONDIT	TWOPARAM	F	5.00000E+000	0.00000E+000	Conditionin&g	Time(s)	E(V)
DELAY	TWOPARAM	F	3.00000E+000	0.00000E+000	Init. De&lay	Time(s)	Stab.(mV/s)
SPEED	SELECTOR	0	&Optimize for:
ZGUESS	QUANT	1.00000E+003	E&stimated Z (ohms)
OCVCURVE	TABLE	39
	Pt	T	Vf	Vm	Ach	Over
	#	s	V vs. Ref.	V	V	bits
	0	0.258333	-1.08514E-001	-1.08514E-001	4.80517E-004	...........
	1	0.516667	-1.08514E-001	-1.08537E-001	4.80651E-004	...........
	2	0.775	-1.08517E-001	-1.08580E-001	4.97217E-004	...........
	3	1.03333	-1.08527E-001	-1.08591E-001	4.96384E-004	...........
	4	1.29167	-1.08544E-001	-1.08602E-001	4.83317E-004	...........
	5	1.55	-1.08565E-001	-1.08595E-001	4.81884E-004	...........
	6	1.80833	-1.08582E-001	-1.08594E-001	5.03484E-004	...........
	7	2.06667	-1.08592E-001	-1.08583E-001	5.01517E-004	...........
	8	2.325	-1.08594E-001	-1.08585E-001	4.82217E-004	...........
	9	2.58333	-1.08592E-001	-1.08593E-001	4.81651E-004	...........
	10	2.84167	-1.08590E-001	-1.08611E-001	5.06284E-004	...........
	11	3.1	-1.08591E-001	-1.08593E-001	5.05050E-004	...........
	12	3.35833	-1.08594E-001	-1.08602E-001	4.84651E-004	...........
	13	3.61667	-1.08598E-001	-1.08631E-001	4.85917E-004	...........
	14	3.875	-1.08603E-001	-1.08637E-001	5.03384E-004	...........
	15	4.13333	-1.08611E-001	-1.08647E-001	5.01684E-004	...........
	16	4.39167	-1.08623E-001	-1.08670E-001	4.86717E-004	...........
	17	4.65	-1.08636E-001	-1.08651E-001	4.92684E-004	...........
	18	4.90833	-1.08647E-001	-1.08682E-001	5.09384E-004	...........
	19	5.16667	-1.08657E-001	-1.08671E-001	4.98950E-004	...........
	20	5.425	-1.08664E-001	-1.08665E-001	4.96984E-004	...........
	21	5.68333	-1.08668E-001	-1.08680E-001	5.06484E-004	...........
	22	5.94167	-1.08671E-001	-1.08671E-001	5.12083E-004	...........
	23	6.2	-1.08672E-001	-1.08676E-001	4.99317E-004	...........
	24	6.45833	-1.08673E-001	-1.08666E-001	4.91850E-004	...........
	25	6.71667	-1.08672E-001	-1.08641E-001	5.13217E-004	...........
	26	6.975	-1.08664E-001	-1.08431E-001	5.14283E-004	...........
	27	7.23333	-1.08635E-001	-1.08375E-001	4.95384E-004	...........
	28	7.49167	-1.08579E-001	-1.08646E-001	4.97084E-004	...........
	29	7.75	-1.08530E-001	-1.08683E-001	5.11050E-004	...........
	30	8.00833	-1.08526E-001	-1.08647E-001	5.09650E-004	...........
	31	8.26667	-1.08567E-001	-1.08663E-001	4.91984E-004	...........
	32	8.525	-1.08615E-001	-1.08653E-001	4.90850E-004	...........
	33	8.78333	-1.08645E-001	-1.08637E-001	5.08884E-004	...........
	34	9.04167	-1.08655E-001	-1.08626E-001	5.01850E-004	...........
	35	9.3	-1.08652E-001	-1.08644E-001	4.93250E-004	...........
	36	9.5583	-1.08644E-001	-1.08623E-001	4.91584E-004	...........
	37	9.8167	-1.08638E-001	-1.08635E-001	5.06684E-004	...........
	38	10.075	-1.08634E-001	-1.08656E-001	5.07217E-004	...........
EOC	QUANT	-0.1086342	Open Circuit (V)
PSTATMODEL	IQUANT	4	Pstat Model
PSTATSECTION	LABEL	REF600-11020	Pstat Section
PSTATSERIALNO	LABEL	11020	Pstat Serial Number
CTRLMODE	IQUANT	1	Control Mode
IESTAB	IQUANT	0	I/E Stability
CASPEED	IQUANT	1	Control Amp Speed
CONVENTION	IQUANT	1	Current Convention
ICHRANGE	IQUANT	2	Ich Range
ICHRANGEMODE	TOGGLE	F	Ich Auto Range
ICHOFFSETENABLE	TOGGLE	T	Ich Offset Enable
ICHOFFSET	QUANT	0	Ich Offset (V)
ICHFILTER	IQUANT	3	Ich Filter
VCHRANGE	IQUANT	2	Vch Range
VCHRANGEMODE	TOGGLE	F	Vch Auto Range
VCHOFFSETENABLE	TOGGLE	T	Vch Offset Enable
VCHOFFSET	QUANT	0	Vch Offset (V)
VCHFILTER	IQUANT	3	Vch Filter
ACHRANGE	IQUANT	2	Ach Range
ACHOFFSETENABLE	TOGGLE	F	Ach Offset Enable
ACHOFFSET	QUANT	0	Ach Offset (V)
ACHFILTER	IQUANT	3	Ach Filter
IERANGELOWERLIMIT	IQUANT	1	I/E Range Lower Limit
IERANGEMODE	TOGGLE	F	I/E AutoRange
IERANGE	IQUANT	8	I/E Range
POSFEEDENABLE	TOGGLE	F	Positive Feedback IR Comp
POSFEEDRESISTANCE	QUANT	0	Positive Feedback Resistance (ohm)
ACHSELECT	IQUANT	0	Ach Select
CABLEID	IQUANT	14	Cable ID
DCCALDATE	LABEL	6/26/2020	DC Calibration Date
ACCALDATE	LABEL	6/26/2020	AC Calibration Date
THERMOSELECT	IQUANT	1	Thermo Select
FRAMEWORKVERSION	QUANT	6.33	Framework Version
INSTRUMENTVERSION	LABEL	3.50	Instrument Version
ZCURVE	TABLE
	Pt	Time	Freq	Zreal	Zimag	Zsig	Zmod	Zphz	Idc	Vdc	IERange
	#	s	Hz	ohm	ohm	V	ohm	°	A	V	#
	0	2	1000078	1280.456	-1970.891	1	2350.315	-56.98886	-5.236262E-007	-0.106261	8
	1	2	794390.6	1495.653	-2257.252	1	2707.797	-56.47158	-2.35886E-006	-0.1060526	8
	2	2	630984.4	1749.203	-2602.835	1	3135.994	-56.09741	-2.592091E-006	-0.1068817	8
	3	2	501234.4	2045.914	-2993.158	1	3625.57	-55.64621	8.458816E-006	-0.1076164	8
	4	3	398109.4	2390.042	-3437.914	1	4187.069	-55.19292	-3.563841E-006	-0.1070428	8
	5	3	316265.6	2813.271	-3954.234	1	4852.881	-54.56975	-1.373969E-006	-0.1072377	8
	6	3	251203.1	3324.096	-4516.342	1	5607.758	-53.64637	-4.868652E-007	-0.1065536	8
	7	4	199546.9	3937.66	-5161.187	1	6491.766	-52.65865	-6.113573E-006	-0.1062778	8
	8	4	158578.1	4685.349	-5858.044	1	7501.279	-51.34667	-1.058264E-006	-0.106588	8
	9	4	125953.1	5589.583	-6532.346	1	8597.383	-49.44713	-1.841451E-006	-0.1035484	7
	10	5	100078.1	6627.717	-7290.31	1	9852.68	-47.72561	-1.571349E-006	-0.1052179	7
	11	5	79453.13	7821.078	-8064.624	1	11234.21	-45.87834	1.00532E-006	-0.109324	7
	12	6	63140.62	9168.46	-8606.269	1	12574.92	-43.18841	-8.115619E-007	-0.1050246	7
	13	6	50203.12	10643.82	-9276.381	1	14118.86	-41.07304	9.542669E-007	-0.1092237	7
	14	6	39890.62	12207.45	-9602.21	1	15531.4	-38.1881	4.747551E-007	-0.1063388	7
	15	7	31640.63	13859.49	-10048.23	1	17118.77	-35.9424	1.417049E-006	-0.1089603	7
	16	7	25171.88	15471.31	-10235.32	1	18550.56	-33.48733	-3.878074E-007	-0.1081505	7
	17	7	20015.62	16945.35	-10248.17	1	19803.28	-31.16462	-8.135959E-007	-0.1050262	7
	18	8	15890.62	18510.45	-10397.2	1	21230.61	-29.32265	-1.572493E-006	-0.1052386	7
	19	8	12609.37	19973.79	-10645.08	1	22633.38	-28.05551	-2.565673E-007	-0.1044938	6
	20	8	10078.13	21516.37	-10937.84	1	24136.91	-26.9465	2.275316E-007	-0.1093107	6
	21	9	8015.625	22872.1	-11123.01	1	25433.33	-25.93427	-9.697197E-008	-0.1037912	6
	22	9	6328.125	24424.69	-11541.74	1	27014.38	-25.2928	1.682677E-007	-0.1105978	6
	23	9	5015.625	25864.61	-11984.99	1	28506.45	-24.86178	1.123069E-007	-0.1104328	6
	24	10	3984.375	27254.29	-12492.71	1	29981.07	-24.62558	-2.575607E-007	-0.1036504	6
	25	10	3170.956	28773.52	-13195.46	1	31654.95	-24.63607	-2.573189E-007	-0.1036426	6
	26	10	2527.573	30426.73	-14086.23	1	33529.21	-24.84205	-1.014134E-007	-0.1081774	6
	27	11	1976.103	32390.03	-15355.44	1	35845.55	-25.36466	2.17507E-007	-0.1086181	6
	28	11	1577.524	34033.98	-16401.56	1	37779.92	-25.73021	-1.019071E-007	-0.1081736	6
	29	11	1265.625	35863.62	-17688.65	1	39988.59	-26.25343	-1.716118E-007	-0.1032855	6
	30	11	998.264	38129.3	-19528.63	1	42839.36	-27.12009	1.12889E-007	-0.1104373	6
	31	12	796.875	40172.8	-21385.22	1	45510.24	-28.02775	1.255271E-007	-0.1064996	6
	32	12	627.7902	42178.36	-23465.88	1	48266.56	-29.08932	-2.572454E-007	-0.1036559	6
	33	12	505.5147	44596.6	-26306.02	1	51777.05	-30.53492	1.254327E-007	-0.1065021	6
	34	13	397.9953	46950.61	-29633.61	1	55520.36	-32.25871	7.63727E-010	-0.107069	6
	35	13	315.5048	49427.54	-33648.27	1	59793.71	-34.24546	1.164725E-009	-0.1070741	6
	36	13	252.4038	51921.18	-38480.96	1	64626.57	-36.54369	6.734999E-010	-0.1070797	6
	37	14	198.6229	54802.08	-44864.14	1	70824.14	-39.30573	3.323223E-010	-0.1070744	6
	38	14	158.3615	57788.46	-52448.4	1	78040.63	-42.22667	8.612925E-010	-0.1070788	6
	39	14	125.558	61269.34	-62025.96	1	87184.59	-45.3516	8.569505E-011	-0.1070692	6
	40	15	100.4464	65101.3	-73352.95	1	98075.6	-48.4107	-1.361928E-010	-0.1070803	5
	41	15	79.00281	70167.52	-88252	1	112747	-51.51245	2.422569E-010	-0.1070823	5
	42	15	63.3446	77476.47	-104630.8	1	130193	-53.48099	1.149747E-011	-0.1070946	5
	43	16	49.86702	85304.59	-127371.9	1	153298.6	-56.18865	-1.140073E-010	-0.1070979	5
	44	16	39.72458	94216.95	-152472.2	1	179233.4	-58.2869	1.303562E-010	-0.1070942	5
	45	16	31.6723	106412.4	-182981.5	1	211673.9	-59.81998	5.327439E-011	-0.1070856	5
	46	17	24.93351	123835	-221836.5	1	254060.1	-60.82859	-9.506836E-012	-0.1070906	5
	47	17	19.86229	145717.9	-266061.7	1	303352.2	-61.29116	-6.182251E-011	-0.1070907	5
	48	17	15.83615	175429.3	-317213.4	1	362491.1	-61.05598	-4.190012E-011	-0.1070942	5
	49	18	12.40079	218690.2	-377312.5	1	436107.9	-59.90343	-2.069323E-010	-0.1070818	5
	50	18	9.93114	268004.3	-437618	1	513162.6	-58.51603	3.445405E-010	-0.107082	5
	51	19	7.944915	334260.8	-502808.1	1	603776.7	-56.38452	5.073861E-010	-0.1070935	5
	52	19	6.317385	415003.2	-569831.2	1	704936.3	-53.93447	2.985479E-010	-0.1071017	5
	53	21	5.008013	514238.1	-637628.1	1	819152.2	-51.11431	1.021888E-011	-0.1071043	5
	54	22	3.945707	629251.9	-693253.3	1	936246.8	-47.77061	1.435282E-010	-0.1070974	5
	55	23	3.158693	746740.4	-735818.6	1	1048356	-44.57792	-4.315186E-011	-0.1070872	4
	56	25	2.504006	869527.9	-768873.1	1	1160709	-41.48446	-2.055649E-010	-0.1071005	4
	57	26	1.998082	984175	-787263.2	1	1260311	-38.6571	-7.883919E-012	-0.1070611	4
	58	28	1.584686	1094969	-805748.8	1	1359481	-36.34803	3.913218E-011	-0.1070522	4
	59	30	1.266892	1208995	-840385.3	1	1472384	-34.80359	-3.172464E-011	-0.1070914	4
	60	32	0.999041	1322121	-870128.4	1	1582759	-33.35015	-7.818728E-011	-0.1071208	4
