EXPLAIN
TAG	EISPOT
TITLE	LABEL	Potentiostatic EIS	Test &Identifier
DATE	LABEL	3/17/2020	Date
TIME	LABEL	15:52:39	Time
NOTES	NOTES	1	&Notes...
	
PSTAT	PSTAT	REF600-11020	Potentiostat
VDC	POTEN	0.00000E+000	T	DC &Voltage (V)
FREQINIT	QUANT	1.00000E+006	Initial Fre&q. (Hz)
FREQFINAL	QUANT	1.00000E+000	Final Fre&q. (Hz)
PTSPERDEC	QUANT	1.00000E+001	Points/&decade
VAC	QUANT	2.50000E+001	AC &Voltage (mV rms)
AREA	QUANT	4.00000E-004	&Area (cm^2)
CONDIT	TWOPARAM	F	5.00000E+000	0.00000E+000	Conditionin&g	Time(s)	E(V)
DELAY	TWOPARAM	T	3.00000E+000	0.00000E+000	Init. De&lay	Time(s)	Stab.(mV/s)
SPEED	SELECTOR	0	&Optimize for:
ZGUESS	QUANT	5.00000E+003	E&stimated Z (ohms)
OCVCURVE	TABLE	12
	Pt	T	Vf	Vm	Ach	Over
	#	s	V vs. Ref.	V	V	bits
	0	0.258333	4.91529E-002	4.91529E-002	5.85063E-004	...........
	1	0.516667	4.91529E-002	4.91525E-002	5.88096E-004	...........
	2	0.775	4.91528E-002	4.91486E-002	5.91396E-004	...........
	3	1.03333	4.91522E-002	4.91429E-002	5.91763E-004	...........
	4	1.29167	4.91506E-002	4.91375E-002	5.91563E-004	...........
	5	1.55	4.91475E-002	4.91332E-002	5.91630E-004	...........
	6	1.80833	4.91433E-002	4.91262E-002	5.91396E-004	...........
	7	2.06667	4.91383E-002	4.91209E-002	5.88497E-004	...........
	8	2.325	4.91328E-002	4.91149E-002	5.90363E-004	...........
	9	2.58333	4.91271E-002	4.91080E-002	5.92096E-004	...........
	10	2.84167	4.91212E-002	4.91048E-002	5.96330E-004	...........
	11	3.1	4.91154E-002	4.91016E-002	5.95763E-004	...........
EOC	QUANT	0.0491154	Open Circuit (V)
PSTATMODEL	IQUANT	4	Pstat Model
PSTATSECTION	LABEL	REF600-11020	Pstat Section
PSTATSERIALNO	LABEL	11020	Pstat Serial Number
CTRLMODE	IQUANT	1	Control Mode
IESTAB	IQUANT	0	I/E Stability
CASPEED	IQUANT	1	Control Amp Speed
CONVENTION	IQUANT	1	Current Convention
ICHRANGE	IQUANT	2	Ich Range
ICHRANGEMODE	TOGGLE	F	Ich Auto Range
ICHOFFSETENABLE	TOGGLE	T	Ich Offset Enable
ICHOFFSET	QUANT	0	Ich Offset (V)
ICHFILTER	IQUANT	3	Ich Filter
VCHRANGE	IQUANT	2	Vch Range
VCHRANGEMODE	TOGGLE	F	Vch Auto Range
VCHOFFSETENABLE	TOGGLE	T	Vch Offset Enable
VCHOFFSET	QUANT	0	Vch Offset (V)
VCHFILTER	IQUANT	3	Vch Filter
ACHRANGE	IQUANT	2	Ach Range
ACHOFFSETENABLE	TOGGLE	F	Ach Offset Enable
ACHOFFSET	QUANT	0	Ach Offset (V)
ACHFILTER	IQUANT	3	Ach Filter
IERANGELOWERLIMIT	IQUANT	1	I/E Range Lower Limit
IERANGEMODE	TOGGLE	F	I/E AutoRange
IERANGE	IQUANT	7	I/E Range
POSFEEDENABLE	TOGGLE	F	Positive Feedback IR Comp
POSFEEDRESISTANCE	QUANT	0	Positive Feedback Resistance (ohm)
ACHSELECT	IQUANT	0	Ach Select
CABLEID	IQUANT	14	Cable ID
DCCALDATE	LABEL	2/27/2020	DC Calibration Date
ACCALDATE	LABEL	2/27/2020	AC Calibration Date
THERMOSELECT	IQUANT	1	Thermo Select
FRAMEWORKVERSION	QUANT	6.33	Framework Version
INSTRUMENTVERSION	LABEL	3.50	Instrument Version
ZCURVE	TABLE
	Pt	Time	Freq	Zreal	Zimag	Zsig	Zmod	Zphz	Idc	Vdc	IERange
	#	s	Hz	ohm	ohm	V	ohm	°	A	V	#
	0	1	1000078	1672.115	-1959.911	1	2576.28	-49.53056	3.578234E-008	0.0512626	8
	1	2	794390.6	2037.152	-2137.136	1	2952.514	-46.37211	9.927378E-008	0.050903	8
	2	2	630984.4	2447.165	-2276.822	1	3342.534	-42.93486	1.378887E-008	0.0507998	8
	3	2	501234.4	2897.418	-2365.368	1	3740.321	-39.2272	3.819514E-008	0.05074	8
	4	3	398109.4	3363.256	-2394.822	1	4128.76	-35.45295	2.717828E-008	0.0506835	8
	5	3	316265.6	3829.475	-2349.832	1	4492.949	-31.534	5.50996E-008	0.0506607	8
	6	3	251203.1	4268.573	-2251.426	1	4825.933	-27.80906	4.333146E-008	0.050656	8
	7	4	199546.9	4666.522	-2103.88	1	5118.861	-24.26801	4.900253E-008	0.0506633	8
	8	4	158578.1	5002.508	-1923.401	1	5359.529	-21.03112	1.638967E-008	0.0506814	8
	9	4	125953.1	5334.246	-1677.12	1	5591.683	-17.45347	5.611477E-009	0.0506024	7
	10	5	100078.1	5551.083	-1487.951	1	5747.044	-15.00523	1.901879E-010	0.0505902	7
	11	5	79453.13	5742.698	-1319.66	1	5892.375	-12.94176	7.887092E-010	0.0505953	7
	12	5	63140.62	5894.769	-1162.799	1	6008.36	-11.15887	2.040587E-010	0.0505874	7
	13	6	50203.12	6018.004	-1024.268	1	6104.548	-9.65922	6.244324E-010	0.0505819	7
	14	6	39890.62	6116.86	-906.7191	1	6183.698	-8.431713	1.394989E-009	0.0505889	7
	15	6	31640.63	6195.89	-810.456	1	6248.671	-7.452288	6.014612E-010	0.0505831	7
	16	7	25171.88	6261.587	-737.1857	1	6304.833	-6.714606	8.141224E-010	0.0505838	7
	17	7	20015.62	6316.734	-685.5956	1	6353.832	-6.19443	1.495482E-009	0.0505807	7
	18	7	15890.62	6363.784	-653.9083	1	6397.292	-5.866817	1.15856E-009	0.050581	7
	19	7	12609.37	6406.87	-643.2888	1	6439.083	-5.73363	3.697244E-010	0.0505728	7
	20	8	10078.13	6447.308	-655.3481	1	6480.529	-5.803998	1.309676E-009	0.0505828	7
	21	8	8015.625	6485.212	-687.791	1	6521.583	-6.05389	9.632096E-010	0.0505742	7
	22	8	6328.125	6524.501	-746.6689	1	6567.087	-6.528571	6.884695E-010	0.050575	7
	23	9	5015.625	6566.82	-833.4705	1	6619.501	-7.233389	1.835217E-009	0.0505832	7
	24	9	3984.375	6607.09	-948.7609	1	6674.862	-8.171663	4.993817E-010	0.0505765	7
	25	9	3170.956	6652.997	-1099.29	1	6743.205	-9.382344	7.88922E-011	0.0505712	7
	26	10	2527.573	6703.929	-1292.237	1	6827.338	-10.91041	1.740833E-009	0.0505825	7
	27	10	1976.103	6765.365	-1556	1	6941.995	-12.95249	9.872669E-011	0.0505721	7
	28	10	1577.524	6829.674	-1859.911	1	7078.398	-15.23382	1.108232E-009	0.05057	7
	29	11	1265.625	6904.033	-2231.413	1	7255.679	-17.91105	1.402334E-009	0.0505758	7
	30	11	998.264	7000.352	-2726.374	1	7512.525	-21.27904	1.276807E-009	0.0505742	7
	31	11	796.875	7113.093	-3307.22	1	7844.348	-24.93599	6.005029E-010	0.0505694	7
	32	12	627.7902	7260.792	-4069.438	1	8323.427	-29.26921	4.645279E-010	0.0505681	7
	33	12	505.5147	7430.224	-4927.442	1	8915.6	-33.55083	1.152145E-009	0.0505718	7
	34	12	397.9953	7667.708	-6078.699	1	9784.9	-38.40619	3.340704E-010	0.0506423	6
	35	13	315.5048	7965.188	-7462.794	1	10915.01	-43.13489	5.249859E-010	0.0506363	6
	36	13	252.4038	8334.595	-9085.812	1	12329.54	-47.46923	3.598755E-010	0.0506365	6
	37	13	198.6229	8849.751	-11214.07	1	14285.43	-51.72074	2.963442E-010	0.0506325	6
	38	14	158.3615	9485.666	-13665.02	1	16634.63	-55.2333	3.854543E-010	0.0506294	6
	39	14	125.558	10333.77	-16706.63	1	19644.3	-58.26142	3.801988E-010	0.0506349	6
	40	14	100.4464	11394.22	-20223.99	1	23212.89	-60.60304	3.461793E-010	0.0506334	6
	41	15	79.00281	12884.85	-24782.17	1	27931.62	-62.52898	2.050419E-010	0.0506312	6
	42	15	63.3446	14664.48	-29789.77	1	33203.57	-63.79056	1.880519E-010	0.0506286	6
	43	15	49.86702	17160.16	-36238.17	1	40095.83	-64.66065	1.496863E-010	0.0506294	6
	44	16	39.72458	20232.28	-43488.43	1	47964.45	-65.05058	1.21748E-010	0.0506343	6
	45	16	31.6723	24127.24	-51920.08	1	57252.24	-65.07572	-7.44123E-011	0.0506304	6
	46	16	24.93351	29372.58	-62259.84	1	68840.66	-64.74327	4.349406E-010	0.0506271	6
	47	17	19.86229	35605.04	-73578.29	1	81740.34	-64.17735	-8.110422E-011	0.0506301	6
	48	17	15.83615	43254.04	-86299.04	1	96532	-63.37946	7.893197E-010	0.0506295	6
	49	17	12.40079	53273.05	-101753.5	1	114855.5	-62.36569	1.60907E-009	0.0506275	5
	50	17	9.93114	63858.73	-117495.4	1	133727.7	-61.47592	1.753317E-009	0.0506335	5
	51	18	7.944915	76289.28	-135685.3	1	155661.7	-60.65306	6.148702E-011	0.0506298	5
	52	18	6.317385	90760.04	-156484.4	1	180899.8	-59.88652	2.045524E-010	0.0506323	5
	53	19	5.008013	107453.6	-180522.7	1	210082.7	-59.23736	5.407348E-010	0.0506381	5
	54	20	3.945707	127249.5	-209198.3	1	244859.9	-58.68901	3.343353E-010	0.0506248	5
	55	21	3.158693	147928	-240131.4	1	282038.7	-58.36571	3.363878E-010	0.0506417	5
	56	22	2.504006	173457.6	-277590	1	327328.2	-57.99998	-8.795377E-011	0.0506322	5
	57	23	1.998082	201305.1	-319460.4	1	377595.9	-57.78329	-7.330777E-012	0.0506208	5
	58	25	1.584686	236322.5	-368764.8	1	437990.7	-57.34628	1.634673E-010	0.0506668	5
	59	27	1.266892	275002.8	-424603.8	1	505880.3	-57.07012	1.792722E-010	0.0506602	5
	60	29	0.999041	322304.8	-491255.1	1	587547.4	-56.73175	1.909224E-010	0.0506458	5
