EXPLAIN
TAG	EISPOT
TITLE	LABEL	Potentiostatic EIS	Test &Identifier
DATE	LABEL	1/14/2020	Date
TIME	LABEL	18:42:38	Time
NOTES	NOTES	5	&Notes...
	
	
	
	
	
PSTAT	PSTAT	REF600-11020	Potentiostat
VDC	POTEN	0.00000E+000	T	DC &Voltage (V)
FREQINIT	QUANT	1.00000E+006	Initial Fre&q. (Hz)
FREQFINAL	QUANT	1.00000E+000	Final Fre&q. (Hz)
PTSPERDEC	QUANT	1.00000E+001	Points/&decade
VAC	QUANT	2.50000E+001	AC &Voltage (mV rms)
AREA	QUANT	1.00000E-001	&Area (cm^2)
CONDIT	TWOPARAM	T	5.00000E+000	0.00000E+000	Conditionin&g	Time(s)	E(V)
DELAY	TWOPARAM	T	5.00000E+000	0.00000E+000	Init. De&lay	Time(s)	Stab.(mV/s)
SPEED	SELECTOR	0	&Optimize for:
ZGUESS	QUANT	5.00000E+002	E&stimated Z (ohms)
OCVCURVE	TABLE	19
	Pt	T	Vf	Vm	Ach	Over
	#	s	V vs. Ref.	V	V	bits
	0	0.258333	6.97332E-003	6.97332E-003	6.63279E-004	...........
	1	0.516667	6.97428E-003	7.02378E-003	6.67413E-004	...........
	2	0.775	6.98043E-003	7.08377E-003	6.75213E-004	...........
	3	1.03333	6.99886E-003	7.15464E-003	6.66746E-004	...........
	4	1.29167	7.03457E-003	7.22965E-003	6.67946E-004	...........
	5	1.55	7.08716E-003	7.31215E-003	6.67146E-004	...........
	6	1.80833	7.15272E-003	7.39534E-003	6.73146E-004	...........
	7	2.06667	7.22701E-003	7.48099E-003	6.79346E-004	...........
	8	2.325	7.30681E-003	7.57066E-003	6.70546E-004	...........
	9	2.58333	7.39017E-003	7.65728E-003	6.66079E-004	...........
	10	2.84167	7.47581E-003	7.74229E-003	6.70079E-004	...........
	11	3.1	7.56257E-003	7.83054E-003	6.66079E-004	...........
	12	3.35833	7.64950E-003	7.91311E-003	6.67079E-004	...........
	13	3.61667	7.73605E-003	8.00002E-003	6.68179E-004	...........
	14	3.875	7.82203E-003	8.08386E-003	6.71113E-004	...........
	15	4.13333	7.90748E-003	8.16802E-003	6.67279E-004	...........
	16	4.39167	7.99245E-003	8.24949E-003	6.62579E-004	...........
	17	4.65	8.07678E-003	8.33189E-003	6.66813E-004	...........
	18	4.90833	8.16027E-003	8.41128E-003	6.64846E-004	...........
EOC	QUANT	0.0081603	Open Circuit (V)
PSTATMODEL	IQUANT	4	Pstat Model
PSTATSECTION	LABEL	REF600-11020	Pstat Section
PSTATSERIALNO	LABEL	11020	Pstat Serial Number
CTRLMODE	IQUANT	1	Control Mode
IESTAB	IQUANT	0	I/E Stability
CASPEED	IQUANT	1	Control Amp Speed
CONVENTION	IQUANT	1	Current Convention
ICHRANGE	IQUANT	2	Ich Range
ICHRANGEMODE	TOGGLE	F	Ich Auto Range
ICHOFFSETENABLE	TOGGLE	T	Ich Offset Enable
ICHOFFSET	QUANT	0	Ich Offset (V)
ICHFILTER	IQUANT	3	Ich Filter
VCHRANGE	IQUANT	2	Vch Range
VCHRANGEMODE	TOGGLE	F	Vch Auto Range
VCHOFFSETENABLE	TOGGLE	T	Vch Offset Enable
VCHOFFSET	QUANT	0	Vch Offset (V)
VCHFILTER	IQUANT	3	Vch Filter
ACHRANGE	IQUANT	2	Ach Range
ACHOFFSETENABLE	TOGGLE	F	Ach Offset Enable
ACHOFFSET	QUANT	0	Ach Offset (V)
ACHFILTER	IQUANT	3	Ach Filter
IERANGELOWERLIMIT	IQUANT	1	I/E Range Lower Limit
IERANGEMODE	TOGGLE	F	I/E AutoRange
IERANGE	IQUANT	7	I/E Range
POSFEEDENABLE	TOGGLE	F	Positive Feedback IR Comp
POSFEEDRESISTANCE	QUANT	0	Positive Feedback Resistance (ohm)
ACHSELECT	IQUANT	0	Ach Select
CABLEID	IQUANT	14	Cable ID
DCCALDATE	LABEL	12/22/2019	DC Calibration Date
ACCALDATE	LABEL	12/22/2019	AC Calibration Date
THERMOSELECT	IQUANT	1	Thermo Select
FRAMEWORKVERSION	QUANT	6.33	Framework Version
INSTRUMENTVERSION	LABEL	3.50	Instrument Version
ZCURVE	TABLE
	Pt	Time	Freq	Zreal	Zimag	Zsig	Zmod	Zphz	Idc	Vdc	IERange
	#	s	Hz	ohm	ohm	V	ohm	°	A	V	#
	0	1	1000078	1949.953	-2299.358	1	3014.857	-49.70063	-1.355254E-006	0.010865	8
	1	1	794390.6	2263.109	-2533.477	1	3397.082	-48.22616	2.63925E-006	0.0098816	8
	2	2	630984.4	2606.914	-2773.397	1	3806.275	-46.77233	-1.980976E-008	0.0099391	8
	3	2	501234.4	2983.606	-3046.988	1	4264.509	-45.60216	-9.587329E-007	0.0101733	8
	4	2	398109.4	3385.958	-3356.582	1	4767.741	-44.75037	-1.695265E-006	0.0102562	8
	5	2	316265.6	3843.817	-3704.556	1	5338.415	-43.94306	-1.015452E-006	0.0101701	8
	6	3	251203.1	4370.911	-4093.256	1	5988.289	-43.12117	-2.000957E-006	0.0102292	8
	7	3	199546.9	5005.156	-4466.091	1	6708.022	-41.74247	2.810556E-006	0.0092706	8
	8	4	158578.1	5743.74	-4851.217	1	7518.301	-40.18475	2.083633E-009	0.0099214	8
	9	4	125953.1	6559.492	-5269.443	1	8413.915	-38.77599	2.580562E-007	0.0096939	7
	10	4	100078.1	7470.19	-5616.342	1	9345.964	-36.93708	3.141565E-008	0.0097308	7
	11	5	79453.13	8521.261	-5908.448	1	10369.26	-34.73656	8.471432E-008	0.0096938	7
	12	5	63140.62	9618.8	-6073.028	1	11375.55	-32.26711	-8.891885E-009	0.0097792	7
	13	5	50203.12	10756.13	-6120.477	1	12375.56	-29.64084	-1.618021E-008	0.0098347	7
	14	6	39890.62	11886.11	-6019.89	1	13323.62	-26.86058	3.110764E-008	0.0097154	7
	15	6	31640.63	12974.35	-5803.791	1	14213.29	-24.10031	1.814891E-009	0.0097948	7
	16	6	25171.88	13953.93	-5482.645	1	14992.38	-21.45038	5.31283E-008	0.0096956	7
	17	7	20015.62	14825.04	-5090.061	1	15674.52	-18.9495	-9.263959E-009	0.0097741	7
	18	7	15890.62	15572.91	-4681.099	1	16261.24	-16.73038	-2.247795E-008	0.0097963	7
	19	7	12609.37	16279.41	-4193.792	1	16810.92	-14.44605	5.35287E-009	0.0096834	6
	20	8	10078.13	16789.17	-3839.464	1	17222.59	-12.8813	1.308755E-009	0.0098864	6
	21	8	8015.625	17235.66	-3508.561	1	17589.15	-11.50615	-6.733202E-009	0.0098692	6
	22	8	6328.125	17605.99	-3225.159	1	17898.95	-10.38065	8.059777E-009	0.0097544	6
	23	9	5015.625	17889.78	-3007.841	1	18140.88	-9.54398	2.854898E-009	0.0096737	6
	24	9	3984.375	18142.93	-2892.829	1	18372.11	-9.05936	1.207763E-008	0.0096336	6
	25	9	3170.956	18360.5	-2846.329	1	18579.81	-8.812112	1.017319E-009	0.0098514	6
	26	9	2527.573	18532.77	-2891.975	1	18757.06	-8.869278	-5.821988E-009	0.0098232	6
	27	10	1976.103	18713.39	-3051.266	1	18960.52	-9.260729	-5.884031E-009	0.0099103	6
	28	10	1577.524	18871.98	-3324.548	1	19162.58	-9.9909	1.22339E-008	0.0096296	6
	29	10	1265.625	19020.33	-3719.396	1	19380.58	-11.06448	1.18437E-008	0.0096295	6
	30	11	998.264	19195.76	-4281.458	1	19667.44	-12.57355	1.091773E-009	0.0098799	6
	31	11	796.875	19386.08	-4989.625	1	20017.91	-14.43362	1.109407E-008	0.0096004	6
	32	11	627.7902	19640.37	-5957.689	1	20524.08	-16.8746	-5.981695E-009	0.0098232	6
	33	12	505.5147	19902.04	-7062.818	1	21118.11	-19.53872	-5.873093E-009	0.0099067	6
	34	12	397.9953	20291.83	-8571.429	1	22027.89	-22.89958	7.412889E-010	0.0097981	6
	35	12	315.5048	20770.4	-10391.57	1	23224.87	-26.57911	6.825969E-010	0.0097968	6
	36	13	252.4038	21351.8	-12522.9	1	24753.23	-30.39175	3.567735E-010	0.0097969	6
	37	13	198.6229	22168.83	-15312.91	1	26943.32	-34.63442	5.196809E-010	0.0097979	6
	38	13	158.3615	23180.17	-18502.18	1	29658.91	-38.59652	3.312095E-010	0.0097999	6
	39	14	125.558	24548.03	-22432.84	1	33254.14	-42.42215	5.626197E-010	0.0098016	6
	40	14	100.4464	26260.88	-26958.23	1	37634.82	-45.75073	6.040217E-010	0.0097937	6
	41	14	79.00281	28663.28	-32728.03	1	43505.26	-48.78805	4.903909E-010	0.009798	6
	42	15	63.3446	31507.99	-38653.08	1	49867.96	-50.81486	4.175766E-010	0.0097935	6
	43	15	49.86702	35619.22	-46520.87	1	58591.13	-52.56013	1.028587E-010	0.0097933	6
	44	15	39.72458	40366.11	-55102.4	1	68305.91	-53.77478	4.193031E-010	0.0097924	6
	45	16	31.6723	46331.56	-64680.31	1	79562.28	-54.38536	5.841819E-010	0.0097872	6
	46	16	24.93351	54124.51	-75829.24	1	93164.03	-54.48196	-4.007521E-010	0.0097862	6
	47	16	19.86229	62962.46	-87623.62	1	107898.9	-54.30064	-1.361276E-009	0.0097838	5
	48	17	15.83615	73309.88	-100585.7	1	124466.2	-53.91432	-8.170413E-010	0.0097852	5
	49	17	12.40079	84877.07	-115300.6	1	143172.4	-53.64183	7.20566E-010	0.0097863	5
	50	17	9.93114	97682	-130838.7	1	163280.5	-53.2556	-5.910183E-010	0.0097885	5
	51	17	7.944915	111636.6	-147722.6	1	185161.3	-52.921	-8.595746E-010	0.009787	5
	52	18	6.317385	126011.7	-169392.6	1	211122.7	-53.35432	9.504638E-011	0.0097676	5
	53	19	5.008013	143003.2	-194538.4	1	241443.8	-53.68078	2.608303E-010	0.0097843	5
	54	20	3.945707	162280.6	-224307.4	1	276855.2	-54.11524	-2.837162E-010	0.009778	5
	55	20	3.158693	183227.3	-258505.7	1	316855.6	-54.67122	2.916829E-011	0.0097831	5
	56	22	2.504006	207971.6	-299833.1	1	364900.1	-55.25388	-7.01026E-011	0.0097873	5
	57	23	1.998082	236182.1	-347099.7	1	419833.5	-55.76688	-1.631965E-010	0.0097415	5
	58	25	1.584686	268530.8	-403330	1	484545.1	-56.34494	-1.195919E-010	0.0097731	5
	59	27	1.266892	306640.1	-466585.6	1	558328.1	-56.68708	-6.626582E-011	0.0098029	5
	60	29	0.999041	353783.9	-546258.6	1	650816	-57.07092	-2.296876E-011	0.0098249	5
