EXPLAIN
TAG	EISPOT
TITLE	LABEL	Potentiostatic EIS	Test &Identifier
DATE	LABEL	2/25/2020	Date
TIME	LABEL	16:38:47	Time
NOTES	NOTES	1	&Notes...
	
PSTAT	PSTAT	REF600-11020	Potentiostat
VDC	POTEN	0.00000E+000	T	DC &Voltage (V)
FREQINIT	QUANT	1.00000E+006	Initial Fre&q. (Hz)
FREQFINAL	QUANT	1.00000E+000	Final Fre&q. (Hz)
PTSPERDEC	QUANT	1.00000E+001	Points/&decade
VAC	QUANT	2.50000E+001	AC &Voltage (mV rms)
AREA	QUANT	1.60000E-004	&Area (cm^2)
CONDIT	TWOPARAM	F	1.50000E+001	0.00000E+000	Conditionin&g	Time(s)	E(V)
DELAY	TWOPARAM	F	1.00000E+002	0.00000E+000	Init. De&lay	Time(s)	Stab.(mV/s)
SPEED	SELECTOR	1	&Optimize for:
ZGUESS	QUANT	1.00000E+003	E&stimated Z (ohms)
OCVCURVE	TABLE	39
	Pt	T	Vf	Vm	Ach	Over
	#	s	V vs. Ref.	V	V	bits
	0	0.258333	8.04149E-002	8.04149E-002	5.73204E-004	...........
	1	0.516667	8.04148E-002	8.04135E-002	5.73471E-004	...........
	2	0.775	8.04147E-002	8.04152E-002	5.72004E-004	...........
	3	1.03333	8.04140E-002	8.03825E-002	5.69504E-004	...........
	4	1.29167	8.04102E-002	8.03521E-002	5.75304E-004	...........
	5	1.55	8.03998E-002	8.03359E-002	5.72104E-004	...........
	6	1.80833	8.03825E-002	8.03268E-002	5.69471E-004	...........
	7	2.06667	8.03621E-002	8.03138E-002	5.65171E-004	...........
	8	2.325	8.03430E-002	8.02839E-002	5.70938E-004	...........
	9	2.58333	8.03251E-002	8.02377E-002	5.72971E-004	...........
	10	2.84167	8.03037E-002	8.01833E-002	5.66604E-004	...........
	11	3.1	8.02748E-002	8.01714E-002	5.71004E-004	...........
	12	3.35833	8.02404E-002	8.01751E-002	5.65904E-004	...........
	13	3.61667	8.02066E-002	8.00646E-002	5.71871E-004	...........
	14	3.875	8.01756E-002	8.01416E-002	5.72571E-004	...........
	15	4.13333	8.01482E-002	8.01211E-002	5.74471E-004	...........
	16	4.39167	8.01297E-002	8.01409E-002	5.67671E-004	...........
	17	4.65	8.01238E-002	8.01381E-002	5.73138E-004	...........
	18	4.90833	8.01269E-002	8.01586E-002	5.75938E-004	...........
	19	5.16667	8.01339E-002	8.01404E-002	5.69504E-004	...........
	20	5.425	8.01403E-002	8.01217E-002	5.75671E-004	...........
	21	5.68333	8.01417E-002	8.01011E-002	5.75671E-004	...........
	22	5.94167	8.01354E-002	8.00925E-002	5.76904E-004	...........
	23	6.2	8.01233E-002	8.00943E-002	5.75571E-004	...........
	24	6.45833	8.01100E-002	8.00843E-002	5.76071E-004	...........
	25	6.71667	8.00992E-002	8.00750E-002	5.80304E-004	...........
	26	6.975	8.00910E-002	8.00717E-002	5.81271E-004	...........
	27	7.23333	8.00841E-002	8.00681E-002	5.76404E-004	...........
	28	7.49167	8.00776E-002	8.00430E-002	5.74404E-004	...........
	29	7.75	8.00703E-002	8.00435E-002	5.80937E-004	...........
	30	8.00833	8.00613E-002	8.00206E-002	5.79704E-004	...........
	31	8.26667	8.00498E-002	7.99798E-002	5.76404E-004	...........
	32	8.525	8.00349E-002	7.99936E-002	5.77204E-004	...........
	33	8.78333	8.00172E-002	7.99568E-002	5.76437E-004	...........
	34	9.04167	7.99992E-002	7.99588E-002	5.76504E-004	...........
	35	9.3	7.99906E-002	8.03487E-002	5.80171E-004	...........
	36	9.5583	8.00267E-002	8.08678E-002	5.75171E-004	...........
	37	9.8167	8.01504E-002	8.05556E-002	5.77237E-004	...........
	38	10.075	8.03337E-002	8.02982E-002	5.77338E-004	...........
EOC	QUANT	0.0803337	Open Circuit (V)
PSTATMODEL	IQUANT	4	Pstat Model
PSTATSECTION	LABEL	REF600-11020	Pstat Section
PSTATSERIALNO	LABEL	11020	Pstat Serial Number
CTRLMODE	IQUANT	1	Control Mode
IESTAB	IQUANT	0	I/E Stability
CASPEED	IQUANT	1	Control Amp Speed
CONVENTION	IQUANT	1	Current Convention
ICHRANGE	IQUANT	2	Ich Range
ICHRANGEMODE	TOGGLE	F	Ich Auto Range
ICHOFFSETENABLE	TOGGLE	T	Ich Offset Enable
ICHOFFSET	QUANT	0	Ich Offset (V)
ICHFILTER	IQUANT	3	Ich Filter
VCHRANGE	IQUANT	2	Vch Range
VCHRANGEMODE	TOGGLE	F	Vch Auto Range
VCHOFFSETENABLE	TOGGLE	T	Vch Offset Enable
VCHOFFSET	QUANT	0	Vch Offset (V)
VCHFILTER	IQUANT	3	Vch Filter
ACHRANGE	IQUANT	2	Ach Range
ACHOFFSETENABLE	TOGGLE	F	Ach Offset Enable
ACHOFFSET	QUANT	0	Ach Offset (V)
ACHFILTER	IQUANT	3	Ach Filter
IERANGELOWERLIMIT	IQUANT	1	I/E Range Lower Limit
IERANGEMODE	TOGGLE	F	I/E AutoRange
IERANGE	IQUANT	8	I/E Range
POSFEEDENABLE	TOGGLE	F	Positive Feedback IR Comp
POSFEEDRESISTANCE	QUANT	0	Positive Feedback Resistance (ohm)
ACHSELECT	IQUANT	0	Ach Select
CABLEID	IQUANT	14	Cable ID
DCCALDATE	LABEL	1/27/2020	DC Calibration Date
ACCALDATE	LABEL	1/27/2020	AC Calibration Date
THERMOSELECT	IQUANT	1	Thermo Select
FRAMEWORKVERSION	QUANT	6.33	Framework Version
INSTRUMENTVERSION	LABEL	3.50	Instrument Version
ZCURVE	TABLE
	Pt	Time	Freq	Zreal	Zimag	Zsig	Zmod	Zphz	Idc	Vdc	IERange
	#	s	Hz	ohm	ohm	V	ohm	°	A	V	#
	0	1	1000078	1396.076	-2491.52	1	2855.994	-60.73674	-1.020509E-006	0.0828544	8
	1	3	794390.6	1783.385	-2869.23	1	3378.305	-58.13676	1.490896E-006	0.081826	8
	2	4	630984.4	2250.531	-3251.661	1	3954.515	-55.31221	2.490593E-007	0.0817926	8
	3	5	501234.4	2823.039	-3629.134	1	4597.843	-52.12129	-1.01431E-006	0.0819972	8
	4	7	398109.4	3463.812	-3955.943	1	5258.087	-48.79471	1.149712E-006	0.0816683	8
	5	8	316265.6	4143.417	-4224.535	1	5917.314	-45.5554	1.400487E-006	0.0814484	8
	6	9	251203.1	4914.656	-4442.352	1	6624.827	-42.11039	1.38098E-006	0.081485	8
	7	11	199546.9	5704.672	-4599.777	1	7328.113	-38.87984	7.955528E-007	0.0815913	8
	8	13	158578.1	6482.069	-4669.37	1	7988.757	-35.76716	1.314642E-006	0.0814871	8
	9	14	125953.1	7291.856	-4638.381	1	8642.091	-32.46061	1.534027E-007	0.0813461	7
	10	15	100078.1	8036.88	-4637.778	1	9279.032	-29.98761	6.029502E-008	0.0816493	7
	11	17	79453.13	8737.402	-4604.904	1	9876.61	-27.79074	-4.717129E-009	0.081761	7
	12	18	63140.62	9399.855	-4569.106	1	10451.51	-25.92358	3.942623E-008	0.081611	7
	13	19	50203.12	10034.88	-4553.409	1	11019.64	-24.40656	6.219543E-008	0.0816399	7
	14	21	39890.62	10647.78	-4556.525	1	11581.76	-23.16763	1.157572E-008	0.0817233	7
	15	22	31640.63	11239.2	-4585.25	1	12138.54	-22.19396	-2.93186E-008	0.0817464	7
	16	23	25171.88	11829.96	-4661.531	1	12715.26	-21.50665	1.072029E-008	0.0816975	7
	17	25	20015.62	12407.2	-4772.797	1	13293.54	-21.04073	-6.674892E-009	0.0816858	7
	18	26	15890.62	13006.6	-4944.116	1	13914.6	-20.81297	-1.044119E-008	0.0817161	7
	19	27	12609.37	13650.77	-5118.099	1	14578.7	-20.55259	-9.243284E-010	0.0816865	6
	20	29	10078.13	14255.93	-5394.502	1	15242.44	-20.72685	-5.521039E-010	0.0817433	6
	21	30	8015.625	14901.65	-5742.172	1	15969.71	-21.07357	-4.856859E-010	0.0817409	6
	22	31	6328.125	15612.77	-6175.858	1	16789.87	-21.582	-4.225567E-010	0.0817399	6
	23	33	5015.625	16354.25	-6686.903	1	17668.51	-22.2386	-1.254537E-009	0.0816849	6
	24	34	3984.375	17137.05	-7282.462	1	18620.23	-23.02327	6.170629E-009	0.0815689	6
	25	35	3170.956	17976.74	-7976.896	1	19667.08	-23.9285	3.956738E-010	0.0816653	6
	26	37	2527.573	18887.92	-8781.968	1	20829.71	-24.93614	-4.426654E-009	0.0817193	6
	27	38	1976.103	19958	-9796.74	1	22232.81	-26.14494	-3.898956E-010	0.0816813	6
	28	40	1577.524	21049.71	-10909.75	1	23708.92	-27.39704	3.43309E-009	0.0817178	6
	29	41	1265.625	22224.87	-12136.27	1	25322.59	-28.6375	-1.010916E-009	0.0816795	6
	30	42	998.264	23636.93	-13660.92	1	27300.64	-30.02568	5.601423E-009	0.0816488	6
	31	44	796.875	25140.54	-15370.5	1	29466.91	-31.4409	8.593438E-009	0.0815514	6
	32	45	627.7902	26930.74	-17428.5	1	32078.3	-32.90933	6.428023E-010	0.0817512	6
	33	46	505.5147	28751.97	-19584.29	1	34788.21	-34.26057	5.463154E-010	0.0817476	6
	34	48	397.9953	31054.32	-22298.24	1	38230.64	-35.67986	9.898136E-010	0.081713	6
	35	49	315.5048	33590.47	-25336.2	1	42074.26	-37.02607	4.434922E-010	0.0817131	6
	36	50	252.4038	36351.25	-28667.38	1	46295.06	-38.26007	9.972353E-010	0.081711	6
	37	52	198.6229	39713.16	-32736.94	1	51466.91	-39.49994	7.356783E-010	0.0817151	6
	38	53	158.3615	43328.77	-37135.89	1	57065.38	-40.59897	1.178007E-009	0.0817086	6
	39	54	125.558	47517.78	-42268.67	1	63597.01	-41.65417	7.128674E-010	0.08171	6
	40	56	100.4464	52003.07	-47961.05	1	70743.06	-42.68452	1.043041E-009	0.0817074	6
	41	57	79.00281	57412.27	-54713.43	1	79307.81	-43.62117	1.004542E-009	0.08171	6
	42	58	63.3446	63089.32	-62923.43	1	89104.55	-44.92457	8.77386E-010	0.0817083	6
	43	60	49.86702	69558.66	-70336.84	1	98922.6	-45.31871	5.008485E-010	0.0817014	5
	44	61	39.72458	77374.42	-80580.28	1	111713.8	-46.16272	6.889891E-011	0.0817121	5
	45	63	31.6723	85100.82	-91598.64	1	125029.8	-47.10601	1.679226E-010	0.0817047	5
	46	64	24.93351	94326.93	-106108.1	1	141973.6	-48.36385	2.858569E-010	0.081705	5
	47	65	19.86229	103867.6	-122182.3	1	160365.2	-49.63203	4.801852E-010	0.0817085	5
	48	67	15.83615	115434.4	-141938.3	1	182952.4	-50.87952	-8.427538E-010	0.081703	5
	49	68	12.40079	128245.4	-165166.7	1	209109.9	-52.17208	-4.302773E-010	0.0817034	5
	50	70	9.93114	142621.2	-192250.4	1	239376.3	-53.43008	-1.607607E-010	0.0817034	5
	51	71	7.944915	159457.5	-223367.6	1	274444.5	-54.47774	5.059938E-010	0.0816959	5
	52	73	6.317385	179953.1	-261554.8	1	317480.7	-55.47152	3.706649E-010	0.0816964	5
	53	75	5.008013	205383.2	-307411.2	1	369707.8	-56.25288	1.544668E-010	0.081701	5
	54	77	3.945707	236173.8	-361230.3	1	431584.7	-56.82317	-2.306142E-011	0.0816943	5
	55	80	3.158693	271131.7	-419377.8	1	499389.7	-57.11695	1.662058E-010	0.081697	5
	56	83	2.504006	312659.7	-488503.2	1	579992.7	-57.37929	7.619157E-011	0.0817122	5
	57	86	1.998082	358525.2	-565128.4	1	669261.1	-57.6084	2.027479E-010	0.0816784	5
	58	89	1.584686	413126.4	-658136.8	1	777056.9	-57.88264	8.217024E-011	0.0816576	5
	59	93	1.266892	470907.8	-759991.1	1	894058.4	-58.2167	1.865861E-010	0.0816835	5
	60	97	0.999041	528144.4	-896887.3	1	1040838	-59.50771	1.213117E-010	0.0816497	4
