EXPLAIN
TAG	EISPOT
TITLE	LABEL	Potentiostatic EIS	Test &Identifier
DATE	LABEL	2/13/2020	Date
TIME	LABEL	10:39:43	Time
NOTES	NOTES	1	&Notes...
	
PSTAT	PSTAT	REF600-11020	Potentiostat
VDC	POTEN	0.00000E+000	T	DC &Voltage (V)
FREQINIT	QUANT	1.00000E+006	Initial Fre&q. (Hz)
FREQFINAL	QUANT	1.00000E+000	Final Fre&q. (Hz)
PTSPERDEC	QUANT	1.00000E+001	Points/&decade
VAC	QUANT	2.50000E+001	AC &Voltage (mV rms)
AREA	QUANT	5.00000E-004	&Area (cm^2)
CONDIT	TWOPARAM	F	1.50000E+001	0.00000E+000	Conditionin&g	Time(s)	E(V)
DELAY	TWOPARAM	F	1.00000E+002	0.00000E+000	Init. De&lay	Time(s)	Stab.(mV/s)
SPEED	SELECTOR	0	&Optimize for:
ZGUESS	QUANT	1.00000E+003	E&stimated Z (ohms)
OCVCURVE	TABLE	39
	Pt	T	Vf	Vm	Ach	Over
	#	s	V vs. Ref.	V	V	bits
	0	0.258333	-1.54352E-002	-1.54352E-002	5.70704E-004	...........
	1	0.516667	-1.54386E-002	-1.56138E-002	5.67138E-004	...........
	2	0.775	-1.54596E-002	-1.57850E-002	5.70504E-004	...........
	3	1.03333	-1.55192E-002	-1.59537E-002	5.74204E-004	...........
	4	1.29167	-1.56263E-002	-1.61125E-002	5.73904E-004	...........
	5	1.55	-1.57700E-002	-1.62828E-002	5.73704E-004	...........
	6	1.80833	-1.59303E-002	-1.63595E-002	5.71604E-004	...........
	7	2.06667	-1.60886E-002	-1.64973E-002	5.68171E-004	...........
	8	2.325	-1.62332E-002	-1.66052E-002	5.71004E-004	...........
	9	2.58333	-1.63634E-002	-1.67547E-002	5.71704E-004	...........
	10	2.84167	-1.64866E-002	-1.68566E-002	5.73104E-004	...........
	11	3.1	-1.66088E-002	-1.69910E-002	5.71704E-004	...........
	12	3.35833	-1.67319E-002	-1.71230E-002	5.72804E-004	...........
	13	3.61667	-1.68557E-002	-1.72094E-002	5.69171E-004	...........
	14	3.875	-1.69773E-002	-1.72948E-002	5.70804E-004	...........
	15	4.13333	-1.70913E-002	-1.73777E-002	5.68404E-004	...........
	16	4.39167	-1.71937E-002	-1.74531E-002	5.67638E-004	...........
	17	4.65	-1.72852E-002	-1.75398E-002	5.66838E-004	...........
	18	4.90833	-1.73698E-002	-1.76214E-002	5.67704E-004	...........
	19	5.16667	-1.74512E-002	-1.76858E-002	5.66071E-004	...........
	20	5.425	-1.75307E-002	-1.77538E-002	5.69038E-004	...........
	21	5.68333	-1.76073E-002	-1.78375E-002	5.67771E-004	...........
	22	5.94167	-1.76813E-002	-1.79066E-002	5.68071E-004	...........
	23	6.2	-1.77545E-002	-1.79787E-002	5.63804E-004	...........
	24	6.45833	-1.78273E-002	-1.80294E-002	5.66004E-004	...........
	25	6.71667	-1.78961E-002	-1.79963E-002	5.66204E-004	...........
	26	6.975	-1.79537E-002	-1.80830E-002	5.67871E-004	...........
	27	7.23333	-1.79979E-002	-1.81418E-002	5.66904E-004	...........
	28	7.49167	-1.80385E-002	-1.82470E-002	5.70204E-004	...........
	29	7.75	-1.80881E-002	-1.82817E-002	5.68204E-004	...........
	30	8.00833	-1.81497E-002	-1.83593E-002	5.68904E-004	...........
	31	8.26667	-1.82173E-002	-1.84242E-002	5.68971E-004	...........
	32	8.525	-1.82851E-002	-1.84811E-002	5.69571E-004	...........
	33	8.78333	-1.83510E-002	-1.85316E-002	5.66604E-004	...........
	34	9.04167	-1.84133E-002	-1.85637E-002	5.66771E-004	...........
	35	9.3	-1.84698E-002	-1.86100E-002	5.70004E-004	...........
	36	9.5583	-1.85196E-002	-1.86505E-002	5.68138E-004	...........
	37	9.8167	-1.85642E-002	-1.86868E-002	5.66538E-004	...........
	38	10.075	-1.86057E-002	-1.87275E-002	5.67671E-004	...........
EOC	QUANT	-0.0186057	Open Circuit (V)
PSTATMODEL	IQUANT	4	Pstat Model
PSTATSECTION	LABEL	REF600-11020	Pstat Section
PSTATSERIALNO	LABEL	11020	Pstat Serial Number
CTRLMODE	IQUANT	1	Control Mode
IESTAB	IQUANT	0	I/E Stability
CASPEED	IQUANT	1	Control Amp Speed
CONVENTION	IQUANT	1	Current Convention
ICHRANGE	IQUANT	2	Ich Range
ICHRANGEMODE	TOGGLE	F	Ich Auto Range
ICHOFFSETENABLE	TOGGLE	T	Ich Offset Enable
ICHOFFSET	QUANT	0	Ich Offset (V)
ICHFILTER	IQUANT	3	Ich Filter
VCHRANGE	IQUANT	2	Vch Range
VCHRANGEMODE	TOGGLE	F	Vch Auto Range
VCHOFFSETENABLE	TOGGLE	T	Vch Offset Enable
VCHOFFSET	QUANT	0	Vch Offset (V)
VCHFILTER	IQUANT	3	Vch Filter
ACHRANGE	IQUANT	2	Ach Range
ACHOFFSETENABLE	TOGGLE	F	Ach Offset Enable
ACHOFFSET	QUANT	0	Ach Offset (V)
ACHFILTER	IQUANT	3	Ach Filter
IERANGELOWERLIMIT	IQUANT	1	I/E Range Lower Limit
IERANGEMODE	TOGGLE	F	I/E AutoRange
IERANGE	IQUANT	7	I/E Range
POSFEEDENABLE	TOGGLE	F	Positive Feedback IR Comp
POSFEEDRESISTANCE	QUANT	0	Positive Feedback Resistance (ohm)
ACHSELECT	IQUANT	0	Ach Select
CABLEID	IQUANT	14	Cable ID
DCCALDATE	LABEL	1/27/2020	DC Calibration Date
ACCALDATE	LABEL	1/27/2020	AC Calibration Date
THERMOSELECT	IQUANT	1	Thermo Select
FRAMEWORKVERSION	QUANT	6.33	Framework Version
INSTRUMENTVERSION	LABEL	3.50	Instrument Version
ZCURVE	TABLE
	Pt	Time	Freq	Zreal	Zimag	Zsig	Zmod	Zphz	Idc	Vdc	IERange
	#	s	Hz	ohm	ohm	V	ohm	°	A	V	#
	0	1	1000078	1308.333	-2439.611	1	2768.292	-61.79589	-1.693627E-006	-0.0160334	8
	1	1	794390.6	1478.971	-2876.063	1	3234.053	-62.78621	2.686728E-006	-0.0168228	8
	2	1	630984.4	1689.45	-3395.886	1	3792.925	-63.54969	-1.807318E-006	-0.0164966	8
	3	2	501234.4	1912.745	-4040.619	1	4470.48	-64.66811	-1.334789E-006	-0.0165687	8
	4	2	398109.4	2154.473	-4806.367	1	5267.155	-65.8555	-7.90955E-007	-0.0167364	8
	5	2	316265.6	2485.054	-5752.767	1	6266.564	-66.63684	-6.371254E-007	-0.0168452	8
	6	3	251203.1	2834.565	-6913.833	1	7472.338	-67.70712	2.705063E-006	-0.0175014	8
	7	3	199546.9	3281.267	-8398.984	1	9017.187	-68.66069	2.740135E-006	-0.0174996	8
	8	4	158578.1	3925.643	-10054.97	1	10794.13	-68.67343	-6.304739E-007	-0.0168211	8
	9	4	125953.1	4733.372	-12092.85	1	12986.22	-68.62368	-5.205648E-007	-0.0157451	7
	10	5	100078.1	5739.002	-14623.57	1	15709.39	-68.57253	-4.512279E-008	-0.0169335	7
	11	5	79453.13	7021.97	-17633.24	1	18979.97	-68.28639	-2.855429E-008	-0.0169062	7
	12	5	63140.62	8786.283	-21178.92	1	22929.14	-67.4684	-4.604151E-008	-0.0169408	7
	13	6	50203.12	11089.45	-25317.67	1	27639.83	-66.34599	-1.139023E-008	-0.0169154	7
	14	6	39890.62	14218.41	-29983.01	1	33183.5	-64.62897	4.349303E-008	-0.0171189	7
	15	6	31640.63	18226.57	-35203.3	1	39641.9	-62.62706	1.902203E-008	-0.0170233	7
	16	7	25171.88	23131.51	-40639.04	1	46761.07	-60.35171	3.687994E-008	-0.0169822	7
	17	7	20015.62	29280.17	-46254.62	1	54743.2	-57.66531	2.020501E-008	-0.0170238	7
	18	7	15890.62	36343.19	-51811.12	1	63286.8	-54.95205	3.765161E-008	-0.016979	7
	19	8	12609.37	44734.69	-56993.79	1	72453.33	-51.87147	8.918001E-009	-0.0170392	6
	20	8	10078.13	53286.83	-62127.41	1	81849.26	-49.38023	9.368992E-009	-0.0170952	6
	21	8	8015.625	62643.71	-67351.4	1	91980.68	-47.07402	-8.703093E-010	-0.0170296	6
	22	9	6328.125	72914.87	-73344.98	1	103421.8	-45.16849	2.779528E-009	-0.0169428	6
	23	9	5015.625	84054.66	-79389.34	1	115619.4	-43.365	1.187522E-008	-0.0171891	6
	24	9	3984.375	96263.5	-85315.2	1	128628.7	-41.54953	-5.092508E-010	-0.0170344	6
	25	10	3170.956	110138.4	-92315.42	1	143710.1	-39.96895	9.005087E-009	-0.0170981	6
	26	10	2527.573	125491.6	-97330.6	1	158812.4	-37.79696	5.720731E-010	-0.0170819	6
	27	10	1976.103	143975.4	-102548	1	176762.6	-35.46077	-1.002671E-009	-0.0170404	6
	28	10	1577.524	163102	-105002.7	1	193978.9	-32.77284	-1.146689E-009	-0.0170858	6
	29	11	1265.625	182406.3	-103599.9	1	209773.7	-29.59494	-1.005161E-010	-0.0170046	5
	30	11	998.264	201284.6	-102842.3	1	226035.4	-27.06384	-4.005367E-010	-0.0168787	5
	31	11	796.875	218078.9	-100474.4	1	240111.4	-24.73669	6.787334E-010	-0.01696	5
	32	12	627.7902	234309.5	-96724.4	1	253488.8	-22.43113	6.567084E-010	-0.0169813	5
	33	12	505.5147	247432.8	-93311.53	1	264442.9	-20.6624	1.243693E-009	-0.0171289	5
	34	12	397.9953	260304.9	-89106.05	1	275133.6	-18.8968	4.106678E-010	-0.017	5
	35	13	315.5048	271817.3	-86091.65	1	285125.3	-17.57436	7.588632E-010	-0.0169995	5
	36	13	252.4038	282092.7	-84659.91	1	294522.6	-16.70523	7.430307E-010	-0.0170037	5
	37	13	198.6229	292152.3	-83657.37	1	303894	-15.97898	1.980691E-010	-0.0170011	5
	38	14	158.3615	301110.3	-83448.55	1	312459.7	-15.48998	-8.692446E-011	-0.0170056	5
	39	14	125.558	312140.8	-85659.66	1	323681.2	-15.34569	-3.311543E-011	-0.017003	5
	40	14	100.4464	323261.6	-90873.61	1	335791.7	-15.70146	7.877512E-010	-0.0170066	5
	41	15	79.00281	332152.6	-98870.1	1	346555.4	-16.57641	4.122833E-010	-0.0170119	5
	42	15	63.3446	337040.2	-77818.48	1	345907.3	-13.00107	1.294501E-010	-0.0170083	5
	43	15	49.86702	355625.2	-93503.87	1	367712.2	-14.73125	7.587754E-011	-0.0170098	5
	44	16	39.72458	369051	-111511.7	1	385530.1	-16.81261	8.706942E-011	-0.0170053	5
	45	16	31.6723	386900	-122056.9	1	405696.3	-17.50913	1.031118E-011	-0.017008	5
	46	16	24.93351	404106.1	-127416	1	423717.6	-17.50024	1.543883E-010	-0.0170079	5
	47	17	19.86229	421167.2	-135603.9	1	442459.3	-17.84709	-4.688696E-010	-0.0170051	5
	48	17	15.83615	434119.6	-146171.2	1	458067.5	-18.60876	1.045132E-009	-0.0170051	5
	49	17	12.40079	448856	-157266.8	1	475609.7	-19.30905	-1.441588E-009	-0.0169983	5
	50	18	9.93114	477621.4	-171605.7	1	507514.3	-19.76298	5.396641E-010	-0.0170098	5
	51	18	7.944915	494482.3	-187406.5	1	528804.3	-20.75648	1.393528E-009	-0.017017	5
	52	19	6.317385	516249.6	-202342	1	554487.1	-21.4025	1.050528E-009	-0.0170252	5
	53	20	5.008013	538792.6	-222146.3	1	582791.9	-22.40655	5.497052E-010	-0.0170076	5
	54	21	3.945707	564762.1	-245253.9	1	615715.6	-23.47341	1.775604E-010	-0.0170021	5
	55	22	3.158693	593333.8	-273620.9	1	653386.1	-24.75719	9.12276E-010	-0.0170216	6
	56	24	2.504006	621800.2	-306035.9	1	693032.1	-26.20536	4.437777E-010	-0.0170192	5
	57	25	1.998082	650360.6	-342063.4	1	734830.8	-27.74256	1.151398E-010	-0.0170615	5
	58	27	1.584686	685603.6	-387783.2	1	787672.6	-29.49287	2.245505E-011	-0.0170587	5
	59	29	1.266892	722024.8	-440532.2	1	845806.4	-31.38881	9.856307E-011	-0.0170223	5
	60	31	0.999041	761745.6	-504709.6	1	913776.9	-33.52725	1.688626E-010	-0.0169973	5
