EXPLAIN
TAG	EISPOT
TITLE	LABEL	Potentiostatic EIS	Test &Identifier
DATE	LABEL	6/1/2020	Date
TIME	LABEL	13:24:25	Time
NOTES	NOTES	1	&Notes...
	
PSTAT	PSTAT	REF600-11020	Potentiostat
VDC	POTEN	0.00000E+000	T	DC &Voltage (V)
FREQINIT	QUANT	1.00000E+006	Initial Fre&q. (Hz)
FREQFINAL	QUANT	1.00000E+000	Final Fre&q. (Hz)
PTSPERDEC	QUANT	1.00000E+001	Points/&decade
VAC	QUANT	2.50000E+001	AC &Voltage (mV rms)
AREA	QUANT	4.00000E-004	&Area (cm^2)
CONDIT	TWOPARAM	F	5.00000E+000	0.00000E+000	Conditionin&g	Time(s)	E(V)
DELAY	TWOPARAM	T	3.00000E+000	0.00000E+000	Init. De&lay	Time(s)	Stab.(mV/s)
SPEED	SELECTOR	0	&Optimize for:
ZGUESS	QUANT	1.00000E+003	E&stimated Z (ohms)
OCVCURVE	TABLE	12
	Pt	T	Vf	Vm	Ach	Over
	#	s	V vs. Ref.	V	V	bits
	0	0.258333	-8.93720E-002	-8.93720E-002	5.64363E-004	...........
	1	0.516667	-8.93714E-002	-8.93424E-002	5.64197E-004	...........
	2	0.775	-8.93680E-002	-8.93198E-002	5.62597E-004	...........
	3	1.03333	-8.93590E-002	-8.93060E-002	5.63397E-004	...........
	4	1.29167	-8.93443E-002	-8.92961E-002	5.57730E-004	...........
	5	1.55	-8.93272E-002	-8.92887E-002	5.64997E-004	...........
	6	1.80833	-8.93117E-002	-8.92837E-002	5.64563E-004	...........
	7	2.06667	-8.92996E-002	-8.92785E-002	5.63397E-004	...........
	8	2.325	-8.92909E-002	-8.92785E-002	5.61630E-004	...........
	9	2.58333	-8.92849E-002	-8.92788E-002	5.60230E-004	...........
	10	2.84167	-8.92811E-002	-8.92782E-002	5.64230E-004	...........
	11	3.1	-8.92792E-002	-8.92799E-002	5.63164E-004	...........
EOC	QUANT	-0.0892792	Open Circuit (V)
PSTATMODEL	IQUANT	4	Pstat Model
PSTATSECTION	LABEL	REF600-11020	Pstat Section
PSTATSERIALNO	LABEL	11020	Pstat Serial Number
CTRLMODE	IQUANT	1	Control Mode
IESTAB	IQUANT	0	I/E Stability
CASPEED	IQUANT	1	Control Amp Speed
CONVENTION	IQUANT	1	Current Convention
ICHRANGE	IQUANT	2	Ich Range
ICHRANGEMODE	TOGGLE	F	Ich Auto Range
ICHOFFSETENABLE	TOGGLE	T	Ich Offset Enable
ICHOFFSET	QUANT	0	Ich Offset (V)
ICHFILTER	IQUANT	3	Ich Filter
VCHRANGE	IQUANT	2	Vch Range
VCHRANGEMODE	TOGGLE	F	Vch Auto Range
VCHOFFSETENABLE	TOGGLE	T	Vch Offset Enable
VCHOFFSET	QUANT	0	Vch Offset (V)
VCHFILTER	IQUANT	3	Vch Filter
ACHRANGE	IQUANT	2	Ach Range
ACHOFFSETENABLE	TOGGLE	F	Ach Offset Enable
ACHOFFSET	QUANT	0	Ach Offset (V)
ACHFILTER	IQUANT	3	Ach Filter
IERANGELOWERLIMIT	IQUANT	1	I/E Range Lower Limit
IERANGEMODE	TOGGLE	F	I/E AutoRange
IERANGE	IQUANT	8	I/E Range
POSFEEDENABLE	TOGGLE	F	Positive Feedback IR Comp
POSFEEDRESISTANCE	QUANT	0	Positive Feedback Resistance (ohm)
ACHSELECT	IQUANT	0	Ach Select
CABLEID	IQUANT	14	Cable ID
DCCALDATE	LABEL	2/27/2020	DC Calibration Date
ACCALDATE	LABEL	2/27/2020	AC Calibration Date
THERMOSELECT	IQUANT	1	Thermo Select
FRAMEWORKVERSION	QUANT	6.33	Framework Version
INSTRUMENTVERSION	LABEL	3.50	Instrument Version
ZCURVE	TABLE
	Pt	Time	Freq	Zreal	Zimag	Zsig	Zmod	Zphz	Idc	Vdc	IERange
	#	s	Hz	ohm	ohm	V	ohm	°	A	V	#
	0	1	1000078	1712.871	-1807.706	1	2490.327	-46.54302	4.740897E-008	-0.0868802	8
	1	2	794390.6	2031.759	-1958.088	1	2821.729	-43.94217	5.620249E-008	-0.0872108	8
	2	2	630984.4	2384.855	-2079.121	1	3163.902	-41.08198	3.935261E-008	-0.0873445	8
	3	2	501234.4	2755.854	-2169.838	1	3507.553	-38.21533	5.62321E-008	-0.0874707	8
	4	3	398109.4	3136.267	-2222.3	1	3843.799	-35.32067	3.026864E-008	-0.0875271	8
	5	3	316265.6	3518.871	-2247.08	1	4175.144	-32.56149	5.791629E-008	-0.0875527	8
	6	3	251203.1	3883.577	-2245.238	1	4485.896	-30.03378	6.305888E-008	-0.0875442	8
	7	4	199546.9	4235.354	-2224.56	1	4784.024	-27.71007	6.378546E-008	-0.0875583	8
	8	4	158578.1	4573.017	-2198.269	1	5073.94	-25.6738	4.966824E-008	-0.0875595	8
	9	4	125953.1	4947.863	-2089.485	1	5370.968	-22.89436	3.604545E-009	-0.0876168	7
	10	5	100078.1	5214.333	-2073.403	1	5611.44	-21.68451	1.332535E-009	-0.0876402	7
	11	5	79453.13	5487.556	-2086.691	1	5870.907	-20.81975	2.44051E-009	-0.0876393	7
	12	5	63140.62	5750.719	-2114.659	1	6127.198	-20.18953	1.904482E-009	-0.087642	7
	13	6	50203.12	6010.103	-2163.63	1	6387.693	-19.79882	1.788176E-009	-0.0876545	7
	14	6	39890.62	6272.676	-2240.362	1	6660.757	-19.6548	3.066785E-009	-0.0876462	7
	15	6	31640.63	6541.042	-2343.329	1	6948.124	-19.71007	2.651879E-009	-0.087657	7
	16	7	25171.88	6816.811	-2477.062	1	7252.913	-19.9699	2.573112E-009	-0.0876547	7
	17	7	20015.62	7106.144	-2644.877	1	7582.391	-20.41505	2.586711E-009	-0.087662	7
	18	7	15890.62	7416.674	-2851.266	1	7945.865	-21.02876	2.279009E-009	-0.0876556	7
	19	7	12609.37	7749.978	-3099.891	1	8346.944	-21.80077	3.072715E-009	-0.087657	7
	20	8	10078.13	8101.166	-3388.531	1	8781.288	-22.69843	3.372456E-009	-0.0876533	7
	21	8	8015.625	8546	-3636.475	1	9287.522	-23.05062	3.645639E-010	-0.0876031	6
	22	8	6328.125	8981.713	-4065.549	1	9859	-24.35376	4.350339E-010	-0.0876007	6
	23	9	5015.625	9458.782	-4550.831	1	10496.6	-25.69324	3.068968E-010	-0.0876023	6
	24	9	3984.375	9993.5	-5102.313	1	11220.68	-27.04717	4.053453E-010	-0.087606	6
	25	9	3170.956	10591.87	-5721.191	1	12038.26	-28.37566	-3.423996E-010	-0.0876166	6
	26	10	2527.573	11255.76	-6407.499	1	12951.76	-29.6513	3.140788E-010	-0.0876187	6
	27	10	1976.103	12060.63	-7244.235	1	14069.04	-30.9912	3.409995E-012	-0.0876096	6
	28	10	1577.524	12871.35	-8101.751	1	15208.88	-32.18799	5.310138E-011	-0.0876098	6
	29	11	1265.625	13719.66	-9048.904	1	16435.08	-33.40714	5.059677E-010	-0.0876065	6
	30	11	998.264	14694.72	-10208.09	1	17892.45	-34.78683	-4.409107E-012	-0.0876142	6
	31	11	796.875	15671.78	-11516.97	1	19448.53	-36.31166	1.409171E-010	-0.0876167	6
	32	12	627.7902	16761.33	-13160.61	1	21310.65	-38.13817	4.60051E-010	-0.0876124	6
	33	12	505.5147	17810.4	-14970.64	1	23266.51	-40.04894	6.908174E-010	-0.087614	6
	34	12	397.9953	19088.65	-17403.17	1	25831.12	-42.35551	3.961965E-010	-0.0875973	6
	35	13	315.5048	20494.11	-20302.47	1	28847.86	-44.73087	3.693321E-010	-0.0875992	6
	36	13	252.4038	22056.27	-23675.62	1	32357.59	-47.02797	4.192592E-010	-0.0876003	6
	37	13	198.6229	24039.68	-28051.09	1	36942.79	-49.40354	3.991349E-010	-0.0876001	6
	38	14	158.3615	26282.67	-33011.29	1	42196.26	-51.47418	3.171731E-010	-0.0876037	6
	39	14	125.558	29037.75	-39063.47	1	48673.88	-53.37481	3.302152E-010	-0.0876031	6
	40	14	100.4464	32204.88	-45948.04	1	56110.39	-54.97347	3.618051E-010	-0.0876059	6
	41	15	79.00281	36294.06	-54724.8	1	65666.3	-56.44724	3.717027E-010	-0.0876085	6
	42	15	63.3446	40791.16	-64252.7	1	76107.34	-57.59037	3.560299E-010	-0.0876105	6
	43	15	49.86702	46649.82	-76465.71	1	89572.38	-58.61368	2.822625E-010	-0.0876124	6
	44	16	39.72458	53403.7	-90077.01	1	104717.8	-59.33769	1.012687E-010	-0.0876037	5
	45	16	31.6723	61475.22	-106114.3	1	122635.4	-59.91499	-1.682421E-011	-0.0876049	5
	46	16	24.93351	71828.47	-125976.2	1	145014.9	-60.30929	1.255835E-010	-0.0875999	5
	47	17	19.86229	83717.23	-147989.6	1	170027.9	-60.5033	6.581963E-010	-0.0875962	5
	48	17	15.83615	98182.6	-173578.9	1	199422.9	-60.5059	-2.69182E-010	-0.0876089	5
	49	17	12.40079	117118.9	-205157.3	1	236233.6	-60.27909	3.405806E-010	-0.0876041	5
	50	17	9.93114	137524.6	-238474.7	1	275287.4	-60.02863	1.564587E-010	-0.0875967	5
	51	18	7.944915	161652.7	-276304.5	1	320118.3	-59.67012	-4.340319E-010	-0.0876019	5
	52	18	6.317385	191221.6	-321391.2	1	373975.9	-59.24817	2.446653E-010	-0.0876202	5
	53	19	5.008013	226750.3	-373990.3	1	437360.8	-58.77157	3.339829E-010	-0.0876036	5
	54	20	3.945707	270305.9	-435137.8	1	512259.9	-58.15161	5.373502E-011	-0.0876126	5
	55	21	3.158693	319150.5	-500912.8	1	593944.9	-57.49724	2.571885E-010	-0.0876035	5
	56	22	2.504006	379142.7	-577224.1	1	690606.2	-56.70157	1.801488E-010	-0.0876042	5
	57	23	1.998082	448795.1	-660741	1	798746.4	-55.81448	5.950205E-011	-0.087646	5
	58	25	1.584686	531898.8	-753565.8	1	922376.1	-54.78393	1.302933E-010	-0.0876066	5
	59	27	1.266892	630228.1	-852797.6	1	1060402	-53.53513	1.497141E-010	-0.087584	4
	60	29	0.999041	749186.6	-967860	1	1223942	-52.25779	1.901155E-010	-0.0875782	4
