EXPLAIN
TAG	EISPOT
TITLE	LABEL	Potentiostatic EIS	Test &Identifier
DATE	LABEL	2/6/2020	Date
TIME	LABEL	17:31:24	Time
NOTES	NOTES	6	&Notes...
	
	
	
	
	
	
PSTAT	PSTAT	REF600-11020	Potentiostat
VDC	POTEN	0.00000E+000	T	DC &Voltage (V)
FREQINIT	QUANT	1.00000E+006	Initial Fre&q. (Hz)
FREQFINAL	QUANT	1.00000E+000	Final Fre&q. (Hz)
PTSPERDEC	QUANT	1.00000E+001	Points/&decade
VAC	QUANT	2.50000E+001	AC &Voltage (mV rms)
AREA	QUANT	1.60000E-004	&Area (cm^2)
CONDIT	TWOPARAM	F	5.00000E+000	0.00000E+000	Conditionin&g	Time(s)	E(V)
DELAY	TWOPARAM	F	5.00000E+000	0.00000E+000	Init. De&lay	Time(s)	Stab.(mV/s)
SPEED	SELECTOR	0	&Optimize for:
ZGUESS	QUANT	1.00000E+003	E&stimated Z (ohms)
OCVCURVE	TABLE	39
	Pt	T	Vf	Vm	Ach	Over
	#	s	V vs. Ref.	V	V	bits
	0	0.258333	-1.31373E-002	-1.31373E-002	5.65171E-004	...........
	1	0.516667	-1.31370E-002	-1.31211E-002	5.67704E-004	...........
	2	0.775	-1.31348E-002	-1.30907E-002	5.69004E-004	...........
	3	1.03333	-1.31280E-002	-1.30759E-002	5.63138E-004	...........
	4	1.29167	-1.31157E-002	-1.30976E-002	5.65638E-004	...........
	5	1.55	-1.31017E-002	-1.30527E-002	5.69538E-004	...........
	6	1.80833	-1.30891E-002	-1.30503E-002	5.66904E-004	...........
	7	2.06667	-1.30769E-002	-1.30310E-002	5.67671E-004	...........
	8	2.325	-1.30636E-002	-1.30333E-002	5.67971E-004	...........
	9	2.58333	-1.30502E-002	-1.30033E-002	5.62504E-004	...........
	10	2.84167	-1.30375E-002	-1.30070E-002	5.67304E-004	...........
	11	3.1	-1.30257E-002	-1.30085E-002	5.64904E-004	...........
	12	3.35833	-1.30164E-002	-1.30186E-002	5.69304E-004	...........
	13	3.61667	-1.30112E-002	-1.29956E-002	5.70338E-004	...........
	14	3.875	-1.30090E-002	-1.30028E-002	5.69438E-004	...........
	15	4.13333	-1.30070E-002	-1.29957E-002	5.69171E-004	...........
	16	4.39167	-1.30031E-002	-1.29488E-002	5.71838E-004	...........
	17	4.65	-1.29961E-002	-1.29945E-002	5.66704E-004	...........
	18	4.90833	-1.29873E-002	-1.29748E-002	5.65371E-004	...........
	19	5.16667	-1.29812E-002	-1.29962E-002	5.61438E-004	...........
	20	5.425	-1.29807E-002	-1.30081E-002	5.61804E-004	...........
	21	5.68333	-1.29853E-002	-1.30008E-002	5.63038E-004	...........
	22	5.94167	-1.29926E-002	-1.30184E-002	5.67138E-004	...........
	23	6.2	-1.29999E-002	-1.30073E-002	5.65471E-004	...........
	24	6.45833	-1.30060E-002	-1.30242E-002	5.68571E-004	...........
	25	6.71667	-1.30104E-002	-1.30061E-002	5.65004E-004	...........
	26	6.975	-1.30133E-002	-1.30259E-002	5.69571E-004	...........
	27	7.23333	-1.30152E-002	-1.30193E-002	5.64504E-004	...........
	28	7.49167	-1.30173E-002	-1.30403E-002	5.67438E-004	...........
	29	7.75	-1.30204E-002	-1.30100E-002	5.69304E-004	...........
	30	8.00833	-1.30234E-002	-1.30325E-002	5.66271E-004	...........
	31	8.26667	-1.30248E-002	-1.30196E-002	5.64138E-004	...........
	32	8.525	-1.30244E-002	-1.30115E-002	5.67104E-004	...........
	33	8.78333	-1.30230E-002	-1.30279E-002	5.70371E-004	...........
	34	9.04167	-1.30215E-002	-1.30329E-002	5.72504E-004	...........
	35	9.3	-1.30211E-002	-1.29877E-002	5.68771E-004	...........
	36	9.5583	-1.30202E-002	-1.30199E-002	5.67138E-004	...........
	37	9.8167	-1.30176E-002	-1.30439E-002	5.67004E-004	...........
	38	10.075	-1.30177E-002	-1.30709E-002	5.65471E-004	...........
EOC	QUANT	-0.0130177	Open Circuit (V)
PSTATMODEL	IQUANT	4	Pstat Model
PSTATSECTION	LABEL	REF600-11020	Pstat Section
PSTATSERIALNO	LABEL	11020	Pstat Serial Number
CTRLMODE	IQUANT	1	Control Mode
IESTAB	IQUANT	0	I/E Stability
CASPEED	IQUANT	1	Control Amp Speed
CONVENTION	IQUANT	1	Current Convention
ICHRANGE	IQUANT	2	Ich Range
ICHRANGEMODE	TOGGLE	F	Ich Auto Range
ICHOFFSETENABLE	TOGGLE	T	Ich Offset Enable
ICHOFFSET	QUANT	0	Ich Offset (V)
ICHFILTER	IQUANT	3	Ich Filter
VCHRANGE	IQUANT	2	Vch Range
VCHRANGEMODE	TOGGLE	F	Vch Auto Range
VCHOFFSETENABLE	TOGGLE	T	Vch Offset Enable
VCHOFFSET	QUANT	0	Vch Offset (V)
VCHFILTER	IQUANT	3	Vch Filter
ACHRANGE	IQUANT	2	Ach Range
ACHOFFSETENABLE	TOGGLE	F	Ach Offset Enable
ACHOFFSET	QUANT	0	Ach Offset (V)
ACHFILTER	IQUANT	3	Ach Filter
IERANGELOWERLIMIT	IQUANT	1	I/E Range Lower Limit
IERANGEMODE	TOGGLE	F	I/E AutoRange
IERANGE	IQUANT	7	I/E Range
POSFEEDENABLE	TOGGLE	F	Positive Feedback IR Comp
POSFEEDRESISTANCE	QUANT	0	Positive Feedback Resistance (ohm)
ACHSELECT	IQUANT	0	Ach Select
CABLEID	IQUANT	14	Cable ID
DCCALDATE	LABEL	1/27/2020	DC Calibration Date
ACCALDATE	LABEL	1/27/2020	AC Calibration Date
THERMOSELECT	IQUANT	1	Thermo Select
FRAMEWORKVERSION	QUANT	6.33	Framework Version
INSTRUMENTVERSION	LABEL	3.50	Instrument Version
ZCURVE	TABLE
	Pt	Time	Freq	Zreal	Zimag	Zsig	Zmod	Zphz	Idc	Vdc	IERange
	#	s	Hz	ohm	ohm	V	ohm	°	A	V	#
	0	1	1000078	1563.784	-2550.322	1	2991.582	-58.48458	-8.320911E-007	-0.0104029	8
	1	2	794390.6	1782.532	-2958.895	1	3454.342	-58.93391	7.111903E-007	-0.011162	8
	2	2	630984.4	1962.13	-3469.48	1	3985.88	-60.51011	-1.306615E-006	-0.011044	8
	3	2	501234.4	2213.232	-4101.101	1	4660.196	-61.64569	1.706756E-006	-0.0115921	8
	4	3	398109.4	2459.085	-4905.235	1	5487.115	-63.37455	-1.355206E-006	-0.011115	8
	5	3	316265.6	2779.818	-5761.384	1	6396.948	-64.2431	-1.08917E-006	-0.0111571	8
	6	3	251203.1	3129.433	-6927.017	1	7601.113	-65.68787	-3.407848E-007	-0.0113499	8
	7	4	199546.9	3566.63	-8391.104	1	9117.646	-66.97214	1.983489E-006	-0.0118057	8
	8	4	158578.1	4068.86	-10047.12	1	10839.75	-67.95315	1.403903E-006	-0.0117005	8
	9	5	125953.1	4863.207	-12190.59	1	13124.84	-68.2514	-1.297242E-007	-0.0114884	7
	10	5	100078.1	5801.154	-14913.08	1	16001.67	-68.74408	2.824834E-009	-0.0114507	7
	11	5	79453.13	6909.582	-18037.66	1	19315.78	-69.03995	-2.925141E-008	-0.011473	7
	12	6	63140.62	8467.213	-21799.94	1	23386.55	-68.77356	-2.864352E-008	-0.011477	7
	13	6	50203.12	10583.01	-26223.42	1	28278.4	-68.02242	-4.328676E-008	-0.0114553	7
	14	6	39890.62	13305.31	-31468.43	1	34165.67	-67.08064	1.237576E-007	-0.0116639	7
	15	7	31640.63	17013.27	-37322.12	1	41016.97	-65.49415	3.860955E-008	-0.0115384	7
	16	7	25171.88	21698.52	-43587.95	1	48690.2	-63.53542	-2.640713E-008	-0.0114954	7
	17	7	20015.62	27564.04	-50477.81	1	57513.35	-61.3627	2.137689E-008	-0.0115832	7
	18	8	15890.62	34514.21	-57909.06	1	67414.32	-59.20476	-2.521774E-008	-0.0114971	7
	19	8	12609.37	43091.36	-65460.06	1	78370.17	-56.6437	-1.066349E-009	-0.0115068	6
	20	8	10078.13	52128.66	-73409.8	1	90035.53	-54.62125	6.481329E-009	-0.0116672	6
	21	8	8015.625	62080.85	-81954.23	1	102813.1	-52.85584	6.35942E-009	-0.0114997	6
	22	9	6328.125	73921.2	-91257.75	1	117440.7	-50.99161	-1.654568E-009	-0.0115241	6
	23	9	5015.625	87026.91	-102044.8	1	134114.9	-49.54144	1.499657E-008	-0.0116842	6
	24	9	3984.375	101933.1	-113130.2	1	152278.7	-47.98037	-5.220715E-011	-0.0113856	6
	25	10	3170.956	119798.3	-123824.8	1	172291	-45.94687	-2.264143E-009	-0.0115816	6
	26	10	2527.573	139741.8	-134825.6	1	194179.6	-43.97422	-1.053974E-009	-0.0115116	6
	27	10	1976.103	164467.1	-146009.4	1	219927.6	-41.59779	-4.674497E-009	-0.0114718	6
	28	11	1577.524	190636.4	-153454.7	1	244725.6	-38.83268	7.457295E-009	-0.0116779	6
	29	11	1265.625	219958.4	-154819.3	1	268980.9	-35.14007	7.262363E-010	-0.0114915	5
	30	11	998.264	248925	-158850.1	1	295291.4	-32.54375	2.523191E-010	-0.0116757	5
	31	12	796.875	276803	-159000.8	1	319219.6	-29.87387	-1.106129E-009	-0.0114099	5
	32	12	627.7902	303772	-155713.2	1	341356.1	-27.13962	4.451914E-010	-0.0115879	5
	33	12	505.5147	326908.5	-151984.9	1	360511.5	-24.93445	-3.002549E-010	-0.0113776	5
	34	13	397.9953	349125.7	-147002.5	1	378811.9	-22.83396	-2.824997E-010	-0.0114974	5
	35	13	315.5048	371453.5	-144181.9	1	398454.7	-21.21402	2.716581E-010	-0.0115035	5
	36	13	252.4038	388688.7	-140430.5	1	413279.2	-19.86443	6.451173E-010	-0.0115107	5
	37	14	198.6229	406829.7	-139196.5	1	429983.8	-18.88834	2.61607E-010	-0.0115062	5
	38	14	158.3615	429469.2	-139316.5	1	451500.7	-17.97266	5.063789E-010	-0.011508	5
	39	14	125.558	446635.7	-140757.7	1	468290.7	-17.4923	1.572388E-010	-0.0115074	5
	40	15	100.4464	469440.5	-151019	1	493134	-17.83299	1.302039E-010	-0.0115133	5
	41	15	79.00281	482988	-162818.4	1	509693.3	-18.62929	6.555213E-010	-0.0115152	5
	42	15	63.3446	486052.6	-115717.6	1	499637.6	-13.39147	-1.75843E-010	-0.0115175	5
	43	16	49.86702	527835.8	-135270.8	1	544893.4	-14.3741	-6.788384E-010	-0.0115193	5
	44	16	39.72458	548271.9	-173096.5	1	574947.4	-17.52158	1.68986E-010	-0.0115104	5
	45	16	31.6723	569629.2	-182241.2	1	598071.3	-17.74101	5.605995E-010	-0.0115131	5
	46	17	24.93351	604444.6	-200127.9	1	636713.8	-18.31939	6.02822E-010	-0.0115135	6
	47	17	19.86229	636727.4	-211871	1	671052.3	-18.40486	3.75715E-010	-0.0115145	6
	48	17	15.83615	690604.7	-240807.4	1	731384.3	-19.22319	4.390822E-010	-0.0115123	6
	49	18	12.40079	693361.6	-236954.5	1	732733.1	-18.86773	1.331305E-009	-0.0115136	6
	50	19	9.93114	722753.3	-231892.9	1	759043.2	-17.78866	6.5661E-010	-0.011518	6
	51	19	7.944915	756610.3	-247194.4	1	795967.5	-18.09289	2.402913E-010	-0.0115147	6
	52	20	6.317385	787349.1	-257222.5	1	828300.6	-18.09192	9.672857E-011	-0.0115023	6
	53	21	5.008013	821542.4	-269471.2	1	864607.8	-18.15982	9.093247E-010	-0.0115119	6
	54	23	3.945707	845973.4	-286187.1	1	893070	-18.69033	7.690603E-010	-0.0115224	6
	55	24	3.158693	871805.9	-310999.6	1	925616.7	-19.63286	8.428695E-011	-0.0115024	5
	56	26	2.504006	902961.1	-342522.2	1	965743	-20.77335	-1.66276E-010	-0.0115633	4
	57	28	1.998082	933184.6	-382543.2	1	1008550	-22.29034	4.067327E-011	-0.0115367	4
	58	29	1.584686	968211	-433690.5	1	1060905	-24.12903	1.881996E-010	-0.0115247	4
	59	31	1.266892	1001812	-496800.6	1	1118230	-26.37691	1.273459E-010	-0.0115624	4
	60	34	0.999041	1027335	-576701.1	1	1178135	-29.30795	1.008661E-010	-0.0115874	4
