EXPLAIN
TAG	EISPOT
TITLE	LABEL	Potentiostatic EIS	Test &Identifier
DATE	LABEL	9/11/2020	Date
TIME	LABEL	20:13:48	Time
NOTES	NOTES	1	&Notes...
	
PSTAT	PSTAT	REF600-11020	Potentiostat
VDC	POTEN	0.00000E+000	T	DC &Voltage (V)
FREQINIT	QUANT	1.00000E+006	Initial Fre&q. (Hz)
FREQFINAL	QUANT	1.00000E+000	Final Fre&q. (Hz)
PTSPERDEC	QUANT	1.00000E+001	Points/&decade
VAC	QUANT	2.50000E+001	AC &Voltage (mV rms)
AREA	QUANT	4.00000E-005	&Area (cm^2)
CONDIT	TWOPARAM	F	5.00000E+000	0.00000E+000	Conditionin&g	Time(s)	E(V)
DELAY	TWOPARAM	F	3.00000E+000	0.00000E+000	Init. De&lay	Time(s)	Stab.(mV/s)
SPEED	SELECTOR	0	&Optimize for:
ZGUESS	QUANT	1.00000E+003	E&stimated Z (ohms)
OCVCURVE	TABLE	39
	Pt	T	Vf	Vm	Ach	Over
	#	s	V vs. Ref.	V	V	bits
	0	0.258333	-1.64394E-001	-1.64394E-001	5.55459E-004	...........
	1	0.516667	-1.64394E-001	-1.64398E-001	5.55792E-004	...........
	2	0.775	-1.64394E-001	-1.64400E-001	5.51759E-004	...........
	3	1.03333	-1.64396E-001	-1.64409E-001	5.55159E-004	...........
	4	1.29167	-1.64398E-001	-1.64410E-001	5.57792E-004	...........
	5	1.55	-1.64402E-001	-1.64413E-001	5.57559E-004	...........
	6	1.80833	-1.64406E-001	-1.64419E-001	5.57592E-004	...........
	7	2.06667	-1.64410E-001	-1.64425E-001	5.56759E-004	...........
	8	2.325	-1.64414E-001	-1.64430E-001	5.54659E-004	...........
	9	2.58333	-1.64419E-001	-1.64434E-001	5.50225E-004	...........
	10	2.84167	-1.64424E-001	-1.64440E-001	5.57325E-004	...........
	11	3.1	-1.64429E-001	-1.64446E-001	5.52959E-004	...........
	12	3.35833	-1.64434E-001	-1.64452E-001	5.55459E-004	...........
	13	3.61667	-1.64440E-001	-1.64458E-001	5.55759E-004	...........
	14	3.875	-1.64446E-001	-1.64460E-001	5.53425E-004	...........
	15	4.13333	-1.64451E-001	-1.64469E-001	5.53292E-004	...........
	16	4.39167	-1.64457E-001	-1.64476E-001	5.55892E-004	...........
	17	4.65	-1.64462E-001	-1.64481E-001	5.56625E-004	...........
	18	4.90833	-1.64468E-001	-1.64486E-001	5.57659E-004	...........
	19	5.16667	-1.64475E-001	-1.64496E-001	5.58459E-004	...........
	20	5.425	-1.64481E-001	-1.64502E-001	5.56292E-004	...........
	21	5.68333	-1.64488E-001	-1.64509E-001	5.55792E-004	...........
	22	5.94167	-1.64495E-001	-1.64513E-001	5.53925E-004	...........
	23	6.2	-1.64501E-001	-1.64516E-001	5.56959E-004	...........
	24	6.45833	-1.64507E-001	-1.64519E-001	5.59692E-004	...........
	25	6.71667	-1.64512E-001	-1.64525E-001	5.56792E-004	...........
	26	6.975	-1.64516E-001	-1.64530E-001	5.53692E-004	...........
	27	7.23333	-1.64520E-001	-1.64533E-001	5.53225E-004	...........
	28	7.49167	-1.64525E-001	-1.64540E-001	5.56759E-004	...........
	29	7.75	-1.64529E-001	-1.64541E-001	5.55125E-004	...........
	30	8.00833	-1.64534E-001	-1.64546E-001	5.61525E-004	...........
	31	8.26667	-1.64538E-001	-1.64553E-001	5.50759E-004	...........
	32	8.525	-1.64542E-001	-1.64554E-001	5.52925E-004	...........
	33	8.78333	-1.64546E-001	-1.64559E-001	5.56059E-004	...........
	34	9.04167	-1.64551E-001	-1.64558E-001	5.58292E-004	...........
	35	9.3	-1.64554E-001	-1.64559E-001	5.63625E-004	...........
	36	9.5583	-1.64557E-001	-1.64561E-001	5.57359E-004	...........
	37	9.8167	-1.64559E-001	-1.64565E-001	5.59525E-004	...........
	38	10.075	-1.64560E-001	-1.64561E-001	5.60092E-004	...........
EOC	QUANT	-0.16456	Open Circuit (V)
PSTATMODEL	IQUANT	4	Pstat Model
PSTATSECTION	LABEL	REF600-11020	Pstat Section
PSTATSERIALNO	LABEL	11020	Pstat Serial Number
CTRLMODE	IQUANT	1	Control Mode
IESTAB	IQUANT	0	I/E Stability
CASPEED	IQUANT	1	Control Amp Speed
CONVENTION	IQUANT	1	Current Convention
ICHRANGE	IQUANT	2	Ich Range
ICHRANGEMODE	TOGGLE	F	Ich Auto Range
ICHOFFSETENABLE	TOGGLE	T	Ich Offset Enable
ICHOFFSET	QUANT	0	Ich Offset (V)
ICHFILTER	IQUANT	3	Ich Filter
VCHRANGE	IQUANT	2	Vch Range
VCHRANGEMODE	TOGGLE	F	Vch Auto Range
VCHOFFSETENABLE	TOGGLE	T	Vch Offset Enable
VCHOFFSET	QUANT	0	Vch Offset (V)
VCHFILTER	IQUANT	3	Vch Filter
ACHRANGE	IQUANT	2	Ach Range
ACHOFFSETENABLE	TOGGLE	F	Ach Offset Enable
ACHOFFSET	QUANT	0	Ach Offset (V)
ACHFILTER	IQUANT	3	Ach Filter
IERANGELOWERLIMIT	IQUANT	1	I/E Range Lower Limit
IERANGEMODE	TOGGLE	F	I/E AutoRange
IERANGE	IQUANT	8	I/E Range
POSFEEDENABLE	TOGGLE	F	Positive Feedback IR Comp
POSFEEDRESISTANCE	QUANT	0	Positive Feedback Resistance (ohm)
ACHSELECT	IQUANT	0	Ach Select
CABLEID	IQUANT	14	Cable ID
DCCALDATE	LABEL	9/1/2020	DC Calibration Date
ACCALDATE	LABEL	9/1/2020	AC Calibration Date
THERMOSELECT	IQUANT	1	Thermo Select
FRAMEWORKVERSION	QUANT	6.33	Framework Version
INSTRUMENTVERSION	LABEL	3.50	Instrument Version
ZCURVE	TABLE
	Pt	Time	Freq	Zreal	Zimag	Zsig	Zmod	Zphz	Idc	Vdc	IERange
	#	s	Hz	ohm	ohm	V	ohm	°	A	V	#
	0	1	1000078	1577.754	-1699.951	1	2319.297	-47.13506	1.100021E-007	-0.162448	8
	1	1	794390.6	1846.257	-1851.909	1	2615.001	-45.08757	2.745191E-009	-0.1627462	8
	2	1	630984.4	2133.31	-1999.105	1	2923.599	-43.13992	8.898606E-008	-0.1628764	8
	3	2	501234.4	2445.722	-2138.219	1	3248.621	-41.1622	5.37878E-008	-0.1629699	8
	4	2	398109.4	2772.059	-2276.923	1	3587.296	-39.39912	5.103654E-008	-0.163033	8
	5	2	316265.6	3114.082	-2410.193	1	3937.834	-37.73865	7.662532E-008	-0.1630487	8
	6	3	251203.1	3469.684	-2542.276	1	4301.381	-36.23065	4.960836E-008	-0.1630681	8
	7	3	199546.9	3836.439	-2683.848	1	4682.02	-34.97538	4.330929E-008	-0.1630541	8
	8	3	158578.1	4206.086	-2816.717	1	5062.12	-33.80929	7.439689E-008	-0.1630512	8
	9	4	125953.1	4634.744	-2966.449	1	5502.788	-32.62111	-2.120403E-009	-0.1630335	7
	10	4	100078.1	5034.541	-3137.07	1	5931.931	-31.92743	3.648152E-009	-0.1630631	7
	11	4	79453.13	5441.892	-3340.749	1	6385.514	-31.54555	1.701972E-009	-0.1630626	7
	12	5	63140.62	5875.415	-3577.548	1	6878.906	-31.33729	5.048059E-009	-0.1630659	7
	13	5	50203.12	6328.191	-3848.267	1	7406.427	-31.3044	4.838798E-009	-0.1630704	7
	14	5	39890.62	6810.637	-4159.55	1	7980.391	-31.41422	2.425367E-009	-0.1630678	7
	15	6	31640.63	7341.486	-4527.937	1	8625.522	-31.66464	3.944956E-009	-0.1630727	7
	16	6	25171.88	7914.771	-4938.385	1	9329.055	-31.96191	2.19205E-009	-0.1630772	7
	17	6	20015.62	8554.258	-5417.206	1	10125.29	-32.3451	6.017574E-009	-0.1630784	7
	18	6	15890.62	9267.932	-5937.762	1	11006.89	-32.6468	2.751657E-009	-0.1630818	7
	19	7	12609.37	10168.94	-6465.261	1	12050.19	-32.44759	9.173E-010	-0.1630862	6
	20	7	10078.13	11017.73	-7065.713	1	13088.72	-32.67221	9.599682E-010	-0.1630841	6
	21	7	8015.625	11970.54	-7724.419	1	14246.42	-32.83358	6.252352E-010	-0.163084	6
	22	8	6328.125	13039.33	-8454.417	1	15540.31	-32.9585	1.573953E-009	-0.1630837	6
	23	8	5015.625	14176.52	-9227.277	1	16914.97	-33.05948	7.168096E-010	-0.1630854	6
	24	8	3984.375	15378.21	-10060.99	1	18376.96	-33.1942	9.483978E-010	-0.1630877	6
	25	9	3170.956	16636.72	-10955	1	19919.65	-33.36422	4.553717E-010	-0.1630937	6
	26	9	2527.573	17953.92	-11956.34	1	21570.75	-33.66146	1.090138E-009	-0.1630894	6
	27	9	1976.103	19448.35	-13190.06	1	23499.28	-34.1455	7.360322E-010	-0.1630938	6
	28	10	1577.524	20854.44	-14489.6	1	25394.01	-34.79145	4.247406E-010	-0.1630929	6
	29	10	1265.625	22274.04	-15994.87	1	27422.05	-35.68193	6.341396E-010	-0.1630965	6
	30	10	998.264	23852.6	-17938.77	1	29845.37	-36.94564	8.563205E-010	-0.1630938	6
	31	11	796.875	25419.61	-20206.28	1	32472.3	-38.48152	8.399472E-010	-0.1630962	6
	32	11	627.7902	27182.44	-23160.14	1	35711.02	-40.43185	7.530153E-010	-0.1630978	6
	33	11	505.5147	28907.63	-26506.23	1	39220.29	-42.5186	9.154283E-010	-0.1630945	6
	34	12	397.9953	31063.12	-30994.12	1	43881.12	-44.93629	7.318194E-010	-0.1630818	6
	35	12	315.5048	33516.24	-36417.11	1	49492.87	-47.37529	7.126449E-010	-0.163083	6
	36	12	252.4038	36329.28	-42761.61	1	56110.36	-49.64954	6.02816E-010	-0.1630844	6
	37	13	198.6229	40075.77	-51066.55	1	64914.25	-51.87605	5.961767E-010	-0.1630839	6
	38	13	158.3615	44582.44	-60477.09	1	75133.7	-53.60314	6.88636E-010	-0.1630875	6
	39	13	125.558	50515.93	-71945.4	1	87909.05	-54.92567	6.393276E-010	-0.1630854	6
	40	14	100.4464	58014.66	-84613.19	1	102591.9	-55.56369	1.428138E-010	-0.1630954	5
	41	14	79.00281	68218.07	-100391.3	1	121375.9	-55.80304	8.764874E-011	-0.1630997	5
	42	14	63.3446	80125.73	-116587	1	141466.1	-55.50077	5.964262E-011	-0.1631011	5
	43	15	49.86702	96179.4	-135704.5	1	166331.5	-54.67321	1.242304E-010	-0.1631058	5
	44	15	39.72458	114730.8	-155436.6	1	193193.4	-53.56823	-8.778829E-011	-0.1630984	5
	45	15	31.6723	136628.7	-175563	1	222463	-52.10882	-1.01765E-010	-0.1631022	5
	46	16	24.93351	163500.9	-197608.4	1	256479.3	-50.3957	4.723765E-010	-0.1631007	5
	47	16	19.86229	192140.3	-218881.8	1	291251	-48.72248	9.622698E-010	-0.1630938	5
	48	16	15.83615	224244.9	-240425.8	1	328771	-46.99436	-2.942609E-010	-0.1631012	5
	49	16	12.40079	261583.9	-263694.8	1	371431.1	-45.23024	-1.391188E-011	-0.1630924	5
	50	17	9.93114	298836.3	-285743.7	1	413464.2	-43.71698	-4.221953E-010	-0.1630909	5
	51	17	7.944915	337286.8	-309169.8	1	457546	-42.50954	-6.277892E-010	-0.1630912	5
	52	18	6.317385	381699.3	-334498.4	1	507526.9	-41.22938	1.75656E-010	-0.1631055	5
	53	18	5.008013	428609.5	-360015.7	1	559747.6	-40.02898	-1.312227E-011	-0.1631095	5
	54	19	3.945707	481222.7	-390756.2	1	619891.6	-39.07684	-1.873607E-010	-0.1631045	5
	55	20	3.158693	532293.3	-418844	1	677322.9	-38.19804	1.504827E-011	-0.1631139	5
	56	21	2.504006	590930.4	-452015.9	1	743987.3	-37.41319	3.265154E-010	-0.1631068	5
	57	22	1.998082	649234.9	-486419.4	1	811239.7	-36.84126	1.449314E-010	-0.1631321	5
	58	24	1.584686	714474.6	-524351.5	1	886238.4	-36.27487	-2.536634E-011	-0.1631581	5
	59	26	1.266892	783194	-568408.3	1	967719	-35.97052	-6.413532E-011	-0.1631274	4
	60	28	0.999041	856540	-617893.6	1	1056150	-35.80605	-3.080084E-011	-0.1631015	4
