EXPLAIN
TAG	EISPOT
TITLE	LABEL	Potentiostatic EIS	Test &Identifier
DATE	LABEL	2/21/2020	Date
TIME	LABEL	15:48:26	Time
NOTES	NOTES	1	&Notes...
	
PSTAT	PSTAT	REF600-11020	Potentiostat
VDC	POTEN	0.00000E+000	T	DC &Voltage (V)
FREQINIT	QUANT	1.00000E+006	Initial Fre&q. (Hz)
FREQFINAL	QUANT	1.00000E+000	Final Fre&q. (Hz)
PTSPERDEC	QUANT	1.00000E+001	Points/&decade
VAC	QUANT	2.50000E+001	AC &Voltage (mV rms)
AREA	QUANT	2.08200E-005	&Area (cm^2)
CONDIT	TWOPARAM	F	1.50000E+001	0.00000E+000	Conditionin&g	Time(s)	E(V)
DELAY	TWOPARAM	F	1.00000E+002	0.00000E+000	Init. De&lay	Time(s)	Stab.(mV/s)
SPEED	SELECTOR	1	&Optimize for:
ZGUESS	QUANT	2.00000E+003	E&stimated Z (ohms)
OCVCURVE	TABLE	39
	Pt	T	Vf	Vm	Ach	Over
	#	s	V vs. Ref.	V	V	bits
	0	0.258333	4.24620E-002	4.24620E-002	5.72804E-004	...........
	1	0.516667	4.24619E-002	4.24598E-002	5.67838E-004	...........
	2	0.775	4.24630E-002	4.25289E-002	5.66004E-004	...........
	3	1.03333	4.24696E-002	4.25413E-002	5.69304E-004	...........
	4	1.29167	4.24854E-002	4.25384E-002	5.63638E-004	...........
	5	1.55	4.25067E-002	4.25415E-002	5.67104E-004	...........
	6	1.80833	4.25243E-002	4.25071E-002	5.72904E-004	...........
	7	2.06667	4.25340E-002	4.26183E-002	5.71071E-004	...........
	8	2.325	4.25426E-002	4.26381E-002	5.65004E-004	...........
	9	2.58333	4.25610E-002	4.26492E-002	5.64904E-004	...........
	10	2.84167	4.25897E-002	4.26524E-002	5.64304E-004	...........
	11	3.1	4.26188E-002	4.26725E-002	5.65671E-004	...........
	12	3.35833	4.26411E-002	4.26805E-002	5.68504E-004	...........
	13	3.61667	4.26569E-002	4.26956E-002	5.69638E-004	...........
	14	3.875	4.26696E-002	4.26964E-002	5.72771E-004	...........
	15	4.13333	4.26803E-002	4.26938E-002	5.70804E-004	...........
	16	4.39167	4.26883E-002	4.26917E-002	5.74704E-004	...........
	17	4.65	4.26926E-002	4.26892E-002	5.72271E-004	...........
	18	4.90833	4.26937E-002	4.27032E-002	5.72038E-004	...........
	19	5.16667	4.26942E-002	4.27124E-002	5.70404E-004	...........
	20	5.425	4.26966E-002	4.27039E-002	5.71204E-004	...........
	21	5.68333	4.27007E-002	4.27107E-002	5.73604E-004	...........
	22	5.94167	4.27049E-002	4.27233E-002	5.70271E-004	...........
	23	6.2	4.27090E-002	4.27296E-002	5.68171E-004	...........
	24	6.45833	4.27143E-002	4.27369E-002	5.70738E-004	...........
	25	6.71667	4.27211E-002	4.27468E-002	5.70304E-004	...........
	26	6.975	4.27284E-002	4.27302E-002	5.68771E-004	...........
	27	7.23333	4.27343E-002	4.27418E-002	5.67738E-004	...........
	28	7.49167	4.27373E-002	4.27346E-002	5.73171E-004	...........
	29	7.75	4.27380E-002	4.27356E-002	5.72704E-004	...........
	30	8.00833	4.27374E-002	4.27288E-002	5.69738E-004	...........
	31	8.26667	4.27361E-002	4.27402E-002	5.64971E-004	...........
	32	8.525	4.27352E-002	4.27470E-002	5.65738E-004	...........
	33	8.78333	4.27359E-002	4.27340E-002	5.72671E-004	...........
	34	9.04167	4.27377E-002	4.27387E-002	5.73671E-004	...........
	35	9.3	4.27389E-002	4.27389E-002	5.71704E-004	...........
	36	9.5583	4.27391E-002	4.27446E-002	5.68638E-004	...........
	37	9.8167	4.27394E-002	4.27416E-002	5.74571E-004	...........
	38	10.075	4.27402E-002	4.27390E-002	5.74771E-004	...........
EOC	QUANT	0.0427402	Open Circuit (V)
PSTATMODEL	IQUANT	4	Pstat Model
PSTATSECTION	LABEL	REF600-11020	Pstat Section
PSTATSERIALNO	LABEL	11020	Pstat Serial Number
CTRLMODE	IQUANT	1	Control Mode
IESTAB	IQUANT	0	I/E Stability
CASPEED	IQUANT	1	Control Amp Speed
CONVENTION	IQUANT	1	Current Convention
ICHRANGE	IQUANT	2	Ich Range
ICHRANGEMODE	TOGGLE	F	Ich Auto Range
ICHOFFSETENABLE	TOGGLE	T	Ich Offset Enable
ICHOFFSET	QUANT	0	Ich Offset (V)
ICHFILTER	IQUANT	3	Ich Filter
VCHRANGE	IQUANT	2	Vch Range
VCHRANGEMODE	TOGGLE	F	Vch Auto Range
VCHOFFSETENABLE	TOGGLE	T	Vch Offset Enable
VCHOFFSET	QUANT	0	Vch Offset (V)
VCHFILTER	IQUANT	3	Vch Filter
ACHRANGE	IQUANT	2	Ach Range
ACHOFFSETENABLE	TOGGLE	F	Ach Offset Enable
ACHOFFSET	QUANT	0	Ach Offset (V)
ACHFILTER	IQUANT	3	Ach Filter
IERANGELOWERLIMIT	IQUANT	1	I/E Range Lower Limit
IERANGEMODE	TOGGLE	F	I/E AutoRange
IERANGE	IQUANT	7	I/E Range
POSFEEDENABLE	TOGGLE	F	Positive Feedback IR Comp
POSFEEDRESISTANCE	QUANT	0	Positive Feedback Resistance (ohm)
ACHSELECT	IQUANT	0	Ach Select
CABLEID	IQUANT	14	Cable ID
DCCALDATE	LABEL	1/27/2020	DC Calibration Date
ACCALDATE	LABEL	1/27/2020	AC Calibration Date
THERMOSELECT	IQUANT	1	Thermo Select
FRAMEWORKVERSION	QUANT	6.33	Framework Version
INSTRUMENTVERSION	LABEL	3.50	Instrument Version
ZCURVE	TABLE
	Pt	Time	Freq	Zreal	Zimag	Zsig	Zmod	Zphz	Idc	Vdc	IERange
	#	s	Hz	ohm	ohm	V	ohm	°	A	V	#
	0	2	1000078	1826.338	-2201.358	1	2860.33	-50.3195	-2.007356E-007	0.0449149	8
	1	3	794390.6	2289.128	-2354.973	1	3284.205	-45.81229	-1.1209E-006	0.044939	8
	2	4	630984.4	2788.998	-2431.588	1	3700.153	-41.08355	-3.98481E-007	0.0445616	8
	3	6	501234.4	3293.888	-2416.685	1	4085.347	-36.26703	-7.094827E-008	0.0443952	8
	4	7	398109.4	3787.001	-2308.127	1	4434.955	-31.36176	-5.671434E-007	0.044399	8
	5	8	316265.6	4213.759	-2145.495	1	4728.521	-26.98356	-1.3918E-007	0.0443234	8
	6	10	251203.1	4569.827	-1941.457	1	4965.136	-23.01785	-6.278548E-007	0.0443716	8
	7	11	199546.9	4854.033	-1713.04	1	5147.44	-19.43848	4.370641E-007	0.0442607	8
	8	12	158578.1	5085.174	-1494.752	1	5300.309	-16.38034	4.281497E-007	0.0442554	8
	9	14	125953.1	5257.34	-1285.318	1	5412.177	-13.73823	1.495226E-007	0.0438431	7
	10	15	100078.1	5395.358	-1116.97	1	5509.765	-11.69639	-1.253219E-008	0.0442509	7
	11	17	79453.13	5498.333	-983.262	1	5585.559	-10.13898	1.136638E-008	0.0442298	7
	12	18	63140.62	5580.893	-876.1532	1	5649.249	-8.922132	2.148371E-010	0.0442256	7
	13	19	50203.12	5650.806	-793.2375	1	5706.21	-7.990738	2.302646E-009	0.0442262	7
	14	21	39890.62	5711.35	-734.9357	1	5758.441	-7.332519	-1.06335E-008	0.044244	7
	15	22	31640.63	5768.14	-697.9987	1	5810.219	-6.899776	1.912837E-008	0.0442052	7
	16	23	25171.88	5820.838	-681.8307	1	5860.635	-6.680964	-1.381673E-008	0.0442632	7
	17	25	20015.62	5874.081	-684.3201	1	5913.807	-6.644905	-1.148048E-008	0.0442724	7
	18	26	15890.62	5927.783	-705.5648	1	5969.625	-6.787796	-1.057353E-008	0.0442551	7
	19	27	12609.37	5986.213	-745.2665	1	6032.426	-7.096648	4.580007E-008	0.0441637	7
	20	29	10078.13	6041.633	-804.2385	1	6094.926	-7.582413	2.644431E-008	0.0441771	7
	21	30	8015.625	6104.045	-885.6666	1	6167.963	-8.25572	4.650736E-008	0.0441631	7
	22	31	6328.125	6172.042	-993.562	1	6251.501	-9.144892	2.21492E-008	0.0442384	7
	23	33	5015.625	6242.415	-1129.927	1	6343.853	-10.2599	-3.903733E-009	0.0442736	7
	24	34	3984.375	6319.557	-1300.239	1	6451.932	-11.62627	-9.951593E-009	0.0442551	7
	25	35	3170.956	6399.193	-1510.829	1	6575.125	-13.28409	1.031508E-008	0.0441899	7
	26	37	2527.573	6488.991	-1770.468	1	6726.185	-15.26122	1.434657E-008	0.0442094	7
	27	38	1976.103	6596.525	-2121.334	1	6929.228	-17.82693	-1.1792E-008	0.044243	7
	28	39	1577.524	6706.793	-2521.017	1	7164.956	-20.60074	1.461768E-008	0.0442056	7
	29	41	1265.625	6836.611	-3000.824	1	7466.204	-23.69833	-8.022562E-009	0.0442357	7
	30	42	998.264	6995.643	-3632.621	1	7882.572	-27.44146	-1.852211E-008	0.0442444	7
	31	43	796.875	7174.713	-4373.076	1	8402.398	-31.36282	-7.360624E-009	0.0442374	7
	32	45	627.7902	7398.256	-5339.582	1	9123.888	-35.81931	7.100141E-009	0.044251	7
	33	46	505.5147	7647.606	-6400.479	1	9972.56	-39.92683	-3.367354E-011	0.0442606	6
	34	48	397.9953	7980.782	-7840.9	1	11188.06	-44.49345	1.257376E-009	0.0442436	6
	35	49	315.5048	8375.786	-9559.05	1	12709.42	-48.77467	1.440655E-009	0.0442377	6
	36	50	252.4038	8843.022	-11568.99	1	14561.61	-52.60667	9.052315E-010	0.0442375	6
	37	52	198.6229	9461.982	-14206.89	1	17069.42	-56.33585	1.356072E-009	0.0442335	6
	38	53	158.3615	10186.17	-17256.49	1	20038.58	-59.44748	1.064154E-009	0.0442339	6
	39	54	125.558	11112.69	-21051.86	1	23804.88	-62.17168	1.270579E-009	0.0442295	6
	40	56	100.4464	12226.67	-25489.16	1	28269.93	-64.37385	8.049718E-010	0.0442302	6
	41	57	79.00281	13673.54	-31305.57	1	34161.45	-66.40543	1.36434E-009	0.044229	6
	42	58	63.3446	15375.66	-37999.99	1	40992.8	-67.97063	9.363699E-010	0.0442252	6
	43	60	49.86702	17650.31	-46275.34	1	49527.17	-69.12218	1.041382E-009	0.0442299	6
	44	61	39.72458	20613.03	-56187.74	1	59849.47	-69.85394	1.428934E-009	0.0442346	6
	45	63	31.6723	24084.83	-68090.92	1	72225.02	-70.52052	1.455995E-009	0.0442351	6
	46	64	24.93351	29150.23	-83302.23	1	88255.3	-70.71336	6.550138E-010	0.0442301	6
	47	65	19.86229	35229.14	-100629.1	1	106617.6	-70.70541	1.131786E-010	0.0442262	5
	48	67	15.83615	42651.91	-121110.9	1	128401.8	-70.59914	1.981811E-010	0.0442338	5
	49	68	12.40079	54234.63	-147445.3	1	157103.5	-69.80502	7.197645E-010	0.0442276	5
	50	69	9.93114	67478.94	-175818.6	1	188323.1	-69.00327	6.204386E-010	0.0442272	5
	51	71	7.944915	84003.31	-208175.2	1	224484.9	-68.02483	3.042812E-011	0.044235	5
	52	73	6.317385	105513.2	-246445.5	1	268082.8	-66.8223	-5.881E-011	0.044245	5
	53	75	5.008013	132687.1	-290384	1	319262.8	-65.4426	1.352586E-010	0.0442313	5
	54	77	3.945707	166481	-340919.7	1	379397.1	-63.97239	3.719227E-010	0.0442343	5
	55	80	3.158693	204447.4	-393882.1	1	443781.3	-62.5681	9.505016E-011	0.0442369	5
	56	83	2.504006	250114.7	-454720.4	1	518968.3	-61.18742	3.692726E-010	0.0442274	5
	57	86	1.998082	300493.5	-520334	1	600869.3	-59.99352	1.612389E-011	0.0442697	5
	58	89	1.584686	360064.4	-597598.4	1	697689.2	-58.93024	2.034495E-010	0.044273	5
	59	93	1.266892	423990.9	-679699	1	801098.6	-58.04441	-2.711995E-011	0.0442597	5
	60	97	0.999041	500219.7	-780208.4	1	926792.8	-57.33461	2.850945E-010	0.0442173	5
