EXPLAIN
TAG	EISPOT
TITLE	LABEL	Potentiostatic EIS	Test &Identifier
DATE	LABEL	1/10/2020	Date
TIME	LABEL	14:05:21	Time
NOTES	NOTES	5	&Notes...
	
	
	
	
	
PSTAT	PSTAT	REF600-11020	Potentiostat
VDC	POTEN	0.00000E+000	T	DC &Voltage (V)
FREQINIT	QUANT	1.00000E+006	Initial Fre&q. (Hz)
FREQFINAL	QUANT	1.00000E+000	Final Fre&q. (Hz)
PTSPERDEC	QUANT	1.00000E+001	Points/&decade
VAC	QUANT	2.50000E+001	AC &Voltage (mV rms)
AREA	QUANT	1.00000E-001	&Area (cm^2)
CONDIT	TWOPARAM	T	5.00000E+000	0.00000E+000	Conditionin&g	Time(s)	E(V)
DELAY	TWOPARAM	T	5.00000E+000	0.00000E+000	Init. De&lay	Time(s)	Stab.(mV/s)
SPEED	SELECTOR	0	&Optimize for:
ZGUESS	QUANT	5.00000E+002	E&stimated Z (ohms)
OCVCURVE	TABLE	19
	Pt	T	Vf	Vm	Ach	Over
	#	s	V vs. Ref.	V	V	bits
	0	0.258333	9.35824E-003	9.35824E-003	6.33647E-004	...........
	1	0.516667	9.36573E-003	9.75048E-003	6.29613E-004	...........
	2	0.775	9.41171E-003	1.01203E-002	6.27480E-004	...........
	3	1.03333	9.54186E-003	1.04866E-002	6.29813E-004	...........
	4	1.29167	9.77547E-003	1.08407E-002	6.27413E-004	...........
	5	1.55	1.00882E-002	1.11768E-002	6.34046E-004	...........
	6	1.80833	1.04382E-002	1.15058E-002	6.29213E-004	...........
	7	2.06667	1.07936E-002	1.18286E-002	6.31946E-004	...........
	8	2.325	1.11401E-002	1.21562E-002	6.27080E-004	...........
	9	2.58333	1.14755E-002	1.24464E-002	6.29380E-004	...........
	10	2.84167	1.18009E-002	1.27609E-002	6.31013E-004	...........
	11	3.1	1.21171E-002	1.30334E-002	6.23947E-004	...........
	12	3.35833	1.24244E-002	1.33272E-002	6.26813E-004	...........
	13	3.61667	1.27225E-002	1.35791E-002	6.28413E-004	...........
	14	3.875	1.30112E-002	1.38560E-002	6.24813E-004	...........
	15	4.13333	1.32907E-002	1.41104E-002	6.27080E-004	...........
	16	4.39167	1.35623E-002	1.43614E-002	6.29947E-004	...........
	17	4.65	1.38277E-002	1.46350E-002	6.25080E-004	...........
	18	4.90833	1.40915E-002	1.50077E-002	6.35880E-004	...........
EOC	QUANT	0.0140915	Open Circuit (V)
PSTATMODEL	IQUANT	4	Pstat Model
PSTATSECTION	LABEL	REF600-11020	Pstat Section
PSTATSERIALNO	LABEL	11020	Pstat Serial Number
CTRLMODE	IQUANT	1	Control Mode
IESTAB	IQUANT	0	I/E Stability
CASPEED	IQUANT	1	Control Amp Speed
CONVENTION	IQUANT	1	Current Convention
ICHRANGE	IQUANT	2	Ich Range
ICHRANGEMODE	TOGGLE	F	Ich Auto Range
ICHOFFSETENABLE	TOGGLE	T	Ich Offset Enable
ICHOFFSET	QUANT	0	Ich Offset (V)
ICHFILTER	IQUANT	3	Ich Filter
VCHRANGE	IQUANT	2	Vch Range
VCHRANGEMODE	TOGGLE	F	Vch Auto Range
VCHOFFSETENABLE	TOGGLE	T	Vch Offset Enable
VCHOFFSET	QUANT	0	Vch Offset (V)
VCHFILTER	IQUANT	3	Vch Filter
ACHRANGE	IQUANT	2	Ach Range
ACHOFFSETENABLE	TOGGLE	F	Ach Offset Enable
ACHOFFSET	QUANT	0	Ach Offset (V)
ACHFILTER	IQUANT	3	Ach Filter
IERANGELOWERLIMIT	IQUANT	1	I/E Range Lower Limit
IERANGEMODE	TOGGLE	F	I/E AutoRange
IERANGE	IQUANT	7	I/E Range
POSFEEDENABLE	TOGGLE	F	Positive Feedback IR Comp
POSFEEDRESISTANCE	QUANT	0	Positive Feedback Resistance (ohm)
ACHSELECT	IQUANT	0	Ach Select
CABLEID	IQUANT	14	Cable ID
DCCALDATE	LABEL	12/22/2019	DC Calibration Date
ACCALDATE	LABEL	12/22/2019	AC Calibration Date
THERMOSELECT	IQUANT	1	Thermo Select
FRAMEWORKVERSION	QUANT	6.33	Framework Version
INSTRUMENTVERSION	LABEL	3.50	Instrument Version
ZCURVE	TABLE
	Pt	Time	Freq	Zreal	Zimag	Zsig	Zmod	Zphz	Idc	Vdc	IERange
	#	s	Hz	ohm	ohm	V	ohm	°	A	V	#
	0	1	1000078	1831.902	-1214.526	1	2197.939	-33.54383	-3.960293E-006	0.0165707	8
	1	2	794390.6	2052.127	-1208.959	1	2381.765	-30.5034	9.450947E-007	0.0159637	8
	2	2	630984.4	2247.12	-1183.182	1	2539.58	-27.76827	-1.950694E-007	0.0157096	8
	3	2	501234.4	2434.493	-1155.703	1	2694.885	-25.39463	2.98062E-007	0.0156211	8
	4	3	398109.4	2615.469	-1120.7	1	2845.461	-23.1946	2.408955E-006	0.0152724	8
	5	3	316265.6	2782.579	-1088.022	1	2987.732	-21.3561	-1.746584E-006	0.0159192	8
	6	3	251203.1	2946.945	-1050.87	1	3128.708	-19.62605	1.253304E-007	0.0155896	8
	7	4	199546.9	3096.182	-1012.99	1	3257.682	-18.11674	1.946333E-006	0.0152389	8
	8	4	158578.1	3241.051	-969.609	1	3382.98	-16.65534	3.704523E-007	0.0154819	8
	9	4	125953.1	3382.844	-915.2217	1	3504.463	-15.13884	3.713378E-007	0.0148877	7
	10	5	100078.1	3507.701	-874.2783	1	3615.014	-13.99554	-1.733746E-008	0.0155933	7
	11	5	79453.13	3628.664	-850.9564	1	3727.107	-13.19792	4.018445E-008	0.0154644	7
	12	5	63140.62	3744.013	-828.9399	1	3834.681	-12.48413	4.211441E-008	0.0154614	7
	13	5	50203.12	3854.711	-810.2144	1	3938.94	-11.8701	2.194912E-009	0.0155591	7
	14	6	39890.62	3963.924	-795.0698	1	4042.874	-11.34169	-1.765316E-008	0.0155888	7
	15	6	31640.63	4070.058	-783.5261	1	4144.79	-10.89669	9.092686E-009	0.0155925	7
	16	6	25171.88	4170.653	-776.7227	1	4242.363	-10.54964	-2.475564E-008	0.0155729	7
	17	7	20015.62	4267.426	-775.1212	1	4337.25	-10.29478	-1.832355E-008	0.0155446	7
	18	7	15890.62	4362.276	-779.176	1	4431.317	-10.12719	-1.564662E-008	0.0155373	7
	19	7	12609.37	4454.034	-794.1485	1	4524.278	-10.10953	2.432445E-008	0.015465	7
	20	8	10078.13	4541.323	-815.5825	1	4613.978	-10.1813	4.64525E-008	0.0154629	7
	21	8	8015.625	4628.432	-852.2408	1	4706.24	-10.4331	-2.66028E-008	0.0155724	7
	22	8	6328.125	4719.495	-904.4966	1	4805.387	-10.84925	-1.649672E-008	0.0155359	7
	23	9	5015.625	4808.821	-974.52	1	4906.572	-11.45599	-6.456289E-009	0.0155576	7
	24	9	3984.375	4899.164	-1061.909	1	5012.929	-12.22985	5.948527E-009	0.0154969	7
	25	9	3170.956	4990.682	-1173.795	1	5126.861	-13.23526	6.806466E-009	0.0154963	7
	26	10	2527.573	5085.296	-1312.317	1	5251.896	-14.47011	2.135509E-009	0.015545	7
	27	10	1976.103	5186.573	-1503.005	1	5399.959	-16.16094	4.194876E-008	0.0154476	7
	28	10	1577.524	5288.659	-1723.259	1	5562.332	-18.0477	4.647595E-008	0.0155136	7
	29	11	1265.625	5382.011	-1991.888	1	5738.786	-20.30957	-1.740464E-008	0.0155731	7
	30	11	998.264	5492.498	-2356.331	1	5976.607	-23.21977	-1.811656E-008	0.0155708	7
	31	11	796.875	5607.998	-2790.923	1	6264.096	-26.45808	-2.807933E-008	0.0155639	7
	32	12	627.7902	5743.655	-3369.541	1	6659.082	-30.39821	1.009319E-008	0.0155749	7
	33	12	505.5147	5891.833	-4020.801	1	7133.06	-34.31105	2.555673E-008	0.0155017	7
	34	12	397.9953	6085.329	-4913.728	1	7821.505	-38.91987	6.417459E-009	0.0155394	7
	35	12	315.5048	6324.222	-5991.125	1	8711.45	-43.45068	5.85343E-009	0.0155419	7
	36	13	252.4038	6614.844	-7262.415	1	9823.38	-47.67172	6.834985E-009	0.015535	7
	37	13	198.6229	7018.438	-8938.825	1	11364.91	-51.8623	5.923377E-010	0.0155408	6
	38	13	158.3615	7508.099	-10881.54	1	13220.42	-55.3949	-3.621811E-010	0.0155375	6
	39	14	125.558	8168.269	-13300.58	1	15608.52	-58.44471	-5.916741E-011	0.0155456	6
	40	14	100.4464	8989.938	-16119.16	1	18456.61	-60.85083	7.238911E-010	0.0155438	6
	41	14	79.00281	10178.76	-19728.72	1	22199.77	-62.70915	-1.853802E-011	0.0155448	6
	42	15	63.3446	11607.35	-23964.37	1	26627.46	-64.15636	-1.712658E-010	0.0155407	6
	43	15	49.86702	13599.9	-29085.61	1	32108.1	-64.94008	6.10717E-010	0.0155375	6
	44	16	39.72458	16123.59	-34769.54	1	38326.12	-65.12155	6.343343E-012	0.0155459	6
	45	16	31.6723	19361.3	-41445.06	1	45744.43	-64.96009	-8.6893E-010	0.0155408	6
	46	16	24.93351	23532.26	-49716.97	1	55004.95	-64.67066	1.109233E-009	0.0155385	6
	47	17	19.86229	28533.72	-58777.37	1	65337.22	-64.10555	3.336861E-009	0.0155454	6
	48	17	15.83615	34980.02	-68864.3	1	77239.2	-63.07145	-1.945137E-009	0.0155368	6
	49	17	12.40079	43607.78	-81373.22	1	92321.39	-61.81321	-9.077402E-010	0.0155419	6
	50	17	9.93114	52230.55	-93795.96	1	107357.9	-60.88863	3.046637E-010	0.0155331	5
	51	18	7.944915	62630.84	-107692.5	1	124580.5	-59.81895	-1.301902E-009	0.0155427	5
	52	19	6.317385	75137.36	-123321.7	1	144408.7	-58.64691	-1.067543E-009	0.0155422	5
	53	19	5.008013	89572.69	-140726.9	1	166815.2	-57.52324	-5.949425E-010	0.0155413	5
	54	20	3.945707	105407	-161047.1	1	192475.5	-56.79483	-8.461692E-010	0.0155298	5
	55	22	3.158693	121647.6	-181979.8	1	218894.4	-56.23856	-2.991161E-010	0.0155364	5
	56	23	2.504006	139287.3	-207540.2	1	249947.7	-56.1331	-4.531938E-010	0.0155426	5
	57	25	1.998082	157702.2	-236737.6	1	284455.1	-56.33053	-6.905354E-010	0.0154934	5
	58	26	1.584686	176650.5	-272844.8	1	325038	-57.07939	-4.932064E-010	0.0155207	5
	59	28	1.266892	197705.7	-314116	1	371155.5	-57.81355	-2.820423E-010	0.0155587	5
	60	31	0.999041	222631.2	-371005.8	1	432677.6	-59.03309	-4.015989E-010	0.0155704	5
