EXPLAIN
TAG	EISPOT
TITLE	LABEL	Potentiostatic EIS	Test &Identifier
DATE	LABEL	3/17/2020	Date
TIME	LABEL	16:26:32	Time
NOTES	NOTES	1	&Notes...
	
PSTAT	PSTAT	REF600-11020	Potentiostat
VDC	POTEN	0.00000E+000	T	DC &Voltage (V)
FREQINIT	QUANT	1.00000E+006	Initial Fre&q. (Hz)
FREQFINAL	QUANT	1.00000E+000	Final Fre&q. (Hz)
PTSPERDEC	QUANT	1.00000E+001	Points/&decade
VAC	QUANT	2.50000E+001	AC &Voltage (mV rms)
AREA	QUANT	4.00000E-004	&Area (cm^2)
CONDIT	TWOPARAM	F	5.00000E+000	0.00000E+000	Conditionin&g	Time(s)	E(V)
DELAY	TWOPARAM	T	3.00000E+000	0.00000E+000	Init. De&lay	Time(s)	Stab.(mV/s)
SPEED	SELECTOR	0	&Optimize for:
ZGUESS	QUANT	5.00000E+003	E&stimated Z (ohms)
OCVCURVE	TABLE	12
	Pt	T	Vf	Vm	Ach	Over
	#	s	V vs. Ref.	V	V	bits
	0	0.258333	1.02180E-001	1.02180E-001	5.70797E-004	...........
	1	0.516667	1.02180E-001	1.02183E-001	5.67130E-004	...........
	2	0.775	1.02181E-001	1.02182E-001	5.73397E-004	...........
	3	1.03333	1.02181E-001	1.02182E-001	5.72263E-004	...........
	4	1.29167	1.02181E-001	1.02182E-001	5.75930E-004	...........
	5	1.55	1.02182E-001	1.02180E-001	5.80830E-004	...........
	6	1.80833	1.02182E-001	1.02182E-001	5.81497E-004	...........
	7	2.06667	1.02182E-001	1.02181E-001	5.70463E-004	...........
	8	2.325	1.02181E-001	1.02180E-001	5.71630E-004	...........
	9	2.58333	1.02181E-001	1.02178E-001	5.75497E-004	...........
	10	2.84167	1.02180E-001	1.02179E-001	5.74763E-004	...........
	11	3.1	1.02180E-001	1.02177E-001	5.73763E-004	...........
EOC	QUANT	0.1021797	Open Circuit (V)
PSTATMODEL	IQUANT	4	Pstat Model
PSTATSECTION	LABEL	REF600-11020	Pstat Section
PSTATSERIALNO	LABEL	11020	Pstat Serial Number
CTRLMODE	IQUANT	1	Control Mode
IESTAB	IQUANT	0	I/E Stability
CASPEED	IQUANT	1	Control Amp Speed
CONVENTION	IQUANT	1	Current Convention
ICHRANGE	IQUANT	2	Ich Range
ICHRANGEMODE	TOGGLE	F	Ich Auto Range
ICHOFFSETENABLE	TOGGLE	T	Ich Offset Enable
ICHOFFSET	QUANT	0	Ich Offset (V)
ICHFILTER	IQUANT	3	Ich Filter
VCHRANGE	IQUANT	2	Vch Range
VCHRANGEMODE	TOGGLE	F	Vch Auto Range
VCHOFFSETENABLE	TOGGLE	T	Vch Offset Enable
VCHOFFSET	QUANT	0	Vch Offset (V)
VCHFILTER	IQUANT	3	Vch Filter
ACHRANGE	IQUANT	2	Ach Range
ACHOFFSETENABLE	TOGGLE	F	Ach Offset Enable
ACHOFFSET	QUANT	0	Ach Offset (V)
ACHFILTER	IQUANT	3	Ach Filter
IERANGELOWERLIMIT	IQUANT	1	I/E Range Lower Limit
IERANGEMODE	TOGGLE	F	I/E AutoRange
IERANGE	IQUANT	7	I/E Range
POSFEEDENABLE	TOGGLE	F	Positive Feedback IR Comp
POSFEEDRESISTANCE	QUANT	0	Positive Feedback Resistance (ohm)
ACHSELECT	IQUANT	0	Ach Select
CABLEID	IQUANT	14	Cable ID
DCCALDATE	LABEL	2/27/2020	DC Calibration Date
ACCALDATE	LABEL	2/27/2020	AC Calibration Date
THERMOSELECT	IQUANT	1	Thermo Select
FRAMEWORKVERSION	QUANT	6.33	Framework Version
INSTRUMENTVERSION	LABEL	3.50	Instrument Version
ZCURVE	TABLE
	Pt	Time	Freq	Zreal	Zimag	Zsig	Zmod	Zphz	Idc	Vdc	IERange
	#	s	Hz	ohm	ohm	V	ohm	°	A	V	#
	0	1	1000078	1468.363	-582.3757	1	1579.636	-21.63406	1.684996E-008	0.104879	8
	1	1	794390.6	1553.581	-544.6293	1	1646.279	-19.31882	6.948979E-008	0.1044427	8
	2	2	630984.4	1627.123	-507.8846	1	1704.546	-17.33505	1.031514E-007	0.1042137	8
	3	2	501234.4	1690.733	-475.8476	1	1756.419	-15.71897	6.431582E-008	0.1041295	8
	4	2	398109.4	1748.361	-450.2015	1	1805.394	-14.43992	4.820633E-008	0.1040423	8
	5	3	316265.6	1800.211	-430.5797	1	1850.989	-13.45146	7.197705E-008	0.1040001	8
	6	3	251203.1	1851.218	-418.6886	1	1897.975	-12.74413	5.66528E-008	0.1039789	8
	7	3	199546.9	1900.139	-412.8744	1	1944.478	-12.25904	5.531709E-008	0.103993	8
	8	3	158578.1	1948.695	-410.0991	1	1991.38	-11.88436	4.467691E-008	0.1039754	8
	9	4	125953.1	2012.827	-388.5699	1	2049.99	-10.92636	3.454032E-009	0.1039254	7
	10	4	100078.1	2057.957	-394.8157	1	2095.488	-10.86014	3.804888E-009	0.1038992	7
	11	4	79453.13	2107.604	-413.7863	1	2147.84	-11.10761	2.790583E-009	0.1038946	7
	12	5	63140.62	2160.282	-436.3063	1	2203.902	-11.41827	3.850153E-009	0.1038923	7
	13	5	50203.12	2215.167	-461.1903	1	2262.667	-11.76078	1.685756E-009	0.1038947	7
	14	5	39890.62	2272.549	-489.2442	1	2324.616	-12.14945	2.362428E-009	0.1038946	7
	15	6	31640.63	2332.822	-521.831	1	2390.474	-12.60897	1.668508E-009	0.1038903	7
	16	6	25171.88	2394.027	-559.7538	1	2458.595	-13.16007	2.012312E-009	0.1038878	7
	17	6	20015.62	2457.319	-604.8928	1	2530.674	-13.82897	2.02163E-009	0.1038856	7
	18	7	15890.62	2523.638	-659.7712	1	2608.457	-14.65129	3.590547E-009	0.1038927	7
	19	7	12609.37	2592.606	-725.9415	1	2692.322	-15.64249	4.614035E-009	0.103894	7
	20	7	10078.13	2662.409	-803.4474	1	2780.998	-16.79248	2.141809E-009	0.1038886	7
	21	8	8015.625	2738.562	-900.8049	1	2882.91	-18.20777	3.343525E-009	0.1038942	7
	22	8	6328.125	2823.907	-1023.386	1	3003.626	-19.92056	4.323356E-009	0.1038965	7
	23	8	5015.625	2917.494	-1170.681	1	3143.606	-21.86374	3.735803E-009	0.1038934	7
	24	9	3984.375	3022.445	-1345.1	1	3308.243	-23.99083	3.137268E-009	0.1038901	7
	25	9	3170.956	3140.749	-1551.456	1	3503.044	-26.28829	2.627818E-009	0.1038888	7
	26	9	2527.573	3273.752	-1793.347	1	3732.766	-28.71373	2.790377E-009	0.1038874	7
	27	10	1976.103	3437.584	-2104.442	1	4030.591	-31.4744	4.214014E-009	0.1038923	7
	28	10	1577.524	3602.698	-2439.626	1	4351.001	-34.10454	3.542108E-009	0.1038828	7
	29	10	1265.625	3776.734	-2829.57	1	4719.129	-36.84095	3.568644E-009	0.1038813	7
	30	10	998.264	3979.928	-3334.677	1	5192.292	-39.95876	2.589253E-009	0.1038817	7
	31	11	796.875	4189.105	-3920.731	1	5737.66	-43.10463	3.224969E-009	0.1038763	7
	32	11	627.7902	4425.614	-4687.535	1	6446.63	-46.64628	3.358515E-009	0.1038813	7
	33	11	505.5147	4672.141	-5539.506	1	7246.725	-49.85498	3.73453E-009	0.1038771	7
	34	12	397.9953	4983.746	-6702.588	1	8352.39	-53.36715	4.041151E-009	0.1038925	7
	35	12	315.5048	5347.397	-8099.603	1	9705.58	-56.56701	4.198911E-009	0.1038876	7
	36	12	252.4038	5773.353	-9743.57	1	11325.58	-59.35201	4.966223E-010	0.1039403	6
	37	13	198.6229	6336.18	-11909.44	1	13490.07	-61.98568	4.987264E-010	0.1039392	6
	38	13	158.3615	7003.003	-14413.76	1	16024.94	-64.08696	5.046644E-010	0.103939	6
	39	13	125.558	7864.199	-17534.82	1	19217.59	-65.84422	5.732801E-010	0.1039419	6
	40	14	100.4464	8910.063	-21164.3	1	22963.38	-67.16916	5.046797E-010	0.1039392	6
	41	14	79.00281	10349.3	-25895.21	1	27886.73	-68.21534	3.743278E-010	0.1039348	6
	42	14	63.3446	12038.94	-31141.54	1	33387.6	-68.8641	2.108715E-010	0.1039395	6
	43	15	49.86702	14383.12	-37955.51	1	40589.35	-69.24596	3.516667E-010	0.1039374	6
	44	15	39.72458	17247.73	-45716.03	1	48861.43	-69.32953	5.348857E-010	0.1039416	6
	45	15	31.6723	20876.93	-54861.26	1	58699.27	-69.16615	6.975627E-010	0.1039388	6
	46	16	24.93351	25790.12	-66276.66	1	71117.69	-68.73759	-2.342062E-010	0.1039375	6
	47	16	19.86229	31712.38	-79012.13	1	85138.66	-68.1314	-2.03387E-010	0.1039363	6
	48	16	15.83615	39061.52	-93709.67	1	101524.9	-67.37189	5.032657E-010	0.1039386	6
	49	17	12.40079	49055.97	-112033.6	1	122302.9	-66.35291	-1.196191E-009	0.1039446	5
	50	17	9.93114	59945.46	-131015	1	144077.7	-65.4137	-1.008311E-009	0.103948	5
	51	17	7.944915	73132.84	-152733.7	1	169339.9	-64.4137	4.019052E-010	0.1039482	5
	52	18	6.317385	89023.27	-178147	1	199151.9	-63.44788	-8.81818E-011	0.1039499	5
	53	19	5.008013	108019.3	-207489	1	233922.8	-62.4984	-3.413983E-010	0.1039366	5
	54	19	3.945707	131049.1	-241701.8	1	274943	-61.53375	-5.063717E-011	0.1039447	5
	55	20	3.158693	155310.3	-278345.4	1	318743.5	-60.8395	-1.914946E-010	0.1039297	5
	56	21	2.504006	184846.3	-321597.8	1	370935.8	-60.1108	1.465652E-010	0.103926	5
	57	23	1.998082	216595.4	-370138.5	1	428854.3	-59.66495	1.580798E-010	0.1039456	5
	58	24	1.584686	255460.3	-427032.2	1	497610.8	-59.11118	3.004113E-012	0.1038929	5
	59	26	1.266892	298217	-492522	1	575770.2	-58.80553	-1.38741E-011	0.1038859	5
	60	29	0.999041	349485.3	-572598.5	1	670827.1	-58.60221	-2.2472E-011	0.1038962	5
