EXPLAIN
TAG	EISPOT
TITLE	LABEL	Potentiostatic EIS	Test &Identifier
DATE	LABEL	3/3/2020	Date
TIME	LABEL	18:53:51	Time
NOTES	NOTES	1	&Notes...
	
PSTAT	PSTAT	REF600-11020	Potentiostat
VDC	POTEN	0.00000E+000	T	DC &Voltage (V)
FREQINIT	QUANT	1.00000E+006	Initial Fre&q. (Hz)
FREQFINAL	QUANT	1.00000E+000	Final Fre&q. (Hz)
PTSPERDEC	QUANT	1.00000E+001	Points/&decade
VAC	QUANT	2.50000E+001	AC &Voltage (mV rms)
AREA	QUANT	1.60000E-004	&Area (cm^2)
CONDIT	TWOPARAM	F	1.50000E+001	0.00000E+000	Conditionin&g	Time(s)	E(V)
DELAY	TWOPARAM	F	1.00000E+002	0.00000E+000	Init. De&lay	Time(s)	Stab.(mV/s)
SPEED	SELECTOR	1	&Optimize for:
ZGUESS	QUANT	1.00000E+004	E&stimated Z (ohms)
OCVCURVE	TABLE	39
	Pt	T	Vf	Vm	Ach	Over
	#	s	V vs. Ref.	V	V	bits
	0	0.258333	1.00855E-001	1.00855E-001	5.61664E-004	...........
	1	0.516667	1.00854E-001	1.00788E-001	5.59764E-004	...........
	2	0.775	1.00851E-001	1.00993E-001	5.58164E-004	...........
	3	1.03333	1.00857E-001	1.00989E-001	5.59097E-004	...........
	4	1.29167	1.00883E-001	1.00996E-001	5.65964E-004	...........
	5	1.55	1.00924E-001	1.00958E-001	5.62264E-004	...........
	6	1.80833	1.00955E-001	1.00798E-001	5.63630E-004	...........
	7	2.06667	1.00955E-001	1.00848E-001	5.63030E-004	...........
	8	2.325	1.00923E-001	1.00840E-001	5.61797E-004	...........
	9	2.58333	1.00882E-001	1.00761E-001	5.58497E-004	...........
	10	2.84167	1.00845E-001	1.00771E-001	5.63430E-004	...........
	11	3.1	1.00817E-001	1.00800E-001	5.64430E-004	...........
	12	3.35833	1.00796E-001	1.00796E-001	5.54997E-004	...........
	13	3.61667	1.00786E-001	1.00714E-001	5.62097E-004	...........
	14	3.875	1.00778E-001	1.00700E-001	5.58864E-004	...........
	15	4.13333	1.00763E-001	1.00699E-001	5.69797E-004	...........
	16	4.39167	1.00739E-001	1.00651E-001	5.70163E-004	...........
	17	4.65	1.00713E-001	1.00698E-001	5.63697E-004	...........
	18	4.90833	1.00694E-001	1.00674E-001	5.61830E-004	...........
	19	5.16667	1.00683E-001	1.00673E-001	5.58764E-004	...........
	20	5.425	1.00678E-001	1.00649E-001	5.65797E-004	...........
	21	5.68333	1.00675E-001	1.00698E-001	5.55664E-004	...........
	22	5.94167	1.00672E-001	1.00694E-001	5.56397E-004	...........
	23	6.2	1.00673E-001	1.00614E-001	5.54797E-004	...........
	24	6.45833	1.00672E-001	1.00606E-001	5.54897E-004	...........
	25	6.71667	1.00660E-001	1.00593E-001	5.55264E-004	...........
	26	6.975	1.00639E-001	1.00596E-001	5.55030E-004	...........
	27	7.23333	1.00618E-001	1.00587E-001	5.61730E-004	...........
	28	7.49167	1.00603E-001	1.00572E-001	5.65530E-004	...........
	29	7.75	1.00592E-001	1.00563E-001	5.60364E-004	...........
	30	8.00833	1.00583E-001	1.00538E-001	5.61630E-004	...........
	31	8.26667	1.00573E-001	1.00548E-001	5.61364E-004	...........
	32	8.525	1.00561E-001	1.00500E-001	5.60564E-004	...........
	33	8.78333	1.00548E-001	1.00548E-001	5.61764E-004	...........
	34	9.04167	1.00536E-001	1.00477E-001	5.57830E-004	...........
	35	9.3	1.00526E-001	1.00506E-001	5.52997E-004	...........
	36	9.5583	1.00515E-001	1.00473E-001	5.52964E-004	...........
	37	9.8167	1.00504E-001	1.00485E-001	5.51997E-004	...........
	38	10.075	1.00495E-001	1.00509E-001	5.56464E-004	...........
EOC	QUANT	0.1004948	Open Circuit (V)
PSTATMODEL	IQUANT	4	Pstat Model
PSTATSECTION	LABEL	REF600-11020	Pstat Section
PSTATSERIALNO	LABEL	11020	Pstat Serial Number
CTRLMODE	IQUANT	1	Control Mode
IESTAB	IQUANT	0	I/E Stability
CASPEED	IQUANT	1	Control Amp Speed
CONVENTION	IQUANT	1	Current Convention
ICHRANGE	IQUANT	2	Ich Range
ICHRANGEMODE	TOGGLE	F	Ich Auto Range
ICHOFFSETENABLE	TOGGLE	T	Ich Offset Enable
ICHOFFSET	QUANT	0	Ich Offset (V)
ICHFILTER	IQUANT	3	Ich Filter
VCHRANGE	IQUANT	2	Vch Range
VCHRANGEMODE	TOGGLE	F	Vch Auto Range
VCHOFFSETENABLE	TOGGLE	T	Vch Offset Enable
VCHOFFSET	QUANT	0	Vch Offset (V)
VCHFILTER	IQUANT	3	Vch Filter
ACHRANGE	IQUANT	2	Ach Range
ACHOFFSETENABLE	TOGGLE	F	Ach Offset Enable
ACHOFFSET	QUANT	0	Ach Offset (V)
ACHFILTER	IQUANT	3	Ach Filter
IERANGELOWERLIMIT	IQUANT	1	I/E Range Lower Limit
IERANGEMODE	TOGGLE	F	I/E AutoRange
IERANGE	IQUANT	7	I/E Range
POSFEEDENABLE	TOGGLE	F	Positive Feedback IR Comp
POSFEEDRESISTANCE	QUANT	0	Positive Feedback Resistance (ohm)
ACHSELECT	IQUANT	0	Ach Select
CABLEID	IQUANT	14	Cable ID
DCCALDATE	LABEL	2/27/2020	DC Calibration Date
ACCALDATE	LABEL	2/27/2020	AC Calibration Date
THERMOSELECT	IQUANT	1	Thermo Select
FRAMEWORKVERSION	QUANT	6.33	Framework Version
INSTRUMENTVERSION	LABEL	3.50	Instrument Version
ZCURVE	TABLE
	Pt	Time	Freq	Zreal	Zimag	Zsig	Zmod	Zphz	Idc	Vdc	IERange
	#	s	Hz	ohm	ohm	V	ohm	°	A	V	#
	0	1	1000078	1861.484	-2088.853	1	2797.933	-48.29413	-1.876398E-006	0.102847	8
	1	3	794390.6	2175.395	-2248.56	1	3128.636	-45.94749	3.421545E-006	0.1019352	8
	2	4	630984.4	2503.832	-2418.276	1	3480.982	-44.00418	-2.741621E-007	0.1022289	8
	3	6	501234.4	2829.321	-2571.537	1	3823.331	-42.26733	-5.022482E-007	0.1023201	8
	4	7	398109.4	3149.796	-2761.536	1	4188.95	-41.24218	-4.081552E-007	0.1022478	8
	5	8	316265.6	3483.456	-2974.281	1	4580.482	-40.49171	-5.718223E-007	0.1024361	8
	6	10	251203.1	3811.555	-3282.817	1	5030.392	-40.73767	1.22549E-006	0.1019227	8
	7	11	199546.9	4186.253	-3628.648	1	5540.018	-40.91878	1.030943E-006	0.1019354	8
	8	12	158578.1	4647.433	-4057.514	1	6169.445	-41.1231	-5.499375E-008	0.1020937	8
	9	14	125953.1	5234.427	-4531.857	1	6923.652	-40.88533	3.232423E-007	0.1012347	7
	10	15	100078.1	5859.722	-5075.043	1	7751.929	-40.89549	-8.291019E-009	0.1021493	7
	11	17	79453.13	6675.833	-5669.564	1	8758.465	-40.34014	9.966042E-008	0.1019515	7
	12	18	63140.62	7649.649	-6276.118	1	9894.79	-39.367	1.067814E-007	0.1018489	7
	13	19	50203.12	8804.528	-6803.987	1	11127.17	-37.69623	9.943266E-008	0.1019188	7
	14	21	39890.62	10124.96	-7183.118	1	12414.18	-35.35367	-4.566853E-008	0.1020774	7
	15	22	31640.63	11583.57	-7390.541	1	13740.43	-32.53865	-1.748054E-008	0.1019804	7
	16	24	25171.88	13061.26	-7381.128	1	15002.59	-29.47149	1.081301E-007	0.1018388	7
	17	26	20015.62	14470.81	-7129.547	1	16131.79	-26.22877	-6.995199E-008	0.1021534	7
	18	27	15890.62	15784.04	-6680.818	1	17139.7	-22.94119	-1.253144E-008	0.1019987	7
	19	29	12609.37	16963.25	-5978.473	1	17985.94	-19.41434	-8.561121E-009	0.1021038	6
	20	30	10078.13	17849.45	-5433.27	1	18658.06	-16.92995	-1.234598E-008	0.1023212	6
	21	32	8015.625	18539.75	-4826.814	1	19157.78	-14.59297	1.406831E-008	0.1018602	6
	22	33	6328.125	19111.61	-4275.147	1	19583.94	-12.60913	1.018683E-009	0.1022223	6
	23	35	5015.625	19516.31	-3818.734	1	19886.41	-11.07112	-2.315568E-009	0.1021987	6
	24	37	3984.375	19806.89	-3473.036	1	20109.08	-9.94541	1.346246E-008	0.1018501	6
	25	38	3170.956	20042.73	-3256.86	1	20305.62	-9.229651	1.340073E-008	0.1019962	6
	26	40	2527.573	20229.53	-3155.714	1	20474.18	-8.866422	-4.497414E-009	0.1022028	6
	27	41	1976.103	20432.94	-3181.801	1	20679.19	-8.85097	-5.767558E-010	0.1019335	6
	28	43	1577.524	20536.65	-3318.896	1	20803.1	-9.180111	-1.24821E-008	0.1023136	6
	29	45	1265.625	20695.93	-3612.552	1	21008.85	-9.90143	1.087853E-008	0.1020615	6
	30	46	998.264	20843.8	-4058.382	1	21235.22	-11.0179	1.263295E-008	0.1020077	6
	31	47	796.875	21021.48	-4644.023	1	21528.35	-12.45758	8.025574E-010	0.1022225	6
	32	49	627.7902	21255.37	-5460.987	1	21945.69	-14.40894	-4.066046E-009	0.1022539	6
	33	50	505.5147	21492.02	-6415.135	1	22429.02	-16.61979	-1.053483E-008	0.1021518	6
	34	52	397.9953	21799.89	-7694.215	1	23117.87	-19.44036	1.788377E-009	0.1020999	6
	35	53	315.5048	22218.94	-9253.648	1	24068.89	-22.61054	1.001888E-009	0.102093	6
	36	54	252.4038	22654.61	-11089.2	1	25223.04	-26.08127	7.310003E-010	0.10209	6
	37	56	198.6229	23276.18	-13500.55	1	26908.09	-30.1144	1.005459E-009	0.1020918	6
	38	57	158.3615	23958.83	-16295.47	1	28975.3	-34.22137	7.517222E-010	0.1020887	6
	39	59	125.558	24805.02	-19783.67	1	31728.26	-38.57471	7.73166E-010	0.1020922	6
	40	60	100.4464	25820.29	-23872.39	1	35165.02	-42.75523	6.236863E-010	0.1020889	6
	41	62	79.00281	27187.76	-29294.42	1	39966.7	-47.13602	2.784781E-010	0.1020828	6
	42	63	63.3446	28572.74	-35476.38	1	45551.89	-51.15197	5.629411E-010	0.1020875	6
	43	65	49.86702	30936.44	-43359.61	1	53264.61	-54.4927	4.811612E-010	0.1020855	6
	44	67	39.72458	33696.61	-52673.16	1	62529.38	-57.39173	7.784592E-010	0.1020882	6
	45	68	31.6723	37262.77	-63765.81	1	73855.22	-59.6993	6.429056E-010	0.1020833	6
	46	69	24.93351	42336.48	-78032.74	1	88777.73	-61.51806	5.102848E-010	0.1020834	6
	47	71	19.86229	48795.45	-94284.41	1	106162.8	-62.63687	6.08282E-010	0.1020872	5
	48	72	15.83615	56575.79	-113676	1	126976.6	-63.54079	1.515849E-009	0.1020822	5
	49	74	12.40079	69193.91	-137610.7	1	154027.6	-63.30567	3.606336E-010	0.1020852	5
	50	75	9.93114	83449.75	-162251.1	1	182453.5	-62.78212	1.901842E-010	0.1020921	5
	51	77	7.944915	102075.3	-190307.8	1	215954.7	-61.79226	6.925256E-010	0.1020955	5
	52	79	6.317385	125302.5	-222678	1	255511.7	-60.63323	-2.910073E-010	0.1021023	5
	53	81	5.008013	154715.5	-258197.9	1	301003.4	-59.06941	-1.110657E-010	0.1020827	5
	54	83	3.945707	190675.5	-296070.3	1	352157.3	-57.21761	5.068014E-010	0.1020862	5
	55	86	3.158693	229762.4	-333902.6	1	405316.8	-55.46767	-1.500092E-010	0.1020691	5
	56	89	2.504006	275045.3	-374726.2	1	464832.9	-53.7217	5.848906E-010	0.1020932	5
	57	92	1.998082	323243.6	-415788.6	1	526656	-52.13769	3.380295E-010	0.1021158	5
	58	95	1.584686	375081.7	-459638.3	1	593256.8	-50.78429	1.493354E-010	0.1020493	5
	59	99	1.266892	427065.1	-509221.3	1	664598.4	-50.01468	3.135618E-010	0.1021086	5
	60	103	0.999041	485771.6	-568490.5	1	747767	-49.48632	-2.224994E-010	0.102065	5
