EXPLAIN
TAG	EISPOT
TITLE	LABEL	Potentiostatic EIS	Test &Identifier
DATE	LABEL	1/25/2020	Date
TIME	LABEL	13:36:41	Time
NOTES	NOTES	6	&Notes...
	
	
	
	
	
	
PSTAT	PSTAT	REF600-11020	Potentiostat
VDC	POTEN	0.00000E+000	T	DC &Voltage (V)
FREQINIT	QUANT	1.00000E+006	Initial Fre&q. (Hz)
FREQFINAL	QUANT	1.00000E+000	Final Fre&q. (Hz)
PTSPERDEC	QUANT	1.00000E+001	Points/&decade
VAC	QUANT	2.50000E+001	AC &Voltage (mV rms)
AREA	QUANT	1.00000E-001	&Area (cm^2)
CONDIT	TWOPARAM	F	5.00000E+000	0.00000E+000	Conditionin&g	Time(s)	E(V)
DELAY	TWOPARAM	F	5.00000E+000	0.00000E+000	Init. De&lay	Time(s)	Stab.(mV/s)
SPEED	SELECTOR	0	&Optimize for:
ZGUESS	QUANT	5.00000E+002	E&stimated Z (ohms)
OCVCURVE	TABLE	39
	Pt	T	Vf	Vm	Ach	Over
	#	s	V vs. Ref.	V	V	bits
	0	0.258333	-1.45171E-002	-1.45171E-002	7.05379E-004	...........
	1	0.516667	-1.45190E-002	-1.46137E-002	7.03845E-004	...........
	2	0.775	-1.45302E-002	-1.47021E-002	7.06112E-004	...........
	3	1.03333	-1.45617E-002	-1.47749E-002	6.97579E-004	...........
	4	1.29167	-1.46166E-002	-1.48453E-002	6.97512E-004	...........
	5	1.55	-1.46870E-002	-1.49121E-002	7.01279E-004	...........
	6	1.80833	-1.47621E-002	-1.49734E-002	7.02012E-004	...........
	7	2.06667	-1.48348E-002	-1.50278E-002	7.00545E-004	...........
	8	2.325	-1.49023E-002	-1.50776E-002	7.00379E-004	...........
	9	2.58333	-1.49639E-002	-1.51249E-002	7.01279E-004	...........
	10	2.84167	-1.50200E-002	-1.51684E-002	7.01312E-004	...........
	11	3.1	-1.50714E-002	-1.52095E-002	7.01079E-004	...........
	12	3.35833	-1.51189E-002	-1.52483E-002	7.03312E-004	...........
	13	3.61667	-1.51632E-002	-1.52840E-002	7.04912E-004	...........
	14	3.875	-1.52045E-002	-1.53141E-002	7.01612E-004	...........
	15	4.13333	-1.52429E-002	-1.53443E-002	7.03812E-004	...........
	16	4.39167	-1.52781E-002	-1.53709E-002	7.02212E-004	...........
	17	4.65	-1.53105E-002	-1.54005E-002	7.01745E-004	...........
	18	4.90833	-1.53407E-002	-1.54255E-002	7.02145E-004	...........
	19	5.16667	-1.53692E-002	-1.54470E-002	7.02712E-004	...........
	20	5.425	-1.53962E-002	-1.54692E-002	7.01579E-004	...........
	21	5.68333	-1.54214E-002	-1.54910E-002	7.05179E-004	...........
	22	5.94167	-1.54449E-002	-1.55114E-002	7.02645E-004	...........
	23	6.2	-1.54673E-002	-1.55327E-002	7.05579E-004	...........
	24	6.45833	-1.54888E-002	-1.55506E-002	7.00679E-004	...........
	25	6.71667	-1.55096E-002	-1.55698E-002	7.07245E-004	...........
	26	6.975	-1.55297E-002	-1.55861E-002	7.03979E-004	...........
	27	7.23333	-1.55489E-002	-1.56041E-002	7.00945E-004	...........
	28	7.49167	-1.55673E-002	-1.56186E-002	7.04812E-004	...........
	29	7.75	-1.55847E-002	-1.56310E-002	7.02012E-004	...........
	30	8.00833	-1.56011E-002	-1.56490E-002	7.01512E-004	...........
	31	8.26667	-1.56167E-002	-1.56626E-002	7.04212E-004	...........
	32	8.525	-1.56317E-002	-1.56758E-002	6.97912E-004	...........
	33	8.78333	-1.56465E-002	-1.56906E-002	7.04745E-004	...........
	34	9.04167	-1.56609E-002	-1.57023E-002	7.05579E-004	...........
	35	9.3	-1.56750E-002	-1.57163E-002	7.05879E-004	...........
	36	9.5583	-1.56886E-002	-1.57294E-002	7.00379E-004	...........
	37	9.8167	-1.57018E-002	-1.57372E-002	7.08279E-004	...........
	38	10.075	-1.57144E-002	-1.57461E-002	7.05645E-004	...........
EOC	QUANT	-0.0157144	Open Circuit (V)
PSTATMODEL	IQUANT	4	Pstat Model
PSTATSECTION	LABEL	REF600-11020	Pstat Section
PSTATSERIALNO	LABEL	11020	Pstat Serial Number
CTRLMODE	IQUANT	1	Control Mode
IESTAB	IQUANT	0	I/E Stability
CASPEED	IQUANT	1	Control Amp Speed
CONVENTION	IQUANT	1	Current Convention
ICHRANGE	IQUANT	2	Ich Range
ICHRANGEMODE	TOGGLE	F	Ich Auto Range
ICHOFFSETENABLE	TOGGLE	T	Ich Offset Enable
ICHOFFSET	QUANT	0	Ich Offset (V)
ICHFILTER	IQUANT	3	Ich Filter
VCHRANGE	IQUANT	2	Vch Range
VCHRANGEMODE	TOGGLE	F	Vch Auto Range
VCHOFFSETENABLE	TOGGLE	T	Vch Offset Enable
VCHOFFSET	QUANT	0	Vch Offset (V)
VCHFILTER	IQUANT	3	Vch Filter
ACHRANGE	IQUANT	2	Ach Range
ACHOFFSETENABLE	TOGGLE	F	Ach Offset Enable
ACHOFFSET	QUANT	0	Ach Offset (V)
ACHFILTER	IQUANT	3	Ach Filter
IERANGELOWERLIMIT	IQUANT	1	I/E Range Lower Limit
IERANGEMODE	TOGGLE	F	I/E AutoRange
IERANGE	IQUANT	7	I/E Range
POSFEEDENABLE	TOGGLE	F	Positive Feedback IR Comp
POSFEEDRESISTANCE	QUANT	0	Positive Feedback Resistance (ohm)
ACHSELECT	IQUANT	0	Ach Select
CABLEID	IQUANT	14	Cable ID
DCCALDATE	LABEL	12/22/2019	DC Calibration Date
ACCALDATE	LABEL	12/22/2019	AC Calibration Date
THERMOSELECT	IQUANT	1	Thermo Select
FRAMEWORKVERSION	QUANT	6.33	Framework Version
INSTRUMENTVERSION	LABEL	3.50	Instrument Version
ZCURVE	TABLE
	Pt	Time	Freq	Zreal	Zimag	Zsig	Zmod	Zphz	Idc	Vdc	IERange
	#	s	Hz	ohm	ohm	V	ohm	°	A	V	#
	0	1	1000078	1983.195	-1319.601	1	2382.102	-33.63945	2.131143E-007	-0.0136619	8
	1	1	794390.6	2213.648	-1295.118	1	2564.677	-30.33021	-1.564218E-006	-0.0135262	8
	2	1	630984.4	2435.218	-1260.044	1	2741.896	-27.35819	9.303832E-007	-0.0141746	8
	3	2	501234.4	2639.741	-1211.386	1	2904.426	-24.65055	1.79968E-007	-0.0141377	8
	4	2	398109.4	2827.469	-1167.284	1	3058.943	-22.43265	5.561082E-007	-0.0141957	8
	5	2	316265.6	2991.403	-1104.031	1	3188.632	-20.2575	-3.482778E-007	-0.0140951	8
	6	2	251203.1	3148.081	-1055.366	1	3320.273	-18.53327	-1.120793E-006	-0.013894	8
	7	3	199546.9	3287.21	-1006.274	1	3437.781	-17.0203	1.927209E-006	-0.0143737	8
	8	3	158578.1	3412.907	-956.884	1	3544.512	-15.66201	6.631194E-007	-0.014264	8
	9	3	125953.1	3551.463	-895.3172	1	3662.579	-14.14933	-1.416912E-007	-0.0135768	7
	10	4	100078.1	3655.264	-869.9548	1	3757.363	-13.38736	9.71777E-009	-0.0142424	7
	11	4	79453.13	3763.334	-862.0912	1	3860.814	-12.9025	1.508258E-008	-0.0142137	7
	12	4	63140.62	3868.101	-860.9589	1	3962.759	-12.5483	-3.330215E-008	-0.0141608	7
	13	5	50203.12	3973.318	-868.923	1	4067.22	-12.33578	-4.309141E-009	-0.0142329	7
	14	5	39890.62	4079.551	-886.1703	1	4174.69	-12.25554	1.256508E-008	-0.0142154	7
	15	5	31640.63	4188.564	-912.3587	1	4286.779	-12.2883	2.873441E-008	-0.0142764	7
	16	6	25171.88	4299.16	-948.2917	1	4402.503	-12.4389	1.465282E-008	-0.0142205	7
	17	6	20015.62	4415.379	-994.238	1	4525.934	-12.68999	-9.825499E-009	-0.0141548	7
	18	6	15890.62	4535.072	-1049.542	1	4654.935	-13.03043	5.975742E-008	-0.0143065	7
	19	7	12609.37	4659.28	-1115.585	1	4790.973	-13.46501	-1.714682E-008	-0.0142012	7
	20	7	10078.13	4781.301	-1198.441	1	4929.209	-14.07137	1.92597E-008	-0.0142003	7
	21	7	8015.625	4913.268	-1292.568	1	5080.446	-14.73923	-2.083818E-009	-0.0142218	7
	22	8	6328.125	5050.437	-1412.094	1	5244.132	-15.6209	-3.202539E-008	-0.0141721	7
	23	8	5015.625	5189.91	-1559.482	1	5419.146	-16.72466	1.511385E-008	-0.0142333	7
	24	8	3984.375	5331.629	-1736.803	1	5607.384	-18.04326	6.017625E-008	-0.0143193	7
	25	8	3170.956	5476.281	-1951.889	1	5813.736	-19.61739	-2.159115E-008	-0.0141897	7
	26	9	2527.573	5620.051	-2213.79	1	6040.351	-21.49994	2.915482E-008	-0.0142977	7
	27	9	1976.103	5784.715	-2573.927	1	6331.511	-23.98682	-8.17179E-009	-0.0141682	7
	28	9	1577.524	5939.236	-2980.077	1	6644.952	-26.64571	-3.176218E-008	-0.0141785	7
	29	10	1265.625	6100.404	-3477.589	1	7022.005	-29.68568	2.51437E-008	-0.0142721	7
	30	10	998.264	6288.754	-4145.486	1	7532.164	-33.39249	1.298246E-008	-0.0142383	7
	31	10	796.875	6489.369	-4934.628	1	8152.451	-37.24998	1.325912E-008	-0.0142362	7
	32	11	627.7902	6730.985	-5981.387	1	9004.618	-41.6254	4.337211E-009	-0.0141803	7
	33	11	505.5147	6987.126	-7142.313	1	9991.63	-45.62926	2.482822E-009	-0.0142087	6
	34	11	397.9953	7319.261	-8730.266	1	11392.5	-50.02428	5.520148E-010	-0.0142069	6
	35	12	315.5048	7707.833	-10641.58	1	13139.79	-54.08371	8.80744E-010	-0.0142105	6
	36	12	252.4038	8162.053	-12898.81	1	15264.29	-57.67537	2.782455E-010	-0.0142124	6
	37	12	198.6229	8761.887	-15883.45	1	18139.86	-61.11728	6.792736E-010	-0.0142174	6
	38	13	158.3615	9464.421	-19361.07	1	21550.55	-63.94887	2.445946E-010	-0.0142148	6
	39	13	125.558	10370.73	-23732.89	1	25899.85	-66.39578	4.818771E-010	-0.014214	6
	40	13	100.4464	11474.48	-28888.08	1	31083.51	-68.3368	8.297124E-010	-0.0142167	6
	41	14	79.00281	12979.26	-35700.57	1	37986.74	-70.02081	3.057301E-010	-0.01422	6
	42	14	63.3446	14673.08	-43053.06	1	45484.78	-71.18017	3.150587E-010	-0.0142185	6
	43	14	49.86702	17236.52	-53157.45	1	55882.13	-72.03451	6.415983E-010	-0.0142164	6
	44	15	39.72458	20248.95	-64967.17	1	68049.64	-72.6888	2.245515E-010	-0.0142163	6
	45	15	31.6723	24141.74	-79115.96	1	82717.34	-73.03076	1.241346E-011	-0.014219	6
	46	15	24.93351	29634.48	-97051.3	1	101474.9	-73.02002	3.717816E-010	-0.0142219	6
	47	16	19.86229	36350.18	-117477.1	1	122972.4	-72.8067	-4.42755E-011	-0.0142228	5
	48	16	15.83615	44389.25	-142495	1	149248.9	-72.69743	-7.403659E-012	-0.0142207	5
	49	16	12.40079	57208.24	-174024.1	1	183186.2	-71.80237	5.034235E-010	-0.0142221	5
	50	16	9.93114	72321.25	-207552	1	219791.2	-70.78916	8.016332E-010	-0.0142206	5
	51	17	7.944915	91741.59	-247425.5	1	263886.1	-69.65599	5.391515E-010	-0.0142228	5
	52	18	6.317385	116934.2	-294709.4	1	317060.3	-68.35791	3.684412E-010	-0.0142315	5
	53	18	5.008013	149714.4	-349663.2	1	380366.6	-66.82097	3.51126E-010	-0.0142214	5
	54	19	3.945707	192708	-412598.1	1	455382.9	-64.96461	-1.486358E-011	-0.0142242	5
	55	21	3.158693	241009.4	-477086.4	1	534506.3	-63.1985	-3.646778E-011	-0.014245	5
	56	22	2.504006	302772.1	-550337.3	1	628125.9	-61.18229	2.028136E-010	-0.0142397	5
	57	24	1.998082	369881.1	-625433.1	1	726621.3	-59.39993	1.107984E-010	-0.0142405	5
	58	25	1.584686	451524.9	-708556.6	1	840194.8	-57.49284	-8.562E-012	-0.0142897	5
	59	27	1.266892	536230.8	-796883.8	1	960504	-56.06301	-2.147127E-011	-0.0142758	5
	60	30	0.999041	633351.8	-899113	1	1099790	-54.83843	-3.802429E-011	-0.0142128	4
