EXPLAIN
TAG	EISPOT
TITLE	LABEL	Potentiostatic EIS	Test &Identifier
DATE	LABEL	1/25/2020	Date
TIME	LABEL	14:19:47	Time
NOTES	NOTES	6	&Notes...
	
	
	
	
	
	
PSTAT	PSTAT	REF600-11020	Potentiostat
VDC	POTEN	0.00000E+000	T	DC &Voltage (V)
FREQINIT	QUANT	1.00000E+006	Initial Fre&q. (Hz)
FREQFINAL	QUANT	1.00000E+000	Final Fre&q. (Hz)
PTSPERDEC	QUANT	1.00000E+001	Points/&decade
VAC	QUANT	2.50000E+001	AC &Voltage (mV rms)
AREA	QUANT	1.00000E-001	&Area (cm^2)
CONDIT	TWOPARAM	F	5.00000E+000	0.00000E+000	Conditionin&g	Time(s)	E(V)
DELAY	TWOPARAM	F	5.00000E+000	0.00000E+000	Init. De&lay	Time(s)	Stab.(mV/s)
SPEED	SELECTOR	0	&Optimize for:
ZGUESS	QUANT	5.00000E+002	E&stimated Z (ohms)
OCVCURVE	TABLE	39
	Pt	T	Vf	Vm	Ach	Over
	#	s	V vs. Ref.	V	V	bits
	0	0.258333	-5.02273E-002	-5.02273E-002	6.50780E-004	...........
	1	0.516667	-5.02270E-002	-5.02155E-002	6.53780E-004	...........
	2	0.775	-5.02251E-002	-5.01750E-002	6.53146E-004	...........
	3	1.03333	-5.02175E-002	-5.01222E-002	6.55813E-004	...........
	4	1.29167	-5.01989E-002	-5.00627E-002	6.45446E-004	...........
	5	1.55	-5.01672E-002	-5.00492E-002	6.54180E-004	...........
	6	1.80833	-5.01276E-002	-5.00451E-002	6.57880E-004	...........
	7	2.06667	-5.00905E-002	-5.00497E-002	6.61946E-004	...........
	8	2.325	-5.00644E-002	-5.00351E-002	6.59246E-004	...........
	9	2.58333	-5.00502E-002	-5.00426E-002	6.57946E-004	...........
	10	2.84167	-5.00437E-002	-5.00401E-002	6.51546E-004	...........
	11	3.1	-5.00412E-002	-5.00472E-002	6.54813E-004	...........
	12	3.35833	-5.00412E-002	-5.00535E-002	6.52246E-004	...........
	13	3.61667	-5.00433E-002	-5.00559E-002	6.55213E-004	...........
	14	3.875	-5.00469E-002	-5.00581E-002	6.57446E-004	...........
	15	4.13333	-5.00511E-002	-5.00645E-002	6.55213E-004	...........
	16	4.39167	-5.00553E-002	-5.00666E-002	6.53246E-004	...........
	17	4.65	-5.00593E-002	-5.00757E-002	6.54246E-004	...........
	18	4.90833	-5.00636E-002	-5.00824E-002	6.53980E-004	...........
	19	5.16667	-5.00688E-002	-5.00883E-002	6.51813E-004	...........
	20	5.425	-5.00748E-002	-5.00949E-002	6.53080E-004	...........
	21	5.68333	-5.00814E-002	-5.01044E-002	6.52313E-004	...........
	22	5.94167	-5.00882E-002	-5.01104E-002	6.51913E-004	...........
	23	6.2	-5.00954E-002	-5.01178E-002	6.44813E-004	...........
	24	6.45833	-5.01027E-002	-5.01268E-002	6.46013E-004	...........
	25	6.71667	-5.01102E-002	-5.01352E-002	6.49513E-004	...........
	26	6.975	-5.01180E-002	-5.01443E-002	6.47613E-004	...........
	27	7.23333	-5.01261E-002	-5.01498E-002	6.50846E-004	...........
	28	7.49167	-5.01343E-002	-5.01575E-002	6.49746E-004	...........
	29	7.75	-5.01422E-002	-5.01644E-002	6.51913E-004	...........
	30	8.00833	-5.01497E-002	-5.01735E-002	6.50546E-004	...........
	31	8.26667	-5.01571E-002	-5.01800E-002	6.50280E-004	...........
	32	8.525	-5.01646E-002	-5.01894E-002	6.49613E-004	...........
	33	8.78333	-5.01723E-002	-5.01967E-002	6.54779E-004	...........
	34	9.04167	-5.01802E-002	-5.02055E-002	6.57113E-004	...........
	35	9.3	-5.01883E-002	-5.02149E-002	6.53346E-004	...........
	36	9.5583	-5.01967E-002	-5.02251E-002	6.58546E-004	...........
	37	9.8167	-5.02054E-002	-5.02346E-002	6.54346E-004	...........
	38	10.075	-5.02146E-002	-5.02417E-002	6.50913E-004	...........
EOC	QUANT	-0.0502146	Open Circuit (V)
PSTATMODEL	IQUANT	4	Pstat Model
PSTATSECTION	LABEL	REF600-11020	Pstat Section
PSTATSERIALNO	LABEL	11020	Pstat Serial Number
CTRLMODE	IQUANT	1	Control Mode
IESTAB	IQUANT	0	I/E Stability
CASPEED	IQUANT	1	Control Amp Speed
CONVENTION	IQUANT	1	Current Convention
ICHRANGE	IQUANT	2	Ich Range
ICHRANGEMODE	TOGGLE	F	Ich Auto Range
ICHOFFSETENABLE	TOGGLE	T	Ich Offset Enable
ICHOFFSET	QUANT	0	Ich Offset (V)
ICHFILTER	IQUANT	3	Ich Filter
VCHRANGE	IQUANT	2	Vch Range
VCHRANGEMODE	TOGGLE	F	Vch Auto Range
VCHOFFSETENABLE	TOGGLE	T	Vch Offset Enable
VCHOFFSET	QUANT	0	Vch Offset (V)
VCHFILTER	IQUANT	3	Vch Filter
ACHRANGE	IQUANT	2	Ach Range
ACHOFFSETENABLE	TOGGLE	F	Ach Offset Enable
ACHOFFSET	QUANT	0	Ach Offset (V)
ACHFILTER	IQUANT	3	Ach Filter
IERANGELOWERLIMIT	IQUANT	1	I/E Range Lower Limit
IERANGEMODE	TOGGLE	F	I/E AutoRange
IERANGE	IQUANT	8	I/E Range
POSFEEDENABLE	TOGGLE	F	Positive Feedback IR Comp
POSFEEDRESISTANCE	QUANT	0	Positive Feedback Resistance (ohm)
ACHSELECT	IQUANT	0	Ach Select
CABLEID	IQUANT	14	Cable ID
DCCALDATE	LABEL	12/22/2019	DC Calibration Date
ACCALDATE	LABEL	12/22/2019	AC Calibration Date
THERMOSELECT	IQUANT	1	Thermo Select
FRAMEWORKVERSION	QUANT	6.33	Framework Version
INSTRUMENTVERSION	LABEL	3.50	Instrument Version
ZCURVE	TABLE
	Pt	Time	Freq	Zreal	Zimag	Zsig	Zmod	Zphz	Idc	Vdc	IERange
	#	s	Hz	ohm	ohm	V	ohm	°	A	V	#
	0	1	1000078	1555.314	-855.0998	1	1774.88	-28.80165	6.229084E-007	-0.0479439	8
	1	1	794390.6	1694.611	-864.7354	1	1902.491	-27.03456	-2.282167E-008	-0.0482762	8
	2	1	630984.4	1834.736	-867.7923	1	2029.611	-25.31318	-3.18875E-007	-0.0483857	8
	3	2	501234.4	1970.595	-861.8725	1	2150.83	-23.62296	-2.88719E-007	-0.0485532	8
	4	2	398109.4	2101.203	-852.0717	1	2267.395	-22.07335	-4.849878E-008	-0.0486107	8
	5	2	316265.6	2227.479	-843.9427	1	2381.995	-20.7506	-8.255313E-008	-0.0486302	8
	6	3	251203.1	2346.166	-829.854	1	2488.605	-19.47901	5.134979E-007	-0.0487444	8
	7	3	199546.9	2457.066	-820.8802	1	2590.563	-18.47394	-1.160749E-006	-0.0484579	8
	8	3	158578.1	2565.136	-816.8957	1	2692.07	-17.66465	-8.86457E-007	-0.0484799	8
	9	4	125953.1	2678.96	-804.7598	1	2797.224	-16.72027	1.208442E-007	-0.0490606	7
	10	4	100078.1	2778.663	-812.8871	1	2895.126	-16.30663	1.313695E-008	-0.0486999	7
	11	4	79453.13	2879.684	-840.268	1	2999.771	-16.26681	-1.519657E-008	-0.0486428	7
	12	5	63140.62	2982.06	-875.0533	1	3107.796	-16.35376	2.531834E-008	-0.0486851	7
	13	5	50203.12	3086.522	-917.4154	1	3219.98	-16.55367	2.570982E-010	-0.0487034	7
	14	5	39890.62	3194.771	-970.971	1	3339.063	-16.90535	9.275167E-010	-0.0486521	7
	15	5	31640.63	3305.225	-1037.085	1	3464.11	-17.42037	-6.900117E-009	-0.0486485	7
	16	6	25171.88	3417.075	-1118.176	1	3595.375	-18.11975	1.234316E-008	-0.0487078	7
	17	6	20015.62	3533.316	-1220.599	1	3738.206	-19.0577	-7.086064E-009	-0.0487228	7
	18	6	15890.62	3658.889	-1349.349	1	3899.771	-20.2433	-2.399932E-008	-0.0486724	7
	19	7	12609.37	3796.804	-1509.341	1	4085.809	-21.67928	-7.789686E-010	-0.0487188	7
	20	7	10078.13	3947.219	-1698.875	1	4297.292	-23.28695	1.791579E-008	-0.048682	7
	21	7	8015.625	4122.122	-1929.254	1	4551.253	-25.08074	-1.869548E-008	-0.0486596	7
	22	8	6328.125	4344.431	-2212.716	1	4875.468	-26.99076	-2.479315E-008	-0.0486723	7
	23	8	5015.625	4601.967	-2536.172	1	5254.547	-28.85942	-1.68327E-008	-0.048676	7
	24	8	3984.375	4916.366	-2907.523	1	5711.772	-30.59993	2.460576E-008	-0.0487002	7
	25	9	3170.956	5284.758	-3299.333	1	6230.109	-31.97699	-1.8697E-008	-0.0486664	7
	26	9	2527.573	5721.125	-3720.171	1	6824.291	-33.034	-2.041955E-008	-0.0486874	7
	27	9	1976.103	6271.473	-4203.285	1	7549.767	-33.8309	1.923101E-008	-0.0486923	7
	28	10	1577.524	6837.318	-4642.1	1	8264.262	-34.17398	-1.470189E-008	-0.0486659	7
	29	10	1265.625	7431.181	-5089.566	1	9007.005	-34.40699	1.054157E-008	-0.0487279	7
	30	10	998.264	8085.613	-5579.681	1	9823.95	-34.60859	-7.067295E-010	-0.0487331	6
	31	11	796.875	8697.843	-6091.208	1	10618.63	-35.00403	-2.788325E-009	-0.0486579	6
	32	11	627.7902	9318.099	-6722.924	1	11490.2	-35.81011	4.616529E-009	-0.0487297	6
	33	11	505.5147	9851.21	-7438.066	1	12343.87	-37.05429	-1.179064E-009	-0.0486533	6
	34	12	397.9953	10411.74	-8434.329	1	13399.34	-39.01019	3.106679E-010	-0.0486976	6
	35	12	315.5048	10951.92	-9689.78	1	14623.15	-41.50099	4.7835E-010	-0.0486985	6
	36	12	252.4038	11498.01	-11234.12	1	16075.13	-44.33489	1.00095E-010	-0.0487022	6
	37	12	198.6229	12142.55	-13339.05	1	18038.07	-47.68836	3.034462E-010	-0.0487039	6
	38	13	158.3615	12850.6	-15843.32	1	20399.73	-50.95431	-7.003863E-012	-0.0487055	6
	39	13	125.558	13725.6	-19032.35	1	23465.35	-54.2019	2.882706E-010	-0.0487028	6
	40	13	100.4464	14773.6	-22818.76	1	27183.73	-57.07967	2.51465E-011	-0.0487035	6
	41	14	79.00281	16167.99	-27791.82	1	32152.6	-59.81114	-5.499307E-011	-0.0487034	6
	42	14	63.3446	17949.88	-33271.51	1	37804.65	-61.65327	3.203687E-010	-0.0487051	6
	43	15	49.86702	20219.91	-40629.85	1	45383.14	-63.54224	4.111999E-011	-0.0487075	6
	44	15	39.72458	22879.22	-49050.1	1	54123.66	-64.99349	1.882179E-010	-0.048709	6
	45	15	31.6723	26343.78	-59085.34	1	64692.14	-65.96983	-2.706932E-011	-0.0487067	6
	46	16	24.93351	31137.93	-71737.95	1	78204.24	-66.53669	1.058748E-010	-0.0487073	6
	47	16	19.86229	36861.35	-86090.97	1	93650.49	-66.82097	-6.336405E-010	-0.0487034	6
	48	16	15.83615	43699.02	-102891	1	111786.2	-66.98849	1.631545E-010	-0.0487083	5
	49	16	12.40079	53947.53	-124176.9	1	135389.3	-66.51791	6.180113E-010	-0.0487082	5
	50	17	9.93114	65454.31	-146708	1	160647.2	-65.95579	6.887949E-010	-0.048715	5
	51	17	7.944915	79810.62	-171443.7	1	189110.2	-65.03703	1.115234E-010	-0.0487168	5
	52	17	6.317385	96953.4	-203218.2	1	225161.2	-64.49466	-1.36743E-011	-0.048707	5
	53	18	5.008013	118694.3	-238464.2	1	266371	-63.53842	1.994308E-010	-0.0486983	5
	54	19	3.945707	145421.8	-279891.4	1	315415.1	-62.54519	-2.13507E-010	-0.0487126	5
	55	20	3.158693	175071.3	-322761.5	1	367185.2	-61.52385	4.681661E-011	-0.048723	5
	56	22	2.504006	210648.3	-373731.7	1	429008.3	-60.59286	1.953973E-010	-0.0487192	5
	57	23	1.998082	250071.4	-428349.3	1	496002.8	-59.72351	-5.615858E-011	-0.0487597	5
	58	25	1.584686	294880.2	-493958.6	1	575282	-59.16392	-5.707732E-011	-0.0487599	5
	59	27	1.266892	342520.7	-564545.7	1	660327.4	-58.75401	9.588127E-012	-0.0487246	5
	60	29	0.999041	400078.8	-651439.4	1	764484.4	-58.44401	3.705473E-011	-0.0486957	5
