EXPLAIN
TAG	EISPOT
TITLE	LABEL	Potentiostatic EIS	Test &Identifier
DATE	LABEL	6/26/2020	Date
TIME	LABEL	12:56:17	Time
NOTES	NOTES	1	&Notes...
	
PSTAT	PSTAT	REF600-11020	Potentiostat
VDC	POTEN	0.00000E+000	T	DC &Voltage (V)
FREQINIT	QUANT	1.00000E+006	Initial Fre&q. (Hz)
FREQFINAL	QUANT	1.00000E+000	Final Fre&q. (Hz)
PTSPERDEC	QUANT	1.00000E+001	Points/&decade
VAC	QUANT	2.50000E+001	AC &Voltage (mV rms)
AREA	QUANT	4.00000E-004	&Area (cm^2)
CONDIT	TWOPARAM	F	5.00000E+000	0.00000E+000	Conditionin&g	Time(s)	E(V)
DELAY	TWOPARAM	F	3.00000E+000	0.00000E+000	Init. De&lay	Time(s)	Stab.(mV/s)
SPEED	SELECTOR	0	&Optimize for:
ZGUESS	QUANT	1.00000E+003	E&stimated Z (ohms)
OCVCURVE	TABLE	39
	Pt	T	Vf	Vm	Ach	Over
	#	s	V vs. Ref.	V	V	bits
	0	0.258333	9.86313E-002	9.86313E-002	5.14683E-004	...........
	1	0.516667	9.86314E-002	9.86364E-002	5.14383E-004	...........
	2	0.775	9.86320E-002	9.86433E-002	5.12783E-004	...........
	3	1.03333	9.86339E-002	9.86477E-002	5.16083E-004	...........
	4	1.29167	9.86375E-002	9.86568E-002	5.08584E-004	...........
	5	1.55	9.86427E-002	9.86738E-002	5.22583E-004	...........
	6	1.80833	9.86499E-002	9.86806E-002	5.13317E-004	...........
	7	2.06667	9.86591E-002	9.86908E-002	5.07817E-004	...........
	8	2.325	9.86696E-002	9.87055E-002	5.16283E-004	...........
	9	2.58333	9.86805E-002	9.87191E-002	5.12750E-004	...........
	10	2.84167	9.86921E-002	9.87266E-002	5.16383E-004	...........
	11	3.1	9.87041E-002	9.87442E-002	5.17950E-004	...........
	12	3.35833	9.87163E-002	9.87573E-002	5.11817E-004	...........
	13	3.61667	9.87291E-002	9.87731E-002	5.11250E-004	...........
	14	3.875	9.87426E-002	9.87873E-002	5.15217E-004	...........
	15	4.13333	9.87568E-002	9.88006E-002	5.16917E-004	...........
	16	4.39167	9.87713E-002	9.88138E-002	5.14283E-004	...........
	17	4.65	9.87856E-002	9.88300E-002	5.15917E-004	...........
	18	4.90833	9.87997E-002	9.88451E-002	5.14650E-004	...........
	19	5.16667	9.88140E-002	9.88606E-002	5.19983E-004	...........
	20	5.425	9.88289E-002	9.88772E-002	5.13617E-004	...........
	21	5.68333	9.88441E-002	9.88931E-002	5.09617E-004	...........
	22	5.94167	9.88598E-002	9.89110E-002	5.17917E-004	...........
	23	6.2	9.88760E-002	9.89293E-002	5.17283E-004	...........
	24	6.45833	9.88926E-002	9.89423E-002	5.21650E-004	...........
	25	6.71667	9.89095E-002	9.89636E-002	5.16850E-004	...........
	26	6.975	9.89265E-002	9.89818E-002	5.22483E-004	...........
	27	7.23333	9.89438E-002	9.89973E-002	5.11884E-004	...........
	28	7.49167	9.89615E-002	9.90148E-002	5.16950E-004	...........
	29	7.75	9.89791E-002	9.90326E-002	5.17850E-004	...........
	30	8.00833	9.89964E-002	9.90478E-002	5.15250E-004	...........
	31	8.26667	9.90136E-002	9.90664E-002	5.18150E-004	...........
	32	8.525	9.90306E-002	9.90853E-002	5.16750E-004	...........
	33	8.78333	9.90479E-002	9.91048E-002	5.13883E-004	...........
	34	9.04167	9.90657E-002	9.91236E-002	5.16717E-004	...........
	35	9.3	9.90842E-002	9.91416E-002	5.16483E-004	...........
	36	9.5583	9.91030E-002	9.91611E-002	5.15583E-004	...........
	37	9.8167	9.91218E-002	9.91774E-002	5.17183E-004	...........
	38	10.075	9.91404E-002	9.91976E-002	5.14417E-004	...........
EOC	QUANT	0.0991404	Open Circuit (V)
PSTATMODEL	IQUANT	4	Pstat Model
PSTATSECTION	LABEL	REF600-11020	Pstat Section
PSTATSERIALNO	LABEL	11020	Pstat Serial Number
CTRLMODE	IQUANT	1	Control Mode
IESTAB	IQUANT	0	I/E Stability
CASPEED	IQUANT	1	Control Amp Speed
CONVENTION	IQUANT	1	Current Convention
ICHRANGE	IQUANT	2	Ich Range
ICHRANGEMODE	TOGGLE	F	Ich Auto Range
ICHOFFSETENABLE	TOGGLE	T	Ich Offset Enable
ICHOFFSET	QUANT	0	Ich Offset (V)
ICHFILTER	IQUANT	3	Ich Filter
VCHRANGE	IQUANT	2	Vch Range
VCHRANGEMODE	TOGGLE	F	Vch Auto Range
VCHOFFSETENABLE	TOGGLE	T	Vch Offset Enable
VCHOFFSET	QUANT	0	Vch Offset (V)
VCHFILTER	IQUANT	3	Vch Filter
ACHRANGE	IQUANT	2	Ach Range
ACHOFFSETENABLE	TOGGLE	F	Ach Offset Enable
ACHOFFSET	QUANT	0	Ach Offset (V)
ACHFILTER	IQUANT	3	Ach Filter
IERANGELOWERLIMIT	IQUANT	1	I/E Range Lower Limit
IERANGEMODE	TOGGLE	F	I/E AutoRange
IERANGE	IQUANT	8	I/E Range
POSFEEDENABLE	TOGGLE	F	Positive Feedback IR Comp
POSFEEDRESISTANCE	QUANT	0	Positive Feedback Resistance (ohm)
ACHSELECT	IQUANT	0	Ach Select
CABLEID	IQUANT	14	Cable ID
DCCALDATE	LABEL	6/26/2020	DC Calibration Date
ACCALDATE	LABEL	6/26/2020	AC Calibration Date
THERMOSELECT	IQUANT	1	Thermo Select
FRAMEWORKVERSION	QUANT	6.33	Framework Version
INSTRUMENTVERSION	LABEL	3.50	Instrument Version
ZCURVE	TABLE
	Pt	Time	Freq	Zreal	Zimag	Zsig	Zmod	Zphz	Idc	Vdc	IERange
	#	s	Hz	ohm	ohm	V	ohm	°	A	V	#
	0	1	1000078	1421.869	-2105.262	1	2540.441	-55.96536	3.281797E-007	0.1018021	8
	1	1	794390.6	1619.098	-2422.858	1	2914.055	-56.24679	-1.280781E-007	0.1014629	8
	2	2	630984.4	1840.822	-2798.263	1	3349.463	-56.6613	-5.23787E-008	0.1012859	8
	3	2	501234.4	2093.053	-3250.763	1	3866.307	-57.22392	1.367803E-007	0.1011745	8
	4	2	398109.4	2379.994	-3797.346	1	4481.541	-57.92249	1.17046E-007	0.1011047	8
	5	3	316265.6	2715.48	-4450.126	1	5213.2	-58.60833	5.505795E-008	0.1010611	8
	6	3	251203.1	3140.353	-5266.766	1	6131.936	-59.19414	-3.285719E-008	0.1010364	8
	7	3	199546.9	3689.651	-6214.033	1	7226.875	-59.2998	-1.483119E-008	0.1010411	8
	8	4	158578.1	4373.342	-7344.797	1	8548.227	-59.22899	-2.736126E-008	0.1010365	8
	9	4	125953.1	5421.587	-8582.063	1	10151.13	-57.71798	-1.74232E-009	0.1010885	7
	10	4	100078.1	6625.975	-10038.64	1	12028.21	-56.57331	-2.355621E-008	0.101036	7
	11	5	79453.13	8171.479	-11558	1	14154.88	-54.73978	1.328052E-008	0.1010057	7
	12	5	63140.62	10116.18	-13108.82	1	16558.33	-52.34235	1.862297E-008	0.1009956	7
	13	5	50203.12	12499.14	-14567.59	1	19194.87	-49.37009	2.574159E-008	0.1009673	7
	14	6	39890.62	15310.48	-15751.54	1	21966.38	-45.8135	-6.726579E-009	0.1010187	7
	15	6	31640.63	18434.29	-16640.17	1	24833.81	-42.07178	6.042971E-009	0.1009663	7
	16	6	25171.88	21672.65	-16955.6	1	27517.2	-38.03785	1.375324E-008	0.1009954	7
	17	7	20015.62	24941.63	-16923.31	1	30141.06	-34.15755	-2.270532E-008	0.1010155	7
	18	7	15890.62	27989.74	-16414.21	1	32447.67	-30.38892	7.156817E-010	0.1010056	7
	19	7	12609.37	31082.77	-15417.13	1	34696.2	-26.38153	1.622147E-009	0.1009295	6
	20	7	10078.13	33459.2	-14569.59	1	36493.71	-23.5304	-1.927524E-009	0.1009822	6
	21	8	8015.625	35606.42	-13666.38	1	38139.05	-20.9977	4.562126E-010	0.1009365	6
	22	8	6328.125	37529.44	-12748.97	1	39635.78	-18.76293	-1.248068E-009	0.101026	6
	23	8	5015.625	39236.7	-11955.61	1	41017.74	-16.94624	4.091754E-010	0.1009322	6
	24	9	3984.375	40716.6	-11245.73	1	42241.07	-15.43989	1.484468E-009	0.100924	6
	25	9	3170.956	42053.2	-10676.87	1	43387.41	-14.2458	2.663679E-009	0.1009227	6
	26	9	2527.573	43300.31	-10245.54	1	44495.93	-13.31226	-1.115184E-010	0.1010128	6
	27	10	1976.103	44588.69	-9912.95	1	45677.32	-12.53413	2.391921E-009	0.1009755	6
	28	10	1577.524	45660.05	-9714.73	1	46682.08	-12.01127	1.010808E-009	0.1009983	6
	29	10	1265.625	46690.92	-9654.18	1	47678.56	-11.6823	4.031349E-009	0.1009437	6
	30	11	998.264	47758.77	-9714.99	1	48736.86	-11.49811	1.425874E-009	0.1009233	6
	31	11	796.875	48711.2	-9930.77	1	49713.19	-11.523	4.310596E-009	0.1009238	6
	32	11	627.7902	49662.98	-10341.84	1	50728.34	-11.76319	3.980887E-009	0.1009418	6
	33	12	505.5147	50430.76	-10971.99	1	51610.52	-12.2743	-3.640884E-009	0.1010191	6
	34	12	397.9953	51254.19	-12000.97	1	52640.44	-13.17818	3.771986E-010	0.100991	6
	35	12	315.5048	52057.03	-13389.33	1	53751.36	-14.42411	4.138516E-010	0.1009914	6
	36	12	252.4038	52831.38	-15158.02	1	54962.9	-16.00888	3.792368E-010	0.1009894	6
	37	13	198.6229	53791.93	-17625.24	1	56605.84	-18.14168	3.59311E-010	0.1009889	6
	38	13	158.3615	54787.66	-20588.44	1	58528.38	-20.59552	2.293866E-010	0.1009856	6
	39	13	125.558	56003.91	-24370.62	1	61076.71	-23.51671	3.605253E-010	0.1009846	6
	40	14	100.4464	57375.35	-28843.94	1	64217.63	-26.68975	2.235557E-010	0.1009872	6
	41	14	79.00281	59152.6	-34745.28	1	68602.22	-30.42929	1.614356E-010	0.1009856	6
	42	14	63.3446	61213.89	-41398.78	1	73898.58	-34.07037	4.258417E-013	0.1009847	6
	43	15	49.86702	63876.89	-50126.62	1	81196.9	-38.12262	-1.172859E-010	0.1009801	6
	44	15	39.72458	67147.36	-60246.14	1	90212.89	-41.89918	-1.415086E-010	0.1009847	6
	45	15	31.6723	71278.24	-72343.88	1	101559	-45.42511	-3.873425E-010	0.1009739	5
	46	16	24.93351	76848.2	-87832.83	1	116705.8	-48.81612	1.286899E-010	0.1009728	5
	47	16	19.86229	83775.91	-105601.9	1	134796.7	-51.57439	8.050891E-010	0.1009756	5
	48	16	15.83615	92745.86	-126419.5	1	156791.9	-53.7349	6.154565E-011	0.1009749	5
	49	17	12.40079	105259.7	-152928.6	1	185652.3	-55.46063	-1.061951E-010	0.1009742	5
	50	17	9.93114	119902.5	-180711.4	1	216871.4	-56.43561	6.321515E-010	0.1009774	5
	51	17	7.944915	138297.6	-213153.5	1	254087.9	-57.0238	4.796424E-011	0.1009698	5
	52	18	6.317385	161842.7	-250441.1	1	298184.1	-57.12822	-1.259428E-010	0.1009771	5
	53	18	5.008013	191214.1	-292692.3	1	349616.4	-56.84366	1.496437E-010	0.1009856	5
	54	19	3.945707	227970.6	-341011.7	1	410194.6	-56.23677	9.297729E-011	0.1009671	5
	55	20	3.158693	267735.6	-390226.5	1	473243.1	-55.54586	7.87239E-011	0.1009861	5
	56	21	2.504006	316446.7	-446632.2	1	547374.5	-54.68177	-1.611161E-010	0.1009608	5
	57	23	1.998082	368360.5	-506595.3	1	626361.1	-53.97799	-1.314942E-010	0.1009485	5
	58	24	1.584686	430606.7	-573795	1	717400.1	-53.11346	1.092561E-011	0.1009964	5
	59	26	1.266892	497001.9	-648827.2	1	817305.1	-52.54787	4.109945E-011	0.100996	5
	60	29	0.999041	574571.2	-737395.4	1	934817.7	-52.07463	6.073606E-011	0.1009739	5
