EXPLAIN
TAG	EISPOT
TITLE	LABEL	Potentiostatic EIS	Test &Identifier
DATE	LABEL	6/1/2020	Date
TIME	LABEL	13:44:14	Time
NOTES	NOTES	1	&Notes...
	
PSTAT	PSTAT	REF600-11020	Potentiostat
VDC	POTEN	0.00000E+000	T	DC &Voltage (V)
FREQINIT	QUANT	1.00000E+006	Initial Fre&q. (Hz)
FREQFINAL	QUANT	1.00000E+000	Final Fre&q. (Hz)
PTSPERDEC	QUANT	1.00000E+001	Points/&decade
VAC	QUANT	2.50000E+001	AC &Voltage (mV rms)
AREA	QUANT	4.00000E-004	&Area (cm^2)
CONDIT	TWOPARAM	F	5.00000E+000	0.00000E+000	Conditionin&g	Time(s)	E(V)
DELAY	TWOPARAM	T	3.00000E+000	0.00000E+000	Init. De&lay	Time(s)	Stab.(mV/s)
SPEED	SELECTOR	0	&Optimize for:
ZGUESS	QUANT	1.00000E+003	E&stimated Z (ohms)
OCVCURVE	TABLE	12
	Pt	T	Vf	Vm	Ach	Over
	#	s	V vs. Ref.	V	V	bits
	0	0.258333	-7.46182E-002	-7.46182E-002	5.34364E-004	...........
	1	0.516667	-7.46182E-002	-7.46194E-002	5.27897E-004	...........
	2	0.775	-7.46183E-002	-7.46201E-002	5.35864E-004	...........
	3	1.03333	-7.46187E-002	-7.46202E-002	5.28664E-004	...........
	4	1.29167	-7.46191E-002	-7.46160E-002	5.34264E-004	...........
	5	1.55	-7.46191E-002	-7.46091E-002	5.27564E-004	...........
	6	1.80833	-7.46178E-002	-7.46077E-002	5.33064E-004	...........
	7	2.06667	-7.46150E-002	-7.46031E-002	5.27364E-004	...........
	8	2.325	-7.46113E-002	-7.45958E-002	5.31131E-004	...........
	9	2.58333	-7.46070E-002	-7.45905E-002	5.26131E-004	...........
	10	2.84167	-7.46021E-002	-7.45848E-002	5.29497E-004	...........
	11	3.1	-7.45966E-002	-7.45759E-002	5.29664E-004	...........
EOC	QUANT	-0.0745966	Open Circuit (V)
PSTATMODEL	IQUANT	4	Pstat Model
PSTATSECTION	LABEL	REF600-11020	Pstat Section
PSTATSERIALNO	LABEL	11020	Pstat Serial Number
CTRLMODE	IQUANT	1	Control Mode
IESTAB	IQUANT	0	I/E Stability
CASPEED	IQUANT	1	Control Amp Speed
CONVENTION	IQUANT	1	Current Convention
ICHRANGE	IQUANT	2	Ich Range
ICHRANGEMODE	TOGGLE	F	Ich Auto Range
ICHOFFSETENABLE	TOGGLE	T	Ich Offset Enable
ICHOFFSET	QUANT	0	Ich Offset (V)
ICHFILTER	IQUANT	3	Ich Filter
VCHRANGE	IQUANT	2	Vch Range
VCHRANGEMODE	TOGGLE	F	Vch Auto Range
VCHOFFSETENABLE	TOGGLE	T	Vch Offset Enable
VCHOFFSET	QUANT	0	Vch Offset (V)
VCHFILTER	IQUANT	3	Vch Filter
ACHRANGE	IQUANT	2	Ach Range
ACHOFFSETENABLE	TOGGLE	F	Ach Offset Enable
ACHOFFSET	QUANT	0	Ach Offset (V)
ACHFILTER	IQUANT	3	Ach Filter
IERANGELOWERLIMIT	IQUANT	1	I/E Range Lower Limit
IERANGEMODE	TOGGLE	F	I/E AutoRange
IERANGE	IQUANT	8	I/E Range
POSFEEDENABLE	TOGGLE	F	Positive Feedback IR Comp
POSFEEDRESISTANCE	QUANT	0	Positive Feedback Resistance (ohm)
ACHSELECT	IQUANT	0	Ach Select
CABLEID	IQUANT	14	Cable ID
DCCALDATE	LABEL	2/27/2020	DC Calibration Date
ACCALDATE	LABEL	2/27/2020	AC Calibration Date
THERMOSELECT	IQUANT	1	Thermo Select
FRAMEWORKVERSION	QUANT	6.33	Framework Version
INSTRUMENTVERSION	LABEL	3.50	Instrument Version
ZCURVE	TABLE
	Pt	Time	Freq	Zreal	Zimag	Zsig	Zmod	Zphz	Idc	Vdc	IERange
	#	s	Hz	ohm	ohm	V	ohm	°	A	V	#
	0	1	1000078	1596.046	-2343.07	1	2835.02	-55.7382	4.047797E-008	-0.0722067	8
	1	1	794390.6	1906.971	-2653.062	1	3267.305	-54.29213	6.390762E-008	-0.072507	8
	2	1	630984.4	2251.255	-2990.722	1	3743.336	-53.02953	4.157663E-008	-0.0726595	8
	3	2	501234.4	2638.825	-3358.216	1	4270.95	-51.84039	2.400126E-008	-0.072735	8
	4	2	398109.4	3072.437	-3769.182	1	4862.777	-50.8149	9.277721E-008	-0.0728259	8
	5	2	316265.6	3555.347	-4233.259	1	5528.198	-49.97443	4.992063E-008	-0.0728367	8
	6	3	251203.1	4134.486	-4749.536	1	6296.988	-48.96033	3.802025E-008	-0.0728403	8
	7	3	199546.9	4793.64	-5328.988	1	7167.782	-48.02734	6.14361E-008	-0.0728129	8
	8	3	158578.1	5605.178	-5938.497	1	8166.012	-46.65393	6.393084E-008	-0.0728325	8
	9	4	125953.1	6668.131	-6513.918	1	9321.754	-44.32974	5.668861E-010	-0.0728931	7
	10	4	100078.1	7760.29	-7130.509	1	10538.8	-42.57822	3.5731E-009	-0.0728967	7
	11	4	79453.13	9052.616	-7683.177	1	11873.54	-40.32208	3.08209E-009	-0.0729069	7
	12	5	63140.62	10504.97	-8107.371	1	13269.66	-37.65972	3.124919E-009	-0.0729148	7
	13	5	50203.12	12064.68	-8364.846	1	14680.85	-34.73486	3.052564E-009	-0.0729279	7
	14	5	39890.62	13678.98	-8407.701	1	16056.27	-31.57671	3.511218E-009	-0.0729229	7
	15	6	31640.63	15297.84	-8242.409	1	17377.04	-28.31559	5.110653E-009	-0.0729187	7
	16	6	25171.88	16798.91	-7866.738	1	18549.63	-25.09316	4.235377E-009	-0.0729186	7
	17	6	20015.62	18119.92	-7311.665	1	19539.5	-21.97482	3.29603E-009	-0.0729241	7
	18	7	15890.62	19263.91	-6685.44	1	20391.01	-19.13906	2.880666E-009	-0.0729267	7
	19	7	12609.37	20350.08	-5828.743	1	21168.37	-15.98296	6.872281E-010	-0.0728712	6
	20	7	10078.13	21059.22	-5260.791	1	21706.38	-14.02596	4.804854E-010	-0.0728764	6
	21	8	8015.625	21637.71	-4756.212	1	22154.28	-12.3971	3.742193E-010	-0.0728783	6
	22	8	6328.125	22104.23	-4331.379	1	22524.6	-11.08678	6.059696E-010	-0.0728778	6
	23	8	5015.625	22481.65	-4031.243	1	22840.22	-10.16582	4.631375E-010	-0.0728748	6
	24	8	3984.375	22798.45	-3849.186	1	23121.11	-9.58318	2.804513E-010	-0.0728804	6
	25	9	3170.956	23074.63	-3788.326	1	23383.54	-9.323482	1.234075E-010	-0.0728818	6
	26	9	2527.573	23322.02	-3845.551	1	23636.94	-9.363209	3.102996E-010	-0.0728873	6
	27	9	1976.103	23582.91	-4048.995	1	23927.97	-9.74224	7.095672E-010	-0.0728735	6
	28	10	1577.524	23824.21	-4375	1	24222.58	-10.40568	3.745205E-010	-0.0728786	6
	29	10	1265.625	24078.58	-4834.984	1	24559.21	-11.35401	3.163864E-010	-0.0728847	6
	30	10	998.264	24356.73	-5503.308	1	24970.72	-12.73197	-4.541445E-011	-0.0728905	6
	31	11	796.875	24658.19	-6337.041	1	25459.46	-14.41285	8.041416E-011	-0.0728916	6
	32	11	627.7902	25029.69	-7461.985	1	26118.32	-16.60065	2.825747E-010	-0.0728859	6
	33	11	505.5147	25414.93	-8742.749	1	26876.65	-18.98324	4.113925E-010	-0.0728812	6
	34	12	397.9953	25925.87	-10490.99	1	27968.05	-22.03088	4.642685E-010	-0.0728665	6
	35	12	315.5048	26519.28	-12593.46	1	29357.58	-25.40208	5.151324E-010	-0.0728706	6
	36	12	252.4038	27227.88	-15061.52	1	31116.02	-28.94985	3.885902E-010	-0.0728721	6
	37	13	198.6229	28168.27	-18297.19	1	33589.27	-33.00644	3.354535E-010	-0.0728739	6
	38	13	158.3615	29285.7	-22024.54	1	36643.31	-36.94529	1.841274E-010	-0.0728714	6
	39	13	125.558	30718.84	-26644.86	1	40664.43	-40.93767	2.142335E-010	-0.0728709	6
	40	14	100.4464	32455.8	-31985.88	1	45568.36	-44.58219	2.234096E-010	-0.0728723	6
	41	14	79.00281	34832.71	-38895.44	1	52212.77	-48.15405	1.847036E-010	-0.0728736	6
	42	14	63.3446	37592.24	-46496.13	1	59791.86	-51.04437	1.861584E-010	-0.0728773	6
	43	15	49.86702	41363.8	-56298.51	1	69860.48	-53.69443	5.738971E-011	-0.0728794	6
	44	15	39.72458	45893.6	-67384.65	1	81528.6	-55.74243	1.646314E-010	-0.0728749	6
	45	15	31.6723	51537.03	-80415.55	1	95513	-57.34485	3.80952E-010	-0.0728727	6
	46	16	24.93351	59086.36	-96571.1	1	113213	-58.53991	-5.955006E-010	-0.0728715	5
	47	16	19.86229	68076.89	-114682.7	1	133366.3	-59.30616	-3.715278E-010	-0.0728773	5
	48	16	15.83615	79284.1	-135634.4	1	157107.1	-59.69189	-5.727869E-010	-0.0728752	5
	49	17	12.40079	94577.3	-161774.4	1	187392.1	-59.68839	-1.105984E-009	-0.0728739	5
	50	17	9.93114	111491.3	-188735.3	1	219206.1	-59.42845	-9.347536E-010	-0.0728796	5
	51	17	7.944915	132534.8	-219248	1	256193.7	-58.84716	3.086205E-010	-0.0728756	5
	52	18	6.317385	158432.3	-254453.8	1	299745.7	-58.09209	-2.62552E-010	-0.0728699	5
	53	18	5.008013	189876.7	-293910.5	1	349909.3	-57.13609	-4.818806E-010	-0.0728835	5
	54	19	3.945707	228437.3	-337866	1	407844.3	-55.93666	-1.52217E-010	-0.0728751	5
	55	20	3.158693	269423.3	-383175.1	1	468414.4	-54.88766	-3.093452E-010	-0.0728923	5
	56	21	2.504006	318634.7	-433648.5	1	538125.5	-53.69243	-1.650343E-011	-0.0728943	5
	57	23	1.998082	371101.4	-487985.3	1	613062.7	-52.74786	4.528163E-011	-0.0728724	5
	58	24	1.584686	432390.4	-547455	1	697616.3	-51.69765	-8.922073E-011	-0.0729199	5
	59	26	1.266892	498935	-613592	1	790842.1	-50.88413	-1.345613E-010	-0.0729277	5
	60	29	0.999041	575691.9	-692338.6	1	900418.8	-50.25587	-1.602953E-010	-0.0729221	5
