EXPLAIN
TAG	EISPOT
TITLE	LABEL	Potentiostatic EIS	Test &Identifier
DATE	LABEL	7/5/2020	Date
TIME	LABEL	17:39:41	Time
NOTES	NOTES	1	&Notes...
	
PSTAT	PSTAT	REF600-11020	Potentiostat
VDC	POTEN	0.00000E+000	T	DC &Voltage (V)
FREQINIT	QUANT	1.00000E+006	Initial Fre&q. (Hz)
FREQFINAL	QUANT	1.00000E+000	Final Fre&q. (Hz)
PTSPERDEC	QUANT	1.00000E+001	Points/&decade
VAC	QUANT	2.50000E+001	AC &Voltage (mV rms)
AREA	QUANT	4.00000E-004	&Area (cm^2)
CONDIT	TWOPARAM	F	5.00000E+000	0.00000E+000	Conditionin&g	Time(s)	E(V)
DELAY	TWOPARAM	F	3.00000E+000	0.00000E+000	Init. De&lay	Time(s)	Stab.(mV/s)
SPEED	SELECTOR	0	&Optimize for:
ZGUESS	QUANT	1.00000E+003	E&stimated Z (ohms)
OCVCURVE	TABLE	39
	Pt	T	Vf	Vm	Ach	Over
	#	s	V vs. Ref.	V	V	bits
	0	0.258333	8.01613E-002	8.01613E-002	5.13783E-004	...........
	1	0.516667	8.01609E-002	8.01416E-002	5.08483E-004	...........
	2	0.775	8.01603E-002	8.02102E-002	5.12517E-004	...........
	3	1.03333	8.01655E-002	8.03551E-002	5.11317E-004	...........
	4	1.29167	8.01883E-002	8.02893E-002	5.12717E-004	...........
	5	1.55	8.02253E-002	8.01294E-002	5.11584E-004	...........
	6	1.80833	8.02483E-002	8.01381E-002	5.12484E-004	...........
	7	2.06667	8.02354E-002	8.01296E-002	5.12883E-004	...........
	8	2.325	8.01977E-002	8.01224E-002	5.11250E-004	...........
	9	2.58333	8.01605E-002	8.01174E-002	5.11884E-004	...........
	10	2.84167	8.01363E-002	8.01186E-002	5.08250E-004	...........
	11	3.1	8.01239E-002	8.01065E-002	5.15383E-004	...........
	12	3.35833	8.01180E-002	8.01115E-002	5.13850E-004	...........
	13	3.61667	8.01143E-002	8.01017E-002	5.13350E-004	...........
	14	3.875	8.01111E-002	8.01028E-002	5.07817E-004	...........
	15	4.13333	8.01078E-002	8.00901E-002	5.12617E-004	...........
	16	4.39167	8.01042E-002	8.01038E-002	5.15317E-004	...........
	17	4.65	8.01008E-002	8.00963E-002	5.08350E-004	...........
	18	4.90833	8.00986E-002	8.00867E-002	5.13050E-004	...........
	19	5.16667	8.00968E-002	8.00888E-002	5.16050E-004	...........
	20	5.425	8.00944E-002	8.00872E-002	5.17950E-004	...........
	21	5.68333	8.00913E-002	8.00760E-002	5.12117E-004	...........
	22	5.94167	8.00876E-002	8.00641E-002	5.12983E-004	...........
	23	6.2	8.00829E-002	8.00746E-002	5.15617E-004	...........
	24	6.45833	8.00777E-002	8.00763E-002	5.17017E-004	...........
	25	6.71667	8.00743E-002	8.00819E-002	5.13050E-004	...........
	26	6.975	8.00739E-002	8.00733E-002	5.09950E-004	...........
	27	7.23333	8.00753E-002	8.00783E-002	5.16383E-004	...........
	28	7.49167	8.00765E-002	8.00777E-002	5.13184E-004	...........
	29	7.75	8.00773E-002	8.00887E-002	5.12850E-004	...........
	30	8.00833	8.00785E-002	8.00825E-002	5.13550E-004	...........
	31	8.26667	8.00805E-002	8.00803E-002	5.17050E-004	...........
	32	8.525	8.00822E-002	8.00846E-002	5.16583E-004	...........
	33	8.78333	8.00835E-002	8.01145E-002	5.15383E-004	...........
	34	9.04167	8.00870E-002	8.01267E-002	5.17750E-004	...........
	35	9.3	8.00953E-002	8.01328E-002	5.15650E-004	...........
	36	9.5583	8.01073E-002	8.01248E-002	5.12817E-004	...........
	37	9.8167	8.01182E-002	8.01245E-002	5.14250E-004	...........
	38	10.075	8.01242E-002	8.01031E-002	5.14517E-004	...........
EOC	QUANT	0.0801242	Open Circuit (V)
PSTATMODEL	IQUANT	4	Pstat Model
PSTATSECTION	LABEL	REF600-11020	Pstat Section
PSTATSERIALNO	LABEL	11020	Pstat Serial Number
CTRLMODE	IQUANT	1	Control Mode
IESTAB	IQUANT	0	I/E Stability
CASPEED	IQUANT	1	Control Amp Speed
CONVENTION	IQUANT	1	Current Convention
ICHRANGE	IQUANT	2	Ich Range
ICHRANGEMODE	TOGGLE	F	Ich Auto Range
ICHOFFSETENABLE	TOGGLE	T	Ich Offset Enable
ICHOFFSET	QUANT	0	Ich Offset (V)
ICHFILTER	IQUANT	3	Ich Filter
VCHRANGE	IQUANT	2	Vch Range
VCHRANGEMODE	TOGGLE	F	Vch Auto Range
VCHOFFSETENABLE	TOGGLE	T	Vch Offset Enable
VCHOFFSET	QUANT	0	Vch Offset (V)
VCHFILTER	IQUANT	3	Vch Filter
ACHRANGE	IQUANT	2	Ach Range
ACHOFFSETENABLE	TOGGLE	F	Ach Offset Enable
ACHOFFSET	QUANT	0	Ach Offset (V)
ACHFILTER	IQUANT	3	Ach Filter
IERANGELOWERLIMIT	IQUANT	1	I/E Range Lower Limit
IERANGEMODE	TOGGLE	F	I/E AutoRange
IERANGE	IQUANT	8	I/E Range
POSFEEDENABLE	TOGGLE	F	Positive Feedback IR Comp
POSFEEDRESISTANCE	QUANT	0	Positive Feedback Resistance (ohm)
ACHSELECT	IQUANT	0	Ach Select
CABLEID	IQUANT	14	Cable ID
DCCALDATE	LABEL	6/26/2020	DC Calibration Date
ACCALDATE	LABEL	6/26/2020	AC Calibration Date
THERMOSELECT	IQUANT	1	Thermo Select
FRAMEWORKVERSION	QUANT	6.33	Framework Version
INSTRUMENTVERSION	LABEL	3.50	Instrument Version
ZCURVE	TABLE
	Pt	Time	Freq	Zreal	Zimag	Zsig	Zmod	Zphz	Idc	Vdc	IERange
	#	s	Hz	ohm	ohm	V	ohm	°	A	V	#
	0	1	1000078	1540.829	-2183.487	1	2672.409	-54.79039	2.815084E-006	0.0824835	8
	1	1	794390.6	1852.932	-2455.805	1	3076.416	-52.96504	-1.860027E-007	0.0826734	8
	2	2	630984.4	2228.24	-2756.827	1	3544.736	-51.05269	-4.130975E-006	0.0826592	8
	3	2	501234.4	2662.104	-3079.101	1	4070.339	-49.15424	7.097739E-007	0.0814365	8
	4	2	398109.4	3182.049	-3407.754	1	4662.427	-46.96165	-5.073818E-006	0.0820689	8
	5	3	316265.6	3792.744	-3676.68	1	5282.318	-44.10978	4.568711E-006	0.0817554	8
	6	3	251203.1	4491.386	-3913.089	1	5956.913	-41.06379	-4.940994E-006	0.0820136	8
	7	3	199546.9	5306.726	-4083.692	1	6696.109	-37.57941	7.267885E-006	0.0809801	8
	8	4	158578.1	6051.004	-4114.758	1	7317.505	-34.21619	-2.921824E-006	0.0816513	8
	9	4	125953.1	6767.054	-3905.083	1	7812.982	-29.98808	-1.579533E-006	0.0832488	7
	10	5	100078.1	7691.724	-3917.407	1	8631.842	-26.98981	1.495058E-006	0.0801765	7
	11	5	79453.13	8373.684	-3606.891	1	9117.469	-23.30354	1.350313E-006	0.0793928	7
	12	5	63140.62	8892.966	-3321.871	1	9493.138	-20.48263	4.791023E-007	0.082467	7
	13	6	50203.12	9296.506	-2880.185	1	9732.45	-17.2137	-9.51589E-007	0.0813918	7
	14	6	39890.62	9768.85	-2647.488	1	10121.25	-15.16366	4.802301E-007	0.0824633	7
	15	6	31640.63	10135.6	-2334.121	1	10400.89	-12.96851	1.489229E-006	0.0797013	7
	16	7	25171.88	10389.24	-2081.176	1	10595.64	-11.32758	1.489182E-006	0.0796949	7
	17	7	20015.62	10402.35	-1812.526	1	10559.08	-9.8841	-3.858113E-007	0.0804761	7
	18	7	15890.62	10685.79	-1680.078	1	10817.06	-8.935211	1.082046E-006	0.0792514	7
	19	8	12609.37	10705.07	-1555.552	1	10817.5	-8.267773	-1.23712E-006	0.0839185	7
	20	8	10078.13	10984.92	-1525.787	1	11090.37	-7.907694	1.100799E-006	0.0814151	7
	21	8	8015.625	11102.46	-1501.897	1	11203.58	-7.703982	1.076134E-006	0.0814242	7
	22	8	6328.125	11053.63	-1490.872	1	11153.72	-7.681486	-7.800829E-007	0.0836364	7
	23	9	5015.625	11210.05	-1566.746	1	11319	-7.956271	2.107591E-007	0.078333	6
	24	9	3984.375	11341.72	-1696.876	1	11467.95	-8.509117	4.737407E-008	0.0834256	6
	25	9	3170.956	11311.55	-1863.568	1	11464.03	-9.355392	-9.585556E-008	0.0804308	6
	26	10	2527.573	11550.63	-2120.581	1	11743.68	-10.40309	1.176161E-007	0.0823672	6
	27	10	1976.103	11667.66	-2470.46	1	11926.34	-11.95499	1.740825E-007	0.0812892	6
	28	10	1577.524	11720.61	-2876.285	1	12068.37	-13.78814	1.753398E-007	0.0781179	6
	29	11	1265.625	11918.01	-3396.547	1	12392.56	-15.90717	1.176108E-007	0.0823727	6
	30	11	998.264	12078.97	-4083.507	1	12750.55	-18.67872	4.637656E-008	0.0834332	6
	31	11	796.875	12266.44	-4891.71	1	13205.85	-21.74152	2.265898E-007	0.079517	6
	32	12	627.7902	12510.03	-5959.007	1	13856.79	-25.47025	4.648471E-008	0.0834307	6
	33	12	505.5147	12795.9	-7142.481	1	14654.35	-29.16961	1.758404E-007	0.0812508	6
	34	12	397.9953	13093.55	-8719.697	1	15731.31	-33.66179	1.300919E-010	0.0816776	6
	35	13	315.5048	13543.19	-10618.44	1	17209.57	-38.09795	4.202437E-010	0.0816769	6
	36	13	252.4038	14080.21	-12838.75	1	19054.81	-42.3595	4.913463E-010	0.0816611	6
	37	13	198.6229	14802.51	-15745.76	1	21611.18	-46.76857	-1.641998E-010	0.0816764	6
	38	14	158.3615	15660.12	-19099.14	1	24698.51	-50.65036	-1.329385E-010	0.0816719	6
	39	14	125.558	16768.86	-23274.14	1	28685.89	-54.22751	4.723648E-010	0.0816621	6
	40	14	100.4464	18097.09	-28147.76	1	33463.43	-57.26175	5.517667E-010	0.0816546	6
	41	14	79.00281	19934.38	-34497.38	1	39842.8	-59.97844	9.78359E-011	0.0816632	6
	42	15	63.3446	22320.03	-41583.86	1	47195.34	-61.77544	-3.245167E-010	0.0816667	6
	43	15	49.86702	25368.61	-50878.56	1	56852.39	-63.49865	3.288358E-010	0.0816534	6
	44	16	39.72458	29102.84	-61365.23	1	67916.62	-64.62707	-1.149674E-010	0.0816681	6
	45	16	31.6723	34083.7	-73795.25	1	81286.14	-65.20927	9.407468E-011	0.0816623	6
	46	16	24.93351	40840.5	-89266.4	1	98165.4	-65.41531	1.593798E-010	0.0816608	6
	47	17	19.86229	49047.79	-106352.8	1	117117.9	-65.2418	-3.109662E-010	0.0816583	5
	48	17	15.83615	59318.5	-125715.7	1	139007.7	-64.7399	9.279851E-010	0.0816446	5
	49	17	12.40079	73567.87	-149647.6	1	166753.2	-63.82093	9.395211E-010	0.0816345	5
	50	17	9.93114	88167.04	-174445.9	1	195460.5	-63.18742	8.905213E-010	0.0816394	5
	51	18	7.944915	105000.2	-203946.6	1	229388.9	-62.75869	1.026626E-009	0.0816371	5
	52	18	6.317385	125810.7	-235477	1	266978.9	-61.8853	2.045495E-010	0.081646	5
	53	19	5.008013	149610.8	-274011.3	1	312194.8	-61.36535	3.61865E-010	0.0816495	5
	54	20	3.945707	177361	-320149.3	1	365995.2	-61.01379	1.033682E-010	0.0816335	5
	55	21	3.158693	208369	-370165.2	1	424782.2	-60.62448	2.210923E-010	0.0816565	5
	56	22	2.504006	245717.4	-431069.9	1	496183.8	-60.3161	-2.241628E-011	0.0816547	5
	57	24	1.998082	287100.7	-499740.7	1	576339.8	-60.12266	3.721507E-012	0.0816338	5
	58	25	1.584686	339244.3	-580441.6	1	672308.9	-59.69547	9.484548E-011	0.081679	5
	59	27	1.266892	397726.3	-672615.3	1	781407.4	-59.40361	1.143862E-010	0.0816818	5
	60	30	0.999041	469173.8	-784308.6	1	913927.8	-59.11212	1.135651E-010	0.081664	5
