EXPLAIN
TAG	EISPOT
TITLE	LABEL	Potentiostatic EIS	Test &Identifier
DATE	LABEL	3/20/2020	Date
TIME	LABEL	14:30:53	Time
NOTES	NOTES	1	&Notes...
	
PSTAT	PSTAT	REF600-11020	Potentiostat
VDC	POTEN	0.00000E+000	T	DC &Voltage (V)
FREQINIT	QUANT	1.00000E+006	Initial Fre&q. (Hz)
FREQFINAL	QUANT	1.00000E+000	Final Fre&q. (Hz)
PTSPERDEC	QUANT	1.00000E+001	Points/&decade
VAC	QUANT	2.50000E+001	AC &Voltage (mV rms)
AREA	QUANT	4.00000E-004	&Area (cm^2)
CONDIT	TWOPARAM	F	5.00000E+000	0.00000E+000	Conditionin&g	Time(s)	E(V)
DELAY	TWOPARAM	T	3.00000E+000	0.00000E+000	Init. De&lay	Time(s)	Stab.(mV/s)
SPEED	SELECTOR	0	&Optimize for:
ZGUESS	QUANT	1.00000E+003	E&stimated Z (ohms)
OCVCURVE	TABLE	12
	Pt	T	Vf	Vm	Ach	Over
	#	s	V vs. Ref.	V	V	bits
	0	0.258333	-5.17854E-002	-5.17854E-002	5.71230E-004	...........
	1	0.516667	-5.17891E-002	-5.19774E-002	5.73263E-004	...........
	2	0.775	-5.18116E-002	-5.21606E-002	5.60964E-004	...........
	3	1.03333	-5.18752E-002	-5.23227E-002	5.62030E-004	...........
	4	1.29167	-5.19878E-002	-5.24682E-002	5.79163E-004	...........
	5	1.55	-5.21346E-002	-5.26140E-002	5.74797E-004	...........
	6	1.80833	-5.22930E-002	-5.27462E-002	5.67530E-004	...........
	7	2.06667	-5.24481E-002	-5.28723E-002	5.68030E-004	...........
	8	2.325	-5.25940E-002	-5.29926E-002	5.75863E-004	...........
	9	2.58333	-5.27303E-002	-5.31057E-002	5.76197E-004	...........
	10	2.84167	-5.28579E-002	-5.32075E-002	5.62364E-004	...........
	11	3.1	-5.29779E-002	-5.33076E-002	5.64830E-004	...........
EOC	QUANT	-0.0529779	Open Circuit (V)
PSTATMODEL	IQUANT	4	Pstat Model
PSTATSECTION	LABEL	REF600-11020	Pstat Section
PSTATSERIALNO	LABEL	11020	Pstat Serial Number
CTRLMODE	IQUANT	1	Control Mode
IESTAB	IQUANT	0	I/E Stability
CASPEED	IQUANT	1	Control Amp Speed
CONVENTION	IQUANT	1	Current Convention
ICHRANGE	IQUANT	2	Ich Range
ICHRANGEMODE	TOGGLE	F	Ich Auto Range
ICHOFFSETENABLE	TOGGLE	T	Ich Offset Enable
ICHOFFSET	QUANT	0	Ich Offset (V)
ICHFILTER	IQUANT	3	Ich Filter
VCHRANGE	IQUANT	2	Vch Range
VCHRANGEMODE	TOGGLE	F	Vch Auto Range
VCHOFFSETENABLE	TOGGLE	T	Vch Offset Enable
VCHOFFSET	QUANT	0	Vch Offset (V)
VCHFILTER	IQUANT	3	Vch Filter
ACHRANGE	IQUANT	2	Ach Range
ACHOFFSETENABLE	TOGGLE	F	Ach Offset Enable
ACHOFFSET	QUANT	0	Ach Offset (V)
ACHFILTER	IQUANT	3	Ach Filter
IERANGELOWERLIMIT	IQUANT	1	I/E Range Lower Limit
IERANGEMODE	TOGGLE	F	I/E AutoRange
IERANGE	IQUANT	7	I/E Range
POSFEEDENABLE	TOGGLE	F	Positive Feedback IR Comp
POSFEEDRESISTANCE	QUANT	0	Positive Feedback Resistance (ohm)
ACHSELECT	IQUANT	0	Ach Select
CABLEID	IQUANT	14	Cable ID
DCCALDATE	LABEL	2/27/2020	DC Calibration Date
ACCALDATE	LABEL	2/27/2020	AC Calibration Date
THERMOSELECT	IQUANT	1	Thermo Select
FRAMEWORKVERSION	QUANT	6.33	Framework Version
INSTRUMENTVERSION	LABEL	3.50	Instrument Version
ZCURVE	TABLE
	Pt	Time	Freq	Zreal	Zimag	Zsig	Zmod	Zphz	Idc	Vdc	IERange
	#	s	Hz	ohm	ohm	V	ohm	°	A	V	#
	0	1	1000078	1773.268	-2295.658	1	2900.78	-52.31591	7.067624E-008	-0.0507497	8
	1	1	794390.6	2191.353	-2542.341	1	3356.416	-49.24054	-2.77069E-007	-0.0510205	8
	2	2	630984.4	2676.282	-2738.126	1	3828.814	-45.65441	-2.206182E-007	-0.051109	8
	3	2	501234.4	3214.278	-2879.233	1	4315.271	-41.85283	-2.797919E-007	-0.0512232	8
	4	2	398109.4	3775.074	-2941.196	1	4785.584	-37.9225	3.066296E-007	-0.051352	8
	5	3	316265.6	4340.396	-2927.026	1	5235.124	-33.99448	1.563838E-007	-0.051366	8
	6	3	251203.1	4878.654	-2845.844	1	5648.017	-30.25611	2.287918E-007	-0.0513721	8
	7	3	199546.9	5373.572	-2715.268	1	6020.627	-26.80749	2.60136E-007	-0.0513759	8
	8	3	158578.1	5806.266	-2551.208	1	6342.033	-23.72015	5.438138E-007	-0.0514198	8
	9	4	125953.1	6242.073	-2283.888	1	6646.775	-20.09687	1.347631E-008	-0.0514457	7
	10	4	100078.1	6539.961	-2117.094	1	6874.095	-17.93763	-1.183181E-009	-0.0514085	7
	11	5	79453.13	6821.859	-1972.195	1	7101.219	-16.12455	5.409762E-009	-0.0514323	7
	12	5	63140.62	7066.177	-1841.417	1	7302.169	-14.60619	4.059273E-009	-0.0514326	7
	13	5	50203.12	7279.869	-1733.431	1	7483.399	-13.39346	1.127602E-009	-0.0514275	7
	14	6	39890.62	7475.58	-1648.732	1	7655.234	-12.43742	6.281284E-009	-0.0514216	7
	15	6	31640.63	7653.614	-1589.3	1	7816.884	-11.73096	9.075769E-010	-0.0514382	7
	16	6	25171.88	7821.559	-1560.459	1	7975.702	-11.28279	6.077037E-009	-0.0514254	7
	17	7	20015.62	7982.106	-1559.274	1	8132.979	-11.05332	3.376349E-009	-0.0514247	7
	18	7	15890.62	8138.214	-1587.184	1	8291.543	-11.03579	-4.497885E-010	-0.0514238	7
	19	7	12609.37	8298.731	-1647.959	1	8460.775	-11.23166	8.669113E-009	-0.0514508	7
	20	8	10078.13	8460.261	-1738.386	1	8637.014	-11.61133	9.429677E-009	-0.0514473	7
	21	8	8015.625	8634.048	-1868.866	1	8833.993	-12.21343	7.062493E-009	-0.0514331	7
	22	8	6328.125	8847.709	-1980.094	1	9066.572	-12.61478	1.056532E-009	-0.051398	6
	23	9	5015.625	9046.663	-2204.051	1	9311.281	-13.6923	4.583312E-010	-0.0513752	6
	24	9	3984.375	9266.081	-2473.577	1	9590.56	-14.94655	1.150448E-009	-0.0513872	6
	25	9	3170.956	9513.08	-2792.385	1	9914.44	-16.3586	3.270577E-010	-0.0513763	6
	26	10	2527.573	9787.59	-3167.614	1	10287.4	-17.93344	-2.894196E-010	-0.0513818	6
	27	10	1976.103	10120.07	-3647.552	1	10757.34	-19.82056	1.028709E-009	-0.051388	6
	28	10	1577.524	10474.15	-4169.207	1	11273.42	-21.70489	9.840148E-010	-0.0514009	6
	29	11	1265.625	10862.47	-4762.513	1	11860.64	-23.67445	4.411175E-010	-0.0514001	6
	30	11	998.264	11339.47	-5510.496	1	12607.5	-25.91776	1.222823E-009	-0.0513886	6
	31	11	796.875	11860.88	-6338.552	1	13448.34	-28.12041	7.111536E-010	-0.0514068	6
	32	11	627.7902	12481.91	-7367.631	1	14494.14	-30.55185	1.100426E-009	-0.051387	6
	33	12	505.5147	13125.11	-8455.422	1	15612.9	-32.79033	4.054937E-010	-0.0513873	6
	34	12	397.9953	13932.69	-9863.76	1	17070.84	-35.29689	1.014475E-009	-0.0513811	6
	35	12	315.5048	14819.57	-11478.09	1	18744.77	-37.75859	1.122674E-009	-0.0513813	6
	36	13	252.4038	15780.27	-13306.96	1	20641.99	-40.13978	1.108769E-009	-0.0513848	6
	37	13	198.6229	16949.72	-15637.63	1	23061.41	-42.69431	1.108971E-009	-0.0513811	6
	38	13	158.3615	18201.64	-18268.45	1	25788.29	-45.10496	1.072399E-009	-0.0513873	6
	39	14	125.558	19663.68	-21492.73	1	29130.7	-47.54463	1.163663E-009	-0.0513896	6
	40	14	100.4464	21277.31	-25215.67	1	32993.24	-49.84189	1.016148E-009	-0.0513864	6
	41	14	79.00281	23305.67	-30059.24	1	38035.68	-52.2127	1.190315E-009	-0.0513915	6
	42	15	63.3446	25511.57	-35426.47	1	43656.32	-54.24131	1.199742E-009	-0.0513879	6
	43	15	49.86702	28445.19	-42465.43	1	51112.05	-56.1841	1.11855E-009	-0.0513945	6
	44	16	39.72458	31910.64	-50541.09	1	59771.99	-57.7325	9.839557E-010	-0.0513878	6
	45	16	31.6723	36251.63	-60096.35	1	70183.7	-58.90056	6.921975E-010	-0.0513906	6
	46	16	24.93351	42112.49	-72042.95	1	83448.48	-59.6917	1.326183E-009	-0.0513911	6
	47	16	19.86229	49261.35	-85351.13	1	98546.9	-60.00813	1.032163E-009	-0.0513897	6
	48	17	15.83615	58311.98	-100546.2	1	116231.8	-59.88832	2.139897E-009	-0.0513895	5
	49	17	12.40079	70497.45	-119074	1	138378.2	-59.37247	7.67055E-010	-0.0513876	5
	50	17	9.93114	84349.32	-137985	1	161724.1	-58.56284	9.069558E-010	-0.0513862	5
	51	18	7.944915	100812.1	-158510.5	1	187852.8	-57.54379	2.099125E-009	-0.0513881	5
	52	18	6.317385	121161.7	-181798.2	1	218473.7	-56.31803	3.18675E-010	-0.0513676	5
	53	19	5.008013	145242.8	-207193	1	253030.5	-54.96944	4.299765E-010	-0.0513817	5
	54	20	3.945707	172969.8	-235220.5	1	291971.3	-53.67104	1.06373E-009	-0.0513811	5
	55	21	3.158693	202611.2	-263284.9	1	332220.2	-52.41988	4.470005E-010	-0.0513786	5
	56	22	2.504006	236372.5	-295542.2	1	378440.4	-51.34744	3.806664E-010	-0.0513921	5
	57	23	1.998082	273150.5	-329371	1	427897.7	-50.33075	7.381216E-010	-0.05135	5
	58	25	1.584686	314126	-369376.8	1	484886	-49.62145	6.799714E-010	-0.0513619	5
	59	27	1.266892	358023.3	-411020.1	1	545085.5	-48.94217	5.927259E-010	-0.0514005	5
	60	29	0.999041	411089.4	-460542.5	1	617328	-48.24726	5.589046E-010	-0.0514236	5
