EXPLAIN
TAG	EISPOT
TITLE	LABEL	Potentiostatic EIS	Test &Identifier
DATE	LABEL	9/1/2020	Date
TIME	LABEL	20:54:21	Time
NOTES	NOTES	1	&Notes...
	
PSTAT	PSTAT	REF600-11020	Potentiostat
VDC	POTEN	0.00000E+000	T	DC &Voltage (V)
FREQINIT	QUANT	1.00000E+006	Initial Fre&q. (Hz)
FREQFINAL	QUANT	1.00000E+000	Final Fre&q. (Hz)
PTSPERDEC	QUANT	1.00000E+001	Points/&decade
VAC	QUANT	2.50000E+001	AC &Voltage (mV rms)
AREA	QUANT	4.00000E-005	&Area (cm^2)
CONDIT	TWOPARAM	F	5.00000E+000	0.00000E+000	Conditionin&g	Time(s)	E(V)
DELAY	TWOPARAM	F	3.00000E+000	0.00000E+000	Init. De&lay	Time(s)	Stab.(mV/s)
SPEED	SELECTOR	0	&Optimize for:
ZGUESS	QUANT	1.00000E+003	E&stimated Z (ohms)
OCVCURVE	TABLE	39
	Pt	T	Vf	Vm	Ach	Over
	#	s	V vs. Ref.	V	V	bits
	0	0.258333	1.67613E-001	1.67613E-001	5.62392E-004	...........
	1	0.516667	1.67617E-001	1.67840E-001	5.66125E-004	...........
	2	0.775	1.67643E-001	1.68046E-001	5.68558E-004	...........
	3	1.03333	1.67717E-001	1.68229E-001	5.63725E-004	...........
	4	1.29167	1.67847E-001	1.68395E-001	5.66992E-004	...........
	5	1.55	1.68015E-001	1.68547E-001	5.66259E-004	...........
	6	1.80833	1.68194E-001	1.68683E-001	5.67925E-004	...........
	7	2.06667	1.68365E-001	1.68802E-001	5.71492E-004	...........
	8	2.325	1.68521E-001	1.68913E-001	5.68592E-004	...........
	9	2.58333	1.68661E-001	1.69014E-001	5.63192E-004	...........
	10	2.84167	1.68785E-001	1.69103E-001	5.68925E-004	...........
	11	3.1	1.68897E-001	1.69184E-001	5.72125E-004	...........
	12	3.35833	1.68998E-001	1.69261E-001	5.77325E-004	...........
	13	3.61667	1.69090E-001	1.69331E-001	5.76558E-004	...........
	14	3.875	1.69174E-001	1.69394E-001	5.74658E-004	...........
	15	4.13333	1.69250E-001	1.69455E-001	5.80058E-004	...........
	16	4.39167	1.69321E-001	1.69508E-001	5.74492E-004	...........
	17	4.65	1.69386E-001	1.69562E-001	5.66125E-004	...........
	18	4.90833	1.69446E-001	1.69607E-001	5.66325E-004	...........
	19	5.16667	1.69502E-001	1.69649E-001	5.66059E-004	...........
	20	5.425	1.69553E-001	1.69684E-001	5.70792E-004	...........
	21	5.68333	1.69600E-001	1.69719E-001	5.72525E-004	...........
	22	5.94167	1.69642E-001	1.69750E-001	5.70125E-004	...........
	23	6.2	1.69680E-001	1.69777E-001	5.73492E-004	...........
	24	6.45833	1.69714E-001	1.69800E-001	5.69258E-004	...........
	25	6.71667	1.69745E-001	1.69823E-001	5.68758E-004	...........
	26	6.975	1.69773E-001	1.69842E-001	5.66192E-004	...........
	27	7.23333	1.69797E-001	1.69860E-001	5.69292E-004	...........
	28	7.49167	1.69819E-001	1.69878E-001	5.68392E-004	...........
	29	7.75	1.69840E-001	1.69896E-001	5.69292E-004	...........
	30	8.00833	1.69859E-001	1.69915E-001	5.68858E-004	...........
	31	8.26667	1.69877E-001	1.69936E-001	5.67558E-004	...........
	32	8.525	1.69895E-001	1.69951E-001	5.65892E-004	...........
	33	8.78333	1.69914E-001	1.69972E-001	5.66259E-004	...........
	34	9.04167	1.69933E-001	1.69987E-001	5.65725E-004	...........
	35	9.3	1.69951E-001	1.70001E-001	5.70358E-004	...........
	36	9.5583	1.69968E-001	1.70010E-001	5.68292E-004	...........
	37	9.8167	1.69984E-001	1.70019E-001	5.68392E-004	...........
	38	10.075	1.69997E-001	1.70028E-001	5.70592E-004	...........
EOC	QUANT	0.1699973	Open Circuit (V)
PSTATMODEL	IQUANT	4	Pstat Model
PSTATSECTION	LABEL	REF600-11020	Pstat Section
PSTATSERIALNO	LABEL	11020	Pstat Serial Number
CTRLMODE	IQUANT	1	Control Mode
IESTAB	IQUANT	0	I/E Stability
CASPEED	IQUANT	1	Control Amp Speed
CONVENTION	IQUANT	1	Current Convention
ICHRANGE	IQUANT	2	Ich Range
ICHRANGEMODE	TOGGLE	F	Ich Auto Range
ICHOFFSETENABLE	TOGGLE	T	Ich Offset Enable
ICHOFFSET	QUANT	0	Ich Offset (V)
ICHFILTER	IQUANT	3	Ich Filter
VCHRANGE	IQUANT	2	Vch Range
VCHRANGEMODE	TOGGLE	F	Vch Auto Range
VCHOFFSETENABLE	TOGGLE	T	Vch Offset Enable
VCHOFFSET	QUANT	0	Vch Offset (V)
VCHFILTER	IQUANT	3	Vch Filter
ACHRANGE	IQUANT	2	Ach Range
ACHOFFSETENABLE	TOGGLE	F	Ach Offset Enable
ACHOFFSET	QUANT	0	Ach Offset (V)
ACHFILTER	IQUANT	3	Ach Filter
IERANGELOWERLIMIT	IQUANT	1	I/E Range Lower Limit
IERANGEMODE	TOGGLE	F	I/E AutoRange
IERANGE	IQUANT	8	I/E Range
POSFEEDENABLE	TOGGLE	F	Positive Feedback IR Comp
POSFEEDRESISTANCE	QUANT	0	Positive Feedback Resistance (ohm)
ACHSELECT	IQUANT	0	Ach Select
CABLEID	IQUANT	14	Cable ID
DCCALDATE	LABEL	9/1/2020	DC Calibration Date
ACCALDATE	LABEL	9/1/2020	AC Calibration Date
THERMOSELECT	IQUANT	1	Thermo Select
FRAMEWORKVERSION	QUANT	6.33	Framework Version
INSTRUMENTVERSION	LABEL	3.50	Instrument Version
ZCURVE	TABLE
	Pt	Time	Freq	Zreal	Zimag	Zsig	Zmod	Zphz	Idc	Vdc	IERange
	#	s	Hz	ohm	ohm	V	ohm	°	A	V	#
	0	1	1000078	1997.319	-2472.367	1	3178.346	-51.06675	1.008954E-007	0.1720749	8
	1	1	794390.6	2480.809	-2691.57	1	3660.459	-47.33337	4.053022E-008	0.1717584	8
	2	2	630984.4	3029.03	-2838.273	1	4151.002	-43.13786	9.081253E-008	0.171662	8
	3	2	501234.4	3606.913	-2897.406	1	4626.531	-38.77465	1.765681E-008	0.17157	8
	4	2	398109.4	4181.12	-2868.252	1	5070.368	-34.45015	7.061921E-008	0.171494	8
	5	3	316265.6	4718.978	-2764.488	1	5469.108	-30.36278	7.290963E-008	0.1714805	8
	6	3	251203.1	5203.524	-2595.11	1	5814.745	-26.50642	5.874201E-008	0.1714573	8
	7	3	199546.9	5610.817	-2395.942	1	6100.968	-23.12355	6.85391E-008	0.1714716	8
	8	4	158578.1	5951.118	-2192.129	1	6342.021	-20.22157	3.16994E-008	0.1714895	8
	9	4	125953.1	6258.029	-1981.591	1	6564.27	-17.57028	1.035007E-008	0.1714775	7
	10	4	100078.1	6490.492	-1804.82	1	6736.754	-15.53972	2.325044E-009	0.1714422	7
	11	5	79453.13	6683.899	-1674.63	1	6890.493	-14.06573	2.557549E-009	0.1714388	7
	12	5	63140.62	6853.181	-1577.593	1	7032.417	-12.96357	3.578814E-009	0.1714394	7
	13	5	50203.12	7000.182	-1514.95	1	7162.236	-12.21139	2.006414E-009	0.1714284	7
	14	6	39890.62	7137.373	-1488.992	1	7291.035	-11.78398	2.880427E-009	0.1714289	7
	15	6	31640.63	7269.401	-1498.568	1	7422.257	-11.6482	2.937316E-009	0.1714249	7
	16	6	25171.88	7396.072	-1547.445	1	7556.221	-11.81726	3.049208E-009	0.1714293	7
	17	6	20015.62	7525.438	-1635.269	1	7701.06	-12.25972	3.219221E-009	0.1714307	7
	18	7	15890.62	7662.191	-1767.937	1	7863.509	-12.99277	3.794614E-009	0.1714302	7
	19	7	12609.37	7806.142	-1948.001	1	8045.53	-14.01183	3.268765E-009	0.171431	7
	20	7	10078.13	7956.678	-2174.27	1	8248.404	-15.28371	3.568319E-009	0.1714271	7
	21	8	8015.625	8126.552	-2468.135	1	8493.088	-16.89419	3.98635E-009	0.1714248	7
	22	8	6328.125	8325.243	-2846.004	1	8798.262	-18.87311	4.008079E-009	0.1714172	7
	23	8	5015.625	8559.646	-3291.938	1	9170.846	-21.03615	3.703553E-010	0.1714165	6
	24	9	3984.375	8805.731	-3847.617	1	9609.63	-23.60266	3.855135E-010	0.171418	6
	25	9	3170.956	9096.305	-4515.991	1	10155.64	-26.40276	-2.14134E-011	0.171416	6
	26	9	2527.573	9433.267	-5316.245	1	10828.16	-29.40402	2.101838E-010	0.1714166	6
	27	10	1976.103	9868.53	-6367.728	1	11744.61	-32.83238	-1.223673E-010	0.1714132	6
	28	10	1577.524	10349.74	-7524.776	1	12796.06	-36.01903	1.82987E-010	0.171411	6
	29	10	1265.625	10910.26	-8869.833	1	14060.86	-39.11046	-4.531494E-011	0.1714082	6
	30	11	998.264	11642.76	-10599.26	1	15744.78	-42.31391	3.073001E-010	0.1714164	6
	31	11	796.875	12488.64	-12541.56	1	17699.06	-45.12115	6.501566E-011	0.1714151	6
	32	11	627.7902	13563.81	-14990.42	1	20216.07	-47.86018	4.503714E-010	0.171416	6
	33	12	505.5147	14743.43	-17605.24	1	22963.3	-50.05564	2.004951E-010	0.1714177	6
	34	12	397.9953	16327.79	-21005.58	1	26605.09	-52.14182	4.800476E-010	0.1714389	6
	35	12	315.5048	18182	-24901.55	1	30832.98	-53.86474	4.916924E-010	0.1714336	6
	36	13	252.4038	20320.49	-29289.27	1	35648.05	-55.24762	3.9617E-010	0.1714322	6
	37	13	198.6229	23076.59	-34813.01	1	41766.91	-56.4607	5.125861E-010	0.1714274	6
	38	13	158.3615	26195.02	-40930.69	1	48595.27	-57.38138	3.974717E-010	0.1714278	6
	39	13	125.558	30001.42	-48257.51	1	56823.17	-58.13102	3.626589E-010	0.1714309	6
	40	14	100.4464	34349.82	-56465.31	1	66092.67	-58.68639	4.005884E-010	0.1714276	6
	41	14	79.00281	39902.16	-66772.76	1	77786.78	-59.13824	3.868639E-010	0.1714256	6
	42	14	63.3446	45975.08	-77862.63	1	90422.88	-59.43968	3.092093E-010	0.1714255	6
	43	15	49.86702	53792.28	-91793.1	1	106393.5	-59.62899	-1.321912E-010	0.1714168	5
	44	15	39.72458	62618.19	-107356.6	1	124283.8	-59.74614	1.123903E-010	0.1714207	5
	45	16	31.6723	73063.03	-125409.1	1	145140.1	-59.77502	1.356992E-010	0.1714187	5
	46	16	24.93351	86321.91	-147633.9	1	171018.2	-59.68507	-1.278013E-010	0.1714202	5
	47	16	19.86229	101565.1	-172270.3	1	199981.3	-59.47776	2.317738E-010	0.1714208	5
	48	16	15.83615	119897	-200474.9	1	233592.6	-59.11783	-3.379348E-010	0.1714207	5
	49	17	12.40079	144100.6	-235544.6	1	276127.2	-58.54269	-7.001875E-010	0.171428	5
	50	17	9.93114	170550.8	-271446.7	1	320579	-57.85873	-7.995534E-010	0.1714234	5
	51	17	7.944915	203166.4	-312346.2	1	372608	-56.95791	-4.047208E-012	0.1714295	5
	52	18	6.317385	243175.3	-358588.5	1	433266.6	-55.85701	-1.444564E-010	0.1714277	5
	53	19	5.008013	291890.9	-409687.3	1	503034.8	-54.53118	-3.58543E-010	0.1714121	5
	54	20	3.945707	352260	-465015.6	1	583375.2	-52.85523	-7.516926E-011	0.1714258	5
	55	20	3.158693	416451.8	-519333.4	1	665687.1	-51.27399	-2.104578E-010	0.1714074	5
	56	21	2.504006	493819.5	-575515.3	1	758337.4	-49.36884	1.092065E-010	0.1714022	5
	57	23	1.998082	574655.3	-631967.6	1	854173.1	-47.7194	1.678775E-010	0.1714176	5
	58	24	1.584686	665483.9	-687563.1	1	956876	-45.93488	3.709915E-011	0.1713773	5
	59	26	1.266892	760346.3	-746199.5	1	1065336	-44.462	-9.573837E-011	0.1713666	4
	60	29	0.999041	861851.7	-812528.5	1	1184479	-43.31269	-1.85401E-010	0.1713823	4
