EXPLAIN
TAG	EISPOT
TITLE	LABEL	Potentiostatic EIS	Test &Identifier
DATE	LABEL	1/14/2020	Date
TIME	LABEL	18:48:58	Time
NOTES	NOTES	5	&Notes...
	
	
	
	
	
PSTAT	PSTAT	REF600-11020	Potentiostat
VDC	POTEN	0.00000E+000	T	DC &Voltage (V)
FREQINIT	QUANT	1.00000E+006	Initial Fre&q. (Hz)
FREQFINAL	QUANT	1.00000E+000	Final Fre&q. (Hz)
PTSPERDEC	QUANT	1.00000E+001	Points/&decade
VAC	QUANT	2.50000E+001	AC &Voltage (mV rms)
AREA	QUANT	1.00000E-001	&Area (cm^2)
CONDIT	TWOPARAM	T	5.00000E+000	0.00000E+000	Conditionin&g	Time(s)	E(V)
DELAY	TWOPARAM	T	5.00000E+000	0.00000E+000	Init. De&lay	Time(s)	Stab.(mV/s)
SPEED	SELECTOR	0	&Optimize for:
ZGUESS	QUANT	5.00000E+002	E&stimated Z (ohms)
OCVCURVE	TABLE	19
	Pt	T	Vf	Vm	Ach	Over
	#	s	V vs. Ref.	V	V	bits
	0	0.258333	9.74751E-003	9.74751E-003	6.37346E-004	...........
	1	0.516667	9.74899E-003	9.82482E-003	6.36913E-004	...........
	2	0.775	9.75844E-003	9.91804E-003	6.41180E-004	...........
	3	1.03333	9.78658E-003	1.00149E-002	6.40280E-004	...........
	4	1.29167	9.84072E-003	1.01460E-002	6.40213E-004	...........
	5	1.55	9.92057E-003	1.02671E-002	6.39780E-004	...........
	6	1.80833	1.00208E-002	1.03794E-002	6.42313E-004	...........
	7	2.06667	1.01334E-002	1.04791E-002	6.44346E-004	...........
	8	2.325	1.02494E-002	1.05890E-002	6.40846E-004	...........
	9	2.58333	1.03631E-002	1.07005E-002	6.37180E-004	...........
	10	2.84167	1.04737E-002	1.08156E-002	6.38146E-004	...........
	11	3.1	1.05833E-002	1.09210E-002	6.39980E-004	...........
	12	3.35833	1.06929E-002	1.10133E-002	6.39746E-004	...........
	13	3.61667	1.08012E-002	1.11156E-002	6.39280E-004	...........
	14	3.875	1.09061E-002	1.12138E-002	6.37846E-004	...........
	15	4.13333	1.10078E-002	1.13138E-002	6.36013E-004	...........
	16	4.39167	1.11074E-002	1.14033E-002	6.39180E-004	...........
	17	4.65	1.12055E-002	1.14942E-002	6.39413E-004	...........
	18	4.90833	1.13015E-002	1.15831E-002	6.40846E-004	...........
EOC	QUANT	0.0113015	Open Circuit (V)
PSTATMODEL	IQUANT	4	Pstat Model
PSTATSECTION	LABEL	REF600-11020	Pstat Section
PSTATSERIALNO	LABEL	11020	Pstat Serial Number
CTRLMODE	IQUANT	1	Control Mode
IESTAB	IQUANT	0	I/E Stability
CASPEED	IQUANT	1	Control Amp Speed
CONVENTION	IQUANT	1	Current Convention
ICHRANGE	IQUANT	2	Ich Range
ICHRANGEMODE	TOGGLE	F	Ich Auto Range
ICHOFFSETENABLE	TOGGLE	T	Ich Offset Enable
ICHOFFSET	QUANT	0	Ich Offset (V)
ICHFILTER	IQUANT	3	Ich Filter
VCHRANGE	IQUANT	2	Vch Range
VCHRANGEMODE	TOGGLE	F	Vch Auto Range
VCHOFFSETENABLE	TOGGLE	T	Vch Offset Enable
VCHOFFSET	QUANT	0	Vch Offset (V)
VCHFILTER	IQUANT	3	Vch Filter
ACHRANGE	IQUANT	2	Ach Range
ACHOFFSETENABLE	TOGGLE	F	Ach Offset Enable
ACHOFFSET	QUANT	0	Ach Offset (V)
ACHFILTER	IQUANT	3	Ach Filter
IERANGELOWERLIMIT	IQUANT	1	I/E Range Lower Limit
IERANGEMODE	TOGGLE	F	I/E AutoRange
IERANGE	IQUANT	7	I/E Range
POSFEEDENABLE	TOGGLE	F	Positive Feedback IR Comp
POSFEEDRESISTANCE	QUANT	0	Positive Feedback Resistance (ohm)
ACHSELECT	IQUANT	0	Ach Select
CABLEID	IQUANT	14	Cable ID
DCCALDATE	LABEL	12/22/2019	DC Calibration Date
ACCALDATE	LABEL	12/22/2019	AC Calibration Date
THERMOSELECT	IQUANT	1	Thermo Select
FRAMEWORKVERSION	QUANT	6.33	Framework Version
INSTRUMENTVERSION	LABEL	3.50	Instrument Version
ZCURVE	TABLE
	Pt	Time	Freq	Zreal	Zimag	Zsig	Zmod	Zphz	Idc	Vdc	IERange
	#	s	Hz	ohm	ohm	V	ohm	°	A	V	#
	0	1	1000078	2269.787	-2213.676	1	3170.535	-44.28298	-2.141862E-007	0.0135318	8
	1	2	794390.6	2710.145	-2300.903	1	3555.143	-40.33113	1.824429E-006	0.012789	8
	2	2	630984.4	3181.586	-2332.622	1	3945.074	-36.24751	-2.080796E-006	0.0134909	8
	3	2	501234.4	3636.174	-2289.639	1	4297	-32.19795	2.103936E-007	0.012914	8
	4	3	398109.4	4061.987	-2186.679	1	4613.166	-28.2948	1.702253E-007	0.0128917	8
	5	3	316265.6	4462.415	-2024.589	1	4900.215	-24.4037	-5.338764E-007	0.0129511	8
	6	3	251203.1	4796.192	-1832.274	1	5134.266	-20.90819	1.707377E-007	0.0128506	8
	7	4	199546.9	5063.721	-1630.059	1	5319.621	-17.84385	-1.536098E-006	0.0131694	8
	8	4	158578.1	5252.789	-1432.848	1	5444.708	-15.25786	-1.653615E-006	0.0131424	8
	9	4	125953.1	5458.5	-1228.097	1	5594.948	-12.67972	4.193198E-007	0.0117979	7
	10	5	100078.1	5578.646	-1070.74	1	5680.473	-10.86496	3.602895E-009	0.0128387	7
	11	5	79453.13	5684.671	-951.441	1	5763.743	-9.5015	-3.87185E-008	0.0128551	7
	12	5	63140.62	5771.176	-852.0083	1	5833.729	-8.39801	3.30319E-008	0.0127684	7
	13	5	50203.12	5843.238	-776.352	1	5894.586	-7.568182	-2.572296E-008	0.012813	7
	14	6	39890.62	5897.15	-734.4096	1	5942.705	-7.098858	1.818584E-007	0.0127864	8
	15	6	31640.63	5961.475	-685.6727	1	6000.777	-6.561175	-3.659945E-008	0.0128689	7
	16	7	25171.88	6011.715	-669.4969	1	6048.88	-6.354581	5.685727E-009	0.0127736	7
	17	7	20015.62	6059.83	-673.1259	1	6097.101	-6.338431	8.801307E-009	0.0127535	7
	18	8	15890.62	6108.152	-698.6805	1	6147.981	-6.525413	4.052382E-009	0.0128209	7
	19	8	12609.37	6155.846	-743.4871	1	6200.582	-6.88668	9.392179E-009	0.0127533	7
	20	8	10078.13	6205.536	-810.0227	1	6258.179	-7.436901	2.912644E-008	0.012716	7
	21	9	8015.625	6252.873	-905.0873	1	6318.038	-8.236214	-3.509951E-008	0.0128572	7
	22	9	6328.125	6307.804	-1037.272	1	6392.521	-9.338299	2.89536E-008	0.0127126	7
	23	9	5015.625	6369.019	-1203.568	1	6481.742	-10.70112	5.286612E-009	0.0128148	7
	24	10	3984.375	6434.82	-1412.494	1	6588.023	-12.38052	-2.195584E-008	0.0128681	7
	25	10	3170.956	6503.684	-1673.171	1	6715.46	-14.42734	-2.369546E-008	0.0128075	7
	26	10	2527.573	6590.378	-1995.692	1	6885.918	-16.84731	-3.74814E-008	0.0128414	7
	27	11	1976.103	6699.457	-2429.853	1	7126.494	-19.93541	-7.167269E-009	0.0128132	7
	28	11	1577.524	6826.555	-2935.204	1	7430.833	-23.26618	-1.326717E-008	0.0127845	7
	29	11	1265.625	6964.896	-3503.902	1	7796.608	-26.70607	8.034605E-008	0.0126883	7
	30	11	998.264	7155.273	-4272.958	1	8334.032	-30.84464	1.526491E-008	0.0128481	7
	31	12	796.875	7368.432	-5159.897	1	8995.461	-35.00243	-2.335869E-008	0.0128018	7
	32	12	627.7902	7650.308	-6309.478	1	9916.49	-39.5136	-1.515851E-009	0.0127348	6
	33	12	505.5147	7954.47	-7576.64	1	10985.4	-43.60642	-2.96554E-009	0.0127826	6
	34	13	397.9953	8362.354	-9273.104	1	12486.77	-47.95631	8.44072E-010	0.0128084	6
	35	13	315.5048	8840.864	-11290.34	1	14339.9	-51.93739	4.453773E-010	0.0128075	6
	36	13	252.4038	9395.969	-13645.21	1	16567.32	-55.44905	9.085921E-010	0.0128048	6
	37	14	198.6229	10117.71	-16735.41	1	19556.12	-58.84415	6.718571E-010	0.0128059	6
	38	14	158.3615	10947.22	-20308.54	1	23071.16	-61.67333	8.272575E-010	0.0128051	6
	39	14	125.558	11983.42	-24780.04	1	27525.49	-64.19197	4.770174E-010	0.0128107	6
	40	15	100.4464	13195.03	-30022.95	1	32794.61	-66.2746	4.205118E-010	0.0128025	6
	41	15	79.00281	14851.22	-36906.14	1	39782.18	-68.0799	4.247597E-010	0.0128	6
	42	15	63.3446	16846.6	-44921.07	1	47976.14	-69.44261	7.401172E-010	0.0128018	6
	43	16	49.86702	19425.94	-55212.69	1	58530.4	-70.61617	7.912252E-010	0.0127934	6
	44	16	39.72458	22770.28	-67016.01	1	70778.75	-71.23358	8.652584E-010	0.0128064	6
	45	16	31.6723	27084.16	-81490.39	1	85873.37	-71.61525	7.973555E-010	0.0128056	6
	46	17	24.93351	33194.89	-99847.9	1	105221.2	-71.61037	4.020973E-010	0.0127981	6
	47	17	19.86229	40766.05	-120751.2	1	127446.9	-71.34512	-8.210251E-010	0.0127962	5
	48	17	15.83615	51633.29	-146241.7	1	155089.1	-70.5535	1.141937E-009	0.0127979	5
	49	18	12.40079	65749.54	-177235.7	1	189038.3	-69.64654	1.279409E-010	0.0127962	5
	50	18	9.93114	82529.87	-210243.1	1	225861.4	-68.56776	1.307671E-010	0.0127922	5
	51	18	7.944915	104228	-247366.2	1	268427.8	-67.15183	5.968889E-010	0.012793	5
	52	19	6.317385	132297.6	-290951.2	1	319617.3	-65.54836	4.439352E-010	0.0127877	5
	53	20	5.008013	167452.2	-340266.8	1	379238.4	-63.79726	8.616784E-011	0.0127944	5
	54	21	3.945707	210205.3	-395331.8	1	447742.6	-61.99959	6.807988E-011	0.0127985	5
	55	22	3.158693	256969.6	-451906.4	1	519858.4	-60.37594	-1.896766E-010	0.0127914	5
	56	23	2.504006	312929.3	-515902.8	1	603390.8	-58.7604	-7.380258E-011	0.0127823	5
	57	25	1.998082	373275.6	-584573.6	1	693585.6	-57.44001	5.6585E-011	0.0128233	5
	58	26	1.584686	441517	-661400.3	1	795228	-56.27496	-1.901493E-011	0.0127871	5
	59	28	1.266892	517798.6	-745964.1	1	908062.7	-55.2342	-1.0541E-010	0.0127559	5
	60	31	0.999041	607439.7	-850269.5	1	1044960	-54.45767	-1.652437E-010	0.0127954	4
