EXPLAIN
TAG	EISPOT
TITLE	LABEL	Potentiostatic EIS	Test &Identifier
DATE	LABEL	2/28/2020	Date
TIME	LABEL	17:12:21	Time
NOTES	NOTES	1	&Notes...
	
PSTAT	PSTAT	REF600-11020	Potentiostat
VDC	POTEN	0.00000E+000	T	DC &Voltage (V)
FREQINIT	QUANT	1.00000E+006	Initial Fre&q. (Hz)
FREQFINAL	QUANT	1.00000E+000	Final Fre&q. (Hz)
PTSPERDEC	QUANT	1.00000E+001	Points/&decade
VAC	QUANT	2.50000E+001	AC &Voltage (mV rms)
AREA	QUANT	1.60000E-004	&Area (cm^2)
CONDIT	TWOPARAM	F	1.50000E+001	0.00000E+000	Conditionin&g	Time(s)	E(V)
DELAY	TWOPARAM	F	1.00000E+002	0.00000E+000	Init. De&lay	Time(s)	Stab.(mV/s)
SPEED	SELECTOR	1	&Optimize for:
ZGUESS	QUANT	1.00000E+003	E&stimated Z (ohms)
OCVCURVE	TABLE	39
	Pt	T	Vf	Vm	Ach	Over
	#	s	V vs. Ref.	V	V	bits
	0	0.258333	-8.51412E-002	-8.51412E-002	5.67563E-004	...........
	1	0.516667	-8.51332E-002	-8.47234E-002	5.74297E-004	...........
	2	0.775	-8.50830E-002	-8.42666E-002	5.76230E-004	...........
	3	1.03333	-8.49468E-002	-8.43265E-002	5.72497E-004	...........
	4	1.29167	-8.47427E-002	-8.46804E-002	5.72330E-004	...........
	5	1.55	-8.45774E-002	-8.50305E-002	5.71997E-004	...........
	6	1.80833	-8.45572E-002	-8.52135E-002	5.73297E-004	...........
	7	2.06667	-8.46898E-002	-8.51889E-002	5.74563E-004	...........
	8	2.325	-8.48870E-002	-8.50869E-002	5.70897E-004	...........
	9	2.58333	-8.50461E-002	-8.51181E-002	5.66730E-004	...........
	10	2.84167	-8.51238E-002	-8.51423E-002	5.74997E-004	...........
	11	3.1	-8.51433E-002	-8.52269E-002	5.71097E-004	...........
	12	3.35833	-8.51506E-002	-8.52961E-002	5.74797E-004	...........
	13	3.61667	-8.51741E-002	-8.52844E-002	5.67497E-004	...........
	14	3.875	-8.52128E-002	-8.52679E-002	5.70697E-004	...........
	15	4.13333	-8.52478E-002	-8.52236E-002	5.70663E-004	...........
	16	4.39167	-8.52634E-002	-8.52196E-002	5.71197E-004	...........
	17	4.65	-8.52588E-002	-8.52284E-002	5.69563E-004	...........
	18	4.90833	-8.52457E-002	-8.52689E-002	5.72063E-004	...........
	19	5.16667	-8.52388E-002	-8.53075E-002	5.72030E-004	...........
	20	5.425	-8.52466E-002	-8.53342E-002	5.72897E-004	...........
	21	5.68333	-8.52683E-002	-8.53474E-002	5.71797E-004	...........
	22	5.94167	-8.52960E-002	-8.53586E-002	5.73763E-004	...........
	23	6.2	-8.53221E-002	-8.53788E-002	5.74497E-004	...........
	24	6.45833	-8.53431E-002	-8.53866E-002	5.76997E-004	...........
	25	6.71667	-8.53599E-002	-8.53958E-002	5.71463E-004	...........
	26	6.975	-8.53738E-002	-8.54120E-002	5.78930E-004	...........
	27	7.23333	-8.53861E-002	-8.54263E-002	5.76030E-004	...........
	28	7.49167	-8.53980E-002	-8.54279E-002	5.79497E-004	...........
	29	7.75	-8.54100E-002	-8.54529E-002	5.71930E-004	...........
	30	8.00833	-8.54222E-002	-8.54739E-002	5.69630E-004	...........
	31	8.26667	-8.54346E-002	-8.54183E-002	5.71430E-004	...........
	32	8.525	-8.54446E-002	-8.54858E-002	5.75430E-004	...........
	33	8.78333	-8.54515E-002	-8.54970E-002	5.77030E-004	...........
	34	9.04167	-8.54603E-002	-8.55231E-002	5.78163E-004	...........
	35	9.3	-8.54748E-002	-8.55013E-002	5.72197E-004	...........
	36	9.5583	-8.54906E-002	-8.54946E-002	5.70497E-004	...........
	37	9.8167	-8.55007E-002	-8.54940E-002	5.69563E-004	...........
	38	10.075	-8.55020E-002	-8.54614E-002	5.70297E-004	...........
EOC	QUANT	-0.085502	Open Circuit (V)
PSTATMODEL	IQUANT	4	Pstat Model
PSTATSECTION	LABEL	REF600-11020	Pstat Section
PSTATSERIALNO	LABEL	11020	Pstat Serial Number
CTRLMODE	IQUANT	1	Control Mode
IESTAB	IQUANT	0	I/E Stability
CASPEED	IQUANT	1	Control Amp Speed
CONVENTION	IQUANT	1	Current Convention
ICHRANGE	IQUANT	2	Ich Range
ICHRANGEMODE	TOGGLE	F	Ich Auto Range
ICHOFFSETENABLE	TOGGLE	T	Ich Offset Enable
ICHOFFSET	QUANT	0	Ich Offset (V)
ICHFILTER	IQUANT	3	Ich Filter
VCHRANGE	IQUANT	2	Vch Range
VCHRANGEMODE	TOGGLE	F	Vch Auto Range
VCHOFFSETENABLE	TOGGLE	T	Vch Offset Enable
VCHOFFSET	QUANT	0	Vch Offset (V)
VCHFILTER	IQUANT	3	Vch Filter
ACHRANGE	IQUANT	2	Ach Range
ACHOFFSETENABLE	TOGGLE	F	Ach Offset Enable
ACHOFFSET	QUANT	0	Ach Offset (V)
ACHFILTER	IQUANT	3	Ach Filter
IERANGELOWERLIMIT	IQUANT	1	I/E Range Lower Limit
IERANGEMODE	TOGGLE	F	I/E AutoRange
IERANGE	IQUANT	8	I/E Range
POSFEEDENABLE	TOGGLE	F	Positive Feedback IR Comp
POSFEEDRESISTANCE	QUANT	0	Positive Feedback Resistance (ohm)
ACHSELECT	IQUANT	0	Ach Select
CABLEID	IQUANT	14	Cable ID
DCCALDATE	LABEL	2/27/2020	DC Calibration Date
ACCALDATE	LABEL	2/27/2020	AC Calibration Date
THERMOSELECT	IQUANT	1	Thermo Select
FRAMEWORKVERSION	QUANT	6.33	Framework Version
INSTRUMENTVERSION	LABEL	3.50	Instrument Version
ZCURVE	TABLE
	Pt	Time	Freq	Zreal	Zimag	Zsig	Zmod	Zphz	Idc	Vdc	IERange
	#	s	Hz	ohm	ohm	V	ohm	°	A	V	#
	0	1	1000078	1950.727	-1493.019	1	2456.51	-37.42919	-1.044273E-007	-0.0829185	8
	1	2	794390.6	2205.208	-1501.687	1	2667.959	-34.25381	4.999909E-009	-0.083565	8
	2	4	630984.4	2457.971	-1484.428	1	2871.436	-31.1288	-2.874497E-006	-0.0831307	8
	3	5	501234.4	2697.914	-1465.745	1	3070.366	-28.51471	3.725202E-007	-0.0838263	8
	4	6	398109.4	2911.915	-1434.425	1	3246.047	-26.22511	-6.971816E-007	-0.0836759	8
	5	8	316265.6	3106.475	-1420.801	1	3415.972	-24.57783	1.557521E-006	-0.0841817	8
	6	9	251203.1	3283.624	-1415.568	1	3575.755	-23.32084	6.260009E-007	-0.0840352	8
	7	10	199546.9	3477.597	-1401.757	1	3749.48	-21.95348	1.107991E-008	-0.0837273	8
	8	12	158578.1	3675.188	-1434.579	1	3945.254	-21.32277	2.193783E-006	-0.0842947	8
	9	13	125953.1	3898.97	-1414.674	1	4147.682	-19.94243	6.610234E-007	-0.0852881	7
	10	14	100078.1	4089.366	-1458.038	1	4341.52	-19.62338	2.138827E-008	-0.0840102	7
	11	16	79453.13	4307.63	-1514.788	1	4566.209	-19.37434	1.749636E-009	-0.0839405	7
	12	17	63140.62	4542.292	-1562.985	1	4803.68	-18.98814	-1.216943E-008	-0.08402	7
	13	19	50203.12	4788.593	-1600.183	1	5048.882	-18.47786	4.439301E-008	-0.0840924	7
	14	20	39890.62	5042.598	-1628.734	1	5299.11	-17.9002	-2.958423E-008	-0.0839033	7
	15	21	31640.63	5302.41	-1644.041	1	5551.434	-17.22633	1.009649E-007	-0.0841478	7
	16	23	25171.88	5548.939	-1649.849	1	5789.018	-16.55863	-3.095936E-008	-0.0839484	7
	17	24	20015.62	5789.988	-1650.365	1	6020.604	-15.90955	2.382692E-009	-0.0839461	7
	18	25	15890.62	6018.082	-1651.734	1	6240.636	-15.34758	-3.881377E-008	-0.0839189	7
	19	27	12609.37	6239.618	-1658.268	1	6456.212	-14.88314	1.238431E-009	-0.0839484	7
	20	28	10078.13	6448.632	-1679.335	1	6663.709	-14.5966	-3.794085E-008	-0.0839738	7
	21	30	8015.625	6649.188	-1708.083	1	6865.074	-14.40697	5.040492E-009	-0.0839468	7
	22	31	6328.125	6855.613	-1763.984	1	7078.917	-14.42949	6.296308E-008	-0.0841071	7
	23	32	5015.625	7055.965	-1845.054	1	7293.207	-14.65407	6.274711E-008	-0.0841105	7
	24	34	3984.375	7243.183	-1954.437	1	7502.234	-15.10056	-4.225304E-009	-0.0839471	7
	25	35	3170.956	7430.619	-2090.437	1	7719.068	-15.71275	-5.676592E-009	-0.0839476	7
	26	36	2527.573	7605.47	-2269.093	1	7936.747	-16.61248	1.012597E-007	-0.0841477	7
	27	38	1976.103	7787.097	-2532.381	1	8188.519	-18.01464	1.010917E-007	-0.0841553	7
	28	39	1577.524	7953.594	-2841.986	1	8446.097	-19.66287	1.957748E-008	-0.0840865	7
	29	40	1265.625	8125.357	-3249.036	1	8750.866	-21.79468	6.261569E-008	-0.0841149	7
	30	42	998.264	8304.728	-3790.645	1	9128.937	-24.53405	5.842696E-009	-0.0840426	7
	31	43	796.875	8498.349	-4449.686	1	9592.79	-27.63629	-5.532904E-009	-0.0838666	6
	32	45	627.7902	8727.153	-5339.738	1	10231.13	-31.46052	-3.096447E-009	-0.0839526	6
	33	46	505.5147	8964.221	-6347.923	1	10984.23	-35.30384	-9.062251E-010	-0.0838592	6
	34	47	397.9953	9284.837	-7723.637	1	12077.37	-39.75554	-2.712387E-010	-0.0839294	6
	35	49	315.5048	9670.18	-9383.746	1	13474.68	-44.13875	-7.133496E-010	-0.0839333	6
	36	50	252.4038	10128.23	-11338.98	1	15203.73	-48.22808	7.092871E-011	-0.0839427	6
	37	51	198.6229	10758.22	-13922.07	1	17594.41	-52.30511	5.729444E-010	-0.0839354	6
	38	53	158.3615	11516.74	-16908.21	1	20457.83	-55.73993	6.698718E-010	-0.0839402	6
	39	54	125.558	12510.74	-20628.26	1	24125.58	-58.76381	-1.443276E-010	-0.0839387	6
	40	56	100.4464	13745.61	-24979.44	1	28511.65	-61.17702	-1.985135E-010	-0.0839356	6
	41	57	79.00281	15418.03	-30620.39	1	34283	-63.27376	-9.604753E-010	-0.0839401	6
	42	58	63.3446	17641.05	-36756.83	1	40770.96	-64.36182	2.052975E-011	-0.0839441	6
	43	60	49.86702	20311.13	-45132.59	1	49492.35	-65.77071	3.590787E-010	-0.0839394	6
	44	61	39.72458	23893.06	-54275.47	1	59301.81	-66.24003	2.373771E-010	-0.0839366	6
	45	63	31.6723	28404.46	-65027.41	1	70960.39	-66.40394	3.189798E-010	-0.0839394	6
	46	64	24.93351	34664.85	-78621.11	1	85923.98	-66.20683	1.183121E-010	-0.0839399	6
	47	65	19.86229	42287.24	-93506.16	1	102623.6	-65.6656	4.258353E-010	-0.0839364	6
	48	67	15.83615	51578.82	-110477.8	1	121925	-64.97352	-8.015023E-010	-0.0839379	5
	49	68	12.40079	64362.41	-131443	1	146355	-63.91085	3.486026E-010	-0.0839317	5
	50	70	9.93114	79318.22	-153449.7	1	172737.4	-62.66554	-1.33525E-011	-0.0839343	5
	51	71	7.944915	96997.8	-177095	1	201918.8	-61.28976	-7.579665E-010	-0.0839348	5
	52	73	6.317385	117937.7	-204263.8	1	235866.5	-59.99874	1.249289E-010	-0.0839444	5
	53	75	5.008013	143604	-234675.4	1	275126.6	-58.53646	-1.337631E-010	-0.0839349	5
	54	77	3.945707	173399	-268861.8	1	319927.9	-57.18053	2.623917E-010	-0.0839371	5
	55	80	3.158693	205557.7	-303988.3	1	366964.4	-55.93333	1.3795E-010	-0.0839294	5
	56	83	2.504006	243094.1	-343903.9	1	421146.8	-54.74479	-3.588431E-010	-0.0839298	5
	57	86	1.998082	283761.7	-386815.7	1	479736.4	-53.73684	7.792902E-011	-0.0839769	5
	58	89	1.584686	329031.7	-436378	1	546523.3	-52.98348	-1.737029E-010	-0.083942	5
	59	93	1.266892	378995.9	-488909.9	1	618603.9	-52.21767	4.744365E-011	-0.0839806	5
	60	97	0.999041	436342.8	-551753.6	1	703439.4	-51.66203	2.585099E-010	-0.0838973	5
