EXPLAIN
TAG	EISPOT
TITLE	LABEL	Potentiostatic EIS	Test &Identifier
DATE	LABEL	1/25/2020	Date
TIME	LABEL	13:55:35	Time
NOTES	NOTES	6	&Notes...
	
	
	
	
	
	
PSTAT	PSTAT	REF600-11020	Potentiostat
VDC	POTEN	0.00000E+000	T	DC &Voltage (V)
FREQINIT	QUANT	1.00000E+006	Initial Fre&q. (Hz)
FREQFINAL	QUANT	1.00000E+000	Final Fre&q. (Hz)
PTSPERDEC	QUANT	1.00000E+001	Points/&decade
VAC	QUANT	2.50000E+001	AC &Voltage (mV rms)
AREA	QUANT	1.00000E-001	&Area (cm^2)
CONDIT	TWOPARAM	F	5.00000E+000	0.00000E+000	Conditionin&g	Time(s)	E(V)
DELAY	TWOPARAM	F	5.00000E+000	0.00000E+000	Init. De&lay	Time(s)	Stab.(mV/s)
SPEED	SELECTOR	0	&Optimize for:
ZGUESS	QUANT	5.00000E+002	E&stimated Z (ohms)
OCVCURVE	TABLE	39
	Pt	T	Vf	Vm	Ach	Over
	#	s	V vs. Ref.	V	V	bits
	0	0.258333	-5.09144E-003	-5.09144E-003	6.46213E-004	...........
	1	0.516667	-5.08979E-003	-5.00514E-003	6.44846E-004	...........
	2	0.775	-5.07732E-003	-4.80043E-003	6.51313E-004	...........
	3	1.03333	-5.03720E-003	-4.75900E-003	6.52180E-004	...........
	4	1.29167	-4.95919E-003	-4.50840E-003	6.49346E-004	...........
	5	1.55	-4.85245E-003	-4.68746E-003	6.51646E-004	...........
	6	1.80833	-4.75072E-003	-4.87289E-003	6.49346E-004	...........
	7	2.06667	-4.70188E-003	-4.92111E-003	6.57379E-004	...........
	8	2.325	-4.72556E-003	-4.85905E-003	6.48380E-004	...........
	9	2.58333	-4.78816E-003	-4.84653E-003	6.50646E-004	...........
	10	2.84167	-4.83988E-003	-4.83698E-003	6.55613E-004	...........
	11	3.1	-4.85975E-003	-4.82713E-003	6.56680E-004	...........
	12	3.35833	-4.85638E-003	-4.83449E-003	6.51813E-004	...........
	13	3.61667	-4.84576E-003	-4.84037E-003	6.55746E-004	...........
	14	3.875	-4.83831E-003	-4.85482E-003	6.58379E-004	...........
	15	4.13333	-4.83740E-003	-4.85053E-003	6.55113E-004	...........
	16	4.39167	-4.84131E-003	-4.85146E-003	6.53713E-004	...........
	17	4.65	-4.84654E-003	-4.86499E-003	6.52646E-004	...........
	18	4.90833	-4.85135E-003	-4.86752E-003	6.47780E-004	...........
	19	5.16667	-4.85636E-003	-4.87986E-003	6.46680E-004	...........
	20	5.425	-4.86245E-003	-4.88689E-003	6.49113E-004	...........
	21	5.68333	-4.86929E-003	-4.87180E-003	6.53513E-004	...........
	22	5.94167	-4.87485E-003	-4.86939E-003	6.54213E-004	...........
	23	6.2	-4.87677E-003	-4.86591E-003	6.53446E-004	...........
	24	6.45833	-4.87489E-003	-4.86320E-003	6.61779E-004	...........
	25	6.71667	-4.87119E-003	-4.86515E-003	6.47546E-004	...........
	26	6.975	-4.86773E-003	-4.86406E-003	6.48380E-004	...........
	27	7.23333	-4.86542E-003	-4.85924E-003	6.43280E-004	...........
	28	7.49167	-4.86397E-003	-4.86190E-003	6.47713E-004	...........
	29	7.75	-4.86279E-003	-4.86072E-003	6.43113E-004	...........
	30	8.00833	-4.86183E-003	-4.86049E-003	6.44513E-004	...........
	31	8.26667	-4.86031E-003	-4.81387E-003	6.53613E-004	...........
	32	8.525	-4.85549E-003	-4.82270E-003	6.49646E-004	...........
	33	8.78333	-4.84652E-003	-4.85602E-003	6.53546E-004	...........
	34	9.04167	-4.83862E-003	-4.85103E-003	6.46880E-004	...........
	35	9.3	-4.83740E-003	-4.84800E-003	6.51746E-004	...........
	36	9.5583	-4.84157E-003	-4.84954E-003	6.48246E-004	...........
	37	9.8167	-4.84621E-003	-4.85197E-003	6.54180E-004	...........
	38	10.075	-4.84902E-003	-4.85290E-003	6.44813E-004	...........
EOC	QUANT	-0.004849	Open Circuit (V)
PSTATMODEL	IQUANT	4	Pstat Model
PSTATSECTION	LABEL	REF600-11020	Pstat Section
PSTATSERIALNO	LABEL	11020	Pstat Serial Number
CTRLMODE	IQUANT	1	Control Mode
IESTAB	IQUANT	0	I/E Stability
CASPEED	IQUANT	1	Control Amp Speed
CONVENTION	IQUANT	1	Current Convention
ICHRANGE	IQUANT	2	Ich Range
ICHRANGEMODE	TOGGLE	F	Ich Auto Range
ICHOFFSETENABLE	TOGGLE	T	Ich Offset Enable
ICHOFFSET	QUANT	0	Ich Offset (V)
ICHFILTER	IQUANT	3	Ich Filter
VCHRANGE	IQUANT	2	Vch Range
VCHRANGEMODE	TOGGLE	F	Vch Auto Range
VCHOFFSETENABLE	TOGGLE	T	Vch Offset Enable
VCHOFFSET	QUANT	0	Vch Offset (V)
VCHFILTER	IQUANT	3	Vch Filter
ACHRANGE	IQUANT	2	Ach Range
ACHOFFSETENABLE	TOGGLE	F	Ach Offset Enable
ACHOFFSET	QUANT	0	Ach Offset (V)
ACHFILTER	IQUANT	3	Ach Filter
IERANGELOWERLIMIT	IQUANT	1	I/E Range Lower Limit
IERANGEMODE	TOGGLE	F	I/E AutoRange
IERANGE	IQUANT	7	I/E Range
POSFEEDENABLE	TOGGLE	F	Positive Feedback IR Comp
POSFEEDRESISTANCE	QUANT	0	Positive Feedback Resistance (ohm)
ACHSELECT	IQUANT	0	Ach Select
CABLEID	IQUANT	14	Cable ID
DCCALDATE	LABEL	12/22/2019	DC Calibration Date
ACCALDATE	LABEL	12/22/2019	AC Calibration Date
THERMOSELECT	IQUANT	1	Thermo Select
FRAMEWORKVERSION	QUANT	6.33	Framework Version
INSTRUMENTVERSION	LABEL	3.50	Instrument Version
ZCURVE	TABLE
	Pt	Time	Freq	Zreal	Zimag	Zsig	Zmod	Zphz	Idc	Vdc	IERange
	#	s	Hz	ohm	ohm	V	ohm	°	A	V	#
	0	1	1000078	2236.272	-1474.163	1	2678.446	-33.3931	-1.070755E-006	-0.0021425	8
	1	1	794390.6	2508.925	-1437.974	1	2891.794	-29.8189	-2.203179E-006	-0.0023194	8
	2	2	630984.4	2756.047	-1364.813	1	3075.469	-26.34492	4.053744E-006	-0.0034822	8
	3	2	501234.4	2992.835	-1278.106	1	3254.323	-23.12515	2.772166E-006	-0.0035436	8
	4	2	398109.4	3179.213	-1184.101	1	3392.564	-20.4279	2.14135E-006	-0.0035241	8
	5	3	316265.6	3353.047	-1074.391	1	3520.971	-17.76662	5.077988E-007	-0.0032728	8
	6	3	251203.1	3502.706	-982.742	1	3637.957	-15.67234	1.386796E-006	-0.0034018	8
	7	3	199546.9	3625.981	-887.9822	1	3733.129	-13.76059	-7.632151E-007	-0.0029716	8
	8	4	158578.1	3723.441	-805.1036	1	3809.489	-12.20099	-6.424975E-007	-0.0030561	8
	9	4	125953.1	3829.802	-717.5488	1	3896.442	-10.61187	4.320894E-007	-0.0040424	7
	10	4	100078.1	3899.893	-658.8887	1	3955.161	-9.58959	1.300258E-008	-0.0032212	7
	11	5	79453.13	3971.977	-620.8737	1	4020.21	-8.884211	-4.337263E-009	-0.0031532	7
	12	5	63140.62	4039.791	-592.82	1	4083.056	-8.348298	-2.555579E-008	-0.0031542	7
	13	5	50203.12	4103.689	-572.1921	1	4143.388	-7.937779	1.692034E-008	-0.0031957	7
	14	6	39890.62	4165.577	-559.9509	1	4203.044	-7.655997	-7.314221E-009	-0.0031538	7
	15	6	31640.63	4223.545	-558.5968	1	4260.324	-7.534088	-6.461057E-010	-0.003222	7
	16	6	25171.88	4282.092	-563.7623	1	4319.044	-7.500186	8.002736E-008	-0.0032958	7
	17	6	20015.62	4338.638	-581.8867	1	4377.485	-7.638775	-1.303686E-008	-0.0031845	7
	18	7	15890.62	4394.171	-607.5808	1	4435.977	-7.872356	-9.841155E-009	-0.0031037	7
	19	7	12609.37	4450.31	-646.5801	1	4497.035	-8.266591	-2.564642E-008	-0.0031789	7
	20	7	10078.13	4508.887	-701.2462	1	4563.092	-8.840124	-1.09069E-008	-0.00311	7
	21	8	8015.625	4565.226	-772.3671	1	4630.101	-9.60265	-1.364008E-008	-0.0031914	7
	22	8	6328.125	4629.536	-866.052	1	4709.846	-10.59591	-8.22373E-009	-0.003165	7
	23	8	5015.625	4691.184	-981.304	1	4792.72	-11.8148	3.114415E-008	-0.0032833	7
	24	9	3984.375	4761.502	-1129.007	1	4893.522	-13.33914	-2.21178E-008	-0.0031817	7
	25	9	3170.956	4833.852	-1307.411	1	5007.54	-15.13466	3.681055E-008	-0.003201	7
	26	9	2527.573	4908.49	-1531.592	1	5141.892	-17.32945	8.148383E-008	-0.0033124	7
	27	10	1976.103	5000.136	-1835.094	1	5326.249	-20.15358	-3.314899E-008	-0.0031482	7
	28	10	1577.524	5090.292	-2175.894	1	5535.846	-23.14475	-3.290223E-009	-0.0031726	7
	29	10	1265.625	5197.26	-2592.417	1	5807.938	-26.51023	-1.140227E-008	-0.0032021	7
	30	11	998.264	5324.957	-3142.664	1	6183.162	-30.5481	-1.310023E-008	-0.0032006	7
	31	11	796.875	5470.897	-3790.663	1	6655.813	-34.71723	1.859239E-010	-0.0031767	7
	32	11	627.7902	5658.088	-4634.36	1	7313.772	-39.31982	-2.493468E-008	-0.0031663	7
	33	12	505.5147	5861.574	-5570.801	1	8086.524	-43.54305	3.028767E-008	-0.0032943	7
	34	12	397.9953	6141.933	-6843.459	1	9195.448	-48.09236	5.46786E-009	-0.0031924	7
	35	12	315.5048	6482.916	-8363.358	1	10581.77	-52.2187	4.763097E-010	-0.0031909	6
	36	12	252.4038	6890.047	-10146.25	1	12264.54	-55.82061	3.577419E-010	-0.003191	6
	37	13	198.6229	7442.816	-12488.53	1	14538.19	-59.20624	5.800298E-010	-0.0031927	6
	38	13	158.3615	8109.118	-15198.38	1	17226.39	-61.91779	6.725432E-010	-0.0031957	6
	39	13	125.558	8979.569	-18577.23	1	20633.62	-64.20255	4.261356E-010	-0.0031916	6
	40	14	100.4464	10056.93	-22509.12	1	24653.65	-65.92522	7.49789E-010	-0.0031993	6
	41	14	79.00281	11555.06	-27662.2	1	29978.61	-67.32872	3.289056E-010	-0.0032003	6
	42	14	63.3446	13230.09	-33290.02	1	35822.63	-68.32618	1.265912E-010	-0.003203	6
	43	15	49.86702	15751.68	-40742.78	1	43681.68	-68.86286	4.857055E-010	-0.0032064	6
	44	15	39.72458	18920.44	-49311.01	1	52816.27	-69.00839	4.497718E-010	-0.0031988	6
	45	16	31.6723	23018.23	-59386.51	1	63691.42	-68.81365	6.14753E-010	-0.0032009	6
	46	16	24.93351	28645.25	-71877.96	1	77375.65	-68.27142	-3.311171E-010	-0.0032026	6
	47	16	19.86229	35524.75	-85720.04	1	92789.73	-67.48953	-1.29771E-009	-0.0032023	6
	48	16	15.83615	44301.3	-101579.5	1	110819.7	-66.43681	1.065611E-009	-0.003204	5
	49	17	12.40079	56867.15	-120820.8	1	133534.8	-64.79488	4.610775E-010	-0.0032005	5
	50	17	9.93114	70200.65	-140024.7	1	156636.7	-63.37334	4.675358E-010	-0.0032073	5
	51	17	7.944915	85882.52	-160465	1	182002.3	-61.84386	-1.215164E-010	-0.0032027	5
	52	18	6.317385	105296.9	-185063.9	1	212922.7	-60.36116	1.247128E-010	-0.0032015	5
	53	19	5.008013	127072.6	-211482	1	246722.7	-58.99972	4.458626E-010	-0.003192	5
	54	19	3.945707	152454.5	-241800.6	1	285849.4	-57.76869	3.012708E-010	-0.003201	5
	55	20	3.158693	177151.3	-273659.9	1	325994.4	-57.08335	1.948657E-010	-0.0031841	5
	56	22	2.504006	206321.9	-312050.7	1	374091.4	-56.5281	-7.965158E-011	-0.0031946	5
	57	23	1.998082	235857.3	-355286	1	426446.7	-56.42173	-2.82866E-011	-0.0032101	5
	58	25	1.584686	270768.2	-406999.8	1	488839.7	-56.36503	1.343856E-010	-0.0031644	5
	59	27	1.266892	307802.9	-467953.4	1	560109.8	-56.66452	1.403699E-010	-0.0031681	5
	60	29	0.999041	351186.6	-543940.3	1	647458.9	-57.15232	1.337322E-010	-0.0031839	5
