EXPLAIN
TAG	EISPOT
TITLE	LABEL	Potentiostatic EIS	Test &Identifier
DATE	LABEL	1/10/2020	Date
TIME	LABEL	13:14:48	Time
NOTES	NOTES	5	&Notes...
	
	
	
	
	
PSTAT	PSTAT	REF600-11020	Potentiostat
VDC	POTEN	0.00000E+000	T	DC &Voltage (V)
FREQINIT	QUANT	1.00000E+006	Initial Fre&q. (Hz)
FREQFINAL	QUANT	1.00000E+000	Final Fre&q. (Hz)
PTSPERDEC	QUANT	1.00000E+001	Points/&decade
VAC	QUANT	2.50000E+001	AC &Voltage (mV rms)
AREA	QUANT	1.00000E-001	&Area (cm^2)
CONDIT	TWOPARAM	T	5.00000E+000	0.00000E+000	Conditionin&g	Time(s)	E(V)
DELAY	TWOPARAM	T	5.00000E+000	0.00000E+000	Init. De&lay	Time(s)	Stab.(mV/s)
SPEED	SELECTOR	0	&Optimize for:
ZGUESS	QUANT	5.00000E+002	E&stimated Z (ohms)
OCVCURVE	TABLE	19
	Pt	T	Vf	Vm	Ach	Over
	#	s	V vs. Ref.	V	V	bits
	0	0.258333	4.28088E-003	4.28088E-003	6.49780E-004	...........
	1	0.516667	4.27840E-003	4.15111E-003	6.44513E-004	...........
	2	0.775	4.26355E-003	4.04739E-003	6.46946E-004	...........
	3	1.03333	4.22389E-003	4.00769E-003	6.50813E-004	...........
	4	1.29167	4.16003E-003	3.95518E-003	6.47213E-004	...........
	5	1.55	4.08761E-003	3.92216E-003	6.51880E-004	...........
	6	1.80833	4.02222E-003	3.89583E-003	6.50046E-004	...........
	7	2.06667	3.97025E-003	3.88054E-003	6.46780E-004	...........
	8	2.325	3.93158E-003	3.86609E-003	6.45813E-004	...........
	9	2.58333	3.90366E-003	3.85206E-003	6.47013E-004	...........
	10	2.84167	3.88315E-003	3.83606E-003	6.50613E-004	...........
	11	3.1	3.86699E-003	3.83563E-003	6.50580E-004	...........
	12	3.35833	3.85340E-003	3.81389E-003	6.46446E-004	...........
	13	3.61667	3.84168E-003	3.82224E-003	6.54046E-004	...........
	14	3.875	3.83137E-003	3.78985E-003	6.50213E-004	...........
	15	4.13333	3.82164E-003	3.79787E-003	6.51746E-004	...........
	16	4.39167	3.81144E-003	3.76271E-003	6.50813E-004	...........
	17	4.65	3.80042E-003	3.78480E-003	6.49413E-004	...........
	18	4.90833	3.78951E-003	3.75475E-003	6.49013E-004	...........
EOC	QUANT	0.0037895	Open Circuit (V)
PSTATMODEL	IQUANT	4	Pstat Model
PSTATSECTION	LABEL	REF600-11020	Pstat Section
PSTATSERIALNO	LABEL	11020	Pstat Serial Number
CTRLMODE	IQUANT	1	Control Mode
IESTAB	IQUANT	0	I/E Stability
CASPEED	IQUANT	1	Control Amp Speed
CONVENTION	IQUANT	1	Current Convention
ICHRANGE	IQUANT	2	Ich Range
ICHRANGEMODE	TOGGLE	F	Ich Auto Range
ICHOFFSETENABLE	TOGGLE	T	Ich Offset Enable
ICHOFFSET	QUANT	0	Ich Offset (V)
ICHFILTER	IQUANT	3	Ich Filter
VCHRANGE	IQUANT	2	Vch Range
VCHRANGEMODE	TOGGLE	F	Vch Auto Range
VCHOFFSETENABLE	TOGGLE	T	Vch Offset Enable
VCHOFFSET	QUANT	0	Vch Offset (V)
VCHFILTER	IQUANT	3	Vch Filter
ACHRANGE	IQUANT	2	Ach Range
ACHOFFSETENABLE	TOGGLE	F	Ach Offset Enable
ACHOFFSET	QUANT	0	Ach Offset (V)
ACHFILTER	IQUANT	3	Ach Filter
IERANGELOWERLIMIT	IQUANT	1	I/E Range Lower Limit
IERANGEMODE	TOGGLE	F	I/E AutoRange
IERANGE	IQUANT	7	I/E Range
POSFEEDENABLE	TOGGLE	F	Positive Feedback IR Comp
POSFEEDRESISTANCE	QUANT	0	Positive Feedback Resistance (ohm)
ACHSELECT	IQUANT	0	Ach Select
CABLEID	IQUANT	14	Cable ID
DCCALDATE	LABEL	12/22/2019	DC Calibration Date
ACCALDATE	LABEL	12/22/2019	AC Calibration Date
THERMOSELECT	IQUANT	1	Thermo Select
FRAMEWORKVERSION	QUANT	6.33	Framework Version
INSTRUMENTVERSION	LABEL	3.50	Instrument Version
ZCURVE	TABLE
	Pt	Time	Freq	Zreal	Zimag	Zsig	Zmod	Zphz	Idc	Vdc	IERange
	#	s	Hz	ohm	ohm	V	ohm	°	A	V	#
	0	2	1000078	2013.763	-1863.255	1	2743.531	-42.77686	-3.149355E-006	0.0064829	8
	1	2	794390.6	2306.179	-1967.855	1	3031.653	-40.47402	2.790602E-006	0.0053692	8
	2	2	630984.4	2588.711	-2080.486	1	3321.121	-38.78801	-2.259869E-007	0.0054951	8
	3	3	501234.4	2895.583	-2187.784	1	3629.16	-37.0732	2.135884E-006	0.0050953	8
	4	3	398109.4	3205.15	-2301.15	1	3945.666	-35.6766	-2.829733E-006	0.0059537	8
	5	3	316265.6	3546.787	-2443.113	1	4306.797	-34.56001	-9.515344E-007	0.0056462	8
	6	4	251203.1	3898.633	-2613.372	1	4693.512	-33.83515	-3.472487E-007	0.0054401	8
	7	4	199546.9	4283.182	-2759.606	1	5095.201	-32.79323	1.321221E-006	0.0050754	8
	8	4	158578.1	4794.078	-2962.648	1	5635.642	-31.71527	3.250607E-007	0.0052973	8
	9	4	125953.1	5273.113	-3067.014	1	6100.188	-30.18367	5.892525E-007	0.0041539	7
	10	5	100078.1	5818.449	-3188.644	1	6634.893	-28.72375	1.004891E-007	0.0052173	7
	11	5	79453.13	6418.209	-3255.839	1	7196.798	-26.89784	-9.172545E-009	0.0053922	7
	12	5	63140.62	7040.96	-3235.394	1	7748.735	-24.67927	6.269241E-008	0.005231	7
	13	6	50203.12	7647.118	-3135.365	1	8264.921	-22.29393	-4.985724E-009	0.0053785	7
	14	6	39890.62	8205.905	-2952.826	1	8721.013	-19.79084	-5.526202E-010	0.005304	7
	15	6	31640.63	8700.559	-2713.625	1	9113.917	-17.32222	-3.171218E-008	0.0053709	7
	16	7	25171.88	9109.48	-2466.058	1	9437.377	-15.14766	4.99016E-008	0.0053353	7
	17	7	20015.62	9437.19	-2214.836	1	9693.61	-13.20785	-9.454292E-009	0.005443	7
	18	7	15890.62	9686.29	-1977.603	1	9886.11	-11.53921	1.008633E-007	0.0051995	7
	19	8	12609.37	9913.98	-1732.466	1	10064.22	-9.91233	-3.637966E-009	0.0053616	6
	20	8	10078.13	10056.08	-1590.65	1	10181.1	-8.988463	-1.028876E-009	0.0052738	6
	21	8	8015.625	10177.97	-1492.629	1	10286.84	-8.343114	-2.95475E-009	0.0053894	6
	22	9	6328.125	10276.82	-1448.987	1	10378.46	-8.025557	2.518767E-009	0.0053556	6
	23	9	5015.625	10363.21	-1460.363	1	10465.6	-8.021194	4.01129E-009	0.0051976	6
	24	9	3984.375	10440.6	-1520.275	1	10550.71	-8.284718	-8.232607E-009	0.0054124	6
	25	10	3170.956	10526.26	-1643.682	1	10653.82	-8.875098	-2.979913E-009	0.0054482	6
	26	10	2527.573	10604.71	-1827.54	1	10761.03	-9.77791	-2.819111E-009	0.0054434	6
	27	10	1976.103	10701.45	-2103.925	1	10906.3	-11.1226	-1.593176E-009	0.0053502	6
	28	11	1577.524	10818.15	-2431.126	1	11087.95	-12.66547	-8.72611E-009	0.0054132	6
	29	11	1265.625	10921.86	-2852.039	1	11288.1	-14.63491	-4.225225E-009	0.0053509	6
	30	11	998.264	11067.3	-3407.026	1	11579.85	-17.11078	2.375103E-009	0.0053662	6
	31	11	796.875	11234.2	-4065.635	1	11947.24	-19.89509	2.793486E-009	0.0053392	6
	32	12	627.7902	11449.62	-4917.332	1	12460.9	-23.24234	-4.272108E-009	0.0053492	6
	33	12	505.5147	11686.27	-5863.354	1	13074.71	-26.64429	1.157959E-009	0.0053857	6
	34	12	397.9953	11994.6	-7129.78	1	13953.64	-30.72792	2.854916E-010	0.0053443	6
	35	13	315.5048	12349.08	-8640.495	1	15071.76	-34.97999	5.213183E-010	0.0053433	6
	36	13	252.4038	12751.76	-10414.51	1	16464.19	-39.23891	8.95315E-010	0.0053425	6
	37	13	198.6229	13274.84	-12750.69	1	18406.56	-43.84622	7.425586E-010	0.0053435	6
	38	14	158.3615	13857.41	-15474.73	1	20772.46	-48.15599	1.175287E-009	0.0053362	6
	39	14	125.558	14598.09	-18890.95	1	23874.08	-52.30474	7.325999E-010	0.0053393	6
	40	14	100.4464	15450.58	-22940.05	1	27658.02	-56.03896	-6.504372E-011	0.0053344	6
	41	15	79.00281	16659.55	-28225.58	1	32775.36	-59.44967	9.33497E-012	0.0053339	6
	42	15	63.3446	18251.27	-34574.46	1	39096.06	-62.17118	1.132348E-009	0.0053273	6
	43	15	49.86702	20105.64	-42537.92	1	47050.09	-64.70214	-1.940669E-010	0.0053281	6
	44	16	39.72458	22599.01	-51519.2	1	56257.82	-66.31523	6.726556E-010	0.0053353	6
	45	16	31.6723	25767.13	-62539.47	1	67639.71	-67.60766	4.779037E-010	0.0053319	6
	46	16	24.93351	30322.45	-76966.15	1	82723.87	-68.49699	3.913814E-010	0.0053282	6
	47	17	19.86229	36086.66	-93335.23	1	100068.5	-68.86176	6.755074E-010	0.0053315	6
	48	17	15.83615	42560.07	-112485.5	1	120267.9	-69.27534	5.272676E-010	0.0053285	5
	49	17	12.40079	53517.17	-137519.2	1	147565.7	-68.73593	-4.506484E-010	0.0053272	5
	50	18	9.93114	67667.84	-163460	1	176912.7	-67.51182	-4.765032E-010	0.0053315	5
	51	18	7.944915	84310.83	-193724.3	1	211275.7	-66.48082	-2.395674E-010	0.0053298	5
	52	19	6.317385	105743.3	-228402.2	1	251692.7	-65.1573	-4.663915E-010	0.0053379	5
	53	20	5.008013	133252.5	-268384.6	1	299644	-63.59567	-2.464446E-010	0.0053218	5
	54	21	3.945707	167929.3	-312195.5	1	354494.4	-61.72429	1.055666E-010	0.0053341	5
	55	22	3.158693	207629.3	-357688.8	1	413583.4	-59.86592	-1.243248E-011	0.0053464	5
	56	24	2.504006	255734.7	-408663.3	1	482084.9	-57.96236	-1.935631E-010	0.0053334	5
	57	25	1.998082	308166.1	-459262.8	1	553071.9	-56.13832	6.296835E-011	0.0053601	5
	58	27	1.584686	369207.7	-516885	1	635204.3	-54.46202	1.62985E-010	0.0053769	5
	59	29	1.266892	432149.7	-575568.2	1	719744.5	-53.09994	1.160671E-010	0.0053445	5
	60	31	0.999041	506130.8	-642845.8	1	818180.3	-51.78564	7.675688E-011	0.0053148	5
