EXPLAIN
TAG	EISPOT
TITLE	LABEL	Potentiostatic EIS	Test &Identifier
DATE	LABEL	2/13/2020	Date
TIME	LABEL	13:40:45	Time
NOTES	NOTES	1	&Notes...
	
PSTAT	PSTAT	REF600-11020	Potentiostat
VDC	POTEN	0.00000E+000	T	DC &Voltage (V)
FREQINIT	QUANT	1.00000E+006	Initial Fre&q. (Hz)
FREQFINAL	QUANT	1.00000E+000	Final Fre&q. (Hz)
PTSPERDEC	QUANT	1.00000E+001	Points/&decade
VAC	QUANT	2.50000E+001	AC &Voltage (mV rms)
AREA	QUANT	5.00000E-004	&Area (cm^2)
CONDIT	TWOPARAM	F	1.50000E+001	0.00000E+000	Conditionin&g	Time(s)	E(V)
DELAY	TWOPARAM	F	1.00000E+002	0.00000E+000	Init. De&lay	Time(s)	Stab.(mV/s)
SPEED	SELECTOR	0	&Optimize for:
ZGUESS	QUANT	1.00000E+003	E&stimated Z (ohms)
OCVCURVE	TABLE	39
	Pt	T	Vf	Vm	Ach	Over
	#	s	V vs. Ref.	V	V	bits
	0	0.258333	6.58612E-002	6.58612E-002	5.67204E-004	...........
	1	0.516667	6.59209E-002	6.89872E-002	5.62571E-004	...........
	2	0.775	6.62434E-002	6.96338E-002	5.64438E-004	...........
	3	1.03333	6.70059E-002	7.01196E-002	5.64671E-004	...........
	4	1.29167	6.81337E-002	7.37069E-002	5.67504E-004	...........
	5	1.55	6.95175E-002	7.59205E-002	5.67804E-004	...........
	6	1.80833	7.11603E-002	7.44419E-002	5.65171E-004	...........
	7	2.06667	7.27696E-002	7.16758E-002	5.63604E-004	...........
	8	2.325	7.36735E-002	7.06781E-002	5.60838E-004	...........
	9	2.58333	7.35246E-002	7.21469E-002	5.65304E-004	...........
	10	2.84167	7.27724E-002	7.25953E-002	5.60304E-004	...........
	11	3.1	7.21751E-002	7.27953E-002	5.64871E-004	...........
	12	3.35833	7.20732E-002	7.30765E-002	5.64038E-004	...........
	13	3.61667	7.23197E-002	7.31330E-002	5.64071E-004	...........
	14	3.875	7.26472E-002	7.29260E-002	5.66838E-004	...........
	15	4.13333	7.29095E-002	7.40695E-002	5.61871E-004	...........
	16	4.39167	7.31128E-002	7.32869E-002	5.66204E-004	...........
	17	4.65	7.32780E-002	7.25066E-002	5.71171E-004	...........
	18	4.90833	7.33221E-002	7.28461E-002	5.66604E-004	...........
	19	5.16667	7.31979E-002	7.29705E-002	5.68738E-004	...........
	20	5.425	7.30178E-002	7.28730E-002	5.68071E-004	...........
	21	5.68333	7.29073E-002	7.29293E-002	5.68604E-004	...........
	22	5.94167	7.28759E-002	7.27530E-002	5.68871E-004	...........
	23	6.2	7.28720E-002	7.28846E-002	5.65638E-004	...........
	24	6.45833	7.28587E-002	7.25893E-002	5.63304E-004	...........
	25	6.71667	7.28223E-002	7.25748E-002	5.64171E-004	...........
	26	6.975	7.27654E-002	7.28989E-002	5.63538E-004	...........
	27	7.23333	7.27141E-002	7.24792E-002	5.60004E-004	...........
	28	7.49167	7.26889E-002	7.28247E-002	5.63971E-004	...........
	29	7.75	7.26875E-002	7.29109E-002	5.65738E-004	...........
	30	8.00833	7.27131E-002	7.28226E-002	5.63271E-004	...........
	31	8.26667	7.27638E-002	7.28810E-002	5.61104E-004	...........
	32	8.525	7.28093E-002	7.25624E-002	5.62404E-004	...........
	33	8.78333	7.28194E-002	7.29352E-002	5.61904E-004	...........
	34	9.04167	7.27635E-002	7.07702E-002	5.64571E-004	...........
	35	9.3	7.26027E-002	7.34644E-002	5.62638E-004	...........
	36	9.5583	7.24091E-002	7.24538E-002	5.65804E-004	...........
	37	9.8167	7.23847E-002	7.44592E-002	5.60771E-004	...........
	38	10.075	7.26352E-002	7.33240E-002	5.64071E-004	...........
EOC	QUANT	0.0726352	Open Circuit (V)
PSTATMODEL	IQUANT	4	Pstat Model
PSTATSECTION	LABEL	REF600-11020	Pstat Section
PSTATSERIALNO	LABEL	11020	Pstat Serial Number
CTRLMODE	IQUANT	1	Control Mode
IESTAB	IQUANT	0	I/E Stability
CASPEED	IQUANT	1	Control Amp Speed
CONVENTION	IQUANT	1	Current Convention
ICHRANGE	IQUANT	2	Ich Range
ICHRANGEMODE	TOGGLE	F	Ich Auto Range
ICHOFFSETENABLE	TOGGLE	T	Ich Offset Enable
ICHOFFSET	QUANT	0	Ich Offset (V)
ICHFILTER	IQUANT	3	Ich Filter
VCHRANGE	IQUANT	2	Vch Range
VCHRANGEMODE	TOGGLE	F	Vch Auto Range
VCHOFFSETENABLE	TOGGLE	T	Vch Offset Enable
VCHOFFSET	QUANT	0	Vch Offset (V)
VCHFILTER	IQUANT	3	Vch Filter
ACHRANGE	IQUANT	2	Ach Range
ACHOFFSETENABLE	TOGGLE	F	Ach Offset Enable
ACHOFFSET	QUANT	0	Ach Offset (V)
ACHFILTER	IQUANT	3	Ach Filter
IERANGELOWERLIMIT	IQUANT	1	I/E Range Lower Limit
IERANGEMODE	TOGGLE	F	I/E AutoRange
IERANGE	IQUANT	8	I/E Range
POSFEEDENABLE	TOGGLE	F	Positive Feedback IR Comp
POSFEEDRESISTANCE	QUANT	0	Positive Feedback Resistance (ohm)
ACHSELECT	IQUANT	0	Ach Select
CABLEID	IQUANT	14	Cable ID
DCCALDATE	LABEL	1/27/2020	DC Calibration Date
ACCALDATE	LABEL	1/27/2020	AC Calibration Date
THERMOSELECT	IQUANT	1	Thermo Select
FRAMEWORKVERSION	QUANT	6.33	Framework Version
INSTRUMENTVERSION	LABEL	3.50	Instrument Version
ZCURVE	TABLE
	Pt	Time	Freq	Zreal	Zimag	Zsig	Zmod	Zphz	Idc	Vdc	IERange
	#	s	Hz	ohm	ohm	V	ohm	°	A	V	#
	0	1	1000078	2234.449	-2187.854	1	3127.214	-44.39633	1.621653E-006	0.075338	8
	1	2	794390.6	2679.394	-2296.858	1	3529.123	-40.60418	-6.067154E-007	0.0745995	8
	2	2	630984.4	3150.275	-2308.828	1	3905.755	-36.23759	7.701534E-008	0.0744964	8
	3	2	501234.4	3594.818	-2281.721	1	4257.812	-32.40432	2.439672E-006	0.0738659	8
	4	3	398109.4	3974.157	-2114.036	1	4501.452	-28.01056	2.079688E-006	0.0738479	8
	5	3	316265.6	4338.677	-1998.004	1	4776.624	-24.72654	7.95453E-007	0.0740569	8
	6	3	251203.1	4657.83	-1821.513	1	5001.329	-21.35871	3.978578E-006	0.0736509	8
	7	4	199546.9	4910.693	-1659.276	1	5183.445	-18.66962	2.974035E-007	0.0742418	8
	8	4	158578.1	5127.269	-1502.623	1	5342.917	-16.33401	3.932588E-007	0.0742379	8
	9	4	125953.1	5323.021	-1337.534	1	5488.492	-14.1049	-9.124531E-009	0.0741946	7
	10	5	100078.1	5455.474	-1239.436	1	5594.497	-12.79983	8.030079E-008	0.074147	7
	11	5	79453.13	5584.108	-1165.656	1	5704.474	-11.79091	-1.302445E-008	0.0743391	7
	12	5	63140.62	5695.776	-1119.921	1	5804.833	-11.12377	-3.515247E-008	0.0742864	7
	13	6	50203.12	5801.612	-1100.698	1	5905.103	-10.74264	-3.270213E-008	0.0742903	7
	14	6	39890.62	5901.806	-1106.341	1	6004.606	-10.61733	-3.125168E-008	0.0742917	7
	15	6	31640.63	6005.554	-1136.971	1	6112.232	-10.72035	-2.007766E-008	0.0743668	7
	16	6	25171.88	6111.533	-1192.827	1	6226.851	-11.04394	-1.952493E-008	0.0743645	7
	17	7	20015.62	6219.732	-1276.535	1	6349.379	-11.5983	-2.242766E-008	0.0743179	7
	18	7	15890.62	6341.226	-1388.151	1	6491.387	-12.34777	3.424931E-009	0.0742871	7
	19	7	12609.37	6468.422	-1537.034	1	6648.531	-13.36679	2.9746E-008	0.0742393	7
	20	8	10078.13	6617.747	-1708.943	1	6834.841	-14.47953	5.081935E-008	0.0742599	7
	21	8	8015.625	6760.391	-1932.908	1	7031.288	-15.95611	-1.296747E-008	0.0743506	7
	22	8	6328.125	6938.73	-2207.823	1	7281.515	-17.65047	6.043612E-008	0.0741429	7
	23	9	5015.625	7133.603	-2537.665	1	7571.528	-19.5822	1.339127E-008	0.0742087	7
	24	9	3984.375	7357.346	-2930.587	1	7919.525	-21.71844	-2.792686E-008	0.07427	7
	25	9	3170.956	7607.234	-3394.454	1	8330.205	-24.04709	7.895083E-008	0.0741251	7
	26	10	2527.573	7891.466	-3943.375	1	8821.873	-26.55135	-2.537009E-008	0.0742655	7
	27	10	1976.103	8260.963	-4648.471	1	9479.019	-29.3666	-7.454003E-009	0.0743368	6
	28	10	1577.524	8641.276	-5437.417	1	10209.66	-32.17965	-6.09084E-009	0.0743888	6
	29	11	1265.625	9079.111	-6341.246	1	11074.37	-34.93212	6.48452E-010	0.0743197	6
	30	11	998.264	9629.13	-7498.514	1	12204.42	-37.90903	-8.051749E-009	0.0743399	6
	31	11	796.875	10243.71	-8804.724	1	13507.65	-40.67989	1.205481E-008	0.074117	6
	32	12	627.7902	11014.38	-10443.25	1	15178.21	-43.47535	1.348632E-009	0.0743087	6
	33	12	505.5147	11845.9	-12193.39	1	17000.12	-45.82814	-3.978649E-010	0.0741549	6
	34	12	397.9953	12921.26	-14475.06	1	19403.26	-48.24608	1.026795E-009	0.0742685	6
	35	13	315.5048	14164.23	-17099.84	1	22204.28	-50.36417	1.225782E-009	0.0742683	6
	36	13	252.4038	15560.31	-20054.74	1	25383.37	-52.19241	1.496521E-009	0.074265	6
	37	13	198.6229	17320.21	-23805.83	1	29439.89	-53.96179	8.216254E-010	0.074266	6
	38	14	158.3615	19257.57	-28004.66	1	33986.98	-55.48542	8.141212E-010	0.0742663	6
	39	14	125.558	21575.55	-33082.46	1	39496.25	-56.88862	8.911887E-010	0.0742648	6
	40	14	100.4464	24230.03	-38842.68	1	45780.43	-58.04412	1.418662E-009	0.0742647	6
	41	14	79.00281	27556.4	-46405.35	1	53970.47	-59.29734	1.39898E-009	0.0742648	6
	42	15	63.3446	30321.32	-54152.35	1	62063.35	-60.75439	5.719469E-010	0.0742592	6
	43	15	49.86702	35193.04	-64587.29	1	73553.16	-61.41442	1.184878E-009	0.0742559	6
	44	16	39.72458	40791.65	-77126.65	1	87249.52	-62.126	8.315907E-010	0.0742614	6
	45	16	31.6723	47420.46	-91399.65	1	102968.9	-62.57857	3.587785E-010	0.0742585	5
	46	16	24.93351	55439.74	-109015.5	1	122302.7	-63.04443	1.256484E-011	0.0742601	5
	47	17	19.86229	65030.91	-129304.6	1	144736.6	-63.30089	7.027323E-010	0.0742685	5
	48	17	15.83615	79183.79	-152440.2	1	171779.2	-62.55075	-1.574266E-009	0.0742613	5
	49	17	12.40079	94830.02	-181623.1	1	204889.4	-62.42979	1.1103E-009	0.0742588	5
	50	18	9.93114	111564.1	-213794.4	1	241152.7	-62.44314	-5.782304E-010	0.0742589	5
	51	18	7.944915	134657.2	-249452.9	1	283477.2	-61.63937	-3.194118E-010	0.0742545	5
	52	19	6.317385	163563	-291355.3	1	334126.9	-60.69072	-1.816826E-010	0.0742622	5
	53	20	5.008013	200685.9	-338103.8	1	393178.1	-59.3082	-2.277753E-010	0.0742484	5
	54	21	3.945707	245955.9	-390918.1	1	461856.3	-57.82292	2.036628E-010	0.0742577	5
	55	22	3.158693	294922.7	-442816.8	1	532039.6	-56.33579	-1.035634E-011	0.0742717	5
	56	24	2.504006	353932.1	-501567.8	1	613871.4	-54.79123	-1.384088E-010	0.0742617	5
	57	25	1.998082	417588.7	-561039.1	1	699389.1	-53.33921	7.09096E-011	0.0742809	5
	58	26	1.584686	491387.9	-630187.8	1	799123.8	-52.05474	1.585883E-010	0.0742963	5
	59	28	1.266892	567914.6	-701511.7	1	902577.2	-51.00782	1.370536E-010	0.0742613	5
	60	31	0.999041	659818.3	-784705.6	1	1025243	-49.94126	4.637489E-011	0.0741789	4
