EXPLAIN
TAG	EISPOT
TITLE	LABEL	Potentiostatic EIS	Test &Identifier
DATE	LABEL	3/3/2020	Date
TIME	LABEL	19:13:03	Time
NOTES	NOTES	1	&Notes...
	
PSTAT	PSTAT	REF600-11020	Potentiostat
VDC	POTEN	0.00000E+000	T	DC &Voltage (V)
FREQINIT	QUANT	1.00000E+006	Initial Fre&q. (Hz)
FREQFINAL	QUANT	1.00000E+000	Final Fre&q. (Hz)
PTSPERDEC	QUANT	1.00000E+001	Points/&decade
VAC	QUANT	2.50000E+001	AC &Voltage (mV rms)
AREA	QUANT	1.60000E-004	&Area (cm^2)
CONDIT	TWOPARAM	F	1.50000E+001	0.00000E+000	Conditionin&g	Time(s)	E(V)
DELAY	TWOPARAM	F	1.00000E+002	0.00000E+000	Init. De&lay	Time(s)	Stab.(mV/s)
SPEED	SELECTOR	1	&Optimize for:
ZGUESS	QUANT	1.00000E+004	E&stimated Z (ohms)
OCVCURVE	TABLE	39
	Pt	T	Vf	Vm	Ach	Over
	#	s	V vs. Ref.	V	V	bits
	0	0.258333	6.19825E-002	6.19825E-002	5.49097E-004	...........
	1	0.516667	6.19802E-002	6.18622E-002	5.51364E-004	...........
	2	0.775	6.19656E-002	6.17253E-002	5.49530E-004	...........
	3	1.03333	6.19234E-002	6.16153E-002	5.53064E-004	...........
	4	1.29167	6.18464E-002	6.14857E-002	5.53330E-004	...........
	5	1.55	6.17438E-002	6.14515E-002	5.40197E-004	...........
	6	1.80833	6.16359E-002	6.14489E-002	5.40597E-004	...........
	7	2.06667	6.15452E-002	6.14285E-002	5.45730E-004	...........
	8	2.325	6.14837E-002	6.14150E-002	5.48730E-004	...........
	9	2.58333	6.14463E-002	6.12916E-002	5.38464E-004	...........
	10	2.84167	6.14136E-002	6.11943E-002	5.37631E-004	...........
	11	3.1	6.13664E-002	6.11488E-002	5.41630E-004	...........
	12	3.35833	6.13012E-002	6.11173E-002	5.40497E-004	...........
	13	3.61667	6.12325E-002	6.11425E-002	5.41764E-004	...........
	14	3.875	6.11782E-002	6.11322E-002	5.38831E-004	...........
	15	4.13333	6.11473E-002	6.11653E-002	5.50130E-004	...........
	16	4.39167	6.11352E-002	6.10262E-002	5.47764E-004	...........
	17	4.65	6.11236E-002	6.09152E-002	5.46230E-004	...........
	18	4.90833	6.10914E-002	6.09191E-002	5.44130E-004	...........
	19	5.16667	6.10359E-002	6.08830E-002	5.50897E-004	...........
	20	5.425	6.09752E-002	6.08564E-002	5.47864E-004	...........
	21	5.68333	6.09241E-002	6.07854E-002	5.42097E-004	...........
	22	5.94167	6.08736E-002	6.03120E-002	5.46897E-004	...........
	23	6.2	6.07969E-002	6.06658E-002	5.56430E-004	...........
	24	6.45833	6.06946E-002	6.05102E-002	5.50664E-004	...........
	25	6.71667	6.05976E-002	6.00692E-002	5.45730E-004	...........
	26	6.975	6.05017E-002	6.00143E-002	5.52130E-004	...........
	27	7.23333	6.03797E-002	6.02906E-002	5.54297E-004	...........
	28	7.49167	6.02656E-002	6.05862E-002	5.43330E-004	...........
	29	7.75	6.02365E-002	6.05989E-002	5.47897E-004	...........
	30	8.00833	6.03111E-002	6.05756E-002	5.56364E-004	...........
	31	8.26667	6.04121E-002	5.96798E-002	5.48564E-004	...........
	32	8.525	6.04294E-002	6.03546E-002	5.44397E-004	...........
	33	8.78333	6.03316E-002	5.96347E-002	5.48630E-004	...........
	34	9.04167	6.01911E-002	6.05645E-002	5.57030E-004	...........
	35	9.3	6.01099E-002	6.04896E-002	5.56064E-004	...........
	36	9.5583	6.01387E-002	6.01190E-002	5.49164E-004	...........
	37	9.8167	6.02281E-002	6.03402E-002	5.50864E-004	...........
	38	10.075	6.02862E-002	6.00931E-002	5.53497E-004	...........
EOC	QUANT	0.0602862	Open Circuit (V)
PSTATMODEL	IQUANT	4	Pstat Model
PSTATSECTION	LABEL	REF600-11020	Pstat Section
PSTATSERIALNO	LABEL	11020	Pstat Serial Number
CTRLMODE	IQUANT	1	Control Mode
IESTAB	IQUANT	0	I/E Stability
CASPEED	IQUANT	1	Control Amp Speed
CONVENTION	IQUANT	1	Current Convention
ICHRANGE	IQUANT	2	Ich Range
ICHRANGEMODE	TOGGLE	F	Ich Auto Range
ICHOFFSETENABLE	TOGGLE	T	Ich Offset Enable
ICHOFFSET	QUANT	0	Ich Offset (V)
ICHFILTER	IQUANT	3	Ich Filter
VCHRANGE	IQUANT	2	Vch Range
VCHRANGEMODE	TOGGLE	F	Vch Auto Range
VCHOFFSETENABLE	TOGGLE	T	Vch Offset Enable
VCHOFFSET	QUANT	0	Vch Offset (V)
VCHFILTER	IQUANT	3	Vch Filter
ACHRANGE	IQUANT	2	Ach Range
ACHOFFSETENABLE	TOGGLE	F	Ach Offset Enable
ACHOFFSET	QUANT	0	Ach Offset (V)
ACHFILTER	IQUANT	3	Ach Filter
IERANGELOWERLIMIT	IQUANT	1	I/E Range Lower Limit
IERANGEMODE	TOGGLE	F	I/E AutoRange
IERANGE	IQUANT	7	I/E Range
POSFEEDENABLE	TOGGLE	F	Positive Feedback IR Comp
POSFEEDRESISTANCE	QUANT	0	Positive Feedback Resistance (ohm)
ACHSELECT	IQUANT	0	Ach Select
CABLEID	IQUANT	14	Cable ID
DCCALDATE	LABEL	2/27/2020	DC Calibration Date
ACCALDATE	LABEL	2/27/2020	AC Calibration Date
THERMOSELECT	IQUANT	1	Thermo Select
FRAMEWORKVERSION	QUANT	6.33	Framework Version
INSTRUMENTVERSION	LABEL	3.50	Instrument Version
ZCURVE	TABLE
	Pt	Time	Freq	Zreal	Zimag	Zsig	Zmod	Zphz	Idc	Vdc	IERange
	#	s	Hz	ohm	ohm	V	ohm	°	A	V	#
	0	1	1000078	1986.727	-2525.085	1	3212.964	-51.80447	1.475516E-007	0.0630947	8
	1	3	794390.6	2443.373	-2773.494	1	3696.26	-48.62082	-4.284131E-007	0.0621637	8
	2	4	630984.4	2952.919	-2986.111	1	4199.594	-45.3202	-6.625646E-008	0.0620282	8
	3	5	501234.4	3489.29	-3118.458	1	4679.736	-41.78789	-7.575247E-007	0.0620657	8
	4	7	398109.4	4026.689	-3222.608	1	5157.463	-38.67071	-1.729327E-006	0.0623452	8
	5	8	316265.6	4576.077	-3266.763	1	5622.475	-35.52223	-8.284812E-007	0.0619932	8
	6	10	251203.1	5131.047	-3296.023	1	6098.477	-32.71541	2.3079E-006	0.0614967	8
	7	11	199546.9	5617.876	-3249.074	1	6489.763	-30.04276	-1.110526E-006	0.0622662	8
	8	13	158578.1	6074.033	-3223.514	1	6876.403	-27.95508	1.686775E-006	0.0615574	8
	9	14	125953.1	6554.794	-3191.544	1	7290.493	-25.96156	6.365995E-007	0.0610635	7
	10	16	100078.1	6933.859	-3199.207	1	7636.316	-24.76808	1.859689E-008	0.0616486	7
	11	17	79453.13	7340.658	-3248.258	1	8027.231	-23.8695	1.300475E-007	0.0615798	7
	12	19	63140.62	7711.727	-3385.74	1	8422.23	-23.70329	2.192576E-008	0.0617155	7
	13	20	50203.12	8098.562	-3550.651	1	8842.728	-23.67408	-6.942341E-008	0.0618598	7
	14	21	39890.62	8510.28	-3766.834	1	9306.659	-23.87522	3.869118E-008	0.0618065	7
	15	23	31640.63	8936.489	-4044.81	1	9809.25	-24.35233	1.00373E-007	0.0615806	7
	16	24	25171.88	9384.406	-4381.511	1	10356.87	-25.02753	-2.244263E-008	0.0617154	7
	17	25	20015.62	9872.67	-4797.596	1	10976.63	-25.91731	3.722409E-008	0.0616442	7
	18	27	15890.62	10403.57	-5305.189	1	11678.15	-27.01882	-3.955996E-008	0.0618802	7
	19	28	12609.37	11028.37	-5822.627	1	12471.08	-27.83262	1.546867E-008	0.061584	6
	20	30	10078.13	11675.64	-6502.672	1	13364.33	-29.11534	-1.022585E-008	0.0620091	6
	21	31	8015.625	12392.96	-7302.955	1	14384.67	-30.5101	-1.374865E-008	0.0619969	6
	22	32	6328.125	13228.04	-8266.83	1	15598.77	-32.00322	-3.829578E-009	0.0617654	6
	23	34	5015.625	14152	-9360.98	1	16967.82	-33.48304	-3.041509E-009	0.0617703	6
	24	35	3984.375	15200.85	-10614.16	1	18539.86	-34.9251	6.658623E-009	0.0618509	6
	25	36	3170.956	16369.48	-12035.96	1	20318.07	-36.32587	-2.985109E-009	0.0619489	6
	26	38	2527.573	17694.71	-13649.76	1	22347.68	-37.64671	-3.504476E-009	0.06177	6
	27	39	1976.103	19379.08	-15688.06	1	24933.2	-38.99141	-7.360995E-009	0.0618931	6
	28	41	1577.524	21084.83	-17828.91	1	27612.32	-40.21719	-3.456758E-009	0.0617706	6
	29	42	1265.625	22990.44	-20115.28	1	30548.07	-41.18401	-6.093819E-009	0.0618718	6
	30	43	998.264	25364.78	-23016.15	1	34250.77	-42.22079	7.140033E-009	0.0615813	6
	31	45	796.875	27936.02	-26160.48	1	38272.6	-43.12012	2.504933E-009	0.0619168	6
	32	46	627.7902	31053.56	-29879.63	1	43094.27	-43.89628	-1.018422E-008	0.062012	6
	33	48	505.5147	34254.96	-33751.8	1	48089.36	-44.5761	1.406531E-008	0.0616627	6
	34	49	397.9953	38293.45	-38596.41	1	54369.77	-45.22575	9.545538E-011	0.0618383	6
	35	50	315.5048	42778.71	-43924.33	1	61313.66	-45.75701	-1.77831E-009	0.0618324	6
	36	52	252.4038	47734.89	-49771.46	1	68962.45	-46.19654	1.855301E-010	0.0618314	6
	37	53	198.6229	53763.88	-56907.7	1	78288.2	-46.62715	4.346662E-010	0.0618288	6
	38	54	158.3615	60327.71	-64591.32	1	88382.52	-46.9548	8.269478E-010	0.0618294	6
	39	56	125.558	68152.84	-73313.67	1	100098.5	-47.08928	-8.415151E-011	0.0618308	5
	40	57	100.4464	76749.8	-83108.35	1	113126.2	-47.27781	5.507879E-010	0.0618311	5
	41	59	79.00281	86648.44	-94973.93	1	128561.3	-47.62458	-3.117853E-010	0.0618225	5
	42	60	63.3446	96045	-108887.9	1	145193.7	-48.58596	-3.152146E-010	0.061821	5
	43	61	49.86702	112947	-118633.5	1	163801.4	-46.40663	-6.107182E-010	0.0618245	5
	44	63	39.72458	128487.6	-135682.7	1	186865.8	-46.56015	2.513648E-010	0.0618301	5
	45	64	31.6723	145579.2	-151721.1	1	210268	-46.1835	-1.695463E-010	0.0618272	5
	46	66	24.93351	167206.3	-170645	1	238909.3	-45.58316	2.737758E-010	0.061825	5
	47	67	19.86229	189383.1	-189504.9	1	267914.3	-45.01842	-2.532833E-010	0.0618306	5
	48	69	15.83615	213231.5	-211430.3	1	300283.9	-44.75699	1.205588E-010	0.0618259	5
	49	70	12.40079	242741	-237272.1	1	339442.6	-44.34724	5.825198E-011	0.0618288	5
	50	71	9.93114	273331.8	-256253.3	1	374667.9	-43.15292	-2.685044E-010	0.0618306	5
	51	73	7.944915	303030.4	-283734.5	1	415129.7	-43.1165	-3.163398E-010	0.061835	5
	52	75	6.317385	339468.9	-311171.8	1	460507.4	-42.50971	-3.6846E-010	0.061832	5
	53	77	5.008013	379016	-343524.8	1	511529.5	-42.1879	-8.2457E-010	0.0618311	5
	54	79	3.945707	421765.5	-382006.8	1	569047.8	-42.16817	1.758972E-010	0.061836	5
	55	82	3.158693	465110.5	-421567.1	1	627731.3	-42.18855	-8.476639E-011	0.0618195	5
	56	85	2.504006	510007	-473653	1	696027.6	-42.88343	5.184408E-010	0.0618342	5
	57	88	1.998082	562027.1	-523022.2	1	767741.3	-42.94124	3.068564E-010	0.061825	5
	58	91	1.584686	619324.1	-586462.8	1	852936.7	-43.4389	1.234859E-013	0.0617706	5
	59	95	1.266892	671608.1	-659762	1	941458.1	-44.49021	2.408049E-010	0.0618121	5
	60	99	0.999041	735851.7	-755945.8	1	1054956	-45.77171	-1.813973E-010	0.061811	4
