EXPLAIN
TAG	EISPOT
TITLE	LABEL	Potentiostatic EIS	Test &Identifier
DATE	LABEL	2/13/2020	Date
TIME	LABEL	10:47:10	Time
NOTES	NOTES	1	&Notes...
	
PSTAT	PSTAT	REF600-11020	Potentiostat
VDC	POTEN	0.00000E+000	T	DC &Voltage (V)
FREQINIT	QUANT	1.00000E+006	Initial Fre&q. (Hz)
FREQFINAL	QUANT	1.00000E+000	Final Fre&q. (Hz)
PTSPERDEC	QUANT	1.00000E+001	Points/&decade
VAC	QUANT	2.50000E+001	AC &Voltage (mV rms)
AREA	QUANT	5.00000E-004	&Area (cm^2)
CONDIT	TWOPARAM	F	1.50000E+001	0.00000E+000	Conditionin&g	Time(s)	E(V)
DELAY	TWOPARAM	F	1.00000E+002	0.00000E+000	Init. De&lay	Time(s)	Stab.(mV/s)
SPEED	SELECTOR	0	&Optimize for:
ZGUESS	QUANT	1.00000E+003	E&stimated Z (ohms)
OCVCURVE	TABLE	39
	Pt	T	Vf	Vm	Ach	Over
	#	s	V vs. Ref.	V	V	bits
	0	0.258333	5.39759E-002	5.39759E-002	5.94004E-004	...........
	1	0.516667	5.39729E-002	5.38197E-002	5.97270E-004	...........
	2	0.775	5.39526E-002	5.35669E-002	5.94970E-004	...........
	3	1.03333	5.38982E-002	5.38349E-002	5.94871E-004	...........
	4	1.29167	5.38265E-002	5.38800E-002	5.90271E-004	...........
	5	1.55	5.37795E-002	5.35951E-002	5.93704E-004	...........
	6	1.80833	5.37626E-002	5.37262E-002	5.92637E-004	...........
	7	2.06667	5.37512E-002	5.39174E-002	5.97370E-004	...........
	8	2.325	5.37428E-002	5.35040E-002	5.94537E-004	...........
	9	2.58333	5.37352E-002	5.36143E-002	5.95004E-004	...........
	10	2.84167	5.37128E-002	5.38550E-002	5.89371E-004	...........
	11	3.1	5.36861E-002	5.35014E-002	5.92071E-004	...........
	12	3.35833	5.36709E-002	5.36063E-002	5.89837E-004	...........
	13	3.61667	5.36586E-002	5.38297E-002	5.96137E-004	...........
	14	3.875	5.36498E-002	5.34846E-002	5.97537E-004	...........
	15	4.13333	5.36461E-002	5.35075E-002	5.98537E-004	...........
	16	4.39167	5.36307E-002	5.37087E-002	5.95637E-004	...........
	17	4.65	5.36053E-002	5.34935E-002	5.96071E-004	...........
	18	4.90833	5.35849E-002	5.34209E-002	5.95804E-004	...........
	19	5.16667	5.35644E-002	5.36417E-002	5.97771E-004	...........
	20	5.425	5.35438E-002	5.35738E-002	5.94904E-004	...........
	21	5.68333	5.35359E-002	5.33620E-002	5.93571E-004	...........
	22	5.94167	5.35323E-002	5.35672E-002	5.93037E-004	...........
	23	6.2	5.35213E-002	5.36182E-002	5.98437E-004	...........
	24	6.45833	5.35145E-002	5.33524E-002	5.93037E-004	...........
	25	6.71667	5.35134E-002	5.35195E-002	5.95504E-004	...........
	26	6.975	5.35074E-002	5.36535E-002	5.97804E-004	...........
	27	7.23333	5.35038E-002	5.33228E-002	5.96537E-004	...........
	28	7.49167	5.35038E-002	5.34651E-002	5.92437E-004	...........
	29	7.75	5.34941E-002	5.36016E-002	5.95570E-004	...........
	30	8.00833	5.34814E-002	5.33541E-002	5.91804E-004	...........
	31	8.26667	5.34750E-002	5.34103E-002	5.93471E-004	...........
	32	8.525	5.34654E-002	5.35376E-002	5.88037E-004	...........
	33	8.78333	5.34523E-002	5.33414E-002	5.88404E-004	...........
	34	9.04167	5.34412E-002	5.33415E-002	5.87571E-004	...........
	35	9.3	5.34248E-002	5.34172E-002	5.87404E-004	...........
	36	9.5583	5.34030E-002	5.33904E-002	5.86271E-004	...........
	37	9.8167	5.33881E-002	5.33422E-002	5.92171E-004	...........
	38	10.075	5.33817E-002	5.33842E-002	5.88137E-004	...........
EOC	QUANT	0.0533817	Open Circuit (V)
PSTATMODEL	IQUANT	4	Pstat Model
PSTATSECTION	LABEL	REF600-11020	Pstat Section
PSTATSERIALNO	LABEL	11020	Pstat Serial Number
CTRLMODE	IQUANT	1	Control Mode
IESTAB	IQUANT	0	I/E Stability
CASPEED	IQUANT	1	Control Amp Speed
CONVENTION	IQUANT	1	Current Convention
ICHRANGE	IQUANT	2	Ich Range
ICHRANGEMODE	TOGGLE	F	Ich Auto Range
ICHOFFSETENABLE	TOGGLE	T	Ich Offset Enable
ICHOFFSET	QUANT	0	Ich Offset (V)
ICHFILTER	IQUANT	3	Ich Filter
VCHRANGE	IQUANT	2	Vch Range
VCHRANGEMODE	TOGGLE	F	Vch Auto Range
VCHOFFSETENABLE	TOGGLE	T	Vch Offset Enable
VCHOFFSET	QUANT	0	Vch Offset (V)
VCHFILTER	IQUANT	3	Vch Filter
ACHRANGE	IQUANT	2	Ach Range
ACHOFFSETENABLE	TOGGLE	F	Ach Offset Enable
ACHOFFSET	QUANT	0	Ach Offset (V)
ACHFILTER	IQUANT	3	Ach Filter
IERANGELOWERLIMIT	IQUANT	1	I/E Range Lower Limit
IERANGEMODE	TOGGLE	F	I/E AutoRange
IERANGE	IQUANT	8	I/E Range
POSFEEDENABLE	TOGGLE	F	Positive Feedback IR Comp
POSFEEDRESISTANCE	QUANT	0	Positive Feedback Resistance (ohm)
ACHSELECT	IQUANT	0	Ach Select
CABLEID	IQUANT	14	Cable ID
DCCALDATE	LABEL	1/27/2020	DC Calibration Date
ACCALDATE	LABEL	1/27/2020	AC Calibration Date
THERMOSELECT	IQUANT	1	Thermo Select
FRAMEWORKVERSION	QUANT	6.33	Framework Version
INSTRUMENTVERSION	LABEL	3.50	Instrument Version
ZCURVE	TABLE
	Pt	Time	Freq	Zreal	Zimag	Zsig	Zmod	Zphz	Idc	Vdc	IERange
	#	s	Hz	ohm	ohm	V	ohm	°	A	V	#
	0	1	1000078	1679.767	-1885.666	1	2525.342	-48.30508	-2.480672E-006	0.0565101	8
	1	1	794390.6	2028.634	-2043.031	1	2879.12	-45.20259	1.25642E-007	0.0556601	8
	2	1	630984.4	2420.09	-2167.254	1	3248.665	-41.84527	2.221942E-007	0.0552698	8
	3	2	501234.4	2822.313	-2221.444	1	3591.693	-38.20631	1.328277E-006	0.0549487	8
	4	2	398109.4	3264.981	-2235.487	1	3956.956	-34.3989	2.163722E-006	0.0546237	8
	5	2	316265.6	3688.252	-2190.901	1	4289.901	-30.71122	-2.736301E-006	0.0556217	8
	6	3	251203.1	4097.852	-2111.114	1	4609.685	-27.25643	-3.573363E-006	0.0559173	8
	7	3	199546.9	4441.355	-1950.376	1	4850.732	-23.70819	-4.53852E-007	0.0551685	8
	8	3	158578.1	4803.107	-1804.643	1	5130.943	-20.59241	2.149249E-006	0.0546626	8
	9	4	125953.1	5133.13	-1562.971	1	5365.809	-16.9348	3.312798E-007	0.0540527	7
	10	4	100078.1	5308.825	-1392.441	1	5488.398	-14.69693	1.924558E-008	0.054966	7
	11	4	79453.13	5485.487	-1225.634	1	5620.742	-12.59486	-2.566523E-008	0.055132	7
	12	5	63140.62	5621.677	-1073.023	1	5723.166	-10.8062	-4.598989E-008	0.0550966	7
	13	5	50203.12	5732.447	-941.1649	1	5809.195	-9.323756	1.738505E-009	0.0549563	7
	14	5	39890.62	5818.953	-831.3921	1	5878.046	-8.131194	1.248841E-008	0.0549602	7
	15	6	31640.63	5887.744	-741.0143	1	5934.192	-7.173363	-3.25818E-008	0.0550522	7
	16	6	25171.88	5945.525	-674.8721	1	5983.705	-6.475883	-3.443257E-008	0.0550537	7
	17	6	20015.62	5993.916	-626.1306	1	6026.53	-5.963547	-1.555189E-008	0.055087	7
	18	6	15890.62	6033.533	-599.5087	1	6063.245	-5.674443	-3.581371E-008	0.0550453	7
	19	7	12609.37	6074.765	-594.3882	1	6103.774	-5.588345	-1.642792E-008	0.0551135	7
	20	7	10078.13	6106.368	-609.9965	1	6136.76	-5.704645	2.899012E-008	0.0549877	7
	21	7	8015.625	6136.147	-639.4412	1	6169.375	-5.949257	-3.893991E-008	0.055096	7
	22	8	6328.125	6168.962	-701.4894	1	6208.718	-6.487393	-3.455337E-008	0.0550359	7
	23	8	5015.625	6203.14	-789.6248	1	6253.195	-7.254416	-2.314872E-008	0.0551213	7
	24	8	3984.375	6237.682	-906.7976	1	6303.25	-8.271381	-3.528099E-008	0.0550493	7
	25	9	3170.956	6275.687	-1061.848	1	6364.886	-9.6035	-2.957535E-008	0.0550181	7
	26	9	2527.573	6317.786	-1257.329	1	6441.685	-11.25561	-3.626173E-008	0.0550571	7
	27	9	1976.103	6371.553	-1526.195	1	6551.79	-13.47041	-1.030835E-008	0.0549741	7
	28	10	1577.524	6432.357	-1840.237	1	6690.418	-15.96533	1.198763E-008	0.0549387	7
	29	10	1265.625	6503.875	-2219.717	1	6872.229	-18.84433	-3.193207E-008	0.0550795	7
	30	10	998.264	6595.181	-2724.567	1	7135.802	-22.44625	-3.580536E-008	0.0550372	7
	31	11	796.875	6705.528	-3319.403	1	7482.148	-26.33655	-2.915687E-008	0.0550843	7
	32	11	627.7902	6852.77	-4097.616	1	7984.417	-30.87733	2.611472E-008	0.0549776	7
	33	11	505.5147	7021.037	-4961.255	1	8597.035	-35.24606	-3.188176E-008	0.0550173	7
	34	12	397.9953	7266.519	-6135.362	1	9510.26	-40.17551	6.136529E-009	0.0550248	7
	35	12	315.5048	7576.314	-7533.958	1	10684.62	-44.83939	1.604581E-009	0.0550206	6
	36	12	252.4038	7959.578	-9174.071	1	12145.72	-49.05455	1.085142E-009	0.0550197	6
	37	13	198.6229	8498	-11317.98	1	14153.19	-53.09929	8.253377E-010	0.0550191	6
	38	13	158.3615	9165.816	-13786.09	1	16555.01	-56.38166	6.183408E-010	0.0550181	6
	39	13	125.558	10054.22	-16837.52	1	19610.95	-59.15721	6.262263E-010	0.0550184	6
	40	14	100.4464	11155.01	-20345.44	1	23202.82	-61.2649	5.794918E-010	0.0550167	6
	41	14	79.00281	12762.75	-24911.06	1	27990.16	-62.87246	9.312119E-010	0.0550174	6
	42	14	63.3446	14410.05	-29919.31	1	33208.65	-64.28312	8.188183E-011	0.055015	6
	43	15	49.86702	17054.09	-36250.95	1	40062.12	-64.80558	3.713777E-010	0.0550142	6
	44	15	39.72458	20416.77	-43437.76	1	47996.71	-64.82537	4.672875E-010	0.0550191	6
	45	15	31.6723	24550.17	-51648.71	1	57186.54	-64.57687	1.975262E-010	0.0550184	6
	46	16	24.93351	29831.74	-61644.99	1	68483.85	-64.17636	1.122018E-009	0.0550143	6
	47	16	19.86229	36113.05	-72544.69	1	81036.31	-63.53569	7.311486E-010	0.0550191	6
	48	16	15.83615	44040.63	-84220.97	1	95040.8	-62.39414	2.323773E-009	0.0550071	6
	49	16	12.40079	53781.2	-99611.5	1	113202.8	-61.63498	1.299863E-009	0.055008	5
	50	17	9.93114	63835.51	-114347.4	1	130959.1	-60.82714	1.583233E-009	0.0550163	5
	51	17	7.944915	75514.3	-131926.8	1	152010.2	-60.21338	3.775321E-010	0.0550111	5
	52	18	6.317385	88710.71	-151667.7	1	175706.3	-59.67657	1.031122E-010	0.0550161	5
	53	19	5.008013	103710.3	-175179.6	1	203577.3	-59.37351	-1.762878E-010	0.0550086	5
	54	20	3.945707	121207.4	-203689.3	1	237024.3	-59.24481	4.40327E-010	0.0550127	5
	55	21	3.158693	138765.9	-234534.9	1	272511.6	-59.38872	6.516161E-011	0.0550251	5
	56	22	2.504006	160036.6	-273444.1	1	316833.4	-59.66116	-1.360169E-010	0.0550133	5
	57	24	1.998082	183746.5	-317575.3	1	366901.7	-59.94668	1.388545E-010	0.0550416	5
	58	25	1.584686	212289.5	-373173.7	1	429331.4	-60.3655	1.85761E-010	0.0550543	5
	59	27	1.266892	243657.7	-435011.7	1	498602.3	-60.74605	1.068599E-010	0.0550153	5
	60	30	0.999041	287378.1	-512401.7	1	587487.6	-60.71431	8.917563E-011	0.0549909	5
