EXPLAIN
TAG	EISPOT
TITLE	LABEL	Potentiostatic EIS	Test &Identifier
DATE	LABEL	6/1/2020	Date
TIME	LABEL	14:05:31	Time
NOTES	NOTES	1	&Notes...
	
PSTAT	PSTAT	REF600-11020	Potentiostat
VDC	POTEN	0.00000E+000	T	DC &Voltage (V)
FREQINIT	QUANT	1.00000E+006	Initial Fre&q. (Hz)
FREQFINAL	QUANT	1.00000E+000	Final Fre&q. (Hz)
PTSPERDEC	QUANT	1.00000E+001	Points/&decade
VAC	QUANT	2.50000E+001	AC &Voltage (mV rms)
AREA	QUANT	4.00000E-004	&Area (cm^2)
CONDIT	TWOPARAM	F	5.00000E+000	0.00000E+000	Conditionin&g	Time(s)	E(V)
DELAY	TWOPARAM	T	3.00000E+000	0.00000E+000	Init. De&lay	Time(s)	Stab.(mV/s)
SPEED	SELECTOR	0	&Optimize for:
ZGUESS	QUANT	1.00000E+003	E&stimated Z (ohms)
OCVCURVE	TABLE	12
	Pt	T	Vf	Vm	Ach	Over
	#	s	V vs. Ref.	V	V	bits
	0	0.258333	1.11542E-001	1.11542E-001	5.81330E-004	...........
	1	0.516667	1.11543E-001	1.11563E-001	5.78630E-004	...........
	2	0.775	1.11545E-001	1.11572E-001	5.78830E-004	...........
	3	1.03333	1.11550E-001	1.11578E-001	5.84530E-004	...........
	4	1.29167	1.11559E-001	1.11583E-001	5.85363E-004	...........
	5	1.55	1.11568E-001	1.11583E-001	5.80397E-004	...........
	6	1.80833	1.11575E-001	1.11583E-001	5.78630E-004	...........
	7	2.06667	1.11580E-001	1.11584E-001	5.86830E-004	...........
	8	2.325	1.11582E-001	1.11583E-001	5.86130E-004	...........
	9	2.58333	1.11583E-001	1.11581E-001	5.78797E-004	...........
	10	2.84167	1.11583E-001	1.11579E-001	5.81263E-004	...........
	11	3.1	1.11583E-001	1.11577E-001	5.81697E-004	...........
EOC	QUANT	0.1115825	Open Circuit (V)
PSTATMODEL	IQUANT	4	Pstat Model
PSTATSECTION	LABEL	REF600-11020	Pstat Section
PSTATSERIALNO	LABEL	11020	Pstat Serial Number
CTRLMODE	IQUANT	1	Control Mode
IESTAB	IQUANT	0	I/E Stability
CASPEED	IQUANT	1	Control Amp Speed
CONVENTION	IQUANT	1	Current Convention
ICHRANGE	IQUANT	2	Ich Range
ICHRANGEMODE	TOGGLE	F	Ich Auto Range
ICHOFFSETENABLE	TOGGLE	T	Ich Offset Enable
ICHOFFSET	QUANT	0	Ich Offset (V)
ICHFILTER	IQUANT	3	Ich Filter
VCHRANGE	IQUANT	2	Vch Range
VCHRANGEMODE	TOGGLE	F	Vch Auto Range
VCHOFFSETENABLE	TOGGLE	T	Vch Offset Enable
VCHOFFSET	QUANT	0	Vch Offset (V)
VCHFILTER	IQUANT	3	Vch Filter
ACHRANGE	IQUANT	2	Ach Range
ACHOFFSETENABLE	TOGGLE	F	Ach Offset Enable
ACHOFFSET	QUANT	0	Ach Offset (V)
ACHFILTER	IQUANT	3	Ach Filter
IERANGELOWERLIMIT	IQUANT	1	I/E Range Lower Limit
IERANGEMODE	TOGGLE	F	I/E AutoRange
IERANGE	IQUANT	8	I/E Range
POSFEEDENABLE	TOGGLE	F	Positive Feedback IR Comp
POSFEEDRESISTANCE	QUANT	0	Positive Feedback Resistance (ohm)
ACHSELECT	IQUANT	0	Ach Select
CABLEID	IQUANT	14	Cable ID
DCCALDATE	LABEL	2/27/2020	DC Calibration Date
ACCALDATE	LABEL	2/27/2020	AC Calibration Date
THERMOSELECT	IQUANT	1	Thermo Select
FRAMEWORKVERSION	QUANT	6.33	Framework Version
INSTRUMENTVERSION	LABEL	3.50	Instrument Version
ZCURVE	TABLE
	Pt	Time	Freq	Zreal	Zimag	Zsig	Zmod	Zphz	Idc	Vdc	IERange
	#	s	Hz	ohm	ohm	V	ohm	°	A	V	#
	0	1	1000078	1694.036	-1856.637	1	2513.336	-47.62198	6.683526E-008	0.1137814	8
	1	2	794390.6	1964.924	-2057.433	1	2844.989	-46.31749	3.036178E-008	0.1134606	8
	2	2	630984.4	2276.537	-2263.38	1	3210.219	-44.83395	6.168979E-008	0.113332	8
	3	2	501234.4	2623.503	-2476.876	1	3608.003	-43.35329	4.231853E-008	0.1132286	8
	4	2	398109.4	3012.729	-2685.73	1	4036.048	-41.71576	3.252382E-008	0.1131762	8
	5	3	316265.6	3445.768	-2878.221	1	4489.708	-39.87173	2.610493E-008	0.1131739	8
	6	3	251203.1	3909.83	-3072.243	1	4972.469	-38.15935	3.327564E-008	0.1131416	8
	7	3	199546.9	4404.616	-3232.829	1	5463.683	-36.27732	3.473454E-008	0.1131481	8
	8	4	158578.1	4913.799	-3364.52	1	5955.284	-34.39977	3.917447E-008	0.1131496	8
	9	4	125953.1	5532.222	-3418.28	1	6503.085	-31.71132	2.069265E-009	0.1130894	7
	10	4	100078.1	6039.829	-3536.082	1	6998.815	-30.34729	1.658167E-009	0.1130743	7
	11	5	79453.13	6574.314	-3660.537	1	7524.702	-29.10878	1.644878E-009	0.1130732	7
	12	5	63140.62	7116.998	-3784.757	1	8060.772	-28.00365	2.201502E-009	0.1130727	7
	13	5	50203.12	7670.188	-3903.302	1	8606.251	-26.97121	1.889912E-009	0.1130665	7
	14	6	39890.62	8237.466	-4029.784	1	9170.333	-26.06797	2.035387E-009	0.1130607	7
	15	6	31640.63	8815.185	-4161.333	1	9748.03	-25.27032	2.666577E-009	0.1130626	7
	16	6	25171.88	9396.08	-4306.461	1	10335.95	-24.62319	2.548435E-009	0.1130598	7
	17	7	20015.62	9988.58	-4463.689	1	10940.58	-24.07888	3.091311E-009	0.1130594	7
	18	7	15890.62	10580.12	-4640.095	1	11552.9	-23.68068	2.459521E-009	0.113058	7
	19	7	12609.37	11307.66	-4692.853	1	12242.8	-22.5392	3.583031E-010	0.1131094	6
	20	7	10078.13	11886.72	-4961.582	1	12880.66	-22.65592	1.470189E-010	0.1131028	6
	21	8	8015.625	12501.79	-5285.465	1	13573.17	-22.9175	3.400176E-010	0.1131065	6
	22	8	6328.125	13162.78	-5678.186	1	14335.29	-23.3345	3.204784E-010	0.113112	6
	23	8	5015.625	13853.56	-6134.211	1	15150.9	-23.88326	4.371867E-011	0.1131044	6
	24	9	3984.375	14575.12	-6664.633	1	16026.59	-24.57277	9.513437E-011	0.113106	6
	25	9	3170.956	15337.86	-7280.369	1	16978.04	-25.39213	3.192289E-010	0.1131012	6
	26	9	2527.573	16136.73	-7990.275	1	18006.62	-26.34281	9.182904E-012	0.1131007	6
	27	10	1976.103	17064.62	-8909.909	1	19250.66	-27.5703	2.274937E-010	0.1131039	6
	28	10	1577.524	17960.63	-9900.63	1	20508.7	-28.86535	1.632612E-010	0.1131027	6
	29	10	1265.625	18898.11	-11056.12	1	21894.67	-30.32928	1.285638E-010	0.1131039	6
	30	11	998.264	19977.97	-12554.46	1	23595.21	-32.14587	4.223677E-010	0.1131038	6
	31	11	796.875	21095.09	-14301.48	1	25485.98	-34.13543	1.382458E-010	0.1131002	6
	32	11	627.7902	22440.23	-16536.25	1	27874.93	-36.38657	9.365653E-011	0.1131014	6
	33	12	505.5147	23839.23	-19021.95	1	30498.25	-38.58729	3.260612E-010	0.1131006	6
	34	12	397.9953	25709.24	-22275.21	1	34016.91	-40.90659	3.14427E-010	0.1131149	6
	35	12	315.5048	27922.28	-26043.36	1	38182.59	-43.00594	3.993294E-010	0.1131121	6
	36	13	252.4038	30519.01	-30259.25	1	42977.11	-44.75513	3.000961E-010	0.1131122	6
	37	13	198.6229	33924.25	-35463.39	1	49076.54	-46.27072	2.541845E-010	0.1131168	6
	38	13	158.3615	37832.82	-41065.3	1	55836.2	-47.34612	2.45942E-010	0.1131083	6
	39	14	125.558	42618.04	-47507.5	1	63822.1	-48.10535	2.169957E-010	0.1131123	6
	40	14	100.4464	48023.77	-54376.32	1	72547	-48.54988	2.0113E-010	0.1131108	6
	41	14	79.00281	54780.03	-62570.18	1	83161.77	-48.79794	3.188944E-010	0.1131079	6
	42	15	63.3446	61862.84	-70889.48	1	94086.82	-48.8899	2.812391E-010	0.1131046	6
	43	15	49.86702	70476.32	-80776.91	1	107199.9	-48.89592	1.254478E-010	0.1131082	5
	44	15	39.72458	79487.69	-91465.81	1	121178.7	-49.00797	1.529093E-010	0.1131094	5
	45	16	31.6723	89339	-103568.6	1	136776.9	-49.21872	3.896816E-010	0.1131118	5
	46	16	24.93351	100739.9	-118330.6	1	155404.8	-49.59081	-2.348364E-010	0.1131073	5
	47	16	19.86229	112672.1	-134816.8	1	175700.2	-50.11308	-8.840478E-010	0.1131099	5
	48	16	15.83615	126190	-154046.3	1	199133.6	-50.67672	2.634157E-010	0.1131072	5
	49	17	12.40079	142872.6	-178374.3	1	228538.8	-51.30629	-5.91381E-010	0.1131137	5
	50	17	9.93114	159890	-204707	1	259749.5	-52.00776	-4.20125E-010	0.1131102	5
	51	17	7.944915	179995.9	-235133.4	1	296118.6	-52.56575	6.779159E-010	0.1131107	5
	52	18	6.317385	204400	-272318	1	340494.5	-53.10836	-9.429799E-011	0.1131285	5
	53	19	5.008013	233908.4	-315912.8	1	393082.8	-53.48299	-8.249927E-011	0.1131162	5
	54	20	3.945707	269601.4	-367549.4	1	455826.2	-53.73955	3.121682E-010	0.1131116	5
	55	20	3.158693	310496.6	-421906	1	523844.2	-53.64924	-3.376548E-011	0.1131184	5
	56	21	2.504006	360336.5	-486138.9	1	605122.7	-53.45337	-7.996519E-011	0.1131045	5
	57	23	1.998082	417393.9	-553391.9	1	693152.4	-52.9747	1.447392E-010	0.1131447	5
	58	24	1.584686	483585.4	-632013.1	1	795798.6	-52.57856	1.631181E-010	0.1131374	5
	59	26	1.266892	554846.4	-712582.7	1	903121.6	-52.0942	1.019667E-010	0.1130954	5
	60	29	0.999041	641117.5	-808774.6	1	1032060	-51.59606	2.980421E-011	0.113071	4
