EXPLAIN
TAG	EISPOT
TITLE	LABEL	Potentiostatic EIS	Test &Identifier
DATE	LABEL	2/6/2020	Date
TIME	LABEL	17:17:28	Time
NOTES	NOTES	6	&Notes...
	
	
	
	
	
	
PSTAT	PSTAT	REF600-11020	Potentiostat
VDC	POTEN	0.00000E+000	T	DC &Voltage (V)
FREQINIT	QUANT	1.00000E+006	Initial Fre&q. (Hz)
FREQFINAL	QUANT	1.00000E+000	Final Fre&q. (Hz)
PTSPERDEC	QUANT	1.00000E+001	Points/&decade
VAC	QUANT	2.50000E+001	AC &Voltage (mV rms)
AREA	QUANT	1.60000E-004	&Area (cm^2)
CONDIT	TWOPARAM	F	5.00000E+000	0.00000E+000	Conditionin&g	Time(s)	E(V)
DELAY	TWOPARAM	F	5.00000E+000	0.00000E+000	Init. De&lay	Time(s)	Stab.(mV/s)
SPEED	SELECTOR	0	&Optimize for:
ZGUESS	QUANT	1.00000E+003	E&stimated Z (ohms)
OCVCURVE	TABLE	39
	Pt	T	Vf	Vm	Ach	Over
	#	s	V vs. Ref.	V	V	bits
	0	0.258333	5.71718E-002	5.71718E-002	5.63704E-004	...........
	1	0.516667	5.71716E-002	5.71638E-002	5.62271E-004	...........
	2	0.775	5.71709E-002	5.71671E-002	5.58838E-004	...........
	3	1.03333	5.71694E-002	5.71648E-002	5.61504E-004	...........
	4	1.29167	5.71679E-002	5.71734E-002	5.61338E-004	...........
	5	1.55	5.71675E-002	5.71834E-002	5.57238E-004	...........
	6	1.80833	5.71696E-002	5.71833E-002	5.61871E-004	...........
	7	2.06667	5.71742E-002	5.72076E-002	5.56338E-004	...........
	8	2.325	5.71810E-002	5.72060E-002	5.60338E-004	...........
	9	2.58333	5.71894E-002	5.72033E-002	5.60238E-004	...........
	10	2.84167	5.71973E-002	5.72124E-002	5.55038E-004	...........
	11	3.1	5.72030E-002	5.72071E-002	5.57404E-004	...........
	12	3.35833	5.72060E-002	5.71883E-002	5.58004E-004	...........
	13	3.61667	5.72057E-002	5.71902E-002	5.56638E-004	...........
	14	3.875	5.72019E-002	5.71881E-002	5.53605E-004	...........
	15	4.13333	5.71966E-002	5.71906E-002	5.57738E-004	...........
	16	4.39167	5.71923E-002	5.71883E-002	5.58338E-004	...........
	17	4.65	5.71900E-002	5.71921E-002	5.61104E-004	...........
	18	4.90833	5.71894E-002	5.71895E-002	5.60304E-004	...........
	19	5.16667	5.71895E-002	5.71855E-002	5.60304E-004	...........
	20	5.425	5.71894E-002	5.71853E-002	5.56104E-004	...........
	21	5.68333	5.71885E-002	5.71816E-002	5.61671E-004	...........
	22	5.94167	5.71869E-002	5.71874E-002	5.59338E-004	...........
	23	6.2	5.71856E-002	5.71873E-002	5.60071E-004	...........
	24	6.45833	5.71852E-002	5.71893E-002	5.62604E-004	...........
	25	6.71667	5.71860E-002	5.71899E-002	5.59738E-004	...........
	26	6.975	5.71873E-002	5.71939E-002	5.60438E-004	...........
	27	7.23333	5.71889E-002	5.71901E-002	5.57304E-004	...........
	28	7.49167	5.71904E-002	5.71970E-002	5.57171E-004	...........
	29	7.75	5.71917E-002	5.71939E-002	5.59504E-004	...........
	30	8.00833	5.71930E-002	5.71983E-002	5.59404E-004	...........
	31	8.26667	5.71944E-002	5.72023E-002	5.59171E-004	...........
	32	8.525	5.71962E-002	5.72050E-002	5.57771E-004	...........
	33	8.78333	5.71986E-002	5.72057E-002	5.60138E-004	...........
	34	9.04167	5.72012E-002	5.72083E-002	5.60638E-004	...........
	35	9.3	5.72038E-002	5.72130E-002	5.58171E-004	...........
	36	9.5583	5.72063E-002	5.72122E-002	5.59904E-004	...........
	37	9.8167	5.72088E-002	5.72172E-002	5.58704E-004	...........
	38	10.075	5.72112E-002	5.72185E-002	5.60704E-004	...........
EOC	QUANT	0.0572112	Open Circuit (V)
PSTATMODEL	IQUANT	4	Pstat Model
PSTATSECTION	LABEL	REF600-11020	Pstat Section
PSTATSERIALNO	LABEL	11020	Pstat Serial Number
CTRLMODE	IQUANT	1	Control Mode
IESTAB	IQUANT	0	I/E Stability
CASPEED	IQUANT	1	Control Amp Speed
CONVENTION	IQUANT	1	Current Convention
ICHRANGE	IQUANT	2	Ich Range
ICHRANGEMODE	TOGGLE	F	Ich Auto Range
ICHOFFSETENABLE	TOGGLE	T	Ich Offset Enable
ICHOFFSET	QUANT	0	Ich Offset (V)
ICHFILTER	IQUANT	3	Ich Filter
VCHRANGE	IQUANT	2	Vch Range
VCHRANGEMODE	TOGGLE	F	Vch Auto Range
VCHOFFSETENABLE	TOGGLE	T	Vch Offset Enable
VCHOFFSET	QUANT	0	Vch Offset (V)
VCHFILTER	IQUANT	3	Vch Filter
ACHRANGE	IQUANT	2	Ach Range
ACHOFFSETENABLE	TOGGLE	F	Ach Offset Enable
ACHOFFSET	QUANT	0	Ach Offset (V)
ACHFILTER	IQUANT	3	Ach Filter
IERANGELOWERLIMIT	IQUANT	1	I/E Range Lower Limit
IERANGEMODE	TOGGLE	F	I/E AutoRange
IERANGE	IQUANT	8	I/E Range
POSFEEDENABLE	TOGGLE	F	Positive Feedback IR Comp
POSFEEDRESISTANCE	QUANT	0	Positive Feedback Resistance (ohm)
ACHSELECT	IQUANT	0	Ach Select
CABLEID	IQUANT	14	Cable ID
DCCALDATE	LABEL	1/27/2020	DC Calibration Date
ACCALDATE	LABEL	1/27/2020	AC Calibration Date
THERMOSELECT	IQUANT	1	Thermo Select
FRAMEWORKVERSION	QUANT	6.33	Framework Version
INSTRUMENTVERSION	LABEL	3.50	Instrument Version
ZCURVE	TABLE
	Pt	Time	Freq	Zreal	Zimag	Zsig	Zmod	Zphz	Idc	Vdc	IERange
	#	s	Hz	ohm	ohm	V	ohm	°	A	V	#
	0	1	1000078	2187.767	-1317.124	1	2553.653	-31.04964	2.470126E-006	0.059373	8
	1	1	794390.6	2428.324	-1245.145	1	2728.945	-27.14689	-1.524476E-007	0.0590639	8
	2	2	630984.4	2646.745	-1145.379	1	2883.948	-23.40054	-8.364617E-007	0.0591646	8
	3	2	501234.4	2813.395	-1037.547	1	2998.615	-20.24339	-1.415377E-006	0.05933	8
	4	2	398109.4	2954.688	-924.5055	1	3095.948	-17.37461	-1.3254E-006	0.0592532	8
	5	3	316265.6	3072.543	-830.2412	1	3182.739	-15.12095	6.125581E-007	0.0587796	8
	6	3	251203.1	3161.464	-746.6395	1	3248.434	-13.288	5.364236E-007	0.0587359	8
	7	3	199546.9	3237.249	-678.5272	1	3307.594	-11.83782	2.407159E-008	0.0587783	8
	8	4	158578.1	3296.365	-623.7853	1	3354.867	-10.71562	-5.399483E-008	0.0588512	8
	9	4	125953.1	3374.961	-550.2751	1	3419.527	-9.260382	-3.977555E-007	0.0596349	7
	10	4	100078.1	3422.063	-526.9222	1	3462.392	-8.753539	5.113428E-008	0.0587257	7
	11	5	79453.13	3470.181	-527.1093	1	3509.985	-8.637022	8.118997E-008	0.0586922	7
	12	5	63140.62	3519.773	-537.7358	1	3560.613	-8.686238	-1.284006E-008	0.0587887	7
	13	5	50203.12	3572.123	-559.1151	1	3615.615	-8.89586	5.014042E-008	0.0586971	7
	14	6	39890.62	3627.991	-592.5243	1	3676.058	-9.275667	-1.927607E-009	0.0588076	7
	15	6	31640.63	3687.846	-637.3419	1	3742.515	-9.80513	-3.163165E-008	0.0588339	7
	16	6	25171.88	3752.783	-694.3911	1	3816.486	-10.48308	-3.237863E-008	0.0588282	7
	17	7	20015.62	3824.728	-764.4434	1	3900.374	-11.3027	5.580366E-008	0.0587575	7
	18	7	15890.62	3904.291	-849.8861	1	3995.722	-12.28057	-1.262283E-008	0.0587824	7
	19	7	12609.37	3992.805	-953.326	1	4105.037	-13.42858	3.227705E-008	0.0587524	7
	20	7	10078.13	4088.613	-1069.736	1	4226.239	-14.66209	-1.280721E-008	0.0587804	7
	21	8	8015.625	4197.994	-1211.919	1	4369.428	-16.1029	2.960551E-009	0.0587676	7
	22	8	6328.125	4324.453	-1385.208	1	4540.892	-17.7613	8.177125E-008	0.0586832	7
	23	8	5015.625	4465.093	-1584.733	1	4737.978	-19.54059	-1.740005E-008	0.058829	7
	24	9	3984.375	4622.412	-1814.445	1	4965.773	-21.4316	5.110304E-008	0.0587054	7
	25	9	3170.956	4800.208	-2082.382	1	5232.428	-23.45172	2.366733E-009	0.0587647	7
	26	9	2527.573	5000.232	-2392.1	1	5542.965	-25.56635	8.397223E-009	0.0587379	7
	27	10	1976.103	5251.538	-2789.427	1	5946.39	-27.97562	9.069201E-009	0.0587376	7
	28	10	1577.524	5511.604	-3214.292	1	6380.396	-30.25015	7.780809E-009	0.058734	7
	29	10	1265.625	5799.613	-3698.644	1	6878.625	-32.52728	-1.779502E-008	0.0588392	7
	30	11	998.264	6151.717	-4302.148	1	7506.804	-34.96667	-2.821786E-008	0.058817	7
	31	11	796.875	6532.211	-4986.048	1	8217.691	-37.35455	-1.246961E-009	0.0587887	7
	32	11	627.7902	6985.199	-5828.986	1	9097.807	-39.84422	-3.528724E-008	0.0588412	7
	33	12	505.5147	7448.623	-6723.834	1	10034.54	-42.07241	2.526027E-009	0.0587003	6
	34	12	397.9953	8013.706	-7903.851	1	11255.68	-44.60458	1.117427E-009	0.0587952	6
	35	12	315.5048	8626.386	-9277.285	1	12668.17	-47.08211	5.574174E-010	0.0587917	6
	36	13	252.4038	9281.046	-10856.31	1	14282.76	-49.4729	3.344555E-010	0.0587919	6
	37	13	198.6229	10062.98	-12905.44	1	16365.03	-52.05477	9.745734E-010	0.0587943	6
	38	13	158.3615	10888.25	-15265.94	1	18751.08	-54.50209	6.279353E-010	0.0587954	6
	39	14	125.558	11851.49	-18216.15	1	21732.14	-56.95183	8.14272E-010	0.0587953	6
	40	14	100.4464	12930.24	-21693.69	1	25254.85	-59.2035	1.147202E-009	0.0587896	6
	41	14	79.00281	14278.25	-26299.44	1	29925.39	-61.502	3.99892E-010	0.0587891	6
	42	15	63.3446	15796.33	-31197.6	1	34968.76	-63.14547	7.704103E-010	0.0587922	6
	43	15	49.86702	17925.51	-38069.11	1	42078.27	-64.78577	4.922507E-012	0.0587833	6
	44	15	39.72458	20288.23	-46135.88	1	50399.71	-66.26253	6.188658E-010	0.0587868	6
	45	16	31.6723	23397.43	-55714.92	1	60428.4	-67.22008	4.531382E-010	0.0587875	6
	46	16	24.93351	27711.08	-67758.81	1	73206.29	-67.75708	1.181238E-009	0.0587829	6
	47	16	19.86229	33030.52	-81664.87	1	88091.8	-67.97843	1.849728E-009	0.0587893	6
	48	16	15.83615	40438.69	-97541.1	1	105591.5	-67.48203	-1.36719E-009	0.0587836	5
	49	17	12.40079	49875.37	-118218.1	1	128308.5	-67.12547	-1.512117E-009	0.0587882	5
	50	17	9.93114	60654.52	-140351.5	1	152897.1	-66.62786	-6.907572E-010	0.0587842	5
	51	18	7.944915	74364.97	-165560.4	1	181494.9	-65.81175	-1.221574E-010	0.0587777	5
	52	18	6.317385	91754.3	-194553.1	1	215104	-64.75069	-1.481019E-010	0.0587824	5
	53	19	5.008013	113515.8	-228046	1	254736.8	-63.53697	-2.313227E-010	0.0587693	5
	54	20	3.945707	140503.4	-267053.1	1	301759.1	-62.25001	1.796772E-010	0.0587766	5
	55	21	3.158693	169915	-307449.3	1	351277.9	-61.07231	1.095009E-010	0.0587953	5
	56	23	2.504006	206198.3	-354427.1	1	410044.3	-59.81005	-1.604668E-010	0.0587811	5
	57	24	1.998082	245520.5	-404488.3	1	473171.4	-58.74265	4.493524E-011	0.0587911	5
	58	26	1.584686	293210.9	-463682.8	1	548611.3	-57.69269	1.907831E-010	0.0588274	5
	59	28	1.266892	343338.8	-528008	1	629820.6	-56.96594	1.508076E-010	0.0588026	5
	60	30	0.999041	403229.9	-603786.7	1	726052.9	-56.26361	1.4534E-010	0.058775	5
