EXPLAIN
TAG	EISPOT
TITLE	LABEL	Potentiostatic EIS	Test &Identifier
DATE	LABEL	3/19/2020	Date
TIME	LABEL	20:50:03	Time
NOTES	NOTES	1	&Notes...
	
PSTAT	PSTAT	REF600-11020	Potentiostat
VDC	POTEN	0.00000E+000	T	DC &Voltage (V)
FREQINIT	QUANT	1.00000E+006	Initial Fre&q. (Hz)
FREQFINAL	QUANT	1.00000E+000	Final Fre&q. (Hz)
PTSPERDEC	QUANT	1.00000E+001	Points/&decade
VAC	QUANT	2.50000E+001	AC &Voltage (mV rms)
AREA	QUANT	4.00000E-004	&Area (cm^2)
CONDIT	TWOPARAM	F	5.00000E+000	0.00000E+000	Conditionin&g	Time(s)	E(V)
DELAY	TWOPARAM	T	3.00000E+000	0.00000E+000	Init. De&lay	Time(s)	Stab.(mV/s)
SPEED	SELECTOR	0	&Optimize for:
ZGUESS	QUANT	1.00000E+003	E&stimated Z (ohms)
OCVCURVE	TABLE	12
	Pt	T	Vf	Vm	Ach	Over
	#	s	V vs. Ref.	V	V	bits
	0	0.258333	1.98440E-002	1.98440E-002	5.91896E-004	...........
	1	0.516667	1.98450E-002	1.98961E-002	5.90963E-004	...........
	2	0.775	1.98484E-002	1.98041E-002	5.87663E-004	...........
	3	1.03333	1.98514E-002	1.98376E-002	5.81063E-004	...........
	4	1.29167	1.98485E-002	1.98131E-002	5.90463E-004	...........
	5	1.55	1.98388E-002	1.97779E-002	5.88396E-004	...........
	6	1.80833	1.98257E-002	1.98115E-002	5.91730E-004	...........
	7	2.06667	1.98107E-002	1.96940E-002	5.84330E-004	...........
	8	2.325	1.97927E-002	1.97523E-002	5.89396E-004	...........
	9	2.58333	1.97706E-002	1.96934E-002	5.88863E-004	...........
	10	2.84167	1.97452E-002	1.95730E-002	5.89696E-004	...........
	11	3.1	1.97147E-002	1.96713E-002	5.86263E-004	...........
EOC	QUANT	0.0197147	Open Circuit (V)
PSTATMODEL	IQUANT	4	Pstat Model
PSTATSECTION	LABEL	REF600-11020	Pstat Section
PSTATSERIALNO	LABEL	11020	Pstat Serial Number
CTRLMODE	IQUANT	1	Control Mode
IESTAB	IQUANT	0	I/E Stability
CASPEED	IQUANT	1	Control Amp Speed
CONVENTION	IQUANT	1	Current Convention
ICHRANGE	IQUANT	2	Ich Range
ICHRANGEMODE	TOGGLE	F	Ich Auto Range
ICHOFFSETENABLE	TOGGLE	T	Ich Offset Enable
ICHOFFSET	QUANT	0	Ich Offset (V)
ICHFILTER	IQUANT	3	Ich Filter
VCHRANGE	IQUANT	2	Vch Range
VCHRANGEMODE	TOGGLE	F	Vch Auto Range
VCHOFFSETENABLE	TOGGLE	T	Vch Offset Enable
VCHOFFSET	QUANT	0	Vch Offset (V)
VCHFILTER	IQUANT	3	Vch Filter
ACHRANGE	IQUANT	2	Ach Range
ACHOFFSETENABLE	TOGGLE	F	Ach Offset Enable
ACHOFFSET	QUANT	0	Ach Offset (V)
ACHFILTER	IQUANT	3	Ach Filter
IERANGELOWERLIMIT	IQUANT	1	I/E Range Lower Limit
IERANGEMODE	TOGGLE	F	I/E AutoRange
IERANGE	IQUANT	7	I/E Range
POSFEEDENABLE	TOGGLE	F	Positive Feedback IR Comp
POSFEEDRESISTANCE	QUANT	0	Positive Feedback Resistance (ohm)
ACHSELECT	IQUANT	0	Ach Select
CABLEID	IQUANT	14	Cable ID
DCCALDATE	LABEL	2/27/2020	DC Calibration Date
ACCALDATE	LABEL	2/27/2020	AC Calibration Date
THERMOSELECT	IQUANT	1	Thermo Select
FRAMEWORKVERSION	QUANT	6.33	Framework Version
INSTRUMENTVERSION	LABEL	3.50	Instrument Version
ZCURVE	TABLE
	Pt	Time	Freq	Zreal	Zimag	Zsig	Zmod	Zphz	Idc	Vdc	IERange
	#	s	Hz	ohm	ohm	V	ohm	°	A	V	#
	0	1	1000078	1680.222	-1984.792	1	2600.489	-49.75048	-4.565369E-008	0.0221593	8
	1	2	794390.6	1968.393	-2160.718	1	2922.888	-47.66679	-7.016479E-008	0.0218466	8
	2	2	630984.4	2269.607	-2341.049	1	3260.617	-45.88772	-4.211154E-008	0.0216627	8
	3	2	501234.4	2574.003	-2531.832	1	3610.494	-44.52679	-1.975881E-007	0.0216096	8
	4	3	398109.4	2885.159	-2754.612	1	3988.989	-43.67398	-3.095509E-007	0.0215402	8
	5	3	316265.6	3211.263	-3010.458	1	4401.712	-43.15144	1.767485E-008	0.0214708	8
	6	3	251203.1	3544.539	-3333.335	1	4865.684	-43.24113	-5.939491E-007	0.0215517	8
	7	4	199546.9	3925.373	-3715.092	1	5404.67	-43.4235	2.933406E-007	0.0214129	8
	8	4	158578.1	4357.417	-4165.529	1	6028.16	-43.71025	8.222142E-007	0.0213022	8
	9	4	125953.1	4935.361	-4662.197	1	6789.246	-43.3697	1.015658E-008	0.0213602	7
	10	5	100078.1	5516.351	-5273.667	1	7631.625	-43.71155	-2.454598E-009	0.0213788	7
	11	5	79453.13	6264.292	-5977.889	1	8658.898	-43.65982	1.855937E-008	0.021343	7
	12	5	63140.62	7160.729	-6720.831	1	9820.67	-43.18494	3.045376E-009	0.021371	7
	13	6	50203.12	8256.892	-7470.515	1	11134.85	-42.13757	1.25762E-008	0.0213246	7
	14	6	39890.62	9555.55	-8193.934	1	12587.65	-40.61327	-3.972761E-009	0.0213552	7
	15	6	31640.63	11074.14	-8812.841	1	14152.84	-38.5129	4.959696E-009	0.0213336	7
	16	7	25171.88	12752.51	-9292.706	1	15779.13	-36.08067	4.207401E-009	0.0213568	7
	17	7	20015.62	14532.76	-9504.28	1	17364.69	-33.18428	-3.405981E-009	0.0213524	7
	18	7	15890.62	16356.69	-9501.12	1	18915.93	-30.15104	1.82887E-008	0.0213263	7
	19	8	12609.37	18199.47	-9092.911	1	20344.57	-26.54786	1.532809E-009	0.0213727	6
	20	8	10078.13	19700.19	-8690.179	1	21531.76	-23.80331	9.649163E-010	0.0213994	6
	21	8	8015.625	21045.84	-8195.857	1	22585.38	-21.27738	1.19057E-009	0.0214022	6
	22	9	6328.125	22223.8	-7659.225	1	23506.62	-19.01603	2.127405E-009	0.0213845	6
	23	9	5015.625	23202.9	-7189.237	1	24291.15	-17.21518	2.313835E-009	0.0213874	6
	24	9	3984.375	24060.73	-6827.478	1	25010.66	-15.84184	-4.465222E-010	0.0214045	6
	25	10	3170.956	24778.41	-6569.893	1	25634.61	-14.85004	-3.271397E-010	0.0213884	6
	26	10	2527.573	25443.55	-6446.805	1	26247.58	-14.21819	1.221022E-009	0.0213664	6
	27	10	1976.103	26140.01	-6453.934	1	26924.96	-13.86888	5.723482E-010	0.0213834	6
	28	10	1577.524	26800.17	-6606.699	1	27602.49	-13.84827	1.047561E-009	0.0213998	6
	29	11	1265.625	27438.38	-6864.803	1	28284.1	-14.04648	2.041283E-009	0.0213843	6
	30	11	998.264	28157.49	-7272.479	1	29081.49	-14.4818	1.228339E-009	0.0213682	6
	31	11	796.875	28876.17	-7794.527	1	29909.66	-15.1058	1.647791E-009	0.0213855	6
	32	12	627.7902	29673.16	-8507.992	1	30868.79	-15.99884	1.71851E-009	0.0213957	6
	33	12	505.5147	30456.59	-9300.824	1	31845.08	-16.98161	1.653731E-009	0.021399	6
	34	12	397.9953	31378.17	-10376.38	1	33049.34	-18.29842	1.024931E-009	0.021408	6
	35	13	315.5048	32337.71	-11650.6	1	34372.43	-19.81304	9.278376E-010	0.0214095	6
	36	13	252.4038	33375.84	-13142.08	1	35870.06	-21.49256	8.564206E-010	0.0214061	6
	37	13	198.6229	34554.68	-15061.77	1	37694.61	-23.55153	8.267282E-010	0.0214066	6
	38	14	158.3615	35743.58	-17248.65	1	39687.78	-25.76039	6.877593E-010	0.0214026	6
	39	14	125.558	37087.52	-19971.05	1	42122.76	-28.30177	7.394743E-010	0.0214002	6
	40	14	100.4464	38480.91	-23149.11	1	44907.25	-31.03002	6.719043E-010	0.0213994	6
	41	15	79.00281	40155.26	-27354.03	1	48586.91	-34.26295	6.402392E-010	0.0213974	6
	42	15	63.3446	41869.02	-32062.07	1	52735.11	-37.44384	2.658617E-010	0.0213933	6
	43	15	49.86702	44032.94	-38402.47	1	58426.44	-41.09267	3.629775E-010	0.0213908	6
	44	16	39.72458	46557.81	-45829.17	1	65329.49	-44.54813	4.012639E-010	0.0213989	6
	45	16	31.6723	49654.15	-54823.6	1	73967.3	-47.83263	2.234098E-010	0.0213944	6
	46	16	24.93351	53950.96	-66340.13	1	85508.59	-50.88034	9.142573E-010	0.0213943	6
	47	17	19.86229	59125.07	-79590.02	1	99148.1	-53.39243	7.048553E-010	0.021395	6
	48	17	15.83615	65908.4	-95144	1	115742.4	-55.28878	8.514893E-010	0.0213929	5
	49	17	12.40079	75586.82	-114917.4	1	137547.8	-56.66513	1.04868E-009	0.0213948	5
	50	18	9.93114	86977.81	-135865.6	1	161321.4	-57.37363	1.447914E-009	0.021395	5
	51	18	7.944915	101245.2	-160194	1	189506.5	-57.70644	7.576375E-010	0.0213938	5
	52	18	6.317385	120078.1	-187980.8	1	223059.5	-57.43043	2.083466E-010	0.0213998	5
	53	19	5.008013	143823	-218713.9	1	261764.9	-56.67168	6.408087E-010	0.021407	5
	54	20	3.945707	173951.5	-253670.6	1	307584	-55.56009	6.063408E-010	0.0213905	5
	55	21	3.158693	206289.5	-287895.3	1	354173.7	-54.37676	5.19235E-010	0.0214039	5
	56	22	2.504006	246136	-325729.7	1	408268	-52.92366	9.311239E-011	0.0213945	5
	57	23	1.998082	288014	-363704.3	1	463931.9	-51.62463	2.929222E-010	0.0213982	5
	58	25	1.584686	337067.2	-404927.7	1	526859.3	-50.22555	4.627359E-010	0.0214349	5
	59	27	1.266892	387549.9	-449321.9	1	593367.6	-49.22152	4.628263E-010	0.0214209	5
	60	29	0.999041	442923.7	-499293	1	667439.1	-48.42371	5.086581E-010	0.0213983	5
