EXPLAIN
TAG	EISPOT
TITLE	LABEL	Potentiostatic EIS	Test &Identifier
DATE	LABEL	2/13/2020	Date
TIME	LABEL	10:38:42	Time
NOTES	NOTES	1	&Notes...
	
PSTAT	PSTAT	REF600-11020	Potentiostat
VDC	POTEN	0.00000E+000	T	DC &Voltage (V)
FREQINIT	QUANT	1.00000E+006	Initial Fre&q. (Hz)
FREQFINAL	QUANT	1.00000E+000	Final Fre&q. (Hz)
PTSPERDEC	QUANT	1.00000E+001	Points/&decade
VAC	QUANT	2.50000E+001	AC &Voltage (mV rms)
AREA	QUANT	5.00000E-004	&Area (cm^2)
CONDIT	TWOPARAM	F	1.50000E+001	0.00000E+000	Conditionin&g	Time(s)	E(V)
DELAY	TWOPARAM	F	1.00000E+002	0.00000E+000	Init. De&lay	Time(s)	Stab.(mV/s)
SPEED	SELECTOR	0	&Optimize for:
ZGUESS	QUANT	1.00000E+003	E&stimated Z (ohms)
OCVCURVE	TABLE	39
	Pt	T	Vf	Vm	Ach	Over
	#	s	V vs. Ref.	V	V	bits
	0	0.258333	5.87304E-002	5.87304E-002	5.69904E-004	...........
	1	0.516667	5.87331E-002	5.88721E-002	5.71438E-004	...........
	2	0.775	5.87509E-002	5.90664E-002	5.71171E-004	...........
	3	1.03333	5.88016E-002	5.90773E-002	5.68938E-004	...........
	4	1.29167	5.88866E-002	5.91661E-002	5.71571E-004	...........
	5	1.55	5.89872E-002	5.93643E-002	5.69204E-004	...........
	6	1.80833	5.90910E-002	5.94059E-002	5.70638E-004	...........
	7	2.06667	5.91963E-002	5.94306E-002	5.72138E-004	...........
	8	2.325	5.92975E-002	5.96356E-002	5.72371E-004	...........
	9	2.58333	5.93913E-002	5.96564E-002	5.72038E-004	...........
	10	2.84167	5.94820E-002	5.96939E-002	5.67504E-004	...........
	11	3.1	5.95698E-002	5.99011E-002	5.77737E-004	...........
	12	3.35833	5.96547E-002	5.98733E-002	5.73871E-004	...........
	13	3.61667	5.97383E-002	5.99113E-002	5.67004E-004	...........
	14	3.875	5.98161E-002	6.01120E-002	5.66371E-004	...........
	15	4.13333	5.98881E-002	6.00674E-002	5.71971E-004	...........
	16	4.39167	5.99588E-002	6.01112E-002	5.65271E-004	...........
	17	4.65	6.00259E-002	6.02930E-002	5.67938E-004	...........
	18	4.90833	6.00892E-002	6.02509E-002	5.67171E-004	...........
	19	5.16667	6.01529E-002	6.03001E-002	5.72804E-004	...........
	20	5.425	6.02144E-002	6.04527E-002	5.69338E-004	...........
	21	5.68333	6.02732E-002	6.04387E-002	5.68904E-004	...........
	22	5.94167	6.03328E-002	6.04646E-002	5.69504E-004	...........
	23	6.2	6.03903E-002	6.05841E-002	5.68638E-004	...........
	24	6.45833	6.04437E-002	6.06252E-002	5.67638E-004	...........
	25	6.71667	6.04977E-002	6.06267E-002	5.68938E-004	...........
	26	6.975	6.05520E-002	6.07086E-002	5.66871E-004	...........
	27	7.23333	6.06028E-002	6.07742E-002	5.64871E-004	...........
	28	7.49167	6.06519E-002	6.07880E-002	5.67638E-004	...........
	29	7.75	6.07017E-002	6.08485E-002	5.65738E-004	...........
	30	8.00833	6.07505E-002	6.08983E-002	5.69138E-004	...........
	31	8.26667	6.07975E-002	6.09312E-002	5.65938E-004	...........
	32	8.525	6.08433E-002	6.09769E-002	5.70271E-004	...........
	33	8.78333	6.08879E-002	6.10216E-002	5.74071E-004	...........
	34	9.04167	6.09314E-002	6.10656E-002	5.70438E-004	...........
	35	9.3	6.09745E-002	6.11042E-002	5.68438E-004	...........
	36	9.5583	6.10174E-002	6.11444E-002	5.72504E-004	...........
	37	9.8167	6.10596E-002	6.11824E-002	5.65571E-004	...........
	38	10.075	6.11007E-002	6.12214E-002	5.64571E-004	...........
EOC	QUANT	0.0611007	Open Circuit (V)
PSTATMODEL	IQUANT	4	Pstat Model
PSTATSECTION	LABEL	REF600-11020	Pstat Section
PSTATSERIALNO	LABEL	11020	Pstat Serial Number
CTRLMODE	IQUANT	1	Control Mode
IESTAB	IQUANT	0	I/E Stability
CASPEED	IQUANT	1	Control Amp Speed
CONVENTION	IQUANT	1	Current Convention
ICHRANGE	IQUANT	2	Ich Range
ICHRANGEMODE	TOGGLE	F	Ich Auto Range
ICHOFFSETENABLE	TOGGLE	T	Ich Offset Enable
ICHOFFSET	QUANT	0	Ich Offset (V)
ICHFILTER	IQUANT	3	Ich Filter
VCHRANGE	IQUANT	2	Vch Range
VCHRANGEMODE	TOGGLE	F	Vch Auto Range
VCHOFFSETENABLE	TOGGLE	T	Vch Offset Enable
VCHOFFSET	QUANT	0	Vch Offset (V)
VCHFILTER	IQUANT	3	Vch Filter
ACHRANGE	IQUANT	2	Ach Range
ACHOFFSETENABLE	TOGGLE	F	Ach Offset Enable
ACHOFFSET	QUANT	0	Ach Offset (V)
ACHFILTER	IQUANT	3	Ach Filter
IERANGELOWERLIMIT	IQUANT	1	I/E Range Lower Limit
IERANGEMODE	TOGGLE	F	I/E AutoRange
IERANGE	IQUANT	8	I/E Range
POSFEEDENABLE	TOGGLE	F	Positive Feedback IR Comp
POSFEEDRESISTANCE	QUANT	0	Positive Feedback Resistance (ohm)
ACHSELECT	IQUANT	0	Ach Select
CABLEID	IQUANT	14	Cable ID
DCCALDATE	LABEL	1/27/2020	DC Calibration Date
ACCALDATE	LABEL	1/27/2020	AC Calibration Date
THERMOSELECT	IQUANT	1	Thermo Select
FRAMEWORKVERSION	QUANT	6.33	Framework Version
INSTRUMENTVERSION	LABEL	3.50	Instrument Version
ZCURVE	TABLE
	Pt	Time	Freq	Zreal	Zimag	Zsig	Zmod	Zphz	Idc	Vdc	IERange
	#	s	Hz	ohm	ohm	V	ohm	°	A	V	#
	0	1	1000078	2114.05	-1484.157	1	2583.008	-35.07055	-2.73335E-006	0.063277	8
	1	1	794390.6	2401.554	-1445.859	1	2803.207	-31.0501	2.111384E-006	0.062648	8
	2	2	630984.4	2675.363	-1351.066	1	2997.156	-26.7939	-1.298152E-006	0.0628108	8
	3	2	501234.4	2897.72	-1233.571	1	3149.362	-23.05965	2.55936E-006	0.0621406	8
	4	2	398109.4	3084.74	-1117.436	1	3280.896	-19.91274	-9.986488E-007	0.0627455	8
	5	2	316265.6	3237.352	-989.448	1	3385.182	-16.99499	8.777115E-007	0.0624547	8
	6	3	251203.1	3345.812	-876.6054	1	3458.742	-14.68154	4.805596E-007	0.0624328	8
	7	3	199546.9	3450.953	-769.563	1	3535.718	-12.57128	1.026627E-006	0.062292	8
	8	3	158578.1	3526.313	-695.7601	1	3594.297	-11.1614	-8.465146E-007	0.0626972	8
	9	4	125953.1	3605.312	-599.1993	1	3654.766	-9.436251	3.272926E-007	0.0615948	7
	10	4	100078.1	3657.887	-547.1478	1	3698.582	-8.507246	3.117534E-008	0.062469	7
	11	4	79453.13	3701.521	-524.0614	1	3738.435	-8.058379	2.624344E-008	0.0625322	7
	12	5	63140.62	3744.198	-514.2695	1	3779.351	-7.8207	2.116145E-008	0.0625559	7
	13	5	50203.12	3786.399	-518.6674	1	3821.758	-7.79993	-1.300726E-008	0.0625874	7
	14	5	39890.62	3830	-535.9576	1	3867.318	-7.966055	-4.324813E-009	0.062509	7
	15	6	31640.63	3875.913	-567.5549	1	3917.247	-8.330688	6.598166E-008	0.062458	7
	16	6	25171.88	3925.681	-613.6622	1	3973.355	-8.884572	2.064733E-008	0.0625518	7
	17	6	20015.62	3980.283	-674.9893	1	4037.111	-9.62484	4.395363E-008	0.0624137	7
	18	7	15890.62	4042.113	-752.9321	1	4111.64	-10.55166	-3.666984E-008	0.0625577	7
	19	7	12609.37	4110.725	-849.8702	1	4197.659	-11.68102	1.988315E-008	0.0625504	7
	20	7	10078.13	4186.073	-964.462	1	4295.741	-12.97441	-3.209054E-009	0.0625049	7
	21	8	8015.625	4275.189	-1103.921	1	4415.414	-14.47842	-2.315553E-008	0.0625667	7
	22	8	6328.125	4379.259	-1275.319	1	4561.179	-16.23651	9.734904E-009	0.0625109	7
	23	8	5015.625	4497.771	-1476.81	1	4734.016	-18.17722	1.689527E-008	0.0624466	7
	24	9	3984.375	4632.468	-1714.513	1	4939.566	-20.30991	-1.5817E-008	0.062538	7
	25	9	3170.956	4788.944	-1989.977	1	5185.942	-22.56462	2.642155E-008	0.0625167	7
	26	9	2527.573	4968.615	-2313.019	1	5480.62	-24.9632	6.695207E-008	0.0624463	7
	27	9	1976.103	5195.166	-2727.676	1	5867.706	-27.70132	-2.794679E-008	0.0625486	7
	28	10	1577.524	5436.947	-3174.725	1	6295.973	-30.28138	8.257453E-008	0.0623683	7
	29	10	1265.625	5711.266	-3683.788	1	6796.238	-32.82217	1.60571E-008	0.0624385	7
	30	10	998.264	6059.004	-4325.845	1	7444.761	-35.52506	-4.896803E-009	0.0624619	7
	31	11	796.875	6434.485	-5048.834	1	8178.833	-38.11959	5.587402E-009	0.0625515	7
	32	11	627.7902	6900.862	-5939.45	1	9104.887	-40.71799	2.868676E-008	0.0625191	7
	33	11	505.5147	7395.02	-6880.562	1	10100.91	-42.93609	-8.089073E-009	0.0626068	6
	34	12	397.9953	8009.333	-8110.03	1	11398.33	-45.35792	4.265408E-010	0.0625229	6
	35	12	315.5048	8695.016	-9522.8	1	12895.23	-47.60162	1.00607E-009	0.0625265	6
	36	12	252.4038	9443.084	-11128.84	1	14595.3	-49.6846	1.015987E-009	0.062524	6
	37	13	198.6229	10359.05	-13187.62	1	16769.71	-51.84988	3.791922E-010	0.0625236	6
	38	13	158.3615	11352.05	-15526.96	1	19234.22	-53.82877	1.129335E-009	0.0625194	6
	39	13	125.558	12525.12	-18406.32	1	22263.68	-55.76553	9.609943E-010	0.0625153	6
	40	14	100.4464	13850.99	-21726.09	1	25765.74	-57.48135	-3.330859E-011	0.0625196	6
	41	14	79.00281	15574.36	-26057.98	1	30357.52	-59.13405	9.067314E-010	0.0625153	6
	42	14	63.3446	17385.42	-31141.18	1	35665.47	-60.82636	2.675324E-010	0.062515	6
	43	15	49.86702	19918.65	-37358.76	1	42337.1	-61.9347	1.097247E-009	0.0625125	6
	44	15	39.72458	23154.66	-44403.57	1	50078.1	-62.45979	5.536261E-010	0.0625162	6
	45	15	31.6723	27076.97	-52753.48	1	59296.64	-62.82976	5.109589E-010	0.0625159	6
	46	16	24.93351	32263.06	-63284.74	1	71034.24	-62.98716	6.446994E-011	0.0625117	6
	47	16	19.86229	38568.79	-74911.63	1	84257.36	-62.758	-1.489213E-009	0.062511	6
	48	16	15.83615	47257.39	-87615.05	1	99547.3	-61.65868	3.29624E-009	0.0625137	6
	49	17	12.40079	57394.37	-103770	1	118584.7	-61.05336	1.823112E-009	0.0625103	5
	50	17	9.93114	68794.35	-119819.5	1	138164.3	-60.13771	2.023094E-009	0.0625106	5
	51	17	7.944915	82135.83	-138128.7	1	160704.2	-59.26291	1.15353E-009	0.0625034	5
	52	18	6.317385	98568.8	-158178.6	1	186376.7	-58.07096	4.831823E-010	0.0625027	5
	53	19	5.008013	117614.8	-180692.7	1	215599.4	-56.93948	-8.827641E-011	0.0625012	5
	54	20	3.945707	139289.6	-207093	1	249577.8	-56.07544	4.75897E-010	0.0625097	5
	55	21	3.158693	162011.5	-233313.3	1	284047.2	-55.22409	-1.927911E-010	0.0625124	5
	56	22	2.504006	187302.4	-264619.6	1	324200.2	-54.70847	-1.597465E-010	0.062504	5
	57	24	1.998082	214238.9	-299203.6	1	367996.1	-54.39618	1.43315E-010	0.0625468	5
	58	25	1.584686	242310.9	-341011.1	1	418333.8	-54.60369	6.150349E-012	0.0625249	5
	59	27	1.266892	271999.8	-387516.2	1	473447.7	-54.93477	-3.013459E-011	0.062486	5
	60	30	0.999041	305476	-448719.3	1	542830.2	-55.75403	-5.169221E-011	0.062465	5
