EXPLAIN
TAG	EISPOT
TITLE	LABEL	Potentiostatic EIS	Test &Identifier
DATE	LABEL	3/12/2020	Date
TIME	LABEL	13:58:15	Time
NOTES	NOTES	1	&Notes...
	
PSTAT	PSTAT	REF600-11020	Potentiostat
VDC	POTEN	0.00000E+000	T	DC &Voltage (V)
FREQINIT	QUANT	1.00000E+006	Initial Fre&q. (Hz)
FREQFINAL	QUANT	1.00000E+000	Final Fre&q. (Hz)
PTSPERDEC	QUANT	1.00000E+001	Points/&decade
VAC	QUANT	2.50000E+001	AC &Voltage (mV rms)
AREA	QUANT	2.50000E-001	&Area (cm^2)
CONDIT	TWOPARAM	F	5.00000E+000	0.00000E+000	Conditionin&g	Time(s)	E(V)
DELAY	TWOPARAM	T	5.00000E+000	0.00000E+000	Init. De&lay	Time(s)	Stab.(mV/s)
SPEED	SELECTOR	1	&Optimize for:
ZGUESS	QUANT	5.00000E+003	E&stimated Z (ohms)
OCVCURVE	TABLE	19
	Pt	T	Vf	Vm	Ach	Over
	#	s	V vs. Ref.	V	V	bits
	0	0.258333	1.06009E-001	1.06009E-001	5.73930E-004	...........
	1	0.516667	1.06003E-001	1.05653E-001	5.73697E-004	...........
	2	0.775	1.05972E-001	1.05882E-001	5.72097E-004	...........
	3	1.03333	1.05911E-001	1.05634E-001	5.76797E-004	...........
	4	1.29167	1.05843E-001	1.05877E-001	5.73930E-004	...........
	5	1.55	1.05792E-001	1.05690E-001	5.76430E-004	...........
	6	1.80833	1.05766E-001	1.05692E-001	5.76263E-004	...........
	7	2.06667	1.05750E-001	1.05701E-001	5.73197E-004	...........
	8	2.325	1.05731E-001	1.05681E-001	5.70263E-004	...........
	9	2.58333	1.05711E-001	1.05675E-001	5.72797E-004	...........
	10	2.84167	1.05696E-001	1.05650E-001	5.76130E-004	...........
	11	3.1	1.05682E-001	1.05611E-001	5.74863E-004	...........
	12	3.35833	1.05669E-001	1.05772E-001	5.70563E-004	...........
	13	3.61667	1.05666E-001	1.05750E-001	5.72163E-004	...........
	14	3.875	1.05678E-001	1.05548E-001	5.73697E-004	...........
	15	4.13333	1.05688E-001	1.05642E-001	5.71497E-004	...........
	16	4.39167	1.05676E-001	1.05616E-001	5.77563E-004	...........
	17	4.65	1.05651E-001	1.05599E-001	5.75897E-004	...........
	18	4.90833	1.05629E-001	1.05609E-001	5.71630E-004	...........
EOC	QUANT	0.1056289	Open Circuit (V)
PSTATMODEL	IQUANT	4	Pstat Model
PSTATSECTION	LABEL	REF600-11020	Pstat Section
PSTATSERIALNO	LABEL	11020	Pstat Serial Number
CTRLMODE	IQUANT	1	Control Mode
IESTAB	IQUANT	0	I/E Stability
CASPEED	IQUANT	1	Control Amp Speed
CONVENTION	IQUANT	1	Current Convention
ICHRANGE	IQUANT	2	Ich Range
ICHRANGEMODE	TOGGLE	F	Ich Auto Range
ICHOFFSETENABLE	TOGGLE	T	Ich Offset Enable
ICHOFFSET	QUANT	0	Ich Offset (V)
ICHFILTER	IQUANT	3	Ich Filter
VCHRANGE	IQUANT	2	Vch Range
VCHRANGEMODE	TOGGLE	F	Vch Auto Range
VCHOFFSETENABLE	TOGGLE	T	Vch Offset Enable
VCHOFFSET	QUANT	0	Vch Offset (V)
VCHFILTER	IQUANT	3	Vch Filter
ACHRANGE	IQUANT	2	Ach Range
ACHOFFSETENABLE	TOGGLE	F	Ach Offset Enable
ACHOFFSET	QUANT	0	Ach Offset (V)
ACHFILTER	IQUANT	3	Ach Filter
IERANGELOWERLIMIT	IQUANT	1	I/E Range Lower Limit
IERANGEMODE	TOGGLE	F	I/E AutoRange
IERANGE	IQUANT	7	I/E Range
POSFEEDENABLE	TOGGLE	F	Positive Feedback IR Comp
POSFEEDRESISTANCE	QUANT	0	Positive Feedback Resistance (ohm)
ACHSELECT	IQUANT	0	Ach Select
CABLEID	IQUANT	14	Cable ID
DCCALDATE	LABEL	2/27/2020	DC Calibration Date
ACCALDATE	LABEL	2/27/2020	AC Calibration Date
THERMOSELECT	IQUANT	1	Thermo Select
FRAMEWORKVERSION	QUANT	6.33	Framework Version
INSTRUMENTVERSION	LABEL	3.50	Instrument Version
ZCURVE	TABLE
	Pt	Time	Freq	Zreal	Zimag	Zsig	Zmod	Zphz	Idc	Vdc	IERange
	#	s	Hz	ohm	ohm	V	ohm	°	A	V	#
	0	2	1000078	1913.689	-2075.375	1	2823.01	-47.32107	-1.30365E-006	0.1080645	8
	1	3	794390.6	2366.413	-2168.014	1	3209.392	-42.49468	-8.93316E-007	0.1079778	8
	2	4	630984.4	2826.097	-2187.297	1	3573.666	-37.73858	-1.941186E-007	0.107642	8
	3	6	501234.4	3270.143	-2117.831	1	3896.029	-32.92816	-1.125788E-006	0.1076759	8
	4	7	398109.4	3676.061	-1984.864	1	4177.692	-28.36652	-1.100756E-006	0.1075559	8
	5	9	316265.6	4018.498	-1798.314	1	4402.528	-24.10895	6.756378E-007	0.1072395	8
	6	10	251203.1	4297.872	-1613.215	1	4590.661	-20.57373	8.508316E-008	0.1073256	8
	7	11	199546.9	4515.303	-1424.849	1	4734.781	-17.51362	-1.543751E-007	0.1073529	8
	8	13	158578.1	4682.687	-1239.334	1	4843.914	-14.82419	-1.3069E-006	0.107678	8
	9	14	125953.1	4841.832	-1052.825	1	4954.975	-12.26763	1.718656E-008	0.1071832	7
	10	15	100078.1	4926.781	-925.2604	1	5012.911	-10.63638	2.490429E-009	0.1072595	7
	11	17	79453.13	5009.365	-830.3891	1	5077.724	-9.41218	-2.061743E-008	0.1072964	7
	12	18	63140.62	5079.343	-758.5004	1	5135.665	-8.493241	-5.837276E-009	0.1072965	7
	13	19	50203.12	5140.012	-706.3973	1	5188.326	-7.825199	1.471545E-009	0.1072181	7
	14	21	39890.62	5194.81	-673.9116	1	5238.34	-7.391578	-2.663383E-008	0.107281	7
	15	22	31640.63	5247.423	-661.8688	1	5289	-7.188877	-4.807415E-009	0.1072944	7
	16	24	25171.88	5297.167	-668.981	1	5339.243	-7.197797	-1.599019E-008	0.1072632	7
	17	25	20015.62	5348.906	-695.1939	1	5393.894	-7.405186	4.504846E-009	0.1072837	7
	18	26	15890.62	5401.961	-740.4616	1	5452.474	-7.805048	4.486034E-008	0.107167	7
	19	28	12609.37	5457.409	-807.139	1	5516.773	-8.412936	-2.566801E-008	0.1072838	7
	20	29	10078.13	5514.83	-894.9325	1	5586.972	-9.217462	5.780741E-008	0.1071729	7
	21	30	8015.625	5581.342	-1012.099	1	5672.365	-10.27811	-1.555571E-008	0.1072653	7
	22	32	6328.125	5655.663	-1164.487	1	5774.301	-11.63447	-4.546365E-009	0.1072951	7
	23	33	5015.625	5737.24	-1350.535	1	5894.054	-13.24616	-1.941717E-008	0.1072984	7
	24	35	3984.375	5827.193	-1578.165	1	6037.117	-15.15377	3.072993E-008	0.1071907	7
	25	36	3170.956	5930.917	-1856.811	1	6214.783	-17.38394	3.154818E-008	0.1072502	7
	26	37	2527.573	6046.375	-2193.412	1	6431.929	-19.93899	-1.957162E-008	0.1072877	7
	27	39	1976.103	6192.371	-2642.186	1	6732.504	-23.10717	-1.429839E-008	0.1072681	7
	28	40	1577.524	6350.869	-3142.615	1	7085.871	-26.32769	-1.530291E-008	0.107245	7
	29	41	1265.625	6531.728	-3740.447	1	7526.913	-29.79796	-3.55177E-009	0.1072917	7
	30	43	998.264	6758.763	-4516.398	1	8128.883	-33.75198	-1.528604E-008	0.107264	7
	31	44	796.875	7018.076	-5414.939	1	8864.251	-37.65271	5.21411E-009	0.1072407	7
	32	45	627.7902	7350.439	-6570.889	1	9859.29	-41.79496	-4.794756E-009	0.10733	6
	33	47	505.5147	7704.4	-7842.541	1	10993.78	-45.50908	-1.27534E-009	0.1073547	6
	34	48	397.9953	8168.795	-9542.7	1	12561.54	-49.43564	1.008435E-009	0.107307	6
	35	50	315.5048	8715.604	-11558.2	1	14475.97	-52.98142	5.297858E-010	0.1073129	6
	36	51	252.4038	9347.552	-13904.67	1	16754.6	-56.08864	8.991707E-010	0.1073082	6
	37	52	198.6229	10168.43	-16975.33	1	19787.84	-59.07788	7.483688E-010	0.1073054	6
	38	54	158.3615	11119.95	-20514.87	1	23334.8	-61.54039	8.125305E-010	0.107306	6
	39	55	125.558	12314.84	-24915.15	1	27792.45	-63.69815	8.81513E-010	0.1073093	6
	40	56	100.4464	13723.11	-30062.71	1	33046.79	-65.46412	1.011911E-009	0.1073041	6
	41	58	79.00281	15616.06	-36722.26	1	39904.7	-66.96249	6.52748E-010	0.1073025	6
	42	59	63.3446	17897.27	-43986.2	1	47487.87	-67.85939	6.996736E-010	0.1072976	6
	43	61	49.86702	21008.91	-54175.89	1	58106.81	-68.80417	4.551767E-010	0.1072963	6
	44	62	39.72458	24616.76	-65250.06	1	69739.2	-69.33012	4.854534E-010	0.1073006	6
	45	63	31.6723	29071.12	-78694.79	1	83892.79	-69.72496	2.230075E-010	0.1073035	6
	46	65	24.93351	35363.14	-95530.3	1	101865.6	-69.6866	7.293588E-010	0.1072982	6
	47	66	19.86229	43093.76	-114790.1	1	122612.6	-69.42319	2.840868E-010	0.107311	5
	48	68	15.83615	51881.82	-137054.8	1	146546	-69.26594	7.562083E-010	0.1073099	5
	49	69	12.40079	65797.63	-165853	1	178428	-68.36065	5.3189E-010	0.1073103	5
	50	70	9.93114	81695.09	-197328.6	1	213571.2	-67.51019	7.398657E-010	0.1073028	5
	51	72	7.944915	101329.2	-232923.4	1	254009.7	-66.48941	-1.865379E-010	0.1073118	5
	52	74	6.317385	127272.9	-274899.7	1	302932.8	-65.15683	3.32381E-010	0.107296	5
	53	76	5.008013	160118.5	-322502	1	360063.2	-63.59613	2.802798E-010	0.1073186	5
	54	78	3.945707	201919.8	-376452.7	1	427186.5	-61.792	-2.899972E-011	0.107302	5
	55	81	3.158693	248712.9	-431076.3	1	497679.5	-60.01686	3.932335E-010	0.10732	5
	56	84	2.504006	306071.4	-492451.7	1	579817.5	-58.13798	-1.492183E-010	0.1073045	5
	57	87	1.998082	369529.1	-554459.1	1	666315.8	-56.31783	4.202525E-011	0.1072775	5
	58	90	1.584686	441752.7	-620564.6	1	761738.7	-54.5546	1.371973E-010	0.1073503	5
	59	94	1.266892	517329	-692970	1	864775.6	-53.25723	-1.897381E-012	0.1072943	5
	60	98	0.999041	604964.8	-775404.1	1	983481	-52.03889	4.332965E-010	0.1073368	5
