EXPLAIN
TAG	EISPOT
TITLE	LABEL	Potentiostatic EIS	Test &Identifier
DATE	LABEL	1/10/2020	Date
TIME	LABEL	13:29:00	Time
NOTES	NOTES	5	&Notes...
	
	
	
	
	
PSTAT	PSTAT	REF600-11020	Potentiostat
VDC	POTEN	0.00000E+000	T	DC &Voltage (V)
FREQINIT	QUANT	1.00000E+006	Initial Fre&q. (Hz)
FREQFINAL	QUANT	1.00000E+000	Final Fre&q. (Hz)
PTSPERDEC	QUANT	1.00000E+001	Points/&decade
VAC	QUANT	2.50000E+001	AC &Voltage (mV rms)
AREA	QUANT	1.00000E-001	&Area (cm^2)
CONDIT	TWOPARAM	T	5.00000E+000	0.00000E+000	Conditionin&g	Time(s)	E(V)
DELAY	TWOPARAM	T	5.00000E+000	0.00000E+000	Init. De&lay	Time(s)	Stab.(mV/s)
SPEED	SELECTOR	0	&Optimize for:
ZGUESS	QUANT	5.00000E+002	E&stimated Z (ohms)
OCVCURVE	TABLE	19
	Pt	T	Vf	Vm	Ach	Over
	#	s	V vs. Ref.	V	V	bits
	0	0.258333	1.89763E-003	1.89763E-003	6.72679E-004	...........
	1	0.516667	1.89278E-003	1.64391E-003	6.68113E-004	...........
	2	0.775	1.86355E-003	1.43162E-003	6.69346E-004	...........
	3	1.03333	1.78063E-003	1.12076E-003	6.61079E-004	...........
	4	1.29167	1.62899E-003	9.37109E-004	6.70579E-004	...........
	5	1.55	1.42417E-003	8.13406E-004	6.66679E-004	...........
	6	1.80833	1.20374E-003	6.61152E-004	6.68446E-004	...........
	7	2.06667	1.00102E-003	5.11864E-004	6.68946E-004	...........
	8	2.325	8.26010E-004	3.80893E-004	6.69679E-004	...........
	9	2.58333	6.71172E-004	2.28529E-004	6.69279E-004	...........
	10	2.84167	5.26268E-004	9.47717E-005	6.67446E-004	...........
	11	3.1	3.86480E-004	3.94915E-005	6.68013E-004	...........
	12	3.35833	2.53604E-004	-1.47247E-004	6.68046E-004	...........
	13	3.61667	1.28424E-004	-2.54526E-004	6.70646E-004	...........
	14	3.875	6.20617E-006	-3.48404E-004	6.64113E-004	...........
	15	4.13333	-1.14967E-004	-4.50331E-004	6.63146E-004	...........
	16	4.39167	-2.30655E-004	-5.27264E-004	6.60579E-004	...........
	17	4.65	-3.36302E-004	-5.88561E-004	6.66346E-004	...........
	18	4.90833	-4.29890E-004	-6.57819E-004	6.71546E-004	...........
EOC	QUANT	-0.0004299	Open Circuit (V)
PSTATMODEL	IQUANT	4	Pstat Model
PSTATSECTION	LABEL	REF600-11020	Pstat Section
PSTATSERIALNO	LABEL	11020	Pstat Serial Number
CTRLMODE	IQUANT	1	Control Mode
IESTAB	IQUANT	0	I/E Stability
CASPEED	IQUANT	1	Control Amp Speed
CONVENTION	IQUANT	1	Current Convention
ICHRANGE	IQUANT	2	Ich Range
ICHRANGEMODE	TOGGLE	F	Ich Auto Range
ICHOFFSETENABLE	TOGGLE	T	Ich Offset Enable
ICHOFFSET	QUANT	0	Ich Offset (V)
ICHFILTER	IQUANT	3	Ich Filter
VCHRANGE	IQUANT	2	Vch Range
VCHRANGEMODE	TOGGLE	F	Vch Auto Range
VCHOFFSETENABLE	TOGGLE	T	Vch Offset Enable
VCHOFFSET	QUANT	0	Vch Offset (V)
VCHFILTER	IQUANT	3	Vch Filter
ACHRANGE	IQUANT	2	Ach Range
ACHOFFSETENABLE	TOGGLE	F	Ach Offset Enable
ACHOFFSET	QUANT	0	Ach Offset (V)
ACHFILTER	IQUANT	3	Ach Filter
IERANGELOWERLIMIT	IQUANT	1	I/E Range Lower Limit
IERANGEMODE	TOGGLE	F	I/E AutoRange
IERANGE	IQUANT	6	I/E Range
POSFEEDENABLE	TOGGLE	F	Positive Feedback IR Comp
POSFEEDRESISTANCE	QUANT	0	Positive Feedback Resistance (ohm)
ACHSELECT	IQUANT	0	Ach Select
CABLEID	IQUANT	14	Cable ID
DCCALDATE	LABEL	12/22/2019	DC Calibration Date
ACCALDATE	LABEL	12/22/2019	AC Calibration Date
THERMOSELECT	IQUANT	1	Thermo Select
FRAMEWORKVERSION	QUANT	6.33	Framework Version
INSTRUMENTVERSION	LABEL	3.50	Instrument Version
ZCURVE	TABLE
	Pt	Time	Freq	Zreal	Zimag	Zsig	Zmod	Zphz	Idc	Vdc	IERange
	#	s	Hz	ohm	ohm	V	ohm	°	A	V	#
	0	1	1000078	2123.52	-2003.713	1	2919.623	-43.33726	1.60593E-006	0.0014226	8
	1	1	794390.6	2514.097	-2056.445	1	3248.023	-39.28198	-4.340828E-006	0.0022173	8
	2	1	630984.4	2929.903	-2047.86	1	3574.641	-34.95169	4.984144E-006	0.0006386	8
	3	2	501234.4	3321.967	-1978.479	1	3866.502	-30.77695	-3.167469E-006	0.0016596	8
	4	2	398109.4	3690.621	-1874.626	1	4139.433	-26.92799	3.428444E-007	0.0010788	8
	5	2	316265.6	3989.449	-1714.776	1	4342.368	-23.25937	-1.033136E-006	0.0013237	8
	6	3	251203.1	4268.148	-1573.59	1	4548.986	-20.23802	-2.261049E-007	0.0011277	8
	7	3	199546.9	4480.943	-1385.084	1	4690.128	-17.17666	-2.40287E-006	0.0015711	8
	8	3	158578.1	4665.938	-1247.707	1	4829.881	-14.97104	-2.448281E-007	0.0011399	8
	9	4	125953.1	4824.623	-1072.934	1	4942.487	-12.53781	4.292858E-007	0.0005175	7
	10	4	100078.1	4929.559	-942.1393	1	5018.782	-10.81991	3.824044E-008	0.0010797	7
	11	4	79453.13	5025.538	-843.9621	1	5095.911	-9.533	-1.055996E-008	0.0011025	7
	12	4	63140.62	5105.128	-761.1161	1	5161.553	-8.479685	-3.557121E-008	0.0011118	7
	13	5	50203.12	5171.787	-697.7981	1	5218.649	-7.684171	-1.061937E-008	0.0010935	7
	14	5	39890.62	5229.611	-652.3807	1	5270.145	-7.11077	-3.7012E-008	0.001108	7
	15	5	31640.63	5281.666	-624.5159	1	5318.46	-6.743469	5.543185E-008	0.0009647	7
	16	6	25171.88	5328.967	-614.9059	1	5364.327	-6.582211	-1.667643E-008	0.0011262	7
	17	6	20015.62	5369.25	-624.3467	1	5405.428	-6.632676	1.836741E-008	0.0010429	7
	18	6	15890.62	5422.522	-649.0055	1	5461.223	-6.825095	-3.719171E-008	0.0011291	7
	19	7	12609.37	5472.08	-694.2258	1	5515.941	-7.230312	1.903782E-008	0.0010359	7
	20	7	10078.13	5518.072	-758.7434	1	5569.992	-7.829163	-1.661392E-008	0.0011219	7
	21	7	8015.625	5569.117	-845.9536	1	5633.001	-8.63725	1.963946E-008	0.0009892	7
	22	8	6328.125	5630.771	-966.187	1	5713.063	-9.73659	3.506188E-008	0.0009555	7
	23	8	5015.625	5694.779	-1114.343	1	5802.781	-11.07163	-1.234927E-008	0.0011377	7
	24	8	3984.375	5764.888	-1294.081	1	5908.348	-12.65182	-1.58138E-008	0.0010506	7
	25	9	3170.956	5843.461	-1522.586	1	6038.568	-14.60439	5.628325E-008	0.000935	7
	26	9	2527.573	5932.633	-1801.352	1	6200.081	-16.8901	-9.591981E-009	0.0010826	7
	27	9	1976.103	6043.925	-2170.854	1	6421.965	-19.75725	1.916055E-008	0.0010322	7
	28	10	1577.524	6161.539	-2589.503	1	6683.568	-22.7955	3.944064E-008	0.0010461	7
	29	10	1265.625	6298.812	-3086.886	1	7014.548	-26.10829	5.554065E-008	0.0009524	7
	30	10	998.264	6468.321	-3734.27	1	7468.865	-29.99855	3.973595E-008	0.0010476	7
	31	11	796.875	6663.655	-4493.878	1	8037.366	-33.99519	-1.250236E-008	0.0011382	7
	32	11	627.7902	6901.075	-5470.993	1	8806.622	-38.40647	-1.281288E-008	0.0011356	7
	33	11	505.5147	7165.076	-6551.26	1	9708.62	-42.43768	-9.471492E-010	0.0009677	6
	34	11	397.9953	7501.39	-8005.875	1	10971.09	-46.8633	1.188036E-009	0.001054	6
	35	12	315.5048	7895.22	-9744.75	1	12541.72	-50.98554	9.390244E-010	0.0010512	6
	36	12	252.4038	8350.168	-11785.22	1	14443.57	-54.68133	1.490116E-009	0.0010497	6
	37	12	198.6229	8933.095	-14474.91	1	17009.5	-58.31946	7.243961E-010	0.0010527	6
	38	13	158.3615	9622.66	-17599.18	1	20058.08	-61.3316	4.568927E-010	0.0010478	6
	39	13	125.558	10495.07	-21531.97	1	23953.55	-64.01456	1.04931E-009	0.0010506	6
	40	13	100.4464	11516.08	-26123.49	1	28549.2	-66.21057	5.187366E-010	0.0010517	6
	41	14	79.00281	12940.61	-32186.28	1	34690.28	-68.09723	1.245435E-009	0.0010441	6
	42	14	63.3446	14928.68	-39348.81	1	42085.56	-69.22359	4.031931E-010	0.0010421	6
	43	14	49.86702	17177.3	-48392.16	1	51350.37	-70.45715	2.380247E-010	0.0010365	6
	44	15	39.72458	20110.79	-58573.79	1	61930.07	-71.05055	9.146795E-010	0.0010434	6
	45	15	31.6723	23935.98	-71099.85	1	75020.8	-71.39404	7.773093E-010	0.001045	6
	46	16	24.93351	29536.58	-87186.16	1	92053.45	-71.28485	1.154413E-009	0.0010403	6
	47	16	19.86229	36572.14	-105275.8	1	111447.4	-70.84309	1.354215E-009	0.0010476	5
	48	16	15.83615	45335.68	-127057.5	1	134903.4	-70.36298	-1.331089E-010	0.0010375	5
	49	16	12.40079	58461.36	-153566.6	1	164318	-69.15864	-5.186468E-010	0.0010457	5
	50	17	9.93114	74493.25	-182376.6	1	197003.8	-67.78204	5.351766E-011	0.001046	5
	51	17	7.944915	94490.77	-214555.7	1	234441.2	-66.23121	7.984571E-010	0.0010263	5
	52	18	6.317385	120288	-251662.4	1	278932.2	-64.45344	7.573386E-010	0.0010224	5
	53	19	5.008013	153004.6	-292876.5	1	330434.7	-62.41653	3.379917E-010	0.0010291	5
	54	20	3.945707	193657.6	-337609	1	389208.3	-60.16077	3.697709E-010	0.0010356	5
	55	21	3.158693	238125.2	-382709.4	1	450743.9	-58.10976	7.769094E-011	0.0010356	5
	56	23	2.504006	290565.9	-430716.3	1	519562.3	-55.99597	1.969153E-010	0.001024	5
	57	24	1.998082	346927.7	-479926.1	1	592189.1	-54.13768	3.992853E-010	0.0010664	5
	58	26	1.584686	407422.9	-532266.9	1	670299.6	-52.5678	2.894251E-010	0.0010303	5
	59	28	1.266892	472668.2	-588389.5	1	754730.1	-51.2242	1.779784E-010	0.0009946	5
	60	30	0.999041	544706.3	-656281.8	1	852883.8	-50.30772	1.234709E-010	0.0009892	5
