EXPLAIN
TAG	EISPOT
TITLE	LABEL	Potentiostatic EIS	Test &Identifier
DATE	LABEL	1/18/2020	Date
TIME	LABEL	21:56:28	Time
NOTES	NOTES	6	&Notes...
	
	
	
	
	
	
PSTAT	PSTAT	REF600-11020	Potentiostat
VDC	POTEN	0.00000E+000	T	DC &Voltage (V)
FREQINIT	QUANT	1.00000E+006	Initial Fre&q. (Hz)
FREQFINAL	QUANT	1.00000E+000	Final Fre&q. (Hz)
PTSPERDEC	QUANT	1.00000E+001	Points/&decade
VAC	QUANT	2.50000E+001	AC &Voltage (mV rms)
AREA	QUANT	1.00000E-001	&Area (cm^2)
CONDIT	TWOPARAM	F	5.00000E+000	0.00000E+000	Conditionin&g	Time(s)	E(V)
DELAY	TWOPARAM	F	5.00000E+000	0.00000E+000	Init. De&lay	Time(s)	Stab.(mV/s)
SPEED	SELECTOR	0	&Optimize for:
ZGUESS	QUANT	5.00000E+002	E&stimated Z (ohms)
OCVCURVE	TABLE	39
	Pt	T	Vf	Vm	Ach	Over
	#	s	V vs. Ref.	V	V	bits
	0	0.258333	-2.89082E-002	-2.89082E-002	6.48113E-004	...........
	1	0.516667	-2.89064E-002	-2.88167E-002	6.47946E-004	...........
	2	0.775	-2.88959E-002	-2.87397E-002	6.45480E-004	...........
	3	1.03333	-2.88670E-002	-2.86842E-002	6.50613E-004	...........
	4	1.29167	-2.88180E-002	-2.86264E-002	6.44546E-004	...........
	5	1.55	-2.87577E-002	-2.85994E-002	6.47280E-004	...........
	6	1.80833	-2.86980E-002	-2.85743E-002	6.43446E-004	...........
	7	2.06667	-2.86494E-002	-2.86641E-002	6.50380E-004	...........
	8	2.325	-2.86215E-002	-2.86532E-002	6.44013E-004	...........
	9	2.58333	-2.86170E-002	-2.86153E-002	6.44480E-004	...........
	10	2.84167	-2.86240E-002	-2.85772E-002	6.44280E-004	...........
	11	3.1	-2.86241E-002	-2.85227E-002	6.45546E-004	...........
	12	3.35833	-2.86061E-002	-2.84343E-002	6.49113E-004	...........
	13	3.61667	-2.85663E-002	-2.82783E-002	6.42813E-004	...........
	14	3.875	-2.85027E-002	-2.82379E-002	6.43880E-004	...........
	15	4.13333	-2.84204E-002	-2.82048E-002	6.47846E-004	...........
	16	4.39167	-2.83390E-002	-2.83507E-002	6.51780E-004	...........
	17	4.65	-2.82871E-002	-2.83687E-002	6.50713E-004	...........
	18	4.90833	-2.82774E-002	-2.82357E-002	6.48513E-004	...........
	19	5.16667	-2.82873E-002	-2.81225E-002	6.46680E-004	...........
	20	5.425	-2.82778E-002	-2.80919E-002	6.53179E-004	...........
	21	5.68333	-2.82338E-002	-2.80679E-002	6.49046E-004	...........
	22	5.94167	-2.81725E-002	-2.80413E-002	6.49313E-004	...........
	23	6.2	-2.81165E-002	-2.80203E-002	6.48380E-004	...........
	24	6.45833	-2.80747E-002	-2.79923E-002	6.47413E-004	...........
	25	6.71667	-2.80439E-002	-2.79682E-002	6.48313E-004	...........
	26	6.975	-2.80185E-002	-2.79495E-002	6.48613E-004	...........
	27	7.23333	-2.79950E-002	-2.79321E-002	6.48446E-004	...........
	28	7.49167	-2.79730E-002	-2.79157E-002	6.48213E-004	...........
	29	7.75	-2.79527E-002	-2.79020E-002	6.50080E-004	...........
	30	8.00833	-2.79345E-002	-2.78848E-002	6.41680E-004	...........
	31	8.26667	-2.79179E-002	-2.78726E-002	6.47313E-004	...........
	32	8.525	-2.79024E-002	-2.78596E-002	6.53980E-004	...........
	33	8.78333	-2.78878E-002	-2.78492E-002	6.48346E-004	...........
	34	9.04167	-2.78741E-002	-2.78344E-002	6.49313E-004	...........
	35	9.3	-2.78612E-002	-2.78198E-002	6.46113E-004	...........
	36	9.5583	-2.78483E-002	-2.78068E-002	6.53646E-004	...........
	37	9.8167	-2.78350E-002	-2.77900E-002	6.46746E-004	...........
	38	10.075	-2.78211E-002	-2.77777E-002	6.48313E-004	...........
EOC	QUANT	-0.0278211	Open Circuit (V)
PSTATMODEL	IQUANT	4	Pstat Model
PSTATSECTION	LABEL	REF600-11020	Pstat Section
PSTATSERIALNO	LABEL	11020	Pstat Serial Number
CTRLMODE	IQUANT	1	Control Mode
IESTAB	IQUANT	0	I/E Stability
CASPEED	IQUANT	1	Control Amp Speed
CONVENTION	IQUANT	1	Current Convention
ICHRANGE	IQUANT	2	Ich Range
ICHRANGEMODE	TOGGLE	F	Ich Auto Range
ICHOFFSETENABLE	TOGGLE	T	Ich Offset Enable
ICHOFFSET	QUANT	0	Ich Offset (V)
ICHFILTER	IQUANT	3	Ich Filter
VCHRANGE	IQUANT	2	Vch Range
VCHRANGEMODE	TOGGLE	F	Vch Auto Range
VCHOFFSETENABLE	TOGGLE	T	Vch Offset Enable
VCHOFFSET	QUANT	0	Vch Offset (V)
VCHFILTER	IQUANT	3	Vch Filter
ACHRANGE	IQUANT	2	Ach Range
ACHOFFSETENABLE	TOGGLE	F	Ach Offset Enable
ACHOFFSET	QUANT	0	Ach Offset (V)
ACHFILTER	IQUANT	3	Ach Filter
IERANGELOWERLIMIT	IQUANT	1	I/E Range Lower Limit
IERANGEMODE	TOGGLE	F	I/E AutoRange
IERANGE	IQUANT	8	I/E Range
POSFEEDENABLE	TOGGLE	F	Positive Feedback IR Comp
POSFEEDRESISTANCE	QUANT	0	Positive Feedback Resistance (ohm)
ACHSELECT	IQUANT	0	Ach Select
CABLEID	IQUANT	14	Cable ID
DCCALDATE	LABEL	12/22/2019	DC Calibration Date
ACCALDATE	LABEL	12/22/2019	AC Calibration Date
THERMOSELECT	IQUANT	1	Thermo Select
FRAMEWORKVERSION	QUANT	6.33	Framework Version
INSTRUMENTVERSION	LABEL	3.50	Instrument Version
ZCURVE	TABLE
	Pt	Time	Freq	Zreal	Zimag	Zsig	Zmod	Zphz	Idc	Vdc	IERange
	#	s	Hz	ohm	ohm	V	ohm	°	A	V	#
	0	1	1000078	1987.929	-1230.307	1	2337.844	-31.7529	3.820253E-007	-0.0256731	8
	1	1	794390.6	2173.444	-1233.156	1	2498.906	-29.56947	-5.992161E-007	-0.0255675	8
	2	1	630984.4	2353.18	-1233.107	1	2656.691	-27.65531	4.76642E-008	-0.0258844	8
	3	2	501234.4	2537.361	-1243.239	1	2825.57	-26.10362	-7.060469E-007	-0.025902	8
	4	2	398109.4	2713.372	-1248.295	1	2986.742	-24.70495	4.180056E-006	-0.0268099	8
	5	2	316265.6	2904.823	-1267.122	1	3169.163	-23.56746	1.58327E-006	-0.0265126	8
	6	3	251203.1	3079.941	-1286.436	1	3337.807	-22.66942	1.9409E-006	-0.0265973	8
	7	3	199546.9	3288.38	-1325.193	1	3545.36	-21.94907	-1.129255E-007	-0.026122	8
	8	3	158578.1	3499.507	-1343.184	1	3748.425	-20.99785	3.85031E-006	-0.0268205	8
	9	4	125953.1	3738.838	-1325.018	1	3966.684	-19.51397	6.819233E-007	-0.0272946	7
	10	4	100078.1	3956.713	-1308.871	1	4167.58	-18.30409	-1.378233E-008	-0.0261314	7
	11	4	79453.13	4184.174	-1288.221	1	4377.994	-17.11252	7.114804E-008	-0.0262983	7
	12	5	63140.62	4402.862	-1244.984	1	4575.498	-15.78915	7.170123E-008	-0.0263002	7
	13	5	50203.12	4606.716	-1182.646	1	4756.1	-14.39815	5.626007E-008	-0.0263021	7
	14	5	39890.62	4788.949	-1107.182	1	4915.27	-13.01779	3.16532E-009	-0.0262282	7
	15	6	31640.63	4949.48	-1025.09	1	5054.519	-11.70113	-3.270206E-008	-0.0261192	7
	16	6	25171.88	5084.946	-946.6364	1	5172.311	-10.54572	-4.556473E-008	-0.026131	7
	17	6	20015.62	5200.752	-877.1625	1	5274.205	-9.57345	-3.245981E-008	-0.0261193	7
	18	6	15890.62	5295.689	-814.918	1	5358.024	-8.74824	-3.061739E-008	-0.0261781	7
	19	7	12609.37	5375.05	-771.3658	1	5430.117	-8.166678	1.633879E-009	-0.0261081	7
	20	7	10078.13	5439.712	-748.1891	1	5490.925	-7.83144	2.390228E-009	-0.0262358	7
	21	7	8015.625	5499.097	-740.3085	1	5548.705	-7.667269	3.784663E-008	-0.0263119	7
	22	8	6328.125	5554.201	-759.6033	1	5605.903	-7.78757	1.544824E-009	-0.0261761	7
	23	8	5015.625	5603.743	-802.2526	1	5660.878	-8.147316	5.798689E-008	-0.026313	7
	24	8	3984.375	5653.991	-873.8582	1	5721.123	-8.785889	1.99332E-009	-0.026116	7
	25	9	3170.956	5700.619	-974.296	1	5783.278	-9.69874	2.618384E-009	-0.0262422	7
	26	9	2527.573	5754.826	-1110.766	1	5861.042	-10.92458	2.535274E-008	-0.026229	7
	27	9	1976.103	5820.288	-1304.741	1	5964.738	-12.63518	-3.515082E-008	-0.0261684	7
	28	10	1577.524	5886.609	-1533.788	1	6083.146	-14.60402	7.126405E-008	-0.0263253	7
	29	10	1265.625	5963.232	-1803.091	1	6229.869	-16.82364	-2.435351E-008	-0.0262108	7
	30	10	998.264	6064.45	-2171.245	1	6441.418	-19.69881	-2.825163E-008	-0.0261869	7
	31	11	796.875	6176.157	-2597.996	1	6700.335	-22.81402	5.853966E-008	-0.0263206	7
	32	11	627.7902	6327.375	-3158.713	1	7071.997	-26.52901	3.614007E-009	-0.0261282	7
	33	11	505.5147	6489.357	-3780.474	1	7510.242	-30.22359	-2.663227E-008	-0.0260918	7
	34	12	397.9953	6712.525	-4604.151	1	8139.791	-34.4464	5.041223E-009	-0.0261855	7
	35	12	315.5048	6982.145	-5591.702	1	8945.249	-38.68975	5.129593E-009	-0.026192	7
	36	12	252.4038	7309.278	-6743.147	1	9944.63	-42.69297	6.259484E-010	-0.0261924	6
	37	13	198.6229	7754.153	-8250.125	1	11322.17	-46.77502	4.057963E-010	-0.0261898	6
	38	13	158.3615	8294.349	-9975	1	12972.93	-50.25602	7.075941E-010	-0.0261915	6
	39	13	125.558	9011.451	-12105.91	1	15091.7	-53.33657	7.577791E-010	-0.0261947	6
	40	14	100.4464	9897.63	-14545.44	1	17593.54	-55.76617	-2.878475E-010	-0.0261957	6
	41	14	79.00281	11142.2	-17662.71	1	20883.49	-57.75498	4.651195E-010	-0.0261978	6
	42	14	63.3446	12616.55	-21161.48	1	24637.08	-59.19646	4.125608E-010	-0.0261996	6
	43	15	49.86702	14615.15	-25429.38	1	29330.13	-60.11252	4.946826E-010	-0.0261959	6
	44	15	39.72458	17068.33	-30110.39	1	34611.61	-60.4529	-6.612831E-011	-0.0261914	6
	45	15	31.6723	20090.16	-35518.36	1	40806.47	-60.50631	-5.327314E-010	-0.0261919	6
	46	16	24.93351	23997.69	-42048.88	1	48414.84	-60.28619	1.64867E-009	-0.0261941	6
	47	16	19.86229	28459.54	-49073.8	1	56729.03	-59.88912	3.665813E-009	-0.0261857	6
	48	16	15.83615	34160.24	-56977.86	1	66433.41	-59.05582	-2.688906E-009	-0.0261909	6
	49	16	12.40079	40849.98	-66300.03	1	77874.35	-58.36119	-5.128697E-010	-0.0261887	6
	50	17	9.93114	47813.98	-75838.23	1	89652.74	-57.76966	-8.169859E-010	-0.026188	6
	51	17	7.944915	55377.15	-86328.09	1	102563	-57.32092	-1.211052E-009	-0.0261867	5
	52	18	6.317385	64241.66	-98805.7	1	117854	-56.96881	7.459758E-010	-0.0262065	5
	53	18	5.008013	74011.99	-113408.5	1	135422.5	-56.87095	2.450033E-010	-0.0261995	5
	54	19	3.945707	84499.77	-130910.5	1	155813.2	-57.15867	-2.17284E-010	-0.0262008	5
	55	20	3.158693	95531.8	-150545.1	1	178297.9	-57.60189	1.449405E-010	-0.0262096	5
	56	21	2.504006	107914.9	-175224.2	1	205789.1	-58.37243	2.650666E-010	-0.0261984	5
	57	22	1.998082	121261.9	-203619.3	1	236992.1	-59.22482	-1.02911E-010	-0.0262389	5
	58	24	1.584686	136338.1	-240003	1	276024.5	-60.40047	4.824505E-011	-0.0262449	5
	59	26	1.266892	152921.4	-281788	1	320607.9	-61.5121	1.047734E-010	-0.0262125	5
	60	28	0.999041	174333.9	-335637.8	1	378213	-62.55214	9.414363E-011	-0.0261824	5
