EXPLAIN
TAG	EISPOT
TITLE	LABEL	Potentiostatic EIS	Test &Identifier
DATE	LABEL	1/10/2020	Date
TIME	LABEL	13:07:11	Time
NOTES	NOTES	5	&Notes...
	
	
	
	
	
PSTAT	PSTAT	REF600-11020	Potentiostat
VDC	POTEN	0.00000E+000	T	DC &Voltage (V)
FREQINIT	QUANT	1.00000E+006	Initial Fre&q. (Hz)
FREQFINAL	QUANT	1.00000E+000	Final Fre&q. (Hz)
PTSPERDEC	QUANT	1.00000E+001	Points/&decade
VAC	QUANT	2.50000E+001	AC &Voltage (mV rms)
AREA	QUANT	1.00000E-001	&Area (cm^2)
CONDIT	TWOPARAM	T	5.00000E+000	0.00000E+000	Conditionin&g	Time(s)	E(V)
DELAY	TWOPARAM	T	5.00000E+000	0.00000E+000	Init. De&lay	Time(s)	Stab.(mV/s)
SPEED	SELECTOR	0	&Optimize for:
ZGUESS	QUANT	5.00000E+002	E&stimated Z (ohms)
OCVCURVE	TABLE	19
	Pt	T	Vf	Vm	Ach	Over
	#	s	V vs. Ref.	V	V	bits
	0	0.258333	-1.97760E-003	-1.97760E-003	6.38513E-004	...........
	1	0.516667	-1.98557E-003	-2.39442E-003	6.37580E-004	...........
	2	0.775	-2.03245E-003	-2.68407E-003	6.40580E-004	...........
	3	1.03333	-2.15932E-003	-3.01166E-003	6.42180E-004	...........
	4	1.29167	-2.37585E-003	-3.24001E-003	6.42913E-004	...........
	5	1.55	-2.64923E-003	-3.49363E-003	6.40846E-004	...........
	6	1.80833	-2.93611E-003	-3.74458E-003	6.35313E-004	...........
	7	2.06667	-3.21060E-003	-3.92587E-003	6.36080E-004	...........
	8	2.325	-3.46522E-003	-4.17126E-003	6.31813E-004	...........
	9	2.58333	-3.70014E-003	-4.28870E-003	6.37546E-004	...........
	10	2.84167	-3.91647E-003	-4.52278E-003	6.45846E-004	...........
	11	3.1	-4.11535E-003	-4.61415E-003	6.39613E-004	...........
	12	3.35833	-4.29971E-003	-4.87779E-003	6.37180E-004	...........
	13	3.61667	-4.47454E-003	-4.93038E-003	6.41880E-004	...........
	14	3.875	-4.64274E-003	-5.13961E-003	6.38113E-004	...........
	15	4.13333	-4.80333E-003	-5.24564E-003	6.41913E-004	...........
	16	4.39167	-4.95617E-003	-5.41228E-003	6.39013E-004	...........
	17	4.65	-5.10370E-003	-5.53497E-003	6.37180E-004	...........
	18	4.90833	-5.24765E-003	-5.66859E-003	6.36813E-004	...........
EOC	QUANT	-0.0052477	Open Circuit (V)
PSTATMODEL	IQUANT	4	Pstat Model
PSTATSECTION	LABEL	REF600-11020	Pstat Section
PSTATSERIALNO	LABEL	11020	Pstat Serial Number
CTRLMODE	IQUANT	1	Control Mode
IESTAB	IQUANT	0	I/E Stability
CASPEED	IQUANT	1	Control Amp Speed
CONVENTION	IQUANT	1	Current Convention
ICHRANGE	IQUANT	2	Ich Range
ICHRANGEMODE	TOGGLE	F	Ich Auto Range
ICHOFFSETENABLE	TOGGLE	T	Ich Offset Enable
ICHOFFSET	QUANT	0	Ich Offset (V)
ICHFILTER	IQUANT	3	Ich Filter
VCHRANGE	IQUANT	2	Vch Range
VCHRANGEMODE	TOGGLE	F	Vch Auto Range
VCHOFFSETENABLE	TOGGLE	T	Vch Offset Enable
VCHOFFSET	QUANT	0	Vch Offset (V)
VCHFILTER	IQUANT	3	Vch Filter
ACHRANGE	IQUANT	2	Ach Range
ACHOFFSETENABLE	TOGGLE	F	Ach Offset Enable
ACHOFFSET	QUANT	0	Ach Offset (V)
ACHFILTER	IQUANT	3	Ach Filter
IERANGELOWERLIMIT	IQUANT	1	I/E Range Lower Limit
IERANGEMODE	TOGGLE	F	I/E AutoRange
IERANGE	IQUANT	7	I/E Range
POSFEEDENABLE	TOGGLE	F	Positive Feedback IR Comp
POSFEEDRESISTANCE	QUANT	0	Positive Feedback Resistance (ohm)
ACHSELECT	IQUANT	0	Ach Select
CABLEID	IQUANT	14	Cable ID
DCCALDATE	LABEL	12/22/2019	DC Calibration Date
ACCALDATE	LABEL	12/22/2019	AC Calibration Date
THERMOSELECT	IQUANT	1	Thermo Select
FRAMEWORKVERSION	QUANT	6.33	Framework Version
INSTRUMENTVERSION	LABEL	3.50	Instrument Version
ZCURVE	TABLE
	Pt	Time	Freq	Zreal	Zimag	Zsig	Zmod	Zphz	Idc	Vdc	IERange
	#	s	Hz	ohm	ohm	V	ohm	°	A	V	#
	0	1	1000078	1324.732	-3092.214	1	3364.031	-66.80927	-2.631439E-006	-0.0032113	8
	1	2	794390.6	1533.095	-3702.461	1	4007.319	-67.5068	1.545951E-006	-0.0034997	8
	2	2	630984.4	1787.447	-4451.24	1	4796.718	-68.1215	1.18241E-008	-0.003514	8
	3	2	501234.4	2053.427	-5346.873	1	5727.618	-68.99108	3.0945E-006	-0.0041039	8
	4	3	398109.4	2420.129	-6439.134	1	6878.915	-69.40142	7.798996E-007	-0.0039027	8
	5	3	316265.6	2809.277	-7729.597	1	8224.275	-70.02662	8.37673E-007	-0.0038012	8
	6	3	251203.1	3402.972	-9367.662	1	9966.61	-70.03554	1.789091E-006	-0.0039944	8
	7	4	199546.9	4156.345	-11321.83	1	12060.64	-69.84137	1.986067E-006	-0.0040266	8
	8	4	158578.1	4718.766	-13753.36	1	14540.34	-71.06295	2.512334E-006	-0.0041959	8
	9	4	125953.1	6488.327	-16266.48	1	17512.76	-68.25407	2.130932E-007	-0.0043491	7
	10	5	100078.1	7773.027	-19417.96	1	20915.95	-68.18372	9.121312E-011	-0.0036689	7
	11	5	79453.13	9667.94	-23136.64	1	25075.35	-67.32176	-4.899779E-009	-0.00361	7
	12	5	63140.62	12124.68	-27441.25	1	30000.5	-66.16217	-2.137213E-009	-0.0036167	7
	13	6	50203.12	15276.8	-32225.3	1	35663.02	-64.63613	-3.708448E-008	-0.0036741	7
	14	6	39890.62	19194.74	-37638.61	1	42250.48	-62.97957	-3.651894E-008	-0.0036824	7
	15	6	31640.63	24009.01	-43743.44	1	49899.11	-61.23939	-3.325241E-008	-0.00368	7
	16	7	25171.88	29808.73	-50159.88	1	58348.73	-59.27806	-2.299491E-008	-0.0036992	7
	17	7	20015.62	36551.45	-56855.7	1	67591.26	-57.26381	-2.331714E-008	-0.0036991	7
	18	7	15890.62	44685.74	-64402.58	1	78386.91	-55.24515	-3.18414E-008	-0.0036808	7
	19	8	12609.37	54333.38	-71568.55	1	89856.41	-52.79498	-8.274882E-010	-0.0037317	6
	20	8	10078.13	64571.95	-80283.83	1	103029.3	-51.19043	1.169731E-008	-0.0038287	6
	21	8	8015.625	75780.07	-88886.62	1	116805.2	-49.55083	-3.606154E-009	-0.0036875	6
	22	9	6328.125	90351.54	-98276.1	1	133497.6	-47.40569	3.847544E-009	-0.0038463	6
	23	9	5015.625	106133.2	-108181.1	1	151550	-45.54749	1.168645E-008	-0.0038265	6
	24	9	3984.375	125106.7	-115706.2	1	170410.2	-42.7645	-1.684832E-009	-0.0036016	6
	25	9	3170.956	146406.4	-124126.2	1	191943.1	-40.29193	3.608936E-009	-0.0036528	6
	26	10	2527.573	167857.1	-128559.4	1	211432.1	-37.44799	3.407973E-009	-0.0036515	6
	27	10	1976.103	193010.3	-131547.9	1	233576.1	-34.27674	-1.191159E-009	-0.0037148	6
	28	10	1577.524	208799.6	-138918.5	1	250790	-33.6366	-7.379134E-009	-0.0035865	6
	29	11	1265.625	237899.4	-126887.5	1	269622.9	-28.07395	5.164157E-010	-0.0036137	5
	30	11	998.264	257891.8	-123512	1	285943	-25.59114	-3.203613E-010	-0.0035973	5
	31	11	796.875	276544.5	-120515.9	1	301663.7	-23.54719	-2.74941E-011	-0.0036049	5
	32	12	627.7902	293846.7	-118415.6	1	316809.3	-21.94865	-1.823173E-010	-0.0036175	5
	33	12	505.5147	308658.9	-116192.1	1	329804.4	-20.62844	8.741666E-011	-0.0037208	5
	34	12	397.9953	324578	-114052.7	1	344033.3	-19.36084	6.328938E-010	-0.0037106	5
	35	13	315.5048	338485	-113800.8	1	357103.2	-18.58297	3.275352E-010	-0.0037127	5
	36	13	252.4038	352710.5	-115901.5	1	371265.3	-18.19065	1.540328E-010	-0.0037155	5
	37	13	198.6229	364604.9	-116809.9	1	382859.4	-17.7641	4.237891E-010	-0.0037135	5
	38	14	158.3615	383796.3	-122372.8	1	402833.4	-17.6848	3.049352E-011	-0.0037176	5
	39	14	125.558	397412	-127862.8	1	417474.8	-17.83499	2.540953E-010	-0.0037167	5
	40	14	100.4464	408103	-128254.2	1	427781.7	-17.44632	5.726341E-010	-0.003721	5
	41	15	79.00281	426075.1	-133451	1	446485.3	-17.39108	-1.513623E-010	-0.0037206	5
	42	15	63.3446	462590	-193092.1	1	501272.5	-22.6564	7.365195E-010	-0.0037272	5
	43	15	49.86702	468146	-165725.2	1	496614	-19.49413	2.123749E-010	-0.0037275	5
	44	16	39.72458	482101.1	-180236.1	1	514690.7	-20.49852	2.749166E-010	-0.0037202	5
	45	16	31.6723	508373.3	-207724.8	1	549174.8	-22.22526	4.219004E-011	-0.0037224	5
	46	17	24.93351	541964.3	-217592.4	1	584013.4	-21.87489	-2.125866E-011	-0.0037231	5
	47	17	19.86229	573790.3	-235842	1	620368.2	-22.34387	-5.989833E-010	-0.0037263	5
	48	17	15.83615	631027	-259871.4	1	682442.8	-22.38299	5.17713E-010	-0.0037202	6
	49	18	12.40079	658155.3	-269626.6	1	711243.2	-22.27745	8.383919E-010	-0.0037157	6
	50	18	9.93114	692601.3	-291001.1	1	751251.1	-22.79004	7.110579E-010	-0.0037232	6
	51	19	7.944915	737078.1	-300907.3	1	796133.9	-22.20742	2.878167E-010	-0.0037171	6
	52	20	6.317385	778536.6	-315606.7	1	840075.4	-22.06687	2.028237E-010	-0.0037021	6
	53	21	5.008013	820974.4	-329019.2	1	884450.5	-21.83927	9.052668E-010	-0.0037077	6
	54	22	3.945707	862327.9	-337863.2	1	926153.8	-21.39543	4.130714E-010	-0.0037233	5
	55	24	3.158693	897747.3	-362551.7	1	968191	-21.99113	2.450104E-010	-0.0037194	5
	56	26	2.504006	935381.6	-390349.5	1	1013564	-22.65155	2.127428E-010	-0.0036864	4
	57	28	1.998082	971770	-424732.9	1	1060535	-23.60877	5.084298E-010	-0.0036427	4
	58	29	1.584686	1006213	-475533	1	1112923	-25.29526	3.912558E-010	-0.0036771	4
	59	31	1.266892	1045011	-532978.6	1	1173079	-27.02258	2.821868E-010	-0.0037169	4
	60	34	0.999041	1093097	-610733.4	1	1252141	-29.19289	2.253297E-010	-0.003725	4
