EXPLAIN
TAG	EISPOT
TITLE	LABEL	Potentiostatic EIS	Test &Identifier
DATE	LABEL	9/11/2020	Date
TIME	LABEL	19:39:58	Time
NOTES	NOTES	1	&Notes...
	
PSTAT	PSTAT	REF600-11020	Potentiostat
VDC	POTEN	0.00000E+000	T	DC &Voltage (V)
FREQINIT	QUANT	1.00000E+006	Initial Fre&q. (Hz)
FREQFINAL	QUANT	1.00000E+000	Final Fre&q. (Hz)
PTSPERDEC	QUANT	1.00000E+001	Points/&decade
VAC	QUANT	2.50000E+001	AC &Voltage (mV rms)
AREA	QUANT	4.00000E-005	&Area (cm^2)
CONDIT	TWOPARAM	F	5.00000E+000	0.00000E+000	Conditionin&g	Time(s)	E(V)
DELAY	TWOPARAM	F	3.00000E+000	0.00000E+000	Init. De&lay	Time(s)	Stab.(mV/s)
SPEED	SELECTOR	0	&Optimize for:
ZGUESS	QUANT	1.00000E+003	E&stimated Z (ohms)
OCVCURVE	TABLE	39
	Pt	T	Vf	Vm	Ach	Over
	#	s	V vs. Ref.	V	V	bits
	0	0.258333	-2.73992E-002	-2.73992E-002	5.60292E-004	...........
	1	0.516667	-2.73974E-002	-2.73086E-002	5.54159E-004	...........
	2	0.775	-2.73867E-002	-2.72176E-002	5.55259E-004	...........
	3	1.03333	-2.73561E-002	-2.71307E-002	5.60092E-004	...........
	4	1.29167	-2.73006E-002	-2.70486E-002	5.57359E-004	...........
	5	1.55	-2.72264E-002	-2.69752E-002	5.57425E-004	...........
	6	1.80833	-2.71441E-002	-2.69036E-002	5.48292E-004	...........
	7	2.06667	-2.70623E-002	-2.68368E-002	5.54392E-004	...........
	8	2.325	-2.69848E-002	-2.67712E-002	5.53992E-004	...........
	9	2.58333	-2.69121E-002	-2.67073E-002	5.57292E-004	...........
	10	2.84167	-2.68434E-002	-2.66493E-002	5.56459E-004	...........
	11	3.1	-2.67778E-002	-2.65913E-002	5.58625E-004	...........
	12	3.35833	-2.67151E-002	-2.65346E-002	5.54925E-004	...........
	13	3.61667	-2.66550E-002	-2.64860E-002	5.59792E-004	...........
	14	3.875	-2.65974E-002	-2.64323E-002	5.57759E-004	...........
	15	4.13333	-2.65421E-002	-2.63782E-002	5.57592E-004	...........
	16	4.39167	-2.64887E-002	-2.63319E-002	5.60592E-004	...........
	17	4.65	-2.64364E-002	-2.62823E-002	5.58425E-004	...........
	18	4.90833	-2.63853E-002	-2.62345E-002	5.56192E-004	...........
	19	5.16667	-2.63355E-002	-2.61865E-002	5.54859E-004	...........
	20	5.425	-2.62866E-002	-2.61396E-002	5.62325E-004	...........
	21	5.68333	-2.62384E-002	-2.60949E-002	5.59059E-004	...........
	22	5.94167	-2.61910E-002	-2.60489E-002	5.57359E-004	...........
	23	6.2	-2.61444E-002	-2.60098E-002	5.56192E-004	...........
	24	6.45833	-2.60989E-002	-2.59628E-002	5.57292E-004	...........
	25	6.71667	-2.60546E-002	-2.59217E-002	5.59992E-004	...........
	26	6.975	-2.60110E-002	-2.58810E-002	5.58592E-004	...........
	27	7.23333	-2.59681E-002	-2.58417E-002	5.57392E-004	...........
	28	7.49167	-2.59260E-002	-2.57994E-002	5.56325E-004	...........
	29	7.75	-2.58847E-002	-2.57599E-002	5.57192E-004	...........
	30	8.00833	-2.58440E-002	-2.57229E-002	5.55292E-004	...........
	31	8.26667	-2.58038E-002	-2.56879E-002	5.56692E-004	...........
	32	8.525	-2.57648E-002	-2.56527E-002	5.53092E-004	...........
	33	8.78333	-2.57272E-002	-2.56179E-002	5.49659E-004	...........
	34	9.04167	-2.56909E-002	-2.55846E-002	5.55259E-004	...........
	35	9.3	-2.56558E-002	-2.55534E-002	5.55425E-004	...........
	36	9.5583	-2.56216E-002	-2.55249E-002	5.62325E-004	...........
	37	9.8167	-2.55887E-002	-2.54911E-002	5.56225E-004	...........
	38	10.075	-2.55568E-002	-2.54592E-002	5.62092E-004	...........
EOC	QUANT	-0.0255568	Open Circuit (V)
PSTATMODEL	IQUANT	4	Pstat Model
PSTATSECTION	LABEL	REF600-11020	Pstat Section
PSTATSERIALNO	LABEL	11020	Pstat Serial Number
CTRLMODE	IQUANT	1	Control Mode
IESTAB	IQUANT	0	I/E Stability
CASPEED	IQUANT	1	Control Amp Speed
CONVENTION	IQUANT	1	Current Convention
ICHRANGE	IQUANT	2	Ich Range
ICHRANGEMODE	TOGGLE	F	Ich Auto Range
ICHOFFSETENABLE	TOGGLE	T	Ich Offset Enable
ICHOFFSET	QUANT	0	Ich Offset (V)
ICHFILTER	IQUANT	3	Ich Filter
VCHRANGE	IQUANT	2	Vch Range
VCHRANGEMODE	TOGGLE	F	Vch Auto Range
VCHOFFSETENABLE	TOGGLE	T	Vch Offset Enable
VCHOFFSET	QUANT	0	Vch Offset (V)
VCHFILTER	IQUANT	3	Vch Filter
ACHRANGE	IQUANT	2	Ach Range
ACHOFFSETENABLE	TOGGLE	F	Ach Offset Enable
ACHOFFSET	QUANT	0	Ach Offset (V)
ACHFILTER	IQUANT	3	Ach Filter
IERANGELOWERLIMIT	IQUANT	1	I/E Range Lower Limit
IERANGEMODE	TOGGLE	F	I/E AutoRange
IERANGE	IQUANT	7	I/E Range
POSFEEDENABLE	TOGGLE	F	Positive Feedback IR Comp
POSFEEDRESISTANCE	QUANT	0	Positive Feedback Resistance (ohm)
ACHSELECT	IQUANT	0	Ach Select
CABLEID	IQUANT	14	Cable ID
DCCALDATE	LABEL	9/1/2020	DC Calibration Date
ACCALDATE	LABEL	9/1/2020	AC Calibration Date
THERMOSELECT	IQUANT	1	Thermo Select
FRAMEWORKVERSION	QUANT	6.33	Framework Version
INSTRUMENTVERSION	LABEL	3.50	Instrument Version
ZCURVE	TABLE
	Pt	Time	Freq	Zreal	Zimag	Zsig	Zmod	Zphz	Idc	Vdc	IERange
	#	s	Hz	ohm	ohm	V	ohm	°	A	V	#
	0	1	1000078	1451.545	-2834.532	1	3184.581	-62.88332	4.304952E-008	-0.0233748	8
	1	1	794390.6	1813.601	-3288.5	1	3755.447	-61.12336	4.841824E-008	-0.0237082	8
	2	1	630984.4	2253.545	-3776.551	1	4397.817	-59.17461	6.952072E-009	-0.0238572	8
	3	2	501234.4	2763.393	-4308.941	1	5118.917	-57.3273	7.90055E-008	-0.0239305	8
	4	2	398109.4	3364.255	-4886.185	1	5932.37	-55.45166	5.583551E-008	-0.0240236	8
	5	2	316265.6	4076.821	-5480.003	1	6830.146	-53.35278	4.799625E-008	-0.0240422	8
	6	3	251203.1	4878.278	-6131.976	1	7835.734	-51.49609	6.339342E-008	-0.0240458	8
	7	3	199546.9	5827.845	-6767.436	1	8930.955	-49.26628	8.858475E-008	-0.0240803	8
	8	3	158578.1	6905.57	-7437.5	1	10149.05	-47.12391	6.205121E-008	-0.0240641	8
	9	4	125953.1	8182.888	-8068.669	1	11491.87	-44.59732	4.505127E-010	-0.0240728	7
	10	4	100078.1	9532.54	-8624.211	1	12854.82	-42.13604	1.784961E-009	-0.0240723	7
	11	4	79453.13	10994.4	-9160.333	1	14310.43	-39.80045	1.100646E-009	-0.0240812	7
	12	5	63140.62	12553.08	-9597.15	1	15801.43	-37.39883	5.388578E-010	-0.0240845	7
	13	5	50203.12	14187.92	-9946.05	1	17326.88	-35.03131	1.40147E-009	-0.0240863	7
	14	5	39890.62	15859.48	-10177.56	1	18844.25	-32.68964	3.227653E-009	-0.0240913	7
	15	6	31640.63	17567.84	-10298.14	1	20363.71	-30.37851	1.356304E-009	-0.0240943	7
	16	6	25171.88	19236.84	-10322.5	1	21831.4	-28.21804	1.82605E-009	-0.0240976	7
	17	6	20015.62	20904.54	-10300.58	1	23304.54	-26.23148	1.536794E-009	-0.0240991	7
	18	7	15890.62	22572.21	-10239.8	1	24786.25	-24.40124	4.619724E-009	-0.0240902	7
	19	7	12609.37	24326.54	-9905.29	1	26265.86	-22.15519	5.345974E-010	-0.0240999	6
	20	7	10078.13	25749.42	-9687.9	1	27511.6	-20.61819	1.958063E-010	-0.0240984	6
	21	7	8015.625	27176.01	-9486.552	1	28784.2	-19.24298	5.597613E-010	-0.0241004	6
	22	8	6328.125	28560.51	-9278.22	1	30029.78	-17.997	2.425269E-010	-0.0241039	6
	23	8	5015.625	29741.03	-9065.704	1	31092.05	-16.95235	5.664778E-010	-0.0241138	6
	24	8	3984.375	30792.17	-8918.193	1	32057.63	-16.15236	4.156797E-010	-0.0241106	6
	25	9	3170.956	31872.35	-8934.493	1	33100.94	-15.65931	4.831859E-010	-0.0241096	6
	26	9	2527.573	32828.98	-9065.323	1	34057.62	-15.43684	1.836198E-010	-0.0241079	6
	27	9	1976.103	33802.24	-9394.146	1	35083.35	-15.53141	8.766635E-011	-0.0241038	6
	28	10	1577.524	34694.68	-9905.74	1	36081.08	-15.93466	-6.766708E-011	-0.024106	6
	29	10	1265.625	35627.64	-10619.86	1	37176.75	-16.59823	3.7114E-010	-0.0241113	6
	30	10	998.264	36672.23	-11639.98	1	38475.21	-17.60974	-5.472959E-011	-0.0241148	6
	31	11	796.875	37687.89	-12869.32	1	39824.57	-18.85354	-5.000569E-011	-0.024119	6
	32	11	627.7902	38933.72	-14508.23	1	41549.05	-20.43736	5.173914E-010	-0.0241151	6
	33	11	505.5147	40182.28	-16312.2	1	43367.08	-22.09494	-3.65664E-011	-0.0241255	6
	34	12	397.9953	41800.18	-18713.76	1	45798.04	-24.11786	3.543382E-010	-0.0241067	6
	35	12	315.5048	43605.07	-21494.13	1	48614.81	-26.23995	3.24627E-010	-0.0241057	6
	36	12	252.4038	45514.98	-24646.21	1	51759.53	-28.4354	2.385184E-010	-0.0241062	6
	37	13	198.6229	47947.97	-28637.95	1	55849.26	-30.84866	2.740633E-010	-0.024106	6
	38	13	158.3615	50557.82	-33084.63	1	60420.91	-33.20042	1.483234E-010	-0.0241114	6
	39	13	125.558	53699.42	-38416.27	1	66026.03	-35.57972	2.752164E-010	-0.02411	6
	40	14	100.4464	57263.21	-44419.28	1	72471.71	-37.80086	2.117447E-010	-0.0241118	6
	41	14	79.00281	61606.95	-52015.29	1	80628.82	-40.1747	1.848071E-010	-0.0241121	6
	42	14	63.3446	66267.56	-60230.3	1	89549.3	-42.26756	2.171981E-010	-0.0241155	6
	43	15	49.86702	72147.8	-70594.96	1	100940.4	-44.37672	-2.671593E-010	-0.0241203	5
	44	15	39.72458	78730.87	-82323.57	1	113911	-46.27791	1.739729E-010	-0.0241157	5
	45	15	31.6723	86450.6	-96050.3	1	129226	-48.01103	1.618808E-010	-0.0241194	5
	46	16	24.93351	96225.8	-113096.9	1	148493.5	-49.60799	-3.262773E-010	-0.0241168	5
	47	16	19.86229	107526.2	-132127.5	1	170351.3	-50.86107	-2.299618E-010	-0.0241173	5
	48	16	15.83615	121134.3	-154164.8	1	196062	-51.84167	-4.235622E-010	-0.0241185	5
	49	16	12.40079	139316.5	-181664.5	1	228934.7	-52.51581	-1.06093E-009	-0.0241141	5
	50	17	9.93114	159206.1	-210189.9	1	263678.6	-52.85828	-1.013897E-009	-0.0241148	5
	51	17	7.944915	184155.7	-242302.9	1	304341.9	-52.76434	2.375868E-010	-0.024117	5
	52	18	6.317385	215036.5	-279028.4	1	352274.8	-52.37994	-3.031343E-010	-0.0241051	5
	53	18	5.008013	252670.7	-319454.5	1	407300.4	-51.65797	-4.990431E-010	-0.0241215	5
	54	19	3.945707	298034.1	-362631.8	1	469389.2	-50.58444	6.431763E-011	-0.024111	5
	55	20	3.158693	347201.5	-405763.6	1	534034.7	-49.44724	-3.212206E-010	-0.024121	5
	56	21	2.504006	403769.4	-451572.7	1	605762	-48.19881	-1.127381E-010	-0.0241279	5
	57	22	1.998082	464907.3	-498659	1	681762.1	-47.00613	1.722479E-010	-0.0240857	5
	58	24	1.584686	530765.4	-549359.1	1	763876.6	-45.98621	9.180923E-011	-0.0241214	5
	59	26	1.266892	601466.1	-600958.6	1	850242.8	-44.97582	-2.473881E-011	-0.0241557	5
	60	28	0.999041	681812.2	-662232.4	1	950484	-44.16538	-9.936943E-011	-0.0241673	5
