EXPLAIN
TAG	EISPOT
TITLE	LABEL	Potentiostatic EIS	Test &Identifier
DATE	LABEL	3/3/2020	Date
TIME	LABEL	16:44:27	Time
NOTES	NOTES	1	&Notes...
	
PSTAT	PSTAT	REF600-11020	Potentiostat
VDC	POTEN	0.00000E+000	T	DC &Voltage (V)
FREQINIT	QUANT	1.00000E+006	Initial Fre&q. (Hz)
FREQFINAL	QUANT	1.00000E+000	Final Fre&q. (Hz)
PTSPERDEC	QUANT	1.00000E+001	Points/&decade
VAC	QUANT	2.50000E+001	AC &Voltage (mV rms)
AREA	QUANT	1.60000E-004	&Area (cm^2)
CONDIT	TWOPARAM	F	1.50000E+001	0.00000E+000	Conditionin&g	Time(s)	E(V)
DELAY	TWOPARAM	F	1.00000E+002	0.00000E+000	Init. De&lay	Time(s)	Stab.(mV/s)
SPEED	SELECTOR	1	&Optimize for:
ZGUESS	QUANT	1.00000E+004	E&stimated Z (ohms)
OCVCURVE	TABLE	39
	Pt	T	Vf	Vm	Ach	Over
	#	s	V vs. Ref.	V	V	bits
	0	0.258333	7.13591E-002	7.13591E-002	5.41731E-004	...........
	1	0.516667	7.13580E-002	7.13015E-002	5.38697E-004	...........
	2	0.775	7.13524E-002	7.13074E-002	5.37931E-004	...........
	3	1.03333	7.13403E-002	7.13068E-002	5.41197E-004	...........
	4	1.29167	7.13258E-002	7.13238E-002	5.38031E-004	...........
	5	1.55	7.13158E-002	7.13039E-002	5.39197E-004	...........
	6	1.80833	7.13119E-002	7.13162E-002	5.36464E-004	...........
	7	2.06667	7.13110E-002	7.12905E-002	5.40364E-004	...........
	8	2.325	7.13094E-002	7.12954E-002	5.39331E-004	...........
	9	2.58333	7.13056E-002	7.12984E-002	5.40697E-004	...........
	10	2.84167	7.13010E-002	7.12910E-002	5.39031E-004	...........
	11	3.1	7.12970E-002	7.12715E-002	5.33931E-004	...........
	12	3.35833	7.12927E-002	7.12758E-002	5.40497E-004	...........
	13	3.61667	7.12871E-002	7.12833E-002	5.38097E-004	...........
	14	3.875	7.12821E-002	7.12772E-002	5.33764E-004	...........
	15	4.13333	7.12792E-002	7.12695E-002	5.36297E-004	...........
	16	4.39167	7.12774E-002	7.12624E-002	5.42931E-004	...........
	17	4.65	7.12747E-002	7.12716E-002	5.38664E-004	...........
	18	4.90833	7.12716E-002	7.12747E-002	5.36931E-004	...........
	19	5.16667	7.12697E-002	7.12588E-002	5.38164E-004	...........
	20	5.425	7.12682E-002	7.12339E-002	5.41597E-004	...........
	21	5.68333	7.12640E-002	7.12398E-002	5.46030E-004	...........
	22	5.94167	7.12559E-002	7.12252E-002	5.41964E-004	...........
	23	6.2	7.12460E-002	7.12243E-002	5.31531E-004	...........
	24	6.45833	7.12372E-002	7.12276E-002	5.39097E-004	...........
	25	6.71667	7.12309E-002	7.12280E-002	5.36297E-004	...........
	26	6.975	7.12276E-002	7.12255E-002	5.35364E-004	...........
	27	7.23333	7.12267E-002	7.12356E-002	5.38064E-004	...........
	28	7.49167	7.12272E-002	7.12222E-002	5.41664E-004	...........
	29	7.75	7.12279E-002	7.12223E-002	5.41830E-004	...........
	30	8.00833	7.12273E-002	7.12091E-002	5.38397E-004	...........
	31	8.26667	7.12243E-002	7.12087E-002	5.34797E-004	...........
	32	8.525	7.12195E-002	7.12078E-002	5.40197E-004	...........
	33	8.78333	7.12144E-002	7.12057E-002	5.45997E-004	...........
	34	9.04167	7.12105E-002	7.12091E-002	5.42497E-004	...........
	35	9.3	7.12081E-002	7.11962E-002	5.42131E-004	...........
	36	9.5583	7.12060E-002	7.11893E-002	5.47097E-004	...........
	37	9.8167	7.12027E-002	7.11861E-002	5.47797E-004	...........
	38	10.075	7.11979E-002	7.11899E-002	5.40397E-004	...........
EOC	QUANT	0.0711979	Open Circuit (V)
PSTATMODEL	IQUANT	4	Pstat Model
PSTATSECTION	LABEL	REF600-11020	Pstat Section
PSTATSERIALNO	LABEL	11020	Pstat Serial Number
CTRLMODE	IQUANT	1	Control Mode
IESTAB	IQUANT	0	I/E Stability
CASPEED	IQUANT	1	Control Amp Speed
CONVENTION	IQUANT	1	Current Convention
ICHRANGE	IQUANT	2	Ich Range
ICHRANGEMODE	TOGGLE	F	Ich Auto Range
ICHOFFSETENABLE	TOGGLE	T	Ich Offset Enable
ICHOFFSET	QUANT	0	Ich Offset (V)
ICHFILTER	IQUANT	3	Ich Filter
VCHRANGE	IQUANT	2	Vch Range
VCHRANGEMODE	TOGGLE	F	Vch Auto Range
VCHOFFSETENABLE	TOGGLE	T	Vch Offset Enable
VCHOFFSET	QUANT	0	Vch Offset (V)
VCHFILTER	IQUANT	3	Vch Filter
ACHRANGE	IQUANT	2	Ach Range
ACHOFFSETENABLE	TOGGLE	F	Ach Offset Enable
ACHOFFSET	QUANT	0	Ach Offset (V)
ACHFILTER	IQUANT	3	Ach Filter
IERANGELOWERLIMIT	IQUANT	1	I/E Range Lower Limit
IERANGEMODE	TOGGLE	F	I/E AutoRange
IERANGE	IQUANT	7	I/E Range
POSFEEDENABLE	TOGGLE	F	Positive Feedback IR Comp
POSFEEDRESISTANCE	QUANT	0	Positive Feedback Resistance (ohm)
ACHSELECT	IQUANT	0	Ach Select
CABLEID	IQUANT	14	Cable ID
DCCALDATE	LABEL	2/27/2020	DC Calibration Date
ACCALDATE	LABEL	2/27/2020	AC Calibration Date
THERMOSELECT	IQUANT	1	Thermo Select
FRAMEWORKVERSION	QUANT	6.33	Framework Version
INSTRUMENTVERSION	LABEL	3.50	Instrument Version
ZCURVE	TABLE
	Pt	Time	Freq	Zreal	Zimag	Zsig	Zmod	Zphz	Idc	Vdc	IERange
	#	s	Hz	ohm	ohm	V	ohm	°	A	V	#
	0	1	1000078	1920.447	-2464.481	1	3124.385	-52.07249	2.296929E-006	0.0733859	8
	1	3	794390.6	2383.195	-2660.108	1	3571.525	-48.1428	2.264101E-006	0.0726059	8
	2	4	630984.4	2884.542	-2850.401	1	4055.29	-44.65891	-6.227108E-007	0.0730968	8
	3	5	501234.4	3470.973	-2957.532	1	4560.115	-40.43352	-1.009066E-006	0.0731507	8
	4	7	398109.4	4028.512	-3009.42	1	5028.471	-36.76085	-1.562883E-006	0.0733326	8
	5	8	316265.6	4588.814	-2956.386	1	5458.703	-32.79203	-1.310114E-006	0.0731535	8
	6	10	251203.1	5169.739	-2848.142	1	5902.382	-28.8515	6.705912E-007	0.0727253	8
	7	11	199546.9	5650.068	-2687.999	1	6256.884	-25.44259	6.138515E-007	0.0727235	8
	8	13	158578.1	6075.889	-2475.012	1	6560.649	-22.16352	-1.229491E-006	0.0732706	8
	9	14	125953.1	6477.222	-2202.125	1	6841.328	-18.777	-5.310896E-007	0.0742176	7
	10	16	100078.1	6778.03	-1968.763	1	7058.167	-16.1966	-6.284954E-008	0.0728486	7
	11	17	79453.13	7036.429	-1769.519	1	7255.517	-14.11601	-4.265336E-008	0.0728628	7
	12	18	63140.62	7247.809	-1577.349	1	7417.463	-12.27789	-1.624445E-008	0.0727247	7
	13	20	50203.12	7421.571	-1404.503	1	7553.3	-10.71627	3.816423E-008	0.0726665	7
	14	21	39890.62	7561.784	-1259.344	1	7665.933	-9.455295	-6.036608E-008	0.0728378	7
	15	22	31640.63	7684.34	-1140.251	1	7768.478	-8.44032	2.179058E-008	0.0727241	7
	16	24	25171.88	7783.407	-1056.554	1	7854.79	-7.73033	1.830104E-008	0.0727342	7
	17	25	20015.62	7871.188	-993.505	1	7933.641	-7.19386	-2.068723E-008	0.0728664	7
	18	27	15890.62	7948.042	-957.24	1	8005.478	-6.867469	4.56718E-008	0.0727836	7
	19	28	12609.37	8014.186	-945.2822	1	8069.742	-6.72702	1.124553E-007	0.0726041	7
	20	29	10078.13	8076.043	-971.407	1	8134.255	-6.858733	2.628746E-008	0.072647	7
	21	31	8015.625	8136.505	-1026.161	1	8200.959	-7.188085	-4.025303E-008	0.0728451	7
	22	32	6328.125	8195.915	-1119.571	1	8272.029	-7.778523	-3.869969E-008	0.0728656	7
	23	33	5015.625	8258.595	-1246.88	1	8352.191	-8.585657	-3.801851E-008	0.0728712	7
	24	35	3984.375	8318.297	-1428.634	1	8440.086	-9.74524	-1.127095E-008	0.0727116	7
	25	36	3170.956	8388.357	-1655.569	1	8550.173	-11.16469	-6.05411E-008	0.0728428	7
	26	37	2527.573	8461.857	-1948.387	1	8683.273	-12.96665	-1.187165E-008	0.0727141	7
	27	39	1976.103	8555.755	-2346.539	1	8871.707	-15.33706	-6.08602E-008	0.0728301	7
	28	40	1577.524	8667.383	-2815.346	1	9113.161	-17.99487	8.152901E-009	0.0728083	6
	29	41	1265.625	8787.988	-3378.581	1	9415.07	-21.02948	1.15313E-008	0.0726893	6
	30	43	998.264	8948.93	-4124.015	1	9853.47	-24.74209	-1.092721E-009	0.0729298	6
	31	44	796.875	9137.406	-4996.713	1	10414.38	-28.67167	-6.302849E-009	0.0728653	6
	32	45	627.7902	9387.704	-6132.41	1	11213.18	-33.15411	-1.238913E-008	0.0729153	6
	33	47	505.5147	9664.37	-7388.32	1	12165	-37.39758	1.295772E-008	0.072553	6
	34	48	397.9953	10041.97	-9079.67	1	13538.15	-42.11902	4.975783E-010	0.0728361	6
	35	49	315.5048	10498.44	-11091.24	1	15271.96	-46.57281	4.516411E-010	0.0728309	6
	36	51	252.4038	11042.2	-13443.46	1	17397.04	-50.60097	8.003231E-010	0.0728299	6
	37	52	198.6229	11766.87	-16525.22	1	20286.5	-54.54703	5.344753E-010	0.0728296	6
	38	54	158.3615	12626.4	-20090.16	1	23728.48	-57.8512	4.707505E-010	0.0728338	6
	39	55	125.558	13717.48	-24540.29	1	28113.97	-60.79578	4.941375E-010	0.0728379	6
	40	56	100.4464	15037.7	-29763.14	1	33346.32	-63.195	9.074332E-010	0.0728318	6
	41	58	79.00281	16838.65	-36610.68	1	40297.41	-65.30049	2.006066E-010	0.0728302	6
	42	59	63.3446	18859.95	-44376.31	1	48217.79	-66.97449	5.205902E-010	0.0728278	6
	43	60	49.86702	22180.33	-54067.85	1	58440.57	-67.69501	4.872117E-010	0.0728252	6
	44	62	39.72458	26078.62	-65759.59	1	70741.91	-68.36795	5.028393E-010	0.0728292	6
	45	63	31.6723	31113.67	-79290.7	1	85176.73	-68.57496	4.795809E-010	0.072826	6
	46	65	24.93351	38155.28	-96600.7	1	103863	-68.44701	3.113054E-010	0.072825	6
	47	66	19.86229	46929.35	-115791.4	1	124940.1	-67.93768	1.756833E-010	0.0728311	5
	48	67	15.83615	57549.38	-137530.7	1	149086	-67.29325	6.573764E-010	0.0728282	5
	49	69	12.40079	74027.94	-165654.1	1	181442.6	-65.92097	4.829822E-010	0.07283	5
	50	70	9.93114	92238.93	-193781.1	1	214613.9	-64.54576	4.472507E-010	0.0728215	5
	51	72	7.944915	114470	-225023.2	1	252465.5	-63.03741	-3.692318E-010	0.0728323	5
	52	73	6.317385	142481.1	-260715.3	1	297108.3	-61.34336	-5.294607E-011	0.0728218	5
	53	75	5.008013	175999.9	-300272.5	1	348051.1	-59.62398	-1.570396E-010	0.0728196	5
	54	78	3.945707	216439.8	-343752	1	406216.2	-57.80386	3.86948E-010	0.0728361	5
	55	80	3.158693	260012.5	-388344.9	1	467352.4	-56.1961	-9.545105E-011	0.0728257	5
	56	84	2.504006	311630.5	-437619.4	1	537237.7	-54.54518	5.425926E-010	0.0728311	5
	57	86	1.998082	367727.5	-487881.9	1	610943.8	-52.99385	7.801839E-011	0.0728753	5
	58	90	1.584686	429060.7	-544999.4	1	693626.3	-51.78777	2.712781E-010	0.0728398	5
	59	93	1.266892	495777.4	-603179.3	1	780781.9	-50.58183	1.711446E-012	0.072872	5
	60	97	0.999041	569197.9	-672833.2	1	881300.6	-49.76972	1.965394E-010	0.0727978	5
