EXPLAIN
TAG	EISPOT
TITLE	LABEL	Potentiostatic EIS	Test &Identifier
DATE	LABEL	1/21/2020	Date
TIME	LABEL	16:16:56	Time
NOTES	NOTES	6	&Notes...
	
	
	
	
	
	
PSTAT	PSTAT	REF600-11020	Potentiostat
VDC	POTEN	0.00000E+000	T	DC &Voltage (V)
FREQINIT	QUANT	1.00000E+006	Initial Fre&q. (Hz)
FREQFINAL	QUANT	1.00000E+000	Final Fre&q. (Hz)
PTSPERDEC	QUANT	1.00000E+001	Points/&decade
VAC	QUANT	2.50000E+001	AC &Voltage (mV rms)
AREA	QUANT	1.00000E-001	&Area (cm^2)
CONDIT	TWOPARAM	F	5.00000E+000	0.00000E+000	Conditionin&g	Time(s)	E(V)
DELAY	TWOPARAM	F	5.00000E+000	0.00000E+000	Init. De&lay	Time(s)	Stab.(mV/s)
SPEED	SELECTOR	0	&Optimize for:
ZGUESS	QUANT	5.00000E+002	E&stimated Z (ohms)
OCVCURVE	TABLE	39
	Pt	T	Vf	Vm	Ach	Over
	#	s	V vs. Ref.	V	V	bits
	0	0.258333	1.41290E-002	1.41290E-002	6.61613E-004	...........
	1	0.516667	1.41275E-002	1.40526E-002	6.65313E-004	...........
	2	0.775	1.41214E-002	1.41283E-002	6.68513E-004	...........
	3	1.03333	1.41120E-002	1.41227E-002	6.62846E-004	...........
	4	1.29167	1.41088E-002	1.42211E-002	6.59646E-004	...........
	5	1.55	1.41221E-002	1.42652E-002	6.64213E-004	...........
	6	1.80833	1.41550E-002	1.43087E-002	6.64879E-004	...........
	7	2.06667	1.42016E-002	1.43374E-002	6.66679E-004	...........
	8	2.325	1.42508E-002	1.43572E-002	6.63013E-004	...........
	9	2.58333	1.42939E-002	1.43710E-002	6.62446E-004	...........
	10	2.84167	1.43271E-002	1.43809E-002	6.62879E-004	...........
	11	3.1	1.43508E-002	1.43812E-002	6.65013E-004	...........
	12	3.35833	1.43666E-002	1.43961E-002	6.63713E-004	...........
	13	3.61667	1.43775E-002	1.44088E-002	6.56179E-004	...........
	14	3.875	1.43872E-002	1.44495E-002	6.58746E-004	...........
	15	4.13333	1.44008E-002	1.45062E-002	6.58246E-004	...........
	16	4.39167	1.44205E-002	1.44016E-002	6.59446E-004	...........
	17	4.65	1.44392E-002	1.44423E-002	6.63479E-004	...........
	18	4.90833	1.44473E-002	1.44539E-002	6.62546E-004	...........
	19	5.16667	1.44457E-002	1.44086E-002	6.65546E-004	...........
	20	5.425	1.44401E-002	1.43991E-002	6.65146E-004	...........
	21	5.68333	1.44316E-002	1.44118E-002	6.66079E-004	...........
	22	5.94167	1.44215E-002	1.44231E-002	6.65913E-004	...........
	23	6.2	1.44147E-002	1.44250E-002	6.67313E-004	...........
	24	6.45833	1.44143E-002	1.44315E-002	6.66946E-004	...........
	25	6.71667	1.44185E-002	1.44353E-002	6.68613E-004	...........
	26	6.975	1.44242E-002	1.44396E-002	6.70013E-004	...........
	27	7.23333	1.44297E-002	1.44393E-002	6.68446E-004	...........
	28	7.49167	1.44343E-002	1.44430E-002	6.68613E-004	...........
	29	7.75	1.44376E-002	1.44404E-002	6.63079E-004	...........
	30	8.00833	1.44398E-002	1.44450E-002	6.72579E-004	...........
	31	8.26667	1.44414E-002	1.44492E-002	6.67313E-004	...........
	32	8.525	1.44430E-002	1.44483E-002	6.74413E-004	...........
	33	8.78333	1.44449E-002	1.44490E-002	6.70546E-004	...........
	34	9.04167	1.44469E-002	1.44532E-002	6.72779E-004	...........
	35	9.3	1.44487E-002	1.44583E-002	6.66079E-004	...........
	36	9.5583	1.44507E-002	1.44552E-002	6.62713E-004	...........
	37	9.8167	1.44530E-002	1.44549E-002	6.69379E-004	...........
	38	10.075	1.44546E-002	1.44523E-002	6.62079E-004	...........
EOC	QUANT	0.0144546	Open Circuit (V)
PSTATMODEL	IQUANT	4	Pstat Model
PSTATSECTION	LABEL	REF600-11020	Pstat Section
PSTATSERIALNO	LABEL	11020	Pstat Serial Number
CTRLMODE	IQUANT	1	Control Mode
IESTAB	IQUANT	0	I/E Stability
CASPEED	IQUANT	1	Control Amp Speed
CONVENTION	IQUANT	1	Current Convention
ICHRANGE	IQUANT	2	Ich Range
ICHRANGEMODE	TOGGLE	F	Ich Auto Range
ICHOFFSETENABLE	TOGGLE	T	Ich Offset Enable
ICHOFFSET	QUANT	0	Ich Offset (V)
ICHFILTER	IQUANT	3	Ich Filter
VCHRANGE	IQUANT	2	Vch Range
VCHRANGEMODE	TOGGLE	F	Vch Auto Range
VCHOFFSETENABLE	TOGGLE	T	Vch Offset Enable
VCHOFFSET	QUANT	0	Vch Offset (V)
VCHFILTER	IQUANT	3	Vch Filter
ACHRANGE	IQUANT	2	Ach Range
ACHOFFSETENABLE	TOGGLE	F	Ach Offset Enable
ACHOFFSET	QUANT	0	Ach Offset (V)
ACHFILTER	IQUANT	3	Ach Filter
IERANGELOWERLIMIT	IQUANT	1	I/E Range Lower Limit
IERANGEMODE	TOGGLE	F	I/E AutoRange
IERANGE	IQUANT	7	I/E Range
POSFEEDENABLE	TOGGLE	F	Positive Feedback IR Comp
POSFEEDRESISTANCE	QUANT	0	Positive Feedback Resistance (ohm)
ACHSELECT	IQUANT	0	Ach Select
CABLEID	IQUANT	14	Cable ID
DCCALDATE	LABEL	12/22/2019	DC Calibration Date
ACCALDATE	LABEL	12/22/2019	AC Calibration Date
THERMOSELECT	IQUANT	1	Thermo Select
FRAMEWORKVERSION	QUANT	6.33	Framework Version
INSTRUMENTVERSION	LABEL	3.50	Instrument Version
ZCURVE	TABLE
	Pt	Time	Freq	Zreal	Zimag	Zsig	Zmod	Zphz	Idc	Vdc	IERange
	#	s	Hz	ohm	ohm	V	ohm	°	A	V	#
	0	1	1000078	2293.525	-1846.498	1	2944.455	-38.83725	-3.533573E-006	0.0172321	8
	1	1	794390.6	2669.997	-1812.633	1	3227.154	-34.17217	2.842678E-006	0.0161015	8
	2	2	630984.4	3015.458	-1723.141	1	3473.068	-29.7452	-1.5419E-006	0.0165908	8
	3	2	501234.4	3336.042	-1584.747	1	3693.318	-25.40951	-6.49465E-007	0.0164031	8
	4	2	398109.4	3590.182	-1446.865	1	3870.766	-21.94974	5.480371E-007	0.016067	8
	5	3	316265.6	3793.398	-1271.723	1	4000.894	-18.53354	1.253775E-006	0.0158257	8
	6	3	251203.1	3956.031	-1088.672	1	4103.095	-15.38653	1.552449E-006	0.015835	8
	7	3	199546.9	4100.38	-961.047	1	4211.5	-13.19088	1.714435E-006	0.015789	8
	8	4	158578.1	4207.967	-822.7515	1	4287.646	-11.06304	-2.625173E-006	0.016673	8
	9	4	125953.1	4283.554	-697.1039	1	4339.907	-9.243261	2.349908E-007	0.0156479	7
	10	4	100078.1	4328.057	-616.3292	1	4371.721	-8.104611	3.489309E-008	0.0159998	7
	11	5	79453.13	4378.133	-562.3003	1	4414.095	-7.318649	2.9197E-008	0.0160701	7
	12	5	63140.62	4423.322	-523.2333	1	4454.161	-6.74615	1.074686E-007	0.0159445	7
	13	5	50203.12	4463.916	-498.1427	1	4491.625	-6.367476	-5.269538E-008	0.0161793	7
	14	6	39890.62	4503.677	-488.2528	1	4530.066	-6.187387	6.560975E-008	0.0159598	7
	15	6	31640.63	4542.846	-492.0708	1	4569.418	-6.182048	-2.121319E-009	0.0161217	7
	16	6	25171.88	4582.993	-507.4644	1	4611.002	-6.318492	3.529002E-008	0.0159842	7
	17	6	20015.62	4626.335	-535.5937	1	4657.235	-6.603769	-1.702493E-008	0.0162072	7
	18	7	15890.62	4669.883	-578.2741	1	4705.551	-7.059032	-3.522114E-008	0.0161214	7
	19	7	12609.37	4719.063	-635.1083	1	4761.609	-7.665013	-7.693971E-009	0.0161167	7
	20	7	10078.13	4769.07	-708.1526	1	4821.359	-8.446057	3.496966E-008	0.0159774	7
	21	8	8015.625	4823.192	-797.0579	1	4888.607	-9.383623	5.757745E-008	0.0160703	7
	22	8	6328.125	4885.612	-916.0511	1	4970.75	-10.61964	-2.088518E-009	0.0160345	7
	23	8	5015.625	4951.557	-1059.136	1	5063.564	-12.07361	-3.195352E-008	0.0160983	7
	24	9	3984.375	5023.522	-1234.625	1	5173.014	-13.80785	-3.185974E-008	0.0161028	7
	25	9	3170.956	5103.083	-1448.205	1	5304.598	-15.84342	-2.272901E-009	0.0160967	7
	26	9	2527.573	5190.384	-1706.926	1	5463.853	-18.20413	-2.873431E-008	0.0161094	7
	27	10	1976.103	5298.435	-2051.646	1	5681.784	-21.16726	-4.760745E-009	0.0161151	7
	28	10	1577.524	5413.352	-2442.836	1	5939.008	-24.28781	-4.306753E-008	0.0161682	7
	29	10	1265.625	5537.636	-2912.04	1	6256.627	-27.73824	-3.203613E-008	0.0161854	7
	30	11	998.264	5700.42	-3523.76	1	6701.617	-31.72262	1.842019E-008	0.0160059	7
	31	11	796.875	5880.007	-4242.769	1	7250.902	-35.81265	-3.075892E-008	0.0161836	7
	32	11	627.7902	6107.372	-5167.977	1	8000.499	-40.23746	-3.006054E-008	0.0161846	7
	33	12	505.5147	6357.807	-6193.451	1	8875.84	-44.24977	-1.956559E-009	0.0160265	7
	34	12	397.9953	6690.69	-7575.762	1	10107.3	-48.55	4.188419E-010	0.016084	6
	35	12	315.5048	7082.966	-9222.336	1	11628.41	-52.47491	4.197447E-010	0.0160853	6
	36	13	252.4038	7545.156	-11147.93	1	13461.27	-55.90903	4.874561E-010	0.0160797	6
	37	13	198.6229	8151.916	-13670.35	1	15916.41	-59.19149	7.423664E-010	0.016081	6
	38	13	158.3615	8858.09	-16578.83	1	18796.9	-61.88436	7.989024E-010	0.0160791	6
	39	14	125.558	9747.31	-20218.68	1	22445.61	-64.26154	7.464909E-010	0.0160802	6
	40	14	100.4464	10812.16	-24439.11	1	26724.01	-66.13481	2.92369E-010	0.0160807	6
	41	14	79.00281	12266.41	-30006.01	1	32416.44	-67.76533	8.800219E-010	0.0160782	6
	42	14	63.3446	13668.41	-36442.95	1	38921.9	-69.44079	3.847509E-010	0.0160731	6
	43	15	49.86702	15960.54	-44579.24	1	47350.27	-70.30129	5.364964E-010	0.0160704	6
	44	15	39.72458	18877.96	-54076.4	1	57276.82	-70.75601	1.015085E-009	0.0160767	6
	45	16	31.6723	22565.9	-65542.66	1	69318.55	-71.00176	1.099187E-009	0.0160753	6
	46	16	24.93351	27409.75	-80017.41	1	84581.79	-71.09124	1.309102E-010	0.0160723	6
	47	16	19.86229	33388.72	-96560.7	1	102170.3	-70.92565	-4.226796E-010	0.0160717	6
	48	16	15.83615	42204.24	-115332.5	1	122812	-69.90063	1.73704E-009	0.0160714	5
	49	17	12.40079	52632.04	-140914.2	1	150422.5	-69.51913	8.251017E-010	0.0160674	5
	50	17	9.93114	64938.84	-167065.3	1	179242.5	-68.75873	-4.585532E-010	0.0160709	5
	51	18	7.944915	81002.72	-197156.6	1	213148.3	-67.66446	-5.944079E-010	0.0160734	5
	52	18	6.317385	101605.5	-232989.9	1	254181	-66.43828	-3.1557E-010	0.0160864	5
	53	19	5.008013	126985.7	-273956.3	1	301956.1	-65.13107	-2.18323E-010	0.0160676	5
	54	20	3.945707	158905.8	-321564.9	1	358685.2	-63.70307	1.978329E-010	0.0160712	5
	55	21	3.158693	193290.2	-370837.9	1	418188.8	-62.47032	8.879363E-011	0.0160907	5
	56	23	2.504006	236207.1	-429375	1	490057.9	-61.184	-8.302974E-011	0.0160786	5
	57	24	1.998082	282671.2	-491592.7	1	567068.3	-60.10062	4.512496E-011	0.0160801	5
	58	26	1.584686	339407.9	-564796.5	1	658933.1	-58.99673	1.448108E-010	0.0161163	5
	59	28	1.266892	399431.6	-645577.5	1	759154.8	-58.2541	1.14233E-010	0.0160913	5
	60	30	0.999041	471976.9	-741737.9	1	879168.5	-57.5309	1.021557E-010	0.016076	5
