EXPLAIN
TAG	EISPOT
TITLE	LABEL	Potentiostatic EIS	Test &Identifier
DATE	LABEL	1/10/2020	Date
TIME	LABEL	13:33:42	Time
NOTES	NOTES	5	&Notes...
	
	
	
	
	
PSTAT	PSTAT	REF600-11020	Potentiostat
VDC	POTEN	0.00000E+000	T	DC &Voltage (V)
FREQINIT	QUANT	1.00000E+006	Initial Fre&q. (Hz)
FREQFINAL	QUANT	1.00000E+000	Final Fre&q. (Hz)
PTSPERDEC	QUANT	1.00000E+001	Points/&decade
VAC	QUANT	2.50000E+001	AC &Voltage (mV rms)
AREA	QUANT	1.00000E-001	&Area (cm^2)
CONDIT	TWOPARAM	T	5.00000E+000	0.00000E+000	Conditionin&g	Time(s)	E(V)
DELAY	TWOPARAM	T	5.00000E+000	0.00000E+000	Init. De&lay	Time(s)	Stab.(mV/s)
SPEED	SELECTOR	0	&Optimize for:
ZGUESS	QUANT	5.00000E+002	E&stimated Z (ohms)
OCVCURVE	TABLE	19
	Pt	T	Vf	Vm	Ach	Over
	#	s	V vs. Ref.	V	V	bits
	0	0.258333	6.37814E-003	6.37814E-003	6.53880E-004	...........
	1	0.516667	6.38186E-003	6.57280E-003	6.49913E-004	...........
	2	0.775	6.38695E-003	5.82848E-003	6.52613E-004	...........
	3	1.03333	6.35950E-003	6.01048E-003	6.52713E-004	...........
	4	1.29167	6.26044E-003	5.63789E-003	6.55813E-004	...........
	5	1.55	6.09947E-003	5.59402E-003	6.48513E-004	...........
	6	1.80833	5.92365E-003	5.73855E-003	6.49946E-004	...........
	7	2.06667	5.77779E-003	5.45279E-003	6.52813E-004	...........
	8	2.325	5.67107E-003	5.16165E-003	6.49546E-004	...........
	9	2.58333	5.57560E-003	5.62806E-003	6.48313E-004	...........
	10	2.84167	5.50555E-003	6.30193E-003	6.50046E-004	...........
	11	3.1	5.54212E-003	6.10112E-003	6.42146E-004	...........
	12	3.35833	5.68286E-003	4.73765E-003	6.50246E-004	...........
	13	3.61667	5.76070E-003	5.31527E-003	6.53280E-004	...........
	14	3.875	5.63580E-003	4.31343E-003	6.51246E-004	...........
	15	4.13333	5.33403E-003	3.90843E-003	6.52480E-004	...........
	16	4.39167	4.93578E-003	3.74836E-003	6.47180E-004	...........
	17	4.65	4.50222E-003	3.34002E-003	6.51913E-004	...........
	18	4.90833	4.08586E-003	2.85996E-003	6.58613E-004	...........
EOC	QUANT	0.0040859	Open Circuit (V)
PSTATMODEL	IQUANT	4	Pstat Model
PSTATSECTION	LABEL	REF600-11020	Pstat Section
PSTATSERIALNO	LABEL	11020	Pstat Serial Number
CTRLMODE	IQUANT	1	Control Mode
IESTAB	IQUANT	0	I/E Stability
CASPEED	IQUANT	1	Control Amp Speed
CONVENTION	IQUANT	1	Current Convention
ICHRANGE	IQUANT	2	Ich Range
ICHRANGEMODE	TOGGLE	F	Ich Auto Range
ICHOFFSETENABLE	TOGGLE	T	Ich Offset Enable
ICHOFFSET	QUANT	0	Ich Offset (V)
ICHFILTER	IQUANT	3	Ich Filter
VCHRANGE	IQUANT	2	Vch Range
VCHRANGEMODE	TOGGLE	F	Vch Auto Range
VCHOFFSETENABLE	TOGGLE	T	Vch Offset Enable
VCHOFFSET	QUANT	0	Vch Offset (V)
VCHFILTER	IQUANT	3	Vch Filter
ACHRANGE	IQUANT	2	Ach Range
ACHOFFSETENABLE	TOGGLE	F	Ach Offset Enable
ACHOFFSET	QUANT	0	Ach Offset (V)
ACHFILTER	IQUANT	3	Ach Filter
IERANGELOWERLIMIT	IQUANT	1	I/E Range Lower Limit
IERANGEMODE	TOGGLE	F	I/E AutoRange
IERANGE	IQUANT	7	I/E Range
POSFEEDENABLE	TOGGLE	F	Positive Feedback IR Comp
POSFEEDRESISTANCE	QUANT	0	Positive Feedback Resistance (ohm)
ACHSELECT	IQUANT	0	Ach Select
CABLEID	IQUANT	14	Cable ID
DCCALDATE	LABEL	12/22/2019	DC Calibration Date
ACCALDATE	LABEL	12/22/2019	AC Calibration Date
THERMOSELECT	IQUANT	1	Thermo Select
FRAMEWORKVERSION	QUANT	6.33	Framework Version
INSTRUMENTVERSION	LABEL	3.50	Instrument Version
ZCURVE	TABLE
	Pt	Time	Freq	Zreal	Zimag	Zsig	Zmod	Zphz	Idc	Vdc	IERange
	#	s	Hz	ohm	ohm	V	ohm	°	A	V	#
	0	1	1000078	2178.52	-2204.978	1	3099.657	-45.34583	1.910031E-006	0.0059674	8
	1	1	794390.6	2569.138	-2341.505	1	3476.078	-42.34595	-1.046758E-006	0.0059781	8
	2	1	630984.4	2983.789	-2436.678	1	3852.323	-39.23641	-6.881514E-007	0.0058524	8
	3	2	501234.4	3404.528	-2479.937	1	4211.995	-36.07046	-7.403321E-007	0.0057553	8
	4	2	398109.4	3811.962	-2488.824	1	4552.505	-33.14046	1.990528E-006	0.0052707	8
	5	2	316265.6	4218.281	-2450.149	1	4878.229	-30.14976	-8.098407E-007	0.0056756	8
	6	3	251203.1	4576.713	-2468.153	1	5199.815	-28.33732	-2.316682E-006	0.0060574	8
	7	3	199546.9	4943.167	-2475.593	1	5528.422	-26.60222	5.790075E-007	0.0054685	8
	8	3	158578.1	5304.752	-2474.517	1	5853.514	-25.00772	-2.571224E-007	0.0057328	8
	9	4	125953.1	5628.857	-2445.442	1	6137.118	-23.48241	-5.285039E-009	0.0055698	7
	10	4	100078.1	5943.262	-2481.468	1	6440.5	-22.66182	-2.870036E-008	0.005596	7
	11	4	79453.13	6273.342	-2546.075	1	6770.327	-22.09008	6.042335E-008	0.0054458	7
	12	4	63140.62	6602.617	-2623.045	1	7104.57	-21.66662	6.060494E-008	0.0054378	7
	13	5	50203.12	6937.856	-2725.233	1	7453.908	-21.44521	2.458517E-008	0.0055393	7
	14	5	39890.62	7282.349	-2856.245	1	7822.452	-21.41585	3.720619E-009	0.0055773	7
	15	5	31640.63	7642.896	-3006.128	1	8212.835	-21.47086	-2.928138E-008	0.0055764	7
	16	6	25171.88	8013.395	-3191.201	1	8625.442	-21.7141	-3.215645E-008	0.0055868	7
	17	6	20015.62	8399.905	-3409.259	1	9065.398	-22.09069	-4.060541E-008	0.0056349	7
	18	6	15890.62	8826.253	-3668.376	1	9558.23	-22.5688	6.052305E-008	0.005429	7
	19	7	12609.37	9292.54	-3935.027	1	10091.37	-22.95076	-3.183992E-009	0.0055674	6
	20	7	10078.13	9747.63	-4281.661	1	10646.54	-23.71355	-2.775665E-009	0.0056043	6
	21	7	8015.625	10239.71	-4692.351	1	11263.65	-24.61964	-4.39272E-010	0.0055062	6
	22	8	6328.125	10791.06	-5195.609	1	11976.7	-25.70958	-3.110862E-009	0.0056536	6
	23	8	5015.625	11375.15	-5775.151	1	12757.21	-26.91685	1.431278E-009	0.0054878	6
	24	8	3984.375	12010.54	-6457.282	1	13636.33	-28.26402	5.574453E-009	0.0054222	6
	25	9	3170.956	12714.93	-7250.337	1	14636.83	-29.69276	-5.408812E-009	0.0056151	6
	26	9	2527.573	13503.32	-8166.024	1	15780.48	-31.16312	4.102399E-009	0.0054116	6
	27	9	1976.103	14485.94	-9335.086	1	17233.29	-32.79871	-5.850436E-009	0.0056361	6
	28	10	1577.524	15541.38	-10523.14	1	18768.88	-34.10213	-1.022628E-009	0.0055086	6
	29	10	1265.625	16658.11	-11905.93	1	20475.45	-35.55425	-1.502844E-009	0.0055588	6
	30	10	998.264	18058.46	-13553.43	1	22578.83	-36.88935	1.22767E-008	0.0053276	6
	31	11	796.875	19545.44	-15320.44	1	24834.25	-38.09066	-8.072907E-010	0.0054783	6
	32	11	627.7902	21304.96	-17448.74	1	27538.33	-39.31744	-2.568936E-009	0.0056538	6
	33	11	505.5147	23086.04	-19686.34	1	30340.03	-40.45547	-8.99648E-010	0.0054997	6
	34	12	397.9953	25272.36	-22517.77	1	33848.81	-41.70116	-2.036697E-012	0.0055506	6
	35	12	315.5048	27698.51	-25747.25	1	37817.04	-42.90911	1.217045E-009	0.005554	6
	36	12	252.4038	30342.21	-29365.95	1	42225.68	-44.06327	1.289907E-009	0.0055543	6
	37	12	198.6229	33669.1	-33833.63	1	47731.78	-45.13965	6.374847E-010	0.0055525	6
	38	13	158.3615	37240.11	-38772.71	1	53760.11	-46.15506	8.132148E-010	0.0055478	6
	39	13	125.558	41551.33	-44357.07	1	60778.8	-46.87059	6.301824E-010	0.0055459	6
	40	13	100.4464	46418.33	-50533.25	1	68616.84	-47.43035	-3.489707E-010	0.005545	6
	41	14	79.00281	52066.88	-58144.56	1	78049.66	-48.15642	1.260917E-010	0.0055426	6
	42	14	63.3446	56715.74	-64149.66	1	85626.24	-48.51958	7.27235E-010	0.0055461	6
	43	14	49.86702	63831.81	-74049.07	1	97763.8	-49.23799	9.267124E-010	0.0055398	6
	44	15	39.72458	70305.52	-85937.59	1	111032.1	-50.71341	-1.274806E-010	0.0055424	5
	45	15	31.6723	77547.17	-98953.9	1	125719.7	-51.91529	-1.535106E-010	0.0055424	5
	46	16	24.93351	84833.97	-115707.6	1	143474.9	-53.75204	-7.553526E-010	0.0055386	5
	47	16	19.86229	93103.99	-135762.4	1	164620.1	-55.5582	-4.115598E-010	0.0055414	5
	48	16	15.83615	100877.3	-160316.2	1	189413.6	-57.82026	-3.046021E-010	0.0055395	5
	49	16	12.40079	112165.5	-193565.7	1	223715.9	-59.909	3.812844E-010	0.00554	5
	50	17	9.93114	129308.9	-229113.9	1	263085.5	-60.56017	-8.34697E-010	0.0055413	5
	51	17	7.944915	146300.1	-273369.2	1	310055.5	-61.84546	3.856625E-010	0.0055373	5
	52	18	6.317385	169884.3	-326009.1	1	367617.4	-62.47585	1.864257E-010	0.0055407	5
	53	19	5.008013	200695.2	-390874.2	1	439387.3	-62.82168	7.572101E-011	0.0055267	5
	54	20	3.945707	241450	-465388.3	1	524294.2	-62.57908	-1.488029E-010	0.0055425	5
	55	21	3.158693	291812.1	-552766.7	1	625064.3	-62.1699	-6.634127E-012	0.0055495	5
	56	23	2.504006	356130.9	-645888.6	1	737564.5	-61.12848	-7.630221E-011	0.0055341	5
	57	24	1.998082	434715.3	-747174.4	1	864434.4	-59.80862	-5.607723E-011	0.0055709	5
	58	26	1.584686	533455.6	-865903.4	1	1017037	-58.3641	3.923319E-011	0.0055775	5
	59	28	1.266892	638869.9	-981309	1	1170949	-56.93433	4.656287E-011	0.0055722	4
	60	30	0.999041	798524.3	-1084360	1	1346654	-53.63201	-2.264951E-010	0.0055521	4
