EXPLAIN
TAG	EISPOT
TITLE	LABEL	Potentiostatic EIS	Test &Identifier
DATE	LABEL	3/9/2020	Date
TIME	LABEL	20:56:28	Time
NOTES	NOTES	1	&Notes...
	
PSTAT	PSTAT	REF600-11020	Potentiostat
VDC	POTEN	0.00000E+000	T	DC &Voltage (V)
FREQINIT	QUANT	1.00000E+006	Initial Fre&q. (Hz)
FREQFINAL	QUANT	1.00000E+000	Final Fre&q. (Hz)
PTSPERDEC	QUANT	1.00000E+001	Points/&decade
VAC	QUANT	2.50000E+001	AC &Voltage (mV rms)
AREA	QUANT	4.00000E-005	&Area (cm^2)
CONDIT	TWOPARAM	F	5.00000E+000	0.00000E+000	Conditionin&g	Time(s)	E(V)
DELAY	TWOPARAM	T	3.00000E+000	0.00000E+000	Init. De&lay	Time(s)	Stab.(mV/s)
SPEED	SELECTOR	0	&Optimize for:
ZGUESS	QUANT	1.00000E+003	E&stimated Z (ohms)
OCVCURVE	TABLE	12
	Pt	T	Vf	Vm	Ach	Over
	#	s	V vs. Ref.	V	V	bits
	0	0.258333	4.57012E-002	4.57012E-002	5.67297E-004	...........
	1	0.516667	4.57011E-002	4.56976E-002	5.67730E-004	...........
	2	0.775	4.57007E-002	4.56944E-002	5.73397E-004	...........
	3	1.03333	4.56995E-002	4.56885E-002	5.70630E-004	...........
	4	1.29167	4.56971E-002	4.56811E-002	5.68597E-004	...........
	5	1.55	4.56932E-002	4.56752E-002	5.74730E-004	...........
	6	1.80833	4.56881E-002	4.56696E-002	5.68097E-004	...........
	7	2.06667	4.56822E-002	4.56628E-002	5.70263E-004	...........
	8	2.325	4.56760E-002	4.56557E-002	5.70297E-004	...........
	9	2.58333	4.56696E-002	4.56509E-002	5.72997E-004	...........
	10	2.84167	4.56633E-002	4.56446E-002	5.70563E-004	...........
	11	3.1	4.56570E-002	4.56380E-002	5.71730E-004	...........
EOC	QUANT	0.045657	Open Circuit (V)
PSTATMODEL	IQUANT	4	Pstat Model
PSTATSECTION	LABEL	REF600-11020	Pstat Section
PSTATSERIALNO	LABEL	11020	Pstat Serial Number
CTRLMODE	IQUANT	1	Control Mode
IESTAB	IQUANT	0	I/E Stability
CASPEED	IQUANT	1	Control Amp Speed
CONVENTION	IQUANT	1	Current Convention
ICHRANGE	IQUANT	2	Ich Range
ICHRANGEMODE	TOGGLE	F	Ich Auto Range
ICHOFFSETENABLE	TOGGLE	T	Ich Offset Enable
ICHOFFSET	QUANT	0	Ich Offset (V)
ICHFILTER	IQUANT	3	Ich Filter
VCHRANGE	IQUANT	2	Vch Range
VCHRANGEMODE	TOGGLE	F	Vch Auto Range
VCHOFFSETENABLE	TOGGLE	T	Vch Offset Enable
VCHOFFSET	QUANT	0	Vch Offset (V)
VCHFILTER	IQUANT	3	Vch Filter
ACHRANGE	IQUANT	2	Ach Range
ACHOFFSETENABLE	TOGGLE	F	Ach Offset Enable
ACHOFFSET	QUANT	0	Ach Offset (V)
ACHFILTER	IQUANT	3	Ach Filter
IERANGELOWERLIMIT	IQUANT	1	I/E Range Lower Limit
IERANGEMODE	TOGGLE	F	I/E AutoRange
IERANGE	IQUANT	7	I/E Range
POSFEEDENABLE	TOGGLE	F	Positive Feedback IR Comp
POSFEEDRESISTANCE	QUANT	0	Positive Feedback Resistance (ohm)
ACHSELECT	IQUANT	0	Ach Select
CABLEID	IQUANT	14	Cable ID
DCCALDATE	LABEL	2/27/2020	DC Calibration Date
ACCALDATE	LABEL	2/27/2020	AC Calibration Date
THERMOSELECT	IQUANT	1	Thermo Select
FRAMEWORKVERSION	QUANT	6.33	Framework Version
INSTRUMENTVERSION	LABEL	3.50	Instrument Version
ZCURVE	TABLE
	Pt	Time	Freq	Zreal	Zimag	Zsig	Zmod	Zphz	Idc	Vdc	IERange
	#	s	Hz	ohm	ohm	V	ohm	°	A	V	#
	0	1	1000078	1980.91	-1890.035	1	2737.926	-43.65516	3.726554E-008	0.0481593	8
	1	2	794390.6	2379.26	-1959.088	1	3082.029	-39.46812	4.678527E-008	0.0477965	8
	2	2	630984.4	2784.286	-1954.246	1	3401.665	-35.0644	3.344983E-008	0.0476288	8
	3	2	501234.4	3172.513	-1882.611	1	3689.046	-30.68545	3.652833E-008	0.0475093	8
	4	3	398109.4	3518.132	-1760.23	1	3933.912	-26.58021	3.799536E-008	0.0474564	8
	5	3	316265.6	3813.39	-1604.634	1	4137.245	-22.82084	3.601665E-008	0.0474249	8
	6	3	251203.1	4052.28	-1434.688	1	4298.756	-19.49624	2.783113E-008	0.0473929	8
	7	4	199546.9	4247.973	-1274.208	1	4434.961	-16.69697	4.758948E-008	0.0474057	8
	8	4	158578.1	4393.124	-1126.879	1	4535.35	-14.38674	-6.274702E-009	0.047428	8
	9	4	125953.1	4556.685	-915.7604	1	4647.795	-11.3634	6.847175E-009	0.0473458	7
	10	4	100078.1	4629.122	-822.2709	1	4701.585	-10.07239	6.33905E-010	0.0473371	7
	11	5	79453.13	4704.133	-757.805	1	4764.781	-9.151353	5.916917E-010	0.0473333	7
	12	5	63140.62	4769.817	-711.6863	1	4822.619	-8.48628	1.385091E-010	0.0473273	7
	13	5	50203.12	4830.258	-683.7185	1	4878.408	-8.05664	-1.990234E-010	0.0473152	7
	14	6	39890.62	4886.925	-673.3987	1	4933.103	-7.845721	-3.068605E-010	0.0473133	7
	15	6	31640.63	4944.094	-681.267	1	4990.811	-7.845614	1.315269E-009	0.0473262	7
	16	6	25171.88	5000.778	-706.4335	1	5050.429	-8.040668	-7.398471E-011	0.0473163	7
	17	7	20015.62	5060.713	-750.0659	1	5115.996	-8.430632	2.823241E-010	0.047317	7
	18	7	15890.62	5124.834	-813.5531	1	5189.007	-9.020275	2.349804E-009	0.0473131	7
	19	7	12609.37	5194.807	-898.1352	1	5271.875	-9.80896	1.784113E-009	0.0473184	7
	20	8	10078.13	5267.962	-1001.482	1	5362.313	-10.76394	4.542591E-010	0.0473129	7
	21	8	8015.625	5351.801	-1133.834	1	5470.59	-11.96183	1.166879E-009	0.0473113	7
	22	8	6328.125	5448.6	-1301.62	1	5601.915	-13.43563	1.14813E-009	0.0473092	7
	23	9	5015.625	5556.585	-1502.413	1	5756.117	-15.13009	1.759161E-009	0.047311	7
	24	9	3984.375	5676.755	-1744.252	1	5938.684	-17.08021	2.188904E-009	0.0473141	7
	25	9	3170.956	5811.968	-2030.35	1	6156.402	-19.25633	1.437495E-009	0.0473058	7
	26	10	2527.573	5965.045	-2372.002	1	6419.358	-21.68526	9.389847E-010	0.0473045	7
	27	10	1976.103	6156.006	-2823.188	1	6772.503	-24.63652	2.912551E-009	0.0473148	7
	28	10	1577.524	6357.594	-3318.889	1	7171.751	-27.56615	2.545165E-009	0.0473041	7
	29	11	1265.625	6579.918	-3899.36	1	7648.551	-30.65163	3.05037E-009	0.0473067	7
	30	11	998.264	6858.308	-4646.587	1	8284.15	-34.11812	7.807232E-010	0.0472948	7
	31	11	796.875	7158.162	-5512.217	1	9034.59	-37.59845	1.599082E-009	0.0473002	7
	32	11	627.7902	7534.553	-6612.594	1	10024.76	-41.27135	-1.799338E-010	0.0473542	6
	33	12	505.5147	7921.423	-7826.625	1	11135.75	-44.65511	-4.449182E-010	0.0473523	6
	34	12	397.9953	8425.021	-9456.911	1	12665.47	-48.30264	4.493338E-010	0.0473687	6
	35	12	315.5048	9004.471	-11387.67	1	14517.56	-51.66584	4.507089E-010	0.0473686	6
	36	13	252.4038	9669.49	-13639.38	1	16719.2	-54.66566	2.881485E-010	0.047364	6
	37	13	198.6229	10535.05	-16583.19	1	19646.62	-57.57283	4.000861E-010	0.0473666	6
	38	13	158.3615	11541.84	-19971.15	1	23066.45	-59.97528	2.222822E-010	0.0473632	6
	39	14	125.558	12818.73	-24179.76	1	27367.51	-62.07003	1.138823E-010	0.0473658	6
	40	14	100.4464	14350.86	-29059.47	1	32409.88	-63.71778	7.451569E-011	0.0473626	6
	41	14	79.00281	16426.11	-35400.93	1	39026.18	-65.1086	3.006186E-010	0.047358	6
	42	15	63.3446	18838.15	-42409.71	1	46405.38	-66.04948	2.686799E-010	0.0473538	6
	43	15	49.86702	22131.23	-51500.73	1	56054.59	-66.74552	8.130079E-011	0.0473533	6
	44	16	39.72458	26093.02	-61818.17	1	67099.41	-67.11573	1.047425E-010	0.0473634	6
	45	16	31.6723	31058.89	-74012.94	1	80265.62	-67.23506	1.014071E-010	0.0473533	6
	46	16	24.93351	37698.34	-89272.16	1	96905.5	-67.10637	-2.754956E-011	0.0473556	6
	47	16	19.86229	45716.55	-106410.7	1	115815.6	-66.7505	-1.037721E-009	0.0473585	5
	48	17	15.83615	55815.45	-126276.4	1	138061.9	-66.15408	7.511696E-010	0.0473567	5
	49	17	12.40079	69781.11	-151237.8	1	166560.1	-65.2314	-2.899118E-010	0.0473615	5
	50	17	9.93114	85595.19	-177316	1	196894.6	-64.23215	8.562892E-012	0.0473577	5
	51	18	7.944915	105222.4	-206379	1	231655	-62.98522	1.157277E-009	0.0473644	5
	52	18	6.317385	130130.9	-240388.3	1	273350.7	-61.57171	-2.56447E-010	0.0473692	5
	53	19	5.008013	160733.8	-278235.5	1	321325.9	-59.98542	-4.121909E-010	0.0473553	5
	54	20	3.945707	197968.8	-319465.7	1	375832.4	-58.21404	2.730966E-010	0.0473677	5
	55	21	3.158693	238901.8	-361413.3	1	433236.3	-56.53445	-2.579985E-010	0.047365	5
	56	22	2.504006	286332.6	-406766.2	1	497438.5	-54.85735	-2.823267E-011	0.0473523	5
	57	23	1.998082	337678.2	-454030.5	1	565835.9	-53.36055	2.494912E-010	0.0473946	5
	58	25	1.584686	392126.3	-505730.7	1	639942.7	-52.21122	1.218723E-010	0.0473627	5
	59	27	1.266892	449515.1	-559839.3	1	717972.1	-51.23777	2.821647E-011	0.0473204	5
	60	29	0.999041	512821.3	-626898.4	1	809930.4	-50.71582	-2.808011E-011	0.0473059	5
