EXPLAIN
TAG	EISPOT
TITLE	LABEL	Potentiostatic EIS	Test &Identifier
DATE	LABEL	1/7/2020	Date
TIME	LABEL	17:18:22	Time
NOTES	NOTES	5	&Notes...
	
	
	
	
	
PSTAT	PSTAT	REF600-11020	Potentiostat
VDC	POTEN	0.00000E+000	T	DC &Voltage (V)
FREQINIT	QUANT	1.00000E+006	Initial Fre&q. (Hz)
FREQFINAL	QUANT	1.00000E+000	Final Fre&q. (Hz)
PTSPERDEC	QUANT	1.00000E+001	Points/&decade
VAC	QUANT	2.50000E+001	AC &Voltage (mV rms)
AREA	QUANT	1.00000E-001	&Area (cm^2)
CONDIT	TWOPARAM	T	5.00000E+000	0.00000E+000	Conditionin&g	Time(s)	E(V)
DELAY	TWOPARAM	T	5.00000E+000	0.00000E+000	Init. De&lay	Time(s)	Stab.(mV/s)
SPEED	SELECTOR	0	&Optimize for:
ZGUESS	QUANT	1.00000E+003	E&stimated Z (ohms)
OCVCURVE	TABLE	19
	Pt	T	Vf	Vm	Ach	Over
	#	s	V vs. Ref.	V	V	bits
	0	0.258333	9.68811E-004	9.68811E-004	6.55679E-004	...........
	1	0.516667	9.60746E-004	5.46633E-004	6.53346E-004	...........
	2	0.775	9.13335E-004	2.57141E-004	6.61679E-004	...........
	3	1.03333	7.90077E-004	1.80014E-004	6.54946E-004	...........
	4	1.29167	5.94970E-004	-1.51547E-004	6.57813E-004	...........
	5	1.55	3.62528E-004	-5.56328E-004	6.57379E-004	...........
	6	1.80833	1.04677E-004	-9.22234E-004	6.54113E-004	...........
	7	2.06667	-1.89786E-004	-1.22630E-003	6.60546E-004	...........
	8	2.325	-5.17306E-004	-1.51420E-003	6.52746E-004	...........
	9	2.58333	-8.54020E-004	-1.79777E-003	6.54913E-004	...........
	10	2.84167	-1.17857E-003	-2.09163E-003	6.57679E-004	...........
	11	3.1	-1.49274E-003	-2.76213E-003	6.60779E-004	...........
	12	3.35833	-1.82466E-003	-3.01137E-003	6.60546E-004	...........
	13	3.61667	-2.19116E-003	-3.12024E-003	6.67546E-004	...........
	14	3.875	-2.55431E-003	-3.15664E-003	6.67979E-004	...........
	15	4.13333	-2.84754E-003	-3.18921E-003	6.61746E-004	...........
	16	4.39167	-3.04296E-003	-3.48381E-003	6.54046E-004	...........
	17	4.65	-3.17826E-003	-3.82133E-003	6.61346E-004	...........
	18	4.90833	-3.32345E-003	-4.07178E-003	6.62613E-004	...........
EOC	QUANT	-0.0033234	Open Circuit (V)
PSTATMODEL	IQUANT	4	Pstat Model
PSTATSECTION	LABEL	REF600-11020	Pstat Section
PSTATSERIALNO	LABEL	11020	Pstat Serial Number
CTRLMODE	IQUANT	1	Control Mode
IESTAB	IQUANT	0	I/E Stability
CASPEED	IQUANT	1	Control Amp Speed
CONVENTION	IQUANT	1	Current Convention
ICHRANGE	IQUANT	2	Ich Range
ICHRANGEMODE	TOGGLE	F	Ich Auto Range
ICHOFFSETENABLE	TOGGLE	T	Ich Offset Enable
ICHOFFSET	QUANT	0	Ich Offset (V)
ICHFILTER	IQUANT	3	Ich Filter
VCHRANGE	IQUANT	2	Vch Range
VCHRANGEMODE	TOGGLE	F	Vch Auto Range
VCHOFFSETENABLE	TOGGLE	T	Vch Offset Enable
VCHOFFSET	QUANT	0	Vch Offset (V)
VCHFILTER	IQUANT	3	Vch Filter
ACHRANGE	IQUANT	2	Ach Range
ACHOFFSETENABLE	TOGGLE	F	Ach Offset Enable
ACHOFFSET	QUANT	0	Ach Offset (V)
ACHFILTER	IQUANT	3	Ach Filter
IERANGELOWERLIMIT	IQUANT	1	I/E Range Lower Limit
IERANGEMODE	TOGGLE	F	I/E AutoRange
IERANGE	IQUANT	6	I/E Range
POSFEEDENABLE	TOGGLE	F	Positive Feedback IR Comp
POSFEEDRESISTANCE	QUANT	0	Positive Feedback Resistance (ohm)
ACHSELECT	IQUANT	0	Ach Select
CABLEID	IQUANT	14	Cable ID
DCCALDATE	LABEL	12/22/2019	DC Calibration Date
ACCALDATE	LABEL	12/22/2019	AC Calibration Date
THERMOSELECT	IQUANT	1	Thermo Select
FRAMEWORKVERSION	QUANT	6.33	Framework Version
INSTRUMENTVERSION	LABEL	3.50	Instrument Version
ZCURVE	TABLE
	Pt	Time	Freq	Zreal	Zimag	Zsig	Zmod	Zphz	Idc	Vdc	IERange
	#	s	Hz	ohm	ohm	V	ohm	°	A	V	#
	0	1	1000078	2451.213	-2053.862	1	3197.936	-39.95951	-3.595906E-006	0.0003724	8
	1	1	794390.6	2909.719	-2076.677	1	3574.78	-35.51558	-3.557022E-006	-0.0005927	8
	2	1	630984.4	3260.645	-2066.384	1	3860.278	-32.36386	9.624202E-007	-0.001503	8
	3	2	501234.4	3638.996	-1970.633	1	4138.319	-28.43696	-6.189676E-007	-0.0015785	8
	4	2	398109.4	3965.443	-1847.459	1	4374.682	-24.98032	2.091721E-006	-0.0020174	8
	5	2	316265.6	4262.462	-1714.125	1	4594.214	-21.90724	2.915084E-008	-0.0016611	8
	6	3	251203.1	4523.312	-1537.022	1	4777.32	-18.76777	-4.495927E-006	-0.0005926	8
	7	3	199546.9	4758.527	-1405.589	1	4961.78	-16.45626	7.363658E-008	-0.0016381	8
	8	3	158578.1	4889.454	-1289.662	1	5056.677	-14.77604	-3.768611E-007	-0.0016688	8
	9	4	125953.1	5103.862	-1089.9	1	5218.936	-12.05413	-1.76398E-006	0.0020323	7
	10	4	100078.1	5201.482	-1000.904	1	5296.907	-10.8921	-6.638165E-008	-0.0016856	7
	11	4	79453.13	5306.989	-945.8269	1	5390.614	-10.10532	-3.352717E-008	-0.0016343	7
	12	5	63140.62	5406.594	-906.7448	1	5482.103	-9.52053	-6.80803E-008	-0.0016902	7
	13	5	50203.12	5494.69	-885.7693	1	5565.627	-9.157559	2.022034E-007	-0.0019955	7
	14	5	39890.62	5579.901	-882.1678	1	5649.205	-8.983955	1.343535E-007	-0.0017867	7
	15	6	31640.63	5666.861	-897.5798	1	5737.505	-9.000367	-9.122095E-008	-0.0016321	7
	16	6	25171.88	5752.641	-933.306	1	5827.859	-9.215348	-6.926953E-008	-0.0015921	7
	17	6	20015.62	5843.676	-987.888	1	5926.59	-9.59527	2.024019E-007	-0.0020029	7
	18	7	15890.62	5942.146	-1068.874	1	6037.515	-10.19732	-6.637227E-008	-0.001701	7
	19	7	12609.37	6044.324	-1172.268	1	6156.952	-10.97598	-8.715271E-008	-0.0016431	7
	20	7	10078.13	6148.042	-1292.76	1	6282.487	-11.87469	2.188388E-008	-0.0015769	7
	21	8	8015.625	6277.542	-1450.513	1	6442.944	-13.01064	-1.001528E-007	-0.0015752	7
	22	8	6328.125	6409.7	-1644.251	1	6617.236	-14.38759	-8.802141E-008	-0.0016441	7
	23	8	5015.625	6562.09	-1879.4	1	6825.919	-15.98185	-8.773293E-008	-0.0016443	7
	24	9	3984.375	6735.301	-2154.817	1	7071.599	-17.74097	2.083078E-008	-0.0015809	7
	25	9	3170.956	6919.975	-2483.765	1	7352.22	-19.74443	1.287061E-007	-0.0019926	7
	26	9	2527.573	7139.633	-2871.257	1	7695.354	-21.90789	-5.951238E-008	-0.0017239	7
	27	9	1976.103	7411.249	-3372.229	1	8142.392	-24.46624	-9.914201E-008	-0.0015779	7
	28	10	1577.524	7694.867	-3936.227	1	8643.197	-27.09153	1.876314E-008	-0.0018397	7
	29	10	1265.625	8010.246	-4555.939	1	9215.238	-29.62966	-6.850375E-008	-0.0015998	7
	30	10	998.264	8406.769	-5336.311	1	9957.41	-32.4059	2.869407E-008	-0.0022073	6
	31	11	796.875	8831.191	-6240.542	1	10813.62	-35.24685	-1.258582E-008	-0.0015039	6
	32	11	627.7902	9329.23	-7383.251	1	11897.35	-38.35846	-1.02588E-008	-0.0014672	6
	33	11	505.5147	9840.95	-8611.448	1	13076.75	-41.18795	2.902167E-008	-0.002201	6
	34	12	397.9953	10477.8	-10247.24	1	14655.72	-44.36262	1.179192E-009	-0.0017217	6
	35	12	315.5048	11176.06	-12166.91	1	16520.84	-47.4306	1.437383E-009	-0.0017232	6
	36	12	252.4038	11938.34	-14397.83	1	18703.52	-50.33528	2.160711E-009	-0.0017242	6
	37	13	198.6229	12873.8	-17311.52	1	21573.68	-53.36347	1.391278E-009	-0.0017217	6
	38	13	158.3615	13902.96	-20672.78	1	24912.97	-56.07819	1.309015E-009	-0.0017223	6
	39	13	125.558	15119.69	-24877.59	1	29111.84	-58.7103	1.233362E-009	-0.0017231	6
	40	14	100.4464	16493.51	-29832.53	1	34088.35	-61.06311	1.834084E-009	-0.0017276	6
	41	14	79.00281	18233.3	-36376.11	1	40689.98	-63.37796	9.227377E-010	-0.0017325	6
	42	14	63.3446	20547.32	-43259.21	1	47891.04	-64.59315	1.140168E-009	-0.0017289	6
	43	15	49.86702	23316.02	-53174.51	1	58061.74	-66.32346	1.74252E-009	-0.001729	6
	44	15	39.72458	26363.52	-64550.41	1	69726.54	-67.78403	1.839795E-009	-0.0017268	6
	45	15	31.6723	30459.05	-78282.42	1	83999.35	-68.7394	1.602122E-009	-0.0017307	6
	46	16	24.93351	36759.07	-95644.6	1	102465.2	-68.97675	1.177133E-009	-0.0017318	6
	47	16	19.86229	44399.75	-115329.4	1	123580.7	-68.94418	8.669293E-010	-0.0017274	5
	48	16	15.83615	53928.3	-138600.4	1	148722.3	-68.73939	7.564538E-010	-0.0017326	5
	49	17	12.40079	67619.08	-167358	1	180502.2	-67.9994	2.807325E-010	-0.0017314	5
	50	17	9.93114	85494.64	-199572.7	1	217114.3	-66.81026	2.859482E-010	-0.0017252	5
	51	18	7.944915	107193.3	-234634.8	1	257961	-65.44662	4.683982E-010	-0.0017309	5
	52	18	6.317385	135041	-275486.7	1	306804.5	-63.88633	5.464045E-010	-0.0017281	5
	53	19	5.008013	169810.8	-321119.9	1	363254.3	-62.12975	3.553923E-010	-0.0017435	5
	54	20	3.945707	213101.9	-370647.1	1	427541.4	-60.10344	7.487872E-010	-0.0017374	5
	55	21	3.158693	260326.2	-421068.1	1	495043.5	-58.27349	1.605305E-012	-0.0017211	5
	56	23	2.504006	318901.1	-476204.6	1	573121.9	-56.19087	-6.052697E-012	-0.0017323	5
	57	24	1.998082	378326.3	-533023.8	1	653639.9	-54.63387	3.690195E-010	-0.0017047	5
	58	26	1.584686	448776.9	-598300.5	1	747906.5	-53.12695	7.652673E-010	-0.0016831	5
	59	28	1.266892	518902.9	-665434.3	1	843838.2	-52.05304	6.581599E-010	-0.0017114	5
	60	30	0.999041	599379.9	-741806.8	1	953695	-51.06179	4.557189E-010	-0.0017378	5
