EXPLAIN
TAG	EISPOT
TITLE	LABEL	Potentiostatic EIS	Test &Identifier
DATE	LABEL	1/28/2020	Date
TIME	LABEL	12:07:25	Time
NOTES	NOTES	6	&Notes...
	
	
	
	
	
	
PSTAT	PSTAT	REF600-11020	Potentiostat
VDC	POTEN	0.00000E+000	T	DC &Voltage (V)
FREQINIT	QUANT	1.00000E+006	Initial Fre&q. (Hz)
FREQFINAL	QUANT	1.00000E+000	Final Fre&q. (Hz)
PTSPERDEC	QUANT	1.00000E+001	Points/&decade
VAC	QUANT	2.50000E+001	AC &Voltage (mV rms)
AREA	QUANT	1.60000E-004	&Area (cm^2)
CONDIT	TWOPARAM	F	5.00000E+000	0.00000E+000	Conditionin&g	Time(s)	E(V)
DELAY	TWOPARAM	F	5.00000E+000	0.00000E+000	Init. De&lay	Time(s)	Stab.(mV/s)
SPEED	SELECTOR	0	&Optimize for:
ZGUESS	QUANT	1.00000E+003	E&stimated Z (ohms)
OCVCURVE	TABLE	39
	Pt	T	Vf	Vm	Ach	Over
	#	s	V vs. Ref.	V	V	bits
	0	0.258333	7.21023E-002	7.21023E-002	5.78204E-004	...........
	1	0.516667	7.21031E-002	7.21407E-002	5.75804E-004	...........
	2	0.775	7.21057E-002	7.20787E-002	5.70538E-004	...........
	3	1.03333	7.21119E-002	7.22851E-002	5.74204E-004	...........
	4	1.29167	7.21305E-002	7.23402E-002	5.74704E-004	...........
	5	1.55	7.21751E-002	7.24617E-002	5.77237E-004	...........
	6	1.80833	7.22416E-002	7.21552E-002	5.75771E-004	...........
	7	2.06667	7.22914E-002	7.20406E-002	5.71338E-004	...........
	8	2.325	7.22671E-002	7.13012E-002	5.73238E-004	...........
	9	2.58333	7.21313E-002	7.15966E-002	5.75304E-004	...........
	10	2.84167	7.18941E-002	7.04578E-002	5.77338E-004	...........
	11	3.1	7.16014E-002	7.14386E-002	5.75571E-004	...........
	12	3.35833	7.13417E-002	7.17002E-002	5.80304E-004	...........
	13	3.61667	7.12384E-002	7.18634E-002	5.78371E-004	...........
	14	3.875	7.13350E-002	7.19222E-002	5.81037E-004	...........
	15	4.13333	7.15404E-002	7.19471E-002	5.75438E-004	...........
	16	4.39167	7.17383E-002	7.20735E-002	5.76537E-004	...........
	17	4.65	7.18751E-002	7.18462E-002	5.76304E-004	...........
	18	4.90833	7.19435E-002	7.18495E-002	5.77538E-004	...........
	19	5.16667	7.19557E-002	7.21164E-002	5.73438E-004	...........
	20	5.425	7.19532E-002	7.22231E-002	5.74171E-004	...........
	21	5.68333	7.19854E-002	7.21814E-002	5.73304E-004	...........
	22	5.94167	7.20550E-002	7.21575E-002	5.76671E-004	...........
	23	6.2	7.21237E-002	7.21971E-002	5.77937E-004	...........
	24	6.45833	7.21659E-002	7.22428E-002	5.72504E-004	...........
	25	6.71667	7.21870E-002	7.21716E-002	5.76304E-004	...........
	26	6.975	7.21988E-002	7.22359E-002	5.72438E-004	...........
	27	7.23333	7.22063E-002	7.22439E-002	5.78004E-004	...........
	28	7.49167	7.22138E-002	7.22488E-002	5.73971E-004	...........
	29	7.75	7.22244E-002	7.22560E-002	5.77104E-004	...........
	30	8.00833	7.22364E-002	7.22657E-002	5.75638E-004	...........
	31	8.26667	7.22472E-002	7.22713E-002	5.68304E-004	...........
	32	8.525	7.22561E-002	7.22781E-002	5.72471E-004	...........
	33	8.78333	7.22638E-002	7.22806E-002	5.72871E-004	...........
	34	9.04167	7.22705E-002	7.22873E-002	5.71938E-004	...........
	35	9.3	7.22763E-002	7.22938E-002	5.76938E-004	...........
	36	9.5583	7.22818E-002	7.23026E-002	5.75871E-004	...........
	37	9.8167	7.22876E-002	7.23067E-002	5.75137E-004	...........
	38	10.075	7.22939E-002	7.23111E-002	5.68404E-004	...........
EOC	QUANT	0.0722939	Open Circuit (V)
PSTATMODEL	IQUANT	4	Pstat Model
PSTATSECTION	LABEL	REF600-11020	Pstat Section
PSTATSERIALNO	LABEL	11020	Pstat Serial Number
CTRLMODE	IQUANT	1	Control Mode
IESTAB	IQUANT	0	I/E Stability
CASPEED	IQUANT	1	Control Amp Speed
CONVENTION	IQUANT	1	Current Convention
ICHRANGE	IQUANT	2	Ich Range
ICHRANGEMODE	TOGGLE	F	Ich Auto Range
ICHOFFSETENABLE	TOGGLE	T	Ich Offset Enable
ICHOFFSET	QUANT	0	Ich Offset (V)
ICHFILTER	IQUANT	3	Ich Filter
VCHRANGE	IQUANT	2	Vch Range
VCHRANGEMODE	TOGGLE	F	Vch Auto Range
VCHOFFSETENABLE	TOGGLE	T	Vch Offset Enable
VCHOFFSET	QUANT	0	Vch Offset (V)
VCHFILTER	IQUANT	3	Vch Filter
ACHRANGE	IQUANT	2	Ach Range
ACHOFFSETENABLE	TOGGLE	F	Ach Offset Enable
ACHOFFSET	QUANT	0	Ach Offset (V)
ACHFILTER	IQUANT	3	Ach Filter
IERANGELOWERLIMIT	IQUANT	1	I/E Range Lower Limit
IERANGEMODE	TOGGLE	F	I/E AutoRange
IERANGE	IQUANT	8	I/E Range
POSFEEDENABLE	TOGGLE	F	Positive Feedback IR Comp
POSFEEDRESISTANCE	QUANT	0	Positive Feedback Resistance (ohm)
ACHSELECT	IQUANT	0	Ach Select
CABLEID	IQUANT	14	Cable ID
DCCALDATE	LABEL	1/27/2020	DC Calibration Date
ACCALDATE	LABEL	1/27/2020	AC Calibration Date
THERMOSELECT	IQUANT	1	Thermo Select
FRAMEWORKVERSION	QUANT	6.33	Framework Version
INSTRUMENTVERSION	LABEL	3.50	Instrument Version
ZCURVE	TABLE
	Pt	Time	Freq	Zreal	Zimag	Zsig	Zmod	Zphz	Idc	Vdc	IERange
	#	s	Hz	ohm	ohm	V	ohm	°	A	V	#
	0	1	1000078	2328.299	-2017.337	1	3080.686	-40.90704	3.073546E-006	0.0732541	8
	1	1	794390.6	2735.643	-2044.813	1	3415.407	-36.77704	-5.932532E-006	0.0751074	8
	2	2	630984.4	3154.66	-2011.199	1	3741.23	-32.51884	-8.590252E-008	0.0742256	8
	3	2	501234.4	3470.275	-1938.722	1	3975.104	-29.19058	8.096623E-007	0.0738051	8
	4	2	398109.4	3845.943	-1811.224	1	4251.095	-25.21781	-1.347272E-006	0.0740661	8
	5	3	316265.6	4105.016	-1648.115	1	4423.51	-21.87487	4.34396E-006	0.0730562	8
	6	3	251203.1	4363.563	-1496.767	1	4613.133	-18.93273	-1.500291E-006	0.0741764	8
	7	3	199546.9	4541.304	-1372.029	1	4744.039	-16.81074	-3.21963E-006	0.0745101	8
	8	4	158578.1	4658.323	-1244.389	1	4821.667	-14.95632	3.458726E-007	0.0736774	8
	9	4	125953.1	4861.784	-1069.458	1	4978.02	-12.40591	-8.281287E-007	0.0760584	7
	10	4	100078.1	4966.519	-1020.794	1	5070.338	-11.61454	-4.617585E-008	0.0738617	7
	11	5	79453.13	5070.228	-971.95	1	5162.547	-10.85181	-2.212255E-008	0.0738082	7
	12	5	63140.62	5163.009	-947.9827	1	5249.318	-10.40422	8.268858E-008	0.0736427	7
	13	5	50203.12	5251.647	-942.7506	1	5335.596	-10.17707	-7.026765E-009	0.0738524	7
	14	6	39890.62	5339.792	-961.523	1	5425.671	-10.20772	6.811472E-008	0.0737866	7
	15	6	31640.63	5430.229	-1000.675	1	5521.66	-10.44125	2.695751E-010	0.0738356	7
	16	6	25171.88	5524.633	-1062.588	1	5625.893	-10.88711	6.696457E-008	0.0737874	7
	17	7	20015.62	5624.295	-1147.749	1	5740.211	-11.53398	-5.310179E-008	0.0739091	7
	18	7	15890.62	5733.184	-1259.981	1	5870.004	-12.39484	-1.582794E-008	0.0739384	7
	19	7	12609.37	5853.597	-1399.808	1	6018.643	-13.44894	-2.01926E-008	0.0737916	7
	20	8	10078.13	5976.517	-1568.806	1	6178.989	-14.70804	-4.327597E-008	0.0738295	7
	21	8	8015.625	6119.279	-1777.864	1	6372.313	-16.20042	-2.111248E-008	0.0737878	7
	22	8	6328.125	6287.117	-2030.696	1	6606.933	-17.9001	4.336115E-008	0.0736623	7
	23	8	5015.625	6475.551	-2339.547	1	6885.219	-19.86424	-1.513576E-010	0.0738254	7
	24	9	3984.375	6685.146	-2699.629	1	7209.659	-21.99008	-1.2962E-008	0.0738404	7
	25	9	3170.956	6923.157	-3124.785	1	7595.682	-24.29216	4.428532E-008	0.0736581	7
	26	9	2527.573	7196.454	-3626.696	1	8058.652	-26.74609	4.482385E-008	0.0736568	7
	27	10	1976.103	7539.741	-4282.014	1	8670.833	-29.59336	-5.713273E-008	0.0738765	7
	28	10	1577.524	7921.747	-4995.311	1	9365.212	-32.23479	-2.2421E-009	0.0737377	7
	29	10	1265.625	8338.78	-5797.115	1	10155.87	-34.807	1.740777E-008	0.0734904	6
	30	11	998.264	8872.007	-6836.065	1	11200.19	-37.615	-3.880396E-009	0.0738621	6
	31	11	796.875	9474.305	-7997.118	1	12398.24	-40.16721	-6.484145E-009	0.0739437	6
	32	11	627.7902	10219.68	-9435.03	1	13909.05	-42.71387	5.682504E-009	0.0738348	6
	33	12	505.5147	11022.69	-10977.26	1	15556.35	-44.88168	3.517327E-009	0.0736994	6
	34	12	397.9953	12063.9	-12954.13	1	17701.62	-47.03792	4.147466E-010	0.0738062	6
	35	12	315.5048	13259.67	-15206.41	1	20175.57	-48.91225	2.714401E-010	0.0738035	6
	36	13	252.4038	14597.24	-17727.86	1	22964.24	-50.53173	2.991007E-010	0.0738004	6
	37	13	198.6229	16260.02	-20900.6	1	26480.62	-52.11819	7.075536E-010	0.073801	6
	38	13	158.3615	18084.15	-24418.17	1	30385.58	-53.47628	4.136241E-010	0.0737966	6
	39	14	125.558	20250.54	-28679.52	1	35108.4	-54.77418	7.071395E-010	0.073797	6
	40	14	100.4464	22638.23	-33556.41	1	40478.66	-55.99513	1.564663E-009	0.0737974	6
	41	14	79.00281	25547.02	-39735.04	1	47239.01	-57.26165	1.048934E-009	0.0737961	6
	42	15	63.3446	29370.25	-45778.97	1	54390.49	-57.31713	9.076163E-010	0.073796	6
	43	15	49.86702	33494.06	-54622.3	1	64073.77	-58.48363	4.190377E-010	0.0737915	6
	44	15	39.72458	37876.68	-64654.6	1	74932.37	-59.6369	5.227822E-010	0.0737966	6
	45	16	31.6723	43536.26	-76347.38	1	87888.16	-60.30652	3.049553E-010	0.0737939	6
	46	16	24.93351	50928.6	-90181.18	1	103568.2	-60.545	-1.370343E-010	0.0737901	5
	47	16	19.86229	59152.96	-106089.1	1	121465.9	-60.85691	-2.148032E-010	0.0737899	5
	48	17	15.83615	69981.24	-124000.1	1	142384.6	-60.56115	-9.443994E-010	0.073791	5
	49	17	12.40079	82990.83	-148202.1	1	169856.8	-60.75187	3.705591E-010	0.0737875	5
	50	17	9.93114	96569.1	-172418.3	1	197620	-60.74743	-3.654505E-010	0.0737861	5
	51	18	7.944915	114062.6	-200222.8	1	230433.1	-60.33076	-8.191657E-010	0.0737898	5
	52	19	6.317385	136543.1	-233348.3	1	270361.7	-59.6661	-4.543613E-010	0.0738011	5
	53	19	5.008013	163322.3	-271372.5	1	316728.9	-58.95887	-2.131448E-010	0.0737818	5
	54	20	3.945707	196820.8	-315027.1	1	371457.3	-58.00392	1.808773E-010	0.0737759	5
	55	22	3.158693	232263.4	-360865.7	1	429150.7	-57.23352	2.160948E-010	0.0737932	5
	56	23	2.504006	276767.2	-413311.9	1	497420.2	-56.19244	-3.531465E-011	0.0737858	5
	57	25	1.998082	324975.6	-469739.3	1	571195.3	-55.3237	1.421032E-011	0.0737696	5
	58	26	1.584686	383926.7	-533130.4	1	656983.8	-54.24096	1.673231E-010	0.0738096	5
	59	28	1.266892	447410.3	-603005.2	1	750860.3	-53.42579	2.042869E-010	0.073814	5
	60	31	0.999041	541370.1	-687641.4	1	875175.6	-51.78715	-2.636891E-010	0.0738007	5
