EXPLAIN
TAG	EISPOT
TITLE	LABEL	Potentiostatic EIS	Test &Identifier
DATE	LABEL	2/25/2020	Date
TIME	LABEL	14:10:03	Time
NOTES	NOTES	1	&Notes...
	
PSTAT	PSTAT	REF600-11020	Potentiostat
VDC	POTEN	0.00000E+000	T	DC &Voltage (V)
FREQINIT	QUANT	1.00000E+006	Initial Fre&q. (Hz)
FREQFINAL	QUANT	1.00000E+000	Final Fre&q. (Hz)
PTSPERDEC	QUANT	1.00000E+001	Points/&decade
VAC	QUANT	2.50000E+001	AC &Voltage (mV rms)
AREA	QUANT	1.60000E-004	&Area (cm^2)
CONDIT	TWOPARAM	F	1.50000E+001	0.00000E+000	Conditionin&g	Time(s)	E(V)
DELAY	TWOPARAM	F	1.00000E+002	0.00000E+000	Init. De&lay	Time(s)	Stab.(mV/s)
SPEED	SELECTOR	1	&Optimize for:
ZGUESS	QUANT	1.00000E+003	E&stimated Z (ohms)
OCVCURVE	TABLE	39
	Pt	T	Vf	Vm	Ach	Over
	#	s	V vs. Ref.	V	V	bits
	0	0.258333	1.95022E-001	1.95022E-001	5.64871E-004	...........
	1	0.516667	1.95235E-001	2.06190E-001	5.69538E-004	...........
	2	0.775	1.98664E-001	3.27699E-001	5.71504E-004	.........v.
	3	1.03333	2.17001E-001	5.27689E-001	5.73838E-004	...........
	4	1.29167	2.66092E-001	4.94367E-001	5.73571E-004	...........
	5	1.55	3.44648E-001	5.73691E-001	5.70071E-004	...........
	6	1.80833	4.27471E-001	4.79747E-001	5.66771E-004	...........
	7	2.06667	4.85713E-001	4.44383E-001	5.72104E-004	...........
	8	2.325	5.04964E-001	3.98003E-001	5.75671E-004	...........
	9	2.58333	4.88443E-001	3.39618E-001	5.69171E-004	...........
	10	2.84167	4.48949E-001	2.63989E-001	5.69071E-004	...........
	11	3.1	3.96972E-001	2.05575E-001	5.68671E-004	...........
	12	3.35833	3.38532E-001	1.83081E-001	5.68004E-004	...........
	13	3.61667	2.80519E-001	1.65413E-001	5.66538E-004	...........
	14	3.875	2.31091E-001	1.52186E-001	5.68138E-004	...........
	15	4.13333	1.94718E-001	1.39130E-001	5.67238E-004	...........
	16	4.39167	1.70272E-001	1.35115E-001	5.61004E-004	...........
	17	4.65	1.54177E-001	1.31320E-001	5.65138E-004	...........
	18	4.90833	1.43414E-001	1.21777E-001	5.66504E-004	...........
	19	5.16667	1.35756E-001	1.17271E-001	5.64438E-004	...........
	20	5.425	1.29452E-001	1.12777E-001	5.70171E-004	...........
	21	5.68333	1.23663E-001	1.09637E-001	5.68904E-004	...........
	22	5.94167	1.18366E-001	1.03792E-001	5.67604E-004	...........
	23	6.2	1.12494E-001	4.34955E-002	5.71038E-004	...........
	24	6.45833	1.00975E-001	-3.43912E-002	5.69171E-004	...........
	25	6.71667	7.79233E-002	1.95680E-002	5.70304E-004	...........
	26	6.975	4.75612E-002	2.20676E-002	5.71438E-004	...........
	27	7.23333	2.38023E-002	2.33231E-002	5.68871E-004	...........
	28	7.49167	1.46772E-002	3.28142E-002	5.71538E-004	.........v.
	29	7.75	1.76536E-002	9.13951E-002	5.76604E-004	...........
	30	8.00833	2.98077E-002	1.16512E-001	5.79071E-004	...........
	31	8.26667	5.07356E-002	1.21229E-001	5.73004E-004	...........
	32	8.525	7.62464E-002	1.14398E-001	5.72171E-004	...........
	33	8.78333	9.80643E-002	1.10488E-001	5.68704E-004	...........
	34	9.04167	1.10556E-001	1.07520E-001	5.69038E-004	...........
	35	9.3	1.13951E-001	9.69656E-002	5.68304E-004	...........
	36	9.5583	1.11418E-001	8.91220E-002	5.74238E-004	...........
	37	9.8167	1.05846E-001	9.13299E-002	5.72838E-004	...........
	38	10.075	9.93856E-002	8.07173E-002	5.77704E-004	...........
EOC	QUANT	0.0993856	Open Circuit (V)
PSTATMODEL	IQUANT	4	Pstat Model
PSTATSECTION	LABEL	REF600-11020	Pstat Section
PSTATSERIALNO	LABEL	11020	Pstat Serial Number
CTRLMODE	IQUANT	1	Control Mode
IESTAB	IQUANT	0	I/E Stability
CASPEED	IQUANT	1	Control Amp Speed
CONVENTION	IQUANT	1	Current Convention
ICHRANGE	IQUANT	2	Ich Range
ICHRANGEMODE	TOGGLE	F	Ich Auto Range
ICHOFFSETENABLE	TOGGLE	T	Ich Offset Enable
ICHOFFSET	QUANT	0	Ich Offset (V)
ICHFILTER	IQUANT	3	Ich Filter
VCHRANGE	IQUANT	2	Vch Range
VCHRANGEMODE	TOGGLE	F	Vch Auto Range
VCHOFFSETENABLE	TOGGLE	T	Vch Offset Enable
VCHOFFSET	QUANT	0	Vch Offset (V)
VCHFILTER	IQUANT	3	Vch Filter
ACHRANGE	IQUANT	2	Ach Range
ACHOFFSETENABLE	TOGGLE	F	Ach Offset Enable
ACHOFFSET	QUANT	0	Ach Offset (V)
ACHFILTER	IQUANT	3	Ach Filter
IERANGELOWERLIMIT	IQUANT	1	I/E Range Lower Limit
IERANGEMODE	TOGGLE	F	I/E AutoRange
IERANGE	IQUANT	8	I/E Range
POSFEEDENABLE	TOGGLE	F	Positive Feedback IR Comp
POSFEEDRESISTANCE	QUANT	0	Positive Feedback Resistance (ohm)
ACHSELECT	IQUANT	0	Ach Select
CABLEID	IQUANT	14	Cable ID
DCCALDATE	LABEL	1/27/2020	DC Calibration Date
ACCALDATE	LABEL	1/27/2020	AC Calibration Date
THERMOSELECT	IQUANT	1	Thermo Select
FRAMEWORKVERSION	QUANT	6.33	Framework Version
INSTRUMENTVERSION	LABEL	3.50	Instrument Version
ZCURVE	TABLE
	Pt	Time	Freq	Zreal	Zimag	Zsig	Zmod	Zphz	Idc	Vdc	IERange
	#	s	Hz	ohm	ohm	V	ohm	°	A	V	#
	0	2	1000078	614.6171	-5713.57	1	5746.532	-83.86022	2.918944E-006	0.1016759	8
	1	3	794390.6	709.0974	-7081.565	1	7116.979	-84.28187	1.587149E-007	0.1013007	8
	2	4	630984.4	804.1793	-8806.539	1	8843.18	-84.78244	9.809636E-008	0.1014251	8
	3	6	501234.4	934.2125	-10977.78	1	11017.46	-85.13583	-4.990008E-008	0.1012602	8
	4	8	398109.4	1095.423	-13739.96	1	13783.55	-85.44172	9.198309E-007	0.1009536	8
	5	9	316265.6	1381.377	-17090.55	1	17146.29	-85.379	-3.581589E-007	0.1011755	8
	6	11	251203.1	1589.779	-21363.59	1	21422.66	-85.74416	1.074967E-006	0.1008931	8
	7	12	199546.9	2054.891	-26580.82	1	26660.13	-85.57941	8.520953E-007	0.1008925	8
	8	14	158578.1	2250.811	-33295.15	1	33371.14	-86.13259	-4.878586E-008	0.1010791	8
	9	15	125953.1	3501.054	-41577.57	1	41724.71	-85.18674	1.703977E-007	0.1006049	7
	10	17	100078.1	4155.59	-51927.74	1	52093.75	-85.42458	2.701391E-008	0.1009294	7
	11	18	79453.13	5237.619	-64541.98	1	64754.15	-85.36058	5.088592E-008	0.1009723	7
	12	20	63140.62	6559.188	-80581.74	1	80848.25	-85.3465	7.813102E-008	0.1008908	7
	13	21	50203.12	8488.079	-100197.3	1	100556.1	-85.15782	5.316669E-008	0.1009624	7
	14	23	39890.62	11153.01	-124649.3	1	125147.3	-84.88707	3.763495E-008	0.100936	7
	15	24	31640.63	15346.27	-154906.7	1	155665	-84.34229	-1.842403E-008	0.1009994	7
	16	26	25171.88	20471.13	-192673.1	1	193757.6	-83.93519	6.695944E-009	0.1009349	7
	17	27	20015.62	27142.99	-237599.1	1	239144.5	-83.48286	-4.666533E-009	0.1010082	7
	18	29	15890.62	31976.08	-294134	1	295867	-83.79559	-4.917045E-009	0.1010231	7
	19	30	12609.37	43865.05	-364802.5	1	367430.3	-83.14349	1.837744E-009	0.100871	6
	20	32	10078.13	58948.15	-446740.9	1	450613.3	-82.48316	-1.819987E-009	0.1009362	6
	21	33	8015.625	74223.34	-550147.1	1	555131.5	-82.31631	-3.393094E-009	0.1010485	6
	22	35	6328.125	93875.22	-679400.1	1	685855	-82.13304	-1.84199E-009	0.1010789	6
	23	37	5015.625	115045.1	-836881.6	1	844752.2	-82.17268	5.138445E-009	0.100995	6
	24	38	3984.375	148696.2	-1020224	1	1031003	-81.70761	-2.333717E-009	0.1009371	6
	25	40	3170.956	169015	-1284365	1	1295438	-82.50328	6.765177E-010	0.1010484	6
	26	42	2527.573	223344.8	-1571536	1	1587327	-81.91136	-5.966672E-009	0.1010201	6
	27	43	1976.103	257971.4	-1963052	1	1979929	-82.51346	4.874841E-009	0.100988	6
	28	45	1577.524	286204	-2364595	1	2381853	-83.09865	5.63893E-009	0.1008496	6
	29	47	1265.625	417575.6	-2976490	1	3005638	-82.01402	1.242019E-009	0.1008101	5
	30	48	998.264	555812.2	-3663824	1	3705743	-81.37384	3.874829E-011	0.1009743	5
	31	50	796.875	703156.1	-4581052	1	4634703	-81.27364	-1.93638E-010	0.1010625	5
	32	51	627.7902	802755.6	-5598661	1	5655919	-81.84035	-2.376457E-010	0.1010412	5
	33	52	505.5147	976764	-6786378	1	6856311	-81.80966	1.207378E-010	0.1010261	5
	34	54	397.9953	1172471	-8349676	1	8431593	-82.00673	2.268309E-010	0.1009863	5
	35	55	315.5048	1777625	-1.046529E+007	1	1.061519E+007	-80.35979	-2.704118E-010	0.1009824	5
	36	57	252.4038	1587291	-1.245232E+007	1	1.255308E+007	-82.73571	4.759465E-010	0.1009782	5
	37	58	198.6229	1713714	-1.696979E+007	1	1.70561E+007	-84.23347	5.669654E-011	0.1009845	5
	38	60	158.3615	1978209	-1.973646E+007	1	1.983535E+007	-84.27629	-1.533231E-010	0.10098	5
	39	61	125.558	144629.1	-2.488937E+007	1	2.488979E+007	-89.66707	5.758207E-011	0.100926	4
	40	63	100.4464	5708617	-3.222797E+007	1	3.272966E+007	-79.95525	-6.061394E-011	0.1009249	4
	41	65	79.00281	4276773	-2.178324E+007	1	2.21991E+007	-78.89222	2.088895E-010	0.1009213	4
	42	66	63.3446	6057149	8319273	1	1.029074E+007	53.94215	-2.045704E-010	0.1009225	4
	43	68	49.86702	-1.967414E+007	-4.10187E+007	1	4.549292E+007	-115.6242	3.940381E-011	0.1009202	4
	44	70	39.72458	2.688999E+007	-3.851167E+007	1	4.697042E+007	-55.07611	-6.484625E-011	0.1009233	4
	45	71	31.6723	6.792653E+007	9.288953E+007	1	1.15076E+008	53.82344	2.436221E-010	0.1009217	4
	46	73	24.93351	-5284583	-9.73427E+007	1	9.748604E+007	-93.10744	-1.376772E-011	0.1009219	4
	47	75	19.86229	9.866239E+007	-1.049944E+008	1	1.440767E+008	-46.78085	-1.527007E-011	0.1009308	4
	48	77	15.83615	2.222399E+007	-8950964	1	2.395883E+007	-21.93767	-5.948783E-010	0.1009219	4
	49	78	12.40079	-1.474154E+007	-2.455234E+007	1	2.863792E+007	-120.9811	5.566177E-010	0.100922	4
	50	80	9.93114	-4.339757E+008	9.364424E+007	1	4.439642E+008	167.8233	-7.80538E-011	0.1009166	4
	51	82	7.944915	-1.340919E+008	-1.999937E+008	1	2.407864E+008	-123.8411	5.476665E-011	0.1009154	4
	52	84	6.317385	1.652676E+008	-3.256582E+008	1	3.65194E+008	-63.09275	1.444697E-011	0.1009287	4
	53	87	5.008013	3.452678E+008	-2.296172E+008	1	4.146492E+008	-33.62553	-1.544691E-012	0.1009324	4
	54	90	3.945707	3.156871E+008	6.441564E+007	1	3.221921E+008	11.53282	-4.932672E-011	0.1009274	4
	55	94	3.158693	3.568417E+008	-4.32243E+008	1	5.605087E+008	-50.45835	1.779354E-011	0.1009382	4
	56	98	2.504006	6.590233E+008	-7.042963E+008	1	9.645439E+008	-46.90197	2.754714E-011	0.1009794	3
	57	102	1.998082	8.715888E+008	-7.181665E+008	1	1.12935E+009	-39.48764	2.634601E-011	0.1009481	3
	58	107	1.584686	9.541065E+008	-7.633668E+008	1	1.221903E+009	-38.6628	3.193157E-011	0.1010185	3
	59	113	1.266892	1.861109E+009	-7.644167E+008	1	2.011979E+009	-22.32951	8.330629E-012	0.1009799	2
	60	121	0.999041	2.073072E+009	-1.202314E+009	1	2.396494E+009	-30.11234	6.208859E-012	0.1009874	2
