EXPLAIN
TAG	EISPOT
TITLE	LABEL	Potentiostatic EIS	Test &Identifier
DATE	LABEL	2/13/2020	Date
TIME	LABEL	14:15:59	Time
NOTES	NOTES	1	&Notes...
	
PSTAT	PSTAT	REF600-11020	Potentiostat
VDC	POTEN	0.00000E+000	T	DC &Voltage (V)
FREQINIT	QUANT	1.00000E+006	Initial Fre&q. (Hz)
FREQFINAL	QUANT	1.00000E+000	Final Fre&q. (Hz)
PTSPERDEC	QUANT	1.00000E+001	Points/&decade
VAC	QUANT	2.50000E+001	AC &Voltage (mV rms)
AREA	QUANT	5.00000E-004	&Area (cm^2)
CONDIT	TWOPARAM	F	1.50000E+001	0.00000E+000	Conditionin&g	Time(s)	E(V)
DELAY	TWOPARAM	F	1.00000E+002	0.00000E+000	Init. De&lay	Time(s)	Stab.(mV/s)
SPEED	SELECTOR	1	&Optimize for:
ZGUESS	QUANT	1.00000E+003	E&stimated Z (ohms)
OCVCURVE	TABLE	39
	Pt	T	Vf	Vm	Ach	Over
	#	s	V vs. Ref.	V	V	bits
	0	0.258333	4.70704E-002	4.70704E-002	5.58404E-004	...........
	1	0.516667	4.70583E-002	4.64340E-002	5.53205E-004	...........
	2	0.775	4.69926E-002	4.63003E-002	5.52604E-004	...........
	3	1.03333	4.68382E-002	4.62577E-002	5.51505E-004	...........
	4	1.29167	4.66264E-002	4.61920E-002	5.57838E-004	...........
	5	1.55	4.64267E-002	4.59628E-002	5.57038E-004	...........
	6	1.80833	4.62634E-002	4.56089E-002	5.54171E-004	...........
	7	2.06667	4.61046E-002	4.55417E-002	5.57404E-004	...........
	8	2.325	4.59256E-002	4.54836E-002	5.55804E-004	...........
	9	2.58333	4.57481E-002	4.55005E-002	5.44971E-004	...........
	10	2.84167	4.56127E-002	4.55590E-002	5.51705E-004	...........
	11	3.1	4.55393E-002	4.55388E-002	5.53071E-004	...........
	12	3.35833	4.55173E-002	4.54995E-002	5.56838E-004	...........
	13	3.61667	4.55190E-002	4.55354E-002	5.51838E-004	...........
	14	3.875	4.55239E-002	4.55645E-002	5.56304E-004	...........
	15	4.13333	4.55297E-002	4.55946E-002	5.52471E-004	...........
	16	4.39167	4.55374E-002	4.53576E-002	5.54838E-004	...........
	17	4.65	4.55288E-002	4.51980E-002	5.60971E-004	...........
	18	4.90833	4.54762E-002	4.51042E-002	5.59504E-004	...........
	19	5.16667	4.53769E-002	4.50898E-002	5.58738E-004	...........
	20	5.425	4.52622E-002	4.50580E-002	5.56538E-004	...........
	21	5.68333	4.51667E-002	4.50603E-002	5.60038E-004	...........
	22	5.94167	4.51060E-002	4.51075E-002	5.61471E-004	...........
	23	6.2	4.50819E-002	4.52593E-002	5.56338E-004	...........
	24	6.45833	4.50929E-002	4.51539E-002	5.56304E-004	...........
	25	6.71667	4.51257E-002	4.51265E-002	5.61471E-004	...........
	26	6.975	4.51533E-002	4.51420E-002	5.57471E-004	...........
	27	7.23333	4.51592E-002	4.50976E-002	5.65638E-004	...........
	28	7.49167	4.51469E-002	4.50322E-002	5.56938E-004	...........
	29	7.75	4.51216E-002	4.49521E-002	5.54938E-004	...........
	30	8.00833	4.50827E-002	4.49289E-002	5.60404E-004	...........
	31	8.26667	4.50322E-002	4.48468E-002	5.63271E-004	...........
	32	8.525	4.49763E-002	4.48212E-002	5.60504E-004	...........
	33	8.78333	4.49214E-002	4.48018E-002	5.59238E-004	...........
	34	9.04167	4.48733E-002	4.48134E-002	5.60871E-004	...........
	35	9.3	4.48382E-002	4.48073E-002	5.61538E-004	...........
	36	9.5583	4.48166E-002	4.47331E-002	5.59604E-004	...........
	37	9.8167	4.47983E-002	4.46116E-002	5.65904E-004	...........
	38	10.075	4.47677E-002	4.46229E-002	5.55104E-004	...........
EOC	QUANT	0.0447677	Open Circuit (V)
PSTATMODEL	IQUANT	4	Pstat Model
PSTATSECTION	LABEL	REF600-11020	Pstat Section
PSTATSERIALNO	LABEL	11020	Pstat Serial Number
CTRLMODE	IQUANT	1	Control Mode
IESTAB	IQUANT	0	I/E Stability
CASPEED	IQUANT	1	Control Amp Speed
CONVENTION	IQUANT	1	Current Convention
ICHRANGE	IQUANT	2	Ich Range
ICHRANGEMODE	TOGGLE	F	Ich Auto Range
ICHOFFSETENABLE	TOGGLE	T	Ich Offset Enable
ICHOFFSET	QUANT	0	Ich Offset (V)
ICHFILTER	IQUANT	3	Ich Filter
VCHRANGE	IQUANT	2	Vch Range
VCHRANGEMODE	TOGGLE	F	Vch Auto Range
VCHOFFSETENABLE	TOGGLE	T	Vch Offset Enable
VCHOFFSET	QUANT	0	Vch Offset (V)
VCHFILTER	IQUANT	3	Vch Filter
ACHRANGE	IQUANT	2	Ach Range
ACHOFFSETENABLE	TOGGLE	F	Ach Offset Enable
ACHOFFSET	QUANT	0	Ach Offset (V)
ACHFILTER	IQUANT	3	Ach Filter
IERANGELOWERLIMIT	IQUANT	1	I/E Range Lower Limit
IERANGEMODE	TOGGLE	F	I/E AutoRange
IERANGE	IQUANT	7	I/E Range
POSFEEDENABLE	TOGGLE	F	Positive Feedback IR Comp
POSFEEDRESISTANCE	QUANT	0	Positive Feedback Resistance (ohm)
ACHSELECT	IQUANT	0	Ach Select
CABLEID	IQUANT	14	Cable ID
DCCALDATE	LABEL	1/27/2020	DC Calibration Date
ACCALDATE	LABEL	1/27/2020	AC Calibration Date
THERMOSELECT	IQUANT	1	Thermo Select
FRAMEWORKVERSION	QUANT	6.33	Framework Version
INSTRUMENTVERSION	LABEL	3.50	Instrument Version
ZCURVE	TABLE
	Pt	Time	Freq	Zreal	Zimag	Zsig	Zmod	Zphz	Idc	Vdc	IERange
	#	s	Hz	ohm	ohm	V	ohm	°	A	V	#
	0	2	1000078	1530.225	-777.5551	1	1716.444	-26.93655	-1.479087E-006	0.0473786	8
	1	3	794390.6	1658.541	-767.3635	1	1827.459	-24.82874	1.564901E-008	0.0469683	8
	2	4	630984.4	1769.417	-761.4375	1	1926.298	-23.28377	-2.7034E-007	0.0465252	8
	3	6	501234.4	1885.394	-738.8582	1	2025	-21.39948	-9.55487E-008	0.0464354	8
	4	7	398109.4	1995.51	-726.2933	1	2123.573	-19.99967	-1.745861E-007	0.0463929	8
	5	8	316265.6	2092.898	-701.6453	1	2207.38	-18.53376	-2.537525E-006	0.0469113	8
	6	10	251203.1	2187.768	-687.4583	1	2293.235	-17.44419	9.72337E-007	0.0460766	8
	7	11	199546.9	2277.697	-686.3242	1	2378.853	-16.7688	2.238033E-006	0.0458021	8
	8	12	158578.1	2364.784	-677.0147	1	2459.787	-15.9759	-3.419508E-006	0.0470734	8
	9	14	125953.1	2459.196	-657.2015	1	2545.498	-14.96221	4.356141E-007	0.0453954	7
	10	15	100078.1	2542.59	-669.2086	1	2629.183	-14.7458	-3.296683E-009	0.0463451	7
	11	16	79453.13	2621.282	-693.9308	1	2711.579	-14.82775	-3.090052E-008	0.0463138	7
	12	18	63140.62	2702.528	-726.5543	1	2798.488	-15.04774	1.714993E-008	0.0462718	7
	13	19	50203.12	2786.885	-767.8123	1	2890.72	-15.40337	-2.319615E-008	0.0463054	7
	14	20	39890.62	2874.176	-817.4843	1	2988.171	-15.87702	-3.66011E-008	0.0463425	7
	15	22	31640.63	2964.479	-880.9775	1	3092.613	-16.55078	-1.013442E-009	0.0462961	7
	16	23	25171.88	3058.129	-958.714	1	3204.885	-17.40606	6.24921E-008	0.046162	7
	17	24	20015.62	3156.225	-1056.572	1	3328.378	-18.50839	1.602794E-008	0.0462855	7
	18	26	15890.62	3265.241	-1177.293	1	3470.996	-19.82693	7.924434E-008	0.0461363	7
	19	27	12609.37	3385.853	-1325.025	1	3635.89	-21.37247	4.0709E-010	0.0462951	7
	20	28	10078.13	3521.355	-1498.601	1	3826.976	-23.05339	-2.232417E-008	0.0462977	7
	21	30	8015.625	3682.223	-1707.444	1	4058.834	-24.87712	-1.653273E-008	0.0462813	7
	22	31	6328.125	3879.926	-1959.589	1	4346.702	-26.79644	8.027888E-008	0.046137	7
	23	33	5015.625	4115.973	-2243.751	1	4687.819	-28.59624	-3.558377E-008	0.046354	7
	24	34	3984.375	4396.274	-2556.397	1	5085.508	-30.17764	-2.383222E-010	0.0462887	7
	25	35	3170.956	4727.471	-2895.554	1	5543.755	-31.48728	1.741876E-008	0.0462737	7
	26	37	2527.573	5108.455	-3247.507	1	6053.314	-32.44462	6.414543E-008	0.0461585	7
	27	38	1976.103	5572.561	-3644.676	1	6658.611	-33.18628	-2.465562E-008	0.0462772	7
	28	39	1577.524	6042.137	-4026.86	1	7261.062	-33.68199	-3.647334E-008	0.0463575	7
	29	41	1265.625	6514.71	-4411.337	1	7867.741	-34.10329	6.369578E-008	0.0461567	7
	30	42	998.264	7024.538	-4870.182	1	8547.679	-34.73396	-2.060034E-008	0.0463011	7
	31	43	796.875	7494.521	-5368.857	1	9219.137	-35.61671	3.905211E-008	0.0462776	7
	32	45	627.7902	7968.625	-6010.703	1	9981.36	-37.02711	1.846357E-009	0.0461963	6
	33	46	505.5147	8371.75	-6751.112	1	10754.71	-38.88326	8.316138E-009	0.046105	6
	34	47	397.9953	8809.188	-7798.097	1	11764.87	-41.516	1.969448E-009	0.0462704	6
	35	49	315.5048	9256.587	-9107.878	1	12986.06	-44.53605	1.154524E-009	0.0462727	6
	36	50	252.4038	9727.28	-10700.35	1	14460.9	-47.72724	1.11425E-009	0.046272	6
	37	51	198.6229	10305.27	-12855.61	1	16476.2	-51.28376	1.394357E-009	0.0462676	6
	38	53	158.3615	10967.99	-15398.83	1	18905.58	-54.5392	1.351242E-009	0.0462723	6
	39	54	125.558	11804.22	-18625.92	1	22051.41	-57.63542	1.683303E-009	0.0462661	6
	40	55	100.4464	12812.34	-22447.01	1	25846.17	-60.28307	1.395218E-009	0.0462598	6
	41	57	79.00281	14209.65	-27441.79	1	30902.52	-62.62439	1.854507E-009	0.0462547	6
	42	58	63.3446	15552.92	-32991.86	1	36474.05	-64.76002	1.14796E-009	0.046259	6
	43	59	49.86702	18166.8	-40310.99	1	44215.48	-65.74052	1.796166E-009	0.0462618	6
	44	61	39.72458	20659.3	-48770.67	1	52965.89	-67.04244	1.596338E-009	0.0462677	6
	45	62	31.6723	24224.32	-58895.47	1	63682.76	-67.64213	1.650612E-009	0.0462635	6
	46	63	24.93351	28776.48	-71530.34	1	77101.72	-68.0852	1.216461E-009	0.0462601	6
	47	65	19.86229	34422.6	-85860.59	1	92503.81	-68.15353	1.445223E-009	0.0462714	6
	48	66	15.83615	40990.31	-102610.7	1	110495	-68.22457	6.977316E-010	0.0462625	5
	49	67	12.40079	51086.56	-124766.7	1	134820.5	-67.73302	4.572029E-010	0.0462632	5
	50	69	9.93114	62569.29	-146894.9	1	159665.4	-66.92862	4.445976E-010	0.0462695	5
	51	70	7.944915	76176.41	-173374.3	1	189371.3	-66.28049	7.015459E-010	0.0462587	5
	52	72	6.317385	93831.59	-204412.2	1	224919.3	-65.34339	2.568906E-010	0.0462544	5
	53	74	5.008013	115544.2	-240699.6	1	266995.8	-64.35736	1.01024E-010	0.0462599	5
	54	76	3.945707	142515	-282652.1	1	316548.2	-63.24246	2.613521E-010	0.0462655	5
	55	79	3.158693	172003.1	-326884.3	1	369375.7	-62.24712	4.054306E-010	0.0462873	5
	56	82	2.504006	208739.2	-379241	1	432892.4	-61.17104	-1.173173E-010	0.0462624	5
	57	85	1.998082	249296.3	-434596.8	1	501021.9	-60.16027	2.714999E-010	0.0462254	5
	58	88	1.584686	296214.7	-501275	1	582254.1	-59.4202	5.32381E-011	0.0462298	5
	59	92	1.266892	347598.3	-571205.9	1	668655.9	-58.67806	2.672216E-010	0.0462287	5
	60	96	0.999041	407528.3	-659457.3	1	775218.1	-58.28496	1.405676E-011	0.0462701	5
