EXPLAIN
TAG	EISPOT
TITLE	LABEL	Potentiostatic EIS	Test &Identifier
DATE	LABEL	2/28/2020	Date
TIME	LABEL	15:11:12	Time
NOTES	NOTES	1	&Notes...
	
PSTAT	PSTAT	REF600-11020	Potentiostat
VDC	POTEN	0.00000E+000	T	DC &Voltage (V)
FREQINIT	QUANT	1.00000E+006	Initial Fre&q. (Hz)
FREQFINAL	QUANT	1.00000E+000	Final Fre&q. (Hz)
PTSPERDEC	QUANT	1.00000E+001	Points/&decade
VAC	QUANT	2.50000E+001	AC &Voltage (mV rms)
AREA	QUANT	1.60000E-004	&Area (cm^2)
CONDIT	TWOPARAM	F	1.50000E+001	0.00000E+000	Conditionin&g	Time(s)	E(V)
DELAY	TWOPARAM	F	1.00000E+002	0.00000E+000	Init. De&lay	Time(s)	Stab.(mV/s)
SPEED	SELECTOR	1	&Optimize for:
ZGUESS	QUANT	1.00000E+003	E&stimated Z (ohms)
OCVCURVE	TABLE	39
	Pt	T	Vf	Vm	Ach	Over
	#	s	V vs. Ref.	V	V	bits
	0	0.258333	-4.75772E-002	-4.75772E-002	5.58230E-004	...........
	1	0.516667	-4.75763E-002	-4.75270E-002	5.60897E-004	...........
	2	0.775	-4.75704E-002	-4.74798E-002	5.63897E-004	...........
	3	1.03333	-4.75535E-002	-4.74208E-002	5.65430E-004	...........
	4	1.29167	-4.75221E-002	-4.73573E-002	5.67230E-004	...........
	5	1.55	-4.74779E-002	-4.73297E-002	5.57564E-004	...........
	6	1.80833	-4.74270E-002	-4.72714E-002	5.55630E-004	...........
	7	2.06667	-4.73757E-002	-4.72358E-002	5.59930E-004	...........
	8	2.325	-4.73268E-002	-4.71818E-002	5.58664E-004	...........
	9	2.58333	-4.72800E-002	-4.71366E-002	5.62564E-004	...........
	10	2.84167	-4.72349E-002	-4.71506E-002	5.62064E-004	...........
	11	3.1	-4.71991E-002	-4.73479E-002	5.64063E-004	...........
	12	3.35833	-4.71871E-002	-4.71568E-002	5.65797E-004	...........
	13	3.61667	-4.71983E-002	-4.72023E-002	5.66397E-004	...........
	14	3.875	-4.72127E-002	-4.72821E-002	5.67363E-004	...........
	15	4.13333	-4.72139E-002	-4.68802E-002	5.58730E-004	...........
	16	4.39167	-4.71765E-002	-4.63570E-002	5.63997E-004	...........
	17	4.65	-4.70582E-002	-4.65590E-002	5.64797E-004	...........
	18	4.90833	-4.68708E-002	-4.67235E-002	5.62997E-004	...........
	19	5.16667	-4.67065E-002	-4.67427E-002	5.60464E-004	...........
	20	5.425	-4.66414E-002	-4.68862E-002	5.59797E-004	...........
	21	5.68333	-4.66729E-002	-4.70364E-002	5.60064E-004	...........
	22	5.94167	-4.67542E-002	-4.67033E-002	5.64197E-004	...........
	23	6.2	-4.68247E-002	-4.66526E-002	5.60364E-004	...........
	24	6.45833	-4.68335E-002	-4.65779E-002	5.56864E-004	...........
	25	6.71667	-4.67732E-002	-4.63554E-002	5.56864E-004	...........
	26	6.975	-4.66543E-002	-4.55036E-002	5.59530E-004	...........
	27	7.23333	-4.65160E-002	-4.87209E-002	5.65497E-004	...........
	28	7.49167	-4.65268E-002	-4.76248E-002	5.63563E-004	...........
	29	7.75	-4.67888E-002	-4.56797E-002	5.63797E-004	...........
	30	8.00833	-4.70391E-002	-4.62812E-002	5.64197E-004	...........
	31	8.26667	-4.69690E-002	-4.61254E-002	5.57630E-004	...........
	32	8.525	-4.66684E-002	-4.68019E-002	5.64263E-004	...........
	33	8.78333	-4.64293E-002	-4.63898E-002	5.57597E-004	...........
	34	9.04167	-4.63643E-002	-4.61861E-002	5.54830E-004	...........
	35	9.3	-4.63791E-002	-4.62794E-002	5.54097E-004	...........
	36	9.5583	-4.63724E-002	-4.64835E-002	5.64197E-004	...........
	37	9.8167	-4.63428E-002	-4.60360E-002	5.57830E-004	...........
	38	10.075	-4.63075E-002	-4.59907E-002	5.59964E-004	...........
EOC	QUANT	-0.0463075	Open Circuit (V)
PSTATMODEL	IQUANT	4	Pstat Model
PSTATSECTION	LABEL	REF600-11020	Pstat Section
PSTATSERIALNO	LABEL	11020	Pstat Serial Number
CTRLMODE	IQUANT	1	Control Mode
IESTAB	IQUANT	0	I/E Stability
CASPEED	IQUANT	1	Control Amp Speed
CONVENTION	IQUANT	1	Current Convention
ICHRANGE	IQUANT	2	Ich Range
ICHRANGEMODE	TOGGLE	F	Ich Auto Range
ICHOFFSETENABLE	TOGGLE	T	Ich Offset Enable
ICHOFFSET	QUANT	0	Ich Offset (V)
ICHFILTER	IQUANT	3	Ich Filter
VCHRANGE	IQUANT	2	Vch Range
VCHRANGEMODE	TOGGLE	F	Vch Auto Range
VCHOFFSETENABLE	TOGGLE	T	Vch Offset Enable
VCHOFFSET	QUANT	0	Vch Offset (V)
VCHFILTER	IQUANT	3	Vch Filter
ACHRANGE	IQUANT	2	Ach Range
ACHOFFSETENABLE	TOGGLE	F	Ach Offset Enable
ACHOFFSET	QUANT	0	Ach Offset (V)
ACHFILTER	IQUANT	3	Ach Filter
IERANGELOWERLIMIT	IQUANT	1	I/E Range Lower Limit
IERANGEMODE	TOGGLE	F	I/E AutoRange
IERANGE	IQUANT	7	I/E Range
POSFEEDENABLE	TOGGLE	F	Positive Feedback IR Comp
POSFEEDRESISTANCE	QUANT	0	Positive Feedback Resistance (ohm)
ACHSELECT	IQUANT	0	Ach Select
CABLEID	IQUANT	14	Cable ID
DCCALDATE	LABEL	2/27/2020	DC Calibration Date
ACCALDATE	LABEL	2/27/2020	AC Calibration Date
THERMOSELECT	IQUANT	1	Thermo Select
FRAMEWORKVERSION	QUANT	6.33	Framework Version
INSTRUMENTVERSION	LABEL	3.50	Instrument Version
ZCURVE	TABLE
	Pt	Time	Freq	Zreal	Zimag	Zsig	Zmod	Zphz	Idc	Vdc	IERange
	#	s	Hz	ohm	ohm	V	ohm	°	A	V	#
	0	1	1000078	2251.326	-2194.118	1	3143.664	-44.2627	-1.865027E-007	-0.0437239	8
	1	3	794390.6	2631.043	-2294.302	1	3490.875	-41.08884	-2.956716E-007	-0.0440865	8
	2	4	630984.4	3072.181	-2358.524	1	3873.103	-37.51357	-1.565096E-006	-0.0441103	8
	3	5	501234.4	3518.264	-2369.646	1	4241.863	-33.96133	-1.180886E-006	-0.0442378	8
	4	7	398109.4	3954.78	-2321.861	1	4585.992	-30.4173	9.649319E-007	-0.0447801	8
	5	8	316265.6	4368.966	-2247.31	1	4913.071	-27.2204	1.909832E-006	-0.0449493	8
	6	10	251203.1	4738.36	-2121.431	1	5191.583	-24.11874	1.91424E-006	-0.0449719	8
	7	11	199546.9	5064.126	-1961.97	1	5430.902	-21.17762	8.06096E-008	-0.0447173	8
	8	12	158578.1	5393.577	-1795.917	1	5684.715	-18.41638	-2.149485E-006	-0.0441446	8
	9	14	125953.1	5669.353	-1569.806	1	5882.674	-15.47706	-1.999408E-007	-0.0444353	7
	10	15	100078.1	5853.903	-1435.564	1	6027.357	-13.77884	-1.947657E-008	-0.0447367	7
	11	16	79453.13	5988.614	-1373.772	1	6144.164	-12.91997	2.193722E-007	-0.044697	8
	12	18	63140.62	6167.234	-1225.608	1	6287.836	-11.23989	-5.415262E-009	-0.0447704	7
	13	20	50203.12	6293.309	-1153.639	1	6398.173	-10.38767	-4.112017E-008	-0.044722	7
	14	21	39890.62	6405.135	-1107.111	1	6500.112	-9.80653	-4.288588E-008	-0.0446999	7
	15	22	31640.63	6505.712	-1081.637	1	6595.016	-9.439627	2.902673E-008	-0.0446866	7
	16	24	25171.88	6604.585	-1089.434	1	6693.834	-9.366657	-4.037648E-008	-0.0447045	7
	17	25	20015.62	6702.218	-1120.937	1	6795.309	-9.494767	5.852574E-008	-0.044845	7
	18	26	15890.62	6803.977	-1181.348	1	6905.771	-9.84985	-6.703622E-009	-0.0446742	7
	19	28	12609.37	6913.274	-1258.568	1	7026.902	-10.31776	3.321621E-008	-0.0446944	7
	20	29	10078.13	7023.813	-1388.241	1	7159.689	-11.18029	4.58845E-008	-0.0448573	7
	21	30	8015.625	7152.77	-1539.687	1	7316.608	-12.14798	-4.894703E-008	-0.0446445	7
	22	32	6328.125	7292.694	-1736.032	1	7496.479	-13.39009	-3.780971E-008	-0.0447337	7
	23	33	5015.625	7452.246	-1969.351	1	7708.068	-14.80275	-3.867093E-008	-0.0447304	7
	24	34	3984.375	7625.549	-2252.746	1	7951.344	-16.45824	-5.200437E-009	-0.0447783	7
	25	36	3170.956	7822.611	-2583.541	1	8238.199	-18.27662	-4.67972E-008	-0.0446857	7
	26	37	2527.573	8034.641	-2979.229	1	8569.204	-20.34468	1.087246E-007	-0.0449077	7
	27	38	1976.103	8281.75	-3490.363	1	8987.214	-22.85311	-4.618087E-008	-0.0446896	7
	28	40	1577.524	8564.506	-4050.49	1	9474.029	-25.3113	-5.047231E-009	-0.0445936	6
	29	41	1265.625	8841.917	-4723.783	1	10024.65	-28.1133	-4.08131E-009	-0.0445575	6
	30	43	998.264	9180.485	-5598.594	1	10752.93	-31.37636	-7.615436E-009	-0.0445795	6
	31	44	796.875	9541.44	-6609.085	1	11606.85	-34.70926	-4.44262E-009	-0.0446745	6
	32	45	627.7902	9967.81	-7914.208	1	12727.61	-38.44874	9.492643E-009	-0.044762	6
	33	47	505.5147	10417.99	-9352.527	1	14000.15	-41.91523	9.675728E-009	-0.0447633	6
	34	48	397.9953	10999.87	-11296.83	1	15767.55	-45.76306	4.866396E-010	-0.0446718	6
	35	49	315.5048	11668.69	-13605.79	1	17924.17	-49.38274	-1.073288E-010	-0.0446712	6
	36	51	252.4038	12437.16	-16304.94	1	20506.92	-52.66417	2.494806E-010	-0.044675	6
	37	52	198.6229	13432.92	-19837.15	1	23957.38	-55.89573	1.569006E-010	-0.0446833	6
	38	53	158.3615	14587.67	-23902.19	1	28002.05	-58.604	-2.641449E-010	-0.0446818	6
	39	55	125.558	16027.71	-28954.37	1	33094.45	-61.03324	2.666765E-010	-0.0446832	6
	40	56	100.4464	17740.19	-34783.39	1	39046.11	-62.97756	1.843435E-010	-0.044683	6
	41	57	79.00281	19948.3	-42549.75	1	46993.79	-64.88174	-2.426856E-010	-0.0446858	6
	42	59	63.3446	22909.7	-51224.92	1	56114.59	-65.90402	-3.739112E-010	-0.0446868	6
	43	60	49.86702	25696.34	-62255.73	1	67350.41	-67.57139	-1.585733E-010	-0.0446883	6
	44	62	39.72458	30038.06	-74940.91	1	80736.77	-68.15794	1.053267E-010	-0.0446763	6
	45	63	31.6723	35033.53	-90452.43	1	97000	-68.8279	1.861744E-010	-0.0446611	6
	46	64	24.93351	42166.59	-109991	1	117796.6	-69.02496	-4.437459E-010	-0.0446688	5
	47	66	19.86229	50806.93	-132516.9	1	141922.7	-69.02319	-3.227371E-010	-0.0446692	5
	48	67	15.83615	61277.39	-159401	1	170773.5	-68.9721	6.168278E-010	-0.0446716	5
	49	68	12.40079	77111.23	-194457.9	1	209188.9	-68.36946	-4.974456E-010	-0.0446715	5
	50	70	9.93114	95462.9	-229423.8	1	248492.3	-67.40789	2.692241E-010	-0.0446732	5
	51	71	7.944915	118011.3	-270734.7	1	295337	-66.44796	-5.314936E-010	-0.0446673	5
	52	73	6.317385	149858.3	-319442.6	1	352847.1	-64.86758	-3.384088E-010	-0.0446656	5
	53	75	5.008013	189190.5	-374635.6	1	419696.2	-63.20629	-7.136779E-011	-0.044679	5
	54	78	3.945707	238472.9	-436133.5	1	497073.2	-61.33065	1.618316E-010	-0.0446703	5
	55	80	3.158693	294277.5	-497788.1	1	578266.6	-59.40969	1.678146E-011	-0.0446716	5
	56	84	2.504006	361012.9	-565742.6	1	671114.8	-57.45715	2.184539E-010	-0.0446841	5
	57	86	1.998082	432723.5	-634685.1	1	768163.3	-55.71413	-1.287455E-010	-0.0446509	5
	58	89	1.584686	517618	-711726.6	1	880047.3	-53.9727	1.036934E-010	-0.0446341	5
	59	93	1.266892	602813.6	-792063.2	1	995363	-52.72641	-1.314412E-010	-0.0446696	4
	60	97	0.999041	693968.6	-882439	1	1122627	-51.81775	3.012399E-010	-0.0446829	4
