EXPLAIN
TAG	EISPOT
TITLE	LABEL	Potentiostatic EIS	Test &Identifier
DATE	LABEL	6/19/2020	Date
TIME	LABEL	16:56:26	Time
NOTES	NOTES	1	&Notes...
	
PSTAT	PSTAT	REF600-10037	Potentiostat
VDC	POTEN	0.00000E+000	T	DC &Voltage (V)
FREQINIT	QUANT	1.00000E+006	Initial Fre&q. (Hz)
FREQFINAL	QUANT	1.00000E+000	Final Fre&q. (Hz)
PTSPERDEC	QUANT	1.00000E+001	Points/&decade
VAC	QUANT	1.00000E+002	AC &Voltage (mV rms)
AREA	QUANT	2.50000E-001	&Area (cm^2)
CONDIT	TWOPARAM	F	5.00000E+000	0.00000E+000	Conditionin&g	Time(s)	E(V)
DELAY	TWOPARAM	F	5.00000E+000	0.00000E+000	Init. De&lay	Time(s)	Stab.(mV/s)
SPEED	SELECTOR	0	&Optimize for:
ZGUESS	QUANT	1.00000E+003	E&stimated Z (ohms)
OCVCURVE	TABLE	39
	Pt	T	Vf	Vm	Ach	Over
	#	s	V vs. Ref.	V	V	bits
	0	0.258333	6.17590E-002	6.17590E-002	5.22354E-004	...........
	1	0.516667	6.17576E-002	6.16882E-002	5.23654E-004	...........
	2	0.775	6.17494E-002	6.16235E-002	5.21788E-004	...........
	3	1.03333	6.17263E-002	6.15660E-002	5.18021E-004	...........
	4	1.29167	6.16855E-002	6.15071E-002	5.21221E-004	...........
	5	1.55	6.16320E-002	6.14442E-002	5.15388E-004	...........
	6	1.80833	6.15729E-002	6.14039E-002	5.18688E-004	...........
	7	2.06667	6.15139E-002	6.13526E-002	5.20887E-004	...........
	8	2.325	6.14581E-002	6.13061E-002	5.17154E-004	...........
	9	2.58333	6.14063E-002	6.12619E-002	5.18521E-004	...........
	10	2.84167	6.13576E-002	6.12200E-002	5.15321E-004	...........
	11	3.1	6.13114E-002	6.11852E-002	5.16588E-004	...........
	12	3.35833	6.12677E-002	6.11509E-002	5.17621E-004	...........
	13	3.61667	6.12270E-002	6.11128E-002	5.15188E-004	...........
	14	3.875	6.11889E-002	6.10846E-002	5.14954E-004	...........
	15	4.13333	6.11529E-002	6.10431E-002	5.20087E-004	...........
	16	4.39167	6.11181E-002	6.10198E-002	5.15921E-004	...........
	17	4.65	6.10843E-002	6.09884E-002	5.14721E-004	...........
	18	4.90833	6.10517E-002	6.09573E-002	5.16721E-004	...........
	19	5.16667	6.10207E-002	6.09369E-002	5.16088E-004	...........
	20	5.425	6.09913E-002	6.09086E-002	5.17654E-004	...........
	21	5.68333	6.09634E-002	6.08813E-002	5.21587E-004	...........
	22	5.94167	6.09368E-002	6.08639E-002	5.21721E-004	...........
	23	6.2	6.09114E-002	6.08464E-002	5.19954E-004	...........
	24	6.45833	6.08876E-002	6.08143E-002	5.18054E-004	...........
	25	6.71667	6.08651E-002	6.07939E-002	5.24554E-004	...........
	26	6.975	6.08426E-002	6.07759E-002	5.20054E-004	...........
	27	7.23333	6.08200E-002	6.07576E-002	5.24521E-004	...........
	28	7.49167	6.07981E-002	6.07310E-002	5.23821E-004	...........
	29	7.75	6.07771E-002	6.07169E-002	5.22454E-004	...........
	30	8.00833	6.07567E-002	6.07010E-002	5.21188E-004	...........
	31	8.26667	6.07373E-002	6.06920E-002	5.20287E-004	...........
	32	8.525	6.07195E-002	6.06561E-002	5.21654E-004	...........
	33	8.78333	6.07022E-002	6.06395E-002	5.21487E-004	...........
	34	9.04167	6.06836E-002	6.06276E-002	5.20488E-004	...........
	35	9.3	6.06641E-002	6.06171E-002	5.24721E-004	...........
	36	9.5583	6.06459E-002	6.06026E-002	5.20254E-004	...........
	37	9.8167	6.06301E-002	6.05807E-002	5.27187E-004	...........
	38	10.075	6.06153E-002	6.05612E-002	5.31221E-004	...........
EOC	QUANT	0.0606153	Open Circuit (V)
PSTATMODEL	IQUANT	4	Pstat Model
PSTATSECTION	LABEL	REF600-10037	Pstat Section
PSTATSERIALNO	LABEL	10037	Pstat Serial Number
CTRLMODE	IQUANT	1	Control Mode
IESTAB	IQUANT	0	I/E Stability
CASPEED	IQUANT	1	Control Amp Speed
CONVENTION	IQUANT	1	Current Convention
ICHRANGE	IQUANT	2	Ich Range
ICHRANGEMODE	TOGGLE	F	Ich Auto Range
ICHOFFSETENABLE	TOGGLE	T	Ich Offset Enable
ICHOFFSET	QUANT	0	Ich Offset (V)
ICHFILTER	IQUANT	3	Ich Filter
VCHRANGE	IQUANT	2	Vch Range
VCHRANGEMODE	TOGGLE	F	Vch Auto Range
VCHOFFSETENABLE	TOGGLE	T	Vch Offset Enable
VCHOFFSET	QUANT	0	Vch Offset (V)
VCHFILTER	IQUANT	3	Vch Filter
ACHRANGE	IQUANT	2	Ach Range
ACHOFFSETENABLE	TOGGLE	F	Ach Offset Enable
ACHOFFSET	QUANT	0	Ach Offset (V)
ACHFILTER	IQUANT	3	Ach Filter
IERANGELOWERLIMIT	IQUANT	1	I/E Range Lower Limit
IERANGEMODE	TOGGLE	F	I/E AutoRange
IERANGE	IQUANT	8	I/E Range
POSFEEDENABLE	TOGGLE	F	Positive Feedback IR Comp
POSFEEDRESISTANCE	QUANT	0	Positive Feedback Resistance (ohm)
ACHSELECT	IQUANT	0	Ach Select
CABLEID	IQUANT	14	Cable ID
DCCALDATE	LABEL	6/8/2020	DC Calibration Date
ACCALDATE	LABEL	6/8/2020	AC Calibration Date
THERMOSELECT	IQUANT	1	Thermo Select
FRAMEWORKVERSION	QUANT	6.33	Framework Version
INSTRUMENTVERSION	LABEL	3.50	Instrument Version
ZCURVE	TABLE
	Pt	Time	Freq	Zreal	Zimag	Zsig	Zmod	Zphz	Idc	Vdc	IERange
	#	s	Hz	ohm	ohm	V	ohm	°	A	V	#
	0	2	1000078	1728.18	-1991.72	1	2636.959	-49.05241	1.544396E-007	0.0694397	8
	1	3	794390.6	2039.182	-2186.964	1	2990.163	-47.00273	8.456391E-008	0.0691442	8
	2	3	630984.4	2376.829	-2375.696	1	3360.543	-44.98634	1.485108E-007	0.069058	8
	3	3	501234.4	2737.583	-2566.469	1	3752.482	-43.15222	6.00646E-008	0.068927	8
	4	4	398109.4	3125.354	-2760.701	1	4170.049	-41.45494	9.800187E-008	0.0689245	8
	5	4	316265.6	3544.23	-2973.301	1	4626.239	-39.99373	7.187603E-008	0.0688746	8
	6	4	251203.1	4014.348	-3183.439	1	5123.405	-38.41495	5.252065E-008	0.0688978	8
	7	5	199546.9	4533.264	-3390.258	1	5660.771	-36.79144	8.572562E-008	0.0689751	8
	8	5	158578.1	5112.788	-3576.526	1	6239.562	-34.97377	9.124714E-008	0.0689813	8
	9	5	125953.1	5882.766	-3639.505	1	6917.582	-31.74393	4.257902E-009	0.0689816	7
	10	6	100078.1	6559.937	-3706.235	1	7534.517	-29.46559	1.373931E-008	0.0689574	7
	11	6	79453.13	7244.037	-3734.912	1	8150.193	-27.27492	-1.611232E-009	0.0689235	7
	12	6	63140.62	7930.257	-3702.202	1	8751.873	-25.02529	9.432488E-009	0.0689029	7
	13	6	50203.12	8559.675	-3558.827	1	9270.021	-22.57591	-3.436494E-009	0.0688963	7
	14	7	39890.62	9152.077	-3377.881	1	9755.54	-20.25828	-8.229336E-009	0.0688857	7
	15	7	31640.63	9680.05	-3163.065	1	10183.73	-18.09539	1.625992E-008	0.068884	7
	16	7	25171.88	10133.31	-2933.307	1	10549.32	-16.14424	-6.025934E-009	0.06889	7
	17	8	20015.62	10563.91	-2745.146	1	10914.76	-14.56675	8.422014E-010	0.0688707	7
	18	8	15890.62	10846.69	-2513.986	1	11134.21	-13.04929	1.078732E-008	0.0688896	7
	19	8	12609.37	11131.56	-2351.94	1	11377.31	-11.93032	-3.409919E-009	0.0688778	7
	20	9	10078.13	11354.85	-2225.654	1	11570.92	-11.08989	-6.833815E-009	0.0688791	7
	21	9	8015.625	11554.69	-2147.591	1	11752.58	-10.52903	-2.525459E-009	0.0688858	7
	22	9	6328.125	11729.98	-2121.18	1	11920.23	-10.25026	1.506601E-008	0.068885	7
	23	10	5015.625	11911.95	-2167.218	1	12107.49	-10.31141	-3.309913E-009	0.0688726	7
	24	10	3984.375	12040.42	-2260.194	1	12250.72	-10.63168	1.249375E-008	0.068886	7
	25	10	3170.956	12196.5	-2442.399	1	12438.64	-11.32393	1.230469E-008	0.0688801	7
	26	11	2527.573	12407.76	-2707.333	1	12699.69	-12.30883	2.263736E-008	0.068868	7
	27	11	1976.103	12501.04	-3076.703	1	12874.08	-13.8266	-1.113907E-008	0.0688753	7
	28	11	1577.524	12620.91	-3519.845	1	13102.55	-15.58325	1.365329E-008	0.0688833	7
	29	12	1265.625	12783.48	-4088.673	1	13421.42	-17.73638	8.644788E-009	0.0688842	7
	30	12	998.264	12988.45	-4867.566	1	13870.58	-20.54405	1.884445E-008	0.0688803	7
	31	12	796.875	13208.24	-5797.264	1	14424.49	-23.69728	1.125139E-008	0.0688839	7
	32	12	627.7902	13477.43	-6989.952	1	15182.25	-27.41312	-1.022723E-008	0.0688791	7
	33	13	505.5147	13754.7	-8296.063	1	16062.89	-31.09602	-1.07688E-009	0.0688844	7
	34	13	397.9953	14136.28	-10095.19	1	17370.88	-35.53191	3.957096E-009	0.068907	7
	35	13	315.5048	14697.55	-12211.62	1	19108.68	-39.72186	6.882995E-009	0.0688934	7
	36	14	252.4038	15137.27	-14711.5	1	21108.42	-44.18277	2.32733E-009	0.0689022	7
	37	14	198.6229	15904.3	-17967.35	1	23995.26	-48.48547	3.99747E-009	0.0689025	7
	38	14	158.3615	16874.38	-21723.2	1	27507.13	-52.16027	4.622802E-009	0.0689016	7
	39	15	125.558	18184.49	-26385.06	1	32044.46	-55.42553	5.310541E-009	0.0689122	7
	40	15	100.4464	19845.35	-31794.56	1	37479.75	-58.02865	5.771166E-009	0.0688986	7
	41	15	79.00281	22220.44	-38821.49	1	44730.93	-60.21427	-3.376771E-010	0.0688962	6
	42	16	63.3446	25077.2	-46591.32	1	52911.4	-61.70919	-7.167819E-010	0.068894	6
	43	16	49.86702	29136.69	-56640.33	1	63695.16	-62.77799	-8.646185E-010	0.068896	6
	44	16	39.72458	34149.36	-67541.82	1	75684.05	-63.1787	3.066939E-009	0.0688828	6
	45	17	31.6723	40796.65	-81174.77	1	90849.94	-63.31691	2.912668E-009	0.0688944	6
	46	17	24.93351	49990.36	-97344.1	1	109429.9	-62.81755	-1.783438E-009	0.0688982	6
	47	17	19.86229	61660.21	-115272.3	1	130727.5	-61.85727	-8.647596E-009	0.0603321	6
	48	18	15.83615	75902.38	-134519.5	1	154456	-60.56622	-6.326209E-009	0.0603276	6
	49	18	12.40079	94776.68	-156945.9	1	183343	-58.87301	-5.240663E-009	0.0603273	6
	50	18	9.93114	115406.8	-178455.8	1	212521	-57.10938	-4.425201E-009	0.0603262	6
	51	19	7.944915	139288.8	-200823	1	244399.8	-55.25521	-3.876853E-009	0.0603302	6
	52	19	6.317385	166547.7	-224106.4	1	279216.4	-53.38161	-2.149166E-009	0.0603315	6
	53	20	5.008013	196309.8	-248736.9	1	316871.6	-51.71855	-1.584042E-009	0.0603265	6
	54	21	3.945707	228368	-275767.1	1	358049.5	-50.3712	-1.098513E-009	0.0603253	6
	55	22	3.158693	258908.3	-303487.4	1	398921.2	-49.53216	-1.195523E-009	0.0603324	5
	56	24	2.504006	292950.1	-337119.5	1	446619.9	-49.01001	-9.816282E-010	0.0603258	5
	57	25	1.998082	325535.9	-375410.6	1	496897.1	-49.06993	-7.364626E-010	0.0603288	5
	58	27	1.584686	361259.8	-423656.1	1	556770.2	-49.54513	-5.058789E-010	0.0603273	5
	59	30	1.266892	397810.7	-479991.4	1	623414.1	-50.3485	-3.634114E-010	0.0603312	5
	60	33	0.999041	439871.1	-553165.1	1	706737.7	-51.50864	-3.850898E-010	0.0603286	5
