EXPLAIN
TAG	EISPOT
TITLE	LABEL	Potentiostatic EIS	Test &Identifier
DATE	LABEL	5/26/2020	Date
TIME	LABEL	18:35:16	Time
NOTES	NOTES	1	&Notes...
	
PSTAT	PSTAT	REF600-11020	Potentiostat
VDC	POTEN	0.00000E+000	T	DC &Voltage (V)
FREQINIT	QUANT	1.00000E+006	Initial Fre&q. (Hz)
FREQFINAL	QUANT	1.00000E+000	Final Fre&q. (Hz)
PTSPERDEC	QUANT	1.00000E+001	Points/&decade
VAC	QUANT	2.50000E+001	AC &Voltage (mV rms)
AREA	QUANT	5.00000E-004	&Area (cm^2)
CONDIT	TWOPARAM	F	5.00000E+000	0.00000E+000	Conditionin&g	Time(s)	E(V)
DELAY	TWOPARAM	T	3.00000E+000	0.00000E+000	Init. De&lay	Time(s)	Stab.(mV/s)
SPEED	SELECTOR	0	&Optimize for:
ZGUESS	QUANT	1.00000E+003	E&stimated Z (ohms)
OCVCURVE	TABLE	12
	Pt	T	Vf	Vm	Ach	Over
	#	s	V vs. Ref.	V	V	bits
	0	0.258333	8.22762E-002	8.22762E-002	5.92563E-004	...........
	1	0.516667	8.22754E-002	8.22348E-002	5.89363E-004	...........
	2	0.775	8.22706E-002	8.21953E-002	5.90363E-004	...........
	3	1.03333	8.22568E-002	8.21594E-002	5.90863E-004	...........
	4	1.29167	8.22324E-002	8.21246E-002	5.90296E-004	...........
	5	1.55	8.22002E-002	8.20923E-002	5.89430E-004	...........
	6	1.80833	8.21649E-002	8.20651E-002	5.90063E-004	...........
	7	2.06667	8.21303E-002	8.20369E-002	5.93396E-004	...........
	8	2.325	8.20979E-002	8.20141E-002	5.90630E-004	...........
	9	2.58333	8.20684E-002	8.19921E-002	5.89630E-004	...........
	10	2.84167	8.20416E-002	8.19726E-002	5.91763E-004	...........
	11	3.1	8.20173E-002	8.19502E-002	5.92496E-004	...........
EOC	QUANT	0.0820173	Open Circuit (V)
PSTATMODEL	IQUANT	4	Pstat Model
PSTATSECTION	LABEL	REF600-11020	Pstat Section
PSTATSERIALNO	LABEL	11020	Pstat Serial Number
CTRLMODE	IQUANT	1	Control Mode
IESTAB	IQUANT	0	I/E Stability
CASPEED	IQUANT	1	Control Amp Speed
CONVENTION	IQUANT	1	Current Convention
ICHRANGE	IQUANT	2	Ich Range
ICHRANGEMODE	TOGGLE	F	Ich Auto Range
ICHOFFSETENABLE	TOGGLE	T	Ich Offset Enable
ICHOFFSET	QUANT	0	Ich Offset (V)
ICHFILTER	IQUANT	3	Ich Filter
VCHRANGE	IQUANT	2	Vch Range
VCHRANGEMODE	TOGGLE	F	Vch Auto Range
VCHOFFSETENABLE	TOGGLE	T	Vch Offset Enable
VCHOFFSET	QUANT	0	Vch Offset (V)
VCHFILTER	IQUANT	3	Vch Filter
ACHRANGE	IQUANT	2	Ach Range
ACHOFFSETENABLE	TOGGLE	F	Ach Offset Enable
ACHOFFSET	QUANT	0	Ach Offset (V)
ACHFILTER	IQUANT	3	Ach Filter
IERANGELOWERLIMIT	IQUANT	1	I/E Range Lower Limit
IERANGEMODE	TOGGLE	F	I/E AutoRange
IERANGE	IQUANT	8	I/E Range
POSFEEDENABLE	TOGGLE	F	Positive Feedback IR Comp
POSFEEDRESISTANCE	QUANT	0	Positive Feedback Resistance (ohm)
ACHSELECT	IQUANT	0	Ach Select
CABLEID	IQUANT	14	Cable ID
DCCALDATE	LABEL	2/27/2020	DC Calibration Date
ACCALDATE	LABEL	2/27/2020	AC Calibration Date
THERMOSELECT	IQUANT	1	Thermo Select
FRAMEWORKVERSION	QUANT	6.33	Framework Version
INSTRUMENTVERSION	LABEL	3.50	Instrument Version
ZCURVE	TABLE
	Pt	Time	Freq	Zreal	Zimag	Zsig	Zmod	Zphz	Idc	Vdc	IERange
	#	s	Hz	ohm	ohm	V	ohm	°	A	V	#
	0	1	1000078	2202.135	-1911.467	1	2916.009	-40.95818	4.898104E-008	0.0843967	8
	1	1	794390.6	2544.482	-1984.88	1	3227.094	-37.9568	6.034605E-008	0.0840521	8
	2	2	630984.4	2892.477	-2025.955	1	3531.418	-35.00825	2.403933E-008	0.0839189	8
	3	2	501234.4	3237.716	-2046.977	1	3830.525	-32.30225	5.817382E-008	0.0837905	8
	4	2	398109.4	3579.1	-2048.589	1	4123.915	-29.78576	5.198624E-008	0.0837301	8
	5	3	316265.6	3912.635	-2030.782	1	4408.264	-27.43075	5.293046E-008	0.0837057	8
	6	3	251203.1	4238.462	-1999.98	1	4686.628	-25.26096	5.413898E-008	0.0836931	8
	7	3	199546.9	4550.725	-1960.204	1	4954.947	-23.30374	5.575808E-008	0.0836874	8
	8	4	158578.1	4851	-1904.49	1	5211.457	-21.43485	6.174614E-008	0.0836885	8
	9	4	125953.1	5194.792	-1774.293	1	5489.442	-18.85772	5.771108E-009	0.0836299	7
	10	4	100078.1	5446.602	-1713.133	1	5709.667	-17.46006	2.18421E-009	0.0836157	7
	11	5	79453.13	5701.195	-1657.698	1	5937.305	-16.21249	3.784419E-009	0.083608	7
	12	5	63140.62	5937.825	-1597.632	1	6149	-15.05937	3.715474E-009	0.0836043	7
	13	5	50203.12	6156.911	-1539.791	1	6346.535	-14.04118	2.850827E-009	0.0836044	7
	14	6	39890.62	6361.909	-1486.86	1	6533.349	-13.15464	3.029124E-009	0.0835922	7
	15	6	31640.63	6553.622	-1443.208	1	6710.648	-12.41919	2.980839E-009	0.0835928	7
	16	6	25171.88	6733.179	-1413.44	1	6879.936	-11.85548	3.154457E-009	0.0835985	7
	17	6	20015.62	6903.292	-1395.468	1	7042.923	-11.42807	3.186947E-009	0.0835994	7
	18	7	15890.62	7068.555	-1394.266	1	7204.752	-11.1583	3.710312E-009	0.0835993	7
	19	7	12609.37	7230.172	-1411.074	1	7366.581	-11.0433	3.468877E-009	0.0835946	7
	20	7	10078.13	7386.771	-1446.093	1	7526.989	-11.07659	4.300557E-009	0.0835978	7
	21	8	8015.625	7541.72	-1501.193	1	7689.676	-11.25768	3.423552E-009	0.0835894	7
	22	8	6328.125	7705.286	-1585.471	1	7866.712	-11.62713	3.830937E-009	0.0835897	7
	23	8	5015.625	7870.781	-1697.756	1	8051.806	-12.17241	3.887377E-009	0.0835916	7
	24	9	3984.375	8036.304	-1838.955	1	8244.024	-12.88913	4.361333E-009	0.083598	7
	25	9	3170.956	8207.788	-2018.515	1	8452.348	-13.81638	4.497297E-009	0.0835966	7
	26	9	2527.573	8382.575	-2239.962	1	8676.692	-14.96082	4.999557E-009	0.0835942	7
	27	10	1976.103	8580.899	-2535.972	1	8947.792	-16.46435	3.819233E-009	0.0835861	7
	28	10	1577.524	8779.642	-2860.547	1	9233.896	-18.04643	2.017309E-010	0.0836386	6
	29	10	1265.625	8980.05	-3271.119	1	9557.28	-20.01492	-4.384819E-012	0.0836335	6
	30	11	998.264	9199.96	-3819.249	1	9961.22	-22.54517	2.546617E-010	0.0836372	6
	31	11	796.875	9429.393	-4464.326	1	10432.82	-25.33512	-3.781964E-010	0.0836334	6
	32	11	627.7902	9688.65	-5311.979	1	11049.3	-28.73456	-2.624022E-010	0.083633	6
	33	12	505.5147	9958.57	-6264.306	1	11764.97	-32.17141	-3.283447E-010	0.0836378	6
	34	12	397.9953	10301.68	-7561.788	1	12779.09	-36.27995	5.509165E-010	0.0836568	6
	35	12	315.5048	10697.43	-9122.676	1	14059.1	-40.45725	5.815087E-010	0.0836558	6
	36	12	252.4038	11151.65	-10962.38	1	15637.55	-44.50961	5.329009E-010	0.0836529	6
	37	13	198.6229	11746.88	-13386.65	1	17809.87	-48.73282	5.692422E-010	0.0836608	6
	38	13	158.3615	12440.21	-16197.29	1	20423.29	-52.4742	5.924062E-010	0.0836536	6
	39	13	125.558	13318.16	-19711.4	1	23788.93	-55.95477	6.866773E-010	0.0836557	6
	40	14	100.4464	14366.21	-23817.96	1	27815.16	-58.90302	5.99585E-010	0.0836527	6
	41	14	79.00281	15778.48	-29209.13	1	33198.4	-61.62252	4.558504E-010	0.0836516	6
	42	14	63.3446	17404.33	-35241.6	1	39304.98	-63.71719	3.593228E-010	0.0836518	6
	43	15	49.86702	19639.44	-43187.89	1	47443.67	-65.54661	4.985553E-010	0.0836464	6
	44	15	39.72458	22365.29	-52375.27	1	56950.63	-66.87655	6.413325E-010	0.0836509	6
	45	16	31.6723	25851.98	-63424.29	1	68490.63	-67.82401	7.540411E-010	0.0836516	6
	46	16	24.93351	30673.35	-77498.41	1	83347.81	-68.40667	5.930285E-010	0.0836496	6
	47	16	19.86229	36707.18	-93586.03	1	100527.4	-68.58344	1.176243E-009	0.0836537	6
	48	16	15.83615	44624.77	-112509.3	1	121036	-68.36515	-8.442764E-010	0.0836511	5
	49	17	12.40079	55839.8	-136536.4	1	147513.7	-67.75674	-6.918022E-010	0.0836573	5
	50	17	9.93114	69022.27	-161743.9	1	175855.5	-66.89021	-9.00729E-010	0.0836556	5
	51	17	7.944915	85578.59	-190746.4	1	209064.3	-65.83656	-1.249264E-010	0.0836555	5
	52	18	6.317385	106773.7	-224146.9	1	248279	-64.52892	-4.229848E-011	0.0836558	5
	53	19	5.008013	133088.8	-262060.8	1	293919.2	-63.07605	-3.175172E-010	0.0836434	5
	54	19	3.945707	165925.6	-305022.5	1	347231.9	-61.45476	-7.641925E-011	0.083651	5
	55	20	3.158693	201151.4	-349427.7	1	403189.3	-60.0727	-1.968074E-010	0.0836302	5
	56	21	2.504006	244257.1	-399934.1	1	468624.4	-58.58578	1.444429E-010	0.0836288	5
	57	23	1.998082	290687.4	-454498.6	1	539507.3	-57.3979	1.818012E-010	0.0836496	5
	58	24	1.584686	346802.1	-515825	1	621568.3	-56.08607	3.59452E-011	0.083607	5
	59	26	1.266892	408043	-583921.6	1	712364.8	-55.05424	6.768382E-012	0.0835903	5
	60	29	0.999041	480428.1	-664172.7	1	819717.3	-54.11997	-2.598492E-011	0.0836026	5
