EXPLAIN
TAG	EISPOT
TITLE	LABEL	Potentiostatic EIS	Test &Identifier
DATE	LABEL	2/18/2020	Date
TIME	LABEL	16:46:09	Time
NOTES	NOTES	1	&Notes...
	
PSTAT	PSTAT	REF600-11020	Potentiostat
VDC	POTEN	0.00000E+000	T	DC &Voltage (V)
FREQINIT	QUANT	1.00000E+006	Initial Fre&q. (Hz)
FREQFINAL	QUANT	1.00000E+000	Final Fre&q. (Hz)
PTSPERDEC	QUANT	1.00000E+001	Points/&decade
VAC	QUANT	2.50000E+001	AC &Voltage (mV rms)
AREA	QUANT	1.60000E-004	&Area (cm^2)
CONDIT	TWOPARAM	F	1.50000E+001	0.00000E+000	Conditionin&g	Time(s)	E(V)
DELAY	TWOPARAM	F	1.00000E+002	0.00000E+000	Init. De&lay	Time(s)	Stab.(mV/s)
SPEED	SELECTOR	1	&Optimize for:
ZGUESS	QUANT	1.00000E+003	E&stimated Z (ohms)
OCVCURVE	TABLE	39
	Pt	T	Vf	Vm	Ach	Over
	#	s	V vs. Ref.	V	V	bits
	0	0.258333	-8.49144E-002	-8.49144E-002	5.38571E-004	...........
	1	0.516667	-8.49756E-002	-8.81191E-002	5.42471E-004	...........
	2	0.775	-8.53160E-002	-8.92951E-002	5.44771E-004	...........
	3	1.03333	-8.62590E-002	-9.55690E-002	5.46505E-004	...........
	4	1.29167	-8.79821E-002	-9.30068E-002	5.41271E-004	...........
	5	1.55	-9.00494E-002	-8.75263E-002	5.50171E-004	...........
	6	1.80833	-9.13284E-002	-8.70324E-002	5.44438E-004	...........
	7	2.06667	-9.10620E-002	-8.79065E-002	5.45938E-004	...........
	8	2.325	-8.97698E-002	-8.73833E-002	5.44505E-004	...........
	9	2.58333	-8.85521E-002	-8.99949E-002	5.37138E-004	...........
	10	2.84167	-8.80600E-002	-8.96849E-002	5.43805E-004	...........
	11	3.1	-8.83311E-002	-9.14158E-002	5.39605E-004	...........
	12	3.35833	-8.89857E-002	-8.67672E-002	5.42505E-004	...........
	13	3.61667	-8.93229E-002	-8.28285E-002	5.41638E-004	...........
	14	3.875	-8.86723E-002	-8.40655E-002	5.45538E-004	...........
	15	4.13333	-8.71828E-002	-8.80295E-002	5.40338E-004	...........
	16	4.39167	-8.59151E-002	-8.71369E-002	5.43505E-004	...........
	17	4.65	-8.56575E-002	-8.70326E-002	5.44205E-004	...........
	18	4.90833	-8.61479E-002	-8.71762E-002	5.46738E-004	...........
	19	5.16667	-8.67286E-002	-8.78721E-002	5.45938E-004	...........
	20	5.425	-8.71330E-002	-8.81621E-002	5.46838E-004	...........
	21	5.68333	-8.74379E-002	-8.80803E-002	5.42871E-004	...........
	22	5.94167	-8.76907E-002	-8.69450E-002	5.40971E-004	...........
	23	6.2	-8.77952E-002	-8.71609E-002	5.46205E-004	...........
	24	6.45833	-8.76769E-002	-8.67115E-002	5.43338E-004	...........
	25	6.71667	-8.74563E-002	-8.92520E-002	5.42871E-004	...........
	26	6.975	-8.73897E-002	-8.76201E-002	5.43305E-004	...........
	27	7.23333	-8.75822E-002	-8.83869E-002	5.41138E-004	...........
	28	7.49167	-8.78672E-002	-8.79422E-002	5.41538E-004	...........
	29	7.75	-8.80547E-002	-8.80754E-002	5.41805E-004	...........
	30	8.00833	-8.81182E-002	-8.82872E-002	5.38838E-004	...........
	31	8.26667	-8.81196E-002	-8.77430E-002	5.41771E-004	...........
	32	8.525	-8.81050E-002	-8.84752E-002	5.43205E-004	...........
	33	8.78333	-8.80869E-002	-8.74655E-002	5.40038E-004	...........
	34	9.04167	-8.80384E-002	-8.72352E-002	5.42071E-004	...........
	35	9.3	-8.79167E-002	-8.79997E-002	5.41605E-004	...........
	36	9.5583	-8.77608E-002	-8.75583E-002	5.45005E-004	...........
	37	9.8167	-8.76778E-002	-8.83232E-002	5.41705E-004	...........
	38	10.075	-8.77152E-002	-8.79622E-002	5.45505E-004	...........
EOC	QUANT	-0.0877152	Open Circuit (V)
PSTATMODEL	IQUANT	4	Pstat Model
PSTATSECTION	LABEL	REF600-11020	Pstat Section
PSTATSERIALNO	LABEL	11020	Pstat Serial Number
CTRLMODE	IQUANT	1	Control Mode
IESTAB	IQUANT	0	I/E Stability
CASPEED	IQUANT	1	Control Amp Speed
CONVENTION	IQUANT	1	Current Convention
ICHRANGE	IQUANT	2	Ich Range
ICHRANGEMODE	TOGGLE	F	Ich Auto Range
ICHOFFSETENABLE	TOGGLE	T	Ich Offset Enable
ICHOFFSET	QUANT	0	Ich Offset (V)
ICHFILTER	IQUANT	3	Ich Filter
VCHRANGE	IQUANT	2	Vch Range
VCHRANGEMODE	TOGGLE	F	Vch Auto Range
VCHOFFSETENABLE	TOGGLE	T	Vch Offset Enable
VCHOFFSET	QUANT	0	Vch Offset (V)
VCHFILTER	IQUANT	3	Vch Filter
ACHRANGE	IQUANT	2	Ach Range
ACHOFFSETENABLE	TOGGLE	F	Ach Offset Enable
ACHOFFSET	QUANT	0	Ach Offset (V)
ACHFILTER	IQUANT	3	Ach Filter
IERANGELOWERLIMIT	IQUANT	1	I/E Range Lower Limit
IERANGEMODE	TOGGLE	F	I/E AutoRange
IERANGE	IQUANT	8	I/E Range
POSFEEDENABLE	TOGGLE	F	Positive Feedback IR Comp
POSFEEDRESISTANCE	QUANT	0	Positive Feedback Resistance (ohm)
ACHSELECT	IQUANT	0	Ach Select
CABLEID	IQUANT	14	Cable ID
DCCALDATE	LABEL	1/27/2020	DC Calibration Date
ACCALDATE	LABEL	1/27/2020	AC Calibration Date
THERMOSELECT	IQUANT	1	Thermo Select
FRAMEWORKVERSION	QUANT	6.33	Framework Version
INSTRUMENTVERSION	LABEL	3.50	Instrument Version
ZCURVE	TABLE
	Pt	Time	Freq	Zreal	Zimag	Zsig	Zmod	Zphz	Idc	Vdc	IERange
	#	s	Hz	ohm	ohm	V	ohm	°	A	V	#
	0	2	1000078	657.3435	-6544.633	1	6577.563	-84.26444	1.387537E-006	-0.0856126	8
	1	3	794390.6	779.232	-8067.387	1	8104.933	-84.48289	1.532389E-006	-0.0861748	8
	2	5	630984.4	813.4509	-10091.8	1	10124.53	-85.39163	2.47158E-006	-0.0864676	8
	3	7	501234.4	1036.771	-12519.11	1	12561.97	-85.26585	-9.401746E-007	-0.0859169	8
	4	9	398109.4	1165.931	-15637.22	1	15680.62	-85.73584	6.14408E-007	-0.0863351	8
	5	11	316265.6	1399.578	-19574.69	1	19624.66	-85.91035	6.136852E-007	-0.0863254	8
	6	12	251203.1	2043.028	-24366.89	1	24452.39	-85.20728	1.420632E-006	-0.0864462	8
	7	14	199546.9	2130.312	-30256.32	1	30331.23	-85.97252	1.212651E-006	-0.0864795	8
	8	15	158578.1	2310.713	-37895.29	1	37965.67	-86.51064	-1.237538E-006	-0.0858895	8
	9	17	125953.1	3244.752	-47345.86	1	47456.92	-86.07948	8.408978E-009	-0.0863044	7
	10	18	100078.1	3907.443	-59112.52	1	59241.53	-86.21815	2.842473E-008	-0.0862821	7
	11	20	79453.13	4756.848	-73823.48	1	73976.57	-86.31322	2.557512E-008	-0.086284	7
	12	22	63140.62	6021.021	-92050.68	1	92247.38	-86.25762	-2.877188E-008	-0.0862343	7
	13	23	50203.12	7488.859	-114710.1	1	114954.3	-86.26474	1.366607E-008	-0.0863425	7
	14	24	39890.62	9591.09	-143322.5	1	143643	-86.17149	-2.970935E-008	-0.0862419	7
	15	26	31640.63	11878.19	-179245	1	179638.2	-86.20867	4.538138E-008	-0.0863855	7
	16	27	25171.88	13752.27	-223770.6	1	224192.8	-86.4832	3.078574E-008	-0.0863013	7
	17	29	20015.62	18931.04	-280055.3	1	280694.4	-86.13284	5.072759E-008	-0.0863608	7
	18	31	15890.62	24252.54	-349447.8	1	350288.4	-86.0299	-3.313416E-008	-0.0862013	7
	19	32	12609.37	37327.17	-437804.7	1	439393	-85.12675	-7.758301E-009	-0.0861533	6
	20	34	10078.13	37919.46	-539354.6	1	540685.9	-85.97842	4.163991E-010	-0.0861565	6
	21	35	8015.625	52944.44	-670325.4	1	672413.1	-85.48397	-8.960731E-010	-0.0863511	6
	22	37	6328.125	72295.39	-841687.8	1	844786.9	-85.09072	-3.093962E-009	-0.0861518	6
	23	39	5015.625	91678.53	-1050431	1	1054424	-85.01203	-3.531783E-009	-0.0861523	6
	24	40	3984.375	115021.4	-1317727	1	1322737	-85.01143	1.17673E-009	-0.0863478	6
	25	42	3170.956	159414.5	-1630848	1	1638621	-84.41711	1.435507E-011	-0.0862987	6
	26	44	2527.573	205043.9	-2012894	1	2023311	-84.18362	-8.663882E-009	-0.0861388	6
	27	45	1976.103	321247.1	-2545679	1	2565868	-82.80769	-2.524765E-009	-0.0863092	6
	28	47	1577.524	407496.6	-3149488	1	3175740	-82.62774	1.526037E-008	-0.0864443	6
	29	49	1265.625	509323.2	-3899966	1	3933083	-82.55946	7.085409E-010	-0.0862774	5
	30	51	998.264	749422.4	-4805841	1	4863923	-81.13669	-7.895465E-010	-0.0861663	5
	31	52	796.875	936884.7	-6054425	1	6126484	-81.20361	-9.029613E-010	-0.0861437	5
	32	54	627.7902	1273124	-7282093	1	7392545	-80.08324	-2.121081E-010	-0.0862887	5
	33	55	505.5147	1565990	-9052264	1	9186719	-80.1853	-8.900187E-010	-0.0861665	5
	34	57	397.9953	1909177	-1.13366E+007	1	1.149623E+007	-80.44061	1.859318E-010	-0.0862562	5
	35	58	315.5048	2999432	-1.468206E+007	1	1.49853E+007	-78.45379	-1.175108E-010	-0.086262	5
	36	60	252.4038	4376454	-1.736797E+007	1	1.791089E+007	-75.85681	4.259388E-010	-0.0862646	5
	37	61	198.6229	6044584	-2.019796E+007	1	2.108304E+007	-73.33929	-1.492531E-011	-0.0862639	5
	38	63	158.3615	1.076055E+007	-2.13687E+007	1	2.392511E+007	-63.27173	1.297835E-010	-0.0862627	5
	39	65	125.558	1.465864E+007	-2.9868E+007	1	3.327121E+007	-63.85908	-1.253486E-010	-0.0863193	4
	40	66	100.4464	1.814606E+007	-3.3036E+007	1	3.76916E+007	-61.22083	6.913992E-011	-0.0863155	4
	41	68	79.00281	7.462334E+007	-2.862263E+008	1	2.957941E+008	-75.38744	-7.394035E-011	-0.086315	4
	42	70	63.3446	-752181.4	-8091346	1	8126232	-95.311	-1.321927E-011	-0.0863204	4
	43	71	49.86702	7.432064E+007	1.565429E+007	1	7.595139E+007	11.89445	1.953384E-010	-0.0862732	5
	44	73	39.72458	3.097542E+007	-2.740515E+007	1	4.135842E+007	-41.50043	1.95356E-010	-0.0862652	5
	45	75	31.6723	4.226579E+007	-974678	1	4.227702E+007	-1.321046	2.231068E-010	-0.0863217	4
	46	77	24.93351	4.956291E+007	-6.788069E+007	1	8.404922E+007	-53.86504	-2.64729E-011	-0.0863179	4
	47	78	19.86229	3.065309E+007	-4.866445E+007	1	5.751382E+007	-57.79372	2.385745E-010	-0.0862598	5
	48	80	15.83615	1.320764E+007	-3.641671E+007	1	3.873782E+007	-70.06526	-2.273213E-010	-0.0863193	4
	49	82	12.40079	7.973128E+007	1.39025E+007	1	8.093427E+007	9.89105	7.875563E-011	-0.0863244	4
	50	83	9.93114	1.093499E+008	-3.039831E+007	1	1.134965E+008	-15.53546	1.174215E-010	-0.086272	5
	51	85	7.944915	-1.608605E+008	1.342296E+008	1	2.095082E+008	140.1568	-2.056611E-010	-0.0863155	4
	52	88	6.317385	1.251727E+008	-4.080766E+007	1	1.316567E+008	-18.05653	2.241379E-011	-0.0863242	4
	53	91	5.008013	1.551454E+008	-2.258684E+007	1	1.56781E+008	-8.28321	4.653411E-011	-0.0863129	4
	54	94	3.945707	1.615057E+008	-8.717478E+007	1	1.835307E+008	-28.35853	5.809857E-011	-0.0863153	4
	55	97	3.158693	1.261224E+008	-3.924113E+007	1	1.32086E+008	-17.28277	8.237814E-012	-0.0863063	4
	56	102	2.504006	1.970536E+008	-4.779723E+007	1	2.027676E+008	-13.63432	2.080495E-011	-0.0862773	3
	57	106	1.998082	2.016504E+008	-4.855683E+007	1	2.074141E+008	-13.53891	2.595271E-011	-0.0863082	3
	58	110	1.584686	2.103057E+008	-4.410594E+007	1	2.148809E+008	-11.84458	2.166236E-011	-0.0862347	3
	59	116	1.266892	3.761532E+008	-7.588096E+007	1	3.837306E+008	-11.40515	7.247438E-012	-0.0862924	2
	60	120	0.999041	3.863496E+008	-7.099673E+007	1	3.928187E+008	-10.41267	7.467047E-012	-0.0862513	2
