EXPLAIN
TAG	EISPOT
TITLE	LABEL	Potentiostatic EIS	Test &Identifier
DATE	LABEL	7/5/2020	Date
TIME	LABEL	17:41:07	Time
NOTES	NOTES	1	&Notes...
	
PSTAT	PSTAT	REF600-11020	Potentiostat
VDC	POTEN	0.00000E+000	T	DC &Voltage (V)
FREQINIT	QUANT	1.00000E+006	Initial Fre&q. (Hz)
FREQFINAL	QUANT	1.00000E+000	Final Fre&q. (Hz)
PTSPERDEC	QUANT	1.00000E+001	Points/&decade
VAC	QUANT	2.50000E+001	AC &Voltage (mV rms)
AREA	QUANT	4.00000E-004	&Area (cm^2)
CONDIT	TWOPARAM	F	5.00000E+000	0.00000E+000	Conditionin&g	Time(s)	E(V)
DELAY	TWOPARAM	F	3.00000E+000	0.00000E+000	Init. De&lay	Time(s)	Stab.(mV/s)
SPEED	SELECTOR	0	&Optimize for:
ZGUESS	QUANT	1.00000E+003	E&stimated Z (ohms)
OCVCURVE	TABLE	39
	Pt	T	Vf	Vm	Ach	Over
	#	s	V vs. Ref.	V	V	bits
	0	0.258333	9.29170E-002	9.29170E-002	5.77383E-004	...........
	1	0.516667	9.29156E-002	9.28472E-002	5.80349E-004	...........
	2	0.775	9.29087E-002	9.28469E-002	5.76716E-004	...........
	3	1.03333	9.28931E-002	9.28355E-002	5.83916E-004	...........
	4	1.29167	9.28724E-002	9.28314E-002	5.77716E-004	...........
	5	1.55	9.28537E-002	9.28251E-002	5.76349E-004	...........
	6	1.80833	9.28427E-002	9.29457E-002	5.78682E-004	...........
	7	2.06667	9.28465E-002	9.29463E-002	5.80449E-004	...........
	8	2.325	9.28690E-002	9.29625E-002	5.80916E-004	...........
	9	2.58333	9.29021E-002	9.29581E-002	5.85916E-004	...........
	10	2.84167	9.29308E-002	9.29134E-002	5.86416E-004	...........
	11	3.1	9.29452E-002	9.29412E-002	5.82882E-004	...........
	12	3.35833	9.29461E-002	9.29501E-002	5.82582E-004	...........
	13	3.61667	9.29423E-002	9.29420E-002	5.77149E-004	...........
	14	3.875	9.29410E-002	9.29472E-002	5.78349E-004	...........
	15	4.13333	9.29424E-002	9.29529E-002	5.82882E-004	...........
	16	4.39167	9.29449E-002	9.29475E-002	5.82249E-004	...........
	17	4.65	9.29471E-002	9.29457E-002	5.81682E-004	...........
	18	4.90833	9.29481E-002	9.29414E-002	5.83449E-004	...........
	19	5.16667	9.29473E-002	9.29320E-002	5.83816E-004	...........
	20	5.425	9.29443E-002	9.29180E-002	5.78849E-004	...........
	21	5.68333	9.29371E-002	9.28320E-002	5.84016E-004	...........
	22	5.94167	9.29231E-002	9.29137E-002	5.79449E-004	...........
	23	6.2	9.29030E-002	9.27798E-002	5.79216E-004	...........
	24	6.45833	9.28791E-002	9.27676E-002	5.75949E-004	...........
	25	6.71667	9.28527E-002	9.29219E-002	5.69249E-004	...........
	26	6.975	9.28322E-002	9.27647E-002	5.76316E-004	...........
	27	7.23333	9.28234E-002	9.27582E-002	5.73716E-004	...........
	28	7.49167	9.28150E-002	9.27506E-002	5.74182E-004	...........
	29	7.75	9.27972E-002	9.27481E-002	5.75982E-004	...........
	30	8.00833	9.27757E-002	9.27412E-002	5.75082E-004	...........
	31	8.26667	9.27588E-002	9.27394E-002	5.79249E-004	...........
	32	8.525	9.27483E-002	9.27299E-002	5.74782E-004	...........
	33	8.78333	9.27420E-002	9.27303E-002	5.79349E-004	...........
	34	9.04167	9.27372E-002	9.27229E-002	5.74649E-004	...........
	35	9.3	9.27329E-002	9.27226E-002	5.72583E-004	...........
	36	9.5583	9.27289E-002	9.27189E-002	5.68283E-004	...........
	37	9.8167	9.27254E-002	9.27197E-002	5.75149E-004	...........
	38	10.075	9.27224E-002	9.27103E-002	5.69616E-004	...........
EOC	QUANT	0.0927224	Open Circuit (V)
PSTATMODEL	IQUANT	4	Pstat Model
PSTATSECTION	LABEL	REF600-11020	Pstat Section
PSTATSERIALNO	LABEL	11020	Pstat Serial Number
CTRLMODE	IQUANT	1	Control Mode
IESTAB	IQUANT	0	I/E Stability
CASPEED	IQUANT	1	Control Amp Speed
CONVENTION	IQUANT	1	Current Convention
ICHRANGE	IQUANT	2	Ich Range
ICHRANGEMODE	TOGGLE	F	Ich Auto Range
ICHOFFSETENABLE	TOGGLE	T	Ich Offset Enable
ICHOFFSET	QUANT	0	Ich Offset (V)
ICHFILTER	IQUANT	3	Ich Filter
VCHRANGE	IQUANT	2	Vch Range
VCHRANGEMODE	TOGGLE	F	Vch Auto Range
VCHOFFSETENABLE	TOGGLE	T	Vch Offset Enable
VCHOFFSET	QUANT	0	Vch Offset (V)
VCHFILTER	IQUANT	3	Vch Filter
ACHRANGE	IQUANT	2	Ach Range
ACHOFFSETENABLE	TOGGLE	F	Ach Offset Enable
ACHOFFSET	QUANT	0	Ach Offset (V)
ACHFILTER	IQUANT	3	Ach Filter
IERANGELOWERLIMIT	IQUANT	1	I/E Range Lower Limit
IERANGEMODE	TOGGLE	F	I/E AutoRange
IERANGE	IQUANT	8	I/E Range
POSFEEDENABLE	TOGGLE	F	Positive Feedback IR Comp
POSFEEDRESISTANCE	QUANT	0	Positive Feedback Resistance (ohm)
ACHSELECT	IQUANT	0	Ach Select
CABLEID	IQUANT	14	Cable ID
DCCALDATE	LABEL	6/26/2020	DC Calibration Date
ACCALDATE	LABEL	6/26/2020	AC Calibration Date
THERMOSELECT	IQUANT	1	Thermo Select
FRAMEWORKVERSION	QUANT	6.33	Framework Version
INSTRUMENTVERSION	LABEL	3.50	Instrument Version
ZCURVE	TABLE
	Pt	Time	Freq	Zreal	Zimag	Zsig	Zmod	Zphz	Idc	Vdc	IERange
	#	s	Hz	ohm	ohm	V	ohm	°	A	V	#
	0	2	1000078	1507.355	-1848.621	1	2385.272	-50.80639	3.087174E-007	0.0958832	8
	1	2	794390.6	1778.914	-2037.519	1	2704.814	-48.87648	-4.682465E-006	0.095673	8
	2	2	630984.4	2054.601	-2226.348	1	3029.523	-47.29741	2.834102E-008	0.0943326	8
	3	3	501234.4	2373.048	-2432.745	1	3398.471	-45.71168	-3.250665E-006	0.0945353	8
	4	3	398109.4	2699.318	-2657.053	1	3787.645	-44.54791	-6.152051E-007	0.0942137	8
	5	3	316265.6	3081.833	-2909.715	1	4238.412	-43.35453	-1.180829E-006	0.0950121	8
	6	3	251203.1	3495.585	-3185.627	1	4729.412	-42.34381	-1.139507E-006	0.0949951	8
	7	4	199546.9	3983.837	-3491.241	1	5297.142	-41.22975	6.854038E-006	0.0933379	8
	8	4	158578.1	4544.357	-3787.656	1	5915.87	-39.81072	1.89582E-006	0.094789	8
	9	4	125953.1	5173.428	-4057.023	1	6574.48	-38.10369	-3.929595E-006	0.0992358	7
	10	5	100078.1	5902.057	-4369.842	1	7343.691	-36.51599	-8.035196E-007	0.0965308	7
	11	5	79453.13	6742.388	-4579.906	1	8150.787	-34.18711	1.413586E-006	0.0925322	7
	12	6	63140.62	7574.55	-4692.53	1	8910.312	-31.77874	8.099551E-007	0.0946835	7
	13	6	50203.12	8392.312	-4638.021	1	9588.65	-28.92729	6.041024E-007	0.0923116	7
	14	6	39890.62	9248.837	-4562.471	1	10312.96	-26.25722	9.923227E-007	0.0921561	7
	15	7	31640.63	9978.87	-4359.122	1	10889.44	-23.59739	-9.545366E-007	0.0942535	7
	16	7	25171.88	10750.59	-4251.867	1	11560.87	-21.57883	8.157774E-007	0.0946722	7
	17	7	20015.62	11397.38	-3999.294	1	12078.68	-19.33577	1.326129E-006	0.0934983	7
	18	8	15890.62	11835.45	-3683.818	1	12395.5	-17.28891	-1.570728E-006	0.0958355	7
	19	8	12609.37	12335.29	-3461.384	1	12811.73	-15.67456	-9.533575E-007	0.0942528	7
	20	8	10078.13	12835.4	-3336.933	1	13262.08	-14.57308	-1.797075E-007	0.098241	6
	21	9	8015.625	13237.74	-3189.044	1	13616.45	-13.54478	-3.221641E-008	0.0971267	6
	22	9	6328.125	13599.32	-3085.343	1	13944.92	-12.78258	1.148376E-007	0.0951847	6
	23	9	5015.625	13832.49	-3024.977	1	14159.39	-12.33561	5.665286E-008	0.0914511	6
	24	10	3984.375	14150.64	-3038.44	1	14473.18	-12.1186	-2.548632E-007	0.0968733	6
	25	10	3170.956	14514.13	-3134.715	1	14848.78	-12.18736	2.246527E-007	0.0923388	6
	26	10	2527.573	14819.89	-3270.919	1	15176.56	-12.44629	2.247868E-007	0.0923366	6
	27	11	1976.103	15168.33	-3483.561	1	15563.21	-12.93427	1.734557E-007	0.094057	6
	28	11	1577.524	15390.53	-3739.909	1	15838.41	-13.65818	-2.179244E-007	0.0956174	6
	29	11	1265.625	15805.73	-4105.28	1	16330.17	-14.55992	1.734318E-007	0.0940583	6
	30	12	998.264	16143.25	-4564.193	1	16776.07	-15.78723	2.119943E-007	0.0930556	6
	31	12	796.875	16412.81	-5105.535	1	17188.57	-17.27935	1.216819E-007	0.0910331	6
	32	12	627.7902	16887.27	-5875.021	1	17880.03	-19.18261	1.140232E-007	0.0951784	6
	33	12	505.5147	17194.58	-6709.311	1	18457.21	-21.31569	-2.608056E-007	0.0977745	6
	34	13	397.9953	17656.47	-7878.146	1	19334.33	-24.04596	4.016605E-010	0.0944425	6
	35	13	315.5048	18164.27	-9288.18	1	20401.25	-27.08264	-5.247408E-011	0.0944499	6
	36	13	252.4038	18726.81	-10955.33	1	21695.91	-30.32798	-2.491728E-010	0.0944422	6
	37	14	198.6229	19457.96	-13157.64	1	23489.06	-34.0669	-1.708397E-010	0.0944443	6
	38	14	158.3615	20313.21	-15702.09	1	25674.54	-37.704	8.158486E-010	0.0944377	6
	39	14	125.558	21399.9	-18866.51	1	28528.95	-41.39994	8.908246E-010	0.0944372	6
	40	15	100.4464	22712.06	-22513.1	1	31979.33	-44.74793	-2.994625E-012	0.094441	6
	41	15	79.00281	24526.35	-27235.01	1	36650.88	-47.99554	-1.365701E-010	0.0944374	6
	42	15	63.3446	26533.3	-32548.17	1	41992.85	-50.81305	1.918019E-010	0.094444	6
	43	16	49.86702	29337.51	-39126.69	1	48903.86	-53.13714	4.636289E-010	0.0944312	6
	44	16	39.72458	32763.97	-46563.3	1	56935.22	-54.86811	-1.163586E-011	0.0944435	6
	45	16	31.6723	36929.73	-55263.7	1	66467.14	-56.24734	7.457414E-010	0.0944332	6
	46	17	24.93351	42383.21	-66059.66	1	78487.04	-57.31618	-4.221603E-010	0.0944414	6
	47	17	19.86229	48960.14	-78072.92	1	92154.63	-57.90785	-1.204261E-009	0.0944399	6
	48	17	15.83615	56917.49	-91948.34	1	108139.3	-58.24183	4.817985E-010	0.0944159	5
	49	18	12.40079	68018.39	-108417.2	1	127987.5	-57.89682	1.532147E-009	0.0944258	5
	50	18	9.93114	79901.52	-124853.4	1	148231.7	-57.38228	1.794736E-009	0.0944157	5
	51	18	7.944915	93308.37	-143457.9	1	171133.4	-56.95909	-5.154291E-010	0.0944421	5
	52	19	6.317385	110269.7	-164552.9	1	198083.5	-56.17328	4.918961E-010	0.0944291	5
	53	19	5.008013	128763.3	-188302.6	1	228118.1	-55.63526	6.789629E-010	0.0944276	5
	54	20	3.945707	149969.6	-215284.4	1	262370.5	-55.13848	1.012102E-010	0.0944275	5
	55	21	3.158693	170953.2	-244833.6	1	298611	-55.07562	3.632547E-010	0.094434	5
	56	22	2.504006	194783.3	-279897.8	1	341003.4	-55.16562	3.373692E-011	0.0944338	5
	57	24	1.998082	219309.6	-320780.2	1	388582.9	-55.64053	-3.292569E-011	0.0943985	5
	58	25	1.584686	247247.8	-369649.1	1	444715.6	-56.22256	1.37825E-010	0.0944433	5
	59	27	1.266892	277769.4	-427943	1	510187.3	-57.01319	1.325371E-010	0.0944605	5
	60	30	0.999041	313119.6	-502708.5	1	592249.7	-58.08266	1.382849E-010	0.0944568	5
