EXPLAIN
TAG	EISPOT
TITLE	LABEL	Potentiostatic EIS	Test &Identifier
DATE	LABEL	2/11/2020	Date
TIME	LABEL	12:36:41	Time
NOTES	NOTES	6	&Notes...
	
	
	
	
	
	
PSTAT	PSTAT	REF600-11020	Potentiostat
VDC	POTEN	0.00000E+000	T	DC &Voltage (V)
FREQINIT	QUANT	1.00000E+006	Initial Fre&q. (Hz)
FREQFINAL	QUANT	1.00000E+000	Final Fre&q. (Hz)
PTSPERDEC	QUANT	1.00000E+001	Points/&decade
VAC	QUANT	2.50000E+001	AC &Voltage (mV rms)
AREA	QUANT	4.00000E-005	&Area (cm^2)
CONDIT	TWOPARAM	F	5.00000E+000	0.00000E+000	Conditionin&g	Time(s)	E(V)
DELAY	TWOPARAM	F	5.00000E+000	0.00000E+000	Init. De&lay	Time(s)	Stab.(mV/s)
SPEED	SELECTOR	0	&Optimize for:
ZGUESS	QUANT	1.00000E+003	E&stimated Z (ohms)
OCVCURVE	TABLE	39
	Pt	T	Vf	Vm	Ach	Over
	#	s	V vs. Ref.	V	V	bits
	0	0.258333	-8.42092E-002	-8.42092E-002	5.74104E-004	...........
	1	0.516667	-8.41939E-002	-8.34123E-002	5.73704E-004	...........
	2	0.775	-8.42625E-002	-9.11397E-002	5.72171E-004	...........
	3	1.03333	-8.48442E-002	-9.06571E-002	5.74871E-004	...........
	4	1.29167	-8.63388E-002	-9.38187E-002	5.75771E-004	...........
	5	1.55	-8.96735E-002	-1.54462E-001	5.74004E-004	...........
	6	1.80833	-9.81306E-002	-1.67449E-001	5.73704E-004	...........
	7	2.06667	-1.16002E-001	-2.47877E-001	5.75837E-004	...........
	8	2.325	-1.46198E-001	-3.27641E-001	5.78004E-004	.........v.
	9	2.58333	-1.87026E-001	-2.02267E-001	5.68371E-004	...........
	10	2.84167	-2.23484E-001	-1.27156E-001	5.78037E-004	...........
	11	3.1	-2.32062E-001	-9.05684E-002	5.75538E-004	...........
	12	3.35833	-2.05673E-001	-9.54701E-002	5.78337E-004	...........
	13	3.61667	-1.62119E-001	-9.05998E-002	5.80904E-004	...........
	14	3.875	-1.24020E-001	-8.61017E-002	5.75571E-004	...........
	15	4.13333	-1.00948E-001	-8.58339E-002	5.76304E-004	...........
	16	4.39167	-9.03923E-002	-8.69209E-002	5.73404E-004	...........
	17	4.65	-8.67117E-002	-8.76554E-002	5.73404E-004	...........
	18	4.90833	-8.63274E-002	-1.02557E-001	5.73038E-004	...........
	19	5.16667	-8.84183E-002	-1.13343E-001	5.73138E-004	...........
	20	5.425	-9.29000E-002	-8.96370E-002	5.74304E-004	...........
	21	5.68333	-9.73559E-002	-8.37300E-002	5.74771E-004	...........
	22	5.94167	-9.80837E-002	-8.49625E-002	5.74504E-004	...........
	23	6.2	-9.47183E-002	-9.11627E-002	5.77338E-004	...........
	24	6.45833	-9.06199E-002	-9.05146E-002	5.76571E-004	...........
	25	6.71667	-8.85666E-002	-8.84591E-002	5.73771E-004	...........
	26	6.975	-8.84160E-002	-8.67323E-002	5.75604E-004	...........
	27	7.23333	-8.86570E-002	-8.83331E-002	5.74904E-004	...........
	28	7.49167	-8.85566E-002	-9.00615E-002	5.73904E-004	...........
	29	7.75	-8.84432E-002	-9.00908E-002	5.74537E-004	...........
	30	8.00833	-8.89465E-002	-1.02502E-001	5.75504E-004	...........
	31	8.26667	-9.07928E-002	-1.06723E-001	5.80471E-004	...........
	32	8.525	-9.43728E-002	-1.03823E-001	5.82904E-004	...........
	33	8.78333	-9.84480E-002	-8.86284E-002	5.83504E-004	...........
	34	9.04167	-1.00313E-001	-8.66721E-002	5.79637E-004	...........
	35	9.3	-9.83923E-002	-8.43770E-002	5.74937E-004	...........
	36	9.5583	-9.39719E-002	-8.75746E-002	5.79604E-004	...........
	37	9.8167	-8.97397E-002	-8.76243E-002	5.79471E-004	...........
	38	10.075	-8.73964E-002	-8.96667E-002	5.79837E-004	...........
EOC	QUANT	-0.0873964	Open Circuit (V)
PSTATMODEL	IQUANT	4	Pstat Model
PSTATSECTION	LABEL	REF600-11020	Pstat Section
PSTATSERIALNO	LABEL	11020	Pstat Serial Number
CTRLMODE	IQUANT	1	Control Mode
IESTAB	IQUANT	0	I/E Stability
CASPEED	IQUANT	1	Control Amp Speed
CONVENTION	IQUANT	1	Current Convention
ICHRANGE	IQUANT	2	Ich Range
ICHRANGEMODE	TOGGLE	F	Ich Auto Range
ICHOFFSETENABLE	TOGGLE	T	Ich Offset Enable
ICHOFFSET	QUANT	0	Ich Offset (V)
ICHFILTER	IQUANT	3	Ich Filter
VCHRANGE	IQUANT	2	Vch Range
VCHRANGEMODE	TOGGLE	F	Vch Auto Range
VCHOFFSETENABLE	TOGGLE	T	Vch Offset Enable
VCHOFFSET	QUANT	0	Vch Offset (V)
VCHFILTER	IQUANT	3	Vch Filter
ACHRANGE	IQUANT	2	Ach Range
ACHOFFSETENABLE	TOGGLE	F	Ach Offset Enable
ACHOFFSET	QUANT	0	Ach Offset (V)
ACHFILTER	IQUANT	3	Ach Filter
IERANGELOWERLIMIT	IQUANT	1	I/E Range Lower Limit
IERANGEMODE	TOGGLE	F	I/E AutoRange
IERANGE	IQUANT	8	I/E Range
POSFEEDENABLE	TOGGLE	F	Positive Feedback IR Comp
POSFEEDRESISTANCE	QUANT	0	Positive Feedback Resistance (ohm)
ACHSELECT	IQUANT	0	Ach Select
CABLEID	IQUANT	14	Cable ID
DCCALDATE	LABEL	1/27/2020	DC Calibration Date
ACCALDATE	LABEL	1/27/2020	AC Calibration Date
THERMOSELECT	IQUANT	1	Thermo Select
FRAMEWORKVERSION	QUANT	6.33	Framework Version
INSTRUMENTVERSION	LABEL	3.50	Instrument Version
ZCURVE	TABLE
	Pt	Time	Freq	Zreal	Zimag	Zsig	Zmod	Zphz	Idc	Vdc	IERange
	#	s	Hz	ohm	ohm	V	ohm	°	A	V	#
	0	1	1000078	786.6494	-7485.891	1	7527.11	-84.00113	7.348213E-006	-0.0864018	8
	1	1	794390.6	792.9612	-9320.127	1	9353.799	-85.13696	5.17295E-006	-0.0864832	8
	2	2	630984.4	1160.967	-11443.8	1	11502.54	-84.20719	1.095135E-006	-0.0859783	8
	3	3	501234.4	1143.62	-14520.24	1	14565.21	-85.49666	2.556189E-006	-0.0864748	8
	4	3	398109.4	1373.481	-17867.08	1	17919.79	-85.60419	2.402226E-006	-0.0864964	8
	5	3	316265.6	2234.838	-22669.78	1	22779.67	-84.36984	-2.171795E-008	-0.0857648	8
	6	4	251203.1	1759.112	-26998.28	1	27055.52	-86.27208	-2.088172E-006	-0.0855904	8
	7	4	199546.9	2811.436	-34511.13	1	34625.46	-85.3427	3.657628E-008	-0.0859313	8
	8	4	158578.1	1919.795	-42864.37	1	42907.34	-87.43557	-2.069319E-006	-0.0855827	8
	9	5	125953.1	3334.732	-53884.13	1	53987.22	-86.45865	1.153857E-006	-0.0879782	7
	10	5	100078.1	4976.395	-67862.56	1	68044.78	-85.80598	-2.663014E-008	-0.0859282	7
	11	5	79453.13	5821.558	-84444.54	1	84644.97	-86.0563	4.609838E-008	-0.0861163	7
	12	6	63140.62	7053.354	-105483.7	1	105719.2	-86.17451	5.362191E-008	-0.0860447	7
	13	6	50203.12	8533.175	-131574.2	1	131850.6	-86.28931	1.585044E-008	-0.0860606	7
	14	6	39890.62	11097.05	-163333.7	1	163710.2	-86.11324	-3.598302E-008	-0.085946	7
	15	7	31640.63	12948.16	-204502.5	1	204912	-86.37713	-5.472612E-008	-0.0858069	7
	16	7	25171.88	18396.8	-254899.3	1	255562.3	-85.87196	-5.498927E-008	-0.0859462	7
	17	7	20015.62	21976.62	-322832.3	1	323579.4	-86.10563	-5.37584E-008	-0.0858034	7
	18	8	15890.62	17161.51	-387045	1	387425.3	-87.46117	-2.687145E-008	-0.0859949	7
	19	8	12609.37	31167.04	-492587	1	493572	-86.3796	-4.983163E-009	-0.0859905	6
	20	8	10078.13	50693.82	-612817.1	1	614910.3	-85.27111	-5.230413E-009	-0.0859932	6
	21	9	8015.625	71091.7	-776453.9	1	779701.7	-84.76862	1.48653E-008	-0.0860887	6
	22	9	6328.125	62805.43	-969380	1	971412	-86.29303	4.828928E-009	-0.0859171	6
	23	10	5015.625	97978.3	-1205651	1	1209625	-85.35402	2.090707E-008	-0.0862617	6
	24	10	3984.375	57235.94	-1485425	1	1486527	-87.79339	2.035723E-008	-0.0862575	6
	25	10	3170.956	179656.7	-1888463	1	1896989	-84.56559	2.056252E-008	-0.0862592	6
	26	11	2527.573	204088.2	-2304678	1	2313697	-84.93944	-5.266762E-009	-0.085817	6
	27	11	1976.103	405930.5	-3012798	1	3040022	-82.32644	-6.591212E-009	-0.0859714	6
	28	12	1577.524	492298.8	-3311459	1	3347853	-81.54404	-9.531368E-009	-0.0858574	6
	29	12	1265.625	538812.2	-4568198	1	4599865	-83.27312	6.53131E-010	-0.0859523	5
	30	13	998.264	813344.6	-5494216	1	5554093	-81.57929	2.424412E-009	-0.0861381	5
	31	13	796.875	1126041	-6486426	1	6583441	-80.15163	-9.162447E-010	-0.0858715	5
	32	14	627.7902	1332585	-8649398	1	8751450	-81.24149	5.372809E-010	-0.0859696	5
	33	14	505.5147	1643734	-9.775902E+006	1	9.913129E+006	-80.45548	1.699472E-009	-0.08635	5
	34	14	397.9953	2329747	-1.203569E+007	1	1.22591E+007	-79.04475	6.007897E-010	-0.086002	5
	35	15	315.5048	3859258	-1.504531E+007	1	1.553239E+007	-75.6133	7.034496E-010	-0.0859989	5
	36	15	252.4038	6145002	-1.839927E+007	1	1.93983E+007	-71.53167	-5.107699E-010	-0.0859953	5
	37	16	198.6229	6487767	-2.382327E+007	1	2.469087E+007	-74.76612	3.002447E-010	-0.085998	5
	38	16	158.3615	1.165635E+007	-2.155177E+007	1	2.450203E+007	-61.59311	5.504544E-010	-0.0860026	5
	39	17	125.558	8096815	-2.673552E+007	1	2.793468E+007	-73.15114	1.463754E-010	-0.0860531	4
	40	17	100.4464	2.972228E+007	332531.8	1	2.972414E+007	0.6409963	-5.472621E-010	-0.0860534	4
	41	17	79.00281	-4649829	-1.395011E+007	1	1.470464E+007	-108.4342	-3.916922E-010	-0.0860529	4
	42	18	63.3446	-2640275	6056577	1	6607055	113.5541	3.889462E-010	-0.0860595	4
	43	19	49.86702	-6599473	-3.467952E+007	1	3.530188E+007	-100.7745	1.814395E-010	-0.0860084	5
	44	19	39.72458	4.197225E+007	-1.191572E+007	1	4.363088E+007	-15.84899	2.419234E-011	-0.0860564	4
	45	20	31.6723	-1.145748E+007	-2.319089E+007	1	2.58668E+007	-116.2917	4.744378E-010	-0.0860602	4
	46	20	24.93351	6.240506E+007	-3.924677E+007	1	7.372042E+007	-32.16594	1.118074E-010	-0.0860665	4
	47	21	19.86229	6.30386E+007	-9397452	1	6.373521E+007	-8.478902	-3.49827E-011	-0.0859956	5
	48	21	15.83615	1.483011E+007	-191084.8	1	1.483134E+007	-0.7382106	1.075195E-009	-0.0860095	5
	49	22	12.40079	4.454354E+007	-2.059695E+007	1	4.907506E+007	-24.81584	1.856451E-010	-0.0860571	4
	50	22	9.93114	-2.737045E+007	-9.604555E+007	1	9.986936E+007	-105.9062	2.474979E-010	-0.086053	4
	51	23	7.944915	5.910779E+007	-3.016887E+007	1	6.636182E+007	-27.03996	1.953746E-010	-0.0860513	4
	52	24	6.317385	1.444956E+008	-5.300267E+007	1	1.539099E+008	-20.14363	1.053284E-010	-0.0860106	5
	53	26	5.008013	1.120413E+008	-5.765807E+007	1	1.260068E+008	-27.23101	8.58878E-011	-0.0860641	4
	54	28	3.945707	2.316378E+008	8.000128E+007	1	2.450639E+008	19.05349	-2.006145E-011	-0.086065	4
	55	30	3.158693	1.662151E+008	-4.259885E+007	1	1.715871E+008	-14.37479	5.09462E-011	-0.0860479	4
	56	32	2.504006	4.533974E+008	-1.059935E+008	1	4.65622E+008	-13.15808	4.164015E-011	-0.0860196	3
	57	35	1.998082	4.722468E+008	-8.28614E+007	1	4.794612E+008	-9.95193	4.220579E-011	-0.0859873	3
	58	37	1.584686	4.799833E+008	-9.151399E+007	1	4.886295E+008	-10.7945	4.204217E-011	-0.0860322	3
	59	41	1.266892	1.870358E+009	-5.721681E+008	1	1.955918E+009	-17.00959	1.40412E-011	-0.0860689	2
	60	44	0.999041	1.948062E+009	-5.274194E+008	1	2.018196E+009	-15.14911	1.397072E-011	-0.0860618	2
