EXPLAIN
TAG	EISPOT
TITLE	LABEL	Potentiostatic EIS	Test &Identifier
DATE	LABEL	2/25/2020	Date
TIME	LABEL	14:00:43	Time
NOTES	NOTES	1	&Notes...
	
PSTAT	PSTAT	REF600-11020	Potentiostat
VDC	POTEN	0.00000E+000	T	DC &Voltage (V)
FREQINIT	QUANT	1.00000E+006	Initial Fre&q. (Hz)
FREQFINAL	QUANT	1.00000E+000	Final Fre&q. (Hz)
PTSPERDEC	QUANT	1.00000E+001	Points/&decade
VAC	QUANT	2.50000E+001	AC &Voltage (mV rms)
AREA	QUANT	1.60000E-004	&Area (cm^2)
CONDIT	TWOPARAM	F	1.50000E+001	0.00000E+000	Conditionin&g	Time(s)	E(V)
DELAY	TWOPARAM	F	1.00000E+002	0.00000E+000	Init. De&lay	Time(s)	Stab.(mV/s)
SPEED	SELECTOR	1	&Optimize for:
ZGUESS	QUANT	1.00000E+003	E&stimated Z (ohms)
OCVCURVE	TABLE	39
	Pt	T	Vf	Vm	Ach	Over
	#	s	V vs. Ref.	V	V	bits
	0	0.258333	3.63102E-003	3.63102E-003	5.63538E-004	...........
	1	0.516667	3.64027E-003	4.11512E-003	5.65004E-004	...........
	2	0.775	3.69137E-003	4.27622E-003	5.66904E-004	...........
	3	1.03333	3.81458E-003	4.30323E-003	5.65738E-004	...........
	4	1.29167	3.98652E-003	4.26318E-003	5.71504E-004	...........
	5	1.55	4.14075E-003	4.22455E-003	5.66738E-004	...........
	6	1.80833	4.23021E-003	4.20256E-003	5.68138E-004	...........
	7	2.06667	4.25117E-003	3.98993E-003	5.69838E-004	...........
	8	2.325	4.21663E-003	3.87689E-003	5.68371E-004	...........
	9	2.58333	4.13755E-003	3.81236E-003	5.66871E-004	...........
	10	2.84167	4.02984E-003	3.64623E-003	5.68838E-004	...........
	11	3.1	3.91415E-003	3.67077E-003	5.65338E-004	...........
	12	3.35833	3.80910E-003	3.67342E-003	5.73471E-004	...........
	13	3.61667	3.73140E-003	3.68538E-003	5.67138E-004	...........
	14	3.875	3.68964E-003	3.71115E-003	5.68304E-004	...........
	15	4.13333	3.67892E-003	3.73016E-003	5.70471E-004	...........
	16	4.39167	3.68757E-003	3.74308E-003	5.69738E-004	...........
	17	4.65	3.70464E-003	3.74672E-003	5.67671E-004	...........
	18	4.90833	3.72234E-003	3.76164E-003	5.64871E-004	...........
	19	5.16667	3.73694E-003	3.75924E-003	5.63438E-004	...........
	20	5.425	3.74784E-003	3.76847E-003	5.72204E-004	...........
	21	5.68333	3.75591E-003	3.77961E-003	5.69571E-004	...........
	22	5.94167	3.76300E-003	3.79903E-003	5.65438E-004	...........
	23	6.2	3.77142E-003	3.80982E-003	5.66304E-004	...........
	24	6.45833	3.78237E-003	3.82469E-003	5.67704E-004	...........
	25	6.71667	3.79536E-003	3.83898E-003	5.72104E-004	...........
	26	6.975	3.80911E-003	3.84379E-003	5.67771E-004	...........
	27	7.23333	3.82210E-003	3.84244E-003	5.67771E-004	...........
	28	7.49167	3.83269E-003	3.85260E-003	5.69304E-004	...........
	29	7.75	3.84049E-003	3.86610E-003	5.67104E-004	...........
	30	8.00833	3.84729E-003	3.87783E-003	5.60871E-004	...........
	31	8.26667	3.85549E-003	3.89910E-003	5.69071E-004	...........
	32	8.525	3.86649E-003	3.91543E-003	5.69304E-004	...........
	33	8.78333	3.88051E-003	3.93607E-003	5.68804E-004	...........
	34	9.04167	3.89665E-003	3.93598E-003	5.72904E-004	...........
	35	9.3	3.91270E-003	3.94594E-003	5.74371E-004	...........
	36	9.5583	3.92627E-003	3.95077E-003	5.66604E-004	...........
	37	9.8167	3.93662E-003	3.96111E-003	5.69271E-004	...........
	38	10.075	3.94404E-003	3.92755E-003	5.69604E-004	...........
EOC	QUANT	0.003944	Open Circuit (V)
PSTATMODEL	IQUANT	4	Pstat Model
PSTATSECTION	LABEL	REF600-11020	Pstat Section
PSTATSERIALNO	LABEL	11020	Pstat Serial Number
CTRLMODE	IQUANT	1	Control Mode
IESTAB	IQUANT	0	I/E Stability
CASPEED	IQUANT	1	Control Amp Speed
CONVENTION	IQUANT	1	Current Convention
ICHRANGE	IQUANT	2	Ich Range
ICHRANGEMODE	TOGGLE	F	Ich Auto Range
ICHOFFSETENABLE	TOGGLE	T	Ich Offset Enable
ICHOFFSET	QUANT	0	Ich Offset (V)
ICHFILTER	IQUANT	3	Ich Filter
VCHRANGE	IQUANT	2	Vch Range
VCHRANGEMODE	TOGGLE	F	Vch Auto Range
VCHOFFSETENABLE	TOGGLE	T	Vch Offset Enable
VCHOFFSET	QUANT	0	Vch Offset (V)
VCHFILTER	IQUANT	3	Vch Filter
ACHRANGE	IQUANT	2	Ach Range
ACHOFFSETENABLE	TOGGLE	F	Ach Offset Enable
ACHOFFSET	QUANT	0	Ach Offset (V)
ACHFILTER	IQUANT	3	Ach Filter
IERANGELOWERLIMIT	IQUANT	1	I/E Range Lower Limit
IERANGEMODE	TOGGLE	F	I/E AutoRange
IERANGE	IQUANT	6	I/E Range
POSFEEDENABLE	TOGGLE	F	Positive Feedback IR Comp
POSFEEDRESISTANCE	QUANT	0	Positive Feedback Resistance (ohm)
ACHSELECT	IQUANT	0	Ach Select
CABLEID	IQUANT	14	Cable ID
DCCALDATE	LABEL	1/27/2020	DC Calibration Date
ACCALDATE	LABEL	1/27/2020	AC Calibration Date
THERMOSELECT	IQUANT	1	Thermo Select
FRAMEWORKVERSION	QUANT	6.33	Framework Version
INSTRUMENTVERSION	LABEL	3.50	Instrument Version
ZCURVE	TABLE
	Pt	Time	Freq	Zreal	Zimag	Zsig	Zmod	Zphz	Idc	Vdc	IERange
	#	s	Hz	ohm	ohm	V	ohm	°	A	V	#
	0	1	1000078	1847.346	-2158.096	1	2840.786	-49.43623	-9.572226E-008	0.006241	8
	1	2	794390.6	2264.094	-2319.209	1	3241.119	-45.68896	-1.970503E-006	0.0064194	8
	2	4	630984.4	2718.366	-2415.118	1	3636.249	-41.61932	1.621703E-006	0.0055712	8
	3	5	501234.4	3195.589	-2456.792	1	4030.833	-37.55335	-1.94707E-006	0.0060936	8
	4	7	398109.4	3657.392	-2428.32	1	4390.132	-33.58212	1.269099E-006	0.0054231	8
	5	8	316265.6	4108.668	-2331.199	1	4723.943	-29.56995	-1.447727E-007	0.0055627	8
	6	9	251203.1	4509.739	-2214.668	1	5024.191	-26.15499	3.00692E-007	0.0054798	8
	7	11	199546.9	4879.622	-2046.633	1	5291.447	-22.75438	1.022554E-006	0.005394	8
	8	12	158578.1	5180.029	-1864.055	1	5505.215	-19.79148	4.413917E-008	0.0056478	8
	9	13	125953.1	5460.555	-1659.659	1	5707.199	-16.90591	-1.003895E-007	0.0057653	7
	10	15	100078.1	5675.229	-1504.232	1	5871.195	-14.84503	5.026448E-009	0.0055583	7
	11	16	79453.13	5854.315	-1372.962	1	6013.155	-13.19856	-1.206495E-008	0.0055759	7
	12	17	63140.62	5986.179	-1252.684	1	6115.844	-11.81932	2.525478E-008	0.0054734	7
	13	19	50203.12	6105.652	-1168.254	1	6216.415	-10.83203	6.678074E-008	0.0054174	7
	14	20	39890.62	6211.788	-1112.277	1	6310.584	-10.15175	6.73199E-008	0.0054104	7
	15	21	31640.63	6309.583	-1081.504	1	6401.6	-9.72636	3.805762E-008	0.0054251	7
	16	23	25171.88	6403.773	-1083.945	1	6494.863	-9.6072	-1.916972E-008	0.0055448	7
	17	24	20015.62	6498.884	-1113.013	1	6593.504	-9.71832	7.498758E-009	0.0055034	7
	18	25	15890.62	6594.021	-1169.884	1	6696.995	-10.0605	-1.083688E-008	0.0055003	7
	19	27	12609.37	6699.095	-1257.718	1	6816.137	-10.63319	4.184985E-008	0.0054797	7
	20	28	10078.13	6810.383	-1373.542	1	6947.513	-11.40265	-1.567503E-008	0.0055036	7
	21	29	8015.625	6935.248	-1522.354	1	7100.368	-12.38062	2.697703E-008	0.0054608	7
	22	31	6328.125	7079.651	-1718.1	1	7285.144	-13.64091	6.925202E-008	0.0053989	7
	23	32	5015.625	7234.875	-1946.909	1	7492.254	-15.06153	-1.684066E-008	0.0055114	7
	24	33	3984.375	7408.717	-2223.847	1	7735.281	-16.70798	-1.610947E-008	0.0055189	7
	25	35	3170.956	7600.527	-2553.909	1	8018.133	-18.57324	-2.043167E-010	0.0055265	7
	26	36	2527.573	7808.928	-2940.396	1	8344.177	-20.6335	3.969721E-008	0.005415	7
	27	37	1976.103	8063.304	-3449.109	1	8770.019	-23.159	2.415729E-008	0.0054358	7
	28	39	1577.524	8320.761	-4008.239	1	9235.856	-25.72084	9.40039E-010	0.0055149	6
	29	40	1265.625	8595.444	-4669.456	1	9781.9	-28.51292	1.801254E-009	0.0055322	6
	30	42	998.264	8928.237	-5536.262	1	10505.41	-31.80241	-3.731946E-009	0.0055405	6
	31	43	796.875	9282.174	-6535.783	1	11352.32	-35.15022	-2.351605E-009	0.0054976	6
	32	44	627.7902	9703.83	-7825.986	1	12466.37	-38.88562	-3.003533E-009	0.0055276	6
	33	46	505.5147	10151.43	-9259.856	1	13740.32	-42.37022	-2.977259E-009	0.0054934	6
	34	47	397.9953	10717.7	-11179.33	1	15486.98	-46.20773	1.190361E-009	0.0055027	6
	35	48	315.5048	11374.91	-13468.66	1	17629.33	-49.81737	7.183756E-010	0.0055043	6
	36	50	252.4038	12135.01	-16142.06	1	20194.67	-53.06548	4.911166E-010	0.0055008	6
	37	51	198.6229	13119.87	-19642.05	1	23620.78	-56.25913	8.814003E-010	0.0054998	6
	38	52	158.3615	14251.14	-23667.18	1	27626.62	-58.94584	5.268095E-010	0.0054962	6
	39	54	125.558	15678.16	-28669.46	1	32676.33	-61.32755	9.267836E-010	0.0054999	6
	40	55	100.4464	17312.56	-34483.49	1	38585.43	-63.34089	1.205463E-009	0.0055044	6
	41	56	79.00281	19624.69	-42060.33	1	46413.36	-64.98698	2.91547E-010	0.005496	6
	42	58	63.3446	22083.91	-50060.64	1	54715.33	-66.19565	3.700478E-010	0.0054961	6
	43	59	49.86702	25688.85	-61851.15	1	66973.73	-67.44525	2.10808E-010	0.0054958	6
	44	61	39.72458	29312.63	-74361.23	1	79930.12	-68.48602	7.901795E-010	0.0055	6
	45	62	31.6723	34549.41	-89728.23	1	96150	-68.94105	7.004085E-010	0.0054894	6
	46	63	24.93351	41129.44	-109320.3	1	116801.4	-69.38226	1.334592E-011	0.0054899	5
	47	65	19.86229	49396.1	-131846.7	1	140796.1	-69.46165	2.770135E-010	0.0054985	5
	48	66	15.83615	60877.18	-158220.9	1	169528.4	-68.95524	2.02714E-010	0.0054904	5
	49	67	12.40079	74761.48	-193294.4	1	207248.6	-68.85477	-3.4845E-011	0.0054882	5
	50	69	9.93114	94293.66	-228979.9	1	247635	-67.61819	2.245918E-010	0.0054925	5
	51	70	7.944915	117489.5	-270201.3	1	294639.6	-66.49953	5.151724E-010	0.0054944	5
	52	72	6.317385	148413.6	-318834.2	1	351684.3	-65.03857	3.776521E-010	0.0055037	5
	53	74	5.008013	187451.4	-373713.2	1	418090.3	-63.36204	3.063301E-010	0.0055041	5
	54	77	3.945707	237005.1	-435610.8	1	495911.4	-61.45048	1.368733E-010	0.0055025	5
	55	79	3.158693	292019.6	-496956.3	1	576403.6	-59.56081	1.024632E-010	0.0055145	5
	56	83	2.504006	358434.2	-565268.3	1	669330.5	-57.62139	5.221498E-011	0.0054907	5
	57	85	1.998082	430280.1	-635205.3	1	767220.1	-55.88678	-1.748025E-010	0.0055223	5
	58	89	1.584686	513323.4	-713328	1	878827.5	-54.26054	1.501892E-010	0.0055296	5
	59	92	1.266892	600894.8	-792894.4	1	994865	-52.84334	-1.740464E-010	0.0054799	4
	60	97	0.999041	698048	-887247.2	1	1128928	-51.80585	4.541662E-011	0.0054103	4
