EXPLAIN
TAG	EISPOT
TITLE	LABEL	Potentiostatic EIS	Test &Identifier
DATE	LABEL	3/12/2020	Date
TIME	LABEL	14:25:41	Time
NOTES	NOTES	1	&Notes...
	
PSTAT	PSTAT	REF600-11020	Potentiostat
VDC	POTEN	0.00000E+000	T	DC &Voltage (V)
FREQINIT	QUANT	1.00000E+006	Initial Fre&q. (Hz)
FREQFINAL	QUANT	1.00000E+000	Final Fre&q. (Hz)
PTSPERDEC	QUANT	1.00000E+001	Points/&decade
VAC	QUANT	2.50000E+001	AC &Voltage (mV rms)
AREA	QUANT	2.50000E-001	&Area (cm^2)
CONDIT	TWOPARAM	F	5.00000E+000	0.00000E+000	Conditionin&g	Time(s)	E(V)
DELAY	TWOPARAM	T	5.00000E+000	0.00000E+000	Init. De&lay	Time(s)	Stab.(mV/s)
SPEED	SELECTOR	1	&Optimize for:
ZGUESS	QUANT	5.00000E+003	E&stimated Z (ohms)
OCVCURVE	TABLE	19
	Pt	T	Vf	Vm	Ach	Over
	#	s	V vs. Ref.	V	V	bits
	0	0.258333	2.03353E-002	2.03353E-002	5.85396E-004	...........
	1	0.516667	2.03343E-002	2.02810E-002	5.79997E-004	...........
	2	0.775	2.03281E-002	2.02379E-002	5.81330E-004	...........
	3	1.03333	2.03110E-002	2.01951E-002	5.77863E-004	...........
	4	1.29167	2.02815E-002	2.01606E-002	5.80430E-004	...........
	5	1.55	2.02442E-002	2.01435E-002	5.80830E-004	...........
	6	1.80833	2.02061E-002	2.01102E-002	5.79197E-004	...........
	7	2.06667	2.01718E-002	2.00867E-002	5.82263E-004	...........
	8	2.325	2.01417E-002	2.00577E-002	5.80497E-004	...........
	9	2.58333	2.01141E-002	2.00352E-002	5.82497E-004	...........
	10	2.84167	2.00876E-002	2.00125E-002	5.83063E-004	...........
	11	3.1	2.00621E-002	1.99895E-002	5.84397E-004	...........
	12	3.35833	2.00377E-002	1.99669E-002	5.81663E-004	...........
	13	3.61667	2.00142E-002	1.99451E-002	5.80030E-004	...........
	14	3.875	1.99914E-002	1.99234E-002	5.82897E-004	...........
	15	4.13333	1.99690E-002	1.99022E-002	5.82863E-004	...........
	16	4.39167	1.99471E-002	1.98835E-002	5.85097E-004	...........
	17	4.65	1.99256E-002	1.98625E-002	5.88230E-004	...........
	18	4.90833	1.99049E-002	1.98451E-002	5.82730E-004	...........
EOC	QUANT	0.0199049	Open Circuit (V)
PSTATMODEL	IQUANT	4	Pstat Model
PSTATSECTION	LABEL	REF600-11020	Pstat Section
PSTATSERIALNO	LABEL	11020	Pstat Serial Number
CTRLMODE	IQUANT	1	Control Mode
IESTAB	IQUANT	0	I/E Stability
CASPEED	IQUANT	1	Control Amp Speed
CONVENTION	IQUANT	1	Current Convention
ICHRANGE	IQUANT	2	Ich Range
ICHRANGEMODE	TOGGLE	F	Ich Auto Range
ICHOFFSETENABLE	TOGGLE	T	Ich Offset Enable
ICHOFFSET	QUANT	0	Ich Offset (V)
ICHFILTER	IQUANT	3	Ich Filter
VCHRANGE	IQUANT	2	Vch Range
VCHRANGEMODE	TOGGLE	F	Vch Auto Range
VCHOFFSETENABLE	TOGGLE	T	Vch Offset Enable
VCHOFFSET	QUANT	0	Vch Offset (V)
VCHFILTER	IQUANT	3	Vch Filter
ACHRANGE	IQUANT	2	Ach Range
ACHOFFSETENABLE	TOGGLE	F	Ach Offset Enable
ACHOFFSET	QUANT	0	Ach Offset (V)
ACHFILTER	IQUANT	3	Ach Filter
IERANGELOWERLIMIT	IQUANT	1	I/E Range Lower Limit
IERANGEMODE	TOGGLE	F	I/E AutoRange
IERANGE	IQUANT	6	I/E Range
POSFEEDENABLE	TOGGLE	F	Positive Feedback IR Comp
POSFEEDRESISTANCE	QUANT	0	Positive Feedback Resistance (ohm)
ACHSELECT	IQUANT	0	Ach Select
CABLEID	IQUANT	14	Cable ID
DCCALDATE	LABEL	2/27/2020	DC Calibration Date
ACCALDATE	LABEL	2/27/2020	AC Calibration Date
THERMOSELECT	IQUANT	1	Thermo Select
FRAMEWORKVERSION	QUANT	6.33	Framework Version
INSTRUMENTVERSION	LABEL	3.50	Instrument Version
ZCURVE	TABLE
	Pt	Time	Freq	Zreal	Zimag	Zsig	Zmod	Zphz	Idc	Vdc	IERange
	#	s	Hz	ohm	ohm	V	ohm	°	A	V	#
	0	2	1000078	2106.014	-2014.566	1	2914.407	-43.72864	3.456657E-006	0.0221917	8
	1	3	794390.6	2515.297	-2093.652	1	3272.629	-39.7729	-3.618094E-006	0.0225859	8
	2	5	630984.4	2924.49	-2111.469	1	3607.068	-35.82911	4.953698E-007	0.0218989	8
	3	6	501234.4	3344.065	-2074.779	1	3935.413	-31.81696	-1.45417E-006	0.0220112	8
	4	7	398109.4	3718.264	-1992.145	1	4218.309	-28.1812	-1.202231E-006	0.0219387	8
	5	9	316265.6	4071.814	-1835.548	1	4466.42	-24.26555	-1.35357E-006	0.0220944	8
	6	10	251203.1	4377.954	-1679.42	1	4689.022	-20.98723	-4.896432E-007	0.0217862	8
	7	12	199546.9	4617.95	-1517.963	1	4861.037	-18.19617	-1.781367E-006	0.0220728	8
	8	13	158578.1	4826.62	-1368.482	1	5016.872	-15.82952	-1.336979E-006	0.0220563	8
	9	14	125953.1	5016.341	-1146.855	1	5145.77	-12.87785	-1.313874E-007	0.0216974	7
	10	16	100078.1	5135.384	-1009.03	1	5233.575	-11.11619	6.612895E-009	0.021515	7
	11	17	79453.13	5240.912	-898.1337	1	5317.312	-9.7243	1.175887E-008	0.0215484	7
	12	19	63140.62	5326.26	-803.6611	1	5386.549	-8.580439	-1.951255E-008	0.0215516	7
	13	20	50203.12	5397.681	-729.8226	1	5446.797	-7.700286	-3.112817E-008	0.0215805	7
	14	21	39890.62	5457.959	-674.3463	1	5499.46	-7.043361	3.8797E-008	0.0214549	7
	15	23	31640.63	5509.895	-636.9181	1	5546.585	-6.593859	-3.735556E-008	0.0216069	7
	16	24	25171.88	5558.992	-620.4047	1	5593.504	-6.368076	1.746599E-008	0.0215897	7
	17	25	20015.62	5603.906	-619.9694	1	5638.096	-6.313054	-2.418502E-008	0.0216303	7
	18	27	15890.62	5646.632	-638.4719	1	5682.614	-6.451108	7.561504E-009	0.0214988	7
	19	28	12609.37	5689.695	-678.4142	1	5729.998	-6.799595	9.361758E-009	0.0215073	7
	20	29	10078.13	5730.871	-736.6577	1	5778.023	-7.324749	8.18974E-009	0.0215017	7
	21	31	8015.625	5775.753	-820.4302	1	5833.732	-8.084624	2.673756E-008	0.0215892	7
	22	32	6328.125	5826.394	-938.0327	1	5901.421	-9.145973	1.824891E-008	0.02158	7
	23	34	5015.625	5877.792	-1087.879	1	5977.619	-10.48581	-2.319508E-008	0.0216052	7
	24	35	3984.375	5937.055	-1275.574	1	6072.537	-12.12564	-6.14776E-009	0.0216158	7
	25	36	3170.956	6003.193	-1507.799	1	6189.651	-14.09911	3.630464E-009	0.0215516	7
	26	38	2527.573	6079.18	-1796.589	1	6339.098	-16.46407	-1.847991E-008	0.0215786	7
	27	39	1976.103	6177.004	-2183.556	1	6551.588	-19.46838	4.067769E-008	0.0214371	7
	28	40	1577.524	6284.908	-2623.461	1	6810.479	-22.65675	3.179413E-008	0.0215012	7
	29	42	1265.625	6407.377	-3151.138	1	7140.319	-26.18789	-4.94471E-008	0.0216271	7
	30	43	998.264	6570.914	-3843.955	1	7612.68	-30.32744	4.128191E-008	0.0214383	7
	31	44	796.875	6754.628	-4652.097	1	8201.646	-34.55624	4.894979E-009	0.0215159	7
	32	46	627.7902	6997.125	-5701.308	1	9025.778	-39.1734	-3.512052E-008	0.0215925	7
	33	47	505.5147	7269.73	-6861.453	1	9996.42	-43.34508	5.785088E-009	0.0215727	6
	34	49	397.9953	7631.786	-8424.803	1	11367.56	-47.82748	6.900029E-010	0.0216195	6
	35	50	315.5048	8074.637	-10288.58	1	13078.78	-51.87462	3.225905E-010	0.0216248	6
	36	51	252.4038	8606.678	-12468.48	1	15150.51	-55.38367	1.188857E-009	0.0216189	6
	37	53	198.6229	9329.777	-15326.64	1	17942.99	-58.6699	7.819681E-010	0.0216197	6
	38	54	158.3615	10204.85	-18621.95	1	21234.78	-61.27722	6.314761E-010	0.021619	6
	39	55	125.558	11344.42	-22717.38	1	25392.43	-63.46374	9.778672E-010	0.0216251	6
	40	57	100.4464	12752.29	-27501.58	1	30314.32	-65.12318	6.752616E-010	0.0216265	6
	41	58	79.00281	14694.79	-33636.07	1	36705.89	-66.40065	7.683864E-010	0.0216257	6
	42	60	63.3446	17046.84	-40213.05	1	43677.05	-67.02727	6.343553E-010	0.0216222	6
	43	61	49.86702	20610.23	-49489.74	1	53609.85	-67.39049	6.087149E-010	0.0216166	6
	44	62	39.72458	24639.18	-59261.84	1	64179.86	-67.42402	2.266329E-010	0.0216237	6
	45	64	31.6723	29739.22	-70823.44	1	76813.94	-67.22215	4.639545E-010	0.0216203	6
	46	65	24.93351	36982.12	-85263.16	1	92938.06	-66.55165	8.018357E-010	0.0216227	6
	47	66	19.86229	45834.87	-101048.4	1	110957.7	-65.60128	-2.244864E-010	0.0216248	5
	48	68	15.83615	56691.28	-119303	1	132087.5	-64.58351	1.073917E-009	0.0216207	5
	49	69	12.40079	71564.01	-140631	1	157792.5	-63.02945	-1.1251E-010	0.0216288	5
	50	71	9.93114	88293.41	-163069.1	1	185438	-61.56676	-5.683983E-010	0.0216301	5
	51	72	7.944915	108649.3	-187888.8	1	217041.2	-59.96075	7.727943E-010	0.0216352	5
	52	74	6.317385	133309.2	-214352.6	1	252425	-58.12189	-2.292807E-010	0.0216432	5
	53	76	5.008013	162758	-243176.4	1	292617.4	-56.2056	-8.582141E-011	0.0216275	5
	54	79	3.945707	196852	-273210.1	1	336741	-54.22668	5.296777E-010	0.0216339	5
	55	81	3.158693	231880.2	-303209.6	1	381712.6	-52.59297	-1.798745E-010	0.0216164	5
	56	85	2.504006	270728.8	-336172.6	1	431631.9	-51.15457	5.91991E-010	0.0216377	5
	57	87	1.998082	310334.3	-370252.4	1	483108.8	-50.03129	3.731685E-010	0.0216541	5
	58	90	1.584686	351227.4	-408647.6	1	538844.6	-49.32136	1.35969E-010	0.021578	5
	59	94	1.266892	390551.8	-454579.6	1	599310.7	-49.3325	3.246173E-010	0.0216213	5
	60	98	0.999041	433490	-512064.2	1	670912.3	-49.75028	-1.199838E-010	0.0216007	5
