EXPLAIN
TAG	EISPOT
TITLE	LABEL	Potentiostatic EIS	Test &Identifier
DATE	LABEL	2/25/2020	Date
TIME	LABEL	16:31:23	Time
NOTES	NOTES	1	&Notes...
	
PSTAT	PSTAT	REF600-11020	Potentiostat
VDC	POTEN	0.00000E+000	T	DC &Voltage (V)
FREQINIT	QUANT	1.00000E+006	Initial Fre&q. (Hz)
FREQFINAL	QUANT	1.00000E+000	Final Fre&q. (Hz)
PTSPERDEC	QUANT	1.00000E+001	Points/&decade
VAC	QUANT	2.50000E+001	AC &Voltage (mV rms)
AREA	QUANT	1.60000E-004	&Area (cm^2)
CONDIT	TWOPARAM	F	1.50000E+001	0.00000E+000	Conditionin&g	Time(s)	E(V)
DELAY	TWOPARAM	F	1.00000E+002	0.00000E+000	Init. De&lay	Time(s)	Stab.(mV/s)
SPEED	SELECTOR	1	&Optimize for:
ZGUESS	QUANT	1.00000E+003	E&stimated Z (ohms)
OCVCURVE	TABLE	39
	Pt	T	Vf	Vm	Ach	Over
	#	s	V vs. Ref.	V	V	bits
	0	0.258333	9.15094E-002	9.15094E-002	5.93237E-004	...........
	1	0.516667	9.15086E-002	9.14666E-002	5.94970E-004	...........
	2	0.775	9.15041E-002	9.14542E-002	5.92504E-004	...........
	3	1.03333	9.14932E-002	9.14387E-002	5.92537E-004	...........
	4	1.29167	9.14767E-002	9.14232E-002	5.91504E-004	...........
	5	1.55	9.14585E-002	9.14133E-002	5.91737E-004	...........
	6	1.80833	9.14418E-002	9.14107E-002	5.88371E-004	...........
	7	2.06667	9.14281E-002	9.14077E-002	5.91504E-004	...........
	8	2.325	9.14179E-002	9.13860E-002	5.94304E-004	...........
	9	2.58333	9.14089E-002	9.13440E-002	5.97771E-004	...........
	10	2.84167	9.13950E-002	9.12490E-002	5.93104E-004	...........
	11	3.1	9.13690E-002	9.12485E-002	5.93304E-004	...........
	12	3.35833	9.13336E-002	9.13755E-002	5.93471E-004	...........
	13	3.61667	9.13075E-002	9.13663E-002	5.97504E-004	...........
	14	3.875	9.13068E-002	9.13474E-002	5.93871E-004	...........
	15	4.13333	9.13243E-002	9.13303E-002	5.93337E-004	...........
	16	4.39167	9.13394E-002	9.13002E-002	5.95104E-004	...........
	17	4.65	9.13416E-002	9.13567E-002	5.92571E-004	...........
	18	4.90833	9.13357E-002	9.13058E-002	5.96904E-004	...........
	19	5.16667	9.13299E-002	9.13273E-002	5.95937E-004	...........
	20	5.425	9.13265E-002	9.13322E-002	5.98704E-004	...........
	21	5.68333	9.13241E-002	9.12690E-002	5.96071E-004	...........
	22	5.94167	9.13190E-002	9.12822E-002	5.95871E-004	...........
	23	6.2	9.13084E-002	9.12654E-002	5.97537E-004	...........
	24	6.45833	9.12943E-002	9.12716E-002	5.97470E-004	...........
	25	6.71667	9.12821E-002	9.12813E-002	5.95337E-004	...........
	26	6.975	9.12753E-002	9.12753E-002	5.96404E-004	...........
	27	7.23333	9.12747E-002	9.13256E-002	5.94437E-004	...........
	28	7.49167	9.12804E-002	9.13198E-002	5.94171E-004	...........
	29	7.75	9.12914E-002	9.13001E-002	5.95537E-004	...........
	30	8.00833	9.13020E-002	9.12808E-002	5.93504E-004	...........
	31	8.26667	9.13048E-002	9.12546E-002	5.98670E-004	...........
	32	8.525	9.12968E-002	9.12369E-002	5.97570E-004	...........
	33	8.78333	9.12807E-002	9.12246E-002	5.94604E-004	...........
	34	9.04167	9.12614E-002	9.12163E-002	5.94104E-004	...........
	35	9.3	9.12434E-002	9.12068E-002	5.96770E-004	...........
	36	9.5583	9.12288E-002	9.12006E-002	5.94071E-004	...........
	37	9.8167	9.12175E-002	9.11919E-002	5.90637E-004	...........
	38	10.075	9.12083E-002	9.11832E-002	5.94771E-004	...........
EOC	QUANT	0.0912083	Open Circuit (V)
PSTATMODEL	IQUANT	4	Pstat Model
PSTATSECTION	LABEL	REF600-11020	Pstat Section
PSTATSERIALNO	LABEL	11020	Pstat Serial Number
CTRLMODE	IQUANT	1	Control Mode
IESTAB	IQUANT	0	I/E Stability
CASPEED	IQUANT	1	Control Amp Speed
CONVENTION	IQUANT	1	Current Convention
ICHRANGE	IQUANT	2	Ich Range
ICHRANGEMODE	TOGGLE	F	Ich Auto Range
ICHOFFSETENABLE	TOGGLE	T	Ich Offset Enable
ICHOFFSET	QUANT	0	Ich Offset (V)
ICHFILTER	IQUANT	3	Ich Filter
VCHRANGE	IQUANT	2	Vch Range
VCHRANGEMODE	TOGGLE	F	Vch Auto Range
VCHOFFSETENABLE	TOGGLE	T	Vch Offset Enable
VCHOFFSET	QUANT	0	Vch Offset (V)
VCHFILTER	IQUANT	3	Vch Filter
ACHRANGE	IQUANT	2	Ach Range
ACHOFFSETENABLE	TOGGLE	F	Ach Offset Enable
ACHOFFSET	QUANT	0	Ach Offset (V)
ACHFILTER	IQUANT	3	Ach Filter
IERANGELOWERLIMIT	IQUANT	1	I/E Range Lower Limit
IERANGEMODE	TOGGLE	F	I/E AutoRange
IERANGE	IQUANT	8	I/E Range
POSFEEDENABLE	TOGGLE	F	Positive Feedback IR Comp
POSFEEDRESISTANCE	QUANT	0	Positive Feedback Resistance (ohm)
ACHSELECT	IQUANT	0	Ach Select
CABLEID	IQUANT	14	Cable ID
DCCALDATE	LABEL	1/27/2020	DC Calibration Date
ACCALDATE	LABEL	1/27/2020	AC Calibration Date
THERMOSELECT	IQUANT	1	Thermo Select
FRAMEWORKVERSION	QUANT	6.33	Framework Version
INSTRUMENTVERSION	LABEL	3.50	Instrument Version
ZCURVE	TABLE
	Pt	Time	Freq	Zreal	Zimag	Zsig	Zmod	Zphz	Idc	Vdc	IERange
	#	s	Hz	ohm	ohm	V	ohm	°	A	V	#
	0	1	1000078	1669.583	-1075.93	1	1986.235	-32.79896	-1.20293E-006	0.0935854	8
	1	2	794390.6	1847.154	-1059.698	1	2129.539	-29.84256	-2.017186E-006	0.0936219	8
	2	4	630984.4	2024.356	-1033.126	1	2272.744	-27.03741	-1.046591E-006	0.0933364	8
	3	5	501234.4	2184.044	-1001.609	1	2402.762	-24.63632	9.471926E-007	0.0927677	8
	4	6	398109.4	2336.425	-959.428	1	2525.744	-22.32498	5.466124E-007	0.0926717	8
	5	8	316265.6	2477.112	-922.0979	1	2643.17	-20.41764	-1.015437E-006	0.0929128	8
	6	9	251203.1	2600.641	-882.4445	1	2746.278	-18.743	1.489122E-006	0.0924707	8
	7	11	199546.9	2721.233	-843.3333	1	2848.916	-17.21865	1.709605E-006	0.0925655	8
	8	12	158578.1	2833.063	-809.0315	1	2946.316	-15.93763	-1.426048E-006	0.0930567	8
	9	13	125953.1	2941.873	-773.6944	1	3041.911	-14.73477	5.939858E-007	0.0917536	7
	10	15	100078.1	3037.662	-753.7755	1	3129.787	-13.93608	-1.056318E-008	0.0927422	7
	11	16	79453.13	3127.288	-751.9476	1	3216.42	-13.51996	-1.292754E-008	0.0927527	7
	12	17	63140.62	3216.473	-758.9504	1	3304.8	-13.27652	-9.325493E-009	0.0927099	7
	13	19	50203.12	3306.77	-774.2366	1	3396.199	-13.17767	4.908559E-008	0.0926584	7
	14	20	39890.62	3398.609	-799.0634	1	3491.281	-13.23079	-9.119213E-009	0.0927242	7
	15	21	31640.63	3494.583	-833.6384	1	3592.64	-13.41724	1.534506E-008	0.0926865	7
	16	23	25171.88	3592.566	-877.3537	1	3698.146	-13.72379	-8.927039E-009	0.0927051	7
	17	24	20015.62	3696.003	-931.8305	1	3811.659	-14.15042	-3.057683E-008	0.0927546	7
	18	25	15890.62	3803.509	-996.794	1	3931.956	-14.68536	1.642957E-008	0.0926796	7
	19	27	12609.37	3915.552	-1076.381	1	4060.806	-15.37087	-1.754069E-008	0.0927276	7
	20	28	10078.13	4027.816	-1171.78	1	4194.803	-16.22088	-1.190012E-009	0.0927392	7
	21	29	8015.625	4148.072	-1287.098	1	4343.169	-17.2385	-2.919851E-008	0.092748	7
	22	31	6328.125	4281.258	-1436.776	1	4515.916	-18.55158	-7.462203E-010	0.0927341	7
	23	32	5015.625	4422.777	-1613.188	1	4707.795	-20.03922	4.172052E-008	0.0926102	7
	24	34	3984.375	4578.989	-1828.279	1	4930.491	-21.76563	5.013571E-008	0.0926425	7
	25	35	3170.956	4754.744	-2079.875	1	5189.747	-23.62609	-1.785163E-008	0.0927269	7
	26	36	2527.573	4952.467	-2373.967	1	5492.054	-25.61075	-1.076162E-008	0.092741	7
	27	38	1976.103	5193.146	-2746.735	1	5874.804	-27.87505	-9.420836E-009	0.0927149	7
	28	39	1577.524	5439.882	-3148.019	1	6285.089	-30.05764	5.053265E-008	0.0926437	7
	29	40	1265.625	5697.382	-3604.585	1	6741.899	-32.32047	-8.12681E-009	0.0927126	7
	30	42	998.264	5996.851	-4188	1	7314.476	-34.92916	-7.493691E-009	0.0926956	7
	31	43	796.875	6304.318	-4855.46	1	7957.381	-37.60275	-8.289645E-009	0.0926938	7
	32	44	627.7902	6644.896	-5729.14	1	8773.693	-40.76747	1.371285E-008	0.0927233	7
	33	46	505.5147	6989.414	-6692.658	1	9676.96	-43.75748	-1.586914E-010	0.0926723	6
	34	47	397.9953	7417.163	-8008.961	1	10915.94	-47.19698	1.412447E-009	0.0927143	6
	35	48	315.5048	7908.716	-9595.49	1	12434.68	-50.50426	1.13874E-009	0.0927102	6
	36	50	252.4038	8478.886	-11465.02	1	14259.67	-53.51546	1.702992E-009	0.0927097	6
	37	51	198.6229	9243.296	-13924.45	1	16713.13	-56.42309	1.522691E-009	0.0927098	6
	38	53	158.3615	10164.77	-16756.79	1	19598.79	-58.75875	1.220418E-009	0.0927054	6
	39	54	125.558	11371.44	-20262.84	1	23235.58	-60.699	1.165533E-009	0.0927052	6
	40	55	100.4464	12847.65	-24293.11	1	27481.22	-62.12743	1.527829E-009	0.092703	6
	41	57	79.00281	14905.28	-29480.5	1	33034.33	-63.17893	1.227345E-009	0.0927071	6
	42	58	63.3446	17201.49	-35161.09	1	39143.25	-63.93122	1.168898E-009	0.0926988	6
	43	59	49.86702	20803.27	-42081.07	1	46942.44	-63.69397	1.060915E-009	0.0927007	6
	44	61	39.72458	24859.84	-50038.93	1	55874.02	-63.58136	1.26485E-009	0.092705	6
	45	62	31.6723	29952.34	-59114.92	1	66270.03	-63.12959	7.755016E-010	0.0926996	6
	46	64	24.93351	36589.21	-69809.78	1	78817.36	-62.33974	1.420925E-009	0.0926969	6
	47	65	19.86229	44296.5	-81350.12	1	92628.41	-61.43097	1.376776E-009	0.0927022	6
	48	66	15.83615	53461	-94052.41	1	108184.7	-60.38536	-6.37593E-010	0.092703	5
	49	68	12.40079	64710.87	-109451.6	1	127150.1	-59.40722	-2.570689E-010	0.0927076	5
	50	69	9.93114	76462.09	-124772.8	1	146337.6	-58.49958	-4.840394E-011	0.0927075	5
	51	71	7.944915	89470.1	-141797.5	1	167664.6	-57.74926	4.809278E-010	0.0927033	5
	52	72	6.317385	103817.6	-161991.9	1	192404.5	-57.34494	6.003404E-010	0.0926934	5
	53	74	5.008013	119739.6	-185642.3	1	220908.7	-57.17791	2.372039E-010	0.0927097	5
	54	77	3.945707	137161.9	-214539.6	1	254638.2	-57.40793	-1.109671E-010	0.0927026	5
	55	79	3.158693	155048.2	-246469.3	1	291182.2	-57.82695	2.853914E-010	0.0927079	5
	56	83	2.504006	175459.3	-286697.3	1	336126.9	-58.53328	-2.549672E-011	0.0927118	5
	57	85	1.998082	197637.2	-333579.1	1	387731.2	-59.35432	2.555779E-010	0.0926751	5
	58	88	1.584686	224347.1	-393591.5	1	453040.8	-60.31687	7.544064E-011	0.0926688	5
	59	92	1.266892	255176.8	-461102.5	1	527001.6	-61.0396	2.636657E-010	0.0926775	5
	60	96	0.999041	294339.8	-548556.4	1	622535.2	-61.78326	8.294749E-012	0.0927246	5
