EXPLAIN
TAG	EISPOT
TITLE	LABEL	Potentiostatic EIS	Test &Identifier
DATE	LABEL	2/21/2020	Date
TIME	LABEL	15:16:43	Time
NOTES	NOTES	1	&Notes...
	
PSTAT	PSTAT	REF600-11020	Potentiostat
VDC	POTEN	0.00000E+000	T	DC &Voltage (V)
FREQINIT	QUANT	1.00000E+006	Initial Fre&q. (Hz)
FREQFINAL	QUANT	1.00000E+000	Final Fre&q. (Hz)
PTSPERDEC	QUANT	1.00000E+001	Points/&decade
VAC	QUANT	2.50000E+001	AC &Voltage (mV rms)
AREA	QUANT	2.08200E-005	&Area (cm^2)
CONDIT	TWOPARAM	F	1.50000E+001	0.00000E+000	Conditionin&g	Time(s)	E(V)
DELAY	TWOPARAM	F	1.00000E+002	0.00000E+000	Init. De&lay	Time(s)	Stab.(mV/s)
SPEED	SELECTOR	0	&Optimize for:
ZGUESS	QUANT	2.00000E+003	E&stimated Z (ohms)
OCVCURVE	TABLE	39
	Pt	T	Vf	Vm	Ach	Over
	#	s	V vs. Ref.	V	V	bits
	0	0.258333	-2.47024E-002	-2.47024E-002	5.93155E-004	...........
	1	0.516667	-2.47039E-002	-2.47827E-002	5.91689E-004	...........
	2	0.775	-2.47125E-002	-2.48180E-002	5.94989E-004	...........
	3	1.03333	-2.47337E-002	-2.48139E-002	5.93322E-004	...........
	4	1.29167	-2.47638E-002	-2.48370E-002	5.98355E-004	...........
	5	1.55	-2.47921E-002	-2.47929E-002	5.95289E-004	...........
	6	1.80833	-2.48113E-002	-2.48915E-002	5.95355E-004	...........
	7	2.06667	-2.48283E-002	-2.50833E-002	5.91022E-004	...........
	8	2.325	-2.48679E-002	-2.53138E-002	5.90155E-004	...........
	9	2.58333	-2.49649E-002	-2.59323E-002	5.92122E-004	...........
	10	2.84167	-2.51512E-002	-2.61289E-002	5.95489E-004	...........
	11	3.1	-2.54203E-002	-2.59414E-002	5.96389E-004	...........
	12	3.35833	-2.56935E-002	-2.58265E-002	5.96722E-004	...........
	13	3.61667	-2.58732E-002	-2.59531E-002	5.97155E-004	...........
	14	3.875	-2.59395E-002	-2.59988E-002	5.99655E-004	...........
	15	4.13333	-2.59514E-002	-2.61126E-002	6.03455E-004	...........
	16	4.39167	-2.59708E-002	-2.61739E-002	6.02055E-004	...........
	17	4.65	-2.60180E-002	-2.62008E-002	5.99422E-004	...........
	18	4.90833	-2.60850E-002	-2.64091E-002	5.97622E-004	...........
	19	5.16667	-2.61674E-002	-2.66383E-002	5.92422E-004	...........
	20	5.425	-2.62766E-002	-2.67535E-002	5.97822E-004	...........
	21	5.68333	-2.64093E-002	-2.64340E-002	6.01422E-004	...........
	22	5.94167	-2.65204E-002	-2.64766E-002	6.02022E-004	...........
	23	6.2	-2.65674E-002	-2.66816E-002	5.96322E-004	...........
	24	6.45833	-2.65746E-002	-2.69049E-002	5.96255E-004	...........
	25	6.71667	-2.66096E-002	-2.70413E-002	5.95255E-004	...........
	26	6.975	-2.67081E-002	-2.72019E-002	5.99455E-004	...........
	27	7.23333	-2.68543E-002	-2.73335E-002	5.93522E-004	...........
	28	7.49167	-2.70161E-002	-2.74692E-002	5.97255E-004	...........
	29	7.75	-2.71726E-002	-2.75814E-002	5.86589E-004	...........
	30	8.00833	-2.73177E-002	-2.77431E-002	5.92822E-004	...........
	31	8.26667	-2.74539E-002	-2.78431E-002	5.96522E-004	...........
	32	8.525	-2.75859E-002	-2.79925E-002	5.92289E-004	...........
	33	8.78333	-2.77170E-002	-2.81507E-002	5.95855E-004	...........
	34	9.04167	-2.78492E-002	-2.82172E-002	5.98422E-004	...........
	35	9.3	-2.79805E-002	-2.83374E-002	5.95922E-004	...........
	36	9.5583	-2.81046E-002	-2.84395E-002	5.98855E-004	...........
	37	9.8167	-2.82186E-002	-2.85133E-002	5.93422E-004	...........
	38	10.075	-2.83239E-002	-2.86409E-002	5.96622E-004	...........
EOC	QUANT	-0.0283239	Open Circuit (V)
PSTATMODEL	IQUANT	4	Pstat Model
PSTATSECTION	LABEL	REF600-11020	Pstat Section
PSTATSERIALNO	LABEL	11020	Pstat Serial Number
CTRLMODE	IQUANT	1	Control Mode
IESTAB	IQUANT	0	I/E Stability
CASPEED	IQUANT	1	Control Amp Speed
CONVENTION	IQUANT	1	Current Convention
ICHRANGE	IQUANT	2	Ich Range
ICHRANGEMODE	TOGGLE	F	Ich Auto Range
ICHOFFSETENABLE	TOGGLE	T	Ich Offset Enable
ICHOFFSET	QUANT	0	Ich Offset (V)
ICHFILTER	IQUANT	3	Ich Filter
VCHRANGE	IQUANT	2	Vch Range
VCHRANGEMODE	TOGGLE	F	Vch Auto Range
VCHOFFSETENABLE	TOGGLE	T	Vch Offset Enable
VCHOFFSET	QUANT	0	Vch Offset (V)
VCHFILTER	IQUANT	3	Vch Filter
ACHRANGE	IQUANT	2	Ach Range
ACHOFFSETENABLE	TOGGLE	F	Ach Offset Enable
ACHOFFSET	QUANT	0	Ach Offset (V)
ACHFILTER	IQUANT	1	Ach Filter
IERANGELOWERLIMIT	IQUANT	1	I/E Range Lower Limit
IERANGEMODE	TOGGLE	F	I/E AutoRange
IERANGE	IQUANT	7	I/E Range
POSFEEDENABLE	TOGGLE	F	Positive Feedback IR Comp
POSFEEDRESISTANCE	QUANT	0	Positive Feedback Resistance (ohm)
ACHSELECT	IQUANT	0	Ach Select
CABLEID	IQUANT	14	Cable ID
DCCALDATE	LABEL	1/27/2020	DC Calibration Date
ACCALDATE	LABEL	1/27/2020	AC Calibration Date
THERMOSELECT	IQUANT	1	Thermo Select
FRAMEWORKVERSION	QUANT	6.33	Framework Version
INSTRUMENTVERSION	LABEL	3.50	Instrument Version
ZCURVE	TABLE
	Pt	Time	Freq	Zreal	Zimag	Zsig	Zmod	Zphz	Idc	Vdc	IERange
	#	s	Hz	ohm	ohm	V	ohm	°	A	V	#
	0	1	1000078	1570.202	-2370.285	1	2843.199	-56.47741	-1.378879E-006	-0.0257772	8
	1	1	794390.6	1876.922	-2689.379	1	3279.572	-55.08875	5.27716E-007	-0.0262941	8
	2	2	630984.4	2249.261	-3036.598	1	3778.902	-53.47201	-1.471699E-006	-0.0261245	8
	3	2	501234.4	2693.716	-3420.534	1	4353.867	-51.7791	-6.912199E-008	-0.0264851	8
	4	2	398109.4	3210.785	-3795.229	1	4971.208	-49.76859	-2.582262E-007	-0.02656	8
	5	3	316265.6	3779.065	-4193.526	1	5645.086	-47.97588	4.696797E-008	-0.0266689	8
	6	3	251203.1	4432.558	-4611.692	1	6396.505	-46.13467	-7.076768E-007	-0.026562	8
	7	3	199546.9	5127.512	-5003.544	1	7164.274	-44.29894	-1.106294E-006	-0.02639	8
	8	4	158578.1	5928.365	-5368.694	1	7998.024	-42.16381	-1.058747E-006	-0.0263673	8
	9	4	125953.1	6851.077	-5693.642	1	8908.132	-39.72855	2.375427E-007	-0.0270834	7
	10	4	100078.1	7752.056	-6029.284	1	9820.72	-37.87455	2.34814E-008	-0.0267512	7
	11	5	79453.13	8695.778	-6342.69	1	10763.19	-36.10697	-1.997358E-008	-0.026643	7
	12	5	63140.62	9685.55	-6610.642	1	11726.48	-34.31458	-3.124892E-009	-0.0267125	7
	13	5	50203.12	10696.65	-6875.027	1	12715.51	-32.72996	8.326525E-009	-0.0267128	7
	14	6	39890.62	11715.55	-7110.825	1	13704.67	-31.25591	-2.590783E-008	-0.0266646	7
	15	6	31640.63	12766.53	-7359.346	1	14735.82	-29.96156	-1.189826E-008	-0.0266459	7
	16	6	25171.88	13797.97	-7592.49	1	15748.97	-28.82229	-2.537932E-008	-0.0266694	7
	17	7	20015.62	14846.32	-7872.829	1	16804.6	-27.93649	1.443548E-008	-0.0267262	7
	18	7	15890.62	15890.57	-8193.598	1	17878.63	-27.27682	4.085634E-009	-0.0266718	7
	19	7	12609.37	16967.64	-8503.154	1	18979.05	-26.61726	4.338836E-009	-0.0267218	6
	20	8	10078.13	17994.75	-8963.095	1	20103.43	-26.47767	5.26468E-010	-0.0267424	6
	21	8	8015.625	19062.27	-9545.37	1	21318.63	-26.59927	2.66487E-009	-0.0266815	6
	22	8	6328.125	20208.54	-10281.82	1	22673.8	-26.96635	5.425997E-009	-0.0268254	6
	23	8	5015.625	21405.07	-11176.94	1	24147.49	-27.57191	4.997669E-009	-0.0267657	6
	24	9	3984.375	22685.5	-12244.79	1	25779.2	-28.35853	-6.427427E-010	-0.0267371	6
	25	9	3170.956	24081.51	-13510.4	1	27612.5	-29.29364	-1.867583E-009	-0.0266523	6
	26	9	2527.573	25631.6	-14961.84	1	29678.88	-30.27324	-5.938196E-011	-0.0267394	6
	27	10	1976.103	27488.59	-16774.6	1	32202.63	-31.39316	6.061666E-010	-0.0267557	6
	28	10	1577.524	29454.44	-18681.3	1	34879.14	-32.38467	1.131547E-009	-0.026751	6
	29	10	1265.625	31510.72	-20721.34	1	37713.39	-33.32878	-5.386628E-009	-0.0266469	6
	30	11	998.264	33936.29	-23235.78	1	41128.74	-34.39898	5.56305E-009	-0.0267673	6
	31	11	796.875	36394.27	-25944.13	1	44694.98	-35.48367	-1.158122E-009	-0.0267151	6
	32	11	627.7902	39116.55	-29282.49	1	48862.75	-36.81837	1.295443E-010	-0.0267601	6
	33	12	505.5147	41763.93	-32968.27	1	53208.39	-38.28741	2.795975E-009	-0.0266947	6
	34	12	397.9953	44880.84	-37862.63	1	58718.55	-40.15184	7.758975E-010	-0.0266972	6
	35	12	315.5048	48318.93	-43723.66	1	65165	-42.14185	7.8838E-010	-0.0267005	6
	36	13	252.4038	52181.41	-50563.4	1	72660.56	-44.09779	3.75809E-010	-0.0267011	6
	37	13	198.6229	57211.86	-59411.36	1	82479.73	-46.08046	6.546151E-010	-0.0267043	6
	38	13	158.3615	63095.87	-69344.95	1	93753.99	-47.70144	8.299344E-010	-0.0267069	6
	39	14	125.558	70742.62	-81037.05	1	107571	-48.88014	8.32328E-010	-0.0267073	5
	40	14	100.4464	79638.74	-94241.63	1	123384.8	-49.80057	7.782373E-010	-0.0267095	5
	41	14	79.00281	91728.92	-110176.8	1	143363.6	-50.22055	8.37476E-010	-0.0267103	5
	42	15	63.3446	103324.3	-122220.3	1	160042.8	-49.78902	6.644337E-010	-0.0267144	5
	43	15	49.86702	121332.3	-141698	1	186547.2	-49.42742	2.911549E-010	-0.0267198	5
	44	15	39.72458	139758.9	-163598.3	1	215167.3	-49.49338	5.16223E-010	-0.0267108	5
	45	16	31.6723	162093.1	-185901.3	1	246644.4	-48.91382	2.558547E-010	-0.0267109	5
	46	16	24.93351	188535.7	-208410.1	1	281034.6	-47.86631	6.190927E-010	-0.0267155	5
	47	16	19.86229	217501.4	-233744.1	1	319285.3	-47.06149	6.956272E-010	-0.0267114	5
	48	17	15.83615	255603.8	-258531.8	1	363554.6	-45.32629	-4.344934E-010	-0.026715	5
	49	17	12.40079	294923.3	-286504.2	1	411174.4	-44.17041	8.18158E-010	-0.0267175	5
	50	17	9.93114	334072.1	-312837.8	1	457680.7	-43.11999	-6.779977E-011	-0.0267123	5
	51	18	7.944915	381921	-338559.3	1	510378.4	-41.55584	4.315546E-010	-0.0267207	5
	52	18	6.317385	434885.3	-364413.8	1	567382.3	-39.96145	5.93324E-010	-0.026716	5
	53	19	5.008013	491743.8	-389934.6	1	627583.4	-38.41312	4.62723E-010	-0.0267278	5
	54	20	3.945707	553496.9	-413103.7	1	690661.6	-36.7359	5.466245E-010	-0.0267159	6
	55	22	3.158693	611167.4	-435599.2	1	750514.6	-35.47873	4.707467E-010	-0.0267274	6
	56	24	2.504006	672093.7	-459731.7	1	814286.9	-34.37327	7.917639E-010	-0.0267218	5
	57	25	1.998082	732407.7	-484643	1	878236.8	-33.49309	5.526361E-010	-0.0267738	5
	58	27	1.584686	795767	-517718.7	1	949356.5	-33.04766	5.414021E-010	-0.0267713	5
	59	29	1.266892	858541.6	-553975.8	1	1021755	-32.83222	7.136139E-010	-0.0267859	4
	60	31	0.999041	929483.4	-598354.2	1	1105426	-32.77138	8.215686E-010	-0.0267592	4
