EXPLAIN
TAG	EISPOT
TITLE	LABEL	Potentiostatic EIS	Test &Identifier
DATE	LABEL	3/17/2020	Date
TIME	LABEL	16:14:31	Time
NOTES	NOTES	1	&Notes...
	
PSTAT	PSTAT	REF600-11020	Potentiostat
VDC	POTEN	0.00000E+000	T	DC &Voltage (V)
FREQINIT	QUANT	1.00000E+006	Initial Fre&q. (Hz)
FREQFINAL	QUANT	1.00000E+000	Final Fre&q. (Hz)
PTSPERDEC	QUANT	1.00000E+001	Points/&decade
VAC	QUANT	2.50000E+001	AC &Voltage (mV rms)
AREA	QUANT	4.00000E-004	&Area (cm^2)
CONDIT	TWOPARAM	F	5.00000E+000	0.00000E+000	Conditionin&g	Time(s)	E(V)
DELAY	TWOPARAM	T	3.00000E+000	0.00000E+000	Init. De&lay	Time(s)	Stab.(mV/s)
SPEED	SELECTOR	0	&Optimize for:
ZGUESS	QUANT	5.00000E+003	E&stimated Z (ohms)
OCVCURVE	TABLE	12
	Pt	T	Vf	Vm	Ach	Over
	#	s	V vs. Ref.	V	V	bits
	0	0.258333	1.59491E-002	1.59491E-002	5.67863E-004	...........
	1	0.516667	1.59491E-002	1.59519E-002	5.70663E-004	...........
	2	0.775	1.59494E-002	1.59507E-002	5.72797E-004	...........
	3	1.03333	1.59499E-002	1.59537E-002	5.74963E-004	...........
	4	1.29167	1.59508E-002	1.59560E-002	5.77797E-004	...........
	5	1.55	1.59519E-002	1.59529E-002	5.75430E-004	...........
	6	1.80833	1.59530E-002	1.59528E-002	5.73497E-004	...........
	7	2.06667	1.59537E-002	1.59558E-002	5.78130E-004	...........
	8	2.325	1.59540E-002	1.59561E-002	5.78830E-004	...........
	9	2.58333	1.59544E-002	1.59587E-002	5.72730E-004	...........
	10	2.84167	1.59553E-002	1.59601E-002	5.75163E-004	...........
	11	3.1	1.59566E-002	1.59598E-002	5.79430E-004	...........
EOC	QUANT	0.0159566	Open Circuit (V)
PSTATMODEL	IQUANT	4	Pstat Model
PSTATSECTION	LABEL	REF600-11020	Pstat Section
PSTATSERIALNO	LABEL	11020	Pstat Serial Number
CTRLMODE	IQUANT	1	Control Mode
IESTAB	IQUANT	0	I/E Stability
CASPEED	IQUANT	1	Control Amp Speed
CONVENTION	IQUANT	1	Current Convention
ICHRANGE	IQUANT	2	Ich Range
ICHRANGEMODE	TOGGLE	F	Ich Auto Range
ICHOFFSETENABLE	TOGGLE	T	Ich Offset Enable
ICHOFFSET	QUANT	0	Ich Offset (V)
ICHFILTER	IQUANT	3	Ich Filter
VCHRANGE	IQUANT	2	Vch Range
VCHRANGEMODE	TOGGLE	F	Vch Auto Range
VCHOFFSETENABLE	TOGGLE	T	Vch Offset Enable
VCHOFFSET	QUANT	0	Vch Offset (V)
VCHFILTER	IQUANT	3	Vch Filter
ACHRANGE	IQUANT	2	Ach Range
ACHOFFSETENABLE	TOGGLE	F	Ach Offset Enable
ACHOFFSET	QUANT	0	Ach Offset (V)
ACHFILTER	IQUANT	3	Ach Filter
IERANGELOWERLIMIT	IQUANT	1	I/E Range Lower Limit
IERANGEMODE	TOGGLE	F	I/E AutoRange
IERANGE	IQUANT	6	I/E Range
POSFEEDENABLE	TOGGLE	F	Positive Feedback IR Comp
POSFEEDRESISTANCE	QUANT	0	Positive Feedback Resistance (ohm)
ACHSELECT	IQUANT	0	Ach Select
CABLEID	IQUANT	14	Cable ID
DCCALDATE	LABEL	2/27/2020	DC Calibration Date
ACCALDATE	LABEL	2/27/2020	AC Calibration Date
THERMOSELECT	IQUANT	1	Thermo Select
FRAMEWORKVERSION	QUANT	6.33	Framework Version
INSTRUMENTVERSION	LABEL	3.50	Instrument Version
ZCURVE	TABLE
	Pt	Time	Freq	Zreal	Zimag	Zsig	Zmod	Zphz	Idc	Vdc	IERange
	#	s	Hz	ohm	ohm	V	ohm	°	A	V	#
	0	1	1000078	1645.319	-2132.143	1	2693.159	-52.34357	3.589301E-008	0.0184141	8
	1	1	794390.6	1975.239	-2376.293	1	3090.038	-50.26573	5.244194E-008	0.0180865	8
	2	1	630984.4	2348.392	-2623.692	1	3521.179	-48.16918	3.375824E-008	0.0179045	8
	3	2	501234.4	2765.328	-2869.654	1	3985.217	-46.06065	3.972752E-008	0.0178049	8
	4	2	398109.4	3237.423	-3107.925	1	4487.773	-43.83084	2.083113E-008	0.017733	8
	5	2	316265.6	3776.543	-3335.705	1	5038.771	-41.45318	3.904694E-008	0.0177113	8
	6	3	251203.1	4363.271	-3520.178	1	5606.228	-38.89572	4.469319E-008	0.0177011	8
	7	3	199546.9	4996.674	-3672.89	1	6201.361	-36.31837	1.9562E-008	0.0176889	8
	8	3	158578.1	5679.95	-3753.602	1	6808.184	-33.45877	2.080569E-008	0.0176909	8
	9	4	125953.1	6429.606	-3708.095	1	7422.251	-29.97299	4.683612E-009	0.0176577	7
	10	4	100078.1	7087.314	-3626.653	1	7961.321	-27.0993	1.534234E-009	0.0176303	7
	11	4	79453.13	7741.664	-3491.624	1	8492.632	-24.27619	1.228575E-009	0.0176198	7
	12	5	63140.62	8336.055	-3293.197	1	8962.977	-21.55672	1.725982E-009	0.0176186	7
	13	5	50203.12	8862.709	-3051.436	1	9373.307	-18.99861	1.121355E-009	0.0176169	7
	14	5	39890.62	9317.05	-2787.753	1	9725.17	-16.6577	1.704722E-009	0.0176187	7
	15	6	31640.63	9697.38	-2525.766	1	10020.91	-14.59883	1.272647E-009	0.0176105	7
	16	6	25171.88	10012.14	-2281.479	1	10268.8	-12.83687	2.092295E-009	0.017614	7
	17	6	20015.62	10270.76	-2067.916	1	10476.87	-11.38374	3.114454E-009	0.0176204	7
	18	6	15890.62	10481.78	-1884.215	1	10649.79	-10.19071	1.398303E-009	0.0176043	7
	19	7	12609.37	10695.97	-1656.201	1	10823.44	-8.801976	4.123384E-011	0.0176629	6
	20	7	10078.13	10829.4	-1576.467	1	10943.54	-8.282536	7.686737E-011	0.0176654	6
	21	7	8015.625	10948.56	-1540.645	1	11056.43	-8.009879	-8.830387E-011	0.0176576	6
	22	8	6328.125	11060.51	-1551.758	1	11168.84	-7.986303	-4.392425E-011	0.0176595	6
	23	8	5015.625	11163.76	-1614.133	1	11279.85	-8.227201	-1.364421E-010	0.0176547	6
	24	8	3984.375	11262.15	-1731.55	1	11394.49	-8.740749	-1.49728E-010	0.017655	6
	25	9	3170.956	11355.97	-1909.337	1	11515.36	-9.54416	-2.369307E-010	0.0176563	6
	26	9	2527.573	11457.65	-2155.325	1	11658.61	-10.65354	-2.892724E-010	0.0176544	6
	27	9	1976.103	11581.98	-2510.264	1	11850.89	-12.22907	-2.455956E-011	0.0176607	6
	28	10	1577.524	11709.82	-2931.577	1	12071.21	-14.05522	-2.384895E-010	0.0176528	6
	29	10	1265.625	11854.56	-3448.2	1	12345.88	-16.21841	-1.367568E-010	0.017651	6
	30	10	998.264	12042.86	-4142.124	1	12735.29	-18.98058	-1.882788E-010	0.0176505	6
	31	11	796.875	12261.08	-4957.516	1	13225.39	-22.01493	3.108017E-011	0.0176479	6
	32	11	627.7902	12541.65	-6021.785	1	13912.4	-25.64767	-1.829218E-011	0.0176483	6
	33	11	505.5147	12854.16	-7198.923	1	14732.75	-29.25084	-3.16161E-010	0.0176445	6
	34	12	397.9953	13285.56	-8778.599	1	15923.88	-33.45522	4.345358E-010	0.0176625	6
	35	12	315.5048	13809.88	-10651.11	1	17440.15	-37.64183	3.283502E-010	0.017659	6
	36	12	252.4038	14438.67	-12824.37	1	19311.65	-41.61135	2.977241E-010	0.0176535	6
	37	13	198.6229	15289.58	-15646.75	1	21876.74	-45.66148	3.160959E-010	0.0176567	6
	38	13	158.3615	16304.74	-18868.1	1	24936.91	-49.1683	2.624643E-010	0.0176544	6
	39	13	125.558	17608.14	-22832.22	1	28833.26	-52.3607	3.710316E-010	0.0176453	6
	40	13	100.4464	19172.6	-27386.56	1	33430.71	-55.00516	3.589243E-010	0.0176454	6
	41	14	79.00281	21287.74	-33253.21	1	39483.46	-57.37381	1.805495E-010	0.0176469	6
	42	14	63.3446	23714.8	-39690.28	1	46235.38	-59.14183	4.552859E-011	0.01765	6
	43	15	49.86702	26998.61	-47974.12	1	55049.44	-60.63031	1.793593E-010	0.0176499	6
	44	15	39.72458	30905.63	-57342.8	1	65141.04	-61.67699	2.080734E-010	0.0176489	6
	45	15	31.6723	35751.94	-68342.55	1	77129.15	-62.38465	2.720064E-011	0.0176468	6
	46	16	24.93351	42192.8	-82005.27	1	92223.08	-62.77357	6.607243E-010	0.017642	6
	47	16	19.86229	49867.18	-97148.3	1	109199.5	-62.82813	7.825048E-010	0.0176531	5
	48	16	15.83615	59386.46	-114791.5	1	129243.3	-62.64558	8.17737E-010	0.0176468	5
	49	16	12.40079	72230.59	-136647.6	1	154563.3	-62.13951	1.277438E-009	0.0176447	5
	50	17	9.93114	86367.94	-159087	1	181019.6	-61.50258	1.371114E-009	0.0176494	5
	51	17	7.944915	103677.1	-185063.1	1	212125.6	-60.74134	1.001572E-011	0.0176446	5
	52	18	6.317385	124833.1	-214715.4	1	248366.7	-59.82677	1.46927E-010	0.0176493	5
	53	18	5.008013	150437.8	-248162	1	290199.8	-58.77542	4.66245E-010	0.0176557	5
	54	19	3.945707	181792.4	-286489.5	1	339300.3	-57.60277	2.948168E-010	0.0176413	5
	55	20	3.158693	215008.1	-325755.6	1	390314.2	-56.57404	3.006219E-010	0.017663	5
	56	21	2.504006	255445.6	-370848.4	1	450312.2	-55.44038	-4.898489E-011	0.0176554	5
	57	22	1.998082	298136.4	-418975.4	1	514223.4	-54.56494	1.341492E-011	0.0176434	5
	58	24	1.584686	349082.5	-473259	1	588075.4	-53.58699	1.577251E-010	0.0176899	5
	59	26	1.266892	402710.1	-533932.3	1	668774.3	-52.97514	1.702925E-010	0.017685	5
	60	28	0.999041	464421.7	-605921.2	1	763431.8	-52.53084	1.828052E-010	0.0176628	5
