EXPLAIN
TAG	EISPOT
TITLE	LABEL	Potentiostatic EIS	Test &Identifier
DATE	LABEL	2/11/2020	Date
TIME	LABEL	12:42:23	Time
NOTES	NOTES	6	&Notes...
	
	
	
	
	
	
PSTAT	PSTAT	REF600-11020	Potentiostat
VDC	POTEN	0.00000E+000	T	DC &Voltage (V)
FREQINIT	QUANT	1.00000E+006	Initial Fre&q. (Hz)
FREQFINAL	QUANT	1.00000E+000	Final Fre&q. (Hz)
PTSPERDEC	QUANT	1.00000E+001	Points/&decade
VAC	QUANT	2.50000E+001	AC &Voltage (mV rms)
AREA	QUANT	4.00000E-005	&Area (cm^2)
CONDIT	TWOPARAM	F	5.00000E+000	0.00000E+000	Conditionin&g	Time(s)	E(V)
DELAY	TWOPARAM	F	5.00000E+000	0.00000E+000	Init. De&lay	Time(s)	Stab.(mV/s)
SPEED	SELECTOR	0	&Optimize for:
ZGUESS	QUANT	1.00000E+003	E&stimated Z (ohms)
OCVCURVE	TABLE	39
	Pt	T	Vf	Vm	Ach	Over
	#	s	V vs. Ref.	V	V	bits
	0	0.258333	-1.00923E-001	-1.00923E-001	5.49905E-004	...........
	1	0.516667	-1.00919E-001	-1.00706E-001	5.50738E-004	...........
	2	0.775	-1.00894E-001	-1.00515E-001	5.50838E-004	...........
	3	1.03333	-1.00825E-001	-1.00400E-001	5.52171E-004	...........
	4	1.29167	-1.00708E-001	-1.00227E-001	5.49005E-004	...........
	5	1.55	-1.00561E-001	-1.00102E-001	5.48438E-004	...........
	6	1.80833	-1.00407E-001	-9.99818E-002	5.47271E-004	...........
	7	2.06667	-1.00259E-001	-9.98777E-002	5.48771E-004	...........
	8	2.325	-1.00122E-001	-9.97273E-002	5.54171E-004	...........
	9	2.58333	-9.99933E-002	-9.95424E-002	5.54904E-004	...........
	10	2.84167	-9.98621E-002	-9.94204E-002	5.53371E-004	...........
	11	3.1	-9.97233E-002	-9.93347E-002	5.57338E-004	...........
	12	3.35833	-9.95852E-002	-9.92909E-002	5.55338E-004	...........
	13	3.61667	-9.94635E-002	-9.92188E-002	5.54638E-004	...........
	14	3.875	-9.93661E-002	-9.91476E-002	5.55571E-004	...........
	15	4.13333	-9.92884E-002	-9.91002E-002	5.53371E-004	...........
	16	4.39167	-9.92235E-002	-9.91398E-002	5.51571E-004	...........
	17	4.65	-9.91715E-002	-9.90566E-002	5.55504E-004	...........
	18	4.90833	-9.91328E-002	-9.90228E-002	5.58038E-004	...........
	19	5.16667	-9.90989E-002	-9.89240E-002	5.53838E-004	...........
	20	5.425	-9.90554E-002	-9.87344E-002	5.56504E-004	...........
	21	5.68333	-9.89900E-002	-9.87390E-002	5.57338E-004	...........
	22	5.94167	-9.89073E-002	-9.88207E-002	5.55504E-004	...........
	23	6.2	-9.88318E-002	-9.86588E-002	5.55271E-004	...........
	24	6.45833	-9.87777E-002	-9.86037E-002	5.57038E-004	...........
	25	6.71667	-9.87318E-002	-9.85365E-002	5.53005E-004	...........
	26	6.975	-9.86773E-002	-9.84809E-002	5.60904E-004	...........
	27	7.23333	-9.86138E-002	-9.84025E-002	5.60938E-004	...........
	28	7.49167	-9.85481E-002	-9.84092E-002	5.62304E-004	...........
	29	7.75	-9.84874E-002	-9.83385E-002	5.62238E-004	...........
	30	8.00833	-9.84354E-002	-9.82991E-002	5.53605E-004	...........
	31	8.26667	-9.83900E-002	-9.82623E-002	5.52571E-004	...........
	32	8.525	-9.83472E-002	-9.82259E-002	5.55104E-004	...........
	33	8.78333	-9.83058E-002	-9.81795E-002	5.52538E-004	...........
	34	9.04167	-9.82653E-002	-9.81359E-002	5.59571E-004	...........
	35	9.3	-9.82238E-002	-9.80538E-002	5.57338E-004	...........
	36	9.5583	-9.81775E-002	-9.79833E-002	5.55271E-004	...........
	37	9.8167	-9.81240E-002	-9.79793E-002	5.51138E-004	...........
	38	10.075	-9.80679E-002	-9.79449E-002	5.52638E-004	...........
EOC	QUANT	-0.0980679	Open Circuit (V)
PSTATMODEL	IQUANT	4	Pstat Model
PSTATSECTION	LABEL	REF600-11020	Pstat Section
PSTATSERIALNO	LABEL	11020	Pstat Serial Number
CTRLMODE	IQUANT	1	Control Mode
IESTAB	IQUANT	0	I/E Stability
CASPEED	IQUANT	1	Control Amp Speed
CONVENTION	IQUANT	1	Current Convention
ICHRANGE	IQUANT	2	Ich Range
ICHRANGEMODE	TOGGLE	F	Ich Auto Range
ICHOFFSETENABLE	TOGGLE	T	Ich Offset Enable
ICHOFFSET	QUANT	0	Ich Offset (V)
ICHFILTER	IQUANT	3	Ich Filter
VCHRANGE	IQUANT	2	Vch Range
VCHRANGEMODE	TOGGLE	F	Vch Auto Range
VCHOFFSETENABLE	TOGGLE	T	Vch Offset Enable
VCHOFFSET	QUANT	0	Vch Offset (V)
VCHFILTER	IQUANT	3	Vch Filter
ACHRANGE	IQUANT	2	Ach Range
ACHOFFSETENABLE	TOGGLE	F	Ach Offset Enable
ACHOFFSET	QUANT	0	Ach Offset (V)
ACHFILTER	IQUANT	3	Ach Filter
IERANGELOWERLIMIT	IQUANT	1	I/E Range Lower Limit
IERANGEMODE	TOGGLE	F	I/E AutoRange
IERANGE	IQUANT	8	I/E Range
POSFEEDENABLE	TOGGLE	F	Positive Feedback IR Comp
POSFEEDRESISTANCE	QUANT	0	Positive Feedback Resistance (ohm)
ACHSELECT	IQUANT	0	Ach Select
CABLEID	IQUANT	14	Cable ID
DCCALDATE	LABEL	1/27/2020	DC Calibration Date
ACCALDATE	LABEL	1/27/2020	AC Calibration Date
THERMOSELECT	IQUANT	1	Thermo Select
FRAMEWORKVERSION	QUANT	6.33	Framework Version
INSTRUMENTVERSION	LABEL	3.50	Instrument Version
ZCURVE	TABLE
	Pt	Time	Freq	Zreal	Zimag	Zsig	Zmod	Zphz	Idc	Vdc	IERange
	#	s	Hz	ohm	ohm	V	ohm	°	A	V	#
	0	1	1000078	2246.446	-1756.194	1	2851.444	-38.01707	1.726374E-006	-0.0958873	8
	1	1	794390.6	2552.255	-1871.219	1	3164.722	-36.2475	5.788565E-006	-0.0972577	8
	2	2	630984.4	2871.632	-1914.412	1	3451.267	-33.68995	1.354427E-006	-0.0969577	8
	3	2	501234.4	3195.99	-1925.3	1	3731.104	-31.06523	-1.433985E-006	-0.0961875	8
	4	2	398109.4	3531.191	-1914.435	1	4016.761	-28.46433	-4.34991E-007	-0.0963497	8
	5	3	316265.6	3823.426	-1912.007	1	4274.852	-26.56858	-3.696417E-006	-0.0957266	8
	6	3	251203.1	4182.996	-1857.742	1	4576.97	-23.94685	5.077921E-006	-0.0973364	8
	7	3	199546.9	4445.397	-1783.696	1	4789.898	-21.86291	-3.739224E-006	-0.0957495	8
	8	4	158578.1	4709.808	-1723.269	1	5015.171	-20.09704	-1.280888E-006	-0.0961394	8
	9	4	125953.1	5003.691	-1602.442	1	5254.022	-17.75776	-4.24072E-008	-0.0966595	7
	10	4	100078.1	5244.763	-1550.123	1	5469.042	-16.46538	-1.791262E-008	-0.0964316	7
	11	5	79453.13	5462.932	-1484.516	1	5661.043	-15.20264	-3.57071E-010	-0.0965582	7
	12	5	63140.62	5666.026	-1418.964	1	5841.002	-14.05963	3.112374E-008	-0.0965133	7
	13	5	50203.12	5852.514	-1363.179	1	6009.174	-13.11166	4.754945E-008	-0.0966434	7
	14	6	39890.62	6026.918	-1312.138	1	6168.099	-12.28237	-1.607401E-008	-0.0964452	7
	15	6	31640.63	6189.778	-1273.535	1	6319.434	-11.62625	-4.863952E-008	-0.0964559	7
	16	6	25171.88	6346.556	-1247.108	1	6467.925	-11.11706	-2.460467E-008	-0.0965026	7
	17	7	20015.62	6495.502	-1233.448	1	6611.576	-10.75203	8.214487E-008	-0.0966604	7
	18	7	15890.62	6640.699	-1229.563	1	6753.57	-10.48984	-4.481728E-008	-0.096471	7
	19	7	12609.37	6785.599	-1247.337	1	6899.29	-10.4159	-5.687221E-008	-0.0963848	7
	20	7	10078.13	6924.777	-1284.177	1	7042.843	-10.50596	-2.825939E-008	-0.0964966	7
	21	8	8015.625	7061.367	-1323.463	1	7184.32	-10.61539	7.995146E-008	-0.0966447	7
	22	8	6328.125	7211.119	-1398.736	1	7345.522	-10.97731	-1.298545E-009	-0.0964728	7
	23	8	5015.625	7352.88	-1491.945	1	7502.716	-11.46995	-8.002415E-009	-0.0964642	7
	24	9	3984.375	7499.955	-1615.43	1	7671.958	-12.15534	-8.712977E-009	-0.0964629	7
	25	9	3170.956	7646.454	-1766.226	1	7847.791	-13.00642	-5.706583E-008	-0.0964265	7
	26	9	2527.573	7802.725	-1955.688	1	8044.081	-14.07084	-2.715972E-008	-0.0963991	7
	27	10	1976.103	7961.566	-2208.161	1	8262.113	-15.50149	4.738263E-008	-0.0966623	7
	28	10	1577.524	8120.215	-2504.966	1	8497.809	-17.14422	-1.539342E-008	-0.096452	7
	29	10	1265.625	8269.85	-2870.313	1	8753.806	-19.14095	-4.076642E-008	-0.0964518	7
	30	11	998.264	8448.065	-3365.521	1	9093.764	-21.72124	1.143947E-009	-0.096474	7
	31	11	796.875	8625.445	-3944.264	1	9484.488	-24.57378	7.328041E-009	-0.0966956	6
	32	11	627.7902	8840.722	-4726.144	1	10024.71	-28.12843	2.841611E-009	-0.0965946	6
	33	12	505.5147	9064.003	-5609.404	1	10659.34	-31.75196	4.675053E-009	-0.0964682	6
	34	12	397.9953	9356.049	-6813.014	1	11573.8	-36.06186	9.594229E-010	-0.0965006	6
	35	12	315.5048	9712.69	-8262.414	1	12751.62	-40.38723	7.927573E-010	-0.0965021	6
	36	13	252.4038	10135.26	-9967.35	1	14215.19	-44.52144	1.270512E-009	-0.0965038	6
	37	13	198.6229	10715.88	-12211.64	1	16246.67	-48.73262	7.806032E-010	-0.096503	6
	38	13	158.3615	11415.42	-14807.1	1	18696.58	-52.36984	9.92935E-010	-0.0965047	6
	39	13	125.558	12338.99	-18021.38	1	21840.8	-55.6011	4.411306E-010	-0.096508	6
	40	14	100.4464	13473.59	-21776.75	1	25607.9	-58.25432	1.200332E-009	-0.0965032	6
	41	14	79.00281	15003.04	-26644.04	1	30577.71	-60.61649	5.673588E-010	-0.0965093	6
	42	14	63.3446	16896.89	-31625.19	1	35856.06	-61.88504	9.016777E-010	-0.0965114	6
	43	15	49.86702	19533.05	-38588.55	1	43250.62	-63.15203	1.114441E-009	-0.096513	6
	44	15	39.72458	22645.52	-46592.82	1	51804.54	-64.07884	3.147277E-010	-0.0965079	6
	45	16	31.6723	26720.32	-55740.3	1	61813.89	-64.38826	8.26846E-010	-0.0965087	6
	46	16	24.93351	32108.59	-67164.33	1	74444.66	-64.44939	-2.425377E-010	-0.0965068	6
	47	16	19.86229	38675.82	-79736.45	1	88621.21	-64.1245	-2.393641E-010	-0.096507	6
	48	16	15.83615	46989.23	-92807.74	1	104025.3	-63.14658	-1.882286E-009	-0.0965102	5
	49	17	12.40079	57939.6	-111484.9	1	125641.9	-62.53875	-1.390057E-009	-0.0965034	5
	50	17	9.93114	70595.96	-129165.7	1	147199.1	-61.34104	5.288779E-010	-0.0965086	5
	51	18	7.944915	85235.73	-149024.8	1	171678.5	-60.23231	4.509423E-010	-0.0965069	5
	52	18	6.317385	102409.7	-171232.6	1	199520.3	-59.11746	3.737816E-010	-0.0965154	5
	53	19	5.008013	122713	-196392.6	1	231578.4	-58.0014	4.252149E-010	-0.096501	5
	54	20	3.945707	146169.1	-224782.5	1	268127.9	-56.9653	-1.593922E-010	-0.0965186	5
	55	21	3.158693	170611.8	-254564.7	1	306449.9	-56.16962	-6.225908E-011	-0.0965262	5
	56	23	2.504006	198877.4	-290082.6	1	351710.3	-55.5659	2.381765E-010	-0.0965215	5
	57	24	1.998082	228595.5	-329146.7	1	400741.1	-55.21966	-2.896394E-011	-0.0965446	5
	58	26	1.584686	263921.4	-377183.3	1	460349.6	-55.01888	-1.461533E-010	-0.0965699	5
	59	28	1.266892	300779.6	-430900.7	1	525493.8	-55.08398	-1.020441E-010	-0.0965485	5
	60	30	0.999041	345891.8	-496426.6	1	605045.9	-55.13263	-7.592222E-011	-0.096522	5
