EXPLAIN
TAG	EISPOT
TITLE	LABEL	Potentiostatic EIS	Test &Identifier
DATE	LABEL	9/11/2020	Date
TIME	LABEL	19:59:02	Time
NOTES	NOTES	1	&Notes...
	
PSTAT	PSTAT	REF600-11020	Potentiostat
VDC	POTEN	0.00000E+000	T	DC &Voltage (V)
FREQINIT	QUANT	1.00000E+006	Initial Fre&q. (Hz)
FREQFINAL	QUANT	1.00000E+000	Final Fre&q. (Hz)
PTSPERDEC	QUANT	1.00000E+001	Points/&decade
VAC	QUANT	2.50000E+001	AC &Voltage (mV rms)
AREA	QUANT	4.00000E-005	&Area (cm^2)
CONDIT	TWOPARAM	F	5.00000E+000	0.00000E+000	Conditionin&g	Time(s)	E(V)
DELAY	TWOPARAM	F	3.00000E+000	0.00000E+000	Init. De&lay	Time(s)	Stab.(mV/s)
SPEED	SELECTOR	0	&Optimize for:
ZGUESS	QUANT	1.00000E+003	E&stimated Z (ohms)
OCVCURVE	TABLE	39
	Pt	T	Vf	Vm	Ach	Over
	#	s	V vs. Ref.	V	V	bits
	0	0.258333	-3.32654E-002	-3.32654E-002	6.29191E-004	...........
	1	0.516667	-3.32656E-002	-3.32721E-002	6.30791E-004	...........
	2	0.775	-3.32664E-002	-3.32804E-002	6.26891E-004	...........
	3	1.03333	-3.32688E-002	-3.32871E-002	6.27624E-004	...........
	4	1.29167	-3.32733E-002	-3.32934E-002	6.28924E-004	...........
	5	1.55	-3.32793E-002	-3.33009E-002	6.31724E-004	...........
	6	1.80833	-3.32861E-002	-3.33089E-002	6.30058E-004	...........
	7	2.06667	-3.32932E-002	-3.33143E-002	6.29691E-004	...........
	8	2.325	-3.33004E-002	-3.33225E-002	6.28991E-004	...........
	9	2.58333	-3.33074E-002	-3.33231E-002	6.29624E-004	...........
	10	2.84167	-3.33137E-002	-3.33259E-002	6.34424E-004	...........
	11	3.1	-3.33189E-002	-3.33271E-002	6.29858E-004	...........
	12	3.35833	-3.33227E-002	-3.33306E-002	6.33457E-004	...........
	13	3.61667	-3.33254E-002	-3.33304E-002	6.28491E-004	...........
	14	3.875	-3.33276E-002	-3.33353E-002	6.33557E-004	...........
	15	4.13333	-3.33297E-002	-3.33364E-002	6.26324E-004	...........
	16	4.39167	-3.33318E-002	-3.33384E-002	6.28558E-004	...........
	17	4.65	-3.33340E-002	-3.33361E-002	6.27424E-004	...........
	18	4.90833	-3.33356E-002	-3.33345E-002	6.32591E-004	...........
	19	5.16667	-3.33363E-002	-3.33330E-002	6.31891E-004	...........
	20	5.425	-3.33360E-002	-3.33334E-002	6.33891E-004	...........
	21	5.68333	-3.33350E-002	-3.33321E-002	6.34991E-004	...........
	22	5.94167	-3.33339E-002	-3.33305E-002	6.37257E-004	...........
	23	6.2	-3.33330E-002	-3.33304E-002	6.33791E-004	...........
	24	6.45833	-3.33320E-002	-3.33306E-002	6.33591E-004	...........
	25	6.71667	-3.33312E-002	-3.33278E-002	6.31891E-004	...........
	26	6.975	-3.33305E-002	-3.33271E-002	6.30391E-004	...........
	27	7.23333	-3.33295E-002	-3.33263E-002	6.30191E-004	...........
	28	7.49167	-3.33285E-002	-3.33251E-002	6.35924E-004	...........
	29	7.75	-3.33274E-002	-3.33252E-002	6.33591E-004	...........
	30	8.00833	-3.33264E-002	-3.33228E-002	6.35424E-004	...........
	31	8.26667	-3.33254E-002	-3.33207E-002	6.32391E-004	...........
	32	8.525	-3.33243E-002	-3.33230E-002	6.36257E-004	...........
	33	8.78333	-3.33233E-002	-3.33219E-002	6.31224E-004	...........
	34	9.04167	-3.33225E-002	-3.33199E-002	6.33257E-004	...........
	35	9.3	-3.33218E-002	-3.33153E-002	6.30391E-004	...........
	36	9.5583	-3.33209E-002	-3.33192E-002	6.30524E-004	...........
	37	9.8167	-3.33196E-002	-3.33181E-002	6.37457E-004	...........
	38	10.075	-3.33186E-002	-3.33201E-002	6.32324E-004	...........
EOC	QUANT	-0.0333186	Open Circuit (V)
PSTATMODEL	IQUANT	4	Pstat Model
PSTATSECTION	LABEL	REF600-11020	Pstat Section
PSTATSERIALNO	LABEL	11020	Pstat Serial Number
CTRLMODE	IQUANT	1	Control Mode
IESTAB	IQUANT	0	I/E Stability
CASPEED	IQUANT	1	Control Amp Speed
CONVENTION	IQUANT	1	Current Convention
ICHRANGE	IQUANT	2	Ich Range
ICHRANGEMODE	TOGGLE	F	Ich Auto Range
ICHOFFSETENABLE	TOGGLE	T	Ich Offset Enable
ICHOFFSET	QUANT	0	Ich Offset (V)
ICHFILTER	IQUANT	3	Ich Filter
VCHRANGE	IQUANT	2	Vch Range
VCHRANGEMODE	TOGGLE	F	Vch Auto Range
VCHOFFSETENABLE	TOGGLE	T	Vch Offset Enable
VCHOFFSET	QUANT	0	Vch Offset (V)
VCHFILTER	IQUANT	3	Vch Filter
ACHRANGE	IQUANT	2	Ach Range
ACHOFFSETENABLE	TOGGLE	F	Ach Offset Enable
ACHOFFSET	QUANT	0	Ach Offset (V)
ACHFILTER	IQUANT	3	Ach Filter
IERANGELOWERLIMIT	IQUANT	1	I/E Range Lower Limit
IERANGEMODE	TOGGLE	F	I/E AutoRange
IERANGE	IQUANT	7	I/E Range
POSFEEDENABLE	TOGGLE	F	Positive Feedback IR Comp
POSFEEDRESISTANCE	QUANT	0	Positive Feedback Resistance (ohm)
ACHSELECT	IQUANT	0	Ach Select
CABLEID	IQUANT	14	Cable ID
DCCALDATE	LABEL	9/1/2020	DC Calibration Date
ACCALDATE	LABEL	9/1/2020	AC Calibration Date
THERMOSELECT	IQUANT	1	Thermo Select
FRAMEWORKVERSION	QUANT	6.33	Framework Version
INSTRUMENTVERSION	LABEL	3.50	Instrument Version
ZCURVE	TABLE
	Pt	Time	Freq	Zreal	Zimag	Zsig	Zmod	Zphz	Idc	Vdc	IERange
	#	s	Hz	ohm	ohm	V	ohm	°	A	V	#
	0	1	1000078	1727.452	-2522.002	1	3056.892	-55.59071	-7.169337E-009	-0.0311543	8
	1	2	794390.6	2152.983	-2834.871	1	3559.752	-52.78463	8.960323E-008	-0.0314575	8
	2	2	630984.4	2656.361	-3120.696	1	4098.17	-49.59531	3.046897E-008	-0.0315917	8
	3	2	501234.4	3229.161	-3369.788	1	4667.221	-46.22082	1.085044E-007	-0.0317087	8
	4	2	398109.4	3854.251	-3561.807	1	5248.021	-42.74178	6.953E-008	-0.0317166	8
	5	3	316265.6	4530.847	-3677.838	1	5835.671	-39.06738	1.011676E-007	-0.0317759	8
	6	3	251203.1	5218.386	-3719.477	1	6408.281	-35.4799	9.788906E-008	-0.0317854	8
	7	3	199546.9	5889.962	-3693.097	1	6952.022	-32.08834	6.412039E-008	-0.0317638	8
	8	4	158578.1	6548.412	-3600.533	1	7472.987	-28.80345	6.918506E-008	-0.0317612	8
	9	4	125953.1	7201.321	-3401.804	1	7964.376	-25.2854	2.328842E-009	-0.0317629	7
	10	4	100078.1	7743.862	-3214.563	1	8384.558	-22.54388	5.253877E-009	-0.0317733	7
	11	5	79453.13	8228.115	-3024.774	1	8766.479	-20.18416	2.608823E-009	-0.0317838	7
	12	5	63140.62	8661.033	-2826.312	1	9110.518	-18.0728	1.642826E-010	-0.0317911	7
	13	5	50203.12	9046.246	-2638.744	1	9423.244	-16.2617	4.973523E-009	-0.03179	7
	14	6	39890.62	9386.281	-2463.956	1	9704.3	-14.70863	1.91748E-009	-0.0317903	7
	15	6	31640.63	9693.91	-2309.366	1	9965.2	-13.39972	5.248247E-009	-0.0317929	7
	16	6	25171.88	9966.12	-2181.168	1	10202.01	-12.34501	4.16857E-009	-0.0317944	7
	17	7	20015.62	10206.12	-2081.14	1	10416.14	-11.52524	4.309534E-009	-0.0318014	7
	18	7	15890.62	10429.62	-2012.232	1	10621.96	-10.92015	2.190652E-009	-0.031795	7
	19	7	12609.37	10708.64	-1886.093	1	10873.47	-9.98895	3.687439E-011	-0.031807	6
	20	8	10078.13	10884.92	-1904.237	1	11050.24	-9.92306	6.503913E-010	-0.0318065	6
	21	8	8015.625	11060.52	-1964.702	1	11233.66	-10.0725	2.605063E-010	-0.0318049	6
	22	8	6328.125	11239.37	-2077.093	1	11429.69	-10.47042	-1.081329E-010	-0.0318022	6
	23	9	5015.625	11421.98	-2240.647	1	11639.68	-11.09876	3.907367E-012	-0.03181	6
	24	9	3984.375	11617.29	-2461.563	1	11875.22	-11.96334	3.032699E-011	-0.0318111	6
	25	9	3170.956	11824.94	-2744.001	1	12139.14	-13.06438	-2.617506E-010	-0.0318164	6
	26	9	2527.573	12058.35	-3095.898	1	12449.43	-14.39929	-1.493889E-010	-0.0318083	6
	27	10	1976.103	12340.1	-3565.372	1	12844.84	-16.11536	6.048027E-011	-0.0318159	6
	28	10	1577.524	12640.11	-4093.821	1	13286.53	-17.94586	-7.657569E-011	-0.0318108	6
	29	10	1265.625	12969.05	-4707.662	1	13797.04	-19.95049	1.561348E-012	-0.0318142	6
	30	11	998.264	13374	-5504.426	1	14462.45	-22.37093	-1.326971E-010	-0.0318128	6
	31	11	796.875	13817.23	-6405.075	1	15229.61	-24.87041	-5.566274E-010	-0.0318073	6
	32	11	627.7902	14358.48	-7547.551	1	16221.33	-27.72871	5.667031E-010	-0.0318204	6
	33	12	505.5147	14928.63	-8782.661	1	17320.49	-30.46872	-6.264846E-010	-0.0318151	6
	34	12	397.9953	15658.86	-10412.21	1	18804.63	-33.62153	3.817424E-010	-0.0317978	6
	35	12	315.5048	16494.28	-12312.11	1	20582.74	-36.7394	4.857219E-010	-0.0318003	6
	36	13	252.4038	17439.92	-14490.74	1	22674.49	-39.72302	3.92046E-010	-0.0318028	6
	37	13	198.6229	18645.61	-17288.65	1	25427.47	-42.83741	3.590442E-010	-0.0318057	6
	38	13	158.3615	20018.44	-20450.7	1	28617.63	-45.61197	4.479332E-010	-0.0318076	6
	39	14	125.558	21719.92	-24300.7	1	32592.62	-48.20971	4.830047E-010	-0.0318062	6
	40	14	100.4464	23693.71	-28679.26	1	37200.7	-50.43779	4.032855E-010	-0.0318059	6
	41	14	79.00281	26282.29	-34247.7	1	43170.18	-52.49672	2.744679E-010	-0.0318076	6
	42	15	63.3446	29160.12	-40266.92	1	49716.57	-54.08905	2.819662E-010	-0.031807	6
	43	15	49.86702	32927.93	-47910.27	1	58134.69	-55.49991	1.142768E-010	-0.0318142	6
	44	15	39.72458	37229.09	-56417.43	1	67593.88	-56.57972	3.723204E-010	-0.0318094	6
	45	16	31.6723	42321.07	-66290.26	1	78647.77	-57.445	4.784078E-010	-0.0318126	6
	46	16	24.93351	48738.52	-78509.66	1	92407.85	-58.16814	-1.13532E-010	-0.0318105	6
	47	16	19.86229	55978.5	-92100.34	1	107777.8	-58.70881	-1.175004E-009	-0.0318209	5
	48	17	15.83615	64684.84	-107982.1	1	125874	-59.07699	4.435758E-010	-0.0318277	5
	49	17	12.40079	76117.95	-128005.8	1	148927.6	-59.26241	-6.061737E-010	-0.0318212	5
	50	17	9.93114	88536.37	-149315.2	1	173590.7	-59.3342	-2.264075E-010	-0.0318271	5
	51	17	7.944915	103676	-173618.2	1	202217.7	-59.1565	9.086737E-010	-0.0318276	5
	52	18	6.317385	122579.2	-202604.4	1	236800	-58.82532	-2.163896E-010	-0.0318062	5
	53	19	5.008013	145734.1	-235990.5	1	277362.4	-58.30292	-3.002332E-010	-0.0318208	5
	54	20	3.945707	173975.1	-274193.1	1	324729.4	-57.60493	2.64723E-010	-0.0318166	5
	55	20	3.158693	205779.2	-314641.1	1	375957.6	-56.81481	-1.605395E-010	-0.0318149	5
	56	22	2.504006	244140.4	-361210.6	1	435979	-55.94544	-6.186951E-011	-0.0318256	5
	57	23	1.998082	288273.2	-411340.1	1	502296.8	-54.97667	2.345012E-010	-0.0317768	5
	58	24	1.584686	339310.1	-468356.8	1	578350.6	-54.07783	1.884602E-010	-0.0318043	5
	59	26	1.266892	397702.7	-527237.9	1	660414.4	-52.97226	1.025534E-010	-0.0318515	5
	60	29	0.999041	469062.2	-596210.7	1	758608.3	-51.80649	3.784193E-011	-0.0318678	5
