EXPLAIN
TAG	EISPOT
TITLE	LABEL	Potentiostatic EIS	Test &Identifier
DATE	LABEL	3/17/2020	Date
TIME	LABEL	15:48:02	Time
NOTES	NOTES	1	&Notes...
	
PSTAT	PSTAT	REF600-11020	Potentiostat
VDC	POTEN	0.00000E+000	T	DC &Voltage (V)
FREQINIT	QUANT	1.00000E+006	Initial Fre&q. (Hz)
FREQFINAL	QUANT	1.00000E+000	Final Fre&q. (Hz)
PTSPERDEC	QUANT	1.00000E+001	Points/&decade
VAC	QUANT	2.50000E+001	AC &Voltage (mV rms)
AREA	QUANT	4.00000E-004	&Area (cm^2)
CONDIT	TWOPARAM	F	5.00000E+000	0.00000E+000	Conditionin&g	Time(s)	E(V)
DELAY	TWOPARAM	T	3.00000E+000	0.00000E+000	Init. De&lay	Time(s)	Stab.(mV/s)
SPEED	SELECTOR	0	&Optimize for:
ZGUESS	QUANT	5.00000E+003	E&stimated Z (ohms)
OCVCURVE	TABLE	12
	Pt	T	Vf	Vm	Ach	Over
	#	s	V vs. Ref.	V	V	bits
	0	0.258333	-5.45338E-002	-5.45338E-002	5.81130E-004	...........
	1	0.516667	-5.45339E-002	-5.45384E-002	5.81497E-004	...........
	2	0.775	-5.45345E-002	-5.45460E-002	5.83363E-004	...........
	3	1.03333	-5.45365E-002	-5.45575E-002	5.77930E-004	...........
	4	1.29167	-5.45408E-002	-5.45695E-002	5.80563E-004	...........
	5	1.55	-5.45479E-002	-5.45824E-002	5.82797E-004	...........
	6	1.80833	-5.45575E-002	-5.45946E-002	5.82697E-004	...........
	7	2.06667	-5.45689E-002	-5.46093E-002	5.80763E-004	...........
	8	2.325	-5.45813E-002	-5.46225E-002	5.82663E-004	...........
	9	2.58333	-5.45944E-002	-5.46343E-002	5.78163E-004	...........
	10	2.84167	-5.46076E-002	-5.46480E-002	5.79763E-004	...........
	11	3.1	-5.46209E-002	-5.46625E-002	5.79063E-004	...........
EOC	QUANT	-0.0546209	Open Circuit (V)
PSTATMODEL	IQUANT	4	Pstat Model
PSTATSECTION	LABEL	REF600-11020	Pstat Section
PSTATSERIALNO	LABEL	11020	Pstat Serial Number
CTRLMODE	IQUANT	1	Control Mode
IESTAB	IQUANT	0	I/E Stability
CASPEED	IQUANT	1	Control Amp Speed
CONVENTION	IQUANT	1	Current Convention
ICHRANGE	IQUANT	2	Ich Range
ICHRANGEMODE	TOGGLE	F	Ich Auto Range
ICHOFFSETENABLE	TOGGLE	T	Ich Offset Enable
ICHOFFSET	QUANT	0	Ich Offset (V)
ICHFILTER	IQUANT	3	Ich Filter
VCHRANGE	IQUANT	2	Vch Range
VCHRANGEMODE	TOGGLE	F	Vch Auto Range
VCHOFFSETENABLE	TOGGLE	T	Vch Offset Enable
VCHOFFSET	QUANT	0	Vch Offset (V)
VCHFILTER	IQUANT	3	Vch Filter
ACHRANGE	IQUANT	2	Ach Range
ACHOFFSETENABLE	TOGGLE	F	Ach Offset Enable
ACHOFFSET	QUANT	0	Ach Offset (V)
ACHFILTER	IQUANT	3	Ach Filter
IERANGELOWERLIMIT	IQUANT	1	I/E Range Lower Limit
IERANGEMODE	TOGGLE	F	I/E AutoRange
IERANGE	IQUANT	7	I/E Range
POSFEEDENABLE	TOGGLE	F	Positive Feedback IR Comp
POSFEEDRESISTANCE	QUANT	0	Positive Feedback Resistance (ohm)
ACHSELECT	IQUANT	0	Ach Select
CABLEID	IQUANT	14	Cable ID
DCCALDATE	LABEL	2/27/2020	DC Calibration Date
ACCALDATE	LABEL	2/27/2020	AC Calibration Date
THERMOSELECT	IQUANT	1	Thermo Select
FRAMEWORKVERSION	QUANT	6.33	Framework Version
INSTRUMENTVERSION	LABEL	3.50	Instrument Version
ZCURVE	TABLE
	Pt	Time	Freq	Zreal	Zimag	Zsig	Zmod	Zphz	Idc	Vdc	IERange
	#	s	Hz	ohm	ohm	V	ohm	°	A	V	#
	0	1	1000078	2287.027	-6038.082	1	6456.696	-69.25496	4.619107E-008	-0.0519716	8
	1	1	794390.6	3013.855	-7209.002	1	7813.644	-67.31174	3.420292E-008	-0.052392	8
	2	1	630984.4	3986.78	-8512.341	1	9399.7	-64.90382	5.049992E-008	-0.0525834	8
	3	2	501234.4	5265.671	-9879.44	1	11195.12	-61.9427	4.755351E-008	-0.0527032	8
	4	2	398109.4	6834.312	-11307.22	1	13212.15	-58.85038	2.811321E-008	-0.0527563	8
	5	2	316265.6	8734.861	-12700.14	1	15414	-55.48071	7.999423E-008	-0.052803	8
	6	3	251203.1	10933.04	-13941.46	1	17717.1	-51.89607	2.245733E-008	-0.0528097	8
	7	3	199546.9	13438.48	-15068.25	1	20190.21	-48.27211	5.505916E-008	-0.0528459	8
	8	3	158578.1	16160.56	-15942.34	1	22700.7	-44.61053	4.053881E-008	-0.0528459	8
	9	4	125953.1	19159.59	-16407.87	1	25225.15	-40.57605	8.016836E-009	-0.0528995	7
	10	4	100078.1	21889.64	-16767.82	1	27573.83	-37.4527	1.961636E-009	-0.0529152	7
	11	4	79453.13	24649.15	-16997.1	1	29941.3	-34.58864	1.774734E-009	-0.0529242	7
	12	5	63140.62	27336.38	-17141.38	1	32266.15	-32.08992	2.044765E-009	-0.0529352	7
	13	5	50203.12	29921.2	-17248.63	1	34536.85	-29.9621	3.205554E-009	-0.0529329	7
	14	5	39890.62	32539.85	-17234.54	1	36822.16	-27.90768	2.314807E-009	-0.0529403	7
	15	6	31640.63	34998.95	-17379.01	1	39076.29	-26.40707	1.944755E-009	-0.0529312	7
	16	6	25171.88	37331.95	-17714.67	1	41321.71	-25.38517	3.02615E-009	-0.0529275	7
	17	6	20015.62	39846.95	-17953.71	1	43704.86	-24.25475	3.1096E-009	-0.0529331	7
	18	6	15890.62	42346.73	-18349.25	1	46151.29	-23.42755	2.609532E-009	-0.0529443	7
	19	7	12609.37	45108.81	-18505.77	1	48757.24	-22.30576	4.713967E-010	-0.0528835	6
	20	7	10078.13	47611.54	-19102.78	1	51300.83	-21.86173	5.709382E-010	-0.0528868	6
	21	7	8015.625	50256.83	-19760.11	1	54001.96	-21.46389	5.05931E-010	-0.0528888	6
	22	8	6328.125	53073.67	-20512.71	1	56899.79	-21.13127	5.503123E-010	-0.052884	6
	23	8	5015.625	55939.82	-21337.86	1	59871.25	-20.87901	5.151502E-010	-0.0528844	6
	24	8	3984.375	58844.42	-22250.66	1	62910.71	-20.71296	4.331449E-010	-0.0528937	6
	25	9	3170.956	61799.04	-23295.71	1	66044.01	-20.65439	5.680211E-010	-0.0528909	6
	26	9	2527.573	64850.88	-24469.89	1	69313.87	-20.67277	5.198592E-010	-0.0528885	6
	27	9	1976.103	68279.82	-25922.27	1	73034.91	-20.78915	4.40022E-010	-0.0528945	6
	28	10	1577.524	71581.23	-27501.9	1	76682.64	-21.01705	3.968146E-010	-0.0528911	6
	29	10	1265.625	74934.88	-29265.44	1	80446.88	-21.33288	5.063908E-010	-0.0528896	6
	30	10	998.264	78759.14	-31446.69	1	84805.05	-21.76568	5.210305E-010	-0.0528918	6
	31	11	796.875	82652.83	-33862.65	1	89320.59	-22.27878	4.306782E-010	-0.0528924	6
	32	11	627.7902	87281.45	-36106.78	1	94455.02	-22.47401	1.563599E-011	-0.0528911	5
	33	11	505.5147	91530.29	-39272.02	1	99599.6	-23.22225	-2.303912E-011	-0.0528906	5
	34	12	397.9953	96601.4	-43211.05	1	105825.5	-24.09958	1.417257E-010	-0.0528762	5
	35	12	315.5048	101971.8	-47546.83	1	112512	-24.99842	1.639493E-010	-0.0528784	5
	36	12	252.4038	107585.4	-52262.24	1	119607.5	-25.9093	1.412292E-010	-0.0528843	5
	37	13	198.6229	114151.6	-58009.87	1	128045.9	-26.93888	1.714237E-010	-0.0528817	5
	38	13	158.3615	120928.7	-64197.65	1	136912.7	-27.96258	1.175961E-010	-0.0528808	5
	39	13	125.558	128511	-71422	1	147024.4	-29.0638	1.381249E-010	-0.0528799	5
	40	14	100.4464	136456	-79367.81	1	157859	-30.18386	1.91103E-010	-0.0528837	5
	41	14	79.00281	145836	-89219.12	1	170962.5	-31.45734	8.82534E-011	-0.0528846	5
	42	14	63.3446	155299.4	-99677.5	1	184536	-32.69402	9.411279E-011	-0.0528861	5
	43	15	49.86702	166604.7	-112809.5	1	201204.2	-34.10226	1.973478E-011	-0.0528854	5
	44	15	39.72458	178496.5	-127357.9	1	219273.9	-35.508	1.176099E-010	-0.0528782	5
	45	15	31.6723	191687.3	-144217.4	1	239880.6	-36.95625	2.095414E-010	-0.0528809	5
	46	16	24.93351	207241.4	-165008.7	1	264909.1	-38.52732	-1.78616E-010	-0.0528832	5
	47	16	19.86229	223751	-188575	1	292617.6	-40.12383	-6.181012E-010	-0.0528855	5
	48	16	15.83615	243131.6	-215703.6	1	325024.7	-41.57907	5.594427E-010	-0.0528872	5
	49	16	12.40079	266616.6	-249897.3	1	365421.8	-43.14602	3.15059E-010	-0.0528876	5
	50	17	9.93114	291417.1	-285997.3	1	408311.6	-44.46222	5.44794E-010	-0.0528871	5
	51	17	7.944915	320015.4	-329090.9	1	459032.3	-45.80103	3.784987E-010	-0.0528882	5
	52	18	6.317385	354929.9	-379514.4	1	519621.4	-46.91718	5.988198E-011	-0.0528731	5
	53	18	5.008013	396661.2	-438493.5	1	591283.9	-47.86751	1.804009E-010	-0.0528792	5
	54	19	3.945707	447423.5	-508729.1	1	677490.3	-48.66861	2.620455E-010	-0.052889	5
	55	20	3.158693	502991.9	-582389.5	1	769531.3	-49.18384	1.557569E-010	-0.0528759	5
	56	21	2.504006	572180.2	-670468.6	1	881429.7	-49.52244	4.335115E-011	-0.0528806	5
	57	22	1.998082	650387.4	-765188.6	1	1004250	-49.63646	1.22371E-010	-0.0528714	4
	58	24	1.584686	746764.6	-876461.1	1	1151452	-49.56826	1.832204E-010	-0.0528475	4
	59	26	1.266892	851296.4	-995377	1	1309764	-49.46128	1.564544E-010	-0.0528744	4
	60	28	0.999041	981757	-1132054	1	1498464	-49.06702	1.436938E-010	-0.0529042	4
