EXPLAIN
TAG	EISPOT
TITLE	LABEL	Potentiostatic EIS	Test &Identifier
DATE	LABEL	6/26/2020	Date
TIME	LABEL	14:13:36	Time
NOTES	NOTES	1	&Notes...
	
PSTAT	PSTAT	REF600-11020	Potentiostat
VDC	POTEN	0.00000E+000	T	DC &Voltage (V)
FREQINIT	QUANT	1.00000E+006	Initial Fre&q. (Hz)
FREQFINAL	QUANT	1.00000E+000	Final Fre&q. (Hz)
PTSPERDEC	QUANT	1.00000E+001	Points/&decade
VAC	QUANT	2.50000E+001	AC &Voltage (mV rms)
AREA	QUANT	4.00000E-004	&Area (cm^2)
CONDIT	TWOPARAM	F	5.00000E+000	0.00000E+000	Conditionin&g	Time(s)	E(V)
DELAY	TWOPARAM	F	3.00000E+000	0.00000E+000	Init. De&lay	Time(s)	Stab.(mV/s)
SPEED	SELECTOR	0	&Optimize for:
ZGUESS	QUANT	1.00000E+003	E&stimated Z (ohms)
OCVCURVE	TABLE	39
	Pt	T	Vf	Vm	Ach	Over
	#	s	V vs. Ref.	V	V	bits
	0	0.258333	9.54604E-002	9.54604E-002	5.14750E-004	...........
	1	0.516667	9.54605E-002	9.54626E-002	5.14217E-004	...........
	2	0.775	9.54607E-002	9.54617E-002	5.16117E-004	...........
	3	1.03333	9.54611E-002	9.54641E-002	5.18117E-004	...........
	4	1.29167	9.54617E-002	9.54604E-002	5.15550E-004	...........
	5	1.55	9.54621E-002	9.54615E-002	5.14283E-004	...........
	6	1.80833	9.54622E-002	9.54626E-002	5.15850E-004	...........
	7	2.06667	9.54620E-002	9.54636E-002	5.15083E-004	...........
	8	2.325	9.54621E-002	9.54635E-002	5.15483E-004	...........
	9	2.58333	9.54625E-002	9.54651E-002	5.16850E-004	...........
	10	2.84167	9.54631E-002	9.54632E-002	5.14750E-004	...........
	11	3.1	9.54636E-002	9.54612E-002	5.23483E-004	...........
	12	3.35833	9.54637E-002	9.54663E-002	5.15883E-004	...........
	13	3.61667	9.54636E-002	9.54637E-002	5.17183E-004	...........
	14	3.875	9.54637E-002	9.54632E-002	5.19917E-004	...........
	15	4.13333	9.54638E-002	9.54622E-002	5.17350E-004	...........
	16	4.39167	9.54637E-002	9.54634E-002	5.10017E-004	...........
	17	4.65	9.54634E-002	9.54646E-002	5.08717E-004	...........
	18	4.90833	9.54633E-002	9.54635E-002	5.10517E-004	...........
	19	5.16667	9.54634E-002	9.54628E-002	5.12517E-004	...........
	20	5.425	9.54635E-002	9.54602E-002	5.08283E-004	...........
	21	5.68333	9.54631E-002	9.54594E-002	5.07917E-004	...........
	22	5.94167	9.54622E-002	9.54591E-002	5.08250E-004	...........
	23	6.2	9.54610E-002	9.54569E-002	5.13217E-004	...........
	24	6.45833	9.54598E-002	9.54590E-002	5.10584E-004	...........
	25	6.71667	9.54589E-002	9.54544E-002	5.14383E-004	...........
	26	6.975	9.54580E-002	9.54558E-002	5.12050E-004	...........
	27	7.23333	9.54571E-002	9.54536E-002	5.08784E-004	...........
	28	7.49167	9.54561E-002	9.54553E-002	5.11250E-004	...........
	29	7.75	9.54553E-002	9.54530E-002	5.08183E-004	...........
	30	8.00833	9.54547E-002	9.54524E-002	5.05150E-004	...........
	31	8.26667	9.54541E-002	9.54509E-002	5.03850E-004	...........
	32	8.525	9.54533E-002	9.54506E-002	5.06750E-004	...........
	33	8.78333	9.54524E-002	9.54498E-002	5.05117E-004	...........
	34	9.04167	9.54514E-002	9.54482E-002	5.10350E-004	...........
	35	9.3	9.54505E-002	9.54476E-002	5.06350E-004	...........
	36	9.5583	9.54496E-002	9.54475E-002	5.12117E-004	...........
	37	9.8167	9.54487E-002	9.54444E-002	5.10184E-004	...........
	38	10.075	9.54477E-002	9.54431E-002	5.10617E-004	...........
EOC	QUANT	0.0954477	Open Circuit (V)
PSTATMODEL	IQUANT	4	Pstat Model
PSTATSECTION	LABEL	REF600-11020	Pstat Section
PSTATSERIALNO	LABEL	11020	Pstat Serial Number
CTRLMODE	IQUANT	1	Control Mode
IESTAB	IQUANT	0	I/E Stability
CASPEED	IQUANT	1	Control Amp Speed
CONVENTION	IQUANT	1	Current Convention
ICHRANGE	IQUANT	2	Ich Range
ICHRANGEMODE	TOGGLE	F	Ich Auto Range
ICHOFFSETENABLE	TOGGLE	T	Ich Offset Enable
ICHOFFSET	QUANT	0	Ich Offset (V)
ICHFILTER	IQUANT	3	Ich Filter
VCHRANGE	IQUANT	2	Vch Range
VCHRANGEMODE	TOGGLE	F	Vch Auto Range
VCHOFFSETENABLE	TOGGLE	T	Vch Offset Enable
VCHOFFSET	QUANT	0	Vch Offset (V)
VCHFILTER	IQUANT	3	Vch Filter
ACHRANGE	IQUANT	2	Ach Range
ACHOFFSETENABLE	TOGGLE	F	Ach Offset Enable
ACHOFFSET	QUANT	0	Ach Offset (V)
ACHFILTER	IQUANT	3	Ach Filter
IERANGELOWERLIMIT	IQUANT	1	I/E Range Lower Limit
IERANGEMODE	TOGGLE	F	I/E AutoRange
IERANGE	IQUANT	8	I/E Range
POSFEEDENABLE	TOGGLE	F	Positive Feedback IR Comp
POSFEEDRESISTANCE	QUANT	0	Positive Feedback Resistance (ohm)
ACHSELECT	IQUANT	0	Ach Select
CABLEID	IQUANT	14	Cable ID
DCCALDATE	LABEL	6/26/2020	DC Calibration Date
ACCALDATE	LABEL	6/26/2020	AC Calibration Date
THERMOSELECT	IQUANT	1	Thermo Select
FRAMEWORKVERSION	QUANT	6.33	Framework Version
INSTRUMENTVERSION	LABEL	3.50	Instrument Version
ZCURVE	TABLE
	Pt	Time	Freq	Zreal	Zimag	Zsig	Zmod	Zphz	Idc	Vdc	IERange
	#	s	Hz	ohm	ohm	V	ohm	°	A	V	#
	0	1	1000078	1683.29	-1992.951	1	2608.701	-49.81482	1.759786E-007	0.0979783	8
	1	1	794390.6	1971.743	-2183.41	1	2941.947	-47.91618	3.937951E-008	0.0976229	8
	2	2	630984.4	2281.101	-2378.719	1	3295.713	-46.20011	8.340871E-008	0.0974694	8
	3	2	501234.4	2604.227	-2582.161	1	3667.364	-44.75623	3.238521E-008	0.097388	8
	4	2	398109.4	2939.184	-2804.629	1	4062.604	-43.65802	1.389753E-008	0.0973311	8
	5	3	316265.6	3294.516	-3050.152	1	4489.684	-42.79435	4.205636E-008	0.0972948	8
	6	3	251203.1	3663.771	-3333.43	1	4953.279	-42.29705	4.115259E-008	0.0972863	8
	7	3	199546.9	4052.167	-3674.8	1	5470.303	-42.20403	1.810067E-008	0.0972911	8
	8	4	158578.1	4472.643	-4060.66	1	6040.984	-42.23594	-1.710712E-009	0.0972935	8
	9	4	125953.1	4982.307	-4480.897	1	6700.882	-41.96701	3.184734E-008	0.0972709	7
	10	4	100078.1	5489.82	-5039.538	1	7452.186	-42.55127	9.17059E-009	0.0972479	7
	11	4	79453.13	6058.9	-5685.677	1	8308.862	-43.17985	-8.32852E-009	0.0972596	7
	12	5	63140.62	6706.026	-6445.179	1	9301.136	-43.86372	-9.007907E-010	0.0972547	7
	13	5	50203.12	7475.43	-7333.523	1	10471.99	-44.45098	-8.971732E-009	0.0972516	7
	14	5	39890.62	8396.904	-8343.664	1	11837.43	-44.81778	-7.913304E-009	0.0972527	7
	15	6	31640.63	9521.2	-9495.909	1	13447.14	-44.92379	-5.424846E-009	0.097239	7
	16	6	25171.88	10859.3	-10709.47	1	15251.79	-44.60201	9.814261E-009	0.0972375	7
	17	6	20015.62	12487.61	-12028.85	1	17338.79	-43.92798	-8.956887E-009	0.0972448	7
	18	7	15890.62	14426.86	-13339.08	1	19648.54	-42.75648	8.762734E-011	0.0972464	7
	19	7	12609.37	16879.98	-14540.06	1	22278.84	-40.74092	2.824772E-009	0.097215	6
	20	7	10078.13	19386.49	-15656.63	1	24919.19	-38.92451	-9.969513E-010	0.0972467	6
	21	8	8015.625	22253.54	-16606.5	1	27766.81	-36.73181	1.895621E-009	0.0972024	6
	22	8	6328.125	25476.4	-17311.13	1	30801.33	-34.19597	2.867307E-009	0.0972048	6
	23	8	5015.625	28799.07	-17573.32	1	33737.34	-31.39172	2.830421E-009	0.0972061	6
	24	9	3984.375	32094.47	-17455.94	1	36534.43	-28.54144	-8.023807E-010	0.0972379	6
	25	9	3170.956	35232.96	-16899.31	1	39076.19	-25.62447	-4.554653E-010	0.0972439	6
	26	9	2527.573	38049.37	-16000.45	1	41276.73	-22.80763	-2.665379E-010	0.0972394	6
	27	10	1976.103	40726.9	-14834.42	1	43344.44	-20.01371	2.53163E-009	0.0972005	6
	28	10	1577.524	42735.79	-13690.44	1	44875.11	-17.76289	2.813445E-010	0.0972325	6
	29	10	1265.625	44481.11	-12724.14	1	46265.25	-15.96356	2.582149E-010	0.0972323	6
	30	11	998.264	45869.12	-11810.26	1	47365.16	-14.43875	1.711331E-009	0.0971923	6
	31	11	796.875	46867.57	-11168.08	1	48179.82	-13.40307	2.98682E-010	0.0972333	6
	32	11	627.7902	47820.73	-10893.35	1	49045.77	-12.83274	-1.061422E-009	0.0972283	6
	33	12	505.5147	48509.5	-10953.12	1	49730.7	-12.72364	1.325659E-010	0.097205	6
	34	12	397.9953	49222	-11451.36	1	50536.51	-13.09673	8.199628E-010	0.0972294	6
	35	12	315.5048	49752.51	-12373.45	1	51268.06	-13.96612	8.182802E-010	0.0972303	6
	36	12	252.4038	50360.97	-13749.3	1	52204.12	-15.27046	8.197227E-010	0.0972276	6
	37	13	198.6229	51136.8	-15805.31	1	53523.64	-17.17528	7.656158E-010	0.097226	6
	38	13	158.3615	52087.83	-18360.06	1	55228.92	-19.41667	5.396946E-010	0.0972238	6
	39	13	125.558	53181.94	-21670.55	1	57427.62	-22.16989	6.33307E-010	0.0972232	6
	40	14	100.4464	54547.12	-25605.52	1	60258.04	-25.14631	7.707486E-010	0.0972216	6
	41	14	79.00281	56714.76	-30785.27	1	64531.36	-28.4935	2.647663E-010	0.0972169	6
	42	15	63.3446	59119.09	-36453.95	1	69454.71	-31.65877	3.314056E-010	0.0972197	6
	43	15	49.86702	62541.04	-43737.23	1	76317.28	-34.9665	9.136129E-012	0.0972203	6
	44	16	39.72458	66783.54	-51821.27	1	84530.98	-37.80999	-7.1188E-011	0.097223	6
	45	16	31.6723	72291.2	-61045.02	1	94617.71	-40.17883	-4.279377E-010	0.0972192	6
	46	16	24.93351	79452.68	-71845.85	1	107119.4	-42.12177	3.954189E-010	0.0972121	5
	47	17	19.86229	88261.76	-83483.58	1	121489.3	-43.40637	-6.323849E-010	0.097212	5
	48	17	15.83615	98597.6	-95661.1	1	137377.3	-44.13395	1.720906E-009	0.0972135	5
	49	17	12.40079	111762.3	-109810.4	1	156681.6	-44.49528	2.179359E-009	0.0972049	5
	50	18	9.93114	124957.3	-123306.1	1	175552.6	-44.61893	2.19432E-009	0.0972079	5
	51	18	7.944915	140702.5	-138466.1	1	197408.3	-44.54101	-1.428537E-010	0.0972049	5
	52	18	6.317385	157601.4	-154737.6	1	220866.3	-44.47467	5.316301E-011	0.0972119	5
	53	19	5.008013	175394.7	-172972.2	1	246338.6	-44.60158	6.083172E-010	0.0972193	5
	54	20	3.945707	195512.5	-194374.8	1	275693.1	-44.83281	2.663152E-010	0.0972043	5
	55	21	3.158693	214552.9	-217822.9	1	305744.6	-45.43331	3.105347E-010	0.0972276	5
	56	22	2.504006	236741.5	-246459.7	1	341743.9	-46.15219	-1.64834E-010	0.0972011	5
	57	23	1.998082	259032	-279940.6	1	381397.8	-47.22159	-7.826379E-011	0.0971905	5
	58	25	1.584686	285146.8	-319873.8	1	428518.3	-48.28506	1.546631E-010	0.0972381	5
	59	27	1.266892	313341.3	-367351.3	1	482835.1	-49.53666	1.600619E-010	0.0972374	5
	60	29	0.999041	345658	-426867.6	1	549268.1	-51.00102	1.547971E-010	0.0972217	5
