EXPLAIN
TAG	EISPOT
TITLE	LABEL	Potentiostatic EIS	Test &Identifier
DATE	LABEL	7/5/2020	Date
TIME	LABEL	17:18:36	Time
NOTES	NOTES	1	&Notes...
	
PSTAT	PSTAT	REF600-11020	Potentiostat
VDC	POTEN	0.00000E+000	T	DC &Voltage (V)
FREQINIT	QUANT	1.00000E+006	Initial Fre&q. (Hz)
FREQFINAL	QUANT	1.00000E+000	Final Fre&q. (Hz)
PTSPERDEC	QUANT	1.00000E+001	Points/&decade
VAC	QUANT	2.50000E+001	AC &Voltage (mV rms)
AREA	QUANT	4.00000E-004	&Area (cm^2)
CONDIT	TWOPARAM	F	5.00000E+000	0.00000E+000	Conditionin&g	Time(s)	E(V)
DELAY	TWOPARAM	F	3.00000E+000	0.00000E+000	Init. De&lay	Time(s)	Stab.(mV/s)
SPEED	SELECTOR	0	&Optimize for:
ZGUESS	QUANT	1.00000E+003	E&stimated Z (ohms)
OCVCURVE	TABLE	39
	Pt	T	Vf	Vm	Ach	Over
	#	s	V vs. Ref.	V	V	bits
	0	0.258333	8.60026E-002	8.60026E-002	5.23350E-004	...........
	1	0.516667	8.60027E-002	8.60083E-002	5.19817E-004	...........
	2	0.775	8.60034E-002	8.60147E-002	5.16383E-004	...........
	3	1.03333	8.60053E-002	8.60138E-002	5.20883E-004	...........
	4	1.29167	8.60080E-002	8.60072E-002	5.20983E-004	...........
	5	1.55	8.60104E-002	8.60166E-002	5.21817E-004	...........
	6	1.80833	8.60116E-002	8.60074E-002	5.12484E-004	...........
	7	2.06667	8.60119E-002	8.60138E-002	5.22050E-004	...........
	8	2.325	8.60117E-002	8.60067E-002	5.22017E-004	...........
	9	2.58333	8.60112E-002	8.60073E-002	5.14083E-004	...........
	10	2.84167	8.60101E-002	8.60060E-002	5.14117E-004	...........
	11	3.1	8.60089E-002	8.60092E-002	5.12350E-004	...........
	12	3.35833	8.60084E-002	8.60363E-002	5.15350E-004	...........
	13	3.61667	8.60110E-002	8.60368E-002	5.12217E-004	...........
	14	3.875	8.60173E-002	8.60332E-002	5.17050E-004	...........
	15	4.13333	8.60251E-002	8.60309E-002	5.17517E-004	...........
	16	4.39167	8.60306E-002	8.60275E-002	5.14583E-004	...........
	17	4.65	8.60323E-002	8.60262E-002	5.18017E-004	...........
	18	4.90833	8.60312E-002	8.60231E-002	5.13117E-004	...........
	19	5.16667	8.60288E-002	8.60181E-002	5.16317E-004	...........
	20	5.425	8.60260E-002	8.60222E-002	5.15850E-004	...........
	21	5.68333	8.60234E-002	8.60213E-002	5.11350E-004	...........
	22	5.94167	8.60218E-002	8.60230E-002	5.16317E-004	...........
	23	6.2	8.60213E-002	8.60220E-002	5.17517E-004	...........
	24	6.45833	8.60215E-002	8.60209E-002	5.16683E-004	...........
	25	6.71667	8.60217E-002	8.60185E-002	5.20517E-004	...........
	26	6.975	8.60215E-002	8.60216E-002	5.18883E-004	...........
	27	7.23333	8.60209E-002	8.60193E-002	5.19683E-004	...........
	28	7.49167	8.60205E-002	8.60199E-002	5.15483E-004	...........
	29	7.75	8.60201E-002	8.60183E-002	5.17150E-004	...........
	30	8.00833	8.60199E-002	8.60239E-002	5.14350E-004	...........
	31	8.26667	8.60199E-002	8.60198E-002	5.17050E-004	...........
	32	8.525	8.60204E-002	8.60220E-002	5.17917E-004	...........
	33	8.78333	8.60208E-002	8.60202E-002	5.16883E-004	...........
	34	9.04167	8.60212E-002	8.60251E-002	5.18317E-004	...........
	35	9.3	8.60216E-002	8.60254E-002	5.18583E-004	...........
	36	9.5583	8.60225E-002	8.60275E-002	5.14383E-004	...........
	37	9.8167	8.60238E-002	8.60252E-002	5.17250E-004	...........
	38	10.075	8.60252E-002	8.60352E-002	5.16650E-004	...........
EOC	QUANT	0.0860252	Open Circuit (V)
PSTATMODEL	IQUANT	4	Pstat Model
PSTATSECTION	LABEL	REF600-11020	Pstat Section
PSTATSERIALNO	LABEL	11020	Pstat Serial Number
CTRLMODE	IQUANT	1	Control Mode
IESTAB	IQUANT	0	I/E Stability
CASPEED	IQUANT	1	Control Amp Speed
CONVENTION	IQUANT	1	Current Convention
ICHRANGE	IQUANT	2	Ich Range
ICHRANGEMODE	TOGGLE	F	Ich Auto Range
ICHOFFSETENABLE	TOGGLE	T	Ich Offset Enable
ICHOFFSET	QUANT	0	Ich Offset (V)
ICHFILTER	IQUANT	3	Ich Filter
VCHRANGE	IQUANT	2	Vch Range
VCHRANGEMODE	TOGGLE	F	Vch Auto Range
VCHOFFSETENABLE	TOGGLE	T	Vch Offset Enable
VCHOFFSET	QUANT	0	Vch Offset (V)
VCHFILTER	IQUANT	3	Vch Filter
ACHRANGE	IQUANT	2	Ach Range
ACHOFFSETENABLE	TOGGLE	F	Ach Offset Enable
ACHOFFSET	QUANT	0	Ach Offset (V)
ACHFILTER	IQUANT	3	Ach Filter
IERANGELOWERLIMIT	IQUANT	1	I/E Range Lower Limit
IERANGEMODE	TOGGLE	F	I/E AutoRange
IERANGE	IQUANT	8	I/E Range
POSFEEDENABLE	TOGGLE	F	Positive Feedback IR Comp
POSFEEDRESISTANCE	QUANT	0	Positive Feedback Resistance (ohm)
ACHSELECT	IQUANT	0	Ach Select
CABLEID	IQUANT	14	Cable ID
DCCALDATE	LABEL	6/26/2020	DC Calibration Date
ACCALDATE	LABEL	6/26/2020	AC Calibration Date
THERMOSELECT	IQUANT	1	Thermo Select
FRAMEWORKVERSION	QUANT	6.33	Framework Version
INSTRUMENTVERSION	LABEL	3.50	Instrument Version
ZCURVE	TABLE
	Pt	Time	Freq	Zreal	Zimag	Zsig	Zmod	Zphz	Idc	Vdc	IERange
	#	s	Hz	ohm	ohm	V	ohm	°	A	V	#
	0	1	1000078	1353.793	-1787.287	1	2242.131	-52.85764	5.732107E-006	0.0872652	8
	1	2	794390.6	1590.356	-2022.306	1	2572.732	-51.81823	-7.18802E-006	0.088787	8
	2	2	630984.4	1841.987	-2226.925	1	2890.002	-50.40435	6.567075E-006	0.0869951	8
	3	2	501234.4	2132.633	-2481.835	1	3272.252	-49.32764	-5.770738E-006	0.088111	8
	4	3	398109.4	2440.574	-2748.817	1	3675.921	-48.3993	-5.714227E-006	0.0885405	8
	5	3	316265.6	2771.086	-3050.968	1	4121.568	-47.75224	9.054077E-007	0.0881183	8
	6	3	251203.1	3132.984	-3394.858	1	4619.594	-47.29728	6.043867E-006	0.0866615	8
	7	4	199546.9	3543.745	-3816.068	1	5207.735	-47.11905	-3.672395E-006	0.0881982	8
	8	4	158578.1	3951.596	-4285.635	1	5829.389	-47.3222	1.828613E-006	0.0879792	8
	9	4	125953.1	4459.16	-4856.661	1	6593.273	-47.4433	1.622486E-006	0.088974	7
	10	4	100078.1	5082.807	-5477.433	1	7472.429	-47.14009	1.392639E-006	0.0857607	7
	11	5	79453.13	5772.309	-6167.583	1	8447.403	-46.89611	-1.395683E-006	0.0897506	7
	12	5	63140.62	6557.081	-6993.331	1	9586.55	-46.84398	5.145835E-007	0.08833	7
	13	6	50203.12	7491.376	-7862.4	1	10859.93	-46.38428	-3.478808E-007	0.0893804	7
	14	6	39890.62	8660.452	-8816.021	1	12358.22	-45.51001	-1.349728E-006	0.0883574	7
	15	6	31640.63	9985.62	-9913.18	1	14070.67	-44.79144	5.198291E-007	0.0883305	7
	16	7	25171.88	11576.47	-10868.01	1	15878.55	-43.19207	-1.56808E-006	0.0895387	7
	17	7	20015.62	13385.67	-11874.36	1	17893.48	-41.57606	-1.554115E-006	0.0890564	7
	18	7	15890.62	15517.7	-13046.84	1	20273.6	-40.05616	1.316434E-006	0.0867074	7
	19	8	12609.37	17870.36	-13737.14	1	22540.16	-37.54988	1.665668E-007	0.0842493	6
	20	8	10078.13	20388.78	-14246.15	1	24872.78	-34.94297	-2.144255E-007	0.0889211	6
	21	8	8015.625	23214.72	-14593.35	1	27420.6	-32.15449	1.737286E-007	0.0871995	6
	22	8	6328.125	25998.17	-14341.36	1	29691.4	-28.88243	-2.47994E-007	0.0901035	6
	23	9	5015.625	28821.65	-13866.79	1	31983.98	-25.69332	1.736659E-007	0.0871957	6
	24	9	3984.375	31079.88	-12870.24	1	33639.29	-22.49455	-9.251718E-008	0.0864946	6
	25	9	3170.956	33080.53	-11736.18	1	35100.71	-19.53347	-1.591133E-007	0.0876482	6
	26	10	2527.573	35011.7	-10756.65	1	36626.83	-17.07854	-2.426709E-008	0.0901929	6
	27	10	1976.103	36237.93	-9492.177	1	37460.5	-14.6783	-2.086978E-008	0.0855177	6
	28	10	1577.524	37230.18	-8565.648	1	38202.84	-12.95672	1.664401E-007	0.0842398	6
	29	11	1265.625	37813.45	-7801.686	1	38609.88	-11.65771	-9.290551E-008	0.0864883	6
	30	11	998.264	38676.66	-7422.209	1	39382.4	-10.86322	2.19322E-007	0.0855418	6
	31	11	796.875	38864.74	-7117.433	1	39511.09	-10.37778	-2.074226E-008	0.0855173	6
	32	12	627.7902	39448.58	-7245.547	1	40108.46	-10.40756	2.175218E-007	0.0849209	6
	33	12	505.5147	39562.62	-7553.433	1	40277.23	-10.80903	-1.595499E-007	0.0876433	6
	34	12	397.9953	40120.65	-8309.369	1	40972.09	-11.70107	1.27038E-009	0.0876595	6
	35	13	315.5048	40459.94	-9352.829	1	41526.89	-13.01602	8.095362E-010	0.0876626	6
	36	13	252.4038	40874.36	-10736.68	1	42260.97	-14.71769	8.155374E-011	0.0876622	6
	37	13	198.6229	41383.64	-12690.75	1	43285.81	-17.04874	2.264934E-010	0.0876642	6
	38	14	158.3615	42025.28	-15038.72	1	44635.05	-19.68971	2.751594E-010	0.0876601	6
	39	14	125.558	42920.5	-18015.15	1	46547.98	-22.7694	5.813955E-010	0.0876587	6
	40	14	100.4464	43968.66	-21556.52	1	48968.63	-26.11734	2.675619E-010	0.0876618	6
	41	15	79.00281	45385.57	-26136.53	1	52373.35	-29.93668	5.38503E-010	0.0876586	6
	42	15	63.3446	47225.65	-31008.44	1	56495.89	-33.28897	-7.449086E-011	0.0876608	6
	43	15	49.86702	49721.53	-37751.82	1	62429.4	-37.20813	-4.679814E-011	0.0876557	6
	44	16	39.72458	52777.98	-45163.55	1	69464.1	-40.5545	1.760324E-010	0.0876534	6
	45	16	31.6723	56767.47	-53829.52	1	78231.47	-43.47832	-4.004519E-010	0.0876567	6
	46	17	24.93351	61758.11	-64451.86	1	89264.25	-46.2227	8.933804E-010	0.0876554	6
	47	17	19.86229	67923.8	-76170.13	1	102056.5	-48.2754	1.598479E-009	0.0876359	5
	48	17	15.83615	76427.98	-89819.55	1	117935.5	-49.60535	-2.038923E-009	0.0876374	5
	49	18	12.40079	86223.84	-106210.5	1	136803.6	-50.92962	-3.702145E-010	0.0876451	5
	50	18	9.93114	97959.3	-122925.9	1	157184	-51.44875	-9.335291E-010	0.0876464	5
	51	18	7.944915	111292.2	-141207.5	1	179793	-51.7567	-1.197204E-009	0.0876452	5
	52	19	6.317385	127290.5	-162925.8	1	206755.2	-52.00024	2.87536E-010	0.0876306	5
	53	19	5.008013	146591.6	-187299.2	1	237844.7	-51.95112	1.092976E-010	0.0876373	5
	54	20	3.945707	168695.5	-215163.7	1	273411	-51.90237	-3.686304E-010	0.0876336	5
	55	21	3.158693	192784.1	-244415.4	1	311295	-51.73518	1.628513E-010	0.0876286	5
	56	22	2.504006	220566.2	-278865	1	355549	-51.65803	2.291433E-010	0.0876385	5
	57	24	1.998082	251498.4	-316167.8	1	403996.9	-51.4992	-1.376988E-010	0.0875896	5
	58	25	1.584686	286305.7	-360795.2	1	460591.1	-51.56656	-1.689217E-010	0.0875922	5
	59	27	1.266892	323162.7	-408007.9	1	520484.9	-51.61901	-3.983422E-011	0.0876271	5
	60	30	0.999041	367403.2	-465463.7	1	592993.8	-51.71501	3.583201E-011	0.0876543	5
