EXPLAIN
TAG	EISPOT
TITLE	LABEL	Potentiostatic EIS	Test &Identifier
DATE	LABEL	3/20/2020	Date
TIME	LABEL	14:47:37	Time
NOTES	NOTES	1	&Notes...
	
PSTAT	PSTAT	REF600-11020	Potentiostat
VDC	POTEN	0.00000E+000	T	DC &Voltage (V)
FREQINIT	QUANT	1.00000E+006	Initial Fre&q. (Hz)
FREQFINAL	QUANT	1.00000E+000	Final Fre&q. (Hz)
PTSPERDEC	QUANT	1.00000E+001	Points/&decade
VAC	QUANT	2.50000E+001	AC &Voltage (mV rms)
AREA	QUANT	4.00000E-004	&Area (cm^2)
CONDIT	TWOPARAM	F	5.00000E+000	0.00000E+000	Conditionin&g	Time(s)	E(V)
DELAY	TWOPARAM	T	3.00000E+000	0.00000E+000	Init. De&lay	Time(s)	Stab.(mV/s)
SPEED	SELECTOR	0	&Optimize for:
ZGUESS	QUANT	1.00000E+003	E&stimated Z (ohms)
OCVCURVE	TABLE	12
	Pt	T	Vf	Vm	Ach	Over
	#	s	V vs. Ref.	V	V	bits
	0	0.258333	-4.56038E-002	-4.56038E-002	5.87163E-004	...........
	1	0.516667	-4.56042E-002	-4.56225E-002	5.87263E-004	...........
	2	0.775	-4.56055E-002	-4.55934E-002	5.86663E-004	...........
	3	1.03333	-4.56057E-002	-4.55418E-002	5.89063E-004	...........
	4	1.29167	-4.55984E-002	-4.54882E-002	5.86197E-004	...........
	5	1.55	-4.55778E-002	-4.54892E-002	5.89763E-004	...........
	6	1.80833	-4.55481E-002	-4.55184E-002	5.91463E-004	...........
	7	2.06667	-4.55210E-002	-4.54653E-002	5.89430E-004	...........
	8	2.325	-4.55025E-002	-4.54394E-002	5.88263E-004	...........
	9	2.58333	-4.54869E-002	-4.54100E-002	5.93863E-004	...........
	10	2.84167	-4.54669E-002	-4.53738E-002	5.94596E-004	...........
	11	3.1	-4.54410E-002	-4.53510E-002	5.91996E-004	...........
EOC	QUANT	-0.045441	Open Circuit (V)
PSTATMODEL	IQUANT	4	Pstat Model
PSTATSECTION	LABEL	REF600-11020	Pstat Section
PSTATSERIALNO	LABEL	11020	Pstat Serial Number
CTRLMODE	IQUANT	1	Control Mode
IESTAB	IQUANT	0	I/E Stability
CASPEED	IQUANT	1	Control Amp Speed
CONVENTION	IQUANT	1	Current Convention
ICHRANGE	IQUANT	2	Ich Range
ICHRANGEMODE	TOGGLE	F	Ich Auto Range
ICHOFFSETENABLE	TOGGLE	T	Ich Offset Enable
ICHOFFSET	QUANT	0	Ich Offset (V)
ICHFILTER	IQUANT	3	Ich Filter
VCHRANGE	IQUANT	2	Vch Range
VCHRANGEMODE	TOGGLE	F	Vch Auto Range
VCHOFFSETENABLE	TOGGLE	T	Vch Offset Enable
VCHOFFSET	QUANT	0	Vch Offset (V)
VCHFILTER	IQUANT	3	Vch Filter
ACHRANGE	IQUANT	2	Ach Range
ACHOFFSETENABLE	TOGGLE	F	Ach Offset Enable
ACHOFFSET	QUANT	0	Ach Offset (V)
ACHFILTER	IQUANT	3	Ach Filter
IERANGELOWERLIMIT	IQUANT	1	I/E Range Lower Limit
IERANGEMODE	TOGGLE	F	I/E AutoRange
IERANGE	IQUANT	7	I/E Range
POSFEEDENABLE	TOGGLE	F	Positive Feedback IR Comp
POSFEEDRESISTANCE	QUANT	0	Positive Feedback Resistance (ohm)
ACHSELECT	IQUANT	0	Ach Select
CABLEID	IQUANT	14	Cable ID
DCCALDATE	LABEL	2/27/2020	DC Calibration Date
ACCALDATE	LABEL	2/27/2020	AC Calibration Date
THERMOSELECT	IQUANT	1	Thermo Select
FRAMEWORKVERSION	QUANT	6.33	Framework Version
INSTRUMENTVERSION	LABEL	3.50	Instrument Version
ZCURVE	TABLE
	Pt	Time	Freq	Zreal	Zimag	Zsig	Zmod	Zphz	Idc	Vdc	IERange
	#	s	Hz	ohm	ohm	V	ohm	°	A	V	#
	0	1	1000078	1901.937	-2168.965	1	2884.749	-48.7529	-5.9026E-008	-0.0430872	8
	1	1	794390.6	2349.038	-2312.727	1	3296.466	-44.55373	2.47117E-007	-0.0435008	8
	2	2	630984.4	2831.83	-2371.474	1	3693.664	-39.94399	7.160628E-007	-0.0437043	8
	3	2	501234.4	3317.354	-2355.865	1	4068.775	-35.38099	-1.957468E-007	-0.0437094	8
	4	2	398109.4	3777.783	-2254.59	1	4399.411	-30.82885	-3.286622E-007	-0.0437038	8
	5	3	316265.6	4179.498	-2108.641	1	4681.3	-26.77186	2.387103E-007	-0.0438992	8
	6	3	251203.1	4530.141	-1929.094	1	4923.777	-23.06601	-4.903612E-007	-0.04376	8
	7	3	199546.9	4811.883	-1730.978	1	5113.756	-19.78518	-2.022443E-007	-0.043793	8
	8	4	158578.1	5040.793	-1541.547	1	5271.239	-17.00439	2.139629E-007	-0.0439004	8
	9	4	125953.1	5250.635	-1322.23	1	5414.561	-14.1345	4.672951E-008	-0.0440434	7
	10	4	100078.1	5376.258	-1183.453	1	5504.972	-12.41429	-1.888227E-009	-0.0439204	7
	11	5	79453.13	5494.488	-1077.541	1	5599.151	-11.09563	3.429658E-009	-0.0439356	7
	12	5	63140.62	5595.791	-997.906	1	5684.073	-10.11135	-2.508616E-009	-0.0439376	7
	13	5	50203.12	5685.675	-942.1945	1	5763.213	-9.409191	1.501563E-008	-0.0439484	7
	14	5	39890.62	5768.102	-910.5239	1	5839.525	-8.970407	-1.90541E-009	-0.0439296	7
	15	6	31640.63	5847.716	-902.2552	1	5916.912	-8.77111	-2.058559E-009	-0.0439301	7
	16	6	25171.88	5926.205	-915.1199	1	5996.445	-8.778234	9.038078E-009	-0.0439536	7
	17	6	20015.62	6006.907	-952.018	1	6081.88	-9.005745	7.316091E-010	-0.043934	7
	18	7	15890.62	6092.732	-1011.497	1	6176.125	-9.426096	-5.913343E-009	-0.0439288	7
	19	7	12609.37	6185.063	-1096.029	1	6281.424	-10.04883	8.652545E-009	-0.0439547	7
	20	7	10078.13	6282.684	-1201.822	1	6396.601	-10.82935	1.611483E-008	-0.043968	7
	21	8	8015.625	6390.669	-1338.839	1	6529.406	-11.83229	2.026174E-009	-0.0439252	7
	22	8	6328.125	6514.935	-1513.633	1	6688.457	-13.07965	4.32228E-009	-0.0439267	7
	23	8	5015.625	6649.307	-1722.783	1	6868.862	-14.52548	-5.212636E-009	-0.043932	7
	24	9	3984.375	6799.534	-1974.354	1	7080.376	-16.19151	-2.333789E-009	-0.0439419	7
	25	9	3170.956	6965.896	-2273.044	1	7327.375	-18.07204	-2.370827E-009	-0.0439512	7
	26	9	2527.573	7153.532	-2631.063	1	7622.042	-20.19348	1.556772E-008	-0.0439738	7
	27	10	1976.103	7384.668	-3098.465	1	8008.359	-22.76199	1.66755E-008	-0.0439715	7
	28	10	1577.524	7625.868	-3609.848	1	8437.112	-25.33142	3.685318E-009	-0.0439481	7
	29	10	1265.625	7895.559	-4211.901	1	8948.74	-28.07778	2.124947E-009	-0.0439332	7
	30	11	998.264	8235.921	-4977.079	1	9622.98	-31.14514	-6.101945E-010	-0.0438972	6
	31	11	796.875	8604.024	-5862.208	1	10411.28	-34.26791	-1.350654E-009	-0.0438787	6
	32	11	627.7902	9062.46	-6986.869	1	11443.1	-37.63108	-1.400583E-009	-0.0438812	6
	33	11	505.5147	9546.33	-8216.199	1	12595.18	-40.71744	-1.464428E-009	-0.0438851	6
	34	12	397.9953	10179.9	-9844.64	1	14161.47	-44.04084	3.656075E-010	-0.043886	6
	35	12	315.5048	10925.94	-11758.29	1	16050.97	-47.10139	2.711528E-010	-0.0438792	6
	36	12	252.4038	11799.05	-13964.76	1	18282.02	-49.80498	9.964953E-011	-0.0438825	6
	37	13	198.6229	12960.65	-16810.44	1	21226.62	-52.36821	1.086476E-010	-0.0438798	6
	38	13	158.3615	14337.96	-20027.97	1	24631.21	-54.40126	1.140117E-010	-0.0438832	6
	39	13	125.558	16117.59	-23933.74	1	28854.82	-56.04267	2.293483E-010	-0.043884	6
	40	14	100.4464	18281.52	-28336.56	1	33722.02	-57.17165	7.228236E-011	-0.0438814	6
	41	14	79.00281	21218.52	-33851.48	1	39951.82	-57.92001	3.547903E-010	-0.0438821	6
	42	14	63.3446	24576.64	-39641.18	1	46641.55	-58.20202	-3.479287E-011	-0.0438852	6
	43	15	49.86702	29082.66	-46801.7	1	55101.72	-58.14311	3.3016E-010	-0.0438906	6
	44	15	39.72458	34272.62	-54477.98	1	64361.97	-57.82561	1.621728E-010	-0.0438866	6
	45	15	31.6723	40396.39	-62979.64	1	74821.8	-57.32308	8.394256E-010	-0.0438881	6
	46	16	24.93351	47973.56	-73052.63	1	87396.5	-56.70715	-3.757509E-010	-0.0438878	6
	47	16	19.86229	56218.86	-83708.75	1	100835.1	-56.11466	-1.853921E-009	-0.0438848	5
	48	16	15.83615	65704.67	-95750.1	1	116125.8	-55.54171	5.558546E-010	-0.0438817	5
	49	17	12.40079	77614.19	-110363.6	1	134922.5	-54.88285	-5.767967E-010	-0.0438756	5
	50	17	9.93114	89983.32	-125562.7	1	154476.5	-54.37309	1.007144E-010	-0.0438867	5
	51	17	7.944915	104113.6	-142389.7	1	176392.9	-53.82619	1.238843E-009	-0.0438892	5
	52	18	6.317385	120971	-162426.8	1	202525.2	-53.32226	-6.51428E-010	-0.0438699	5
	53	18	5.008013	140841.3	-185123.2	1	232608.8	-52.73621	-7.362994E-010	-0.043888	5
	54	19	3.945707	163858.5	-210672.7	1	266894.4	-52.1247	9.773554E-011	-0.0438748	5
	55	20	3.158693	188868.9	-237464.6	1	303415.4	-51.5028	-5.762297E-010	-0.0438783	5
	56	21	2.504006	217642.5	-268340.7	1	345506.9	-50.95561	-3.897313E-010	-0.0438858	5
	57	23	1.998082	249509.8	-301850.6	1	391623.4	-50.42284	-8.275476E-011	-0.043841	5
	58	24	1.584686	284712.3	-340391.3	1	443765	-50.09	-1.723615E-010	-0.043879	5
	59	26	1.266892	324129.6	-381471.2	1	500579.9	-49.64601	-2.726897E-010	-0.0439213	5
	60	29	0.999041	371006	-432434.8	1	569776.6	-49.37216	-3.545498E-010	-0.0439403	5
