EXPLAIN
TAG	EISPOT
TITLE	LABEL	Potentiostatic EIS	Test &Identifier
DATE	LABEL	1/25/2020	Date
TIME	LABEL	11:55:18	Time
NOTES	NOTES	6	&Notes...
	
	
	
	
	
	
PSTAT	PSTAT	REF600-11020	Potentiostat
VDC	POTEN	0.00000E+000	T	DC &Voltage (V)
FREQINIT	QUANT	1.00000E+006	Initial Fre&q. (Hz)
FREQFINAL	QUANT	1.00000E+000	Final Fre&q. (Hz)
PTSPERDEC	QUANT	1.00000E+001	Points/&decade
VAC	QUANT	2.50000E+001	AC &Voltage (mV rms)
AREA	QUANT	1.00000E-001	&Area (cm^2)
CONDIT	TWOPARAM	F	5.00000E+000	0.00000E+000	Conditionin&g	Time(s)	E(V)
DELAY	TWOPARAM	F	5.00000E+000	0.00000E+000	Init. De&lay	Time(s)	Stab.(mV/s)
SPEED	SELECTOR	0	&Optimize for:
ZGUESS	QUANT	5.00000E+002	E&stimated Z (ohms)
OCVCURVE	TABLE	39
	Pt	T	Vf	Vm	Ach	Over
	#	s	V vs. Ref.	V	V	bits
	0	0.258333	1.30245E-002	1.30245E-002	6.56580E-004	...........
	1	0.516667	1.30164E-002	1.26036E-002	6.59246E-004	...........
	2	0.775	1.29697E-002	1.23427E-002	6.55779E-004	...........
	3	1.03333	1.28446E-002	1.20036E-002	6.56046E-004	...........
	4	1.29167	1.26312E-002	1.17249E-002	6.57379E-004	...........
	5	1.55	1.23549E-002	1.13453E-002	6.53646E-004	...........
	6	1.80833	1.20455E-002	1.10049E-002	6.52646E-004	...........
	7	2.06667	1.17151E-002	1.05089E-002	6.54680E-004	...........
	8	2.325	1.13650E-002	1.03644E-002	6.58113E-004	...........
	9	2.58333	1.10110E-002	1.02355E-002	6.55079E-004	...........
	10	2.84167	1.06893E-002	9.93078E-003	6.62846E-004	...........
	11	3.1	1.04187E-002	9.67909E-003	6.57579E-004	...........
	12	3.35833	1.01797E-002	9.43119E-003	6.57779E-004	...........
	13	3.61667	9.94160E-003	9.05725E-003	6.55913E-004	...........
	14	3.875	9.68091E-003	8.53570E-003	6.54413E-004	...........
	15	4.13333	9.37266E-003	8.00716E-003	6.54313E-004	...........
	16	4.39167	8.99632E-003	7.55419E-003	6.53446E-004	...........
	17	4.65	8.55742E-003	7.11627E-003	6.52313E-004	...........
	18	4.90833	8.08741E-003	6.70305E-003	6.48280E-004	...........
	19	5.16667	7.61980E-003	6.31030E-003	6.60179E-004	...........
	20	5.425	7.17331E-003	5.94552E-003	6.53246E-004	...........
	21	5.68333	6.75355E-003	5.61266E-003	6.54913E-004	...........
	22	5.94167	6.36108E-003	5.30108E-003	6.55446E-004	...........
	23	6.2	5.99567E-003	5.01482E-003	6.56746E-004	...........
	24	6.45833	5.65667E-003	4.74682E-003	6.49013E-004	...........
	25	6.71667	5.34268E-003	4.50048E-003	6.56813E-004	...........
	26	6.975	5.05141E-003	4.24691E-003	6.50913E-004	...........
	27	7.23333	4.77938E-003	4.02504E-003	6.51746E-004	...........
	28	7.49167	4.52511E-003	3.91832E-003	6.46480E-004	...........
	29	7.75	4.29259E-003	3.67460E-003	6.53446E-004	...........
	30	8.00833	4.08250E-003	3.43915E-003	6.51480E-004	...........
	31	8.26667	3.88217E-003	3.21283E-003	6.56080E-004	...........
	32	8.525	3.67586E-003	2.99761E-003	6.56046E-004	...........
	33	8.78333	3.45936E-003	2.77599E-003	6.54580E-004	...........
	34	9.04167	3.23778E-003	2.57142E-003	6.54146E-004	...........
	35	9.3	3.01714E-003	2.36617E-003	6.58979E-004	...........
	36	9.5583	2.80107E-003	2.17149E-003	6.60613E-004	...........
	37	9.8167	2.59156E-003	2.00215E-003	6.62279E-004	...........
	38	10.075	2.39088E-003	1.84820E-003	6.56946E-004	...........
EOC	QUANT	0.0023909	Open Circuit (V)
PSTATMODEL	IQUANT	4	Pstat Model
PSTATSECTION	LABEL	REF600-11020	Pstat Section
PSTATSERIALNO	LABEL	11020	Pstat Serial Number
CTRLMODE	IQUANT	1	Control Mode
IESTAB	IQUANT	0	I/E Stability
CASPEED	IQUANT	1	Control Amp Speed
CONVENTION	IQUANT	1	Current Convention
ICHRANGE	IQUANT	2	Ich Range
ICHRANGEMODE	TOGGLE	F	Ich Auto Range
ICHOFFSETENABLE	TOGGLE	T	Ich Offset Enable
ICHOFFSET	QUANT	0	Ich Offset (V)
ICHFILTER	IQUANT	3	Ich Filter
VCHRANGE	IQUANT	2	Vch Range
VCHRANGEMODE	TOGGLE	F	Vch Auto Range
VCHOFFSETENABLE	TOGGLE	T	Vch Offset Enable
VCHOFFSET	QUANT	0	Vch Offset (V)
VCHFILTER	IQUANT	3	Vch Filter
ACHRANGE	IQUANT	2	Ach Range
ACHOFFSETENABLE	TOGGLE	F	Ach Offset Enable
ACHOFFSET	QUANT	0	Ach Offset (V)
ACHFILTER	IQUANT	3	Ach Filter
IERANGELOWERLIMIT	IQUANT	1	I/E Range Lower Limit
IERANGEMODE	TOGGLE	F	I/E AutoRange
IERANGE	IQUANT	6	I/E Range
POSFEEDENABLE	TOGGLE	F	Positive Feedback IR Comp
POSFEEDRESISTANCE	QUANT	0	Positive Feedback Resistance (ohm)
ACHSELECT	IQUANT	0	Ach Select
CABLEID	IQUANT	14	Cable ID
DCCALDATE	LABEL	12/22/2019	DC Calibration Date
ACCALDATE	LABEL	12/22/2019	AC Calibration Date
THERMOSELECT	IQUANT	1	Thermo Select
FRAMEWORKVERSION	QUANT	6.33	Framework Version
INSTRUMENTVERSION	LABEL	3.50	Instrument Version
ZCURVE	TABLE
	Pt	Time	Freq	Zreal	Zimag	Zsig	Zmod	Zphz	Idc	Vdc	IERange
	#	s	Hz	ohm	ohm	V	ohm	°	A	V	#
	0	2	1000078	2027.682	-1045.165	1	2281.198	-27.26876	-5.257942E-007	0.0049728	8
	1	2	794390.6	2204.661	-975.002	1	2410.634	-23.8572	1.108114E-006	0.00428	8
	2	2	630984.4	2361.545	-877.6316	1	2519.351	-20.3868	-1.133862E-006	0.0044408	8
	3	3	501234.4	2480.967	-781.8164	1	2601.237	-17.49098	1.227549E-006	0.0040459	8
	4	3	398109.4	2575.975	-688.7202	1	2666.455	-14.96865	-2.267675E-006	0.0045988	8
	5	3	316265.6	2657.764	-611.8978	1	2727.294	-12.96529	-1.98283E-006	0.0045471	8
	6	3	251203.1	2717.343	-541.0276	1	2770.679	-11.26043	1.207724E-006	0.0039191	8
	7	4	199546.9	2773.791	-493.1435	1	2817.287	-10.0811	-3.158339E-007	0.0041677	8
	8	4	158578.1	2809.824	-450.3206	1	2845.681	-9.105165	1.283044E-006	0.0038381	8
	9	4	125953.1	2858.882	-403.3417	1	2887.194	-8.0305	-3.181044E-008	0.0039865	7
	10	5	100078.1	2885.883	-379.3775	1	2910.713	-7.489144	3.191612E-008	0.0039996	7
	11	5	79453.13	2916.953	-378.4644	1	2941.402	-7.392628	-1.414956E-008	0.0041689	7
	12	5	63140.62	2950.123	-387.9129	1	2975.517	-7.49087	-1.259778E-008	0.0040832	7
	13	6	50203.12	2984.225	-405.6731	1	3011.673	-7.741289	-1.438868E-008	0.0041638	7
	14	6	39890.62	3020.807	-432.5634	1	3051.62	-8.149053	-3.404599E-008	0.004142	7
	15	6	31640.63	3060.215	-470.2856	1	3096.14	-8.736712	4.752135E-008	0.0039809	7
	16	7	25171.88	3102.962	-518.3506	1	3145.959	-9.483705	-2.303828E-008	0.0040902	7
	17	7	20015.62	3150.888	-579.1384	1	3203.669	-10.41481	2.6043E-009	0.0040859	7
	18	7	15890.62	3204.634	-653.5479	1	3270.596	-11.52674	5.247829E-008	0.0039809	7
	19	8	12609.37	3266.67	-744.3948	1	3350.412	-12.83711	4.772142E-008	0.0039789	7
	20	8	10078.13	3334.596	-849.5897	1	3441.124	-14.29374	1.420279E-008	0.0040634	7
	21	8	8015.625	3412.088	-975.586	1	3548.819	-15.95632	1.40793E-008	0.0040686	7
	22	9	6328.125	3505.611	-1131.791	1	3683.783	-17.89274	1.512007E-008	0.0040654	7
	23	9	5015.625	3611.613	-1312.891	1	3842.842	-19.97717	7.891473E-008	0.0039632	7
	24	9	3984.375	3733.121	-1525.896	1	4032.933	-22.23206	-8.112783E-009	0.0040981	7
	25	10	3170.956	3872.253	-1773.98	1	4259.266	-24.61376	-1.109441E-008	0.0040645	7
	26	10	2527.573	4032.978	-2062.621	1	4529.825	-27.08696	-1.602789E-008	0.0041317	7
	27	10	1976.103	4235.868	-2431.201	1	4883.985	-29.85392	-2.691064E-008	0.0040912	7
	28	10	1577.524	4453.865	-2830.379	1	5277.117	-32.43549	5.333779E-008	0.003974	7
	29	11	1265.625	4700.971	-3280.783	1	5732.597	-34.91099	4.556145E-009	0.0040183	7
	30	11	998.264	5007.82	-3853.142	1	6318.62	-37.57558	1.548526E-008	0.0040593	7
	31	11	796.875	5342.681	-4485.208	1	6975.768	-40.01363	-2.800417E-008	0.0041111	7
	32	12	627.7902	5748.581	-5272.867	1	7800.597	-42.5285	3.357713E-008	0.0039777	7
	33	12	505.5147	6166.036	-6112.973	1	8682.651	-44.7524	1.542629E-008	0.0040115	7
	34	12	397.9953	6691.054	-7213.789	1	9839.15	-47.15295	5.017975E-009	0.004068	7
	35	13	315.5048	7269.109	-8485.194	1	11173.11	-49.41394	6.138307E-010	0.0040771	6
	36	13	252.4038	7896.181	-9945.83	1	12699.19	-51.5533	4.141978E-010	0.0040741	6
	37	13	198.6229	8664.764	-11836.86	1	14669.34	-53.7953	5.968425E-010	0.004074	6
	38	14	158.3615	9504.82	-14002.37	1	16923.59	-55.8313	4.171542E-010	0.0040697	6
	39	14	125.558	10518.97	-16690.39	1	19728.61	-57.77919	6.62799E-010	0.0040677	6
	40	14	100.4464	11690.78	-19800.01	1	22993.79	-59.44056	7.705515E-010	0.0040695	6
	41	15	79.00281	13250.74	-23870.23	1	27301.46	-60.96466	2.288949E-010	0.0040672	6
	42	15	63.3446	14909.23	-28470.04	1	32137.64	-62.35979	5.769592E-010	0.0040672	6
	43	15	49.86702	17355	-34268.52	1	38412.59	-63.14045	2.048048E-010	0.0040613	6
	44	16	39.72458	20356.98	-40832.08	1	45625.27	-63.50128	9.095897E-010	0.0040716	6
	45	16	31.6723	24081.43	-48510.91	1	54159.24	-63.59961	1.15433E-009	0.0040685	6
	46	16	24.93351	28971.65	-57985.04	1	64819.91	-63.45145	6.034905E-011	0.0040703	6
	47	17	19.86229	34776.54	-68358.44	1	76696.05	-63.03583	8.595186E-010	0.0040706	6
	48	17	15.83615	42107.21	-79892.16	1	90309.33	-62.2085	-7.926456E-010	0.0040683	6
	49	17	12.40079	51475.71	-94721.43	1	107804.9	-61.47844	-1.290962E-009	0.0040682	5
	50	18	9.93114	61564.1	-109062	1	125238.4	-60.55582	-1.713129E-009	0.0040624	5
	51	18	7.944915	73908.38	-126473.7	1	146485.6	-59.69895	-2.746479E-010	0.0040651	5
	52	18	6.317385	87637.18	-144831.8	1	169282.4	-58.82202	1.651253E-010	0.0040678	5
	53	19	5.008013	104318.1	-166501.4	1	196481.5	-57.93161	-3.286467E-010	0.0040558	5
	54	20	3.945707	124258.2	-191486.6	1	228270.1	-57.01993	1.209472E-011	0.0040689	5
	55	21	3.158693	144891.9	-217417.2	1	261273.6	-56.31958	4.407807E-011	0.0040498	5
	56	23	2.504006	169532.2	-247900.2	1	300325.9	-55.63284	4.828136E-010	0.0040536	5
	57	24	1.998082	194546.4	-281255.5	1	341983.8	-55.32812	3.663956E-010	0.0040584	5
	58	25	1.584686	223884	-320363.2	1	390840.9	-55.05244	1.394839E-010	0.0040141	5
	59	27	1.266892	253957.8	-365904.1	1	445399.1	-55.23721	1.487714E-010	0.0040133	5
	60	30	0.999041	287920.8	-422617.6	1	511374.6	-55.73419	1.634384E-010	0.0040268	5
