EXPLAIN
TAG	EISPOT
TITLE	LABEL	Potentiostatic EIS	Test &Identifier
DATE	LABEL	3/9/2020	Date
TIME	LABEL	20:35:21	Time
NOTES	NOTES	1	&Notes...
	
PSTAT	PSTAT	REF600-11020	Potentiostat
VDC	POTEN	0.00000E+000	T	DC &Voltage (V)
FREQINIT	QUANT	1.00000E+006	Initial Fre&q. (Hz)
FREQFINAL	QUANT	1.00000E+000	Final Fre&q. (Hz)
PTSPERDEC	QUANT	1.00000E+001	Points/&decade
VAC	QUANT	2.50000E+001	AC &Voltage (mV rms)
AREA	QUANT	4.00000E-005	&Area (cm^2)
CONDIT	TWOPARAM	F	5.00000E+000	0.00000E+000	Conditionin&g	Time(s)	E(V)
DELAY	TWOPARAM	T	3.00000E+000	0.00000E+000	Init. De&lay	Time(s)	Stab.(mV/s)
SPEED	SELECTOR	0	&Optimize for:
ZGUESS	QUANT	1.00000E+003	E&stimated Z (ohms)
OCVCURVE	TABLE	12
	Pt	T	Vf	Vm	Ach	Over
	#	s	V vs. Ref.	V	V	bits
	0	0.258333	1.76862E-002	1.76862E-002	5.88396E-004	...........
	1	0.516667	1.76858E-002	1.76612E-002	5.84630E-004	...........
	2	0.775	1.76827E-002	1.76334E-002	5.87096E-004	...........
	3	1.03333	1.76740E-002	1.76113E-002	5.89230E-004	...........
	4	1.29167	1.76583E-002	1.75878E-002	5.91496E-004	...........
	5	1.55	1.76375E-002	1.75725E-002	5.92530E-004	...........
	6	1.80833	1.76150E-002	1.75522E-002	5.89230E-004	...........
	7	2.06667	1.75933E-002	1.75342E-002	5.88530E-004	...........
	8	2.325	1.75731E-002	1.75151E-002	5.84463E-004	...........
	9	2.58333	1.75541E-002	1.75020E-002	5.86996E-004	...........
	10	2.84167	1.75360E-002	1.74876E-002	5.86563E-004	...........
	11	3.1	1.75190E-002	1.74694E-002	5.90796E-004	...........
EOC	QUANT	0.017519	Open Circuit (V)
PSTATMODEL	IQUANT	4	Pstat Model
PSTATSECTION	LABEL	REF600-11020	Pstat Section
PSTATSERIALNO	LABEL	11020	Pstat Serial Number
CTRLMODE	IQUANT	1	Control Mode
IESTAB	IQUANT	0	I/E Stability
CASPEED	IQUANT	1	Control Amp Speed
CONVENTION	IQUANT	1	Current Convention
ICHRANGE	IQUANT	2	Ich Range
ICHRANGEMODE	TOGGLE	F	Ich Auto Range
ICHOFFSETENABLE	TOGGLE	T	Ich Offset Enable
ICHOFFSET	QUANT	0	Ich Offset (V)
ICHFILTER	IQUANT	3	Ich Filter
VCHRANGE	IQUANT	2	Vch Range
VCHRANGEMODE	TOGGLE	F	Vch Auto Range
VCHOFFSETENABLE	TOGGLE	T	Vch Offset Enable
VCHOFFSET	QUANT	0	Vch Offset (V)
VCHFILTER	IQUANT	3	Vch Filter
ACHRANGE	IQUANT	2	Ach Range
ACHOFFSETENABLE	TOGGLE	F	Ach Offset Enable
ACHOFFSET	QUANT	0	Ach Offset (V)
ACHFILTER	IQUANT	3	Ach Filter
IERANGELOWERLIMIT	IQUANT	1	I/E Range Lower Limit
IERANGEMODE	TOGGLE	F	I/E AutoRange
IERANGE	IQUANT	7	I/E Range
POSFEEDENABLE	TOGGLE	F	Positive Feedback IR Comp
POSFEEDRESISTANCE	QUANT	0	Positive Feedback Resistance (ohm)
ACHSELECT	IQUANT	0	Ach Select
CABLEID	IQUANT	14	Cable ID
DCCALDATE	LABEL	2/27/2020	DC Calibration Date
ACCALDATE	LABEL	2/27/2020	AC Calibration Date
THERMOSELECT	IQUANT	1	Thermo Select
FRAMEWORKVERSION	QUANT	6.33	Framework Version
INSTRUMENTVERSION	LABEL	3.50	Instrument Version
ZCURVE	TABLE
	Pt	Time	Freq	Zreal	Zimag	Zsig	Zmod	Zphz	Idc	Vdc	IERange
	#	s	Hz	ohm	ohm	V	ohm	°	A	V	#
	0	1	1000078	1626.306	-2004.458	1	2581.225	-50.94605	1.876881E-008	0.0197733	8
	1	2	794390.6	1929.309	-2246.642	1	2961.356	-49.34558	3.815493E-008	0.019461	8
	2	2	630984.4	2293.031	-2498.998	1	3391.604	-47.46114	4.897556E-008	0.0193294	8
	3	2	501234.4	2716.885	-2750.596	1	3866.166	-45.35326	5.214033E-008	0.0192389	8
	4	2	398109.4	3214.641	-2977.347	1	4381.61	-42.80534	3.717623E-008	0.0191762	8
	5	3	316265.6	3780.863	-3150.215	1	4921.258	-39.80106	3.26223E-009	0.0191696	8
	6	3	251203.1	4403.53	-3268.665	1	5484.09	-36.58587	4.625917E-008	0.0191722	8
	7	3	199546.9	5063.852	-3270.201	1	6028.002	-32.8541	2.992678E-009	0.0191627	8
	8	4	158578.1	5686.673	-3197.645	1	6524.047	-29.34927	4.050724E-008	0.0191487	8
	9	4	125953.1	6367.871	-2946.741	1	7016.627	-24.8324	7.959108E-010	0.0190957	7
	10	4	100078.1	6844.678	-2728.385	1	7368.426	-21.73292	2.019456E-009	0.0190889	7
	11	5	79453.13	7267.853	-2496.961	1	7684.823	-18.9608	1.293096E-009	0.0190818	7
	12	5	63140.62	7617.654	-2252.76	1	7943.776	-16.47447	1.542983E-009	0.0190748	7
	13	5	50203.12	7916.404	-2011.227	1	8167.894	-14.25487	1.632057E-009	0.0190761	7
	14	6	39890.62	8140.568	-1823.018	1	8342.196	-12.62269	1.58438E-009	0.0190703	7
	15	6	31640.63	8339.992	-1646.708	1	8501.007	-11.16923	1.432508E-009	0.0190623	7
	16	6	25171.88	8504.972	-1505.726	1	8637.23	-10.03965	1.91521E-009	0.0190714	7
	17	7	20015.62	8643.07	-1412.322	1	8757.7	-9.280405	1.411566E-009	0.0190687	7
	18	7	15890.62	8774.134	-1339.262	1	8875.756	-8.678502	2.968027E-009	0.0190731	7
	19	7	12609.37	8956.424	-1121.799	1	9026.403	-7.139165	-2.241126E-010	0.0191238	6
	20	8	10078.13	9050.478	-1145.658	1	9122.701	-7.214438	-6.721301E-011	0.0191237	6
	21	8	8015.625	9140.598	-1198.726	1	9218.865	-7.471309	-1.944099E-010	0.0191208	6
	22	8	6328.125	9236.46	-1284.932	1	9325.408	-7.919884	-1.297152E-010	0.0191222	6
	23	9	5015.625	9331.945	-1415.566	1	9438.698	-8.625458	-2.316087E-010	0.0191215	6
	24	9	3984.375	9431.603	-1572.978	1	9561.87	-9.468493	-1.755008E-010	0.0191194	6
	25	9	3170.956	9539.74	-1776.911	1	9703.82	-10.55123	-3.24121E-010	0.0191174	6
	26	9	2527.573	9644.83	-2033.689	1	9856.9	-11.90686	-2.027038E-010	0.0191185	6
	27	10	1976.103	9775.75	-2394.94	1	10064.84	-13.76564	-4.889821E-010	0.019121	6
	28	10	1577.524	9907.79	-2810.616	1	10298.74	-15.83744	-3.303734E-010	0.0191203	6
	29	10	1265.625	10049.29	-3314.461	1	10581.77	-18.25362	-5.908751E-010	0.0191198	6
	30	11	998.264	10226.62	-3987.084	1	10976.37	-21.29947	-2.967956E-010	0.0191168	6
	31	11	796.875	10428.81	-4774.69	1	11469.86	-24.60004	-3.261495E-010	0.0191094	6
	32	11	627.7902	10683.82	-5803.955	1	12158.53	-28.51291	-2.662424E-010	0.0191155	6
	33	12	505.5147	10971.29	-6948.702	1	12986.67	-32.34826	-5.296208E-010	0.0191079	6
	34	12	397.9953	11352.45	-8494.346	1	14178.58	-36.80526	3.360859E-010	0.0191271	6
	35	12	315.5048	11821.16	-10334.66	1	15701.75	-41.16162	3.174102E-010	0.0191259	6
	36	13	252.4038	12383.02	-12483.65	1	17583.53	-45.23185	2.215429E-010	0.0191241	6
	37	13	198.6229	13142.81	-15292.16	1	20163.92	-49.32267	3.201902E-010	0.0191271	6
	38	13	158.3615	14061.54	-18516.41	1	23250.47	-52.7866	1.887941E-010	0.0191239	6
	39	14	125.558	15256.95	-22504.59	1	27188.8	-55.86475	2.368139E-010	0.0191254	6
	40	14	100.4464	16712.33	-27105.15	1	31843.23	-58.34311	2.080132E-010	0.0191199	6
	41	14	79.00281	18710.47	-33054	1	37982.21	-60.48763	2.404558E-010	0.0191171	6
	42	15	63.3446	21030.87	-39588.57	1	44828.03	-62.02116	2.418061E-010	0.0191187	6
	43	15	49.86702	24202.11	-48012.78	1	53767.73	-63.24841	3.215714E-010	0.0191173	6
	44	15	39.72458	27990.88	-57530.63	1	63978.61	-64.05528	3.264488E-010	0.0191244	6
	45	16	31.6723	32697.83	-68703.76	1	76087.81	-64.54906	1.639167E-010	0.0191233	6
	46	16	24.93351	38900.46	-82582.92	1	91286.28	-64.77735	6.791651E-010	0.0191183	6
	47	16	19.86229	46241.91	-97987.6	1	108350.8	-64.73664	9.306358E-010	0.0191309	5
	48	17	15.83615	55260	-116012.4	1	128501.2	-64.53022	3.756898E-010	0.0191238	5
	49	17	12.40079	67288.29	-138545	1	154020.9	-64.09517	1.111026E-009	0.0191185	5
	50	17	9.93114	80311.82	-162166.2	1	180963.7	-63.65337	1.043953E-009	0.0191204	5
	51	18	7.944915	96233.4	-189838.7	1	212837	-63.11855	-2.213054E-010	0.0191214	5
	52	18	6.317385	115672.2	-222293.2	1	250588	-62.50939	2.530358E-010	0.0191173	5
	53	19	5.008013	139542.5	-260259.6	1	295308.6	-61.80127	4.938582E-010	0.0191296	5
	54	20	3.945707	169780.3	-304955.2	1	349031.5	-60.89364	1.703941E-010	0.0191207	5
	55	21	3.158693	203176.1	-352263.7	1	406657.4	-60.02483	3.079045E-010	0.0191402	5
	56	22	2.504006	245648.1	-407119.2	1	475488.2	-58.894	-1.854485E-011	0.0191362	5
	57	23	1.998082	292935.8	-466174.6	1	550572.6	-57.85548	-5.244947E-011	0.0191122	5
	58	24	1.584686	350944.5	-531025.3	1	636513.8	-56.54004	9.294088E-011	0.0191579	5
	59	26	1.266892	414503.6	-601658.9	1	730620.8	-55.4357	1.323226E-010	0.0191629	5
	60	29	0.999041	488286	-683692.2	1	840153.7	-54.46596	1.625232E-010	0.0191539	5
