EXPLAIN
TAG	EISPOT
TITLE	LABEL	Potentiostatic EIS	Test &Identifier
DATE	LABEL	6/19/2020	Date
TIME	LABEL	16:27:59	Time
NOTES	NOTES	1	&Notes...
	
PSTAT	PSTAT	REF600-10037	Potentiostat
VDC	POTEN	0.00000E+000	T	DC &Voltage (V)
FREQINIT	QUANT	1.00000E+006	Initial Fre&q. (Hz)
FREQFINAL	QUANT	1.00000E+000	Final Fre&q. (Hz)
PTSPERDEC	QUANT	1.00000E+001	Points/&decade
VAC	QUANT	1.00000E+002	AC &Voltage (mV rms)
AREA	QUANT	2.50000E-001	&Area (cm^2)
CONDIT	TWOPARAM	F	5.00000E+000	0.00000E+000	Conditionin&g	Time(s)	E(V)
DELAY	TWOPARAM	F	5.00000E+000	0.00000E+000	Init. De&lay	Time(s)	Stab.(mV/s)
SPEED	SELECTOR	0	&Optimize for:
ZGUESS	QUANT	1.00000E+003	E&stimated Z (ohms)
OCVCURVE	TABLE	39
	Pt	T	Vf	Vm	Ach	Over
	#	s	V vs. Ref.	V	V	bits
	0	0.258333	5.17083E-002	5.17083E-002	5.27087E-004	...........
	1	0.516667	5.17085E-002	5.17183E-002	5.26554E-004	...........
	2	0.775	5.17097E-002	5.17277E-002	5.23654E-004	...........
	3	1.03333	5.17130E-002	5.17388E-002	5.25221E-004	...........
	4	1.29167	5.17191E-002	5.17458E-002	5.26221E-004	...........
	5	1.55	5.17272E-002	5.17540E-002	5.23987E-004	...........
	6	1.80833	5.17361E-002	5.17599E-002	5.24621E-004	...........
	7	2.06667	5.17446E-002	5.17681E-002	5.27754E-004	...........
	8	2.325	5.17526E-002	5.17770E-002	5.27987E-004	...........
	9	2.58333	5.17603E-002	5.17872E-002	5.22821E-004	...........
	10	2.84167	5.17683E-002	5.17945E-002	5.15554E-004	...........
	11	3.1	5.17768E-002	5.18053E-002	5.14321E-004	...........
	12	3.35833	5.17857E-002	5.18146E-002	5.19854E-004	...........
	13	3.61667	5.17948E-002	5.18215E-002	5.25154E-004	...........
	14	3.875	5.18040E-002	5.18318E-002	5.18454E-004	...........
	15	4.13333	5.18129E-002	5.18384E-002	5.21587E-004	...........
	16	4.39167	5.18216E-002	5.18444E-002	5.20687E-004	...........
	17	4.65	5.18297E-002	5.18520E-002	5.24554E-004	...........
	18	4.90833	5.18374E-002	5.18624E-002	5.24587E-004	...........
	19	5.16667	5.18448E-002	5.18664E-002	5.22787E-004	...........
	20	5.425	5.18523E-002	5.18765E-002	5.21454E-004	...........
	21	5.68333	5.18599E-002	5.18813E-002	5.23254E-004	...........
	22	5.94167	5.18674E-002	5.18939E-002	5.16854E-004	...........
	23	6.2	5.18750E-002	5.18982E-002	5.19154E-004	...........
	24	6.45833	5.18829E-002	5.19103E-002	5.17054E-004	...........
	25	6.71667	5.18911E-002	5.19147E-002	5.23288E-004	...........
	26	6.975	5.18993E-002	5.19211E-002	5.21587E-004	...........
	27	7.23333	5.19071E-002	5.19273E-002	5.19788E-004	...........
	28	7.49167	5.19142E-002	5.19345E-002	5.17921E-004	...........
	29	7.75	5.19207E-002	5.19379E-002	5.18021E-004	...........
	30	8.00833	5.19270E-002	5.19465E-002	5.11488E-004	...........
	31	8.26667	5.19331E-002	5.19548E-002	5.22954E-004	...........
	32	8.525	5.19394E-002	5.19605E-002	5.18488E-004	...........
	33	8.78333	5.19462E-002	5.19678E-002	5.25054E-004	...........
	34	9.04167	5.19533E-002	5.19780E-002	5.17488E-004	...........
	35	9.3	5.19606E-002	5.19830E-002	5.25021E-004	...........
	36	9.5583	5.19682E-002	5.19936E-002	5.19454E-004	...........
	37	9.8167	5.19759E-002	5.19983E-002	5.14088E-004	...........
	38	10.075	5.19836E-002	5.20031E-002	5.18088E-004	...........
EOC	QUANT	0.0519836	Open Circuit (V)
PSTATMODEL	IQUANT	4	Pstat Model
PSTATSECTION	LABEL	REF600-10037	Pstat Section
PSTATSERIALNO	LABEL	10037	Pstat Serial Number
CTRLMODE	IQUANT	1	Control Mode
IESTAB	IQUANT	0	I/E Stability
CASPEED	IQUANT	1	Control Amp Speed
CONVENTION	IQUANT	1	Current Convention
ICHRANGE	IQUANT	2	Ich Range
ICHRANGEMODE	TOGGLE	F	Ich Auto Range
ICHOFFSETENABLE	TOGGLE	T	Ich Offset Enable
ICHOFFSET	QUANT	0	Ich Offset (V)
ICHFILTER	IQUANT	3	Ich Filter
VCHRANGE	IQUANT	2	Vch Range
VCHRANGEMODE	TOGGLE	F	Vch Auto Range
VCHOFFSETENABLE	TOGGLE	T	Vch Offset Enable
VCHOFFSET	QUANT	0	Vch Offset (V)
VCHFILTER	IQUANT	3	Vch Filter
ACHRANGE	IQUANT	2	Ach Range
ACHOFFSETENABLE	TOGGLE	F	Ach Offset Enable
ACHOFFSET	QUANT	0	Ach Offset (V)
ACHFILTER	IQUANT	3	Ach Filter
IERANGELOWERLIMIT	IQUANT	1	I/E Range Lower Limit
IERANGEMODE	TOGGLE	F	I/E AutoRange
IERANGE	IQUANT	7	I/E Range
POSFEEDENABLE	TOGGLE	F	Positive Feedback IR Comp
POSFEEDRESISTANCE	QUANT	0	Positive Feedback Resistance (ohm)
ACHSELECT	IQUANT	0	Ach Select
CABLEID	IQUANT	14	Cable ID
DCCALDATE	LABEL	6/8/2020	DC Calibration Date
ACCALDATE	LABEL	6/8/2020	AC Calibration Date
THERMOSELECT	IQUANT	1	Thermo Select
FRAMEWORKVERSION	QUANT	6.33	Framework Version
INSTRUMENTVERSION	LABEL	3.50	Instrument Version
ZCURVE	TABLE
	Pt	Time	Freq	Zreal	Zimag	Zsig	Zmod	Zphz	Idc	Vdc	IERange
	#	s	Hz	ohm	ohm	V	ohm	°	A	V	#
	0	2	1000078	2099.68	-1727.27	1	2718.845	-39.44192	9.768728E-008	0.0609674	8
	1	2	794390.6	2452.985	-1755.532	1	3016.459	-35.59022	8.647852E-008	0.060665	8
	2	2	630984.4	2801.021	-1725.628	1	3289.91	-31.63602	5.344802E-008	0.0605197	8
	3	3	501234.4	3125.63	-1644.306	1	3531.756	-27.74759	7.837761E-008	0.060446	8
	4	3	398109.4	3410.137	-1528.371	1	3736.971	-24.14119	5.225585E-008	0.0603859	8
	5	3	316265.6	3650.008	-1393.152	1	3906.844	-20.89109	9.297509E-008	0.0604056	8
	6	4	251203.1	3847.47	-1255.052	1	4046.996	-18.06643	1.102484E-007	0.0603707	8
	7	4	199546.9	4007.975	-1129.655	1	4164.13	-15.74058	6.627089E-008	0.0604377	8
	8	4	158578.1	4136.989	-1018.528	1	4260.526	-13.83116	4.930761E-008	0.0604721	8
	9	4	125953.1	4283.632	-836.0429	1	4364.455	-11.04368	-1.746904E-008	0.0604604	7
	10	5	100078.1	4371.936	-765.7114	1	4438.483	-9.93416	7.413482E-009	0.0604508	7
	11	5	79453.13	4439.856	-731.2507	1	4499.672	-9.352731	1.368148E-008	0.0604223	7
	12	5	63140.62	4498.675	-713.973	1	4554.979	-9.01805	1.745394E-008	0.0604185	7
	13	6	50203.12	4563.149	-717.7813	1	4619.258	-8.939351	4.255259E-009	0.0603892	7
	14	6	39890.62	4623.37	-739.5301	1	4682.142	-9.08775	1.033732E-008	0.060389	7
	15	6	31640.63	4691.402	-779.1167	1	4755.658	-9.429241	1.568651E-008	0.0603853	7
	16	7	25171.88	4763.684	-835.1741	1	4836.342	-9.94409	1.634126E-008	0.0603905	7
	17	7	20015.62	4843.883	-910.4434	1	4928.703	-10.64497	1.017007E-008	0.0603881	7
	18	7	15890.62	4932.553	-1004.861	1	5033.868	-11.51474	1.954927E-009	0.0603891	7
	19	8	12609.37	5031.769	-1120.737	1	5155.07	-12.55665	1.646933E-008	0.0603937	7
	20	8	10078.13	5141.952	-1255.312	1	5292.965	-13.71934	1.710704E-008	0.0603789	7
	21	8	8015.625	5262.66	-1420.28	1	5450.943	-15.1031	8.719718E-010	0.0603892	7
	22	9	6328.125	5405.508	-1618.599	1	5642.64	-16.66955	-9.345031E-010	0.0603936	7
	23	9	5015.625	5566.152	-1852.662	1	5866.379	-18.40973	4.89278E-009	0.0603902	7
	24	9	3984.375	5743.942	-2122.421	1	6123.523	-20.27957	5.172148E-010	0.0603853	7
	25	10	3170.956	5943.633	-2434.852	1	6423.027	-22.27681	1.66867E-008	0.0603922	7
	26	10	2527.573	6166.827	-2796.196	1	6771.149	-24.39075	1.156716E-008	0.060394	7
	27	10	1976.103	6442.75	-3265.629	1	7223.113	-26.87903	1.639907E-008	0.0603939	7
	28	10	1577.524	6728.103	-3769.567	1	7712.134	-29.26068	-5.763386E-009	0.060388	7
	29	11	1265.625	7037.521	-4328.615	1	8262.18	-31.5947	5.094448E-009	0.0603829	7
	30	11	998.264	7422.004	-5081.138	1	8994.671	-34.39572	-3.866937E-009	0.0603965	7
	31	11	796.875	7833.344	-5899.554	1	9806.43	-36.98463	1.423313E-008	0.0604016	7
	32	12	627.7902	8324.132	-6944.303	1	10840.41	-39.83613	-1.936148E-009	0.0603948	7
	33	12	505.5147	8823.355	-8087.777	1	11969.28	-42.5094	1.028408E-008	0.0603966	7
	34	12	397.9953	9455.95	-9568.26	1	13452.38	-45.33824	7.601681E-009	0.060417	7
	35	13	315.5048	10164.69	-11322.82	1	15216.02	-48.08514	7.14865E-009	0.0604141	7
	36	13	252.4038	10956.87	-13351.97	1	17272.18	-50.62709	8.027292E-009	0.0604113	7
	37	13	198.6229	11963.66	-15986.42	1	19967.35	-53.19015	7.333866E-009	0.0604089	7
	38	14	158.3615	13082.53	-18906.09	1	22991.14	-55.31776	7.753004E-009	0.0603928	7
	39	14	125.558	14532.95	-22717.96	1	26968.72	-57.39246	6.554686E-009	0.0604101	7
	40	14	100.4464	16216.58	-26994.24	1	31490.73	-59.00499	6.946112E-009	0.0604136	7
	41	15	79.00281	18453.1	-32478.28	1	37354.45	-60.39618	8.291935E-009	0.0604101	7
	42	15	63.3446	20999.34	-38451.35	1	43811.85	-61.35983	1.086313E-009	0.0604092	6
	43	15	49.86702	24384.98	-46092.97	1	52145.84	-62.11941	2.458469E-009	0.060408	6
	44	16	39.72458	28338.93	-54667.96	1	61576.63	-62.59855	1.087589E-009	0.0604136	6
	45	16	31.6723	33121.29	-64693.14	1	72678.9	-62.88868	1.714605E-010	0.0604108	6
	46	16	24.93351	39261.5	-77144.35	1	86560.48	-63.02684	1.235975E-009	0.0604068	6
	47	17	19.86229	46595.94	-91412.86	1	102603.6	-62.99067	-7.278679E-009	0.0518365	6
	48	17	15.83615	55668.71	-107890.2	1	121405.6	-62.70737	-5.397965E-009	0.0518296	6
	49	17	12.40079	67558.24	-128347.4	1	145042	-62.23902	-4.588488E-009	0.0518343	6
	50	18	9.93114	81287.55	-149752.9	1	170392.5	-61.50639	-3.870434E-009	0.0518356	6
	51	18	7.944915	98403.4	-173862.8	1	199778.6	-60.49088	-3.509611E-009	0.0518321	6
	52	19	6.317385	119785.2	-200839.7	1	233848.5	-59.18723	-2.199031E-009	0.0518364	6
	53	19	5.008013	145649.7	-230438.1	1	272608.8	-57.70483	-1.571196E-009	0.0518347	6
	54	21	3.945707	176420	-262770	1	316499.8	-56.12317	-1.066215E-009	0.0518341	6
	55	22	3.158693	208337.1	-294689.3	1	360896.3	-54.74075	-8.915064E-010	0.051838	6
	56	23	2.504006	244791.8	-330057	1	410926.6	-53.43696	-9.208667E-010	0.0518421	5
	57	25	1.998082	280726.4	-367751.8	1	462654	-52.64339	-6.770851E-010	0.0518432	5
	58	27	1.584686	319483.5	-412786.5	1	521979.3	-52.26128	-4.352468E-010	0.0518425	5
	59	29	1.266892	357816.9	-463838.2	1	585814.6	-52.35247	-3.006248E-010	0.0518344	5
	60	33	0.999041	399918.6	-529555.3	1	663599.1	-52.94001	-3.572082E-010	0.0518381	5
