EXPLAIN
TAG	EISPOT
TITLE	LABEL	Potentiostatic EIS	Test &Identifier
DATE	LABEL	2/28/2020	Date
TIME	LABEL	16:19:50	Time
NOTES	NOTES	1	&Notes...
	
PSTAT	PSTAT	REF600-11020	Potentiostat
VDC	POTEN	0.00000E+000	T	DC &Voltage (V)
FREQINIT	QUANT	1.00000E+006	Initial Fre&q. (Hz)
FREQFINAL	QUANT	1.00000E+000	Final Fre&q. (Hz)
PTSPERDEC	QUANT	1.00000E+001	Points/&decade
VAC	QUANT	2.50000E+001	AC &Voltage (mV rms)
AREA	QUANT	1.60000E-004	&Area (cm^2)
CONDIT	TWOPARAM	F	1.50000E+001	0.00000E+000	Conditionin&g	Time(s)	E(V)
DELAY	TWOPARAM	F	1.00000E+002	0.00000E+000	Init. De&lay	Time(s)	Stab.(mV/s)
SPEED	SELECTOR	1	&Optimize for:
ZGUESS	QUANT	1.00000E+003	E&stimated Z (ohms)
OCVCURVE	TABLE	39
	Pt	T	Vf	Vm	Ach	Over
	#	s	V vs. Ref.	V	V	bits
	0	0.258333	-8.57361E-002	-8.57361E-002	5.86430E-004	...........
	1	0.516667	-8.57348E-002	-8.56644E-002	5.86763E-004	...........
	2	0.775	-8.57262E-002	-8.55886E-002	5.82063E-004	...........
	3	1.03333	-8.57021E-002	-8.55457E-002	5.85463E-004	...........
	4	1.29167	-8.56595E-002	-8.54575E-002	5.85530E-004	...........
	5	1.55	-8.56046E-002	-8.54817E-002	5.87596E-004	...........
	6	1.80833	-8.55496E-002	-8.54628E-002	5.80230E-004	...........
	7	2.06667	-8.55063E-002	-8.54467E-002	5.83197E-004	...........
	8	2.325	-8.54788E-002	-8.54591E-002	5.82663E-004	...........
	9	2.58333	-8.54635E-002	-8.54403E-002	5.81797E-004	...........
	10	2.84167	-8.54549E-002	-8.54240E-002	5.82163E-004	...........
	11	3.1	-8.54481E-002	-8.54348E-002	5.84430E-004	...........
	12	3.35833	-8.54412E-002	-8.54284E-002	5.88197E-004	...........
	13	3.61667	-8.54350E-002	-8.54114E-002	5.86663E-004	...........
	14	3.875	-8.54294E-002	-8.53982E-002	5.89896E-004	...........
	15	4.13333	-8.54223E-002	-8.53948E-002	5.90730E-004	...........
	16	4.39167	-8.54131E-002	-8.53782E-002	5.82997E-004	...........
	17	4.65	-8.54027E-002	-8.53675E-002	5.87496E-004	...........
	18	4.90833	-8.53917E-002	-8.53585E-002	5.86896E-004	...........
	19	5.16667	-8.53806E-002	-8.53503E-002	5.83197E-004	...........
	20	5.425	-8.53700E-002	-8.53471E-002	5.84397E-004	...........
	21	5.68333	-8.53606E-002	-8.53365E-002	5.79397E-004	...........
	22	5.94167	-8.53521E-002	-8.53059E-002	5.82363E-004	...........
	23	6.2	-8.53426E-002	-8.53131E-002	5.86963E-004	...........
	24	6.45833	-8.53312E-002	-8.52906E-002	5.84363E-004	...........
	25	6.71667	-8.53191E-002	-8.52956E-002	5.83197E-004	...........
	26	6.975	-8.53081E-002	-8.52805E-002	5.87663E-004	...........
	27	7.23333	-8.52987E-002	-8.52659E-002	5.87530E-004	...........
	28	7.49167	-8.52903E-002	-8.52913E-002	5.85430E-004	...........
	29	7.75	-8.52840E-002	-8.52903E-002	5.82130E-004	...........
	30	8.00833	-8.52817E-002	-8.52803E-002	5.86096E-004	...........
	31	8.26667	-8.52824E-002	-8.52666E-002	5.86030E-004	...........
	32	8.525	-8.52816E-002	-8.52444E-002	5.89463E-004	...........
	33	8.78333	-8.52757E-002	-8.52412E-002	5.86996E-004	...........
	34	9.04167	-8.52651E-002	-8.52233E-002	5.85630E-004	...........
	35	9.3	-8.52522E-002	-8.52089E-002	5.83863E-004	...........
	36	9.5583	-8.52386E-002	-8.51997E-002	5.86730E-004	...........
	37	9.8167	-8.52253E-002	-8.51920E-002	5.89496E-004	...........
	38	10.075	-8.52132E-002	-8.52013E-002	5.85996E-004	...........
EOC	QUANT	-0.0852132	Open Circuit (V)
PSTATMODEL	IQUANT	4	Pstat Model
PSTATSECTION	LABEL	REF600-11020	Pstat Section
PSTATSERIALNO	LABEL	11020	Pstat Serial Number
CTRLMODE	IQUANT	1	Control Mode
IESTAB	IQUANT	0	I/E Stability
CASPEED	IQUANT	1	Control Amp Speed
CONVENTION	IQUANT	1	Current Convention
ICHRANGE	IQUANT	2	Ich Range
ICHRANGEMODE	TOGGLE	F	Ich Auto Range
ICHOFFSETENABLE	TOGGLE	T	Ich Offset Enable
ICHOFFSET	QUANT	0	Ich Offset (V)
ICHFILTER	IQUANT	3	Ich Filter
VCHRANGE	IQUANT	2	Vch Range
VCHRANGEMODE	TOGGLE	F	Vch Auto Range
VCHOFFSETENABLE	TOGGLE	T	Vch Offset Enable
VCHOFFSET	QUANT	0	Vch Offset (V)
VCHFILTER	IQUANT	3	Vch Filter
ACHRANGE	IQUANT	2	Ach Range
ACHOFFSETENABLE	TOGGLE	F	Ach Offset Enable
ACHOFFSET	QUANT	0	Ach Offset (V)
ACHFILTER	IQUANT	3	Ach Filter
IERANGELOWERLIMIT	IQUANT	1	I/E Range Lower Limit
IERANGEMODE	TOGGLE	F	I/E AutoRange
IERANGE	IQUANT	8	I/E Range
POSFEEDENABLE	TOGGLE	F	Positive Feedback IR Comp
POSFEEDRESISTANCE	QUANT	0	Positive Feedback Resistance (ohm)
ACHSELECT	IQUANT	0	Ach Select
CABLEID	IQUANT	14	Cable ID
DCCALDATE	LABEL	2/27/2020	DC Calibration Date
ACCALDATE	LABEL	2/27/2020	AC Calibration Date
THERMOSELECT	IQUANT	1	Thermo Select
FRAMEWORKVERSION	QUANT	6.33	Framework Version
INSTRUMENTVERSION	LABEL	3.50	Instrument Version
ZCURVE	TABLE
	Pt	Time	Freq	Zreal	Zimag	Zsig	Zmod	Zphz	Idc	Vdc	IERange
	#	s	Hz	ohm	ohm	V	ohm	°	A	V	#
	0	2	1000078	1817.049	-2198.408	1	2852.134	-50.42527	-1.248332E-006	-0.0826984	8
	1	3	794390.6	2202.861	-2399.93	1	3257.646	-47.45163	3.013338E-006	-0.0836672	8
	2	4	630984.4	2650	-2561.139	1	3685.368	-44.02308	2.659046E-006	-0.0838926	8
	3	6	501234.4	3107.784	-2687.969	1	4108.953	-40.85702	-3.421042E-006	-0.0828482	8
	4	7	398109.4	3594.714	-2766.825	1	4536.219	-37.58521	-1.024901E-006	-0.0831664	8
	5	8	316265.6	4102.642	-2811.969	1	4973.815	-34.42691	-9.376666E-007	-0.0834388	8
	6	10	251203.1	4590.302	-2800.725	1	5377.261	-31.38902	-3.446913E-007	-0.0835564	8
	7	11	199546.9	5087.745	-2745.399	1	5781.208	-28.35175	-5.129659E-007	-0.0835656	8
	8	13	158578.1	5541.807	-2681.551	1	6156.488	-25.82125	8.373957E-009	-0.0837012	8
	9	14	125953.1	6064.103	-2482.06	1	6552.401	-22.25947	2.38953E-008	-0.0832834	7
	10	16	100078.1	6445.922	-2330.915	1	6854.42	-19.88054	-3.066406E-008	-0.0836698	7
	11	17	79453.13	6804.435	-2164.326	1	7140.353	-17.64461	-3.845247E-008	-0.0837219	7
	12	18	63140.62	7123.182	-1989.813	1	7395.882	-15.60735	8.22118E-010	-0.0837661	7
	13	20	50203.12	7392.305	-1815.07	1	7611.875	-13.79522	3.38688E-008	-0.0838139	7
	14	21	39890.62	7617.565	-1649.203	1	7794.047	-12.21601	3.974265E-009	-0.0837394	7
	15	22	31640.63	7808.882	-1506.37	1	7952.848	-10.91851	-3.617873E-008	-0.0837327	7
	16	24	25171.88	7965.278	-1389.977	1	8085.647	-9.8987	3.301711E-008	-0.0838142	7
	17	25	20015.62	8098.848	-1299.91	1	8202.506	-9.118514	4.24823E-008	-0.0837257	7
	18	26	15890.62	8216.242	-1237.274	1	8308.88	-8.563754	3.239953E-008	-0.0837173	7
	19	28	12609.37	8319.948	-1211.664	1	8407.715	-8.285937	8.137324E-008	-0.0838872	7
	20	29	10078.13	8407.455	-1216.08	1	8494.948	-8.230358	3.650869E-008	-0.0838693	7
	21	30	8015.625	8489.057	-1260.307	1	8582.101	-8.444596	-3.019151E-008	-0.0836932	7
	22	32	6328.125	8576.223	-1346.113	1	8681.222	-8.920296	3.513475E-008	-0.0838228	7
	23	33	5015.625	8658.732	-1478.001	1	8783.971	-9.68673	2.302451E-008	-0.0837161	7
	24	34	3984.375	8746.862	-1634.493	1	8898.268	-10.58457	5.268627E-009	-0.0836802	6
	25	36	3170.956	8835.234	-1883.132	1	9033.689	-12.03192	1.644728E-009	-0.0836346	6
	26	37	2527.573	8933.927	-2195.931	1	9199.846	-13.80937	-7.695531E-009	-0.08358	6
	27	39	1976.103	9050.346	-2630.442	1	9424.859	-16.20627	-4.344638E-009	-0.0836713	6
	28	40	1577.524	9178.103	-3138.859	1	9700	-18.8804	-9.815626E-011	-0.08377	6
	29	41	1265.625	9316.583	-3735.848	1	10037.69	-21.85025	8.056318E-009	-0.0837645	6
	30	43	998.264	9499.753	-4546.905	1	10531.84	-25.57736	-1.090972E-010	-0.0836224	6
	31	44	796.875	9712.27	-5486.052	1	11154.59	-29.46028	1.152067E-008	-0.0839189	6
	32	45	627.7902	9993.77	-6713.701	1	12039.49	-33.89275	-1.068773E-009	-0.0837685	6
	33	47	505.5147	10297.69	-8070.774	1	13083.57	-38.08744	7.839096E-009	-0.0837915	6
	34	48	397.9953	10720.55	-9912.05	1	14600.65	-42.75598	2.754141E-011	-0.0836817	6
	35	49	315.5048	11231.21	-12102.92	1	16511.23	-47.13944	-2.669726E-011	-0.0836831	6
	36	51	252.4038	11837.86	-14666.01	1	18847.46	-51.09082	-3.2657E-010	-0.0836821	6
	37	52	198.6229	12664.7	-18032.29	1	22035.38	-54.91832	2.015667E-011	-0.0836756	6
	38	53	158.3615	13655.33	-21911.83	1	25818.53	-58.06907	5.374512E-011	-0.0836849	6
	39	55	125.558	14941.98	-26763.51	1	30652.05	-60.82552	2.914572E-011	-0.0836853	6
	40	56	100.4464	16536.04	-32398.03	1	36374.07	-62.96012	-4.079165E-010	-0.0836791	6
	41	58	79.00281	18813.94	-39842.59	1	44061.28	-64.72301	-4.421893E-010	-0.0836827	6
	42	59	63.3446	21706.05	-48187.83	1	52850.92	-65.75098	1.786612E-010	-0.0836828	6
	43	60	49.86702	25078.91	-58699.77	1	63832.7	-66.86588	3.254758E-010	-0.0836857	6
	44	62	39.72458	30141.76	-70718.67	1	76874.29	-66.9153	-2.40753E-010	-0.0836824	6
	45	63	31.6723	36704.36	-84974.25	1	92562.59	-66.63822	-1.865097E-010	-0.0836806	6
	46	64	24.93351	45400.17	-102399.3	1	112012.5	-66.08923	-1.563564E-011	-0.0836798	5
	47	66	19.86229	56455.48	-121358.3	1	133847.1	-65.0523	2.007971E-010	-0.083672	5
	48	67	15.83615	69650.36	-143403.4	1	159423	-64.09438	6.574158E-010	-0.083677	5
	49	69	12.40079	89960.72	-168371.5	1	190897.6	-61.88445	7.784359E-010	-0.0836773	5
	50	70	9.93114	109860.9	-193416.7	1	222439.7	-60.40337	1.459898E-010	-0.0836773	5
	51	72	7.944915	134739.3	-219767.9	1	257784	-58.48762	-7.604029E-010	-0.0836781	5
	52	73	6.317385	163202.9	-248972.4	1	297695.2	-56.75492	-5.730466E-011	-0.0836882	5
	53	75	5.008013	195576.7	-280045.9	1	341578.6	-55.07057	-3.21866E-010	-0.0836813	5
	54	78	3.945707	231848.1	-315216.1	1	391298.8	-53.66473	5.645577E-011	-0.0836743	5
	55	80	3.158693	267856.5	-351042.8	1	441563.3	-52.65524	-2.157145E-010	-0.0836942	5
	56	84	2.504006	308819.5	-394090.6	1	500676.4	-51.91684	3.382033E-010	-0.0836748	5
	57	86	1.998082	351663	-440475.3	1	563635.8	-51.39713	1.290306E-010	-0.0836426	5
	58	90	1.584686	397606.7	-496043.5	1	635728.1	-51.28587	1.655953E-010	-0.0836923	5
	59	93	1.266892	447524.3	-558838.4	1	715945.8	-51.31185	5.556955E-011	-0.0836397	5
	60	97	0.999041	504392.6	-636665.9	1	812253.3	-51.6123	1.892858E-011	-0.0837202	5
