EXPLAIN
TAG	EISPOT
TITLE	LABEL	Potentiostatic EIS	Test &Identifier
DATE	LABEL	6/14/2020	Date
TIME	LABEL	21:44:37	Time
NOTES	NOTES	1	&Notes...
	
PSTAT	PSTAT	REF600-10037	Potentiostat
VDC	POTEN	0.00000E+000	T	DC &Voltage (V)
FREQINIT	QUANT	1.00000E+006	Initial Fre&q. (Hz)
FREQFINAL	QUANT	1.00000E+000	Final Fre&q. (Hz)
PTSPERDEC	QUANT	1.00000E+001	Points/&decade
VAC	QUANT	2.50000E+001	AC &Voltage (mV rms)
AREA	QUANT	2.50000E-001	&Area (cm^2)
CONDIT	TWOPARAM	F	5.00000E+000	0.00000E+000	Conditionin&g	Time(s)	E(V)
DELAY	TWOPARAM	F	3.00000E+000	0.00000E+000	Init. De&lay	Time(s)	Stab.(mV/s)
SPEED	SELECTOR	0	&Optimize for:
ZGUESS	QUANT	1.00000E+003	E&stimated Z (ohms)
OCVCURVE	TABLE	39
	Pt	T	Vf	Vm	Ach	Over
	#	s	V vs. Ref.	V	V	bits
	0	0.258333	-4.36406E-002	-4.36406E-002	5.88320E-004	...........
	1	0.516667	-4.36406E-002	-4.36425E-002	5.91053E-004	...........
	2	0.775	-4.36408E-002	-4.36420E-002	5.94120E-004	...........
	3	1.03333	-4.36412E-002	-4.36468E-002	5.88720E-004	...........
	4	1.29167	-4.36421E-002	-4.36472E-002	5.85287E-004	...........
	5	1.55	-4.36436E-002	-4.36522E-002	5.88253E-004	...........
	6	1.80833	-4.36459E-002	-4.36612E-002	5.89353E-004	...........
	7	2.06667	-4.36490E-002	-4.36602E-002	5.95453E-004	...........
	8	2.325	-4.36531E-002	-4.36640E-002	5.93386E-004	...........
	9	2.58333	-4.36572E-002	-4.36684E-002	5.90287E-004	...........
	10	2.84167	-4.36609E-002	-4.36731E-002	5.93120E-004	...........
	11	3.1	-4.36645E-002	-4.36760E-002	5.95953E-004	...........
	12	3.35833	-4.36683E-002	-4.36791E-002	5.90620E-004	...........
	13	3.61667	-4.36720E-002	-4.36824E-002	5.93886E-004	...........
	14	3.875	-4.36755E-002	-4.36844E-002	5.94553E-004	...........
	15	4.13333	-4.36788E-002	-4.36863E-002	5.93386E-004	...........
	16	4.39167	-4.36816E-002	-4.36904E-002	5.89020E-004	...........
	17	4.65	-4.36843E-002	-4.36917E-002	5.88620E-004	...........
	18	4.90833	-4.36869E-002	-4.36951E-002	5.87253E-004	...........
	19	5.16667	-4.36895E-002	-4.36986E-002	5.87986E-004	...........
	20	5.425	-4.36922E-002	-4.37013E-002	5.86820E-004	...........
	21	5.68333	-4.36951E-002	-4.37055E-002	5.89420E-004	...........
	22	5.94167	-4.36982E-002	-4.37073E-002	5.91786E-004	...........
	23	6.2	-4.37014E-002	-4.37115E-002	5.83087E-004	...........
	24	6.45833	-4.37048E-002	-4.37269E-002	5.84553E-004	...........
	25	6.71667	-4.37093E-002	-4.37332E-002	5.85420E-004	...........
	26	6.975	-4.37155E-002	-4.37327E-002	5.87953E-004	...........
	27	7.23333	-4.37225E-002	-4.37383E-002	5.80153E-004	...........
	28	7.49167	-4.37288E-002	-4.37430E-002	5.81487E-004	...........
	29	7.75	-4.37339E-002	-4.37473E-002	5.85120E-004	...........
	30	8.00833	-4.37383E-002	-4.37494E-002	5.84753E-004	...........
	31	8.26667	-4.37423E-002	-4.37524E-002	5.89720E-004	...........
	32	8.525	-4.37460E-002	-4.37562E-002	5.86387E-004	...........
	33	8.78333	-4.37493E-002	-4.37570E-002	5.78487E-004	...........
	34	9.04167	-4.37523E-002	-4.37626E-002	5.89220E-004	...........
	35	9.3	-4.37552E-002	-4.37631E-002	5.84653E-004	...........
	36	9.5583	-4.37581E-002	-4.37688E-002	5.83753E-004	...........
	37	9.8167	-4.37612E-002	-4.37753E-002	5.86953E-004	...........
	38	10.075	-4.37648E-002	-4.37775E-002	5.84520E-004	...........
EOC	QUANT	-0.0437648	Open Circuit (V)
PSTATMODEL	IQUANT	4	Pstat Model
PSTATSECTION	LABEL	REF600-10037	Pstat Section
PSTATSERIALNO	LABEL	10037	Pstat Serial Number
CTRLMODE	IQUANT	1	Control Mode
IESTAB	IQUANT	0	I/E Stability
CASPEED	IQUANT	1	Control Amp Speed
CONVENTION	IQUANT	1	Current Convention
ICHRANGE	IQUANT	2	Ich Range
ICHRANGEMODE	TOGGLE	F	Ich Auto Range
ICHOFFSETENABLE	TOGGLE	T	Ich Offset Enable
ICHOFFSET	QUANT	0	Ich Offset (V)
ICHFILTER	IQUANT	3	Ich Filter
VCHRANGE	IQUANT	2	Vch Range
VCHRANGEMODE	TOGGLE	F	Vch Auto Range
VCHOFFSETENABLE	TOGGLE	T	Vch Offset Enable
VCHOFFSET	QUANT	0	Vch Offset (V)
VCHFILTER	IQUANT	3	Vch Filter
ACHRANGE	IQUANT	2	Ach Range
ACHOFFSETENABLE	TOGGLE	F	Ach Offset Enable
ACHOFFSET	QUANT	0	Ach Offset (V)
ACHFILTER	IQUANT	3	Ach Filter
IERANGELOWERLIMIT	IQUANT	1	I/E Range Lower Limit
IERANGEMODE	TOGGLE	F	I/E AutoRange
IERANGE	IQUANT	7	I/E Range
POSFEEDENABLE	TOGGLE	F	Positive Feedback IR Comp
POSFEEDRESISTANCE	QUANT	0	Positive Feedback Resistance (ohm)
ACHSELECT	IQUANT	0	Ach Select
CABLEID	IQUANT	14	Cable ID
DCCALDATE	LABEL	6/8/2020	DC Calibration Date
ACCALDATE	LABEL	6/8/2020	AC Calibration Date
THERMOSELECT	IQUANT	1	Thermo Select
FRAMEWORKVERSION	QUANT	6.33	Framework Version
INSTRUMENTVERSION	LABEL	3.50	Instrument Version
ZCURVE	TABLE
	Pt	Time	Freq	Zreal	Zimag	Zsig	Zmod	Zphz	Idc	Vdc	IERange
	#	s	Hz	ohm	ohm	V	ohm	°	A	V	#
	0	1	1000078	2192.961	-1845.889	1	2866.423	-40.08844	2.243446E-008	-0.0346326	8
	1	1	794390.6	2560.756	-1906.739	1	3192.667	-36.67137	2.695205E-007	-0.0349057	8
	2	1	630984.4	2936.756	-1916.048	1	3506.533	-33.12191	-8.142582E-008	-0.035054	8
	3	2	501234.4	3304.737	-1871.483	1	3797.859	-29.52302	1.072232E-007	-0.035107	8
	4	2	398109.4	3649.2	-1784.235	1	4062.039	-26.05579	8.845332E-008	-0.0351351	8
	5	2	316265.6	3956.161	-1658.218	1	4289.627	-22.74091	4.002649E-007	-0.0352182	8
	6	3	251203.1	4220.204	-1518.634	1	4485.128	-19.79119	3.962746E-007	-0.0352039	8
	7	3	199546.9	4447.458	-1369.201	1	4653.449	-17.11158	-1.830176E-007	-0.0351803	8
	8	3	158578.1	4630.112	-1220.603	1	4788.299	-14.76847	-8.342728E-008	-0.0351456	8
	9	4	125953.1	4863.57	-903.3409	1	4946.75	-10.522	-4.768475E-008	-0.0352026	7
	10	4	100078.1	4960.951	-810.3103	1	5026.692	-9.276642	4.121787E-008	-0.0351711	7
	11	4	79453.13	5041.763	-735.8297	1	5095.176	-8.303517	8.982254E-009	-0.0352364	7
	12	4	63140.62	5110.596	-676.7183	1	5155.205	-7.542925	4.485435E-008	-0.0352727	7
	13	5	50203.12	5172.063	-632.1406	1	5210.551	-6.968252	6.045646E-008	-0.0352345	7
	14	5	39890.62	5226.197	-602.6576	1	5260.83	-6.577994	6.378816E-008	-0.0352542	7
	15	5	31640.63	5278.6	-588.4235	1	5311.295	-6.360695	-2.757901E-008	-0.0351186	7
	16	6	25171.88	5326.27	-589.2412	1	5358.764	-6.312919	-6.195556E-008	-0.0351209	7
	17	6	20015.62	5374.985	-605.9059	1	5409.028	-6.43163	5.651683E-008	-0.0352703	7
	18	6	15890.62	5423.086	-637.9564	1	5460.481	-6.709277	4.207889E-008	-0.0351888	7
	19	7	12609.37	5473.211	-688.09	1	5516.295	-7.165608	-8.528046E-009	-0.0351343	7
	20	7	10078.13	5523.451	-754.5377	1	5574.75	-7.77881	2.855668E-008	-0.0351716	7
	21	7	8015.625	5578.652	-845.8448	1	5642.412	-8.621617	-6.057575E-008	-0.0351177	7
	22	8	6328.125	5639.647	-965.354	1	5721.672	-9.71334	-5.400924E-008	-0.035108	7
	23	8	5015.625	5705.145	-1114.959	1	5813.072	-11.05797	6.403808E-008	-0.0352507	7
	24	8	3984.375	5777.853	-1299.822	1	5922.256	-12.67854	-2.632891E-008	-0.0351143	7
	25	9	3170.956	5859.886	-1528.666	1	6055.996	-14.62088	-5.993087E-008	-0.0351312	7
	26	9	2527.573	5950.792	-1805.408	1	6218.635	-16.87725	6.167336E-008	-0.0352274	7
	27	9	1976.103	6067.63	-2180.204	1	6447.435	-19.76423	-3.532267E-008	-0.0351866	7
	28	9	1577.524	6192.595	-2597.607	1	6715.34	-22.75659	1.11457E-008	-0.0351476	7
	29	10	1265.625	6338.593	-3099.851	1	7055.979	-26.06067	-3.572818E-008	-0.0351892	7
	30	10	998.264	6526.745	-3752.706	1	7528.691	-29.89776	6.159667E-008	-0.0352301	7
	31	10	796.875	6745.992	-4512.847	1	8116.292	-33.78122	-3.515326E-008	-0.0351887	7
	32	11	627.7902	7026.18	-5489.238	1	8916.218	-37.99891	-3.58175E-008	-0.0351891	7
	33	11	505.5147	7352.69	-6539.807	1	9840.28	-41.65131	-1.158493E-008	-0.0350706	6
	34	11	397.9953	7778.783	-7970.851	1	11137.5	-45.69869	5.722538E-010	-0.0351809	6
	35	12	315.5048	8298.927	-9655.26	1	12731.71	-49.32016	6.005978E-010	-0.0351805	6
	36	12	252.4038	8919.769	-11600.63	1	14633.41	-52.44317	4.63092E-010	-0.0351824	6
	37	12	198.6229	9754.05	-14113.39	1	17156.03	-55.35086	5.685776E-010	-0.0351776	6
	38	13	158.3615	10742.74	-16963.78	1	20079.25	-57.65493	4.02071E-010	-0.0351852	6
	39	13	125.558	12003.29	-20452.58	1	23714.7	-59.59201	3.492695E-010	-0.0351815	6
	40	13	100.4464	13509.46	-24439.18	1	27924.53	-61.06712	2.56995E-010	-0.0351814	6
	41	14	79.00281	15527.83	-29557.92	1	33388.39	-62.28546	4.668452E-010	-0.0351843	6
	42	14	63.3446	17811.54	-35125.08	1	39383.02	-63.11094	3.258852E-010	-0.0351786	6
	43	14	49.86702	20925.74	-42298.91	1	47192	-63.67789	2.757968E-010	-0.0351813	6
	44	15	39.72458	24630.22	-50393.43	1	56090.52	-63.95254	3.013704E-010	-0.0351728	6
	45	15	31.6723	29239.4	-59829.96	1	66592.54	-63.95486	4.177062E-011	-0.0351761	6
	46	15	24.93351	35425.59	-71512.38	1	79805.97	-63.64724	7.533408E-010	-0.0351782	6
	47	16	19.86229	42511.49	-84114.4	1	94246.8	-63.18793	-6.195107E-009	-0.0438184	6
	48	16	15.83615	51296.15	-98310	1	110888	-62.44538	-4.100949E-009	-0.0438097	5
	49	16	12.40079	63846.45	-116268.1	1	132644.8	-61.22742	-3.194275E-009	-0.0438081	5
	50	17	9.93114	77555.64	-134162.2	1	154965.7	-59.96893	-2.481201E-009	-0.0438089	5
	51	17	7.944915	94080.89	-153686.1	1	180196.1	-58.52659	-2.104235E-009	-0.0438098	5
	52	18	6.317385	113932.6	-175053.8	1	208864.7	-56.94217	-1.323122E-009	-0.0438093	5
	53	18	5.008013	136840.5	-198095.1	1	240763.4	-55.36398	-1.002127E-009	-0.0438087	5
	54	20	3.945707	162939	-223125.3	1	276286.1	-53.86093	-7.252546E-010	-0.0438054	5
	55	21	3.158693	189052.6	-248162.3	1	311970.3	-52.69947	-5.72636E-010	-0.0438108	5
	56	22	2.504006	218319.3	-276832.2	1	352561.2	-51.73949	-4.044877E-010	-0.043814	5
	57	24	1.998082	246491.5	-308361.9	1	394772.2	-51.36264	-3.022864E-010	-0.0438115	5
	58	26	1.584686	275560.9	-346378.6	1	442619.4	-51.49606	-1.604363E-010	-0.0438144	5
	59	28	1.266892	303740.4	-390912.2	1	495046	-52.15264	-9.498464E-011	-0.0438127	5
	60	32	0.999041	334084.6	-449748.5	1	560255.5	-53.3941	-7.861367E-011	-0.0438066	5
