EXPLAIN
TAG	EISPOT
TITLE	LABEL	Potentiostatic EIS	Test &Identifier
DATE	LABEL	1/14/2020	Date
TIME	LABEL	17:59:13	Time
NOTES	NOTES	5	&Notes...
	
	
	
	
	
PSTAT	PSTAT	REF600-11020	Potentiostat
VDC	POTEN	0.00000E+000	T	DC &Voltage (V)
FREQINIT	QUANT	1.00000E+006	Initial Fre&q. (Hz)
FREQFINAL	QUANT	1.00000E+000	Final Fre&q. (Hz)
PTSPERDEC	QUANT	1.00000E+001	Points/&decade
VAC	QUANT	2.50000E+001	AC &Voltage (mV rms)
AREA	QUANT	1.00000E-001	&Area (cm^2)
CONDIT	TWOPARAM	T	5.00000E+000	0.00000E+000	Conditionin&g	Time(s)	E(V)
DELAY	TWOPARAM	T	5.00000E+000	0.00000E+000	Init. De&lay	Time(s)	Stab.(mV/s)
SPEED	SELECTOR	1	&Optimize for:
ZGUESS	QUANT	5.00000E+002	E&stimated Z (ohms)
OCVCURVE	TABLE	19
	Pt	T	Vf	Vm	Ach	Over
	#	s	V vs. Ref.	V	V	bits
	0	0.258333	2.56597E-003	2.56597E-003	6.52046E-004	...........
	1	0.516667	2.56432E-003	2.47978E-003	6.54779E-004	...........
	2	0.775	2.56913E-003	3.17908E-003	6.53780E-004	...........
	3	1.03333	2.63245E-003	3.85724E-003	6.49013E-004	...........
	4	1.29167	2.86327E-003	5.60230E-003	6.51313E-004	...........
	5	1.55	3.39364E-003	7.31519E-003	6.49246E-004	...........
	6	1.80833	4.27542E-003	6.94390E-003	6.54146E-004	...........
	7	2.06667	5.34450E-003	7.48574E-003	6.55079E-004	...........
	8	2.325	6.31200E-003	8.36575E-003	6.49680E-004	...........
	9	2.58333	7.04783E-003	8.48694E-003	6.51713E-004	...........
	10	2.84167	7.60549E-003	8.37078E-003	6.50646E-004	...........
	11	3.1	8.01924E-003	8.31430E-003	6.50346E-004	...........
	12	3.35833	8.26213E-003	8.12018E-003	6.49846E-004	...........
	13	3.61667	8.33408E-003	8.00963E-003	6.47146E-004	...........
	14	3.875	8.28497E-003	8.00738E-003	6.48613E-004	...........
	15	4.13333	8.18459E-003	8.00711E-003	6.46713E-004	...........
	16	4.39167	8.09289E-003	8.05639E-003	6.47413E-004	...........
	17	4.65	8.04104E-003	8.09605E-003	6.57746E-004	...........
	18	4.90833	8.03018E-003	8.05204E-003	6.56280E-004	...........
EOC	QUANT	0.0080302	Open Circuit (V)
PSTATMODEL	IQUANT	4	Pstat Model
PSTATSECTION	LABEL	REF600-11020	Pstat Section
PSTATSERIALNO	LABEL	11020	Pstat Serial Number
CTRLMODE	IQUANT	1	Control Mode
IESTAB	IQUANT	0	I/E Stability
CASPEED	IQUANT	1	Control Amp Speed
CONVENTION	IQUANT	1	Current Convention
ICHRANGE	IQUANT	2	Ich Range
ICHRANGEMODE	TOGGLE	F	Ich Auto Range
ICHOFFSETENABLE	TOGGLE	T	Ich Offset Enable
ICHOFFSET	QUANT	0	Ich Offset (V)
ICHFILTER	IQUANT	3	Ich Filter
VCHRANGE	IQUANT	2	Vch Range
VCHRANGEMODE	TOGGLE	F	Vch Auto Range
VCHOFFSETENABLE	TOGGLE	T	Vch Offset Enable
VCHOFFSET	QUANT	0	Vch Offset (V)
VCHFILTER	IQUANT	3	Vch Filter
ACHRANGE	IQUANT	2	Ach Range
ACHOFFSETENABLE	TOGGLE	F	Ach Offset Enable
ACHOFFSET	QUANT	0	Ach Offset (V)
ACHFILTER	IQUANT	3	Ach Filter
IERANGELOWERLIMIT	IQUANT	1	I/E Range Lower Limit
IERANGEMODE	TOGGLE	F	I/E AutoRange
IERANGE	IQUANT	7	I/E Range
POSFEEDENABLE	TOGGLE	F	Positive Feedback IR Comp
POSFEEDRESISTANCE	QUANT	0	Positive Feedback Resistance (ohm)
ACHSELECT	IQUANT	0	Ach Select
CABLEID	IQUANT	14	Cable ID
DCCALDATE	LABEL	12/22/2019	DC Calibration Date
ACCALDATE	LABEL	12/22/2019	AC Calibration Date
THERMOSELECT	IQUANT	1	Thermo Select
FRAMEWORKVERSION	QUANT	6.33	Framework Version
INSTRUMENTVERSION	LABEL	3.50	Instrument Version
ZCURVE	TABLE
	Pt	Time	Freq	Zreal	Zimag	Zsig	Zmod	Zphz	Idc	Vdc	IERange
	#	s	Hz	ohm	ohm	V	ohm	°	A	V	#
	0	1	1000078	2413.809	-1414.773	1	2797.866	-30.37527	-3.047297E-007	0.0104878	8
	1	2	794390.6	2678.627	-1340.984	1	2995.543	-26.59363	-3.426058E-006	0.0107025	8
	2	4	630984.4	2898.468	-1230.404	1	3148.811	-23.0013	1.471671E-006	0.0095863	8
	3	5	501234.4	3084.508	-1126.328	1	3283.719	-20.06	1.340769E-006	0.0093709	8
	4	7	398109.4	3244.658	-1020.443	1	3401.34	-17.45833	-2.428429E-006	0.0100847	8
	5	8	316265.6	3371.998	-911.8114	1	3493.103	-15.1313	1.592574E-006	0.0093007	8
	6	9	251203.1	3487.84	-815.8323	1	3581.984	-13.16522	-2.154673E-006	0.0099802	8
	7	11	199546.9	3563.002	-724.8771	1	3635.991	-11.49963	-4.480408E-007	0.0097303	8
	8	12	158578.1	3667.542	-656.011	1	3725.75	-10.14122	2.983804E-006	0.0091038	8
	9	13	125953.1	3733.198	-578.5579	1	3777.763	-8.809417	4.338441E-007	0.0083336	7
	10	15	100078.1	3779.851	-534.116	1	3817.402	-8.042992	-9.961347E-010	0.0094947	7
	11	16	79453.13	3835.306	-509.648	1	3869.02	-7.569305	4.673844E-008	0.0095046	7
	12	17	63140.62	3888.351	-491.5805	1	3919.301	-7.205332	5.620536E-008	0.0094105	7
	13	19	50203.12	3939.773	-480.8806	1	3969.012	-6.958983	-3.720114E-008	0.0095761	7
	14	20	39890.62	3989.908	-478.3611	1	4018.482	-6.836716	1.92097E-008	0.0094573	7
	15	21	31640.63	4040.048	-483.2098	1	4068.842	-6.82046	2.614188E-008	0.0094906	7
	16	23	25171.88	4090.152	-495.5391	1	4120.062	-6.907956	-9.677071E-009	0.009609	7
	17	24	20015.62	4139.176	-517.9155	1	4171.452	-7.132084	5.283146E-008	0.0094335	7
	18	26	15890.62	4188.932	-549.2229	1	4224.783	-7.469607	-6.348445E-009	0.0095129	7
	19	27	12609.37	4239.46	-592.4227	1	4280.652	-7.955007	-1.810009E-008	0.0095439	7
	20	28	10078.13	4292.819	-641.2014	1	4340.441	-8.495239	-2.292729E-008	0.0095358	7
	21	30	8015.625	4341.922	-722.301	1	4401.592	-9.444953	3.206145E-008	0.0094256	7
	22	31	6328.125	4399.765	-816.0568	1	4474.805	-10.50766	-1.782974E-008	0.0095338	7
	23	32	5015.625	4459.36	-933.7407	1	4556.069	-11.82624	2.619504E-008	0.0094952	7
	24	34	3984.375	4521.06	-1081.472	1	4648.608	-13.4528	-8.397171E-009	0.0096042	7
	25	35	3170.956	4588.57	-1261.652	1	4758.859	-15.37387	-2.287413E-008	0.0095413	7
	26	36	2527.573	4660.419	-1482.603	1	4890.564	-17.64725	2.505425E-008	0.0094919	7
	27	38	1976.103	4749.678	-1782.251	1	5073.052	-20.56791	2.021296E-008	0.0094585	7
	28	39	1577.524	4847.707	-2120.908	1	5291.362	-23.62974	2.289988E-010	0.0095296	7
	29	40	1265.625	4942.346	-2528.413	1	5551.545	-27.09344	-1.812348E-008	0.0095348	7
	30	42	998.264	5068.575	-3076.375	1	5929.126	-31.25569	4.844113E-008	0.0094907	7
	31	43	796.875	5212.209	-3711.298	1	6398.505	-35.45236	-2.135498E-008	0.0095376	7
	32	44	627.7902	5399.596	-4539.068	1	7053.99	-40.05145	2.704862E-008	0.0094918	7
	33	46	505.5147	5608.876	-5459.859	1	7827.487	-44.22868	1.940416E-008	0.0094501	7
	34	47	397.9953	5882.861	-6705.605	1	8920.381	-48.73936	9.535775E-009	0.009522	7
	35	49	315.5048	6223.055	-8190.914	1	10286.76	-52.77421	-1.433003E-010	0.009523	6
	36	50	252.4038	6627.426	-9932.64	1	11940.69	-56.28731	1.110772E-009	0.0095249	6
	37	51	198.6229	7174.466	-12219.37	1	14169.89	-59.58115	1.096318E-009	0.0095174	6
	38	53	158.3615	7830.017	-14860.72	1	16797.32	-62.21554	1.697898E-009	0.0095175	6
	39	54	125.558	8684.859	-18154.74	1	20125.14	-64.43449	6.754776E-010	0.009517	6
	40	55	100.4464	9733.41	-21997.9	1	24055.08	-66.13206	1.182213E-009	0.0095119	6
	41	57	79.00281	11179.66	-27015.83	1	29237.65	-67.51931	3.161474E-010	0.0095117	6
	42	58	63.3446	12919.57	-32670.82	1	35132.57	-68.42385	9.610738E-010	0.0095096	6
	43	59	49.86702	15312.01	-39777.17	1	42622.54	-68.94606	7.247951E-010	0.00951	6
	44	61	39.72458	18399.46	-48086.83	1	51486.73	-69.06165	6.478429E-010	0.009519	6
	45	62	31.6723	22338.71	-57937.42	1	62094.79	-68.91504	-2.021744E-009	0.0095193	6
	46	64	24.93351	27780.68	-70097.15	1	75401.44	-68.38074	2.917578E-009	0.00952	6
	47	65	19.86229	34557.15	-83596.14	1	90457.23	-67.54067	-5.216743E-010	0.0095278	6
	48	66	15.83615	43200.31	-99146.6	1	108149.5	-66.45621	-6.001818E-011	0.0095152	5
	49	68	12.40079	54713.57	-117664.9	1	129763.7	-65.06182	3.994099E-010	0.0095225	5
	50	69	9.93114	68091.78	-137092	1	153070.9	-63.58702	-4.628482E-011	0.0095209	5
	51	71	7.944915	83728.19	-157963.1	1	178781.3	-62.07421	5.896193E-010	0.0095123	5
	52	72	6.317385	102470.4	-181424.8	1	208363	-60.54183	6.86236E-010	0.0095084	5
	53	74	5.008013	124045.8	-207905.4	1	242099.2	-59.1778	-1.540065E-010	0.0095101	5
	54	77	3.945707	148495.1	-237695.1	1	280267.3	-58.00577	4.421378E-010	0.0095181	5
	55	79	3.158693	173976	-269540.1	1	320810.8	-57.15957	-2.466159E-010	0.0095026	5
	56	82	2.504006	203563.9	-307058.8	1	368406.5	-56.45771	-2.386398E-010	0.0095171	5
	57	85	1.998082	233345.7	-348966.1	1	419794.7	-56.23025	1.136549E-009	0.0095598	5
	58	88	1.584686	267466.7	-400673.2	1	481744.2	-56.27518	-3.473805E-010	0.0095168	5
	59	92	1.266892	306887.2	-458741.2	1	551926.9	-56.2184	4.698524E-011	0.009566	5
	60	96	0.999041	351841.9	-529125.6	1	635426.3	-56.37809	5.824752E-012	0.0094815	5
