EXPLAIN
TAG	EISPOT
TITLE	LABEL	Potentiostatic EIS	Test &Identifier
DATE	LABEL	3/12/2020	Date
TIME	LABEL	13:17:23	Time
NOTES	NOTES	1	&Notes...
	
PSTAT	PSTAT	REF600-11020	Potentiostat
VDC	POTEN	0.00000E+000	T	DC &Voltage (V)
FREQINIT	QUANT	1.00000E+006	Initial Fre&q. (Hz)
FREQFINAL	QUANT	1.00000E+000	Final Fre&q. (Hz)
PTSPERDEC	QUANT	1.00000E+001	Points/&decade
VAC	QUANT	2.50000E+001	AC &Voltage (mV rms)
AREA	QUANT	2.50000E-001	&Area (cm^2)
CONDIT	TWOPARAM	F	5.00000E+000	0.00000E+000	Conditionin&g	Time(s)	E(V)
DELAY	TWOPARAM	T	5.00000E+000	0.00000E+000	Init. De&lay	Time(s)	Stab.(mV/s)
SPEED	SELECTOR	1	&Optimize for:
ZGUESS	QUANT	5.00000E+003	E&stimated Z (ohms)
OCVCURVE	TABLE	19
	Pt	T	Vf	Vm	Ach	Over
	#	s	V vs. Ref.	V	V	bits
	0	0.258333	-4.42158E-002	-4.42158E-002	5.55297E-004	...........
	1	0.516667	-4.42121E-002	-4.40235E-002	5.61764E-004	...........
	2	0.775	-4.41912E-002	-4.39257E-002	5.66663E-004	...........
	3	1.03333	-4.41389E-002	-4.39140E-002	5.59630E-004	...........
	4	1.29167	-4.40627E-002	-4.39116E-002	5.60697E-004	...........
	5	1.55	-4.39887E-002	-4.38590E-002	5.61097E-004	...........
	6	1.80833	-4.39331E-002	-4.37938E-002	5.61397E-004	...........
	7	2.06667	-4.38905E-002	-4.37451E-002	5.58597E-004	...........
	8	2.325	-4.38485E-002	-4.37028E-002	5.65264E-004	...........
	9	2.58333	-4.38015E-002	-4.36117E-002	5.60497E-004	...........
	10	2.84167	-4.37491E-002	-4.35814E-002	5.59297E-004	...........
	11	3.1	-4.36969E-002	-4.37284E-002	5.60664E-004	...........
	12	3.35833	-4.36619E-002	-4.37629E-002	5.60764E-004	...........
	13	3.61667	-4.36617E-002	-4.37625E-002	5.61830E-004	...........
	14	3.875	-4.36896E-002	-4.37115E-002	5.58130E-004	...........
	15	4.13333	-4.37188E-002	-4.36698E-002	5.59097E-004	...........
	16	4.39167	-4.37283E-002	-4.37037E-002	5.54430E-004	...........
	17	4.65	-4.37184E-002	-4.36474E-002	5.58097E-004	...........
	18	4.90833	-4.36980E-002	-4.35286E-002	5.62330E-004	...........
EOC	QUANT	-0.043698	Open Circuit (V)
PSTATMODEL	IQUANT	4	Pstat Model
PSTATSECTION	LABEL	REF600-11020	Pstat Section
PSTATSERIALNO	LABEL	11020	Pstat Serial Number
CTRLMODE	IQUANT	1	Control Mode
IESTAB	IQUANT	0	I/E Stability
CASPEED	IQUANT	1	Control Amp Speed
CONVENTION	IQUANT	1	Current Convention
ICHRANGE	IQUANT	2	Ich Range
ICHRANGEMODE	TOGGLE	F	Ich Auto Range
ICHOFFSETENABLE	TOGGLE	T	Ich Offset Enable
ICHOFFSET	QUANT	0	Ich Offset (V)
ICHFILTER	IQUANT	3	Ich Filter
VCHRANGE	IQUANT	2	Vch Range
VCHRANGEMODE	TOGGLE	F	Vch Auto Range
VCHOFFSETENABLE	TOGGLE	T	Vch Offset Enable
VCHOFFSET	QUANT	0	Vch Offset (V)
VCHFILTER	IQUANT	3	Vch Filter
ACHRANGE	IQUANT	2	Ach Range
ACHOFFSETENABLE	TOGGLE	F	Ach Offset Enable
ACHOFFSET	QUANT	0	Ach Offset (V)
ACHFILTER	IQUANT	3	Ach Filter
IERANGELOWERLIMIT	IQUANT	1	I/E Range Lower Limit
IERANGEMODE	TOGGLE	F	I/E AutoRange
IERANGE	IQUANT	7	I/E Range
POSFEEDENABLE	TOGGLE	F	Positive Feedback IR Comp
POSFEEDRESISTANCE	QUANT	0	Positive Feedback Resistance (ohm)
ACHSELECT	IQUANT	0	Ach Select
CABLEID	IQUANT	14	Cable ID
DCCALDATE	LABEL	2/27/2020	DC Calibration Date
ACCALDATE	LABEL	2/27/2020	AC Calibration Date
THERMOSELECT	IQUANT	1	Thermo Select
FRAMEWORKVERSION	QUANT	6.33	Framework Version
INSTRUMENTVERSION	LABEL	3.50	Instrument Version
ZCURVE	TABLE
	Pt	Time	Freq	Zreal	Zimag	Zsig	Zmod	Zphz	Idc	Vdc	IERange
	#	s	Hz	ohm	ohm	V	ohm	°	A	V	#
	0	1	1000078	1672.706	-1830.633	1	2479.75	-47.5811	-7.229551E-007	-0.0408443	8
	1	3	794390.6	1980.234	-1945.861	1	2776.274	-44.49839	-1.74841E-006	-0.0411792	8
	2	4	630984.4	2279.61	-2050.969	1	3066.447	-41.97776	-2.968352E-006	-0.0412719	8
	3	6	501234.4	2583.153	-2143.661	1	3356.779	-39.688	-1.763129E-009	-0.0420126	8
	4	7	398109.4	2870.345	-2275.954	1	3663.175	-38.41161	4.244974E-006	-0.0430742	8
	5	9	316265.6	3167.372	-2371.167	1	3956.599	-36.81936	-4.373412E-006	-0.0411351	8
	6	10	251203.1	3479.344	-2555.522	1	4317.004	-36.29668	6.108304E-006	-0.0431991	8
	7	12	199546.9	3798.63	-2743.986	1	4686.048	-35.84291	-3.441947E-006	-0.0415758	8
	8	13	158578.1	4194.294	-2965.65	1	5136.845	-35.2629	-6.064915E-007	-0.0420232	8
	9	15	125953.1	4693.563	-3176.461	1	5667.401	-34.08895	2.314569E-009	-0.0423207	7
	10	16	100078.1	5160.287	-3468.259	1	6217.506	-33.90528	7.141126E-009	-0.0421843	7
	11	18	79453.13	5729.799	-3781.743	1	6865.288	-33.42534	-1.869821E-008	-0.0421078	7
	12	19	63140.62	6391.905	-4065.1	1	7575.057	-32.45539	-6.526072E-009	-0.0420879	7
	13	20	50203.12	7133.708	-4281.686	1	8320.013	-30.97239	-5.105794E-008	-0.0421423	7
	14	22	39890.62	7943.347	-4406.867	1	9083.9	-29.02095	7.650534E-009	-0.0422676	7
	15	23	31640.63	8789.887	-4441.497	1	9848.3	-26.8073	6.649004E-008	-0.0423504	7
	16	25	25171.88	9602.13	-4366.996	1	10548.53	-24.45579	-4.784461E-008	-0.0420842	7
	17	26	20015.62	10370.48	-4187.626	1	11184.06	-21.98898	-5.767003E-009	-0.0422669	7
	18	28	15890.62	11051.99	-3938.368	1	11732.74	-19.61349	1.447659E-007	-0.0424059	7
	19	29	12609.37	11774.99	-3429.198	1	12264.17	-16.237	-1.404646E-009	-0.0421632	6
	20	31	10078.13	12226.9	-3197.818	1	12638.16	-14.65681	-5.674661E-009	-0.042023	6
	21	33	8015.625	12604.25	-2996.146	1	12955.46	-13.37156	3.892814E-009	-0.042095	6
	22	34	6328.125	12920.8	-2831.278	1	13227.36	-12.35963	-2.858045E-009	-0.0422377	6
	23	36	5015.625	13187	-2731.703	1	13466.96	-11.70336	7.188875E-010	-0.0422151	6
	24	37	3984.375	13429.67	-2708.663	1	13700.11	-11.40314	-3.219561E-009	-0.0420065	6
	25	39	3170.956	13654.35	-2752.426	1	13929	-11.39688	2.457157E-009	-0.0422978	6
	26	40	2527.573	13864.84	-2875.411	1	14159.86	-11.71641	-3.225121E-009	-0.0421659	6
	27	42	1976.103	14103.49	-3098.391	1	14439.82	-12.39046	-4.356053E-009	-0.0421314	6
	28	44	1577.524	14321.45	-3398.626	1	14719.19	-13.34992	2.832202E-009	-0.0423006	6
	29	45	1265.625	14554.39	-3782.655	1	15037.91	-14.56874	2.401367E-009	-0.0423005	6
	30	47	998.264	14823.8	-4320.848	1	15440.69	-16.25037	1.887821E-008	-0.0424713	6
	31	48	796.875	15125.08	-4964.993	1	15919.15	-18.17306	-8.191541E-009	-0.0420068	6
	32	50	627.7902	15486.22	-5813.045	1	16541.29	-20.57458	6.553202E-009	-0.0421226	6
	33	51	505.5147	15867.52	-6743.367	1	17240.97	-23.02448	-3.059332E-009	-0.0422399	6
	34	52	397.9953	16355.32	-8008.932	1	18210.97	-26.09023	1.359141E-009	-0.0421431	6
	35	54	315.5048	16934.83	-9493.709	1	19414.4	-29.2751	1.293163E-009	-0.0421388	6
	36	55	252.4038	17577.58	-11212.8	1	20849.42	-32.53394	1.062665E-009	-0.0421444	6
	37	56	198.6229	18377.36	-13452.95	1	22775.19	-36.2056	6.596944E-010	-0.0421442	6
	38	58	158.3615	19305.31	-16009.74	1	25080	-39.66864	7.315035E-010	-0.0421425	6
	39	59	125.558	20463.18	-19203.17	1	28062.49	-43.18061	6.787066E-010	-0.042144	6
	40	60	100.4464	21807.75	-22826.45	1	31569.36	-46.30745	1.12844E-009	-0.0421441	6
	41	62	79.00281	23813.13	-27647.62	1	36489.12	-49.26139	2.214441E-010	-0.0421442	6
	42	63	63.3446	26234.04	-33275.08	1	42372.82	-51.74779	7.865636E-010	-0.0421466	6
	43	65	49.86702	28405.84	-39612.06	1	48744.31	-54.35566	-1.460616E-010	-0.0421595	6
	44	66	39.72458	32245.8	-47063.08	1	57050.2	-55.58257	2.612068E-010	-0.042146	6
	45	67	31.6723	36582.85	-55599.43	1	66555.25	-56.65622	3.651547E-010	-0.0421501	6
	46	69	24.93351	42379.24	-66187.7	1	78592.7	-57.36902	3.716252E-010	-0.0421511	6
	47	70	19.86229	49038.66	-77626.09	1	91818.3	-57.71821	1.343873E-011	-0.0421531	6
	48	72	15.83615	56924.15	-90606.41	1	107004.1	-57.8606	-4.541446E-010	-0.0421407	5
	49	73	12.40079	66132.01	-107140.5	1	125906.8	-58.31522	1.368527E-010	-0.0421447	5
	50	75	9.93114	78347.98	-124697.4	1	147268	-57.85866	2.037679E-010	-0.0421463	5
	51	76	7.944915	92321.98	-144028.3	1	171077.5	-57.34017	-1.289056E-010	-0.0421348	5
	52	78	6.317385	107870.8	-166530.5	1	198415	-57.0667	-4.403933E-010	-0.0421473	5
	53	80	5.008013	127617.3	-192301.8	1	230794.6	-56.43054	-3.500059E-010	-0.0421383	5
	54	83	3.945707	151047.1	-221622.8	1	268201.2	-55.72359	-8.371738E-011	-0.0421406	5
	55	85	3.158693	176696.7	-251860	1	307660.8	-54.94776	-4.893157E-011	-0.0421413	5
	56	89	2.504006	206516.3	-286602	1	353255.9	-54.22468	-1.203305E-010	-0.0421317	5
	57	91	1.998082	238359.8	-323933.3	1	402179.3	-53.65326	3.206973E-010	-0.0421697	5
	58	94	1.584686	274875.6	-367639.1	1	459037.1	-53.21535	-2.356097E-010	-0.0421749	5
	59	98	1.266892	312306.3	-414470.2	1	518961.2	-53.00171	1.35822E-010	-0.0421826	5
	60	102	0.999041	354678.9	-472794.7	1	591043.1	-53.12368	-9.347688E-011	-0.0421233	5
