EXPLAIN
TAG	EISPOT
TITLE	LABEL	Potentiostatic EIS	Test &Identifier
DATE	LABEL	6/26/2020	Date
TIME	LABEL	13:05:30	Time
NOTES	NOTES	1	&Notes...
	
PSTAT	PSTAT	REF600-11020	Potentiostat
VDC	POTEN	0.00000E+000	T	DC &Voltage (V)
FREQINIT	QUANT	1.00000E+006	Initial Fre&q. (Hz)
FREQFINAL	QUANT	1.00000E+000	Final Fre&q. (Hz)
PTSPERDEC	QUANT	1.00000E+001	Points/&decade
VAC	QUANT	2.50000E+001	AC &Voltage (mV rms)
AREA	QUANT	4.00000E-004	&Area (cm^2)
CONDIT	TWOPARAM	F	5.00000E+000	0.00000E+000	Conditionin&g	Time(s)	E(V)
DELAY	TWOPARAM	F	3.00000E+000	0.00000E+000	Init. De&lay	Time(s)	Stab.(mV/s)
SPEED	SELECTOR	0	&Optimize for:
ZGUESS	QUANT	1.00000E+003	E&stimated Z (ohms)
OCVCURVE	TABLE	39
	Pt	T	Vf	Vm	Ach	Over
	#	s	V vs. Ref.	V	V	bits
	0	0.258333	-1.67080E-001	-1.67080E-001	5.67183E-004	...........
	1	0.516667	-1.67081E-001	-1.67145E-001	5.69716E-004	...........
	2	0.775	-1.67088E-001	-1.67149E-001	5.62916E-004	...........
	3	1.03333	-1.67103E-001	-1.67154E-001	5.60616E-004	...........
	4	1.29167	-1.67122E-001	-1.67165E-001	5.66016E-004	...........
	5	1.55	-1.67141E-001	-1.67190E-001	5.70516E-004	...........
	6	1.80833	-1.67156E-001	-1.67215E-001	5.74816E-004	...........
	7	2.06667	-1.67172E-001	-1.67245E-001	5.67583E-004	...........
	8	2.325	-1.67192E-001	-1.67281E-001	5.66416E-004	...........
	9	2.58333	-1.67216E-001	-1.67318E-001	5.68283E-004	...........
	10	2.84167	-1.67246E-001	-1.67349E-001	5.68916E-004	...........
	11	3.1	-1.67278E-001	-1.67385E-001	5.66716E-004	...........
	12	3.35833	-1.67313E-001	-1.67429E-001	5.70983E-004	...........
	13	3.61667	-1.67349E-001	-1.67469E-001	5.65349E-004	...........
	14	3.875	-1.67386E-001	-1.67515E-001	5.76383E-004	...........
	15	4.13333	-1.67426E-001	-1.67574E-001	5.73749E-004	...........
	16	4.39167	-1.67470E-001	-1.67621E-001	5.64416E-004	...........
	17	4.65	-1.67517E-001	-1.67678E-001	5.65049E-004	...........
	18	4.90833	-1.67568E-001	-1.67769E-001	5.65883E-004	...........
	19	5.16667	-1.67625E-001	-1.67856E-001	5.69716E-004	...........
	20	5.425	-1.67690E-001	-1.67930E-001	5.70616E-004	...........
	21	5.68333	-1.67764E-001	-1.67987E-001	5.71083E-004	...........
	22	5.94167	-1.67840E-001	-1.68022E-001	5.63783E-004	...........
	23	6.2	-1.67910E-001	-1.68044E-001	5.71816E-004	...........
	24	6.45833	-1.67967E-001	-1.68071E-001	5.66216E-004	...........
	25	6.71667	-1.68010E-001	-1.68099E-001	5.73916E-004	...........
	26	6.975	-1.68044E-001	-1.68146E-001	5.71016E-004	...........
	27	7.23333	-1.68074E-001	-1.68180E-001	5.76916E-004	...........
	28	7.49167	-1.68106E-001	-1.68217E-001	5.75782E-004	...........
	29	7.75	-1.68140E-001	-1.68255E-001	5.75716E-004	...........
	30	8.00833	-1.68177E-001	-1.68270E-001	5.80349E-004	...........
	31	8.26667	-1.68211E-001	-1.68291E-001	5.78983E-004	...........
	32	8.525	-1.68243E-001	-1.68349E-001	5.77916E-004	...........
	33	8.78333	-1.68272E-001	-1.68384E-001	5.69849E-004	...........
	34	9.04167	-1.68304E-001	-1.68412E-001	5.66449E-004	...........
	35	9.3	-1.68339E-001	-1.68438E-001	5.73882E-004	...........
	36	9.5583	-1.68374E-001	-1.68452E-001	5.73149E-004	...........
	37	9.8167	-1.68405E-001	-1.68464E-001	5.69749E-004	...........
	38	10.075	-1.68430E-001	-1.68485E-001	5.70483E-004	...........
EOC	QUANT	-0.1684296	Open Circuit (V)
PSTATMODEL	IQUANT	4	Pstat Model
PSTATSECTION	LABEL	REF600-11020	Pstat Section
PSTATSERIALNO	LABEL	11020	Pstat Serial Number
CTRLMODE	IQUANT	1	Control Mode
IESTAB	IQUANT	0	I/E Stability
CASPEED	IQUANT	1	Control Amp Speed
CONVENTION	IQUANT	1	Current Convention
ICHRANGE	IQUANT	2	Ich Range
ICHRANGEMODE	TOGGLE	F	Ich Auto Range
ICHOFFSETENABLE	TOGGLE	T	Ich Offset Enable
ICHOFFSET	QUANT	0	Ich Offset (V)
ICHFILTER	IQUANT	3	Ich Filter
VCHRANGE	IQUANT	2	Vch Range
VCHRANGEMODE	TOGGLE	F	Vch Auto Range
VCHOFFSETENABLE	TOGGLE	T	Vch Offset Enable
VCHOFFSET	QUANT	0	Vch Offset (V)
VCHFILTER	IQUANT	3	Vch Filter
ACHRANGE	IQUANT	2	Ach Range
ACHOFFSETENABLE	TOGGLE	F	Ach Offset Enable
ACHOFFSET	QUANT	0	Ach Offset (V)
ACHFILTER	IQUANT	3	Ach Filter
IERANGELOWERLIMIT	IQUANT	1	I/E Range Lower Limit
IERANGEMODE	TOGGLE	F	I/E AutoRange
IERANGE	IQUANT	8	I/E Range
POSFEEDENABLE	TOGGLE	F	Positive Feedback IR Comp
POSFEEDRESISTANCE	QUANT	0	Positive Feedback Resistance (ohm)
ACHSELECT	IQUANT	0	Ach Select
CABLEID	IQUANT	14	Cable ID
DCCALDATE	LABEL	6/26/2020	DC Calibration Date
ACCALDATE	LABEL	6/26/2020	AC Calibration Date
THERMOSELECT	IQUANT	1	Thermo Select
FRAMEWORKVERSION	QUANT	6.33	Framework Version
INSTRUMENTVERSION	LABEL	3.50	Instrument Version
ZCURVE	TABLE
	Pt	Time	Freq	Zreal	Zimag	Zsig	Zmod	Zphz	Idc	Vdc	IERange
	#	s	Hz	ohm	ohm	V	ohm	°	A	V	#
	0	1	1000078	1604.459	-2201.365	1	2724.022	-53.91366	7.738647E-008	-0.1660474	8
	1	2	794390.6	1913.589	-2491.842	1	3141.83	-52.47784	5.680657E-008	-0.1663985	8
	2	2	630984.4	2282.375	-2797.329	1	3610.302	-50.78857	1.449856E-007	-0.1665885	8
	3	2	501234.4	2711.566	-3115.237	1	4130.047	-48.96302	7.366023E-008	-0.1666794	8
	4	3	398109.4	3201.269	-3432.765	1	4693.826	-46.99854	7.375406E-009	-0.1667314	8
	5	3	316265.6	3765.268	-3736.06	1	5304.28	-44.77691	7.415782E-008	-0.1667438	8
	6	3	251203.1	4381.309	-4015.01	1	5942.741	-42.50199	2.121492E-007	-0.1667715	8
	7	4	199546.9	5053.468	-4266.63	1	6613.749	-40.17431	5.046294E-008	-0.1667564	8
	8	4	158578.1	5768.545	-4475.771	1	7301.277	-37.80762	7.299423E-008	-0.1667576	8
	9	4	125953.1	6613.052	-4592.583	1	8051.352	-34.77892	3.533397E-008	-0.1668489	7
	10	5	100078.1	7391.074	-4726.423	1	8773.087	-32.59799	-1.691391E-008	-0.1667859	7
	11	5	79453.13	8158.9	-4815.46	1	9473.98	-30.54951	1.233554E-008	-0.1667949	7
	12	5	63140.62	8928.036	-4874.688	1	10172.14	-28.63444	-1.710971E-008	-0.1667984	7
	13	6	50203.12	9679.1	-4896.341	1	10847.08	-26.83336	-1.281271E-008	-0.1667817	7
	14	6	39890.62	10425.57	-4909.103	1	11523.53	-25.21441	-6.68283E-009	-0.1667881	7
	15	6	31640.63	11165.14	-4916.086	1	12199.52	-23.76421	-2.152001E-008	-0.1667874	7
	16	7	25171.88	11886.79	-4926.018	1	12867.07	-22.50966	-1.04338E-008	-0.1668213	7
	17	7	20015.62	12590.16	-4925.685	1	13519.41	-21.36708	3.284436E-010	-0.1667988	7
	18	7	15890.62	13308.59	-4946.469	1	14198.11	-20.38883	1.445177E-008	-0.1668422	7
	19	8	12609.37	14122.37	-4807.66	1	14918.28	-18.80005	-3.186791E-009	-0.1667738	6
	20	8	10078.13	14789.27	-4855.34	1	15565.89	-18.17509	2.112166E-009	-0.1668169	6
	21	8	8015.625	15458.42	-4908.741	1	16219.08	-17.61697	1.848702E-009	-0.166874	6
	22	9	6328.125	16152.98	-4977.295	1	16902.43	-17.12589	4.203066E-009	-0.1668551	6
	23	9	5015.625	16818.26	-5062.072	1	17563.55	-16.75109	-3.624336E-009	-0.1667745	6
	24	9	3984.375	17476.59	-5176.127	1	18227	-16.49796	-1.587416E-010	-0.1667852	6
	25	9	3170.956	18108.41	-5329.887	1	18876.5	-16.40085	2.705531E-009	-0.1668795	6
	26	10	2527.573	18731.74	-5533.542	1	19531.98	-16.45766	-1.62345E-009	-0.1667809	6
	27	10	1976.103	19394.94	-5837.156	1	20254.29	-16.74984	-3.367576E-009	-0.166794	6
	28	10	1577.524	20007.71	-6202.411	1	20947.03	-17.22349	-3.480875E-009	-0.1667837	6
	29	11	1265.625	20624.78	-6667.153	1	21675.62	-17.91392	3.730512E-009	-0.1668632	6
	30	11	998.264	21295.96	-7297.353	1	22511.53	-18.91473	3.479769E-009	-0.1668826	6
	31	11	796.875	21965.42	-8044.564	1	23392.19	-20.11464	2.32831E-009	-0.1668872	6
	32	12	627.7902	22701.03	-9027.742	1	24430.24	-21.68672	-3.471629E-009	-0.1667838	6
	33	12	505.5147	23421.48	-10128.87	1	25517.83	-23.38658	2.7776E-009	-0.1668338	6
	34	12	397.9953	24262.1	-11629.31	1	26905.21	-25.60933	5.530997E-010	-0.166804	6
	35	13	315.5048	25178.13	-13431.98	1	28536.93	-28.07895	3.329267E-010	-0.166804	6
	36	13	252.4038	26171.31	-15554.2	1	30444.55	-30.72396	2.761178E-010	-0.1668076	6
	37	13	198.6229	27406.9	-18342.32	1	32978.46	-33.79278	4.485965E-010	-0.1668084	6
	38	14	158.3615	28807.57	-21550.43	1	35976.34	-36.7995	1.492574E-010	-0.166809	6
	39	14	125.558	30531	-25514.35	1	39788.49	-39.88505	1.414183E-010	-0.1668077	6
	40	14	100.4464	32579.8	-30071.8	1	44336.86	-42.70762	1.396513E-011	-0.1668072	6
	41	15	79.00281	35314.3	-35920.38	1	50372.35	-45.48746	6.57919E-011	-0.1668095	6
	42	15	63.3446	38445.2	-42294.53	1	57156.46	-47.72955	2.002269E-010	-0.1668111	6
	43	15	49.86702	42685.42	-50354.71	1	66012.44	-49.71223	-1.411455E-010	-0.166812	6
	44	16	39.72458	47719.62	-59260.2	1	76085.05	-51.15704	7.717158E-011	-0.1668056	6
	45	16	31.6723	53959.48	-69474.93	1	87968.13	-52.16439	-6.626958E-010	-0.1668085	6
	46	16	24.93351	62057.2	-81702.38	1	102598.1	-52.78144	-1.438833E-010	-0.1668169	5
	47	17	19.86229	71407.34	-94902.59	1	118766.6	-53.04118	1.520742E-009	-0.1668152	5
	48	17	15.83615	82982.55	-109584	1	137458.2	-52.86515	-1.447417E-009	-0.1668135	5
	49	17	12.40079	97634.5	-126828.8	1	160056.4	-52.41045	-8.339821E-010	-0.1668105	5
	50	17	9.93114	113374.6	-143600.2	1	182961.2	-51.70836	-1.398079E-009	-0.1668122	5
	51	18	7.944915	130998.3	-162388	1	208639.4	-51.10689	-7.621578E-010	-0.1668086	5
	52	18	6.317385	151917.5	-182706.7	1	237614.6	-50.25706	3.058716E-010	-0.1668141	5
	53	19	5.008013	175534.2	-204958.4	1	269852.1	-49.42199	-1.06564E-010	-0.1668232	5
	54	20	3.945707	202478.1	-230196.8	1	306574.5	-48.66556	-1.912376E-010	-0.1668158	5
	55	21	3.158693	229234.2	-255596.1	1	343333.3	-48.1123	-4.153585E-012	-0.1668351	5
	56	22	2.504006	259964.8	-285462.2	1	386096.3	-47.67649	4.264165E-010	-0.1668413	5
	57	23	1.998082	290770.7	-318014.5	1	430907	-47.56234	2.337995E-010	-0.1668547	5
	58	25	1.584686	326497.5	-356834.4	1	483664.6	-47.54201	1.276114E-011	-0.1668873	5
	59	27	1.266892	362253.5	-401626.5	1	540861.8	-47.95061	7.076278E-011	-0.1668773	5
	60	29	0.999041	402936.3	-456600.8	1	608968	-48.57258	7.643808E-011	-0.1668453	5
