EXPLAIN
TAG	EISPOT
TITLE	LABEL	Potentiostatic EIS	Test &Identifier
DATE	LABEL	3/20/2020	Date
TIME	LABEL	14:42:08	Time
NOTES	NOTES	1	&Notes...
	
PSTAT	PSTAT	REF600-11020	Potentiostat
VDC	POTEN	0.00000E+000	T	DC &Voltage (V)
FREQINIT	QUANT	1.00000E+006	Initial Fre&q. (Hz)
FREQFINAL	QUANT	1.00000E+000	Final Fre&q. (Hz)
PTSPERDEC	QUANT	1.00000E+001	Points/&decade
VAC	QUANT	2.50000E+001	AC &Voltage (mV rms)
AREA	QUANT	4.00000E-004	&Area (cm^2)
CONDIT	TWOPARAM	F	5.00000E+000	0.00000E+000	Conditionin&g	Time(s)	E(V)
DELAY	TWOPARAM	T	3.00000E+000	0.00000E+000	Init. De&lay	Time(s)	Stab.(mV/s)
SPEED	SELECTOR	0	&Optimize for:
ZGUESS	QUANT	1.00000E+003	E&stimated Z (ohms)
OCVCURVE	TABLE	12
	Pt	T	Vf	Vm	Ach	Over
	#	s	V vs. Ref.	V	V	bits
	0	0.258333	1.35102E-001	1.35102E-001	6.57295E-004	...........
	1	0.516667	1.35103E-001	1.35132E-001	6.55295E-004	...........
	2	0.775	1.35106E-001	1.35112E-001	6.55162E-004	...........
	3	1.03333	1.35110E-001	1.35092E-001	6.54229E-004	...........
	4	1.29167	1.35111E-001	1.35079E-001	6.51195E-004	...........
	5	1.55	1.35106E-001	1.35049E-001	6.60462E-004	...........
	6	1.80833	1.35093E-001	1.35029E-001	6.52695E-004	...........
	7	2.06667	1.35075E-001	1.35001E-001	6.56762E-004	...........
	8	2.325	1.35053E-001	1.34976E-001	6.56362E-004	...........
	9	2.58333	1.35029E-001	1.34963E-001	6.49262E-004	...........
	10	2.84167	1.35005E-001	1.34955E-001	6.50962E-004	...........
	11	3.1	1.34985E-001	1.34940E-001	6.57995E-004	...........
EOC	QUANT	0.1349847	Open Circuit (V)
PSTATMODEL	IQUANT	4	Pstat Model
PSTATSECTION	LABEL	REF600-11020	Pstat Section
PSTATSERIALNO	LABEL	11020	Pstat Serial Number
CTRLMODE	IQUANT	1	Control Mode
IESTAB	IQUANT	0	I/E Stability
CASPEED	IQUANT	1	Control Amp Speed
CONVENTION	IQUANT	1	Current Convention
ICHRANGE	IQUANT	2	Ich Range
ICHRANGEMODE	TOGGLE	F	Ich Auto Range
ICHOFFSETENABLE	TOGGLE	T	Ich Offset Enable
ICHOFFSET	QUANT	0	Ich Offset (V)
ICHFILTER	IQUANT	3	Ich Filter
VCHRANGE	IQUANT	2	Vch Range
VCHRANGEMODE	TOGGLE	F	Vch Auto Range
VCHOFFSETENABLE	TOGGLE	T	Vch Offset Enable
VCHOFFSET	QUANT	0	Vch Offset (V)
VCHFILTER	IQUANT	3	Vch Filter
ACHRANGE	IQUANT	2	Ach Range
ACHOFFSETENABLE	TOGGLE	F	Ach Offset Enable
ACHOFFSET	QUANT	0	Ach Offset (V)
ACHFILTER	IQUANT	3	Ach Filter
IERANGELOWERLIMIT	IQUANT	1	I/E Range Lower Limit
IERANGEMODE	TOGGLE	F	I/E AutoRange
IERANGE	IQUANT	8	I/E Range
POSFEEDENABLE	TOGGLE	F	Positive Feedback IR Comp
POSFEEDRESISTANCE	QUANT	0	Positive Feedback Resistance (ohm)
ACHSELECT	IQUANT	0	Ach Select
CABLEID	IQUANT	14	Cable ID
DCCALDATE	LABEL	2/27/2020	DC Calibration Date
ACCALDATE	LABEL	2/27/2020	AC Calibration Date
THERMOSELECT	IQUANT	1	Thermo Select
FRAMEWORKVERSION	QUANT	6.33	Framework Version
INSTRUMENTVERSION	LABEL	3.50	Instrument Version
ZCURVE	TABLE
	Pt	Time	Freq	Zreal	Zimag	Zsig	Zmod	Zphz	Idc	Vdc	IERange
	#	s	Hz	ohm	ohm	V	ohm	°	A	V	#
	0	1	1000078	2169.353	-1928.471	1	2902.601	-41.63586	1.321506E-007	0.1373025	8
	1	1	794390.6	2465.68	-2002.454	1	3176.382	-39.0811	4.042331E-007	0.1369468	8
	2	2	630984.4	2752.487	-2070.483	1	3444.283	-36.95132	-3.71964E-007	0.1369033	8
	3	2	501234.4	3024.411	-2146.237	1	3708.557	-35.36095	4.193152E-007	0.1366824	8
	4	2	398109.4	3284.434	-2244.723	1	3978.227	-34.35038	-1.702516E-007	0.1366918	8
	5	3	316265.6	3534.758	-2369.656	1	4255.559	-33.8374	2.074018E-007	0.1366013	8
	6	3	251203.1	3779.781	-2540.449	1	4554.187	-33.90566	3.379527E-007	0.1365687	8
	7	3	199546.9	4017.492	-2762.851	1	4875.817	-34.51652	4.624277E-007	0.1365418	8
	8	4	158578.1	4263.941	-3057.233	1	5246.7	-35.64041	6.095449E-007	0.1365602	8
	9	4	125953.1	4592.055	-3375.579	1	5699.254	-36.31928	-4.384578E-009	0.136532	7
	10	4	100078.1	4855.188	-3847.093	1	6194.592	-38.39216	2.498324E-009	0.1365455	7
	11	4	79453.13	5169.958	-4444.078	1	6817.5	-40.68224	-2.20034E-009	0.1365387	7
	12	5	63140.62	5536.221	-5165.17	1	7571.573	-43.01418	-2.810589E-009	0.1365275	7
	13	5	50203.12	5969.884	-6045.646	1	8496.432	-45.36127	-3.673051E-009	0.1365337	7
	14	5	39890.62	6497.058	-7115.481	1	9635.45	-47.60118	1.803117E-008	0.1365034	7
	15	6	31640.63	7149.716	-8400.842	1	11031.44	-49.59984	3.162267E-009	0.136518	7
	16	6	25171.88	7951.35	-9924.05	1	12716.55	-51.29759	5.175356E-010	0.1365192	7
	17	6	20015.62	8976.951	-11713.01	1	14757.38	-52.53314	-2.56383E-009	0.1365196	7
	18	7	15890.62	10298.1	-13847.2	1	17256.76	-53.362	1.918226E-008	0.1364873	7
	19	7	12609.37	12228.3	-16211.9	1	20306.58	-52.97351	2.381045E-009	0.1365741	6
	20	7	10078.13	14403.04	-18873.82	1	23741.71	-52.65192	1.527782E-010	0.1365674	6
	21	8	8015.625	17282.18	-21837.09	1	27848.38	-51.64142	1.458075E-009	0.1365805	6
	22	8	6328.125	21171.31	-24882.65	1	32670.64	-49.60732	1.049593E-009	0.1365609	6
	23	8	5015.625	25921.66	-27739.25	1	37965.75	-46.93996	5.309325E-010	0.136581	6
	24	9	3984.375	31520.61	-29947.38	1	43478.67	-43.53387	3.999768E-010	0.1365804	6
	25	9	3170.956	37774.11	-31364.55	1	49098.05	-39.70348	1.311658E-009	0.1365634	6
	26	9	2527.573	44258.12	-31607.21	1	54385.63	-35.53276	1.265403E-009	0.1365612	6
	27	10	1976.103	51017.02	-30312.69	1	59343.03	-30.71743	5.696741E-011	0.1365671	6
	28	10	1577.524	56637.63	-28412.5	1	63364.75	-26.64082	-3.78062E-011	0.1365805	6
	29	10	1265.625	61156.18	-25860.13	1	66398.98	-22.92126	1.767221E-009	0.1365368	6
	30	11	998.264	65220.92	-23194.22	1	69222.4	-19.57668	1.222682E-009	0.1365566	6
	31	11	796.875	68057.96	-20546.47	1	71091.8	-16.79889	1.313663E-009	0.1365722	6
	32	11	627.7902	70235.84	-18002.16	1	72506.22	-14.37602	2.089771E-009	0.1365676	6
	33	11	505.5147	71744.34	-16380.23	1	73590.51	-12.86098	2.734313E-009	0.1365192	6
	34	12	397.9953	73306.82	-15028.37	1	74831.42	-11.58548	1.298473E-009	0.1365706	6
	35	12	315.5048	74022.68	-14151.05	1	75363.18	-10.82275	1.17204E-009	0.1365702	6
	36	12	252.4038	74297.18	-13851.31	1	75577.31	-10.56048	1.144853E-009	0.136568	6
	37	13	198.6229	75040.82	-14230.31	1	76378.18	-10.73774	9.906925E-010	0.1365711	6
	38	13	158.3615	76255.58	-15253.51	1	77766.2	-11.31166	1.089546E-009	0.1365689	6
	39	13	125.558	76401.88	-16806.12	1	78228.46	-12.40578	1.184101E-009	0.1365708	6
	40	14	100.4464	77261.62	-18973.07	1	79557.12	-13.79706	9.512262E-010	0.1365648	6
	41	14	79.00281	78241.84	-22215.39	1	81334.55	-15.85096	9.832248E-010	0.1365624	6
	42	14	63.3446	79795.27	-26083.82	1	83950.29	-18.10176	1.044399E-009	0.1365624	6
	43	15	49.86702	81108.09	-31157.73	1	86886.85	-21.01431	7.14349E-010	0.1365582	6
	44	15	39.72458	83506.47	-37101.32	1	91377.45	-23.95523	3.983333E-010	0.1365578	6
	45	15	31.6723	86740.59	-44300.38	1	97398.4	-27.05443	-3.108494E-010	0.136564	5
	46	16	24.93351	90059.42	-53387.61	1	104694.5	-30.65964	6.176695E-010	0.1365611	5
	47	16	19.86229	95129.3	-63632.96	1	114449.7	-33.77896	2.006063E-010	0.1365642	5
	48	16	15.83615	101260.3	-75607.52	1	126373	-36.74741	-6.162241E-010	0.1365613	5
	49	17	12.40079	110366	-90143.49	1	142500.9	-39.24086	-6.602378E-010	0.1365648	5
	50	17	9.93114	120346.1	-105125.3	1	159795.2	-41.13802	-1.551065E-009	0.1365726	5
	51	17	7.944915	132190.6	-121967.4	1	179862.2	-42.69658	-1.721955E-009	0.1365646	5
	52	18	6.317385	147700.3	-140629.8	1	203941.5	-43.59525	4.579662E-010	0.1365457	5
	53	18	5.008013	166669.3	-160816.5	1	231604.4	-43.97613	1.952098E-010	0.1365623	5
	54	19	3.945707	188263.6	-183537.5	1	262924.3	-44.27174	-6.38364E-010	0.1365607	5
	55	20	3.158693	211521.5	-205080	1	294617	-44.11415	2.14051E-010	0.1365469	5
	56	21	2.504006	238328.1	-229656	1	330971.5	-43.93839	4.528346E-010	0.1365523	5
	57	23	1.998082	266328.8	-254669.4	1	368493.7	-43.71799	-5.780428E-013	0.1365126	5
	58	24	1.584686	297073.5	-284416.7	1	411273	-43.75309	-1.062466E-010	0.1365087	5
	59	26	1.266892	327033	-315898.5	1	454689.4	-44.00783	5.41589E-011	0.1365468	5
	60	29	0.999041	361700.2	-354350.9	1	506351.2	-44.41196	1.669769E-010	0.1365772	5
