EXPLAIN
TAG	EISPOT
TITLE	LABEL	Potentiostatic EIS	Test &Identifier
DATE	LABEL	9/1/2020	Date
TIME	LABEL	22:02:09	Time
NOTES	NOTES	1	&Notes...
	
PSTAT	PSTAT	REF600-11020	Potentiostat
VDC	POTEN	0.00000E+000	T	DC &Voltage (V)
FREQINIT	QUANT	1.00000E+006	Initial Fre&q. (Hz)
FREQFINAL	QUANT	1.00000E+000	Final Fre&q. (Hz)
PTSPERDEC	QUANT	1.00000E+001	Points/&decade
VAC	QUANT	2.50000E+001	AC &Voltage (mV rms)
AREA	QUANT	4.00000E-005	&Area (cm^2)
CONDIT	TWOPARAM	F	5.00000E+000	0.00000E+000	Conditionin&g	Time(s)	E(V)
DELAY	TWOPARAM	F	3.00000E+000	0.00000E+000	Init. De&lay	Time(s)	Stab.(mV/s)
SPEED	SELECTOR	0	&Optimize for:
ZGUESS	QUANT	1.00000E+003	E&stimated Z (ohms)
OCVCURVE	TABLE	39
	Pt	T	Vf	Vm	Ach	Over
	#	s	V vs. Ref.	V	V	bits
	0	0.258333	2.47883E-001	2.47883E-001	5.64458E-004	...........
	1	0.516667	2.47883E-001	2.47858E-001	5.67658E-004	...........
	2	0.775	2.47880E-001	2.47828E-001	5.67558E-004	...........
	3	1.03333	2.47871E-001	2.47801E-001	5.66592E-004	...........
	4	1.29167	2.47854E-001	2.47772E-001	5.62859E-004	...........
	5	1.55	2.47830E-001	2.47746E-001	5.66892E-004	...........
	6	1.80833	2.47804E-001	2.47726E-001	5.65758E-004	...........
	7	2.06667	2.47777E-001	2.47703E-001	5.65292E-004	...........
	8	2.325	2.47751E-001	2.47685E-001	5.68158E-004	...........
	9	2.58333	2.47728E-001	2.47665E-001	5.65792E-004	...........
	10	2.84167	2.47707E-001	2.47656E-001	5.65592E-004	...........
	11	3.1	2.47687E-001	2.47639E-001	5.70158E-004	...........
	12	3.35833	2.47670E-001	2.47627E-001	5.71158E-004	...........
	13	3.61667	2.47655E-001	2.47617E-001	5.70625E-004	...........
	14	3.875	2.47642E-001	2.47605E-001	5.66358E-004	...........
	15	4.13333	2.47629E-001	2.47592E-001	5.67892E-004	...........
	16	4.39167	2.47617E-001	2.47587E-001	5.67725E-004	...........
	17	4.65	2.47606E-001	2.47577E-001	5.60859E-004	...........
	18	4.90833	2.47596E-001	2.47565E-001	5.67792E-004	...........
	19	5.16667	2.47586E-001	2.47554E-001	5.67425E-004	...........
	20	5.425	2.47576E-001	2.47544E-001	5.61425E-004	...........
	21	5.68333	2.47566E-001	2.47536E-001	5.62892E-004	...........
	22	5.94167	2.47556E-001	2.47524E-001	5.63358E-004	...........
	23	6.2	2.47546E-001	2.47516E-001	5.64225E-004	...........
	24	6.45833	2.47536E-001	2.47508E-001	5.61192E-004	...........
	25	6.71667	2.47526E-001	2.47492E-001	5.61792E-004	...........
	26	6.975	2.47516E-001	2.47486E-001	5.63792E-004	...........
	27	7.23333	2.47506E-001	2.47477E-001	5.66725E-004	...........
	28	7.49167	2.47496E-001	2.47465E-001	5.71792E-004	...........
	29	7.75	2.47486E-001	2.47455E-001	5.64825E-004	...........
	30	8.00833	2.47476E-001	2.47443E-001	5.64592E-004	...........
	31	8.26667	2.47466E-001	2.47421E-001	5.64825E-004	...........
	32	8.525	2.47454E-001	2.47403E-001	5.63258E-004	...........
	33	8.78333	2.47439E-001	2.47380E-001	5.67658E-004	...........
	34	9.04167	2.47422E-001	2.47357E-001	5.66092E-004	...........
	35	9.3	2.47403E-001	2.47339E-001	5.65925E-004	...........
	36	9.5583	2.47382E-001	2.47326E-001	5.66458E-004	...........
	37	9.8167	2.47362E-001	2.47314E-001	5.64492E-004	...........
	38	10.075	2.47344E-001	2.47297E-001	5.65192E-004	...........
EOC	QUANT	0.2473436	Open Circuit (V)
PSTATMODEL	IQUANT	4	Pstat Model
PSTATSECTION	LABEL	REF600-11020	Pstat Section
PSTATSERIALNO	LABEL	11020	Pstat Serial Number
CTRLMODE	IQUANT	1	Control Mode
IESTAB	IQUANT	0	I/E Stability
CASPEED	IQUANT	1	Control Amp Speed
CONVENTION	IQUANT	1	Current Convention
ICHRANGE	IQUANT	2	Ich Range
ICHRANGEMODE	TOGGLE	F	Ich Auto Range
ICHOFFSETENABLE	TOGGLE	T	Ich Offset Enable
ICHOFFSET	QUANT	0	Ich Offset (V)
ICHFILTER	IQUANT	3	Ich Filter
VCHRANGE	IQUANT	2	Vch Range
VCHRANGEMODE	TOGGLE	F	Vch Auto Range
VCHOFFSETENABLE	TOGGLE	T	Vch Offset Enable
VCHOFFSET	QUANT	0	Vch Offset (V)
VCHFILTER	IQUANT	3	Vch Filter
ACHRANGE	IQUANT	2	Ach Range
ACHOFFSETENABLE	TOGGLE	F	Ach Offset Enable
ACHOFFSET	QUANT	0	Ach Offset (V)
ACHFILTER	IQUANT	3	Ach Filter
IERANGELOWERLIMIT	IQUANT	1	I/E Range Lower Limit
IERANGEMODE	TOGGLE	F	I/E AutoRange
IERANGE	IQUANT	8	I/E Range
POSFEEDENABLE	TOGGLE	F	Positive Feedback IR Comp
POSFEEDRESISTANCE	QUANT	0	Positive Feedback Resistance (ohm)
ACHSELECT	IQUANT	0	Ach Select
CABLEID	IQUANT	14	Cable ID
DCCALDATE	LABEL	9/1/2020	DC Calibration Date
ACCALDATE	LABEL	9/1/2020	AC Calibration Date
THERMOSELECT	IQUANT	1	Thermo Select
FRAMEWORKVERSION	QUANT	6.33	Framework Version
INSTRUMENTVERSION	LABEL	3.50	Instrument Version
ZCURVE	TABLE
	Pt	Time	Freq	Zreal	Zimag	Zsig	Zmod	Zphz	Idc	Vdc	IERange
	#	s	Hz	ohm	ohm	V	ohm	°	A	V	#
	0	1	1000078	1874.732	-2197.734	1	2888.712	-49.53483	3.493951E-008	0.2493602	8
	1	1	794390.6	2248.472	-2389.871	1	3281.328	-46.7461	8.255069E-008	0.2490655	8
	2	2	630984.4	2645.875	-2553.318	1	3676.967	-43.98012	6.597224E-008	0.2489135	8
	3	2	501234.4	3053.042	-2690.58	1	4069.433	-41.38904	8.341873E-008	0.2488283	8
	4	2	398109.4	3460.175	-2808.352	1	4456.417	-39.06352	8.423928E-008	0.2487879	8
	5	3	316265.6	3847.337	-2921.046	1	4830.581	-37.20716	3.73853E-008	0.2487717	8
	6	3	251203.1	4222.743	-3060.945	1	5215.453	-35.93728	7.026399E-008	0.2487288	8
	7	3	199546.9	4568.34	-3230.973	1	5595.437	-35.26999	2.540615E-008	0.2487444	8
	8	4	158578.1	4923.746	-3453.9	1	6014.374	-35.04882	6.805592E-008	0.2487239	8
	9	4	125953.1	5319.842	-3717.449	1	6490.003	-34.94544	3.794278E-009	0.2487427	7
	10	4	100078.1	5687.896	-4095.152	1	7008.74	-35.753	4.520806E-009	0.248712	7
	11	5	79453.13	6076.72	-4579.093	1	7608.852	-36.99974	3.397069E-009	0.2486978	7
	12	5	63140.62	6504.477	-5178.158	1	8313.937	-38.523	4.870388E-009	0.2487017	7
	13	5	50203.12	6990.674	-5903.423	1	9149.859	-40.18013	5.310143E-009	0.2486954	7
	14	6	39890.62	7549.981	-6770.108	1	10140.84	-41.88274	4.071063E-009	0.2486887	7
	15	6	31640.63	8212.622	-7842.017	1	11355.37	-43.67762	5.472809E-009	0.2486951	7
	16	6	25171.88	8991.356	-9076.338	1	12775.93	-45.26949	5.138852E-009	0.2486937	7
	17	6	20015.62	9948.17	-10550.64	1	14501.1	-46.68346	4.321562E-009	0.2486843	7
	18	7	15890.62	11134.61	-12306.84	1	16596.32	-47.86279	5.720336E-009	0.2486883	7
	19	7	12609.37	12815.83	-14238.8	1	19156.95	-48.01077	1.833198E-009	0.248687	6
	20	7	10078.13	14633.7	-16397.26	1	21977.6	-48.25275	1.584732E-009	0.2486815	6
	21	8	8015.625	16946.77	-18775.02	1	25292.18	-47.92986	1.633492E-009	0.2486836	6
	22	8	6328.125	19861.05	-21341.25	1	29153.22	-47.05748	1.750224E-009	0.2486786	6
	23	8	5015.625	23255.18	-23844.33	1	33306.99	-45.71665	1.468776E-009	0.2486798	6
	24	9	3984.375	27131.74	-26206.24	1	37721.33	-44.00592	1.506442E-009	0.2486705	6
	25	9	3170.956	31383.41	-28408.07	1	42331.28	-42.1512	1.124829E-009	0.2486673	6
	26	9	2527.573	35895.61	-30341.51	1	47001.08	-40.20686	1.164678E-009	0.248668	6
	27	10	1976.103	41062.29	-32274.29	1	52227.79	-38.16677	1.508939E-009	0.2486686	6
	28	10	1577.524	45902.64	-33920.29	1	57075.72	-36.46298	1.204994E-009	0.2486714	6
	29	10	1265.625	50837.84	-35531.02	1	62023.7	-34.95004	1.227342E-009	0.248667	6
	30	11	998.264	56245.47	-37257.34	1	67466.01	-33.52074	2.147742E-009	0.2486797	6
	31	11	796.875	61469.42	-38850.95	1	72717.84	-32.2944	1.40812E-009	0.2486723	6
	32	11	627.7902	67020.33	-40722.28	1	78422.12	-31.28332	1.161873E-009	0.2486707	6
	33	12	505.5147	72373.45	-42599.26	1	83979.84	-30.48121	1.896044E-009	0.248673	6
	34	12	397.9953	78403.4	-44897.91	1	90348.85	-29.79772	1.280781E-009	0.248685	6
	35	12	315.5048	84767.46	-46934.32	1	96893.5	-28.97256	7.996938E-010	0.2486786	5
	36	12	252.4038	91004.71	-49780.06	1	103730	-28.67889	7.48506E-010	0.2486752	5
	37	13	198.6229	98009.2	-53085.27	1	111462.3	-28.44156	7.691325E-010	0.2486734	5
	38	13	158.3615	104954	-56470.74	1	119181.8	-28.28256	6.693749E-010	0.2486721	5
	39	13	125.558	112330.2	-60302.86	1	127493.2	-28.22849	7.328141E-010	0.2486746	5
	40	14	100.4464	119770.6	-64485.92	1	136027.3	-28.29856	7.605428E-010	0.24867	5
	41	14	79.00281	127974	-69656.4	1	145703	-28.55951	5.581667E-010	0.2486712	5
	42	14	63.3446	135709.7	-75104.01	1	155105.5	-28.96087	6.168819E-010	0.2486663	5
	43	15	49.86702	144957.1	-82473.19	1	166776.4	-29.63767	6.02647E-010	0.2486671	5
	44	15	39.72458	154117.8	-90767.7	1	178860.5	-30.49596	4.561377E-010	0.2486661	5
	45	16	31.6723	164293.7	-100812.8	1	192758	-31.53382	7.391113E-011	0.2486624	5
	46	16	24.93351	176263.3	-113008.6	1	209379.3	-32.66535	6.781345E-010	0.2486621	5
	47	16	19.86229	189273.6	-126921.3	1	227889.3	-33.84463	1.035711E-009	0.2486695	5
	48	16	15.83615	205035	-142910.9	1	249925.7	-34.87679	-1.452706E-010	0.2486611	5
	49	17	12.40079	223310.7	-161507.9	1	275594.7	-35.87608	7.243448E-010	0.2486609	5
	50	17	9.93114	244003.5	-181357.3	1	304020.1	-36.62183	2.196645E-010	0.2486741	5
	51	17	7.944915	267511.3	-202221.2	1	335344.2	-37.08691	-5.69131E-010	0.2486695	5
	52	18	6.317385	295202.2	-224445.6	1	370837.1	-37.24614	2.415289E-010	0.248661	5
	53	19	5.008013	326624.3	-248264.1	1	410266.4	-37.23813	-2.401272E-010	0.2486589	5
	54	19	3.945707	364016.4	-273329.1	1	455210.7	-36.90179	-1.833407E-010	0.2486679	5
	55	20	3.158693	399157.6	-297224.6	1	497663.8	-36.67246	-1.545797E-010	0.2486504	5
	56	21	2.504006	439633.1	-322922.7	1	545487.3	-36.29831	3.570106E-010	0.2486565	5
	57	23	1.998082	478821.6	-351521.8	1	594001.4	-36.28386	2.9481E-010	0.2486606	5
	58	24	1.584686	519376.6	-382427.7	1	644982.9	-36.36498	1.153605E-010	0.2486228	5
	59	26	1.266892	561207.6	-419283.3	1	700537.3	-36.76375	3.509358E-011	0.2486181	5
	60	29	0.999041	607723.3	-467438	1	766698.1	-37.56614	-8.659493E-012	0.2486245	5
