EXPLAIN
TAG	EISPOT
TITLE	LABEL	Potentiostatic EIS	Test &Identifier
DATE	LABEL	3/9/2020	Date
TIME	LABEL	20:51:39	Time
NOTES	NOTES	1	&Notes...
	
PSTAT	PSTAT	REF600-11020	Potentiostat
VDC	POTEN	0.00000E+000	T	DC &Voltage (V)
FREQINIT	QUANT	1.00000E+006	Initial Fre&q. (Hz)
FREQFINAL	QUANT	1.00000E+000	Final Fre&q. (Hz)
PTSPERDEC	QUANT	1.00000E+001	Points/&decade
VAC	QUANT	2.50000E+001	AC &Voltage (mV rms)
AREA	QUANT	4.00000E-005	&Area (cm^2)
CONDIT	TWOPARAM	F	5.00000E+000	0.00000E+000	Conditionin&g	Time(s)	E(V)
DELAY	TWOPARAM	T	3.00000E+000	0.00000E+000	Init. De&lay	Time(s)	Stab.(mV/s)
SPEED	SELECTOR	0	&Optimize for:
ZGUESS	QUANT	1.00000E+003	E&stimated Z (ohms)
OCVCURVE	TABLE	12
	Pt	T	Vf	Vm	Ach	Over
	#	s	V vs. Ref.	V	V	bits
	0	0.258333	1.71908E-002	1.71908E-002	5.76997E-004	...........
	1	0.516667	1.71905E-002	1.71764E-002	5.82430E-004	...........
	2	0.775	1.71887E-002	1.71588E-002	5.77663E-004	...........
	3	1.03333	1.71835E-002	1.71398E-002	5.75930E-004	...........
	4	1.29167	1.71734E-002	1.71219E-002	5.77130E-004	...........
	5	1.55	1.71590E-002	1.71059E-002	5.76797E-004	...........
	6	1.80833	1.71422E-002	1.70906E-002	5.74397E-004	...........
	7	2.06667	1.71249E-002	1.70749E-002	5.74663E-004	...........
	8	2.325	1.71080E-002	1.70588E-002	5.74763E-004	...........
	9	2.58333	1.70917E-002	1.70398E-002	5.76730E-004	...........
	10	2.84167	1.70755E-002	1.70262E-002	5.75997E-004	...........
	11	3.1	1.70592E-002	1.70080E-002	5.75897E-004	...........
EOC	QUANT	0.0170592	Open Circuit (V)
PSTATMODEL	IQUANT	4	Pstat Model
PSTATSECTION	LABEL	REF600-11020	Pstat Section
PSTATSERIALNO	LABEL	11020	Pstat Serial Number
CTRLMODE	IQUANT	1	Control Mode
IESTAB	IQUANT	0	I/E Stability
CASPEED	IQUANT	1	Control Amp Speed
CONVENTION	IQUANT	1	Current Convention
ICHRANGE	IQUANT	2	Ich Range
ICHRANGEMODE	TOGGLE	F	Ich Auto Range
ICHOFFSETENABLE	TOGGLE	T	Ich Offset Enable
ICHOFFSET	QUANT	0	Ich Offset (V)
ICHFILTER	IQUANT	3	Ich Filter
VCHRANGE	IQUANT	2	Vch Range
VCHRANGEMODE	TOGGLE	F	Vch Auto Range
VCHOFFSETENABLE	TOGGLE	T	Vch Offset Enable
VCHOFFSET	QUANT	0	Vch Offset (V)
VCHFILTER	IQUANT	3	Vch Filter
ACHRANGE	IQUANT	2	Ach Range
ACHOFFSETENABLE	TOGGLE	F	Ach Offset Enable
ACHOFFSET	QUANT	0	Ach Offset (V)
ACHFILTER	IQUANT	3	Ach Filter
IERANGELOWERLIMIT	IQUANT	1	I/E Range Lower Limit
IERANGEMODE	TOGGLE	F	I/E AutoRange
IERANGE	IQUANT	7	I/E Range
POSFEEDENABLE	TOGGLE	F	Positive Feedback IR Comp
POSFEEDRESISTANCE	QUANT	0	Positive Feedback Resistance (ohm)
ACHSELECT	IQUANT	0	Ach Select
CABLEID	IQUANT	14	Cable ID
DCCALDATE	LABEL	2/27/2020	DC Calibration Date
ACCALDATE	LABEL	2/27/2020	AC Calibration Date
THERMOSELECT	IQUANT	1	Thermo Select
FRAMEWORKVERSION	QUANT	6.33	Framework Version
INSTRUMENTVERSION	LABEL	3.50	Instrument Version
ZCURVE	TABLE
	Pt	Time	Freq	Zreal	Zimag	Zsig	Zmod	Zphz	Idc	Vdc	IERange
	#	s	Hz	ohm	ohm	V	ohm	°	A	V	#
	0	1	1000078	1832.168	-1862.346	1	2612.503	-45.46799	5.852797E-008	0.0192314	8
	1	1	794390.6	2207.55	-1969.957	1	2958.718	-41.74485	2.00812E-008	0.0189227	8
	2	2	630984.4	2610.212	-2017.379	1	3298.943	-37.69971	2.467232E-008	0.0188016	8
	3	2	501234.4	3015.151	-1999.64	1	3617.968	-33.55223	-1.129194E-008	0.0187438	8
	4	2	398109.4	3404.212	-1922.901	1	3909.758	-29.46034	2.984182E-008	0.0186676	8
	5	3	316265.6	3752.316	-1802.903	1	4162.972	-25.66323	4.484105E-008	0.0186714	8
	6	3	251203.1	4052.958	-1643.256	1	4373.415	-22.0699	2.832163E-008	0.0186517	8
	7	3	199546.9	4298.153	-1475.694	1	4544.424	-18.94899	2.999426E-008	0.0186404	8
	8	4	158578.1	4505.852	-1309.972	1	4692.412	-16.21057	4.501126E-008	0.0186537	8
	9	4	125953.1	4707.608	-1068.719	1	4827.395	-12.79048	1.417252E-010	0.0186049	7
	10	4	100078.1	4809.098	-943.151	1	4900.709	-11.09591	5.25836E-011	0.0185933	7
	11	5	79453.13	4905.624	-845.196	1	4977.901	-9.77559	-3.553099E-010	0.0185845	7
	12	5	63140.62	4984.128	-764.8135	1	5042.467	-8.723977	5.258305E-011	0.018582	7
	13	5	50203.12	5051.613	-703.2329	1	5100.327	-7.925188	7.27679E-010	0.0185798	7
	14	6	39890.62	5110.349	-659.6524	1	5152.747	-7.355165	9.01147E-010	0.0185748	7
	15	6	31640.63	5165.186	-633.8851	1	5203.937	-6.996503	1.479377E-010	0.0185791	7
	16	6	25171.88	5215.661	-624.9811	1	5252.972	-6.833047	-1.192603E-010	0.0185734	7
	17	6	20015.62	5264.983	-633.3502	1	5302.94	-6.859425	-4.927624E-010	0.0185748	7
	18	7	15890.62	5314.925	-658.5376	1	5355.567	-7.063147	-2.661295E-010	0.0185666	7
	19	7	12609.37	5366.918	-701.8714	1	5412.618	-7.450706	-1.920208E-011	0.0185721	7
	20	7	10078.13	5417.84	-763.1821	1	5471.329	-8.018192	-3.051829E-010	0.0185714	7
	21	8	8015.625	5472.39	-845.4517	1	5537.313	-8.782421	2.605173E-010	0.0185667	7
	22	8	6328.125	5532.397	-959.062	1	5614.91	-9.8347	-4.067425E-010	0.0185736	7
	23	8	5015.625	5596.212	-1102.253	1	5703.731	-11.14259	9.324728E-010	0.0185716	7
	24	9	3984.375	5663.189	-1280.245	1	5806.095	-12.73841	6.543243E-010	0.0185667	7
	25	9	3170.956	5737.321	-1501.218	1	5930.473	-14.66318	5.886906E-010	0.0185728	7
	26	9	2527.573	5818.882	-1774.078	1	6083.317	-16.95557	1.359821E-009	0.0185673	7
	27	10	1976.103	5920.7	-2140.527	1	6295.756	-19.87658	8.482025E-010	0.0185681	7
	28	10	1577.524	6029.166	-2561.238	1	6550.632	-23.01617	1.398583E-009	0.0185646	7
	29	10	1265.625	6154.011	-3059.02	1	6872.369	-26.43093	1.089186E-009	0.018562	7
	30	11	998.264	6314.522	-3724.04	1	7330.871	-30.53032	2.249851E-009	0.0185679	7
	31	11	796.875	6497.915	-4495.766	1	7901.57	-34.67852	2.38576E-009	0.0185743	7
	32	11	627.7902	6737.387	-5493.596	1	8693.214	-39.19345	1.019652E-009	0.0185631	7
	33	12	505.5147	6996.223	-6600.878	1	9618.67	-43.33455	6.341086E-010	0.0185623	7
	34	12	397.9953	7362.072	-8090.679	1	10938.88	-47.69954	4.809566E-010	0.0186272	6
	35	12	315.5048	7794.255	-9865.53	1	12572.95	-51.68954	4.258932E-010	0.0186308	6
	36	13	252.4038	8310.771	-11937.87	1	14545.85	-55.15557	2.858016E-010	0.0186332	6
	37	13	198.6229	9002.284	-14646.6	1	17191.98	-58.42375	3.887422E-010	0.0186242	6
	38	13	158.3615	9822.59	-17762.19	1	20297.26	-61.05716	3.950661E-010	0.0186264	6
	39	14	125.558	10877.34	-21633.71	1	24214.34	-63.30694	5.364876E-010	0.0186246	6
	40	14	100.4464	12149.46	-26132.01	1	28818.25	-65.06504	4.828234E-010	0.0186262	6
	41	14	79.00281	13880.25	-32002.06	1	34882.56	-66.55217	2.628558E-010	0.0186275	6
	42	15	63.3446	15902.7	-38528.14	1	41681.09	-67.57134	5.146857E-011	0.0186237	6
	43	15	49.86702	18700.89	-47052.03	1	50632.17	-68.32459	2.559419E-010	0.0186156	6
	44	15	39.72458	22131.69	-56822.19	1	60980.1	-68.71957	5.198339E-010	0.0186217	6
	45	16	31.6723	26549	-68437.15	1	73406.35	-68.7971	6.51544E-010	0.018621	6
	46	16	24.93351	32672.38	-83104.09	1	89295.98	-68.53773	2.737063E-010	0.0186187	6
	47	16	19.86229	40287.22	-99475.7	1	107324.1	-67.95226	1.002826E-009	0.0186322	5
	48	16	15.83615	50149.55	-118603.2	1	128769.9	-67.07967	-1.20648E-009	0.0186288	5
	49	17	12.40079	64031.11	-142145.8	1	155902	-65.75031	-4.995027E-010	0.0186327	5
	50	17	9.93114	80226.42	-166272.1	1	184615	-64.24265	-9.117834E-010	0.0186346	5
	51	17	7.944915	99799.2	-192823.5	1	217119.3	-62.63538	-9.984902E-010	0.018632	5
	52	18	6.317385	124709.1	-222295	1	254887.1	-60.70724	4.407331E-010	0.0186199	5
	53	19	5.008013	154751	-254239.4	1	297633.2	-58.67187	1.97259E-010	0.0186268	5
	54	20	3.945707	189410.7	-288838.6	1	345404.3	-56.74448	-3.046804E-010	0.0186277	5
	55	20	3.158693	225999.4	-322100.3	1	393477.2	-54.94485	1.859416E-010	0.0186191	5
	56	21	2.504006	266303.9	-359799.9	1	447631.3	-53.49321	2.881854E-010	0.0186293	5
	57	23	1.998082	307862.5	-398872.3	1	503863.5	-52.33788	-1.884546E-011	0.0185896	5
	58	24	1.584686	351699.5	-446505	1	568383	-51.77349	-4.214772E-011	0.0185914	5
	59	26	1.266892	395040.2	-498451.3	1	636011.3	-51.60193	3.033812E-011	0.0186229	5
	60	29	0.999041	444737.7	-564511.1	1	718654.6	-51.76796	8.291546E-011	0.0186498	5
