EXPLAIN
TAG	EISPOT
TITLE	LABEL	Potentiostatic EIS	Test &Identifier
DATE	LABEL	3/12/2020	Date
TIME	LABEL	13:35:36	Time
NOTES	NOTES	1	&Notes...
	
PSTAT	PSTAT	REF600-11020	Potentiostat
VDC	POTEN	0.00000E+000	T	DC &Voltage (V)
FREQINIT	QUANT	1.00000E+006	Initial Fre&q. (Hz)
FREQFINAL	QUANT	1.00000E+000	Final Fre&q. (Hz)
PTSPERDEC	QUANT	1.00000E+001	Points/&decade
VAC	QUANT	2.50000E+001	AC &Voltage (mV rms)
AREA	QUANT	2.50000E-001	&Area (cm^2)
CONDIT	TWOPARAM	F	5.00000E+000	0.00000E+000	Conditionin&g	Time(s)	E(V)
DELAY	TWOPARAM	T	5.00000E+000	0.00000E+000	Init. De&lay	Time(s)	Stab.(mV/s)
SPEED	SELECTOR	1	&Optimize for:
ZGUESS	QUANT	5.00000E+003	E&stimated Z (ohms)
OCVCURVE	TABLE	19
	Pt	T	Vf	Vm	Ach	Over
	#	s	V vs. Ref.	V	V	bits
	0	0.258333	5.35243E-002	5.35243E-002	5.74497E-004	...........
	1	0.516667	5.35234E-002	5.34810E-002	5.73197E-004	...........
	2	0.775	5.35184E-002	5.34409E-002	5.70597E-004	...........
	3	1.03333	5.35041E-002	5.33980E-002	5.74230E-004	...........
	4	1.29167	5.34783E-002	5.33620E-002	5.71330E-004	...........
	5	1.55	5.34437E-002	5.33248E-002	5.73497E-004	...........
	6	1.80833	5.34053E-002	5.32906E-002	5.69797E-004	...........
	7	2.06667	5.33665E-002	5.32509E-002	5.74630E-004	...........
	8	2.325	5.33288E-002	5.32187E-002	5.72263E-004	...........
	9	2.58333	5.32921E-002	5.31857E-002	5.70163E-004	...........
	10	2.84167	5.32565E-002	5.31529E-002	5.76763E-004	...........
	11	3.1	5.32220E-002	5.31208E-002	5.72130E-004	...........
	12	3.35833	5.31885E-002	5.30925E-002	5.69330E-004	...........
	13	3.61667	5.31561E-002	5.30565E-002	5.76763E-004	...........
	14	3.875	5.31242E-002	5.30261E-002	5.73430E-004	...........
	15	4.13333	5.30924E-002	5.29942E-002	5.75863E-004	...........
	16	4.39167	5.30605E-002	5.29635E-002	5.74763E-004	...........
	17	4.65	5.30287E-002	5.29357E-002	5.70997E-004	...........
	18	4.90833	5.29975E-002	5.29014E-002	5.70530E-004	...........
EOC	QUANT	0.0529975	Open Circuit (V)
PSTATMODEL	IQUANT	4	Pstat Model
PSTATSECTION	LABEL	REF600-11020	Pstat Section
PSTATSERIALNO	LABEL	11020	Pstat Serial Number
CTRLMODE	IQUANT	1	Control Mode
IESTAB	IQUANT	0	I/E Stability
CASPEED	IQUANT	1	Control Amp Speed
CONVENTION	IQUANT	1	Current Convention
ICHRANGE	IQUANT	2	Ich Range
ICHRANGEMODE	TOGGLE	F	Ich Auto Range
ICHOFFSETENABLE	TOGGLE	T	Ich Offset Enable
ICHOFFSET	QUANT	0	Ich Offset (V)
ICHFILTER	IQUANT	3	Ich Filter
VCHRANGE	IQUANT	2	Vch Range
VCHRANGEMODE	TOGGLE	F	Vch Auto Range
VCHOFFSETENABLE	TOGGLE	T	Vch Offset Enable
VCHOFFSET	QUANT	0	Vch Offset (V)
VCHFILTER	IQUANT	3	Vch Filter
ACHRANGE	IQUANT	2	Ach Range
ACHOFFSETENABLE	TOGGLE	F	Ach Offset Enable
ACHOFFSET	QUANT	0	Ach Offset (V)
ACHFILTER	IQUANT	3	Ach Filter
IERANGELOWERLIMIT	IQUANT	1	I/E Range Lower Limit
IERANGEMODE	TOGGLE	F	I/E AutoRange
IERANGE	IQUANT	7	I/E Range
POSFEEDENABLE	TOGGLE	F	Positive Feedback IR Comp
POSFEEDRESISTANCE	QUANT	0	Positive Feedback Resistance (ohm)
ACHSELECT	IQUANT	0	Ach Select
CABLEID	IQUANT	14	Cable ID
DCCALDATE	LABEL	2/27/2020	DC Calibration Date
ACCALDATE	LABEL	2/27/2020	AC Calibration Date
THERMOSELECT	IQUANT	1	Thermo Select
FRAMEWORKVERSION	QUANT	6.33	Framework Version
INSTRUMENTVERSION	LABEL	3.50	Instrument Version
ZCURVE	TABLE
	Pt	Time	Freq	Zreal	Zimag	Zsig	Zmod	Zphz	Idc	Vdc	IERange
	#	s	Hz	ohm	ohm	V	ohm	°	A	V	#
	0	1	1000078	1900.944	-1469.077	1	2402.452	-37.69736	-1.782241E-007	0.0552058	8
	1	3	794390.6	2190.498	-1450.122	1	2627.001	-33.50478	-3.553423E-006	0.0558786	8
	2	4	630984.4	2458	-1396.642	1	2827.078	-29.60536	2.533695E-006	0.0547097	8
	3	5	501234.4	2683.541	-1312.498	1	2987.314	-26.06287	8.509087E-007	0.0545308	8
	4	7	398109.4	2894.224	-1214.975	1	3138.901	-22.77233	-2.557726E-006	0.0552501	8
	5	8	316265.6	3066.142	-1133.246	1	3268.864	-20.28431	-6.921256E-007	0.0548079	8
	6	9	251203.1	3229.078	-1030.028	1	3389.381	-17.69192	-1.227703E-006	0.054854	8
	7	11	199546.9	3332.128	-954.648	1	3466.184	-15.98691	-1.170201E-006	0.0548402	8
	8	12	158578.1	3466.765	-919.6389	1	3586.669	-14.85684	1.849892E-006	0.0542575	8
	9	13	125953.1	3593.563	-841.0385	1	3690.669	-13.17243	4.47944E-007	0.0536731	7
	10	15	100078.1	3681.456	-803.8237	1	3768.189	-12.31688	6.674598E-008	0.0544878	7
	11	16	79453.13	3783.985	-786.9237	1	3864.944	-11.74788	6.942444E-008	0.0544412	7
	12	18	63140.62	3884.195	-772.1549	1	3960.201	-11.24348	-5.060911E-008	0.0546342	7
	13	19	50203.12	3985.271	-761.9998	1	4057.466	-10.82453	2.520127E-008	0.0544969	7
	14	20	39890.62	4081.761	-753.636	1	4150.752	-10.461	-2.536972E-008	0.0545688	7
	15	22	31640.63	4176.086	-751.9966	1	4243.252	-10.20798	-2.178639E-008	0.0546181	7
	16	23	25171.88	4264.389	-756.4239	1	4330.958	-10.05859	6.868373E-008	0.0544346	7
	17	24	20015.62	4349.444	-770.2407	1	4417.118	-10.04237	-2.507119E-008	0.0545732	7
	18	26	15890.62	4431.685	-795.4867	1	4502.514	-10.17621	-3.586798E-008	0.0546004	7
	19	27	12609.37	4512.891	-833.684	1	4589.25	-10.46648	-9.803902E-010	0.0545667	7
	20	28	10078.13	4590.808	-888.361	1	4675.971	-10.95187	-3.941719E-009	0.0546165	7
	21	30	8015.625	4668.567	-961.482	1	4766.547	-11.63724	1.820973E-008	0.0545979	7
	22	31	6328.125	4750.04	-1064.176	1	4867.787	-12.62776	-1.99892E-008	0.0546248	7
	23	33	5015.625	4832.856	-1193.268	1	4977.99	-13.86936	-2.136126E-008	0.0545867	7
	24	34	3984.375	4915.935	-1357.807	1	5100.005	-15.44044	-1.061448E-008	0.0545757	7
	25	35	3170.956	5006.359	-1563.415	1	5244.797	-17.34284	-3.436299E-008	0.0545956	7
	26	37	2527.573	5101.867	-1817.19	1	5415.831	-19.60496	-4.913059E-008	0.0546317	7
	27	38	1976.103	5218.321	-2163.833	1	5649.164	-22.52186	2.55999E-008	0.0544979	7
	28	39	1577.524	5336.813	-2562.583	1	5920.169	-25.64897	-2.078922E-008	0.0545847	7
	29	41	1265.625	5469.968	-3039.138	1	6257.548	-29.05674	-2.546169E-009	0.0546107	7
	30	42	998.264	5637.452	-3669.564	1	6726.557	-33.06115	7.13346E-008	0.0544702	7
	31	43	796.875	5825.619	-4406.362	1	7304.373	-37.10301	-1.906998E-008	0.0545967	7
	32	45	627.7902	6072.035	-5360.006	1	8099.337	-41.43602	2.777242E-008	0.054503	7
	33	46	505.5147	6339.618	-6426.779	1	9027.416	-45.39117	7.006215E-009	0.0545211	7
	34	48	397.9953	6692.675	-7851.447	1	10316.84	-49.5553	1.038328E-009	0.054621	6
	35	49	315.5048	7124.68	-9559.61	1	11922.55	-53.3032	9.348724E-010	0.0546216	6
	36	50	252.4038	7638.343	-11554.9	1	13851.35	-56.53338	4.934398E-010	0.0546138	6
	37	52	198.6229	8337.255	-14177.14	1	16446.92	-59.54117	9.501481E-010	0.0546176	6
	38	53	158.3615	9173.595	-17185.69	1	19480.83	-61.90702	5.761071E-010	0.0546173	6
	39	54	125.558	10267.56	-20919.79	1	23303.66	-63.85791	9.115321E-010	0.0546194	6
	40	56	100.4464	11604.32	-25257.1	1	27795.35	-65.32368	5.984673E-010	0.0546203	6
	41	57	79.00281	13488.57	-30815.69	1	33638.49	-66.36016	9.147618E-010	0.0546142	6
	42	59	63.3446	15948.99	-37107	1	40389.35	-66.74144	8.103174E-010	0.0546151	6
	43	60	49.86702	18639.92	-45061.24	1	48764.35	-67.5272	9.865061E-010	0.0546146	6
	44	61	39.72458	22600.39	-54001.11	1	58539.71	-67.28985	1.023024E-009	0.0546146	6
	45	63	31.6723	27516.94	-64399.86	1	70032.3	-66.86383	5.977736E-010	0.0546148	6
	46	64	24.93351	34074.84	-77474.32	1	84636.66	-66.25909	6.880407E-010	0.0546141	6
	47	66	19.86229	42149.8	-91694.13	1	100917.9	-65.31278	3.560205E-010	0.0546118	6
	48	67	15.83615	51869.23	-107639.7	1	119485.3	-64.2716	8.480924E-010	0.0546173	5
	49	68	12.40079	66004.67	-126896.9	1	143036.5	-62.51908	-2.225376E-010	0.0546243	5
	50	70	9.93114	80850.88	-147131.5	1	167882.5	-61.21057	1.478703E-011	0.0546296	5
	51	71	7.944915	99249.1	-168049.6	1	195169.3	-59.43414	9.531453E-010	0.0546268	5
	52	73	6.317385	120680.9	-191467.1	1	226326.1	-57.77694	-1.629834E-010	0.0546396	5
	53	75	5.008013	145700.2	-216821	1	261227.7	-56.09955	1.037145E-010	0.0546175	5
	54	78	3.945707	173518.5	-244027	1	299429.2	-54.5848	5.948673E-010	0.0546344	5
	55	80	3.158693	201794.1	-272063.2	1	338731.8	-53.43502	-4.633888E-011	0.0546152	5
	56	84	2.504006	232622.3	-304633.3	1	383294.4	-52.63413	6.428724E-010	0.0546304	5
	57	86	1.998082	263758.4	-340405.7	1	430632.7	-52.23021	2.929821E-010	0.0546709	5
	58	89	1.584686	295559.6	-383704.7	1	484339.5	-52.3937	2.77845E-010	0.0546102	5
	59	93	1.266892	329495.5	-435688.4	1	546252.4	-52.90109	2.654825E-010	0.0546599	5
	60	97	0.999041	367900.1	-501986.4	1	622367.1	-53.76273	6.604365E-013	0.0545863	5
