EXPLAIN
TAG	EISPOT
TITLE	LABEL	Potentiostatic EIS	Test &Identifier
DATE	LABEL	3/17/2020	Date
TIME	LABEL	16:29:56	Time
NOTES	NOTES	1	&Notes...
	
PSTAT	PSTAT	REF600-11020	Potentiostat
VDC	POTEN	0.00000E+000	T	DC &Voltage (V)
FREQINIT	QUANT	1.00000E+006	Initial Fre&q. (Hz)
FREQFINAL	QUANT	1.00000E+000	Final Fre&q. (Hz)
PTSPERDEC	QUANT	1.00000E+001	Points/&decade
VAC	QUANT	2.50000E+001	AC &Voltage (mV rms)
AREA	QUANT	4.00000E-004	&Area (cm^2)
CONDIT	TWOPARAM	F	5.00000E+000	0.00000E+000	Conditionin&g	Time(s)	E(V)
DELAY	TWOPARAM	T	3.00000E+000	0.00000E+000	Init. De&lay	Time(s)	Stab.(mV/s)
SPEED	SELECTOR	0	&Optimize for:
ZGUESS	QUANT	5.00000E+003	E&stimated Z (ohms)
OCVCURVE	TABLE	12
	Pt	T	Vf	Vm	Ach	Over
	#	s	V vs. Ref.	V	V	bits
	0	0.258333	6.26381E-002	6.26381E-002	5.75497E-004	...........
	1	0.516667	6.26386E-002	6.26627E-002	5.77430E-004	...........
	2	0.775	6.26414E-002	6.26835E-002	5.74063E-004	...........
	3	1.03333	6.26493E-002	6.27059E-002	5.73097E-004	...........
	4	1.29167	6.26634E-002	6.27284E-002	5.75230E-004	...........
	5	1.55	6.26823E-002	6.27511E-002	5.73630E-004	...........
	6	1.80833	6.27037E-002	6.27702E-002	5.72530E-004	...........
	7	2.06667	6.27259E-002	6.27933E-002	5.71163E-004	...........
	8	2.325	6.27479E-002	6.28089E-002	5.70797E-004	...........
	9	2.58333	6.27690E-002	6.28288E-002	5.75463E-004	...........
	10	2.84167	6.27892E-002	6.28491E-002	5.72163E-004	...........
	11	3.1	6.28087E-002	6.28693E-002	5.68097E-004	...........
EOC	QUANT	0.0628087	Open Circuit (V)
PSTATMODEL	IQUANT	4	Pstat Model
PSTATSECTION	LABEL	REF600-11020	Pstat Section
PSTATSERIALNO	LABEL	11020	Pstat Serial Number
CTRLMODE	IQUANT	1	Control Mode
IESTAB	IQUANT	0	I/E Stability
CASPEED	IQUANT	1	Control Amp Speed
CONVENTION	IQUANT	1	Current Convention
ICHRANGE	IQUANT	2	Ich Range
ICHRANGEMODE	TOGGLE	F	Ich Auto Range
ICHOFFSETENABLE	TOGGLE	T	Ich Offset Enable
ICHOFFSET	QUANT	0	Ich Offset (V)
ICHFILTER	IQUANT	3	Ich Filter
VCHRANGE	IQUANT	2	Vch Range
VCHRANGEMODE	TOGGLE	F	Vch Auto Range
VCHOFFSETENABLE	TOGGLE	T	Vch Offset Enable
VCHOFFSET	QUANT	0	Vch Offset (V)
VCHFILTER	IQUANT	3	Vch Filter
ACHRANGE	IQUANT	2	Ach Range
ACHOFFSETENABLE	TOGGLE	F	Ach Offset Enable
ACHOFFSET	QUANT	0	Ach Offset (V)
ACHFILTER	IQUANT	3	Ach Filter
IERANGELOWERLIMIT	IQUANT	1	I/E Range Lower Limit
IERANGEMODE	TOGGLE	F	I/E AutoRange
IERANGE	IQUANT	7	I/E Range
POSFEEDENABLE	TOGGLE	F	Positive Feedback IR Comp
POSFEEDRESISTANCE	QUANT	0	Positive Feedback Resistance (ohm)
ACHSELECT	IQUANT	0	Ach Select
CABLEID	IQUANT	14	Cable ID
DCCALDATE	LABEL	2/27/2020	DC Calibration Date
ACCALDATE	LABEL	2/27/2020	AC Calibration Date
THERMOSELECT	IQUANT	1	Thermo Select
FRAMEWORKVERSION	QUANT	6.33	Framework Version
INSTRUMENTVERSION	LABEL	3.50	Instrument Version
ZCURVE	TABLE
	Pt	Time	Freq	Zreal	Zimag	Zsig	Zmod	Zphz	Idc	Vdc	IERange
	#	s	Hz	ohm	ohm	V	ohm	°	A	V	#
	0	1	1000078	1874.369	-1329.914	1	2298.245	-35.3567	-2.36102E-008	0.0650949	8
	1	1	794390.6	2099.791	-1338.586	1	2490.167	-32.51691	6.268956E-008	0.0647729	8
	2	1	630984.4	2314.274	-1330.926	1	2669.687	-29.90298	4.356711E-008	0.0646308	8
	3	2	501234.4	2514.374	-1320.289	1	2839.937	-27.70382	3.799938E-008	0.0645281	8
	4	2	398109.4	2699.872	-1311.209	1	3001.429	-25.90381	8.493974E-008	0.06445	8
	5	2	316265.6	2876.311	-1313.991	1	3162.236	-24.55243	3.73739E-008	0.0644363	8
	6	3	251203.1	3045.556	-1328.788	1	3322.813	-23.57184	2.212466E-008	0.06442	8
	7	3	199546.9	3216.582	-1352.535	1	3489.376	-22.80618	3.664879E-008	0.064437	8
	8	3	158578.1	3398.13	-1398.377	1	3674.608	-22.36784	7.17674E-008	0.0644362	8
	9	4	125953.1	3630.693	-1394.065	1	3889.132	-21.00513	-5.373517E-010	0.0643677	7
	10	4	100078.1	3821.93	-1459.25	1	4091.034	-20.89734	9.323302E-010	0.0643598	7
	11	4	79453.13	4042.671	-1537.549	1	4325.187	-20.82331	1.854342E-009	0.0643566	7
	12	4	63140.62	4282.965	-1608.195	1	4574.94	-20.58047	1.148027E-009	0.0643516	7
	13	5	50203.12	4536.2	-1670.534	1	4834.025	-20.2171	1.674665E-009	0.0643481	7
	14	5	39890.62	4799.737	-1720.039	1	5098.628	-19.71571	5.948654E-010	0.0643464	7
	15	5	31640.63	5070.189	-1761.089	1	5367.333	-19.15426	9.355705E-010	0.0643431	7
	16	6	25171.88	5337.356	-1793.246	1	5630.551	-18.57133	1.51382E-009	0.0643499	7
	17	6	20015.62	5602.635	-1822.643	1	5891.65	-18.02069	1.588812E-009	0.0643503	7
	18	6	15890.62	5863.36	-1848.627	1	6147.879	-17.49926	2.267928E-009	0.064343	7
	19	7	12609.37	6121.954	-1882.105	1	6404.736	-17.08928	2.897075E-009	0.0643504	7
	20	7	10078.13	6370.232	-1921.733	1	6653.79	-16.7872	1.887871E-009	0.0643474	7
	21	7	8015.625	6619.16	-1972.276	1	6906.747	-16.5922	1.432802E-009	0.0643394	7
	22	8	6328.125	6878.655	-2040.036	1	7174.792	-16.51903	2.333097E-009	0.0643446	7
	23	8	5015.625	7133.594	-2124.393	1	7443.198	-16.58359	2.503741E-009	0.0643485	7
	24	8	3984.375	7382.015	-2228.231	1	7710.976	-16.79623	3.083035E-009	0.0643526	7
	25	9	3170.956	7624.246	-2354.716	1	7979.587	-17.16308	1.961159E-009	0.064342	7
	26	9	2527.573	7855.173	-2515.598	1	8248.149	-17.75752	2.244326E-009	0.0643447	7
	27	9	1976.103	8093.9	-2746.465	1	8547.181	-18.74338	2.291517E-009	0.0643445	7
	28	10	1577.524	8308.74	-3025.875	1	8842.572	-20.0106	3.74204E-009	0.0643495	7
	29	10	1265.625	8509.661	-3364.98	1	9150.815	-21.57536	-2.353677E-010	0.064386	6
	30	10	998.264	8724.941	-3866.948	1	9543.47	-23.90322	-3.084167E-010	0.0643987	6
	31	11	796.875	8941.438	-4480.854	1	10001.37	-26.61698	-2.653714E-010	0.0643931	6
	32	11	627.7902	9189.98	-5307.347	1	10612.43	-30.00706	-1.155217E-010	0.0643903	6
	33	11	505.5147	9449.24	-6250.614	1	11329.53	-33.48439	-4.613156E-011	0.0643915	6
	34	11	397.9953	9775.03	-7542.282	1	12346.54	-37.65331	2.559104E-010	0.0644032	6
	35	12	315.5048	10163.6	-9102.41	1	13643.77	-41.84729	3.149029E-010	0.0644018	6
	36	12	252.4038	10626.92	-10949.84	1	15258.79	-45.85743	1.816847E-010	0.0643974	6
	37	12	198.6229	11248.32	-13386.38	1	17484.85	-49.96029	3.293663E-010	0.0643996	6
	38	13	158.3615	11986.16	-16203.26	1	20154.74	-53.50829	1.876708E-010	0.0643985	6
	39	13	125.558	12948.96	-19723.55	1	23594.36	-56.7142	3.680569E-010	0.0643914	6
	40	13	100.4464	14122.26	-23820.87	1	27692.46	-59.33831	4.421939E-010	0.0643941	6
	41	14	79.00281	15764.25	-29181.26	1	33167.12	-61.62127	2.485344E-010	0.0643914	6
	42	14	63.3446	17713.88	-35126.87	1	39340.54	-63.23897	1.95241E-010	0.0643874	6
	43	14	49.86702	20453.64	-42865.85	1	47495.61	-64.49164	-3.855583E-012	0.0643849	6
	44	15	39.72458	23849.9	-51657.89	1	56897.77	-65.21774	3.522333E-010	0.0643958	6
	45	15	31.6723	28237.55	-61999.17	1	68126.77	-65.51308	5.495516E-010	0.0643905	6
	46	16	24.93351	34285.83	-74852.42	1	82331.05	-65.39006	-3.017101E-010	0.0643887	6
	47	16	19.86229	41672.26	-89012.08	1	98283.9	-64.9127	-4.343526E-010	0.0643882	6
	48	16	15.83615	50998.58	-105089.9	1	116810.7	-64.11339	5.653914E-011	0.0643909	5
	49	16	12.40079	63824.88	-124893.6	1	140257	-62.93142	-1.512614E-009	0.0643953	5
	50	17	9.93114	77836.76	-144830.7	1	164421.7	-61.74495	-1.402037E-009	0.064391	5
	51	17	7.944915	94994.45	-166857.3	1	192003.4	-60.34647	4.362508E-010	0.0643899	5
	52	17	6.317385	115584.8	-191951.1	1	224064.9	-58.94544	-3.470531E-010	0.0643982	5
	53	18	5.008013	139974.5	-219676.6	1	260481.6	-57.49534	-7.108914E-010	0.0643862	5
	54	19	3.945707	169170	-250224.4	1	302044.2	-55.93843	-1.691211E-010	0.0643974	5
	55	20	3.158693	199558.6	-281867.8	1	345359.4	-54.70202	-4.649479E-010	0.0643817	5
	56	21	2.504006	235532.3	-317037.8	1	394953.7	-53.39077	2.740224E-011	0.0643796	5
	57	22	1.998082	273536.2	-355267.8	1	448371.8	-52.40575	1.53107E-010	0.0644024	5
	58	24	1.584686	317177.2	-396815	1	507999.5	-51.36439	-7.082158E-011	0.0643594	5
	59	26	1.266892	364037.6	-442772.2	1	573210.8	-50.57371	-1.523397E-010	0.0643413	5
	60	28	0.999041	416706.2	-497827.6	1	649212.1	-50.06901	-2.210938E-010	0.0643492	5
