EXPLAIN
TAG	EISPOT
TITLE	LABEL	Potentiostatic EIS	Test &Identifier
DATE	LABEL	6/6/2020	Date
TIME	LABEL	13:52:42	Time
NOTES	NOTES	1	&Notes...
	
PSTAT	PSTAT	REF600-11020	Potentiostat
VDC	POTEN	0.00000E+000	T	DC &Voltage (V)
FREQINIT	QUANT	1.00000E+006	Initial Fre&q. (Hz)
FREQFINAL	QUANT	1.00000E+000	Final Fre&q. (Hz)
PTSPERDEC	QUANT	1.00000E+001	Points/&decade
VAC	QUANT	2.50000E+001	AC &Voltage (mV rms)
AREA	QUANT	2.50000E-001	&Area (cm^2)
CONDIT	TWOPARAM	F	5.00000E+000	0.00000E+000	Conditionin&g	Time(s)	E(V)
DELAY	TWOPARAM	T	3.00000E+000	0.00000E+000	Init. De&lay	Time(s)	Stab.(mV/s)
SPEED	SELECTOR	0	&Optimize for:
ZGUESS	QUANT	1.00000E+003	E&stimated Z (ohms)
OCVCURVE	TABLE	12
	Pt	T	Vf	Vm	Ach	Over
	#	s	V vs. Ref.	V	V	bits
	0	0.258333	-1.98915E-002	-1.98915E-002	5.80163E-004	...........
	1	0.516667	-1.98914E-002	-1.98853E-002	5.77597E-004	...........
	2	0.775	-1.98907E-002	-1.98822E-002	5.84497E-004	...........
	3	1.03333	-1.98890E-002	-1.98804E-002	5.83763E-004	...........
	4	1.29167	-1.98863E-002	-1.98764E-002	5.86630E-004	...........
	5	1.55	-1.98832E-002	-1.98720E-002	5.81930E-004	...........
	6	1.80833	-1.98799E-002	-1.98690E-002	5.81830E-004	...........
	7	2.06667	-1.98764E-002	-1.98656E-002	5.78897E-004	...........
	8	2.325	-1.98727E-002	-1.98570E-002	5.77563E-004	...........
	9	2.58333	-1.98688E-002	-1.98574E-002	5.80930E-004	...........
	10	2.84167	-1.98646E-002	-1.98556E-002	5.78730E-004	...........
	11	3.1	-1.98607E-002	-1.98513E-002	5.85263E-004	...........
EOC	QUANT	-0.0198607	Open Circuit (V)
PSTATMODEL	IQUANT	4	Pstat Model
PSTATSECTION	LABEL	REF600-11020	Pstat Section
PSTATSERIALNO	LABEL	11020	Pstat Serial Number
CTRLMODE	IQUANT	1	Control Mode
IESTAB	IQUANT	0	I/E Stability
CASPEED	IQUANT	1	Control Amp Speed
CONVENTION	IQUANT	1	Current Convention
ICHRANGE	IQUANT	2	Ich Range
ICHRANGEMODE	TOGGLE	F	Ich Auto Range
ICHOFFSETENABLE	TOGGLE	T	Ich Offset Enable
ICHOFFSET	QUANT	0	Ich Offset (V)
ICHFILTER	IQUANT	3	Ich Filter
VCHRANGE	IQUANT	2	Vch Range
VCHRANGEMODE	TOGGLE	F	Vch Auto Range
VCHOFFSETENABLE	TOGGLE	T	Vch Offset Enable
VCHOFFSET	QUANT	0	Vch Offset (V)
VCHFILTER	IQUANT	3	Vch Filter
ACHRANGE	IQUANT	2	Ach Range
ACHOFFSETENABLE	TOGGLE	F	Ach Offset Enable
ACHOFFSET	QUANT	0	Ach Offset (V)
ACHFILTER	IQUANT	3	Ach Filter
IERANGELOWERLIMIT	IQUANT	1	I/E Range Lower Limit
IERANGEMODE	TOGGLE	F	I/E AutoRange
IERANGE	IQUANT	7	I/E Range
POSFEEDENABLE	TOGGLE	F	Positive Feedback IR Comp
POSFEEDRESISTANCE	QUANT	0	Positive Feedback Resistance (ohm)
ACHSELECT	IQUANT	0	Ach Select
CABLEID	IQUANT	14	Cable ID
DCCALDATE	LABEL	2/27/2020	DC Calibration Date
ACCALDATE	LABEL	2/27/2020	AC Calibration Date
THERMOSELECT	IQUANT	1	Thermo Select
FRAMEWORKVERSION	QUANT	6.33	Framework Version
INSTRUMENTVERSION	LABEL	3.50	Instrument Version
ZCURVE	TABLE
	Pt	Time	Freq	Zreal	Zimag	Zsig	Zmod	Zphz	Idc	Vdc	IERange
	#	s	Hz	ohm	ohm	V	ohm	°	A	V	#
	0	1	1000078	2074.182	-1672.117	1	2664.246	-38.87428	6.481176E-008	-0.0172801	8
	1	1	794390.6	2398.751	-1693.276	1	2936.186	-35.21822	6.220656E-008	-0.0176577	8
	2	2	630984.4	2720.049	-1671.151	1	3192.399	-31.56585	3.955358E-008	-0.0178623	8
	3	2	501234.4	3024.984	-1614.383	1	3428.813	-28.08809	6.270187E-008	-0.0179722	8
	4	2	398109.4	3299.636	-1526.453	1	3635.609	-24.82586	6.37845E-008	-0.0180443	8
	5	3	316265.6	3541.986	-1420.105	1	3816.067	-21.84756	2.040889E-008	-0.0180577	8
	6	3	251203.1	3749.911	-1309.079	1	3971.841	-19.24389	2.473294E-008	-0.0180746	8
	7	3	199546.9	3930.546	-1205.808	1	4111.346	-17.0549	6.421637E-008	-0.0180944	8
	8	4	158578.1	4078.298	-1105.08	1	4225.366	-15.16115	4.812281E-008	-0.0181004	8
	9	4	125953.1	4240.452	-963.714	1	4348.583	-12.80394	9.133942E-009	-0.0181684	7
	10	4	100078.1	4333.024	-900.462	1	4425.6	-11.73975	2.704488E-009	-0.0181679	7
	11	5	79453.13	4429.105	-863.9265	1	4512.576	-11.03734	3.987441E-009	-0.0181772	7
	12	5	63140.62	4516.27	-841.6971	1	4594.034	-10.5571	2.621641E-009	-0.0181779	7
	13	5	50203.12	4598.836	-836.3513	1	4674.268	-10.30725	3.137346E-009	-0.0181835	7
	14	6	39890.62	4679.551	-848.876	1	4755.921	-10.28172	3.463969E-009	-0.0181835	7
	15	6	31640.63	4761.019	-880.4805	1	4841.75	-10.47763	2.179435E-009	-0.0181902	7
	16	6	25171.88	4845.174	-932.386	1	4934.071	-10.89262	3.456158E-009	-0.0181856	7
	17	7	20015.62	4934.619	-1003.925	1	5035.706	-11.49961	2.917056E-009	-0.0181883	7
	18	7	15890.62	5031.585	-1098.21	1	5150.041	-12.31247	2.885806E-009	-0.018188	7
	19	7	12609.37	5140.183	-1218.563	1	5282.649	-13.33668	3.457793E-009	-0.0181857	7
	20	7	10078.13	5256.255	-1360.303	1	5429.424	-14.50964	3.843819E-009	-0.0181896	7
	21	8	8015.625	5389.327	-1535.087	1	5603.689	-15.89899	3.911002E-009	-0.0181881	7
	22	8	6328.125	5544.827	-1749.999	1	5814.43	-17.51618	2.9984E-009	-0.0181919	7
	23	8	5015.625	5721.406	-2003.255	1	6061.973	-19.29685	3.331244E-009	-0.018189	7
	24	9	3984.375	5920.383	-2296.782	1	6350.287	-21.2035	4.118648E-009	-0.0181948	7
	25	9	3170.956	6150.158	-2638.474	1	6692.234	-23.21978	3.420109E-009	-0.0181972	7
	26	9	2527.573	6410.973	-3030.324	1	7091.082	-25.29906	4.104582E-009	-0.0181929	7
	27	10	1976.103	6742.417	-3530.21	1	7610.688	-27.63576	3.559343E-009	-0.0182057	7
	28	10	1577.524	7096.501	-4064.906	1	8178.251	-29.80426	4.059262E-009	-0.0182009	7
	29	10	1265.625	7495.409	-4668.53	1	8830.42	-31.91679	3.918303E-009	-0.0182094	7
	30	11	998.264	8000.525	-5405.304	1	9655.35	-34.04369	2.451226E-010	-0.0181486	6
	31	11	796.875	8551.581	-6227.505	1	10578.82	-36.06318	-2.089556E-010	-0.0181492	6
	32	11	627.7902	9224.233	-7224.047	1	11716.37	-38.06661	1.209467E-011	-0.0181455	6
	33	12	505.5147	9925.36	-8258.132	1	12911.6	-39.76126	-4.393133E-011	-0.0181566	6
	34	12	397.9953	10815.58	-9575.16	1	14445.08	-41.51886	4.994808E-010	-0.0181305	6
	35	12	315.5048	11800.67	-11044.88	1	16163.08	-43.10518	5.736942E-010	-0.0181338	6
	36	13	252.4038	12868.22	-12670.58	1	18059.21	-44.55661	4.01642E-010	-0.0181391	6
	37	13	198.6229	14154.08	-14695.42	1	20403.27	-46.07501	4.856374E-010	-0.0181376	6
	38	13	158.3615	15513.14	-16936.35	1	22967.31	-47.51134	3.823456E-010	-0.0181434	6
	39	14	125.558	17072.1	-19640.15	1	26022.92	-49.00136	5.163511E-010	-0.018139	6
	40	14	100.4464	18755.28	-22721.37	1	29462.2	-50.46214	4.694328E-010	-0.0181408	6
	41	14	79.00281	20825.09	-26683.23	1	33847.89	-52.02953	2.211832E-010	-0.0181422	6
	42	15	63.3446	23033.46	-31038.6	1	38651.46	-53.42123	2.546224E-010	-0.0181421	6
	43	15	49.86702	25854.09	-36664.89	1	44863.67	-54.81059	6.26696E-010	-0.0181419	6
	44	15	39.72458	29061.2	-43023.23	1	51918.7	-55.96188	4.82922E-010	-0.0181386	6
	45	16	31.6723	32893.93	-50485.25	1	60255.89	-56.91353	2.890285E-010	-0.0181413	6
	46	16	24.93351	37755.89	-59721.43	1	70655.2	-57.69893	5.871527E-010	-0.0181424	6
	47	16	19.86229	43262.22	-70067.65	1	82347.41	-58.30737	-7.404063E-010	-0.0181413	6
	48	17	15.83615	49886.25	-81990.08	1	95974	-58.68189	1.840155E-009	-0.0181437	6
	49	17	12.40079	58327.39	-96932.4	1	113128.1	-58.96329	7.77894E-010	-0.0181403	5
	50	17	9.93114	67517.99	-112846.1	1	131502.5	-59.1071	9.514114E-010	-0.0181474	5
	51	18	7.944915	78239.75	-131225.3	1	152779.4	-59.19557	1.69361E-009	-0.0181451	5
	52	18	6.317385	91770.49	-153353.2	1	178715	-59.10262	-3.51942E-010	-0.0181254	5
	53	19	5.008013	108251.6	-179225.9	1	209380.8	-58.86822	-3.679528E-010	-0.018142	5
	54	20	3.945707	128359.7	-209145	1	245393.3	-58.46109	4.335652E-010	-0.0181327	5
	55	21	3.158693	151047.7	-241123.8	1	284527.8	-57.93565	-2.503701E-010	-0.0181389	5
	56	22	2.504006	178198.2	-277934.9	1	330155.2	-57.334	1.465853E-011	-0.018153	5
	57	23	1.998082	208751.2	-318232.8	1	380590.6	-56.73633	3.040189E-010	-0.0181122	5
	58	24	1.584686	242976.7	-363901	1	437563.2	-56.26896	1.436494E-010	-0.0181462	5
	59	26	1.266892	281170.1	-413698.6	1	500203.1	-55.79803	4.116907E-011	-0.0181855	5
	60	29	0.999041	325236.2	-475607.4	1	576177.9	-55.63437	-1.326784E-012	-0.0181987	5
