EXPLAIN
TAG	EISPOT
TITLE	LABEL	Potentiostatic EIS	Test &Identifier
DATE	LABEL	5/26/2020	Date
TIME	LABEL	18:20:38	Time
NOTES	NOTES	1	&Notes...
	
PSTAT	PSTAT	REF600-11020	Potentiostat
VDC	POTEN	0.00000E+000	T	DC &Voltage (V)
FREQINIT	QUANT	1.00000E+006	Initial Fre&q. (Hz)
FREQFINAL	QUANT	1.00000E+000	Final Fre&q. (Hz)
PTSPERDEC	QUANT	1.00000E+001	Points/&decade
VAC	QUANT	2.50000E+001	AC &Voltage (mV rms)
AREA	QUANT	5.00000E-004	&Area (cm^2)
CONDIT	TWOPARAM	F	5.00000E+000	0.00000E+000	Conditionin&g	Time(s)	E(V)
DELAY	TWOPARAM	T	3.00000E+000	0.00000E+000	Init. De&lay	Time(s)	Stab.(mV/s)
SPEED	SELECTOR	0	&Optimize for:
ZGUESS	QUANT	1.00000E+003	E&stimated Z (ohms)
OCVCURVE	TABLE	12
	Pt	T	Vf	Vm	Ach	Over
	#	s	V vs. Ref.	V	V	bits
	0	0.258333	1.03231E-001	1.03231E-001	5.55030E-004	...........
	1	0.516667	1.03231E-001	1.03220E-001	5.65463E-004	...........
	2	0.775	1.03229E-001	1.03213E-001	5.68230E-004	...........
	3	1.03333	1.03226E-001	1.03211E-001	5.52264E-004	...........
	4	1.29167	1.03222E-001	1.03203E-001	5.49864E-004	...........
	5	1.55	1.03215E-001	1.03170E-001	5.64563E-004	...........
	6	1.80833	1.03206E-001	1.03148E-001	5.60330E-004	...........
	7	2.06667	1.03193E-001	1.03135E-001	5.46297E-004	...........
	8	2.325	1.03174E-001	1.03123E-001	5.41797E-004	...........
	9	2.58333	1.03156E-001	1.03116E-001	5.59764E-004	...........
	10	2.84167	1.03139E-001	1.03104E-001	5.60864E-004	...........
	11	3.1	1.03126E-001	1.03100E-001	5.45897E-004	...........
EOC	QUANT	0.1031262	Open Circuit (V)
PSTATMODEL	IQUANT	4	Pstat Model
PSTATSECTION	LABEL	REF600-11020	Pstat Section
PSTATSERIALNO	LABEL	11020	Pstat Serial Number
CTRLMODE	IQUANT	1	Control Mode
IESTAB	IQUANT	0	I/E Stability
CASPEED	IQUANT	1	Control Amp Speed
CONVENTION	IQUANT	1	Current Convention
ICHRANGE	IQUANT	2	Ich Range
ICHRANGEMODE	TOGGLE	F	Ich Auto Range
ICHOFFSETENABLE	TOGGLE	T	Ich Offset Enable
ICHOFFSET	QUANT	0	Ich Offset (V)
ICHFILTER	IQUANT	3	Ich Filter
VCHRANGE	IQUANT	2	Vch Range
VCHRANGEMODE	TOGGLE	F	Vch Auto Range
VCHOFFSETENABLE	TOGGLE	T	Vch Offset Enable
VCHOFFSET	QUANT	0	Vch Offset (V)
VCHFILTER	IQUANT	3	Vch Filter
ACHRANGE	IQUANT	2	Ach Range
ACHOFFSETENABLE	TOGGLE	F	Ach Offset Enable
ACHOFFSET	QUANT	0	Ach Offset (V)
ACHFILTER	IQUANT	3	Ach Filter
IERANGELOWERLIMIT	IQUANT	1	I/E Range Lower Limit
IERANGEMODE	TOGGLE	F	I/E AutoRange
IERANGE	IQUANT	8	I/E Range
POSFEEDENABLE	TOGGLE	F	Positive Feedback IR Comp
POSFEEDRESISTANCE	QUANT	0	Positive Feedback Resistance (ohm)
ACHSELECT	IQUANT	0	Ach Select
CABLEID	IQUANT	14	Cable ID
DCCALDATE	LABEL	2/27/2020	DC Calibration Date
ACCALDATE	LABEL	2/27/2020	AC Calibration Date
THERMOSELECT	IQUANT	1	Thermo Select
FRAMEWORKVERSION	QUANT	6.33	Framework Version
INSTRUMENTVERSION	LABEL	3.50	Instrument Version
ZCURVE	TABLE
	Pt	Time	Freq	Zreal	Zimag	Zsig	Zmod	Zphz	Idc	Vdc	IERange
	#	s	Hz	ohm	ohm	V	ohm	°	A	V	#
	0	1	1000078	1983.449	-2386.272	1	3102.961	-50.26694	4.727509E-008	0.1056809	8
	1	2	794390.6	2442.972	-2605.162	1	3571.412	-46.8402	6.32431E-008	0.1053353	8
	2	2	630984.4	2965.272	-2761.839	1	4052.233	-42.96564	4.993662E-008	0.1051805	8
	3	2	501234.4	3526.021	-2843.415	1	4529.661	-38.88301	5.506993E-008	0.1050753	8
	4	3	398109.4	4102.092	-2833.174	1	4985.382	-34.6315	4.355575E-008	0.1049938	8
	5	3	316265.6	4650.797	-2739.944	1	5397.889	-30.50379	4.506458E-008	0.1049649	8
	6	3	251203.1	5148.633	-2576.662	1	5757.396	-26.58592	5.824954E-008	0.1049674	8
	7	4	199546.9	5584.881	-2363.839	1	6064.539	-22.94084	4.721775E-008	0.1049483	8
	8	4	158578.1	5938.692	-2133.85	1	6310.419	-19.76403	6.991935E-008	0.1049565	8
	9	4	125953.1	6283.313	-1818.829	1	6541.266	-16.14413	1.945179E-009	0.1049006	7
	10	5	100078.1	6484.995	-1618.746	1	6683.974	-14.01543	2.586397E-009	0.1048755	7
	11	5	79453.13	6664.744	-1452.946	1	6821.28	-12.29833	1.713787E-009	0.1048611	7
	12	5	63140.62	6809.863	-1315.525	1	6935.766	-10.93368	2.078845E-009	0.1048582	7
	13	6	50203.12	6931.023	-1207.781	1	7035.468	-9.88495	2.014603E-009	0.1048558	7
	14	6	39890.62	7036.164	-1131.454	1	7126.555	-9.135276	1.950699E-009	0.1048523	7
	15	6	31640.63	7130.194	-1085.043	1	7212.28	-8.652646	1.62393E-009	0.1048514	7
	16	7	25171.88	7219.376	-1069.774	1	7298.206	-8.428811	2.536245E-009	0.1048547	7
	17	7	20015.62	7303.122	-1083.128	1	7383.004	-8.436056	2.419044E-009	0.1048512	7
	18	7	15890.62	7390.163	-1126.349	1	7475.504	-8.665867	3.232608E-009	0.1048558	7
	19	7	12609.37	7479.176	-1202.671	1	7575.255	-9.135109	2.307768E-009	0.1048465	7
	20	8	10078.13	7572.395	-1307.518	1	7684.449	-9.79661	2.5025E-009	0.1048521	7
	21	8	8015.625	7673.5	-1450.629	1	7809.413	-10.70509	2.635795E-009	0.1048482	7
	22	8	6328.125	7789.811	-1641.863	1	7960.958	-11.90206	2.330439E-009	0.104846	7
	23	9	5015.625	7919.01	-1880.285	1	8139.177	-13.35693	3.366976E-009	0.1048501	7
	24	9	3984.375	8062.202	-2170.749	1	8349.326	-15.06952	2.75893E-009	0.1048414	7
	25	9	3170.956	8222.464	-2521.565	1	8600.419	-17.04909	2.590469E-009	0.1048446	7
	26	10	2527.573	8407.626	-2943.142	1	8907.876	-19.29292	3.29041E-009	0.1048383	7
	27	10	1976.103	8651.101	-3483.74	1	9326.199	-21.93431	-1.337754E-010	0.104889	6
	28	10	1577.524	8896.324	-4105.796	1	9798.07	-24.77408	-1.282674E-011	0.1048995	6
	29	11	1265.625	9174.072	-4831.776	1	10368.69	-27.77476	3.020639E-013	0.1048905	6
	30	11	998.264	9522.22	-5772.802	1	11135.44	-31.22613	-1.478243E-010	0.1048926	6
	31	11	796.875	9906.42	-6849.069	1	12043.55	-34.65907	-7.581893E-011	0.1048941	6
	32	12	627.7902	10380.96	-8219.491	1	13241.01	-38.37168	-1.443514E-010	0.1048894	6
	33	12	505.5147	10886.37	-9718.04	1	14592.92	-41.75463	-3.331886E-010	0.1048972	6
	34	12	397.9953	11532.03	-11711.29	1	16436	-45.44186	4.611059E-010	0.1049135	6
	35	12	315.5048	12271.32	-14060.02	1	18661.98	-48.88617	4.797752E-010	0.1049092	6
	36	13	252.4038	13104.28	-16787.1	1	21296.21	-52.02383	4.039925E-010	0.1049066	6
	37	13	198.6229	14160	-20341.36	1	24784.61	-55.1575	4.881918E-010	0.1049048	6
	38	13	158.3615	15347.48	-24434.85	1	28854.93	-57.86715	4.426417E-010	0.104905	6
	39	14	125.558	16805.03	-29530.75	1	33977.55	-60.35714	4.255503E-010	0.104908	6
	40	14	100.4464	18500.57	-35473.7	1	40008.18	-62.45665	4.433051E-010	0.1049065	6
	41	14	79.00281	20743.2	-43266.29	1	47981.79	-64.3855	3.896841E-010	0.1049042	6
	42	15	63.3446	23292.97	-51963.27	1	56945.1	-65.85529	3.171122E-010	0.1049043	6
	43	15	49.86702	26753.41	-63377.81	1	68793.11	-67.11414	3.692293E-010	0.1049033	6
	44	16	39.72458	30903.23	-76510.56	1	82515.91	-68.00582	4.137058E-010	0.1049098	6
	45	16	31.6723	36105.84	-92235.22	1	99050.3	-68.62195	2.879048E-010	0.1049097	6
	46	16	24.93351	43157.29	-112142.8	1	120160.6	-68.95116	2.974367E-010	0.1049061	5
	47	16	19.86229	51612.52	-134947.6	1	144480.8	-69.06998	2.260715E-010	0.1049143	5
	48	17	15.83615	62393.17	-161982.3	1	173583.3	-68.93405	5.144409E-010	0.1049106	5
	49	17	12.40079	77456.27	-196771.6	1	211467.6	-68.51365	7.736696E-010	0.1049099	5
	50	17	9.93114	94955.77	-233877.2	1	252418.5	-67.9025	7.342543E-010	0.1049096	5
	51	18	7.944915	117469.8	-277632.9	1	301461.7	-67.0662	-9.064412E-011	0.104911	5
	52	18	6.317385	147098.5	-329241.5	1	360607.7	-65.92587	2.518867E-010	0.1049002	5
	53	19	5.008013	185501.4	-388883.1	1	430860.6	-64.49836	3.728737E-010	0.1049169	5
	54	20	3.945707	235358.9	-456588.5	1	513679.8	-62.73013	1.977073E-011	0.1049054	5
	55	21	3.158693	293107.7	-526144.4	1	602279	-60.87843	2.514961E-010	0.1049115	5
	56	22	2.504006	364465.3	-602732.8	1	704359.1	-58.83915	1.461359E-010	0.1049104	5
	57	23	1.998082	446091.4	-681767.1	1	814741.7	-56.80262	-1.267729E-011	0.1048676	5
	58	25	1.584686	539241.9	-765115.2	1	936046.5	-54.82438	2.295504E-011	0.1048972	5
	59	27	1.266892	643629.4	-849473.6	1	1065769	-52.84951	4.919755E-011	0.1049302	4
	60	29	0.999041	764055.3	-945428.6	1	1215572	-51.05633	1.04778E-010	0.1049474	4
