EXPLAIN
TAG	EISPOT
TITLE	LABEL	Potentiostatic EIS	Test &Identifier
DATE	LABEL	3/3/2020	Date
TIME	LABEL	19:04:35	Time
NOTES	NOTES	1	&Notes...
	
PSTAT	PSTAT	REF600-11020	Potentiostat
VDC	POTEN	0.00000E+000	T	DC &Voltage (V)
FREQINIT	QUANT	1.00000E+006	Initial Fre&q. (Hz)
FREQFINAL	QUANT	1.00000E+000	Final Fre&q. (Hz)
PTSPERDEC	QUANT	1.00000E+001	Points/&decade
VAC	QUANT	2.50000E+001	AC &Voltage (mV rms)
AREA	QUANT	1.60000E-004	&Area (cm^2)
CONDIT	TWOPARAM	F	1.50000E+001	0.00000E+000	Conditionin&g	Time(s)	E(V)
DELAY	TWOPARAM	F	1.00000E+002	0.00000E+000	Init. De&lay	Time(s)	Stab.(mV/s)
SPEED	SELECTOR	1	&Optimize for:
ZGUESS	QUANT	1.00000E+004	E&stimated Z (ohms)
OCVCURVE	TABLE	39
	Pt	T	Vf	Vm	Ach	Over
	#	s	V vs. Ref.	V	V	bits
	0	0.258333	6.44066E-002	6.44066E-002	5.67597E-004	...........
	1	0.516667	6.44036E-002	6.42526E-002	5.70063E-004	...........
	2	0.775	6.43862E-002	6.41382E-002	5.64930E-004	...........
	3	1.03333	6.43389E-002	6.40327E-002	5.64130E-004	...........
	4	1.29167	6.42589E-002	6.39531E-002	5.69730E-004	...........
	5	1.55	6.41595E-002	6.38476E-002	5.70463E-004	...........
	6	1.80833	6.40565E-002	6.37808E-002	5.64363E-004	...........
	7	2.06667	6.39591E-002	6.37176E-002	5.65463E-004	...........
	8	2.325	6.38709E-002	6.36525E-002	5.69997E-004	...........
	9	2.58333	6.37941E-002	6.36502E-002	5.64897E-004	...........
	10	2.84167	6.37302E-002	6.35917E-002	5.70397E-004	...........
	11	3.1	6.36784E-002	6.35217E-002	5.67197E-004	...........
	12	3.35833	6.36325E-002	6.34806E-002	5.65663E-004	...........
	13	3.61667	6.35857E-002	6.34491E-002	5.67597E-004	...........
	14	3.875	6.35372E-002	6.33841E-002	5.70663E-004	...........
	15	4.13333	6.34891E-002	6.33356E-002	5.63230E-004	...........
	16	4.39167	6.34416E-002	6.33296E-002	5.66763E-004	...........
	17	4.65	6.33965E-002	6.32907E-002	5.68230E-004	...........
	18	4.90833	6.33571E-002	6.32600E-002	5.71497E-004	...........
	19	5.16667	6.33234E-002	6.32285E-002	5.68197E-004	...........
	20	5.425	6.32925E-002	6.32006E-002	5.70597E-004	...........
	21	5.68333	6.32623E-002	6.31702E-002	5.69863E-004	...........
	22	5.94167	6.32322E-002	6.31398E-002	5.75830E-004	...........
	23	6.2	6.32024E-002	6.31187E-002	5.68297E-004	...........
	24	6.45833	6.31738E-002	6.31154E-002	5.73230E-004	...........
	25	6.71667	6.31482E-002	6.30757E-002	5.71563E-004	...........
	26	6.975	6.31257E-002	6.30525E-002	5.66063E-004	...........
	27	7.23333	6.31036E-002	6.30234E-002	5.72230E-004	...........
	28	7.49167	6.30797E-002	6.30016E-002	5.69597E-004	...........
	29	7.75	6.30541E-002	6.29727E-002	5.71330E-004	...........
	30	8.00833	6.30280E-002	6.29506E-002	5.67063E-004	...........
	31	8.26667	6.30021E-002	6.29246E-002	5.68530E-004	...........
	32	8.525	6.29770E-002	6.29197E-002	5.70297E-004	...........
	33	8.78333	6.29539E-002	6.28911E-002	5.73530E-004	...........
	34	9.04167	6.29329E-002	6.28635E-002	5.70730E-004	...........
	35	9.3	6.29126E-002	6.28458E-002	5.77097E-004	...........
	36	9.5583	6.28911E-002	6.28177E-002	5.72263E-004	...........
	37	9.8167	6.28685E-002	6.28013E-002	5.73597E-004	...........
	38	10.075	6.28458E-002	6.27909E-002	5.67530E-004	...........
EOC	QUANT	0.0628458	Open Circuit (V)
PSTATMODEL	IQUANT	4	Pstat Model
PSTATSECTION	LABEL	REF600-11020	Pstat Section
PSTATSERIALNO	LABEL	11020	Pstat Serial Number
CTRLMODE	IQUANT	1	Control Mode
IESTAB	IQUANT	0	I/E Stability
CASPEED	IQUANT	1	Control Amp Speed
CONVENTION	IQUANT	1	Current Convention
ICHRANGE	IQUANT	2	Ich Range
ICHRANGEMODE	TOGGLE	F	Ich Auto Range
ICHOFFSETENABLE	TOGGLE	T	Ich Offset Enable
ICHOFFSET	QUANT	0	Ich Offset (V)
ICHFILTER	IQUANT	3	Ich Filter
VCHRANGE	IQUANT	2	Vch Range
VCHRANGEMODE	TOGGLE	F	Vch Auto Range
VCHOFFSETENABLE	TOGGLE	T	Vch Offset Enable
VCHOFFSET	QUANT	0	Vch Offset (V)
VCHFILTER	IQUANT	3	Vch Filter
ACHRANGE	IQUANT	2	Ach Range
ACHOFFSETENABLE	TOGGLE	F	Ach Offset Enable
ACHOFFSET	QUANT	0	Ach Offset (V)
ACHFILTER	IQUANT	3	Ach Filter
IERANGELOWERLIMIT	IQUANT	1	I/E Range Lower Limit
IERANGEMODE	TOGGLE	F	I/E AutoRange
IERANGE	IQUANT	7	I/E Range
POSFEEDENABLE	TOGGLE	F	Positive Feedback IR Comp
POSFEEDRESISTANCE	QUANT	0	Positive Feedback Resistance (ohm)
ACHSELECT	IQUANT	0	Ach Select
CABLEID	IQUANT	14	Cable ID
DCCALDATE	LABEL	2/27/2020	DC Calibration Date
ACCALDATE	LABEL	2/27/2020	AC Calibration Date
THERMOSELECT	IQUANT	1	Thermo Select
FRAMEWORKVERSION	QUANT	6.33	Framework Version
INSTRUMENTVERSION	LABEL	3.50	Instrument Version
ZCURVE	TABLE
	Pt	Time	Freq	Zreal	Zimag	Zsig	Zmod	Zphz	Idc	Vdc	IERange
	#	s	Hz	ohm	ohm	V	ohm	°	A	V	#
	0	2	1000078	1855.283	-2150.284	1	2840.035	-49.2121	-7.329824E-007	0.0651347	8
	1	3	794390.6	2299.128	-2315.066	1	3262.748	-45.19791	-9.013928E-007	0.0648922	8
	2	4	630984.4	2770.61	-2404.141	1	3668.266	-40.94915	1.66631E-007	0.0645205	8
	3	6	501234.4	3265.195	-2409.858	1	4058.191	-36.42897	3.17969E-006	0.0641126	8
	4	7	398109.4	3754.419	-2350.845	1	4429.688	-32.05291	-5.229303E-007	0.0644257	8
	5	8	316265.6	4193.872	-2219.648	1	4745.039	-27.89048	2.332547E-006	0.0638697	8
	6	10	251203.1	4575.871	-2022.204	1	5002.79	-23.84196	-1.478423E-006	0.0645335	8
	7	11	199546.9	4883.443	-1825.112	1	5213.353	-20.49246	1.949923E-008	0.064316	8
	8	12	158578.1	5148.125	-1609.079	1	5393.729	-17.35696	-1.385938E-006	0.064536	8
	9	14	125953.1	5374.26	-1388.808	1	5550.807	-14.4893	8.366921E-008	0.0641783	7
	10	15	100078.1	5507.979	-1212.508	1	5639.858	-12.41489	-9.392887E-008	0.0643895	7
	11	16	79453.13	5637.247	-1079.971	1	5739.764	-10.84519	7.41987E-008	0.0642503	7
	12	18	63140.62	5735.732	-960.095	1	5815.531	-9.50256	1.104396E-007	0.0640782	7
	13	19	50203.12	5818.397	-870.3638	1	5883.135	-8.50769	-4.257813E-008	0.0642893	7
	14	20	39890.62	5890.958	-803.9569	1	5945.564	-7.771319	-9.346318E-008	0.0643754	7
	15	22	31640.63	5956.848	-759.8223	1	6005.111	-7.269077	-4.02403E-008	0.0643727	7
	16	23	25171.88	6015.368	-737.0682	1	6060.356	-6.98568	3.637169E-009	0.0642042	7
	17	25	20015.62	6072.527	-735.1509	1	6116.864	-6.902738	4.392768E-009	0.0642034	7
	18	26	15890.62	6130.518	-751.2763	1	6176.379	-6.986588	-7.273199E-008	0.0643707	7
	19	27	12609.37	6189.236	-801.9385	1	6240.973	-7.382676	9.745933E-008	0.0641541	7
	20	29	10078.13	6250.808	-850.7047	1	6308.431	-7.750063	7.626802E-008	0.0642419	7
	21	30	8015.625	6312.877	-933.0538	1	6381.458	-8.407543	-7.296296E-008	0.0643721	7
	22	31	6328.125	6382.444	-1044.457	1	6467.34	-9.293804	9.871403E-008	0.064147	7
	23	33	5015.625	6454.583	-1187.344	1	6562.882	-10.42324	-7.538032E-008	0.0642998	7
	24	34	3984.375	6533.086	-1369.07	1	6674.996	-11.8356	4.826082E-009	0.0642078	7
	25	35	3170.956	6618.51	-1589.839	1	6806.78	-13.50716	-9.194741E-008	0.0643636	7
	26	37	2527.573	6712.09	-1866.262	1	6966.713	-15.53832	-1.751258E-008	0.0641848	7
	27	38	1976.103	6828.103	-2239.329	1	7185.929	-18.15731	4.71881E-008	0.0642976	7
	28	40	1577.524	6945.245	-2663.337	1	7438.399	-20.98063	4.902974E-009	0.0641973	7
	29	41	1265.625	7085.793	-3167.345	1	7761.478	-24.08461	-3.193906E-009	0.0643455	7
	30	42	998.264	7259.093	-3835.783	1	8210.217	-27.85246	7.757887E-008	0.0640851	7
	31	44	796.875	7461.277	-4612.722	1	8771.993	-31.72525	-7.202799E-008	0.064369	7
	32	45	627.7902	7706.063	-5630.179	1	9543.71	-36.15249	-3.597298E-009	0.0643537	7
	33	46	505.5147	7987.728	-6746.099	1	10455.32	-40.18303	-8.17371E-009	0.0642971	6
	34	48	397.9953	8359.163	-8244.229	1	11740.65	-44.60339	1.822903E-010	0.0643324	6
	35	49	315.5048	8806.969	-10033.92	1	13350.74	-48.72594	1.010791E-009	0.0643282	6
	36	50	252.4038	9335.698	-12122.85	1	15300.94	-52.40044	3.490924E-010	0.0643165	6
	37	52	198.6229	10040.42	-14851.58	1	17927.06	-55.93932	8.595147E-010	0.0643242	6
	38	53	158.3615	10876.27	-17992.55	1	21024.4	-58.84757	7.067122E-010	0.064319	6
	39	54	125.558	11932.05	-21893.82	1	24934.18	-61.40978	5.705154E-010	0.064326	6
	40	56	100.4464	13209.47	-26451.56	1	29566.46	-63.46321	7.770601E-010	0.0643255	6
	41	57	79.00281	14887.7	-32298.75	1	35564.77	-65.25327	4.696509E-010	0.0643241	6
	42	59	63.3446	16676.59	-38770.49	1	42204.97	-66.72572	3.765104E-010	0.0643201	6
	43	60	49.86702	19822.24	-47461.45	1	51434.53	-67.33218	5.153497E-010	0.064318	6
	44	61	39.72458	22929.76	-57407.56	1	61817.49	-68.22722	5.792143E-010	0.0643224	6
	45	63	31.6723	27209.57	-69062.98	1	74229.75	-68.49645	6.472143E-010	0.0643212	6
	46	64	24.93351	32726.03	-84024.38	1	90172.55	-68.71996	2.399834E-010	0.0643222	6
	47	65	19.86229	39798.18	-100869.4	1	108436.8	-68.46822	3.228101E-011	0.0643195	5
	48	67	15.83615	48783.9	-120406.4	1	129913.7	-67.94415	3.879549E-010	0.06432	5
	49	68	12.40079	60428.25	-145890.8	1	157910.4	-67.50056	3.437587E-010	0.0643256	5
	50	70	9.93114	76443.03	-172180.1	1	188386.7	-66.06015	-1.697775E-010	0.0643321	5
	51	71	7.944915	94974.34	-201607.9	1	222858.4	-64.7756	1.016195E-009	0.0643306	5
	52	73	6.317385	119170.7	-236318.1	1	264665.7	-63.23906	4.532003E-010	0.0643376	5
	53	75	5.008013	148998.2	-274329.3	1	312181.1	-61.49201	3.874916E-010	0.0643331	5
	54	77	3.945707	185809.5	-316869.8	1	367330.5	-59.61303	-1.255627E-010	0.0643238	5
	55	80	3.158693	225980.4	-358857.5	1	424082.3	-57.80048	3.012537E-010	0.0643394	5
	56	83	2.504006	273626.9	-405358.6	1	489067.8	-55.97969	-1.476167E-010	0.0643322	5
	57	86	1.998082	323391.7	-452249	1	555977.8	-54.43241	3.02379E-010	0.0642786	5
	58	89	1.584686	378887.9	-506973.3	1	632912.3	-53.2273	-4.008253E-011	0.064303	5
	59	93	1.266892	436161.1	-562542.9	1	711822.4	-52.21221	2.47838E-010	0.0642819	5
	60	97	0.999041	499732	-632770.1	1	806306.4	-51.69999	-6.704209E-011	0.0643435	5
