EXPLAIN
TAG	EISPOT
TITLE	LABEL	Potentiostatic EIS	Test &Identifier
DATE	LABEL	3/20/2020	Date
TIME	LABEL	15:32:33	Time
NOTES	NOTES	1	&Notes...
	
PSTAT	PSTAT	REF600-11020	Potentiostat
VDC	POTEN	0.00000E+000	T	DC &Voltage (V)
FREQINIT	QUANT	1.00000E+006	Initial Fre&q. (Hz)
FREQFINAL	QUANT	1.00000E+000	Final Fre&q. (Hz)
PTSPERDEC	QUANT	1.00000E+001	Points/&decade
VAC	QUANT	2.50000E+001	AC &Voltage (mV rms)
AREA	QUANT	4.00000E-004	&Area (cm^2)
CONDIT	TWOPARAM	F	5.00000E+000	0.00000E+000	Conditionin&g	Time(s)	E(V)
DELAY	TWOPARAM	T	3.00000E+000	0.00000E+000	Init. De&lay	Time(s)	Stab.(mV/s)
SPEED	SELECTOR	0	&Optimize for:
ZGUESS	QUANT	1.00000E+003	E&stimated Z (ohms)
OCVCURVE	TABLE	12
	Pt	T	Vf	Vm	Ach	Over
	#	s	V vs. Ref.	V	V	bits
	0	0.258333	1.77742E-001	1.77742E-001	5.85730E-004	...........
	1	0.516667	1.77757E-001	1.78552E-001	5.86096E-004	...........
	2	0.775	1.77839E-001	1.78616E-001	5.83930E-004	...........
	3	1.03333	1.78012E-001	1.78000E-001	5.83663E-004	...........
	4	1.29167	1.78193E-001	1.78135E-001	5.82063E-004	...........
	5	1.55	1.78280E-001	1.78700E-001	5.80830E-004	...........
	6	1.80833	1.78301E-001	1.78323E-001	5.80697E-004	...........
	7	2.06667	1.78335E-001	1.78536E-001	5.85530E-004	...........
	8	2.325	1.78396E-001	1.78694E-001	5.80163E-004	...........
	9	2.58333	1.78468E-001	1.78822E-001	5.86430E-004	...........
	10	2.84167	1.78557E-001	1.78782E-001	5.88796E-004	...........
	11	3.1	1.78654E-001	1.78826E-001	5.86996E-004	...........
EOC	QUANT	0.178654	Open Circuit (V)
PSTATMODEL	IQUANT	4	Pstat Model
PSTATSECTION	LABEL	REF600-11020	Pstat Section
PSTATSERIALNO	LABEL	11020	Pstat Serial Number
CTRLMODE	IQUANT	1	Control Mode
IESTAB	IQUANT	0	I/E Stability
CASPEED	IQUANT	1	Control Amp Speed
CONVENTION	IQUANT	1	Current Convention
ICHRANGE	IQUANT	2	Ich Range
ICHRANGEMODE	TOGGLE	F	Ich Auto Range
ICHOFFSETENABLE	TOGGLE	T	Ich Offset Enable
ICHOFFSET	QUANT	0	Ich Offset (V)
ICHFILTER	IQUANT	3	Ich Filter
VCHRANGE	IQUANT	2	Vch Range
VCHRANGEMODE	TOGGLE	F	Vch Auto Range
VCHOFFSETENABLE	TOGGLE	T	Vch Offset Enable
VCHOFFSET	QUANT	0	Vch Offset (V)
VCHFILTER	IQUANT	3	Vch Filter
ACHRANGE	IQUANT	2	Ach Range
ACHOFFSETENABLE	TOGGLE	F	Ach Offset Enable
ACHOFFSET	QUANT	0	Ach Offset (V)
ACHFILTER	IQUANT	3	Ach Filter
IERANGELOWERLIMIT	IQUANT	1	I/E Range Lower Limit
IERANGEMODE	TOGGLE	F	I/E AutoRange
IERANGE	IQUANT	8	I/E Range
POSFEEDENABLE	TOGGLE	F	Positive Feedback IR Comp
POSFEEDRESISTANCE	QUANT	0	Positive Feedback Resistance (ohm)
ACHSELECT	IQUANT	0	Ach Select
CABLEID	IQUANT	14	Cable ID
DCCALDATE	LABEL	2/27/2020	DC Calibration Date
ACCALDATE	LABEL	2/27/2020	AC Calibration Date
THERMOSELECT	IQUANT	1	Thermo Select
FRAMEWORKVERSION	QUANT	6.33	Framework Version
INSTRUMENTVERSION	LABEL	3.50	Instrument Version
ZCURVE	TABLE
	Pt	Time	Freq	Zreal	Zimag	Zsig	Zmod	Zphz	Idc	Vdc	IERange
	#	s	Hz	ohm	ohm	V	ohm	°	A	V	#
	0	1	1000078	1397.223	-730.7823	1	1576.793	-27.61068	-7.112593E-008	0.1811223	8
	1	2	794390.6	1509.29	-731.7822	1	1677.338	-25.86652	-8.736619E-008	0.1807922	8
	2	2	630984.4	1619.983	-731.1511	1	1777.337	-24.29121	-1.480682E-007	0.1806535	8
	3	2	501234.4	1728.173	-731.244	1	1876.512	-22.93474	2.679873E-007	0.1804725	8
	4	3	398109.4	1834.338	-729.6193	1	1974.117	-21.6905	-6.834993E-008	0.1804527	8
	5	3	316265.6	1937.66	-728.9976	1	2070.257	-20.61759	-2.356776E-007	0.1805062	8
	6	3	251203.1	2038.147	-729.9801	1	2164.929	-19.70542	2.032484E-007	0.1803757	8
	7	4	199546.9	2138.785	-737.9434	1	2262.512	-19.03593	3.760665E-007	0.180381	8
	8	4	158578.1	2237.425	-747.2465	1	2358.908	-18.46808	-1.430102E-007	0.1804603	8
	9	4	125953.1	2351.545	-734.507	1	2463.588	-17.34624	4.182872E-008	0.1802733	7
	10	5	100078.1	2444.994	-750.9654	1	2557.722	-17.07403	4.048432E-009	0.1803572	7
	11	5	79453.13	2541.579	-781.9017	1	2659.134	-17.1002	6.037795E-009	0.1803341	7
	12	5	63140.62	2640.919	-819.2045	1	2765.059	-17.23372	3.179551E-009	0.1803514	7
	13	5	50203.12	2742.125	-861.8617	1	2874.379	-17.44816	3.482628E-009	0.1803539	7
	14	6	39890.62	2844.255	-912.2066	1	2986.956	-17.78203	9.29139E-010	0.180345	7
	15	6	31640.63	2947.867	-974.818	1	3104.866	-18.29831	2.515293E-009	0.1803398	7
	16	6	25171.88	3052.229	-1052.275	1	3228.526	-19.02195	1.010072E-008	0.1803327	7
	17	7	20015.62	3159.761	-1149.777	1	3362.451	-19.99549	4.257712E-009	0.180344	7
	18	7	15890.62	3272.048	-1272.216	1	3510.674	-21.24675	2.818481E-009	0.1803472	7
	19	7	12609.37	3392.976	-1425.274	1	3680.176	-22.78563	-9.648439E-010	0.1803429	7
	20	8	10078.13	3520.735	-1607.898	1	3870.518	-24.54589	4.134782E-010	0.1803331	7
	21	8	8015.625	3666.224	-1834.631	1	4099.642	-26.58404	-5.694433E-010	0.1803349	7
	22	8	6328.125	3839.896	-2121.989	1	4387.214	-28.92575	-2.375924E-009	0.1803383	7
	23	9	5015.625	4042.572	-2464.143	1	4734.384	-31.36432	4.485995E-009	0.1803154	7
	24	9	3984.375	4283.383	-2866.503	1	5154.048	-33.79102	8.120836E-010	0.18033	7
	25	9	3170.956	4576.249	-3339.647	1	5665.271	-36.12116	6.277451E-010	0.1803268	7
	26	10	2527.573	4936.431	-3881.505	1	6279.684	-38.17789	5.851904E-009	0.1803164	7
	27	10	1976.103	5424.425	-4555.12	1	7083.326	-40.0216	2.318869E-009	0.180318	7
	28	10	1577.524	5976.264	-5252.883	1	7956.665	-41.3141	3.796414E-009	0.1803333	7
	29	11	1265.625	6632.01	-5976.213	1	8927.411	-42.02253	1.354361E-009	0.1803151	7
	30	11	998.264	7461.315	-6811.298	1	10102.72	-42.39238	1.100256E-009	0.1803872	6
	31	11	796.875	8354.321	-7625.252	1	11311.02	-42.38769	1.229666E-009	0.1803611	6
	32	11	627.7902	9382.343	-8511.47	1	12667.81	-42.21367	5.000108E-010	0.1803567	6
	33	12	505.5147	10345.33	-9359.474	1	13950.83	-42.13581	1.556293E-010	0.1803614	6
	34	12	397.9953	11416.81	-10388.5	1	15435.82	-42.30003	1.954596E-011	0.1803897	6
	35	12	315.5048	12428.3	-11559.41	1	16973	-42.92551	-1.707777E-010	0.1803862	6
	36	13	252.4038	13358.79	-12930.79	1	18592	-44.06729	-4.605777E-010	0.1803797	6
	37	13	198.6229	14349.44	-14799.41	1	20613.8	-45.88439	-2.878881E-010	0.1803843	6
	38	13	158.3615	15304.66	-17047.84	1	22909.86	-48.08418	-3.04352E-010	0.1803798	6
	39	14	125.558	16354.47	-19965.99	1	25809.1	-50.67853	-3.657064E-010	0.1803807	6
	40	14	100.4464	17485.81	-23479.11	1	29274.94	-53.3235	-3.76883E-010	0.1803777	6
	41	14	79.00281	18945.71	-28203.73	1	33976.32	-56.10897	-3.989447E-010	0.1803706	6
	42	15	63.3446	20563.03	-33584.75	1	39379.86	-58.522	-4.720334E-010	0.1803642	6
	43	15	49.86702	22768.2	-40705.47	1	46640.39	-60.77997	-3.097513E-010	0.1803684	6
	44	15	39.72458	25437.09	-48962.84	1	55176.13	-62.5473	-4.746292E-010	0.1803735	6
	45	16	31.6723	28780.26	-58885.49	1	65542.38	-63.95294	-4.135177E-010	0.1803668	6
	46	16	24.93351	33287.81	-71494.64	1	78864.2	-65.03337	-5.969666E-010	0.1803665	6
	47	16	19.86229	38773.64	-85938.15	1	94280.23	-65.71602	-1.04193E-009	0.1803719	6
	48	17	15.83615	45776.35	-102840.4	1	112568.3	-66.00518	1.749818E-010	0.1803759	5
	49	17	12.40079	55460.19	-124519.3	1	136311.7	-65.99207	4.286052E-010	0.1803751	5
	50	17	9.93114	66754.41	-147505.5	1	161907.4	-65.6506	6.932371E-010	0.1803777	5
	51	18	7.944915	80618.59	-174206.6	1	191956.5	-65.16645	3.517469E-010	0.1803749	5
	52	18	6.317385	98556.3	-206011.3	1	228372.5	-64.43344	-1.056152E-010	0.180382	5
	53	19	5.008013	121088.9	-242541	1	271087.9	-63.46929	2.261496E-010	0.1803854	5
	54	20	3.945707	149911.8	-285129.7	1	322137.4	-62.26609	9.120132E-011	0.1803768	5
	55	21	3.158693	181568.2	-329448.7	1	376169.5	-61.13964	1.710859E-010	0.180391	5
	56	22	2.504006	221618.9	-380743.3	1	440545.6	-59.79764	-7.123343E-011	0.1803811	5
	57	23	1.998082	265570.4	-435445.4	1	510039.5	-58.62173	-1.390955E-011	0.1803697	5
	58	24	1.584686	319434.5	-496230.8	1	590155.4	-57.22974	1.390228E-010	0.1804168	5
	59	32	1.266892	375716.3	-563479.7	1	677253.4	-56.30548	7.617126E-012	0.1803799	5
	60	34	0.999041	445636.3	-638857.6	1	778929.2	-55.10223	2.52963E-010	0.1804009	5
