EXPLAIN
TAG	EISPOT
TITLE	LABEL	Potentiostatic EIS	Test &Identifier
DATE	LABEL	2/21/2020	Date
TIME	LABEL	15:17:47	Time
NOTES	NOTES	1	&Notes...
	
PSTAT	PSTAT	REF600-11020	Potentiostat
VDC	POTEN	0.00000E+000	T	DC &Voltage (V)
FREQINIT	QUANT	1.00000E+006	Initial Fre&q. (Hz)
FREQFINAL	QUANT	1.00000E+000	Final Fre&q. (Hz)
PTSPERDEC	QUANT	1.00000E+001	Points/&decade
VAC	QUANT	2.50000E+001	AC &Voltage (mV rms)
AREA	QUANT	2.08200E-005	&Area (cm^2)
CONDIT	TWOPARAM	F	1.50000E+001	0.00000E+000	Conditionin&g	Time(s)	E(V)
DELAY	TWOPARAM	F	1.00000E+002	0.00000E+000	Init. De&lay	Time(s)	Stab.(mV/s)
SPEED	SELECTOR	1	&Optimize for:
ZGUESS	QUANT	2.00000E+003	E&stimated Z (ohms)
OCVCURVE	TABLE	39
	Pt	T	Vf	Vm	Ach	Over
	#	s	V vs. Ref.	V	V	bits
	0	0.258333	-2.97867E-002	-2.97867E-002	5.51705E-004	...........
	1	0.516667	-2.97877E-002	-2.98422E-002	5.61104E-004	...........
	2	0.775	-2.97906E-002	-2.97049E-002	5.60204E-004	...........
	3	1.03333	-2.97861E-002	-2.95424E-002	5.60571E-004	...........
	4	1.29167	-2.97545E-002	-2.95049E-002	5.60338E-004	...........
	5	1.55	-2.96886E-002	-2.94745E-002	5.61671E-004	...........
	6	1.80833	-2.96092E-002	-2.95233E-002	5.57371E-004	...........
	7	2.06667	-2.95493E-002	-2.96852E-002	5.61138E-004	...........
	8	2.325	-2.95288E-002	-2.94226E-002	5.66671E-004	...........
	9	2.58333	-2.95345E-002	-2.95264E-002	5.57671E-004	...........
	10	2.84167	-2.95393E-002	-2.96537E-002	5.65404E-004	...........
	11	3.1	-2.95479E-002	-2.98760E-002	5.61038E-004	...........
	12	3.35833	-2.96043E-002	-3.05733E-002	5.63171E-004	...........
	13	3.61667	-2.97473E-002	-3.00532E-002	5.60371E-004	...........
	14	3.875	-2.99365E-002	-2.97735E-002	5.64738E-004	...........
	15	4.13333	-3.00547E-002	-2.97501E-002	5.62204E-004	...........
	16	4.39167	-3.00355E-002	-2.97323E-002	5.61271E-004	...........
	17	4.65	-2.99298E-002	-2.97019E-002	5.64971E-004	...........
	18	4.90833	-2.98204E-002	-2.96362E-002	5.58638E-004	...........
	19	5.16667	-2.97422E-002	-2.96148E-002	5.57538E-004	...........
	20	5.425	-2.96890E-002	-2.95406E-002	5.63304E-004	...........
	21	5.68333	-2.96397E-002	-2.92257E-002	5.66071E-004	...........
	22	5.94167	-2.95678E-002	-2.91721E-002	5.60004E-004	...........
	23	6.2	-2.94658E-002	-2.94636E-002	5.70371E-004	...........
	24	6.45833	-2.93723E-002	-2.93581E-002	5.62904E-004	...........
	25	6.71667	-2.93289E-002	-2.92538E-002	5.65971E-004	...........
	26	6.975	-2.93256E-002	-2.93823E-002	5.60071E-004	...........
	27	7.23333	-2.93307E-002	-2.93743E-002	5.63104E-004	...........
	28	7.49167	-2.93356E-002	-2.92733E-002	5.67104E-004	...........
	29	7.75	-2.93354E-002	-2.91556E-002	5.67404E-004	...........
	30	8.00833	-2.93148E-002	-2.91837E-002	5.68904E-004	...........
	31	8.26667	-2.92687E-002	-2.90230E-002	5.62604E-004	...........
	32	8.525	-2.92067E-002	-2.89942E-002	5.60238E-004	...........
	33	8.78333	-2.91411E-002	-2.91367E-002	5.61371E-004	...........
	34	9.04167	-2.90950E-002	-2.93130E-002	5.60804E-004	...........
	35	9.3	-2.90935E-002	-2.91134E-002	5.59871E-004	...........
	36	9.5583	-2.91245E-002	-2.89842E-002	5.58438E-004	...........
	37	9.8167	-2.91377E-002	-2.89076E-002	5.55904E-004	...........
	38	10.075	-2.91020E-002	-2.89435E-002	5.65838E-004	...........
EOC	QUANT	-0.029102	Open Circuit (V)
PSTATMODEL	IQUANT	4	Pstat Model
PSTATSECTION	LABEL	REF600-11020	Pstat Section
PSTATSERIALNO	LABEL	11020	Pstat Serial Number
CTRLMODE	IQUANT	1	Control Mode
IESTAB	IQUANT	0	I/E Stability
CASPEED	IQUANT	1	Control Amp Speed
CONVENTION	IQUANT	1	Current Convention
ICHRANGE	IQUANT	2	Ich Range
ICHRANGEMODE	TOGGLE	F	Ich Auto Range
ICHOFFSETENABLE	TOGGLE	T	Ich Offset Enable
ICHOFFSET	QUANT	0	Ich Offset (V)
ICHFILTER	IQUANT	3	Ich Filter
VCHRANGE	IQUANT	2	Vch Range
VCHRANGEMODE	TOGGLE	F	Vch Auto Range
VCHOFFSETENABLE	TOGGLE	T	Vch Offset Enable
VCHOFFSET	QUANT	0	Vch Offset (V)
VCHFILTER	IQUANT	3	Vch Filter
ACHRANGE	IQUANT	2	Ach Range
ACHOFFSETENABLE	TOGGLE	F	Ach Offset Enable
ACHOFFSET	QUANT	0	Ach Offset (V)
ACHFILTER	IQUANT	3	Ach Filter
IERANGELOWERLIMIT	IQUANT	1	I/E Range Lower Limit
IERANGEMODE	TOGGLE	F	I/E AutoRange
IERANGE	IQUANT	7	I/E Range
POSFEEDENABLE	TOGGLE	F	Positive Feedback IR Comp
POSFEEDRESISTANCE	QUANT	0	Positive Feedback Resistance (ohm)
ACHSELECT	IQUANT	0	Ach Select
CABLEID	IQUANT	14	Cable ID
DCCALDATE	LABEL	1/27/2020	DC Calibration Date
ACCALDATE	LABEL	1/27/2020	AC Calibration Date
THERMOSELECT	IQUANT	1	Thermo Select
FRAMEWORKVERSION	QUANT	6.33	Framework Version
INSTRUMENTVERSION	LABEL	3.50	Instrument Version
ZCURVE	TABLE
	Pt	Time	Freq	Zreal	Zimag	Zsig	Zmod	Zphz	Idc	Vdc	IERange
	#	s	Hz	ohm	ohm	V	ohm	°	A	V	#
	0	1	1000078	1683.522	-1928.025	1	2559.595	-48.87303	-6.046502E-007	-0.0265864	8
	1	2	794390.6	1969.145	-2080.227	1	2864.415	-46.57134	-1.087161E-006	-0.0266822	8
	2	4	630984.4	2279.894	-2242.583	1	3197.983	-44.5273	2.639973E-007	-0.0272146	8
	3	5	501234.4	2600.728	-2423.729	1	3555.032	-42.98244	-6.625248E-007	-0.0271876	8
	4	6	398109.4	2946.407	-2620.152	1	3942.907	-41.64574	4.395341E-007	-0.0274377	8
	5	8	316265.6	3326.57	-2823.358	1	4363.189	-40.32225	1.186266E-007	-0.0274726	8
	6	9	251203.1	3760.856	-3064.04	1	4851.019	-39.17035	4.06256E-007	-0.0274901	8
	7	11	199546.9	4249.968	-3298.449	1	5379.776	-37.81546	-5.256309E-007	-0.0273071	8
	8	12	158578.1	4791.232	-3516.244	1	5943.053	-36.27462	-9.631975E-007	-0.0271939	8
	9	13	125953.1	5445.598	-3679.643	1	6572.238	-34.04728	-8.467791E-008	-0.0273549	7
	10	15	100078.1	6133.275	-3812.923	1	7221.873	-31.86831	-5.729755E-009	-0.0274913	7
	11	16	79453.13	6852.943	-3868.043	1	7869.218	-29.44192	-1.603383E-008	-0.0274448	7
	12	17	63140.62	7569.424	-3819.058	1	8478.289	-26.77266	-1.684439E-008	-0.0274803	7
	13	19	50203.12	8263.945	-3693.885	1	9051.937	-24.08407	-1.542571E-008	-0.027464	7
	14	20	39890.62	8907.276	-3495.772	1	9568.7	-21.42815	3.511105E-009	-0.0274608	7
	15	22	31640.63	9464.895	-3235.139	1	10002.52	-18.87064	-1.600132E-008	-0.0274854	7
	16	23	25171.88	9948.78	-2967.06	1	10381.79	-16.60635	-6.020436E-009	-0.0275116	7
	17	25	20015.62	10351.89	-2700.179	1	10698.25	-14.61925	6.346405E-009	-0.0275075	7
	18	27	15890.62	10675.11	-2444.704	1	10951.46	-12.89886	-2.480033E-008	-0.0274639	7
	19	28	12609.37	10968.52	-2204.924	1	11187.94	-11.36628	4.06295E-009	-0.0275302	6
	20	30	10078.13	11179.59	-2038.689	1	11363.95	-10.33479	-2.729046E-010	-0.0275302	6
	21	31	8015.625	11354.56	-1916.298	1	11515.13	-9.57948	-3.431403E-010	-0.0275337	6
	22	33	6328.125	11528.04	-1848.7	1	11675.33	-9.110701	-3.634529E-010	-0.0275343	6
	23	34	5015.625	11673.02	-1834.042	1	11816.22	-8.929203	3.025499E-009	-0.0275065	6
	24	36	3984.375	11812.62	-1873.484	1	11960.26	-9.012063	3.633387E-009	-0.0275893	6
	25	37	3170.956	11933.14	-1968.092	1	12094.35	-9.365286	4.84408E-009	-0.0275876	6
	26	39	2527.573	12053.91	-2122.484	1	12239.35	-9.98642	4.824629E-009	-0.0275878	6
	27	41	1976.103	12205.21	-2369.841	1	12433.16	-10.98818	3.965316E-011	-0.0274653	6
	28	42	1577.524	12343.35	-2672.998	1	12629.46	-12.21894	-8.756978E-010	-0.0275181	6
	29	44	1265.625	12512.37	-3061.653	1	12881.5	-13.74955	-3.525866E-009	-0.0274517	6
	30	45	998.264	12672.34	-3589.116	1	13170.8	-15.81342	-4.774843E-011	-0.02754	6
	31	47	796.875	12858.17	-4224.353	1	13534.32	-18.18713	3.562625E-009	-0.0275358	6
	32	48	627.7902	13115.19	-5064.305	1	14059	-21.11359	3.996877E-009	-0.0275329	6
	33	49	505.5147	13359.36	-6004.055	1	14646.54	-24.20044	-2.334206E-009	-0.0274994	6
	34	51	397.9953	13693.06	-7277.878	1	15507.02	-27.99069	2.68365E-010	-0.0274801	6
	35	52	315.5048	14099.08	-8797.136	1	16618.47	-31.96215	5.753837E-010	-0.0274825	6
	36	53	252.4038	14577.46	-10571.84	1	18007.39	-35.95029	5.280354E-010	-0.0274842	6
	37	55	198.6229	15207.42	-12891.48	1	19936.29	-40.28827	1.779884E-010	-0.0274845	6
	38	56	158.3615	15957.09	-15555.38	1	22284.49	-44.26965	3.529045E-010	-0.0274865	6
	39	57	125.558	16881.42	-18860.53	1	25312.08	-48.16936	9.664578E-011	-0.0274784	6
	40	59	100.4464	17940.65	-22699.01	1	28932.88	-51.67816	-1.968817E-011	-0.0274808	6
	41	60	79.00281	19433.82	-27754.23	1	33881.71	-54.99986	1.331945E-010	-0.0274776	6
	42	62	63.3446	21241.46	-33269.71	1	39472.43	-57.44331	-1.306421E-010	-0.0274799	6
	43	63	49.86702	23251.68	-40781.98	1	46944.77	-60.31055	-2.353423E-010	-0.0274893	6
	44	64	39.72458	26009.39	-49157.75	1	55614.5	-62.11666	-1.156008E-010	-0.0274834	6
	45	66	31.6723	29414.87	-59362.63	1	66250.71	-63.64105	-4.748816E-010	-0.0274922	6
	46	67	24.93351	34211.08	-72183.62	1	79880.37	-64.64161	-5.055398E-010	-0.0274889	6
	47	68	19.86229	39956.39	-86801.27	1	95556.1	-65.28242	-3.036321E-010	-0.0274883	6
	48	70	15.83615	47460.83	-104026.8	1	114342.1	-65.4758	3.462349E-010	-0.0274921	5
	49	71	12.40079	58049.66	-125694.9	1	138452	-65.21109	1.081548E-009	-0.0274934	5
	50	73	9.93114	69707.15	-148903.9	1	164412.4	-64.91405	5.770239E-010	-0.0274955	5
	51	74	7.944915	84608.18	-175727	1	195034.7	-64.29034	-3.489002E-010	-0.0274847	5
	52	76	6.317385	104185.6	-206811.7	1	231572.2	-63.26239	-4.422409E-010	-0.0274735	5
	53	78	5.008013	128754.3	-242472.5	1	274537.1	-62.03144	-9.038952E-011	-0.0274858	5
	54	80	3.945707	159231.1	-283148.8	1	324850.3	-60.64841	-4.086152E-012	-0.0274828	5
	55	83	3.158693	193409.8	-324684.4	1	377925	-59.21835	-9.284926E-011	-0.027465	5
	56	86	2.504006	235215.8	-372308.3	1	440386.1	-57.71624	-3.865744E-010	-0.0274861	5
	57	89	1.998082	281847.6	-422625.8	1	507986.8	-56.30083	-5.444201E-010	-0.0274851	5
	58	92	1.584686	337265.2	-477490.3	1	584589.4	-54.76534	-3.273325E-010	-0.0274363	5
	59	96	1.266892	393422.6	-538597.1	1	666984.4	-53.85344	-7.275158E-010	-0.0274917	5
	60	100	0.999041	463378.7	-607003.9	1	763658	-52.64236	-1.619672E-010	-0.0274502	5
