EXPLAIN
TAG	EISPOT
TITLE	LABEL	Potentiostatic EIS	Test &Identifier
DATE	LABEL	6/26/2020	Date
TIME	LABEL	13:09:48	Time
NOTES	NOTES	1	&Notes...
	
PSTAT	PSTAT	REF600-11020	Potentiostat
VDC	POTEN	0.00000E+000	T	DC &Voltage (V)
FREQINIT	QUANT	1.00000E+006	Initial Fre&q. (Hz)
FREQFINAL	QUANT	1.00000E+000	Final Fre&q. (Hz)
PTSPERDEC	QUANT	1.00000E+001	Points/&decade
VAC	QUANT	2.50000E+001	AC &Voltage (mV rms)
AREA	QUANT	4.00000E-004	&Area (cm^2)
CONDIT	TWOPARAM	F	5.00000E+000	0.00000E+000	Conditionin&g	Time(s)	E(V)
DELAY	TWOPARAM	F	3.00000E+000	0.00000E+000	Init. De&lay	Time(s)	Stab.(mV/s)
SPEED	SELECTOR	0	&Optimize for:
ZGUESS	QUANT	1.00000E+003	E&stimated Z (ohms)
OCVCURVE	TABLE	39
	Pt	T	Vf	Vm	Ach	Over
	#	s	V vs. Ref.	V	V	bits
	0	0.258333	9.74661E-002	9.74661E-002	5.21417E-004	...........
	1	0.516667	9.74658E-002	9.74526E-002	5.17350E-004	...........
	2	0.775	9.74643E-002	9.74419E-002	5.19050E-004	...........
	3	1.03333	9.74601E-002	9.74330E-002	5.20683E-004	...........
	4	1.29167	9.74529E-002	9.74221E-002	5.24817E-004	...........
	5	1.55	9.74438E-002	9.74163E-002	5.27317E-004	...........
	6	1.80833	9.74340E-002	9.74026E-002	5.28383E-004	...........
	7	2.06667	9.74244E-002	9.74001E-002	5.27783E-004	...........
	8	2.325	9.74152E-002	9.73857E-002	5.27717E-004	...........
	9	2.58333	9.74062E-002	9.73773E-002	5.23550E-004	...........
	10	2.84167	9.73971E-002	9.73674E-002	5.25350E-004	...........
	11	3.1	9.73878E-002	9.73629E-002	5.21117E-004	...........
	12	3.35833	9.73786E-002	9.73557E-002	5.20950E-004	...........
	13	3.61667	9.73703E-002	9.73493E-002	5.18017E-004	...........
	14	3.875	9.73628E-002	9.73357E-002	5.23683E-004	...........
	15	4.13333	9.73554E-002	9.73280E-002	5.25917E-004	...........
	16	4.39167	9.73471E-002	9.73159E-002	5.27150E-004	...........
	17	4.65	9.73378E-002	9.73103E-002	5.26617E-004	...........
	18	4.90833	9.73282E-002	9.72998E-002	5.21050E-004	...........
	19	5.16667	9.73189E-002	9.72933E-002	5.24850E-004	...........
	20	5.425	9.73099E-002	9.72806E-002	5.24550E-004	...........
	21	5.68333	9.73011E-002	9.72763E-002	5.24450E-004	...........
	22	5.94167	9.72924E-002	9.72636E-002	5.15683E-004	...........
	23	6.2	9.72835E-002	9.72551E-002	5.21350E-004	...........
	24	6.45833	9.72745E-002	9.72464E-002	5.22083E-004	...........
	25	6.71667	9.72654E-002	9.72407E-002	5.24650E-004	...........
	26	6.975	9.72564E-002	9.72270E-002	5.21583E-004	...........
	27	7.23333	9.72477E-002	9.72204E-002	5.24083E-004	...........
	28	7.49167	9.72388E-002	9.72133E-002	5.19217E-004	...........
	29	7.75	9.72300E-002	9.72050E-002	5.22117E-004	...........
	30	8.00833	9.72215E-002	9.71943E-002	5.27417E-004	...........
	31	8.26667	9.72132E-002	9.71858E-002	5.24083E-004	...........
	32	8.525	9.72046E-002	9.71800E-002	5.25950E-004	...........
	33	8.78333	9.71959E-002	9.71673E-002	5.21483E-004	...........
	34	9.04167	9.71873E-002	9.71617E-002	5.23383E-004	...........
	35	9.3	9.71787E-002	9.71560E-002	5.24317E-004	...........
	36	9.5583	9.71705E-002	9.71488E-002	5.22317E-004	...........
	37	9.8167	9.71629E-002	9.71376E-002	5.18250E-004	...........
	38	10.075	9.71554E-002	9.71301E-002	5.21083E-004	...........
EOC	QUANT	0.0971554	Open Circuit (V)
PSTATMODEL	IQUANT	4	Pstat Model
PSTATSECTION	LABEL	REF600-11020	Pstat Section
PSTATSERIALNO	LABEL	11020	Pstat Serial Number
CTRLMODE	IQUANT	1	Control Mode
IESTAB	IQUANT	0	I/E Stability
CASPEED	IQUANT	1	Control Amp Speed
CONVENTION	IQUANT	1	Current Convention
ICHRANGE	IQUANT	2	Ich Range
ICHRANGEMODE	TOGGLE	F	Ich Auto Range
ICHOFFSETENABLE	TOGGLE	T	Ich Offset Enable
ICHOFFSET	QUANT	0	Ich Offset (V)
ICHFILTER	IQUANT	3	Ich Filter
VCHRANGE	IQUANT	2	Vch Range
VCHRANGEMODE	TOGGLE	F	Vch Auto Range
VCHOFFSETENABLE	TOGGLE	T	Vch Offset Enable
VCHOFFSET	QUANT	0	Vch Offset (V)
VCHFILTER	IQUANT	3	Vch Filter
ACHRANGE	IQUANT	2	Ach Range
ACHOFFSETENABLE	TOGGLE	F	Ach Offset Enable
ACHOFFSET	QUANT	0	Ach Offset (V)
ACHFILTER	IQUANT	3	Ach Filter
IERANGELOWERLIMIT	IQUANT	1	I/E Range Lower Limit
IERANGEMODE	TOGGLE	F	I/E AutoRange
IERANGE	IQUANT	8	I/E Range
POSFEEDENABLE	TOGGLE	F	Positive Feedback IR Comp
POSFEEDRESISTANCE	QUANT	0	Positive Feedback Resistance (ohm)
ACHSELECT	IQUANT	0	Ach Select
CABLEID	IQUANT	14	Cable ID
DCCALDATE	LABEL	6/26/2020	DC Calibration Date
ACCALDATE	LABEL	6/26/2020	AC Calibration Date
THERMOSELECT	IQUANT	1	Thermo Select
FRAMEWORKVERSION	QUANT	6.33	Framework Version
INSTRUMENTVERSION	LABEL	3.50	Instrument Version
ZCURVE	TABLE
	Pt	Time	Freq	Zreal	Zimag	Zsig	Zmod	Zphz	Idc	Vdc	IERange
	#	s	Hz	ohm	ohm	V	ohm	°	A	V	#
	0	1	1000078	1424.274	-2154.726	1	2582.905	-56.5353	1.321929E-007	0.0998086	8
	1	2	794390.6	1652.269	-2463.255	1	2966.078	-56.1476	1.105597E-007	0.0994349	8
	2	2	630984.4	1900.259	-2819.108	1	3399.758	-56.01751	5.515259E-008	0.0992671	8
	3	2	501234.4	2173.421	-3239.99	1	3901.448	-56.14586	7.261335E-008	0.0991164	8
	4	3	398109.4	2483.621	-3734.109	1	4484.634	-56.37144	5.851719E-008	0.0990654	8
	5	3	316265.6	2829.358	-4327.071	1	5169.992	-56.82038	2.343814E-008	0.0990217	8
	6	3	251203.1	3241.235	-5017.373	1	5973.243	-57.13744	1.91733E-007	0.0990001	8
	7	4	199546.9	3727.625	-5829.099	1	6919.074	-57.40166	1.120272E-007	0.0990198	8
	8	4	158578.1	4288.775	-6802.142	1	8041.314	-57.76842	6.170868E-008	0.0989893	8
	9	4	125953.1	5046.663	-7909.961	1	9382.766	-57.46157	3.355374E-008	0.0989261	7
	10	5	100078.1	5838.305	-9229.742	1	10921.26	-57.68446	2.123363E-008	0.0989541	7
	11	5	79453.13	6763.643	-10750.57	1	12701.24	-57.82425	2.28476E-008	0.0989513	7
	12	5	63140.62	7840.987	-12517.55	1	14770.58	-57.937	1.810461E-008	0.098938	7
	13	5	50203.12	9109.831	-14538.29	1	17156.65	-57.92834	2.290199E-008	0.0989488	7
	14	6	39890.62	10626.79	-16886.74	1	19952.21	-57.81789	1.306283E-008	0.0989719	7
	15	6	31640.63	12397.34	-19625.8	1	23213.49	-57.71997	2.083795E-008	0.0989564	7
	16	6	25171.88	14502.09	-22736.89	1	26968.07	-57.46937	1.264028E-008	0.0989683	7
	17	7	20015.62	16921.21	-26401.54	1	31358.71	-57.34348	-1.927489E-009	0.0989488	7
	18	7	15890.62	19918.74	-30388.76	1	36335.01	-56.75659	-5.646746E-009	0.098984	7
	19	7	12609.37	23758.52	-34953.47	1	42263.61	-55.79533	-2.800609E-009	0.0989943	6
	20	8	10078.13	27587.51	-40025.1	1	48611.52	-55.42324	-3.053304E-009	0.0990069	6
	21	8	8015.625	32117.93	-45879.77	1	56004.59	-55.00622	4.242303E-009	0.0989191	6
	22	8	6328.125	37517.06	-52734.88	1	64718.6	-54.5709	-2.111473E-009	0.0989758	6
	23	9	5015.625	43594.61	-60298.54	1	74407.02	-54.13384	-2.540707E-009	0.0990033	6
	24	9	3984.375	50425.55	-68919.61	1	85397.01	-53.80865	6.599661E-010	0.0989169	6
	25	9	3170.956	58300.41	-78527.96	1	97803.8	-53.40922	4.163747E-010	0.0989869	6
	26	10	2527.573	67164.22	-89510.73	1	111907.1	-53.11734	3.890724E-010	0.0989874	6
	27	10	1976.103	78243.63	-103450.4	1	129707.6	-52.89834	4.286348E-009	0.0989164	6
	28	10	1577.524	90098.05	-118157.4	1	148589.5	-52.67355	-2.246124E-009	0.0989692	6
	29	11	1265.625	106623.9	-132983.1	1	170449.9	-51.27788	1.709562E-010	0.0989873	5
	30	11	998.264	124684.4	-153212	1	197535.1	-50.86118	1.807871E-010	0.0989925	5
	31	11	796.875	146111.9	-174319.6	1	227455.5	-50.03079	7.845555E-010	0.0989211	5
	32	12	627.7902	174260.6	-198433.2	1	264088	-48.71096	7.669177E-010	0.0988926	5
	33	12	505.5147	205452.5	-220059.9	1	301060	-46.96613	7.927559E-010	0.098906	5
	34	12	397.9953	246786.6	-242005.1	1	345644.5	-44.43953	4.937712E-010	0.0989589	5
	35	12	315.5048	292992.5	-259455.8	1	391359.1	-41.52609	4.734164E-010	0.0989602	5
	36	13	252.4038	341407.7	-270384.1	1	435507.6	-38.37811	3.880185E-010	0.0989566	5
	37	13	198.6229	395147	-275211.2	1	481541.6	-34.85637	4.199533E-010	0.0989562	5
	38	13	158.3615	444307.3	-272842.5	1	521394.3	-31.55346	3.761402E-010	0.0989553	5
	39	14	125.558	491868.2	-265650.6	1	559021.1	-28.37282	3.635578E-010	0.0989579	5
	40	14	100.4464	533153.6	-256264.9	1	591544.1	-25.67167	3.339064E-010	0.0989484	5
	41	14	79.00281	573730.1	-245192.2	1	623927.4	-23.14017	3.757977E-010	0.0989519	5
	42	15	63.3446	609195.2	-232915.5	1	652202.8	-20.92352	2.843681E-010	0.0989455	5
	43	15	49.86702	641621.6	-223414.8	1	679406	-19.19829	2.688011E-010	0.0989442	5
	44	16	39.72458	668157.9	-213576.4	1	701462.7	-17.72646	5.675171E-010	0.0989521	5
	45	16	31.6723	696442.8	-207134.1	1	726592.8	-16.56339	5.546995E-010	0.0989517	5
	46	17	24.93351	721686.7	-202003.8	1	749424.6	-15.6372	1.138678E-010	0.098951	5
	47	17	19.86229	742134.3	-201273.9	1	768943.8	-15.17415	-2.235729E-010	0.0989505	5
	48	17	15.83615	763003.1	-201656.7	1	789201.6	-14.80439	5.338698E-010	0.0989506	5
	49	17	12.40079	784468.2	-208413.7	1	811681.4	-14.87837	6.994605E-011	0.098956	5
	50	18	9.93114	802341.3	-217461.5	1	831288.8	-15.16476	7.174056E-010	0.0989479	5
	51	18	7.944915	829365.8	-232006.3	1	861205.3	-15.6284	3.422406E-010	0.0989547	5
	52	19	6.317385	853244.4	-250511.7	1	889259.3	-16.36218	1.627899E-010	0.0989501	5
	53	20	5.008013	880025.4	-273798.1	1	921634.4	-17.28224	7.665258E-011	0.0989464	4
	54	21	3.945707	910297.9	-303632.8	1	959602	-18.44629	1.799644E-010	0.0989524	4
	55	22	3.158693	940819.2	-336943.9	1	999336	-19.70442	-5.376283E-011	0.0989529	4
	56	24	2.504006	974687	-380220.1	1	1046223	-21.31048	-8.388526E-011	0.0989385	4
	57	25	1.998082	1009759	-426665.8	1	1096202	-22.9061	2.186679E-010	0.0989798	4
	58	27	1.584686	1053586	-489235	1	1161634	-24.90791	1.557353E-010	0.0989617	4
	59	29	1.266892	1098967	-555714.5	1	1231482	-26.82435	7.223518E-011	0.098918	4
	60	31	0.999041	1164768	-637659.1	1	1327891	-28.69875	2.984082E-013	0.0989018	4
