EXPLAIN
TAG	EISPOT
TITLE	LABEL	Potentiostatic EIS	Test &Identifier
DATE	LABEL	2/25/2020	Date
TIME	LABEL	14:16:05	Time
NOTES	NOTES	1	&Notes...
	
PSTAT	PSTAT	REF600-11020	Potentiostat
VDC	POTEN	0.00000E+000	T	DC &Voltage (V)
FREQINIT	QUANT	1.00000E+006	Initial Fre&q. (Hz)
FREQFINAL	QUANT	1.00000E+000	Final Fre&q. (Hz)
PTSPERDEC	QUANT	1.00000E+001	Points/&decade
VAC	QUANT	2.50000E+001	AC &Voltage (mV rms)
AREA	QUANT	1.60000E-004	&Area (cm^2)
CONDIT	TWOPARAM	F	1.50000E+001	0.00000E+000	Conditionin&g	Time(s)	E(V)
DELAY	TWOPARAM	F	1.00000E+002	0.00000E+000	Init. De&lay	Time(s)	Stab.(mV/s)
SPEED	SELECTOR	1	&Optimize for:
ZGUESS	QUANT	1.00000E+003	E&stimated Z (ohms)
OCVCURVE	TABLE	39
	Pt	T	Vf	Vm	Ach	Over
	#	s	V vs. Ref.	V	V	bits
	0	0.258333	8.89998E-003	8.89998E-003	5.73838E-004	...........
	1	0.516667	8.89783E-003	8.78773E-003	5.69604E-004	...........
	2	0.775	8.88427E-003	8.66080E-003	5.72804E-004	...........
	3	1.03333	8.84409E-003	8.51148E-003	5.70804E-004	...........
	4	1.29167	8.76945E-003	8.47730E-003	5.70004E-004	...........
	5	1.55	8.67411E-003	8.54656E-003	5.71938E-004	...........
	6	1.80833	8.58782E-003	8.43793E-003	5.67404E-004	...........
	7	2.06667	8.52832E-003	8.39994E-003	5.75371E-004	...........
	8	2.325	8.48648E-003	8.33217E-003	5.70904E-004	...........
	9	2.58333	8.44376E-003	8.22808E-003	5.66538E-004	...........
	10	2.84167	8.38919E-003	8.14304E-003	5.62271E-004	...........
	11	3.1	8.32076E-003	8.10047E-003	5.67471E-004	...........
	12	3.35833	8.24481E-003	8.04165E-003	5.67271E-004	...........
	13	3.61667	8.17156E-003	8.00033E-003	5.64604E-004	...........
	14	3.875	8.10709E-003	7.94565E-003	5.63504E-004	...........
	15	4.13333	8.05062E-003	7.87927E-003	5.64171E-004	...........
	16	4.39167	7.99787E-003	7.84746E-003	5.64638E-004	...........
	17	4.65	7.94579E-003	7.78264E-003	5.69871E-004	...........
	18	4.90833	7.89383E-003	7.72931E-003	5.65204E-004	...........
	19	5.16667	7.84161E-003	7.67806E-003	5.67704E-004	...........
	20	5.425	7.78862E-003	7.62551E-003	5.65571E-004	...........
	21	5.68333	7.73539E-003	7.57863E-003	5.67371E-004	...........
	22	5.94167	7.68284E-003	7.52394E-003	5.70938E-004	...........
	23	6.2	7.63131E-003	7.47934E-003	5.69638E-004	...........
	24	6.45833	7.58069E-003	7.42837E-003	5.71271E-004	...........
	25	6.71667	7.53061E-003	7.36704E-003	5.69604E-004	...........
	26	6.975	7.48007E-003	7.31893E-003	5.71971E-004	...........
	27	7.23333	7.42868E-003	7.28935E-003	5.69504E-004	...........
	28	7.49167	7.37828E-003	7.24024E-003	5.66638E-004	...........
	29	7.75	7.33129E-003	7.20795E-003	5.65871E-004	...........
	30	8.00833	7.28783E-003	7.15117E-003	5.67071E-004	...........
	31	8.26667	7.24565E-003	7.10410E-003	5.69604E-004	...........
	32	8.525	7.20268E-003	7.08632E-003	5.72771E-004	...........
	33	8.78333	7.16033E-003	7.07176E-003	5.67338E-004	...........
	34	9.04167	7.12288E-003	7.03601E-003	5.65204E-004	...........
	35	9.3	7.09175E-003	6.99442E-003	5.70404E-004	...........
	36	9.5583	7.06318E-003	6.96134E-003	5.71004E-004	...........
	37	9.8167	7.03262E-003	6.91902E-003	5.70604E-004	...........
	38	10.075	6.99876E-003	6.89199E-003	5.72004E-004	...........
EOC	QUANT	0.0069988	Open Circuit (V)
PSTATMODEL	IQUANT	4	Pstat Model
PSTATSECTION	LABEL	REF600-11020	Pstat Section
PSTATSERIALNO	LABEL	11020	Pstat Serial Number
CTRLMODE	IQUANT	1	Control Mode
IESTAB	IQUANT	0	I/E Stability
CASPEED	IQUANT	1	Control Amp Speed
CONVENTION	IQUANT	1	Current Convention
ICHRANGE	IQUANT	2	Ich Range
ICHRANGEMODE	TOGGLE	F	Ich Auto Range
ICHOFFSETENABLE	TOGGLE	T	Ich Offset Enable
ICHOFFSET	QUANT	0	Ich Offset (V)
ICHFILTER	IQUANT	3	Ich Filter
VCHRANGE	IQUANT	2	Vch Range
VCHRANGEMODE	TOGGLE	F	Vch Auto Range
VCHOFFSETENABLE	TOGGLE	T	Vch Offset Enable
VCHOFFSET	QUANT	0	Vch Offset (V)
VCHFILTER	IQUANT	3	Vch Filter
ACHRANGE	IQUANT	2	Ach Range
ACHOFFSETENABLE	TOGGLE	F	Ach Offset Enable
ACHOFFSET	QUANT	0	Ach Offset (V)
ACHFILTER	IQUANT	3	Ach Filter
IERANGELOWERLIMIT	IQUANT	1	I/E Range Lower Limit
IERANGEMODE	TOGGLE	F	I/E AutoRange
IERANGE	IQUANT	7	I/E Range
POSFEEDENABLE	TOGGLE	F	Positive Feedback IR Comp
POSFEEDRESISTANCE	QUANT	0	Positive Feedback Resistance (ohm)
ACHSELECT	IQUANT	0	Ach Select
CABLEID	IQUANT	14	Cable ID
DCCALDATE	LABEL	1/27/2020	DC Calibration Date
ACCALDATE	LABEL	1/27/2020	AC Calibration Date
THERMOSELECT	IQUANT	1	Thermo Select
FRAMEWORKVERSION	QUANT	6.33	Framework Version
INSTRUMENTVERSION	LABEL	3.50	Instrument Version
ZCURVE	TABLE
	Pt	Time	Freq	Zreal	Zimag	Zsig	Zmod	Zphz	Idc	Vdc	IERange
	#	s	Hz	ohm	ohm	V	ohm	°	A	V	#
	0	1	1000078	1740.72	-2106.658	1	2732.785	-50.43325	1.666297E-006	0.0087893	8
	1	2	794390.6	2150.727	-2255.955	1	3116.883	-46.36792	5.947249E-007	0.0087947	8
	2	4	630984.4	2601.547	-2356.493	1	3510.144	-42.17043	-1.495177E-007	0.0088805	8
	3	5	501234.4	3086.712	-2379.939	1	3897.679	-37.6332	1.55473E-006	0.0084112	8
	4	7	398109.4	3548.32	-2340.01	1	4250.438	-33.40364	8.570276E-007	0.0084597	8
	5	8	316265.6	3971.282	-2231.785	1	4555.43	-29.33516	1.090107E-006	0.0084217	8
	6	9	251203.1	4353.404	-2086.391	1	4827.541	-25.60631	-1.17731E-006	0.0088388	8
	7	11	199546.9	4681.588	-1923.957	1	5061.509	-22.34083	-1.14898E-007	0.0086291	8
	8	12	158578.1	4924.722	-1754.402	1	5227.888	-19.60813	-1.650074E-006	0.0089755	8
	9	13	125953.1	5180.557	-1577.792	1	5415.496	-16.93866	4.907958E-007	0.0075015	7
	10	15	100078.1	5370.123	-1453.149	1	5563.26	-15.14155	2.25132E-008	0.0084695	7
	11	16	79453.13	5527.356	-1353.937	1	5690.766	-13.76371	-9.667729E-009	0.0085298	7
	12	17	63140.62	5666.068	-1282.163	1	5809.326	-12.7506	-1.377456E-008	0.0085336	7
	13	19	50203.12	5791.895	-1234.358	1	5921.966	-12.03078	-1.535288E-008	0.0085376	7
	14	20	39890.62	5910.952	-1216.164	1	6034.766	-11.62623	1.187876E-009	0.0085422	7
	15	21	31640.63	6030.025	-1222.174	1	6152.635	-11.45758	2.298993E-008	0.008455	7
	16	23	25171.88	6147.979	-1255.083	1	6274.781	-11.53814	1.30911E-008	0.0084731	7
	17	24	20015.62	6270.634	-1314.875	1	6407.007	-11.84264	4.443426E-008	0.0084946	7
	18	25	15890.62	6400.425	-1403.223	1	6552.44	-12.36582	-7.621107E-009	0.008509	7
	19	27	12609.37	6540.288	-1522.341	1	6715.124	-13.10306	2.645431E-009	0.0085355	7
	20	28	10078.13	6688.992	-1663	1	6892.618	-13.96166	2.3638E-008	0.0084456	7
	21	29	8015.625	6856.476	-1843.662	1	7100.024	-15.05047	-1.000331E-008	0.0084976	7
	22	31	6328.125	7048.488	-2071.7	1	7346.641	-16.37918	2.77999E-009	0.0084699	7
	23	32	5015.625	7258.366	-2337.498	1	7625.469	-17.85073	-1.799581E-008	0.0085509	7
	24	34	3984.375	7492.183	-2648.059	1	7946.384	-19.4656	-9.248061E-009	0.0085005	7
	25	35	3170.956	7754.081	-3011.151	1	8318.222	-21.22274	-1.464581E-008	0.0085152	7
	26	36	2527.573	8049.96	-3439.102	1	8753.815	-23.13313	-1.386823E-008	0.0085247	7
	27	38	1976.103	8420.008	-3982.374	1	9314.281	-25.31254	-2.380388E-009	0.0085567	6
	28	39	1577.524	8803.782	-4567.792	1	9918.23	-27.42229	-3.69085E-009	0.0085437	6
	29	40	1265.625	9227.291	-5237.27	1	10609.99	-29.57858	-6.007602E-010	0.0084588	6
	30	42	998.264	9745.41	-6077.629	1	11485.23	-31.94934	1.657301E-009	0.0085167	6
	31	43	796.875	10316.92	-7007.963	1	12471.98	-34.18705	-4.979108E-010	0.0084508	6
	32	44	627.7902	11000.62	-8164.524	1	13699.38	-36.58235	4.611193E-009	0.0084817	6
	33	46	505.5147	11709.72	-9390.921	1	15010.23	-38.72879	-2.46657E-009	0.0085366	6
	34	47	397.9953	12599.8	-10970.07	1	16706.21	-41.0446	7.665147E-010	0.0085173	6
	35	49	315.5048	13582.18	-12778.01	1	18648.14	-43.25261	1.52582E-009	0.008514	6
	36	50	252.4038	14644.53	-14821.92	1	20836.3	-45.34492	5.833184E-010	0.0085128	6
	37	51	198.6229	15930.81	-17419.79	1	23605.93	-47.55635	1.125378E-009	0.0085144	6
	38	53	158.3615	17299.4	-20347.44	1	26707.44	-49.6288	6.071795E-010	0.0085119	6
	39	54	125.558	18865.75	-23918.14	1	30462.99	-51.73493	1.004401E-009	0.0085148	6
	40	55	100.4464	20535.37	-28033.63	1	34750.34	-53.77625	4.042469E-010	0.008514	6
	41	57	79.00281	22537.47	-33419.47	1	40308.79	-56.00501	6.811797E-010	0.0085104	6
	42	58	63.3446	24600.68	-39728.34	1	46728.3	-58.23328	9.198026E-010	0.0085146	6
	43	60	49.86702	27400.13	-47166.45	1	54547.61	-59.84666	1.045288E-009	0.0085056	6
	44	61	39.72458	30564.01	-56601.61	1	64326.52	-61.63163	1.075372E-009	0.0085207	6
	45	62	31.6723	34183.54	-67677.87	1	75820.89	-63.20203	1.084341E-009	0.008513	6
	46	64	24.93351	39203.47	-82260.16	1	91124.34	-64.51851	6.889249E-010	0.0085118	6
	47	65	19.86229	45160.13	-98873.9	1	108699	-65.45169	7.743557E-011	0.0085108	5
	48	66	15.83615	53511.41	-119167	1	130630.2	-65.81775	1.521942E-009	0.0085102	5
	49	68	12.40079	63321.84	-144625.5	1	157880.3	-66.3546	2.552155E-010	0.0085062	5
	50	69	9.93114	76462.99	-171892.2	1	188131.6	-66.01901	2.949044E-010	0.0085081	5
	51	71	7.944915	92364.23	-203370.9	1	223362.6	-65.57404	-2.684735E-010	0.0085153	5
	52	72	6.317385	113816.2	-240703.3	1	266255.9	-64.69295	-2.106022E-010	0.0085144	5
	53	74	5.008013	140613.6	-283885.7	1	316801.6	-63.64997	-1.317853E-010	0.0085079	5
	54	77	3.945707	174597.8	-333334	1	376292.3	-62.3548	3.175584E-010	0.0085156	5
	55	80	3.158693	212373.9	-384511.2	1	439262.6	-61.08717	-3.183155E-011	0.0084982	5
	56	83	2.504006	258725.8	-443557.6	1	513500.2	-59.74511	4.937274E-010	0.008518	5
	57	86	1.998082	310320.5	-506552.3	1	594048.9	-58.50782	3.448093E-010	0.0085379	5
	58	89	1.584686	371064.9	-576367.8	1	685484.5	-57.22661	2.312636E-010	0.0084729	5
	59	92	1.266892	436251.4	-654539.5	1	786598.6	-56.31649	3.461619E-010	0.008532	5
	60	97	0.999041	515279.9	-744645.1	1	905543.9	-55.31752	-2.274386E-011	0.0084735	5
