EXPLAIN
TAG	EISPOT
TITLE	LABEL	Potentiostatic EIS	Test &Identifier
DATE	LABEL	3/20/2020	Date
TIME	LABEL	14:33:27	Time
NOTES	NOTES	1	&Notes...
	
PSTAT	PSTAT	REF600-11020	Potentiostat
VDC	POTEN	0.00000E+000	T	DC &Voltage (V)
FREQINIT	QUANT	1.00000E+006	Initial Fre&q. (Hz)
FREQFINAL	QUANT	1.00000E+000	Final Fre&q. (Hz)
PTSPERDEC	QUANT	1.00000E+001	Points/&decade
VAC	QUANT	2.50000E+001	AC &Voltage (mV rms)
AREA	QUANT	4.00000E-004	&Area (cm^2)
CONDIT	TWOPARAM	F	5.00000E+000	0.00000E+000	Conditionin&g	Time(s)	E(V)
DELAY	TWOPARAM	T	3.00000E+000	0.00000E+000	Init. De&lay	Time(s)	Stab.(mV/s)
SPEED	SELECTOR	0	&Optimize for:
ZGUESS	QUANT	1.00000E+003	E&stimated Z (ohms)
OCVCURVE	TABLE	12
	Pt	T	Vf	Vm	Ach	Over
	#	s	V vs. Ref.	V	V	bits
	0	0.258333	1.96217E-002	1.96217E-002	5.80663E-004	...........
	1	0.516667	1.96213E-002	1.96020E-002	5.80663E-004	...........
	2	0.775	1.96190E-002	1.95837E-002	5.80630E-004	...........
	3	1.03333	1.96126E-002	1.95724E-002	5.84663E-004	...........
	4	1.29167	1.96018E-002	1.95631E-002	5.80697E-004	...........
	5	1.55	1.95888E-002	1.95564E-002	5.81530E-004	...........
	6	1.80833	1.95763E-002	1.95486E-002	5.80197E-004	...........
	7	2.06667	1.95659E-002	1.95475E-002	5.78597E-004	...........
	8	2.325	1.95577E-002	1.95452E-002	5.78630E-004	...........
	9	2.58333	1.95520E-002	1.95466E-002	5.79963E-004	...........
	10	2.84167	1.95485E-002	1.95487E-002	5.80497E-004	...........
	11	3.1	1.95469E-002	1.95442E-002	5.79197E-004	...........
EOC	QUANT	0.0195469	Open Circuit (V)
PSTATMODEL	IQUANT	4	Pstat Model
PSTATSECTION	LABEL	REF600-11020	Pstat Section
PSTATSERIALNO	LABEL	11020	Pstat Serial Number
CTRLMODE	IQUANT	1	Control Mode
IESTAB	IQUANT	0	I/E Stability
CASPEED	IQUANT	1	Control Amp Speed
CONVENTION	IQUANT	1	Current Convention
ICHRANGE	IQUANT	2	Ich Range
ICHRANGEMODE	TOGGLE	F	Ich Auto Range
ICHOFFSETENABLE	TOGGLE	T	Ich Offset Enable
ICHOFFSET	QUANT	0	Ich Offset (V)
ICHFILTER	IQUANT	3	Ich Filter
VCHRANGE	IQUANT	2	Vch Range
VCHRANGEMODE	TOGGLE	F	Vch Auto Range
VCHOFFSETENABLE	TOGGLE	T	Vch Offset Enable
VCHOFFSET	QUANT	0	Vch Offset (V)
VCHFILTER	IQUANT	3	Vch Filter
ACHRANGE	IQUANT	2	Ach Range
ACHOFFSETENABLE	TOGGLE	F	Ach Offset Enable
ACHOFFSET	QUANT	0	Ach Offset (V)
ACHFILTER	IQUANT	3	Ach Filter
IERANGELOWERLIMIT	IQUANT	1	I/E Range Lower Limit
IERANGEMODE	TOGGLE	F	I/E AutoRange
IERANGE	IQUANT	7	I/E Range
POSFEEDENABLE	TOGGLE	F	Positive Feedback IR Comp
POSFEEDRESISTANCE	QUANT	0	Positive Feedback Resistance (ohm)
ACHSELECT	IQUANT	0	Ach Select
CABLEID	IQUANT	14	Cable ID
DCCALDATE	LABEL	2/27/2020	DC Calibration Date
ACCALDATE	LABEL	2/27/2020	AC Calibration Date
THERMOSELECT	IQUANT	1	Thermo Select
FRAMEWORKVERSION	QUANT	6.33	Framework Version
INSTRUMENTVERSION	LABEL	3.50	Instrument Version
ZCURVE	TABLE
	Pt	Time	Freq	Zreal	Zimag	Zsig	Zmod	Zphz	Idc	Vdc	IERange
	#	s	Hz	ohm	ohm	V	ohm	°	A	V	#
	0	1	1000078	1859.445	-1629.036	1	2472.103	-41.22119	-1.086986E-008	0.0218383	8
	1	2	794390.6	2186.961	-1664.45	1	2748.307	-37.27401	2.502392E-007	0.0214974	8
	2	2	630984.4	2516.864	-1647.506	1	3008.136	-33.20824	-1.091115E-007	0.0213791	8
	3	2	501234.4	2826.528	-1585.586	1	3240.886	-29.29095	3.097722E-007	0.0212483	8
	4	3	398109.4	3108.391	-1484.037	1	3444.482	-25.52118	-2.382252E-007	0.0213031	8
	5	3	316265.6	3347.728	-1369.189	1	3616.899	-22.2441	-1.253985E-007	0.0212436	8
	6	3	251203.1	3549.681	-1242.214	1	3760.762	-19.28753	1.853E-007	0.021171	8
	7	4	199546.9	3713.128	-1123.514	1	3879.382	-16.8347	1.820082E-007	0.0211727	8
	8	4	158578.1	3847.575	-1017.159	1	3979.755	-14.80816	-3.235743E-007	0.0212398	8
	9	4	125953.1	3985.236	-869.2344	1	4078.931	-12.30429	1.400892E-007	0.0208547	7
	10	5	100078.1	4062.418	-803.4949	1	4141.116	-11.18798	2.596623E-009	0.0211208	7
	11	5	79453.13	4141.703	-764.6053	1	4211.689	-10.45968	3.120076E-009	0.0211162	7
	12	5	63140.62	4215.2	-741.3433	1	4279.895	-9.97482	6.237707E-009	0.0211002	7
	13	5	50203.12	4286.12	-734.1993	1	4348.548	-9.72025	5.906435E-009	0.0210987	7
	14	6	39890.62	4356.633	-742.6693	1	4419.48	-9.67414	-1.021048E-009	0.021118	7
	15	6	31640.63	4429.287	-767.9679	1	4495.37	-9.83639	3.617112E-009	0.0210948	7
	16	6	25171.88	4505.38	-808.9649	1	4577.431	-10.17929	2.99516E-009	0.021113	7
	17	7	20015.62	4586.564	-866.0115	1	4667.606	-10.69241	1.729028E-010	0.0211114	7
	18	7	15890.62	4675.406	-941.1538	1	4769.192	-11.38147	-8.39729E-010	0.0211173	7
	19	7	12609.37	4772.978	-1035.067	1	4883.92	-12.23569	2.554465E-009	0.0211106	7
	20	8	10078.13	4876.996	-1145.063	1	5009.616	-13.21308	2.557629E-009	0.0211194	7
	21	8	8015.625	4994.729	-1278.924	1	5155.868	-14.36228	8.43813E-009	0.0210916	7
	22	8	6328.125	5130.941	-1443.719	1	5330.186	-15.71528	3.776598E-009	0.0211024	7
	23	9	5015.625	5281.976	-1636.322	1	5529.63	-17.21264	-2.014801E-009	0.0211134	7
	24	9	3984.375	5449.201	-1858.034	1	5757.264	-18.82803	5.864394E-009	0.0210906	7
	25	9	3170.956	5636.913	-2115.64	1	6020.857	-20.57207	-3.58221E-009	0.0211079	7
	26	10	2527.573	5845.32	-2415.111	1	6324.597	-22.44895	3.615767E-009	0.0211086	7
	27	10	1976.103	6101.271	-2791.751	1	6709.649	-24.58735	6.392708E-009	0.0210878	7
	28	10	1577.524	6365.062	-3198.952	1	7123.714	-26.68319	-3.012004E-009	0.0211021	7
	29	11	1265.625	6657.262	-3665.498	1	7599.672	-28.83724	3.727035E-009	0.0210825	7
	30	11	998.264	7007.579	-4258.101	1	8199.853	-31.28464	1.198782E-008	0.0210724	7
	31	11	796.875	7389.19	-4917.538	1	8875.939	-33.64394	7.010293E-009	0.0210822	7
	32	12	627.7902	7854.41	-5743.525	1	9730.36	-36.17608	1.878186E-010	0.0211329	6
	33	12	505.5147	8330.438	-6637.092	1	10651.16	-38.54531	-4.596515E-011	0.0211445	6
	34	12	397.9953	8934.129	-7797.78	1	11858.5	-41.11472	6.158586E-010	0.0211653	6
	35	12	315.5048	9617.91	-9140.36	1	13268.4	-43.54168	5.299575E-010	0.0211628	6
	36	13	252.4038	10380.35	-10665.57	1	14883.08	-45.77645	6.38959E-010	0.0211622	6
	37	13	198.6229	11338.85	-12605.06	1	16954.56	-48.02713	5.942428E-010	0.0211619	6
	38	13	158.3615	12401.97	-14773.65	1	19289.11	-49.9877	5.216342E-010	0.0211604	6
	39	14	125.558	13679.2	-17391.75	1	22126.76	-51.81375	5.833624E-010	0.0211638	6
	40	14	100.4464	15109.82	-20346.8	1	25343.62	-53.40191	3.948584E-010	0.0211561	6
	41	14	79.00281	16893.67	-24092.77	1	29425.46	-54.96216	4.425705E-010	0.0211514	6
	42	15	63.3446	18765.76	-28148.8	1	33830.59	-56.31008	3.36822E-010	0.0211542	6
	43	15	49.86702	21088.37	-33363.08	1	39469.16	-57.70355	5.286434E-010	0.0211533	6
	44	16	39.72458	23607.62	-39304.39	1	45849.27	-59.00947	6.362668E-010	0.0211564	6
	45	16	31.6723	26471.77	-46399.91	1	53420.09	-60.29466	5.647374E-010	0.0211516	6
	46	16	24.93351	29986.38	-55461.87	1	63049.21	-61.6014	7.043492E-010	0.0211476	6
	47	16	19.86229	33884.84	-65890.54	1	74092.82	-62.78507	1.625128E-009	0.021159	6
	48	17	15.83615	38634.17	-78512.2	1	87502.94	-63.79919	-2.319055E-010	0.0211538	6
	49	17	12.40079	44886.43	-94859.11	1	104943	-64.67693	1.049539E-010	0.0211565	5
	50	17	9.93114	51994.43	-112870.4	1	124270.4	-65.26655	-1.080722E-012	0.0211627	5
	51	18	7.944915	60844.12	-134287.8	1	147428.7	-65.62532	-7.479187E-010	0.0211608	5
	52	18	6.317385	72401.58	-160534	1	176105.6	-65.72441	3.415888E-010	0.0211464	5
	53	19	5.008013	87308.91	-192012.9	1	210930.8	-65.54855	4.975828E-010	0.0211569	5
	54	20	3.945707	106824.6	-229578.2	1	253214.6	-65.04707	1.311606E-011	0.0211518	5
	55	21	3.158693	130059.5	-270426.8	1	300076.9	-64.31516	3.541782E-010	0.0211554	5
	56	22	2.504006	159949.6	-318632.9	1	356526	-63.34394	2.050168E-010	0.0211631	5
	57	23	1.998082	195988.1	-371813.7	1	420305.5	-62.20567	1.168489E-011	0.0211127	5
	58	25	1.584686	240496.7	-431775.7	1	494235.7	-60.88243	8.271536E-011	0.0211518	5
	59	27	1.266892	294061.2	-496191.2	1	576782.2	-59.34745	1.518733E-010	0.0211765	5
	60	29	0.999041	361101.7	-571768.3	1	676249.5	-57.72544	1.930319E-010	0.0211821	5
