EXPLAIN
TAG	EISPOT
TITLE	LABEL	Potentiostatic EIS	Test &Identifier
DATE	LABEL	2/11/2020	Date
TIME	LABEL	12:45:38	Time
NOTES	NOTES	6	&Notes...
	
	
	
	
	
	
PSTAT	PSTAT	REF600-11020	Potentiostat
VDC	POTEN	0.00000E+000	T	DC &Voltage (V)
FREQINIT	QUANT	1.00000E+006	Initial Fre&q. (Hz)
FREQFINAL	QUANT	1.00000E+000	Final Fre&q. (Hz)
PTSPERDEC	QUANT	1.00000E+001	Points/&decade
VAC	QUANT	2.50000E+001	AC &Voltage (mV rms)
AREA	QUANT	4.00000E-005	&Area (cm^2)
CONDIT	TWOPARAM	F	5.00000E+000	0.00000E+000	Conditionin&g	Time(s)	E(V)
DELAY	TWOPARAM	F	5.00000E+000	0.00000E+000	Init. De&lay	Time(s)	Stab.(mV/s)
SPEED	SELECTOR	0	&Optimize for:
ZGUESS	QUANT	1.00000E+003	E&stimated Z (ohms)
OCVCURVE	TABLE	39
	Pt	T	Vf	Vm	Ach	Over
	#	s	V vs. Ref.	V	V	bits
	0	0.258333	-3.42529E-002	-3.42529E-002	5.63638E-004	...........
	1	0.516667	-3.42502E-002	-3.41108E-002	5.69571E-004	...........
	2	0.775	-3.42350E-002	-3.40546E-002	5.57671E-004	...........
	3	1.03333	-3.41952E-002	-3.39029E-002	5.54271E-004	...........
	4	1.29167	-3.41287E-002	-3.39262E-002	5.64138E-004	...........
	5	1.55	-3.40505E-002	-3.39401E-002	5.67504E-004	...........
	6	1.80833	-3.39854E-002	-3.39656E-002	5.56338E-004	...........
	7	2.06667	-3.39506E-002	-3.39669E-002	5.57038E-004	...........
	8	2.325	-3.39428E-002	-3.39256E-002	5.68371E-004	...........
	9	2.58333	-3.39453E-002	-3.39048E-002	5.63504E-004	...........
	10	2.84167	-3.39426E-002	-3.38873E-002	5.46205E-004	...........
	11	3.1	-3.39299E-002	-3.38707E-002	5.51604E-004	...........
	12	3.35833	-3.39115E-002	-3.38711E-002	5.64238E-004	...........
	13	3.61667	-3.38936E-002	-3.38630E-002	5.71271E-004	...........
	14	3.875	-3.38796E-002	-3.38486E-002	5.51571E-004	...........
	15	4.13333	-3.38692E-002	-3.38415E-002	5.51705E-004	...........
	16	4.39167	-3.38602E-002	-3.38367E-002	5.64504E-004	...........
	17	4.65	-3.38518E-002	-3.38336E-002	5.69138E-004	...........
	18	4.90833	-3.38446E-002	-3.38388E-002	5.55238E-004	...........
	19	5.16667	-3.38395E-002	-3.38355E-002	5.58704E-004	...........
	20	5.425	-3.38365E-002	-3.38075E-002	5.68571E-004	...........
	21	5.68333	-3.38327E-002	-3.38021E-002	5.64438E-004	...........
	22	5.94167	-3.38255E-002	-3.37928E-002	5.57138E-004	...........
	23	6.2	-3.38157E-002	-3.38062E-002	5.63071E-004	...........
	24	6.45833	-3.38069E-002	-3.37934E-002	5.63904E-004	...........
	25	6.71667	-3.38012E-002	-3.37886E-002	5.54871E-004	...........
	26	6.975	-3.37977E-002	-3.37930E-002	5.56371E-004	...........
	27	7.23333	-3.37953E-002	-3.38088E-002	5.64604E-004	...........
	28	7.49167	-3.37951E-002	-3.38132E-002	5.67938E-004	...........
	29	7.75	-3.37982E-002	-3.38100E-002	5.56738E-004	...........
	30	8.00833	-3.38028E-002	-3.37843E-002	5.50905E-004	...........
	31	8.26667	-3.38042E-002	-3.37616E-002	5.70338E-004	...........
	32	8.525	-3.37986E-002	-3.37711E-002	5.67538E-004	...........
	33	8.78333	-3.37878E-002	-3.37601E-002	5.50005E-004	...........
	34	9.04167	-3.37767E-002	-3.37624E-002	5.51905E-004	...........
	35	9.3	-3.37688E-002	-3.37658E-002	5.62138E-004	...........
	36	9.5583	-3.37646E-002	-3.37565E-002	5.65504E-004	...........
	37	9.8167	-3.37622E-002	-3.37404E-002	5.52604E-004	...........
	38	10.075	-3.37593E-002	-3.37501E-002	5.47671E-004	...........
EOC	QUANT	-0.0337593	Open Circuit (V)
PSTATMODEL	IQUANT	4	Pstat Model
PSTATSECTION	LABEL	REF600-11020	Pstat Section
PSTATSERIALNO	LABEL	11020	Pstat Serial Number
CTRLMODE	IQUANT	1	Control Mode
IESTAB	IQUANT	0	I/E Stability
CASPEED	IQUANT	1	Control Amp Speed
CONVENTION	IQUANT	1	Current Convention
ICHRANGE	IQUANT	2	Ich Range
ICHRANGEMODE	TOGGLE	F	Ich Auto Range
ICHOFFSETENABLE	TOGGLE	T	Ich Offset Enable
ICHOFFSET	QUANT	0	Ich Offset (V)
ICHFILTER	IQUANT	3	Ich Filter
VCHRANGE	IQUANT	2	Vch Range
VCHRANGEMODE	TOGGLE	F	Vch Auto Range
VCHOFFSETENABLE	TOGGLE	T	Vch Offset Enable
VCHOFFSET	QUANT	0	Vch Offset (V)
VCHFILTER	IQUANT	3	Vch Filter
ACHRANGE	IQUANT	2	Ach Range
ACHOFFSETENABLE	TOGGLE	F	Ach Offset Enable
ACHOFFSET	QUANT	0	Ach Offset (V)
ACHFILTER	IQUANT	3	Ach Filter
IERANGELOWERLIMIT	IQUANT	1	I/E Range Lower Limit
IERANGEMODE	TOGGLE	F	I/E AutoRange
IERANGE	IQUANT	7	I/E Range
POSFEEDENABLE	TOGGLE	F	Positive Feedback IR Comp
POSFEEDRESISTANCE	QUANT	0	Positive Feedback Resistance (ohm)
ACHSELECT	IQUANT	0	Ach Select
CABLEID	IQUANT	14	Cable ID
DCCALDATE	LABEL	1/27/2020	DC Calibration Date
ACCALDATE	LABEL	1/27/2020	AC Calibration Date
THERMOSELECT	IQUANT	1	Thermo Select
FRAMEWORKVERSION	QUANT	6.33	Framework Version
INSTRUMENTVERSION	LABEL	3.50	Instrument Version
ZCURVE	TABLE
	Pt	Time	Freq	Zreal	Zimag	Zsig	Zmod	Zphz	Idc	Vdc	IERange
	#	s	Hz	ohm	ohm	V	ohm	°	A	V	#
	0	1	1000078	2303.558	-2016.713	1	3061.618	-41.20141	-3.023867E-006	-0.0303041	8
	1	1	794390.6	2697.364	-2083.456	1	3408.308	-37.68265	5.7101E-006	-0.032705	8
	2	2	630984.4	3092.963	-2085.032	1	3730.117	-33.98475	-5.25535E-007	-0.0321958	8
	3	2	501234.4	3479.039	-2041.028	1	4033.548	-30.39863	4.009904E-006	-0.0327982	8
	4	2	398109.4	3848.698	-1956.201	1	4317.313	-26.94315	3.412399E-006	-0.0328201	8
	5	2	316265.6	4169.232	-1862.553	1	4566.355	-24.07211	3.444997E-006	-0.0328167	8
	6	3	251203.1	4472.752	-1716.991	1	4790.988	-21.00069	-1.327697E-006	-0.0317671	8
	7	3	199546.9	4731.022	-1589.264	1	4990.825	-18.56844	-7.970334E-007	-0.0319581	8
	8	3	158578.1	4959.519	-1407.743	1	5155.44	-15.84641	1.86556E-006	-0.032522	8
	9	4	125953.1	5173.947	-1221.302	1	5316.137	-13.28146	1.459858E-009	-0.0321776	7
	10	4	100078.1	5328.196	-1101.219	1	5440.804	-11.67734	7.662839E-008	-0.0323255	7
	11	4	79453.13	5453.626	-987.951	1	5542.39	-10.26805	-3.268181E-008	-0.0321882	7
	12	5	63140.62	5557.41	-888.4916	1	5627.985	-9.083301	-2.038169E-008	-0.0321548	7
	13	5	50203.12	5641.48	-806.1246	1	5698.784	-8.132082	-3.282871E-008	-0.0320863	7
	14	5	39890.62	5713.61	-741.6153	1	5761.539	-7.395532	1.230832E-007	-0.0323827	7
	15	6	31640.63	5776.362	-697.6753	1	5818.343	-6.886887	3.524308E-008	-0.0322477	7
	16	6	25171.88	5829.834	-674.5856	1	5868.734	-6.600492	-3.112378E-008	-0.0320937	7
	17	6	20015.62	5880.03	-668.6152	1	5917.922	-6.48721	-3.179108E-008	-0.0322038	7
	18	7	15890.62	5925.183	-684.3406	1	5964.572	-6.588297	-1.932062E-008	-0.0321683	7
	19	7	12609.37	5971.453	-720.8794	1	6014.808	-6.883491	6.723486E-008	-0.0322429	7
	20	8	10078.13	6016.896	-776.9924	1	6066.857	-7.358174	-3.831077E-008	-0.0321701	7
	21	8	8015.625	6066.539	-862.3581	1	6127.524	-8.090389	1.245546E-007	-0.0323941	7
	22	8	6328.125	6117.514	-979.814	1	6195.483	-9.099513	1.248357E-007	-0.0323983	7
	23	8	5015.625	6172.249	-1129.754	1	6274.791	-10.37247	2.20265E-008	-0.0323032	7
	24	9	3984.375	6238.259	-1326.762	1	6377.788	-12.00685	-4.762718E-008	-0.0321291	7
	25	9	3170.956	6307.82	-1560.84	1	6498.062	-13.8984	4.365322E-008	-0.0323601	7
	26	9	2527.573	6390.123	-1853.42	1	6653.482	-16.17451	7.738033E-008	-0.0323796	7
	27	10	1976.103	6493.792	-2249.676	1	6872.436	-19.10787	3.578869E-008	-0.0322613	7
	28	10	1577.524	6604.83	-2693.051	1	7132.762	-22.18267	-2.923625E-008	-0.0322245	7
	29	10	1265.625	6733.617	-3236.312	1	7470.965	-25.66987	-4.394268E-009	-0.0321183	7
	30	11	998.264	6899.726	-3940.414	1	7945.633	-29.73056	-2.667789E-008	-0.0322201	7
	31	11	796.875	7092.752	-4757.409	1	8540.496	-33.85143	2.155505E-008	-0.0323005	7
	32	11	627.7902	7338.253	-5825.428	1	9369.396	-38.44409	7.886618E-008	-0.0323852	7
	33	12	505.5147	7617.678	-7005.692	1	10349.33	-42.60358	2.53151E-009	-0.0323288	6
	34	12	397.9953	7984.703	-8595.405	1	11731.86	-47.10945	3.20811E-010	-0.0322135	6
	35	12	315.5048	8430.065	-10493.09	1	13459.98	-51.22189	1.476434E-009	-0.032217	6
	36	13	252.4038	8961.275	-12715.46	1	15555.94	-54.82556	1.388884E-009	-0.0322224	6
	37	13	198.6229	9682.22	-15628.24	1	18384.43	-58.22039	8.649896E-010	-0.0322217	6
	38	13	158.3615	10546.2	-18989.35	1	21721.37	-60.95333	4.118387E-010	-0.0322206	6
	39	14	125.558	11688.33	-23186.37	1	25965.84	-63.24717	6.96197E-010	-0.0322188	6
	40	14	100.4464	13073.85	-28014.66	1	30915.15	-64.98253	1.116615E-009	-0.0322273	6
	41	14	79.00281	15100.53	-34331.66	1	37505.85	-66.25806	1.14973E-009	-0.0322232	6
	42	15	63.3446	17114.37	-41790.88	1	45159.48	-67.72973	1.184519E-010	-0.0322239	6
	43	15	49.86702	20429.02	-50739.5	1	54697.73	-68.06902	8.339325E-010	-0.0322242	6
	44	15	39.72458	24717.16	-60884.12	1	65710.08	-67.9043	5.272527E-010	-0.0322193	6
	45	16	31.6723	30032.93	-72790.1	1	78742.47	-67.57913	5.684246E-011	-0.0322258	6
	46	16	24.93351	36789.19	-87996.91	1	95377.7	-67.31148	1.117822E-009	-0.0322233	6
	47	16	19.86229	45263.18	-104596.8	1	113970.4	-66.59996	1.541669E-009	-0.0322211	5
	48	17	15.83615	56173.52	-123507.8	1	135682.2	-65.54313	-7.62752E-010	-0.0322311	5
	49	17	12.40079	71181.01	-146963.7	1	163294.4	-64.15704	1.719411E-009	-0.0322268	5
	50	17	9.93114	89114.73	-171880.2	1	193608.4	-62.59461	3.755196E-011	-0.0322298	5
	51	18	7.944915	109896.2	-198770.8	1	227127.7	-61.06271	-1.024034E-009	-0.0322249	5
	52	18	6.317385	136577.5	-228140.4	1	265897.4	-59.09293	-8.146424E-010	-0.0322126	5
	53	19	5.008013	168786.8	-259633.5	1	309674.9	-56.97225	-2.6378E-010	-0.0322341	5
	54	20	3.945707	206935	-292168.7	1	358028.9	-54.69112	1.428074E-011	-0.0322348	5
	55	22	3.158693	246240.8	-324502.1	1	407352.6	-52.80781	2.921464E-010	-0.0322269	5
	56	23	2.504006	290614.1	-357642.2	1	460830.3	-50.90327	3.201473E-011	-0.0322254	5
	57	25	1.998082	335850.3	-392540	1	516607.3	-49.45029	-1.799752E-010	-0.0322659	5
	58	26	1.584686	382104.6	-429958.2	1	575211.2	-48.37245	7.111364E-013	-0.0322209	5
	59	28	1.266892	429458.1	-471644.8	1	637873.8	-47.68044	1.091485E-010	-0.032198	5
	60	31	0.999041	479585.3	-525301.9	1	711297.4	-47.60484	1.771096E-010	-0.0321952	5
