EXPLAIN
TAG	EISPOT
TITLE	LABEL	Potentiostatic EIS	Test &Identifier
DATE	LABEL	9/11/2020	Date
TIME	LABEL	19:43:22	Time
NOTES	NOTES	1	&Notes...
	
PSTAT	PSTAT	REF600-11020	Potentiostat
VDC	POTEN	0.00000E+000	T	DC &Voltage (V)
FREQINIT	QUANT	1.00000E+006	Initial Fre&q. (Hz)
FREQFINAL	QUANT	1.00000E+000	Final Fre&q. (Hz)
PTSPERDEC	QUANT	1.00000E+001	Points/&decade
VAC	QUANT	2.50000E+001	AC &Voltage (mV rms)
AREA	QUANT	4.00000E-005	&Area (cm^2)
CONDIT	TWOPARAM	F	5.00000E+000	0.00000E+000	Conditionin&g	Time(s)	E(V)
DELAY	TWOPARAM	F	3.00000E+000	0.00000E+000	Init. De&lay	Time(s)	Stab.(mV/s)
SPEED	SELECTOR	0	&Optimize for:
ZGUESS	QUANT	1.00000E+003	E&stimated Z (ohms)
OCVCURVE	TABLE	39
	Pt	T	Vf	Vm	Ach	Over
	#	s	V vs. Ref.	V	V	bits
	0	0.258333	-2.34508E-001	-2.34508E-001	5.58659E-004	...........
	1	0.516667	-2.34508E-001	-2.34507E-001	5.60725E-004	...........
	2	0.775	-2.34508E-001	-2.34513E-001	5.57959E-004	...........
	3	1.03333	-2.34508E-001	-2.34514E-001	5.60892E-004	...........
	4	1.29167	-2.34509E-001	-2.34511E-001	5.63092E-004	...........
	5	1.55	-2.34511E-001	-2.34512E-001	5.59225E-004	...........
	6	1.80833	-2.34512E-001	-2.34512E-001	5.56592E-004	...........
	7	2.06667	-2.34512E-001	-2.34515E-001	5.54925E-004	...........
	8	2.325	-2.34513E-001	-2.34515E-001	5.59592E-004	...........
	9	2.58333	-2.34513E-001	-2.34519E-001	5.56525E-004	...........
	10	2.84167	-2.34514E-001	-2.34526E-001	5.51192E-004	...........
	11	3.1	-2.34517E-001	-2.34526E-001	5.55692E-004	...........
	12	3.35833	-2.34520E-001	-2.34528E-001	5.55092E-004	...........
	13	3.61667	-2.34523E-001	-2.34530E-001	5.58425E-004	...........
	14	3.875	-2.34526E-001	-2.34532E-001	5.55192E-004	...........
	15	4.13333	-2.34528E-001	-2.34534E-001	5.56492E-004	...........
	16	4.39167	-2.34530E-001	-2.34537E-001	5.58825E-004	...........
	17	4.65	-2.34532E-001	-2.34544E-001	5.59559E-004	...........
	18	4.90833	-2.34535E-001	-2.34548E-001	5.59025E-004	...........
	19	5.16667	-2.34539E-001	-2.34554E-001	5.57825E-004	...........
	20	5.425	-2.34543E-001	-2.34536E-001	5.60659E-004	...........
	21	5.68333	-2.34545E-001	-2.34523E-001	5.57725E-004	...........
	22	5.94167	-2.34544E-001	-2.34548E-001	5.50959E-004	...........
	23	6.2	-2.34541E-001	-2.34558E-001	5.52159E-004	...........
	24	6.45833	-2.34540E-001	-2.34561E-001	5.57125E-004	...........
	25	6.71667	-2.34545E-001	-2.34559E-001	5.56725E-004	...........
	26	6.975	-2.34551E-001	-2.34560E-001	5.52059E-004	...........
	27	7.23333	-2.34556E-001	-2.34559E-001	5.50725E-004	...........
	28	7.49167	-2.34559E-001	-2.34553E-001	5.56559E-004	...........
	29	7.75	-2.34559E-001	-2.34553E-001	5.54459E-004	...........
	30	8.00833	-2.34557E-001	-2.34550E-001	5.49359E-004	...........
	31	8.26667	-2.34555E-001	-2.34550E-001	5.58659E-004	...........
	32	8.525	-2.34553E-001	-2.34548E-001	5.56959E-004	...........
	33	8.78333	-2.34551E-001	-2.34547E-001	5.53192E-004	...........
	34	9.04167	-2.34550E-001	-2.34543E-001	5.57125E-004	...........
	35	9.3	-2.34548E-001	-2.34543E-001	5.58925E-004	...........
	36	9.5583	-2.34546E-001	-2.34542E-001	5.57859E-004	...........
	37	9.8167	-2.34545E-001	-2.34544E-001	5.56692E-004	...........
	38	10.075	-2.34544E-001	-2.34548E-001	5.55325E-004	...........
EOC	QUANT	-0.2345437	Open Circuit (V)
PSTATMODEL	IQUANT	4	Pstat Model
PSTATSECTION	LABEL	REF600-11020	Pstat Section
PSTATSERIALNO	LABEL	11020	Pstat Serial Number
CTRLMODE	IQUANT	1	Control Mode
IESTAB	IQUANT	0	I/E Stability
CASPEED	IQUANT	1	Control Amp Speed
CONVENTION	IQUANT	1	Current Convention
ICHRANGE	IQUANT	2	Ich Range
ICHRANGEMODE	TOGGLE	F	Ich Auto Range
ICHOFFSETENABLE	TOGGLE	T	Ich Offset Enable
ICHOFFSET	QUANT	0	Ich Offset (V)
ICHFILTER	IQUANT	3	Ich Filter
VCHRANGE	IQUANT	2	Vch Range
VCHRANGEMODE	TOGGLE	F	Vch Auto Range
VCHOFFSETENABLE	TOGGLE	T	Vch Offset Enable
VCHOFFSET	QUANT	0	Vch Offset (V)
VCHFILTER	IQUANT	3	Vch Filter
ACHRANGE	IQUANT	2	Ach Range
ACHOFFSETENABLE	TOGGLE	F	Ach Offset Enable
ACHOFFSET	QUANT	0	Ach Offset (V)
ACHFILTER	IQUANT	3	Ach Filter
IERANGELOWERLIMIT	IQUANT	1	I/E Range Lower Limit
IERANGEMODE	TOGGLE	F	I/E AutoRange
IERANGE	IQUANT	8	I/E Range
POSFEEDENABLE	TOGGLE	F	Positive Feedback IR Comp
POSFEEDRESISTANCE	QUANT	0	Positive Feedback Resistance (ohm)
ACHSELECT	IQUANT	0	Ach Select
CABLEID	IQUANT	14	Cable ID
DCCALDATE	LABEL	9/1/2020	DC Calibration Date
ACCALDATE	LABEL	9/1/2020	AC Calibration Date
THERMOSELECT	IQUANT	1	Thermo Select
FRAMEWORKVERSION	QUANT	6.33	Framework Version
INSTRUMENTVERSION	LABEL	3.50	Instrument Version
ZCURVE	TABLE
	Pt	Time	Freq	Zreal	Zimag	Zsig	Zmod	Zphz	Idc	Vdc	IERange
	#	s	Hz	ohm	ohm	V	ohm	°	A	V	#
	0	1	1000078	1894.31	-2179.427	1	2887.614	-49.00356	5.388526E-008	-0.2324051	8
	1	1	794390.6	2200.987	-2386.112	1	3246.209	-47.31107	7.208007E-008	-0.2327017	8
	2	1	630984.4	2525.188	-2605.578	1	3628.445	-45.89765	7.163174E-008	-0.232814	8
	3	2	501234.4	2859.721	-2841.875	1	4031.656	-44.82066	5.627643E-008	-0.2329191	8
	4	2	398109.4	3217.091	-3106.723	1	4472.292	-44.00014	1.039227E-007	-0.2329373	8
	5	2	316265.6	3590.841	-3419.287	1	4958.394	-43.59812	6.904367E-008	-0.2329775	8
	6	3	251203.1	4006.625	-3770.176	1	5501.569	-43.25849	5.315236E-008	-0.232981	8
	7	3	199546.9	4447.645	-4188.326	1	6109.306	-43.28005	1.052655E-007	-0.2329728	8
	8	3	158578.1	4957.025	-4682.017	1	6818.605	-43.36575	7.616643E-008	-0.2329899	8
	9	4	125953.1	5593.391	-5207.584	1	7642.313	-42.95429	2.92328E-009	-0.2330101	7
	10	4	100078.1	6244.487	-5827.706	1	8541.415	-43.02271	7.784182E-010	-0.2330119	7
	11	4	79453.13	6988.428	-6548.746	1	9577.28	-43.13971	4.534079E-009	-0.2330122	7
	12	4	63140.62	7840.26	-7328.381	1	10731.95	-43.06724	3.615997E-009	-0.233023	7
	13	5	50203.12	8801.383	-8160.145	1	12002.18	-42.83494	1.797622E-009	-0.233024	7
	14	5	39890.62	9899.38	-9099.12	1	13445.88	-42.58801	4.766149E-009	-0.2330235	7
	15	5	31640.63	11144.21	-10102.89	1	15042.01	-42.19418	4.712864E-009	-0.2330287	7
	16	6	25171.88	12519.28	-11156.65	1	16769.12	-41.70607	1.905285E-009	-0.2330299	7
	17	6	20015.62	14061.76	-12309.23	1	18688.23	-41.1979	2.953246E-009	-0.2330318	7
	18	6	15890.62	15802.97	-13564.23	1	20826	-40.64062	5.923487E-009	-0.2330301	7
	19	7	12609.37	17961.01	-14713.24	1	23218.04	-39.32353	6.557069E-010	-0.2330434	6
	20	7	10078.13	19986.87	-16006.52	1	25606.31	-38.68956	6.589889E-010	-0.2330348	6
	21	7	8015.625	22207.62	-17382.78	1	28201.76	-38.05169	1.324079E-009	-0.2330352	6
	22	8	6328.125	24639.06	-18853.64	1	31024.87	-37.42297	1.062477E-009	-0.233039	6
	23	8	5015.625	27173.29	-20484.32	1	34029.32	-37.01046	1.27219E-009	-0.2330376	6
	24	8	3984.375	29862.34	-22277.94	1	37256.76	-36.72372	1.085139E-009	-0.2330408	6
	25	9	3170.956	32751.9	-24295.94	1	40779.65	-36.56868	6.399235E-010	-0.2330464	6
	26	9	2527.573	35906.43	-26576.6	1	44671.99	-36.50747	1.353922E-009	-0.2330385	6
	27	9	1976.103	39821	-29361.19	1	49475.16	-36.40245	4.716201E-010	-0.2330489	6
	28	10	1577.524	43892.24	-32170.63	1	54419.46	-36.23939	1.113892E-009	-0.2330446	6
	29	10	1265.625	48418.02	-35024.84	1	59758.21	-35.88139	1.312354E-009	-0.2330422	6
	30	10	998.264	53885.86	-38172.87	1	66036.77	-35.31385	1.227158E-009	-0.2330468	6
	31	11	796.875	59661.2	-41098.98	1	72447.12	-34.5619	6.64776E-010	-0.2330469	6
	32	11	627.7902	66249.17	-44123.29	1	79597.85	-33.66442	9.915203E-010	-0.2330466	6
	33	11	505.5147	72627.84	-46717.3	1	86355.72	-32.75084	5.714845E-010	-0.2330548	6
	34	11	397.9953	80016.5	-49518.68	1	94099.63	-31.75153	7.630934E-010	-0.2330324	6
	35	12	315.5048	88077.91	-51884.34	1	102223.8	-30.5012	3.762567E-010	-0.2330401	5
	36	12	252.4038	95397	-54224.44	1	109731	-29.61425	3.657578E-010	-0.2330412	5
	37	12	198.6229	103755.3	-56940.14	1	118352.7	-28.75764	2.931973E-010	-0.2330416	5
	38	13	158.3615	112019.8	-59704.97	1	126937.5	-28.05698	2.725319E-010	-0.2330468	5
	39	13	125.558	120521.1	-62408.14	1	135720.7	-27.37598	2.310614E-010	-0.2330451	5
	40	13	100.4464	128755.7	-65156.39	1	144303.1	-26.84155	-1.515083E-012	-0.2330464	5
	41	14	79.00281	137734.8	-68498.24	1	153827.5	-26.44207	2.3779E-010	-0.2330486	5
	42	14	63.3446	145235.8	-71786.05	1	162008.2	-26.30192	2.324931E-010	-0.2330503	5
	43	14	49.86702	154108.6	-76695.06	1	172138.3	-26.4581	2.66033E-010	-0.2330528	5
	44	15	39.72458	162317.5	-82502.48	1	182081.4	-26.94324	2.737289E-010	-0.2330533	5
	45	15	31.6723	170973	-89848.44	1	193143.7	-27.72249	2.078416E-011	-0.2330571	5
	46	15	24.93351	180364.3	-99382	1	205932.1	-28.85507	8.715171E-010	-0.233054	5
	47	16	19.86229	191013.4	-111029.9	1	220938.4	-30.16804	1.976214E-009	-0.2330478	5
	48	16	15.83615	204617.6	-124711	1	239627.2	-31.3616	-1.058664E-009	-0.2330518	5
	49	16	12.40079	219494.3	-141127.8	1	260949.9	-32.73972	-5.410149E-010	-0.2330446	5
	50	17	9.93114	236885.3	-158314	1	284917.5	-33.75541	-1.010538E-009	-0.2330402	5
	51	17	7.944915	255246	-177938.5	1	311147.3	-34.88134	-2.176175E-010	-0.2330502	5
	52	17	6.317385	276012.7	-199606.3	1	340625.4	-35.87362	-2.910911E-010	-0.2330442	5
	53	18	5.008013	301023.4	-224597.8	1	375578.5	-36.72714	-5.502686E-010	-0.2330587	5
	54	19	3.945707	328775.3	-251648.3	1	414029	-37.43085	-1.096235E-010	-0.2330488	5
	55	20	3.158693	357484.2	-280970.5	1	454686.1	-38.16615	-2.846287E-010	-0.2330656	5
	56	21	2.504006	389347.1	-314309	1	500381.2	-38.91297	1.023174E-010	-0.2330612	5
	57	22	1.998082	422812.2	-353109.5	1	550868.9	-39.86678	2.110839E-010	-0.2330419	5
	58	24	1.584686	459786.7	-397813.5	1	607996.3	-40.86679	2.469358E-011	-0.2330892	5
	59	26	1.266892	500198.7	-450232.3	1	672984.3	-41.9906	-2.728663E-011	-0.2331019	5
	60	28	0.999041	548801.1	-516961.9	1	753944.4	-43.28882	-5.597373E-011	-0.2330943	5
