EXPLAIN
TAG	EISPOT
TITLE	LABEL	Potentiostatic EIS	Test &Identifier
DATE	LABEL	9/11/2020	Date
TIME	LABEL	20:09:39	Time
NOTES	NOTES	1	&Notes...
	
PSTAT	PSTAT	REF600-11020	Potentiostat
VDC	POTEN	0.00000E+000	T	DC &Voltage (V)
FREQINIT	QUANT	1.00000E+006	Initial Fre&q. (Hz)
FREQFINAL	QUANT	1.00000E+000	Final Fre&q. (Hz)
PTSPERDEC	QUANT	1.00000E+001	Points/&decade
VAC	QUANT	2.50000E+001	AC &Voltage (mV rms)
AREA	QUANT	4.00000E-005	&Area (cm^2)
CONDIT	TWOPARAM	F	5.00000E+000	0.00000E+000	Conditionin&g	Time(s)	E(V)
DELAY	TWOPARAM	F	3.00000E+000	0.00000E+000	Init. De&lay	Time(s)	Stab.(mV/s)
SPEED	SELECTOR	0	&Optimize for:
ZGUESS	QUANT	1.00000E+003	E&stimated Z (ohms)
OCVCURVE	TABLE	39
	Pt	T	Vf	Vm	Ach	Over
	#	s	V vs. Ref.	V	V	bits
	0	0.258333	-1.08645E-001	-1.08645E-001	5.56792E-004	...........
	1	0.516667	-1.08645E-001	-1.08647E-001	5.59859E-004	...........
	2	0.775	-1.08646E-001	-1.08646E-001	5.58892E-004	...........
	3	1.03333	-1.08646E-001	-1.08647E-001	5.61225E-004	...........
	4	1.29167	-1.08646E-001	-1.08649E-001	5.61125E-004	...........
	5	1.55	-1.08647E-001	-1.08650E-001	5.57725E-004	...........
	6	1.80833	-1.08648E-001	-1.08649E-001	5.59392E-004	...........
	7	2.06667	-1.08648E-001	-1.08651E-001	5.58659E-004	...........
	8	2.325	-1.08649E-001	-1.08651E-001	5.54792E-004	...........
	9	2.58333	-1.08650E-001	-1.08651E-001	5.53392E-004	...........
	10	2.84167	-1.08650E-001	-1.08650E-001	5.52659E-004	...........
	11	3.1	-1.08651E-001	-1.08653E-001	5.53725E-004	...........
	12	3.35833	-1.08651E-001	-1.08654E-001	5.56292E-004	...........
	13	3.61667	-1.08652E-001	-1.08654E-001	5.52492E-004	...........
	14	3.875	-1.08653E-001	-1.08654E-001	5.53259E-004	...........
	15	4.13333	-1.08653E-001	-1.08656E-001	5.56025E-004	...........
	16	4.39167	-1.08654E-001	-1.08657E-001	5.59125E-004	...........
	17	4.65	-1.08655E-001	-1.08659E-001	5.57125E-004	...........
	18	4.90833	-1.08656E-001	-1.08660E-001	5.57659E-004	...........
	19	5.16667	-1.08657E-001	-1.08661E-001	5.58759E-004	...........
	20	5.425	-1.08658E-001	-1.08665E-001	5.54559E-004	...........
	21	5.68333	-1.08660E-001	-1.08667E-001	5.59492E-004	...........
	22	5.94167	-1.08662E-001	-1.08665E-001	5.57392E-004	...........
	23	6.2	-1.08664E-001	-1.08671E-001	5.55659E-004	...........
	24	6.45833	-1.08666E-001	-1.08671E-001	5.50592E-004	...........
	25	6.71667	-1.08668E-001	-1.08673E-001	5.47792E-004	...........
	26	6.975	-1.08669E-001	-1.08673E-001	5.51459E-004	...........
	27	7.23333	-1.08671E-001	-1.08675E-001	5.46925E-004	...........
	28	7.49167	-1.08672E-001	-1.08679E-001	5.45525E-004	...........
	29	7.75	-1.08674E-001	-1.08681E-001	5.42925E-004	...........
	30	8.00833	-1.08676E-001	-1.08682E-001	5.49059E-004	...........
	31	8.26667	-1.08678E-001	-1.08682E-001	5.50125E-004	...........
	32	8.525	-1.08680E-001	-1.08684E-001	5.48792E-004	...........
	33	8.78333	-1.08681E-001	-1.08686E-001	5.54559E-004	...........
	34	9.04167	-1.08682E-001	-1.08686E-001	5.50125E-004	...........
	35	9.3	-1.08684E-001	-1.08689E-001	5.57325E-004	...........
	36	9.5583	-1.08685E-001	-1.08690E-001	5.58159E-004	...........
	37	9.8167	-1.08687E-001	-1.08693E-001	5.52759E-004	...........
	38	10.075	-1.08689E-001	-1.08691E-001	5.57759E-004	...........
EOC	QUANT	-0.1086885	Open Circuit (V)
PSTATMODEL	IQUANT	4	Pstat Model
PSTATSECTION	LABEL	REF600-11020	Pstat Section
PSTATSERIALNO	LABEL	11020	Pstat Serial Number
CTRLMODE	IQUANT	1	Control Mode
IESTAB	IQUANT	0	I/E Stability
CASPEED	IQUANT	1	Control Amp Speed
CONVENTION	IQUANT	1	Current Convention
ICHRANGE	IQUANT	2	Ich Range
ICHRANGEMODE	TOGGLE	F	Ich Auto Range
ICHOFFSETENABLE	TOGGLE	T	Ich Offset Enable
ICHOFFSET	QUANT	0	Ich Offset (V)
ICHFILTER	IQUANT	3	Ich Filter
VCHRANGE	IQUANT	2	Vch Range
VCHRANGEMODE	TOGGLE	F	Vch Auto Range
VCHOFFSETENABLE	TOGGLE	T	Vch Offset Enable
VCHOFFSET	QUANT	0	Vch Offset (V)
VCHFILTER	IQUANT	3	Vch Filter
ACHRANGE	IQUANT	2	Ach Range
ACHOFFSETENABLE	TOGGLE	F	Ach Offset Enable
ACHOFFSET	QUANT	0	Ach Offset (V)
ACHFILTER	IQUANT	3	Ach Filter
IERANGELOWERLIMIT	IQUANT	1	I/E Range Lower Limit
IERANGEMODE	TOGGLE	F	I/E AutoRange
IERANGE	IQUANT	8	I/E Range
POSFEEDENABLE	TOGGLE	F	Positive Feedback IR Comp
POSFEEDRESISTANCE	QUANT	0	Positive Feedback Resistance (ohm)
ACHSELECT	IQUANT	0	Ach Select
CABLEID	IQUANT	14	Cable ID
DCCALDATE	LABEL	9/1/2020	DC Calibration Date
ACCALDATE	LABEL	9/1/2020	AC Calibration Date
THERMOSELECT	IQUANT	1	Thermo Select
FRAMEWORKVERSION	QUANT	6.33	Framework Version
INSTRUMENTVERSION	LABEL	3.50	Instrument Version
ZCURVE	TABLE
	Pt	Time	Freq	Zreal	Zimag	Zsig	Zmod	Zphz	Idc	Vdc	IERange
	#	s	Hz	ohm	ohm	V	ohm	°	A	V	#
	0	1	1000078	1618.185	-2394.257	1	2889.808	-55.94677	3.609184E-008	-0.1065334	8
	1	1	794390.6	1955.753	-2693.049	1	3328.285	-54.01199	6.394916E-008	-0.1068924	8
	2	2	630984.4	2332.484	-3000.27	1	3800.276	-52.13762	4.377623E-008	-0.1070507	8
	3	2	501234.4	2736.571	-3312.012	1	4296.306	-50.43456	8.400904E-008	-0.1070972	8
	4	2	398109.4	3160.011	-3656.038	1	4832.42	-49.16227	2.621887E-008	-0.1071955	8
	5	3	316265.6	3595.049	-4022.343	1	5394.777	-48.21061	7.300699E-008	-0.1072045	8
	6	3	251203.1	4062.68	-4454.411	1	6028.859	-47.63338	7.674052E-008	-0.1072222	8
	7	3	199546.9	4542.2	-4935.523	1	6707.531	-47.3764	8.73328E-008	-0.1072552	8
	8	4	158578.1	5043.574	-5546.554	1	7496.793	-47.71923	4.891337E-008	-0.1072391	8
	9	4	125953.1	5645.479	-6260.104	1	8429.729	-47.95527	3.845391E-009	-0.1072387	7
	10	4	100078.1	6252.024	-7107.399	1	9465.882	-48.66352	9.823585E-010	-0.1072429	7
	11	4	79453.13	6943.161	-8176.173	1	10726.48	-49.66227	8.50464E-010	-0.1072582	7
	12	5	63140.62	7738.586	-9451.781	1	12215.64	-50.69131	3.302985E-009	-0.1072634	7
	13	5	50203.12	8697.105	-10946.93	1	13981.24	-51.53361	5.649556E-010	-0.1072602	7
	14	5	39890.62	9852.87	-12748.5	1	16112.21	-52.30083	4.735674E-009	-0.1072604	7
	15	6	31640.63	11329.76	-14842.58	1	18672.59	-52.64448	1.605091E-009	-0.1072704	7
	16	6	25171.88	13116.34	-17196.39	1	21627.63	-52.66586	3.638013E-009	-0.1072585	7
	17	6	20015.62	15385.29	-19820.17	1	25090.76	-52.1798	2.732437E-009	-0.1072594	7
	18	7	15890.62	18200.8	-22706.88	1	29101.05	-51.28592	5.335343E-010	-0.1072698	7
	19	7	12609.37	21909.87	-25789.64	1	33840.03	-49.65008	9.358977E-010	-0.1072685	6
	20	7	10078.13	25914.29	-28741.19	1	38698.92	-47.96082	1.372671E-009	-0.107268	6
	21	8	8015.625	30675.24	-31649.71	1	44075.78	-45.89577	8.682339E-010	-0.1072683	6
	22	8	6328.125	36226.26	-34397.06	1	49954.98	-43.51632	1.319542E-009	-0.1072706	6
	23	8	5015.625	42216.31	-36712	1	55946.29	-41.01076	1.17468E-009	-0.107271	6
	24	9	3984.375	48481.71	-38528.76	1	61926.91	-38.47441	9.452733E-010	-0.1072696	6
	25	9	3170.956	54860.17	-39781.31	1	67765.71	-35.94738	1.302107E-009	-0.1072794	6
	26	9	2527.573	61274.88	-40820.39	1	73626.86	-33.67094	5.863278E-010	-0.1072771	6
	27	10	1976.103	68238.25	-41740.4	1	79992	-31.45355	1.47574E-009	-0.1072762	6
	28	10	1577.524	74364.88	-42031.62	1	85421.27	-29.47548	8.830098E-010	-0.107279	6
	29	10	1265.625	80330.3	-42744.37	1	90994.71	-28.01779	1.419765E-009	-0.107282	6
	30	10	998.264	87607.69	-42045.59	1	97174.8	-25.63777	4.15043E-010	-0.1072923	5
	31	11	796.875	93329.07	-42906.78	1	102719.6	-24.68997	4.423203E-010	-0.1072957	5
	32	11	627.7902	99360.3	-44077.47	1	108698.1	-23.92268	3.988974E-010	-0.1072946	5
	33	11	505.5147	105026.4	-45515.89	1	114465	-23.43073	3.113955E-010	-0.107291	5
	34	12	397.9953	110798	-47084.77	1	120387.6	-23.02357	4.648514E-010	-0.1072784	5
	35	12	315.5048	116586.7	-49018.09	1	126472.3	-22.80398	4.862329E-010	-0.107283	5
	36	12	252.4038	122584.5	-51573.77	1	132991.8	-22.81746	4.162916E-010	-0.107282	5
	37	13	198.6229	129045.5	-54717.8	1	140166.9	-22.97789	3.696505E-010	-0.1072832	5
	38	13	158.3615	135606.5	-58520.84	1	147695	-23.34256	3.895704E-010	-0.1072875	5
	39	13	125.558	142839.1	-63377.87	1	156268.2	-23.92692	4.730156E-010	-0.1072869	5
	40	14	100.4464	149293.5	-68312.1	1	164180	-24.58738	3.660203E-010	-0.1072897	5
	41	14	79.00281	156581	-74937.17	1	173589.1	-25.57504	2.766711E-010	-0.1072918	5
	42	14	63.3446	164150.6	-82775.7	1	183840.3	-26.76029	2.450556E-010	-0.1072953	5
	43	15	49.86702	172913.6	-93189.91	1	196426.8	-28.32196	3.431844E-010	-0.1072942	5
	44	15	39.72458	182198.3	-105004.9	1	210290.8	-29.95579	3.806079E-010	-0.1072908	5
	45	15	31.6723	193018.3	-119330.7	1	226927	-31.7258	3.390325E-010	-0.1072926	5
	46	16	24.93351	207170	-137494.7	1	248644.7	-33.57145	4.13125E-010	-0.1072926	5
	47	16	19.86229	222265.3	-157551.3	1	272441.3	-35.33067	6.916351E-010	-0.1072884	5
	48	16	15.83615	239097.2	-178995.1	1	298675	-36.8196	-3.85124E-010	-0.1072963	5
	49	17	12.40079	259203.4	-204895.7	1	330406.8	-38.32574	-5.505468E-010	-0.1072874	5
	50	17	9.93114	284075.7	-234440	1	368322	-39.53194	-6.268125E-010	-0.1072877	5
	51	17	7.944915	308959.6	-266357.2	1	407924.3	-40.76495	6.311151E-011	-0.1072895	5
	52	18	6.317385	341848.5	-304765.2	1	457976.2	-41.71769	-3.310149E-010	-0.1072769	5
	53	18	5.008013	378340.8	-348262.7	1	514226.3	-42.62957	-4.520272E-010	-0.1072912	5
	54	19	3.945707	425201.2	-397565.4	1	582111.9	-43.07622	-1.24276E-010	-0.107283	5
	55	20	3.158693	475469.4	-449034.4	1	653990.1	-43.36215	-2.941886E-010	-0.1072989	5
	56	21	2.504006	537494.8	-503669.3	1	736602.6	-43.13923	-8.791481E-011	-0.1072948	5
	57	23	1.998082	603573.6	-561849.7	1	824606.7	-42.9496	1.195645E-010	-0.1072645	5
	58	24	1.584686	684297.1	-624257.4	1	926261.2	-42.37297	5.153686E-011	-0.1073037	5
	59	26	1.266892	775241.1	-687188.4	1	1035967	-41.55439	-5.831956E-011	-0.1073337	4
	60	29	0.999041	875149.6	-756491.5	1	1156791	-40.84059	-1.071215E-010	-0.107336	4
