EXPLAIN
TAG	EISPOT
TITLE	LABEL	Potentiostatic EIS	Test &Identifier
DATE	LABEL	1/10/2020	Date
TIME	LABEL	13:56:56	Time
NOTES	NOTES	5	&Notes...
	
	
	
	
	
PSTAT	PSTAT	REF600-11020	Potentiostat
VDC	POTEN	0.00000E+000	T	DC &Voltage (V)
FREQINIT	QUANT	1.00000E+006	Initial Fre&q. (Hz)
FREQFINAL	QUANT	1.00000E+000	Final Fre&q. (Hz)
PTSPERDEC	QUANT	1.00000E+001	Points/&decade
VAC	QUANT	2.50000E+001	AC &Voltage (mV rms)
AREA	QUANT	1.00000E-001	&Area (cm^2)
CONDIT	TWOPARAM	T	5.00000E+000	0.00000E+000	Conditionin&g	Time(s)	E(V)
DELAY	TWOPARAM	T	5.00000E+000	0.00000E+000	Init. De&lay	Time(s)	Stab.(mV/s)
SPEED	SELECTOR	0	&Optimize for:
ZGUESS	QUANT	5.00000E+002	E&stimated Z (ohms)
OCVCURVE	TABLE	19
	Pt	T	Vf	Vm	Ach	Over
	#	s	V vs. Ref.	V	V	bits
	0	0.258333	-5.97907E-004	-5.97907E-004	6.70279E-004	...........
	1	0.516667	-6.13808E-004	-1.43027E-003	6.72879E-004	...........
	2	0.775	-7.10377E-004	-2.16303E-003	6.69746E-004	...........
	3	1.03333	-9.80084E-004	-2.87104E-003	6.75113E-004	...........
	4	1.29167	-1.45438E-003	-3.45995E-003	6.68679E-004	...........
	5	1.55	-2.06961E-003	-4.03831E-003	6.68813E-004	...........
	6	1.80833	-2.72916E-003	-4.57966E-003	6.71713E-004	...........
	7	2.06667	-3.36712E-003	-5.05733E-003	6.75446E-004	...........
	8	2.325	-3.95891E-003	-5.54676E-003	6.67446E-004	...........
	9	2.58333	-4.50300E-003	-5.92788E-003	6.70513E-004	...........
	10	2.84167	-5.00437E-003	-6.37712E-003	6.69946E-004	...........
	11	3.1	-5.46833E-003	-6.70124E-003	6.69379E-004	...........
	12	3.35833	-5.89959E-003	-7.09089E-003	6.69046E-004	...........
	13	3.61667	-6.30140E-003	-7.36504E-003	6.66446E-004	...........
	14	3.875	-6.67748E-003	-7.81331E-003	6.74213E-004	...........
	15	4.13333	-7.03631E-003	-8.07575E-003	6.69146E-004	...........
	16	4.39167	-7.38629E-003	-8.40303E-003	6.68779E-004	...........
	17	4.65	-7.72688E-003	-8.68038E-003	6.68846E-004	...........
	18	4.90833	-8.05241E-003	-8.96283E-003	6.72346E-004	...........
EOC	QUANT	-0.0080524	Open Circuit (V)
PSTATMODEL	IQUANT	4	Pstat Model
PSTATSECTION	LABEL	REF600-11020	Pstat Section
PSTATSERIALNO	LABEL	11020	Pstat Serial Number
CTRLMODE	IQUANT	1	Control Mode
IESTAB	IQUANT	0	I/E Stability
CASPEED	IQUANT	1	Control Amp Speed
CONVENTION	IQUANT	1	Current Convention
ICHRANGE	IQUANT	2	Ich Range
ICHRANGEMODE	TOGGLE	F	Ich Auto Range
ICHOFFSETENABLE	TOGGLE	T	Ich Offset Enable
ICHOFFSET	QUANT	0	Ich Offset (V)
ICHFILTER	IQUANT	3	Ich Filter
VCHRANGE	IQUANT	2	Vch Range
VCHRANGEMODE	TOGGLE	F	Vch Auto Range
VCHOFFSETENABLE	TOGGLE	T	Vch Offset Enable
VCHOFFSET	QUANT	0	Vch Offset (V)
VCHFILTER	IQUANT	3	Vch Filter
ACHRANGE	IQUANT	2	Ach Range
ACHOFFSETENABLE	TOGGLE	F	Ach Offset Enable
ACHOFFSET	QUANT	0	Ach Offset (V)
ACHFILTER	IQUANT	3	Ach Filter
IERANGELOWERLIMIT	IQUANT	1	I/E Range Lower Limit
IERANGEMODE	TOGGLE	F	I/E AutoRange
IERANGE	IQUANT	7	I/E Range
POSFEEDENABLE	TOGGLE	F	Positive Feedback IR Comp
POSFEEDRESISTANCE	QUANT	0	Positive Feedback Resistance (ohm)
ACHSELECT	IQUANT	0	Ach Select
CABLEID	IQUANT	14	Cable ID
DCCALDATE	LABEL	12/22/2019	DC Calibration Date
ACCALDATE	LABEL	12/22/2019	AC Calibration Date
THERMOSELECT	IQUANT	1	Thermo Select
FRAMEWORKVERSION	QUANT	6.33	Framework Version
INSTRUMENTVERSION	LABEL	3.50	Instrument Version
ZCURVE	TABLE
	Pt	Time	Freq	Zreal	Zimag	Zsig	Zmod	Zphz	Idc	Vdc	IERange
	#	s	Hz	ohm	ohm	V	ohm	°	A	V	#
	0	1	1000078	1882.733	-2618.267	1	3224.904	-54.28099	-1.269303E-007	-0.0063294	8
	1	1	794390.6	2300.907	-2915.836	1	3714.333	-51.72278	1.429575E-006	-0.0063644	8
	2	2	630984.4	2794.499	-3218.593	1	4262.459	-49.0343	-3.282462E-006	-0.0056955	8
	3	2	501234.4	3358.889	-3489.014	1	4843.073	-46.08861	4.300106E-006	-0.0069679	8
	4	2	398109.4	3967.237	-3725.69	1	5442.401	-43.20158	1.193117E-006	-0.0068115	8
	5	2	316265.6	4640.161	-3926.033	1	6078.226	-40.23451	-1.106752E-006	-0.0061405	8
	6	3	251203.1	5348.208	-4016.236	1	6688.309	-36.90471	1.527466E-006	-0.0068196	8
	7	4	199546.9	6060.418	-4081.339	1	7306.572	-33.95797	-3.001434E-007	-0.0062701	8
	8	4	158578.1	6634.557	-4093.118	1	7795.574	-31.67206	-2.886666E-007	-0.0062827	8
	9	5	125953.1	7416.459	-4012.011	1	8432.088	-28.41164	-4.888761E-007	-0.0055104	7
	10	5	100078.1	7987.199	-3934.363	1	8903.626	-26.2241	6.053992E-008	-0.0065908	7
	11	5	79453.13	8545.03	-3892.597	1	9389.88	-24.49113	4.823294E-008	-0.0064754	7
	12	6	63140.62	9059.741	-3864.863	1	9849.67	-23.10297	-2.869176E-008	-0.0064605	7
	13	6	50203.12	9550.24	-3871.084	1	10304.96	-22.06464	3.406899E-008	-0.0065772	7
	14	6	39890.62	10025.49	-3923.356	1	10765.83	-21.37231	9.556315E-008	-0.0066121	7
	15	7	31640.63	10503.05	-4020.767	1	11246.36	-20.94779	2.565736E-008	-0.0065036	7
	16	7	25171.88	10977.92	-4173.777	1	11744.58	-20.81667	6.032318E-008	-0.0065848	7
	17	7	20015.62	11458.2	-4416.371	1	12279.85	-21.07832	-3.977436E-008	-0.0064283	7
	18	8	15890.62	11981.67	-4639.127	1	12848.42	-21.16567	-2.693668E-008	-0.0064716	7
	19	8	12609.37	12568.37	-4928.554	1	13500.17	-21.41211	4.130366E-009	-0.0064706	6
	20	8	10078.13	13127.53	-5319.657	1	14164.42	-22.05922	-3.61483E-009	-0.0063712	6
	21	9	8015.625	13748.67	-5805.305	1	14924.05	-22.89166	5.908091E-009	-0.0064713	6
	22	9	6328.125	14452.4	-6374.499	1	15795.76	-23.80076	-3.237136E-009	-0.0064236	6
	23	9	5015.625	15202.46	-7034.805	1	16751.22	-24.83192	4.483075E-009	-0.0066258	6
	24	9	3984.375	16016.81	-7802.446	1	17816.18	-25.97262	1.335373E-008	-0.0067086	6
	25	10	3170.956	16903.36	-8660.404	1	18992.79	-27.12825	2.199187E-009	-0.0065503	6
	26	10	2527.573	17880.3	-9654.23	1	20320.17	-28.36624	-4.338025E-010	-0.0065581	6
	27	10	1976.103	19055	-10892.61	1	21948.62	-29.75404	3.631862E-009	-0.0064419	6
	28	11	1577.524	20187.95	-12216.76	1	23596.66	-31.18029	-6.669287E-009	-0.006422	6
	29	11	1265.625	21562.33	-13679.33	1	25535.43	-32.3914	3.111961E-009	-0.0064486	6
	30	11	998.264	23122.03	-15509.79	1	27842.09	-33.85292	6.421617E-009	-0.0066265	6
	31	12	796.875	24796.23	-17520.09	1	30361.27	-35.2436	-2.948499E-009	-0.0064824	6
	32	12	627.7902	26785.52	-19965.6	1	33407.92	-36.7004	1.384652E-008	-0.0067108	6
	33	12	505.5147	28813.64	-22548.76	1	36587.87	-38.04576	1.321965E-008	-0.0067113	6
	34	13	397.9953	31368.04	-25836.08	1	40638.12	-39.47635	1.019626E-009	-0.0064841	6
	35	13	315.5048	34209.28	-29543.36	1	45200.5	-40.81411	1.022805E-009	-0.0064857	6
	36	13	252.4038	37339.67	-33650.64	1	50265.46	-42.02529	5.843567E-010	-0.0064917	6
	37	14	198.6229	41210.98	-38675.65	1	56516.82	-43.18224	1.000233E-009	-0.0064903	6
	38	14	158.3615	45552.13	-44285.32	1	63530.98	-44.19212	6.549373E-010	-0.006496	6
	39	14	125.558	50598.07	-50635.33	1	71582.84	-45.02109	8.365569E-010	-0.0064874	6
	40	15	100.4464	56076.75	-57361.21	1	80217.89	-45.64874	3.345967E-010	-0.00649	6
	41	15	79.00281	63302.79	-65192.77	1	90869.91	-45.84267	3.942239E-010	-0.0064914	6
	42	15	63.3446	70869.27	-76026.57	1	103935	-47.01075	9.134639E-010	-0.0064975	5
	43	16	49.86702	78536.94	-85654.45	1	116209.9	-47.48215	-3.437781E-010	-0.0065054	5
	44	16	39.72458	87611.54	-95132.7	1	129329.1	-47.35677	3.931798E-010	-0.0064967	5
	45	16	31.6723	96586.7	-107396.7	1	144440.5	-48.03353	2.471934E-010	-0.0064967	5
	46	17	24.93351	106570.7	-124248.6	1	163691.9	-49.37959	5.021315E-010	-0.0065011	5
	47	17	19.86229	117318	-143375.1	1	185256.4	-50.70795	1.171781E-009	-0.0064939	5
	48	17	15.83615	132203.2	-164412.4	1	210971.8	-51.1974	-1.220846E-009	-0.0064939	5
	49	18	12.40079	146384.5	-194302.2	1	243273.1	-53.00616	1.247359E-009	-0.0064977	5
	50	18	9.93114	160982.4	-228684.2	1	279663.7	-54.85634	-2.557296E-010	-0.0064978	5
	51	19	7.944915	182302.9	-267202.9	1	323468.3	-55.69569	-1.010277E-010	-0.0064991	5
	52	19	6.317385	209657.6	-314576.8	1	378040.8	-56.31754	2.518183E-010	-0.0064944	5
	53	20	5.008013	243286.9	-369622.5	1	442503.5	-56.64695	1.484491E-010	-0.0065122	5
	54	21	3.945707	285973.5	-432625.9	1	518600.1	-56.53458	4.114487E-010	-0.0064991	5
	55	22	3.158693	335183.8	-499254.7	1	601334.7	-56.12384	2.970214E-010	-0.0064943	5
	56	24	2.504006	394549.4	-575695.6	1	697921.6	-55.57545	2.244689E-010	-0.0065057	5
	57	25	1.998082	460286.8	-654398.8	1	800063.6	-54.87846	4.093199E-010	-0.0064666	5
	58	27	1.584686	534444.5	-749509.4	1	920540.8	-54.50889	3.958913E-010	-0.0064611	5
	59	29	1.266892	613278.1	-849790.6	1	1047976	-54.18272	3.013404E-010	-0.0064579	4
	60	31	0.999041	706297.6	-971185	1	1200857	-53.97335	2.57354E-010	-0.0064783	4
