EXPLAIN
TAG	EISPOT
TITLE	LABEL	Potentiostatic EIS	Test &Identifier
DATE	LABEL	6/6/2020	Date
TIME	LABEL	18:19:02	Time
NOTES	NOTES	1	&Notes...
	
PSTAT	PSTAT	REF600-11020	Potentiostat
VDC	POTEN	0.00000E+000	T	DC &Voltage (V)
FREQINIT	QUANT	1.00000E+006	Initial Fre&q. (Hz)
FREQFINAL	QUANT	1.00000E+000	Final Fre&q. (Hz)
PTSPERDEC	QUANT	1.00000E+001	Points/&decade
VAC	QUANT	2.50000E+001	AC &Voltage (mV rms)
AREA	QUANT	4.00000E-004	&Area (cm^2)
CONDIT	TWOPARAM	F	5.00000E+000	0.00000E+000	Conditionin&g	Time(s)	E(V)
DELAY	TWOPARAM	T	3.00000E+000	0.00000E+000	Init. De&lay	Time(s)	Stab.(mV/s)
SPEED	SELECTOR	0	&Optimize for:
ZGUESS	QUANT	1.00000E+003	E&stimated Z (ohms)
OCVCURVE	TABLE	12
	Pt	T	Vf	Vm	Ach	Over
	#	s	V vs. Ref.	V	V	bits
	0	0.258333	2.43463E-003	2.43463E-003	5.70063E-004	...........
	1	0.516667	2.43523E-003	2.46566E-003	5.71297E-004	...........
	2	0.775	2.43894E-003	2.49876E-003	5.74463E-004	...........
	3	1.03333	2.44963E-003	2.52886E-003	5.72530E-004	...........
	4	1.29167	2.46906E-003	2.55633E-003	5.77797E-004	...........
	5	1.55	2.49497E-003	2.57796E-003	5.76897E-004	...........
	6	1.80833	2.52309E-003	2.59731E-003	5.78297E-004	...........
	7	2.06667	2.54991E-003	2.61751E-003	5.77063E-004	...........
	8	2.325	2.57401E-003	2.63679E-003	5.79397E-004	...........
	9	2.58333	2.59559E-003	2.65165E-003	5.74797E-004	...........
	10	2.84167	2.61527E-003	2.66734E-003	5.76197E-004	...........
	11	3.1	2.63339E-003	2.68330E-003	5.73430E-004	...........
EOC	QUANT	0.0026334	Open Circuit (V)
PSTATMODEL	IQUANT	4	Pstat Model
PSTATSECTION	LABEL	REF600-11020	Pstat Section
PSTATSERIALNO	LABEL	11020	Pstat Serial Number
CTRLMODE	IQUANT	1	Control Mode
IESTAB	IQUANT	0	I/E Stability
CASPEED	IQUANT	1	Control Amp Speed
CONVENTION	IQUANT	1	Current Convention
ICHRANGE	IQUANT	2	Ich Range
ICHRANGEMODE	TOGGLE	F	Ich Auto Range
ICHOFFSETENABLE	TOGGLE	T	Ich Offset Enable
ICHOFFSET	QUANT	0	Ich Offset (V)
ICHFILTER	IQUANT	3	Ich Filter
VCHRANGE	IQUANT	2	Vch Range
VCHRANGEMODE	TOGGLE	F	Vch Auto Range
VCHOFFSETENABLE	TOGGLE	T	Vch Offset Enable
VCHOFFSET	QUANT	0	Vch Offset (V)
VCHFILTER	IQUANT	3	Vch Filter
ACHRANGE	IQUANT	2	Ach Range
ACHOFFSETENABLE	TOGGLE	F	Ach Offset Enable
ACHOFFSET	QUANT	0	Ach Offset (V)
ACHFILTER	IQUANT	3	Ach Filter
IERANGELOWERLIMIT	IQUANT	1	I/E Range Lower Limit
IERANGEMODE	TOGGLE	F	I/E AutoRange
IERANGE	IQUANT	6	I/E Range
POSFEEDENABLE	TOGGLE	F	Positive Feedback IR Comp
POSFEEDRESISTANCE	QUANT	0	Positive Feedback Resistance (ohm)
ACHSELECT	IQUANT	0	Ach Select
CABLEID	IQUANT	14	Cable ID
DCCALDATE	LABEL	2/27/2020	DC Calibration Date
ACCALDATE	LABEL	2/27/2020	AC Calibration Date
THERMOSELECT	IQUANT	1	Thermo Select
FRAMEWORKVERSION	QUANT	6.33	Framework Version
INSTRUMENTVERSION	LABEL	3.50	Instrument Version
ZCURVE	TABLE
	Pt	Time	Freq	Zreal	Zimag	Zsig	Zmod	Zphz	Idc	Vdc	IERange
	#	s	Hz	ohm	ohm	V	ohm	°	A	V	#
	0	1	1000078	1613.811	-2252.959	1	2771.319	-54.3857	-1.597355E-008	0.0051832	8
	1	1	794390.6	1929.56	-2537.262	1	3187.616	-52.74741	1.15269E-007	0.0048197	8
	2	1	630984.4	2281.604	-2840.011	1	3642.99	-51.22235	4.929609E-009	0.0046866	8
	3	2	501234.4	2682.931	-3163.233	1	4147.79	-49.69669	3.304763E-008	0.0046072	8
	4	2	398109.4	3135.052	-3518.01	1	4712.212	-48.29438	3.147275E-008	0.0045342	8
	5	2	316265.6	3651.337	-3904.18	1	5345.548	-46.91666	5.046888E-008	0.0045037	8
	6	3	251203.1	4260.922	-4297.09	1	6051.482	-45.24214	4.271305E-008	0.0044951	8
	7	3	199546.9	4973.575	-4715.969	1	6853.963	-43.47709	1.837077E-008	0.004481	8
	8	3	158578.1	5791.792	-5075.379	1	7700.931	-41.22826	2.768567E-008	0.004503	8
	9	4	125953.1	6805.691	-5340.466	1	8650.896	-38.12148	8.677356E-009	0.0044364	7
	10	4	100078.1	7805.005	-5541.6	1	9572.22	-35.37498	2.10353E-009	0.0044199	7
	11	4	79453.13	8866.274	-5634.456	1	10505.14	-32.43568	2.088675E-009	0.0044158	7
	12	5	63140.62	9939.29	-5579.023	1	11398.03	-29.30593	1.367331E-009	0.0044109	7
	13	5	50203.12	10960.97	-5389.299	1	12214.23	-26.18247	1.397644E-009	0.0044029	7
	14	5	39890.62	11906.84	-5096.616	1	12951.77	-23.17291	1.235132E-009	0.004401	7
	15	6	31640.63	12743.51	-4727.432	1	13592.12	-20.35323	2.552966E-009	0.0044063	7
	16	6	25171.88	13451.7	-4320.152	1	14128.41	-17.80496	2.740497E-009	0.0044003	7
	17	6	20015.62	14039.85	-3906.249	1	14573.13	-15.54794	1.876158E-009	0.0043985	7
	18	6	15890.62	14523.47	-3521.654	1	14944.33	-13.63003	2.220731E-009	0.004396	7
	19	7	12609.37	14990.56	-3049.378	1	15297.57	-11.49822	3.85646E-010	0.0044591	6
	20	7	10078.13	15281.91	-2801.076	1	15536.5	-10.38665	4.178295E-010	0.0044536	6
	21	7	8015.625	15527.82	-2617.625	1	15746.91	-9.56876	2.761051E-010	0.0044493	6
	22	8	6328.125	15733.71	-2502.61	1	15931.5	-9.03778	1.51865E-010	0.0044519	6
	23	8	5015.625	15920.4	-2470.017	1	16110.87	-8.819011	1.862423E-010	0.0044466	6
	24	8	3984.375	16088.83	-2514.772	1	16284.18	-8.883763	2.381245E-010	0.0044506	6
	25	9	3170.956	16255.11	-2642.114	1	16468.44	-9.232146	1.585822E-010	0.004446	6
	26	9	2527.573	16421.15	-2854.551	1	16667.42	-9.8614	2.321933E-010	0.0044414	6
	27	9	1976.103	16601.85	-3192.35	1	16905.99	-10.88448	5.137892E-011	0.0044414	6
	28	10	1577.524	16775.39	-3616.001	1	17160.69	-12.16421	1.918699E-010	0.0044488	6
	29	10	1265.625	16971.44	-4148.221	1	17471.05	-13.73514	6.841441E-011	0.0044455	6
	30	10	998.264	17214.85	-4880.833	1	17893.39	-15.82934	9.543211E-011	0.004439	6
	31	11	796.875	17470.02	-5752.461	1	18392.73	-18.22548	6.835615E-012	0.004444	6
	32	11	627.7902	17796.96	-6901.47	1	19088.27	-21.19576	1.232089E-010	0.0044401	6
	33	11	505.5147	18155.7	-8184.809	1	19915.33	-24.26643	7.928089E-012	0.0044408	6
	34	12	397.9953	18627.44	-9925.53	1	21106.81	-28.05067	4.918485E-010	0.0044574	6
	35	12	315.5048	19190.13	-12001.72	1	22634.09	-32.02231	4.704123E-010	0.0044585	6
	36	12	252.4038	19870.46	-14429.05	1	24556.72	-35.98551	3.657145E-010	0.0044549	6
	37	13	198.6229	20785.46	-17601.48	1	27236.88	-40.2585	2.502936E-010	0.0044519	6
	38	13	158.3615	21875.73	-21242.25	1	30492.3	-44.15829	3.97324E-010	0.0044497	6
	39	13	125.558	23285.17	-25744.13	1	34712.52	-47.87114	4.255484E-010	0.0044544	6
	40	14	100.4464	25012.57	-30936.54	1	39783.14	-51.04404	2.981982E-010	0.0044545	6
	41	14	79.00281	27374.86	-37637.53	1	46539.94	-53.97052	3.943746E-010	0.0044493	6
	42	14	63.3446	30109.32	-44985.75	1	54132.14	-56.20529	3.702433E-010	0.0044478	6
	43	15	49.86702	33855.38	-54451.35	1	64118.14	-58.12852	1.109934E-010	0.0044451	6
	44	15	39.72458	38314.27	-65104.96	1	75542.3	-59.52319	4.600201E-010	0.0044517	6
	45	15	31.6723	43898.69	-77621.69	1	89175.23	-60.50982	5.858882E-010	0.0044426	6
	46	16	24.93351	51302.85	-93092.59	1	106293.1	-61.14107	8.449447E-011	0.0044461	5
	47	16	19.86229	60070.39	-110361	1	125650.3	-61.44018	1.009542E-009	0.0044514	5
	48	16	15.83615	71088.55	-130468	1	148578.2	-61.41521	-5.449735E-010	0.0044466	5
	49	16	12.40079	86104.17	-155159.5	1	177449.7	-60.97236	5.958509E-010	0.0044496	5
	50	17	9.93114	102757.4	-180844.6	1	207999.6	-60.3944	4.388135E-010	0.0044508	5
	51	17	7.944915	123324.1	-209493.1	1	243097.1	-59.51558	-8.189205E-010	0.0044496	5
	52	18	6.317385	148663	-242316.8	1	284285.3	-58.47059	3.792241E-010	0.0044361	5
	53	18	5.008013	179159.2	-278965.1	1	331541.1	-57.29029	5.492513E-010	0.004453	5
	54	19	3.945707	216032.3	-319303.7	1	385518.9	-55.91878	2.058063E-011	0.004444	5
	55	20	3.158693	255087.1	-360763.1	1	441836.5	-54.73676	3.582074E-010	0.0044562	5
	56	21	2.504006	300999.9	-406719.8	1	505986.1	-53.49607	5.717916E-011	0.0044514	5
	57	22	1.998082	349750.7	-456646.2	1	575196.8	-52.55107	-5.628473E-011	0.004415	5
	58	24	1.584686	404640	-511283.6	1	652031.1	-51.6412	8.985334E-011	0.0044665	5
	59	26	1.266892	464167.4	-572254	1	736835.1	-50.95375	1.544877E-010	0.0044813	5
	60	28	0.999041	531992.8	-646905.2	1	837557.6	-50.56728	1.816485E-010	0.0044749	5
