EXPLAIN
TAG	EISPOT
TITLE	LABEL	Potentiostatic EIS	Test &Identifier
DATE	LABEL	6/14/2020	Date
TIME	LABEL	21:05:24	Time
NOTES	NOTES	1	&Notes...
	
PSTAT	PSTAT	REF600-10037	Potentiostat
VDC	POTEN	0.00000E+000	T	DC &Voltage (V)
FREQINIT	QUANT	1.00000E+006	Initial Fre&q. (Hz)
FREQFINAL	QUANT	1.00000E+000	Final Fre&q. (Hz)
PTSPERDEC	QUANT	1.00000E+001	Points/&decade
VAC	QUANT	2.50000E+001	AC &Voltage (mV rms)
AREA	QUANT	2.50000E-001	&Area (cm^2)
CONDIT	TWOPARAM	F	5.00000E+000	0.00000E+000	Conditionin&g	Time(s)	E(V)
DELAY	TWOPARAM	F	3.00000E+000	0.00000E+000	Init. De&lay	Time(s)	Stab.(mV/s)
SPEED	SELECTOR	0	&Optimize for:
ZGUESS	QUANT	1.00000E+003	E&stimated Z (ohms)
OCVCURVE	TABLE	39
	Pt	T	Vf	Vm	Ach	Over
	#	s	V vs. Ref.	V	V	bits
	0	0.258333	-2.51048E-002	-2.51048E-002	5.38487E-004	...........
	1	0.516667	-2.51159E-002	-2.56858E-002	5.40487E-004	...........
	2	0.775	-2.51840E-002	-2.62339E-002	5.38221E-004	...........
	3	1.03333	-2.53763E-002	-2.67525E-002	5.43787E-004	...........
	4	1.29167	-2.57193E-002	-2.72347E-002	5.39254E-004	...........
	5	1.55	-2.61726E-002	-2.77053E-002	5.40987E-004	...........
	6	1.80833	-2.66716E-002	-2.81514E-002	5.43887E-004	...........
	7	2.06667	-2.71698E-002	-2.85757E-002	5.44720E-004	...........
	8	2.325	-2.76474E-002	-2.89920E-002	5.43420E-004	...........
	9	2.58333	-2.81011E-002	-2.93907E-002	5.47187E-004	...........
	10	2.84167	-2.85338E-002	-2.97798E-002	5.42620E-004	...........
	11	3.1	-2.89497E-002	-3.01517E-002	5.43087E-004	...........
	12	3.35833	-2.93509E-002	-3.05059E-002	5.36521E-004	...........
	13	3.61667	-2.97380E-002	-3.08506E-002	5.45054E-004	...........
	14	3.875	-3.01108E-002	-3.11882E-002	5.41387E-004	...........
	15	4.13333	-3.04701E-002	-3.15104E-002	5.43720E-004	...........
	16	4.39167	-3.08172E-002	-3.18240E-002	5.38254E-004	...........
	17	4.65	-3.11530E-002	-3.21331E-002	5.37421E-004	...........
	18	4.90833	-3.14787E-002	-3.24389E-002	5.38554E-004	...........
	19	5.16667	-3.17958E-002	-3.27340E-002	5.42287E-004	...........
	20	5.425	-3.21057E-002	-3.30198E-002	5.39487E-004	...........
	21	5.68333	-3.24087E-002	-3.32985E-002	5.35621E-004	...........
	22	5.94167	-3.27041E-002	-3.35686E-002	5.37221E-004	...........
	23	6.2	-3.29917E-002	-3.38394E-002	5.34021E-004	...........
	24	6.45833	-3.32718E-002	-3.40981E-002	5.36921E-004	...........
	25	6.71667	-3.35452E-002	-3.43534E-002	5.38654E-004	...........
	26	6.975	-3.38126E-002	-3.46054E-002	5.42521E-004	...........
	27	7.23333	-3.40745E-002	-3.48593E-002	5.43620E-004	...........
	28	7.49167	-3.43316E-002	-3.51019E-002	5.41221E-004	...........
	29	7.75	-3.45850E-002	-3.53420E-002	5.49054E-004	...........
	30	8.00833	-3.48343E-002	-3.55732E-002	5.40054E-004	...........
	31	8.26667	-3.50789E-002	-3.57999E-002	5.40454E-004	...........
	32	8.525	-3.53179E-002	-3.60215E-002	5.43454E-004	...........
	33	8.78333	-3.55512E-002	-3.62441E-002	5.42287E-004	...........
	34	9.04167	-3.57793E-002	-3.64618E-002	5.45354E-004	...........
	35	9.3	-3.60034E-002	-3.66706E-002	5.44287E-004	...........
	36	9.5583	-3.62239E-002	-3.68855E-002	5.50954E-004	...........
	37	9.8167	-3.64407E-002	-3.70822E-002	5.46187E-004	...........
	38	10.075	-3.66536E-002	-3.72909E-002	5.45687E-004	...........
EOC	QUANT	-0.0366536	Open Circuit (V)
PSTATMODEL	IQUANT	4	Pstat Model
PSTATSECTION	LABEL	REF600-10037	Pstat Section
PSTATSERIALNO	LABEL	10037	Pstat Serial Number
CTRLMODE	IQUANT	1	Control Mode
IESTAB	IQUANT	0	I/E Stability
CASPEED	IQUANT	1	Control Amp Speed
CONVENTION	IQUANT	1	Current Convention
ICHRANGE	IQUANT	2	Ich Range
ICHRANGEMODE	TOGGLE	F	Ich Auto Range
ICHOFFSETENABLE	TOGGLE	T	Ich Offset Enable
ICHOFFSET	QUANT	0	Ich Offset (V)
ICHFILTER	IQUANT	3	Ich Filter
VCHRANGE	IQUANT	2	Vch Range
VCHRANGEMODE	TOGGLE	F	Vch Auto Range
VCHOFFSETENABLE	TOGGLE	T	Vch Offset Enable
VCHOFFSET	QUANT	0	Vch Offset (V)
VCHFILTER	IQUANT	3	Vch Filter
ACHRANGE	IQUANT	2	Ach Range
ACHOFFSETENABLE	TOGGLE	F	Ach Offset Enable
ACHOFFSET	QUANT	0	Ach Offset (V)
ACHFILTER	IQUANT	3	Ach Filter
IERANGELOWERLIMIT	IQUANT	1	I/E Range Lower Limit
IERANGEMODE	TOGGLE	F	I/E AutoRange
IERANGE	IQUANT	7	I/E Range
POSFEEDENABLE	TOGGLE	F	Positive Feedback IR Comp
POSFEEDRESISTANCE	QUANT	0	Positive Feedback Resistance (ohm)
ACHSELECT	IQUANT	0	Ach Select
CABLEID	IQUANT	14	Cable ID
DCCALDATE	LABEL	6/8/2020	DC Calibration Date
ACCALDATE	LABEL	6/8/2020	AC Calibration Date
THERMOSELECT	IQUANT	1	Thermo Select
FRAMEWORKVERSION	QUANT	6.33	Framework Version
INSTRUMENTVERSION	LABEL	3.50	Instrument Version
ZCURVE	TABLE
	Pt	Time	Freq	Zreal	Zimag	Zsig	Zmod	Zphz	Idc	Vdc	IERange
	#	s	Hz	ohm	ohm	V	ohm	°	A	V	#
	0	2	1000078	1978.904	-1985.888	1	2803.536	-45.10092	-1.22119E-007	-0.0277271	8
	1	2	794390.6	2369.551	-2116.973	1	3177.474	-41.77782	-1.620123E-008	-0.0279131	8
	2	2	630984.4	2791.849	-2188.651	1	3547.48	-38.09443	6.87438E-008	-0.0280563	8
	3	3	501234.4	3227.633	-2204.683	1	3908.74	-34.33562	1.871812E-007	-0.0281667	8
	4	3	398109.4	3656.06	-2161.412	1	4247.172	-30.59099	-3.210191E-007	-0.0281803	8
	5	3	316265.6	4055.657	-2054.732	1	4546.458	-26.8683	-1.034403E-007	-0.0281915	8
	6	3	251203.1	4407.648	-1912.909	1	4804.85	-23.46073	2.62965E-007	-0.0282565	8
	7	4	199546.9	4718.532	-1747.383	1	5031.688	-20.32077	-4.453258E-008	-0.0282311	8
	8	4	158578.1	4969.272	-1573.952	1	5212.58	-17.57491	3.363756E-008	-0.0281596	8
	9	4	125953.1	5268.4	-1228.595	1	5409.759	-13.12682	-9.824797E-008	-0.0279639	7
	10	5	100078.1	5409.553	-1102.543	1	5520.767	-11.5199	3.471379E-008	-0.0281894	7
	11	5	79453.13	5529.205	-997.667	1	5618.492	-10.22816	-8.294595E-008	-0.0281519	7
	12	5	63140.62	5628.067	-911.4189	1	5701.388	-9.19872	-4.021358E-008	-0.0281283	7
	13	6	50203.12	5713.792	-846.5118	1	5776.158	-8.427205	-4.101373E-008	-0.0281354	7
	14	6	39890.62	5793.641	-800.2049	1	5848.641	-7.863813	-7.628727E-008	-0.0281334	7
	15	6	31640.63	5865.977	-772.9882	1	5916.688	-7.50689	1.103868E-008	-0.0283218	7
	16	7	25171.88	5934.427	-764.2311	1	5983.434	-7.33812	7.895419E-008	-0.0282939	7
	17	7	20015.62	6006.495	-774.0603	1	6056.166	-7.343266	8.379562E-008	-0.0283321	7
	18	7	15890.62	6074.711	-802.0988	1	6127.437	-7.521767	-7.406465E-008	-0.0281281	7
	19	8	12609.37	6145.229	-847.9	1	6203.449	-7.855895	1.142198E-008	-0.0281811	7
	20	8	10078.13	6218.032	-915.8669	1	6285.12	-8.378968	5.939824E-008	-0.0283634	7
	21	8	8015.625	6296.179	-1003.911	1	6375.712	-9.059422	3.700032E-008	-0.0282121	7
	22	9	6328.125	6381.904	-1124.113	1	6480.148	-9.98965	-7.073155E-008	-0.0281949	7
	23	9	5015.625	6472.529	-1274.574	1	6596.83	-11.14018	1.226916E-008	-0.0281823	7
	24	9	3984.375	6571.8	-1459.671	1	6731.954	-12.52275	1.285672E-008	-0.0281811	7
	25	10	3170.956	6678.184	-1683.566	1	6887.128	-14.1494	3.646574E-008	-0.0282094	7
	26	10	2527.573	6797.179	-1957.389	1	7073.401	-16.06485	7.482609E-008	-0.0283549	7
	27	10	1976.103	6941.603	-2324.226	1	7320.374	-18.51186	6.031773E-008	-0.0283592	7
	28	10	1577.524	7093.331	-2735.272	1	7602.438	-21.08722	-7.362117E-008	-0.0281297	7
	29	11	1265.625	7262.3	-3226.437	1	7946.754	-23.95424	-4.943552E-008	-0.0282456	7
	30	11	998.264	7468.436	-3864.723	1	8409.139	-27.3604	1.241999E-008	-0.028182	7
	31	11	796.875	7707.104	-4613.418	1	8982.376	-30.90445	6.925739E-008	-0.0282618	7
	32	12	627.7902	8014.687	-5565.755	1	9757.71	-34.77784	1.723954E-009	-0.0281426	6
	33	12	505.5147	8344.873	-6631.81	1	10659.17	-38.47475	9.253192E-009	-0.0282621	6
	34	12	397.9953	8796.181	-8058.774	1	11929.65	-42.4949	1.075773E-009	-0.0282264	6
	35	13	315.5048	9347.731	-9743.95	1	13502.76	-46.1889	9.848352E-010	-0.0282314	6
	36	13	252.4038	10015.78	-11689.98	1	15393.88	-49.41056	9.897263E-010	-0.0282306	6
	37	13	198.6229	10926.91	-14191.74	1	17910.97	-52.40558	1.034852E-009	-0.0282353	6
	38	14	158.3615	12020.69	-17014.84	1	20832.7	-54.75946	9.224502E-010	-0.0282326	6
	39	14	125.558	13437.59	-20430.13	1	24453.2	-56.66572	1.030785E-009	-0.0282318	6
	40	14	100.4464	15133.27	-24287.84	1	28616.69	-58.07379	9.410128E-010	-0.0282343	6
	41	15	79.00281	17387.08	-29143.44	1	33935.98	-59.17955	8.067296E-010	-0.0282376	6
	42	15	63.3446	19913.35	-34321.55	1	39680.1	-59.8777	8.16571E-010	-0.028237	6
	43	15	49.86702	23241.82	-40907.73	1	47049.17	-60.39682	1.107932E-009	-0.0282382	6
	44	16	39.72458	27072.09	-48248.37	1	55324.53	-60.70329	1.06475E-009	-0.0282333	6
	45	16	31.6723	31666.96	-56756.56	1	64993.1	-60.84095	1.807174E-009	-0.0282338	6
	46	16	24.93351	37695.42	-67249.08	1	77093.34	-60.72787	1.749863E-010	-0.0282354	6
	47	17	19.86229	44370.95	-78698.93	1	90345.46	-60.58542	-5.916476E-009	-0.0368735	6
	48	17	15.83615	52686.08	-91541.21	1	105620.1	-60.07764	-4.010868E-009	-0.0368706	5
	49	17	12.40079	64247.88	-107697.4	1	125405.4	-59.18142	-3.154794E-009	-0.0368703	5
	50	18	9.93114	76663.21	-123703.9	1	145533.2	-58.2122	-2.249825E-009	-0.0368704	5
	51	18	7.944915	91394.06	-141235.2	1	168226.8	-57.09287	-1.858069E-009	-0.0368664	5
	52	19	6.317385	108664.7	-160299.7	1	193659.5	-55.86725	-9.502287E-010	-0.0368664	5
	53	19	5.008013	127872.2	-181310.7	1	221866.8	-54.806	-5.727618E-010	-0.0368674	5
	54	20	3.945707	148902.3	-205007.3	1	253377	-54.00809	-2.799326E-010	-0.0368659	5
	55	22	3.158693	169192.8	-230153.3	1	285651.4	-53.67924	-1.162968E-010	-0.0368728	5
	56	23	2.504006	191653.6	-260997.7	1	323806.9	-53.70974	2.527289E-011	-0.0368788	5
	57	25	1.998082	213493.8	-297064.2	1	365823.3	-54.29599	1.125486E-010	-0.0368693	5
	58	27	1.584686	237199.5	-342424.4	1	416555	-55.28942	2.110514E-010	-0.0368723	5
	59	29	1.266892	262137.7	-396431.9	1	475262.5	-56.52562	2.537317E-010	-0.0368708	5
	60	33	0.999041	292054.9	-467163.8	1	550942.9	-57.98778	2.468912E-010	-0.0368698	5
