EXPLAIN
TAG	EISPOT
TITLE	LABEL	Potentiostatic EIS	Test &Identifier
DATE	LABEL	2/28/2020	Date
TIME	LABEL	17:19:47	Time
NOTES	NOTES	1	&Notes...
	
PSTAT	PSTAT	REF600-11020	Potentiostat
VDC	POTEN	0.00000E+000	T	DC &Voltage (V)
FREQINIT	QUANT	1.00000E+006	Initial Fre&q. (Hz)
FREQFINAL	QUANT	1.00000E+000	Final Fre&q. (Hz)
PTSPERDEC	QUANT	1.00000E+001	Points/&decade
VAC	QUANT	2.50000E+001	AC &Voltage (mV rms)
AREA	QUANT	1.60000E-004	&Area (cm^2)
CONDIT	TWOPARAM	F	1.50000E+001	0.00000E+000	Conditionin&g	Time(s)	E(V)
DELAY	TWOPARAM	F	1.00000E+002	0.00000E+000	Init. De&lay	Time(s)	Stab.(mV/s)
SPEED	SELECTOR	1	&Optimize for:
ZGUESS	QUANT	1.00000E+003	E&stimated Z (ohms)
OCVCURVE	TABLE	39
	Pt	T	Vf	Vm	Ach	Over
	#	s	V vs. Ref.	V	V	bits
	0	0.258333	-9.14429E-002	-9.14429E-002	5.63963E-004	...........
	1	0.516667	-9.14339E-002	-9.09737E-002	5.64797E-004	...........
	2	0.775	-9.13811E-002	-9.06456E-002	5.63397E-004	...........
	3	1.03333	-9.12470E-002	-9.07444E-002	5.60597E-004	...........
	4	1.29167	-9.10554E-002	-9.08117E-002	5.60830E-004	...........
	5	1.55	-9.08893E-002	-9.08898E-002	5.63930E-004	...........
	6	1.80833	-9.08094E-002	-9.09226E-002	5.52830E-004	...........
	7	2.06667	-9.08113E-002	-9.09816E-002	5.54264E-004	...........
	8	2.325	-9.08580E-002	-9.10893E-002	5.62897E-004	...........
	9	2.58333	-9.09225E-002	-9.11625E-002	5.58730E-004	...........
	10	2.84167	-9.09959E-002	-9.12654E-002	5.63330E-004	...........
	11	3.1	-9.10764E-002	-9.13276E-002	5.60097E-004	...........
	12	3.35833	-9.11614E-002	-9.14542E-002	5.65497E-004	...........
	13	3.61667	-9.12504E-002	-9.15886E-002	5.63264E-004	...........
	14	3.875	-9.13447E-002	-9.15646E-002	5.63397E-004	...........
	15	4.13333	-9.14365E-002	-9.15500E-002	5.63230E-004	...........
	16	4.39167	-9.15073E-002	-9.15675E-002	5.63897E-004	...........
	17	4.65	-9.15481E-002	-9.16250E-002	5.64097E-004	...........
	18	4.90833	-9.15705E-002	-9.16757E-002	5.63497E-004	...........
	19	5.16667	-9.15915E-002	-9.16214E-002	5.71997E-004	...........
	20	5.425	-9.16137E-002	-9.16063E-002	5.65597E-004	...........
	21	5.68333	-9.16281E-002	-9.16543E-002	5.63897E-004	...........
	22	5.94167	-9.16341E-002	-9.17274E-002	5.63197E-004	...........
	23	6.2	-9.16464E-002	-9.18444E-002	5.62197E-004	...........
	24	6.45833	-9.16801E-002	-9.18514E-002	5.64730E-004	...........
	25	6.71667	-9.17334E-002	-9.18489E-002	5.71497E-004	...........
	26	6.975	-9.17891E-002	-9.19112E-002	5.66763E-004	...........
	27	7.23333	-9.18345E-002	-9.19580E-002	5.64897E-004	...........
	28	7.49167	-9.18718E-002	-9.19605E-002	5.69263E-004	...........
	29	7.75	-9.19056E-002	-9.19687E-002	5.70030E-004	...........
	30	8.00833	-9.19345E-002	-9.19893E-002	5.72530E-004	...........
	31	8.26667	-9.19561E-002	-9.19928E-002	5.70663E-004	...........
	32	8.525	-9.19716E-002	-9.19984E-002	5.72530E-004	...........
	33	8.78333	-9.19827E-002	-9.19910E-002	5.72663E-004	...........
	34	9.04167	-9.19900E-002	-9.20016E-002	5.73130E-004	...........
	35	9.3	-9.19944E-002	-9.20140E-002	5.73763E-004	...........
	36	9.5583	-9.19983E-002	-9.20166E-002	5.71830E-004	...........
	37	9.8167	-9.20033E-002	-9.20115E-002	5.64430E-004	...........
	38	10.075	-9.20085E-002	-9.20161E-002	5.69230E-004	...........
EOC	QUANT	-0.0920085	Open Circuit (V)
PSTATMODEL	IQUANT	4	Pstat Model
PSTATSECTION	LABEL	REF600-11020	Pstat Section
PSTATSERIALNO	LABEL	11020	Pstat Serial Number
CTRLMODE	IQUANT	1	Control Mode
IESTAB	IQUANT	0	I/E Stability
CASPEED	IQUANT	1	Control Amp Speed
CONVENTION	IQUANT	1	Current Convention
ICHRANGE	IQUANT	2	Ich Range
ICHRANGEMODE	TOGGLE	F	Ich Auto Range
ICHOFFSETENABLE	TOGGLE	T	Ich Offset Enable
ICHOFFSET	QUANT	0	Ich Offset (V)
ICHFILTER	IQUANT	3	Ich Filter
VCHRANGE	IQUANT	2	Vch Range
VCHRANGEMODE	TOGGLE	F	Vch Auto Range
VCHOFFSETENABLE	TOGGLE	T	Vch Offset Enable
VCHOFFSET	QUANT	0	Vch Offset (V)
VCHFILTER	IQUANT	3	Vch Filter
ACHRANGE	IQUANT	2	Ach Range
ACHOFFSETENABLE	TOGGLE	F	Ach Offset Enable
ACHOFFSET	QUANT	0	Ach Offset (V)
ACHFILTER	IQUANT	3	Ach Filter
IERANGELOWERLIMIT	IQUANT	1	I/E Range Lower Limit
IERANGEMODE	TOGGLE	F	I/E AutoRange
IERANGE	IQUANT	8	I/E Range
POSFEEDENABLE	TOGGLE	F	Positive Feedback IR Comp
POSFEEDRESISTANCE	QUANT	0	Positive Feedback Resistance (ohm)
ACHSELECT	IQUANT	0	Ach Select
CABLEID	IQUANT	14	Cable ID
DCCALDATE	LABEL	2/27/2020	DC Calibration Date
ACCALDATE	LABEL	2/27/2020	AC Calibration Date
THERMOSELECT	IQUANT	1	Thermo Select
FRAMEWORKVERSION	QUANT	6.33	Framework Version
INSTRUMENTVERSION	LABEL	3.50	Instrument Version
ZCURVE	TABLE
	Pt	Time	Freq	Zreal	Zimag	Zsig	Zmod	Zphz	Idc	Vdc	IERange
	#	s	Hz	ohm	ohm	V	ohm	°	A	V	#
	0	2	1000078	1979.39	-2160.042	1	2929.806	-47.49891	-2.629682E-006	-0.0889582	8
	1	3	794390.6	2372.197	-2300.681	1	3304.611	-44.12319	3.997227E-006	-0.0905994	8
	2	4	630984.4	2782.405	-2417.869	1	3686.172	-40.99017	-1.680222E-006	-0.0899877	8
	3	6	501234.4	3202.32	-2504.288	1	4065.257	-38.02623	2.842347E-006	-0.0907658	8
	4	7	398109.4	3636.137	-2565.198	1	4449.914	-35.20195	-3.01824E-006	-0.0898215	8
	5	8	316265.6	4046.065	-2584.793	1	4801.229	-32.57212	3.921596E-006	-0.0910309	8
	6	10	251203.1	4477.832	-2613.263	1	5184.604	-30.26784	1.399573E-006	-0.0907164	8
	7	11	199546.9	4906.93	-2570.239	1	5539.322	-27.64545	3.625407E-006	-0.0910229	8
	8	13	158578.1	5336.881	-2604.147	1	5938.34	-26.0102	7.274878E-007	-0.0905621	8
	9	14	125953.1	5845.25	-2432.691	1	6331.267	-22.59623	-9.167668E-008	-0.0905012	7
	10	16	100078.1	6243.121	-2351.682	1	6671.354	-20.64057	4.757847E-008	-0.0905999	7
	11	17	79453.13	6642.671	-2247.539	1	7012.596	-18.69318	-4.68758E-008	-0.0904338	7
	12	18	63140.62	7008.079	-2102.292	1	7316.611	-16.69826	1.672444E-008	-0.0905814	7
	13	20	50203.12	7329.496	-1940.371	1	7581.988	-14.82802	-3.504076E-008	-0.0903943	7
	14	21	39890.62	7603.542	-1769.428	1	7806.711	-13.10021	-1.575546E-008	-0.0905183	7
	15	22	31640.63	7838.04	-1597.493	1	7999.178	-11.51983	-4.690191E-008	-0.0904441	7
	16	24	25171.88	8025.091	-1445.471	1	8154.23	-10.21057	-4.826489E-008	-0.0904029	7
	17	25	20015.62	8185.164	-1316.078	1	8290.294	-9.134304	2.970338E-008	-0.0905428	7
	18	26	15890.62	8309.937	-1206.582	1	8397.076	-8.261471	-4.613275E-008	-0.0904533	7
	19	28	12609.37	8416.239	-1130.814	1	8491.868	-7.652487	-6.900974E-009	-0.0904414	7
	20	29	10078.13	8501.314	-1089.487	1	8570.842	-7.302941	-3.278123E-008	-0.0903982	7
	21	30	8015.625	8588.004	-1073.493	1	8654.837	-7.124967	-4.75909E-008	-0.0904041	7
	22	32	6328.125	8650.104	-1096.609	1	8719.338	-7.225075	-4.703223E-008	-0.0904456	7
	23	33	5015.625	8722.332	-1158.423	1	8798.922	-7.565245	4.985003E-008	-0.0906235	7
	24	35	3984.375	8787.009	-1265.355	1	8877.648	-8.194426	-4.430671E-008	-0.090418	7
	25	36	3170.956	8857.251	-1384.85	1	8964.859	-8.88637	-5.188958E-009	-0.0903527	6
	26	37	2527.573	8924.236	-1593.212	1	9065.336	-10.12217	-4.169138E-009	-0.0903229	6
	27	39	1976.103	9004.074	-1886.423	1	9199.563	-11.83276	-5.621505E-009	-0.0904913	6
	28	40	1577.524	9085.586	-2228.312	1	9354.852	-13.78024	3.075689E-009	-0.0904311	6
	29	41	1265.625	9185.359	-2648.586	1	9559.59	-16.08485	-5.508682E-010	-0.0903568	6
	30	43	998.264	9302.532	-3212.953	1	9841.76	-19.05413	2.628051E-009	-0.0904237	6
	31	44	796.875	9444.753	-3878.957	1	10210.27	-22.32794	1.259096E-008	-0.0907127	6
	32	45	627.7902	9634.29	-4754.454	1	10743.58	-26.26601	-9.747829E-009	-0.0903326	6
	33	47	505.5147	9840.41	-5725.067	1	11384.64	-30.19047	1.267691E-008	-0.0907171	6
	34	48	397.9953	10129.37	-7053.271	1	12343.12	-34.85023	-2.490161E-010	-0.0904337	6
	35	49	315.5048	10495.08	-8634.513	1	13590.49	-39.44482	1.58949E-010	-0.0904356	6
	36	51	252.4038	10945.78	-10489.31	1	15160.34	-43.78004	-7.608159E-010	-0.0904422	6
	37	52	198.6229	11580.94	-12918.84	1	17349.77	-48.12573	-4.254203E-010	-0.0904423	6
	38	53	158.3615	12361.13	-15714.53	1	19993.6	-51.81122	2.375612E-010	-0.0904441	6
	39	55	125.558	13420.01	-19179.11	1	23408.01	-55.01873	-1.189782E-009	-0.090442	6
	40	56	100.4464	14763.46	-23192.21	1	27492.52	-57.5204	2.676198E-010	-0.0904432	6
	41	58	79.00281	16681.15	-28353.3	1	32896.36	-59.53034	1.706597E-010	-0.0904426	6
	42	59	63.3446	19109.58	-34063.87	1	39057.95	-60.7079	2.57124E-010	-0.0904464	6
	43	61	49.86702	22102.03	-41124.84	1	46687.81	-61.74475	-1.673206E-009	-0.0904451	6
	44	62	39.72458	26272.87	-48991.46	1	55591.61	-61.79648	-2.396382E-010	-0.0904433	6
	45	63	31.6723	31392.99	-58098.75	1	66037.75	-61.61594	-1.837581E-009	-0.0904443	6
	46	65	24.93351	38400.91	-68786.62	1	78779.62	-60.82707	2.342335E-010	-0.0904437	6
	47	66	19.86229	46525.32	-80131.13	1	92658.53	-59.85991	-1.471359E-009	-0.0904474	6
	48	67	15.83615	56484.71	-92604.48	1	108471.7	-58.61863	-1.113464E-009	-0.0904425	5
	49	69	12.40079	69186.32	-106617.6	1	127098.6	-57.01965	-2.149509E-009	-0.0904359	5
	50	70	9.93114	82369.02	-120702.9	1	146129.5	-55.68993	-7.706988E-010	-0.0904375	5
	51	72	7.944915	97200.5	-135390.2	1	166668.6	-54.32434	5.231757E-010	-0.0904429	5
	52	73	6.317385	113465.2	-151733.8	1	189466.3	-53.21119	4.341757E-010	-0.0904408	5
	53	75	5.008013	131085.7	-170361.8	1	214957.2	-52.42335	1.050468E-009	-0.0904353	5
	54	78	3.945707	150247.5	-191796.4	1	243639.4	-51.92593	-8.528796E-010	-0.0904472	5
	55	80	3.158693	169279.1	-215579.7	1	274098.5	-51.86003	3.21831E-010	-0.0904305	5
	56	84	2.504006	190412	-244799.5	1	310134.7	-52.12321	-4.256985E-010	-0.0904343	5
	57	86	1.998082	212475.7	-278180.8	1	350043.5	-52.62725	8.052516E-011	-0.0904822	5
	58	90	1.584686	236556.8	-320171.7	1	398081.7	-53.54139	-9.493379E-011	-0.0904574	5
	59	93	1.266892	264183.3	-368035.4	1	453037.4	-54.32845	1.1381E-010	-0.0904866	5
	60	97	0.999041	294442.8	-429513.4	1	520747.9	-55.56833	3.432199E-010	-0.0904173	5
