EXPLAIN
TAG	EISPOT
TITLE	LABEL	Potentiostatic EIS	Test &Identifier
DATE	LABEL	1/7/2020	Date
TIME	LABEL	16:24:52	Time
NOTES	NOTES	5	&Notes...
	
	
	
	
	
PSTAT	PSTAT	REF600-11020	Potentiostat
VDC	POTEN	0.00000E+000	T	DC &Voltage (V)
FREQINIT	QUANT	1.00000E+006	Initial Fre&q. (Hz)
FREQFINAL	QUANT	1.00000E+000	Final Fre&q. (Hz)
PTSPERDEC	QUANT	1.00000E+001	Points/&decade
VAC	QUANT	2.50000E+001	AC &Voltage (mV rms)
AREA	QUANT	1.00000E-001	&Area (cm^2)
CONDIT	TWOPARAM	T	5.00000E+000	0.00000E+000	Conditionin&g	Time(s)	E(V)
DELAY	TWOPARAM	T	5.00000E+000	0.00000E+000	Init. De&lay	Time(s)	Stab.(mV/s)
SPEED	SELECTOR	0	&Optimize for:
ZGUESS	QUANT	1.00000E+003	E&stimated Z (ohms)
OCVCURVE	TABLE	19
	Pt	T	Vf	Vm	Ach	Over
	#	s	V vs. Ref.	V	V	bits
	0	0.258333	-2.31915E-003	-2.31915E-003	6.44813E-004	...........
	1	0.516667	-2.32932E-003	-2.85107E-003	6.39580E-004	...........
	2	0.775	-2.39173E-003	-3.35588E-003	6.39780E-004	...........
	3	1.03333	-2.56804E-003	-3.82604E-003	6.38580E-004	...........
	4	1.29167	-2.88219E-003	-4.26745E-003	6.34113E-004	...........
	5	1.55	-3.29680E-003	-4.68600E-003	6.37546E-004	...........
	6	1.80833	-3.75168E-003	-5.09014E-003	6.35747E-004	...........
	7	2.06667	-4.20398E-003	-5.47616E-003	6.30746E-004	...........
	8	2.325	-4.63592E-003	-5.84204E-003	6.35446E-004	...........
	9	2.58333	-5.04481E-003	-6.19421E-003	6.27013E-004	...........
	10	2.84167	-5.43311E-003	-6.54558E-003	6.31280E-004	...........
	11	3.1	-5.80695E-003	-7.00604E-003	6.37680E-004	...........
	12	3.35833	-6.17457E-003	-7.17361E-003	6.39380E-004	...........
	13	3.61667	-6.53194E-003	-7.39651E-003	6.39413E-004	...........
	14	3.875	-6.86166E-003	-7.81078E-003	6.42246E-004	...........
	15	4.13333	-7.16393E-003	-8.16902E-003	6.40046E-004	...........
	16	4.39167	-7.46297E-003	-8.36151E-003	6.40646E-004	...........
	17	4.65	-7.77116E-003	-8.71800E-003	6.29280E-004	...........
	18	4.90833	-8.07838E-003	-8.93767E-003	6.32280E-004	...........
EOC	QUANT	-0.0080784	Open Circuit (V)
PSTATMODEL	IQUANT	4	Pstat Model
PSTATSECTION	LABEL	REF600-11020	Pstat Section
PSTATSERIALNO	LABEL	11020	Pstat Serial Number
CTRLMODE	IQUANT	1	Control Mode
IESTAB	IQUANT	0	I/E Stability
CASPEED	IQUANT	1	Control Amp Speed
CONVENTION	IQUANT	1	Current Convention
ICHRANGE	IQUANT	2	Ich Range
ICHRANGEMODE	TOGGLE	F	Ich Auto Range
ICHOFFSETENABLE	TOGGLE	T	Ich Offset Enable
ICHOFFSET	QUANT	0	Ich Offset (V)
ICHFILTER	IQUANT	3	Ich Filter
VCHRANGE	IQUANT	2	Vch Range
VCHRANGEMODE	TOGGLE	F	Vch Auto Range
VCHOFFSETENABLE	TOGGLE	T	Vch Offset Enable
VCHOFFSET	QUANT	0	Vch Offset (V)
VCHFILTER	IQUANT	3	Vch Filter
ACHRANGE	IQUANT	2	Ach Range
ACHOFFSETENABLE	TOGGLE	F	Ach Offset Enable
ACHOFFSET	QUANT	0	Ach Offset (V)
ACHFILTER	IQUANT	3	Ach Filter
IERANGELOWERLIMIT	IQUANT	1	I/E Range Lower Limit
IERANGEMODE	TOGGLE	F	I/E AutoRange
IERANGE	IQUANT	7	I/E Range
POSFEEDENABLE	TOGGLE	F	Positive Feedback IR Comp
POSFEEDRESISTANCE	QUANT	0	Positive Feedback Resistance (ohm)
ACHSELECT	IQUANT	0	Ach Select
CABLEID	IQUANT	14	Cable ID
DCCALDATE	LABEL	12/22/2019	DC Calibration Date
ACCALDATE	LABEL	12/22/2019	AC Calibration Date
THERMOSELECT	IQUANT	1	Thermo Select
FRAMEWORKVERSION	QUANT	6.33	Framework Version
INSTRUMENTVERSION	LABEL	3.50	Instrument Version
ZCURVE	TABLE
	Pt	Time	Freq	Zreal	Zimag	Zsig	Zmod	Zphz	Idc	Vdc	IERange
	#	s	Hz	ohm	ohm	V	ohm	°	A	V	#
	0	1	1000078	2329.584	-1341.154	1	2688.059	-29.92927	7.499175E-007	-0.0061571	8
	1	2	794390.6	2499.129	-1342.622	1	2836.949	-28.2463	4.092695E-009	-0.0064272	8
	2	2	630984.4	2668.437	-1331.302	1	2982.1	-26.51494	-4.880069E-006	-0.0052458	8
	3	2	501234.4	2800.87	-1365.887	1	3116.171	-25.99689	-2.65492E-006	-0.005545	8
	4	3	398109.4	2922.262	-1392.481	1	3237.07	-25.47818	4.793567E-007	-0.0066539	8
	5	3	316265.6	3052.327	-1489.365	1	3396.308	-26.00979	4.224612E-006	-0.0071637	8
	6	3	251203.1	3175.725	-1634.159	1	3571.513	-27.22937	-1.265507E-006	-0.0060117	8
	7	4	199546.9	3351.069	-1822.532	1	3814.615	-28.54027	8.832158E-007	-0.0066828	8
	8	4	158578.1	3528.859	-2076.806	1	4094.626	-30.47768	-1.694849E-006	-0.0061175	8
	9	4	125953.1	3809.013	-2321.094	1	4460.5	-31.35683	-8.337706E-007	-0.0048332	7
	10	5	100078.1	4101.382	-2696.667	1	4908.497	-33.325	1.176044E-007	-0.0066705	7
	11	5	79453.13	4495.61	-3107.156	1	5464.882	-34.65042	1.177763E-007	-0.006674	7
	12	5	63140.62	5010.95	-3541.743	1	6136.25	-35.2527	1.698755E-008	-0.0063545	7
	13	5	50203.12	5663.95	-3955.085	1	6908.186	-34.92625	-4.94921E-008	-0.0063737	7
	14	6	39890.62	6460.122	-4296.692	1	7758.526	-33.62828	1.774206E-008	-0.0063613	7
	15	6	31640.63	7373.78	-4519.407	1	8648.564	-31.50423	1.865734E-008	-0.0063634	7
	16	6	25171.88	8331.947	-4558.654	1	9497.509	-28.68437	-7.926101E-008	-0.0063918	7
	17	7	20015.62	9268.4	-4442.79	1	10278.21	-25.61064	-3.594182E-008	-0.0063874	7
	18	7	15890.62	10126.78	-4144.946	1	10942.22	-22.25956	-7.290579E-009	-0.0064634	7
	19	7	12609.37	10927.15	-3603.966	1	11506.13	-18.25347	3.848457E-009	-0.0064476	6
	20	8	10078.13	11453.02	-3216.305	1	11896.06	-15.68612	1.192886E-008	-0.0067549	6
	21	8	8015.625	11866.25	-2832.466	1	12199.62	-13.42525	-6.311895E-013	-0.0062941	6
	22	8	6328.125	12177.7	-2488.738	1	12429.4	-11.5504	-1.227344E-009	-0.0064914	6
	23	9	5015.625	12398.15	-2212.386	1	12593.99	-10.11765	-8.441543E-009	-0.0064183	6
	24	9	3984.375	12566.54	-2022.12	1	12728.19	-9.141279	-9.229766E-009	-0.006371	6
	25	9	3170.956	12694.17	-1904.157	1	12836.19	-8.530904	-1.418633E-008	-0.0063287	6
	26	10	2527.573	12801.49	-1862.533	1	12936.27	-8.278077	5.632285E-009	-0.0066355	6
	27	10	1976.103	12892.17	-1900.122	1	13031.45	-8.384217	-1.094764E-008	-0.0062979	6
	28	10	1577.524	12982.91	-2026.919	1	13140.18	-8.873507	-3.825648E-009	-0.0065404	6
	29	11	1265.625	13085.55	-2199.16	1	13269.06	-9.53999	-2.11167E-009	-0.0066483	6
	30	11	998.264	13167.06	-2486.878	1	13399.85	-10.69553	-2.183118E-009	-0.0064934	6
	31	11	796.875	13271.81	-2866.227	1	13577.78	-12.18664	-1.226281E-008	-0.0064331	6
	32	11	627.7902	13404.83	-3393.929	1	13827.8	-14.20798	-8.811233E-009	-0.0064199	6
	33	12	505.5147	13535.06	-3997.382	1	14113.01	-16.45373	2.176604E-008	-0.0067486	6
	34	12	397.9953	13716.71	-4841.817	1	14546.17	-19.44236	1.863991E-009	-0.0064935	6
	35	12	315.5048	13923.36	-5870.715	1	15110.44	-22.86247	1.002949E-009	-0.0064976	6
	36	13	252.4038	14183.38	-7091.317	1	15857.33	-26.56385	1.187144E-009	-0.0065005	6
	37	13	198.6229	14518.24	-8719.89	1	16935.64	-30.98971	1.390498E-009	-0.0064957	6
	38	13	158.3615	14935.2	-10621.27	1	18326.8	-35.4188	1.023929E-009	-0.0065008	6
	39	14	125.558	15463.14	-13011.95	1	20209.39	-40.07998	1.514472E-009	-0.0065004	6
	40	14	100.4464	16116.11	-15834.76	1	22593.55	-44.49548	1.396747E-009	-0.0065013	6
	41	14	79.00281	17043.84	-19548.96	1	25935.58	-48.91632	1.894472E-009	-0.0065007	6
	42	15	63.3446	18182.71	-23512	1	29722.47	-52.28389	1.506765E-009	-0.0065029	6
	43	15	49.86702	19882.47	-28973.16	1	35139.1	-55.54062	1.665927E-009	-0.0065045	6
	44	15	39.72458	21908.59	-35299.4	1	41545.57	-58.17417	1.771022E-009	-0.0065039	6
	45	16	31.6723	24628.72	-42730.39	1	49319.98	-60.04194	2.053099E-009	-0.0065005	6
	46	16	24.93351	28517.37	-51963.21	1	59274.07	-61.24205	1.779946E-009	-0.0065042	6
	47	16	19.86229	33356.58	-62402.72	1	70758.47	-61.87383	3.83185E-009	-0.0065073	6
	48	17	15.83615	39418.39	-74053.97	1	83891.59	-61.97395	9.348398E-010	-0.0065069	6
	49	17	12.40079	48305.35	-89003.75	1	101267.3	-61.50982	1.906028E-010	-0.0065025	6
	50	17	9.93114	57907.25	-103643.3	1	118723.1	-60.80717	-5.048409E-010	-0.0065084	5
	51	18	7.944915	70921.26	-121116.1	1	140352.9	-59.6483	1.056215E-009	-0.0065047	5
	52	18	6.317385	84714.43	-139174.4	1	162929.6	-58.67144	6.2771E-010	-0.0065008	5
	53	19	5.008013	102413.4	-159787.4	1	189790.8	-57.34275	2.941667E-010	-0.0065131	5
	54	20	3.945707	123338.5	-182541.2	1	220303.6	-55.95409	1.223911E-009	-0.0065044	5
	55	21	3.158693	145315.1	-205090	1	251353.1	-54.68079	8.613907E-010	-0.0064876	5
	56	23	2.504006	170432.6	-230978.4	1	287051.1	-53.57741	4.672745E-010	-0.0064986	5
	57	24	1.998082	195535.7	-258104.9	1	323809.1	-52.85308	8.375103E-010	-0.0064801	5
	58	26	1.584686	223587.9	-290853.4	1	366861.3	-52.44941	9.930854E-010	-0.0064549	5
	59	28	1.266892	250333.9	-327810.3	1	412464.1	-52.63267	8.791766E-010	-0.0064816	5
	60	30	0.999041	280552.2	-374079	1	467594.5	-53.1308	8.020871E-010	-0.0065093	5
