EXPLAIN
TAG	EISPOT
TITLE	LABEL	Potentiostatic EIS	Test &Identifier
DATE	LABEL	2/25/2020	Date
TIME	LABEL	16:36:39	Time
NOTES	NOTES	1	&Notes...
	
PSTAT	PSTAT	REF600-11020	Potentiostat
VDC	POTEN	0.00000E+000	T	DC &Voltage (V)
FREQINIT	QUANT	1.00000E+006	Initial Fre&q. (Hz)
FREQFINAL	QUANT	1.00000E+000	Final Fre&q. (Hz)
PTSPERDEC	QUANT	1.00000E+001	Points/&decade
VAC	QUANT	2.50000E+001	AC &Voltage (mV rms)
AREA	QUANT	1.60000E-004	&Area (cm^2)
CONDIT	TWOPARAM	F	1.50000E+001	0.00000E+000	Conditionin&g	Time(s)	E(V)
DELAY	TWOPARAM	F	1.00000E+002	0.00000E+000	Init. De&lay	Time(s)	Stab.(mV/s)
SPEED	SELECTOR	1	&Optimize for:
ZGUESS	QUANT	1.00000E+003	E&stimated Z (ohms)
OCVCURVE	TABLE	39
	Pt	T	Vf	Vm	Ach	Over
	#	s	V vs. Ref.	V	V	bits
	0	0.258333	7.91908E-002	7.91908E-002	5.58404E-004	...........
	1	0.516667	7.91911E-002	7.92060E-002	5.69371E-004	...........
	2	0.775	7.91920E-002	7.91736E-002	5.58204E-004	...........
	3	1.03333	7.91917E-002	7.91482E-002	5.48705E-004	...........
	4	1.29167	7.91845E-002	7.90585E-002	5.69404E-004	...........
	5	1.55	7.91634E-002	7.90092E-002	5.68471E-004	...........
	6	1.80833	7.91255E-002	7.89662E-002	5.58104E-004	...........
	7	2.06667	7.90761E-002	7.89454E-002	5.53838E-004	...........
	8	2.325	7.90259E-002	7.89182E-002	5.68671E-004	...........
	9	2.58333	7.89827E-002	7.88832E-002	5.65104E-004	...........
	10	2.84167	7.89474E-002	7.88616E-002	5.53005E-004	...........
	11	3.1	7.89175E-002	7.88551E-002	5.52338E-004	...........
	12	3.35833	7.88916E-002	7.88257E-002	5.68138E-004	...........
	13	3.61667	7.88690E-002	7.87943E-002	5.62838E-004	...........
	14	3.875	7.88475E-002	7.87746E-002	5.47071E-004	...........
	15	4.13333	7.88247E-002	7.87550E-002	5.52638E-004	...........
	16	4.39167	7.88010E-002	7.87294E-002	5.63438E-004	...........
	17	4.65	7.87783E-002	7.87412E-002	5.62104E-004	...........
	18	4.90833	7.87592E-002	7.87463E-002	5.52604E-004	...........
	19	5.16667	7.87463E-002	7.87084E-002	5.60704E-004	...........
	20	5.425	7.87374E-002	7.86720E-002	5.71971E-004	...........
	21	5.68333	7.87253E-002	7.86530E-002	5.66271E-004	...........
	22	5.94167	7.87066E-002	7.86561E-002	5.55104E-004	...........
	23	6.2	7.86850E-002	7.86364E-002	5.59138E-004	...........
	24	6.45833	7.86659E-002	7.86186E-002	5.66271E-004	...........
	25	6.71667	7.86499E-002	7.85893E-002	5.50471E-004	...........
	26	6.975	7.86328E-002	7.85202E-002	5.46038E-004	...........
	27	7.23333	7.86072E-002	7.83969E-002	5.61138E-004	...........
	28	7.49167	7.85675E-002	7.85002E-002	5.63404E-004	...........
	29	7.75	7.85219E-002	7.84857E-002	5.52471E-004	...........
	30	8.00833	7.84895E-002	7.84991E-002	5.48171E-004	...........
	31	8.26667	7.84789E-002	7.84868E-002	5.61304E-004	...........
	32	8.525	7.84809E-002	7.84524E-002	5.64504E-004	...........
	33	8.78333	7.84840E-002	7.85367E-002	5.50005E-004	...........
	34	9.04167	7.84867E-002	7.85278E-002	5.49771E-004	...........
	35	9.3	7.84948E-002	7.85352E-002	5.67738E-004	...........
	36	9.5583	7.85089E-002	7.85548E-002	5.66004E-004	...........
	37	9.8167	7.85209E-002	7.83887E-002	5.51238E-004	...........
	38	10.075	7.85081E-002	7.79020E-002	5.55571E-004	...........
EOC	QUANT	0.0785081	Open Circuit (V)
PSTATMODEL	IQUANT	4	Pstat Model
PSTATSECTION	LABEL	REF600-11020	Pstat Section
PSTATSERIALNO	LABEL	11020	Pstat Serial Number
CTRLMODE	IQUANT	1	Control Mode
IESTAB	IQUANT	0	I/E Stability
CASPEED	IQUANT	1	Control Amp Speed
CONVENTION	IQUANT	1	Current Convention
ICHRANGE	IQUANT	2	Ich Range
ICHRANGEMODE	TOGGLE	F	Ich Auto Range
ICHOFFSETENABLE	TOGGLE	T	Ich Offset Enable
ICHOFFSET	QUANT	0	Ich Offset (V)
ICHFILTER	IQUANT	3	Ich Filter
VCHRANGE	IQUANT	2	Vch Range
VCHRANGEMODE	TOGGLE	F	Vch Auto Range
VCHOFFSETENABLE	TOGGLE	T	Vch Offset Enable
VCHOFFSET	QUANT	0	Vch Offset (V)
VCHFILTER	IQUANT	3	Vch Filter
ACHRANGE	IQUANT	2	Ach Range
ACHOFFSETENABLE	TOGGLE	F	Ach Offset Enable
ACHOFFSET	QUANT	0	Ach Offset (V)
ACHFILTER	IQUANT	3	Ach Filter
IERANGELOWERLIMIT	IQUANT	1	I/E Range Lower Limit
IERANGEMODE	TOGGLE	F	I/E AutoRange
IERANGE	IQUANT	8	I/E Range
POSFEEDENABLE	TOGGLE	F	Positive Feedback IR Comp
POSFEEDRESISTANCE	QUANT	0	Positive Feedback Resistance (ohm)
ACHSELECT	IQUANT	0	Ach Select
CABLEID	IQUANT	14	Cable ID
DCCALDATE	LABEL	1/27/2020	DC Calibration Date
ACCALDATE	LABEL	1/27/2020	AC Calibration Date
THERMOSELECT	IQUANT	1	Thermo Select
FRAMEWORKVERSION	QUANT	6.33	Framework Version
INSTRUMENTVERSION	LABEL	3.50	Instrument Version
ZCURVE	TABLE
	Pt	Time	Freq	Zreal	Zimag	Zsig	Zmod	Zphz	Idc	Vdc	IERange
	#	s	Hz	ohm	ohm	V	ohm	°	A	V	#
	0	1	1000078	1413.703	-2118.828	1	2547.153	-56.28839	1.159187E-006	0.0805891	8
	1	3	794390.6	1716.64	-2400.752	1	2951.349	-54.43362	-2.456261E-006	0.0808596	8
	2	4	630984.4	2074.573	-2700.34	1	3405.244	-52.46625	3.112526E-007	0.0803108	8
	3	5	501234.4	2477.865	-3001.375	1	3892.051	-50.45772	-5.192711E-007	0.0802322	8
	4	7	398109.4	2943.823	-3321.038	1	4437.949	-48.44569	9.173354E-007	0.0799627	8
	5	8	316265.6	3484.44	-3616.36	1	5021.89	-46.06433	4.896902E-007	0.079927	8
	6	9	251203.1	4068.746	-3915.81	1	5646.969	-43.90269	-4.382848E-007	0.0801163	8
	7	11	199546.9	4715.231	-4168.633	1	6293.719	-41.4792	3.21518E-007	0.079984	8
	8	12	158578.1	5405.345	-4396.864	1	6967.795	-39.1259	3.389372E-007	0.0799834	8
	9	14	125953.1	6182.232	-4566.64	1	7685.974	-36.45223	1.135333E-007	0.0798504	7
	10	15	100078.1	6949.616	-4743.014	1	8413.878	-34.31298	3.797667E-008	0.0798945	7
	11	16	79453.13	7735.681	-4861.198	1	9136.302	-32.14577	3.024171E-008	0.0799288	7
	12	18	63140.62	8519.923	-4938.891	1	9847.93	-30.10032	-1.390838E-008	0.0799977	7
	13	19	50203.12	9302.078	-4981.887	1	10552.15	-28.17204	-1.387932E-008	0.0800018	7
	14	20	39890.62	10070.27	-4995.748	1	11241.34	-26.38549	-1.658578E-008	0.0799763	7
	15	22	31640.63	10823.82	-4986.71	1	11917.32	-24.73629	1.075639E-008	0.0799756	7
	16	23	25171.88	11539.86	-4985.567	1	12570.77	-23.3658	1.608492E-008	0.0799852	7
	17	24	20015.62	12217.83	-4988.244	1	13196.89	-22.20901	1.656905E-008	0.0799919	7
	18	26	15890.62	12866.49	-5012.703	1	13808.46	-21.28558	1.379727E-008	0.0799149	7
	19	27	12609.37	13541.91	-5033.411	1	14447.1	-20.38966	-9.626486E-011	0.0800217	6
	20	29	10078.13	14138.87	-5172.47	1	15055.3	-20.09421	-1.208906E-009	0.0799502	6
	21	30	8015.625	14753.12	-5373.738	1	15701.33	-20.01386	-7.727609E-010	0.0799524	6
	22	31	6328.125	15397.05	-5659.532	1	16404.25	-20.18204	-4.580424E-009	0.0799907	6
	23	33	5015.625	16066.38	-6030.084	1	17160.73	-20.57228	-3.503728E-009	0.0800189	6
	24	34	3984.375	16774.06	-6484.002	1	17983.64	-21.13398	-1.390493E-009	0.0800118	6
	25	35	3170.956	17526.99	-7019.138	1	18880.24	-21.82492	-3.459837E-010	0.0800006	6
	26	37	2527.573	18342.66	-7640.996	1	19870.53	-22.61513	5.291453E-009	0.0799193	6
	27	38	1976.103	19298.36	-8419.071	1	21054.87	-23.56964	2.811451E-009	0.0799768	6
	28	40	1577.524	20255.11	-9243.596	1	22264.63	-24.53	3.229157E-009	0.0799726	6
	29	41	1265.625	21229.33	-10184.52	1	23545.89	-25.62882	-3.573267E-009	0.08001	6
	30	42	998.264	22364.72	-11362.98	1	25085.81	-26.93403	-1.291815E-009	0.0799452	6
	31	44	796.875	23508.1	-12687.16	1	26713.19	-28.35543	6.077333E-009	0.0798296	6
	32	45	627.7902	24829.79	-14384.24	1	28695.38	-30.08431	1.342021E-009	0.079896	6
	33	46	505.5147	26177.11	-16240.51	1	30805.76	-31.81583	-4.356962E-009	0.0799782	6
	34	48	397.9953	27854.26	-18678.78	1	33537.39	-33.84541	6.356026E-010	0.0799697	6
	35	49	315.5048	29774.52	-21490.91	1	36720.31	-35.82132	5.36942E-010	0.079968	6
	36	50	252.4038	31931.54	-24658.19	1	40344.13	-37.67606	8.784715E-010	0.0799655	6
	37	52	198.6229	34685.19	-28565.99	1	44934.16	-39.47415	9.939146E-010	0.0799674	6
	38	53	158.3615	37732.76	-32803.83	1	49998.52	-41.0028	7.730467E-010	0.079971	6
	39	55	125.558	41376.35	-37694.46	1	55972.09	-42.33398	6.279621E-010	0.0799664	6
	40	56	100.4464	45362.45	-42930.05	1	62455.92	-43.42194	8.397939E-010	0.0799623	6
	41	57	79.00281	50299.75	-49529.08	1	70591.75	-44.55769	2.246256E-010	0.0799648	6
	42	59	63.3446	54520.78	-56534.98	1	78541.19	-46.03905	4.976511E-010	0.0799655	6
	43	60	49.86702	61386.52	-64370.94	1	88948.98	-46.35947	2.944919E-010	0.079968	6
	44	62	39.72458	67383.55	-74034.84	1	100108.4	-47.69279	3.070321E-010	0.0799621	5
	45	63	31.6723	74209.8	-85203.91	1	112990.3	-48.94521	-5.360295E-011	0.0799647	5
	46	64	24.93351	82093.52	-98806.7	1	128460.5	-50.2785	9.978662E-011	0.0799623	5
	47	66	19.86229	90583.75	-114466.5	1	145972.5	-51.64345	7.706711E-012	0.079968	5
	48	67	15.83615	99160.8	-133369.6	1	166193.6	-53.36907	-1.987857E-010	0.0799646	5
	49	68	12.40079	111444.9	-157938.9	1	193299.4	-54.79242	2.184886E-011	0.0799601	5
	50	70	9.93114	124800	-183872.9	1	222225.8	-55.83409	4.472166E-010	0.0799571	5
	51	71	7.944915	139546.2	-215961.9	1	257123.8	-57.13102	2.208493E-011	0.0799574	5
	52	73	6.317385	158236.6	-254471.1	1	299657.1	-58.12561	3.443919E-010	0.0799579	5
	53	75	5.008013	181786.7	-301573.5	1	352126.4	-58.91867	2.840263E-010	0.0799658	5
	54	78	3.945707	212174.8	-358388.7	1	416486	-59.37344	-6.78419E-011	0.0799574	5
	55	80	3.158693	247405.4	-419912	1	487376.2	-59.49409	2.190894E-010	0.0799854	5
	56	84	2.504006	292824.7	-493391.9	1	573743.7	-59.31116	-1.234168E-010	0.0799597	5
	57	86	1.998082	346164.6	-573227.4	1	669641.4	-58.87276	-9.95326E-011	0.0799525	5
	58	90	1.584686	413457.4	-663824.1	1	782054.7	-58.08362	1.063745E-010	0.0800089	5
	59	93	1.266892	485457.8	-761609.3	1	903171	-57.48613	-6.309239E-011	0.0799654	5
	60	97	0.999041	575899.1	-879071.1	1	1050917	-56.7703	1.95523E-010	0.0799121	4
