EXPLAIN
TAG	EISPOT
TITLE	LABEL	Potentiostatic EIS	Test &Identifier
DATE	LABEL	1/18/2020	Date
TIME	LABEL	22:27:44	Time
NOTES	NOTES	6	&Notes...
	
	
	
	
	
	
PSTAT	PSTAT	REF600-11020	Potentiostat
VDC	POTEN	0.00000E+000	T	DC &Voltage (V)
FREQINIT	QUANT	1.00000E+006	Initial Fre&q. (Hz)
FREQFINAL	QUANT	1.00000E+000	Final Fre&q. (Hz)
PTSPERDEC	QUANT	1.00000E+001	Points/&decade
VAC	QUANT	2.50000E+001	AC &Voltage (mV rms)
AREA	QUANT	1.00000E-001	&Area (cm^2)
CONDIT	TWOPARAM	F	5.00000E+000	0.00000E+000	Conditionin&g	Time(s)	E(V)
DELAY	TWOPARAM	F	5.00000E+000	0.00000E+000	Init. De&lay	Time(s)	Stab.(mV/s)
SPEED	SELECTOR	0	&Optimize for:
ZGUESS	QUANT	5.00000E+002	E&stimated Z (ohms)
OCVCURVE	TABLE	39
	Pt	T	Vf	Vm	Ach	Over
	#	s	V vs. Ref.	V	V	bits
	0	0.258333	2.93293E-002	2.93293E-002	6.63013E-004	...........
	1	0.516667	2.93319E-002	2.94679E-002	6.56479E-004	...........
	2	0.775	2.93481E-002	2.95952E-002	6.56146E-004	...........
	3	1.03333	2.93935E-002	2.97127E-002	6.60879E-004	...........
	4	1.29167	2.94738E-002	2.98201E-002	6.59379E-004	...........
	5	1.55	2.95791E-002	2.99438E-002	6.61913E-004	...........
	6	1.80833	2.96952E-002	3.00564E-002	6.62013E-004	...........
	7	2.06667	2.98122E-002	3.01031E-002	6.59979E-004	...........
	8	2.325	2.99196E-002	3.00409E-002	6.58113E-004	...........
	9	2.58333	3.00016E-002	3.00703E-002	6.57013E-004	...........
	10	2.84167	3.00488E-002	3.01016E-002	6.54213E-004	...........
	11	3.1	3.00698E-002	3.00968E-002	6.53013E-004	...........
	12	3.35833	3.00811E-002	3.01298E-002	6.54346E-004	...........
	13	3.61667	3.00915E-002	3.00885E-002	6.50913E-004	...........
	14	3.875	3.01002E-002	3.00923E-002	6.54913E-004	...........
	15	4.13333	3.01049E-002	3.01802E-002	6.52546E-004	...........
	16	4.39167	3.01124E-002	3.02478E-002	6.48746E-004	...........
	17	4.65	3.01349E-002	3.02770E-002	6.50713E-004	...........
	18	4.90833	3.01738E-002	3.02584E-002	6.60646E-004	...........
	19	5.16667	3.02143E-002	3.01897E-002	6.57679E-004	...........
	20	5.425	3.02399E-002	3.03395E-002	6.60113E-004	...........
	21	5.68333	3.02523E-002	3.02994E-002	6.62646E-004	...........
	22	5.94167	3.02645E-002	3.02596E-002	6.57279E-004	...........
	23	6.2	3.02780E-002	3.03109E-002	6.48413E-004	...........
	24	6.45833	3.02880E-002	3.03667E-002	6.55746E-004	...........
	25	6.71667	3.02985E-002	3.03194E-002	6.54746E-004	...........
	26	6.975	3.03123E-002	3.03139E-002	6.54079E-004	...........
	27	7.23333	3.03221E-002	3.02695E-002	6.48580E-004	...........
	28	7.49167	3.03181E-002	3.01875E-002	6.49846E-004	...........
	29	7.75	3.02993E-002	3.03281E-002	6.51313E-004	...........
	30	8.00833	3.02774E-002	3.02604E-002	6.52713E-004	...........
	31	8.26667	3.02677E-002	3.03220E-002	6.54646E-004	...........
	32	8.525	3.02704E-002	3.01720E-002	6.59813E-004	...........
	33	8.78333	3.02723E-002	3.03142E-002	6.58713E-004	...........
	34	9.04167	3.02668E-002	3.02135E-002	6.58179E-004	...........
	35	9.3	3.02557E-002	3.00937E-002	6.57646E-004	...........
	36	9.5583	3.02359E-002	3.02118E-002	6.61313E-004	...........
	37	9.8167	3.02099E-002	3.02719E-002	6.59613E-004	...........
	38	10.075	3.01957E-002	3.01955E-002	6.59646E-004	...........
EOC	QUANT	0.0301957	Open Circuit (V)
PSTATMODEL	IQUANT	4	Pstat Model
PSTATSECTION	LABEL	REF600-11020	Pstat Section
PSTATSERIALNO	LABEL	11020	Pstat Serial Number
CTRLMODE	IQUANT	1	Control Mode
IESTAB	IQUANT	0	I/E Stability
CASPEED	IQUANT	1	Control Amp Speed
CONVENTION	IQUANT	1	Current Convention
ICHRANGE	IQUANT	2	Ich Range
ICHRANGEMODE	TOGGLE	F	Ich Auto Range
ICHOFFSETENABLE	TOGGLE	T	Ich Offset Enable
ICHOFFSET	QUANT	0	Ich Offset (V)
ICHFILTER	IQUANT	3	Ich Filter
VCHRANGE	IQUANT	2	Vch Range
VCHRANGEMODE	TOGGLE	F	Vch Auto Range
VCHOFFSETENABLE	TOGGLE	T	Vch Offset Enable
VCHOFFSET	QUANT	0	Vch Offset (V)
VCHFILTER	IQUANT	3	Vch Filter
ACHRANGE	IQUANT	2	Ach Range
ACHOFFSETENABLE	TOGGLE	F	Ach Offset Enable
ACHOFFSET	QUANT	0	Ach Offset (V)
ACHFILTER	IQUANT	3	Ach Filter
IERANGELOWERLIMIT	IQUANT	1	I/E Range Lower Limit
IERANGEMODE	TOGGLE	F	I/E AutoRange
IERANGE	IQUANT	8	I/E Range
POSFEEDENABLE	TOGGLE	F	Positive Feedback IR Comp
POSFEEDRESISTANCE	QUANT	0	Positive Feedback Resistance (ohm)
ACHSELECT	IQUANT	0	Ach Select
CABLEID	IQUANT	14	Cable ID
DCCALDATE	LABEL	12/22/2019	DC Calibration Date
ACCALDATE	LABEL	12/22/2019	AC Calibration Date
THERMOSELECT	IQUANT	1	Thermo Select
FRAMEWORKVERSION	QUANT	6.33	Framework Version
INSTRUMENTVERSION	LABEL	3.50	Instrument Version
ZCURVE	TABLE
	Pt	Time	Freq	Zreal	Zimag	Zsig	Zmod	Zphz	Idc	Vdc	IERange
	#	s	Hz	ohm	ohm	V	ohm	°	A	V	#
	0	1	1000078	2409.747	-1945.602	1	3097.135	-38.91701	-1.542379E-008	0.0323091	8
	1	2	794390.6	2807.627	-1940.55	1	3412.991	-34.6511	2.024083E-006	0.0318867	8
	2	2	630984.4	3183.211	-1873.652	1	3693.698	-30.48126	-1.28558E-006	0.0323977	8
	3	2	501234.4	3526.366	-1747.808	1	3935.745	-26.36486	-1.132002E-006	0.0321722	8
	4	2	398109.4	3826.742	-1595.602	1	4146.07	-22.63423	3.630335E-006	0.0312508	8
	5	3	316265.6	4060.413	-1420.523	1	4301.725	-19.28223	-3.579811E-006	0.0326256	8
	6	3	251203.1	4265.467	-1277.356	1	4452.623	-16.67109	1.764409E-006	0.0314189	8
	7	3	199546.9	4397.457	-1119.358	1	4537.685	-14.28116	-7.497357E-007	0.0319703	8
	8	4	158578.1	4528.438	-970.77	1	4631.322	-12.09948	-6.709479E-007	0.0320988	8
	9	4	125953.1	4637.963	-818.6081	1	4709.652	-10.0097	8.189809E-007	0.0301394	7
	10	4	100078.1	4708.474	-738.6712	1	4766.064	-8.91596	-3.496175E-008	0.0318309	7
	11	5	79453.13	4771.909	-674.3194	1	4819.318	-8.043222	3.569946E-008	0.031693	7
	12	5	63140.62	4829.575	-627.7393	1	4870.2	-7.405683	1.111582E-007	0.0316392	7
	13	5	50203.12	4878.537	-597.6228	1	4915.005	-6.983961	2.960956E-008	0.0317641	7
	14	6	39890.62	4925.373	-584.0407	1	4959.879	-6.762441	-2.907387E-009	0.0318242	7
	15	6	31640.63	4970.241	-587.9165	1	5004.892	-6.746017	6.580511E-008	0.0316792	7
	16	6	25171.88	5014.568	-606.6473	1	5051.13	-6.897949	6.651616E-008	0.0316825	7
	17	7	20015.62	5061.031	-643.3476	1	5101.757	-7.244465	3.730281E-008	0.0316776	7
	18	7	15890.62	5109.327	-700.1424	1	5157.075	-7.802771	-3.748707E-008	0.0318319	7
	19	7	12609.37	5161.141	-777.2969	1	5219.346	-8.564698	5.75493E-008	0.0317773	7
	20	8	10078.13	5217.27	-873.1011	1	5289.821	-9.50032	6.583794E-008	0.0316759	7
	21	8	8015.625	5278.142	-998.811	1	5371.816	-10.71567	7.033232E-008	0.0316445	7
	22	8	6328.125	5351.936	-1160.639	1	5476.34	-12.23588	-1.15648E-008	0.0318261	7
	23	8	5015.625	5432.247	-1356.208	1	5598.983	-14.01784	7.025573E-008	0.0316435	7
	24	9	3984.375	5521.615	-1597.109	1	5747.956	-16.13234	-1.713897E-008	0.031782	7
	25	9	3170.956	5627.213	-1887.956	1	5935.479	-18.54684	-5.256568E-008	0.0318648	7
	26	9	2527.573	5746.435	-2233.792	1	6165.333	-21.24242	-3.099364E-008	0.0318223	7
	27	10	1976.103	5898.213	-2699.76	1	6486.726	-24.59476	-4.575346E-008	0.0318805	7
	28	10	1577.524	6066.686	-3212.678	1	6864.836	-27.90393	1.124465E-007	0.0316224	7
	29	10	1265.625	6255.156	-3822.89	1	7330.857	-31.43153	3.11342E-008	0.0317585	7
	30	11	998.264	6496.421	-4615.264	1	7968.949	-35.39119	6.683478E-008	0.031665	7
	31	11	796.875	6768.421	-5525.044	1	8737.141	-39.22467	5.863092E-008	0.0317691	7
	32	11	627.7902	7107.89	-6696.729	1	9765.67	-43.29399	-4.922824E-010	0.0318085	7
	33	12	505.5147	7481.848	-7971.824	1	10932.89	-46.81602	-1.292826E-009	0.0317	6
	34	12	397.9953	7955.963	-9685.15	1	12533.93	-50.59827	8.659478E-010	0.0317959	6
	35	12	315.5048	8506.437	-11713.82	1	14476.64	-54.01329	3.356663E-010	0.0317971	6
	36	13	252.4038	9132.898	-14082.28	1	16784.53	-57.03504	3.645826E-010	0.0317895	6
	37	13	198.6229	9944.71	-17183.39	1	19853.62	-59.94034	6.605175E-010	0.0317916	6
	38	13	158.3615	10877.26	-20763.07	1	23439.71	-62.35106	8.172064E-010	0.031791	6
	39	14	125.558	12037.11	-25229.96	1	27954.3	-64.49438	8.225483E-010	0.0317916	6
	40	14	100.4464	13412.64	-30420.23	1	33245.89	-66.20675	1.329761E-010	0.0317881	6
	41	14	79.00281	15263.19	-37198.38	1	40208.01	-67.69074	7.307865E-010	0.0317882	6
	42	15	63.3446	17404.32	-45166.77	1	48404.01	-68.9266	2.819318E-010	0.0317866	6
	43	15	49.86702	20149.09	-55099.38	1	58667.94	-69.91322	-1.981419E-011	0.0317855	6
	44	15	39.72458	23610.48	-66370.87	1	70445.34	-70.41772	5.175584E-010	0.0317866	6
	45	16	31.6723	27817.99	-80022.09	1	84719.39	-70.83107	1.490585E-010	0.0317874	6
	46	16	24.93351	33408.54	-97917.4	1	103459.9	-71.16083	5.383329E-010	0.0317846	6
	47	16	19.86229	40243.44	-118220.5	1	124882.5	-71.20092	8.801316E-010	0.0317892	5
	48	17	15.83615	49338.54	-142147.7	1	150466.8	-70.85845	-7.438375E-010	0.0317841	5
	49	17	12.40079	62238.55	-173579.7	1	184400.5	-70.27425	-9.401724E-010	0.0317907	5
	50	17	9.93114	76335.8	-208056	1	221617.8	-69.8519	-3.113974E-010	0.0317848	5
	51	18	7.944915	94848.73	-247436.8	1	264993	-69.02692	-5.31154E-010	0.0317838	5
	52	18	6.317385	120167.3	-294975	1	318512.8	-67.83493	-2.929229E-010	0.0318037	5
	53	19	5.008013	152895.1	-349812.7	1	381766.7	-66.39097	-2.058824E-010	0.0317826	5
	54	20	3.945707	195279.7	-412908.9	1	456758	-64.68883	8.853844E-011	0.0317814	5
	55	21	3.158693	244373.1	-478254.1	1	537070.9	-62.93437	7.795854E-011	0.0317993	5
	56	23	2.504006	306835.8	-553033.4	1	632450.9	-60.97747	-6.374122E-011	0.0317856	5
	57	24	1.998082	375919.7	-629484.9	1	733189.6	-59.15493	-1.042157E-013	0.0317804	5
	58	26	1.584686	460863.8	-713985.4	1	849806.2	-57.15854	9.988823E-011	0.0318214	5
	59	28	1.266892	551026.8	-803482.5	1	974276	-55.55775	-6.334739E-012	0.0318078	5
	60	30	0.999041	660220.9	-905732.6	1	1120823	-53.91035	9.702358E-011	0.0318331	4
