EXPLAIN
TAG	EISPOT
TITLE	LABEL	Potentiostatic EIS	Test &Identifier
DATE	LABEL	1/7/2020	Date
TIME	LABEL	17:45:03	Time
NOTES	NOTES	5	&Notes...
	
	
	
	
	
PSTAT	PSTAT	REF600-11020	Potentiostat
VDC	POTEN	0.00000E+000	T	DC &Voltage (V)
FREQINIT	QUANT	1.00000E+006	Initial Fre&q. (Hz)
FREQFINAL	QUANT	1.00000E+000	Final Fre&q. (Hz)
PTSPERDEC	QUANT	1.00000E+001	Points/&decade
VAC	QUANT	2.50000E+001	AC &Voltage (mV rms)
AREA	QUANT	1.00000E-001	&Area (cm^2)
CONDIT	TWOPARAM	T	5.00000E+000	0.00000E+000	Conditionin&g	Time(s)	E(V)
DELAY	TWOPARAM	T	5.00000E+000	0.00000E+000	Init. De&lay	Time(s)	Stab.(mV/s)
SPEED	SELECTOR	0	&Optimize for:
ZGUESS	QUANT	1.00000E+003	E&stimated Z (ohms)
OCVCURVE	TABLE	19
	Pt	T	Vf	Vm	Ach	Over
	#	s	V vs. Ref.	V	V	bits
	0	0.258333	2.41036E-003	2.41036E-003	5.92280E-004	...........
	1	0.516667	2.40625E-003	2.19494E-003	5.96280E-004	...........
	2	0.775	2.38268E-003	2.07968E-003	5.95447E-004	...........
	3	1.03333	2.32129E-003	1.95060E-003	5.97314E-004	...........
	4	1.29167	2.22084E-003	1.82602E-003	5.97280E-004	...........
	5	1.55	2.09745E-003	1.70119E-003	5.97280E-004	...........
	6	1.80833	1.96751E-003	1.58581E-003	5.98147E-004	...........
	7	2.06667	1.83940E-003	1.47043E-003	6.02414E-004	...........
	8	2.325	1.71584E-003	1.36234E-003	6.00747E-004	...........
	9	2.58333	1.59721E-003	1.25744E-003	5.98414E-004	...........
	10	2.84167	1.48337E-003	1.16224E-003	5.99314E-004	...........
	11	3.1	1.37446E-003	1.06671E-003	6.00180E-004	...........
	12	3.35833	1.27069E-003	9.78233E-004	6.01880E-004	...........
	13	3.61667	1.17181E-003	8.88060E-004	6.05714E-004	...........
	14	3.875	1.07697E-003	7.94276E-004	6.02414E-004	...........
	15	4.13333	9.84849E-004	7.13583E-004	5.96380E-004	...........
	16	4.39167	8.94729E-004	6.35143E-004	5.95180E-004	...........
	17	4.65	8.07257E-004	5.60386E-004	5.95347E-004	...........
	18	4.90833	7.23534E-004	4.87390E-004	5.98814E-004	...........
EOC	QUANT	0.0007235	Open Circuit (V)
PSTATMODEL	IQUANT	4	Pstat Model
PSTATSECTION	LABEL	REF600-11020	Pstat Section
PSTATSERIALNO	LABEL	11020	Pstat Serial Number
CTRLMODE	IQUANT	1	Control Mode
IESTAB	IQUANT	0	I/E Stability
CASPEED	IQUANT	1	Control Amp Speed
CONVENTION	IQUANT	1	Current Convention
ICHRANGE	IQUANT	2	Ich Range
ICHRANGEMODE	TOGGLE	F	Ich Auto Range
ICHOFFSETENABLE	TOGGLE	T	Ich Offset Enable
ICHOFFSET	QUANT	0	Ich Offset (V)
ICHFILTER	IQUANT	3	Ich Filter
VCHRANGE	IQUANT	2	Vch Range
VCHRANGEMODE	TOGGLE	F	Vch Auto Range
VCHOFFSETENABLE	TOGGLE	T	Vch Offset Enable
VCHOFFSET	QUANT	0	Vch Offset (V)
VCHFILTER	IQUANT	3	Vch Filter
ACHRANGE	IQUANT	2	Ach Range
ACHOFFSETENABLE	TOGGLE	F	Ach Offset Enable
ACHOFFSET	QUANT	0	Ach Offset (V)
ACHFILTER	IQUANT	3	Ach Filter
IERANGELOWERLIMIT	IQUANT	1	I/E Range Lower Limit
IERANGEMODE	TOGGLE	F	I/E AutoRange
IERANGE	IQUANT	6	I/E Range
POSFEEDENABLE	TOGGLE	F	Positive Feedback IR Comp
POSFEEDRESISTANCE	QUANT	0	Positive Feedback Resistance (ohm)
ACHSELECT	IQUANT	0	Ach Select
CABLEID	IQUANT	14	Cable ID
DCCALDATE	LABEL	12/22/2019	DC Calibration Date
ACCALDATE	LABEL	12/22/2019	AC Calibration Date
THERMOSELECT	IQUANT	1	Thermo Select
FRAMEWORKVERSION	QUANT	6.33	Framework Version
INSTRUMENTVERSION	LABEL	3.50	Instrument Version
ZCURVE	TABLE
	Pt	Time	Freq	Zreal	Zimag	Zsig	Zmod	Zphz	Idc	Vdc	IERange
	#	s	Hz	ohm	ohm	V	ohm	°	A	V	#
	0	1	1000078	1354.443	-832.2817	1	1589.72	-31.57	-1.388074E-005	0.0050524	8
	1	1	794390.6	1507.782	-825.4749	1	1718.958	-28.69966	5.680598E-006	0.0021713	8
	2	1	630984.4	1649.546	-804.3716	1	1835.216	-25.99534	-4.224511E-006	0.0027201	8
	3	2	501234.4	1802.804	-757.9139	1	1955.642	-22.80229	-1.624745E-006	0.0032411	8
	4	2	398109.4	1910.722	-719.8892	1	2041.837	-20.64455	3.282714E-006	0.0017896	8
	5	2	316265.6	2026.686	-677.7563	1	2137.01	-18.49076	-8.116231E-006	0.004142	8
	6	3	251203.1	2122.836	-621.3682	1	2211.907	-16.3151	-2.229551E-006	0.0029593	8
	7	3	199546.9	2210.11	-570.9542	1	2282.669	-14.48495	8.706447E-006	0.0006795	8
	8	3	158578.1	2284.682	-521.922	1	2343.539	-12.86807	-2.181886E-006	0.0030873	8
	9	4	125953.1	2376.631	-434.8975	1	2416.094	-10.36977	-7.391537E-008	0.0025947	7
	10	4	100078.1	2423.856	-393.8825	1	2455.651	-9.23002	-8.605602E-008	0.0024904	7
	11	4	79453.13	2468.512	-370.4992	1	2496.162	-8.535812	1.958762E-007	0.002023	7
	12	4	63140.62	2509.312	-351.2763	1	2533.78	-7.968997	6.794175E-009	0.002338	7
	13	5	50203.12	2546.62	-337.0909	1	2568.833	-7.54029	-3.418804E-008	0.0024497	7
	14	5	39890.62	2582.327	-327.7251	1	2603.04	-7.232786	-7.243857E-008	0.00235	7
	15	5	31640.63	2615.655	-324.0919	1	2635.657	-7.063216	-8.815483E-008	0.0024809	7
	16	6	25171.88	2647.8	-326.1031	1	2667.805	-7.021193	6.935566E-008	0.0020805	7
	17	6	20015.62	2679.151	-336.0585	1	2700.145	-7.149539	-3.500236E-008	0.0022924	7
	18	6	15890.62	2710.454	-351.035	1	2733.091	-7.379386	-4.71681E-008	0.0023206	7
	19	7	12609.37	2741.031	-375.2213	1	2766.594	-7.794804	-1.820947E-008	0.0023594	7
	20	7	10078.13	2772.48	-406.8455	1	2802.172	-8.348242	1.970511E-007	0.0020136	7
	21	7	8015.625	2804.078	-449.5157	1	2839.88	-9.107473	3.270997E-008	0.0022785	7
	22	8	6328.125	2839.992	-507.7746	1	2885.029	-10.13705	3.456332E-008	0.0022783	7
	23	8	5015.625	2876.989	-578.7271	1	2934.619	-11.37367	-1.175916E-009	0.0022005	7
	24	8	3984.375	2915.961	-668.1932	1	2991.54	-12.90652	3.188797E-008	0.0021734	7
	25	9	3170.956	2957.981	-778.1771	1	3058.629	-14.73923	-7.477966E-008	0.002403	7
	26	9	2527.573	3003.305	-913.1619	1	3139.062	-16.91202	1.298623E-007	0.0020596	7
	27	9	1976.103	3058.701	-1096.915	1	3249.442	-19.72891	-4.759159E-008	0.002319	7
	28	9	1577.524	3116.327	-1304.411	1	3378.311	-22.71288	-8.702196E-008	0.0024102	7
	29	10	1265.625	3180.362	-1552.483	1	3539.054	-26.01916	-1.773129E-008	0.0023555	7
	30	10	998.264	3263.131	-1882.619	1	3767.264	-29.98221	-8.220344E-008	0.0023719	7
	31	10	796.875	3355.43	-2266.076	1	4048.952	-34.03296	1.303248E-007	0.0020524	7
	32	11	627.7902	3473.174	-2769.271	1	4442.048	-38.56646	-3.154027E-008	0.0024357	7
	33	11	505.5147	3606.562	-3321.063	1	4902.728	-42.64008	7.008382E-008	0.0020681	7
	34	11	397.9953	3776.948	-4069.824	1	5552.369	-47.13754	6.031848E-009	0.0022976	7
	35	12	315.5048	3983.957	-4961.079	1	6362.721	-51.23406	6.581757E-009	0.0022972	7
	36	12	252.4038	4225.211	-6004.099	1	7341.771	-54.86514	7.159808E-009	0.0022922	7
	37	12	198.6229	4546.958	-7374.956	1	8663.995	-58.34449	7.179362E-009	0.0023009	7
	38	13	158.3615	4925.852	-8963.371	1	10227.71	-61.20885	6.87439E-009	0.0022956	7
	39	13	125.558	5414.323	-10947.65	1	12213.35	-63.68462	1.210433E-009	0.0022976	6
	40	13	100.4464	6006.933	-13276.27	1	14571.98	-65.65533	2.7941E-010	0.0022937	6
	41	14	79.00281	6822.732	-16334.78	1	17702.39	-67.33061	1.009455E-009	0.0022925	6
	42	14	63.3446	7788.461	-19639.73	1	21127.68	-68.36837	7.369766E-010	0.0022907	6
	43	14	49.86702	9170.744	-24120.16	1	25804.74	-69.18266	3.798234E-010	0.0022896	6
	44	15	39.72458	10858.63	-29278.28	1	31227.03	-69.65137	1.674131E-009	0.0022933	6
	45	15	31.6723	13034.84	-35344.63	1	37671.61	-69.7564	1.119264E-009	0.0022915	6
	46	15	24.93351	16113.79	-43013.1	1	45932.35	-69.46279	4.247604E-010	0.0022898	6
	47	16	19.86229	19912.89	-51579.37	1	55289.74	-68.89027	1.258473E-009	0.0022969	6
	48	16	15.83615	24783.56	-61134.77	1	65967.3	-67.93275	-1.291851E-009	0.0022901	6
	49	16	12.40079	31473.98	-73488.11	1	79944.44	-66.81519	-1.488411E-009	0.0023011	6
	50	17	9.93114	38835.55	-86251.06	1	94590.94	-65.75979	-3.82713E-010	0.0022935	6
	51	17	7.944915	48117	-100388.9	1	111324.6	-64.39132	8.707426E-010	0.0022934	5
	52	17	6.317385	58665.06	-116934.7	1	130825.5	-63.3575	-2.070631E-010	0.0023072	5
	53	18	5.008013	71574.87	-135582.6	1	153315.4	-62.17016	2.549902E-010	0.0022958	5
	54	19	3.945707	86553.6	-156976.2	1	179256.9	-61.12851	3.224981E-010	0.0022819	5
	55	20	3.158693	102115.7	-180098.2	1	207033.8	-60.44677	6.403757E-010	0.0022901	5
	56	22	2.504006	120178.1	-207618	1	239891.7	-59.93593	5.028627E-010	0.0022946	5
	57	23	1.998082	139497.6	-238759.6	1	276524.4	-59.70398	3.202701E-010	0.0022489	5
	58	25	1.584686	161266.9	-276252	1	319878.4	-59.72501	3.930038E-010	0.0022863	5
	59	27	1.266892	186120.6	-319261.6	1	369552.3	-59.759	4.989559E-010	0.0023178	5
	60	29	0.999041	217216.4	-373681.4	1	432227.7	-59.83109	5.502576E-010	0.0023274	5
