EXPLAIN
TAG	EISPOT
TITLE	LABEL	Potentiostatic EIS	Test &Identifier
DATE	LABEL	2/13/2020	Date
TIME	LABEL	10:49:40	Time
NOTES	NOTES	1	&Notes...
	
PSTAT	PSTAT	REF600-11020	Potentiostat
VDC	POTEN	0.00000E+000	T	DC &Voltage (V)
FREQINIT	QUANT	1.00000E+006	Initial Fre&q. (Hz)
FREQFINAL	QUANT	1.00000E+000	Final Fre&q. (Hz)
PTSPERDEC	QUANT	1.00000E+001	Points/&decade
VAC	QUANT	2.50000E+001	AC &Voltage (mV rms)
AREA	QUANT	5.00000E-004	&Area (cm^2)
CONDIT	TWOPARAM	F	1.50000E+001	0.00000E+000	Conditionin&g	Time(s)	E(V)
DELAY	TWOPARAM	F	1.00000E+002	0.00000E+000	Init. De&lay	Time(s)	Stab.(mV/s)
SPEED	SELECTOR	0	&Optimize for:
ZGUESS	QUANT	1.00000E+003	E&stimated Z (ohms)
OCVCURVE	TABLE	39
	Pt	T	Vf	Vm	Ach	Over
	#	s	V vs. Ref.	V	V	bits
	0	0.258333	5.86287E-002	5.86287E-002	5.81237E-004	...........
	1	0.516667	5.86287E-002	5.86268E-002	5.77037E-004	...........
	2	0.775	5.86286E-002	5.86314E-002	5.84137E-004	...........
	3	1.03333	5.86287E-002	5.86368E-002	5.76071E-004	...........
	4	1.29167	5.86300E-002	5.86508E-002	5.77504E-004	...........
	5	1.55	5.86334E-002	5.86487E-002	5.81304E-004	...........
	6	1.80833	5.86386E-002	5.86485E-002	5.84271E-004	...........
	7	2.06667	5.86437E-002	5.86476E-002	5.72404E-004	...........
	8	2.325	5.86470E-002	5.86545E-002	5.74104E-004	...........
	9	2.58333	5.86489E-002	5.86501E-002	5.78704E-004	...........
	10	2.84167	5.86502E-002	5.86596E-002	5.83904E-004	...........
	11	3.1	5.86519E-002	5.86606E-002	5.78371E-004	...........
	12	3.35833	5.86544E-002	5.86737E-002	5.72638E-004	...........
	13	3.61667	5.86583E-002	5.86714E-002	5.83871E-004	...........
	14	3.875	5.86632E-002	5.86769E-002	5.82237E-004	...........
	15	4.13333	5.86679E-002	5.86661E-002	5.77171E-004	...........
	16	4.39167	5.86709E-002	5.86725E-002	5.77571E-004	...........
	17	4.65	5.86718E-002	5.86693E-002	5.87237E-004	...........
	18	4.90833	5.86717E-002	5.86850E-002	5.78937E-004	...........
	19	5.16667	5.86724E-002	5.86814E-002	5.73771E-004	...........
	20	5.425	5.86750E-002	5.86859E-002	5.79404E-004	...........
	21	5.68333	5.86787E-002	5.86910E-002	5.81104E-004	...........
	22	5.94167	5.86825E-002	5.86961E-002	5.81504E-004	...........
	23	6.2	5.86864E-002	5.86943E-002	5.71404E-004	...........
	24	6.45833	5.86901E-002	5.86963E-002	5.78004E-004	...........
	25	6.71667	5.86930E-002	5.87017E-002	5.82037E-004	...........
	26	6.975	5.86956E-002	5.87112E-002	5.77637E-004	...........
	27	7.23333	5.86990E-002	5.87273E-002	5.81871E-004	...........
	28	7.49167	5.87048E-002	5.87391E-002	5.83237E-004	...........
	29	7.75	5.87137E-002	5.87474E-002	5.84004E-004	...........
	30	8.00833	5.87242E-002	5.87341E-002	5.78671E-004	...........
	31	8.26667	5.87330E-002	5.87360E-002	5.73571E-004	...........
	32	8.525	5.87378E-002	5.87442E-002	5.79671E-004	...........
	33	8.78333	5.87397E-002	5.87624E-002	5.82737E-004	...........
	34	9.04167	5.87429E-002	5.87882E-002	5.76704E-004	...........
	35	9.3	5.87511E-002	5.88034E-002	5.78004E-004	...........
	36	9.5583	5.87642E-002	5.87779E-002	5.86304E-004	...........
	37	9.8167	5.87772E-002	5.87815E-002	5.80937E-004	...........
	38	10.075	5.87844E-002	5.87730E-002	5.78171E-004	...........
EOC	QUANT	0.0587844	Open Circuit (V)
PSTATMODEL	IQUANT	4	Pstat Model
PSTATSECTION	LABEL	REF600-11020	Pstat Section
PSTATSERIALNO	LABEL	11020	Pstat Serial Number
CTRLMODE	IQUANT	1	Control Mode
IESTAB	IQUANT	0	I/E Stability
CASPEED	IQUANT	1	Control Amp Speed
CONVENTION	IQUANT	1	Current Convention
ICHRANGE	IQUANT	2	Ich Range
ICHRANGEMODE	TOGGLE	F	Ich Auto Range
ICHOFFSETENABLE	TOGGLE	T	Ich Offset Enable
ICHOFFSET	QUANT	0	Ich Offset (V)
ICHFILTER	IQUANT	3	Ich Filter
VCHRANGE	IQUANT	2	Vch Range
VCHRANGEMODE	TOGGLE	F	Vch Auto Range
VCHOFFSETENABLE	TOGGLE	T	Vch Offset Enable
VCHOFFSET	QUANT	0	Vch Offset (V)
VCHFILTER	IQUANT	3	Vch Filter
ACHRANGE	IQUANT	2	Ach Range
ACHOFFSETENABLE	TOGGLE	F	Ach Offset Enable
ACHOFFSET	QUANT	0	Ach Offset (V)
ACHFILTER	IQUANT	3	Ach Filter
IERANGELOWERLIMIT	IQUANT	1	I/E Range Lower Limit
IERANGEMODE	TOGGLE	F	I/E AutoRange
IERANGE	IQUANT	8	I/E Range
POSFEEDENABLE	TOGGLE	F	Positive Feedback IR Comp
POSFEEDRESISTANCE	QUANT	0	Positive Feedback Resistance (ohm)
ACHSELECT	IQUANT	0	Ach Select
CABLEID	IQUANT	14	Cable ID
DCCALDATE	LABEL	1/27/2020	DC Calibration Date
ACCALDATE	LABEL	1/27/2020	AC Calibration Date
THERMOSELECT	IQUANT	1	Thermo Select
FRAMEWORKVERSION	QUANT	6.33	Framework Version
INSTRUMENTVERSION	LABEL	3.50	Instrument Version
ZCURVE	TABLE
	Pt	Time	Freq	Zreal	Zimag	Zsig	Zmod	Zphz	Idc	Vdc	IERange
	#	s	Hz	ohm	ohm	V	ohm	°	A	V	#
	0	1	1000078	1837.39	-1931.066	1	2665.524	-46.42395	-1.268894E-006	0.0609993	8
	1	1	794390.6	2234.315	-2039.513	1	3025.19	-42.39024	-1.280539E-006	0.0611167	8
	2	1	630984.4	2655.021	-2077.489	1	3371.216	-38.0423	1.151245E-006	0.0602785	8
	3	2	501234.4	3085.913	-2032.54	1	3695.143	-33.37094	2.660215E-008	0.0604059	8
	4	2	398109.4	3487.287	-1917.385	1	3979.641	-28.80294	7.193266E-007	0.0601762	8
	5	2	316265.6	3832.791	-1773.907	1	4223.391	-24.83582	1.208471E-006	0.0600382	8
	6	3	251203.1	4128	-1587.111	1	4422.591	-21.03049	-4.371063E-007	0.0603924	8
	7	3	199546.9	4344.53	-1409.287	1	4567.388	-17.97213	1.219992E-006	0.0600465	8
	8	3	158578.1	4515.418	-1214.118	1	4675.798	-15.0499	-1.334462E-006	0.0606166	8
	9	4	125953.1	4685.69	-1020.737	1	4795.581	-12.2894	1.088657E-007	0.0600422	7
	10	4	100078.1	4785.392	-889.7346	1	4867.402	-10.53258	-2.970955E-008	0.0602935	7
	11	4	79453.13	4862.188	-785.2674	1	4925.192	-9.174331	-1.472156E-008	0.0602514	7
	12	5	63140.62	4926.208	-705.2391	1	4976.434	-8.147142	-3.130035E-008	0.060358	7
	13	5	50203.12	4980.469	-644.7516	1	5022.029	-7.376259	-1.456997E-008	0.0602498	7
	14	5	39890.62	5028.511	-603.0456	1	5064.542	-6.838553	5.353057E-009	0.0602335	7
	15	6	31640.63	5075.6	-580.0369	1	5108.636	-6.519449	8.326992E-008	0.060173	7
	16	6	25171.88	5118.18	-573.6974	1	5150.232	-6.395595	1.980973E-008	0.0602437	7
	17	6	20015.62	5160.442	-582.4582	1	5193.209	-6.439711	4.358795E-008	0.0602655	7
	18	7	15890.62	5203.166	-609.6174	1	5238.756	-6.682468	4.355044E-008	0.0602624	7
	19	7	12609.37	5248.008	-652.7575	1	5288.448	-7.090147	7.977881E-008	0.0601287	7
	20	7	10078.13	5290.973	-713.6714	1	5338.888	-7.681961	4.432086E-008	0.060162	7
	21	8	8015.625	5338.445	-799.1601	1	5397.93	-8.513901	8.321053E-008	0.0601661	7
	22	8	6328.125	5389.598	-913.6012	1	5466.483	-9.62086	4.539915E-008	0.0601681	7
	23	8	5015.625	5444.665	-1059.318	1	5546.759	-11.00996	8.31871E-008	0.0601681	7
	24	8	3984.375	5502.628	-1240.665	1	5640.76	-12.70589	2.785144E-008	0.0602844	7
	25	9	3170.956	5568.955	-1465.824	1	5758.637	-14.74654	-2.863281E-008	0.0602626	7
	26	9	2527.573	5643.84	-1743.25	1	5906.933	-17.16469	-1.818923E-008	0.0603385	7
	27	9	1976.103	5735.294	-2120.371	1	6114.702	-20.28964	-3.3522E-008	0.0603203	7
	28	10	1577.524	5839.013	-2550.08	1	6371.576	-23.5924	3.746785E-008	0.0601444	7
	29	10	1265.625	5957.704	-3061.433	1	6698.254	-27.19687	-3.750548E-008	0.060282	7
	30	10	998.264	6115.845	-3738.933	1	7168.206	-31.4396	-1.66069E-008	0.0603329	7
	31	11	796.875	6299.17	-4523.084	1	7754.859	-35.68003	4.726058E-008	0.0601565	7
	32	11	627.7902	6540.286	-5544.897	1	8574.451	-40.2915	-3.682025E-008	0.0602848	7
	33	11	505.5147	6811.547	-6667.633	1	9531.76	-44.38829	2.761243E-008	0.0602146	7
	34	12	397.9953	7182.061	-8178.516	1	10884.4	-48.71163	1.010646E-009	0.0602657	6
	35	12	315.5048	7628.707	-9968.08	1	12552.28	-52.57268	6.482049E-010	0.0602647	6
	36	12	252.4038	8157.496	-12049.34	1	14550.99	-55.9017	1.292399E-009	0.060265	6
	37	13	198.6229	8856.927	-14760.69	1	17214.04	-59.03478	8.341323E-010	0.0602608	6
	38	13	158.3615	9673.02	-17872.33	1	20322.1	-61.57646	7.089752E-010	0.0602522	6
	39	13	125.558	10691.63	-21741.31	1	24227.99	-63.81362	1.037218E-009	0.0602564	6
	40	14	100.4464	11911.05	-26233.02	1	28810.49	-65.57967	1.399239E-010	0.0602512	6
	41	14	79.00281	13551.17	-32140.89	1	34880.81	-67.13884	8.322439E-010	0.0602491	6
	42	14	63.3446	15017.17	-38667.69	1	41481.39	-68.77558	1.039818E-009	0.0602481	6
	43	15	49.86702	17545.4	-47305.97	1	50454.89	-69.6506	1.007392E-009	0.0602475	6
	44	15	39.72458	20788.94	-57414.27	1	61062.09	-70.09535	9.312121E-010	0.0602483	6
	45	15	31.6723	24679.66	-69303.7	1	73566.89	-70.39874	6.209121E-010	0.0602516	6
	46	16	24.93351	29784.01	-84659.73	1	89746.06	-70.6177	5.204336E-010	0.0602472	6
	47	16	19.86229	36247.04	-102101.4	1	108344.5	-70.45461	2.999034E-010	0.0602458	5
	48	16	15.83615	44007.87	-122485.3	1	130151.2	-70.2371	-1.195636E-010	0.0602448	5
	49	17	12.40079	57039.89	-148759.3	1	159320	-69.0213	-1.044495E-009	0.0602512	5
	50	17	9.93114	70284.7	-177157.6	1	190590.5	-68.36002	4.217853E-010	0.0602505	5
	51	17	7.944915	87569.79	-209635.2	1	227190.2	-67.3285	1.320264E-010	0.0602541	5
	52	18	6.317385	109869.1	-247012	1	270344.5	-66.02085	1.760307E-010	0.0602413	5
	53	19	5.008013	138147.5	-290330.7	1	321522.3	-64.55357	3.258084E-010	0.0602508	5
	54	20	3.945707	173792.4	-339726	1	381598.7	-62.90724	-3.801496E-011	0.0602389	5
	55	21	3.158693	214219.3	-390806.1	1	445667.3	-61.27077	1.261552E-010	0.060226	5
	56	23	2.504006	262846.4	-448848.4	1	520147.3	-59.64669	2.373737E-010	0.0602377	5
	57	24	1.998082	317558	-509508	1	600367.8	-58.0662	-7.244259E-012	0.0602	5
	58	26	1.584686	380043	-579582.4	1	693071.8	-56.7464	-4.709856E-011	0.060199	5
	59	28	1.266892	446865.1	-651345.9	1	789898.6	-55.54738	7.727769E-012	0.0602379	5
	60	30	0.999041	526518.5	-736055.9	1	904986.3	-54.42295	4.916997E-011	0.060264	5
