EXPLAIN
TAG	EISPOT
TITLE	LABEL	Potentiostatic EIS	Test &Identifier
DATE	LABEL	6/19/2020	Date
TIME	LABEL	16:26:38	Time
NOTES	NOTES	1	&Notes...
	
PSTAT	PSTAT	REF600-10037	Potentiostat
VDC	POTEN	0.00000E+000	T	DC &Voltage (V)
FREQINIT	QUANT	1.00000E+006	Initial Fre&q. (Hz)
FREQFINAL	QUANT	1.00000E+000	Final Fre&q. (Hz)
PTSPERDEC	QUANT	1.00000E+001	Points/&decade
VAC	QUANT	1.00000E+002	AC &Voltage (mV rms)
AREA	QUANT	2.50000E-001	&Area (cm^2)
CONDIT	TWOPARAM	F	5.00000E+000	0.00000E+000	Conditionin&g	Time(s)	E(V)
DELAY	TWOPARAM	F	5.00000E+000	0.00000E+000	Init. De&lay	Time(s)	Stab.(mV/s)
SPEED	SELECTOR	0	&Optimize for:
ZGUESS	QUANT	1.00000E+003	E&stimated Z (ohms)
OCVCURVE	TABLE	39
	Pt	T	Vf	Vm	Ach	Over
	#	s	V vs. Ref.	V	V	bits
	0	0.258333	3.86979E-002	3.86979E-002	5.27287E-004	...........
	1	0.516667	3.86980E-002	3.87048E-002	5.30487E-004	...........
	2	0.775	3.86989E-002	3.87161E-002	5.24587E-004	...........
	3	1.03333	3.87017E-002	3.87239E-002	5.25821E-004	...........
	4	1.29167	3.87071E-002	3.87357E-002	5.31854E-004	...........
	5	1.55	3.87149E-002	3.87475E-002	5.29587E-004	...........
	6	1.80833	3.87245E-002	3.87619E-002	5.26254E-004	...........
	7	2.06667	3.87355E-002	3.87737E-002	5.26587E-004	...........
	8	2.325	3.87474E-002	3.87824E-002	5.33287E-004	...........
	9	2.58333	3.87594E-002	3.87901E-002	5.29554E-004	...........
	10	2.84167	3.87707E-002	3.88000E-002	5.33787E-004	...........
	11	3.1	3.87807E-002	3.88037E-002	5.35821E-004	...........
	12	3.35833	3.87896E-002	3.88143E-002	5.30921E-004	...........
	13	3.61667	3.87977E-002	3.88247E-002	5.30954E-004	...........
	14	3.875	3.88057E-002	3.88359E-002	5.29887E-004	...........
	15	4.13333	3.88146E-002	3.88465E-002	5.26821E-004	...........
	16	4.39167	3.88243E-002	3.88523E-002	5.33187E-004	...........
	17	4.65	3.88341E-002	3.88577E-002	5.27787E-004	...........
	18	4.90833	3.88432E-002	3.88657E-002	5.29887E-004	...........
	19	5.16667	3.88512E-002	3.88750E-002	5.31587E-004	...........
	20	5.425	3.88585E-002	3.88812E-002	5.28687E-004	...........
	21	5.68333	3.88659E-002	3.88888E-002	5.30387E-004	...........
	22	5.94167	3.88734E-002	3.88956E-002	5.29454E-004	...........
	23	6.2	3.88808E-002	3.89043E-002	5.28754E-004	...........
	24	6.45833	3.88883E-002	3.89138E-002	5.29187E-004	...........
	25	6.71667	3.88961E-002	3.89252E-002	5.24521E-004	...........
	26	6.975	3.89045E-002	3.89308E-002	5.30654E-004	...........
	27	7.23333	3.89134E-002	3.89380E-002	5.34387E-004	...........
	28	7.49167	3.89221E-002	3.89442E-002	5.34287E-004	...........
	29	7.75	3.89300E-002	3.89508E-002	5.35054E-004	...........
	30	8.00833	3.89372E-002	3.89592E-002	5.33454E-004	...........
	31	8.26667	3.89441E-002	3.89674E-002	5.30987E-004	...........
	32	8.525	3.89512E-002	3.89720E-002	5.33821E-004	...........
	33	8.78333	3.89584E-002	3.89789E-002	5.33721E-004	...........
	34	9.04167	3.89654E-002	3.89865E-002	5.30054E-004	...........
	35	9.3	3.89722E-002	3.89966E-002	5.31287E-004	...........
	36	9.5583	3.89793E-002	3.90023E-002	5.35987E-004	...........
	37	9.8167	3.89867E-002	3.90095E-002	5.33254E-004	...........
	38	10.075	3.89944E-002	3.90166E-002	5.33054E-004	...........
EOC	QUANT	0.0389944	Open Circuit (V)
PSTATMODEL	IQUANT	4	Pstat Model
PSTATSECTION	LABEL	REF600-10037	Pstat Section
PSTATSERIALNO	LABEL	10037	Pstat Serial Number
CTRLMODE	IQUANT	1	Control Mode
IESTAB	IQUANT	0	I/E Stability
CASPEED	IQUANT	1	Control Amp Speed
CONVENTION	IQUANT	1	Current Convention
ICHRANGE	IQUANT	2	Ich Range
ICHRANGEMODE	TOGGLE	F	Ich Auto Range
ICHOFFSETENABLE	TOGGLE	T	Ich Offset Enable
ICHOFFSET	QUANT	0	Ich Offset (V)
ICHFILTER	IQUANT	3	Ich Filter
VCHRANGE	IQUANT	2	Vch Range
VCHRANGEMODE	TOGGLE	F	Vch Auto Range
VCHOFFSETENABLE	TOGGLE	T	Vch Offset Enable
VCHOFFSET	QUANT	0	Vch Offset (V)
VCHFILTER	IQUANT	3	Vch Filter
ACHRANGE	IQUANT	2	Ach Range
ACHOFFSETENABLE	TOGGLE	F	Ach Offset Enable
ACHOFFSET	QUANT	0	Ach Offset (V)
ACHFILTER	IQUANT	3	Ach Filter
IERANGELOWERLIMIT	IQUANT	1	I/E Range Lower Limit
IERANGEMODE	TOGGLE	F	I/E AutoRange
IERANGE	IQUANT	7	I/E Range
POSFEEDENABLE	TOGGLE	F	Positive Feedback IR Comp
POSFEEDRESISTANCE	QUANT	0	Positive Feedback Resistance (ohm)
ACHSELECT	IQUANT	0	Ach Select
CABLEID	IQUANT	14	Cable ID
DCCALDATE	LABEL	6/8/2020	DC Calibration Date
ACCALDATE	LABEL	6/8/2020	AC Calibration Date
THERMOSELECT	IQUANT	1	Thermo Select
FRAMEWORKVERSION	QUANT	6.33	Framework Version
INSTRUMENTVERSION	LABEL	3.50	Instrument Version
ZCURVE	TABLE
	Pt	Time	Freq	Zreal	Zimag	Zsig	Zmod	Zphz	Idc	Vdc	IERange
	#	s	Hz	ohm	ohm	V	ohm	°	A	V	#
	0	2	1000078	2106.396	-1822.308	1	2785.267	-40.86408	8.77151E-008	0.0479871	8
	1	2	794390.6	2484.226	-1860.152	1	3103.473	-36.82534	1.091332E-007	0.0477436	8
	2	2	630984.4	2859.114	-1833.539	1	3396.527	-32.6719	8.455399E-008	0.0475568	8
	3	3	501234.4	3208.667	-1750.358	1	3655.038	-28.61288	6.506581E-008	0.0474761	8
	4	3	398109.4	3514.52	-1624.931	1	3871.983	-24.81336	7.217686E-008	0.0474662	8
	5	3	316265.6	3773.468	-1484.414	1	4054.94	-21.47378	7.243303E-008	0.0474016	8
	6	4	251203.1	3983.614	-1337.696	1	4202.215	-18.56203	3.467546E-008	0.0474256	8
	7	4	199546.9	4149.982	-1197.052	1	4319.176	-16.09008	6.407517E-008	0.0474511	8
	8	4	158578.1	4287.081	-1078.015	1	4420.541	-14.11476	1.022928E-007	0.0474611	8
	9	5	125953.1	4445.063	-889.1276	1	4533.115	-11.31136	3.662339E-010	0.0475082	7
	10	5	100078.1	4539.04	-814.5252	1	4611.543	-10.17338	5.407045E-009	0.0474718	7
	11	5	79453.13	4610.59	-776.3735	1	4675.5	-9.55832	1.955107E-008	0.0474488	7
	12	6	63140.62	4674.608	-757.1003	1	4735.521	-9.19975	-1.548064E-010	0.0474287	7
	13	6	50203.12	4742.066	-758.2977	1	4802.313	-9.085177	7.910355E-009	0.0474086	7
	14	6	39890.62	4807.16	-778.9406	1	4869.859	-9.204072	-9.423388E-010	0.0474112	7
	15	7	31640.63	4879.028	-817.7198	1	4947.078	-9.51428	-1.692423E-009	0.047407	7
	16	7	25171.88	4954.861	-874.0035	1	5031.354	-10.00368	3.453591E-009	0.0474095	7
	17	7	20015.62	5037.308	-949.2039	1	5125.959	-10.67139	-1.714397E-009	0.0474098	7
	18	7	15890.62	5127.976	-1045.635	1	5233.497	-11.52507	1.322678E-008	0.0474132	7
	19	8	12609.37	5228.738	-1166.521	1	5357.282	-12.57662	1.285171E-008	0.0474131	7
	20	8	10078.13	5337.629	-1306.371	1	5495.17	-13.75265	-4.833527E-009	0.0473905	7
	21	8	8015.625	5459.266	-1480.25	1	5656.388	-15.17068	4.436489E-009	0.047411	7
	22	9	6328.125	5601.924	-1693.041	1	5852.174	-16.81613	1.460969E-008	0.0474107	7
	23	9	5015.625	5759.82	-1941.879	1	6078.357	-18.63113	-5.708662E-009	0.0474053	7
	24	9	3984.375	5936.472	-2232.669	1	6342.438	-20.61095	8.874634E-009	0.0474055	7
	25	10	3170.956	6136	-2578.662	1	6655.824	-22.79465	-5.263343E-009	0.0473957	7
	26	10	2527.573	6359.66	-2979.056	1	7022.824	-25.09981	-6.404064E-009	0.0473979	7
	27	10	1976.103	6636.995	-3494.554	1	7500.774	-27.76799	1.204068E-008	0.0474095	7
	28	11	1577.524	6927.729	-4057.671	1	8028.581	-30.35813	1.429097E-008	0.0474058	7
	29	11	1265.625	7243.533	-4695.617	1	8632.357	-32.9533	-4.960111E-009	0.0473815	7
	30	11	998.264	7639.743	-5532.39	1	9432.55	-35.91052	-4.938248E-009	0.0474137	7
	31	12	796.875	8068.483	-6466.142	1	10339.8	-38.70894	1.667249E-008	0.0474115	7
	32	12	627.7902	8579.98	-7638.464	1	11487.48	-41.67758	1.231755E-008	0.0474056	7
	33	12	505.5147	9101.593	-8940.159	1	12757.96	-44.48734	1.105294E-008	0.0474117	7
	34	13	397.9953	9773.47	-10621.7	1	14434.03	-47.38153	6.983538E-009	0.0474268	7
	35	13	315.5048	10525.77	-12619.21	1	16432.79	-50.16828	6.709523E-009	0.0474259	7
	36	13	252.4038	11370.23	-14935.54	1	18771.05	-52.71846	6.261465E-009	0.0474233	7
	37	14	198.6229	12449.62	-17950.8	1	21845.46	-55.25709	6.765442E-009	0.0474249	7
	38	14	158.3615	13657.86	-21295.94	1	25299.29	-57.32648	6.290751E-009	0.0474069	7
	39	14	125.558	15236.71	-25705.5	1	29881.94	-59.34304	7.108545E-009	0.0474258	7
	40	15	100.4464	17089.4	-30650.69	1	35092.91	-60.85799	7.337013E-009	0.0474225	7
	41	15	79.00281	19600.58	-37023.28	1	41891.6	-62.10271	1.67744E-009	0.0474174	6
	42	15	63.3446	22515.68	-44012.71	1	49437.59	-62.90698	1.421643E-009	0.0474184	6
	43	16	49.86702	26504.69	-52968.82	1	59230.02	-63.4174	7.18349E-011	0.0474175	6
	44	16	39.72458	31296.55	-62973.95	1	70322.06	-63.57372	6.146742E-010	0.0474195	6
	45	16	31.6723	37284.8	-74566.22	1	83368.32	-63.43391	7.664055E-010	0.0474179	6
	46	17	24.93351	45184.12	-88711.09	1	99555.3	-63.00843	-1.308711E-009	0.0474165	6
	47	17	19.86229	54722.05	-104537.3	1	117993.8	-62.36932	-9.76961E-009	0.0388479	6
	48	17	15.83615	66428.45	-122113.9	1	139012.7	-61.45435	-7.211479E-009	0.0388427	6
	49	18	12.40079	81149.35	-143050.4	1	164464.7	-60.43471	-5.585496E-009	0.0388454	6
	50	18	9.93114	97203	-164264.1	1	190869.3	-59.38515	-4.454888E-009	0.03885	6
	51	18	7.944915	115905.8	-187770.3	1	220662.2	-58.31403	-3.588691E-009	0.0388489	6
	52	19	6.317385	137688	-214261.2	1	254687.7	-57.27448	-1.975899E-009	0.0388499	6
	53	20	5.008013	162666.8	-244450.7	1	293626.7	-56.35869	-1.344957E-009	0.0388579	6
	54	21	3.945707	191446.1	-279404.9	1	338701.5	-55.58136	-9.375416E-010	0.0388511	6
	55	22	3.158693	221491.2	-316431.4	1	386247.6	-55.00928	-7.180536E-010	0.0388564	6
	56	23	2.504006	257175.2	-360243.8	1	442622.5	-54.47726	-8.197161E-010	0.0388568	5
	57	25	1.998082	294879.3	-408702.8	1	503976	-54.18953	-6.592372E-010	0.0388559	5
	58	27	1.584686	339292.7	-466852.6	1	577122.9	-53.99161	-4.626564E-010	0.0388561	5
	59	30	1.266892	387570.2	-531215.2	1	657571.4	-53.88582	-3.635487E-010	0.0388545	5
	60	33	0.999041	445381	-610077.1	1	755353.1	-53.86904	-4.37683E-010	0.0388486	5
