EXPLAIN
TAG	EISPOT
TITLE	LABEL	Potentiostatic EIS	Test &Identifier
DATE	LABEL	1/7/2020	Date
TIME	LABEL	18:01:11	Time
NOTES	NOTES	5	&Notes...
	
	
	
	
	
PSTAT	PSTAT	REF600-11020	Potentiostat
VDC	POTEN	0.00000E+000	T	DC &Voltage (V)
FREQINIT	QUANT	1.00000E+006	Initial Fre&q. (Hz)
FREQFINAL	QUANT	1.00000E+000	Final Fre&q. (Hz)
PTSPERDEC	QUANT	1.00000E+001	Points/&decade
VAC	QUANT	2.50000E+001	AC &Voltage (mV rms)
AREA	QUANT	1.00000E-001	&Area (cm^2)
CONDIT	TWOPARAM	T	5.00000E+000	0.00000E+000	Conditionin&g	Time(s)	E(V)
DELAY	TWOPARAM	T	5.00000E+000	0.00000E+000	Init. De&lay	Time(s)	Stab.(mV/s)
SPEED	SELECTOR	0	&Optimize for:
ZGUESS	QUANT	1.00000E+003	E&stimated Z (ohms)
OCVCURVE	TABLE	19
	Pt	T	Vf	Vm	Ach	Over
	#	s	V vs. Ref.	V	V	bits
	0	0.258333	6.91494E-003	6.91494E-003	6.75746E-004	...........
	1	0.516667	6.90965E-003	6.63802E-003	6.74179E-004	...........
	2	0.775	6.87678E-003	6.35551E-003	6.72513E-004	...........
	3	1.03333	6.78469E-003	6.19729E-003	6.71646E-004	...........
	4	1.29167	6.61441E-003	5.39295E-003	6.81012E-004	...........
	5	1.55	6.36281E-003	5.57497E-003	6.78513E-004	...........
	6	1.80833	6.06326E-003	5.60570E-003	6.70513E-004	...........
	7	2.06667	5.79454E-003	5.26649E-003	6.71879E-004	...........
	8	2.325	5.59723E-003	4.85350E-003	6.70246E-004	...........
	9	2.58333	5.42657E-003	4.91781E-003	6.75013E-004	...........
	10	2.84167	5.24179E-003	4.84570E-003	6.80379E-004	...........
	11	3.1	5.06834E-003	4.87872E-003	6.74979E-004	...........
	12	3.35833	4.94454E-003	4.71717E-003	6.72813E-004	...........
	13	3.61667	4.86626E-003	4.60474E-003	6.74179E-004	...........
	14	3.875	4.80012E-003	4.55055E-003	6.77113E-004	...........
	15	4.13333	4.72895E-003	4.73017E-003	6.76679E-004	...........
	16	4.39167	4.66056E-003	4.13233E-003	6.72846E-004	...........
	17	4.65	4.58261E-003	4.05214E-003	6.77746E-004	...........
	18	4.90833	4.46486E-003	4.24368E-003	6.82279E-004	...........
EOC	QUANT	0.0044649	Open Circuit (V)
PSTATMODEL	IQUANT	4	Pstat Model
PSTATSECTION	LABEL	REF600-11020	Pstat Section
PSTATSERIALNO	LABEL	11020	Pstat Serial Number
CTRLMODE	IQUANT	1	Control Mode
IESTAB	IQUANT	0	I/E Stability
CASPEED	IQUANT	1	Control Amp Speed
CONVENTION	IQUANT	1	Current Convention
ICHRANGE	IQUANT	2	Ich Range
ICHRANGEMODE	TOGGLE	F	Ich Auto Range
ICHOFFSETENABLE	TOGGLE	T	Ich Offset Enable
ICHOFFSET	QUANT	0	Ich Offset (V)
ICHFILTER	IQUANT	3	Ich Filter
VCHRANGE	IQUANT	2	Vch Range
VCHRANGEMODE	TOGGLE	F	Vch Auto Range
VCHOFFSETENABLE	TOGGLE	T	Vch Offset Enable
VCHOFFSET	QUANT	0	Vch Offset (V)
VCHFILTER	IQUANT	3	Vch Filter
ACHRANGE	IQUANT	2	Ach Range
ACHOFFSETENABLE	TOGGLE	F	Ach Offset Enable
ACHOFFSET	QUANT	0	Ach Offset (V)
ACHFILTER	IQUANT	3	Ach Filter
IERANGELOWERLIMIT	IQUANT	1	I/E Range Lower Limit
IERANGEMODE	TOGGLE	F	I/E AutoRange
IERANGE	IQUANT	6	I/E Range
POSFEEDENABLE	TOGGLE	F	Positive Feedback IR Comp
POSFEEDRESISTANCE	QUANT	0	Positive Feedback Resistance (ohm)
ACHSELECT	IQUANT	0	Ach Select
CABLEID	IQUANT	14	Cable ID
DCCALDATE	LABEL	12/22/2019	DC Calibration Date
ACCALDATE	LABEL	12/22/2019	AC Calibration Date
THERMOSELECT	IQUANT	1	Thermo Select
FRAMEWORKVERSION	QUANT	6.33	Framework Version
INSTRUMENTVERSION	LABEL	3.50	Instrument Version
ZCURVE	TABLE
	Pt	Time	Freq	Zreal	Zimag	Zsig	Zmod	Zphz	Idc	Vdc	IERange
	#	s	Hz	ohm	ohm	V	ohm	°	A	V	#
	0	1	1000078	2155.993	-2460.439	1	3271.401	-48.77309	-3.664982E-006	0.0068652	8
	1	1	794390.6	2656.384	-2624.677	1	3734.341	-44.65601	-1.934853E-006	0.0075449	8
	2	1	630984.4	3180.317	-2743.438	1	4200.104	-40.78206	-9.225101E-006	0.0084218	8
	3	2	501234.4	3682.369	-2751.097	1	4596.562	-36.7634	9.623715E-006	0.0046326	8
	4	2	398109.4	4209.1	-2743.792	1	5024.432	-33.09918	-3.892428E-006	0.0068465	8
	5	2	316265.6	4674.988	-2698.711	1	5398.014	-29.99637	-2.610937E-006	0.0067708	8
	6	3	251203.1	5360.954	-2624.582	1	5968.941	-26.08515	3.673088E-007	0.006168	8
	7	3	199546.9	5519.719	-2341.734	1	5995.917	-22.98903	7.383403E-006	0.0046906	8
	8	3	158578.1	5970.327	-2325.537	1	6407.255	-21.2817	-2.180468E-006	0.0061448	8
	9	4	125953.1	6285.389	-1988.655	1	6592.485	-17.55703	-8.487361E-008	0.0064136	7
	10	4	100078.1	6537.668	-1891.45	1	6805.784	-16.13599	-5.505487E-009	0.0061029	7
	11	5	79453.13	6766.651	-1804.341	1	7003.086	-14.93063	1.497279E-007	0.0057373	7
	12	5	63140.62	6979.367	-1735.19	1	7191.832	-13.96164	-1.118169E-007	0.0062556	7
	13	5	50203.12	7175.377	-1691.094	1	7371.963	-13.26148	4.793039E-008	0.0058557	7
	14	6	39890.62	7366.398	-1668.617	1	7553.02	-12.76311	5.712805E-008	0.0059856	7
	15	6	31640.63	7554.777	-1675.406	1	7738.323	-12.50399	-5.136E-008	0.0062237	7
	16	6	25171.88	7732.812	-1709.488	1	7919.516	-12.46585	-7.398027E-008	0.0061262	7
	17	7	20015.62	7918.589	-1768.896	1	8113.756	-12.59229	-8.395617E-008	0.0060811	7
	18	7	15890.62	8120.577	-1864.557	1	8331.887	-12.93148	-4.270002E-009	0.0060831	7
	19	7	12609.37	8330.832	-1992.703	1	8565.841	-13.45218	1.175371E-007	0.0060142	7
	20	7	10078.13	8535.188	-2131.712	1	8797.364	-14.02307	1.50828E-007	0.0057185	7
	21	8	8015.625	8775.553	-2325.475	1	9078.444	-14.84194	-1.557888E-008	0.0061001	7
	22	8	6328.125	9074.266	-2481.974	1	9407.576	-15.29727	-9.983453E-009	0.0060426	6
	23	8	5015.625	9348.921	-2774.332	1	9751.88	-16.52848	-2.746295E-009	0.0060345	6
	24	9	3984.375	9660.3	-3107.585	1	10147.83	-17.83226	-3.036474E-009	0.005826	6
	25	9	3170.956	10001.8	-3496.044	1	10595.2	-19.26664	-7.587682E-009	0.0063074	6
	26	9	2527.573	10379.11	-3939.251	1	11101.52	-20.78358	2.579188E-008	0.0057419	6
	27	10	1976.103	10849.03	-4490.712	1	11741.71	-22.48602	-1.117236E-008	0.0061735	6
	28	10	1577.524	11339.52	-5087.966	1	12428.68	-24.16545	-9.273982E-009	0.0061627	6
	29	10	1265.625	11869.89	-5740.587	1	13185.16	-25.80963	2.598316E-008	0.0057428	6
	30	11	998.264	12519.04	-6543.709	1	14126.09	-27.59609	-2.376547E-009	0.0058219	6
	31	11	796.875	13211.61	-7416.56	1	15150.97	-29.30842	-9.133499E-009	0.0061616	6
	32	11	627.7902	14010.99	-8474.104	1	16374.31	-31.16633	4.003077E-009	0.0061398	6
	33	12	505.5147	14815.83	-9573.42	1	17639.7	-32.86899	-1.968984E-008	0.0061982	6
	34	12	397.9953	15776.64	-10971.4	1	19216.5	-34.81553	5.494189E-010	0.0060264	6
	35	12	315.5048	16772.96	-12570.64	1	20960.75	-36.85005	1.026857E-009	0.0060305	6
	36	13	252.4038	17786.13	-14393.55	1	22880.58	-38.98175	8.441429E-010	0.006025	6
	37	13	198.6229	18939.76	-16762.26	1	25292.05	-41.50979	5.536722E-010	0.0060269	6
	38	13	158.3615	20096.55	-19501.94	1	28003.52	-44.13971	4.321179E-010	0.0060182	6
	39	14	125.558	21381.4	-22953.03	1	31368.87	-47.03025	8.129996E-010	0.0060245	6
	40	14	100.4464	22771.92	-27077.75	1	35380.29	-49.93674	1.490065E-009	0.0060205	6
	41	14	79.00281	24390.97	-32535.21	1	40662.75	-53.14187	1.356646E-009	0.0060216	6
	42	15	63.3446	26606.01	-38386.7	1	46705.66	-55.27398	5.38212E-010	0.0060147	6
	43	15	49.86702	28986.12	-46759.78	1	55015.2	-58.20547	1.185808E-009	0.0060145	6
	44	15	39.72458	31596.35	-56440.07	1	64682.38	-60.75897	9.912515E-010	0.0060186	6
	45	16	31.6723	35278.28	-68289.84	1	76863.9	-62.67929	4.342969E-010	0.0060165	6
	46	16	24.93351	40279.61	-82883.09	1	92152.34	-64.08113	9.621703E-010	0.0060148	6
	47	16	19.86229	46427.33	-99731	1	110008.1	-65.03683	3.970704E-010	0.0060139	5
	48	16	15.83615	55092.65	-120016.5	1	132057.4	-65.34288	2.100177E-009	0.006012	5
	49	17	12.40079	65043.05	-145502.2	1	159378.5	-65.91418	3.836537E-010	0.0060221	5
	50	17	9.93114	76853.59	-172629.4	1	188964	-66.00166	1.253679E-009	0.006013	5
	51	18	7.944915	91904.15	-204717.5	1	224400.6	-65.82319	7.769247E-010	0.0060219	5
	52	18	6.317385	111569.7	-242690.5	1	267107.6	-65.31081	9.86197E-011	0.0060153	5
	53	19	5.008013	136157	-286694.6	1	317383.8	-64.59602	3.241711E-010	0.0060192	5
	54	20	3.945707	166185.8	-338868.9	1	377425.3	-63.87606	-3.317414E-011	0.0060061	5
	55	22	3.158693	200004.4	-393956.2	1	441818.1	-63.08392	2.11304E-010	0.0060029	5
	56	23	2.504006	240150.9	-459755.2	1	518697.7	-62.4199	3.020147E-010	0.0060123	5
	57	25	1.998082	285782.3	-531770.8	1	603698.3	-61.74569	1.461205E-010	0.0059701	5
	58	26	1.584686	336029.7	-619232.1	1	704531.3	-61.51329	1.445505E-010	0.0059686	5
	59	28	1.266892	392238.3	-715840.5	1	816258.8	-61.27986	1.775719E-010	0.0060075	5
	60	31	0.999041	462380.8	-836974.3	1	956202	-61.08184	2.056956E-010	0.0060241	5
