EXPLAIN
TAG	EISPOT
TITLE	LABEL	Potentiostatic EIS	Test &Identifier
DATE	LABEL	2/18/2020	Date
TIME	LABEL	17:06:53	Time
NOTES	NOTES	1	&Notes...
	
PSTAT	PSTAT	REF600-11020	Potentiostat
VDC	POTEN	0.00000E+000	T	DC &Voltage (V)
FREQINIT	QUANT	1.00000E+006	Initial Fre&q. (Hz)
FREQFINAL	QUANT	1.00000E+000	Final Fre&q. (Hz)
PTSPERDEC	QUANT	1.00000E+001	Points/&decade
VAC	QUANT	2.50000E+001	AC &Voltage (mV rms)
AREA	QUANT	1.60000E-004	&Area (cm^2)
CONDIT	TWOPARAM	F	1.50000E+001	0.00000E+000	Conditionin&g	Time(s)	E(V)
DELAY	TWOPARAM	F	1.00000E+002	0.00000E+000	Init. De&lay	Time(s)	Stab.(mV/s)
SPEED	SELECTOR	1	&Optimize for:
ZGUESS	QUANT	1.00000E+003	E&stimated Z (ohms)
OCVCURVE	TABLE	39
	Pt	T	Vf	Vm	Ach	Over
	#	s	V vs. Ref.	V	V	bits
	0	0.258333	3.95774E-002	3.95774E-002	5.65038E-004	...........
	1	0.516667	3.95775E-002	3.95839E-002	5.69638E-004	...........
	2	0.775	3.95778E-002	3.95663E-002	5.62738E-004	...........
	3	1.03333	3.95775E-002	3.95661E-002	5.65138E-004	...........
	4	1.29167	3.95755E-002	3.95679E-002	5.63971E-004	...........
	5	1.55	3.95719E-002	3.95526E-002	5.62138E-004	...........
	6	1.80833	3.95674E-002	3.95434E-002	5.70071E-004	...........
	7	2.06667	3.95616E-002	3.95395E-002	5.65238E-004	...........
	8	2.325	3.95544E-002	3.95293E-002	5.72071E-004	...........
	9	2.58333	3.95464E-002	3.95203E-002	5.69138E-004	...........
	10	2.84167	3.95382E-002	3.95111E-002	5.67038E-004	...........
	11	3.1	3.95298E-002	3.95043E-002	5.69071E-004	...........
	12	3.35833	3.95213E-002	3.94996E-002	5.71204E-004	...........
	13	3.61667	3.95132E-002	3.94918E-002	5.69638E-004	...........
	14	3.875	3.95060E-002	3.94923E-002	5.64771E-004	...........
	15	4.13333	3.94998E-002	3.94803E-002	5.65738E-004	...........
	16	4.39167	3.94941E-002	3.94709E-002	5.64604E-004	...........
	17	4.65	3.94880E-002	3.94626E-002	5.64271E-004	...........
	18	4.90833	3.94810E-002	3.94722E-002	5.67704E-004	...........
	19	5.16667	3.94742E-002	3.94540E-002	5.70138E-004	...........
	20	5.425	3.94685E-002	3.94441E-002	5.72404E-004	...........
	21	5.68333	3.94626E-002	3.94347E-002	5.70871E-004	...........
	22	5.94167	3.94550E-002	3.94295E-002	5.71404E-004	...........
	23	6.2	3.94463E-002	3.94237E-002	5.70004E-004	...........
	24	6.45833	3.94378E-002	3.94134E-002	5.69638E-004	...........
	25	6.71667	3.94296E-002	3.93878E-002	5.69304E-004	...........
	26	6.975	3.94206E-002	3.94001E-002	5.73838E-004	...........
	27	7.23333	3.94107E-002	3.93866E-002	5.77204E-004	...........
	28	7.49167	3.94017E-002	3.93793E-002	5.68104E-004	...........
	29	7.75	3.93941E-002	3.93692E-002	5.68338E-004	...........
	30	8.00833	3.93868E-002	3.93647E-002	5.67438E-004	...........
	31	8.26667	3.93793E-002	3.93542E-002	5.71738E-004	...........
	32	8.525	3.93717E-002	3.93537E-002	5.67904E-004	...........
	33	8.78333	3.93647E-002	3.93615E-002	5.71771E-004	...........
	34	9.04167	3.93597E-002	3.93524E-002	5.69004E-004	...........
	35	9.3	3.93569E-002	3.93430E-002	5.74204E-004	...........
	36	9.5583	3.93544E-002	3.93348E-002	5.68104E-004	...........
	37	9.8167	3.93501E-002	3.93244E-002	5.68338E-004	...........
	38	10.075	3.93430E-002	3.92932E-002	5.73804E-004	...........
EOC	QUANT	0.039343	Open Circuit (V)
PSTATMODEL	IQUANT	4	Pstat Model
PSTATSECTION	LABEL	REF600-11020	Pstat Section
PSTATSERIALNO	LABEL	11020	Pstat Serial Number
CTRLMODE	IQUANT	1	Control Mode
IESTAB	IQUANT	0	I/E Stability
CASPEED	IQUANT	1	Control Amp Speed
CONVENTION	IQUANT	1	Current Convention
ICHRANGE	IQUANT	2	Ich Range
ICHRANGEMODE	TOGGLE	F	Ich Auto Range
ICHOFFSETENABLE	TOGGLE	T	Ich Offset Enable
ICHOFFSET	QUANT	0	Ich Offset (V)
ICHFILTER	IQUANT	3	Ich Filter
VCHRANGE	IQUANT	2	Vch Range
VCHRANGEMODE	TOGGLE	F	Vch Auto Range
VCHOFFSETENABLE	TOGGLE	T	Vch Offset Enable
VCHOFFSET	QUANT	0	Vch Offset (V)
VCHFILTER	IQUANT	3	Vch Filter
ACHRANGE	IQUANT	2	Ach Range
ACHOFFSETENABLE	TOGGLE	F	Ach Offset Enable
ACHOFFSET	QUANT	0	Ach Offset (V)
ACHFILTER	IQUANT	3	Ach Filter
IERANGELOWERLIMIT	IQUANT	1	I/E Range Lower Limit
IERANGEMODE	TOGGLE	F	I/E AutoRange
IERANGE	IQUANT	7	I/E Range
POSFEEDENABLE	TOGGLE	F	Positive Feedback IR Comp
POSFEEDRESISTANCE	QUANT	0	Positive Feedback Resistance (ohm)
ACHSELECT	IQUANT	0	Ach Select
CABLEID	IQUANT	14	Cable ID
DCCALDATE	LABEL	1/27/2020	DC Calibration Date
ACCALDATE	LABEL	1/27/2020	AC Calibration Date
THERMOSELECT	IQUANT	1	Thermo Select
FRAMEWORKVERSION	QUANT	6.33	Framework Version
INSTRUMENTVERSION	LABEL	3.50	Instrument Version
ZCURVE	TABLE
	Pt	Time	Freq	Zreal	Zimag	Zsig	Zmod	Zphz	Idc	Vdc	IERange
	#	s	Hz	ohm	ohm	V	ohm	°	A	V	#
	0	1	1000078	1716.679	-1297.195	1	2151.674	-37.07624	-3.075009E-006	0.0418312	8
	1	2	794390.6	1949.912	-1322.571	1	2356.131	-34.14795	3.321427E-006	0.0405775	8
	2	4	630984.4	2175.389	-1331.236	1	2550.394	-31.46468	-1.385024E-006	0.0410792	8
	3	5	501234.4	2386.622	-1334.533	1	2734.4	-29.21271	-2.390106E-006	0.0414086	8
	4	6	398109.4	2603.628	-1317.787	1	2918.123	-26.84556	-1.148969E-006	0.0410615	8
	5	8	316265.6	2817.299	-1295.493	1	3100.883	-24.69462	-9.69544E-007	0.041051	8
	6	9	251203.1	3013.65	-1283.982	1	3275.774	-23.0767	-2.296735E-006	0.0412672	8
	7	10	199546.9	3217.734	-1245.93	1	3450.529	-21.16677	-1.181663E-006	0.040996	8
	8	12	158578.1	3395.808	-1217.782	1	3607.563	-19.72851	2.860226E-006	0.0402803	8
	9	13	125953.1	3578.347	-1162.623	1	3762.48	-17.99924	-2.81677E-007	0.0412911	7
	10	14	100078.1	3744.254	-1135.065	1	3912.52	-16.86459	4.892306E-008	0.0407496	7
	11	16	79453.13	3903.766	-1115.453	1	4060.003	-15.94663	-1.478717E-008	0.0408324	7
	12	17	63140.62	4057.333	-1095.484	1	4202.622	-15.10964	6.262335E-008	0.0406452	7
	13	18	50203.12	4208.617	-1079.134	1	4344.765	-14.38142	6.271947E-009	0.0407693	7
	14	20	39890.62	4357.207	-1064.716	1	4485.406	-13.73157	-1.751038E-009	0.0408258	7
	15	21	31640.63	4504.982	-1055.023	1	4626.871	-13.18058	-3.325221E-008	0.0407964	7
	16	22	25171.88	4647.3	-1047.467	1	4763.884	-12.70179	4.101311E-009	0.0406943	7
	17	24	20015.62	4786.773	-1043.942	1	4899.287	-12.30293	-1.289631E-008	0.0407436	7
	18	25	15890.62	4922.792	-1044.878	1	5032.46	-11.98336	-1.383705E-008	0.040742	7
	19	26	12609.37	5056.694	-1054.067	1	5165.386	-11.77468	6.462363E-008	0.0406299	7
	20	28	10078.13	5180.565	-1069.717	1	5289.854	-11.66684	-1.297914E-008	0.04074	7
	21	29	8015.625	5305.79	-1099.783	1	5418.572	-11.71042	-1.963785E-008	0.0407424	7
	22	31	6328.125	5432.73	-1145.044	1	5552.088	-11.9019	2.709039E-008	0.0407138	7
	23	32	5015.625	5555.175	-1204.999	1	5684.364	-12.2387	1.913617E-008	0.0406755	7
	24	33	3984.375	5678.428	-1290.917	1	5823.316	-12.80777	-4.960838E-009	0.0407665	7
	25	35	3170.956	5798.888	-1393.812	1	5964.043	-13.51515	7.647115E-009	0.0406806	7
	26	36	2527.573	5918.128	-1528.985	1	6112.449	-14.48596	-1.993874E-008	0.0407404	7
	27	37	1976.103	6052.159	-1719.699	1	6291.74	-15.86231	-1.440996E-008	0.0407408	7
	28	39	1577.524	6178.871	-1940.273	1	6476.35	-17.4332	9.535746E-008	0.0406092	7
	29	40	1265.625	6300.808	-2206.997	1	6676.153	-19.30393	5.820568E-008	0.0406232	7
	30	42	998.264	6444.2	-2574.142	1	6939.302	-21.77428	-1.591983E-008	0.0407387	7
	31	43	796.875	6591.827	-3009.45	1	7246.307	-24.53872	-1.066403E-008	0.0408114	7
	32	44	627.7902	6762.683	-3583.833	1	7653.609	-27.92102	6.627158E-008	0.0406313	7
	33	46	505.5147	6937.189	-4233.234	1	8126.799	-31.39251	4.59774E-009	0.0407638	7
	34	47	397.9953	7159.149	-5113.984	1	8798.082	-35.5393	1.010791E-008	0.0407441	7
	35	48	315.5048	7419.449	-6182.35	1	9657.62	-39.80318	1.765387E-009	0.0407449	6
	36	50	252.4038	7723.883	-7445.624	1	10728.27	-43.94912	1.782497E-009	0.0407436	6
	37	51	198.6229	8132.466	-9118.059	1	12217.86	-48.26999	1.602396E-009	0.040742	6
	38	52	158.3615	8622.002	-11061.26	1	14024.63	-52.06438	1.0425E-009	0.0407445	6
	39	54	125.558	9268.945	-13491.66	1	16368.82	-55.51043	1.508112E-009	0.040745	6
	40	55	100.4464	10067.56	-16331.17	1	19184.97	-58.34771	1.05143E-009	0.0407472	6
	41	57	79.00281	11204.52	-20042.31	1	22961.61	-60.79291	7.218163E-010	0.0407424	6
	42	58	63.3446	12573.95	-24218.7	1	27288.27	-62.56241	1.233904E-009	0.0407452	6
	43	60	49.86702	14433.4	-29358.01	1	32714.16	-63.81969	1.79421E-009	0.0407403	6
	44	61	39.72458	16901.07	-35406.39	1	39233.39	-64.48275	1.742059E-009	0.0407462	6
	45	62	31.6723	19942.9	-42380.69	1	46838.47	-64.79993	9.29762E-010	0.0407422	6
	46	64	24.93351	24125.6	-51024.63	1	56440.74	-64.69416	1.766162E-009	0.0407386	6
	47	65	19.86229	29094.97	-60542.3	1	67170.59	-64.33234	1.76921E-009	0.040749	6
	48	66	15.83615	35373.02	-71497.49	1	79769.3	-63.67633	-2.281908E-010	0.0407409	6
	49	68	12.40079	43565	-84478.15	1	95049.8	-62.72005	-5.699759E-011	0.0407412	6
	50	69	9.93114	52607.87	-98032.4	1	111256.2	-61.78032	-4.516726E-010	0.0407435	5
	51	71	7.944915	63258.59	-112945.9	1	129454.3	-60.74773	1.273941E-009	0.0407366	5
	52	72	6.317385	76039.23	-130257.7	1	150827.9	-59.72534	6.152676E-010	0.0407517	5
	53	74	5.008013	90685.79	-149648.6	1	174981.8	-58.7845	6.489402E-010	0.0407482	5
	54	77	3.945707	107695.2	-171868.1	1	202822.3	-57.92812	-4.639923E-011	0.0407307	5
	55	80	3.158693	124827.6	-195349.5	1	231826.2	-57.42157	4.535978E-010	0.0407499	5
	56	83	2.504006	144332.4	-223284.4	1	265871.7	-57.12112	-2.142592E-010	0.0407366	5
	57	86	1.998082	163917.3	-254508.4	1	302726.6	-57.21626	2.317501E-010	0.0406889	5
	58	89	1.584686	184646	-293800.5	1	347005.6	-57.85169	5.381605E-011	0.040707	5
	59	92	1.266892	207118.5	-339025.1	1	397285.9	-58.57825	2.132905E-010	0.0406882	5
	60	97	0.999041	232275.3	-398226.6	1	461016.5	-59.74609	8.171815E-011	0.0407622	5
