EXPLAIN
TAG	EISPOT
TITLE	LABEL	Potentiostatic EIS	Test &Identifier
DATE	LABEL	6/6/2020	Date
TIME	LABEL	18:16:58	Time
NOTES	NOTES	1	&Notes...
	
PSTAT	PSTAT	REF600-11020	Potentiostat
VDC	POTEN	0.00000E+000	T	DC &Voltage (V)
FREQINIT	QUANT	1.00000E+006	Initial Fre&q. (Hz)
FREQFINAL	QUANT	1.00000E+000	Final Fre&q. (Hz)
PTSPERDEC	QUANT	1.00000E+001	Points/&decade
VAC	QUANT	2.50000E+001	AC &Voltage (mV rms)
AREA	QUANT	4.00000E-004	&Area (cm^2)
CONDIT	TWOPARAM	F	5.00000E+000	0.00000E+000	Conditionin&g	Time(s)	E(V)
DELAY	TWOPARAM	T	3.00000E+000	0.00000E+000	Init. De&lay	Time(s)	Stab.(mV/s)
SPEED	SELECTOR	0	&Optimize for:
ZGUESS	QUANT	1.00000E+003	E&stimated Z (ohms)
OCVCURVE	TABLE	12
	Pt	T	Vf	Vm	Ach	Over
	#	s	V vs. Ref.	V	V	bits
	0	0.258333	-2.55713E-002	-2.55713E-002	5.57130E-004	...........
	1	0.516667	-2.55717E-002	-2.55904E-002	5.62197E-004	...........
	2	0.775	-2.55739E-002	-2.56074E-002	5.62797E-004	...........
	3	1.03333	-2.55800E-002	-2.56196E-002	5.67630E-004	...........
	4	1.29167	-2.55905E-002	-2.56291E-002	5.61964E-004	...........
	5	1.55	-2.56034E-002	-2.56433E-002	5.60064E-004	...........
	6	1.80833	-2.56166E-002	-2.56559E-002	5.60164E-004	...........
	7	2.06667	-2.56295E-002	-2.56687E-002	5.62397E-004	...........
	8	2.325	-2.56422E-002	-2.56804E-002	5.61864E-004	...........
	9	2.58333	-2.56548E-002	-2.56922E-002	5.59097E-004	...........
	10	2.84167	-2.56672E-002	-2.57026E-002	5.56764E-004	...........
	11	3.1	-2.56791E-002	-2.57128E-002	5.57764E-004	...........
EOC	QUANT	-0.0256791	Open Circuit (V)
PSTATMODEL	IQUANT	4	Pstat Model
PSTATSECTION	LABEL	REF600-11020	Pstat Section
PSTATSERIALNO	LABEL	11020	Pstat Serial Number
CTRLMODE	IQUANT	1	Control Mode
IESTAB	IQUANT	0	I/E Stability
CASPEED	IQUANT	1	Control Amp Speed
CONVENTION	IQUANT	1	Current Convention
ICHRANGE	IQUANT	2	Ich Range
ICHRANGEMODE	TOGGLE	F	Ich Auto Range
ICHOFFSETENABLE	TOGGLE	T	Ich Offset Enable
ICHOFFSET	QUANT	0	Ich Offset (V)
ICHFILTER	IQUANT	3	Ich Filter
VCHRANGE	IQUANT	2	Vch Range
VCHRANGEMODE	TOGGLE	F	Vch Auto Range
VCHOFFSETENABLE	TOGGLE	T	Vch Offset Enable
VCHOFFSET	QUANT	0	Vch Offset (V)
VCHFILTER	IQUANT	3	Vch Filter
ACHRANGE	IQUANT	2	Ach Range
ACHOFFSETENABLE	TOGGLE	F	Ach Offset Enable
ACHOFFSET	QUANT	0	Ach Offset (V)
ACHFILTER	IQUANT	3	Ach Filter
IERANGELOWERLIMIT	IQUANT	1	I/E Range Lower Limit
IERANGEMODE	TOGGLE	F	I/E AutoRange
IERANGE	IQUANT	7	I/E Range
POSFEEDENABLE	TOGGLE	F	Positive Feedback IR Comp
POSFEEDRESISTANCE	QUANT	0	Positive Feedback Resistance (ohm)
ACHSELECT	IQUANT	0	Ach Select
CABLEID	IQUANT	14	Cable ID
DCCALDATE	LABEL	2/27/2020	DC Calibration Date
ACCALDATE	LABEL	2/27/2020	AC Calibration Date
THERMOSELECT	IQUANT	1	Thermo Select
FRAMEWORKVERSION	QUANT	6.33	Framework Version
INSTRUMENTVERSION	LABEL	3.50	Instrument Version
ZCURVE	TABLE
	Pt	Time	Freq	Zreal	Zimag	Zsig	Zmod	Zphz	Idc	Vdc	IERange
	#	s	Hz	ohm	ohm	V	ohm	°	A	V	#
	0	1	1000078	1792.312	-1520.428	1	2350.337	-40.30812	5.049262E-009	-0.0234384	8
	1	2	794390.6	2037.311	-1586.62	1	2582.247	-37.91079	6.028169E-008	-0.0237775	8
	2	2	630984.4	2280.148	-1645.718	1	2812.021	-35.82021	4.715374E-008	-0.0239215	8
	3	2	501234.4	2519.258	-1701.963	1	3040.286	-34.04222	5.414873E-008	-0.0239984	8
	4	3	398109.4	2755.593	-1764.86	1	3272.312	-32.63813	6.581678E-008	-0.0240445	8
	5	3	316265.6	2995.356	-1845.126	1	3518.046	-31.63289	4.658639E-008	-0.0240795	8
	6	3	251203.1	3233.839	-1935.15	1	3768.623	-30.89657	5.22727E-008	-0.0240745	8
	7	4	199546.9	3489.161	-2044.627	1	4044.1	-30.37004	1.848721E-009	-0.0240651	8
	8	4	158578.1	3757.335	-2173.921	1	4340.91	-30.05284	5.661918E-008	-0.0240739	8
	9	4	125953.1	4086.461	-2277.655	1	4678.342	-29.13382	2.110392E-009	-0.0241482	7
	10	5	100078.1	4373.489	-2443.499	1	5009.799	-29.1924	2.42949E-009	-0.0241582	7
	11	5	79453.13	4699.992	-2641.271	1	5391.312	-29.33483	1.801261E-009	-0.0241664	7
	12	5	63140.62	5054.069	-2858.023	1	5806.196	-29.4877	2.263914E-009	-0.0241691	7
	13	6	50203.12	5434.706	-3094.168	1	6253.791	-29.65437	2.823355E-009	-0.0241687	7
	14	6	39890.62	5846.742	-3353.246	1	6740.078	-29.8353	3.501709E-009	-0.0241655	7
	15	6	31640.63	6294.713	-3635.616	1	7269.19	-30.00929	2.339961E-009	-0.0241703	7
	16	7	25171.88	6771.699	-3944.888	1	7836.967	-30.22316	2.31074E-009	-0.0241716	7
	17	7	20015.62	7288.209	-4289.309	1	8456.724	-30.47797	3.536692E-009	-0.0241674	7
	18	7	15890.62	7848.702	-4669.478	1	9132.696	-30.74995	4.974233E-009	-0.0241637	7
	19	8	12609.37	8513.847	-5011.469	1	9879.29	-30.48216	6.678852E-010	-0.0241208	6
	20	8	10078.13	9123.67	-5475.977	1	10640.85	-30.97195	7.366443E-010	-0.0241208	6
	21	8	8015.625	9790.68	-6013.144	1	11489.79	-31.55702	9.305617E-010	-0.0241206	6
	22	9	6328.125	10534.14	-6646.376	1	12455.62	-32.24932	9.524401E-010	-0.0241252	6
	23	9	5015.625	11328.56	-7365.86	1	13512.66	-33.03204	9.77293E-010	-0.0241227	6
	24	9	3984.375	12191.58	-8189.515	1	14686.83	-33.89065	6.394327E-010	-0.0241212	6
	25	9	3170.956	13139.92	-9125.673	1	15997.98	-34.77998	5.837937E-010	-0.0241236	6
	26	10	2527.573	14200.77	-10186.73	1	17476.59	-35.65326	6.530213E-010	-0.0241246	6
	27	10	1976.103	15483.59	-11491.66	1	19282.11	-36.58218	8.886667E-010	-0.0241248	6
	28	10	1577.524	16781.63	-12823.14	1	21120.04	-37.38408	7.273976E-010	-0.0241243	6
	29	11	1265.625	18150.21	-14271.42	1	23089.04	-38.17778	5.862735E-010	-0.0241272	6
	30	11	998.264	19704.05	-16022.51	1	25396.26	-39.11657	6.887098E-010	-0.0241258	6
	31	11	796.875	21225.85	-17980.74	1	27818.05	-40.26844	5.671833E-010	-0.0241211	6
	32	12	627.7902	22855.76	-20436.96	1	30660.32	-41.80217	5.852123E-010	-0.0241222	6
	33	12	505.5147	24390.04	-23163.51	1	33636.62	-43.52252	6.609492E-010	-0.0241304	6
	34	12	397.9953	26110.29	-26917.82	1	37500.89	-45.87245	6.51445E-010	-0.0241089	6
	35	13	315.5048	27937.59	-31503.83	1	42107	-48.4334	7.013969E-010	-0.024107	6
	36	13	252.4038	29925.62	-36989.4	1	47578.97	-51.02602	6.936962E-010	-0.02411	6
	37	13	198.6229	32452.79	-44341.38	1	54948.54	-53.80017	6.507085E-010	-0.0241123	6
	38	14	158.3615	35405.75	-52924.21	1	63675.27	-56.21788	6.788089E-010	-0.024115	6
	39	14	125.558	39238.95	-63657.44	1	74779.45	-58.34999	6.676273E-010	-0.0241147	6
	40	14	100.4464	44017.06	-76108.44	1	87920.39	-59.9572	6.143758E-010	-0.0241184	6
	41	15	79.00281	50831.5	-92102.74	1	105198.6	-61.1057	1.657896E-010	-0.024114	5
	42	15	63.3446	58903.35	-109756.3	1	124563.4	-61.77869	8.174199E-011	-0.0241167	5
	43	15	49.86702	70401	-132160.4	1	149742	-61.95606	1.83062E-010	-0.024118	5
	44	16	39.72458	84791.31	-156675.3	1	178148	-61.57813	2.767179E-010	-0.0241134	5
	45	16	31.6723	103179.8	-184493.7	1	211385.9	-60.78349	1.680889E-010	-0.0241156	5
	46	16	24.93351	128262.6	-216807.1	1	251906	-59.39153	4.339692E-010	-0.0241171	5
	47	17	19.86229	157899.9	-250225.9	1	295880.6	-57.74687	5.90225E-010	-0.0241112	5
	48	17	15.83615	194248.6	-284913.8	1	344831	-55.71461	3.470911E-010	-0.0241157	5
	49	17	12.40079	241285.6	-323099.2	1	403251.6	-53.24817	1.008783E-009	-0.0241216	5
	50	18	9.93114	289549.8	-356329.5	1	459140.3	-50.90303	9.938341E-010	-0.0241123	5
	51	18	7.944915	344703.4	-389167.8	1	519877	-48.46725	2.923559E-011	-0.0241178	5
	52	18	6.317385	405938	-423170.4	1	586394.8	-46.19068	3.408074E-010	-0.0241133	5
	53	19	5.008013	471509	-453738.8	1	654369.6	-43.89972	5.700163E-010	-0.0241069	5
	54	20	3.945707	543584.4	-483604.2	1	727569.2	-41.65815	4.211353E-010	-0.0241225	5
	55	21	3.158693	610816.9	-511161.5	1	796481.9	-39.92424	3.85436E-010	-0.0241038	5
	56	22	2.504006	684556.3	-540362.3	1	872128.8	-38.2862	8.712311E-011	-0.0241217	5
	57	23	1.998082	755814.1	-573013.4	1	948472.1	-37.16724	1.229366E-010	-0.0241195	4
	58	25	1.584686	833080.6	-607683.8	1	1031166	-36.10857	2.439158E-010	-0.0240803	4
	59	27	1.266892	909973.9	-650905.6	1	1118808	-35.57619	2.732904E-010	-0.0241039	4
	60	29	0.999041	991949	-700521.4	1	1214369	-35.23001	2.949969E-010	-0.0241284	4
