EXPLAIN
TAG	EISPOT
TITLE	LABEL	Potentiostatic EIS	Test &Identifier
DATE	LABEL	6/1/2020	Date
TIME	LABEL	13:15:00	Time
NOTES	NOTES	1	&Notes...
	
PSTAT	PSTAT	REF600-11020	Potentiostat
VDC	POTEN	0.00000E+000	T	DC &Voltage (V)
FREQINIT	QUANT	1.00000E+006	Initial Fre&q. (Hz)
FREQFINAL	QUANT	1.00000E+000	Final Fre&q. (Hz)
PTSPERDEC	QUANT	1.00000E+001	Points/&decade
VAC	QUANT	2.50000E+001	AC &Voltage (mV rms)
AREA	QUANT	4.00000E-004	&Area (cm^2)
CONDIT	TWOPARAM	F	5.00000E+000	0.00000E+000	Conditionin&g	Time(s)	E(V)
DELAY	TWOPARAM	T	3.00000E+000	0.00000E+000	Init. De&lay	Time(s)	Stab.(mV/s)
SPEED	SELECTOR	0	&Optimize for:
ZGUESS	QUANT	1.00000E+003	E&stimated Z (ohms)
OCVCURVE	TABLE	12
	Pt	T	Vf	Vm	Ach	Over
	#	s	V vs. Ref.	V	V	bits
	0	0.258333	2.88591E-002	2.88591E-002	5.72363E-004	...........
	1	0.516667	2.88609E-002	2.89555E-002	5.74263E-004	...........
	2	0.775	2.88722E-002	2.90471E-002	5.76897E-004	...........
	3	1.03333	2.89042E-002	2.91320E-002	5.74797E-004	...........
	4	1.29167	2.89611E-002	2.92120E-002	5.74963E-004	...........
	5	1.55	2.90363E-002	2.92914E-002	5.74197E-004	...........
	6	1.80833	2.91190E-002	2.93645E-002	5.73963E-004	...........
	7	2.06667	2.92017E-002	2.94352E-002	5.77263E-004	...........
	8	2.325	2.92810E-002	2.95020E-002	5.75263E-004	...........
	9	2.58333	2.93561E-002	2.95666E-002	5.76663E-004	...........
	10	2.84167	2.94272E-002	2.96266E-002	5.76197E-004	...........
	11	3.1	2.94948E-002	2.96889E-002	5.74697E-004	...........
EOC	QUANT	0.0294948	Open Circuit (V)
PSTATMODEL	IQUANT	4	Pstat Model
PSTATSECTION	LABEL	REF600-11020	Pstat Section
PSTATSERIALNO	LABEL	11020	Pstat Serial Number
CTRLMODE	IQUANT	1	Control Mode
IESTAB	IQUANT	0	I/E Stability
CASPEED	IQUANT	1	Control Amp Speed
CONVENTION	IQUANT	1	Current Convention
ICHRANGE	IQUANT	2	Ich Range
ICHRANGEMODE	TOGGLE	F	Ich Auto Range
ICHOFFSETENABLE	TOGGLE	T	Ich Offset Enable
ICHOFFSET	QUANT	0	Ich Offset (V)
ICHFILTER	IQUANT	3	Ich Filter
VCHRANGE	IQUANT	2	Vch Range
VCHRANGEMODE	TOGGLE	F	Vch Auto Range
VCHOFFSETENABLE	TOGGLE	T	Vch Offset Enable
VCHOFFSET	QUANT	0	Vch Offset (V)
VCHFILTER	IQUANT	3	Vch Filter
ACHRANGE	IQUANT	2	Ach Range
ACHOFFSETENABLE	TOGGLE	F	Ach Offset Enable
ACHOFFSET	QUANT	0	Ach Offset (V)
ACHFILTER	IQUANT	3	Ach Filter
IERANGELOWERLIMIT	IQUANT	1	I/E Range Lower Limit
IERANGEMODE	TOGGLE	F	I/E AutoRange
IERANGE	IQUANT	7	I/E Range
POSFEEDENABLE	TOGGLE	F	Positive Feedback IR Comp
POSFEEDRESISTANCE	QUANT	0	Positive Feedback Resistance (ohm)
ACHSELECT	IQUANT	0	Ach Select
CABLEID	IQUANT	14	Cable ID
DCCALDATE	LABEL	2/27/2020	DC Calibration Date
ACCALDATE	LABEL	2/27/2020	AC Calibration Date
THERMOSELECT	IQUANT	1	Thermo Select
FRAMEWORKVERSION	QUANT	6.33	Framework Version
INSTRUMENTVERSION	LABEL	3.50	Instrument Version
ZCURVE	TABLE
	Pt	Time	Freq	Zreal	Zimag	Zsig	Zmod	Zphz	Idc	Vdc	IERange
	#	s	Hz	ohm	ohm	V	ohm	°	A	V	#
	0	1	1000078	1883.081	-1605.991	1	2474.915	-40.45929	-9.546364E-009	0.0318343	8
	1	1	794390.6	2116.75	-1712.296	1	2722.607	-38.97032	2.563294E-008	0.031525	8
	2	2	630984.4	2357.531	-1826.811	1	2982.481	-37.77149	3.392614E-008	0.0313479	8
	3	2	501234.4	2607.556	-1949.475	1	3255.733	-36.78273	3.192059E-008	0.0312463	8
	4	2	398109.4	2869.951	-2089.146	1	3549.81	-36.0523	4.971018E-008	0.0312001	8
	5	3	316265.6	3156.185	-2246.343	1	3873.959	-35.44049	4.401413E-008	0.0311768	8
	6	3	251203.1	3458.229	-2414.846	1	4217.918	-34.9262	2.609894E-008	0.0311716	8
	7	3	199546.9	3788.233	-2610.812	1	4600.766	-34.57421	5.480823E-008	0.0311759	8
	8	3	158578.1	4155.999	-2829.187	1	5027.586	-34.24499	2.493697E-008	0.0311555	8
	9	4	125953.1	4631.918	-2977.663	1	5506.464	-32.73524	8.523495E-010	0.0311119	7
	10	4	100078.1	5046.042	-3221.247	1	5986.566	-32.55298	1.432563E-009	0.0310962	7
	11	4	79453.13	5524.821	-3497.628	1	6538.888	-32.33689	3.470281E-009	0.0310946	7
	12	5	63140.62	6055.124	-3776.328	1	7136.188	-31.95007	3.990819E-009	0.0310966	7
	13	5	50203.12	6643.265	-4056.848	1	7784.021	-31.4112	3.619828E-009	0.0310938	7
	14	5	39890.62	7296.978	-4319.491	1	8479.616	-30.62367	2.855348E-009	0.0310803	7
	15	6	31640.63	8024.272	-4571.097	1	9234.927	-29.66838	2.635177E-009	0.0310862	7
	16	6	25171.88	8797.782	-4779.396	1	10012.17	-28.51303	2.730339E-009	0.0310808	7
	17	6	20015.62	9627.38	-4932.974	1	10817.61	-27.13014	3.437151E-009	0.0310798	7
	18	7	15890.62	10498.55	-5019.612	1	11636.84	-25.55359	3.141327E-009	0.0310783	7
	19	7	12609.37	11521.67	-4863.13	1	12505.96	-22.8839	4.634698E-010	0.0311313	6
	20	7	10078.13	12341.19	-4811.206	1	13245.86	-21.29829	3.117344E-010	0.0311284	6
	21	8	8015.625	13145.11	-4688.392	1	13956.18	-19.62951	4.240819E-010	0.0311336	6
	22	8	6328.125	13912.16	-4500.109	1	14621.87	-17.92463	5.631708E-010	0.0311331	6
	23	8	5015.625	14593.49	-4279.469	1	15208.02	-16.34351	3.48915E-010	0.0311314	6
	24	9	3984.375	15186.56	-4057.416	1	15719.23	-14.95842	3.128198E-010	0.0311285	6
	25	9	3170.956	15688.1	-3856.243	1	16155.1	-13.8099	7.852298E-010	0.031136	6
	26	9	2527.573	16120.16	-3700.061	1	16539.34	-12.92719	-7.059256E-012	0.0311226	6
	27	10	1976.103	16526.08	-3597.532	1	16913.12	-12.28101	2.873405E-010	0.0311307	6
	28	10	1577.524	16852.96	-3585.96	1	17230.24	-12.01221	1.642082E-010	0.0311246	6
	29	10	1265.625	17138.98	-3654.14	1	17524.2	-12.03562	1.984361E-010	0.0311252	6
	30	11	998.264	17425.65	-3834.153	1	17842.48	-12.40902	2.041259E-010	0.0311178	6
	31	11	796.875	17699.98	-4123.094	1	18173.86	-13.11284	2.310899E-010	0.0311213	6
	32	11	627.7902	17973.09	-4564.74	1	18543.7	-14.25047	2.451008E-010	0.031125	6
	33	11	505.5147	18260.84	-5105.678	1	18961.18	-15.62084	4.72052E-010	0.0311291	6
	34	12	397.9953	18582.09	-5883.667	1	19491.32	-17.5694	5.178913E-010	0.0311407	6
	35	12	315.5048	18939.53	-6848.923	1	20139.85	-19.88103	4.847832E-010	0.0311353	6
	36	12	252.4038	19347.09	-8007.433	1	20938.69	-22.48384	2.404932E-010	0.0311374	6
	37	13	198.6229	19847.45	-9551.42	1	22026.14	-25.6988	2.95192E-010	0.0311368	6
	38	13	158.3615	20424.06	-11354.32	1	23367.99	-29.07094	6.109932E-011	0.0311346	6
	39	13	125.558	21145.64	-13615.71	1	25150.06	-32.77753	2.340316E-011	0.0311362	6
	40	14	100.4464	21989.56	-16258.13	1	27347.17	-36.47761	2.97306E-010	0.0311313	6
	41	14	79.00281	23151.5	-19714.49	1	30408.11	-40.41582	2.331636E-010	0.0311295	6
	42	14	63.3446	24510.56	-23550.18	1	33990.86	-43.85524	7.116444E-011	0.0311289	6
	43	15	49.86702	26373.72	-28529.14	1	38852.09	-47.24821	-2.570046E-010	0.0311285	6
	44	15	39.72458	28630.55	-34168.12	1	44577.67	-50.03929	6.300172E-010	0.0311341	6
	45	15	31.6723	31491.58	-40812.46	1	51549.75	-52.34562	-5.944695E-011	0.0311281	6
	46	16	24.93351	35310.43	-49045.01	1	60433.76	-54.24764	9.228166E-010	0.0311265	6
	47	16	19.86229	39874.52	-58182.65	1	70535.09	-55.57585	8.460464E-010	0.0311312	6
	48	16	15.83615	45549.62	-68724.87	1	82449.23	-56.46429	2.643304E-010	0.0311231	6
	49	17	12.40079	53199.09	-81732.02	1	97520.6	-56.94003	1.985383E-009	0.0311225	6
	50	17	9.93114	61470.83	-95181.3	1	113305.6	-57.14447	1.091304E-009	0.0311314	5
	51	17	7.944915	71675.48	-110350.7	1	131585.2	-56.9953	-1.343876E-009	0.0311354	5
	52	18	6.317385	83821.09	-127946.3	1	152958.2	-56.7701	2.844989E-010	0.031119	5
	53	19	5.008013	98080.5	-147916.3	1	177479.7	-56.45239	5.946962E-010	0.0311326	5
	54	19	3.945707	115055.4	-170712.6	1	205865.4	-56.02115	-4.909611E-011	0.0311164	5
	55	20	3.158693	132508.1	-195135.5	1	235873.4	-55.82127	2.97056E-010	0.0311322	5
	56	21	2.504006	153008.1	-223833.8	1	271133	-55.6443	-1.535432E-010	0.0311297	5
	57	23	1.998082	174547.5	-256489.3	1	310247.7	-55.76372	-2.185694E-010	0.0311091	5
	58	24	1.584686	199794.7	-294737.3	1	356073	-55.86769	-7.447749E-012	0.0311536	5
	59	26	1.266892	227616.1	-339500.4	1	408741.5	-56.16034	4.418794E-011	0.0311622	5
	60	29	0.999041	260323.6	-395721.3	1	473670.5	-56.66125	5.550528E-011	0.0311518	5
