EXPLAIN
TAG	EISPOT
TITLE	LABEL	Potentiostatic EIS	Test &Identifier
DATE	LABEL	1/21/2020	Date
TIME	LABEL	16:12:23	Time
NOTES	NOTES	6	&Notes...
	
	
	
	
	
	
PSTAT	PSTAT	REF600-11020	Potentiostat
VDC	POTEN	0.00000E+000	T	DC &Voltage (V)
FREQINIT	QUANT	1.00000E+006	Initial Fre&q. (Hz)
FREQFINAL	QUANT	1.00000E+000	Final Fre&q. (Hz)
PTSPERDEC	QUANT	1.00000E+001	Points/&decade
VAC	QUANT	2.50000E+001	AC &Voltage (mV rms)
AREA	QUANT	1.00000E-001	&Area (cm^2)
CONDIT	TWOPARAM	F	5.00000E+000	0.00000E+000	Conditionin&g	Time(s)	E(V)
DELAY	TWOPARAM	F	5.00000E+000	0.00000E+000	Init. De&lay	Time(s)	Stab.(mV/s)
SPEED	SELECTOR	0	&Optimize for:
ZGUESS	QUANT	5.00000E+002	E&stimated Z (ohms)
OCVCURVE	TABLE	39
	Pt	T	Vf	Vm	Ach	Over
	#	s	V vs. Ref.	V	V	bits
	0	0.258333	-1.00526E-001	-1.00526E-001	6.74546E-004	...........
	1	0.516667	-1.00528E-001	-1.00648E-001	6.75613E-004	...........
	2	0.775	-1.00543E-001	-1.00776E-001	6.64846E-004	...........
	3	1.03333	-1.00582E-001	-1.00767E-001	6.70713E-004	...........
	4	1.29167	-1.00644E-001	-1.00788E-001	6.66046E-004	...........
	5	1.55	-1.00707E-001	-1.00815E-001	6.66079E-004	...........
	6	1.80833	-1.00755E-001	-1.00808E-001	6.66213E-004	...........
	7	2.06667	-1.00785E-001	-1.00802E-001	6.65779E-004	...........
	8	2.325	-1.00801E-001	-1.00814E-001	6.67846E-004	...........
	9	2.58333	-1.00808E-001	-1.00827E-001	6.63813E-004	...........
	10	2.84167	-1.00812E-001	-1.00847E-001	6.67479E-004	...........
	11	3.1	-1.00819E-001	-1.00884E-001	6.71013E-004	...........
	12	3.35833	-1.00832E-001	-1.00909E-001	6.66146E-004	...........
	13	3.61667	-1.00852E-001	-1.00917E-001	6.72479E-004	...........
	14	3.875	-1.00876E-001	-1.00942E-001	6.73379E-004	...........
	15	4.13333	-1.00899E-001	-1.00951E-001	6.66379E-004	...........
	16	4.39167	-1.00919E-001	-1.00970E-001	6.63613E-004	...........
	17	4.65	-1.00937E-001	-1.01000E-001	6.61979E-004	...........
	18	4.90833	-1.00955E-001	-1.01018E-001	6.65179E-004	...........
	19	5.16667	-1.00974E-001	-1.01040E-001	6.68979E-004	...........
	20	5.425	-1.00995E-001	-1.01055E-001	6.71613E-004	...........
	21	5.68333	-1.01016E-001	-1.01074E-001	6.68046E-004	...........
	22	5.94167	-1.01036E-001	-1.01092E-001	6.69146E-004	...........
	23	6.2	-1.01055E-001	-1.01112E-001	6.68413E-004	...........
	24	6.45833	-1.01073E-001	-1.01135E-001	6.76546E-004	...........
	25	6.71667	-1.01092E-001	-1.01155E-001	6.69546E-004	...........
	26	6.975	-1.01111E-001	-1.01144E-001	6.64446E-004	...........
	27	7.23333	-1.01128E-001	-1.01149E-001	6.67046E-004	...........
	28	7.49167	-1.01139E-001	-1.01068E-001	6.62313E-004	...........
	29	7.75	-1.01135E-001	-1.00977E-001	6.56113E-004	...........
	30	8.00833	-1.01110E-001	-1.00972E-001	6.57813E-004	...........
	31	8.26667	-1.01070E-001	-1.01123E-001	6.63746E-004	...........
	32	8.525	-1.01040E-001	-1.01085E-001	6.62179E-004	...........
	33	8.78333	-1.01038E-001	-1.01090E-001	6.61113E-004	...........
	34	9.04167	-1.01057E-001	-1.01134E-001	6.63379E-004	...........
	35	9.3	-1.01081E-001	-1.01118E-001	6.64546E-004	...........
	36	9.5583	-1.01101E-001	-1.01212E-001	6.68879E-004	...........
	37	9.8167	-1.01125E-001	-1.01276E-001	6.65413E-004	...........
	38	10.075	-1.01158E-001	-1.01310E-001	6.69046E-004	...........
EOC	QUANT	-0.1011582	Open Circuit (V)
PSTATMODEL	IQUANT	4	Pstat Model
PSTATSECTION	LABEL	REF600-11020	Pstat Section
PSTATSERIALNO	LABEL	11020	Pstat Serial Number
CTRLMODE	IQUANT	1	Control Mode
IESTAB	IQUANT	0	I/E Stability
CASPEED	IQUANT	1	Control Amp Speed
CONVENTION	IQUANT	1	Current Convention
ICHRANGE	IQUANT	2	Ich Range
ICHRANGEMODE	TOGGLE	F	Ich Auto Range
ICHOFFSETENABLE	TOGGLE	T	Ich Offset Enable
ICHOFFSET	QUANT	0	Ich Offset (V)
ICHFILTER	IQUANT	3	Ich Filter
VCHRANGE	IQUANT	2	Vch Range
VCHRANGEMODE	TOGGLE	F	Vch Auto Range
VCHOFFSETENABLE	TOGGLE	T	Vch Offset Enable
VCHOFFSET	QUANT	0	Vch Offset (V)
VCHFILTER	IQUANT	3	Vch Filter
ACHRANGE	IQUANT	2	Ach Range
ACHOFFSETENABLE	TOGGLE	F	Ach Offset Enable
ACHOFFSET	QUANT	0	Ach Offset (V)
ACHFILTER	IQUANT	3	Ach Filter
IERANGELOWERLIMIT	IQUANT	1	I/E Range Lower Limit
IERANGEMODE	TOGGLE	F	I/E AutoRange
IERANGE	IQUANT	8	I/E Range
POSFEEDENABLE	TOGGLE	F	Positive Feedback IR Comp
POSFEEDRESISTANCE	QUANT	0	Positive Feedback Resistance (ohm)
ACHSELECT	IQUANT	0	Ach Select
CABLEID	IQUANT	14	Cable ID
DCCALDATE	LABEL	12/22/2019	DC Calibration Date
ACCALDATE	LABEL	12/22/2019	AC Calibration Date
THERMOSELECT	IQUANT	1	Thermo Select
FRAMEWORKVERSION	QUANT	6.33	Framework Version
INSTRUMENTVERSION	LABEL	3.50	Instrument Version
ZCURVE	TABLE
	Pt	Time	Freq	Zreal	Zimag	Zsig	Zmod	Zphz	Idc	Vdc	IERange
	#	s	Hz	ohm	ohm	V	ohm	°	A	V	#
	0	1	1000078	2123.659	-2025.7	1	2934.857	-43.6476	-2.074257E-007	-0.0990717	8
	1	2	794390.6	2525.7	-2088.749	1	3277.504	-39.59069	-2.441299E-008	-0.0993902	8
	2	2	630984.4	2932.635	-2103.872	1	3609.242	-35.65565	2.84721E-006	-0.0999656	8
	3	2	501234.4	3339.161	-2065.356	1	3926.282	-31.73785	-7.904245E-007	-0.0996119	8
	4	3	398109.4	3715.385	-1971.759	1	4206.176	-27.95495	-6.117359E-007	-0.0994703	8
	5	3	316265.6	4047.549	-1844.748	1	4448.117	-24.50204	1.259198E-007	-0.0994973	8
	6	3	251203.1	4309.197	-1706.689	1	4634.864	-21.6064	3.184939E-006	-0.1001555	8
	7	4	199546.9	4570.462	-1552.187	1	4826.843	-18.75814	1.505277E-006	-0.1000067	8
	8	4	158578.1	4776.632	-1436.413	1	4987.936	-16.73691	1.537467E-006	-0.1000037	8
	9	4	125953.1	4965.487	-1261.211	1	5123.155	-14.25149	-2.878091E-007	-0.0991022	7
	10	5	100078.1	5092.456	-1165.811	1	5224.196	-12.89447	-2.790765E-008	-0.0995882	7
	11	5	79453.13	5222.236	-1093.721	1	5335.539	-11.82879	-2.101608E-008	-0.0996853	7
	12	5	63140.62	5335.442	-1040.96	1	5436.041	-11.03988	-2.246003E-008	-0.0996804	7
	13	5	50203.12	5440.591	-1009.013	1	5533.366	-10.50671	6.600359E-008	-0.0997251	7
	14	6	39890.62	5539.548	-997.781	1	5628.69	-10.21061	1.450439E-008	-0.0996223	7
	15	6	31640.63	5636.825	-1006.372	1	5725.957	-10.12266	5.72477E-008	-0.0997768	7
	16	6	25171.88	5733.834	-1037.971	1	5827.026	-10.26088	3.20177E-008	-0.0997904	7
	17	7	20015.62	5832.596	-1087.331	1	5933.083	-10.56004	-3.724485E-008	-0.0996439	7
	18	7	15890.62	5940.841	-1165.671	1	6054.121	-11.10115	1.101485E-008	-0.0997517	7
	19	8	12609.37	6055.752	-1267.649	1	6187.008	-11.82299	-3.604963E-008	-0.0995512	7
	20	8	10078.13	6177.516	-1391.828	1	6332.369	-12.69704	-3.602619E-008	-0.0996445	7
	21	8	8015.625	6309.315	-1546.668	1	6496.125	-13.77389	1.034886E-008	-0.0997621	7
	22	9	6328.125	6473.442	-1742.944	1	6703.977	-15.06926	1.593057E-008	-0.0996345	7
	23	9	5015.625	6646.481	-1972.004	1	6932.857	-16.52556	-2.137749E-008	-0.0996491	7
	24	9	3984.375	6840.936	-2246.406	1	7200.329	-18.17899	-1.845927E-008	-0.0997056	7
	25	10	3170.956	7061.386	-2561.178	1	7511.511	-19.93581	-3.553488E-008	-0.0995609	7
	26	10	2527.573	7305.01	-2927.566	1	7869.804	-21.83901	6.390051E-009	-0.0997339	7
	27	10	1976.103	7609.311	-3401.367	1	8334.922	-24.08468	6.288155E-009	-0.0997334	7
	28	10	1577.524	7916.809	-3910.52	1	8829.95	-26.28714	4.059941E-008	-0.0997447	7
	29	11	1265.625	8291.072	-4484.65	1	9426.238	-28.40901	7.804898E-009	-0.0997284	6
	30	11	998.264	8729.976	-5214.005	1	10168.5	-30.84789	-4.982959E-009	-0.0995854	6
	31	11	796.875	9202.417	-6023.524	1	10998.51	-33.20711	-7.432347E-009	-0.0996506	6
	32	12	627.7902	9771.66	-7028.989	1	12037.11	-35.72837	-5.776294E-009	-0.0996103	6
	33	12	505.5147	10351.99	-8096.861	1	13142.41	-38.03093	1.23325E-008	-0.0998485	6
	34	12	397.9953	11077.46	-9483.845	1	14582.64	-40.56813	9.765623E-010	-0.0996858	6
	35	13	315.5048	11867.06	-11086.14	1	16239.75	-43.05142	6.933715E-010	-0.0996902	6
	36	13	252.4038	12708.01	-12912.25	1	18116.84	-45.45675	8.736346E-010	-0.0996884	6
	37	13	198.6229	13721.73	-15267.37	1	20527.51	-48.05199	8.43747E-010	-0.099687	6
	38	14	158.3615	14789.27	-17950.39	1	23258.09	-50.51499	8.712371E-010	-0.09969	6
	39	14	125.558	16033.63	-21282.03	1	26645.86	-53.00605	7.78965E-010	-0.09969	6
	40	14	100.4464	17381.73	-25188	1	30603.27	-55.39123	1.389162E-009	-0.0996874	6
	41	15	79.00281	19012.97	-30322.2	1	35790.06	-57.911	1.000872E-009	-0.0996949	6
	42	15	63.3446	20721.18	-35808.87	1	41372	-59.94374	5.010184E-010	-0.0996925	6
	43	15	49.86702	23219.63	-43441.85	1	49257.95	-61.87554	2.114568E-010	-0.0996927	6
	44	16	39.72458	26106.71	-52549.04	1	58676.76	-63.58152	3.755473E-010	-0.0996867	6
	45	16	31.6723	29656.97	-63266.95	1	69873.05	-64.88473	3.745431E-010	-0.0996877	6
	46	16	24.93351	34715.43	-76953.28	1	84421.38	-65.71875	8.361243E-010	-0.0996906	6
	47	17	19.86229	40809.76	-92653.25	1	101242.6	-66.22858	1.910038E-009	-0.0996864	6
	48	17	15.83615	48886.05	-111544.5	1	121786.8	-66.33384	-1.082987E-009	-0.099696	5
	49	17	12.40079	59379.46	-134166.1	1	146719	-66.12669	9.330742E-010	-0.0996934	5
	50	18	9.93114	73704.1	-159208.5	1	175441.2	-65.15865	6.504347E-010	-0.0996966	5
	51	18	7.944915	90587.56	-187674	1	208392.9	-64.23405	-1.798303E-010	-0.0996904	5
	52	19	6.317385	112743.9	-219529.1	1	246787.8	-62.81625	2.885077E-011	-0.099689	5
	53	20	5.008013	140499.6	-255466.3	1	291553	-61.19038	3.4247E-010	-0.0996865	5
	54	21	3.945707	174897.4	-296247.8	1	344023.1	-59.44344	4.656968E-011	-0.0997013	5
	55	22	3.158693	212077	-335944.4	1	397284.9	-57.73636	2.695812E-010	-0.0997174	5
	56	24	2.504006	257135.4	-381350.9	1	459942.5	-56.0092	5.072706E-010	-0.0997052	5
	57	25	1.998082	305488.8	-426859.6	1	524911.9	-54.41	2.607655E-010	-0.0997318	5
	58	26	1.584686	361763.7	-479488	1	600651.1	-52.96621	1.57524E-010	-0.0997612	5
	59	28	1.266892	419602.7	-534096.4	1	679209.4	-51.84573	1.890429E-010	-0.0997312	5
	60	31	0.999041	487665.1	-597149.7	1	770976.6	-50.76305	2.206908E-010	-0.0997017	5
