EXPLAIN
TAG	EISPOT
TITLE	LABEL	Potentiostatic EIS	Test &Identifier
DATE	LABEL	9/11/2020	Date
TIME	LABEL	19:29:33	Time
NOTES	NOTES	1	&Notes...
	
PSTAT	PSTAT	REF600-11020	Potentiostat
VDC	POTEN	0.00000E+000	T	DC &Voltage (V)
FREQINIT	QUANT	1.00000E+006	Initial Fre&q. (Hz)
FREQFINAL	QUANT	1.00000E+000	Final Fre&q. (Hz)
PTSPERDEC	QUANT	1.00000E+001	Points/&decade
VAC	QUANT	2.50000E+001	AC &Voltage (mV rms)
AREA	QUANT	4.00000E-005	&Area (cm^2)
CONDIT	TWOPARAM	F	5.00000E+000	0.00000E+000	Conditionin&g	Time(s)	E(V)
DELAY	TWOPARAM	F	3.00000E+000	0.00000E+000	Init. De&lay	Time(s)	Stab.(mV/s)
SPEED	SELECTOR	0	&Optimize for:
ZGUESS	QUANT	1.00000E+003	E&stimated Z (ohms)
OCVCURVE	TABLE	39
	Pt	T	Vf	Vm	Ach	Over
	#	s	V vs. Ref.	V	V	bits
	0	0.258333	-1.88946E-001	-1.88946E-001	5.58025E-004	...........
	1	0.516667	-1.88947E-001	-1.88952E-001	5.57225E-004	...........
	2	0.775	-1.88947E-001	-1.88961E-001	5.58792E-004	...........
	3	1.03333	-1.88949E-001	-1.88967E-001	5.53859E-004	...........
	4	1.29167	-1.88954E-001	-1.88971E-001	5.55725E-004	...........
	5	1.55	-1.88959E-001	-1.88979E-001	5.56225E-004	...........
	6	1.80833	-1.88966E-001	-1.88986E-001	5.52992E-004	...........
	7	2.06667	-1.88972E-001	-1.88994E-001	5.55492E-004	...........
	8	2.325	-1.88979E-001	-1.88996E-001	5.59025E-004	...........
	9	2.58333	-1.88985E-001	-1.89000E-001	5.52225E-004	...........
	10	2.84167	-1.88991E-001	-1.89003E-001	5.48992E-004	...........
	11	3.1	-1.88996E-001	-1.89007E-001	5.54159E-004	...........
	12	3.35833	-1.88999E-001	-1.89007E-001	5.52192E-004	...........
	13	3.61667	-1.89003E-001	-1.89007E-001	5.54759E-004	...........
	14	3.875	-1.89005E-001	-1.89005E-001	5.54859E-004	...........
	15	4.13333	-1.89006E-001	-1.89008E-001	5.55325E-004	...........
	16	4.39167	-1.89007E-001	-1.89009E-001	5.54425E-004	...........
	17	4.65	-1.89007E-001	-1.89010E-001	5.56225E-004	...........
	18	4.90833	-1.89008E-001	-1.89014E-001	5.56059E-004	...........
	19	5.16667	-1.89009E-001	-1.89018E-001	5.60625E-004	...........
	20	5.425	-1.89011E-001	-1.89019E-001	5.58059E-004	...........
	21	5.68333	-1.89014E-001	-1.89024E-001	5.60492E-004	...........
	22	5.94167	-1.89017E-001	-1.89029E-001	5.58092E-004	...........
	23	6.2	-1.89020E-001	-1.89036E-001	5.56125E-004	...........
	24	6.45833	-1.89025E-001	-1.89042E-001	5.53692E-004	...........
	25	6.71667	-1.89030E-001	-1.89051E-001	5.54159E-004	...........
	26	6.975	-1.89036E-001	-1.89057E-001	5.51459E-004	...........
	27	7.23333	-1.89043E-001	-1.89063E-001	5.58059E-004	...........
	28	7.49167	-1.89050E-001	-1.89074E-001	5.59459E-004	...........
	29	7.75	-1.89057E-001	-1.89083E-001	5.57925E-004	...........
	30	8.00833	-1.89064E-001	-1.89091E-001	5.61092E-004	...........
	31	8.26667	-1.89073E-001	-1.89098E-001	5.66059E-004	...........
	32	8.525	-1.89081E-001	-1.89106E-001	5.60692E-004	...........
	33	8.78333	-1.89090E-001	-1.89113E-001	5.64759E-004	...........
	34	9.04167	-1.89098E-001	-1.89119E-001	5.60192E-004	...........
	35	9.3	-1.89105E-001	-1.89126E-001	5.61159E-004	...........
	36	9.5583	-1.89112E-001	-1.89131E-001	5.55992E-004	...........
	37	9.8167	-1.89119E-001	-1.89136E-001	5.66758E-004	...........
	38	10.075	-1.89125E-001	-1.89141E-001	5.59892E-004	...........
EOC	QUANT	-0.189125	Open Circuit (V)
PSTATMODEL	IQUANT	4	Pstat Model
PSTATSECTION	LABEL	REF600-11020	Pstat Section
PSTATSERIALNO	LABEL	11020	Pstat Serial Number
CTRLMODE	IQUANT	1	Control Mode
IESTAB	IQUANT	0	I/E Stability
CASPEED	IQUANT	1	Control Amp Speed
CONVENTION	IQUANT	1	Current Convention
ICHRANGE	IQUANT	2	Ich Range
ICHRANGEMODE	TOGGLE	F	Ich Auto Range
ICHOFFSETENABLE	TOGGLE	T	Ich Offset Enable
ICHOFFSET	QUANT	0	Ich Offset (V)
ICHFILTER	IQUANT	3	Ich Filter
VCHRANGE	IQUANT	2	Vch Range
VCHRANGEMODE	TOGGLE	F	Vch Auto Range
VCHOFFSETENABLE	TOGGLE	T	Vch Offset Enable
VCHOFFSET	QUANT	0	Vch Offset (V)
VCHFILTER	IQUANT	3	Vch Filter
ACHRANGE	IQUANT	2	Ach Range
ACHOFFSETENABLE	TOGGLE	F	Ach Offset Enable
ACHOFFSET	QUANT	0	Ach Offset (V)
ACHFILTER	IQUANT	3	Ach Filter
IERANGELOWERLIMIT	IQUANT	1	I/E Range Lower Limit
IERANGEMODE	TOGGLE	F	I/E AutoRange
IERANGE	IQUANT	8	I/E Range
POSFEEDENABLE	TOGGLE	F	Positive Feedback IR Comp
POSFEEDRESISTANCE	QUANT	0	Positive Feedback Resistance (ohm)
ACHSELECT	IQUANT	0	Ach Select
CABLEID	IQUANT	14	Cable ID
DCCALDATE	LABEL	9/1/2020	DC Calibration Date
ACCALDATE	LABEL	9/1/2020	AC Calibration Date
THERMOSELECT	IQUANT	1	Thermo Select
FRAMEWORKVERSION	QUANT	6.33	Framework Version
INSTRUMENTVERSION	LABEL	3.50	Instrument Version
ZCURVE	TABLE
	Pt	Time	Freq	Zreal	Zimag	Zsig	Zmod	Zphz	Idc	Vdc	IERange
	#	s	Hz	ohm	ohm	V	ohm	°	A	V	#
	0	1	1000078	1843.983	-2041.534	1	2751.024	-47.91057	1.056181E-007	-0.1867733	8
	1	1	794390.6	2174.611	-2207.104	1	3098.426	-45.42488	9.014071E-008	-0.1871228	8
	2	2	630984.4	2523.844	-2358.558	1	3454.357	-43.06108	7.397082E-008	-0.1873047	8
	3	2	501234.4	2886.682	-2505.565	1	3822.406	-40.95713	1.38389E-007	-0.1874275	8
	4	2	398109.4	3255.706	-2650.472	1	4198.169	-39.14906	6.881507E-008	-0.1874727	8
	5	3	316265.6	3644.646	-2806.061	1	4599.72	-37.59315	4.609074E-008	-0.1875165	8
	6	3	251203.1	4058.344	-2974.481	1	5031.669	-36.2388	8.072671E-008	-0.1875078	8
	7	3	199546.9	4490.384	-3158.43	1	5489.92	-35.12165	1.102519E-007	-0.1874919	8
	8	4	158578.1	4980.009	-3356.483	1	6005.537	-33.97963	1.324061E-007	-0.187536	8
	9	4	125953.1	5568.247	-3531.665	1	6593.787	-32.38494	5.771222E-010	-0.1875081	7
	10	4	100078.1	6167.215	-3696.362	1	7190.106	-30.93665	6.53063E-009	-0.1875326	7
	11	5	79453.13	6815.171	-3829.342	1	7817.315	-29.33098	6.223989E-009	-0.1875421	7
	12	5	63140.62	7493.61	-3893.951	1	8444.942	-27.45802	6.374487E-009	-0.1875418	7
	13	5	50203.12	8169.741	-3885.769	1	9046.761	-25.43714	2.983875E-009	-0.1875533	7
	14	5	39890.62	8821.123	-3816.198	1	9611.22	-23.39429	5.407961E-009	-0.187551	7
	15	6	31640.63	9425.039	-3696.82	1	10124.12	-21.4168	3.549577E-009	-0.1875501	7
	16	6	25171.88	9963.33	-3571.243	1	10584.03	-19.71964	5.649086E-009	-0.1875639	7
	17	6	20015.62	10436.41	-3449.481	1	10991.7	-18.28995	5.607055E-009	-0.1875681	7
	18	7	15890.62	10860.17	-3359.315	1	11367.87	-17.18811	4.186381E-009	-0.1875632	7
	19	7	12609.37	11312.98	-3253.76	1	11771.59	-16.04593	5.400704E-010	-0.1875604	6
	20	7	10078.13	11651.79	-3277.673	1	12104.02	-15.7114	8.496306E-010	-0.1875606	6
	21	8	8015.625	11977.72	-3367.58	1	12442.12	-15.70352	2.945652E-010	-0.1875683	6
	22	8	6328.125	12317.62	-3539.335	1	12816.03	-16.03143	2.373768E-010	-0.1875664	6
	23	8	5015.625	12671.62	-3790.831	1	13226.5	-16.65504	6.127404E-010	-0.187566	6
	24	9	3984.375	13040.4	-4121.155	1	13676.11	-17.53809	6.153891E-010	-0.1875651	6
	25	9	3170.956	13439.81	-4540.417	1	14186.05	-18.66669	-1.84408E-011	-0.1875728	6
	26	9	2527.573	13884.63	-5053.743	1	14775.76	-20.00055	4.111461E-010	-0.1875625	6
	27	10	1976.103	14424.56	-5732.542	1	15521.92	-21.67363	5.949147E-010	-0.1875671	6
	28	10	1577.524	14991.86	-6479.794	1	16332.28	-23.37501	5.816361E-010	-0.1875728	6
	29	10	1265.625	15614.5	-7341.239	1	17254.18	-25.1808	4.759992E-010	-0.1875693	6
	30	11	998.264	16375.63	-8427.466	1	18416.93	-27.23192	7.046008E-011	-0.1875643	6
	31	11	796.875	17214.98	-9645.01	1	19732.76	-29.26054	1.579912E-010	-0.1875699	6
	32	11	627.7902	18235.82	-11144.76	1	21371.73	-31.43105	3.000053E-010	-0.1875686	6
	33	12	505.5147	19306.74	-12730.44	1	23126.05	-33.39997	2.029935E-010	-0.1875739	6
	34	12	397.9953	20683.03	-14751.01	1	25404.33	-35.49624	5.600889E-010	-0.1875593	6
	35	12	315.5048	22238.5	-17031.02	1	28010.82	-37.44615	5.313857E-010	-0.1875616	6
	36	12	252.4038	23958.59	-19559.3	1	30928.63	-39.2275	4.506756E-010	-0.1875648	6
	37	13	198.6229	26109.68	-22697.79	1	34596.31	-41.00124	5.71773E-010	-0.1875629	6
	38	13	158.3615	28469.25	-26128.69	1	38642.03	-42.54529	4.27617E-010	-0.187565	6
	39	13	125.558	31298.31	-30180.4	1	43479.2	-43.95826	4.703234E-010	-0.1875661	6
	40	14	100.4464	34457.37	-34645.12	1	48863.02	-45.15568	4.874386E-010	-0.187569	6
	41	14	79.00281	38434.27	-40153.67	1	55583.36	-46.25336	4.705718E-010	-0.1875718	6
	42	14	63.3446	42698.87	-45939.26	1	62718.49	-47.09366	5.11671E-010	-0.1875714	6
	43	15	49.86702	48057.27	-53068.4	1	71594.38	-47.83689	1.544765E-010	-0.1875751	6
	44	15	39.72458	53982.54	-60805.67	1	81310.78	-48.40172	3.338759E-010	-0.1875671	6
	45	15	31.6723	60826.75	-69591.28	1	92427.48	-48.84469	7.017423E-010	-0.1875756	6
	46	16	24.93351	69254.55	-80094.48	1	105883.5	-49.15132	-8.537109E-010	-0.1875798	5
	47	16	19.86229	78685.9	-91550.68	1	120718.7	-49.32163	-9.633533E-010	-0.1875863	5
	48	16	15.83615	89811.4	-104412.5	1	137724.6	-49.29923	-7.941238E-010	-0.1875798	5
	49	17	12.40079	104151.6	-119747.7	1	158704.3	-48.98462	-2.093312E-009	-0.1875837	5
	50	17	9.93114	119016.7	-135030.2	1	179994.8	-48.60678	-1.701853E-009	-0.1875855	5
	51	17	7.944915	136842.5	-151294.8	1	203999.9	-47.87142	1.208529E-009	-0.1875845	5
	52	18	6.317385	157566.7	-169359.3	1	231321.9	-47.06583	-3.183799E-010	-0.1875654	5
	53	19	5.008013	181294.2	-188276.3	1	261372.4	-46.08232	-2.870643E-010	-0.1875795	5
	54	19	3.945707	207270.8	-208531.5	1	294018	-45.17371	7.099877E-010	-0.1875805	5
	55	20	3.158693	233776.4	-228002.5	1	326552.5	-44.28363	-1.221177E-010	-0.1875726	5
	56	21	2.504006	261992.4	-250555.2	1	362516.1	-43.72168	-1.656149E-010	-0.1875865	5
	57	23	1.998082	290186.5	-274165.3	1	399217.8	-43.37388	3.227851E-010	-0.1875463	5
	58	24	1.584686	319560.8	-304355.4	1	441306.4	-43.60393	3.370906E-010	-0.1875453	5
	59	26	1.266892	347767.7	-337967.1	1	484937.3	-44.18118	1.874377E-010	-0.187587	5
	60	29	0.999041	379737.8	-381595.9	1	538345.8	-45.13984	1.021499E-010	-0.1876166	5
