EXPLAIN
TAG	EISPOT
TITLE	LABEL	Potentiostatic EIS	Test &Identifier
DATE	LABEL	2/13/2020	Date
TIME	LABEL	10:34:19	Time
NOTES	NOTES	1	&Notes...
	
PSTAT	PSTAT	REF600-11020	Potentiostat
VDC	POTEN	0.00000E+000	T	DC &Voltage (V)
FREQINIT	QUANT	1.00000E+006	Initial Fre&q. (Hz)
FREQFINAL	QUANT	1.00000E+000	Final Fre&q. (Hz)
PTSPERDEC	QUANT	1.00000E+001	Points/&decade
VAC	QUANT	2.50000E+001	AC &Voltage (mV rms)
AREA	QUANT	5.00000E-004	&Area (cm^2)
CONDIT	TWOPARAM	F	1.50000E+001	0.00000E+000	Conditionin&g	Time(s)	E(V)
DELAY	TWOPARAM	F	1.00000E+002	0.00000E+000	Init. De&lay	Time(s)	Stab.(mV/s)
SPEED	SELECTOR	0	&Optimize for:
ZGUESS	QUANT	1.00000E+003	E&stimated Z (ohms)
OCVCURVE	TABLE	39
	Pt	T	Vf	Vm	Ach	Over
	#	s	V vs. Ref.	V	V	bits
	0	0.258333	5.73876E-003	5.73876E-003	5.95304E-004	...........
	1	0.516667	5.74123E-003	5.86766E-003	5.89571E-004	...........
	2	0.775	5.75645E-003	5.99523E-003	5.90337E-004	...........
	3	1.03333	5.79324E-003	5.77095E-003	5.89171E-004	...........
	4	1.29167	5.83730E-003	5.89533E-003	5.89237E-004	...........
	5	1.55	5.86770E-003	6.06490E-003	5.90904E-004	...........
	6	1.80833	5.88835E-003	5.77708E-003	5.95304E-004	...........
	7	2.06667	5.90442E-003	5.86197E-003	5.90337E-004	...........
	8	2.325	5.90524E-003	5.96211E-003	5.91337E-004	...........
	9	2.58333	5.89589E-003	5.88638E-003	5.90837E-004	...........
	10	2.84167	5.89361E-003	5.90349E-003	5.88704E-004	...........
	11	3.1	5.89966E-003	5.95430E-003	5.89337E-004	...........
	12	3.35833	5.90826E-003	5.93310E-003	5.90004E-004	...........
	13	3.61667	5.91843E-003	5.93377E-003	5.92871E-004	...........
	14	3.875	5.92793E-003	5.93524E-003	5.90437E-004	...........
	15	4.13333	5.93379E-003	5.94842E-003	5.91337E-004	...........
	16	4.39167	5.93689E-003	5.94226E-003	5.89904E-004	...........
	17	4.65	5.93975E-003	5.96118E-003	5.89304E-004	...........
	18	4.90833	5.94388E-003	5.96913E-003	5.89971E-004	...........
	19	5.16667	5.95023E-003	5.98495E-003	5.94604E-004	...........
	20	5.425	5.95891E-003	5.98149E-003	5.88937E-004	...........
	21	5.68333	5.96857E-003	5.99503E-003	5.89571E-004	...........
	22	5.94167	5.97768E-003	6.00750E-003	5.91137E-004	...........
	23	6.2	5.98652E-003	6.02558E-003	5.89837E-004	...........
	24	6.45833	5.99664E-003	6.03743E-003	5.87571E-004	...........
	25	6.71667	6.00878E-003	6.05091E-003	5.87704E-004	...........
	26	6.975	6.02219E-003	6.05989E-003	5.90504E-004	...........
	27	7.23333	6.03576E-003	6.08255E-003	5.87571E-004	...........
	28	7.49167	6.05100E-003	6.18043E-003	5.87204E-004	...........
	29	7.75	6.07115E-003	6.06057E-003	5.85237E-004	...........
	30	8.00833	6.09150E-003	6.07131E-003	5.84804E-004	...........
	31	8.26667	6.10060E-003	6.10320E-003	5.86171E-004	...........
	32	8.525	6.09783E-003	6.10586E-003	5.87471E-004	...........
	33	8.78333	6.09405E-003	6.10168E-003	5.87871E-004	...........
	34	9.04167	6.09522E-003	6.10559E-003	5.87837E-004	...........
	35	9.3	6.09895E-003	6.10170E-003	5.87604E-004	...........
	36	9.5583	6.10241E-003	6.12795E-003	5.89071E-004	...........
	37	9.8167	6.10652E-003	6.14622E-003	5.88504E-004	...........
	38	10.075	6.11424E-003	6.16024E-003	5.90871E-004	...........
EOC	QUANT	0.0061142	Open Circuit (V)
PSTATMODEL	IQUANT	4	Pstat Model
PSTATSECTION	LABEL	REF600-11020	Pstat Section
PSTATSERIALNO	LABEL	11020	Pstat Serial Number
CTRLMODE	IQUANT	1	Control Mode
IESTAB	IQUANT	0	I/E Stability
CASPEED	IQUANT	1	Control Amp Speed
CONVENTION	IQUANT	1	Current Convention
ICHRANGE	IQUANT	2	Ich Range
ICHRANGEMODE	TOGGLE	F	Ich Auto Range
ICHOFFSETENABLE	TOGGLE	T	Ich Offset Enable
ICHOFFSET	QUANT	0	Ich Offset (V)
ICHFILTER	IQUANT	3	Ich Filter
VCHRANGE	IQUANT	2	Vch Range
VCHRANGEMODE	TOGGLE	F	Vch Auto Range
VCHOFFSETENABLE	TOGGLE	T	Vch Offset Enable
VCHOFFSET	QUANT	0	Vch Offset (V)
VCHFILTER	IQUANT	3	Vch Filter
ACHRANGE	IQUANT	2	Ach Range
ACHOFFSETENABLE	TOGGLE	F	Ach Offset Enable
ACHOFFSET	QUANT	0	Ach Offset (V)
ACHFILTER	IQUANT	3	Ach Filter
IERANGELOWERLIMIT	IQUANT	1	I/E Range Lower Limit
IERANGEMODE	TOGGLE	F	I/E AutoRange
IERANGE	IQUANT	7	I/E Range
POSFEEDENABLE	TOGGLE	F	Positive Feedback IR Comp
POSFEEDRESISTANCE	QUANT	0	Positive Feedback Resistance (ohm)
ACHSELECT	IQUANT	0	Ach Select
CABLEID	IQUANT	14	Cable ID
DCCALDATE	LABEL	1/27/2020	DC Calibration Date
ACCALDATE	LABEL	1/27/2020	AC Calibration Date
THERMOSELECT	IQUANT	1	Thermo Select
FRAMEWORKVERSION	QUANT	6.33	Framework Version
INSTRUMENTVERSION	LABEL	3.50	Instrument Version
ZCURVE	TABLE
	Pt	Time	Freq	Zreal	Zimag	Zsig	Zmod	Zphz	Idc	Vdc	IERange
	#	s	Hz	ohm	ohm	V	ohm	°	A	V	#
	0	1	1000078	1917.631	-2019.872	1	2785.174	-46.4874	-3.862758E-006	0.009148	8
	1	1	794390.6	2319.243	-2111.873	1	3136.701	-42.32059	-1.708642E-006	0.0086986	8
	2	1	630984.4	2743.751	-2175.557	1	3501.602	-38.41137	-2.427716E-006	0.0084792	8
	3	2	501234.4	3161.302	-2169.747	1	3834.271	-34.4636	7.439273E-007	0.0076017	8
	4	2	398109.4	3564.396	-2126.887	1	4150.731	-30.82467	-1.170966E-006	0.0078043	8
	5	2	316265.6	3960.362	-2017.192	1	4444.495	-26.99181	-9.60773E-007	0.00783	8
	6	3	251203.1	4299.413	-1872.997	1	4689.677	-23.53988	2.217983E-006	0.0071372	8
	7	3	199546.9	4598.376	-1730.694	1	4913.285	-20.62486	-2.399908E-006	0.0081771	8
	8	3	158578.1	4828.129	-1541.072	1	5068.109	-17.70237	2.115782E-006	0.0074119	8
	9	4	125953.1	5098.559	-1328.244	1	5268.732	-14.60178	1.083189E-006	0.0053152	7
	10	4	100078.1	5255.399	-1179.459	1	5386.125	-12.64919	-1.938312E-008	0.007595	7
	11	4	79453.13	5387.778	-1046.958	1	5488.558	-10.99672	2.915005E-008	0.0075743	7
	12	5	63140.62	5493.186	-933.0434	1	5571.863	-9.63995	-3.905768E-008	0.0076066	7
	13	5	50203.12	5581.607	-839.5968	1	5644.401	-8.554414	-2.700918E-008	0.0076323	7
	14	5	39890.62	5656.696	-765.2597	1	5708.225	-7.70442	3.601974E-008	0.007488	7
	15	6	31640.63	5721.207	-712.4592	1	5765.397	-7.098474	-2.754206E-008	0.0076288	7
	16	6	25171.88	5778.21	-677.8895	1	5817.839	-6.691253	2.694663E-008	0.0075826	7
	17	6	20015.62	5826.936	-663.9021	1	5864.636	-6.500064	-1.897994E-008	0.007584	7
	18	7	15890.62	5875.273	-667.0174	1	5913.015	-6.477034	-2.72295E-008	0.007628	7
	19	7	12609.37	5919.974	-693.5748	1	5960.465	-6.68222	1.314162E-008	0.007478	7
	20	7	10078.13	5959.399	-740.8992	1	6005.278	-7.086905	2.926907E-008	0.0075735	7
	21	8	8015.625	6006.652	-813.0085	1	6061.423	-7.708217	7.716199E-008	0.0074696	7
	22	8	6328.125	6050.608	-918.9755	1	6119.998	-8.636168	4.511624E-008	0.0074334	7
	23	8	5015.625	6100.271	-1058.312	1	6191.391	-9.84206	-9.717343E-009	0.0076186	7
	24	9	3984.375	6151.62	-1239.634	1	6275.278	-11.39329	8.177131E-009	0.0075993	7
	25	9	3170.956	6209.567	-1464.659	1	6379.964	-13.27185	-2.713486E-008	0.007607	7
	26	9	2527.573	6277.253	-1744.563	1	6515.167	-15.53158	-2.127516E-010	0.0075221	7
	27	10	1976.103	6364.772	-2131.151	1	6712.088	-18.51237	3.662804E-008	0.0074726	7
	28	10	1577.524	6464.076	-2564.012	1	6954.023	-21.63603	7.585088E-008	0.0074592	7
	29	10	1265.625	6575.757	-3087.016	1	7264.313	-25.1479	1.371556E-008	0.0074619	7
	30	11	998.264	6732.335	-3778.032	1	7719.965	-29.30014	-1.000183E-008	0.0076059	7
	31	11	796.875	6908.84	-4578.401	1	8288.174	-33.53193	-4.642361E-008	0.0075975	7
	32	11	627.7902	7141.123	-5616.658	1	9085.29	-38.18587	1.42322E-008	0.0074632	7
	33	12	505.5147	7404.259	-6764.564	1	10029.08	-42.41496	-5.187277E-010	0.0074297	6
	34	12	397.9953	7755.454	-8313.423	1	11369.26	-46.98872	4.812348E-010	0.0075517	6
	35	12	315.5048	8179.721	-10158.61	1	13042.44	-51.15895	1.461274E-009	0.0075509	6
	36	13	252.4038	8688.927	-12320.66	1	15076.34	-54.80728	8.095187E-010	0.0075482	6
	37	13	198.6229	9372.83	-15161.76	1	17824.95	-58.27611	6.329344E-010	0.0075488	6
	38	13	158.3615	10202.1	-18450.41	1	21083.18	-61.05972	2.214089E-010	0.0075467	6
	39	14	125.558	11287.84	-22546.85	1	25214.6	-63.40565	7.847513E-010	0.0075487	6
	40	14	100.4464	12670.4	-27357.17	1	30148.86	-65.14891	5.922182E-010	0.0075494	6
	41	14	79.00281	14563.22	-33640.23	1	36657.23	-66.59169	1.304961E-009	0.0075459	6
	42	15	63.3446	16502.88	-40508.81	1	43741.39	-67.83452	8.538574E-010	0.0075446	6
	43	15	49.86702	19910.87	-49406.33	1	53267.52	-68.05045	1.041772E-009	0.0075363	6
	44	15	39.72458	24358.33	-59610.24	1	64394.95	-67.77377	5.104577E-010	0.0075491	6
	45	16	31.6723	29973.02	-71308.59	1	77351.78	-67.20161	5.836513E-010	0.0075427	6
	46	16	24.93351	37237.97	-85701.34	1	93441.88	-66.51464	1.090378E-010	0.0075428	6
	47	16	19.86229	46302.86	-101377.3	1	111451	-65.45203	-1.10218E-009	0.0075471	5
	48	17	15.83615	58537.79	-119023.9	1	132640	-63.81134	1.720074E-009	0.0075432	5
	49	17	12.40079	73088.14	-139826.6	1	157776.3	-62.40368	-9.38448E-010	0.007545	5
	50	17	9.93114	88093.01	-160928.7	1	183462.3	-61.30352	9.762396E-010	0.0075391	5
	51	18	7.944915	106816.3	-184195.4	1	212926.5	-59.89024	5.358055E-010	0.007545	5
	52	18	6.317385	129027.3	-211219.5	1	247511	-58.58055	3.038249E-010	0.0075311	5
	53	19	5.008013	154656.5	-241241	1	286558.7	-57.3366	1.907723E-010	0.0075395	5
	54	20	3.945707	184466.1	-275435.2	1	331500.1	-56.18875	9.565099E-011	0.0075434	5
	55	22	3.158693	216043.9	-311844.7	1	379370.7	-55.28605	-8.673195E-011	0.0075356	5
	56	23	2.504006	253120.7	-354012.3	1	435195.1	-54.43503	-1.312337E-010	0.0075322	5
	57	25	1.998082	293882	-399188.8	1	495699.8	-53.63957	7.702147E-011	0.0075629	5
	58	26	1.584686	340674	-453048.2	1	566843.4	-53.0583	1.083686E-010	0.0075738	5
	59	28	1.266892	390174.8	-510581.5	1	642596.2	-52.61375	6.609364E-011	0.0075494	5
	60	30	0.999041	448721.4	-579192.3	1	732676.3	-52.23375	5.849298E-011	0.0075357	5
