EXPLAIN
TAG	EISPOT
TITLE	LABEL	Potentiostatic EIS	Test &Identifier
DATE	LABEL	7/5/2020	Date
TIME	LABEL	17:35:36	Time
NOTES	NOTES	1	&Notes...
	
PSTAT	PSTAT	REF600-11020	Potentiostat
VDC	POTEN	0.00000E+000	T	DC &Voltage (V)
FREQINIT	QUANT	1.00000E+006	Initial Fre&q. (Hz)
FREQFINAL	QUANT	1.00000E+000	Final Fre&q. (Hz)
PTSPERDEC	QUANT	1.00000E+001	Points/&decade
VAC	QUANT	2.50000E+001	AC &Voltage (mV rms)
AREA	QUANT	4.00000E-004	&Area (cm^2)
CONDIT	TWOPARAM	F	5.00000E+000	0.00000E+000	Conditionin&g	Time(s)	E(V)
DELAY	TWOPARAM	F	3.00000E+000	0.00000E+000	Init. De&lay	Time(s)	Stab.(mV/s)
SPEED	SELECTOR	0	&Optimize for:
ZGUESS	QUANT	1.00000E+003	E&stimated Z (ohms)
OCVCURVE	TABLE	39
	Pt	T	Vf	Vm	Ach	Over
	#	s	V vs. Ref.	V	V	bits
	0	0.258333	7.45783E-002	7.45783E-002	5.17317E-004	...........
	1	0.516667	7.45791E-002	7.46192E-002	5.18717E-004	...........
	2	0.775	7.45828E-002	7.45985E-002	5.16417E-004	...........
	3	1.03333	7.45900E-002	7.46103E-002	5.13983E-004	...........
	4	1.29167	7.45980E-002	7.46118E-002	5.14417E-004	...........
	5	1.55	7.46040E-002	7.46078E-002	5.19383E-004	...........
	6	1.80833	7.46074E-002	7.45991E-002	5.20817E-004	...........
	7	2.06667	7.46079E-002	7.45924E-002	5.22650E-004	...........
	8	2.325	7.46051E-002	7.45808E-002	5.16817E-004	...........
	9	2.58333	7.45993E-002	7.45722E-002	5.21350E-004	...........
	10	2.84167	7.45917E-002	7.45733E-002	5.15850E-004	...........
	11	3.1	7.45838E-002	7.45665E-002	5.15517E-004	...........
	12	3.35833	7.45770E-002	7.45620E-002	5.15683E-004	...........
	13	3.61667	7.45716E-002	7.45577E-002	5.13050E-004	...........
	14	3.875	7.45668E-002	7.45506E-002	5.14150E-004	...........
	15	4.13333	7.45622E-002	7.45490E-002	5.12150E-004	...........
	16	4.39167	7.45574E-002	7.45425E-002	5.15883E-004	...........
	17	4.65	7.45527E-002	7.45388E-002	5.17850E-004	...........
	18	4.90833	7.45479E-002	7.45267E-002	5.12484E-004	...........
	19	5.16667	7.45427E-002	7.45266E-002	5.19150E-004	...........
	20	5.425	7.45369E-002	7.45210E-002	5.18817E-004	...........
	21	5.68333	7.45313E-002	7.45171E-002	5.13850E-004	...........
	22	5.94167	7.45261E-002	7.45094E-002	5.13683E-004	...........
	23	6.2	7.45212E-002	7.45064E-002	5.11984E-004	...........
	24	6.45833	7.45162E-002	7.44999E-002	5.14817E-004	...........
	25	6.71667	7.45112E-002	7.44976E-002	5.17917E-004	...........
	26	6.975	7.45062E-002	7.44912E-002	5.14183E-004	...........
	27	7.23333	7.45015E-002	7.44898E-002	5.13350E-004	...........
	28	7.49167	7.44970E-002	7.44829E-002	5.12050E-004	...........
	29	7.75	7.44928E-002	7.44789E-002	5.09784E-004	...........
	30	8.00833	7.44884E-002	7.44707E-002	5.11850E-004	...........
	31	8.26667	7.44836E-002	7.44706E-002	5.13683E-004	...........
	32	8.525	7.44786E-002	7.44643E-002	5.10984E-004	...........
	33	8.78333	7.44738E-002	7.44606E-002	5.15450E-004	...........
	34	9.04167	7.44693E-002	7.44540E-002	5.13750E-004	...........
	35	9.3	7.44648E-002	7.44494E-002	5.14750E-004	...........
	36	9.5583	7.44600E-002	7.44447E-002	5.14617E-004	...........
	37	9.8167	7.44551E-002	7.44410E-002	5.12584E-004	...........
	38	10.075	7.44502E-002	7.44402E-002	5.14617E-004	...........
EOC	QUANT	0.0744502	Open Circuit (V)
PSTATMODEL	IQUANT	4	Pstat Model
PSTATSECTION	LABEL	REF600-11020	Pstat Section
PSTATSERIALNO	LABEL	11020	Pstat Serial Number
CTRLMODE	IQUANT	1	Control Mode
IESTAB	IQUANT	0	I/E Stability
CASPEED	IQUANT	1	Control Amp Speed
CONVENTION	IQUANT	1	Current Convention
ICHRANGE	IQUANT	2	Ich Range
ICHRANGEMODE	TOGGLE	F	Ich Auto Range
ICHOFFSETENABLE	TOGGLE	T	Ich Offset Enable
ICHOFFSET	QUANT	0	Ich Offset (V)
ICHFILTER	IQUANT	3	Ich Filter
VCHRANGE	IQUANT	2	Vch Range
VCHRANGEMODE	TOGGLE	F	Vch Auto Range
VCHOFFSETENABLE	TOGGLE	T	Vch Offset Enable
VCHOFFSET	QUANT	0	Vch Offset (V)
VCHFILTER	IQUANT	3	Vch Filter
ACHRANGE	IQUANT	2	Ach Range
ACHOFFSETENABLE	TOGGLE	F	Ach Offset Enable
ACHOFFSET	QUANT	0	Ach Offset (V)
ACHFILTER	IQUANT	3	Ach Filter
IERANGELOWERLIMIT	IQUANT	1	I/E Range Lower Limit
IERANGEMODE	TOGGLE	F	I/E AutoRange
IERANGE	IQUANT	8	I/E Range
POSFEEDENABLE	TOGGLE	F	Positive Feedback IR Comp
POSFEEDRESISTANCE	QUANT	0	Positive Feedback Resistance (ohm)
ACHSELECT	IQUANT	0	Ach Select
CABLEID	IQUANT	14	Cable ID
DCCALDATE	LABEL	6/26/2020	DC Calibration Date
ACCALDATE	LABEL	6/26/2020	AC Calibration Date
THERMOSELECT	IQUANT	1	Thermo Select
FRAMEWORKVERSION	QUANT	6.33	Framework Version
INSTRUMENTVERSION	LABEL	3.50	Instrument Version
ZCURVE	TABLE
	Pt	Time	Freq	Zreal	Zimag	Zsig	Zmod	Zphz	Idc	Vdc	IERange
	#	s	Hz	ohm	ohm	V	ohm	°	A	V	#
	0	1	1000078	1774.559	-1664.979	1	2433.354	-43.17523	-2.26708E-006	0.0772259	8
	1	1	794390.6	2095.436	-1723.397	1	2713.107	-39.43568	-3.01565E-008	0.0762536	8
	2	2	630984.4	2433.425	-1742.235	1	2992.815	-35.60114	-2.011077E-006	0.0770294	8
	3	2	501234.4	2757.847	-1706.619	1	3243.188	-31.75017	-1.556348E-006	0.0760899	8
	4	2	398109.4	3062.023	-1640.151	1	3473.626	-28.1754	-4.185436E-006	0.076936	8
	5	3	316265.6	3361.793	-1520.813	1	3689.787	-24.34112	3.816699E-006	0.0756178	8
	6	3	251203.1	3612.608	-1433.983	1	3886.803	-21.65003	-1.828851E-006	0.0766997	8
	7	3	199546.9	3815.694	-1306.908	1	4033.302	-18.90677	-5.449559E-007	0.0759183	8
	8	4	158578.1	4006.17	-1177.002	1	4175.492	-16.37264	2.084526E-006	0.0765448	8
	9	4	125953.1	4174.212	-1078.329	1	4311.246	-14.48462	4.39861E-006	0.0710817	7
	10	4	100078.1	4299.045	-951.816	1	4403.152	-12.484	-3.324523E-007	0.0751561	7
	11	5	79453.13	4404.822	-858.9287	1	4487.785	-11.03406	-7.842546E-007	0.0781576	7
	12	5	63140.62	4494.816	-778.5761	1	4561.749	-9.82706	-3.878349E-007	0.0778706	7
	13	5	50203.12	4573.794	-715.1964	1	4629.374	-8.887274	9.666231E-007	0.0740687	7
	14	5	39890.62	4631.888	-659.5607	1	4678.611	-8.104188	-1.2413E-006	0.0767801	7
	15	6	31640.63	4695.694	-627.4139	1	4737.424	-7.610485	6.18346E-007	0.0741794	7
	16	6	25171.88	4740.669	-608.9638	1	4779.621	-7.319858	-8.455676E-007	0.0759591	7
	17	6	20015.62	4789.442	-606.0432	1	4827.634	-7.211726	-1.240715E-006	0.0767734	7
	18	7	15890.62	4849.128	-624.8011	1	4889.215	-7.342002	1.323767E-006	0.074458	7
	19	7	12609.37	4893.714	-657.5588	1	4937.694	-7.652884	9.675389E-007	0.0740656	7
	20	7	10078.13	4929.369	-703.4811	1	4979.314	-8.121964	-1.240995E-006	0.0767779	7
	21	8	8015.625	4991.621	-779.6047	1	5052.134	-8.876894	1.213627E-006	0.075388	7
	22	8	6328.125	5038.554	-878.3877	1	5114.547	-9.88918	-3.858768E-007	0.0778624	7
	23	8	5015.625	5092.921	-1005.828	1	5191.294	-11.17188	-3.867956E-007	0.0778562	7
	24	9	3984.375	5151.278	-1166.811	1	5281.772	-12.76265	-7.84267E-007	0.0781394	7
	25	9	3170.956	5216.2	-1367.126	1	5392.381	-14.68645	-1.23946E-006	0.0767692	7
	26	9	2527.573	5298.972	-1618.23	1	5540.557	-16.98192	6.182945E-007	0.0741676	7
	27	10	1976.103	5393.871	-1955.23	1	5737.313	-19.92513	-3.863284E-007	0.0778549	7
	28	10	1577.524	5499.119	-2336.748	1	5975.006	-23.02216	4.843864E-008	0.0773948	7
	29	10	1265.625	5615.35	-2790.223	1	6270.367	-26.42242	-3.428716E-007	0.0751267	7
	30	11	998.264	5785.838	-3400.961	1	6711.368	-30.44734	1.214938E-006	0.0753696	7
	31	11	796.875	5969.128	-4093.19	1	7237.728	-34.43947	1.20099E-006	0.0741627	7
	32	11	627.7902	6203.837	-4994.987	1	7964.766	-38.8391	6.190438E-007	0.0741606	7
	33	12	505.5147	6487.833	-5997.431	1	8835.223	-42.75066	1.323466E-006	0.0744407	7
	34	12	397.9953	6860.694	-7319.752	1	10032.34	-46.85417	5.053504E-009	0.0762095	7
	35	12	315.5048	7334.571	-8893.155	1	11527.54	-50.48612	-3.998052E-012	0.0762175	6
	36	13	252.4038	7911.334	-10710.96	1	13315.92	-53.54965	8.992191E-010	0.0761981	6
	37	13	198.6229	8701.535	-13058.35	1	15691.95	-56.32219	3.346793E-010	0.0762111	6
	38	13	158.3615	9654.58	-15713.66	1	18442.62	-58.43316	8.944097E-010	0.0761947	6
	39	14	125.558	10889.65	-18947.84	1	21854.18	-60.11326	2.797814E-010	0.0762072	6
	40	14	100.4464	12390.19	-22616.87	1	25788.37	-61.28476	5.975184E-010	0.0762005	6
	41	14	79.00281	14402.42	-27300.53	1	30866.62	-62.18607	1.147665E-010	0.0761903	6
	42	15	63.3446	16602.94	-32277.98	1	36297.73	-62.77991	-3.223224E-010	0.0762036	6
	43	15	49.86702	19724.4	-38693.79	1	43431.11	-62.98949	-2.430975E-010	0.0761998	6
	44	15	39.72458	23409.34	-45909.77	1	51533.53	-62.98302	-3.259267E-010	0.0762073	6
	45	16	31.6723	27951.61	-54219.79	1	61000.64	-62.7278	5.385722E-010	0.0761964	6
	46	16	24.93351	33917.02	-64300.33	1	72697.29	-62.18933	-4.202837E-010	0.0761895	6
	47	16	19.86229	40928.86	-75342.55	1	85741.89	-61.48756	-1.969747E-009	0.0761874	6
	48	17	15.83615	49822.6	-87809.23	1	100959.2	-60.4296	2.018647E-009	0.0762	6
	49	17	12.40079	61593.63	-102378.7	1	119478.8	-58.96782	7.155562E-010	0.0761819	5
	50	17	9.93114	73935.95	-116836.8	1	138265.5	-57.67379	6.079736E-010	0.0761837	5
	51	17	7.944915	88428.84	-132183	1	159034.6	-56.21796	1.149665E-009	0.0761831	5
	52	18	6.317385	105481.3	-149294.3	1	182797.9	-54.75754	-4.871576E-010	0.0762053	5
	53	19	5.008013	124747.2	-167355	1	208733.2	-53.29898	6.786473E-011	0.076192	5
	54	20	3.945707	145844.7	-187899.8	1	237859.2	-52.18197	7.077258E-010	0.0761897	5
	55	20	3.158693	166072.2	-208040.3	1	266196.8	-51.40072	-1.153527E-011	0.0762138	5
	56	22	2.504006	187911.6	-232852.3	1	299217.2	-51.09649	-1.980337E-010	0.0761825	5
	57	23	1.998082	208883.4	-260253	1	333712.3	-51.2489	1.732204E-010	0.0762117	5
	58	24	1.584686	231038	-296027.3	1	375513.9	-52.02932	2.039276E-010	0.076229	5
	59	26	1.266892	251775.8	-338032.8	1	421494.1	-53.32028	8.884147E-011	0.0761953	5
	60	29	0.999041	275640.7	-393325.7	1	480294.5	-54.97742	5.510683E-011	0.0761651	5
