EXPLAIN
TAG	EISPOT
TITLE	LABEL	Potentiostatic EIS	Test &Identifier
DATE	LABEL	1/10/2020	Date
TIME	LABEL	14:06:41	Time
NOTES	NOTES	5	&Notes...
	
	
	
	
	
PSTAT	PSTAT	REF600-11020	Potentiostat
VDC	POTEN	0.00000E+000	T	DC &Voltage (V)
FREQINIT	QUANT	1.00000E+006	Initial Fre&q. (Hz)
FREQFINAL	QUANT	1.00000E+000	Final Fre&q. (Hz)
PTSPERDEC	QUANT	1.00000E+001	Points/&decade
VAC	QUANT	2.50000E+001	AC &Voltage (mV rms)
AREA	QUANT	1.00000E-001	&Area (cm^2)
CONDIT	TWOPARAM	T	5.00000E+000	0.00000E+000	Conditionin&g	Time(s)	E(V)
DELAY	TWOPARAM	T	5.00000E+000	0.00000E+000	Init. De&lay	Time(s)	Stab.(mV/s)
SPEED	SELECTOR	0	&Optimize for:
ZGUESS	QUANT	5.00000E+002	E&stimated Z (ohms)
OCVCURVE	TABLE	19
	Pt	T	Vf	Vm	Ach	Over
	#	s	V vs. Ref.	V	V	bits
	0	0.258333	5.98214E-003	5.98214E-003	6.46980E-004	...........
	1	0.516667	5.98077E-003	5.91026E-003	6.48980E-004	...........
	2	0.775	5.97363E-003	5.90959E-003	6.46413E-004	...........
	3	1.03333	5.95714E-003	5.87970E-003	6.47880E-004	...........
	4	1.29167	5.93504E-003	5.93124E-003	6.45646E-004	...........
	5	1.55	5.91757E-003	5.94481E-003	6.50680E-004	...........
	6	1.80833	5.91440E-003	6.01474E-003	6.51880E-004	...........
	7	2.06667	5.92927E-003	6.04243E-003	6.47980E-004	...........
	8	2.325	5.95966E-003	6.09720E-003	6.48680E-004	...........
	9	2.58333	6.00003E-003	6.15267E-003	6.53213E-004	...........
	10	2.84167	6.04616E-003	6.21397E-003	6.56479E-004	...........
	11	3.1	6.09666E-003	6.26919E-003	6.48880E-004	...........
	12	3.35833	6.15074E-003	6.32041E-003	6.48080E-004	...........
	13	3.61667	6.20589E-003	6.34057E-003	6.52913E-004	...........
	14	3.875	6.25608E-003	6.28901E-003	6.48646E-004	...........
	15	4.13333	6.29263E-003	6.33762E-003	6.53613E-004	...........
	16	4.39167	6.31458E-003	6.45508E-003	6.51946E-004	...........
	17	4.65	6.33739E-003	6.55125E-003	6.51113E-004	...........
	18	4.90833	6.38000E-003	6.59534E-003	6.46746E-004	...........
EOC	QUANT	0.00638	Open Circuit (V)
PSTATMODEL	IQUANT	4	Pstat Model
PSTATSECTION	LABEL	REF600-11020	Pstat Section
PSTATSERIALNO	LABEL	11020	Pstat Serial Number
CTRLMODE	IQUANT	1	Control Mode
IESTAB	IQUANT	0	I/E Stability
CASPEED	IQUANT	1	Control Amp Speed
CONVENTION	IQUANT	1	Current Convention
ICHRANGE	IQUANT	2	Ich Range
ICHRANGEMODE	TOGGLE	F	Ich Auto Range
ICHOFFSETENABLE	TOGGLE	T	Ich Offset Enable
ICHOFFSET	QUANT	0	Ich Offset (V)
ICHFILTER	IQUANT	3	Ich Filter
VCHRANGE	IQUANT	2	Vch Range
VCHRANGEMODE	TOGGLE	F	Vch Auto Range
VCHOFFSETENABLE	TOGGLE	T	Vch Offset Enable
VCHOFFSET	QUANT	0	Vch Offset (V)
VCHFILTER	IQUANT	3	Vch Filter
ACHRANGE	IQUANT	2	Ach Range
ACHOFFSETENABLE	TOGGLE	F	Ach Offset Enable
ACHOFFSET	QUANT	0	Ach Offset (V)
ACHFILTER	IQUANT	3	Ach Filter
IERANGELOWERLIMIT	IQUANT	1	I/E Range Lower Limit
IERANGEMODE	TOGGLE	F	I/E AutoRange
IERANGE	IQUANT	7	I/E Range
POSFEEDENABLE	TOGGLE	F	Positive Feedback IR Comp
POSFEEDRESISTANCE	QUANT	0	Positive Feedback Resistance (ohm)
ACHSELECT	IQUANT	0	Ach Select
CABLEID	IQUANT	14	Cable ID
DCCALDATE	LABEL	12/22/2019	DC Calibration Date
ACCALDATE	LABEL	12/22/2019	AC Calibration Date
THERMOSELECT	IQUANT	1	Thermo Select
FRAMEWORKVERSION	QUANT	6.33	Framework Version
INSTRUMENTVERSION	LABEL	3.50	Instrument Version
ZCURVE	TABLE
	Pt	Time	Freq	Zreal	Zimag	Zsig	Zmod	Zphz	Idc	Vdc	IERange
	#	s	Hz	ohm	ohm	V	ohm	°	A	V	#
	0	1	1000078	1799.707	-1981.703	1	2676.956	-47.75548	-3.638567E-006	0.0098301	8
	1	2	794390.6	2143.601	-2143.121	1	3031.17	-44.99358	-1.647541E-006	0.0090805	8
	2	2	630984.4	2510.865	-2266.364	1	3382.433	-42.07012	1.311869E-006	0.0081207	8
	3	2	501234.4	2909.459	-2356.026	1	3743.77	-38.99991	3.313796E-006	0.0076937	8
	4	3	398109.4	3316.161	-2450.829	1	4123.528	-36.46647	2.745341E-006	0.0076191	8
	5	3	316265.6	3762.14	-2498.061	1	4515.972	-33.58417	1.041631E-006	0.0079322	8
	6	3	251203.1	4201.098	-2531.991	1	4905.12	-31.07726	-2.579419E-006	0.0086504	8
	7	4	199546.9	4647.303	-2485.485	1	5270.205	-28.1389	-9.140923E-007	0.0082472	8
	8	4	158578.1	5085.051	-2394.624	1	5620.673	-25.21642	-9.657203E-007	0.0082477	8
	9	4	125953.1	5547.696	-2275.863	1	5996.373	-22.30519	-5.63567E-007	0.0098122	7
	10	5	100078.1	5923.729	-2089.706	1	6281.516	-19.43124	-1.594037E-008	0.0081053	7
	11	5	79453.13	6248.704	-1907.335	1	6533.317	-16.97412	-1.472222E-008	0.0080949	7
	12	6	63140.62	6524.418	-1719.781	1	6747.271	-14.76679	8.955936E-008	0.0079667	7
	13	6	50203.12	6745.305	-1537.706	1	6918.358	-12.84208	-4.088579E-009	0.0081244	7
	14	6	39890.62	6921.219	-1369.905	1	7055.488	-11.19575	4.941246E-008	0.008006	7
	15	7	31640.63	7062.959	-1226.697	1	7168.694	-9.85286	-3.840433E-008	0.0081522	7
	16	7	25171.88	7178.61	-1112.54	1	7264.31	-8.809605	2.34333E-008	0.00807	7
	17	7	20015.62	7276.483	-1022.381	1	7347.957	-7.99798	-3.531188E-008	0.0081656	7
	18	7	15890.62	7354.754	-966.752	1	7418.02	-7.488359	-3.751266E-008	0.0081476	7
	19	8	12609.37	7424.122	-937.1445	1	7483.036	-7.194378	-1.218436E-008	0.0080833	7
	20	8	10078.13	7489.601	-939.5398	1	7548.302	-7.15017	-3.496092E-008	0.008164	7
	21	8	8015.625	7549.647	-969.92	1	7611.696	-7.320817	-1.61163E-008	0.0081629	7
	22	9	6328.125	7613.869	-1032.682	1	7683.582	-7.723992	-7.751095E-009	0.0081215	7
	23	9	5015.625	7673.479	-1131.074	1	7756.391	-8.38504	-2.883319E-008	0.0081067	7
	24	9	3984.375	7730.716	-1271.959	1	7834.657	-9.343344	1.897972E-008	0.0080185	7
	25	10	3170.956	7803.113	-1458.445	1	7938.239	-10.58675	5.283746E-008	0.007996	7
	26	10	2527.573	7883.605	-1696.885	1	8064.159	-12.14715	-1.597269E-008	0.0081625	7
	27	10	1976.103	7973.863	-2024.995	1	8226.974	-14.24927	4.844298E-008	0.0080694	7
	28	11	1577.524	8073.133	-2400.725	1	8422.526	-16.56101	-1.602645E-008	0.0081606	7
	29	11	1265.625	8189.998	-2864.274	1	8676.412	-19.27617	5.715571E-008	0.007968	7
	30	11	998.264	8343.955	-3478.028	1	9039.815	-22.62794	-5.487752E-009	0.0081682	7
	31	12	796.875	8515.842	-4181.572	1	9487.102	-26.15263	9.355571E-009	0.0079757	6
	32	12	627.7902	8747.755	-5101.206	1	10126.48	-30.24837	-4.549404E-009	0.0081902	6
	33	12	505.5147	9005.535	-6110.52	1	10882.93	-34.15804	-3.977074E-009	0.0081257	6
	34	13	397.9953	9332.22	-7466.344	1	11951.43	-38.66193	1.16703E-009	0.0080961	6
	35	13	315.5048	9723.86	-9077.511	1	13302.43	-43.03106	8.486128E-011	0.0080941	6
	36	13	252.4038	10182.1	-10956.89	1	14957.56	-47.09908	-1.190774E-010	0.0080887	6
	37	14	198.6229	10765	-13425.96	1	17208.76	-51.27719	6.745899E-010	0.008087	6
	38	14	158.3615	11447.81	-16286.27	1	19907.16	-54.89616	5.595071E-011	0.0080827	6
	39	14	125.558	12303.17	-19868.85	1	23369.62	-58.23343	4.1798E-010	0.008081	6
	40	15	100.4464	13354.72	-24080.12	1	27535.45	-60.98746	1.353664E-009	0.0080818	6
	41	15	79.00281	14666.95	-29629.85	1	33061.27	-63.66431	1.025352E-009	0.0080803	6
	42	15	63.3446	16727.86	-35661.48	1	39389.88	-64.86996	5.707143E-010	0.0080781	6
	43	16	49.86702	18988.9	-43908.36	1	47838.5	-66.61312	9.861615E-010	0.0080749	6
	44	16	39.72458	21604.4	-53351.62	1	57559.93	-67.95483	7.861466E-010	0.0080794	6
	45	16	31.6723	25258.82	-64681.05	1	69438.07	-68.66869	9.092101E-010	0.0080769	6
	46	17	24.93351	30632.39	-78940.77	1	84675.78	-68.79162	6.671346E-010	0.0080781	6
	47	17	19.86229	37139.93	-95017.5	1	102018.1	-68.65073	1.569056E-009	0.0080843	6
	48	17	15.83615	45515.1	-114385	1	123107.9	-68.30182	-1.019314E-009	0.0080746	5
	49	18	12.40079	57226.05	-137879	1	149283	-67.45932	-3.088477E-010	0.0080772	5
	50	18	9.93114	71450.38	-162231.3	1	177268.6	-66.23021	-8.793299E-010	0.0080807	5
	51	18	7.944915	89132.96	-190373.6	1	210206.5	-64.911	-5.593536E-011	0.0080717	5
	52	19	6.317385	111248.1	-223371.3	1	249541.4	-63.52482	2.436459E-010	0.0080637	5
	53	20	5.008013	139271.4	-259964	1	294919.9	-61.82056	-8.059626E-011	0.008066	5
	54	21	3.945707	173125	-301069	1	347296.4	-60.09963	1.854635E-010	0.0080797	5
	55	22	3.158693	211107.6	-342216.4	1	402092.6	-58.33025	-2.301163E-010	0.0080761	5
	56	24	2.504006	255667.4	-388275.2	1	464890.8	-56.63631	-2.005205E-010	0.0080657	5
	57	25	1.998082	304728.8	-435993.7	1	531930.6	-55.04917	1.258928E-010	0.0081115	5
	58	27	1.584686	358521.7	-489065.2	1	606401.4	-53.75577	4.633734E-011	0.0080822	5
	59	29	1.266892	417020.1	-544661.6	1	685975.2	-52.56053	-5.676916E-011	0.0080479	5
	60	31	0.999041	485059.3	-611619.3	1	780615.6	-51.58298	-9.421604E-011	0.0080301	5
