EXPLAIN
TAG	EISPOT
TITLE	LABEL	Potentiostatic EIS	Test &Identifier
DATE	LABEL	2/6/2020	Date
TIME	LABEL	17:40:38	Time
NOTES	NOTES	6	&Notes...
	
	
	
	
	
	
PSTAT	PSTAT	REF600-11020	Potentiostat
VDC	POTEN	0.00000E+000	T	DC &Voltage (V)
FREQINIT	QUANT	1.00000E+006	Initial Fre&q. (Hz)
FREQFINAL	QUANT	1.00000E+000	Final Fre&q. (Hz)
PTSPERDEC	QUANT	1.00000E+001	Points/&decade
VAC	QUANT	2.50000E+001	AC &Voltage (mV rms)
AREA	QUANT	1.60000E-004	&Area (cm^2)
CONDIT	TWOPARAM	F	5.00000E+000	0.00000E+000	Conditionin&g	Time(s)	E(V)
DELAY	TWOPARAM	F	5.00000E+000	0.00000E+000	Init. De&lay	Time(s)	Stab.(mV/s)
SPEED	SELECTOR	0	&Optimize for:
ZGUESS	QUANT	1.00000E+003	E&stimated Z (ohms)
OCVCURVE	TABLE	39
	Pt	T	Vf	Vm	Ach	Over
	#	s	V vs. Ref.	V	V	bits
	0	0.258333	-7.76011E-002	-7.76011E-002	5.74704E-004	...........
	1	0.516667	-7.76034E-002	-7.77237E-002	5.77571E-004	...........
	2	0.775	-7.76183E-002	-7.78651E-002	5.71404E-004	...........
	3	1.03333	-7.76588E-002	-7.78376E-002	5.73971E-004	...........
	4	1.29167	-7.77203E-002	-7.77803E-002	5.72571E-004	...........
	5	1.55	-7.77753E-002	-7.77867E-002	5.74471E-004	...........
	6	1.80833	-7.78034E-002	-7.78448E-002	5.72738E-004	...........
	7	2.06667	-7.78116E-002	-7.78726E-002	5.72871E-004	...........
	8	2.325	-7.78202E-002	-7.79012E-002	5.70838E-004	...........
	9	2.58333	-7.78387E-002	-7.78931E-002	5.70871E-004	...........
	10	2.84167	-7.78620E-002	-7.79034E-002	5.74238E-004	...........
	11	3.1	-7.78817E-002	-7.79075E-002	5.74871E-004	...........
	12	3.35833	-7.78944E-002	-7.78988E-002	5.74504E-004	...........
	13	3.61667	-7.79003E-002	-7.78748E-002	5.73638E-004	...........
	14	3.875	-7.79009E-002	-7.79390E-002	5.71704E-004	...........
	15	4.13333	-7.79020E-002	-7.79794E-002	5.68138E-004	...........
	16	4.39167	-7.79124E-002	-7.80000E-002	5.71438E-004	...........
	17	4.65	-7.79348E-002	-7.79992E-002	5.70971E-004	...........
	18	4.90833	-7.79613E-002	-7.79884E-002	5.73337E-004	...........
	19	5.16667	-7.79821E-002	-7.80207E-002	5.70004E-004	...........
	20	5.425	-7.79952E-002	-7.80400E-002	5.75404E-004	...........
	21	5.68333	-7.80072E-002	-7.81047E-002	5.73604E-004	...........
	22	5.94167	-7.80250E-002	-7.80933E-002	5.70738E-004	...........
	23	6.2	-7.80495E-002	-7.81158E-002	5.70971E-004	...........
	24	6.45833	-7.80745E-002	-7.81105E-002	5.70304E-004	...........
	25	6.71667	-7.80941E-002	-7.81285E-002	5.73104E-004	...........
	26	6.975	-7.81087E-002	-7.82004E-002	5.67638E-004	...........
	27	7.23333	-7.81258E-002	-7.82529E-002	5.73071E-004	...........
	28	7.49167	-7.81535E-002	-7.82745E-002	5.71471E-004	...........
	29	7.75	-7.81908E-002	-7.82612E-002	5.70171E-004	...........
	30	8.00833	-7.82263E-002	-7.82431E-002	5.72904E-004	...........
	31	8.26667	-7.82485E-002	-7.82335E-002	5.68238E-004	...........
	32	8.525	-7.82548E-002	-7.82656E-002	5.67038E-004	...........
	33	8.78333	-7.82541E-002	-7.83135E-002	5.68371E-004	...........
	34	9.04167	-7.82583E-002	-7.83052E-002	5.68838E-004	...........
	35	9.3	-7.82718E-002	-7.83209E-002	5.67804E-004	...........
	36	9.5583	-7.82899E-002	-7.83423E-002	5.71271E-004	...........
	37	9.8167	-7.83077E-002	-7.83738E-002	5.70571E-004	...........
	38	10.075	-7.83250E-002	-7.83569E-002	5.71304E-004	...........
EOC	QUANT	-0.078325	Open Circuit (V)
PSTATMODEL	IQUANT	4	Pstat Model
PSTATSECTION	LABEL	REF600-11020	Pstat Section
PSTATSERIALNO	LABEL	11020	Pstat Serial Number
CTRLMODE	IQUANT	1	Control Mode
IESTAB	IQUANT	0	I/E Stability
CASPEED	IQUANT	1	Control Amp Speed
CONVENTION	IQUANT	1	Current Convention
ICHRANGE	IQUANT	2	Ich Range
ICHRANGEMODE	TOGGLE	F	Ich Auto Range
ICHOFFSETENABLE	TOGGLE	T	Ich Offset Enable
ICHOFFSET	QUANT	0	Ich Offset (V)
ICHFILTER	IQUANT	3	Ich Filter
VCHRANGE	IQUANT	2	Vch Range
VCHRANGEMODE	TOGGLE	F	Vch Auto Range
VCHOFFSETENABLE	TOGGLE	T	Vch Offset Enable
VCHOFFSET	QUANT	0	Vch Offset (V)
VCHFILTER	IQUANT	3	Vch Filter
ACHRANGE	IQUANT	2	Ach Range
ACHOFFSETENABLE	TOGGLE	F	Ach Offset Enable
ACHOFFSET	QUANT	0	Ach Offset (V)
ACHFILTER	IQUANT	3	Ach Filter
IERANGELOWERLIMIT	IQUANT	1	I/E Range Lower Limit
IERANGEMODE	TOGGLE	F	I/E AutoRange
IERANGE	IQUANT	8	I/E Range
POSFEEDENABLE	TOGGLE	F	Positive Feedback IR Comp
POSFEEDRESISTANCE	QUANT	0	Positive Feedback Resistance (ohm)
ACHSELECT	IQUANT	0	Ach Select
CABLEID	IQUANT	14	Cable ID
DCCALDATE	LABEL	1/27/2020	DC Calibration Date
ACCALDATE	LABEL	1/27/2020	AC Calibration Date
THERMOSELECT	IQUANT	1	Thermo Select
FRAMEWORKVERSION	QUANT	6.33	Framework Version
INSTRUMENTVERSION	LABEL	3.50	Instrument Version
ZCURVE	TABLE
	Pt	Time	Freq	Zreal	Zimag	Zsig	Zmod	Zphz	Idc	Vdc	IERange
	#	s	Hz	ohm	ohm	V	ohm	°	A	V	#
	0	1	1000078	1828.828	-1996.125	1	2707.236	-47.50442	1.118911E-006	-0.0760023	8
	1	1	794390.6	2175.711	-2175.997	1	3077.123	-45.00377	1.738674E-006	-0.0766995	8
	2	2	630984.4	2567.467	-2310.146	1	3453.79	-41.98014	-1.478908E-007	-0.0763385	8
	3	2	501234.4	2986.331	-2443.106	1	3858.359	-39.28647	-7.282043E-007	-0.0763936	8
	4	2	398109.4	3450.051	-2515.653	1	4269.82	-36.09819	-1.933099E-006	-0.0761981	8
	5	3	316265.6	3928.444	-2548.977	1	4682.943	-32.97758	-5.985157E-007	-0.0764991	8
	6	3	251203.1	4389.338	-2527.44	1	5065.001	-29.93392	-1.879212E-007	-0.0767209	8
	7	3	199546.9	4845.867	-2451.286	1	5430.583	-26.83261	1.399212E-007	-0.0766101	8
	8	4	158578.1	5286.695	-2327.768	1	5776.474	-23.76422	-1.687767E-006	-0.0762013	8
	9	4	125953.1	5711.452	-2089.288	1	6081.596	-20.09286	-3.42634E-008	-0.0767196	7
	10	4	100078.1	6046.097	-1898.854	1	6337.266	-17.43557	8.465769E-009	-0.0767346	7
	11	4	79453.13	6318.763	-1710.639	1	6546.225	-15.14822	-2.8333E-008	-0.0766696	7
	12	5	63140.62	6543.493	-1521.197	1	6717.986	-13.08736	-1.866933E-008	-0.0766931	7
	13	5	50203.12	6725.759	-1345.63	1	6859.049	-11.31385	7.927569E-009	-0.0767498	7
	14	5	39890.62	6877.961	-1190.513	1	6980.234	-9.82008	7.292093E-008	-0.0767384	7
	15	6	31640.63	6993.292	-1054.887	1	7072.406	-8.577981	6.297324E-009	-0.0767284	7
	16	6	25171.88	7088.587	-946.8059	1	7151.539	-7.607834	-4.286953E-008	-0.0766431	7
	17	6	20015.62	7168.428	-864.0831	1	7220.319	-6.873278	7.799893E-009	-0.0766785	7
	18	7	15890.62	7233.975	-800.0015	1	7278.077	-6.310667	7.128494E-008	-0.0767409	7
	19	7	12609.37	7291.605	-765.8581	1	7331.715	-5.995955	7.3384E-008	-0.0767455	7
	20	7	10078.13	7339.382	-758.7973	1	7378.502	-5.902672	6.190883E-008	-0.0768204	7
	21	8	8015.625	7377.01	-772.0607	1	7417.301	-5.974692	6.627087E-009	-0.0767347	7
	22	8	6328.125	7423.831	-814.8752	1	7468.419	-6.263983	6.121904E-008	-0.0767913	7
	23	8	5015.625	7464.235	-889.5868	1	7517.059	-6.796447	-4.069373E-008	-0.0766299	7
	24	9	3984.375	7504.945	-997.015	1	7570.881	-7.567305	8.88864E-009	-0.0767637	7
	25	9	3170.956	7546.641	-1144.699	1	7632.963	-8.625064	3.465637E-008	-0.076804	7
	26	9	2527.573	7595.561	-1336.062	1	7712.172	-9.9763	-4.120257E-008	-0.0766538	7
	27	10	1976.103	7650.262	-1604.453	1	7816.699	-11.8447	6.911157E-009	-0.0767424	7
	28	10	1577.524	7721.81	-1921.332	1	7957.252	-13.97253	6.182585E-008	-0.0768275	7
	29	10	1265.625	7786.8	-2303.863	1	8120.47	-16.48179	9.512942E-009	-0.076761	7
	30	11	998.264	7885.069	-2817.948	1	8373.479	-19.66576	-3.125387E-008	-0.0766628	7
	31	11	796.875	7999.14	-3423.538	1	8700.969	-23.17036	6.14275E-008	-0.0768301	7
	32	11	627.7902	8152.158	-4221.639	1	9180.409	-27.37763	-9.007436E-009	-0.0766761	7
	33	11	505.5147	8327.917	-5103.433	1	9767.25	-31.50039	-6.026316E-009	-0.0766435	6
	34	12	397.9953	8576.729	-6302.377	1	10643.32	-36.3093	7.321493E-010	-0.0766876	6
	35	12	315.5048	8890.276	-7736.838	1	11785.4	-41.0317	1.278443E-009	-0.0766893	6
	36	12	252.4038	9281.226	-9413.603	1	13219.57	-45.4057	1.566058E-009	-0.0766959	6
	37	13	198.6229	9827.84	-11609.17	1	15210.5	-49.75013	1.021655E-009	-0.0766949	6
	38	13	158.3615	10507.42	-14131.41	1	17609.73	-53.36732	6.31736E-010	-0.0766971	6
	39	13	125.558	11409.7	-17252.94	1	20684.42	-56.52256	1.044161E-009	-0.0766942	6
	40	14	100.4464	12550.63	-20883.04	1	24364.31	-58.9943	3.966582E-010	-0.0766949	6
	41	14	79.00281	14111.03	-25577.65	1	29211.94	-61.11476	1.304435E-009	-0.0766985	6
	42	14	63.3446	15990.5	-30421.31	1	34367.9	-62.27201	6.063289E-010	-0.0766999	6
	43	15	49.86702	18697.04	-37026.36	1	41479.29	-63.20779	3.03398E-010	-0.0767002	6
	44	15	39.72458	21892.59	-44509.36	1	49602.1	-63.80905	1.185148E-009	-0.076696	6
	45	15	31.6723	25888.76	-53052.3	1	59031.98	-63.98829	8.277401E-010	-0.0766938	6
	46	16	24.93351	31498.52	-63470.22	1	70856.38	-63.60606	2.163028E-010	-0.0766999	6
	47	16	19.86229	37857.83	-74875.46	1	83902.02	-63.17836	-1.094709E-009	-0.0766971	6
	48	16	15.83615	46307.99	-87268.33	1	98793.7	-62.04783	3.016048E-009	-0.0767003	6
	49	17	12.40079	56455.91	-102580	1	117089.4	-61.17337	1.55133E-009	-0.0767044	5
	50	17	9.93114	66556.93	-118246.6	1	135691.1	-60.62634	1.013466E-009	-0.0767053	5
	51	17	7.944915	78629.28	-136098.4	1	157179.3	-59.98332	-2.411935E-010	-0.0766965	5
	52	18	6.317385	92502.4	-156855.6	1	182099.9	-59.47089	-2.286074E-010	-0.0766939	5
	53	19	5.008013	108049.1	-180909.1	1	210719.5	-59.15198	1.57891E-010	-0.0766958	5
	54	20	3.945707	125844.4	-209766.3	1	244619.5	-59.03934	6.580198E-012	-0.0767073	5
	55	21	3.158693	144653	-242058.3	1	281987.1	-59.13764	1.931918E-010	-0.0767168	5
	56	23	2.504006	166542.7	-281837.8	1	327366.8	-59.42044	2.56159E-010	-0.0767089	5
	57	24	1.998082	191579.4	-327613.9	1	379517.5	-59.68211	-2.608652E-011	-0.0767506	5
	58	26	1.584686	220691.1	-384386.7	1	443235.4	-60.13822	5.816401E-012	-0.0767437	5
	59	28	1.266892	254700.5	-447640.1	1	515028.2	-60.36077	7.505706E-011	-0.0767079	5
	60	30	0.999041	299068.7	-526680.9	1	605668.9	-60.41051	1.053175E-010	-0.0766807	5
