EXPLAIN
TAG	EISPOT
TITLE	LABEL	Potentiostatic EIS	Test &Identifier
DATE	LABEL	2/25/2020	Date
TIME	LABEL	15:08:09	Time
NOTES	NOTES	1	&Notes...
	
PSTAT	PSTAT	REF600-11020	Potentiostat
VDC	POTEN	0.00000E+000	T	DC &Voltage (V)
FREQINIT	QUANT	1.00000E+006	Initial Fre&q. (Hz)
FREQFINAL	QUANT	1.00000E+000	Final Fre&q. (Hz)
PTSPERDEC	QUANT	1.00000E+001	Points/&decade
VAC	QUANT	2.50000E+001	AC &Voltage (mV rms)
AREA	QUANT	1.60000E-004	&Area (cm^2)
CONDIT	TWOPARAM	F	1.50000E+001	0.00000E+000	Conditionin&g	Time(s)	E(V)
DELAY	TWOPARAM	F	1.00000E+002	0.00000E+000	Init. De&lay	Time(s)	Stab.(mV/s)
SPEED	SELECTOR	1	&Optimize for:
ZGUESS	QUANT	1.00000E+003	E&stimated Z (ohms)
OCVCURVE	TABLE	39
	Pt	T	Vf	Vm	Ach	Over
	#	s	V vs. Ref.	V	V	bits
	0	0.258333	6.81070E-002	6.81070E-002	5.84071E-004	...........
	1	0.516667	6.81007E-002	6.77777E-002	5.83704E-004	...........
	2	0.775	6.80631E-002	6.75177E-002	5.82971E-004	...........
	3	1.03333	6.79621E-002	6.73819E-002	5.81104E-004	...........
	4	1.29167	6.77983E-002	6.73022E-002	5.83771E-004	...........
	5	1.55	6.76127E-002	6.72013E-002	5.82771E-004	...........
	6	1.80833	6.74469E-002	6.70868E-002	5.79404E-004	...........
	7	2.06667	6.73133E-002	6.70098E-002	5.84637E-004	...........
	8	2.325	6.72033E-002	6.69386E-002	5.84271E-004	...........
	9	2.58333	6.71078E-002	6.68678E-002	5.81871E-004	...........
	10	2.84167	6.70233E-002	6.68219E-002	5.84104E-004	...........
	11	3.1	6.69484E-002	6.67471E-002	5.80404E-004	...........
	12	3.35833	6.68806E-002	6.66698E-002	5.81104E-004	...........
	13	3.61667	6.68156E-002	6.66297E-002	5.81871E-004	...........
	14	3.875	6.67517E-002	6.65838E-002	5.81671E-004	...........
	15	4.13333	6.66907E-002	6.65160E-002	5.80004E-004	...........
	16	4.39167	6.66338E-002	6.64594E-002	5.77737E-004	...........
	17	4.65	6.65783E-002	6.63990E-002	5.81037E-004	...........
	18	4.90833	6.65221E-002	6.63665E-002	5.82637E-004	...........
	19	5.16667	6.64673E-002	6.63497E-002	5.83371E-004	...........
	20	5.425	6.64188E-002	6.63250E-002	5.80637E-004	...........
	21	5.68333	6.63802E-002	6.62998E-002	5.82771E-004	...........
	22	5.94167	6.63503E-002	6.62779E-002	5.79171E-004	...........
	23	6.2	6.63252E-002	6.62518E-002	5.76238E-004	...........
	24	6.45833	6.63014E-002	6.62194E-002	5.82871E-004	...........
	25	6.71667	6.62769E-002	6.61875E-002	5.82871E-004	...........
	26	6.975	6.62502E-002	6.61571E-002	5.82337E-004	...........
	27	7.23333	6.62212E-002	6.61275E-002	5.81837E-004	...........
	28	7.49167	6.61910E-002	6.61010E-002	5.82004E-004	...........
	29	7.75	6.61608E-002	6.60742E-002	5.81271E-004	...........
	30	8.00833	6.61315E-002	6.60450E-002	5.78204E-004	...........
	31	8.26667	6.61032E-002	6.60208E-002	5.80837E-004	...........
	32	8.525	6.60757E-002	6.59926E-002	5.80971E-004	...........
	33	8.78333	6.60486E-002	6.59679E-002	5.84571E-004	...........
	34	9.04167	6.60220E-002	6.59420E-002	5.79704E-004	...........
	35	9.3	6.59958E-002	6.59186E-002	5.81471E-004	...........
	36	9.5583	6.59701E-002	6.58973E-002	5.84071E-004	...........
	37	9.8167	6.59452E-002	6.58670E-002	5.83971E-004	...........
	38	10.075	6.59209E-002	6.58540E-002	5.89237E-004	...........
EOC	QUANT	0.0659209	Open Circuit (V)
PSTATMODEL	IQUANT	4	Pstat Model
PSTATSECTION	LABEL	REF600-11020	Pstat Section
PSTATSERIALNO	LABEL	11020	Pstat Serial Number
CTRLMODE	IQUANT	1	Control Mode
IESTAB	IQUANT	0	I/E Stability
CASPEED	IQUANT	1	Control Amp Speed
CONVENTION	IQUANT	1	Current Convention
ICHRANGE	IQUANT	2	Ich Range
ICHRANGEMODE	TOGGLE	F	Ich Auto Range
ICHOFFSETENABLE	TOGGLE	T	Ich Offset Enable
ICHOFFSET	QUANT	0	Ich Offset (V)
ICHFILTER	IQUANT	3	Ich Filter
VCHRANGE	IQUANT	2	Vch Range
VCHRANGEMODE	TOGGLE	F	Vch Auto Range
VCHOFFSETENABLE	TOGGLE	T	Vch Offset Enable
VCHOFFSET	QUANT	0	Vch Offset (V)
VCHFILTER	IQUANT	3	Vch Filter
ACHRANGE	IQUANT	2	Ach Range
ACHOFFSETENABLE	TOGGLE	F	Ach Offset Enable
ACHOFFSET	QUANT	0	Ach Offset (V)
ACHFILTER	IQUANT	3	Ach Filter
IERANGELOWERLIMIT	IQUANT	1	I/E Range Lower Limit
IERANGEMODE	TOGGLE	F	I/E AutoRange
IERANGE	IQUANT	8	I/E Range
POSFEEDENABLE	TOGGLE	F	Positive Feedback IR Comp
POSFEEDRESISTANCE	QUANT	0	Positive Feedback Resistance (ohm)
ACHSELECT	IQUANT	0	Ach Select
CABLEID	IQUANT	14	Cable ID
DCCALDATE	LABEL	1/27/2020	DC Calibration Date
ACCALDATE	LABEL	1/27/2020	AC Calibration Date
THERMOSELECT	IQUANT	1	Thermo Select
FRAMEWORKVERSION	QUANT	6.33	Framework Version
INSTRUMENTVERSION	LABEL	3.50	Instrument Version
ZCURVE	TABLE
	Pt	Time	Freq	Zreal	Zimag	Zsig	Zmod	Zphz	Idc	Vdc	IERange
	#	s	Hz	ohm	ohm	V	ohm	°	A	V	#
	0	1	1000078	1348.17	-1724.092	1	2188.619	-51.97604	8.124983E-007	0.068206	8
	1	2	794390.6	1583.689	-1915.779	1	2485.615	-50.42099	-4.595044E-007	0.0679141	8
	2	4	630984.4	1851.163	-2125.212	1	2818.392	-48.94255	-4.179577E-007	0.0677759	8
	3	5	501234.4	2146.087	-2338.846	1	3174.254	-47.46102	9.894249E-008	0.0675827	8
	4	7	398109.4	2476.177	-2574.326	1	3571.919	-46.11331	-1.691889E-006	0.0679727	8
	5	8	316265.6	2849.959	-2837.232	1	4021.461	-44.87178	-3.528018E-007	0.0675878	8
	6	9	251203.1	3261.587	-3120.794	1	4514.123	-43.73628	4.370453E-007	0.0674066	8
	7	11	199546.9	3735.573	-3388.846	1	5043.688	-42.21376	-1.06408E-006	0.0676805	8
	8	12	158578.1	4263.35	-3677.514	1	5630.299	-40.78065	-3.448196E-007	0.0675615	8
	9	13	125953.1	4912.453	-3950.413	1	6303.805	-38.80495	-2.889747E-007	0.0681146	7
	10	15	100078.1	5571.431	-4196.109	1	6974.824	-36.98514	2.210591E-008	0.06741	7
	11	16	79453.13	6295.113	-4422.926	1	7693.551	-35.09175	-4.047819E-009	0.067518	7
	12	17	63140.62	7064.241	-4590.017	1	8424.474	-33.01395	4.270667E-008	0.0674471	7
	13	19	50203.12	7865.921	-4689.322	1	9157.646	-30.80157	2.601659E-008	0.067425	7
	14	20	39890.62	8676.538	-4722.526	1	9878.49	-28.55887	-1.145774E-008	0.0674617	7
	15	21	31640.63	9484.137	-4697.449	1	10583.71	-26.349	-1.644671E-008	0.0675012	7
	16	23	25171.88	10248.2	-4606.961	1	11236.09	-24.20576	-1.410647E-008	0.0674676	7
	17	24	20015.62	10969.17	-4477.857	1	11847.95	-22.20637	-1.180505E-008	0.0674565	7
	18	26	15890.62	11642.13	-4327.409	1	12420.37	-20.39022	-1.3642E-008	0.0674668	7
	19	28	12609.37	12306.1	-4117.048	1	12976.53	-18.49784	-3.561951E-009	0.0674928	6
	20	29	10078.13	12834.46	-3986.252	1	13439.25	-17.25427	2.836513E-009	0.0674633	6
	21	31	8015.625	13338.7	-3883.171	1	13892.44	-16.23137	-1.485197E-009	0.0674812	6
	22	32	6328.125	13820	-3819.979	1	14338.22	-15.4513	3.021158E-009	0.0674647	6
	23	34	5015.625	14276.27	-3812.695	1	14776.62	-14.95273	6.701704E-010	0.0674935	6
	24	35	3984.375	14720.48	-3855.146	1	15216.92	-14.6756	6.148365E-010	0.0674931	6
	25	37	3170.956	15160.76	-3950.629	1	15667.04	-14.60547	-1.327666E-009	0.067488	6
	26	39	2527.573	15603.87	-4094.671	1	16132.17	-14.70369	2.061119E-009	0.06736	6
	27	40	1976.103	16102.98	-4307.767	1	16669.22	-14.97671	-7.301704E-010	0.0674293	6
	28	42	1577.524	16567.96	-4567.957	1	17186.15	-15.41408	1.576056E-009	0.0673876	6
	29	43	1265.625	17036.51	-4887.273	1	17723.66	-16.00662	-1.602941E-009	0.0674428	6
	30	45	998.264	17557.42	-5308.267	1	18342.32	-16.82204	4.792119E-009	0.0673441	6
	31	46	796.875	18085.57	-5808.911	1	18995.56	-17.80652	-6.632109E-010	0.0674291	6
	32	48	627.7902	18661.97	-6457.111	1	19747.49	-19.08581	2.574126E-009	0.0674508	6
	33	49	505.5147	19225.96	-7167.545	1	20518.56	-20.44573	-8.58707E-010	0.0673913	6
	34	50	397.9953	19891.32	-8118.036	1	21484.12	-22.20133	9.248723E-010	0.0674533	6
	35	52	315.5048	20582.44	-9245.69	1	22563.68	-24.18976	1.619739E-009	0.0674539	6
	36	53	252.4038	21293.25	-10552.78	1	23764.75	-26.36267	1.542034E-009	0.0674492	6
	37	54	198.6229	22122.69	-12265.23	1	25295.24	-29.00479	1.229298E-009	0.0674533	6
	38	56	158.3615	22973.45	-14242.41	1	27030.09	-31.79688	7.323024E-010	0.0674534	6
	39	57	125.558	23920.55	-16714.42	1	29181.57	-34.94382	9.811327E-010	0.0674503	6
	40	59	100.4464	24914.38	-19622.41	1	31713.8	-38.22374	1.020063E-009	0.0674438	6
	41	60	79.00281	26074.92	-23466.88	1	35079.85	-41.98656	1.160145E-009	0.0674512	6
	42	62	63.3446	27154.37	-27771.6	1	38840.97	-45.64383	7.393137E-010	0.0674459	6
	43	63	49.86702	28823.42	-33716.89	1	44357.84	-49.474	7.591196E-010	0.0674459	6
	44	65	39.72458	30570.1	-40606.42	1	50827.28	-53.02614	1.114047E-009	0.0674521	6
	45	66	31.6723	32657.48	-49060.88	1	58936.25	-56.35019	8.682579E-010	0.0674468	6
	46	68	24.93351	35507.96	-60024.71	1	69740.82	-59.39332	7.368997E-010	0.0674424	6
	47	69	19.86229	38978.18	-72869.95	1	82639.75	-61.85765	7.577146E-010	0.0674531	6
	48	71	15.83615	43781	-88151.21	1	98424.7	-63.58834	1.70885E-009	0.0674472	6
	49	72	12.40079	49343.37	-108721.3	1	119394.7	-65.58899	-1.071431E-010	0.0674429	5
	50	74	9.93114	56388.94	-130423.9	1	142091.9	-66.6187	4.734913E-010	0.0674421	5
	51	75	7.944915	65389.77	-157134.1	1	170196.8	-67.40585	-2.150537E-013	0.0674525	5
	52	77	6.317385	77396.15	-189499.7	1	204695.6	-67.78374	-7.040963E-011	0.0674597	5
	53	79	5.008013	92909.34	-228724.3	1	246874.4	-67.89268	1.000658E-010	0.0674414	5
	54	81	3.945707	113139.6	-276195.9	1	298470.7	-67.72426	2.506469E-010	0.067448	5
	55	84	3.158693	137313.8	-328105.8	1	355680.3	-67.29046	1.223172E-010	0.0674612	5
	56	87	2.504006	168575.2	-391030	1	425819.3	-66.67886	9.376418E-011	0.0674432	5
	57	90	1.998082	205882.8	-461431.9	1	505279.2	-65.95441	-6.735527E-011	0.0674515	5
	58	93	1.584686	255426.8	-544664.3	1	601582.9	-64.87521	1.381659E-010	0.0675045	5
	59	97	1.266892	310565.4	-635604.7	1	707420.8	-63.95922	-3.700304E-011	0.0674553	5
	60	101	0.999041	383162.6	-745661.3	1	838346.1	-62.80336	3.11034E-010	0.0674747	5
