EXPLAIN
TAG	EISPOT
TITLE	LABEL	Potentiostatic EIS	Test &Identifier
DATE	LABEL	3/19/2020	Date
TIME	LABEL	20:24:33	Time
NOTES	NOTES	1	&Notes...
	
PSTAT	PSTAT	REF600-11020	Potentiostat
VDC	POTEN	0.00000E+000	T	DC &Voltage (V)
FREQINIT	QUANT	1.00000E+006	Initial Fre&q. (Hz)
FREQFINAL	QUANT	1.00000E+000	Final Fre&q. (Hz)
PTSPERDEC	QUANT	1.00000E+001	Points/&decade
VAC	QUANT	2.50000E+001	AC &Voltage (mV rms)
AREA	QUANT	4.00000E-004	&Area (cm^2)
CONDIT	TWOPARAM	F	5.00000E+000	0.00000E+000	Conditionin&g	Time(s)	E(V)
DELAY	TWOPARAM	T	3.00000E+000	0.00000E+000	Init. De&lay	Time(s)	Stab.(mV/s)
SPEED	SELECTOR	0	&Optimize for:
ZGUESS	QUANT	1.00000E+003	E&stimated Z (ohms)
OCVCURVE	TABLE	12
	Pt	T	Vf	Vm	Ach	Over
	#	s	V vs. Ref.	V	V	bits
	0	0.258333	-1.38877E-001	-1.38877E-001	5.80930E-004	...........
	1	0.516667	-1.38876E-001	-1.38824E-001	5.69663E-004	...........
	2	0.775	-1.38870E-001	-1.38790E-001	5.77097E-004	...........
	3	1.03333	-1.38855E-001	-1.38756E-001	5.79463E-004	...........
	4	1.29167	-1.38828E-001	-1.38724E-001	5.79230E-004	...........
	5	1.55	-1.38796E-001	-1.38697E-001	5.76097E-004	...........
	6	1.80833	-1.38762E-001	-1.38668E-001	5.76963E-004	...........
	7	2.06667	-1.38730E-001	-1.38642E-001	5.79597E-004	...........
	8	2.325	-1.38700E-001	-1.38624E-001	5.76763E-004	...........
	9	2.58333	-1.38673E-001	-1.38615E-001	5.76930E-004	...........
	10	2.84167	-1.38647E-001	-1.38477E-001	5.78230E-004	...........
	11	3.1	-1.38616E-001	-1.38482E-001	5.78597E-004	...........
EOC	QUANT	-0.1386159	Open Circuit (V)
PSTATMODEL	IQUANT	4	Pstat Model
PSTATSECTION	LABEL	REF600-11020	Pstat Section
PSTATSERIALNO	LABEL	11020	Pstat Serial Number
CTRLMODE	IQUANT	1	Control Mode
IESTAB	IQUANT	0	I/E Stability
CASPEED	IQUANT	1	Control Amp Speed
CONVENTION	IQUANT	1	Current Convention
ICHRANGE	IQUANT	2	Ich Range
ICHRANGEMODE	TOGGLE	F	Ich Auto Range
ICHOFFSETENABLE	TOGGLE	T	Ich Offset Enable
ICHOFFSET	QUANT	0	Ich Offset (V)
ICHFILTER	IQUANT	3	Ich Filter
VCHRANGE	IQUANT	2	Vch Range
VCHRANGEMODE	TOGGLE	F	Vch Auto Range
VCHOFFSETENABLE	TOGGLE	T	Vch Offset Enable
VCHOFFSET	QUANT	0	Vch Offset (V)
VCHFILTER	IQUANT	3	Vch Filter
ACHRANGE	IQUANT	2	Ach Range
ACHOFFSETENABLE	TOGGLE	F	Ach Offset Enable
ACHOFFSET	QUANT	0	Ach Offset (V)
ACHFILTER	IQUANT	3	Ach Filter
IERANGELOWERLIMIT	IQUANT	1	I/E Range Lower Limit
IERANGEMODE	TOGGLE	F	I/E AutoRange
IERANGE	IQUANT	8	I/E Range
POSFEEDENABLE	TOGGLE	F	Positive Feedback IR Comp
POSFEEDRESISTANCE	QUANT	0	Positive Feedback Resistance (ohm)
ACHSELECT	IQUANT	0	Ach Select
CABLEID	IQUANT	14	Cable ID
DCCALDATE	LABEL	2/27/2020	DC Calibration Date
ACCALDATE	LABEL	2/27/2020	AC Calibration Date
THERMOSELECT	IQUANT	1	Thermo Select
FRAMEWORKVERSION	QUANT	6.33	Framework Version
INSTRUMENTVERSION	LABEL	3.50	Instrument Version
ZCURVE	TABLE
	Pt	Time	Freq	Zreal	Zimag	Zsig	Zmod	Zphz	Idc	Vdc	IERange
	#	s	Hz	ohm	ohm	V	ohm	°	A	V	#
	0	1	1000078	1851.748	-2173.962	1	2855.71	-49.57615	-5.682841E-008	-0.1358973	8
	1	2	794390.6	2201.801	-2393.099	1	3251.899	-47.384	-4.968662E-007	-0.1362516	8
	2	2	630984.4	2597.861	-2604.582	1	3678.686	-45.07402	4.184933E-007	-0.1365475	8
	3	2	501234.4	3038.016	-2804.79	1	4134.778	-42.71415	-1.76904E-007	-0.1366108	8
	4	3	398109.4	3526.338	-2977.431	1	4615.209	-40.17577	2.632382E-007	-0.136754	8
	5	3	316265.6	4061.367	-3117.514	1	5119.922	-37.50992	1.367557E-007	-0.1367915	8
	6	3	251203.1	4619.463	-3203.91	1	5621.786	-34.74392	-9.071949E-008	-0.1367689	8
	7	4	199546.9	5200.731	-3243.548	1	6129.292	-31.95062	1.458177E-007	-0.1368158	8
	8	4	158578.1	5763.38	-3213.869	1	6598.902	-29.14562	2.599727E-007	-0.1368142	8
	9	4	125953.1	6393.389	-3074.74	1	7094.325	-25.68406	9.032813E-009	-0.1368121	7
	10	4	100078.1	6877.521	-2964.546	1	7489.247	-23.3184	-5.084323E-009	-0.1368603	7
	11	5	79453.13	7352.832	-2844.907	1	7884.011	-21.15211	-3.10249E-009	-0.1368781	7
	12	5	63140.62	7779.175	-2704.095	1	8235.758	-19.16781	7.161678E-010	-0.1368882	7
	13	5	50203.12	8162.447	-2560.719	1	8554.696	-17.41766	-6.57641E-009	-0.1368758	7
	14	6	39890.62	8506.563	-2428.051	1	8846.302	-15.93047	-4.086062E-009	-0.1368758	7
	15	6	31640.63	8817.168	-2306.754	1	9113.922	-14.66116	3.459659E-009	-0.1368942	7
	16	6	25171.88	9093.668	-2212.426	1	9358.933	-13.674	1.456993E-008	-0.1369131	7
	17	7	20015.62	9342.12	-2144.064	1	9585	-12.92583	-6.788766E-009	-0.1368805	7
	18	7	15890.62	9576.74	-2108.623	1	9806.13	-12.41735	4.198658E-009	-0.1369009	7
	19	7	12609.37	9860.64	-1987.658	1	10058.98	-11.39667	7.477354E-010	-0.1368292	6
	20	8	10078.13	10061.08	-2047.681	1	10267.34	-11.504	2.42511E-010	-0.1368575	6
	21	8	8015.625	10263.05	-2150.201	1	10485.87	-11.83283	-7.272963E-010	-0.1368289	6
	22	8	6328.125	10478.8	-2302.196	1	10728.72	-12.39104	-1.814483E-010	-0.1368294	6
	23	9	5015.625	10703.85	-2502.313	1	10992.45	-13.15812	2.189176E-010	-0.1368529	6
	24	9	3984.375	10946.25	-2757.324	1	11288.19	-14.13847	-3.911639E-010	-0.1368254	6
	25	9	3170.956	11213.57	-3069.526	1	11626.1	-15.30875	-4.557076E-010	-0.1368281	6
	26	10	2527.573	11507.61	-3447.053	1	12012.8	-16.67535	-9.299816E-010	-0.1368441	6
	27	10	1976.103	11871.7	-3941.713	1	12508.97	-18.36751	-3.445972E-010	-0.1368515	6
	28	10	1577.524	12247.34	-4482.48	1	13041.86	-20.10243	-8.466944E-010	-0.1368298	6
	29	11	1265.625	12673.96	-5103.287	1	13662.82	-21.93264	-1.102983E-009	-0.1368499	6
	30	11	998.264	13200.74	-5885.539	1	14453.34	-24.02966	-1.089078E-009	-0.1368513	6
	31	11	796.875	13780.79	-6756.672	1	15348.05	-26.11856	-7.910694E-010	-0.136855	6
	32	12	627.7902	14500.32	-7832.025	1	16480.29	-28.37471	-5.756536E-010	-0.1368573	6
	33	12	505.5147	15252.28	-8957.844	1	17688.27	-30.42622	-1.48132E-009	-0.1368548	6
	34	12	397.9953	16220.74	-10391.09	1	19263.62	-32.64385	1.084652E-010	-0.1368363	6
	35	12	315.5048	17317.62	-11995.18	1	21066.18	-34.70871	1.103588E-010	-0.1368379	6
	36	13	252.4038	18533.41	-13759.98	1	23082.99	-36.59173	4.443668E-014	-0.1368365	6
	37	13	198.6229	20030.99	-15935.37	1	25596.41	-38.5035	1.170583E-010	-0.1368418	6
	38	13	158.3615	21647.76	-18300.27	1	28346.53	-40.21003	8.947178E-011	-0.1368434	6
	39	14	125.558	23528.37	-21087.89	1	31595.62	-41.86908	2.083381E-010	-0.1368435	6
	40	14	100.4464	25566.11	-24182.54	1	35191.2	-43.40694	1.285368E-010	-0.1368469	6
	41	14	79.00281	28037.78	-28064.31	1	39670.18	-45.0271	-6.140657E-011	-0.1368452	6
	42	15	63.3446	30574.89	-32229.75	1	44425	-46.50936	-9.698751E-011	-0.1368438	6
	43	15	49.86702	33715.12	-37567.44	1	50477.94	-48.09343	1.742913E-010	-0.1368502	6
	44	16	39.72458	37128.48	-43612.33	1	57276.17	-49.59126	-8.336852E-011	-0.1368416	6
	45	16	31.6723	41063.7	-50741.86	1	65276.06	-51.01791	-2.195178E-010	-0.1368437	6
	46	16	24.93351	45966.27	-59682.64	1	75332.04	-52.39732	-2.237002E-010	-0.1368472	6
	47	16	19.86229	51488.98	-69814.93	1	86748.14	-53.59097	-1.661695E-009	-0.1368511	6
	48	17	15.83615	58355.4	-81636.35	1	100348.6	-54.44201	1.336499E-009	-0.1368476	6
	49	17	12.40079	67197.2	-96403.8	1	117512.4	-55.122	-5.744488E-010	-0.1368419	5
	50	17	9.93114	77082.56	-112086.8	1	136033.7	-55.48353	-3.614507E-010	-0.1368499	5
	51	18	7.944915	89044.92	-129797.2	1	157404.9	-55.54866	1.064711E-009	-0.1368467	5
	52	18	6.317385	104042.8	-150657.4	1	183091.7	-55.37136	-6.760276E-010	-0.1368287	5
	53	19	5.008013	122315.5	-174330.6	1	212960.7	-54.94537	-8.099053E-010	-0.1368493	5
	54	20	3.945707	144435.9	-200942.9	1	247466.8	-54.29177	-3.864072E-011	-0.1368435	5
	55	21	3.158693	168917	-228795.7	1	284394.8	-53.56201	-5.585116E-010	-0.1368469	5
	56	22	2.504006	197912.6	-260267.4	1	326968.7	-52.74991	-2.647228E-010	-0.1368506	5
	57	23	1.998082	230735.1	-294017.3	1	373744.4	-51.87635	2.509235E-011	-0.1368125	5
	58	25	1.584686	268121.3	-331867.8	1	426644.2	-51.0647	-1.479105E-010	-0.1368474	5
	59	27	1.266892	310876	-371286.7	1	484249.6	-50.06077	-2.227342E-010	-0.1368869	5
	60	29	0.999041	362243.7	-417803.2	1	552973.8	-49.07406	-3.514143E-010	-0.1368988	5
