EXPLAIN
TAG	EISPOT
TITLE	LABEL	Potentiostatic EIS	Test &Identifier
DATE	LABEL	1/18/2020	Date
TIME	LABEL	22:41:21	Time
NOTES	NOTES	6	&Notes...
	
	
	
	
	
	
PSTAT	PSTAT	REF600-11020	Potentiostat
VDC	POTEN	0.00000E+000	T	DC &Voltage (V)
FREQINIT	QUANT	1.00000E+006	Initial Fre&q. (Hz)
FREQFINAL	QUANT	1.00000E+000	Final Fre&q. (Hz)
PTSPERDEC	QUANT	1.00000E+001	Points/&decade
VAC	QUANT	2.50000E+001	AC &Voltage (mV rms)
AREA	QUANT	1.00000E-001	&Area (cm^2)
CONDIT	TWOPARAM	F	5.00000E+000	0.00000E+000	Conditionin&g	Time(s)	E(V)
DELAY	TWOPARAM	F	5.00000E+000	0.00000E+000	Init. De&lay	Time(s)	Stab.(mV/s)
SPEED	SELECTOR	0	&Optimize for:
ZGUESS	QUANT	5.00000E+002	E&stimated Z (ohms)
OCVCURVE	TABLE	39
	Pt	T	Vf	Vm	Ach	Over
	#	s	V vs. Ref.	V	V	bits
	0	0.258333	1.19659E-002	1.19659E-002	5.83847E-004	...........
	1	0.516667	1.19662E-002	1.19822E-002	5.86647E-004	...........
	2	0.775	1.19678E-002	1.19773E-002	5.83514E-004	...........
	3	1.03333	1.19712E-002	1.19939E-002	5.82447E-004	...........
	4	1.29167	1.19767E-002	1.20189E-002	5.84147E-004	...........
	5	1.55	1.19843E-002	1.19746E-002	5.89481E-004	...........
	6	1.80833	1.19899E-002	1.19231E-002	5.88714E-004	...........
	7	2.06667	1.19872E-002	1.19932E-002	5.87547E-004	...........
	8	2.325	1.19789E-002	1.20408E-002	5.81614E-004	...........
	9	2.58333	1.19783E-002	1.20288E-002	5.87347E-004	...........
	10	2.84167	1.19912E-002	1.20269E-002	5.85081E-004	...........
	11	3.1	1.20087E-002	1.20045E-002	5.85547E-004	...........
	12	3.35833	1.20187E-002	1.19760E-002	5.82281E-004	...........
	13	3.61667	1.20129E-002	1.17943E-002	5.89714E-004	...........
	14	3.875	1.19827E-002	1.17620E-002	5.91847E-004	...........
	15	4.13333	1.19263E-002	1.17752E-002	5.86647E-004	...........
	16	4.39167	1.18603E-002	1.17739E-002	5.84347E-004	...........
	17	4.65	1.18091E-002	1.17925E-002	5.87614E-004	...........
	18	4.90833	1.17834E-002	1.17896E-002	5.82447E-004	...........
	19	5.16667	1.17783E-002	1.18099E-002	5.81914E-004	...........
	20	5.425	1.17838E-002	1.18022E-002	5.82481E-004	...........
	21	5.68333	1.17919E-002	1.17899E-002	5.85781E-004	...........
	22	5.94167	1.17972E-002	1.17874E-002	5.85847E-004	...........
	23	6.2	1.17972E-002	1.17663E-002	5.82281E-004	...........
	24	6.45833	1.17919E-002	1.17620E-002	5.79381E-004	...........
	25	6.71667	1.17829E-002	1.17439E-002	5.82681E-004	...........
	26	6.975	1.17714E-002	1.17201E-002	5.78014E-004	...........
	27	7.23333	1.17582E-002	1.17207E-002	5.79214E-004	...........
	28	7.49167	1.17445E-002	1.17364E-002	5.81047E-004	...........
	29	7.75	1.17341E-002	1.17384E-002	5.83914E-004	...........
	30	8.00833	1.17306E-002	1.17606E-002	5.82047E-004	...........
	31	8.26667	1.17359E-002	1.18509E-002	5.83414E-004	...........
	32	8.525	1.17511E-002	1.17588E-002	5.86081E-004	...........
	33	8.78333	1.17709E-002	1.17847E-002	5.80181E-004	...........
	34	9.04167	1.17840E-002	1.17606E-002	5.81847E-004	...........
	35	9.3	1.17851E-002	1.17715E-002	5.83447E-004	...........
	36	9.5583	1.17812E-002	1.18602E-002	5.89814E-004	...........
	37	9.8167	1.17839E-002	1.18446E-002	5.87947E-004	...........
	38	10.075	1.17991E-002	1.18462E-002	5.84847E-004	...........
EOC	QUANT	0.0117991	Open Circuit (V)
PSTATMODEL	IQUANT	4	Pstat Model
PSTATSECTION	LABEL	REF600-11020	Pstat Section
PSTATSERIALNO	LABEL	11020	Pstat Serial Number
CTRLMODE	IQUANT	1	Control Mode
IESTAB	IQUANT	0	I/E Stability
CASPEED	IQUANT	1	Control Amp Speed
CONVENTION	IQUANT	1	Current Convention
ICHRANGE	IQUANT	2	Ich Range
ICHRANGEMODE	TOGGLE	F	Ich Auto Range
ICHOFFSETENABLE	TOGGLE	T	Ich Offset Enable
ICHOFFSET	QUANT	0	Ich Offset (V)
ICHFILTER	IQUANT	3	Ich Filter
VCHRANGE	IQUANT	2	Vch Range
VCHRANGEMODE	TOGGLE	F	Vch Auto Range
VCHOFFSETENABLE	TOGGLE	T	Vch Offset Enable
VCHOFFSET	QUANT	0	Vch Offset (V)
VCHFILTER	IQUANT	3	Vch Filter
ACHRANGE	IQUANT	2	Ach Range
ACHOFFSETENABLE	TOGGLE	F	Ach Offset Enable
ACHOFFSET	QUANT	0	Ach Offset (V)
ACHFILTER	IQUANT	3	Ach Filter
IERANGELOWERLIMIT	IQUANT	1	I/E Range Lower Limit
IERANGEMODE	TOGGLE	F	I/E AutoRange
IERANGE	IQUANT	7	I/E Range
POSFEEDENABLE	TOGGLE	F	Positive Feedback IR Comp
POSFEEDRESISTANCE	QUANT	0	Positive Feedback Resistance (ohm)
ACHSELECT	IQUANT	0	Ach Select
CABLEID	IQUANT	14	Cable ID
DCCALDATE	LABEL	12/22/2019	DC Calibration Date
ACCALDATE	LABEL	12/22/2019	AC Calibration Date
THERMOSELECT	IQUANT	1	Thermo Select
FRAMEWORKVERSION	QUANT	6.33	Framework Version
INSTRUMENTVERSION	LABEL	3.50	Instrument Version
ZCURVE	TABLE
	Pt	Time	Freq	Zreal	Zimag	Zsig	Zmod	Zphz	Idc	Vdc	IERange
	#	s	Hz	ohm	ohm	V	ohm	°	A	V	#
	0	1	1000078	2411.24	-1492.983	1	2836.032	-31.76481	-1.142105E-006	0.0139973	8
	1	1	794390.6	2681.876	-1433.664	1	3041.028	-28.12785	-1.998669E-006	0.0142016	8
	2	1	630984.4	2934.472	-1340.455	1	3226.134	-24.55073	6.398955E-007	0.0135974	8
	3	2	501234.4	3148.604	-1231.049	1	3380.708	-21.35463	4.898375E-008	0.0135003	8
	4	2	398109.4	3337.887	-1129.33	1	3523.759	-18.69257	2.453344E-007	0.013475	8
	5	2	316265.6	3483.065	-1009.695	1	3626.462	-16.16618	1.790788E-006	0.0129759	8
	6	3	251203.1	3618.306	-903.8573	1	3729.49	-14.02553	1.697299E-006	0.0129789	8
	7	3	199546.9	3712.898	-814.6694	1	3801.223	-12.3755	1.940634E-006	0.013005	8
	8	3	158578.1	3800.475	-729.0349	1	3869.768	-10.85898	-9.116911E-007	0.0134916	8
	9	4	125953.1	3890.87	-642.9094	1	3943.628	-9.382514	-3.774774E-007	0.0143853	7
	10	4	100078.1	3949.981	-589.4228	1	3993.716	-8.487148	1.27635E-008	0.0132529	7
	11	4	79453.13	4010.047	-557.0688	1	4048.555	-7.908815	5.454266E-008	0.0131979	7
	12	5	63140.62	4067.101	-533.3372	1	4101.922	-7.470824	3.200829E-008	0.013206	7
	13	5	50203.12	4123.098	-516.9206	1	4155.375	-7.145996	-7.781495E-009	0.0132703	7
	14	5	39890.62	4176.056	-509.7892	1	4207.057	-6.959908	3.2424E-008	0.0132642	7
	15	6	31640.63	4228.339	-511.4994	1	4259.165	-6.897518	-2.699502E-008	0.0133694	7
	16	6	25171.88	4280.146	-521.5074	1	4311.8	-6.946869	7.715944E-009	0.0133727	7
	17	6	20015.62	4331.138	-541.5722	1	4364.866	-7.12736	8.362925E-009	0.0133723	7
	18	7	15890.62	4383.437	-571.4196	1	4420.525	-7.427127	-4.450837E-008	0.0133859	7
	19	7	12609.37	4435.432	-613.9823	1	4477.726	-7.881183	3.277407E-008	0.0132088	7
	20	7	10078.13	4488.865	-671.736	1	4538.848	-8.51087	9.059876E-009	0.0133683	7
	21	7	8015.625	4542.407	-738.7255	1	4602.084	-9.237067	-4.613826E-008	0.0133805	7
	22	8	6328.125	4600.662	-836.2398	1	4676.044	-10.3019	-1.562783E-008	0.0133334	7
	23	8	5015.625	4661.597	-954.708	1	4758.356	-11.57429	-3.526218E-009	0.0133293	7
	24	8	3984.375	4725.538	-1103.716	1	4852.72	-13.14656	-4.702908E-009	0.0132628	7
	25	9	3170.956	4793.159	-1284.698	1	4962.341	-15.00418	-1.313377E-008	0.0132744	7
	26	9	2527.573	4867.744	-1509.148	1	5096.318	-17.22502	-4.991534E-008	0.0133585	7
	27	9	1976.103	4957.304	-1809.836	1	5277.345	-20.05637	-4.232211E-008	0.0133498	7
	28	10	1577.524	5049.348	-2151.822	1	5488.739	-23.08168	-1.523403E-008	0.0133302	7
	29	10	1265.625	5153.45	-2569.665	1	5758.578	-26.50222	9.070829E-009	0.0133615	7
	30	10	998.264	5281.037	-3119.953	1	6133.796	-30.57392	6.560439E-009	0.0132836	7
	31	11	796.875	5427.587	-3764.209	1	6605.147	-34.74257	-1.255988E-008	0.0133342	7
	32	11	627.7902	5615.048	-4597.68	1	7257.232	-39.3111	-1.454506E-008	0.0132734	7
	33	11	505.5147	5821.371	-5537.721	1	8034.595	-43.56955	1.024494E-008	0.0133587	7
	34	12	397.9953	6101.344	-6795.069	1	9132.325	-48.07909	5.601384E-009	0.0133043	7
	35	12	315.5048	6442.906	-8300.964	1	10507.95	-52.18269	8.668213E-010	0.0133073	6
	36	12	252.4038	6849.26	-10067.79	1	12176.73	-55.772	4.306129E-010	0.0133083	6
	37	13	198.6229	7399.658	-12387.45	1	14429.27	-59.14796	8.052664E-010	0.0133041	6
	38	13	158.3615	8058.675	-15066.55	1	17086.35	-61.85892	6.939782E-010	0.0133015	6
	39	13	125.558	8921.13	-18412.73	1	20460.09	-64.14941	7.194069E-010	0.0133011	6
	40	14	100.4464	9970.27	-22307.8	1	24434.49	-65.91819	8.809636E-011	0.0133012	6
	41	14	79.00281	11419.79	-27393.03	1	29678.1	-67.36938	5.247674E-010	0.0132972	6
	42	14	63.3446	13330.27	-32998.14	1	35588.95	-68.00275	2.031664E-010	0.0132974	6
	43	15	49.86702	15771.06	-40420.35	1	43388.14	-68.68546	-3.554177E-010	0.0132997	6
	44	15	39.72458	18693.35	-48833.57	1	52289.19	-69.0533	2.770953E-010	0.0132979	6
	45	15	31.6723	22600.2	-58814.07	1	63006.86	-68.97997	1.334423E-010	0.0132949	6
	46	16	24.93351	28129.58	-71281.94	1	76631.51	-68.46461	2.27048E-010	0.0132991	6
	47	16	19.86229	34972.74	-85215.8	1	92113.12	-67.68665	-7.19434E-010	0.0132944	6
	48	16	15.83615	43835.56	-100460.5	1	109607.8	-66.42613	1.364761E-009	0.0132853	5
	49	16	12.40079	55517.69	-120299.1	1	132491.8	-65.22681	1.431168E-009	0.0132908	5
	50	17	9.93114	69099.08	-139476.4	1	155654.6	-63.64537	1.645392E-009	0.013292	5
	51	17	7.944915	85278.18	-161079.1	1	182260.4	-62.10245	1.267427E-010	0.0132881	5
	52	18	6.317385	104398.8	-185491.5	1	212852.6	-60.62822	1.481956E-010	0.0132939	5
	53	18	5.008013	126653.2	-212196.8	1	247120.5	-59.16844	3.250812E-010	0.0132994	5
	54	19	3.945707	151993.7	-242305.7	1	286031.7	-57.90073	-2.34489E-011	0.0132829	5
	55	20	3.158693	178611.5	-274293.2	1	327320.6	-56.92903	1.974638E-010	0.0132749	5
	56	22	2.504006	208516.2	-312362.1	1	375565	-56.27505	2.504993E-010	0.0132848	5
	57	23	1.998082	240473.7	-354362.3	1	428252.5	-55.8388	-3.201061E-012	0.0132438	5
	58	25	1.584686	276196.3	-406383.3	1	491357.1	-55.79821	-3.418975E-011	0.0132393	5
	59	27	1.266892	314314.5	-463842.8	1	560306.9	-55.87719	9.125484E-012	0.0132767	5
	60	29	0.999041	361462.2	-535491.6	1	646069.8	-55.98026	6.201068E-011	0.0133035	5
