EXPLAIN
TAG	EISPOT
TITLE	LABEL	Potentiostatic EIS	Test &Identifier
DATE	LABEL	6/1/2020	Date
TIME	LABEL	13:35:50	Time
NOTES	NOTES	1	&Notes...
	
PSTAT	PSTAT	REF600-11020	Potentiostat
VDC	POTEN	0.00000E+000	T	DC &Voltage (V)
FREQINIT	QUANT	1.00000E+006	Initial Fre&q. (Hz)
FREQFINAL	QUANT	1.00000E+000	Final Fre&q. (Hz)
PTSPERDEC	QUANT	1.00000E+001	Points/&decade
VAC	QUANT	2.50000E+001	AC &Voltage (mV rms)
AREA	QUANT	4.00000E-004	&Area (cm^2)
CONDIT	TWOPARAM	F	5.00000E+000	0.00000E+000	Conditionin&g	Time(s)	E(V)
DELAY	TWOPARAM	T	3.00000E+000	0.00000E+000	Init. De&lay	Time(s)	Stab.(mV/s)
SPEED	SELECTOR	0	&Optimize for:
ZGUESS	QUANT	1.00000E+003	E&stimated Z (ohms)
OCVCURVE	TABLE	12
	Pt	T	Vf	Vm	Ach	Over
	#	s	V vs. Ref.	V	V	bits
	0	0.258333	-2.27503E-002	-2.27503E-002	5.67997E-004	...........
	1	0.516667	-2.27503E-002	-2.27529E-002	5.69463E-004	...........
	2	0.775	-2.27506E-002	-2.27558E-002	5.71330E-004	...........
	3	1.03333	-2.27515E-002	-2.27582E-002	5.71063E-004	...........
	4	1.29167	-2.27532E-002	-2.27600E-002	5.74863E-004	...........
	5	1.55	-2.27554E-002	-2.27650E-002	5.70830E-004	...........
	6	1.80833	-2.27579E-002	-2.27637E-002	5.72030E-004	...........
	7	2.06667	-2.27604E-002	-2.27662E-002	5.71563E-004	...........
	8	2.325	-2.27626E-002	-2.27653E-002	5.68797E-004	...........
	9	2.58333	-2.27642E-002	-2.27706E-002	5.74330E-004	...........
	10	2.84167	-2.27657E-002	-2.27743E-002	5.76230E-004	...........
	11	3.1	-2.27676E-002	-2.27765E-002	5.72230E-004	...........
EOC	QUANT	-0.0227676	Open Circuit (V)
PSTATMODEL	IQUANT	4	Pstat Model
PSTATSECTION	LABEL	REF600-11020	Pstat Section
PSTATSERIALNO	LABEL	11020	Pstat Serial Number
CTRLMODE	IQUANT	1	Control Mode
IESTAB	IQUANT	0	I/E Stability
CASPEED	IQUANT	1	Control Amp Speed
CONVENTION	IQUANT	1	Current Convention
ICHRANGE	IQUANT	2	Ich Range
ICHRANGEMODE	TOGGLE	F	Ich Auto Range
ICHOFFSETENABLE	TOGGLE	T	Ich Offset Enable
ICHOFFSET	QUANT	0	Ich Offset (V)
ICHFILTER	IQUANT	3	Ich Filter
VCHRANGE	IQUANT	2	Vch Range
VCHRANGEMODE	TOGGLE	F	Vch Auto Range
VCHOFFSETENABLE	TOGGLE	T	Vch Offset Enable
VCHOFFSET	QUANT	0	Vch Offset (V)
VCHFILTER	IQUANT	3	Vch Filter
ACHRANGE	IQUANT	2	Ach Range
ACHOFFSETENABLE	TOGGLE	F	Ach Offset Enable
ACHOFFSET	QUANT	0	Ach Offset (V)
ACHFILTER	IQUANT	3	Ach Filter
IERANGELOWERLIMIT	IQUANT	1	I/E Range Lower Limit
IERANGEMODE	TOGGLE	F	I/E AutoRange
IERANGE	IQUANT	7	I/E Range
POSFEEDENABLE	TOGGLE	F	Positive Feedback IR Comp
POSFEEDRESISTANCE	QUANT	0	Positive Feedback Resistance (ohm)
ACHSELECT	IQUANT	0	Ach Select
CABLEID	IQUANT	14	Cable ID
DCCALDATE	LABEL	2/27/2020	DC Calibration Date
ACCALDATE	LABEL	2/27/2020	AC Calibration Date
THERMOSELECT	IQUANT	1	Thermo Select
FRAMEWORKVERSION	QUANT	6.33	Framework Version
INSTRUMENTVERSION	LABEL	3.50	Instrument Version
ZCURVE	TABLE
	Pt	Time	Freq	Zreal	Zimag	Zsig	Zmod	Zphz	Idc	Vdc	IERange
	#	s	Hz	ohm	ohm	V	ohm	°	A	V	#
	0	1	1000078	1944.727	-1633.709	1	2539.876	-40.03265	3.510947E-008	-0.0203547	8
	1	2	794390.6	2226.085	-1692.941	1	2796.695	-37.25303	4.843805E-008	-0.0207009	8
	2	2	630984.4	2506.618	-1732.413	1	3047.03	-34.64974	1.918345E-008	-0.0208527	8
	3	2	501234.4	2780.357	-1759.529	1	3290.338	-32.32738	5.927181E-008	-0.0209711	8
	4	3	398109.4	3047.252	-1780.984	1	3529.54	-30.3044	5.575265E-008	-0.0210304	8
	5	3	316265.6	3308.499	-1805.294	1	3768.986	-28.61924	5.353495E-008	-0.0210743	8
	6	3	251203.1	3556.788	-1832.781	1	4001.228	-27.26165	4.947829E-008	-0.0210758	8
	7	4	199546.9	3815.298	-1873.072	1	4250.282	-26.14814	5.100338E-008	-0.0210819	8
	8	4	158578.1	4067.623	-1921.318	1	4498.557	-25.28344	5.747131E-008	-0.0210931	8
	9	4	125953.1	4368.506	-1928.619	1	4775.292	-23.82061	1.387701E-011	-0.0211552	7
	10	5	100078.1	4616.519	-1999.78	1	5031.041	-23.42126	3.221769E-009	-0.0211599	7
	11	5	79453.13	4893.175	-2095.542	1	5323.013	-23.18342	3.304588E-009	-0.0211722	7
	12	5	63140.62	5180.636	-2201.121	1	5628.848	-23.01941	3.603165E-009	-0.0211655	7
	13	6	50203.12	5479.883	-2312.112	1	5947.687	-22.87621	3.270313E-009	-0.0211713	7
	14	6	39890.62	5792.683	-2437.889	1	6284.781	-22.82412	4.463065E-009	-0.0211742	7
	15	6	31640.63	6120.16	-2577.542	1	6640.789	-22.83869	4.558252E-009	-0.0211733	7
	16	7	25171.88	6453.548	-2731.479	1	7007.8	-22.94062	5.265059E-009	-0.0211688	7
	17	7	20015.62	6796.026	-2903.626	1	7390.333	-23.13477	3.523871E-009	-0.0211717	7
	18	7	15890.62	7155.219	-3115.582	1	7804.102	-23.52966	4.234758E-009	-0.0211736	7
	19	8	12609.37	7526.091	-3360.412	1	8242.234	-24.06084	3.985659E-009	-0.0211769	7
	20	8	10078.13	7907.171	-3651.35	1	8709.519	-24.78641	3.553745E-009	-0.0211748	7
	21	8	8015.625	8367.431	-3946.575	1	9251.451	-25.25134	4.719165E-010	-0.021122	6
	22	8	6328.125	8840.146	-4391.043	1	9870.64	-26.41433	8.121039E-010	-0.0211213	6
	23	9	5015.625	9368.074	-4895.22	1	10569.96	-27.589	6.641261E-010	-0.0211254	6
	24	9	3984.375	9961.94	-5463.399	1	11361.74	-28.74156	7.077252E-010	-0.021123	6
	25	9	3170.956	10625.52	-6087.277	1	12245.68	-29.80805	5.559871E-010	-0.0211232	6
	26	10	2527.573	11349.8	-6766.324	1	13213.67	-30.80181	4.495608E-010	-0.0211326	6
	27	10	1976.103	12206.33	-7580.336	1	14368.58	-31.84097	4.930064E-010	-0.0211314	6
	28	10	1577.524	13027.82	-8411.279	1	15507.21	-32.8479	3.51276E-010	-0.021134	6
	29	11	1265.625	13861.08	-9359.274	1	16724.99	-34.02801	2.285938E-010	-0.0211313	6
	30	11	998.264	14790.14	-10567.92	1	18177.71	-35.54672	2.7323E-010	-0.0211395	6
	31	11	796.875	15721.05	-11983.02	1	19767.25	-37.31564	3.628234E-010	-0.0211336	6
	32	12	627.7902	16800.94	-13832.19	1	21762.38	-39.46457	6.437488E-010	-0.0211254	6
	33	12	505.5147	17910.7	-15895.27	1	23946.87	-41.5882	4.126573E-010	-0.0211302	6
	34	12	397.9953	19379.35	-18662.26	1	26904.26	-43.92009	4.58367E-010	-0.0211163	6
	35	13	315.5048	21130.62	-21906.21	1	30436.57	-46.03244	4.598092E-010	-0.0211151	6
	36	13	252.4038	23218.1	-25581.45	1	34546.93	-47.77264	4.991499E-010	-0.0211178	6
	37	13	198.6229	26007.81	-30167.2	1	39830.47	-49.23465	5.386014E-010	-0.0211167	6
	38	14	158.3615	29271.85	-35130.25	1	45727.19	-50.19766	5.069268E-010	-0.0211211	6
	39	14	125.558	33334.25	-40862.61	1	52734.48	-50.79367	6.253862E-010	-0.0211193	6
	40	14	100.4464	37995.48	-47007.15	1	60442.77	-51.05169	3.390326E-010	-0.0211212	6
	41	15	79.00281	43917.44	-54354.99	1	69879.95	-51.06268	3.784609E-010	-0.0211212	6
	42	15	63.3446	50280.8	-61858.67	1	79716.09	-50.89463	3.139613E-010	-0.021125	6
	43	15	49.86702	58256.52	-70842.83	1	91719.84	-50.56835	5.950771E-010	-0.0211243	6
	44	16	39.72458	67011.09	-80205.86	1	104515.4	-50.12162	2.790682E-010	-0.0211194	5
	45	16	31.6723	76967.01	-90558.63	1	118847.7	-49.63834	-1.278319E-010	-0.0211212	5
	46	16	24.93351	88964.2	-102468.2	1	135699.5	-49.03506	8.154211E-010	-0.0211274	5
	47	17	19.86229	101576.4	-114986.6	1	153426.5	-48.54339	1.901679E-009	-0.0211196	5
	48	17	15.83615	116067.9	-128733.7	1	173332.4	-47.96179	-9.660827E-010	-0.0211228	5
	49	17	12.40079	133020.3	-144738.7	1	196580	-47.41583	-1.638129E-010	-0.0211181	5
	50	17	9.93114	150124.7	-160890.2	1	220052.5	-46.98245	-8.143195E-010	-0.0211219	5
	51	18	7.944915	168283.8	-179629.8	1	246142.8	-46.86785	-8.79361E-010	-0.0211207	5
	52	18	6.317385	189545	-200961.3	1	276247.7	-46.67454	3.499935E-010	-0.0211355	5
	53	19	5.008013	213365.1	-225522.6	1	310459.6	-46.58673	6.094315E-011	-0.0211332	5
	54	20	3.945707	240257.1	-254773.8	1	350190.2	-46.6797	-2.619512E-010	-0.0211272	5
	55	21	3.158693	267976.4	-285092.4	1	391265.9	-46.77259	5.647784E-011	-0.0211437	5
	56	22	2.504006	300135.8	-322065.5	1	440236	-47.01857	2.999739E-010	-0.0211317	5
	57	23	1.998082	333636	-362201.4	1	492445.8	-47.35078	6.898722E-011	-0.0211583	5
	58	25	1.584686	373117	-411741.1	1	555650.1	-47.81734	-4.294783E-011	-0.0211812	5
	59	27	1.266892	413623.2	-467464.6	1	624185.3	-48.49687	1.940861E-011	-0.0211578	5
	60	29	0.999041	462426.9	-535773.7	1	707737.3	-49.20248	4.631496E-011	-0.0211351	5
