EXPLAIN
TAG	EISPOT
TITLE	LABEL	Potentiostatic EIS	Test &Identifier
DATE	LABEL	3/9/2020	Date
TIME	LABEL	20:45:51	Time
NOTES	NOTES	1	&Notes...
	
PSTAT	PSTAT	REF600-11020	Potentiostat
VDC	POTEN	0.00000E+000	T	DC &Voltage (V)
FREQINIT	QUANT	1.00000E+006	Initial Fre&q. (Hz)
FREQFINAL	QUANT	1.00000E+000	Final Fre&q. (Hz)
PTSPERDEC	QUANT	1.00000E+001	Points/&decade
VAC	QUANT	2.50000E+001	AC &Voltage (mV rms)
AREA	QUANT	4.00000E-005	&Area (cm^2)
CONDIT	TWOPARAM	F	5.00000E+000	0.00000E+000	Conditionin&g	Time(s)	E(V)
DELAY	TWOPARAM	T	3.00000E+000	0.00000E+000	Init. De&lay	Time(s)	Stab.(mV/s)
SPEED	SELECTOR	0	&Optimize for:
ZGUESS	QUANT	1.00000E+003	E&stimated Z (ohms)
OCVCURVE	TABLE	12
	Pt	T	Vf	Vm	Ach	Over
	#	s	V vs. Ref.	V	V	bits
	0	0.258333	5.46300E-002	5.46300E-002	5.67797E-004	...........
	1	0.516667	5.46304E-002	5.46515E-002	5.69630E-004	...........
	2	0.775	5.46330E-002	5.46733E-002	5.67463E-004	...........
	3	1.03333	5.46402E-002	5.46918E-002	5.69963E-004	...........
	4	1.29167	5.46532E-002	5.47087E-002	5.66963E-004	...........
	5	1.55	5.46702E-002	5.47276E-002	5.67164E-004	...........
	6	1.80833	5.46886E-002	5.47384E-002	5.68130E-004	...........
	7	2.06667	5.47066E-002	5.47540E-002	5.67263E-004	...........
	8	2.325	5.47230E-002	5.47634E-002	5.67230E-004	...........
	9	2.58333	5.47378E-002	5.47753E-002	5.72997E-004	...........
	10	2.84167	5.47509E-002	5.47871E-002	5.70563E-004	...........
	11	3.1	5.47630E-002	5.47953E-002	5.66963E-004	...........
EOC	QUANT	0.054763	Open Circuit (V)
PSTATMODEL	IQUANT	4	Pstat Model
PSTATSECTION	LABEL	REF600-11020	Pstat Section
PSTATSERIALNO	LABEL	11020	Pstat Serial Number
CTRLMODE	IQUANT	1	Control Mode
IESTAB	IQUANT	0	I/E Stability
CASPEED	IQUANT	1	Control Amp Speed
CONVENTION	IQUANT	1	Current Convention
ICHRANGE	IQUANT	2	Ich Range
ICHRANGEMODE	TOGGLE	F	Ich Auto Range
ICHOFFSETENABLE	TOGGLE	T	Ich Offset Enable
ICHOFFSET	QUANT	0	Ich Offset (V)
ICHFILTER	IQUANT	3	Ich Filter
VCHRANGE	IQUANT	2	Vch Range
VCHRANGEMODE	TOGGLE	F	Vch Auto Range
VCHOFFSETENABLE	TOGGLE	T	Vch Offset Enable
VCHOFFSET	QUANT	0	Vch Offset (V)
VCHFILTER	IQUANT	3	Vch Filter
ACHRANGE	IQUANT	2	Ach Range
ACHOFFSETENABLE	TOGGLE	F	Ach Offset Enable
ACHOFFSET	QUANT	0	Ach Offset (V)
ACHFILTER	IQUANT	3	Ach Filter
IERANGELOWERLIMIT	IQUANT	1	I/E Range Lower Limit
IERANGEMODE	TOGGLE	F	I/E AutoRange
IERANGE	IQUANT	8	I/E Range
POSFEEDENABLE	TOGGLE	F	Positive Feedback IR Comp
POSFEEDRESISTANCE	QUANT	0	Positive Feedback Resistance (ohm)
ACHSELECT	IQUANT	0	Ach Select
CABLEID	IQUANT	14	Cable ID
DCCALDATE	LABEL	2/27/2020	DC Calibration Date
ACCALDATE	LABEL	2/27/2020	AC Calibration Date
THERMOSELECT	IQUANT	1	Thermo Select
FRAMEWORKVERSION	QUANT	6.33	Framework Version
INSTRUMENTVERSION	LABEL	3.50	Instrument Version
ZCURVE	TABLE
	Pt	Time	Freq	Zreal	Zimag	Zsig	Zmod	Zphz	Idc	Vdc	IERange
	#	s	Hz	ohm	ohm	V	ohm	°	A	V	#
	0	1	1000078	1942.284	-1724.635	1	2597.467	-41.6032	4.485359E-008	0.057083	8
	1	2	794390.6	2206.63	-1808.604	1	2853.115	-39.33883	5.304929E-008	0.0567518	8
	2	2	630984.4	2479.835	-1886.892	1	3116.078	-37.26729	4.092014E-008	0.0565985	8
	3	2	501234.4	2750.996	-1972.845	1	3385.276	-35.64576	4.663103E-008	0.0565064	8
	4	3	398109.4	3027.006	-2072.434	1	3668.48	-34.39742	5.692781E-008	0.0564547	8
	5	3	316265.6	3322.074	-2188.994	1	3978.426	-33.38184	4.904574E-008	0.0564196	8
	6	3	251203.1	3640.927	-2328.917	1	4322.06	-32.605	2.325785E-008	0.0564086	8
	7	4	199546.9	4004.297	-2472.311	1	4706.029	-31.69178	2.182152E-009	0.0564142	8
	8	4	158578.1	4415.234	-2610.303	1	5129.13	-30.59174	5.008091E-008	0.0564133	8
	9	4	125953.1	4941.559	-2645.102	1	5604.959	-28.15911	-2.237851E-009	0.0563838	7
	10	5	100078.1	5405.995	-2713.312	1	6048.706	-26.65244	2.964645E-010	0.0563486	7
	11	5	79453.13	5909.216	-2741.578	1	6514.222	-24.88892	2.792124E-010	0.0563402	7
	12	5	63140.62	6412.257	-2707.451	1	6960.412	-22.89096	-1.084772E-010	0.0563397	7
	13	6	50203.12	6884.793	-2614.968	1	7364.674	-20.79767	2.368823E-010	0.0563402	7
	14	6	39890.62	7317.804	-2481.899	1	7727.229	-18.73483	1.043461E-010	0.0563388	7
	15	6	31640.63	7700.362	-2324.551	1	8043.576	-16.79778	4.018532E-012	0.0563345	7
	16	7	25171.88	8026.823	-2165.274	1	8313.742	-15.09648	4.264381E-010	0.0563344	7
	17	7	20015.62	8304.146	-2017.269	1	8545.654	-13.65399	1.233886E-009	0.0563387	7
	18	7	15890.62	8537.915	-1890.493	1	8744.71	-12.48518	1.549396E-009	0.0563365	7
	19	8	12609.37	8801.286	-1649.815	1	8954.581	-10.61697	-8.269953E-011	0.0563929	6
	20	8	10078.13	8954.027	-1617.225	1	9098.902	-10.23806	-2.598756E-010	0.0563864	6
	21	8	8015.625	9099.468	-1621.485	1	9242.81	-10.1038	-1.478412E-010	0.0563854	6
	22	8	6328.125	9244.892	-1669.095	1	9394.354	-10.23408	-1.85353E-010	0.0563877	6
	23	9	5015.625	9383.917	-1759.744	1	9547.49	-10.62119	-2.436368E-010	0.0563873	6
	24	9	3984.375	9526	-1900.978	1	9713.82	-11.28552	-3.198958E-010	0.0563816	6
	25	9	3170.956	9676.24	-2091.83	1	9899.77	-12.1986	-3.009951E-010	0.0563805	6
	26	10	2527.573	9833.89	-2336.231	1	10107.59	-13.36399	-6.618156E-010	0.0563794	6
	27	10	1976.103	10028.94	-2676.122	1	10379.85	-14.94069	-3.080233E-010	0.0563871	6
	28	10	1577.524	10222.81	-3066.287	1	10672.77	-16.69638	-4.467868E-010	0.0563841	6
	29	11	1265.625	10431.44	-3530.518	1	11012.7	-18.69837	-4.97743E-010	0.0563863	6
	30	11	998.264	10695.74	-4145.857	1	11471.14	-21.18721	-2.374074E-010	0.0563759	6
	31	11	796.875	10984.12	-4855.57	1	12009.48	-23.848	-3.750787E-010	0.0563763	6
	32	12	627.7902	11328.75	-5769.053	1	12713.08	-26.98702	-3.044383E-010	0.0563819	6
	33	12	505.5147	11702.76	-6768.26	1	13519.02	-30.04282	-7.934111E-010	0.0563742	6
	34	12	397.9953	12182.48	-8098.504	1	14628.69	-33.61463	1.223457E-010	0.0563927	6
	35	13	315.5048	12725.24	-9662.56	1	15978.01	-37.21021	2.066037E-010	0.0563877	6
	36	13	252.4038	13341.54	-11475.5	1	17597.83	-40.69992	8.538902E-011	0.0563854	6
	37	13	198.6229	14117.57	-13835.3	1	19766.67	-44.42144	2.160755E-010	0.0563865	6
	38	14	158.3615	14996.06	-16549.54	1	22333.13	-47.81929	3.162619E-010	0.0563876	6
	39	14	125.558	16085.64	-19928.08	1	25610.08	-51.09005	2.88366E-010	0.0563907	6
	40	14	100.4464	17369.16	-23864.22	1	29515.91	-53.95165	2.618116E-010	0.0563903	6
	41	15	79.00281	19098.6	-29000.91	1	34724.77	-56.63303	3.019217E-010	0.0563839	6
	42	15	63.3446	21117.61	-34697.24	1	40618.37	-58.67426	4.033917E-010	0.0563806	6
	43	15	49.86702	23919.27	-42085.1	1	48407.51	-60.38806	1.426483E-010	0.056382	6
	44	16	39.72458	27328.61	-50440.63	1	57368.19	-61.55127	4.758817E-010	0.0563857	6
	45	16	31.6723	31633.02	-60219.2	1	68022.05	-62.28715	5.100378E-010	0.0563801	6
	46	16	24.93351	37373.36	-72317.39	1	81403.77	-62.67025	-3.505616E-010	0.056381	6
	47	17	19.86229	44169.84	-85695.48	1	96409	-62.73216	-6.174228E-010	0.0563751	6
	48	17	15.83615	52460.9	-101053.3	1	113859.2	-62.56432	1.631832E-010	0.0563843	5
	49	17	12.40079	63678.34	-120334.2	1	136144.2	-62.11315	-1.345315E-009	0.0563889	5
	50	17	9.93114	75852.24	-140347.2	1	159533.4	-61.6105	-1.197614E-009	0.0563852	5
	51	18	7.944915	90901.9	-163200.7	1	186809	-60.88243	6.516339E-010	0.0563865	5
	52	18	6.317385	109483.6	-189888.1	1	219189.8	-60.03358	-2.80711E-010	0.0563953	5
	53	19	5.008013	132158.1	-220070.7	1	256703.8	-59.0141	-5.854352E-010	0.0563807	5
	54	20	3.945707	160165.3	-253929.3	1	300221.6	-57.75842	-5.208601E-011	0.056389	5
	55	21	3.158693	189997.8	-288943.8	1	345814.4	-56.6727	-3.569641E-010	0.0563791	5
	56	22	2.504006	225907.7	-327914	1	398198.3	-55.43613	1.195803E-010	0.056378	5
	57	23	1.998082	263642.9	-369931.3	1	454265.1	-54.52327	1.937572E-010	0.0564008	5
	58	25	1.584686	306915.8	-415908.9	1	516892.2	-53.5749	-1.692956E-011	0.0563556	5
	59	27	1.266892	352292.6	-467596	1	585453.7	-53.00518	-7.076154E-011	0.0563392	5
	60	29	0.999041	402010.9	-530542.4	1	665648.6	-52.84749	-8.755267E-011	0.0563409	5
