EXPLAIN
TAG	EISPOT
TITLE	LABEL	Potentiostatic EIS	Test &Identifier
DATE	LABEL	1/10/2020	Date
TIME	LABEL	13:41:43	Time
NOTES	NOTES	5	&Notes...
	
	
	
	
	
PSTAT	PSTAT	REF600-11020	Potentiostat
VDC	POTEN	0.00000E+000	T	DC &Voltage (V)
FREQINIT	QUANT	1.00000E+006	Initial Fre&q. (Hz)
FREQFINAL	QUANT	1.00000E+000	Final Fre&q. (Hz)
PTSPERDEC	QUANT	1.00000E+001	Points/&decade
VAC	QUANT	2.50000E+001	AC &Voltage (mV rms)
AREA	QUANT	1.00000E-001	&Area (cm^2)
CONDIT	TWOPARAM	T	5.00000E+000	0.00000E+000	Conditionin&g	Time(s)	E(V)
DELAY	TWOPARAM	T	5.00000E+000	0.00000E+000	Init. De&lay	Time(s)	Stab.(mV/s)
SPEED	SELECTOR	0	&Optimize for:
ZGUESS	QUANT	5.00000E+002	E&stimated Z (ohms)
OCVCURVE	TABLE	19
	Pt	T	Vf	Vm	Ach	Over
	#	s	V vs. Ref.	V	V	bits
	0	0.258333	4.52078E-003	4.52078E-003	6.59513E-004	...........
	1	0.516667	4.52054E-003	4.50821E-003	6.57779E-004	...........
	2	0.775	4.51818E-003	4.45012E-003	6.53179E-004	...........
	3	1.03333	4.51072E-003	4.50640E-003	6.54879E-004	...........
	4	1.29167	4.49913E-003	4.46045E-003	6.58079E-004	...........
	5	1.55	4.48611E-003	4.35995E-003	6.56680E-004	...........
	6	1.80833	4.46630E-003	4.31631E-003	6.59879E-004	...........
	7	2.06667	4.43116E-003	4.27259E-003	6.59846E-004	...........
	8	2.325	4.38239E-003	4.22748E-003	6.52813E-004	...........
	9	2.58333	4.32868E-003	4.14538E-003	6.53780E-004	...........
	10	2.84167	4.27353E-003	4.06348E-003	6.52080E-004	...........
	11	3.1	4.21776E-003	4.20605E-003	6.53813E-004	...........
	12	3.35833	4.17034E-003	4.05613E-003	6.56713E-004	...........
	13	3.61667	4.14151E-003	4.20311E-003	6.53046E-004	...........
	14	3.875	4.13013E-003	4.06209E-003	6.56213E-004	...........
	15	4.13333	4.12740E-003	4.15886E-003	6.53480E-004	...........
	16	4.39167	4.12662E-003	4.13303E-003	6.57113E-004	...........
	17	4.65	4.12652E-003	4.09521E-003	6.53113E-004	...........
	18	4.90833	4.12491E-003	4.06309E-003	6.52513E-004	...........
EOC	QUANT	0.0041249	Open Circuit (V)
PSTATMODEL	IQUANT	4	Pstat Model
PSTATSECTION	LABEL	REF600-11020	Pstat Section
PSTATSERIALNO	LABEL	11020	Pstat Serial Number
CTRLMODE	IQUANT	1	Control Mode
IESTAB	IQUANT	0	I/E Stability
CASPEED	IQUANT	1	Control Amp Speed
CONVENTION	IQUANT	1	Current Convention
ICHRANGE	IQUANT	2	Ich Range
ICHRANGEMODE	TOGGLE	F	Ich Auto Range
ICHOFFSETENABLE	TOGGLE	T	Ich Offset Enable
ICHOFFSET	QUANT	0	Ich Offset (V)
ICHFILTER	IQUANT	3	Ich Filter
VCHRANGE	IQUANT	2	Vch Range
VCHRANGEMODE	TOGGLE	F	Vch Auto Range
VCHOFFSETENABLE	TOGGLE	T	Vch Offset Enable
VCHOFFSET	QUANT	0	Vch Offset (V)
VCHFILTER	IQUANT	3	Vch Filter
ACHRANGE	IQUANT	2	Ach Range
ACHOFFSETENABLE	TOGGLE	F	Ach Offset Enable
ACHOFFSET	QUANT	0	Ach Offset (V)
ACHFILTER	IQUANT	3	Ach Filter
IERANGELOWERLIMIT	IQUANT	1	I/E Range Lower Limit
IERANGEMODE	TOGGLE	F	I/E AutoRange
IERANGE	IQUANT	7	I/E Range
POSFEEDENABLE	TOGGLE	F	Positive Feedback IR Comp
POSFEEDRESISTANCE	QUANT	0	Positive Feedback Resistance (ohm)
ACHSELECT	IQUANT	0	Ach Select
CABLEID	IQUANT	14	Cable ID
DCCALDATE	LABEL	12/22/2019	DC Calibration Date
ACCALDATE	LABEL	12/22/2019	AC Calibration Date
THERMOSELECT	IQUANT	1	Thermo Select
FRAMEWORKVERSION	QUANT	6.33	Framework Version
INSTRUMENTVERSION	LABEL	3.50	Instrument Version
ZCURVE	TABLE
	Pt	Time	Freq	Zreal	Zimag	Zsig	Zmod	Zphz	Idc	Vdc	IERange
	#	s	Hz	ohm	ohm	V	ohm	°	A	V	#
	0	2	1000078	2003.147	-1534.874	1	2523.576	-37.46047	1.944228E-006	0.0063557	8
	1	2	794390.6	2224.956	-1568.328	1	2722.147	-35.17926	-1.795585E-006	0.0061828	8
	2	2	630984.4	2443.748	-1610.137	1	2926.507	-33.3801	-2.539285E-006	0.0063808	8
	3	2	501234.4	2653.949	-1658.517	1	3129.557	-32.00227	2.170784E-006	0.0053675	8
	4	3	398109.4	2862.286	-1722.941	1	3340.839	-31.04566	-1.089289E-006	0.005839	8
	5	3	316265.6	3068.679	-1814.538	1	3565.016	-30.59622	-2.464505E-006	0.0061265	8
	6	3	251203.1	3287.698	-1926.177	1	3810.396	-30.36493	-3.105173E-007	0.0056716	8
	7	4	199546.9	3516.443	-2077.561	1	4084.315	-30.57515	-2.446086E-006	0.0061023	8
	8	4	158578.1	3764.246	-2256.731	1	4388.893	-30.94342	1.678502E-007	0.0056617	8
	9	4	125953.1	4059.401	-2431.773	1	4732.046	-30.9236	-6.69969E-008	0.0053335	7
	10	5	100078.1	4358.255	-2672.642	1	5112.476	-31.51816	-2.884839E-008	0.0056129	7
	11	5	79453.13	4702.223	-2957.134	1	5554.776	-32.16497	-5.023516E-010	0.0055397	7
	12	5	63140.62	5092.888	-3270.678	1	6052.673	-32.70878	-1.352755E-008	0.0055699	7
	13	6	50203.12	5532.517	-3609.417	1	6605.803	-33.12046	8.973233E-008	0.0054436	7
	14	6	39890.62	6027.783	-3970.434	1	7217.93	-33.37246	-2.735518E-008	0.005591	7
	15	6	31640.63	6583.739	-4358.716	1	7895.823	-33.50626	-2.995005E-008	0.0056037	7
	16	7	25171.88	7186.829	-4764.237	1	8622.556	-33.54089	3.586854E-009	0.0055918	7
	17	7	20015.62	7845.757	-5177.272	1	9400.002	-33.42009	5.604619E-008	0.0054597	7
	18	7	15890.62	8551.979	-5640.119	1	10244.38	-33.40527	-4.880716E-009	0.0055974	7
	19	8	12609.37	9343.769	-6091.239	1	11153.89	-33.10049	3.136487E-009	0.0055953	6
	20	8	10078.13	10113.52	-6618.649	1	12086.76	-33.20218	4.161937E-009	0.0055835	6
	21	8	8015.625	10947.29	-7212.76	1	13109.81	-33.37939	1.262755E-008	0.0053677	6
	22	9	6328.125	11892.5	-7935.083	1	14296.75	-33.71257	-1.418777E-009	0.0056593	6
	23	9	5015.625	12903.47	-8737.259	1	15583.3	-34.10291	4.313203E-009	0.0054421	6
	24	9	3984.375	14021.99	-9657.9	1	17026.2	-34.55783	-4.953284E-009	0.005645	6
	25	9	3170.956	15268.76	-10609.79	1	18593.08	-34.79425	5.700764E-010	0.0055033	6
	26	10	2527.573	16647.92	-11679.93	1	20336.52	-35.05292	-1.596452E-009	0.0056562	6
	27	10	1976.103	18291.02	-12887.2	1	22375.02	-35.16716	-9.088658E-010	0.0055774	6
	28	10	1577.524	19973.62	-14073.28	1	24433.64	-35.16827	1.486279E-009	0.0055931	6
	29	11	1265.625	21581.56	-15366.39	1	26493.2	-35.45143	8.804272E-010	0.0054993	6
	30	11	998.264	23476.22	-16936.27	1	28947.71	-35.80751	6.383935E-009	0.0054494	6
	31	11	796.875	25332.51	-18700.93	1	31487.47	-36.43544	3.352771E-009	0.0055728	6
	32	12	627.7902	27485.79	-20944.02	1	34556.05	-37.30721	4.206579E-009	0.0054329	6
	33	12	505.5147	29606.03	-23381.07	1	37725.21	-38.29956	5.703069E-009	0.0054465	6
	34	12	397.9953	32372.63	-26588.37	1	41891.86	-39.39703	1.474719E-009	0.005574	6
	35	13	315.5048	35540.94	-30269.79	1	46684.24	-40.42063	6.282233E-010	0.0055741	6
	36	13	252.4038	39240.71	-34267.29	1	52096.84	-41.12936	1.38153E-009	0.0055694	6
	37	13	198.6229	44070.89	-39010.42	1	58856.24	-41.51443	8.088072E-010	0.0055681	6
	38	14	158.3615	49355.69	-43789.66	1	65981.2	-41.58028	5.743435E-010	0.0055614	6
	39	14	125.558	55751.71	-48905.7	1	74162.13	-41.25741	9.817814E-010	0.0055684	6
	40	14	100.4464	62965.61	-53832.19	1	82840.64	-40.52865	8.495276E-010	0.0055646	6
	41	15	79.00281	71202.68	-59371.78	1	92708.3	-39.82276	1.445712E-009	0.0055578	6
	42	15	63.3446	77184.3	-63349.18	1	99852.6	-39.37751	1.075605E-010	0.005559	5
	43	15	49.86702	87565.67	-68992.77	1	111479.8	-38.23448	-4.357742E-010	0.0055565	5
	44	16	39.72458	98313.1	-75857.48	1	124176.6	-37.65345	8.281188E-010	0.0055627	5
	45	16	31.6723	109168.5	-81486.21	1	136226.9	-36.73862	9.585154E-010	0.0055606	5
	46	16	24.93351	119552.4	-87750.02	1	148299.8	-36.27823	-3.680891E-010	0.0055592	5
	47	17	19.86229	130125.2	-94884.48	1	161045.5	-36.09872	4.526915E-010	0.0055604	5
	48	17	15.83615	142763.9	-103655.9	1	176425.9	-35.9821	-2.494426E-010	0.005556	5
	49	17	12.40079	154102.7	-112056.6	1	190537	-36.02298	7.040569E-010	0.0055544	5
	50	18	9.93114	163779	-122710.6	1	204649.6	-36.84219	-7.426038E-010	0.005556	5
	51	18	7.944915	174643.8	-135738.8	1	221191	-37.8555	-9.008095E-010	0.0055551	5
	52	19	6.317385	186397.1	-152907.4	1	241090.4	-39.36311	-6.505609E-010	0.0055642	5
	53	20	5.008013	198339.6	-174862.7	1	264415.5	-41.40045	-4.690789E-010	0.0055499	5
	54	21	3.945707	213069	-202986.2	1	294281.8	-43.61176	8.605247E-011	0.0055577	5
	55	22	3.158693	229142.6	-235320.3	1	328453.9	-45.76203	-7.052768E-012	0.0055722	5
	56	24	2.504006	249590.6	-276430.1	1	372436.7	-47.92091	-3.077808E-010	0.0055576	5
	57	25	1.998082	273229.9	-323474	1	423426.5	-49.81311	3.908777E-012	0.0055811	5
	58	27	1.584686	303836.5	-381669.3	1	487840.3	-51.47766	8.422506E-011	0.0056075	5
	59	29	1.266892	338469.1	-447877.2	1	561386.9	-52.92099	6.483733E-011	0.0055715	5
	60	31	0.999041	384779.7	-527292.3	1	652757.6	-53.88074	5.449341E-011	0.0055482	5
