EXPLAIN
TAG	EISPOT
TITLE	LABEL	Potentiostatic EIS	Test &Identifier
DATE	LABEL	3/12/2020	Date
TIME	LABEL	13:09:08	Time
NOTES	NOTES	1	&Notes...
	
PSTAT	PSTAT	REF600-11020	Potentiostat
VDC	POTEN	0.00000E+000	T	DC &Voltage (V)
FREQINIT	QUANT	1.00000E+006	Initial Fre&q. (Hz)
FREQFINAL	QUANT	1.00000E+000	Final Fre&q. (Hz)
PTSPERDEC	QUANT	1.00000E+001	Points/&decade
VAC	QUANT	2.50000E+001	AC &Voltage (mV rms)
AREA	QUANT	2.50000E-001	&Area (cm^2)
CONDIT	TWOPARAM	F	5.00000E+000	0.00000E+000	Conditionin&g	Time(s)	E(V)
DELAY	TWOPARAM	T	5.00000E+000	0.00000E+000	Init. De&lay	Time(s)	Stab.(mV/s)
SPEED	SELECTOR	1	&Optimize for:
ZGUESS	QUANT	5.00000E+003	E&stimated Z (ohms)
OCVCURVE	TABLE	19
	Pt	T	Vf	Vm	Ach	Over
	#	s	V vs. Ref.	V	V	bits
	0	0.258333	8.33727E-002	8.33727E-002	5.73830E-004	...........
	1	0.516667	8.33744E-002	8.34582E-002	5.78897E-004	...........
	2	0.775	8.33867E-002	8.36601E-002	5.77563E-004	...........
	3	1.03333	8.34261E-002	8.36876E-002	5.74963E-004	...........
	4	1.29167	8.34956E-002	8.36111E-002	5.71463E-004	...........
	5	1.55	8.35689E-002	8.35921E-002	5.74797E-004	...........
	6	1.80833	8.36124E-002	8.35395E-002	5.72463E-004	...........
	7	2.06667	8.36155E-002	8.35053E-002	5.70963E-004	...........
	8	2.325	8.35904E-002	8.34794E-002	5.74597E-004	...........
	9	2.58333	8.35534E-002	8.34429E-002	5.81863E-004	...........
	10	2.84167	8.35158E-002	8.34307E-002	5.71997E-004	...........
	11	3.1	8.34817E-002	8.33771E-002	5.74330E-004	...........
	12	3.35833	8.34508E-002	8.33684E-002	5.75330E-004	...........
	13	3.61667	8.34215E-002	8.33488E-002	5.73597E-004	...........
	14	3.875	8.33944E-002	8.33334E-002	5.70230E-004	...........
	15	4.13333	8.33711E-002	8.33157E-002	5.74263E-004	...........
	16	4.39167	8.33513E-002	8.32963E-002	5.76763E-004	...........
	17	4.65	8.33334E-002	8.32788E-002	5.74497E-004	...........
	18	4.90833	8.33158E-002	8.32601E-002	5.77030E-004	...........
EOC	QUANT	0.0833158	Open Circuit (V)
PSTATMODEL	IQUANT	4	Pstat Model
PSTATSECTION	LABEL	REF600-11020	Pstat Section
PSTATSERIALNO	LABEL	11020	Pstat Serial Number
CTRLMODE	IQUANT	1	Control Mode
IESTAB	IQUANT	0	I/E Stability
CASPEED	IQUANT	1	Control Amp Speed
CONVENTION	IQUANT	1	Current Convention
ICHRANGE	IQUANT	2	Ich Range
ICHRANGEMODE	TOGGLE	F	Ich Auto Range
ICHOFFSETENABLE	TOGGLE	T	Ich Offset Enable
ICHOFFSET	QUANT	0	Ich Offset (V)
ICHFILTER	IQUANT	3	Ich Filter
VCHRANGE	IQUANT	2	Vch Range
VCHRANGEMODE	TOGGLE	F	Vch Auto Range
VCHOFFSETENABLE	TOGGLE	T	Vch Offset Enable
VCHOFFSET	QUANT	0	Vch Offset (V)
VCHFILTER	IQUANT	3	Vch Filter
ACHRANGE	IQUANT	2	Ach Range
ACHOFFSETENABLE	TOGGLE	F	Ach Offset Enable
ACHOFFSET	QUANT	0	Ach Offset (V)
ACHFILTER	IQUANT	3	Ach Filter
IERANGELOWERLIMIT	IQUANT	1	I/E Range Lower Limit
IERANGEMODE	TOGGLE	F	I/E AutoRange
IERANGE	IQUANT	7	I/E Range
POSFEEDENABLE	TOGGLE	F	Positive Feedback IR Comp
POSFEEDRESISTANCE	QUANT	0	Positive Feedback Resistance (ohm)
ACHSELECT	IQUANT	0	Ach Select
CABLEID	IQUANT	14	Cable ID
DCCALDATE	LABEL	2/27/2020	DC Calibration Date
ACCALDATE	LABEL	2/27/2020	AC Calibration Date
THERMOSELECT	IQUANT	1	Thermo Select
FRAMEWORKVERSION	QUANT	6.33	Framework Version
INSTRUMENTVERSION	LABEL	3.50	Instrument Version
ZCURVE	TABLE
	Pt	Time	Freq	Zreal	Zimag	Zsig	Zmod	Zphz	Idc	Vdc	IERange
	#	s	Hz	ohm	ohm	V	ohm	°	A	V	#
	0	2	1000078	1548.697	-1281.233	1	2009.98	-39.60086	3.582333E-007	0.0857663	8
	1	3	794390.6	1759.858	-1339.596	1	2211.7	-37.27824	-2.970953E-007	0.0857067	8
	2	5	630984.4	1979.206	-1410.922	1	2430.629	-35.48404	-2.354725E-007	0.0851491	8
	3	6	501234.4	2185.66	-1454.872	1	2625.598	-33.64949	-1.148903E-006	0.0854115	8
	4	7	398109.4	2401.235	-1507.602	1	2835.277	-32.12242	6.04782E-006	0.0838691	8
	5	9	316265.6	2620.782	-1571.316	1	3055.738	-30.94521	4.454769E-007	0.0847406	8
	6	10	251203.1	2850.32	-1638.041	1	3287.477	-29.88541	2.125864E-006	0.0844755	8
	7	11	199546.9	3087.64	-1703.902	1	3526.585	-28.89194	2.514974E-006	0.0845127	8
	8	13	158578.1	3339.647	-1747.876	1	3769.392	-27.62629	-1.01015E-006	0.0850338	8
	9	14	125953.1	3663.815	-1770.236	1	4069.063	-25.78832	-1.00142E-007	0.0847341	7
	10	15	100078.1	3917.527	-1844.992	1	4330.244	-25.21848	8.375456E-008	0.0847765	7
	11	17	79453.13	4206.852	-1935.391	1	4630.695	-24.70512	-3.919968E-008	0.0848606	7
	12	18	63140.62	4522.893	-2014.576	1	4951.27	-24.00904	-4.457383E-008	0.084849	7
	13	19	50203.12	4861.644	-2078.724	1	5287.407	-23.1504	-8.986124E-009	0.0848711	7
	14	21	39890.62	5216.071	-2119.178	1	5630.125	-22.11086	-3.921831E-008	0.0848496	7
	15	22	31640.63	5586.349	-2126.504	1	5977.4	-20.83986	-4.024657E-008	0.0849103	7
	16	23	25171.88	5952.101	-2103.701	1	6312.928	-19.46537	6.074654E-008	0.084654	7
	17	25	20015.62	6310.763	-2055.856	1	6637.189	-18.04404	2.934621E-008	0.0848617	7
	18	26	15890.62	6645.243	-1976.293	1	6932.892	-16.56246	-6.678605E-009	0.0848587	7
	19	28	12609.37	6945.957	-1874.399	1	7194.42	-15.10181	2.920661E-008	0.0847466	7
	20	30	10078.13	7201.881	-1773.476	1	7417.028	-13.83395	-4.190451E-008	0.0848446	7
	21	31	8015.625	7428.436	-1668.418	1	7613.493	-12.65851	6.033896E-008	0.0846509	7
	22	33	6328.125	7636.667	-1585.79	1	7799.578	-11.73102	9.346412E-008	0.0846246	7
	23	34	5015.625	7812.916	-1520.904	1	7959.573	-11.01573	9.232927E-008	0.0846185	7
	24	36	3984.375	7944.694	-1481.898	1	8081.72	-10.56578	-1.018719E-008	0.084737	7
	25	37	3170.956	8084.233	-1491.337	1	8220.64	-10.45212	9.309601E-008	0.0846249	7
	26	39	2527.573	8190.629	-1530.241	1	8332.349	-10.58247	1.403865E-007	0.0846003	7
	27	40	1976.103	8303.091	-1627.703	1	8461.131	-11.09137	-3.980047E-008	0.0849048	7
	28	42	1577.524	8395.326	-1768.804	1	8579.637	-11.89759	6.075263E-008	0.0846506	7
	29	44	1265.625	8499.579	-1967.871	1	8724.412	-13.03576	6.182753E-008	0.0846518	7
	30	45	998.264	8608.263	-2258.408	1	8899.584	-14.70045	1.266481E-008	0.0848496	7
	31	46	796.875	8727.558	-2599.49	1	9106.46	-16.58609	-8.517985E-009	0.0849744	6
	32	48	627.7902	8876.134	-3081.211	1	9395.723	-19.14364	9.361028E-009	0.0848113	6
	33	49	505.5147	9028.486	-3621.34	1	9727.68	-21.8558	-4.446044E-010	0.0849602	6
	34	51	397.9953	9236.447	-4371.687	1	10218.79	-25.32858	8.197193E-010	0.0848611	6
	35	52	315.5048	9468.13	-5266.855	1	10834.45	-29.08596	2.23552E-009	0.0848601	6
	36	53	252.4038	9743.77	-6321.354	1	11614.67	-32.97385	1.707714E-009	0.0848539	6
	37	55	198.6229	10124.94	-7707.011	1	12724.48	-37.27805	1.47309E-009	0.0848609	6
	38	56	158.3615	10569.47	-9311.427	1	14086.04	-41.37921	1.646214E-009	0.0848555	6
	39	58	125.558	11149.41	-11307.19	1	15879.61	-45.40254	1.612467E-009	0.0848552	6
	40	59	100.4464	11854	-13611.08	1	18049.34	-48.94714	1.91601E-009	0.0848469	6
	41	60	79.00281	12834.78	-16680.74	1	21047.06	-52.42398	1.871887E-009	0.0848534	6
	42	62	63.3446	14046.31	-20170.48	1	24579.41	-55.14745	8.718764E-010	0.0848557	6
	43	63	49.86702	15515.27	-24216.17	1	28760.16	-57.35237	1.563539E-009	0.0848499	6
	44	65	39.72458	17657.54	-29165.02	1	34093.8	-58.8078	9.284632E-011	0.0848569	6
	45	66	31.6723	20158.88	-34924.12	1	40324.61	-60.00563	9.845599E-010	0.084846	6
	46	67	24.93351	23665.92	-41933.78	1	48150.99	-60.56117	1.427052E-011	0.0848503	6
	47	69	19.86229	27916.87	-49589.64	1	56907.68	-60.62233	1.254338E-011	0.0848481	6
	48	70	15.83615	33352.39	-58668.97	1	67486.52	-60.38245	3.620425E-009	0.0848498	6
	49	72	12.40079	39612.37	-69088.57	1	79639	-60.17192	1.188302E-009	0.084845	6
	50	73	9.93114	47225.22	-79486.42	1	92457.09	-59.28421	1.867295E-009	0.0848442	6
	51	75	7.944915	55438.41	-91372.98	1	106875.8	-58.7537	-8.288364E-010	0.0848531	5
	52	76	6.317385	65430.29	-105092.6	1	123796.5	-58.09375	-2.643572E-010	0.084859	5
	53	78	5.008013	76418.5	-120702.6	1	142859.7	-57.66152	-9.912043E-012	0.0848454	5
	54	81	3.945707	88641.52	-139113.9	1	164954.6	-57.49526	5.522131E-010	0.0848567	5
	55	83	3.158693	101112	-159243.2	1	188632	-57.58634	-2.581743E-011	0.0848523	5
	56	87	2.504006	114914.4	-183826.4	1	216789	-57.98948	4.490619E-010	0.0848459	5
	57	89	1.998082	128968.1	-212227.2	1	248340.8	-58.71342	1.293766E-010	0.0848864	5
	58	93	1.584686	144663	-248669.6	1	287687.3	-59.8114	3.783777E-010	0.0848981	5
	59	96	1.266892	162218.2	-289774.1	1	332090	-60.75949	2.056285E-011	0.0848833	5
	60	100	0.999041	182266.5	-344051	1	389348.4	-62.08688	2.636697E-010	0.0848495	5
