EXPLAIN
TAG	EISPOT
TITLE	LABEL	Potentiostatic EIS	Test &Identifier
DATE	LABEL	7/13/2020	Date
TIME	LABEL	20:32:16	Time
NOTES	NOTES	1	&Notes...
	
PSTAT	PSTAT	REF600-11020	Potentiostat
VDC	POTEN	0.00000E+000	T	DC &Voltage (V)
FREQINIT	QUANT	1.00000E+006	Initial Fre&q. (Hz)
FREQFINAL	QUANT	1.00000E+000	Final Fre&q. (Hz)
PTSPERDEC	QUANT	1.00000E+001	Points/&decade
VAC	QUANT	2.50000E+001	AC &Voltage (mV rms)
AREA	QUANT	4.00000E-004	&Area (cm^2)
CONDIT	TWOPARAM	F	5.00000E+000	0.00000E+000	Conditionin&g	Time(s)	E(V)
DELAY	TWOPARAM	F	3.00000E+000	0.00000E+000	Init. De&lay	Time(s)	Stab.(mV/s)
SPEED	SELECTOR	0	&Optimize for:
ZGUESS	QUANT	1.00000E+003	E&stimated Z (ohms)
OCVCURVE	TABLE	39
	Pt	T	Vf	Vm	Ach	Over
	#	s	V vs. Ref.	V	V	bits
	0	0.258333	2.08666E-001	2.08666E-001	5.26150E-004	...........
	1	0.516667	2.08666E-001	2.08668E-001	5.24617E-004	...........
	2	0.775	2.08666E-001	2.08665E-001	5.28750E-004	...........
	3	1.03333	2.08666E-001	2.08664E-001	5.27750E-004	...........
	4	1.29167	2.08666E-001	2.08661E-001	5.28850E-004	...........
	5	1.55	2.08665E-001	2.08660E-001	5.27350E-004	...........
	6	1.80833	2.08664E-001	2.08660E-001	5.18683E-004	...........
	7	2.06667	2.08662E-001	2.08662E-001	5.27617E-004	...........
	8	2.325	2.08661E-001	2.08657E-001	5.29183E-004	...........
	9	2.58333	2.08660E-001	2.08655E-001	5.27850E-004	...........
	10	2.84167	2.08659E-001	2.08656E-001	5.25617E-004	...........
	11	3.1	2.08658E-001	2.08654E-001	5.25550E-004	...........
	12	3.35833	2.08656E-001	2.08650E-001	5.22017E-004	...........
	13	3.61667	2.08655E-001	2.08651E-001	5.26383E-004	...........
	14	3.875	2.08653E-001	2.08650E-001	5.22217E-004	...........
	15	4.13333	2.08652E-001	2.08650E-001	5.22183E-004	...........
	16	4.39167	2.08651E-001	2.08646E-001	5.16117E-004	...........
	17	4.65	2.08650E-001	2.08645E-001	5.23117E-004	...........
	18	4.90833	2.08648E-001	2.08642E-001	5.22783E-004	...........
	19	5.16667	2.08647E-001	2.08641E-001	5.21683E-004	...........
	20	5.425	2.08645E-001	2.08639E-001	5.21250E-004	...........
	21	5.68333	2.08643E-001	2.08638E-001	5.19917E-004	...........
	22	5.94167	2.08641E-001	2.08634E-001	5.24617E-004	...........
	23	6.2	2.08639E-001	2.08635E-001	5.21950E-004	...........
	24	6.45833	2.08637E-001	2.08632E-001	5.28050E-004	...........
	25	6.71667	2.08636E-001	2.08630E-001	5.26883E-004	...........
	26	6.975	2.08634E-001	2.08629E-001	5.32050E-004	...........
	27	7.23333	2.08632E-001	2.08628E-001	5.23417E-004	...........
	28	7.49167	2.08631E-001	2.08627E-001	5.24683E-004	...........
	29	7.75	2.08629E-001	2.08625E-001	5.27550E-004	...........
	30	8.00833	2.08628E-001	2.08621E-001	5.26750E-004	...........
	31	8.26667	2.08626E-001	2.08619E-001	5.31850E-004	...........
	32	8.525	2.08624E-001	2.08617E-001	5.25483E-004	...........
	33	8.78333	2.08622E-001	2.08616E-001	5.25183E-004	...........
	34	9.04167	2.08620E-001	2.08611E-001	5.26817E-004	...........
	35	9.3	2.08617E-001	2.08612E-001	5.27417E-004	...........
	36	9.5583	2.08615E-001	2.08610E-001	5.24783E-004	...........
	37	9.8167	2.08613E-001	2.08615E-001	5.27283E-004	...........
	38	10.075	2.08612E-001	2.08611E-001	5.28783E-004	...........
EOC	QUANT	0.2086121	Open Circuit (V)
PSTATMODEL	IQUANT	4	Pstat Model
PSTATSECTION	LABEL	REF600-11020	Pstat Section
PSTATSERIALNO	LABEL	11020	Pstat Serial Number
CTRLMODE	IQUANT	1	Control Mode
IESTAB	IQUANT	0	I/E Stability
CASPEED	IQUANT	1	Control Amp Speed
CONVENTION	IQUANT	1	Current Convention
ICHRANGE	IQUANT	2	Ich Range
ICHRANGEMODE	TOGGLE	F	Ich Auto Range
ICHOFFSETENABLE	TOGGLE	T	Ich Offset Enable
ICHOFFSET	QUANT	0	Ich Offset (V)
ICHFILTER	IQUANT	3	Ich Filter
VCHRANGE	IQUANT	2	Vch Range
VCHRANGEMODE	TOGGLE	F	Vch Auto Range
VCHOFFSETENABLE	TOGGLE	T	Vch Offset Enable
VCHOFFSET	QUANT	0	Vch Offset (V)
VCHFILTER	IQUANT	3	Vch Filter
ACHRANGE	IQUANT	2	Ach Range
ACHOFFSETENABLE	TOGGLE	F	Ach Offset Enable
ACHOFFSET	QUANT	0	Ach Offset (V)
ACHFILTER	IQUANT	3	Ach Filter
IERANGELOWERLIMIT	IQUANT	1	I/E Range Lower Limit
IERANGEMODE	TOGGLE	F	I/E AutoRange
IERANGE	IQUANT	8	I/E Range
POSFEEDENABLE	TOGGLE	F	Positive Feedback IR Comp
POSFEEDRESISTANCE	QUANT	0	Positive Feedback Resistance (ohm)
ACHSELECT	IQUANT	0	Ach Select
CABLEID	IQUANT	14	Cable ID
DCCALDATE	LABEL	6/26/2020	DC Calibration Date
ACCALDATE	LABEL	6/26/2020	AC Calibration Date
THERMOSELECT	IQUANT	1	Thermo Select
FRAMEWORKVERSION	QUANT	6.33	Framework Version
INSTRUMENTVERSION	LABEL	3.50	Instrument Version
ZCURVE	TABLE
	Pt	Time	Freq	Zreal	Zimag	Zsig	Zmod	Zphz	Idc	Vdc	IERange
	#	s	Hz	ohm	ohm	V	ohm	°	A	V	#
	0	1	1000078	1474.297	-1923.598	1	2423.589	-52.53247	6.906943E-008	0.210686	8
	1	1	794390.6	1716.485	-2129.807	1	2735.397	-51.13345	-2.359308E-008	0.2104281	8
	2	1	630984.4	1958.238	-2364.029	1	3069.744	-50.36343	3.972399E-009	0.2103055	8
	3	2	501234.4	2208.396	-2630.114	1	3434.313	-49.98124	2.163729E-008	0.2102291	8
	4	2	398109.4	2458.945	-2936.735	1	3830.251	-50.06038	-7.679908E-010	0.210198	8
	5	2	316265.6	2715.106	-3340.259	1	4304.548	-50.89431	1.308037E-008	0.2101568	8
	6	3	251203.1	2993.51	-3829.558	1	4860.722	-51.98577	1.417937E-008	0.2101552	8
	7	3	199546.9	3303.315	-4437.418	1	5531.959	-53.33516	1.199339E-010	0.21016	8
	8	3	158578.1	3668.037	-5153.752	1	6325.793	-54.55972	5.135524E-008	0.2101663	8
	9	4	125953.1	4179.703	-6022.329	1	7330.645	-55.23803	-2.905235E-009	0.2101976	7
	10	4	100078.1	4669.377	-7124.557	1	8518.356	-56.75949	-4.954459E-009	0.2101587	7
	11	4	79453.13	5262.247	-8447.202	1	9952.21	-58.07885	-8.494797E-009	0.2101622	7
	12	5	63140.62	5990.151	-10027.94	1	11680.81	-59.14817	-5.319515E-009	0.2101486	7
	13	5	50203.12	6907.492	-11925.6	1	13781.63	-59.91992	-1.417103E-008	0.2101468	7
	14	5	39890.62	8088.568	-14158.88	1	16306.4	-60.26189	1.357165E-008	0.2101243	7
	15	6	31640.63	9660.13	-16815.85	1	19393.06	-60.12412	1.015166E-008	0.2101309	7
	16	6	25171.88	11672.77	-19856.85	1	23033.63	-59.55103	1.408016E-008	0.2101232	7
	17	6	20015.62	14364.11	-23299.66	1	27371.55	-58.3464	-1.334546E-008	0.2101439	7
	18	6	15890.62	17831.76	-27021.32	1	32374.73	-56.5786	1.199347E-008	0.2101206	7
	19	7	12609.37	22816.53	-30681.85	1	38235.71	-53.3637	1.935934E-009	0.2101242	6
	20	7	10078.13	28056.72	-34251.45	1	44275.74	-50.67773	-4.439046E-010	0.2101436	6
	21	7	8015.625	34381.89	-37458.82	1	50845.63	-47.45248	2.358791E-009	0.2101147	6
	22	8	6328.125	41746.64	-39910.01	1	57754.57	-43.71151	3.115596E-009	0.2100962	6
	23	8	5015.625	49510.68	-41635.9	1	64690.46	-40.06208	-1.135628E-010	0.2101137	6
	24	8	3984.375	57282.96	-42000.66	1	71030.94	-36.24939	2.969585E-009	0.2100923	6
	25	9	3170.956	64904.75	-41821.55	1	77211.84	-32.79581	-1.513967E-009	0.2101427	6
	26	9	2527.573	71934.13	-40771.34	1	82685.08	-29.54401	-1.373685E-009	0.210137	6
	27	9	1976.103	79096.09	-39314.42	1	88327.89	-26.4295	3.303144E-010	0.2101408	6
	28	10	1577.524	84740.81	-37389.86	1	92622.93	-23.80832	2.876891E-009	0.2100906	6
	29	10	1265.625	91247.13	-33966.56	1	97364.1	-20.41768	2.000049E-010	0.210131	5
	30	10	998.264	96065.7	-32595.32	1	101444.9	-18.74219	3.460556E-010	0.2101282	5
	31	11	796.875	100244.2	-31441.76	1	105059.4	-17.41412	6.12333E-010	0.2100745	5
	32	11	627.7902	104683.1	-30545.69	1	109048.6	-16.26682	7.094026E-010	0.2100844	5
	33	11	505.5147	107901.3	-29672.5	1	111906.9	-15.37608	6.380211E-010	0.2100693	5
	34	12	397.9953	111151.1	-29083.6	1	114893.1	-14.66317	5.730338E-010	0.2101229	5
	35	12	315.5048	114804.4	-29089.81	1	118432.6	-14.21868	6.153027E-010	0.2101191	5
	36	12	252.4038	117495.8	-29277.93	1	121088.7	-13.99216	4.117551E-010	0.2101143	5
	37	13	198.6229	120603.3	-30173.02	1	124320.5	-14.04616	3.382748E-010	0.2101187	5
	38	13	158.3615	123057.2	-31564.97	1	127041	-14.38656	3.969726E-010	0.210117	5
	39	13	125.558	126603.8	-34018.96	1	131094.7	-15.04035	6.380352E-010	0.2101143	5
	40	14	100.4464	129567.4	-37228.26	1	134809.7	-16.0308	3.259423E-010	0.2101109	5
	41	14	79.00281	132772.9	-41812.97	1	139201.2	-17.4803	2.190519E-010	0.2101133	5
	42	14	63.3446	136236.4	-47211.55	1	144184.9	-19.11332	5.528129E-011	0.2101047	5
	43	15	49.86702	140225.4	-54644.43	1	150496.4	-21.29037	-4.498145E-011	0.2101046	5
	44	15	39.72458	145680	-63151.29	1	158778.9	-23.43641	2.702259E-010	0.2101105	5
	45	15	31.6723	151778.3	-73181.63	1	168499.9	-25.74156	4.820865E-010	0.2101088	5
	46	16	24.93351	160522.2	-85455.17	1	181851.5	-28.02894	-6.251208E-010	0.2101077	5
	47	16	19.86229	169877.6	-98434.2	1	196335.6	-30.0898	-1.186391E-009	0.2101081	5
	48	16	15.83615	182536.4	-112883.9	1	214621.3	-31.73341	2.200662E-010	0.2101083	5
	49	16	12.40079	197199.2	-128985.4	1	235636.9	-33.18818	-1.342024E-009	0.2101105	5
	50	17	9.93114	211967.6	-145394.1	1	257040.3	-34.44724	-7.798172E-010	0.2101058	5
	51	17	7.944915	228750.8	-162017	1	280314.9	-35.30875	1.363668E-009	0.2101082	5
	52	18	6.317385	248816	-181795.1	1	308153.9	-36.15338	-5.638942E-010	0.2101293	5
	53	18	5.008013	270314.2	-204322.6	1	338847.3	-37.08456	-6.592754E-010	0.2101079	5
	54	19	3.945707	292619.3	-229162.6	1	371674	-38.06601	2.135479E-011	0.210112	5
	55	20	3.158693	315867.9	-257823.2	1	407731.9	-39.22261	-3.783742E-010	0.2101047	5
	56	21	2.504006	341279.2	-291974	1	449132.8	-40.54792	-5.99871E-011	0.2101001	5
	57	22	1.998082	368707.3	-331918.4	1	496099.7	-41.99424	1.737766E-010	0.2101345	5
	58	24	1.584686	397772.4	-380390.8	1	550381.8	-43.72041	1.137015E-011	0.2100967	5
	59	26	1.266892	430937.2	-436636.8	1	613480.7	-45.37641	-6.296891E-011	0.2100591	5
	60	28	0.999041	469587.6	-510263.7	1	693456.2	-47.37712	-1.0072E-010	0.2100527	5
