EXPLAIN
TAG	EISPOT
TITLE	LABEL	Potentiostatic EIS	Test &Identifier
DATE	LABEL	6/19/2020	Date
TIME	LABEL	16:34:58	Time
NOTES	NOTES	1	&Notes...
	
PSTAT	PSTAT	REF600-10037	Potentiostat
VDC	POTEN	0.00000E+000	T	DC &Voltage (V)
FREQINIT	QUANT	1.00000E+006	Initial Fre&q. (Hz)
FREQFINAL	QUANT	1.00000E+000	Final Fre&q. (Hz)
PTSPERDEC	QUANT	1.00000E+001	Points/&decade
VAC	QUANT	1.00000E+002	AC &Voltage (mV rms)
AREA	QUANT	2.50000E-001	&Area (cm^2)
CONDIT	TWOPARAM	F	5.00000E+000	0.00000E+000	Conditionin&g	Time(s)	E(V)
DELAY	TWOPARAM	F	5.00000E+000	0.00000E+000	Init. De&lay	Time(s)	Stab.(mV/s)
SPEED	SELECTOR	0	&Optimize for:
ZGUESS	QUANT	1.00000E+003	E&stimated Z (ohms)
OCVCURVE	TABLE	39
	Pt	T	Vf	Vm	Ach	Over
	#	s	V vs. Ref.	V	V	bits
	0	0.258333	8.12797E-002	8.12797E-002	5.24954E-004	...........
	1	0.516667	8.12800E-002	8.12945E-002	5.23921E-004	...........
	2	0.775	8.12819E-002	8.13215E-002	5.26187E-004	...........
	3	1.03333	8.12882E-002	8.13360E-002	5.26587E-004	...........
	4	1.29167	8.12999E-002	8.13477E-002	5.21287E-004	...........
	5	1.55	8.13153E-002	8.13621E-002	5.24854E-004	...........
	6	1.80833	8.13314E-002	8.13738E-002	5.20154E-004	...........
	7	2.06667	8.13466E-002	8.13934E-002	5.21254E-004	...........
	8	2.325	8.13611E-002	8.14135E-002	5.21921E-004	...........
	9	2.58333	8.13762E-002	8.14219E-002	5.24054E-004	...........
	10	2.84167	8.13920E-002	8.14343E-002	5.24154E-004	...........
	11	3.1	8.14072E-002	8.14468E-002	5.24587E-004	...........
	12	3.35833	8.14211E-002	8.14663E-002	5.24454E-004	...........
	13	3.61667	8.14348E-002	8.14878E-002	5.19554E-004	...........
	14	3.875	8.14495E-002	8.14998E-002	5.23454E-004	...........
	15	4.13333	8.14657E-002	8.15104E-002	5.27254E-004	...........
	16	4.39167	8.14819E-002	8.15221E-002	5.21321E-004	...........
	17	4.65	8.14965E-002	8.15325E-002	5.11788E-004	...........
	18	4.90833	8.15094E-002	8.15437E-002	5.19121E-004	...........
	19	5.16667	8.15210E-002	8.15568E-002	5.17621E-004	...........
	20	5.425	8.15324E-002	8.15720E-002	5.17188E-004	...........
	21	5.68333	8.15441E-002	8.15808E-002	5.20021E-004	...........
	22	5.94167	8.15564E-002	8.15958E-002	5.20454E-004	...........
	23	6.2	8.15688E-002	8.16002E-002	5.19088E-004	...........
	24	6.45833	8.15806E-002	8.16139E-002	5.23121E-004	...........
	25	6.71667	8.15918E-002	8.16332E-002	5.23188E-004	...........
	26	6.975	8.16034E-002	8.16512E-002	5.14754E-004	...........
	27	7.23333	8.16165E-002	8.16581E-002	5.15954E-004	...........
	28	7.49167	8.16309E-002	8.16668E-002	5.18854E-004	...........
	29	7.75	8.16446E-002	8.16788E-002	5.19821E-004	...........
	30	8.00833	8.16566E-002	8.16854E-002	5.22721E-004	...........
	31	8.26667	8.16672E-002	8.17001E-002	5.22454E-004	...........
	32	8.525	8.16773E-002	8.17154E-002	5.20454E-004	...........
	33	8.78333	8.16881E-002	8.17288E-002	5.26221E-004	...........
	34	9.04167	8.17002E-002	8.17385E-002	5.22387E-004	...........
	35	9.3	8.17131E-002	8.17492E-002	5.17721E-004	...........
	36	9.5583	8.17256E-002	8.17564E-002	5.16254E-004	...........
	37	9.8167	8.17370E-002	8.17665E-002	5.16254E-004	...........
	38	10.075	8.17472E-002	8.17788E-002	5.20454E-004	...........
EOC	QUANT	0.0817472	Open Circuit (V)
PSTATMODEL	IQUANT	4	Pstat Model
PSTATSECTION	LABEL	REF600-10037	Pstat Section
PSTATSERIALNO	LABEL	10037	Pstat Serial Number
CTRLMODE	IQUANT	1	Control Mode
IESTAB	IQUANT	0	I/E Stability
CASPEED	IQUANT	1	Control Amp Speed
CONVENTION	IQUANT	1	Current Convention
ICHRANGE	IQUANT	2	Ich Range
ICHRANGEMODE	TOGGLE	F	Ich Auto Range
ICHOFFSETENABLE	TOGGLE	T	Ich Offset Enable
ICHOFFSET	QUANT	0	Ich Offset (V)
ICHFILTER	IQUANT	3	Ich Filter
VCHRANGE	IQUANT	2	Vch Range
VCHRANGEMODE	TOGGLE	F	Vch Auto Range
VCHOFFSETENABLE	TOGGLE	T	Vch Offset Enable
VCHOFFSET	QUANT	0	Vch Offset (V)
VCHFILTER	IQUANT	3	Vch Filter
ACHRANGE	IQUANT	2	Ach Range
ACHOFFSETENABLE	TOGGLE	F	Ach Offset Enable
ACHOFFSET	QUANT	0	Ach Offset (V)
ACHFILTER	IQUANT	3	Ach Filter
IERANGELOWERLIMIT	IQUANT	1	I/E Range Lower Limit
IERANGEMODE	TOGGLE	F	I/E AutoRange
IERANGE	IQUANT	8	I/E Range
POSFEEDENABLE	TOGGLE	F	Positive Feedback IR Comp
POSFEEDRESISTANCE	QUANT	0	Positive Feedback Resistance (ohm)
ACHSELECT	IQUANT	0	Ach Select
CABLEID	IQUANT	14	Cable ID
DCCALDATE	LABEL	6/8/2020	DC Calibration Date
ACCALDATE	LABEL	6/8/2020	AC Calibration Date
THERMOSELECT	IQUANT	1	Thermo Select
FRAMEWORKVERSION	QUANT	6.33	Framework Version
INSTRUMENTVERSION	LABEL	3.50	Instrument Version
ZCURVE	TABLE
	Pt	Time	Freq	Zreal	Zimag	Zsig	Zmod	Zphz	Idc	Vdc	IERange
	#	s	Hz	ohm	ohm	V	ohm	°	A	V	#
	0	2	1000078	1858.515	-1987.684	1	2721.207	-46.92348	5.71827E-008	0.0906709	8
	1	3	794390.6	2236.772	-2142.646	1	3097.431	-43.76874	2.367416E-008	0.0903904	8
	2	3	630984.4	2658.411	-2251.291	1	3483.599	-40.25978	3.317205E-008	0.090226	8
	3	3	501234.4	3110.144	-2297.031	1	3866.438	-36.44813	1.112346E-008	0.0901618	8
	4	4	398109.4	3561.974	-2277.614	1	4227.905	-32.59585	1.357061E-008	0.0901083	8
	5	4	316265.6	3994.702	-2188.831	1	4555.065	-28.71981	5.840158E-008	0.0900833	8
	6	4	251203.1	4388.261	-2053.337	1	4844.897	-25.07564	6.499504E-008	0.0901128	8
	7	5	199546.9	4723.197	-1881.8	1	5084.266	-21.72315	1.301862E-007	0.0902074	8
	8	5	158578.1	5003.648	-1692.822	1	5282.248	-18.69158	3.946429E-008	0.0901762	8
	9	5	125953.1	5309.205	-1424.612	1	5497.015	-15.02028	-2.419618E-008	0.0902004	7
	10	5	100078.1	5481.302	-1240.076	1	5619.828	-12.74785	9.838784E-009	0.0901686	7
	11	6	79453.13	5633.503	-1122.642	1	5744.274	-11.27024	6.602393E-009	0.0901392	7
	12	6	63140.62	5724.977	-1003.97	1	5812.342	-9.94662	-4.803813E-009	0.0901189	7
	13	6	50203.12	5817.393	-919.9302	1	5889.68	-8.986027	1.694127E-008	0.0901135	7
	14	7	39890.62	5923.608	-865.425	1	5986.493	-8.311971	1.897129E-008	0.0900957	7
	15	7	31640.63	5974.268	-814.7352	1	6029.566	-7.765753	1.602086E-008	0.0901023	7
	16	7	25171.88	6042.965	-792.3588	1	6094.691	-7.470056	-7.608909E-009	0.0900942	7
	17	8	20015.62	6107.545	-789.2453	1	6158.329	-7.363221	1.53958E-008	0.0901012	7
	18	8	15890.62	6173.662	-807.7164	1	6226.275	-7.453821	1.388472E-008	0.0900988	7
	19	8	12609.37	6239.998	-846.6439	1	6297.172	-7.726717	-7.544807E-009	0.0900886	7
	20	9	10078.13	6304.682	-904.4379	1	6369.224	-8.163668	3.286239E-009	0.0900925	7
	21	9	8015.625	6375.672	-988.792	1	6451.892	-8.815669	1.860878E-008	0.0901017	7
	22	9	6328.125	6479.635	-1105.087	1	6573.194	-9.67854	1.811961E-008	0.0900816	7
	23	10	5015.625	6532.25	-1247.169	1	6650.243	-10.8091	1.754608E-008	0.0900942	7
	24	10	3984.375	6621.006	-1427.142	1	6773.069	-12.16387	-6.749375E-009	0.0900913	7
	25	10	3170.956	6715.798	-1647.069	1	6914.823	-13.77997	1.034982E-008	0.0900949	7
	26	11	2527.573	6823.918	-1920.767	1	7089.09	-15.72062	-4.950772E-009	0.0900873	7
	27	11	1976.103	6950.416	-2281.124	1	7315.177	-18.16982	9.885714E-009	0.0900913	7
	28	11	1577.524	7085.434	-2694.719	1	7580.559	-20.82272	1.802898E-008	0.0900921	7
	29	11	1265.625	7238.183	-3185.498	1	7908.141	-23.75412	1.442216E-008	0.0900896	7
	30	12	998.264	7426.343	-3829.501	1	8355.576	-27.27855	1.700573E-008	0.0900931	7
	31	12	796.875	7663.468	-4563.312	1	8919.224	-30.77223	-2.380057E-009	0.0900767	7
	32	12	627.7902	7910.426	-5546.555	1	9661.22	-35.03699	-8.634959E-009	0.0900903	7
	33	13	505.5147	8210.402	-6623.487	1	10548.99	-38.89378	-2.603579E-009	0.0900768	7
	34	13	397.9953	8622.002	-8047.405	1	11794.05	-43.02579	5.839258E-009	0.0901139	7
	35	13	315.5048	9127.264	-9744.69	1	13351.62	-46.87384	5.948527E-009	0.090115	7
	36	14	252.4038	9742.02	-11711.64	1	15233.83	-50.2455	6.724397E-009	0.0901098	7
	37	14	198.6229	10585.39	-14260.82	1	17760.11	-53.41457	6.820116E-009	0.0901134	7
	38	14	158.3615	11608.26	-17157.36	1	20715.37	-55.91867	6.73277E-009	0.0901127	7
	39	15	125.558	12950.57	-20699.59	1	24417.01	-57.9681	6.377594E-009	0.0901174	7
	40	15	100.4464	14573.22	-24605.36	1	28597.25	-59.36266	9.123847E-009	0.0900971	7
	41	15	79.00281	16853.94	-29907.88	1	34329.82	-60.5975	7.163914E-009	0.0901101	7
	42	16	63.3446	19505.24	-35470.55	1	40479.8	-61.19363	7.951124E-009	0.090115	7
	43	16	49.86702	23159.84	-42481.99	1	48384.89	-61.40217	1.873141E-011	0.0901102	6
	44	16	39.72458	27561.52	-50184.02	1	57254.46	-61.22401	7.295241E-010	0.0901191	6
	45	17	31.6723	33049.37	-58897.21	1	67536.23	-60.70163	1.611373E-009	0.0901181	6
	46	17	24.93351	40244.66	-69207.23	1	80057.93	-59.82159	-2.472937E-009	0.0901132	6
	47	17	19.86229	48712.27	-80380.34	1	93988.75	-58.78321	-1.300911E-008	0.0815444	6
	48	18	15.83615	58598.17	-92170.5	1	109220.6	-57.5535	-9.413318E-009	0.081537	6
	49	18	12.40079	70703.7	-105880	1	127316.9	-56.26611	-7.899327E-009	0.0815362	6
	50	18	9.93114	83146.29	-119391.9	1	145491.4	-55.14608	-6.169547E-009	0.0815392	6
	51	19	7.944915	96871.5	-134231.5	1	165536.1	-54.18296	-5.159813E-009	0.0815386	6
	52	19	6.317385	112098.3	-150911.8	1	187990.4	-53.3948	-2.500174E-009	0.0815451	6
	53	20	5.008013	128685.8	-170183.5	1	213359.9	-52.90492	-1.672337E-009	0.0815492	6
	54	21	3.945707	146774.9	-192952.9	1	242432.9	-52.74057	-1.038199E-009	0.0815426	6
	55	22	3.158693	164625.9	-217926.6	1	273118.4	-52.9319	-7.310906E-010	0.0815393	6
	56	24	2.504006	184628.6	-248916.5	1	309914.7	-53.4346	-2.554702E-010	0.0815384	6
	57	25	1.998082	204621.1	-285017.2	1	350862.7	-54.32448	-8.787171E-011	0.0815325	6
	58	27	1.584686	227035.8	-330395.1	1	400881.8	-55.50453	-4.371771E-010	0.081539	5
	59	30	1.266892	251102.8	-384247.9	1	459019.7	-56.83572	-3.334416E-010	0.0815375	5
	60	33	0.999041	280319.5	-454340	1	533857.6	-58.32618	-3.951252E-010	0.081542	5
