EXPLAIN
TAG	EISPOT
TITLE	LABEL	Potentiostatic EIS	Test &Identifier
DATE	LABEL	5/26/2020	Date
TIME	LABEL	18:33:57	Time
NOTES	NOTES	1	&Notes...
	
PSTAT	PSTAT	REF600-11020	Potentiostat
VDC	POTEN	0.00000E+000	T	DC &Voltage (V)
FREQINIT	QUANT	1.00000E+006	Initial Fre&q. (Hz)
FREQFINAL	QUANT	1.00000E+000	Final Fre&q. (Hz)
PTSPERDEC	QUANT	1.00000E+001	Points/&decade
VAC	QUANT	2.50000E+001	AC &Voltage (mV rms)
AREA	QUANT	5.00000E-004	&Area (cm^2)
CONDIT	TWOPARAM	F	5.00000E+000	0.00000E+000	Conditionin&g	Time(s)	E(V)
DELAY	TWOPARAM	T	3.00000E+000	0.00000E+000	Init. De&lay	Time(s)	Stab.(mV/s)
SPEED	SELECTOR	0	&Optimize for:
ZGUESS	QUANT	1.00000E+003	E&stimated Z (ohms)
OCVCURVE	TABLE	12
	Pt	T	Vf	Vm	Ach	Over
	#	s	V vs. Ref.	V	V	bits
	0	0.258333	-5.85353E-002	-5.85353E-002	5.89396E-004	...........
	1	0.516667	-5.85380E-002	-5.86771E-002	5.86863E-004	...........
	2	0.775	-5.85541E-002	-5.87805E-002	5.89563E-004	...........
	3	1.03333	-5.85973E-002	-5.88694E-002	5.89196E-004	...........
	4	1.29167	-5.86701E-002	-5.89606E-002	5.89130E-004	...........
	5	1.55	-5.87608E-002	-5.90478E-002	5.92030E-004	...........
	6	1.80833	-5.88564E-002	-5.91376E-002	5.86330E-004	...........
	7	2.06667	-5.89501E-002	-5.92199E-002	5.89896E-004	...........
	8	2.325	-5.90403E-002	-5.92927E-002	5.82697E-004	...........
	9	2.58333	-5.91265E-002	-5.93700E-002	5.84230E-004	...........
	10	2.84167	-5.92086E-002	-5.94413E-002	5.82563E-004	...........
	11	3.1	-5.92868E-002	-5.95117E-002	5.88463E-004	...........
EOC	QUANT	-0.0592868	Open Circuit (V)
PSTATMODEL	IQUANT	4	Pstat Model
PSTATSECTION	LABEL	REF600-11020	Pstat Section
PSTATSERIALNO	LABEL	11020	Pstat Serial Number
CTRLMODE	IQUANT	1	Control Mode
IESTAB	IQUANT	0	I/E Stability
CASPEED	IQUANT	1	Control Amp Speed
CONVENTION	IQUANT	1	Current Convention
ICHRANGE	IQUANT	2	Ich Range
ICHRANGEMODE	TOGGLE	F	Ich Auto Range
ICHOFFSETENABLE	TOGGLE	T	Ich Offset Enable
ICHOFFSET	QUANT	0	Ich Offset (V)
ICHFILTER	IQUANT	3	Ich Filter
VCHRANGE	IQUANT	2	Vch Range
VCHRANGEMODE	TOGGLE	F	Vch Auto Range
VCHOFFSETENABLE	TOGGLE	T	Vch Offset Enable
VCHOFFSET	QUANT	0	Vch Offset (V)
VCHFILTER	IQUANT	3	Vch Filter
ACHRANGE	IQUANT	2	Ach Range
ACHOFFSETENABLE	TOGGLE	F	Ach Offset Enable
ACHOFFSET	QUANT	0	Ach Offset (V)
ACHFILTER	IQUANT	3	Ach Filter
IERANGELOWERLIMIT	IQUANT	1	I/E Range Lower Limit
IERANGEMODE	TOGGLE	F	I/E AutoRange
IERANGE	IQUANT	8	I/E Range
POSFEEDENABLE	TOGGLE	F	Positive Feedback IR Comp
POSFEEDRESISTANCE	QUANT	0	Positive Feedback Resistance (ohm)
ACHSELECT	IQUANT	0	Ach Select
CABLEID	IQUANT	14	Cable ID
DCCALDATE	LABEL	2/27/2020	DC Calibration Date
ACCALDATE	LABEL	2/27/2020	AC Calibration Date
THERMOSELECT	IQUANT	1	Thermo Select
FRAMEWORKVERSION	QUANT	6.33	Framework Version
INSTRUMENTVERSION	LABEL	3.50	Instrument Version
ZCURVE	TABLE
	Pt	Time	Freq	Zreal	Zimag	Zsig	Zmod	Zphz	Idc	Vdc	IERange
	#	s	Hz	ohm	ohm	V	ohm	°	A	V	#
	0	1	1000078	1908.075	-1395.383	1	2363.862	-36.17815	8.258566E-008	-0.056874	8
	1	1	794390.6	2131.724	-1429.471	1	2566.638	-33.84464	2.415528E-008	-0.0572219	8
	2	1	630984.4	2349	-1455.259	1	2763.255	-31.77915	7.467927E-008	-0.0573659	8
	3	2	501234.4	2555.785	-1482.734	1	2954.748	-30.12009	5.740275E-008	-0.0574646	8
	4	2	398109.4	2758.175	-1516.284	1	3147.482	-28.79943	7.510414E-008	-0.0575238	8
	5	2	316265.6	2952.687	-1564.923	1	3341.758	-27.92357	6.746254E-008	-0.0575541	8
	6	3	251203.1	3149.591	-1626.623	1	3544.831	-27.31432	7.554038E-008	-0.0575446	8
	7	3	199546.9	3352.694	-1710.609	1	3763.873	-27.03155	6.007973E-008	-0.0575569	8
	8	3	158578.1	3571.768	-1822.361	1	4009.804	-27.03125	6.743322E-008	-0.0575602	8
	9	3	125953.1	3851.209	-1893.748	1	4291.631	-26.18464	3.002774E-009	-0.0576163	7
	10	4	100078.1	4093.165	-2047.884	1	4576.879	-26.57962	4.88916E-009	-0.0576341	7
	11	4	79453.13	4377.487	-2227.454	1	4911.614	-26.96895	4.248423E-009	-0.0576433	7
	12	4	63140.62	4690.208	-2417.223	1	5276.459	-27.26551	4.990782E-009	-0.0576442	7
	13	5	50203.12	5036.354	-2611.291	1	5673.068	-27.40621	3.370328E-009	-0.057644	7
	14	5	39890.62	5418.072	-2814.189	1	6105.339	-27.44772	3.303112E-009	-0.0576441	7
	15	5	31640.63	5832.527	-3020.243	1	6568.123	-27.37637	4.457149E-009	-0.0576461	7
	16	6	25171.88	6269.921	-3221.595	1	7049.155	-27.19489	4.096311E-009	-0.0576528	7
	17	6	20015.62	6730.958	-3429.972	1	7554.502	-27.00255	4.428842E-009	-0.0576517	7
	18	6	15890.62	7214.571	-3647.916	1	8084.388	-26.82261	3.711241E-009	-0.0576595	7
	19	7	12609.37	7715.593	-3885.047	1	8638.517	-26.72671	4.851403E-009	-0.0576545	7
	20	7	10078.13	8217.767	-4134.859	1	9199.389	-26.70975	4.380412E-009	-0.0576608	7
	21	7	8015.625	8814.695	-4357.07	1	9832.75	-26.30301	1.29624E-009	-0.0576063	6
	22	8	6328.125	9403.655	-4720.999	1	10522.19	-26.65842	1.259201E-009	-0.0576082	6
	23	8	5015.625	10032.58	-5123.422	1	11265.08	-27.05242	1.365778E-009	-0.0576105	6
	24	8	3984.375	10717.44	-5560.674	1	12074.13	-27.42226	1.367806E-009	-0.057602	6
	25	9	3170.956	11460.8	-6025.986	1	12948.46	-27.73499	1.074174E-009	-0.057602	6
	26	9	2527.573	12246.66	-6512.119	1	13870.42	-28.00165	8.893157E-010	-0.0576106	6
	27	9	1976.103	13146.55	-7082.551	1	14933	-28.31304	1.147777E-009	-0.0576042	6
	28	9	1577.524	13988.35	-7654.671	1	15945.78	-28.68825	8.617949E-010	-0.0576093	6
	29	10	1265.625	14816.79	-8298.825	1	16982.57	-29.25302	7.236486E-010	-0.057611	6
	30	10	998.264	15727.79	-9143.622	1	18192.56	-30.17232	7.338756E-010	-0.0576151	6
	31	10	796.875	16635.56	-10138.1	1	19481.35	-31.35912	9.374242E-010	-0.0576107	6
	32	11	627.7902	17691.04	-11430.96	1	21062.76	-32.86829	6.593883E-010	-0.0576147	6
	33	11	505.5147	18751.81	-12857.16	1	22736.25	-34.43644	8.167728E-010	-0.0576085	6
	34	11	397.9953	20116.61	-14702.49	1	24916.69	-36.16168	9.038991E-010	-0.0575953	6
	35	12	315.5048	21653.17	-16794.79	1	27403.01	-37.79814	8.126643E-010	-0.0575969	6
	36	12	252.4038	23324.38	-19089.15	1	30140.04	-39.29761	7.583621E-010	-0.0576005	6
	37	12	198.6229	25291.07	-21884.68	1	33445.14	-40.87005	7.568033E-010	-0.0576013	6
	38	13	158.3615	27292.65	-24954.58	1	36981.35	-42.43771	6.397597E-010	-0.0576017	6
	39	13	125.558	29461.83	-28670.6	1	41109.64	-44.2202	5.30074E-010	-0.0575938	6
	40	13	100.4464	31678.31	-32976.83	1	45727.31	-46.15056	4.638409E-010	-0.0575994	6
	41	14	79.00281	34248.49	-38660.43	1	51648.7	-48.46291	3.435807E-010	-0.0576041	6
	42	14	63.3446	36883.89	-45091.84	1	58255.43	-50.71778	2.917968E-010	-0.057605	6
	43	14	49.86702	40216.3	-53673.36	1	67068.48	-53.15657	2.961723E-010	-0.0576103	6
	44	15	39.72458	44045.94	-63680.65	1	77429.13	-55.32959	4.166158E-010	-0.0576045	6
	45	15	31.6723	48813.43	-75793.76	1	90152.34	-57.21726	3.438277E-010	-0.0576063	6
	46	15	24.93351	55188.95	-91152.05	1	106557.6	-58.80676	-1.238887E-010	-0.0576025	5
	47	16	19.86229	62883.87	-108682.1	1	125563.5	-59.94617	6.075745E-010	-0.0575961	5
	48	16	15.83615	72840.84	-129349.9	1	148449.3	-60.61482	-8.117026E-010	-0.0576077	5
	49	16	12.40079	86457.68	-155232.7	1	177685.5	-60.88415	-4.375734E-010	-0.0575985	5
	50	16	9.93114	102336.4	-182409.2	1	209155.1	-60.70642	-6.894317E-010	-0.0575987	5
	51	17	7.944915	121705	-213379.9	1	245648.3	-60.30095	-9.217527E-011	-0.057601	5
	52	17	6.317385	146434.3	-248990.9	1	288858.9	-59.53975	-1.407396E-010	-0.0575944	5
	53	18	5.008013	176901	-289444.8	1	339223.1	-58.56783	-2.878717E-010	-0.0576091	5
	54	19	3.945707	214988.8	-334748.8	1	397840.3	-57.28983	8.813252E-011	-0.0575992	5
	55	20	3.158693	256281.5	-381442.5	1	459541.7	-56.10385	-5.84427E-011	-0.0576116	5
	56	21	2.504006	306810	-433198.7	1	530842.3	-54.69223	2.924052E-010	-0.0576115	5
	57	22	1.998082	361930.3	-488119.6	1	607663	-53.44385	4.003052E-010	-0.0575959	5
	58	24	1.584686	427356	-546856.8	1	694035.7	-51.99319	2.693255E-010	-0.0576437	5
	59	26	1.266892	498904.1	-609752.8	1	787847.5	-50.70972	2.209107E-010	-0.0576553	5
	60	28	0.999041	581290.4	-681589.5	1	895802.9	-49.54095	1.821258E-010	-0.0576489	5
