EXPLAIN
TAG	EISPOT
TITLE	LABEL	Potentiostatic EIS	Test &Identifier
DATE	LABEL	6/1/2020	Date
TIME	LABEL	12:33:09	Time
NOTES	NOTES	1	&Notes...
	
PSTAT	PSTAT	REF600-11020	Potentiostat
VDC	POTEN	0.00000E+000	T	DC &Voltage (V)
FREQINIT	QUANT	1.00000E+006	Initial Fre&q. (Hz)
FREQFINAL	QUANT	1.00000E+000	Final Fre&q. (Hz)
PTSPERDEC	QUANT	1.00000E+001	Points/&decade
VAC	QUANT	2.50000E+001	AC &Voltage (mV rms)
AREA	QUANT	4.00000E-004	&Area (cm^2)
CONDIT	TWOPARAM	F	5.00000E+000	0.00000E+000	Conditionin&g	Time(s)	E(V)
DELAY	TWOPARAM	T	3.00000E+000	0.00000E+000	Init. De&lay	Time(s)	Stab.(mV/s)
SPEED	SELECTOR	0	&Optimize for:
ZGUESS	QUANT	1.00000E+003	E&stimated Z (ohms)
OCVCURVE	TABLE	12
	Pt	T	Vf	Vm	Ach	Over
	#	s	V vs. Ref.	V	V	bits
	0	0.258333	8.45640E-003	8.45640E-003	5.84397E-004	...........
	1	0.516667	8.45673E-003	8.47345E-003	5.85463E-004	...........
	2	0.775	8.45867E-003	8.48688E-003	5.84863E-004	...........
	3	1.03333	8.46402E-003	8.50044E-003	5.86496E-004	...........
	4	1.29167	8.47337E-003	8.51662E-003	5.84597E-004	...........
	5	1.55	8.48570E-003	8.52647E-003	5.83330E-004	...........
	6	1.80833	8.49930E-003	8.53707E-003	5.82597E-004	...........
	7	2.06667	8.51260E-003	8.54581E-003	5.84997E-004	...........
	8	2.325	8.52474E-003	8.55842E-003	5.84730E-004	...........
	9	2.58333	8.53580E-003	8.56723E-003	5.87596E-004	...........
	10	2.84167	8.54634E-003	8.57964E-003	5.80230E-004	...........
	11	3.1	8.55685E-003	8.59154E-003	5.86030E-004	...........
EOC	QUANT	0.0085569	Open Circuit (V)
PSTATMODEL	IQUANT	4	Pstat Model
PSTATSECTION	LABEL	REF600-11020	Pstat Section
PSTATSERIALNO	LABEL	11020	Pstat Serial Number
CTRLMODE	IQUANT	1	Control Mode
IESTAB	IQUANT	0	I/E Stability
CASPEED	IQUANT	1	Control Amp Speed
CONVENTION	IQUANT	1	Current Convention
ICHRANGE	IQUANT	2	Ich Range
ICHRANGEMODE	TOGGLE	F	Ich Auto Range
ICHOFFSETENABLE	TOGGLE	T	Ich Offset Enable
ICHOFFSET	QUANT	0	Ich Offset (V)
ICHFILTER	IQUANT	3	Ich Filter
VCHRANGE	IQUANT	2	Vch Range
VCHRANGEMODE	TOGGLE	F	Vch Auto Range
VCHOFFSETENABLE	TOGGLE	T	Vch Offset Enable
VCHOFFSET	QUANT	0	Vch Offset (V)
VCHFILTER	IQUANT	3	Vch Filter
ACHRANGE	IQUANT	2	Ach Range
ACHOFFSETENABLE	TOGGLE	F	Ach Offset Enable
ACHOFFSET	QUANT	0	Ach Offset (V)
ACHFILTER	IQUANT	3	Ach Filter
IERANGELOWERLIMIT	IQUANT	1	I/E Range Lower Limit
IERANGEMODE	TOGGLE	F	I/E AutoRange
IERANGE	IQUANT	7	I/E Range
POSFEEDENABLE	TOGGLE	F	Positive Feedback IR Comp
POSFEEDRESISTANCE	QUANT	0	Positive Feedback Resistance (ohm)
ACHSELECT	IQUANT	0	Ach Select
CABLEID	IQUANT	14	Cable ID
DCCALDATE	LABEL	2/27/2020	DC Calibration Date
ACCALDATE	LABEL	2/27/2020	AC Calibration Date
THERMOSELECT	IQUANT	1	Thermo Select
FRAMEWORKVERSION	QUANT	6.33	Framework Version
INSTRUMENTVERSION	LABEL	3.50	Instrument Version
ZCURVE	TABLE
	Pt	Time	Freq	Zreal	Zimag	Zsig	Zmod	Zphz	Idc	Vdc	IERange
	#	s	Hz	ohm	ohm	V	ohm	°	A	V	#
	0	1	1000078	2213.222	-2416.666	1	3276.984	-47.51604	5.319482E-008	0.0110428	8
	1	1	794390.6	2655.63	-2595.814	1	3713.573	-44.34741	3.269383E-008	0.0106356	8
	2	1	630984.4	3138.589	-2729.027	1	4159.126	-41.00721	4.068826E-008	0.0104735	8
	3	2	501234.4	3647.776	-2811.159	1	4605.311	-37.61965	2.655036E-009	0.0103718	8
	4	2	398109.4	4169.511	-2839.506	1	5044.563	-34.25552	5.106051E-008	0.0102841	8
	5	2	316265.6	4689.639	-2813.875	1	5469.059	-30.96458	3.823053E-008	0.0102481	8
	6	3	251203.1	5190.901	-2734.139	1	5866.939	-27.77656	3.25841E-008	0.0102175	8
	7	3	199546.9	5659.728	-2611.437	1	6233.147	-24.76892	4.422256E-008	0.0102239	8
	8	3	158578.1	6083.375	-2455.793	1	6560.363	-21.9834	3.826297E-008	0.0102151	8
	9	4	125953.1	6497.044	-2212.096	1	6863.305	-18.80254	2.202206E-009	0.0101663	7
	10	4	100078.1	6786.589	-2037.604	1	7085.875	-16.71185	1.513583E-009	0.0101459	7
	11	4	79453.13	7053.86	-1885.434	1	7301.494	-14.96482	2.292144E-009	0.0101471	7
	12	4	63140.62	7275.228	-1748.503	1	7482.393	-13.51396	2.073679E-009	0.0101486	7
	13	5	50203.12	7464.65	-1638.92	1	7642.452	-12.38324	2.500929E-009	0.0101459	7
	14	5	39890.62	7627.87	-1561.707	1	7786.098	-11.57066	2.129132E-009	0.010139	7
	15	5	31640.63	7776.59	-1518.201	1	7923.401	-11.04674	2.187465E-009	0.0101378	7
	16	6	25171.88	7914.089	-1513.762	1	8057.561	-10.82842	2.896775E-009	0.0101349	7
	17	6	20015.62	8049.33	-1547.733	1	8196.779	-10.88405	3.370265E-009	0.0101375	7
	18	6	15890.62	8187.137	-1619.297	1	8345.737	-11.18788	3.63686E-009	0.0101411	7
	19	7	12609.37	8331.762	-1733.155	1	8510.116	-11.75096	2.752525E-009	0.0101332	7
	20	7	10078.13	8483.817	-1885.045	1	8690.717	-12.52721	2.910833E-009	0.0101345	7
	21	7	8015.625	8655.63	-2084.263	1	8903.038	-13.53899	3.754383E-009	0.0101304	7
	22	8	6328.125	8869.725	-2300.113	1	9163.107	-14.53781	1.732837E-010	0.0101818	6
	23	8	5015.625	9090.882	-2619.675	1	9460.805	-16.07513	1.057777E-010	0.0101846	6
	24	8	3984.375	9333.053	-2995.945	1	9802.12	-17.79683	1.521842E-010	0.0101848	6
	25	9	3170.956	9613.36	-3440.615	1	10210.51	-19.69225	7.593418E-011	0.0101833	6
	26	9	2527.573	9932.18	-3959.36	1	10692.27	-21.73418	-4.439837E-011	0.010178	6
	27	9	1976.103	10331.8	-4624.386	1	11319.5	-24.11271	-1.337777E-010	0.010174	6
	28	10	1577.524	10744.33	-5338.246	1	11997.4	-26.42016	2.435847E-011	0.0101807	6
	29	10	1265.625	11207.42	-6151.526	1	12784.66	-28.76148	-8.143954E-012	0.0101788	6
	30	10	998.264	11767.76	-7181.436	1	13785.98	-31.39419	2.503214E-010	0.0101826	6
	31	11	796.875	12372.06	-8333.241	1	14916.8	-33.96236	-4.221858E-011	0.0101731	6
	32	11	627.7902	13076.32	-9779.96	1	16329.05	-36.79333	1.378005E-010	0.0101742	6
	33	11	505.5147	13794.91	-11341.08	1	17858.32	-39.42432	-2.503941E-011	0.0101714	6
	34	11	397.9953	14668	-13412.75	1	19875.91	-42.44049	4.149284E-010	0.0101868	6
	35	12	315.5048	15629.08	-15856.99	1	22264.6	-45.41473	4.432186E-010	0.0101923	6
	36	12	252.4038	16680.42	-18706.21	1	25063.1	-48.27646	3.717741E-010	0.0101876	6
	37	12	198.6229	17995.57	-22438.47	1	28763.27	-51.27052	3.393672E-010	0.0101893	6
	38	13	158.3615	19480.13	-26749.6	1	33091.04	-53.93639	4.658624E-010	0.0101807	6
	39	13	125.558	21328.42	-32115.66	1	38552.79	-56.41136	5.066338E-010	0.0101887	6
	40	13	100.4464	23532.81	-38351.05	1	44995.51	-58.46606	3.214131E-010	0.0101864	6
	41	14	79.00281	26512.09	-46445.53	1	53479.7	-60.28136	3.196174E-010	0.0101839	6
	42	14	63.3446	29971.46	-55352.41	1	62945.83	-61.56595	2.724201E-010	0.0101835	6
	43	14	49.86702	34712.2	-66823.89	1	75301.85	-62.55002	4.781477E-010	0.0101779	6
	44	15	39.72458	40420.14	-79742.23	1	89401.41	-63.12023	4.30544E-010	0.0101841	6
	45	15	31.6723	47564.47	-94772.39	1	106038.6	-63.34879	-9.510565E-011	0.0101852	5
	46	15	24.93351	57012.24	-113435.6	1	126956.8	-63.31609	1.023666E-010	0.010189	5
	47	16	19.86229	68333.51	-134134.8	1	150537.7	-63.00393	-4.901765E-011	0.010192	5
	48	16	15.83615	82382.56	-157799.9	1	178010.4	-62.43229	2.780262E-010	0.0101868	5
	49	16	12.40079	101558.5	-187035	1	212829.1	-61.49838	1.044148E-009	0.0101852	5
	50	17	9.93114	122746.6	-216652.2	1	249007.8	-60.46582	1.036765E-009	0.0101883	5
	51	17	7.944915	149049.5	-249991.6	1	291052.5	-59.19583	-2.356804E-010	0.0101786	5
	52	17	6.317385	181086.6	-287076.9	1	339419.4	-57.75648	1.253864E-010	0.010183	5
	53	18	5.008013	219423.3	-327276.3	1	394025.9	-56.16002	3.926919E-010	0.0101911	5
	54	19	3.945707	265655.2	-370968.3	1	456278.6	-54.39307	1.740447E-010	0.0101782	5
	55	20	3.158693	312831.3	-413843.4	1	518777.2	-52.91374	2.173037E-010	0.0101998	5
	56	21	2.504006	367665	-460825.8	1	589523.5	-51.41575	-5.541118E-011	0.0101892	5
	57	22	1.998082	422673.1	-510555.2	1	662811.6	-50.37968	-5.07302E-011	0.0101727	5
	58	24	1.584686	484639.6	-566047.4	1	745174.6	-49.43045	6.596231E-011	0.0102122	5
	59	26	1.266892	548101.3	-630263.8	1	835252.9	-48.98854	8.325805E-011	0.0102155	5
	60	28	0.999041	619009.2	-709848.6	1	941837.3	-48.9106	8.379965E-011	0.0101962	5
