EXPLAIN
TAG	EISPOT
TITLE	LABEL	Potentiostatic EIS	Test &Identifier
DATE	LABEL	6/14/2020	Date
TIME	LABEL	21:10:58	Time
NOTES	NOTES	1	&Notes...
	
PSTAT	PSTAT	REF600-10037	Potentiostat
VDC	POTEN	0.00000E+000	T	DC &Voltage (V)
FREQINIT	QUANT	1.00000E+006	Initial Fre&q. (Hz)
FREQFINAL	QUANT	1.00000E+000	Final Fre&q. (Hz)
PTSPERDEC	QUANT	1.00000E+001	Points/&decade
VAC	QUANT	2.50000E+001	AC &Voltage (mV rms)
AREA	QUANT	2.50000E-001	&Area (cm^2)
CONDIT	TWOPARAM	F	5.00000E+000	0.00000E+000	Conditionin&g	Time(s)	E(V)
DELAY	TWOPARAM	F	3.00000E+000	0.00000E+000	Init. De&lay	Time(s)	Stab.(mV/s)
SPEED	SELECTOR	0	&Optimize for:
ZGUESS	QUANT	1.00000E+003	E&stimated Z (ohms)
OCVCURVE	TABLE	39
	Pt	T	Vf	Vm	Ach	Over
	#	s	V vs. Ref.	V	V	bits
	0	0.258333	-9.11715E-002	-9.11715E-002	5.31521E-004	...........
	1	0.516667	-9.11717E-002	-9.11807E-002	5.33587E-004	...........
	2	0.775	-9.11728E-002	-9.11881E-002	5.37121E-004	...........
	3	1.03333	-9.11756E-002	-9.11956E-002	5.37654E-004	...........
	4	1.29167	-9.11807E-002	-9.12014E-002	5.28787E-004	...........
	5	1.55	-9.11871E-002	-9.12061E-002	5.34654E-004	...........
	6	1.80833	-9.11939E-002	-9.12148E-002	5.37787E-004	...........
	7	2.06667	-9.12005E-002	-9.12218E-002	5.33187E-004	...........
	8	2.325	-9.12072E-002	-9.12308E-002	5.38287E-004	...........
	9	2.58333	-9.12142E-002	-9.12336E-002	5.37721E-004	...........
	10	2.84167	-9.12212E-002	-9.12382E-002	5.34554E-004	...........
	11	3.1	-9.12277E-002	-9.12423E-002	5.35621E-004	...........
	12	3.35833	-9.12331E-002	-9.12465E-002	5.36454E-004	...........
	13	3.61667	-9.12379E-002	-9.12565E-002	5.29287E-004	...........
	14	3.875	-9.12427E-002	-9.12586E-002	5.35121E-004	...........
	15	4.13333	-9.12480E-002	-9.12641E-002	5.36054E-004	...........
	16	4.39167	-9.12534E-002	-9.12659E-002	5.34887E-004	...........
	17	4.65	-9.12584E-002	-9.12725E-002	5.35587E-004	...........
	18	4.90833	-9.12629E-002	-9.12763E-002	5.34954E-004	...........
	19	5.16667	-9.12671E-002	-9.12786E-002	5.38521E-004	...........
	20	5.425	-9.12713E-002	-9.12814E-002	5.41621E-004	...........
	21	5.68333	-9.12751E-002	-9.12880E-002	5.41554E-004	...........
	22	5.94167	-9.12788E-002	-9.12908E-002	5.36254E-004	...........
	23	6.2	-9.12826E-002	-9.12950E-002	5.33987E-004	...........
	24	6.45833	-9.12866E-002	-9.12995E-002	5.38421E-004	...........
	25	6.71667	-9.12907E-002	-9.13017E-002	5.36021E-004	...........
	26	6.975	-9.12946E-002	-9.13031E-002	5.38754E-004	...........
	27	7.23333	-9.12981E-002	-9.13083E-002	5.37221E-004	...........
	28	7.49167	-9.13013E-002	-9.13135E-002	5.39521E-004	...........
	29	7.75	-9.13046E-002	-9.13181E-002	5.31721E-004	...........
	30	8.00833	-9.13085E-002	-9.13220E-002	5.34221E-004	...........
	31	8.26667	-9.13128E-002	-9.13261E-002	5.36621E-004	...........
	32	8.525	-9.13172E-002	-9.13294E-002	5.37221E-004	...........
	33	8.78333	-9.13215E-002	-9.13320E-002	5.33187E-004	...........
	34	9.04167	-9.13254E-002	-9.13382E-002	5.35387E-004	...........
	35	9.3	-9.13291E-002	-9.13401E-002	5.32621E-004	...........
	36	9.5583	-9.13328E-002	-9.13426E-002	5.29421E-004	...........
	37	9.8167	-9.13364E-002	-9.13459E-002	5.33887E-004	...........
	38	10.075	-9.13397E-002	-9.13506E-002	5.35654E-004	...........
EOC	QUANT	-0.0913397	Open Circuit (V)
PSTATMODEL	IQUANT	4	Pstat Model
PSTATSECTION	LABEL	REF600-10037	Pstat Section
PSTATSERIALNO	LABEL	10037	Pstat Serial Number
CTRLMODE	IQUANT	1	Control Mode
IESTAB	IQUANT	0	I/E Stability
CASPEED	IQUANT	1	Control Amp Speed
CONVENTION	IQUANT	1	Current Convention
ICHRANGE	IQUANT	2	Ich Range
ICHRANGEMODE	TOGGLE	F	Ich Auto Range
ICHOFFSETENABLE	TOGGLE	T	Ich Offset Enable
ICHOFFSET	QUANT	0	Ich Offset (V)
ICHFILTER	IQUANT	3	Ich Filter
VCHRANGE	IQUANT	2	Vch Range
VCHRANGEMODE	TOGGLE	F	Vch Auto Range
VCHOFFSETENABLE	TOGGLE	T	Vch Offset Enable
VCHOFFSET	QUANT	0	Vch Offset (V)
VCHFILTER	IQUANT	3	Vch Filter
ACHRANGE	IQUANT	2	Ach Range
ACHOFFSETENABLE	TOGGLE	F	Ach Offset Enable
ACHOFFSET	QUANT	0	Ach Offset (V)
ACHFILTER	IQUANT	3	Ach Filter
IERANGELOWERLIMIT	IQUANT	1	I/E Range Lower Limit
IERANGEMODE	TOGGLE	F	I/E AutoRange
IERANGE	IQUANT	8	I/E Range
POSFEEDENABLE	TOGGLE	F	Positive Feedback IR Comp
POSFEEDRESISTANCE	QUANT	0	Positive Feedback Resistance (ohm)
ACHSELECT	IQUANT	0	Ach Select
CABLEID	IQUANT	14	Cable ID
DCCALDATE	LABEL	6/8/2020	DC Calibration Date
ACCALDATE	LABEL	6/8/2020	AC Calibration Date
THERMOSELECT	IQUANT	1	Thermo Select
FRAMEWORKVERSION	QUANT	6.33	Framework Version
INSTRUMENTVERSION	LABEL	3.50	Instrument Version
ZCURVE	TABLE
	Pt	Time	Freq	Zreal	Zimag	Zsig	Zmod	Zphz	Idc	Vdc	IERange
	#	s	Hz	ohm	ohm	V	ohm	°	A	V	#
	0	1	1000078	1950.808	-1826.284	1	2672.259	-43.11175	-1.217098E-007	-0.0821043	8
	1	2	794390.6	2282.647	-1937.394	1	2993.989	-40.32289	-1.188563E-007	-0.0824197	8
	2	2	630984.4	2630.748	-2021.102	1	3317.482	-37.53369	-1.203973E-007	-0.0825468	8
	3	2	501234.4	2993.979	-2073.081	1	3641.644	-34.69938	-7.816684E-008	-0.0826164	8
	4	2	398109.4	3353.554	-2092.117	1	3952.629	-31.958	-1.179455E-007	-0.0826747	8
	5	3	316265.6	3710.303	-2079.005	1	4253.07	-29.26335	1.696016E-007	-0.0826672	8
	6	3	251203.1	4057.171	-2060.21	1	4550.286	-26.92122	-2.330483E-007	-0.0826704	8
	7	3	199546.9	4382.681	-2007.452	1	4820.556	-24.60977	3.653079E-008	-0.0826175	8
	8	4	158578.1	4690.449	-1954.078	1	5081.214	-22.617	4.863094E-007	-0.0826995	8
	9	4	125953.1	5108.937	-1715.206	1	5389.171	-18.55828	-1.045671E-008	-0.0827985	7
	10	4	100078.1	5359.443	-1670.723	1	5613.817	-17.31405	-7.05021E-008	-0.0826186	7
	11	5	79453.13	5594.163	-1628.974	1	5826.51	-16.23512	1.299675E-008	-0.0826146	7
	12	5	63140.62	5822.012	-1590.679	1	6035.402	-15.28129	-7.968931E-008	-0.0825966	7
	13	5	50203.12	5994.419	-1653.043	1	6218.167	-15.41692	-2.749202E-008	-0.0826666	8
	14	6	39890.62	6242.23	-1530.375	1	6427.09	-13.77521	1.328945E-008	-0.0826253	7
	15	6	31640.63	6443.88	-1516.156	1	6619.843	-13.24009	6.827177E-008	-0.0827861	7
	16	7	25171.88	6635.797	-1511.834	1	6805.839	-12.83463	-6.95406E-008	-0.0826342	7
	17	7	20015.62	6817.663	-1519.659	1	6984.977	-12.56583	1.372528E-008	-0.0826275	7
	18	7	15890.62	7002.522	-1546.262	1	7171.209	-12.45195	7.659822E-008	-0.082733	7
	19	8	12609.37	7185.551	-1591.603	1	7359.71	-12.48939	5.50917E-008	-0.0827892	7
	20	8	10078.13	7356.257	-1653.748	1	7539.854	-12.66993	-1.021017E-008	-0.0826071	7
	21	8	8015.625	7544.279	-1746.372	1	7743.77	-13.03344	3.348266E-008	-0.0827662	7
	22	8	6328.125	7732.056	-1865.02	1	7953.804	-13.56106	-6.960703E-008	-0.0825683	7
	23	9	5015.625	7927.646	-2017.704	1	8180.386	-14.27945	-1.16196E-008	-0.0825974	7
	24	9	3984.375	8130.571	-2210.141	1	8425.61	-15.20731	-7.027712E-008	-0.0825657	7
	25	9	3170.956	8342.73	-2446.158	1	8693.954	-16.34158	5.390201E-008	-0.0827793	7
	26	10	2527.573	8563.774	-2723.998	1	8986.567	-17.64503	5.267542E-008	-0.0826688	7
	27	10	1976.103	8844.208	-3047.901	1	9354.663	-19.01503	-3.606847E-010	-0.0827866	6
	28	10	1577.524	9091.966	-3478.754	1	9734.76	-20.93778	-7.928689E-009	-0.0826743	6
	29	11	1265.625	9352.696	-3988.917	1	10167.81	-23.09821	1.062039E-008	-0.0827469	6
	30	11	998.264	9648.98	-4655.483	1	10713.37	-25.75659	-4.755867E-009	-0.0827398	6
	31	11	796.875	9965.62	-5436.739	1	11352.17	-28.61465	6.542686E-009	-0.0828349	6
	32	12	627.7902	10334.51	-6444.249	1	12179.1	-31.94627	-1.362435E-008	-0.0825139	6
	33	12	505.5147	10719.15	-7570.364	1	13122.9	-35.23152	-1.107956E-008	-0.0826157	6
	34	12	397.9953	11218.37	-9092.661	1	14440.51	-39.0253	4.134965E-010	-0.0826599	6
	35	13	315.5048	11796.31	-10906.54	1	16065.66	-42.75563	5.922826E-010	-0.0826641	6
	36	13	252.4038	12471.67	-13022.96	1	18031.64	-46.23875	6.095962E-010	-0.0826655	6
	37	13	198.6229	13364.03	-15781.7	1	20679.92	-49.7419	4.652535E-010	-0.0826609	6
	38	14	158.3615	14410.85	-18942.47	1	23801.05	-52.73724	5.121435E-010	-0.0826686	6
	39	14	125.558	15739.63	-22835.71	1	27734.55	-55.42324	4.522587E-010	-0.082663	6
	40	14	100.4464	17320.69	-27320.74	1	32348.56	-57.62629	5.17074E-010	-0.082669	6
	41	14	79.00281	19432.71	-33103.35	1	38385.7	-59.58572	5.449751E-010	-0.0826744	6
	42	15	63.3446	21861.26	-39404.14	1	45062.19	-60.97866	3.374463E-010	-0.08267	6
	43	15	49.86702	25136.73	-47649.05	1	53872.88	-62.1866	2.683644E-010	-0.0826723	6
	44	16	39.72458	29038.5	-56998.71	1	63969.42	-63.00303	3.295013E-010	-0.0826654	6
	45	16	31.6723	34006.04	-67979.08	1	76010.3	-63.42382	-2.203934E-010	-0.0826691	6
	46	16	24.93351	40682.07	-81653.98	1	91227.21	-63.51636	7.611242E-010	-0.0826677	6
	47	17	19.86229	48259.32	-96045.2	1	107487.9	-63.32209	-5.848984E-009	-0.0913007	5
	48	17	15.83615	58083.7	-113081.2	1	127126.3	-62.8129	-4.132903E-009	-0.0913051	5
	49	17	12.40079	71814.61	-134119.3	1	152135.9	-61.83303	-3.164065E-009	-0.091304	5
	50	18	9.93114	86760.12	-155305.7	1	177896.6	-60.81049	-2.404714E-009	-0.0913018	5
	51	18	7.944915	104454.9	-178689	1	206979.7	-59.69106	-1.918695E-009	-0.0912989	5
	52	18	6.317385	125451.4	-205065.6	1	240395.4	-58.54329	-1.190003E-009	-0.091296	5
	53	19	5.008013	149581.9	-234761.5	1	278366.1	-57.49613	-8.356706E-010	-0.0912954	5
	54	20	3.945707	177328.1	-268876.7	1	322086.8	-56.59456	-5.833034E-010	-0.0912973	5
	55	21	3.158693	206592.8	-304997.9	1	368380.7	-55.88794	-4.617499E-010	-0.0912989	5
	56	23	2.504006	241415.2	-348097.4	1	423619.1	-55.25762	-3.49915E-010	-0.0913031	5
	57	25	1.998082	278561.4	-395863.9	1	484050.3	-54.86672	-2.831217E-010	-0.0913022	5
	58	27	1.584686	321575.8	-452035.1	1	554749.3	-54.57212	-1.718327E-010	-0.0913009	5
	59	29	1.266892	368429.3	-514061.4	1	632454.9	-54.37073	-1.165588E-010	-0.0913033	5
	60	32	0.999041	424505.6	-589924.6	1	726784.7	-54.26147	-1.213767E-010	-0.0913015	5
