EXPLAIN
TAG	EISPOT
TITLE	LABEL	Potentiostatic EIS	Test &Identifier
DATE	LABEL	1/7/2020	Date
TIME	LABEL	17:26:06	Time
NOTES	NOTES	5	&Notes...
	
	
	
	
	
PSTAT	PSTAT	REF600-11020	Potentiostat
VDC	POTEN	0.00000E+000	T	DC &Voltage (V)
FREQINIT	QUANT	1.00000E+006	Initial Fre&q. (Hz)
FREQFINAL	QUANT	1.00000E+000	Final Fre&q. (Hz)
PTSPERDEC	QUANT	1.00000E+001	Points/&decade
VAC	QUANT	2.50000E+001	AC &Voltage (mV rms)
AREA	QUANT	1.00000E-001	&Area (cm^2)
CONDIT	TWOPARAM	T	5.00000E+000	0.00000E+000	Conditionin&g	Time(s)	E(V)
DELAY	TWOPARAM	T	5.00000E+000	0.00000E+000	Init. De&lay	Time(s)	Stab.(mV/s)
SPEED	SELECTOR	0	&Optimize for:
ZGUESS	QUANT	1.00000E+003	E&stimated Z (ohms)
OCVCURVE	TABLE	19
	Pt	T	Vf	Vm	Ach	Over
	#	s	V vs. Ref.	V	V	bits
	0	0.258333	3.94656E-003	3.94656E-003	6.70613E-004	...........
	1	0.516667	3.94105E-003	3.65801E-003	6.73479E-004	...........
	2	0.775	3.90761E-003	3.40612E-003	6.70046E-004	...........
	3	1.03333	3.81452E-003	3.17082E-003	6.64546E-004	...........
	4	1.29167	3.65160E-003	2.96780E-003	6.65979E-004	...........
	5	1.55	3.44171E-003	2.79070E-003	6.71246E-004	...........
	6	1.80833	3.21915E-003	2.61457E-003	6.72713E-004	...........
	7	2.06667	3.00746E-003	2.46616E-003	6.67213E-004	...........
	8	2.325	2.81545E-003	2.33879E-003	6.70079E-004	...........
	9	2.58333	2.64382E-003	2.20509E-003	6.68013E-004	...........
	10	2.84167	2.49017E-003	2.08545E-003	6.67579E-004	...........
	11	3.1	2.35058E-003	1.97498E-003	6.66479E-004	...........
	12	3.35833	2.22176E-003	1.88386E-003	6.66213E-004	...........
	13	3.61667	2.10261E-003	1.78069E-003	6.70046E-004	...........
	14	3.875	1.99244E-003	1.68470E-003	6.69446E-004	...........
	15	4.13333	1.88924E-003	1.59665E-003	6.67046E-004	...........
	16	4.39167	1.79063E-003	1.49788E-003	6.66113E-004	...........
	17	4.65	1.69535E-003	1.43141E-003	6.67946E-004	...........
	18	4.90833	1.60357E-003	1.33941E-003	6.66079E-004	...........
EOC	QUANT	0.0016036	Open Circuit (V)
PSTATMODEL	IQUANT	4	Pstat Model
PSTATSECTION	LABEL	REF600-11020	Pstat Section
PSTATSERIALNO	LABEL	11020	Pstat Serial Number
CTRLMODE	IQUANT	1	Control Mode
IESTAB	IQUANT	0	I/E Stability
CASPEED	IQUANT	1	Control Amp Speed
CONVENTION	IQUANT	1	Current Convention
ICHRANGE	IQUANT	2	Ich Range
ICHRANGEMODE	TOGGLE	F	Ich Auto Range
ICHOFFSETENABLE	TOGGLE	T	Ich Offset Enable
ICHOFFSET	QUANT	0	Ich Offset (V)
ICHFILTER	IQUANT	3	Ich Filter
VCHRANGE	IQUANT	2	Vch Range
VCHRANGEMODE	TOGGLE	F	Vch Auto Range
VCHOFFSETENABLE	TOGGLE	T	Vch Offset Enable
VCHOFFSET	QUANT	0	Vch Offset (V)
VCHFILTER	IQUANT	3	Vch Filter
ACHRANGE	IQUANT	2	Ach Range
ACHOFFSETENABLE	TOGGLE	F	Ach Offset Enable
ACHOFFSET	QUANT	0	Ach Offset (V)
ACHFILTER	IQUANT	3	Ach Filter
IERANGELOWERLIMIT	IQUANT	1	I/E Range Lower Limit
IERANGEMODE	TOGGLE	F	I/E AutoRange
IERANGE	IQUANT	6	I/E Range
POSFEEDENABLE	TOGGLE	F	Positive Feedback IR Comp
POSFEEDRESISTANCE	QUANT	0	Positive Feedback Resistance (ohm)
ACHSELECT	IQUANT	0	Ach Select
CABLEID	IQUANT	14	Cable ID
DCCALDATE	LABEL	12/22/2019	DC Calibration Date
ACCALDATE	LABEL	12/22/2019	AC Calibration Date
THERMOSELECT	IQUANT	1	Thermo Select
FRAMEWORKVERSION	QUANT	6.33	Framework Version
INSTRUMENTVERSION	LABEL	3.50	Instrument Version
ZCURVE	TABLE
	Pt	Time	Freq	Zreal	Zimag	Zsig	Zmod	Zphz	Idc	Vdc	IERange
	#	s	Hz	ohm	ohm	V	ohm	°	A	V	#
	0	1	1000078	2151.988	-1254.103	1	2490.748	-30.23213	-1.827158E-006	0.0039931	8
	1	1	794390.6	2356.518	-1203.009	1	2645.829	-27.04445	3.573756E-006	0.0026517	8
	2	1	630984.4	2544.338	-1134.676	1	2785.883	-24.03501	2.485569E-006	0.0026717	8
	3	2	501234.4	2724.363	-1078.385	1	2930.028	-21.59515	-7.253816E-006	0.0046087	8
	4	2	398109.4	2884.269	-1012.629	1	3056.865	-19.34551	3.003344E-006	0.0025312	8
	5	2	316265.6	3022.371	-960.706	1	3171.385	-17.63365	8.96785E-006	0.0013714	8
	6	3	251203.1	3123.726	-906.2692	1	3252.535	-16.17874	8.672308E-006	0.0013872	8
	7	3	199546.9	3247.74	-833.8036	1	3353.065	-14.39877	1.996099E-006	0.0025414	8
	8	3	158578.1	3356.334	-801.1249	1	3450.62	-13.42477	-2.307334E-006	0.0034547	8
	9	3	125953.1	3485.077	-721.2239	1	3558.922	-11.6921	-2.169128E-006	0.0073281	7
	10	4	100078.1	3564.356	-700.3342	1	3632.506	-11.11603	4.190965E-008	0.0029355	7
	11	4	79453.13	3648.271	-704.6178	1	3715.692	-10.93137	-1.019256E-007	0.0032766	7
	12	4	63140.62	3732.426	-716.159	1	3800.511	-10.86161	-7.906307E-008	0.0031384	7
	13	5	50203.12	3819.331	-732.9028	1	3889.015	-10.86261	4.493664E-008	0.0030482	7
	14	5	39890.62	3909.654	-759.0441	1	3982.655	-10.98707	2.259066E-007	0.00274	7
	15	5	31640.63	4005.579	-793.6544	1	4083.448	-11.20727	-4.025777E-008	0.0030544	7
	16	6	25171.88	4102.492	-833.6868	1	4186.343	-11.48693	-4.952956E-009	0.0029597	7
	17	6	20015.62	4199.035	-885.5773	1	4291.403	-11.90917	4.398651E-008	0.0030419	7
	18	6	15890.62	4311.658	-944.0995	1	4413.81	-12.35081	4.24785E-008	0.0029169	7
	19	7	12609.37	4425.365	-1014.01	1	4540.052	-12.90573	-4.839326E-008	0.0030866	7
	20	7	10078.13	4536.967	-1091.308	1	4666.372	-13.52481	3.362221E-009	0.0031067	7
	21	7	8015.625	4656.708	-1186.969	1	4805.604	-14.29987	-9.914079E-008	0.0032044	7
	22	8	6328.125	4783.137	-1305.211	1	4958.021	-15.26314	4.492416E-008	0.0030337	7
	23	8	5015.625	4911.891	-1444.058	1	5119.763	-16.38293	-7.848954E-008	0.0031214	7
	24	8	3984.375	5044.462	-1615.91	1	5296.958	-17.762	1.363491E-007	0.0027891	7
	25	9	3170.956	5179.718	-1817.456	1	5489.319	-19.33492	-4.861828E-008	0.0030786	7
	26	9	2527.573	5314.968	-2066.465	1	5702.558	-21.24613	8.196203E-008	0.0028091	7
	27	9	1976.103	5466.868	-2403.782	1	5972.002	-23.73509	-4.923086E-008	0.0030832	7
	28	9	1577.524	5602.703	-2777.713	1	6253.477	-26.37133	-3.8259E-008	0.0030477	7
	29	10	1265.625	5761.511	-3267.072	1	6623.35	-29.55546	-3.444709E-008	0.0032996	7
	30	10	998.264	5931.095	-3893.525	1	7094.887	-33.28329	-4.877593E-008	0.0030826	7
	31	10	796.875	6117.307	-4641.671	1	7678.968	-37.19039	1.385478E-007	0.0028082	7
	32	11	627.7902	6339.548	-5622.659	1	8473.733	-41.57039	1.38825E-007	0.0028043	7
	33	11	505.5147	6581.88	-6737.023	1	9418.526	-45.66737	-9.963582E-008	0.0032594	7
	34	11	397.9953	6895.824	-8233.252	1	10739.59	-50.05188	5.518462E-010	0.003068	6
	35	12	315.5048	7264.576	-10044.21	1	12395.98	-54.1233	5.792982E-012	0.0030685	6
	36	12	252.4038	7693.674	-12183.12	1	14409.06	-57.72748	2.110508E-010	0.003069	6
	37	12	198.6229	8267.678	-15010.56	1	17136.84	-61.15443	8.050665E-010	0.0030685	6
	38	13	158.3615	8945.097	-18302.34	1	20371.32	-63.95337	1.059426E-009	0.0030689	6
	39	13	125.558	9815.69	-22438.45	1	24491.47	-66.37304	9.07448E-010	0.0030689	6
	40	13	100.4464	10863.3	-27272.6	1	29356.53	-68.28149	-1.690728E-010	0.0030623	6
	41	14	79.00281	12324.75	-33621.25	1	35809.04	-69.86826	8.698652E-010	0.0030604	6
	42	14	63.3446	14221.76	-41202.93	1	43588.3	-70.95718	1.99731E-010	0.0030606	6
	43	14	49.86702	16448.17	-50613.28	1	53218.85	-71.99701	8.967055E-010	0.003057	6
	44	15	39.72458	19457.44	-61343.97	1	64355.84	-72.40171	5.048617E-010	0.0030681	6
	45	15	31.6723	23398.56	-74530.81	1	78117.45	-72.57059	3.70294E-010	0.0030627	6
	46	15	24.93351	28584.92	-91260.52	1	95632.5	-72.60823	5.354913E-010	0.0030577	6
	47	16	19.86229	35053.54	-110424.6	1	115854.8	-72.38831	-2.113897E-010	0.0030564	5
	48	16	15.83615	44198.01	-133404.2	1	140535.2	-71.66951	9.920874E-010	0.0030555	5
	49	16	12.40079	56859.78	-162674.5	1	172325.3	-70.73389	-5.515893E-010	0.0030572	5
	50	17	9.93114	69995.7	-194044.9	1	206283.4	-70.16466	7.596185E-010	0.0030573	5
	51	17	7.944915	88030.14	-230605.6	1	246836.5	-69.10641	7.549564E-010	0.0030558	5
	52	18	6.317385	112827.8	-273890.8	1	296220	-67.61106	6.057145E-010	0.0030467	5
	53	19	5.008013	144086.9	-323795.2	1	354407.1	-66.01122	4.176473E-010	0.0030588	5
	54	20	3.945707	183468	-380227.5	1	422177.1	-64.24169	2.316656E-010	0.0030641	5
	55	21	3.158693	228525.7	-438936.4	1	494862.8	-62.49693	4.704497E-011	0.0030469	5
	56	23	2.504006	284657.9	-504875.7	1	579594.3	-60.58493	2.599166E-010	0.0030484	5
	57	24	1.998082	346045.2	-574384.4	1	670570.5	-58.93261	3.197512E-010	0.0030809	5
	58	26	1.584686	418115.2	-648759.4	1	771821.9	-57.19886	1.655436E-010	0.0030302	5
	59	28	1.266892	496059.4	-729704.6	1	882351.3	-55.7918	1.237387E-010	0.0030066	5
	60	30	0.999041	585289.1	-825888.6	1	1012253	-54.67564	5.923982E-011	0.0030573	4
