EXPLAIN
TAG	EISPOT
TITLE	LABEL	Potentiostatic EIS	Test &Identifier
DATE	LABEL	6/6/2020	Date
TIME	LABEL	13:46:28	Time
NOTES	NOTES	1	&Notes...
	
PSTAT	PSTAT	REF600-11020	Potentiostat
VDC	POTEN	0.00000E+000	T	DC &Voltage (V)
FREQINIT	QUANT	1.00000E+006	Initial Fre&q. (Hz)
FREQFINAL	QUANT	1.00000E+000	Final Fre&q. (Hz)
PTSPERDEC	QUANT	1.00000E+001	Points/&decade
VAC	QUANT	2.50000E+001	AC &Voltage (mV rms)
AREA	QUANT	2.50000E-001	&Area (cm^2)
CONDIT	TWOPARAM	F	5.00000E+000	0.00000E+000	Conditionin&g	Time(s)	E(V)
DELAY	TWOPARAM	T	3.00000E+000	0.00000E+000	Init. De&lay	Time(s)	Stab.(mV/s)
SPEED	SELECTOR	0	&Optimize for:
ZGUESS	QUANT	1.00000E+003	E&stimated Z (ohms)
OCVCURVE	TABLE	12
	Pt	T	Vf	Vm	Ach	Over
	#	s	V vs. Ref.	V	V	bits
	0	0.258333	1.12638E-001	1.12638E-001	5.79597E-004	...........
	1	0.516667	1.12638E-001	1.12641E-001	5.81530E-004	...........
	2	0.775	1.12639E-001	1.12642E-001	5.84397E-004	...........
	3	1.03333	1.12639E-001	1.12641E-001	5.75030E-004	...........
	4	1.29167	1.12640E-001	1.12642E-001	5.73030E-004	...........
	5	1.55	1.12641E-001	1.12640E-001	5.76763E-004	...........
	6	1.80833	1.12641E-001	1.12640E-001	5.73863E-004	...........
	7	2.06667	1.12641E-001	1.12638E-001	5.79097E-004	...........
	8	2.325	1.12640E-001	1.12636E-001	5.83797E-004	...........
	9	2.58333	1.12639E-001	1.12639E-001	5.85930E-004	...........
	10	2.84167	1.12638E-001	1.12635E-001	5.83730E-004	...........
	11	3.1	1.12638E-001	1.12632E-001	5.82730E-004	...........
EOC	QUANT	0.1126376	Open Circuit (V)
PSTATMODEL	IQUANT	4	Pstat Model
PSTATSECTION	LABEL	REF600-11020	Pstat Section
PSTATSERIALNO	LABEL	11020	Pstat Serial Number
CTRLMODE	IQUANT	1	Control Mode
IESTAB	IQUANT	0	I/E Stability
CASPEED	IQUANT	1	Control Amp Speed
CONVENTION	IQUANT	1	Current Convention
ICHRANGE	IQUANT	2	Ich Range
ICHRANGEMODE	TOGGLE	F	Ich Auto Range
ICHOFFSETENABLE	TOGGLE	T	Ich Offset Enable
ICHOFFSET	QUANT	0	Ich Offset (V)
ICHFILTER	IQUANT	3	Ich Filter
VCHRANGE	IQUANT	2	Vch Range
VCHRANGEMODE	TOGGLE	F	Vch Auto Range
VCHOFFSETENABLE	TOGGLE	T	Vch Offset Enable
VCHOFFSET	QUANT	0	Vch Offset (V)
VCHFILTER	IQUANT	3	Vch Filter
ACHRANGE	IQUANT	2	Ach Range
ACHOFFSETENABLE	TOGGLE	F	Ach Offset Enable
ACHOFFSET	QUANT	0	Ach Offset (V)
ACHFILTER	IQUANT	3	Ach Filter
IERANGELOWERLIMIT	IQUANT	1	I/E Range Lower Limit
IERANGEMODE	TOGGLE	F	I/E AutoRange
IERANGE	IQUANT	8	I/E Range
POSFEEDENABLE	TOGGLE	F	Positive Feedback IR Comp
POSFEEDRESISTANCE	QUANT	0	Positive Feedback Resistance (ohm)
ACHSELECT	IQUANT	0	Ach Select
CABLEID	IQUANT	14	Cable ID
DCCALDATE	LABEL	2/27/2020	DC Calibration Date
ACCALDATE	LABEL	2/27/2020	AC Calibration Date
THERMOSELECT	IQUANT	1	Thermo Select
FRAMEWORKVERSION	QUANT	6.33	Framework Version
INSTRUMENTVERSION	LABEL	3.50	Instrument Version
ZCURVE	TABLE
	Pt	Time	Freq	Zreal	Zimag	Zsig	Zmod	Zphz	Idc	Vdc	IERange
	#	s	Hz	ohm	ohm	V	ohm	°	A	V	#
	0	1	1000078	1655.7	-1667.739	1	2350.042	-45.20756	9.068357E-008	0.1150349	8
	1	2	794390.6	1867.155	-1843.437	1	2623.838	-44.63377	3.634088E-008	0.1147186	8
	2	2	630984.4	2100.878	-2042.136	1	2929.848	-44.18768	7.721363E-008	0.1145649	8
	3	2	501234.4	2364.449	-2270.619	1	3278.16	-43.84029	3.812202E-008	0.1144928	8
	4	3	398109.4	2661.928	-2530.381	1	3672.695	-43.54872	3.928832E-008	0.114415	8
	5	3	316265.6	3009.974	-2816.287	1	4122.065	-43.09597	7.149477E-008	0.1144013	8
	6	3	251203.1	3430.619	-3121.442	1	4638.162	-42.29834	9.983754E-008	0.1143534	8
	7	4	199546.9	3910.244	-3448.872	1	5213.897	-41.41259	6.485839E-008	0.1143824	8
	8	4	158578.1	4453.383	-3759.632	1	5828.161	-40.1717	6.496692E-008	0.1143852	8
	9	4	125953.1	5164.335	-3986.167	1	6523.794	-37.66327	5.171067E-009	0.1143263	7
	10	4	100078.1	5818.662	-4246.845	1	7203.646	-36.12445	4.079417E-009	0.1143169	7
	11	5	79453.13	6545.168	-4470.759	1	7926.343	-34.33552	5.242096E-009	0.1143147	7
	12	5	63140.62	7303.342	-4661.631	1	8664.272	-32.54958	3.621086E-009	0.1142986	7
	13	5	50203.12	8067.407	-4796.764	1	9385.733	-30.73511	4.136153E-009	0.1143021	7
	14	6	39890.62	8834.261	-4891.745	1	10098.18	-28.97437	5.310699E-009	0.1143041	7
	15	6	31640.63	9571.12	-4927.09	1	10764.88	-27.23882	3.280574E-009	0.1142956	7
	16	6	25171.88	10280.95	-4989.888	1	11427.9	-25.88975	4.575267E-009	0.1143013	7
	17	7	20015.62	10952.28	-5036.558	1	12054.85	-24.696	3.412453E-009	0.1142982	7
	18	7	15890.62	11623.97	-5153.155	1	12715.02	-23.90874	3.461199E-009	0.1142954	7
	19	7	12609.37	12422.13	-5140.185	1	13443.62	-22.4794	1.080892E-009	0.1143489	6
	20	8	10078.13	13073.19	-5413.055	1	14149.54	-22.49238	1.221849E-009	0.1143547	6
	21	8	8015.625	13695.62	-5678.297	1	14826.09	-22.51923	9.296247E-010	0.1143526	6
	22	8	6328.125	14399.11	-6050.673	1	15618.74	-22.79271	1.121369E-009	0.1143509	6
	23	9	5015.625	15114.94	-6467.873	1	16440.64	-23.16669	1.068232E-009	0.1143472	6
	24	9	3984.375	15913.34	-6991.664	1	17381.53	-23.71871	9.418045E-010	0.1143462	6
	25	9	3170.956	16735.37	-7562.819	1	18364.88	-24.31852	6.292676E-010	0.1143431	6
	26	10	2527.573	17626.87	-8230.81	1	19453.86	-25.03008	1.196678E-009	0.1143531	6
	27	10	1976.103	18780.94	-9204.82	1	20915.36	-26.11017	5.633107E-010	0.1143348	6
	28	10	1577.524	19748.08	-10027.3	1	22147.98	-26.91967	8.556879E-010	0.1143449	6
	29	11	1265.625	20814.42	-11042.53	1	23562.21	-27.94699	9.62105E-010	0.1143386	6
	30	11	998.264	22101.56	-12384.65	1	25334.92	-29.26417	5.11603E-010	0.1143315	6
	31	11	796.875	23306.88	-13730.88	1	27050.84	-30.5038	7.068968E-010	0.1143418	6
	32	12	627.7902	24711.29	-15438.16	1	29137.34	-31.99472	5.650648E-010	0.114337	6
	33	12	505.5147	26175.98	-17504.92	1	31489.75	-33.77223	7.940887E-010	0.1143418	6
	34	12	397.9953	27961.6	-20279.55	1	34541.44	-35.95204	1.061224E-009	0.1143554	6
	35	12	315.5048	29747.02	-23075.58	1	37647.94	-37.80172	9.48461E-010	0.1143569	6
	36	13	252.4038	31776.38	-26227.49	1	41202.18	-39.53548	7.228062E-010	0.1143503	6
	37	13	198.6229	34708.6	-30990.62	1	46530.69	-41.76103	9.591593E-010	0.1143511	6
	38	13	158.3615	38157.95	-36452.37	1	52771.25	-43.69046	7.299375E-010	0.1143492	6
	39	14	125.558	42316.08	-41849.02	1	59514.63	-44.68205	4.909864E-010	0.114349	6
	40	14	100.4464	47525.36	-48585.34	1	67964.66	-45.63187	6.606518E-010	0.114346	6
	41	14	79.00281	54347.11	-56266.07	1	78227.1	-45.99389	7.457723E-010	0.114345	6
	42	15	63.3446	61749	-64133.78	1	89028.54	-46.08531	8.347461E-010	0.1143432	6
	43	15	49.86702	71082.51	-72251.72	1	101356	-45.46737	-1.067084E-010	0.1143425	5
	44	16	39.72458	81572.24	-81250.24	1	115133.1	-44.88669	6.490609E-010	0.1143506	5
	45	16	31.6723	92708.36	-89385.42	1	128781.2	-43.95456	1.216392E-010	0.1143504	5
	46	16	24.93351	104370.1	-97323.5	1	142705.9	-42.99907	8.182023E-010	0.114348	5
	47	16	19.86229	118183.8	-107290.3	1	159620.2	-42.23398	1.229156E-009	0.1143554	5
	48	17	15.83615	128466.7	-115441.2	1	172714.7	-41.94313	-5.380194E-010	0.1143506	5
	49	17	12.40079	141806.7	-126014.1	1	189706.8	-41.62535	1.098838E-009	0.1143496	5
	50	17	9.93114	157979.2	-140627.7	1	211503.1	-41.6744	1.128918E-009	0.1143541	5
	51	18	7.944915	170685.4	-155973.6	1	231216.9	-42.42129	-1.063367E-009	0.1143496	5
	52	18	6.317385	188579.8	-175164.8	1	257381.1	-42.88787	5.275779E-010	0.1143406	5
	53	19	5.008013	205795.3	-197971.3	1	285559.7	-43.88988	6.393067E-010	0.1143577	5
	54	20	3.945707	223388.2	-226564.2	1	318172.3	-45.40443	-6.710013E-011	0.114344	5
	55	21	3.158693	246581.2	-259863.9	1	358233.9	-46.50238	3.587491E-010	0.11435	5
	56	22	2.504006	270484.5	-299870.6	1	403836.9	-47.94942	-6.809152E-012	0.1143453	5
	57	23	1.998082	296258.8	-345518.2	1	455139.7	-49.38911	-8.420149E-011	0.114306	5
	58	25	1.584686	328760.9	-398889.1	1	516910.3	-50.50496	6.74702E-011	0.1143534	5
	59	27	1.266892	375025.1	-462027	1	595073.8	-50.93393	8.794795E-011	0.114379	5
	60	29	0.999041	423887.8	-537645.9	1	684648.8	-51.74725	2.025884E-010	0.1143784	5
