EXPLAIN
TAG	EISPOT
TITLE	LABEL	Potentiostatic EIS	Test &Identifier
DATE	LABEL	1/10/2020	Date
TIME	LABEL	13:27:21	Time
NOTES	NOTES	5	&Notes...
	
	
	
	
	
PSTAT	PSTAT	REF600-11020	Potentiostat
VDC	POTEN	0.00000E+000	T	DC &Voltage (V)
FREQINIT	QUANT	1.00000E+006	Initial Fre&q. (Hz)
FREQFINAL	QUANT	1.00000E+000	Final Fre&q. (Hz)
PTSPERDEC	QUANT	1.00000E+001	Points/&decade
VAC	QUANT	2.50000E+001	AC &Voltage (mV rms)
AREA	QUANT	1.00000E-001	&Area (cm^2)
CONDIT	TWOPARAM	T	5.00000E+000	0.00000E+000	Conditionin&g	Time(s)	E(V)
DELAY	TWOPARAM	T	5.00000E+000	0.00000E+000	Init. De&lay	Time(s)	Stab.(mV/s)
SPEED	SELECTOR	0	&Optimize for:
ZGUESS	QUANT	5.00000E+002	E&stimated Z (ohms)
OCVCURVE	TABLE	19
	Pt	T	Vf	Vm	Ach	Over
	#	s	V vs. Ref.	V	V	bits
	0	0.258333	1.69986E-003	1.69986E-003	6.44380E-004	...........
	1	0.516667	1.69292E-003	1.33658E-003	6.46313E-004	...........
	2	0.775	1.64916E-003	9.32182E-004	6.49080E-004	...........
	3	1.03333	1.52708E-003	8.34136E-004	6.47846E-004	...........
	4	1.29167	1.32619E-003	7.77391E-004	6.50413E-004	...........
	5	1.55	1.10173E-003	5.86750E-004	6.43213E-004	...........
	6	1.80833	9.05054E-004	4.13231E-004	6.50580E-004	...........
	7	2.06667	7.39851E-004	2.51429E-004	6.52246E-004	...........
	8	2.325	5.85413E-004	1.12373E-004	6.49446E-004	...........
	9	2.58333	4.27708E-004	-1.74612E-004	6.48246E-004	...........
	10	2.84167	2.59232E-004	-3.22449E-004	6.46513E-004	...........
	11	3.1	7.82880E-005	-3.97599E-004	6.50280E-004	...........
	12	3.35833	-1.01493E-004	-5.15913E-004	6.45780E-004	...........
	13	3.61667	-2.59972E-004	-5.94232E-004	6.38780E-004	...........
	14	3.875	-3.90282E-004	-7.15553E-004	6.45480E-004	...........
	15	4.13333	-4.99668E-004	-7.64182E-004	6.46180E-004	...........
	16	4.39167	-5.97308E-004	-8.86601E-004	6.47380E-004	...........
	17	4.65	-6.88674E-004	-9.44059E-004	6.39113E-004	...........
	18	4.90833	-7.76599E-004	-1.03796E-003	6.43346E-004	...........
EOC	QUANT	-0.0007766	Open Circuit (V)
PSTATMODEL	IQUANT	4	Pstat Model
PSTATSECTION	LABEL	REF600-11020	Pstat Section
PSTATSERIALNO	LABEL	11020	Pstat Serial Number
CTRLMODE	IQUANT	1	Control Mode
IESTAB	IQUANT	0	I/E Stability
CASPEED	IQUANT	1	Control Amp Speed
CONVENTION	IQUANT	1	Current Convention
ICHRANGE	IQUANT	2	Ich Range
ICHRANGEMODE	TOGGLE	F	Ich Auto Range
ICHOFFSETENABLE	TOGGLE	T	Ich Offset Enable
ICHOFFSET	QUANT	0	Ich Offset (V)
ICHFILTER	IQUANT	3	Ich Filter
VCHRANGE	IQUANT	2	Vch Range
VCHRANGEMODE	TOGGLE	F	Vch Auto Range
VCHOFFSETENABLE	TOGGLE	T	Vch Offset Enable
VCHOFFSET	QUANT	0	Vch Offset (V)
VCHFILTER	IQUANT	3	Vch Filter
ACHRANGE	IQUANT	2	Ach Range
ACHOFFSETENABLE	TOGGLE	F	Ach Offset Enable
ACHOFFSET	QUANT	0	Ach Offset (V)
ACHFILTER	IQUANT	3	Ach Filter
IERANGELOWERLIMIT	IQUANT	1	I/E Range Lower Limit
IERANGEMODE	TOGGLE	F	I/E AutoRange
IERANGE	IQUANT	6	I/E Range
POSFEEDENABLE	TOGGLE	F	Positive Feedback IR Comp
POSFEEDRESISTANCE	QUANT	0	Positive Feedback Resistance (ohm)
ACHSELECT	IQUANT	0	Ach Select
CABLEID	IQUANT	14	Cable ID
DCCALDATE	LABEL	12/22/2019	DC Calibration Date
ACCALDATE	LABEL	12/22/2019	AC Calibration Date
THERMOSELECT	IQUANT	1	Thermo Select
FRAMEWORKVERSION	QUANT	6.33	Framework Version
INSTRUMENTVERSION	LABEL	3.50	Instrument Version
ZCURVE	TABLE
	Pt	Time	Freq	Zreal	Zimag	Zsig	Zmod	Zphz	Idc	Vdc	IERange
	#	s	Hz	ohm	ohm	V	ohm	°	A	V	#
	0	1	1000078	2153.231	-2022.997	1	2954.474	-43.21383	-4.73735E-006	0.002212	8
	1	2	794390.6	2568.343	-2060.375	1	3292.648	-38.73727	-1.386088E-006	0.0017855	8
	2	2	630984.4	2982.73	-2046.791	1	3617.462	-34.45845	1.594406E-006	0.0008123	8
	3	2	501234.4	3371.065	-1953.019	1	3895.941	-30.08576	-1.335219E-006	0.0012544	8
	4	3	398109.4	3726.511	-1820.636	1	4147.481	-26.03842	1.097463E-006	0.000673	8
	5	3	316265.6	4005.188	-1663.464	1	4336.894	-22.55445	-7.575698E-007	0.0009423	8
	6	3	251203.1	4266.814	-1507.812	1	4525.396	-19.46245	-9.963616E-007	0.001123	8
	7	4	199546.9	4494.052	-1343.516	1	4690.58	-16.64425	-2.988392E-006	0.0015098	8
	8	4	158578.1	4636.396	-1182.961	1	4784.931	-14.31344	-2.478352E-006	0.0013469	8
	9	4	125953.1	4780.16	-999.586	1	4883.554	-11.81101	-2.81771E-007	0.0014731	7
	10	5	100078.1	4879.201	-888.9487	1	4959.519	-10.32555	-2.858118E-008	0.0008332	7
	11	5	79453.13	4965.623	-798.0859	1	5029.349	-9.13062	-2.856244E-008	0.0008231	7
	12	5	63140.62	5038.432	-725.5739	1	5090.408	-8.194705	-1.317752E-008	0.000795	7
	13	6	50203.12	5099.446	-670.821	1	5143.379	-7.494104	-2.833895E-008	0.000839	7
	14	6	39890.62	5152.438	-633.3224	1	5191.215	-7.007479	-1.588727E-008	0.0008035	7
	15	6	31640.63	5200.793	-614.8258	1	5237.009	-6.742083	-3.190976E-008	0.0008285	7
	16	6	25171.88	5246.475	-614.9551	1	5282.393	-6.685306	5.749775E-008	0.0007021	7
	17	7	20015.62	5292.862	-632.9775	1	5330.577	-6.819659	5.86651E-008	0.0006877	7
	18	7	15890.62	5336.052	-669.3192	1	5377.866	-7.149466	9.203682E-008	0.0006691	7
	19	7	12609.37	5381.594	-727.5677	1	5430.553	-7.699453	-1.146478E-008	0.0008313	7
	20	8	10078.13	5431.315	-803.43	1	5490.418	-8.414485	5.712112E-008	0.0006994	7
	21	8	8015.625	5476.275	-908.5378	1	5551.128	-9.41982	2.038487E-008	0.000733	7
	22	8	6328.125	5542.877	-1047.644	1	5641.014	-10.70306	-3.081117E-008	0.0008238	7
	23	9	5015.625	5605.851	-1219.678	1	5737	-12.27468	-3.052048E-008	0.0008281	7
	24	9	3984.375	5679.772	-1436.289	1	5858.561	-14.19133	-9.483257E-009	0.0008311	7
	25	9	3170.956	5759.393	-1700.053	1	6005.063	-16.4455	2.017233E-008	0.0007763	7
	26	10	2527.573	5851.738	-2019.04	1	6190.263	-19.0361	3.677779E-008	0.0006932	7
	27	10	1976.103	5966.755	-2454.19	1	6451.761	-22.35789	-1.747992E-008	0.0008696	7
	28	10	1577.524	6099.917	-2937.979	1	6770.576	-25.71744	5.99039E-008	0.0006741	7
	29	11	1265.625	6241.655	-3520.943	1	7166.261	-29.42752	-2.528224E-008	0.0008275	7
	30	11	998.264	6428.7	-4289.824	1	7728.569	-33.71489	-1.301464E-008	0.0008851	7
	31	11	796.875	6647.441	-5172.356	1	8422.692	-37.88639	-2.856753E-008	0.0008101	7
	32	12	627.7902	6927.479	-6323.625	1	9379.67	-42.39083	6.061969E-008	0.0006762	7
	33	12	505.5147	7238.385	-7603.214	1	10497.77	-46.40813	-4.081146E-009	0.0008384	6
	34	12	397.9953	7658.25	-9315.145	1	12059.05	-50.57539	9.9652E-010	0.0008019	6
	35	13	315.5048	8168.045	-11357.04	1	13989.26	-54.27611	1.54208E-009	0.000803	6
	36	13	252.4038	8776.531	-13736.72	1	16301.07	-57.42508	1.495396E-009	0.0008016	6
	37	13	198.6229	9606.88	-16851.95	1	19397.95	-60.3136	8.45898E-010	0.0008013	6
	38	14	158.3615	10586.32	-20422.68	1	23003.4	-62.59954	1.493185E-009	0.0007949	6
	39	14	125.558	11874.47	-24860.08	1	27550.44	-64.46843	1.238397E-009	0.0007985	6
	40	14	100.4464	13396.1	-30004.09	1	32858.8	-65.9404	4.075669E-010	0.000794	6
	41	14	79.00281	15505.2	-36628.32	1	39774.93	-67.0565	7.443295E-010	0.0007934	6
	42	15	63.3446	18577.61	-44218.32	1	47962.36	-67.21108	5.816587E-010	0.0007903	6
	43	15	49.86702	21930.83	-53799.03	1	58097.31	-67.82204	7.216846E-010	0.0007887	6
	44	16	39.72458	26059.53	-64412.41	1	69484.22	-67.97307	5.945205E-010	0.0007923	6
	45	16	31.6723	31372.5	-77020.91	1	83165.22	-67.83773	4.669798E-010	0.0007913	6
	46	16	24.93351	39116.3	-93079.95	1	100965.1	-67.2057	6.057493E-010	0.0007883	6
	47	17	19.86229	48401.08	-110284	1	120437.6	-66.30444	8.334912E-010	0.0007961	5
	48	17	15.83615	58615.54	-130361.4	1	142933.1	-65.78947	5.347653E-010	0.0007881	5
	49	17	12.40079	74739.51	-154831	1	171926.2	-64.23262	2.658621E-010	0.0007837	5
	50	18	9.93114	93314.55	-179049.3	1	201906.5	-62.47297	-2.08406E-010	0.00079	5
	51	18	7.944915	114059	-206882	1	236240.5	-61.131	-6.851365E-011	0.0007879	5
	52	19	6.317385	138424.6	-237522.8	1	274915.3	-59.76703	-1.258749E-010	0.0007983	5
	53	19	5.008013	168300.3	-272447.1	1	320238.1	-58.29489	-1.598218E-010	0.0007827	5
	54	21	3.945707	204010	-311345.1	1	372230.9	-56.76504	3.340025E-010	0.000787	5
	55	22	3.158693	241826.1	-350775.2	1	426055.2	-55.41743	2.444885E-010	0.0008057	5
	56	24	2.504006	287029.9	-396126.2	1	489185.2	-54.07321	4.033459E-011	0.0007886	5
	57	25	1.998082	333739.4	-442875.4	1	554545.4	-52.99927	2.320511E-010	0.0008005	5
	58	26	1.584686	388495.3	-497113.2	1	630912.1	-51.99228	3.58062E-010	0.0008324	5
	59	28	1.266892	443518.2	-556629.9	1	711719.9	-51.45245	3.129992E-010	0.0008162	5
	60	31	0.999041	507406	-626791.8	1	806429.7	-51.00883	2.829335E-010	0.0007827	5
