EXPLAIN
TAG	EISPOT
TITLE	LABEL	Potentiostatic EIS	Test &Identifier
DATE	LABEL	3/20/2020	Date
TIME	LABEL	15:28:04	Time
NOTES	NOTES	1	&Notes...
	
PSTAT	PSTAT	REF600-11020	Potentiostat
VDC	POTEN	0.00000E+000	T	DC &Voltage (V)
FREQINIT	QUANT	1.00000E+006	Initial Fre&q. (Hz)
FREQFINAL	QUANT	1.00000E+000	Final Fre&q. (Hz)
PTSPERDEC	QUANT	1.00000E+001	Points/&decade
VAC	QUANT	2.50000E+001	AC &Voltage (mV rms)
AREA	QUANT	4.00000E-004	&Area (cm^2)
CONDIT	TWOPARAM	F	5.00000E+000	0.00000E+000	Conditionin&g	Time(s)	E(V)
DELAY	TWOPARAM	T	3.00000E+000	0.00000E+000	Init. De&lay	Time(s)	Stab.(mV/s)
SPEED	SELECTOR	0	&Optimize for:
ZGUESS	QUANT	1.00000E+003	E&stimated Z (ohms)
OCVCURVE	TABLE	12
	Pt	T	Vf	Vm	Ach	Over
	#	s	V vs. Ref.	V	V	bits
	0	0.258333	1.86289E-001	1.86289E-001	5.94830E-004	...........
	1	0.516667	1.86290E-001	1.86347E-001	5.93330E-004	...........
	2	0.775	1.86295E-001	1.86329E-001	5.93730E-004	...........
	3	1.03333	1.86305E-001	1.86275E-001	5.91596E-004	...........
	4	1.29167	1.86313E-001	1.86323E-001	5.93696E-004	...........
	5	1.55	1.86313E-001	1.86286E-001	5.97063E-004	...........
	6	1.80833	1.86307E-001	1.86224E-001	5.94263E-004	...........
	7	2.06667	1.86298E-001	1.86415E-001	5.91563E-004	...........
	8	2.325	1.86303E-001	1.86722E-001	5.93296E-004	...........
	9	2.58333	1.86350E-001	1.86565E-001	5.96030E-004	...........
	10	2.84167	1.86436E-001	1.86443E-001	5.95296E-004	...........
	11	3.1	1.86507E-001	1.86372E-001	5.97263E-004	...........
EOC	QUANT	0.1865072	Open Circuit (V)
PSTATMODEL	IQUANT	4	Pstat Model
PSTATSECTION	LABEL	REF600-11020	Pstat Section
PSTATSERIALNO	LABEL	11020	Pstat Serial Number
CTRLMODE	IQUANT	1	Control Mode
IESTAB	IQUANT	0	I/E Stability
CASPEED	IQUANT	1	Control Amp Speed
CONVENTION	IQUANT	1	Current Convention
ICHRANGE	IQUANT	2	Ich Range
ICHRANGEMODE	TOGGLE	F	Ich Auto Range
ICHOFFSETENABLE	TOGGLE	T	Ich Offset Enable
ICHOFFSET	QUANT	0	Ich Offset (V)
ICHFILTER	IQUANT	3	Ich Filter
VCHRANGE	IQUANT	2	Vch Range
VCHRANGEMODE	TOGGLE	F	Vch Auto Range
VCHOFFSETENABLE	TOGGLE	T	Vch Offset Enable
VCHOFFSET	QUANT	0	Vch Offset (V)
VCHFILTER	IQUANT	3	Vch Filter
ACHRANGE	IQUANT	2	Ach Range
ACHOFFSETENABLE	TOGGLE	F	Ach Offset Enable
ACHOFFSET	QUANT	0	Ach Offset (V)
ACHFILTER	IQUANT	3	Ach Filter
IERANGELOWERLIMIT	IQUANT	1	I/E Range Lower Limit
IERANGEMODE	TOGGLE	F	I/E AutoRange
IERANGE	IQUANT	8	I/E Range
POSFEEDENABLE	TOGGLE	F	Positive Feedback IR Comp
POSFEEDRESISTANCE	QUANT	0	Positive Feedback Resistance (ohm)
ACHSELECT	IQUANT	0	Ach Select
CABLEID	IQUANT	14	Cable ID
DCCALDATE	LABEL	2/27/2020	DC Calibration Date
ACCALDATE	LABEL	2/27/2020	AC Calibration Date
THERMOSELECT	IQUANT	1	Thermo Select
FRAMEWORKVERSION	QUANT	6.33	Framework Version
INSTRUMENTVERSION	LABEL	3.50	Instrument Version
ZCURVE	TABLE
	Pt	Time	Freq	Zreal	Zimag	Zsig	Zmod	Zphz	Idc	Vdc	IERange
	#	s	Hz	ohm	ohm	V	ohm	°	A	V	#
	0	1	1000078	1643.427	-944.1628	1	1895.335	-29.87773	-3.109399E-007	0.1889055	8
	1	2	794390.6	1793.284	-938.7546	1	2024.137	-27.63131	8.208622E-007	0.1883393	8
	2	2	630984.4	1935.833	-928.9481	1	2147.183	-25.63495	-2.17989E-007	0.1882875	8
	3	2	501234.4	2075.685	-919.624	1	2270.281	-23.89555	2.894452E-007	0.1881733	8
	4	3	398109.4	2209.928	-910.9612	1	2390.321	-22.4021	1.413551E-007	0.1880941	8
	5	3	316265.6	2342.806	-900.5887	1	2509.94	-21.02706	8.509263E-008	0.1880951	8
	6	3	251203.1	2473.431	-895.1761	1	2630.437	-19.89604	2.470763E-007	0.1880657	8
	7	4	199546.9	2597.181	-887.3173	1	2744.573	-18.86255	-2.451108E-007	0.188169	8
	8	4	158578.1	2720.703	-880.7861	1	2859.722	-17.93857	-1.895939E-007	0.1881613	8
	9	4	125953.1	2861.102	-847.1311	1	2983.879	-16.49326	1.201955E-008	0.1880104	7
	10	4	100078.1	2970.187	-847.7889	1	3088.812	-15.93049	1.218379E-008	0.1880127	7
	11	5	79453.13	3083.469	-862.8726	1	3201.927	-15.63365	4.165668E-010	0.1880209	7
	12	5	63140.62	3196.557	-881.6754	1	3315.92	-15.41994	1.235446E-009	0.1880114	7
	13	5	50203.12	3310.988	-906.5807	1	3432.86	-15.31283	1.965246E-009	0.188022	7
	14	6	39890.62	3426.107	-937.8006	1	3552.137	-15.30815	2.898203E-009	0.1880057	7
	15	6	31640.63	3544.035	-977.786	1	3676.446	-15.42398	2.760661E-009	0.1880065	7
	16	6	25171.88	3663.149	-1026.889	1	3804.361	-15.65975	1.254237E-009	0.1879994	7
	17	7	20015.62	3786.878	-1086.925	1	3939.778	-16.01475	3.97651E-009	0.1880149	7
	18	7	15890.62	3912.95	-1160.098	1	4081.3	-16.51386	4.556254E-009	0.1880152	7
	19	7	12609.37	4042.779	-1249.516	1	4231.472	-17.17499	4.517175E-009	0.1879923	7
	20	8	10078.13	4172.797	-1357.23	1	4387.973	-18.01746	1.004205E-009	0.1880097	7
	21	8	8015.625	4312.106	-1491.942	1	4562.91	-19.08507	3.309253E-009	0.1880024	7
	22	8	6328.125	4464.538	-1664.681	1	4764.794	-20.44885	-4.358963E-009	0.1880087	7
	23	9	5015.625	4631.086	-1875.415	1	4996.413	-22.04609	1.20275E-009	0.1880094	7
	24	9	3984.375	4814.273	-2124.74	1	5262.295	-23.81387	6.398785E-009	0.1879885	7
	25	9	3170.956	5025.216	-2422.801	1	5578.777	-25.74005	1.44187E-008	0.1879783	7
	26	10	2527.573	5266.913	-2770.041	1	5950.924	-27.74134	4.928328E-009	0.188007	7
	27	10	1976.103	5569.985	-3203.889	1	6425.702	-29.90777	6.458808E-009	0.1879996	7
	28	10	1577.524	5892.719	-3666.203	1	6940.114	-31.88815	7.496071E-010	0.1880076	7
	29	10	1265.625	6245.056	-4175.615	1	7512.422	-33.76777	5.188793E-009	0.1880041	7
	30	11	998.264	6658.099	-4801.586	1	8208.868	-35.79781	-4.400887E-010	0.188005	7
	31	11	796.875	7085.96	-5492.342	1	8965.303	-37.77934	7.572553E-009	0.1879847	7
	32	11	627.7902	7573.372	-6364.869	1	9892.8	-40.04461	3.328014E-010	0.1880436	6
	33	12	505.5147	8035.26	-7316.67	1	10867.34	-42.32007	6.061172E-011	0.1880586	6
	34	12	397.9953	8586.914	-8594.924	1	12149.4	-45.02671	5.464046E-010	0.1880621	6
	35	12	315.5048	9180.385	-10130.57	1	13671.42	-47.81693	5.221246E-010	0.1880594	6
	36	13	252.4038	9837.71	-11945.29	1	15474.83	-50.52636	4.442191E-010	0.1880539	6
	37	13	198.6229	10681.52	-14342.52	1	17883.03	-53.3233	4.981423E-010	0.1880531	6
	38	13	158.3615	11660.79	-17117.02	1	20711.5	-55.73576	3.528677E-010	0.188056	6
	39	14	125.558	12921.25	-20563.13	1	24285.81	-57.85599	2.949614E-010	0.1880583	6
	40	14	100.4464	14462.45	-24537.1	1	28482.13	-59.48441	4.073689E-010	0.1880562	6
	41	14	79.00281	16594.21	-29649.78	1	33977.6	-60.7654	2.876017E-010	0.188055	6
	42	15	63.3446	19076.26	-35216.36	1	40051.16	-61.55615	3.233802E-010	0.1880513	6
	43	15	49.86702	22531.32	-42258.32	1	47889.73	-61.93431	1.281949E-010	0.1880503	6
	44	15	39.72458	26698.64	-50022.71	1	56701.76	-61.9098	1.118544E-009	0.1880539	6
	45	16	31.6723	31856.7	-58878.16	1	66943.91	-61.58389	7.625258E-010	0.1880538	6
	46	16	24.93351	38610.77	-69476.1	1	79484.09	-60.93724	-1.567226E-010	0.1880444	6
	47	16	19.86229	46399.63	-80790.59	1	93166.77	-60.1304	3.198842E-010	0.1880493	6
	48	17	15.83615	55624.37	-93263.25	1	108591.5	-59.18717	-6.095002E-010	0.188054	5
	49	17	12.40079	67365.88	-108175	1	127436.2	-58.08744	-1.617459E-009	0.1880568	5
	50	17	9.93114	79294.69	-122888.1	1	146250.3	-57.1675	-1.40356E-009	0.1880537	5
	51	18	7.944915	92360.91	-139745.9	1	167509.6	-56.53848	-7.288555E-010	0.1880605	5
	52	18	6.317385	107271.2	-158707.2	1	191559.6	-55.94499	-8.448733E-011	0.1880554	5
	53	19	5.008013	123515.3	-181055.2	1	219173.5	-55.69831	-3.877892E-010	0.1880436	5
	54	20	3.945707	141773.5	-208213.8	1	251898.2	-55.74891	-2.728325E-010	0.1880561	5
	55	21	3.158693	159884.1	-238259.8	1	286933.3	-56.13643	-2.233882E-010	0.1880377	5
	56	22	2.504006	181441.6	-276034.1	1	330326.9	-56.68244	1.974213E-010	0.1880431	5
	57	23	1.998082	204739.1	-319717.5	1	379654.3	-57.36552	-5.442213E-012	0.1880462	5
	58	24	1.584686	234335.2	-374388.5	1	441678.3	-57.95695	-1.137171E-010	0.1880035	5
	59	26	1.266892	267348.9	-437881.8	1	513045.7	-58.59383	-1.059346E-010	0.18801	5
	60	29	0.999041	310045.4	-516166.4	1	602126.2	-59.00805	-1.110997E-010	0.1880339	5
