EXPLAIN
TAG	EISPOT
TITLE	LABEL	Potentiostatic EIS	Test &Identifier
DATE	LABEL	6/26/2020	Date
TIME	LABEL	13:04:32	Time
NOTES	NOTES	1	&Notes...
	
PSTAT	PSTAT	REF600-11020	Potentiostat
VDC	POTEN	0.00000E+000	T	DC &Voltage (V)
FREQINIT	QUANT	1.00000E+006	Initial Fre&q. (Hz)
FREQFINAL	QUANT	1.00000E+000	Final Fre&q. (Hz)
PTSPERDEC	QUANT	1.00000E+001	Points/&decade
VAC	QUANT	2.50000E+001	AC &Voltage (mV rms)
AREA	QUANT	4.00000E-004	&Area (cm^2)
CONDIT	TWOPARAM	F	5.00000E+000	0.00000E+000	Conditionin&g	Time(s)	E(V)
DELAY	TWOPARAM	F	3.00000E+000	0.00000E+000	Init. De&lay	Time(s)	Stab.(mV/s)
SPEED	SELECTOR	0	&Optimize for:
ZGUESS	QUANT	1.00000E+003	E&stimated Z (ohms)
OCVCURVE	TABLE	39
	Pt	T	Vf	Vm	Ach	Over
	#	s	V vs. Ref.	V	V	bits
	0	0.258333	1.10059E-001	1.10059E-001	5.06617E-004	...........
	1	0.516667	1.10059E-001	1.10046E-001	5.05484E-004	...........
	2	0.775	1.10057E-001	1.10034E-001	5.10550E-004	...........
	3	1.03333	1.10053E-001	1.10018E-001	5.03517E-004	...........
	4	1.29167	1.10045E-001	1.10005E-001	5.06184E-004	...........
	5	1.55	1.10033E-001	1.09989E-001	5.05784E-004	...........
	6	1.80833	1.10020E-001	1.09979E-001	5.04017E-004	...........
	7	2.06667	1.10006E-001	1.09966E-001	5.05850E-004	...........
	8	2.325	1.09992E-001	1.09952E-001	4.98984E-004	...........
	9	2.58333	1.09979E-001	1.09943E-001	4.98117E-004	...........
	10	2.84167	1.09967E-001	1.09925E-001	5.03250E-004	...........
	11	3.1	1.09954E-001	1.09913E-001	5.02950E-004	...........
	12	3.35833	1.09941E-001	1.09903E-001	5.05217E-004	...........
	13	3.61667	1.09928E-001	1.09889E-001	5.01450E-004	...........
	14	3.875	1.09915E-001	1.09877E-001	5.01484E-004	...........
	15	4.13333	1.09903E-001	1.09863E-001	4.99417E-004	...........
	16	4.39167	1.09890E-001	1.09854E-001	5.04917E-004	...........
	17	4.65	1.09878E-001	1.09839E-001	5.03817E-004	...........
	18	4.90833	1.09865E-001	1.09830E-001	5.05117E-004	...........
	19	5.16667	1.09853E-001	1.09813E-001	5.08784E-004	...........
	20	5.425	1.09841E-001	1.09804E-001	5.07017E-004	...........
	21	5.68333	1.09829E-001	1.09789E-001	5.04050E-004	...........
	22	5.94167	1.09816E-001	1.09782E-001	5.07750E-004	...........
	23	6.2	1.09804E-001	1.09769E-001	5.01617E-004	...........
	24	6.45833	1.09793E-001	1.09759E-001	5.06517E-004	...........
	25	6.71667	1.09781E-001	1.09747E-001	5.05850E-004	...........
	26	6.975	1.09770E-001	1.09734E-001	5.05084E-004	...........
	27	7.23333	1.09759E-001	1.09721E-001	5.01817E-004	...........
	28	7.49167	1.09747E-001	1.09707E-001	5.04084E-004	...........
	29	7.75	1.09735E-001	1.09696E-001	5.01717E-004	...........
	30	8.00833	1.09722E-001	1.09685E-001	5.08017E-004	...........
	31	8.26667	1.09710E-001	1.09674E-001	5.06750E-004	...........
	32	8.525	1.09698E-001	1.09662E-001	5.09450E-004	...........
	33	8.78333	1.09686E-001	1.09652E-001	5.08784E-004	...........
	34	9.04167	1.09675E-001	1.09640E-001	5.09850E-004	...........
	35	9.3	1.09663E-001	1.09629E-001	5.08383E-004	...........
	36	9.5583	1.09652E-001	1.09618E-001	5.13717E-004	...........
	37	9.8167	1.09641E-001	1.09607E-001	5.07550E-004	...........
	38	10.075	1.09630E-001	1.09596E-001	5.08584E-004	...........
EOC	QUANT	0.1096299	Open Circuit (V)
PSTATMODEL	IQUANT	4	Pstat Model
PSTATSECTION	LABEL	REF600-11020	Pstat Section
PSTATSERIALNO	LABEL	11020	Pstat Serial Number
CTRLMODE	IQUANT	1	Control Mode
IESTAB	IQUANT	0	I/E Stability
CASPEED	IQUANT	1	Control Amp Speed
CONVENTION	IQUANT	1	Current Convention
ICHRANGE	IQUANT	2	Ich Range
ICHRANGEMODE	TOGGLE	F	Ich Auto Range
ICHOFFSETENABLE	TOGGLE	T	Ich Offset Enable
ICHOFFSET	QUANT	0	Ich Offset (V)
ICHFILTER	IQUANT	3	Ich Filter
VCHRANGE	IQUANT	2	Vch Range
VCHRANGEMODE	TOGGLE	F	Vch Auto Range
VCHOFFSETENABLE	TOGGLE	T	Vch Offset Enable
VCHOFFSET	QUANT	0	Vch Offset (V)
VCHFILTER	IQUANT	3	Vch Filter
ACHRANGE	IQUANT	2	Ach Range
ACHOFFSETENABLE	TOGGLE	F	Ach Offset Enable
ACHOFFSET	QUANT	0	Ach Offset (V)
ACHFILTER	IQUANT	3	Ach Filter
IERANGELOWERLIMIT	IQUANT	1	I/E Range Lower Limit
IERANGEMODE	TOGGLE	F	I/E AutoRange
IERANGE	IQUANT	8	I/E Range
POSFEEDENABLE	TOGGLE	F	Positive Feedback IR Comp
POSFEEDRESISTANCE	QUANT	0	Positive Feedback Resistance (ohm)
ACHSELECT	IQUANT	0	Ach Select
CABLEID	IQUANT	14	Cable ID
DCCALDATE	LABEL	6/26/2020	DC Calibration Date
ACCALDATE	LABEL	6/26/2020	AC Calibration Date
THERMOSELECT	IQUANT	1	Thermo Select
FRAMEWORKVERSION	QUANT	6.33	Framework Version
INSTRUMENTVERSION	LABEL	3.50	Instrument Version
ZCURVE	TABLE
	Pt	Time	Freq	Zreal	Zimag	Zsig	Zmod	Zphz	Idc	Vdc	IERange
	#	s	Hz	ohm	ohm	V	ohm	°	A	V	#
	0	1	1000078	1552.682	-2223.222	1	2711.741	-55.06983	-2.509055E-007	0.1122818	8
	1	1	794390.6	1836.041	-2506.4	1	3106.942	-53.77569	1.480085E-007	0.1118812	8
	2	2	630984.4	2150.546	-2819.669	1	3546.178	-52.66743	8.691441E-008	0.1117168	8
	3	2	501234.4	2497.992	-3171.091	1	4036.803	-51.77112	3.881388E-008	0.1115827	8
	4	2	398109.4	2893.912	-3577.278	1	4601.265	-51.02817	7.679837E-008	0.1115179	8
	5	3	316265.6	3349.032	-4049.414	1	5254.88	-50.40785	-4.770408E-008	0.111482	8
	6	3	251203.1	3886.621	-4562.823	1	5993.761	-49.57558	-5.103563E-008	0.1114569	8
	7	3	199546.9	4519.122	-5119.917	1	6829.057	-48.5666	7.334652E-008	0.1114616	8
	8	4	158578.1	5285.858	-5743.922	1	7805.956	-47.37811	1.057767E-007	0.1114698	8
	9	4	125953.1	6289.695	-6355.559	1	8941.666	-45.29842	-3.081064E-008	0.1114162	7
	10	4	100078.1	7383.441	-6987.458	1	10165.62	-43.42164	-2.947376E-008	0.1114308	7
	11	5	79453.13	8627.158	-7548.314	1	11463.2	-41.18423	1.769158E-008	0.1114196	7
	12	5	63140.62	10028.85	-8017.843	1	12839.93	-38.64155	5.820757E-009	0.1113699	7
	13	5	50203.12	11540.64	-8298.104	1	14214.25	-35.7174	3.038098E-008	0.1113875	7
	14	5	39890.62	13123.49	-8405.29	1	15584.44	-32.63862	3.415071E-008	0.1113686	7
	15	6	31640.63	14721.65	-8310.094	1	16905.17	-29.44391	-3.29125E-008	0.1114469	7
	16	6	25171.88	16217.16	-8036.762	1	18099.33	-26.36171	-3.492495E-008	0.1114248	7
	17	6	20015.62	17585.13	-7607.984	1	19160.32	-23.39512	1.782681E-010	0.1114283	7
	18	7	15890.62	18825.66	-7095.409	1	20118.4	-20.65148	1.061453E-008	0.1114112	7
	19	7	12609.37	20063.29	-6323.248	1	21036.13	-17.49303	5.794992E-009	0.1113252	6
	20	7	10078.13	20911.02	-5776.61	1	21694.24	-15.44266	5.699514E-009	0.1113253	6
	21	8	8015.625	21640.39	-5249.059	1	22267.89	-13.63426	-4.003903E-009	0.1114771	6
	22	8	6328.125	22259.64	-4768.666	1	22764.71	-12.09166	-4.008121E-009	0.111471	6
	23	8	5015.625	22742.57	-4360.464	1	23156.82	-10.85368	-6.155046E-010	0.1114462	6
	24	9	3984.375	23120.16	-4058.19	1	23473.62	-9.95549	2.132005E-010	0.1113376	6
	25	9	3170.956	23448.1	-3870.753	1	23765.44	-9.373707	-1.700013E-009	0.1113583	6
	26	9	2527.573	23705.55	-3801.375	1	24008.41	-9.110275	1.654792E-009	0.1113142	6
	27	10	1976.103	23953.15	-3869.437	1	24263.68	-9.176394	-2.52652E-009	0.1114561	6
	28	10	1577.524	24149.83	-4076.858	1	24491.53	-9.58206	-5.741461E-009	0.1114419	6
	29	10	1265.625	24340.83	-4429.764	1	24740.63	-10.31432	4.162614E-009	0.1113732	6
	30	11	998.264	24548.14	-4991.217	1	25050.41	-11.49292	5.540811E-009	0.1113345	6
	31	11	796.875	24758.44	-5719.368	1	25410.46	-13.00754	-3.476166E-009	0.111381	6
	32	11	627.7902	25049	-6731.352	1	25937.69	-15.04159	5.132253E-009	0.1113052	6
	33	11	505.5147	25350.17	-7888.174	1	26549.1	-17.28449	4.071359E-009	0.1112987	6
	34	12	397.9953	25725.96	-9501.7	1	27424.58	-20.27135	2.443817E-010	0.1114147	6
	35	12	315.5048	26210.7	-11437.79	1	28597.62	-23.57542	1.714913E-010	0.1114094	6
	36	12	252.4038	26770.18	-13716.85	1	30079.81	-27.13028	6.358844E-011	0.1114085	6
	37	13	198.6229	27540.48	-16715.9	1	32216.44	-31.25597	-7.275879E-011	0.1114126	6
	38	13	158.3615	28466.78	-20184.34	1	34896.49	-35.33851	-7.68207E-012	0.1114024	6
	39	13	125.558	29669.3	-24510.78	1	38484.36	-39.56123	-3.082469E-011	0.1114076	6
	40	14	100.4464	31163.44	-29551.97	1	42947.39	-43.47964	1.628714E-010	0.1114041	6
	41	14	79.00281	33301.95	-36133.67	1	49139.21	-47.33534	1.474376E-011	0.1114009	6
	42	14	63.3446	35860.28	-43431.42	1	56322.71	-50.45433	-4.449206E-011	0.111396	6
	43	15	49.86702	39524.12	-52837.84	1	65984.8	-53.20253	6.903865E-011	0.1113951	6
	44	15	39.72458	44134.88	-63434.41	1	77277.5	-55.1715	1.03082E-011	0.1113999	6
	45	15	31.6723	50083.84	-75777.81	1	90833.19	-56.53808	-2.108094E-010	0.1113976	6
	46	16	24.93351	58173.14	-90718.62	1	107768.2	-57.33006	5.502992E-010	0.1113835	5
	47	16	19.86229	67994.51	-107113.3	1	126872	-57.59301	2.49132E-010	0.1113878	5
	48	16	15.83615	80275.45	-125295.3	1	148805.5	-57.35272	1.051427E-009	0.1113812	5
	49	17	12.40079	96557.6	-147132.9	1	175987.1	-56.72467	1.668506E-009	0.111379	5
	50	17	9.93114	113824.5	-168844.9	1	203628.6	-56.01467	1.232292E-009	0.1113891	5
	51	17	7.944915	134707.1	-192767.4	1	235170.8	-55.0539	-5.01118E-010	0.1113875	5
	52	18	6.317385	159276.4	-218914.2	1	270725.7	-53.96132	6.614189E-010	0.1113712	5
	53	18	5.008013	187955.8	-247591.3	1	310851.8	-52.7965	2.825563E-010	0.1113793	5
	54	19	3.945707	219986.4	-279595.3	1	355763.3	-51.80423	-3.036426E-010	0.1113758	5
	55	20	3.158693	253124	-311283.1	1	401209.3	-50.88326	2.060108E-010	0.1113637	5
	56	21	2.504006	289679.5	-348640.4	1	453281.8	-50.27737	2.901433E-010	0.1113649	5
	57	23	1.998082	327676.9	-388440.8	1	508191.3	-49.85003	-2.886721E-011	0.1113263	5
	58	24	1.584686	368566.2	-437806.3	1	572289.7	-49.90773	-6.815076E-011	0.1113284	5
	59	26	1.266892	409392.3	-492149.6	1	640166.6	-50.24479	2.206177E-011	0.1113602	5
	60	29	0.999041	456894.8	-560698.8	1	723281.4	-50.82455	7.796451E-011	0.1113881	5
