EXPLAIN
TAG	EISPOT
TITLE	LABEL	Potentiostatic EIS	Test &Identifier
DATE	LABEL	2/18/2020	Date
TIME	LABEL	15:17:26	Time
NOTES	NOTES	1	&Notes...
	
PSTAT	PSTAT	REF600-11020	Potentiostat
VDC	POTEN	0.00000E+000	T	DC &Voltage (V)
FREQINIT	QUANT	1.00000E+006	Initial Fre&q. (Hz)
FREQFINAL	QUANT	1.00000E+000	Final Fre&q. (Hz)
PTSPERDEC	QUANT	1.00000E+001	Points/&decade
VAC	QUANT	2.50000E+001	AC &Voltage (mV rms)
AREA	QUANT	1.60000E-004	&Area (cm^2)
CONDIT	TWOPARAM	F	1.50000E+001	0.00000E+000	Conditionin&g	Time(s)	E(V)
DELAY	TWOPARAM	F	1.00000E+002	0.00000E+000	Init. De&lay	Time(s)	Stab.(mV/s)
SPEED	SELECTOR	1	&Optimize for:
ZGUESS	QUANT	1.00000E+003	E&stimated Z (ohms)
OCVCURVE	TABLE	39
	Pt	T	Vf	Vm	Ach	Over
	#	s	V vs. Ref.	V	V	bits
	0	0.258333	-4.04963E-002	-4.04963E-002	5.66804E-004	...........
	1	0.516667	-4.04935E-002	-4.03527E-002	5.66471E-004	...........
	2	0.775	-4.04768E-002	-4.02214E-002	5.66038E-004	...........
	3	1.03333	-4.04320E-002	-4.02173E-002	5.62638E-004	...........
	4	1.29167	-4.03623E-002	-4.01924E-002	5.67004E-004	...........
	5	1.55	-4.02894E-002	-4.01406E-002	5.68271E-004	...........
	6	1.80833	-4.02292E-002	-4.00612E-002	5.68704E-004	...........
	7	2.06667	-4.01785E-002	-3.99903E-002	5.73138E-004	...........
	8	2.325	-4.01244E-002	-3.98637E-002	5.70771E-004	...........
	9	2.58333	-4.00568E-002	-3.97341E-002	5.72738E-004	...........
	10	2.84167	-3.99701E-002	-3.96136E-002	5.72804E-004	...........
	11	3.1	-3.98654E-002	-3.95068E-002	5.74537E-004	...........
	12	3.35833	-3.97495E-002	-3.93765E-002	5.72204E-004	...........
	13	3.61667	-3.96294E-002	-3.92431E-002	5.70871E-004	...........
	14	3.875	-3.95080E-002	-3.91486E-002	5.73138E-004	...........
	15	4.13333	-3.93873E-002	-3.90718E-002	5.67404E-004	...........
	16	4.39167	-3.92731E-002	-3.89876E-002	5.67971E-004	...........
	17	4.65	-3.91701E-002	-3.88985E-002	5.73704E-004	...........
	18	4.90833	-3.90773E-002	-3.88074E-002	5.69371E-004	...........
	19	5.16667	-3.89896E-002	-3.87125E-002	5.68871E-004	...........
	20	5.425	-3.89019E-002	-3.86220E-002	5.66438E-004	...........
	21	5.68333	-3.88124E-002	-3.85326E-002	5.72071E-004	...........
	22	5.94167	-3.87214E-002	-3.84405E-002	5.68504E-004	...........
	23	6.2	-3.86304E-002	-3.83659E-002	5.73004E-004	...........
	24	6.45833	-3.85420E-002	-3.83354E-002	5.71804E-004	...........
	25	6.71667	-3.84612E-002	-3.82836E-002	5.75104E-004	...........
	26	6.975	-3.83919E-002	-3.81946E-002	5.68638E-004	...........
	27	7.23333	-3.83300E-002	-3.80927E-002	5.68504E-004	...........
	28	7.49167	-3.82646E-002	-3.79941E-002	5.69704E-004	...........
	29	7.75	-3.81878E-002	-3.79020E-002	5.70404E-004	...........
	30	8.00833	-3.81001E-002	-3.78147E-002	5.71204E-004	...........
	31	8.26667	-3.80070E-002	-3.77308E-002	5.69604E-004	...........
	32	8.525	-3.79143E-002	-3.76441E-002	5.68804E-004	...........
	33	8.78333	-3.78243E-002	-3.75619E-002	5.69838E-004	...........
	34	9.04167	-3.77374E-002	-3.74855E-002	5.68571E-004	...........
	35	9.3	-3.76529E-002	-3.74019E-002	5.66904E-004	...........
	36	9.5583	-3.75705E-002	-3.73190E-002	5.65104E-004	...........
	37	9.8167	-3.74891E-002	-3.72368E-002	5.64904E-004	...........
	38	10.075	-3.74077E-002	-3.71597E-002	5.65004E-004	...........
EOC	QUANT	-0.0374077	Open Circuit (V)
PSTATMODEL	IQUANT	4	Pstat Model
PSTATSECTION	LABEL	REF600-11020	Pstat Section
PSTATSERIALNO	LABEL	11020	Pstat Serial Number
CTRLMODE	IQUANT	1	Control Mode
IESTAB	IQUANT	0	I/E Stability
CASPEED	IQUANT	1	Control Amp Speed
CONVENTION	IQUANT	1	Current Convention
ICHRANGE	IQUANT	2	Ich Range
ICHRANGEMODE	TOGGLE	F	Ich Auto Range
ICHOFFSETENABLE	TOGGLE	T	Ich Offset Enable
ICHOFFSET	QUANT	0	Ich Offset (V)
ICHFILTER	IQUANT	3	Ich Filter
VCHRANGE	IQUANT	2	Vch Range
VCHRANGEMODE	TOGGLE	F	Vch Auto Range
VCHOFFSETENABLE	TOGGLE	T	Vch Offset Enable
VCHOFFSET	QUANT	0	Vch Offset (V)
VCHFILTER	IQUANT	3	Vch Filter
ACHRANGE	IQUANT	2	Ach Range
ACHOFFSETENABLE	TOGGLE	F	Ach Offset Enable
ACHOFFSET	QUANT	0	Ach Offset (V)
ACHFILTER	IQUANT	3	Ach Filter
IERANGELOWERLIMIT	IQUANT	1	I/E Range Lower Limit
IERANGEMODE	TOGGLE	F	I/E AutoRange
IERANGE	IQUANT	7	I/E Range
POSFEEDENABLE	TOGGLE	F	Positive Feedback IR Comp
POSFEEDRESISTANCE	QUANT	0	Positive Feedback Resistance (ohm)
ACHSELECT	IQUANT	0	Ach Select
CABLEID	IQUANT	14	Cable ID
DCCALDATE	LABEL	1/27/2020	DC Calibration Date
ACCALDATE	LABEL	1/27/2020	AC Calibration Date
THERMOSELECT	IQUANT	1	Thermo Select
FRAMEWORKVERSION	QUANT	6.33	Framework Version
INSTRUMENTVERSION	LABEL	3.50	Instrument Version
ZCURVE	TABLE
	Pt	Time	Freq	Zreal	Zimag	Zsig	Zmod	Zphz	Idc	Vdc	IERange
	#	s	Hz	ohm	ohm	V	ohm	°	A	V	#
	0	1	1000078	1801.881	-1826.977	1	2566.052	-45.39622	-1.203647E-007	-0.0354124	8
	1	3	794390.6	2148.63	-1919.865	1	2881.405	-41.78175	8.73123E-007	-0.0356136	8
	2	4	630984.4	2522.026	-1982.648	1	3208.039	-38.17206	8.276434E-007	-0.0358727	8
	3	5	501234.4	2889.517	-1992.805	1	3510.068	-34.59276	4.24093E-007	-0.0359587	8
	4	7	398109.4	3274.23	-1971.302	1	3821.86	-31.05071	1.831318E-006	-0.0362485	8
	5	8	316265.6	3631.444	-1900.097	1	4098.506	-27.62012	-1.994905E-006	-0.0354873	8
	6	10	251203.1	3966.246	-1779.331	1	4347.083	-24.16189	7.287816E-007	-0.0361157	8
	7	11	199546.9	4247.314	-1653.536	1	4557.835	-21.27162	1.497638E-006	-0.036256	8
	8	12	158578.1	4489.629	-1503.268	1	4734.615	-18.51216	-3.240872E-007	-0.0358799	8
	9	14	125953.1	4727.641	-1329.55	1	4911.038	-15.70752	4.508303E-007	-0.0365838	7
	10	15	100078.1	4898.199	-1187.635	1	5040.122	-13.62913	3.119094E-008	-0.036068	7
	11	16	79453.13	5033.133	-1065.079	1	5144.592	-11.94829	-2.017073E-008	-0.0359754	7
	12	18	63140.62	5144.88	-960.221	1	5233.719	-10.57184	-8.830355E-011	-0.0360143	7
	13	19	50203.12	5237.465	-877.5728	1	5310.478	-9.51194	-1.050847E-008	-0.0359755	7
	14	20	39890.62	5319.08	-813.5731	1	5380.939	-8.696206	1.93612E-008	-0.035985	7
	15	22	31640.63	5390.903	-771.776	1	5445.867	-8.147257	4.97841E-008	-0.0360523	7
	16	23	25171.88	5455.931	-751.5907	1	5507.456	-7.843508	-1.565292E-008	-0.0359876	7
	17	24	20015.62	5519	-749.6893	1	5569.686	-7.73559	-2.383407E-010	-0.0360195	7
	18	26	15890.62	5583.364	-769.7625	1	5636.177	-7.849721	4.949501E-008	-0.0360488	7
	19	27	12609.37	5646.818	-810.3013	1	5704.66	-8.166025	6.357886E-009	-0.0360587	7
	20	28	10078.13	5713.028	-868.1913	1	5778.62	-8.640949	-7.162705E-009	-0.0359907	7
	21	30	8015.625	5782.934	-950.908	1	5860.593	-9.337781	1.941278E-008	-0.0359928	7
	22	31	6328.125	5861.042	-1065.528	1	5957.11	-10.30375	4.948718E-008	-0.036057	7
	23	32	5015.625	5942.51	-1208.734	1	6064.195	-11.49738	-1.551892E-008	-0.0359932	7
	24	34	3984.375	6034.675	-1386.014	1	6191.796	-12.93507	8.188382E-009	-0.035981	7
	25	35	3170.956	6133.173	-1604.229	1	6339.508	-14.65823	-1.075733E-008	-0.0359895	7
	26	36	2527.573	6243.353	-1866.403	1	6516.358	-16.64364	-1.527215E-008	-0.0359961	7
	27	38	1976.103	6379.23	-2221.869	1	6755.093	-19.20309	-7.793003E-009	-0.0360052	7
	28	39	1577.524	6516.46	-2615.796	1	7021.869	-21.8712	-1.906032E-008	-0.035999	7
	29	41	1265.625	6674.229	-3089.863	1	7354.766	-24.84198	-1.077092E-008	-0.03598	7
	30	42	998.264	6861.245	-3706.935	1	7798.592	-28.38109	-1.508292E-008	-0.0360014	7
	31	43	796.875	7075.729	-4425.602	1	8345.771	-32.02443	-9.305241E-009	-0.03603	7
	32	45	627.7902	7339.175	-5356.163	1	9085.812	-36.12214	2.679726E-008	-0.0360638	7
	33	46	505.5147	7618.622	-6387.469	1	9941.99	-39.97654	4.250627E-009	-0.036056	6
	34	47	397.9953	7994.2	-7775.106	1	11151.66	-44.204	8.809508E-010	-0.0360024	6
	35	49	315.5048	8437.232	-9423.704	1	12648.84	-48.16127	1.350171E-009	-0.0360016	6
	36	50	252.4038	8955.997	-11347.01	1	14455.6	-51.71658	8.282698E-010	-0.0360048	6
	37	51	198.6229	9644.61	-13860.17	1	16885.58	-55.16785	1.210746E-009	-0.0360096	6
	38	53	158.3615	10452.33	-16744.5	1	19739.03	-58.02658	7.116502E-010	-0.0360125	6
	39	54	125.558	11475.9	-20324.62	1	23340.67	-60.5496	9.816509E-010	-0.0360106	6
	40	55	100.4464	12696.25	-24467.58	1	27565.51	-62.57516	4.935489E-010	-0.0360131	6
	41	57	79.00281	14306.83	-29901.57	1	33147.99	-64.43056	1.063778E-009	-0.036012	6
	42	58	63.3446	16268.48	-35733.2	1	39262.26	-65.52135	8.966754E-010	-0.0360126	6
	43	60	49.86702	18624.45	-43852.36	1	47643.46	-66.98869	1.132802E-009	-0.0360178	6
	44	61	39.72458	21542.99	-52710.75	1	56943.16	-67.77007	1.298447E-009	-0.0360088	6
	45	62	31.6723	25249.77	-63601.32	1	68430.1	-68.34689	7.150004E-010	-0.0360102	6
	46	64	24.93351	30363.26	-77244.05	1	82997.42	-68.5411	6.807677E-010	-0.0360055	6
	47	65	19.86229	36635.09	-92962.8	1	99921	-68.49142	4.0095E-010	-0.0360031	6
	48	66	15.83615	44319.05	-110767.5	1	119304.8	-68.19322	-3.796095E-011	-0.036008	5
	49	68	12.40079	55960.01	-135236.9	1	146357.5	-67.52059	-3.971799E-010	-0.0360152	5
	50	69	9.93114	69256.2	-159522.3	1	173907.4	-66.53204	3.827337E-010	-0.0360123	5
	51	71	7.944915	86213.45	-187424.3	1	206302.3	-65.29801	-5.676264E-010	-0.0360043	5
	52	72	6.317385	107738.3	-219989.7	1	244955.1	-63.90704	-4.004036E-010	-0.0359893	5
	53	74	5.008013	134764.9	-256380.4	1	289642	-62.2716	3.6336E-010	-0.0359959	5
	54	77	3.945707	168843.1	-297143.7	1	341763.6	-60.39388	-8.999011E-011	-0.0360105	5
	55	80	3.158693	205335.3	-337927.3	1	395420.6	-58.71581	1.747187E-010	-0.035985	5
	56	83	2.504006	249564	-383882.6	1	457873.3	-56.9719	-3.819101E-010	-0.0360116	5
	57	86	1.998082	296581.1	-430669.4	1	522911.6	-55.44671	-1.454538E-010	-0.0360469	5
	58	89	1.584686	348672.3	-482028.9	1	594915.3	-54.12017	-9.731476E-011	-0.0359768	5
	59	92	1.266892	402428.4	-539811.3	1	673308.9	-53.29554	-2.003635E-010	-0.0360343	5
	60	97	0.999041	463902.5	-608811.1	1	765412.6	-52.69328	2.711532E-010	-0.0359809	5
