EXPLAIN
TAG	EISPOT
TITLE	LABEL	Potentiostatic EIS	Test &Identifier
DATE	LABEL	7/13/2020	Date
TIME	LABEL	20:17:09	Time
NOTES	NOTES	1	&Notes...
	
PSTAT	PSTAT	REF600-11020	Potentiostat
VDC	POTEN	0.00000E+000	T	DC &Voltage (V)
FREQINIT	QUANT	1.00000E+006	Initial Fre&q. (Hz)
FREQFINAL	QUANT	1.00000E+000	Final Fre&q. (Hz)
PTSPERDEC	QUANT	1.00000E+001	Points/&decade
VAC	QUANT	2.50000E+001	AC &Voltage (mV rms)
AREA	QUANT	4.00000E-004	&Area (cm^2)
CONDIT	TWOPARAM	F	5.00000E+000	0.00000E+000	Conditionin&g	Time(s)	E(V)
DELAY	TWOPARAM	F	3.00000E+000	0.00000E+000	Init. De&lay	Time(s)	Stab.(mV/s)
SPEED	SELECTOR	0	&Optimize for:
ZGUESS	QUANT	1.00000E+003	E&stimated Z (ohms)
OCVCURVE	TABLE	39
	Pt	T	Vf	Vm	Ach	Over
	#	s	V vs. Ref.	V	V	bits
	0	0.258333	1.73690E-001	1.73690E-001	5.23417E-004	...........
	1	0.516667	1.73691E-001	1.73705E-001	5.25517E-004	...........
	2	0.775	1.73696E-001	1.73903E-001	5.22283E-004	...........
	3	1.03333	1.73717E-001	1.73793E-001	5.25017E-004	...........
	4	1.29167	1.73752E-001	1.73692E-001	5.31917E-004	...........
	5	1.55	1.73775E-001	1.73663E-001	5.30450E-004	...........
	6	1.80833	1.73765E-001	1.73639E-001	5.30716E-004	...........
	7	2.06667	1.73726E-001	1.73538E-001	5.26717E-004	...........
	8	2.325	1.73676E-001	1.73580E-001	5.28850E-004	...........
	9	2.58333	1.73629E-001	1.73549E-001	5.26450E-004	...........
	10	2.84167	1.73591E-001	1.73526E-001	5.24417E-004	...........
	11	3.1	1.73565E-001	1.73492E-001	5.25917E-004	...........
	12	3.35833	1.73544E-001	1.73478E-001	5.25383E-004	...........
	13	3.61667	1.73523E-001	1.73459E-001	5.30050E-004	...........
	14	3.875	1.73501E-001	1.73444E-001	5.25317E-004	...........
	15	4.13333	1.73480E-001	1.73423E-001	5.24417E-004	...........
	16	4.39167	1.73461E-001	1.73411E-001	5.26783E-004	...........
	17	4.65	1.73444E-001	1.73393E-001	5.29150E-004	...........
	18	4.90833	1.73427E-001	1.73381E-001	5.24550E-004	...........
	19	5.16667	1.73411E-001	1.73365E-001	5.27050E-004	...........
	20	5.425	1.73396E-001	1.73352E-001	5.23550E-004	...........
	21	5.68333	1.73381E-001	1.73341E-001	5.23683E-004	...........
	22	5.94167	1.73367E-001	1.73324E-001	5.23283E-004	...........
	23	6.2	1.73353E-001	1.73313E-001	5.21017E-004	...........
	24	6.45833	1.73340E-001	1.73296E-001	5.21650E-004	...........
	25	6.71667	1.73326E-001	1.73285E-001	5.24017E-004	...........
	26	6.975	1.73313E-001	1.73274E-001	5.26417E-004	...........
	27	7.23333	1.73299E-001	1.73257E-001	5.18983E-004	...........
	28	7.49167	1.73286E-001	1.73247E-001	5.25883E-004	...........
	29	7.75	1.73273E-001	1.73238E-001	5.28550E-004	...........
	30	8.00833	1.73261E-001	1.73226E-001	5.26317E-004	...........
	31	8.26667	1.73249E-001	1.73214E-001	5.24650E-004	...........
	32	8.525	1.73237E-001	1.73194E-001	5.26817E-004	...........
	33	8.78333	1.73226E-001	1.73190E-001	5.30450E-004	...........
	34	9.04167	1.73213E-001	1.73169E-001	5.29850E-004	...........
	35	9.3	1.73200E-001	1.73172E-001	5.28183E-004	...........
	36	9.5583	1.73187E-001	1.73132E-001	5.30050E-004	...........
	37	9.8167	1.73175E-001	1.73132E-001	5.26450E-004	...........
	38	10.075	1.73160E-001	1.73128E-001	5.33617E-004	...........
EOC	QUANT	0.1731604	Open Circuit (V)
PSTATMODEL	IQUANT	4	Pstat Model
PSTATSECTION	LABEL	REF600-11020	Pstat Section
PSTATSERIALNO	LABEL	11020	Pstat Serial Number
CTRLMODE	IQUANT	1	Control Mode
IESTAB	IQUANT	0	I/E Stability
CASPEED	IQUANT	1	Control Amp Speed
CONVENTION	IQUANT	1	Current Convention
ICHRANGE	IQUANT	2	Ich Range
ICHRANGEMODE	TOGGLE	F	Ich Auto Range
ICHOFFSETENABLE	TOGGLE	T	Ich Offset Enable
ICHOFFSET	QUANT	0	Ich Offset (V)
ICHFILTER	IQUANT	3	Ich Filter
VCHRANGE	IQUANT	2	Vch Range
VCHRANGEMODE	TOGGLE	F	Vch Auto Range
VCHOFFSETENABLE	TOGGLE	T	Vch Offset Enable
VCHOFFSET	QUANT	0	Vch Offset (V)
VCHFILTER	IQUANT	3	Vch Filter
ACHRANGE	IQUANT	2	Ach Range
ACHOFFSETENABLE	TOGGLE	F	Ach Offset Enable
ACHOFFSET	QUANT	0	Ach Offset (V)
ACHFILTER	IQUANT	3	Ach Filter
IERANGELOWERLIMIT	IQUANT	1	I/E Range Lower Limit
IERANGEMODE	TOGGLE	F	I/E AutoRange
IERANGE	IQUANT	8	I/E Range
POSFEEDENABLE	TOGGLE	F	Positive Feedback IR Comp
POSFEEDRESISTANCE	QUANT	0	Positive Feedback Resistance (ohm)
ACHSELECT	IQUANT	0	Ach Select
CABLEID	IQUANT	14	Cable ID
DCCALDATE	LABEL	6/26/2020	DC Calibration Date
ACCALDATE	LABEL	6/26/2020	AC Calibration Date
THERMOSELECT	IQUANT	1	Thermo Select
FRAMEWORKVERSION	QUANT	6.33	Framework Version
INSTRUMENTVERSION	LABEL	3.50	Instrument Version
ZCURVE	TABLE
	Pt	Time	Freq	Zreal	Zimag	Zsig	Zmod	Zphz	Idc	Vdc	IERange
	#	s	Hz	ohm	ohm	V	ohm	°	A	V	#
	0	1	1000078	1371.372	-1965.557	1	2396.68	-55.09647	-5.305426E-008	0.1756177	8
	1	1	794390.6	1584.121	-2235.534	1	2739.9	-54.67824	2.492249E-007	0.1752818	8
	2	1	630984.4	1826.937	-2551.73	1	3138.316	-54.39884	3.447659E-009	0.1751111	8
	3	2	501234.4	2110.401	-2918.977	1	3601.974	-54.13332	1.641126E-007	0.1750159	8
	4	2	398109.4	2427.638	-3350.468	1	4137.519	-54.07415	3.997241E-008	0.1749645	8
	5	2	316265.6	2811.945	-3846.326	1	4764.583	-53.83047	-8.770209E-009	0.1749142	8
	6	3	251203.1	3258.874	-4402.272	1	5477.25	-53.48853	5.292873E-008	0.1749145	8
	7	3	199546.9	3803.478	-5059.612	1	6329.78	-53.0666	2.290652E-008	0.174903	8
	8	3	158578.1	4445.045	-5781.194	1	7292.505	-52.44403	2.487226E-008	0.1748977	8
	9	4	125953.1	5334.562	-6537.99	1	8438.179	-50.78786	2.038922E-008	0.1748609	7
	10	4	100078.1	6265.969	-7397.82	1	9694.85	-49.73533	1.525283E-008	0.1748619	7
	11	4	79453.13	7375.429	-8301.418	1	11104.53	-48.38038	-6.904478E-010	0.1748896	7
	12	4	63140.62	8672.179	-9251.712	1	12680.73	-46.8519	-1.509804E-008	0.1748824	7
	13	5	50203.12	10167.2	-10161.97	1	14374.9	-44.98527	1.639517E-008	0.1748558	7
	14	5	39890.62	11910.29	-11030.97	1	16233.84	-42.80498	-1.664105E-008	0.1748878	7
	15	5	31640.63	13847.54	-11717.21	1	18139.67	-40.23649	3.270253E-009	0.1748735	7
	16	6	25171.88	15886.78	-12281.83	1	20080.66	-37.70705	-1.246346E-008	0.1748835	7
	17	6	20015.62	18009.33	-12717.63	1	22047.09	-35.22855	-1.271193E-008	0.17487	7
	18	6	15890.62	20108.4	-12899.89	1	23890.48	-32.68089	-5.735567E-010	0.1748738	7
	19	7	12609.37	22450.53	-12775.29	1	25830.88	-29.6417	1.630415E-009	0.174824	6
	20	7	10078.13	24315.69	-12869.46	1	27511.38	-27.89074	-8.780132E-010	0.1748523	6
	21	7	8015.625	26036.78	-12827.56	1	29025.16	-26.22812	1.147011E-011	0.1748423	6
	22	8	6328.125	27875.06	-13075.76	1	30789.52	-25.13054	1.767319E-009	0.174856	6
	23	8	5015.625	29507.29	-13275.32	1	32356.06	-24.22297	2.82808E-009	0.174826	6
	24	8	3984.375	31312.05	-13851.48	1	34238.98	-23.86312	1.782015E-009	0.1748522	6
	25	9	3170.956	33005.61	-14400.13	1	36010.2	-23.57133	-2.105827E-009	0.1748865	6
	26	9	2527.573	34801.96	-15144.2	1	37954.23	-23.51644	8.450158E-010	0.174821	6
	27	9	1976.103	36825.27	-16047.71	1	40170	-23.54661	3.050135E-009	0.1748077	6
	28	10	1577.524	38773.9	-16987.05	1	42331.73	-23.65848	3.102951E-009	0.1748327	6
	29	10	1265.625	40912.12	-18162.11	1	44762.3	-23.93785	3.17968E-009	0.1748084	6
	30	10	998.264	43497.08	-19742.17	1	47767.66	-24.41204	-1.995216E-009	0.1748821	6
	31	11	796.875	45853.55	-21191.27	1	50513.54	-24.80408	2.194394E-009	0.1747991	6
	32	11	627.7902	48375.26	-22875.57	1	53511.29	-25.30841	3.332363E-009	0.1748173	6
	33	11	505.5147	50831.2	-24854.35	1	56582.23	-26.05672	-2.375724E-009	0.174861	6
	34	11	397.9953	53687.49	-27355.39	1	60254.99	-27.00021	6.591722E-010	0.1748635	6
	35	12	315.5048	56675.15	-30440.94	1	64332.91	-28.2408	7.253295E-010	0.1748615	6
	36	12	252.4038	59629.45	-33853.75	1	68569.29	-29.58512	6.918041E-010	0.1748586	6
	37	12	198.6229	62973.77	-38128.48	1	73617.09	-31.19348	6.486319E-010	0.1748565	6
	38	13	158.3615	66781.54	-43491.32	1	79694.84	-33.07409	6.848427E-010	0.1748559	6
	39	13	125.558	71143.5	-49945.01	1	86924.69	-35.07008	6.190968E-010	0.1748571	6
	40	13	100.4464	75949.68	-56961.95	1	94936.91	-36.86975	4.163243E-010	0.1748519	6
	41	14	79.00281	83242.9	-67871.38	1	107405.3	-39.19178	1.893902E-010	0.1748427	5
	42	14	63.3446	90504.73	-77273.04	1	119005.2	-40.49074	4.650762E-010	0.1748465	5
	43	14	49.86702	99757.2	-87934.15	1	132980.9	-41.39558	5.974263E-010	0.174837	5
	44	15	39.72458	110547.5	-99547.8	1	148763.2	-42.00298	2.519635E-010	0.1748432	5
	45	15	31.6723	123828	-112035.5	1	166989	-42.13776	3.962126E-010	0.1748386	5
	46	15	24.93351	140507.1	-128140	1	190163.3	-42.36427	1.031347E-009	0.1748405	5
	47	16	19.86229	156655.6	-139244.5	1	209594.8	-41.63252	1.403704E-009	0.1748428	5
	48	16	15.83615	177177.2	-155505.6	1	235740.8	-41.27291	3.573114E-012	0.1748392	5
	49	16	12.40079	201177.4	-171348.9	1	264258.9	-40.42205	1.05947E-009	0.1748384	5
	50	17	9.93114	222168.4	-186475.6	1	290055.1	-40.0082	3.478803E-010	0.1748426	5
	51	17	7.944915	252473.2	-208989.2	1	327748.7	-39.61686	-1.245117E-009	0.1748407	5
	52	17	6.317385	268037.8	-220499.9	1	347079.9	-39.44223	5.711026E-010	0.1748208	5
	53	18	5.008013	303625.6	-249092.6	1	392728.4	-39.36525	5.458909E-010	0.1748353	5
	54	19	3.945707	328999	-275868.6	1	429352.8	-39.98013	-1.138416E-010	0.1748276	5
	55	20	3.158693	352959.1	-303710.7	1	465639.7	-40.71101	2.905457E-010	0.1748314	5
	56	21	2.504006	387510.3	-343519.7	1	517851.4	-41.55631	2.029428E-010	0.1748338	5
	57	22	1.998082	413365.8	-385451.8	1	565194.1	-42.99866	-2.65942E-010	0.1747922	5
	58	24	1.584686	464336.7	-445967.5	1	643813.3	-43.84398	-3.277854E-012	0.1748114	5
	59	26	1.266892	509831.9	-504464.8	1	717226.1	-44.69682	9.720925E-011	0.1748518	5
	60	28	0.999041	561990.6	-582782.1	1	809610	-46.0405	1.386679E-010	0.1748679	5
