EXPLAIN
TAG	EISPOT
TITLE	LABEL	Potentiostatic EIS	Test &Identifier
DATE	LABEL	3/3/2020	Date
TIME	LABEL	19:32:31	Time
NOTES	NOTES	1	&Notes...
	
PSTAT	PSTAT	REF600-11020	Potentiostat
VDC	POTEN	0.00000E+000	T	DC &Voltage (V)
FREQINIT	QUANT	1.00000E+006	Initial Fre&q. (Hz)
FREQFINAL	QUANT	1.00000E+000	Final Fre&q. (Hz)
PTSPERDEC	QUANT	1.00000E+001	Points/&decade
VAC	QUANT	2.50000E+001	AC &Voltage (mV rms)
AREA	QUANT	1.60000E-004	&Area (cm^2)
CONDIT	TWOPARAM	F	1.50000E+001	0.00000E+000	Conditionin&g	Time(s)	E(V)
DELAY	TWOPARAM	F	1.00000E+002	0.00000E+000	Init. De&lay	Time(s)	Stab.(mV/s)
SPEED	SELECTOR	1	&Optimize for:
ZGUESS	QUANT	1.00000E+004	E&stimated Z (ohms)
OCVCURVE	TABLE	39
	Pt	T	Vf	Vm	Ach	Over
	#	s	V vs. Ref.	V	V	bits
	0	0.258333	1.00887E-001	1.00887E-001	5.71863E-004	...........
	1	0.516667	1.00888E-001	1.00958E-001	5.73497E-004	...........
	2	0.775	1.00894E-001	1.00899E-001	5.77030E-004	...........
	3	1.03333	1.00903E-001	1.00861E-001	5.69997E-004	...........
	4	1.29167	1.00907E-001	1.00876E-001	5.71563E-004	...........
	5	1.55	1.00895E-001	1.00675E-001	5.73897E-004	...........
	6	1.80833	1.00868E-001	1.00899E-001	5.67930E-004	...........
	7	2.06667	1.00838E-001	1.00930E-001	5.70197E-004	...........
	8	2.325	1.00830E-001	1.00858E-001	5.75130E-004	...........
	9	2.58333	1.00845E-001	1.00795E-001	5.77063E-004	...........
	10	2.84167	1.00857E-001	1.00779E-001	5.72030E-004	...........
	11	3.1	1.00848E-001	1.00786E-001	5.71863E-004	...........
	12	3.35833	1.00823E-001	1.00748E-001	5.72430E-004	...........
	13	3.61667	1.00798E-001	1.00781E-001	5.71497E-004	...........
	14	3.875	1.00780E-001	1.00774E-001	5.70130E-004	...........
	15	4.13333	1.00772E-001	1.00775E-001	5.78430E-004	...........
	16	4.39167	1.00771E-001	1.00749E-001	5.72030E-004	...........
	17	4.65	1.00770E-001	1.00760E-001	5.74330E-004	...........
	18	4.90833	1.00766E-001	1.00746E-001	5.80363E-004	...........
	19	5.16667	1.00761E-001	1.00736E-001	5.70597E-004	...........
	20	5.425	1.00754E-001	1.00724E-001	5.72530E-004	...........
	21	5.68333	1.00745E-001	1.00715E-001	5.69797E-004	...........
	22	5.94167	1.00736E-001	1.00709E-001	5.74430E-004	...........
	23	6.2	1.00726E-001	1.00701E-001	5.71897E-004	...........
	24	6.45833	1.00717E-001	1.00697E-001	5.71563E-004	...........
	25	6.71667	1.00709E-001	1.00687E-001	5.63830E-004	...........
	26	6.975	1.00702E-001	1.00674E-001	5.67263E-004	...........
	27	7.23333	1.00695E-001	1.00677E-001	5.68097E-004	...........
	28	7.49167	1.00687E-001	1.00675E-001	5.65930E-004	...........
	29	7.75	1.00681E-001	1.00669E-001	5.68097E-004	...........
	30	8.00833	1.00677E-001	1.00715E-001	5.66397E-004	...........
	31	8.26667	1.00678E-001	1.00679E-001	5.66830E-004	...........
	32	8.525	1.00682E-001	1.00646E-001	5.65763E-004	...........
	33	8.78333	1.00682E-001	1.00622E-001	5.74130E-004	...........
	34	9.04167	1.00671E-001	1.00619E-001	5.76297E-004	...........
	35	9.3	1.00654E-001	1.00608E-001	5.74497E-004	...........
	36	9.5583	1.00636E-001	1.00605E-001	5.77497E-004	...........
	37	9.8167	1.00621E-001	1.00598E-001	5.77163E-004	...........
	38	10.075	1.00611E-001	1.00597E-001	5.79963E-004	...........
EOC	QUANT	0.1006114	Open Circuit (V)
PSTATMODEL	IQUANT	4	Pstat Model
PSTATSECTION	LABEL	REF600-11020	Pstat Section
PSTATSERIALNO	LABEL	11020	Pstat Serial Number
CTRLMODE	IQUANT	1	Control Mode
IESTAB	IQUANT	0	I/E Stability
CASPEED	IQUANT	1	Control Amp Speed
CONVENTION	IQUANT	1	Current Convention
ICHRANGE	IQUANT	2	Ich Range
ICHRANGEMODE	TOGGLE	F	Ich Auto Range
ICHOFFSETENABLE	TOGGLE	T	Ich Offset Enable
ICHOFFSET	QUANT	0	Ich Offset (V)
ICHFILTER	IQUANT	3	Ich Filter
VCHRANGE	IQUANT	2	Vch Range
VCHRANGEMODE	TOGGLE	F	Vch Auto Range
VCHOFFSETENABLE	TOGGLE	T	Vch Offset Enable
VCHOFFSET	QUANT	0	Vch Offset (V)
VCHFILTER	IQUANT	3	Vch Filter
ACHRANGE	IQUANT	2	Ach Range
ACHOFFSETENABLE	TOGGLE	F	Ach Offset Enable
ACHOFFSET	QUANT	0	Ach Offset (V)
ACHFILTER	IQUANT	3	Ach Filter
IERANGELOWERLIMIT	IQUANT	1	I/E Range Lower Limit
IERANGEMODE	TOGGLE	F	I/E AutoRange
IERANGE	IQUANT	7	I/E Range
POSFEEDENABLE	TOGGLE	F	Positive Feedback IR Comp
POSFEEDRESISTANCE	QUANT	0	Positive Feedback Resistance (ohm)
ACHSELECT	IQUANT	0	Ach Select
CABLEID	IQUANT	14	Cable ID
DCCALDATE	LABEL	2/27/2020	DC Calibration Date
ACCALDATE	LABEL	2/27/2020	AC Calibration Date
THERMOSELECT	IQUANT	1	Thermo Select
FRAMEWORKVERSION	QUANT	6.33	Framework Version
INSTRUMENTVERSION	LABEL	3.50	Instrument Version
ZCURVE	TABLE
	Pt	Time	Freq	Zreal	Zimag	Zsig	Zmod	Zphz	Idc	Vdc	IERange
	#	s	Hz	ohm	ohm	V	ohm	°	A	V	#
	0	2	1000078	1944.566	-2253.493	1	2976.503	-49.20869	1.919582E-006	0.102299	8
	1	3	794390.6	2367.643	-2430.88	1	3393.363	-45.75502	-7.466851E-007	0.1023063	8
	2	4	630984.4	2837.541	-2568.045	1	3827.074	-42.14587	-1.780089E-006	0.1027558	8
	3	6	501234.4	3357.29	-2617.481	1	4257.065	-37.94144	2.556461E-007	0.1022196	8
	4	7	398109.4	3832.792	-2628.026	1	4647.237	-34.43722	1.967366E-006	0.1018367	8
	5	8	316265.6	4322.932	-2566.837	1	5027.563	-30.70067	-1.285604E-007	0.1021549	8
	6	10	251203.1	4767.332	-2452.363	1	5361.113	-27.22174	3.171903E-007	0.1020401	8
	7	11	199546.9	5186.039	-2272.267	1	5661.996	-23.66067	-5.94198E-007	0.1022015	8
	8	12	158578.1	5537.209	-2106.255	1	5924.272	-20.82591	3.410347E-008	0.1021416	8
	9	14	125953.1	5873.57	-1931.561	1	6183.021	-18.20378	-1.522116E-008	0.1020951	7
	10	15	100078.1	6108.201	-1766.83	1	6358.601	-16.1328	-6.155499E-008	0.1020575	7
	11	17	79453.13	6331.201	-1633.736	1	6538.593	-14.46926	-6.038124E-008	0.1020474	7
	12	18	63140.62	6531.99	-1503.755	1	6702.848	-12.9644	-5.132515E-008	0.1021303	7
	13	19	50203.12	6702.512	-1395.645	1	6846.276	-11.76246	-1.066649E-008	0.1021314	7
	14	21	39890.62	6850.242	-1311.26	1	6974.612	-10.83636	-5.309386E-008	0.1021267	7
	15	22	31640.63	6984.541	-1251.301	1	7095.742	-10.15696	-7.354101E-008	0.1021123	7
	16	24	25171.88	7113.774	-1214.078	1	7216.631	-9.68512	1.068297E-008	0.1019197	7
	17	25	20015.62	7237.616	-1208.854	1	7337.875	-9.482228	2.039745E-008	0.1019734	7
	18	26	15890.62	7350.544	-1219.919	1	7451.087	-9.423097	1.733014E-008	0.1019743	7
	19	28	12609.37	7473.302	-1252.95	1	7577.607	-9.51751	9.619119E-008	0.101955	7
	20	29	10078.13	7586.448	-1326.766	1	7701.59	-9.91992	1.274031E-007	0.10185	7
	21	30	8015.625	7719.629	-1420.819	1	7849.293	-10.42873	1.969702E-008	0.1019775	7
	22	32	6328.125	7862.211	-1550.806	1	8013.698	-11.15825	-9.190047E-009	0.1021304	7
	23	33	5015.625	8019.543	-1710.907	1	8200.018	-12.04306	5.007647E-008	0.1020553	7
	24	34	3984.375	8187.682	-1906.321	1	8406.676	-13.10656	5.048483E-008	0.102058	7
	25	36	3170.956	8369.397	-2125.684	1	8635.123	-14.25082	-5.064505E-008	0.1021202	7
	26	37	2527.573	8571.104	-2400.422	1	8900.89	-15.64543	9.725056E-008	0.101847	7
	27	39	1976.103	8807.243	-2745.472	1	9225.245	-17.31376	9.411045E-008	0.1019539	7
	28	40	1577.524	9042.909	-3122.938	1	9566.97	-19.05218	5.933549E-009	0.1018541	6
	29	41	1265.625	9286.21	-3570.012	1	9948.8	-21.02887	-7.534562E-009	0.1021549	6
	30	43	998.264	9567.73	-4151.512	1	10429.6	-23.4564	-6.701774E-009	0.1022643	6
	31	44	796.875	9861.04	-4826.278	1	10978.75	-26.07846	-7.342673E-009	0.1021564	6
	32	45	627.7902	10191.69	-5698.524	1	11676.63	-29.21107	-4.202329E-009	0.1020283	6
	33	47	505.5147	10534.67	-6667.464	1	12467.33	-32.33	1.323135E-008	0.1017784	6
	34	48	397.9953	10962.82	-7978.492	1	13558.75	-36.04627	2.556977E-010	0.102095	6
	35	50	315.5048	11444.04	-9545.2	1	14902.24	-39.83067	8.14195E-010	0.1020938	6
	36	51	252.4038	11987.21	-11385.04	1	16532.16	-43.52414	1.877751E-011	0.1020956	6
	37	52	198.6229	12684.58	-13799.31	1	18743.53	-47.41021	5.55375E-010	0.102094	6
	38	54	158.3615	13488.99	-16596.3	1	21386.68	-50.8968	1.561979E-010	0.1020959	6
	39	55	125.558	14502.78	-20067.59	1	24759.62	-54.14449	1.392146E-010	0.1020974	6
	40	56	100.4464	15693.07	-24124.4	1	28779.49	-56.95575	-9.198219E-012	0.1020963	6
	41	58	79.00281	17263.96	-29340.06	1	34042.38	-59.52706	6.233202E-010	0.1020923	6
	42	59	63.3446	19136.01	-34971.13	1	39864.36	-61.31276	2.105542E-010	0.1020955	6
	43	61	49.86702	21587.19	-42921.85	1	48044.69	-63.30027	2.075E-010	0.1020943	6
	44	62	39.72458	24368.49	-51494.16	1	56969.04	-64.67517	1.356047E-010	0.1020955	6
	45	63	31.6723	27681.52	-61856.43	1	67767.87	-65.89089	-2.619336E-010	0.1020915	6
	46	65	24.93351	32249.7	-75163.36	1	81789.81	-66.77769	-1.620426E-011	0.1020949	6
	47	66	19.86229	37591.64	-90498.33	1	97995.3	-67.44274	3.735249E-010	0.1020971	6
	48	67	15.83615	44792.66	-109154.6	1	117987.7	-67.68872	-9.640855E-010	0.1020943	5
	49	69	12.40079	53706.06	-132027.3	1	142532.6	-67.86449	1.957841E-010	0.1020939	5
	50	70	9.93114	65201.54	-157645.3	1	170596.9	-67.53019	5.305612E-010	0.1020954	5
	51	72	7.944915	79590.61	-187751.8	1	203925	-67.02724	-2.145553E-010	0.1020951	5
	52	74	6.317385	98245.6	-222652.5	1	243364.6	-66.1905	2.370312E-010	0.1020862	5
	53	76	5.008013	122392.2	-263607.8	1	290635.4	-65.09472	7.846129E-011	0.1021058	5
	54	78	3.945707	152675.1	-310720.8	1	346203.8	-63.83245	-1.431207E-010	0.1020926	5
	55	81	3.158693	187260	-360095.6	1	405875.8	-62.52428	2.208269E-010	0.1021021	5
	56	84	2.504006	229586.4	-416874.2	1	475913.9	-61.15697	-2.07352E-010	0.102097	5
	57	87	1.998082	276941.4	-477319.3	1	551842.6	-59.87763	1.29388E-010	0.1020519	5
	58	90	1.584686	331389	-546756.5	1	639344.4	-58.77996	-3.33652E-011	0.1020986	5
	59	94	1.266892	393036.9	-622320.1	1	736043.7	-57.72484	6.896266E-011	0.1020548	5
	60	98	0.999041	464928.6	-711918.1	1	850285.8	-56.85286	1.272908E-010	0.1021382	5
