EXPLAIN
TAG	EISPOT
TITLE	LABEL	Potentiostatic EIS	Test &Identifier
DATE	LABEL	1/10/2020	Date
TIME	LABEL	14:25:43	Time
NOTES	NOTES	5	&Notes...
	
	
	
	
	
PSTAT	PSTAT	REF600-11020	Potentiostat
VDC	POTEN	0.00000E+000	T	DC &Voltage (V)
FREQINIT	QUANT	1.00000E+006	Initial Fre&q. (Hz)
FREQFINAL	QUANT	1.00000E+000	Final Fre&q. (Hz)
PTSPERDEC	QUANT	1.00000E+001	Points/&decade
VAC	QUANT	2.50000E+001	AC &Voltage (mV rms)
AREA	QUANT	1.00000E-001	&Area (cm^2)
CONDIT	TWOPARAM	T	5.00000E+000	0.00000E+000	Conditionin&g	Time(s)	E(V)
DELAY	TWOPARAM	T	5.00000E+000	0.00000E+000	Init. De&lay	Time(s)	Stab.(mV/s)
SPEED	SELECTOR	0	&Optimize for:
ZGUESS	QUANT	5.00000E+002	E&stimated Z (ohms)
OCVCURVE	TABLE	19
	Pt	T	Vf	Vm	Ach	Over
	#	s	V vs. Ref.	V	V	bits
	0	0.258333	4.74752E-003	4.74752E-003	6.45646E-004	...........
	1	0.516667	4.74037E-003	4.37303E-003	6.45113E-004	...........
	2	0.775	4.69801E-003	4.10027E-003	6.40346E-004	...........
	3	1.03333	4.58312E-003	3.82412E-003	6.47280E-004	...........
	4	1.29167	4.38790E-003	3.63346E-003	6.46680E-004	...........
	5	1.55	4.14448E-003	3.41784E-003	6.46813E-004	...........
	6	1.80833	3.89511E-003	3.28215E-003	6.44880E-004	...........
	7	2.06667	3.66672E-003	3.12188E-003	6.42446E-004	...........
	8	2.325	3.46835E-003	3.00783E-003	6.45913E-004	...........
	9	2.58333	3.29840E-003	2.89256E-003	6.43980E-004	...........
	10	2.84167	3.15168E-003	2.79032E-003	6.46080E-004	...........
	11	3.1	3.02319E-003	2.70453E-003	6.47413E-004	...........
	12	3.35833	2.90939E-003	2.63056E-003	6.45413E-004	...........
	13	3.61667	2.80865E-003	2.56573E-003	6.45213E-004	...........
	14	3.875	2.72024E-003	2.50631E-003	6.40480E-004	...........
	15	4.13333	2.64308E-003	2.45622E-003	6.39780E-004	...........
	16	4.39167	2.57489E-003	2.37364E-003	6.41680E-004	...........
	17	4.65	2.51053E-003	2.25921E-003	6.46380E-004	...........
	18	4.90833	2.44129E-003	2.14770E-003	6.46146E-004	...........
EOC	QUANT	0.0024413	Open Circuit (V)
PSTATMODEL	IQUANT	4	Pstat Model
PSTATSECTION	LABEL	REF600-11020	Pstat Section
PSTATSERIALNO	LABEL	11020	Pstat Serial Number
CTRLMODE	IQUANT	1	Control Mode
IESTAB	IQUANT	0	I/E Stability
CASPEED	IQUANT	1	Control Amp Speed
CONVENTION	IQUANT	1	Current Convention
ICHRANGE	IQUANT	2	Ich Range
ICHRANGEMODE	TOGGLE	F	Ich Auto Range
ICHOFFSETENABLE	TOGGLE	T	Ich Offset Enable
ICHOFFSET	QUANT	0	Ich Offset (V)
ICHFILTER	IQUANT	3	Ich Filter
VCHRANGE	IQUANT	2	Vch Range
VCHRANGEMODE	TOGGLE	F	Vch Auto Range
VCHOFFSETENABLE	TOGGLE	T	Vch Offset Enable
VCHOFFSET	QUANT	0	Vch Offset (V)
VCHFILTER	IQUANT	3	Vch Filter
ACHRANGE	IQUANT	2	Ach Range
ACHOFFSETENABLE	TOGGLE	F	Ach Offset Enable
ACHOFFSET	QUANT	0	Ach Offset (V)
ACHFILTER	IQUANT	3	Ach Filter
IERANGELOWERLIMIT	IQUANT	1	I/E Range Lower Limit
IERANGEMODE	TOGGLE	F	I/E AutoRange
IERANGE	IQUANT	6	I/E Range
POSFEEDENABLE	TOGGLE	F	Positive Feedback IR Comp
POSFEEDRESISTANCE	QUANT	0	Positive Feedback Resistance (ohm)
ACHSELECT	IQUANT	0	Ach Select
CABLEID	IQUANT	14	Cable ID
DCCALDATE	LABEL	12/22/2019	DC Calibration Date
ACCALDATE	LABEL	12/22/2019	AC Calibration Date
THERMOSELECT	IQUANT	1	Thermo Select
FRAMEWORKVERSION	QUANT	6.33	Framework Version
INSTRUMENTVERSION	LABEL	3.50	Instrument Version
ZCURVE	TABLE
	Pt	Time	Freq	Zreal	Zimag	Zsig	Zmod	Zphz	Idc	Vdc	IERange
	#	s	Hz	ohm	ohm	V	ohm	°	A	V	#
	0	1	1000078	1822.454	-2503.506	1	3096.592	-53.94685	3.126263E-006	0.0041978	8
	1	2	794390.6	2269.235	-2781.973	1	3590.098	-50.79613	-2.866628E-006	0.0049373	8
	2	2	630984.4	2772.963	-3025.127	1	4103.745	-47.49027	-9.994793E-007	0.0046582	8
	3	2	501234.4	3325.434	-3229.982	1	4635.871	-44.16579	2.085722E-006	0.0038973	8
	4	3	398109.4	3921.741	-3372.222	1	5172.227	-40.69154	5.097956E-007	0.0040529	8
	5	3	316265.6	4528.602	-3459.563	1	5698.843	-37.37753	1.439379E-006	0.0038258	8
	6	3	251203.1	5143.299	-3487.159	1	6214	-34.13729	4.166126E-007	0.0040608	8
	7	4	199546.9	5696.282	-3468.706	1	6669.299	-31.339	-3.577126E-007	0.0042851	8
	8	4	158578.1	6317.057	-3413.028	1	7180.109	-28.3818	3.459663E-009	0.004153	8
	9	5	125953.1	6838.66	-3314.408	1	7599.511	-25.8575	1.667783E-007	0.0038091	7
	10	5	100078.1	7309.491	-3224.437	1	7989.095	-23.80372	-3.597182E-008	0.0041356	7
	11	5	79453.13	7767.456	-3156.569	1	8384.349	-22.11603	-1.08909E-008	0.0040745	7
	12	6	63140.62	8197.059	-3099.246	1	8763.396	-20.71123	5.138384E-008	0.0039882	7
	13	6	50203.12	8605.157	-3066.048	1	9135.063	-19.61117	-3.065641E-008	0.0042105	7
	14	6	39890.62	8995.238	-3051.988	1	9498.892	-18.74153	-1.946925E-008	0.0041276	7
	15	7	31640.63	9377.611	-3065.984	1	9866.1	-18.10501	3.118531E-008	0.004004	7
	16	7	25171.88	9754.75	-3115.374	1	10240.15	-17.71191	-2.939593E-008	0.0041153	7
	17	7	20015.62	10131.91	-3198.842	1	10624.88	-17.52193	5.711479E-008	0.0039961	7
	18	8	15890.62	10510.05	-3326.87	1	11024.03	-17.56476	-1.207481E-008	0.0040714	7
	19	8	12609.37	10935.68	-3453.319	1	11467.98	-17.52531	2.313729E-009	0.0041243	6
	20	8	10078.13	11329.18	-3660.683	1	11905.92	-17.90667	-1.136398E-009	0.004158	6
	21	9	8015.625	11767.12	-3924.523	1	12404.31	-18.44437	-3.959413E-009	0.004167	6
	22	9	6328.125	12223.3	-4256.683	1	12943.28	-19.20033	5.700418E-009	0.0039548	6
	23	9	5015.625	12718.49	-4648.078	1	13541.22	-20.07525	-4.840464E-009	0.0041776	6
	24	10	3984.375	13252.55	-5103.894	1	14201.4	-21.06297	-1.664272E-009	0.0040168	6
	25	10	3170.956	13818.09	-5640.016	1	14924.79	-22.20341	1.524572E-009	0.0041025	6
	26	10	2527.573	14441.59	-6260.096	1	15740.02	-23.43562	-1.693926E-010	0.004143	6
	27	11	1976.103	15191.73	-7051.341	1	16748.43	-24.89869	-5.452716E-009	0.0041087	6
	28	11	1577.524	15955.97	-7880.512	1	17795.94	-26.28435	-6.761327E-009	0.0041405	6
	29	11	1265.625	16782.93	-8857.419	1	18976.84	-27.82347	2.62002E-009	0.003995	6
	30	12	998.264	17789.18	-10046.01	1	20429.81	-29.45456	2.439507E-009	0.0040964	6
	31	12	796.875	18880.66	-11349.71	1	22029.42	-31.0113	-4.630437E-009	0.0041394	6
	32	12	627.7902	20170.87	-12939.2	1	23964.28	-32.67933	-4.583779E-009	0.0041418	6
	33	12	505.5147	21499.22	-14609.06	1	25993.1	-34.19672	-2.660334E-009	0.0040725	6
	34	13	397.9953	23149.12	-16698.09	1	28543.09	-35.80394	7.78268E-010	0.0040784	6
	35	13	315.5048	24977.37	-19034.84	1	31403.73	-37.31042	8.655877E-010	0.0040777	6
	36	13	252.4038	26946.86	-21595.22	1	34532.41	-38.7087	1.358664E-009	0.004078	6
	37	14	198.6229	29286.16	-24758.9	1	38349.48	-40.21161	8.466843E-010	0.0040742	6
	38	14	158.3615	31792.17	-28161.63	1	42471.4	-41.53465	7.598455E-010	0.0040707	6
	39	14	125.558	34576.12	-32278.66	1	47301.37	-43.0318	7.650832E-010	0.0040711	6
	40	15	100.4464	37363.77	-36938.54	1	52540.53	-44.67211	9.563099E-010	0.0040612	6
	41	15	79.00281	40642.31	-42689.08	1	58941.96	-46.40701	1.312647E-009	0.0040658	6
	42	15	63.3446	45130.71	-49237.53	1	66791.59	-47.49189	5.736249E-010	0.0040625	6
	43	16	49.86702	48695.77	-57889.65	1	75647.14	-49.93003	6.259738E-010	0.004058	6
	44	16	39.72458	52488.86	-67320.92	1	85365.02	-52.05713	7.482145E-010	0.0040642	6
	45	16	31.6723	57074.8	-79176.8	1	97603.8	-54.21395	7.592229E-010	0.0040655	6
	46	17	24.93351	63276.5	-94611.55	1	113821.2	-56.22527	2.56783E-010	0.0040606	5
	47	17	19.86229	70303.98	-112152.4	1	132366.2	-57.91799	5.358196E-010	0.0040679	5
	48	17	15.83615	77710.6	-133021.9	1	154057.6	-59.70678	6.677396E-010	0.0040614	5
	49	18	12.40079	88633.77	-160777.4	1	183590.1	-61.13282	-9.840012E-010	0.0040649	5
	50	18	9.93114	103494.5	-191462.4	1	217644.1	-61.60667	-7.509976E-011	0.0040728	5
	51	19	7.944915	120236.8	-226468.7	1	256407.8	-62.03527	5.104787E-010	0.0040501	5
	52	19	6.317385	141484.7	-268851	1	303807.2	-62.2441	4.214894E-010	0.0040496	5
	53	20	5.008013	169271	-318891.7	1	361032.7	-62.04018	2.977034E-010	0.0040549	5
	54	21	3.945707	201764.3	-377025.5	1	427617.9	-61.84664	3.248793E-010	0.0040653	5
	55	23	3.158693	240746.5	-438229.2	1	500003.7	-61.21727	-5.243387E-011	0.0040496	5
	56	24	2.504006	288051.5	-510227.4	1	585922.9	-60.55287	1.589488E-010	0.0040494	5
	57	25	1.998082	339645	-590107.7	1	680871.4	-60.0768	1.595378E-010	0.0040797	5
	58	27	1.584686	400853.3	-681768.7	1	790880.4	-59.54614	7.580228E-011	0.0040299	5
	59	29	1.266892	469174.2	-786579.1	1	915877.3	-59.18501	5.983037E-011	0.0040104	5
	60	31	0.999041	550502	-917448.4	1	1069936	-59.03473	5.50001E-012	0.0040599	4
