EXPLAIN
TAG	EISPOT
TITLE	LABEL	Potentiostatic EIS	Test &Identifier
DATE	LABEL	1/14/2020	Date
TIME	LABEL	17:20:23	Time
NOTES	NOTES	5	&Notes...
	
	
	
	
	
PSTAT	PSTAT	REF600-11020	Potentiostat
VDC	POTEN	0.00000E+000	T	DC &Voltage (V)
FREQINIT	QUANT	1.00000E+006	Initial Fre&q. (Hz)
FREQFINAL	QUANT	1.00000E+000	Final Fre&q. (Hz)
PTSPERDEC	QUANT	1.00000E+001	Points/&decade
VAC	QUANT	2.50000E+001	AC &Voltage (mV rms)
AREA	QUANT	1.00000E-001	&Area (cm^2)
CONDIT	TWOPARAM	T	5.00000E+000	0.00000E+000	Conditionin&g	Time(s)	E(V)
DELAY	TWOPARAM	T	5.00000E+000	0.00000E+000	Init. De&lay	Time(s)	Stab.(mV/s)
SPEED	SELECTOR	0	&Optimize for:
ZGUESS	QUANT	5.00000E+002	E&stimated Z (ohms)
OCVCURVE	TABLE	19
	Pt	T	Vf	Vm	Ach	Over
	#	s	V vs. Ref.	V	V	bits
	0	0.258333	4.93252E-003	4.93252E-003	6.51580E-004	...........
	1	0.516667	4.93068E-003	4.83613E-003	6.44446E-004	...........
	2	0.775	4.91974E-003	4.76400E-003	6.45980E-004	...........
	3	1.03333	4.89004E-003	4.69637E-003	6.45213E-004	...........
	4	1.29167	4.83963E-003	4.64315E-003	6.48346E-004	...........
	5	1.55	4.77718E-003	4.60790E-003	6.49613E-004	...........
	6	1.80833	4.71475E-003	4.58003E-003	6.49080E-004	...........
	7	2.06667	4.66105E-003	4.56673E-003	6.52513E-004	...........
	8	2.325	4.61958E-003	4.54951E-003	6.48813E-004	...........
	9	2.58333	4.58974E-003	4.54154E-003	6.49780E-004	...........
	10	2.84167	4.56882E-003	4.53357E-003	6.47746E-004	...........
	11	3.1	4.55434E-003	4.54566E-003	6.46146E-004	...........
	12	3.35833	4.54552E-003	4.55047E-003	6.47713E-004	...........
	13	3.61667	4.54247E-003	4.55324E-003	6.50913E-004	...........
	14	3.875	4.54402E-003	4.55308E-003	6.46646E-004	...........
	15	4.13333	4.54755E-003	4.55468E-003	6.51613E-004	...........
	16	4.39167	4.55062E-003	4.54515E-003	6.52913E-004	...........
	17	4.65	4.55181E-003	4.54479E-003	6.47346E-004	...........
	18	4.90833	4.55094E-003	4.55118E-003	6.50080E-004	...........
EOC	QUANT	0.0045509	Open Circuit (V)
PSTATMODEL	IQUANT	4	Pstat Model
PSTATSECTION	LABEL	REF600-11020	Pstat Section
PSTATSERIALNO	LABEL	11020	Pstat Serial Number
CTRLMODE	IQUANT	1	Control Mode
IESTAB	IQUANT	0	I/E Stability
CASPEED	IQUANT	1	Control Amp Speed
CONVENTION	IQUANT	1	Current Convention
ICHRANGE	IQUANT	2	Ich Range
ICHRANGEMODE	TOGGLE	F	Ich Auto Range
ICHOFFSETENABLE	TOGGLE	T	Ich Offset Enable
ICHOFFSET	QUANT	0	Ich Offset (V)
ICHFILTER	IQUANT	3	Ich Filter
VCHRANGE	IQUANT	2	Vch Range
VCHRANGEMODE	TOGGLE	F	Vch Auto Range
VCHOFFSETENABLE	TOGGLE	T	Vch Offset Enable
VCHOFFSET	QUANT	0	Vch Offset (V)
VCHFILTER	IQUANT	3	Vch Filter
ACHRANGE	IQUANT	2	Ach Range
ACHOFFSETENABLE	TOGGLE	F	Ach Offset Enable
ACHOFFSET	QUANT	0	Ach Offset (V)
ACHFILTER	IQUANT	3	Ach Filter
IERANGELOWERLIMIT	IQUANT	1	I/E Range Lower Limit
IERANGEMODE	TOGGLE	F	I/E AutoRange
IERANGE	IQUANT	7	I/E Range
POSFEEDENABLE	TOGGLE	F	Positive Feedback IR Comp
POSFEEDRESISTANCE	QUANT	0	Positive Feedback Resistance (ohm)
ACHSELECT	IQUANT	0	Ach Select
CABLEID	IQUANT	14	Cable ID
DCCALDATE	LABEL	12/22/2019	DC Calibration Date
ACCALDATE	LABEL	12/22/2019	AC Calibration Date
THERMOSELECT	IQUANT	1	Thermo Select
FRAMEWORKVERSION	QUANT	6.33	Framework Version
INSTRUMENTVERSION	LABEL	3.50	Instrument Version
ZCURVE	TABLE
	Pt	Time	Freq	Zreal	Zimag	Zsig	Zmod	Zphz	Idc	Vdc	IERange
	#	s	Hz	ohm	ohm	V	ohm	°	A	V	#
	0	1	1000078	2086.662	-1898.837	1	2821.301	-42.30181	2.076798E-006	0.0068922	8
	1	1	794390.6	2377.913	-2009.017	1	3112.976	-40.19331	1.312684E-006	0.0060922	8
	2	1	630984.4	2663.879	-2119.734	1	3404.338	-38.51039	-5.251924E-008	0.0063686	8
	3	2	501234.4	2962.212	-2258.645	1	3725.074	-37.32501	-6.338779E-007	0.0064273	8
	4	2	398109.4	3291.208	-2398.694	1	4072.564	-36.08527	1.147014E-006	0.0058855	8
	5	2	316265.6	3625.842	-2577.35	1	4448.534	-35.40628	-6.672134E-007	0.0063157	8
	6	3	251203.1	4020.632	-2754.288	1	4873.56	-34.41265	-2.214118E-006	0.0065646	8
	7	3	199546.9	4450.723	-2918.083	1	5322.043	-33.25055	1.559999E-006	0.0058215	8
	8	3	158578.1	4981.162	-3060.719	1	5846.364	-31.56901	-5.585088E-007	0.006204	8
	9	4	125953.1	5540.951	-3223.417	1	6410.348	-30.18847	-2.703472E-007	0.0067005	7
	10	4	100078.1	6121.028	-3313.23	1	6960.207	-28.42609	-3.493121E-008	0.0061516	7
	11	4	79453.13	6753.746	-3341.441	1	7535.139	-26.32407	-7.376827E-009	0.006155	7
	12	5	63140.62	7384.517	-3278.004	1	8079.381	-23.93654	5.471585E-008	0.0059736	7
	13	5	50203.12	7981.221	-3130.616	1	8573.252	-21.41749	3.185602E-008	0.0059723	7
	14	5	39890.62	8524.609	-2926.111	1	9012.829	-18.94501	-2.104415E-008	0.0061524	7
	15	5	31640.63	8989.252	-2669.162	1	9377.157	-16.53764	9.351959E-008	0.0059305	7
	16	6	25171.88	9370.212	-2405.242	1	9673.99	-14.39645	9.346881E-008	0.0059269	7
	17	6	20015.62	9674.53	-2170.519	1	9915.03	-12.64515	-4.081842E-009	0.0060864	7
	18	6	15890.62	9916.55	-1928.316	1	10102.29	-11.00409	3.225265E-008	0.0059679	7
	19	7	12609.37	10129.87	-1702.649	1	10271.96	-9.54121	-7.696275E-010	0.0060657	6
	20	7	10078.13	10265.16	-1564.997	1	10383.77	-8.668403	1.038647E-008	0.0059401	6
	21	7	8015.625	10392	-1474.801	1	10496.13	-8.077303	-4.835615E-009	0.0061765	6
	22	8	6328.125	10483.95	-1440.444	1	10582.44	-7.823182	4.26132E-009	0.0060828	6
	23	8	5015.625	10568.61	-1455.457	1	10668.36	-7.841171	4.333518E-009	0.0060826	6
	24	8	3984.375	10643.84	-1519.257	1	10751.72	-8.123291	3.331683E-009	0.005931	6
	25	9	3170.956	10730.69	-1651.88	1	10857.09	-8.751405	-3.362771E-009	0.0061197	6
	26	9	2527.573	10804.33	-1838.374	1	10959.62	-9.65649	-1.462688E-009	0.0059935	6
	27	9	1976.103	10903.3	-2127.962	1	11109.01	-11.04341	-3.472935E-009	0.0061163	6
	28	10	1577.524	11001.93	-2469.646	1	11275.71	-12.65169	-5.984816E-009	0.0061393	6
	29	10	1265.625	11114.73	-2889.35	1	11484.14	-14.5719	-2.144652E-009	0.0061537	6
	30	10	998.264	11262.07	-3461.669	1	11782.08	-17.08608	1.036031E-008	0.0059402	6
	31	10	796.875	11433.33	-4133.424	1	12157.56	-19.87615	-9.899648E-010	0.0059983	6
	32	11	627.7902	11651.69	-5012.014	1	12683.94	-23.27511	4.226893E-009	0.0060828	6
	33	11	505.5147	11891.77	-5981.093	1	13311.19	-26.7006	-1.339395E-009	0.0060689	6
	34	11	397.9953	12210.3	-7283.527	1	14217.64	-30.81635	8.50496E-010	0.0060701	6
	35	12	315.5048	12582.81	-8829.272	1	15371.5	-35.05708	4.289651E-010	0.0060671	6
	36	12	252.4038	13007.38	-10638.19	1	16803.66	-39.27829	8.498042E-010	0.0060648	6
	37	12	198.6229	13549.6	-13013.73	1	18786.93	-43.84431	5.345294E-010	0.0060686	6
	38	13	158.3615	14169.12	-15773.19	1	21202.78	-48.06652	4.968529E-010	0.006066	6
	39	13	125.558	14938.28	-19237.05	1	24356.03	-52.16934	5.662588E-010	0.0060689	6
	40	13	100.4464	15849.13	-23301.89	1	28181.08	-55.77784	7.506872E-010	0.0060634	6
	41	14	79.00281	17106.13	-28706.77	1	33417.04	-59.20963	7.667247E-010	0.0060661	6
	42	14	63.3446	18392.46	-34837.98	1	39395.02	-62.16851	3.081801E-010	0.0060626	6
	43	14	49.86702	20414.14	-42823.69	1	47440.55	-64.51276	7.876992E-010	0.006058	6
	44	15	39.72458	23021.47	-52231.71	1	57080.12	-66.2142	6.810584E-010	0.0060631	6
	45	15	31.6723	26353.46	-63530.68	1	68779.74	-67.4706	9.116639E-010	0.0060629	6
	46	15	24.93351	30829.34	-77964.97	1	83839.04	-68.4249	3.069002E-010	0.0060637	6
	47	16	19.86229	36601.43	-94518.44	1	101357.8	-68.83154	3.489813E-010	0.0060662	6
	48	16	15.83615	43764.95	-114357.4	1	122445.9	-69.05799	1.075271E-010	0.0060601	5
	49	16	12.40079	55175	-138621.3	1	149198.4	-68.29612	1.453354E-009	0.0060604	5
	50	17	9.93114	68110.9	-165526.2	1	178991.7	-67.63376	9.700165E-010	0.0060686	5
	51	17	7.944915	84884.24	-196599.7	1	214142	-66.64716	-1.303592E-010	0.0060642	5
	52	17	6.317385	106612.6	-232033.9	1	255354.6	-65.32265	5.06849E-010	0.0060484	5
	53	18	5.008013	134812.4	-272950.3	1	304427.7	-63.71485	2.901513E-010	0.0060533	5
	54	19	3.945707	170206.9	-318401.8	1	361040.3	-61.87253	8.119617E-011	0.0060629	5
	55	20	3.158693	209757.9	-365185.5	1	421139.9	-60.12749	-1.60002E-010	0.0060462	5
	56	22	2.504006	258672.7	-416081.8	1	489934.3	-58.13132	1.093951E-010	0.0060467	5
	57	23	1.998082	311035	-469237.8	1	562962.6	-56.46153	2.072946E-010	0.0060673	5
	58	25	1.584686	372497.8	-525744.1	1	644330.3	-54.68184	1.044155E-011	0.0060189	5
	59	27	1.266892	437489.5	-586843.3	1	731971.4	-53.2956	-5.494491E-011	0.0060038	5
	60	29	0.999041	510366	-658326.6	1	832987	-52.21546	-1.024803E-010	0.0060101	5
