EXPLAIN
TAG	EISPOT
TITLE	LABEL	Potentiostatic EIS	Test &Identifier
DATE	LABEL	3/12/2020	Date
TIME	LABEL	14:40:10	Time
NOTES	NOTES	1	&Notes...
	
PSTAT	PSTAT	REF600-11020	Potentiostat
VDC	POTEN	0.00000E+000	T	DC &Voltage (V)
FREQINIT	QUANT	1.00000E+006	Initial Fre&q. (Hz)
FREQFINAL	QUANT	1.00000E+000	Final Fre&q. (Hz)
PTSPERDEC	QUANT	1.00000E+001	Points/&decade
VAC	QUANT	2.50000E+001	AC &Voltage (mV rms)
AREA	QUANT	2.50000E-001	&Area (cm^2)
CONDIT	TWOPARAM	F	5.00000E+000	0.00000E+000	Conditionin&g	Time(s)	E(V)
DELAY	TWOPARAM	T	5.00000E+000	0.00000E+000	Init. De&lay	Time(s)	Stab.(mV/s)
SPEED	SELECTOR	1	&Optimize for:
ZGUESS	QUANT	5.00000E+003	E&stimated Z (ohms)
OCVCURVE	TABLE	19
	Pt	T	Vf	Vm	Ach	Over
	#	s	V vs. Ref.	V	V	bits
	0	0.258333	1.09247E-002	1.09247E-002	5.87730E-004	...........
	1	0.516667	1.09241E-002	1.08955E-002	5.84530E-004	...........
	2	0.775	1.09205E-002	1.08575E-002	5.84430E-004	...........
	3	1.03333	1.09098E-002	1.08331E-002	5.81097E-004	...........
	4	1.29167	1.08904E-002	1.08065E-002	5.80897E-004	...........
	5	1.55	1.08649E-002	1.07823E-002	5.77430E-004	...........
	6	1.80833	1.08373E-002	1.07558E-002	5.80330E-004	...........
	7	2.06667	1.08102E-002	1.07374E-002	5.82863E-004	...........
	8	2.325	1.07847E-002	1.07168E-002	5.78863E-004	...........
	9	2.58333	1.07616E-002	1.07268E-002	5.83730E-004	...........
	10	2.84167	1.07424E-002	1.06945E-002	5.79563E-004	...........
	11	3.1	1.07270E-002	1.06673E-002	5.81830E-004	...........
	12	3.35833	1.07115E-002	1.06381E-002	5.86530E-004	...........
	13	3.61667	1.06919E-002	1.05965E-002	5.83597E-004	...........
	14	3.875	1.06665E-002	1.05633E-002	5.82863E-004	...........
	15	4.13333	1.06361E-002	1.05460E-002	5.83663E-004	...........
	16	4.39167	1.06043E-002	1.05279E-002	5.87563E-004	...........
	17	4.65	1.05750E-002	1.05123E-002	5.79830E-004	...........
	18	4.90833	1.05506E-002	1.05006E-002	5.83197E-004	...........
EOC	QUANT	0.0105506	Open Circuit (V)
PSTATMODEL	IQUANT	4	Pstat Model
PSTATSECTION	LABEL	REF600-11020	Pstat Section
PSTATSERIALNO	LABEL	11020	Pstat Serial Number
CTRLMODE	IQUANT	1	Control Mode
IESTAB	IQUANT	0	I/E Stability
CASPEED	IQUANT	1	Control Amp Speed
CONVENTION	IQUANT	1	Current Convention
ICHRANGE	IQUANT	2	Ich Range
ICHRANGEMODE	TOGGLE	F	Ich Auto Range
ICHOFFSETENABLE	TOGGLE	T	Ich Offset Enable
ICHOFFSET	QUANT	0	Ich Offset (V)
ICHFILTER	IQUANT	3	Ich Filter
VCHRANGE	IQUANT	2	Vch Range
VCHRANGEMODE	TOGGLE	F	Vch Auto Range
VCHOFFSETENABLE	TOGGLE	T	Vch Offset Enable
VCHOFFSET	QUANT	0	Vch Offset (V)
VCHFILTER	IQUANT	3	Vch Filter
ACHRANGE	IQUANT	2	Ach Range
ACHOFFSETENABLE	TOGGLE	F	Ach Offset Enable
ACHOFFSET	QUANT	0	Ach Offset (V)
ACHFILTER	IQUANT	3	Ach Filter
IERANGELOWERLIMIT	IQUANT	1	I/E Range Lower Limit
IERANGEMODE	TOGGLE	F	I/E AutoRange
IERANGE	IQUANT	6	I/E Range
POSFEEDENABLE	TOGGLE	F	Positive Feedback IR Comp
POSFEEDRESISTANCE	QUANT	0	Positive Feedback Resistance (ohm)
ACHSELECT	IQUANT	0	Ach Select
CABLEID	IQUANT	14	Cable ID
DCCALDATE	LABEL	2/27/2020	DC Calibration Date
ACCALDATE	LABEL	2/27/2020	AC Calibration Date
THERMOSELECT	IQUANT	1	Thermo Select
FRAMEWORKVERSION	QUANT	6.33	Framework Version
INSTRUMENTVERSION	LABEL	3.50	Instrument Version
ZCURVE	TABLE
	Pt	Time	Freq	Zreal	Zimag	Zsig	Zmod	Zphz	Idc	Vdc	IERange
	#	s	Hz	ohm	ohm	V	ohm	°	A	V	#
	0	1	1000078	1646.493	-2116.628	1	2681.614	-52.12119	1.200623E-006	0.0127917	8
	1	3	794390.6	1944.712	-2371.468	1	3066.882	-50.64669	-3.833262E-006	0.0132988	8
	2	4	630984.4	2290.554	-2646.744	1	3500.27	-49.12632	2.779585E-006	0.0119413	8
	3	5	501234.4	2674.253	-2937.115	1	3972.188	-47.68203	1.055604E-006	0.0121111	8
	4	7	398109.4	3115.969	-3233.376	1	4490.432	-46.05935	-1.363672E-006	0.0123874	8
	5	8	316265.6	3596.148	-3486.256	1	5008.619	-44.11106	5.24784E-007	0.0120354	8
	6	10	251203.1	4133.385	-3830.354	1	5635.289	-42.82087	-1.138847E-006	0.012307	8
	7	11	199546.9	4727.505	-4105.283	1	6261.202	-40.97048	-4.49515E-007	0.0122068	8
	8	13	158578.1	5321.925	-4391.7	1	6899.994	-39.52975	-9.176598E-007	0.0122819	8
	9	14	125953.1	6058.729	-4645.021	1	7634.423	-37.47615	8.309749E-008	0.0117057	7
	10	16	100078.1	6776.445	-4932.383	1	8381.444	-36.04982	4.133449E-008	0.0119385	7
	11	17	79453.13	7551.378	-5231.94	1	9186.757	-34.71599	-5.657078E-009	0.0121103	7
	12	18	63140.62	8373.906	-5512.707	1	10025.58	-33.3577	-2.870489E-008	0.0120654	7
	13	20	50203.12	9255.865	-5763.998	1	10903.89	-31.91218	-3.928024E-008	0.0120915	7
	14	21	39890.62	10190.32	-5984.323	1	11817.56	-30.42382	-4.924769E-008	0.012116	7
	15	22	31640.63	11161.54	-6176.809	1	12756.68	-28.96019	1.414876E-008	0.0120697	7
	16	24	25171.88	12143.69	-6313.813	1	13686.98	-27.47106	1.274873E-008	0.0120699	7
	17	25	20015.62	13131.31	-6394.615	1	14605.56	-25.96491	9.718312E-009	0.0120292	7
	18	26	15890.62	14104.46	-6450.21	1	15509.39	-24.57542	7.050297E-009	0.0119799	7
	19	28	12609.37	15128.65	-6407.81	1	16429.74	-22.95531	-2.250563E-010	0.01215	6
	20	29	10078.13	15999.51	-6459.363	1	17254.21	-21.98505	9.471797E-009	0.01192	6
	21	31	8015.625	16863.94	-6538.204	1	18087.03	-21.19147	1.961155E-009	0.01214	6
	22	32	6328.125	17726.58	-6675.652	1	18941.91	-20.63587	-6.577435E-009	0.0121451	6
	23	33	5015.625	18547.17	-6875.973	1	19780.71	-20.3412	4.057507E-009	0.0121025	6
	24	35	3984.375	19369.47	-7161.338	1	20650.93	-20.29051	3.97343E-009	0.0121028	6
	25	36	3170.956	20204.73	-7540.052	1	21565.8	-20.46469	4.191736E-009	0.012096	6
	26	37	2527.573	21052.88	-8024.482	1	22530.34	-20.86477	5.857261E-009	0.0120611	6
	27	39	1976.103	22021.97	-8669.766	1	23667.11	-21.48892	7.47184E-009	0.0120127	6
	28	40	1577.524	22978.73	-9393.024	1	24824.4	-22.23329	-7.881724E-011	0.0121516	6
	29	41	1265.625	23944.59	-10220.51	1	26034.63	-23.11473	9.752586E-009	0.0119188	6
	30	43	998.264	25054.89	-11313.88	1	27490.94	-24.3022	9.42227E-009	0.0119114	6
	31	44	796.875	26166.53	-12572.44	1	29030.22	-25.66326	4.189674E-009	0.012106	6
	32	46	627.7902	27450.96	-14184	1	30898.88	-27.32554	-4.425238E-010	0.0121342	6
	33	47	505.5147	28729.3	-15921.19	1	32845.96	-28.99432	-5.092908E-009	0.0121903	6
	34	48	397.9953	30294.77	-18286.73	1	35386.12	-31.1163	5.899802E-010	0.0120943	6
	35	50	315.5048	32054.11	-21039.34	1	38342.14	-33.27967	8.148509E-010	0.012098	6
	36	51	252.4038	34037.77	-24200.09	1	41763.79	-35.41197	7.604124E-011	0.0120968	6
	37	52	198.6229	36553.75	-28183.16	1	46156.98	-37.63244	3.190391E-010	0.0120972	6
	38	54	158.3615	39397.17	-32561.89	1	51111.78	-39.57385	7.596317E-010	0.0120932	6
	39	55	125.558	42840.42	-37757.92	1	57104.83	-41.39173	3.689258E-010	0.0120954	6
	40	57	100.4464	46720.88	-43490.49	1	63829.96	-42.94917	8.152126E-010	0.0120938	6
	41	58	79.00281	51426.16	-50470.2	1	72054.78	-44.46248	-1.504098E-010	0.0120977	6
	42	59	63.3446	56346.7	-56783.99	1	79996.07	-45.22147	4.667851E-011	0.0120893	6
	43	61	49.86702	63533.96	-66979.82	1	92319.34	-46.51239	5.938262E-011	0.0120883	6
	44	62	39.72458	69884.5	-76470.07	1	103593	-47.57642	-2.037418E-010	0.0121031	5
	45	64	31.6723	77321.95	-88046.43	1	117178.7	-48.71055	2.518022E-010	0.0120983	5
	46	65	24.93351	86889.23	-102117.8	1	134081.3	-49.60645	2.709965E-010	0.0120958	5
	47	66	19.86229	97122.6	-117429.1	1	152388.9	-50.40673	-2.437119E-010	0.0120854	5
	48	68	15.83615	107859.9	-136846.8	1	174243.5	-51.75554	1.003209E-009	0.0120958	5
	49	69	12.40079	123309.2	-158217.4	1	200593.9	-52.06838	-5.184356E-010	0.0120929	5
	50	71	9.93114	139239.7	-182771.2	1	229767.3	-52.69894	1.73256E-010	0.0120939	5
	51	72	7.944915	157569.3	-210485.9	1	262930.4	-53.18155	-4.521416E-010	0.0120976	5
	52	74	6.317385	179487.7	-243856	1	302789.7	-53.64546	-5.734903E-011	0.0120913	5
	53	76	5.008013	206339.9	-282614.3	1	349924.2	-53.86639	-5.313707E-011	0.0120959	5
	54	78	3.945707	238875.2	-327932.2	1	405710.3	-53.92934	-1.909208E-010	0.0120918	5
	55	81	3.158693	275010.3	-375229	1	465217.6	-53.76182	1.888486E-010	0.012104	5
	56	84	2.504006	317810.9	-430126.2	1	534801.1	-53.54011	-2.658403E-010	0.0121015	5
	57	87	1.998082	364329.9	-488526.6	1	609421.4	-53.28542	-5.759788E-011	0.0120715	5
	58	90	1.584686	415742.8	-554932.4	1	693391.8	-53.16028	4.190594E-011	0.0121375	5
	59	94	1.266892	469310.2	-631690.4	1	786946.6	-53.38974	-3.179688E-011	0.012077	5
	60	98	0.999041	531219.2	-726107.1	1	899680.7	-53.81084	2.323604E-010	0.0121265	5
