EXPLAIN
TAG	EISPOT
TITLE	LABEL	Potentiostatic EIS	Test &Identifier
DATE	LABEL	2/28/2020	Date
TIME	LABEL	17:31:23	Time
NOTES	NOTES	1	&Notes...
	
PSTAT	PSTAT	REF600-11020	Potentiostat
VDC	POTEN	0.00000E+000	T	DC &Voltage (V)
FREQINIT	QUANT	1.00000E+006	Initial Fre&q. (Hz)
FREQFINAL	QUANT	1.00000E+000	Final Fre&q. (Hz)
PTSPERDEC	QUANT	1.00000E+001	Points/&decade
VAC	QUANT	2.50000E+001	AC &Voltage (mV rms)
AREA	QUANT	1.60000E-004	&Area (cm^2)
CONDIT	TWOPARAM	F	1.50000E+001	0.00000E+000	Conditionin&g	Time(s)	E(V)
DELAY	TWOPARAM	F	1.00000E+002	0.00000E+000	Init. De&lay	Time(s)	Stab.(mV/s)
SPEED	SELECTOR	1	&Optimize for:
ZGUESS	QUANT	1.00000E+003	E&stimated Z (ohms)
OCVCURVE	TABLE	39
	Pt	T	Vf	Vm	Ach	Over
	#	s	V vs. Ref.	V	V	bits
	0	0.258333	-4.61382E-002	-4.61382E-002	5.55597E-004	...........
	1	0.516667	-4.61156E-002	-4.49542E-002	5.53830E-004	...........
	2	0.775	-4.60772E-002	-4.90945E-002	5.58897E-004	...........
	3	1.03333	-4.63306E-002	-5.45230E-002	5.57197E-004	...........
	4	1.29167	-4.74536E-002	-5.45619E-002	5.60464E-004	...........
	5	1.55	-4.94925E-002	-5.20828E-002	5.53030E-004	...........
	6	1.80833	-5.15288E-002	-5.12465E-002	5.53064E-004	...........
	7	2.06667	-5.27373E-002	-5.96578E-002	5.56930E-004	...........
	8	2.325	-5.37696E-002	-7.15192E-002	5.52964E-004	...........
	9	2.58333	-5.63661E-002	-7.56841E-002	5.55797E-004	...........
	10	2.84167	-6.12498E-002	-7.50379E-002	5.55330E-004	...........
	11	3.1	-6.70094E-002	-7.40488E-002	5.54930E-004	...........
	12	3.35833	-7.14840E-002	-7.22226E-002	5.58297E-004	...........
	13	3.61667	-7.36112E-002	-7.05938E-002	5.53764E-004	...........
	14	3.875	-7.36853E-002	-6.89767E-002	5.54564E-004	...........
	15	4.13333	-7.25214E-002	-6.58207E-002	5.51897E-004	...........
	16	4.39167	-7.05835E-002	-5.56496E-002	5.52964E-004	...........
	17	4.65	-6.74925E-002	-4.44950E-002	5.48930E-004	...........
	18	4.90833	-6.26602E-002	-4.89932E-002	5.49830E-004	...........
	19	5.16667	-5.69859E-002	-5.73051E-002	5.49097E-004	...........
	20	5.425	-5.30105E-002	-5.91177E-002	5.49964E-004	...........
	21	5.68333	-5.24028E-002	-5.86812E-002	5.51730E-004	...........
	22	5.94167	-5.42375E-002	-5.69027E-002	5.48564E-004	...........
	23	6.2	-5.63325E-002	-5.58090E-002	5.49864E-004	...........
	24	6.45833	-5.73321E-002	-5.61523E-002	5.53630E-004	...........
	25	6.71667	-5.72655E-002	-5.69336E-002	5.57230E-004	...........
	26	6.975	-5.68563E-002	-5.74858E-002	5.53764E-004	...........
	27	7.23333	-5.66963E-002	-5.83291E-002	5.56230E-004	...........
	28	7.49167	-5.69484E-002	-5.91341E-002	5.55297E-004	...........
	29	7.75	-5.75371E-002	-6.12006E-002	5.48897E-004	...........
	30	8.00833	-5.84407E-002	-6.43663E-002	5.49097E-004	...........
	31	8.26667	-5.97983E-002	-6.75120E-002	5.42497E-004	...........
	32	8.525	-6.17461E-002	-6.98155E-002	5.48164E-004	...........
	33	8.78333	-6.41562E-002	-7.02913E-002	5.46464E-004	...........
	34	9.04167	-6.65572E-002	-6.91276E-002	5.49797E-004	...........
	35	9.3	-6.83372E-002	-6.77977E-002	5.51530E-004	...........
	36	9.5583	-6.90831E-002	-6.58269E-002	5.51464E-004	...........
	37	9.8167	-6.87286E-002	-6.21263E-002	5.45297E-004	...........
	38	10.075	-6.73781E-002	-5.84351E-002	5.45964E-004	...........
EOC	QUANT	-0.0673781	Open Circuit (V)
PSTATMODEL	IQUANT	4	Pstat Model
PSTATSECTION	LABEL	REF600-11020	Pstat Section
PSTATSERIALNO	LABEL	11020	Pstat Serial Number
CTRLMODE	IQUANT	1	Control Mode
IESTAB	IQUANT	0	I/E Stability
CASPEED	IQUANT	1	Control Amp Speed
CONVENTION	IQUANT	1	Current Convention
ICHRANGE	IQUANT	2	Ich Range
ICHRANGEMODE	TOGGLE	F	Ich Auto Range
ICHOFFSETENABLE	TOGGLE	T	Ich Offset Enable
ICHOFFSET	QUANT	0	Ich Offset (V)
ICHFILTER	IQUANT	3	Ich Filter
VCHRANGE	IQUANT	2	Vch Range
VCHRANGEMODE	TOGGLE	F	Vch Auto Range
VCHOFFSETENABLE	TOGGLE	T	Vch Offset Enable
VCHOFFSET	QUANT	0	Vch Offset (V)
VCHFILTER	IQUANT	3	Vch Filter
ACHRANGE	IQUANT	2	Ach Range
ACHOFFSETENABLE	TOGGLE	F	Ach Offset Enable
ACHOFFSET	QUANT	0	Ach Offset (V)
ACHFILTER	IQUANT	3	Ach Filter
IERANGELOWERLIMIT	IQUANT	1	I/E Range Lower Limit
IERANGEMODE	TOGGLE	F	I/E AutoRange
IERANGE	IQUANT	8	I/E Range
POSFEEDENABLE	TOGGLE	F	Positive Feedback IR Comp
POSFEEDRESISTANCE	QUANT	0	Positive Feedback Resistance (ohm)
ACHSELECT	IQUANT	0	Ach Select
CABLEID	IQUANT	14	Cable ID
DCCALDATE	LABEL	2/27/2020	DC Calibration Date
ACCALDATE	LABEL	2/27/2020	AC Calibration Date
THERMOSELECT	IQUANT	1	Thermo Select
FRAMEWORKVERSION	QUANT	6.33	Framework Version
INSTRUMENTVERSION	LABEL	3.50	Instrument Version
ZCURVE	TABLE
	Pt	Time	Freq	Zreal	Zimag	Zsig	Zmod	Zphz	Idc	Vdc	IERange
	#	s	Hz	ohm	ohm	V	ohm	°	A	V	#
	0	1	1000078	1884.958	-2154.43	1	2862.627	-48.81661	-7.718975E-007	-0.0652445	8
	1	2	794390.6	2283.309	-2349.737	1	3276.395	-45.82145	6.873893E-007	-0.0657867	8
	2	4	630984.4	2732.963	-2452.034	1	3671.724	-41.89868	-1.366434E-007	-0.0658741	8
	3	5	501234.4	3201.664	-2539.576	1	4086.575	-38.42162	5.921973E-007	-0.0660212	8
	4	6	398109.4	3682.385	-2548.203	1	4478.09	-34.68316	-3.450062E-009	-0.0659987	8
	5	8	316265.6	4124.978	-2502.532	1	4824.739	-31.24425	3.387304E-007	-0.0660187	8
	6	9	251203.1	4582.531	-2403.314	1	5174.505	-27.67482	-4.442979E-007	-0.0658212	8
	7	11	199546.9	4989.09	-2300.367	1	5493.879	-24.75345	3.137433E-006	-0.0664524	8
	8	12	158578.1	5349.77	-2175.292	1	5775.113	-22.12735	-7.418669E-007	-0.0658125	8
	9	14	125953.1	5729.681	-1966.357	1	6057.706	-18.9416	4.711441E-007	-0.0666133	7
	10	15	100078.1	5991.07	-1811.221	1	6258.869	-16.82113	-4.122326E-008	-0.0659479	7
	11	17	79453.13	6238.312	-1681.434	1	6460.941	-15.08466	-7.629522E-009	-0.0659521	7
	12	18	63140.62	6451.285	-1558.797	1	6636.937	-13.58378	-2.857721E-008	-0.0659253	7
	13	19	50203.12	6639.382	-1455.372	1	6797.021	-12.36385	4.637255E-008	-0.0661188	7
	14	21	39890.62	6801.828	-1364.633	1	6937.369	-11.34449	6.186426E-009	-0.0660636	7
	15	22	31640.63	6947.525	-1294.03	1	7067.009	-10.55087	8.386888E-009	-0.0660089	7
	16	23	25171.88	7082.43	-1253.438	1	7192.49	-10.0362	-1.812064E-008	-0.066048	7
	17	25	20015.62	7209.547	-1236.392	1	7314.796	-9.7312	-3.612059E-008	-0.0659705	7
	18	26	15890.62	7334.133	-1246.481	1	7439.303	-9.6456	4.572458E-009	-0.0660694	7
	19	28	12609.37	7449.566	-1279.051	1	7558.572	-9.74239	7.165598E-008	-0.066046	7
	20	29	10078.13	7573.595	-1340.2	1	7691.26	-10.035	-1.096139E-008	-0.0660571	7
	21	30	8015.625	7709.658	-1430.115	1	7841.177	-10.50872	5.589946E-008	-0.066128	7
	22	32	6328.125	7856.299	-1555.711	1	8008.85	-11.20086	-3.092629E-008	-0.06601	7
	23	33	5015.625	8004.958	-1710.446	1	8185.656	-12.06121	-1.97982E-008	-0.0659418	7
	24	34	3984.375	8174.42	-1897.26	1	8391.706	-13.06684	5.755047E-008	-0.0660459	7
	25	36	3170.956	8355.261	-2120.725	1	8620.2	-14.24201	-7.812976E-009	-0.0660597	7
	26	37	2527.573	8555.908	-2389.49	1	8883.312	-15.60396	-3.791442E-008	-0.0659822	7
	27	38	1976.103	8795.786	-2728.423	1	9209.242	-17.23371	-7.836474E-009	-0.0658756	6
	28	40	1577.524	9027.794	-3112.344	1	9549.23	-19.0217	-1.141568E-008	-0.0658869	6
	29	41	1265.625	9263.002	-3558.802	1	9923.12	-21.01654	2.602035E-009	-0.0659336	6
	30	43	998.264	9541.12	-4148.174	1	10403.86	-23.49787	2.984879E-009	-0.0659513	6
	31	44	796.875	9832.07	-4830.754	1	10954.72	-26.16609	-1.256458E-008	-0.0658933	6
	32	45	627.7902	10162.66	-5713.015	1	11658.39	-29.34284	3.985511E-009	-0.0659043	6
	33	47	505.5147	10504	-6689.396	1	12453.19	-32.49074	-1.540011E-008	-0.0660353	6
	34	48	397.9953	10928.48	-8021.517	1	13556.41	-36.27872	1.303299E-010	-0.0659603	6
	35	49	315.5048	11404.97	-9606.54	1	14911.7	-40.10782	1.315201E-008	-0.0659636	6
	36	51	252.4038	11951.38	-11468.37	1	16563.78	-43.8185	-3.035297E-010	-0.065965	6
	37	52	198.6229	12653.56	-13913.29	1	18806.71	-47.71479	-6.325947E-011	-0.0659634	6
	38	54	158.3615	13463.69	-16741.65	1	21483.81	-51.19365	-2.431899E-010	-0.0659645	6
	39	55	125.558	14485.09	-20256.4	1	24902.61	-54.43193	-2.440975E-009	-0.0659634	6
	40	56	100.4464	15700.89	-24355.58	1	28977.79	-57.19204	-3.52594E-009	-0.0659639	6
	41	58	79.00281	17296.46	-29675.89	1	34348.6	-59.76442	9.453867E-009	-0.0659632	6
	42	59	63.3446	19185.7	-35698.05	1	40527.05	-61.74446	-8.592754E-009	-0.0659609	6
	43	60	49.86702	21565.59	-43144.86	1	48234.36	-63.44221	1.937016E-009	-0.0659647	6
	44	62	39.72458	24518.71	-52004.15	1	57494.34	-64.75725	6.782414E-011	-0.065954	6
	45	63	31.6723	28056.47	-62556.55	1	68560.1	-65.84387	1.068613E-010	-0.0659589	6
	46	65	24.93351	32635.79	-75924.62	1	82641.65	-66.73981	-9.233828E-011	-0.0659628	6
	47	66	19.86229	38197.39	-91380.19	1	99042.3	-67.31482	-8.553159E-009	-0.0659618	6
	48	67	15.83615	45299.02	-109476.7	1	118478.5	-67.52132	5.058518E-010	-0.065958	5
	49	69	12.40079	55088.89	-133650.4	1	144558.7	-67.5992	7.078384E-009	-0.0659617	5
	50	70	9.93114	66530.48	-158731.5	1	172110.4	-67.25957	-4.746172E-009	-0.0659461	5
	51	72	7.944915	81146.77	-188126.7	1	204881.5	-66.66748	2.088218E-009	-0.0659532	5
	52	74	6.317385	100291.5	-223262.7	1	244754.2	-65.80997	-7.470619E-010	-0.0659453	5
	53	76	5.008013	124813	-263762.6	1	291803	-64.67639	4.608436E-011	-0.065966	5
	54	78	3.945707	154442.7	-310061.3	1	346396.5	-63.52194	-9.084809E-010	-0.0659491	5
	55	81	3.158693	190687.4	-358836.8	1	406356.4	-62.01363	6.733476E-010	-0.0659651	5
	56	84	2.504006	233227.7	-413888.6	1	475077.8	-60.59859	1.401605E-009	-0.0659541	5
	57	87	1.998082	276998.8	-470993.6	1	546409.4	-59.53955	-1.405864E-009	-0.0659217	5
	58	90	1.584686	333100.7	-540614.1	1	634995.8	-58.3606	-7.46901E-010	-0.0659945	5
	59	94	1.266892	395403.4	-620885.4	1	736099.6	-57.50946	1.767552E-010	-0.0659453	5
	60	98	0.999041	467936.7	-718916.6	1	857791.2	-56.94024	6.787636E-010	-0.0659964	5
