EXPLAIN
TAG	EISPOT
TITLE	LABEL	Potentiostatic EIS	Test &Identifier
DATE	LABEL	3/17/2020	Date
TIME	LABEL	16:27:41	Time
NOTES	NOTES	1	&Notes...
	
PSTAT	PSTAT	REF600-11020	Potentiostat
VDC	POTEN	0.00000E+000	T	DC &Voltage (V)
FREQINIT	QUANT	1.00000E+006	Initial Fre&q. (Hz)
FREQFINAL	QUANT	1.00000E+000	Final Fre&q. (Hz)
PTSPERDEC	QUANT	1.00000E+001	Points/&decade
VAC	QUANT	2.50000E+001	AC &Voltage (mV rms)
AREA	QUANT	4.00000E-004	&Area (cm^2)
CONDIT	TWOPARAM	F	5.00000E+000	0.00000E+000	Conditionin&g	Time(s)	E(V)
DELAY	TWOPARAM	T	3.00000E+000	0.00000E+000	Init. De&lay	Time(s)	Stab.(mV/s)
SPEED	SELECTOR	0	&Optimize for:
ZGUESS	QUANT	5.00000E+003	E&stimated Z (ohms)
OCVCURVE	TABLE	12
	Pt	T	Vf	Vm	Ach	Over
	#	s	V vs. Ref.	V	V	bits
	0	0.258333	-6.19117E-002	-6.19117E-002	5.79163E-004	...........
	1	0.516667	-6.19115E-002	-6.19043E-002	5.79463E-004	...........
	2	0.775	-6.19107E-002	-6.19011E-002	5.74197E-004	...........
	3	1.03333	-6.19087E-002	-6.18964E-002	5.77397E-004	...........
	4	1.29167	-6.19054E-002	-6.18947E-002	5.76597E-004	...........
	5	1.55	-6.19016E-002	-6.18899E-002	5.76163E-004	...........
	6	1.80833	-6.18978E-002	-6.18881E-002	5.79063E-004	...........
	7	2.06667	-6.18943E-002	-6.18859E-002	5.80163E-004	...........
	8	2.325	-6.18912E-002	-6.18839E-002	5.77997E-004	...........
	9	2.58333	-6.18885E-002	-6.18808E-002	5.80130E-004	...........
	10	2.84167	-6.18860E-002	-6.18781E-002	5.78397E-004	...........
	11	3.1	-6.18836E-002	-6.18751E-002	5.75363E-004	...........
EOC	QUANT	-0.0618836	Open Circuit (V)
PSTATMODEL	IQUANT	4	Pstat Model
PSTATSECTION	LABEL	REF600-11020	Pstat Section
PSTATSERIALNO	LABEL	11020	Pstat Serial Number
CTRLMODE	IQUANT	1	Control Mode
IESTAB	IQUANT	0	I/E Stability
CASPEED	IQUANT	1	Control Amp Speed
CONVENTION	IQUANT	1	Current Convention
ICHRANGE	IQUANT	2	Ich Range
ICHRANGEMODE	TOGGLE	F	Ich Auto Range
ICHOFFSETENABLE	TOGGLE	T	Ich Offset Enable
ICHOFFSET	QUANT	0	Ich Offset (V)
ICHFILTER	IQUANT	3	Ich Filter
VCHRANGE	IQUANT	2	Vch Range
VCHRANGEMODE	TOGGLE	F	Vch Auto Range
VCHOFFSETENABLE	TOGGLE	T	Vch Offset Enable
VCHOFFSET	QUANT	0	Vch Offset (V)
VCHFILTER	IQUANT	3	Vch Filter
ACHRANGE	IQUANT	2	Ach Range
ACHOFFSETENABLE	TOGGLE	F	Ach Offset Enable
ACHOFFSET	QUANT	0	Ach Offset (V)
ACHFILTER	IQUANT	3	Ach Filter
IERANGELOWERLIMIT	IQUANT	1	I/E Range Lower Limit
IERANGEMODE	TOGGLE	F	I/E AutoRange
IERANGE	IQUANT	7	I/E Range
POSFEEDENABLE	TOGGLE	F	Positive Feedback IR Comp
POSFEEDRESISTANCE	QUANT	0	Positive Feedback Resistance (ohm)
ACHSELECT	IQUANT	0	Ach Select
CABLEID	IQUANT	14	Cable ID
DCCALDATE	LABEL	2/27/2020	DC Calibration Date
ACCALDATE	LABEL	2/27/2020	AC Calibration Date
THERMOSELECT	IQUANT	1	Thermo Select
FRAMEWORKVERSION	QUANT	6.33	Framework Version
INSTRUMENTVERSION	LABEL	3.50	Instrument Version
ZCURVE	TABLE
	Pt	Time	Freq	Zreal	Zimag	Zsig	Zmod	Zphz	Idc	Vdc	IERange
	#	s	Hz	ohm	ohm	V	ohm	°	A	V	#
	0	1	1000078	1519.715	-2770.138	1	3159.619	-61.25056	1.979096E-008	-0.0596491	8
	1	1	794390.6	1825.35	-3241.802	1	3720.374	-60.6176	7.208853E-008	-0.0599607	8
	2	1	630984.4	2201.615	-3785.598	1	4379.253	-59.81871	8.81962E-008	-0.0601661	8
	3	2	501234.4	2659.548	-4393.006	1	5135.338	-58.80908	1.984287E-008	-0.0602025	8
	4	2	398109.4	3221.662	-5076.46	1	6012.45	-57.59966	2.721891E-008	-0.0602572	8
	5	2	316265.6	3903.529	-5834.833	1	7020.172	-56.2173	5.07988E-008	-0.0603177	8
	6	3	251203.1	4753.216	-6648.573	1	8172.917	-54.43816	6.129605E-008	-0.0603419	8
	7	3	199546.9	5767.015	-7498.273	1	9459.521	-52.43567	4.389529E-008	-0.0603443	8
	8	3	158578.1	6966.47	-8376.587	1	10894.9	-50.25107	5.428303E-008	-0.0603475	8
	9	3	125953.1	8553.477	-9103.008	1	12491.07	-46.78267	1.378143E-009	-0.0604016	7
	10	4	100078.1	10076.7	-9823.61	1	14072.78	-44.27135	2.760181E-009	-0.0604111	7
	11	4	79453.13	11854.04	-10417.62	1	15781.17	-41.30979	2.905202E-009	-0.0604143	7
	12	4	63140.62	13633.16	-10908.68	1	17460.3	-38.66532	2.685794E-009	-0.060417	7
	13	5	50203.12	15449.75	-11256.7	1	19115.65	-36.0771	2.916296E-009	-0.0604239	7
	14	5	39890.62	17232.28	-11528.09	1	20732.79	-33.78181	3.67296E-009	-0.0604214	7
	15	5	31640.63	18968.52	-11724.76	1	22299.66	-31.72092	3.481682E-009	-0.0604262	7
	16	6	25171.88	20624.22	-11912.29	1	23817.24	-30.01019	3.487464E-009	-0.0604289	7
	17	6	20015.62	22222.3	-12161.02	1	25332.21	-28.68941	2.984585E-009	-0.0604264	7
	18	6	15890.62	23830.83	-12549.18	1	26933.07	-27.77105	4.20163E-009	-0.0604261	7
	19	7	12609.37	25718.06	-12626.63	1	28650.48	-26.14935	7.676794E-010	-0.0603685	6
	20	7	10078.13	27224.73	-13284.59	1	30293	-26.01054	5.643689E-010	-0.060379	6
	21	7	8015.625	28827.38	-14114.53	1	32097.32	-26.08741	4.96396E-010	-0.0603802	6
	22	8	6328.125	30576.28	-15162.54	1	34129.34	-26.37646	5.579648E-010	-0.0603798	6
	23	8	5015.625	32424.05	-16400.05	1	36335.67	-26.83024	5.059285E-010	-0.0603813	6
	24	8	3984.375	34385.98	-17828.58	1	38733.11	-27.40601	3.952891E-010	-0.0603909	6
	25	9	3170.956	36509.47	-19489.93	1	41385.97	-28.09473	5.24836E-010	-0.0603885	6
	26	9	2527.573	38820.87	-21396.85	1	44327.03	-28.86218	4.853016E-010	-0.0603844	6
	27	9	1976.103	41574.49	-23781.09	1	47895.49	-29.77006	5.149933E-010	-0.0603875	6
	28	10	1577.524	44365.2	-26289.67	1	51569.55	-30.64989	4.343577E-010	-0.0603897	6
	29	10	1265.625	47382.36	-29069.81	1	55589.04	-31.52976	4.668615E-010	-0.0603965	6
	30	10	998.264	50975.17	-32490.32	1	60449.06	-32.51244	4.900592E-010	-0.0603905	6
	31	10	796.875	54817.29	-36143.29	1	65660.28	-33.39851	3.166002E-010	-0.0603997	6
	32	11	627.7902	59316.99	-40551.99	1	71853.8	-34.35841	4.346815E-010	-0.0603941	6
	33	11	505.5147	63897.06	-45095.81	1	78207.84	-35.21281	4.91918E-010	-0.0603905	6
	34	11	397.9953	69522.88	-50726.12	1	86061.44	-36.11569	4.844636E-010	-0.0603799	6
	35	12	315.5048	75663.72	-56923.14	1	94684.97	-36.95479	5.334271E-010	-0.0603803	6
	36	12	252.4038	82533.59	-63233.38	1	103972.4	-37.45765	1.253449E-011	-0.0603829	5
	37	12	198.6229	90437.42	-71472.93	1	115270.6	-38.31941	-1.629706E-011	-0.0603814	5
	38	13	158.3615	98828.9	-80277.5	1	127324.9	-39.08653	2.154597E-011	-0.0603838	5
	39	13	125.558	108550.1	-90503.66	1	141329.5	-39.81967	8.362598E-011	-0.0603761	5
	40	13	100.4464	119083.5	-101587.1	1	156527.4	-40.46663	1.035771E-010	-0.0603831	5
	41	14	79.00281	131972.2	-115083.5	1	175102.5	-41.08934	1.947872E-012	-0.0603798	5
	42	14	63.3446	145439.5	-129034.2	1	194428.6	-41.57951	-3.492271E-011	-0.0603829	5
	43	14	49.86702	162084	-145993.1	1	218140.4	-42.01015	-1.022611E-010	-0.0603837	5
	44	15	39.72458	180167.8	-163936.9	1	243589.3	-42.29944	1.766153E-012	-0.0603782	5
	45	15	31.6723	200675	-183731.8	1	272080.5	-42.47626	1.406771E-010	-0.0603806	5
	46	15	24.93351	225203.4	-206607.2	1	305619.2	-42.53404	-2.96589E-010	-0.0603821	5
	47	16	19.86229	251250.3	-230436.8	1	340922	-42.52582	-4.137186E-010	-0.0603812	5
	48	16	15.83615	280218.4	-256551.7	1	379922.5	-42.4754	-9.719011E-012	-0.0603826	5
	49	16	12.40079	314937.3	-287050.1	1	426125.9	-42.34765	-5.622136E-010	-0.0603812	5
	50	17	9.93114	349018.3	-318938.3	1	472795.3	-42.42154	-3.110192E-010	-0.0603854	5
	51	17	7.944915	386849.8	-353493.8	1	524033	-42.4203	6.102259E-010	-0.0603891	5
	52	17	6.317385	430960.3	-394795.6	1	584457.3	-42.49228	-1.834866E-010	-0.0603721	5
	53	18	5.008013	480888.7	-441929	1	653111.9	-42.58251	-2.774894E-010	-0.0603899	5
	54	19	3.945707	537650.4	-493925.1	1	730089	-42.57286	1.249744E-010	-0.0603813	5
	55	20	3.158693	597907.9	-549393.3	1	811989.4	-42.57864	-1.483973E-010	-0.0603871	5
	56	21	2.504006	665875.9	-611526.9	1	904077.4	-42.56374	7.249024E-012	-0.060395	5
	57	22	1.998082	741184.3	-679726.9	1	1005675	-42.52338	1.417609E-010	-0.060352	4
	58	24	1.584686	819858	-756681.1	1	1115676	-42.7052	6.664738E-011	-0.0603994	4
	59	26	1.266892	905464.5	-838992.4	1	1234413	-42.81781	-3.496592E-012	-0.0604292	4
	60	28	0.999041	1003102	-941480.1	1	1375717	-43.18496	-4.071549E-011	-0.0604443	4
