EXPLAIN
TAG	EISPOT
TITLE	LABEL	Potentiostatic EIS	Test &Identifier
DATE	LABEL	6/26/2020	Date
TIME	LABEL	14:00:11	Time
NOTES	NOTES	1	&Notes...
	
PSTAT	PSTAT	REF600-11020	Potentiostat
VDC	POTEN	0.00000E+000	T	DC &Voltage (V)
FREQINIT	QUANT	1.00000E+006	Initial Fre&q. (Hz)
FREQFINAL	QUANT	1.00000E+000	Final Fre&q. (Hz)
PTSPERDEC	QUANT	1.00000E+001	Points/&decade
VAC	QUANT	2.50000E+001	AC &Voltage (mV rms)
AREA	QUANT	4.00000E-004	&Area (cm^2)
CONDIT	TWOPARAM	F	5.00000E+000	0.00000E+000	Conditionin&g	Time(s)	E(V)
DELAY	TWOPARAM	F	3.00000E+000	0.00000E+000	Init. De&lay	Time(s)	Stab.(mV/s)
SPEED	SELECTOR	0	&Optimize for:
ZGUESS	QUANT	1.00000E+003	E&stimated Z (ohms)
OCVCURVE	TABLE	39
	Pt	T	Vf	Vm	Ach	Over
	#	s	V vs. Ref.	V	V	bits
	0	0.258333	9.11581E-002	9.11581E-002	5.29216E-004	...........
	1	0.516667	9.11579E-002	9.11517E-002	5.34217E-004	...........
	2	0.775	9.11572E-002	9.11468E-002	5.30883E-004	...........
	3	1.03333	9.11553E-002	9.11475E-002	5.30483E-004	...........
	4	1.29167	9.11525E-002	9.11431E-002	5.32050E-004	...........
	5	1.55	9.11493E-002	9.11345E-002	5.31783E-004	...........
	6	1.80833	9.11457E-002	9.11331E-002	5.28383E-004	...........
	7	2.06667	9.11418E-002	9.11335E-002	5.30583E-004	...........
	8	2.325	9.11380E-002	9.11329E-002	5.33250E-004	...........
	9	2.58333	9.11351E-002	9.11304E-002	5.32750E-004	...........
	10	2.84167	9.11333E-002	9.11280E-002	5.37350E-004	...........
	11	3.1	9.11318E-002	9.11239E-002	5.33450E-004	...........
	12	3.35833	9.11300E-002	9.11231E-002	5.35416E-004	...........
	13	3.61667	9.11278E-002	9.11219E-002	5.31150E-004	...........
	14	3.875	9.11255E-002	9.11200E-002	5.29850E-004	...........
	15	4.13333	9.11235E-002	9.11172E-002	5.29250E-004	...........
	16	4.39167	9.11216E-002	9.11145E-002	5.36750E-004	...........
	17	4.65	9.11196E-002	9.11139E-002	5.31883E-004	...........
	18	4.90833	9.11175E-002	9.11079E-002	5.26217E-004	...........
	19	5.16667	9.11151E-002	9.11061E-002	5.30683E-004	...........
	20	5.425	9.11123E-002	9.10992E-002	5.24817E-004	...........
	21	5.68333	9.11089E-002	9.10993E-002	5.29717E-004	...........
	22	5.94167	9.11053E-002	9.10967E-002	5.28750E-004	...........
	23	6.2	9.11021E-002	9.10977E-002	5.30883E-004	...........
	24	6.45833	9.10995E-002	9.10921E-002	5.26817E-004	...........
	25	6.71667	9.10975E-002	9.10907E-002	5.26683E-004	...........
	26	6.975	9.10955E-002	9.10875E-002	5.28917E-004	...........
	27	7.23333	9.10932E-002	9.10847E-002	5.29083E-004	...........
	28	7.49167	9.10906E-002	9.10832E-002	5.26217E-004	...........
	29	7.75	9.10880E-002	9.10826E-002	5.27883E-004	...........
	30	8.00833	9.10856E-002	9.10790E-002	5.30283E-004	...........
	31	8.26667	9.10836E-002	9.10779E-002	5.27783E-004	...........
	32	8.525	9.10816E-002	9.10730E-002	5.28317E-004	...........
	33	8.78333	9.10795E-002	9.10741E-002	5.28283E-004	...........
	34	9.04167	9.10773E-002	9.10714E-002	5.25883E-004	...........
	35	9.3	9.10751E-002	9.10679E-002	5.29550E-004	...........
	36	9.5583	9.10730E-002	9.10620E-002	5.27083E-004	...........
	37	9.8167	9.10705E-002	9.10622E-002	5.24750E-004	...........
	38	10.075	9.10675E-002	9.10599E-002	5.23617E-004	...........
EOC	QUANT	0.0910675	Open Circuit (V)
PSTATMODEL	IQUANT	4	Pstat Model
PSTATSECTION	LABEL	REF600-11020	Pstat Section
PSTATSERIALNO	LABEL	11020	Pstat Serial Number
CTRLMODE	IQUANT	1	Control Mode
IESTAB	IQUANT	0	I/E Stability
CASPEED	IQUANT	1	Control Amp Speed
CONVENTION	IQUANT	1	Current Convention
ICHRANGE	IQUANT	2	Ich Range
ICHRANGEMODE	TOGGLE	F	Ich Auto Range
ICHOFFSETENABLE	TOGGLE	T	Ich Offset Enable
ICHOFFSET	QUANT	0	Ich Offset (V)
ICHFILTER	IQUANT	3	Ich Filter
VCHRANGE	IQUANT	2	Vch Range
VCHRANGEMODE	TOGGLE	F	Vch Auto Range
VCHOFFSETENABLE	TOGGLE	T	Vch Offset Enable
VCHOFFSET	QUANT	0	Vch Offset (V)
VCHFILTER	IQUANT	3	Vch Filter
ACHRANGE	IQUANT	2	Ach Range
ACHOFFSETENABLE	TOGGLE	F	Ach Offset Enable
ACHOFFSET	QUANT	0	Ach Offset (V)
ACHFILTER	IQUANT	3	Ach Filter
IERANGELOWERLIMIT	IQUANT	1	I/E Range Lower Limit
IERANGEMODE	TOGGLE	F	I/E AutoRange
IERANGE	IQUANT	8	I/E Range
POSFEEDENABLE	TOGGLE	F	Positive Feedback IR Comp
POSFEEDRESISTANCE	QUANT	0	Positive Feedback Resistance (ohm)
ACHSELECT	IQUANT	0	Ach Select
CABLEID	IQUANT	14	Cable ID
DCCALDATE	LABEL	6/26/2020	DC Calibration Date
ACCALDATE	LABEL	6/26/2020	AC Calibration Date
THERMOSELECT	IQUANT	1	Thermo Select
FRAMEWORKVERSION	QUANT	6.33	Framework Version
INSTRUMENTVERSION	LABEL	3.50	Instrument Version
ZCURVE	TABLE
	Pt	Time	Freq	Zreal	Zimag	Zsig	Zmod	Zphz	Idc	Vdc	IERange
	#	s	Hz	ohm	ohm	V	ohm	°	A	V	#
	0	2	1000078	1652.82	-1925.727	1	2537.762	-49.36105	2.304126E-008	0.0934443	8
	1	2	794390.6	1998.996	-2106.146	1	2903.763	-46.49516	2.475524E-008	0.0931255	8
	2	2	630984.4	2394.125	-2251.195	1	3286.292	-43.23766	6.415624E-008	0.0930113	8
	3	2	501234.4	2826.355	-2360.663	1	3682.528	-39.86972	9.222789E-008	0.0928683	8
	4	3	398109.4	3282.261	-2414.472	1	4074.667	-36.33866	6.092613E-008	0.0928417	8
	5	3	316265.6	3755.62	-2402.855	1	4458.52	-32.61121	5.496373E-008	0.0927974	8
	6	3	251203.1	4209.842	-2332.92	1	4813.033	-28.99341	-8.972482E-009	0.0927904	8
	7	4	199546.9	4626.711	-2201.371	1	5123.718	-25.44492	2.985742E-008	0.0927802	8
	8	4	158578.1	4993.167	-2037.297	1	5392.801	-22.19629	6.729991E-008	0.0927962	8
	9	4	125953.1	5354.803	-1783.581	1	5644.03	-18.42192	3.1456E-008	0.0927742	7
	10	5	100078.1	5612.228	-1606.74	1	5837.698	-15.97603	7.717472E-009	0.0927664	7
	11	5	79453.13	5815.683	-1440.413	1	5991.407	-13.91092	1.115074E-008	0.0927415	7
	12	5	63140.62	5978.585	-1290.678	1	6116.316	-12.18226	4.73044E-009	0.0927454	7
	13	6	50203.12	6112.843	-1163.948	1	6222.67	-10.78065	-4.189835E-009	0.092759	7
	14	6	39890.62	6227.604	-1062.11	1	6317.525	-9.6786	-7.175699E-009	0.0927595	7
	15	6	31640.63	6325.224	-983.709	1	6401.261	-8.839913	7.980897E-009	0.0927558	7
	16	7	25171.88	6412.378	-930.1226	1	6479.484	-8.253256	1.387657E-009	0.092745	7
	17	7	20015.62	6492.662	-899.1886	1	6554.632	-7.884911	-2.373968E-009	0.0927457	7
	18	7	15890.62	6565.84	-890.8466	1	6626	-7.726651	3.494655E-009	0.0927525	7
	19	8	12609.37	6640.924	-906.3437	1	6702.487	-7.771631	-9.485382E-009	0.0927535	7
	20	8	10078.13	6712.394	-944.0001	1	6778.449	-8.005312	-1.009891E-008	0.0927538	7
	21	8	8015.625	6787.034	-1007.603	1	6861.42	-8.44445	1.220477E-008	0.0927351	7
	22	8	6328.125	6865.077	-1101.547	1	6952.89	-9.115785	7.393314E-009	0.0927509	7
	23	9	5015.625	6947.287	-1226.558	1	7054.731	-10.01251	9.268095E-009	0.0927469	7
	24	9	3984.375	7035.146	-1387.876	1	7170.737	-11.15986	1.278859E-008	0.0927296	7
	25	9	3170.956	7127.936	-1590.544	1	7303.239	-12.57904	1.229709E-008	0.0927269	7
	26	10	2527.573	7229.137	-1839.986	1	7459.623	-14.27992	-5.02525E-009	0.092758	7
	27	10	1976.103	7354.033	-2183.315	1	7671.289	-16.53546	1.151403E-008	0.0927261	7
	28	10	1577.524	7481.736	-2572.646	1	7911.692	-18.97588	1.282748E-008	0.0927309	7
	29	11	1265.625	7626.962	-3040.176	1	8210.556	-21.73267	-1.797945E-009	0.0927359	7
	30	11	998.264	7809.85	-3657.9	1	8624.036	-25.09699	1.012289E-008	0.0927314	7
	31	11	796.875	8021.805	-4376.998	1	9138.242	-28.61854	-7.389172E-009	0.0927399	7
	32	12	627.7902	8298.044	-5302.45	1	9847.51	-32.57858	-5.073188E-010	0.0927479	6
	33	12	505.5147	8601.22	-6332.875	1	10681.12	-36.36334	-1.274153E-009	0.0927255	6
	34	12	397.9953	9021.324	-7713.188	1	11869.19	-40.53028	4.532673E-010	0.0927533	6
	35	13	315.5048	9541.32	-9341.557	1	13352.96	-44.39388	5.894823E-010	0.0927534	6
	36	13	252.4038	10177.11	-11219.7	1	15147.78	-47.78959	4.917243E-010	0.0927494	6
	37	13	198.6229	11048.74	-13637.68	1	17551.67	-50.98691	4.194587E-010	0.09275	6
	38	14	158.3615	12099.21	-16360.58	1	20348.45	-53.51579	3.686736E-010	0.0927507	6
	39	14	125.558	13457.32	-19659.39	1	23824.17	-55.60743	3.501053E-010	0.0927558	6
	40	14	100.4464	15091.64	-23379.71	1	27827.48	-57.1577	3.265114E-010	0.0927528	6
	41	15	79.00281	17273.88	-28067.24	1	32956.89	-58.38993	5.25235E-010	0.0927484	6
	42	15	63.3446	19747.6	-33093.78	1	38537.85	-59.17478	4.087083E-010	0.092747	6
	43	15	49.86702	23004.7	-39433.32	1	45653.07	-59.74147	3.108781E-010	0.0927389	6
	44	16	39.72458	26770.83	-46459.36	1	53620.42	-60.04858	3.13405E-010	0.0927495	6
	45	16	31.6723	31330.82	-54581.37	1	62934.46	-60.1433	5.434851E-010	0.0927494	6
	46	16	24.93351	37192.91	-64518.5	1	74471.13	-60.03788	1.646341E-010	0.092747	6
	47	17	19.86229	44021.41	-75504.09	1	87399.96	-59.75639	-1.497891E-009	0.0927459	6
	48	17	15.83615	52475.77	-87736.23	1	102231.9	-59.11601	1.779035E-009	0.0927392	5
	49	17	12.40079	63485.74	-102617.5	1	120668.1	-58.25641	1.428343E-009	0.0927384	5
	50	17	9.93114	75506.77	-117246	1	139455.7	-57.21834	1.66606E-009	0.0927445	5
	51	18	7.944915	88954.41	-133512.9	1	160432.5	-56.32604	1.185509E-009	0.0927353	5
	52	18	6.317385	104970.8	-151461	1	184280.5	-55.2759	-2.149607E-010	0.0927545	5
	53	19	5.008013	122665.3	-171231.7	1	210634.9	-54.38332	1.44256E-010	0.0927357	5
	54	20	3.945707	141727.1	-194248.8	1	240456.2	-53.8849	4.686053E-010	0.0927333	5
	55	21	3.158693	160317.3	-218545.9	1	271042.3	-53.73758	8.942203E-011	0.0927545	5
	56	22	2.504006	180588.6	-249092.1	1	307667.2	-54.05836	-1.353186E-010	0.0927286	5
	57	23	1.998082	200897.7	-284119.1	1	347970.6	-54.73626	1.480189E-010	0.0927501	5
	58	25	1.584686	223962	-329636.8	1	398521.5	-55.80701	1.836674E-010	0.0927694	5
	59	27	1.266892	247624.2	-382794	1	455904.6	-57.10173	1.023825E-010	0.0927412	5
	60	29	0.999041	277278.8	-451216.3	1	529603.3	-58.42869	6.728769E-011	0.0927106	5
