EXPLAIN
TAG	EISPOT
TITLE	LABEL	Potentiostatic EIS	Test &Identifier
DATE	LABEL	1/25/2020	Date
TIME	LABEL	13:17:24	Time
NOTES	NOTES	6	&Notes...
	
	
	
	
	
	
PSTAT	PSTAT	REF600-11020	Potentiostat
VDC	POTEN	0.00000E+000	T	DC &Voltage (V)
FREQINIT	QUANT	1.00000E+006	Initial Fre&q. (Hz)
FREQFINAL	QUANT	1.00000E+000	Final Fre&q. (Hz)
PTSPERDEC	QUANT	1.00000E+001	Points/&decade
VAC	QUANT	2.50000E+001	AC &Voltage (mV rms)
AREA	QUANT	1.00000E-001	&Area (cm^2)
CONDIT	TWOPARAM	F	5.00000E+000	0.00000E+000	Conditionin&g	Time(s)	E(V)
DELAY	TWOPARAM	F	5.00000E+000	0.00000E+000	Init. De&lay	Time(s)	Stab.(mV/s)
SPEED	SELECTOR	0	&Optimize for:
ZGUESS	QUANT	5.00000E+002	E&stimated Z (ohms)
OCVCURVE	TABLE	39
	Pt	T	Vf	Vm	Ach	Over
	#	s	V vs. Ref.	V	V	bits
	0	0.258333	-4.18959E-002	-4.18959E-002	6.19180E-004	...........
	1	0.516667	-4.18935E-002	-4.17681E-002	6.18280E-004	...........
	2	0.775	-4.18807E-002	-4.17638E-002	6.20980E-004	...........
	3	1.03333	-4.18518E-002	-4.17465E-002	6.19180E-004	...........
	4	1.29167	-4.18133E-002	-4.17279E-002	6.15080E-004	...........
	5	1.55	-4.17775E-002	-4.17109E-002	6.14613E-004	...........
	6	1.80833	-4.17506E-002	-4.17220E-002	6.10980E-004	...........
	7	2.06667	-4.17326E-002	-4.17108E-002	6.12514E-004	...........
	8	2.325	-4.17220E-002	-4.17126E-002	6.10913E-004	...........
	9	2.58333	-4.17162E-002	-4.16951E-002	6.12614E-004	...........
	10	2.84167	-4.17113E-002	-4.16685E-002	6.12713E-004	...........
	11	3.1	-4.17041E-002	-4.16886E-002	6.14680E-004	...........
	12	3.35833	-4.16950E-002	-4.16862E-002	6.14447E-004	...........
	13	3.61667	-4.16878E-002	-4.16834E-002	6.14280E-004	...........
	14	3.875	-4.16845E-002	-4.16817E-002	6.14580E-004	...........
	15	4.13333	-4.16837E-002	-4.16825E-002	6.11547E-004	...........
	16	4.39167	-4.16835E-002	-4.16955E-002	6.11647E-004	...........
	17	4.65	-4.16845E-002	-4.17018E-002	6.15113E-004	...........
	18	4.90833	-4.16883E-002	-4.17296E-002	6.16547E-004	...........
	19	5.16667	-4.16961E-002	-4.17389E-002	6.17213E-004	...........
	20	5.425	-4.17077E-002	-4.17324E-002	6.19013E-004	...........
	21	5.68333	-4.17201E-002	-4.17500E-002	6.07880E-004	...........
	22	5.94167	-4.17308E-002	-4.17617E-002	6.12547E-004	...........
	23	6.2	-4.17403E-002	-4.17838E-002	6.13047E-004	...........
	24	6.45833	-4.17513E-002	-4.18070E-002	6.14547E-004	...........
	25	6.71667	-4.17651E-002	-4.17932E-002	6.16213E-004	...........
	26	6.975	-4.17790E-002	-4.17786E-002	6.13480E-004	...........
	27	7.23333	-4.17873E-002	-4.17471E-002	6.13813E-004	...........
	28	7.49167	-4.17856E-002	-4.17503E-002	6.17413E-004	...........
	29	7.75	-4.17759E-002	-4.17656E-002	6.12814E-004	...........
	30	8.00833	-4.17657E-002	-4.17787E-002	6.23447E-004	...........
	31	8.26667	-4.17620E-002	-4.17888E-002	6.20080E-004	...........
	32	8.525	-4.17665E-002	-4.18127E-002	6.18280E-004	...........
	33	8.78333	-4.17771E-002	-4.18184E-002	6.14747E-004	...........
	34	9.04167	-4.17908E-002	-4.18304E-002	6.13580E-004	...........
	35	9.3	-4.18045E-002	-4.18252E-002	6.15013E-004	...........
	36	9.5583	-4.18152E-002	-4.17999E-002	6.15347E-004	...........
	37	9.8167	-4.18199E-002	-4.18204E-002	6.17913E-004	...........
	38	10.075	-4.18197E-002	-4.18412E-002	6.18013E-004	...........
EOC	QUANT	-0.0418197	Open Circuit (V)
PSTATMODEL	IQUANT	4	Pstat Model
PSTATSECTION	LABEL	REF600-11020	Pstat Section
PSTATSERIALNO	LABEL	11020	Pstat Serial Number
CTRLMODE	IQUANT	1	Control Mode
IESTAB	IQUANT	0	I/E Stability
CASPEED	IQUANT	1	Control Amp Speed
CONVENTION	IQUANT	1	Current Convention
ICHRANGE	IQUANT	2	Ich Range
ICHRANGEMODE	TOGGLE	F	Ich Auto Range
ICHOFFSETENABLE	TOGGLE	T	Ich Offset Enable
ICHOFFSET	QUANT	0	Ich Offset (V)
ICHFILTER	IQUANT	3	Ich Filter
VCHRANGE	IQUANT	2	Vch Range
VCHRANGEMODE	TOGGLE	F	Vch Auto Range
VCHOFFSETENABLE	TOGGLE	T	Vch Offset Enable
VCHOFFSET	QUANT	0	Vch Offset (V)
VCHFILTER	IQUANT	3	Vch Filter
ACHRANGE	IQUANT	2	Ach Range
ACHOFFSETENABLE	TOGGLE	F	Ach Offset Enable
ACHOFFSET	QUANT	0	Ach Offset (V)
ACHFILTER	IQUANT	3	Ach Filter
IERANGELOWERLIMIT	IQUANT	1	I/E Range Lower Limit
IERANGEMODE	TOGGLE	F	I/E AutoRange
IERANGE	IQUANT	8	I/E Range
POSFEEDENABLE	TOGGLE	F	Positive Feedback IR Comp
POSFEEDRESISTANCE	QUANT	0	Positive Feedback Resistance (ohm)
ACHSELECT	IQUANT	0	Ach Select
CABLEID	IQUANT	14	Cable ID
DCCALDATE	LABEL	12/22/2019	DC Calibration Date
ACCALDATE	LABEL	12/22/2019	AC Calibration Date
THERMOSELECT	IQUANT	1	Thermo Select
FRAMEWORKVERSION	QUANT	6.33	Framework Version
INSTRUMENTVERSION	LABEL	3.50	Instrument Version
ZCURVE	TABLE
	Pt	Time	Freq	Zreal	Zimag	Zsig	Zmod	Zphz	Idc	Vdc	IERange
	#	s	Hz	ohm	ohm	V	ohm	°	A	V	#
	0	1	1000078	2088.421	-2174.176	1	3014.72	-46.15252	-1.103752E-006	-0.0390426	8
	1	2	794390.6	2466.152	-2307.579	1	3377.399	-43.09745	-6.052607E-007	-0.0395028	8
	2	2	630984.4	2861.222	-2407.939	1	3739.621	-40.0832	-2.157531E-006	-0.0394106	8
	3	2	501234.4	3275.585	-2485.838	1	4112.038	-37.19482	-2.511889E-008	-0.0399661	8
	4	3	398109.4	3679.578	-2523.983	1	4462.038	-34.44793	-2.646696E-006	-0.0395096	8
	5	3	316265.6	4058.093	-2568.715	1	4802.75	-32.33323	-5.802152E-007	-0.0399061	8
	6	3	251203.1	4472.795	-2600.125	1	5173.639	-30.17029	1.410594E-006	-0.0404977	8
	7	4	199546.9	4839.596	-2678.28	1	5531.263	-28.96057	3.571097E-008	-0.0401884	8
	8	4	158578.1	5210.946	-2653.644	1	5847.716	-26.98721	-7.048309E-007	-0.0399273	8
	9	4	125953.1	5571.543	-2670.686	1	6178.564	-25.61045	-5.741717E-007	-0.0384724	7
	10	5	100078.1	5935.27	-2742.702	1	6538.336	-24.80177	2.191817E-009	-0.0401505	7
	11	5	79453.13	6304.519	-2837.229	1	6913.525	-24.22922	3.318292E-008	-0.0402659	7
	12	5	63140.62	6678.842	-2951.47	1	7301.925	-23.84128	2.165567E-009	-0.0402219	7
	13	5	50203.12	7066.117	-3085.781	1	7710.516	-23.59095	-2.848984E-008	-0.0401521	7
	14	6	39890.62	7469.917	-3242.796	1	8143.426	-23.46634	-3.770613E-008	-0.0401225	7
	15	6	31640.63	7889.679	-3427.269	1	8601.93	-23.48008	-2.87738E-008	-0.0401551	7
	16	6	25171.88	8325.063	-3642.091	1	9086.887	-23.62866	3.175882E-008	-0.0402675	7
	17	7	20015.62	8779.502	-3883.41	1	9600.03	-23.8611	4.631215E-009	-0.0402344	7
	18	7	15890.62	9262.376	-4177.514	1	10160.87	-24.27631	-2.275019E-008	-0.0401805	7
	19	7	12609.37	9804.37	-4471.791	1	10776.02	-24.5178	-3.182288E-009	-0.0401423	6
	20	8	10078.13	10322.61	-4863.376	1	11410.9	-25.22693	1.509881E-009	-0.0401607	6
	21	8	8015.625	10889.98	-5320.292	1	12120.12	-26.03778	-3.14821E-009	-0.0401271	6
	22	8	6328.125	11517.12	-5881.863	1	12932.14	-27.05367	1.394242E-009	-0.0401541	6
	23	9	5015.625	12193.81	-6535.825	1	13834.96	-28.19109	-3.988946E-009	-0.0400897	6
	24	9	3984.375	12934.1	-7292.402	1	14848.24	-29.41482	-6.148596E-009	-0.0401374	6
	25	9	3170.956	13764.65	-8171.198	1	16007.32	-30.69491	3.865957E-009	-0.0403248	6
	26	10	2527.573	14700.93	-9167.141	1	17324.95	-31.94666	9.911256E-009	-0.0403012	6
	27	10	1976.103	15860.25	-10400.2	1	18966.07	-33.25445	9.644194E-009	-0.0402996	6
	28	10	1577.524	17074.79	-11673.28	1	20683.66	-34.3587	-2.801294E-009	-0.0401894	6
	29	11	1265.625	18381.81	-13054.38	1	22545.68	-35.38157	-2.859581E-009	-0.0401892	6
	30	11	998.264	19941.31	-14717.34	1	24784.19	-36.42855	1.027228E-008	-0.0403037	6
	31	11	796.875	21555.48	-16525.84	1	27161.41	-37.47614	-2.676121E-009	-0.0401945	6
	32	11	627.7902	23418.37	-18716.01	1	29978.47	-38.63192	9.795829E-009	-0.0403049	6
	33	12	505.5147	25279.17	-21072.04	1	32909.99	-39.81368	4.241482E-009	-0.0401766	6
	34	12	397.9953	27602.03	-24126.43	1	36660.01	-41.15612	4.277067E-010	-0.040194	6
	35	12	315.5048	30190.27	-27640.25	1	40932.08	-42.47519	5.336801E-010	-0.0401947	6
	36	13	252.4038	33110.86	-31569.54	1	45748.93	-43.63491	5.841565E-010	-0.0401995	6
	37	13	198.6229	36858.18	-36461.38	1	51845.52	-44.68992	7.791082E-010	-0.0401952	6
	38	13	158.3615	41083.36	-41696.52	1	58535.82	-45.42439	8.118757E-010	-0.0401984	6
	39	14	125.558	46204.98	-47640.68	1	66366.66	-45.87647	5.935442E-010	-0.040194	6
	40	14	100.4464	52006.5	-53827.26	1	74846.84	-45.98561	2.486934E-010	-0.0401969	6
	41	14	79.00281	59113.74	-61150.95	1	85052.18	-45.97047	6.767604E-010	-0.0402039	6
	42	15	63.3446	65026.86	-68824.84	1	94685.54	-46.6253	6.308157E-010	-0.0401962	6
	43	15	49.86702	73647.31	-77109.95	1	106629.6	-46.31575	-6.466597E-011	-0.0402063	5
	44	15	39.72458	82560.23	-86396.81	1	119501.5	-46.30082	-2.394353E-011	-0.0402018	5
	45	16	31.6723	91473.53	-97028.1	1	133348.7	-46.68785	-1.144501E-010	-0.0402064	5
	46	16	24.93351	100958.7	-110441.8	1	149633	-47.56847	-1.680816E-010	-0.0402072	5
	47	16	19.86229	110787.5	-126026.2	1	167798.9	-48.68186	-6.706302E-010	-0.0402042	5
	48	17	15.83615	122139.8	-145259.6	1	189785.4	-49.94161	2.261216E-010	-0.0402073	5
	49	17	12.40079	135235.3	-170499.9	1	217620.8	-51.57963	1.943501E-010	-0.040206	5
	50	17	9.93114	149867.7	-196248.8	1	246929	-52.63242	5.812147E-010	-0.040203	5
	51	18	7.944915	166202.9	-228523.9	1	282571.3	-53.97202	2.255314E-010	-0.0401989	5
	52	18	6.317385	186832.9	-267840.3	1	326565.4	-55.10217	1.886796E-010	-0.0402085	5
	53	19	5.008013	212247.6	-315114.4	1	379929.1	-56.03748	2.787361E-010	-0.0401986	5
	54	20	3.945707	244468.5	-372217.6	1	445321	-56.70352	-2.645516E-011	-0.0402095	5
	55	21	3.158693	280832.5	-433504.6	1	516520.2	-57.06407	7.786922E-011	-0.040222	5
	56	23	2.504006	327226.4	-508106.9	1	604358.9	-57.21802	2.11143E-010	-0.0402194	5
	57	24	1.998082	380927.2	-588764.3	1	701248.1	-57.09736	3.234683E-011	-0.0402494	5
	58	26	1.584686	447392.9	-686003.8	1	819000.4	-56.88871	-6.211359E-012	-0.0402578	5
	59	28	1.266892	522193.7	-789679.9	1	946721	-56.52443	1.796363E-011	-0.0402302	5
	60	30	0.999041	618518.9	-912904.3	1	1102706	-55.88123	1.669788E-011	-0.040162	4
