EXPLAIN
TAG	EISPOT
TITLE	LABEL	Potentiostatic EIS	Test &Identifier
DATE	LABEL	1/7/2020	Date
TIME	LABEL	16:58:23	Time
NOTES	NOTES	5	&Notes...
	
	
	
	
	
PSTAT	PSTAT	REF600-11020	Potentiostat
VDC	POTEN	0.00000E+000	T	DC &Voltage (V)
FREQINIT	QUANT	1.00000E+006	Initial Fre&q. (Hz)
FREQFINAL	QUANT	1.00000E+000	Final Fre&q. (Hz)
PTSPERDEC	QUANT	1.00000E+001	Points/&decade
VAC	QUANT	2.50000E+001	AC &Voltage (mV rms)
AREA	QUANT	1.00000E-001	&Area (cm^2)
CONDIT	TWOPARAM	T	5.00000E+000	0.00000E+000	Conditionin&g	Time(s)	E(V)
DELAY	TWOPARAM	T	5.00000E+000	0.00000E+000	Init. De&lay	Time(s)	Stab.(mV/s)
SPEED	SELECTOR	0	&Optimize for:
ZGUESS	QUANT	1.00000E+003	E&stimated Z (ohms)
OCVCURVE	TABLE	19
	Pt	T	Vf	Vm	Ach	Over
	#	s	V vs. Ref.	V	V	bits
	0	0.258333	5.61596E-003	5.61596E-003	6.42680E-004	...........
	1	0.516667	5.61155E-003	5.38541E-003	6.44413E-004	...........
	2	0.775	5.58559E-003	5.22328E-003	6.42780E-004	...........
	3	1.03333	5.51544E-003	5.05353E-003	6.41080E-004	...........
	4	1.29167	5.39566E-003	4.88950E-003	6.44980E-004	...........
	5	1.55	5.24240E-003	4.73344E-003	6.42813E-004	...........
	6	1.80833	5.07576E-003	4.55139E-003	6.43080E-004	...........
	7	2.06667	4.90710E-003	4.40310E-003	6.41313E-004	...........
	8	2.325	4.74100E-003	4.29570E-003	6.37080E-004	...........
	9	2.58333	4.58259E-003	4.17632E-003	6.39913E-004	...........
	10	2.84167	4.43955E-003	4.16596E-003	6.42680E-004	...........
	11	3.1	4.31662E-003	3.92402E-003	6.46846E-004	...........
	12	3.35833	4.20552E-003	3.78337E-003	6.43180E-004	...........
	13	3.61667	4.08747E-003	3.65446E-003	6.39680E-004	...........
	14	3.875	3.95305E-003	3.50023E-003	6.42913E-004	...........
	15	4.13333	3.80847E-003	3.36985E-003	6.44646E-004	...........
	16	4.39167	3.66545E-003	3.38070E-003	6.42680E-004	...........
	17	4.65	3.53571E-003	3.16799E-003	6.48113E-004	...........
	18	4.90833	3.42205E-003	3.07314E-003	6.43046E-004	...........
EOC	QUANT	0.003422	Open Circuit (V)
PSTATMODEL	IQUANT	4	Pstat Model
PSTATSECTION	LABEL	REF600-11020	Pstat Section
PSTATSERIALNO	LABEL	11020	Pstat Serial Number
CTRLMODE	IQUANT	1	Control Mode
IESTAB	IQUANT	0	I/E Stability
CASPEED	IQUANT	1	Control Amp Speed
CONVENTION	IQUANT	1	Current Convention
ICHRANGE	IQUANT	2	Ich Range
ICHRANGEMODE	TOGGLE	F	Ich Auto Range
ICHOFFSETENABLE	TOGGLE	T	Ich Offset Enable
ICHOFFSET	QUANT	0	Ich Offset (V)
ICHFILTER	IQUANT	3	Ich Filter
VCHRANGE	IQUANT	2	Vch Range
VCHRANGEMODE	TOGGLE	F	Vch Auto Range
VCHOFFSETENABLE	TOGGLE	T	Vch Offset Enable
VCHOFFSET	QUANT	0	Vch Offset (V)
VCHFILTER	IQUANT	3	Vch Filter
ACHRANGE	IQUANT	2	Ach Range
ACHOFFSETENABLE	TOGGLE	F	Ach Offset Enable
ACHOFFSET	QUANT	0	Ach Offset (V)
ACHFILTER	IQUANT	3	Ach Filter
IERANGELOWERLIMIT	IQUANT	1	I/E Range Lower Limit
IERANGEMODE	TOGGLE	F	I/E AutoRange
IERANGE	IQUANT	6	I/E Range
POSFEEDENABLE	TOGGLE	F	Positive Feedback IR Comp
POSFEEDRESISTANCE	QUANT	0	Positive Feedback Resistance (ohm)
ACHSELECT	IQUANT	0	Ach Select
CABLEID	IQUANT	14	Cable ID
DCCALDATE	LABEL	12/22/2019	DC Calibration Date
ACCALDATE	LABEL	12/22/2019	AC Calibration Date
THERMOSELECT	IQUANT	1	Thermo Select
FRAMEWORKVERSION	QUANT	6.33	Framework Version
INSTRUMENTVERSION	LABEL	3.50	Instrument Version
ZCURVE	TABLE
	Pt	Time	Freq	Zreal	Zimag	Zsig	Zmod	Zphz	Idc	Vdc	IERange
	#	s	Hz	ohm	ohm	V	ohm	°	A	V	#
	0	1	1000078	2281.095	-1846.078	1	2934.519	-38.98307	-2.142754E-006	0.0056669	8
	1	1	794390.6	2613.395	-1822.077	1	3185.875	-34.88448	4.440807E-006	0.0045231	8
	2	1	630984.4	2966.09	-1755.879	1	3446.854	-30.62488	3.550389E-006	0.0044706	8
	3	2	501234.4	3294.771	-1655.867	1	3687.467	-26.68293	-7.407718E-007	0.0055861	8
	4	2	398109.4	3552.336	-1532.765	1	3868.91	-23.33927	-1.91697E-007	0.0055311	8
	5	2	316265.6	3800.4	-1384.151	1	4044.615	-20.01223	-8.513799E-007	0.0049703	8
	6	3	251203.1	3998.305	-1195.283	1	4173.146	-16.6439	-8.52887E-007	0.0055317	8
	7	3	199546.9	4151.771	-1066.325	1	4286.521	-14.40429	-4.109233E-006	0.0060048	8
	8	3	158578.1	4262.914	-936.2678	1	4364.52	-12.38725	1.012079E-007	0.0051495	8
	9	4	125953.1	4403.088	-759.8215	1	4468.167	-9.79085	5.239933E-007	0.0048766	7
	10	4	100078.1	4462.729	-668.1539	1	4512.47	-8.515	6.881177E-008	0.0049844	7
	11	4	79453.13	4528.629	-606.4738	1	4569.058	-7.627665	-9.476205E-008	0.0051713	7
	12	5	63140.62	4579.557	-559.559	1	4613.615	-6.966228	1.088922E-007	0.0048832	7
	13	5	50203.12	4626.872	-524.4414	1	4656.499	-6.466698	-1.353383E-008	0.00503	7
	14	5	39890.62	4671.154	-506.0451	1	4698.485	-6.182971	-2.78686E-008	0.0050166	7
	15	6	31640.63	4711.723	-500.1405	1	4738.193	-6.059151	1.096502E-007	0.0048791	7
	16	6	25171.88	4754.85	-507.9733	1	4781.907	-6.097932	1.055852E-008	0.0049499	7
	17	6	20015.62	4796.985	-527.6741	1	4825.92	-6.277366	1.279996E-007	0.0049707	7
	18	7	15890.62	4840.981	-561.5824	1	4873.446	-6.617071	-9.295402E-008	0.0051523	7
	19	7	12609.37	4885.396	-610.522	1	4923.396	-7.123256	1.777095E-007	0.0047999	7
	20	7	10078.13	4931.568	-669.4444	1	4976.798	-7.730464	-1.020303E-007	0.0052119	7
	21	8	8015.625	4983.439	-755.6687	1	5040.407	-8.622416	1.78658E-007	0.0047986	7
	22	8	6328.125	5039.292	-863.217	1	5112.69	-9.72027	1.106675E-007	0.0048663	7
	23	8	5015.625	5096.354	-1000.078	1	5193.552	-11.10231	-9.154132E-008	0.0053414	7
	24	8	3984.375	5159.609	-1164.801	1	5289.455	-12.72148	-6.791651E-011	0.0051008	7
	25	9	3170.956	5230.411	-1367.858	1	5406.314	-14.65577	-7.024153E-008	0.0051292	7
	26	9	2527.573	5308.249	-1619.803	1	5549.889	-16.96948	1.794847E-007	0.0048021	7
	27	9	1976.103	5405.493	-1958.281	1	5749.28	-19.91424	5.415655E-010	0.0051028	7
	28	10	1577.524	5511.538	-2334.336	1	5985.497	-22.95442	5.795875E-008	0.0048696	7
	29	10	1265.625	5625.702	-2795.82	1	6282.128	-26.42612	5.694303E-008	0.0048705	7
	30	10	998.264	5779.085	-3396.498	1	6703.285	-30.44371	6.485056E-010	0.0050514	7
	31	11	796.875	5951.438	-4086.933	1	7219.602	-34.47791	1.086101E-007	0.0048645	7
	32	11	627.7902	6168.033	-4980.579	1	7927.849	-38.92027	-7.102238E-008	0.0051278	7
	33	11	505.5147	6407.26	-5969.574	1	8757.214	-42.97467	7.070552E-008	0.0049476	7
	34	12	397.9953	6706.101	-7310.1	1	9920.15	-47.46751	7.534469E-009	0.0050495	7
	35	12	315.5048	7061.662	-8899.888	1	11361.12	-51.56958	1.388144E-009	0.0050542	6
	36	12	252.4038	7463.641	-10772.72	1	13105.62	-55.28469	4.622502E-010	0.0050525	6
	37	13	198.6229	7982.542	-13245.15	1	15464.63	-58.9236	1.103149E-009	0.0050549	6
	38	13	158.3615	8585.426	-16122.44	1	18265.89	-61.96408	8.803852E-010	0.0050499	6
	39	13	125.558	9344.942	-19752.87	1	21851.86	-64.6815	7.8035E-010	0.0050506	6
	40	14	100.4464	10278.2	-24011.38	1	26118.72	-66.82639	1.724021E-009	0.0050472	6
	41	14	79.00281	11573.9	-29639.6	1	31819.2	-68.66997	6.411879E-010	0.005045	6
	42	14	63.3446	12868.26	-36218.2	1	38436.31	-70.43996	7.344843E-010	0.0050455	6
	43	15	49.86702	15025.69	-44549.05	1	47014.78	-71.36156	3.634273E-010	0.0050447	6
	44	15	39.72458	17950.26	-54218.34	1	57112.52	-71.68166	1.080132E-009	0.0050489	6
	45	15	31.6723	21587.55	-65793.71	1	69244.74	-71.83484	7.337385E-010	0.0050423	6
	46	16	24.93351	26429.21	-80779.94	1	84993.54	-71.88317	1.165446E-009	0.0050463	6
	47	16	19.86229	32857.73	-97747.6	1	103122.4	-71.42	1.582342E-009	0.0050435	6
	48	16	15.83615	40914.7	-118471.1	1	125337.2	-70.94734	1.384917E-009	0.0050408	5
	49	16	12.40079	53526.86	-143030.1	1	152717.8	-69.4824	7.034557E-010	0.0050398	5
	50	17	9.93114	66786.04	-169255.8	1	181955.7	-68.46648	-3.078823E-010	0.0050435	5
	51	17	7.944915	84412.71	-199814.4	1	216913.1	-67.09811	4.853352E-010	0.0050358	5
	52	18	6.317385	107055.1	-234907.4	1	258151.7	-65.49967	5.928676E-010	0.0050371	5
	53	19	5.008013	135534.6	-274203.5	1	305871.2	-63.69753	3.549234E-010	0.0050336	5
	54	20	3.945707	170231.2	-319353.3	1	361891.1	-61.94016	7.061259E-010	0.005039	5
	55	21	3.158693	208671.1	-363889.6	1	419475	-60.16806	3.035252E-010	0.0050444	5
	56	23	2.504006	254030	-414925.4	1	486512.4	-58.52376	3.168292E-010	0.005038	5
	57	24	1.998082	303452.5	-468371.3	1	558081.6	-57.06124	5.447564E-010	0.005078	5
	58	26	1.584686	357870.5	-530912.6	1	640265.1	-56.0174	5.445511E-010	0.0050766	5
	59	28	1.266892	415002.9	-596918.8	1	727007.1	-55.19136	4.684736E-010	0.0050347	5
	60	30	0.999041	482431	-677143.6	1	831422.4	-54.53202	4.096029E-010	0.0050082	5
