EXPLAIN
TAG	EISPOT
TITLE	LABEL	Potentiostatic EIS	Test &Identifier
DATE	LABEL	6/26/2020	Date
TIME	LABEL	12:57:45	Time
NOTES	NOTES	1	&Notes...
	
PSTAT	PSTAT	REF600-11020	Potentiostat
VDC	POTEN	0.00000E+000	T	DC &Voltage (V)
FREQINIT	QUANT	1.00000E+006	Initial Fre&q. (Hz)
FREQFINAL	QUANT	1.00000E+000	Final Fre&q. (Hz)
PTSPERDEC	QUANT	1.00000E+001	Points/&decade
VAC	QUANT	2.50000E+001	AC &Voltage (mV rms)
AREA	QUANT	4.00000E-004	&Area (cm^2)
CONDIT	TWOPARAM	F	5.00000E+000	0.00000E+000	Conditionin&g	Time(s)	E(V)
DELAY	TWOPARAM	F	3.00000E+000	0.00000E+000	Init. De&lay	Time(s)	Stab.(mV/s)
SPEED	SELECTOR	0	&Optimize for:
ZGUESS	QUANT	1.00000E+003	E&stimated Z (ohms)
OCVCURVE	TABLE	39
	Pt	T	Vf	Vm	Ach	Over
	#	s	V vs. Ref.	V	V	bits
	0	0.258333	1.40179E-001	1.40179E-001	5.11217E-004	...........
	1	0.516667	1.40181E-001	1.40239E-001	5.11483E-004	...........
	2	0.775	1.40188E-001	1.40294E-001	5.15550E-004	...........
	3	1.03333	1.40207E-001	1.40336E-001	5.10150E-004	...........
	4	1.29167	1.40241E-001	1.40380E-001	5.15083E-004	...........
	5	1.55	1.40284E-001	1.40417E-001	5.11550E-004	...........
	6	1.80833	1.40329E-001	1.40451E-001	5.11017E-004	...........
	7	2.06667	1.40372E-001	1.40481E-001	5.09017E-004	...........
	8	2.325	1.40411E-001	1.40511E-001	5.09017E-004	...........
	9	2.58333	1.40446E-001	1.40536E-001	5.13783E-004	...........
	10	2.84167	1.40478E-001	1.40561E-001	5.11984E-004	...........
	11	3.1	1.40507E-001	1.40582E-001	5.16250E-004	...........
	12	3.35833	1.40533E-001	1.40604E-001	5.13950E-004	...........
	13	3.61667	1.40557E-001	1.40621E-001	5.14317E-004	...........
	14	3.875	1.40580E-001	1.40640E-001	5.14150E-004	...........
	15	4.13333	1.40600E-001	1.40657E-001	5.12017E-004	...........
	16	4.39167	1.40620E-001	1.40674E-001	5.12917E-004	...........
	17	4.65	1.40638E-001	1.40688E-001	5.15183E-004	...........
	18	4.90833	1.40655E-001	1.40703E-001	5.16150E-004	...........
	19	5.16667	1.40671E-001	1.40717E-001	5.11884E-004	...........
	20	5.425	1.40687E-001	1.40730E-001	5.17683E-004	...........
	21	5.68333	1.40701E-001	1.40742E-001	5.14183E-004	...........
	22	5.94167	1.40715E-001	1.40752E-001	5.08450E-004	...........
	23	6.2	1.40728E-001	1.40765E-001	5.15117E-004	...........
	24	6.45833	1.40740E-001	1.40775E-001	5.13617E-004	...........
	25	6.71667	1.40752E-001	1.40788E-001	5.10350E-004	...........
	26	6.975	1.40764E-001	1.40799E-001	5.09017E-004	...........
	27	7.23333	1.40775E-001	1.40811E-001	5.08550E-004	...........
	28	7.49167	1.40787E-001	1.40819E-001	5.10317E-004	...........
	29	7.75	1.40798E-001	1.40832E-001	5.08884E-004	...........
	30	8.00833	1.40809E-001	1.40836E-001	5.09250E-004	...........
	31	8.26667	1.40819E-001	1.40847E-001	5.13917E-004	...........
	32	8.525	1.40828E-001	1.40854E-001	5.11850E-004	...........
	33	8.78333	1.40837E-001	1.40864E-001	5.02784E-004	...........
	34	9.04167	1.40846E-001	1.40873E-001	5.06817E-004	...........
	35	9.3	1.40854E-001	1.40881E-001	5.05284E-004	...........
	36	9.5583	1.40863E-001	1.40886E-001	5.06384E-004	...........
	37	9.8167	1.40872E-001	1.40897E-001	5.02250E-004	...........
	38	10.075	1.40880E-001	1.40902E-001	5.09250E-004	...........
EOC	QUANT	0.1408795	Open Circuit (V)
PSTATMODEL	IQUANT	4	Pstat Model
PSTATSECTION	LABEL	REF600-11020	Pstat Section
PSTATSERIALNO	LABEL	11020	Pstat Serial Number
CTRLMODE	IQUANT	1	Control Mode
IESTAB	IQUANT	0	I/E Stability
CASPEED	IQUANT	1	Control Amp Speed
CONVENTION	IQUANT	1	Current Convention
ICHRANGE	IQUANT	2	Ich Range
ICHRANGEMODE	TOGGLE	F	Ich Auto Range
ICHOFFSETENABLE	TOGGLE	T	Ich Offset Enable
ICHOFFSET	QUANT	0	Ich Offset (V)
ICHFILTER	IQUANT	3	Ich Filter
VCHRANGE	IQUANT	2	Vch Range
VCHRANGEMODE	TOGGLE	F	Vch Auto Range
VCHOFFSETENABLE	TOGGLE	T	Vch Offset Enable
VCHOFFSET	QUANT	0	Vch Offset (V)
VCHFILTER	IQUANT	3	Vch Filter
ACHRANGE	IQUANT	2	Ach Range
ACHOFFSETENABLE	TOGGLE	F	Ach Offset Enable
ACHOFFSET	QUANT	0	Ach Offset (V)
ACHFILTER	IQUANT	3	Ach Filter
IERANGELOWERLIMIT	IQUANT	1	I/E Range Lower Limit
IERANGEMODE	TOGGLE	F	I/E AutoRange
IERANGE	IQUANT	8	I/E Range
POSFEEDENABLE	TOGGLE	F	Positive Feedback IR Comp
POSFEEDRESISTANCE	QUANT	0	Positive Feedback Resistance (ohm)
ACHSELECT	IQUANT	0	Ach Select
CABLEID	IQUANT	14	Cable ID
DCCALDATE	LABEL	6/26/2020	DC Calibration Date
ACCALDATE	LABEL	6/26/2020	AC Calibration Date
THERMOSELECT	IQUANT	1	Thermo Select
FRAMEWORKVERSION	QUANT	6.33	Framework Version
INSTRUMENTVERSION	LABEL	3.50	Instrument Version
ZCURVE	TABLE
	Pt	Time	Freq	Zreal	Zimag	Zsig	Zmod	Zphz	Idc	Vdc	IERange
	#	s	Hz	ohm	ohm	V	ohm	°	A	V	#
	0	2	1000078	1885.956	-1753.467	1	2575.165	-42.91514	-1.841412E-007	0.1435686	8
	1	2	794390.6	2244.688	-1821.158	1	2890.543	-39.05308	2.954856E-008	0.1431742	8
	2	2	630984.4	2611.138	-1829.768	1	3188.431	-35.02103	-4.283739E-009	0.1429649	8
	3	2	501234.4	2969.64	-1781.139	1	3462.833	-30.9546	-5.077161E-009	0.1428746	8
	4	3	398109.4	3299.711	-1684.028	1	3704.598	-27.03778	2.338364E-008	0.1427789	8
	5	3	316265.6	3578.397	-1552.207	1	3900.548	-23.44982	4.252215E-008	0.1427461	8
	6	3	251203.1	3815.549	-1415.873	1	4069.78	-20.35887	-1.112617E-009	0.1427113	8
	7	4	199546.9	4005.859	-1273.861	1	4203.525	-17.64063	-1.770578E-008	0.1427311	8
	8	4	158578.1	4157.868	-1150.109	1	4314.002	-15.462	1.340993E-007	0.1427378	8
	9	4	125953.1	4312.678	-995.361	1	4426.052	-12.99622	-4.840725E-008	0.1427231	7
	10	5	100078.1	4418.25	-916.15	1	4512.234	-11.7146	5.745324E-009	0.142698	7
	11	5	79453.13	4502.479	-863.2889	1	4584.495	-10.85396	1.920653E-008	0.1426476	7
	12	5	63140.62	4577.612	-831.7219	1	4652.558	-10.29792	-1.239775E-008	0.1426771	7
	13	6	50203.12	4649.933	-821.6017	1	4721.959	-10.02023	6.514207E-009	0.1426885	7
	14	6	39890.62	4723.593	-832.8891	1	4796.46	-9.99991	2.063329E-008	0.1426674	7
	15	6	31640.63	4798.532	-864.6886	1	4875.818	-10.21499	-1.523252E-008	0.1427045	7
	16	7	25171.88	4878.187	-916.4107	1	4963.518	-10.63952	-8.056577E-009	0.1426888	7
	17	7	20015.62	4965.886	-990.635	1	5063.732	-11.28173	2.023792E-008	0.1426315	7
	18	7	15890.62	5062.798	-1085.424	1	5177.844	-12.10059	-2.390153E-009	0.1426486	7
	19	8	12609.37	5172.005	-1205.14	1	5310.555	-13.11657	2.275236E-008	0.1426313	7
	20	8	10078.13	5289.657	-1343.593	1	5457.629	-14.25195	-6.676681E-009	0.142691	7
	21	8	8015.625	5426.231	-1513.75	1	5633.42	-15.58745	2.172408E-008	0.1426563	7
	22	8	6328.125	5586.334	-1719.312	1	5844.927	-17.10685	-7.201747E-009	0.1426904	7
	23	9	5015.625	5765.704	-1958.689	1	6089.319	-18.76333	7.159581E-009	0.1426812	7
	24	9	3984.375	5966.579	-2235.377	1	6371.575	-20.53845	-1.21345E-008	0.1426573	7
	25	9	3170.956	6193.907	-2554.194	1	6699.879	-22.40988	1.864532E-008	0.1426319	7
	26	10	2527.573	6448.516	-2917.748	1	7077.896	-24.34524	-7.348365E-009	0.14269	7
	27	10	1976.103	6764.013	-3383.7	1	7563.153	-26.57652	-2.563854E-008	0.1426928	7
	28	10	1577.524	7095.253	-3883.648	1	8088.593	-28.69447	-2.117825E-009	0.1426498	7
	29	11	1265.625	7460.316	-4443.018	1	8683.129	-30.77606	1.256542E-009	0.142687	7
	30	11	998.264	7910.155	-5151.352	1	9439.649	-33.07349	-1.386113E-008	0.1426975	7
	31	11	796.875	8406.998	-5936.449	1	10291.7	-35.22713	-2.707923E-009	0.1427131	6
	32	12	627.7902	9001.466	-6916.336	1	11351.74	-37.53711	4.90533E-010	0.1426083	6
	33	12	505.5147	9623.16	-7950.538	1	12482.64	-39.56311	-3.622276E-009	0.1426635	6
	34	12	397.9953	10410.43	-9282.029	1	13947.52	-41.72046	2.544113E-010	0.1426836	6
	35	13	315.5048	11295.61	-10797.04	1	15625.83	-43.70721	3.170947E-010	0.1426827	6
	36	13	252.4038	12271.58	-12492.73	1	17511.71	-45.51166	3.065488E-010	0.1426792	6
	37	13	198.6229	13472.62	-14622.71	1	19883.04	-47.34411	2.770586E-010	0.1426805	6
	38	13	158.3615	14770.78	-16981.63	1	22506.71	-48.98295	1.699931E-010	0.1426802	6
	39	14	125.558	16283.48	-19813.34	1	25646.06	-50.58512	1.716236E-010	0.1426805	6
	40	14	100.4464	17921.1	-23005.52	1	29161.96	-52.08172	2.122172E-010	0.1426803	6
	41	14	79.00281	19899.16	-27072.18	1	33598.8	-53.68259	-1.129122E-011	0.1426815	6
	42	15	63.3446	21923.71	-31513.43	1	38389.39	-55.17389	6.928964E-011	0.1426758	6
	43	15	49.86702	24373.79	-37298.59	1	44556.33	-56.83628	1.904607E-011	0.1426722	6
	44	16	39.72458	26979.91	-43965.31	1	51583.57	-58.46407	2.966137E-010	0.1426742	6
	45	16	31.6723	29938.67	-52006.84	1	60008.62	-60.07234	3.287258E-010	0.1426739	6
	46	16	24.93351	33572.56	-62350.55	1	70814.6	-61.69983	-2.797044E-010	0.1426755	6
	47	16	19.86229	37711.32	-74410.77	1	83421.27	-63.12414	-5.344865E-010	0.1426825	6
	48	17	15.83615	42655.32	-88946.98	1	98646	-64.37953	-5.47304E-010	0.1426746	6
	49	17	12.40079	49333.7	-107960.8	1	118698.5	-65.44152	-5.837103E-010	0.1426719	5
	50	17	9.93114	56934.95	-128892.4	1	140907.2	-66.16777	-7.690703E-010	0.1426716	5
	51	18	7.944915	66323.09	-153889.4	1	167573	-66.68497	-6.832163E-010	0.142673	5
	52	18	6.317385	78698.63	-184510.6	1	200593.3	-66.90048	1.967291E-010	0.1426568	5
	53	19	5.008013	94716.29	-221347.8	1	240761.4	-66.83358	8.873297E-011	0.1426673	5
	54	20	3.945707	115179.2	-265701.2	1	289591.7	-66.56368	-2.096977E-010	0.1426625	5
	55	21	3.158693	139534.8	-313562.7	1	343207.7	-66.01104	9.23629E-011	0.1426561	5
	56	22	2.504006	170084.2	-371287.6	1	408390.9	-65.38782	1.703957E-010	0.1426527	5
	57	23	1.998082	206262.3	-434673	1	481128.6	-64.61459	-4.057247E-011	0.1426103	5
	58	25	1.584686	249181.7	-510994.5	1	568512.9	-64.00426	-2.387931E-011	0.142605	5
	59	27	1.266892	297809.7	-593622.4	1	664137.1	-63.3579	2.827588E-011	0.1426393	5
	60	29	0.999041	359310.8	-695128.9	1	782501.4	-62.66565	5.391883E-011	0.1426668	5
