EXPLAIN
TAG	EISPOT
TITLE	LABEL	Potentiostatic EIS	Test &Identifier
DATE	LABEL	1/14/2020	Date
TIME	LABEL	17:26:49	Time
NOTES	NOTES	5	&Notes...
	
	
	
	
	
PSTAT	PSTAT	REF600-11020	Potentiostat
VDC	POTEN	0.00000E+000	T	DC &Voltage (V)
FREQINIT	QUANT	1.00000E+006	Initial Fre&q. (Hz)
FREQFINAL	QUANT	1.00000E+000	Final Fre&q. (Hz)
PTSPERDEC	QUANT	1.00000E+001	Points/&decade
VAC	QUANT	2.50000E+001	AC &Voltage (mV rms)
AREA	QUANT	1.00000E-001	&Area (cm^2)
CONDIT	TWOPARAM	T	5.00000E+000	0.00000E+000	Conditionin&g	Time(s)	E(V)
DELAY	TWOPARAM	T	5.00000E+000	0.00000E+000	Init. De&lay	Time(s)	Stab.(mV/s)
SPEED	SELECTOR	0	&Optimize for:
ZGUESS	QUANT	5.00000E+002	E&stimated Z (ohms)
OCVCURVE	TABLE	19
	Pt	T	Vf	Vm	Ach	Over
	#	s	V vs. Ref.	V	V	bits
	0	0.258333	6.46059E-003	6.46059E-003	6.57546E-004	...........
	1	0.516667	6.45949E-003	6.40326E-003	6.55746E-004	...........
	2	0.775	6.45579E-003	6.50707E-003	6.57980E-004	...........
	3	1.03333	6.45418E-003	6.54527E-003	6.61379E-004	...........
	4	1.29167	6.46684E-003	6.64538E-003	6.62746E-004	...........
	5	1.55	6.50210E-003	6.69156E-003	6.59679E-004	...........
	6	1.80833	6.55787E-003	6.81153E-003	6.55146E-004	...........
	7	2.06667	6.62719E-003	6.84992E-003	6.54113E-004	...........
	8	2.325	6.70359E-003	6.95881E-003	6.50880E-004	...........
	9	2.58333	6.78238E-003	7.01626E-003	6.56713E-004	...........
	10	2.84167	6.86159E-003	7.12170E-003	6.54546E-004	...........
	11	3.1	6.94131E-003	7.17566E-003	6.55113E-004	...........
	12	3.35833	7.02161E-003	7.28183E-003	6.58646E-004	...........
	13	3.61667	7.10198E-003	7.33057E-003	6.54079E-004	...........
	14	3.875	7.18164E-003	7.42916E-003	6.52246E-004	...........
	15	4.13333	7.25981E-003	7.47808E-003	6.54980E-004	...........
	16	4.39167	7.33608E-003	7.57451E-003	6.56613E-004	...........
	17	4.65	7.41066E-003	7.62211E-003	6.46780E-004	...........
	18	4.90833	7.48398E-003	7.71634E-003	6.54580E-004	...........
EOC	QUANT	0.007484	Open Circuit (V)
PSTATMODEL	IQUANT	4	Pstat Model
PSTATSECTION	LABEL	REF600-11020	Pstat Section
PSTATSERIALNO	LABEL	11020	Pstat Serial Number
CTRLMODE	IQUANT	1	Control Mode
IESTAB	IQUANT	0	I/E Stability
CASPEED	IQUANT	1	Control Amp Speed
CONVENTION	IQUANT	1	Current Convention
ICHRANGE	IQUANT	2	Ich Range
ICHRANGEMODE	TOGGLE	F	Ich Auto Range
ICHOFFSETENABLE	TOGGLE	T	Ich Offset Enable
ICHOFFSET	QUANT	0	Ich Offset (V)
ICHFILTER	IQUANT	3	Ich Filter
VCHRANGE	IQUANT	2	Vch Range
VCHRANGEMODE	TOGGLE	F	Vch Auto Range
VCHOFFSETENABLE	TOGGLE	T	Vch Offset Enable
VCHOFFSET	QUANT	0	Vch Offset (V)
VCHFILTER	IQUANT	3	Vch Filter
ACHRANGE	IQUANT	2	Ach Range
ACHOFFSETENABLE	TOGGLE	F	Ach Offset Enable
ACHOFFSET	QUANT	0	Ach Offset (V)
ACHFILTER	IQUANT	3	Ach Filter
IERANGELOWERLIMIT	IQUANT	1	I/E Range Lower Limit
IERANGEMODE	TOGGLE	F	I/E AutoRange
IERANGE	IQUANT	7	I/E Range
POSFEEDENABLE	TOGGLE	F	Positive Feedback IR Comp
POSFEEDRESISTANCE	QUANT	0	Positive Feedback Resistance (ohm)
ACHSELECT	IQUANT	0	Ach Select
CABLEID	IQUANT	14	Cable ID
DCCALDATE	LABEL	12/22/2019	DC Calibration Date
ACCALDATE	LABEL	12/22/2019	AC Calibration Date
THERMOSELECT	IQUANT	1	Thermo Select
FRAMEWORKVERSION	QUANT	6.33	Framework Version
INSTRUMENTVERSION	LABEL	3.50	Instrument Version
ZCURVE	TABLE
	Pt	Time	Freq	Zreal	Zimag	Zsig	Zmod	Zphz	Idc	Vdc	IERange
	#	s	Hz	ohm	ohm	V	ohm	°	A	V	#
	0	1	1000078	2175.683	-1902.244	1	2890.005	-41.16386	-5.218439E-007	0.0098978	8
	1	2	794390.6	2566.591	-1943.318	1	3219.297	-37.13152	2.092158E-006	0.008931	8
	2	2	630984.4	2926.968	-1922.405	1	3501.826	-33.29654	-1.33234E-006	0.0095289	8
	3	2	501234.4	3323.636	-1848.608	1	3803.144	-29.08283	3.950644E-006	0.0085692	8
	4	3	398109.4	3645.719	-1745.333	1	4041.961	-25.58207	-7.919932E-007	0.0092071	8
	5	3	316265.6	3946.715	-1574.243	1	4249.094	-21.74579	3.75964E-007	0.0089971	8
	6	3	251203.1	4205.884	-1430.001	1	4442.337	-18.77804	1.196637E-006	0.0088784	8
	7	3	199546.9	4381.774	-1241.642	1	4554.296	-15.82088	-4.89527E-008	0.0092002	8
	8	4	158578.1	4570.255	-1119.821	1	4705.447	-13.76758	-9.63982E-007	0.0092198	8
	9	4	125953.1	4701.511	-936.5366	1	4793.882	-11.2658	6.93533E-007	0.0076806	7
	10	4	100078.1	4781.908	-802.5421	1	4848.785	-9.5271	-1.258351E-008	0.009169	7
	11	5	79453.13	4859.204	-708.6157	1	4910.601	-8.296936	-1.539034E-008	0.0090678	7
	12	5	63140.62	4923.866	-625.236	1	4963.403	-7.23673	4.399829E-010	0.0090918	7
	13	5	50203.12	4975.541	-556.3608	1	5006.55	-6.380262	-3.625724E-008	0.0091393	7
	14	6	39890.62	5018.526	-503.2343	1	5043.694	-5.726211	1.528575E-008	0.0090045	7
	15	6	31640.63	5054.946	-464.7383	1	5076.265	-5.252855	-2.835617E-008	0.0090858	7
	16	6	25171.88	5086.972	-442.3815	1	5106.171	-4.970145	-2.957194E-008	0.0090906	7
	17	7	20015.62	5115.758	-432.3144	1	5133.992	-4.830385	-2.580737E-008	0.009076	7
	18	7	15890.62	5143.568	-437.9467	1	5162.179	-4.866685	-7.8127E-009	0.0090872	7
	19	7	12609.37	5171.743	-459.0126	1	5192.073	-5.071936	-2.473221E-008	0.0090736	7
	20	8	10078.13	5194.938	-493.5902	1	5218.334	-5.427589	-1.354632E-008	0.0090563	7
	21	8	8015.625	5217.597	-538.9807	1	5245.362	-5.897767	1.282258E-009	0.0090202	7
	22	8	6328.125	5246.3	-622.2589	1	5283.074	-6.764199	2.314306E-008	0.0090374	7
	23	9	5015.625	5276.077	-722.1205	1	5325.265	-7.793474	1.714224E-008	0.0089994	7
	24	9	3984.375	5311.462	-843.6096	1	5378.04	-9.024796	-3.349623E-009	0.0090837	7
	25	9	3170.956	5344.188	-1011.199	1	5439.014	-10.71453	-3.130825E-009	0.0090821	7
	26	9	2527.573	5384.832	-1210.458	1	5519.205	-12.66895	5.655386E-008	0.0089576	7
	27	10	1976.103	5439.568	-1485.104	1	5638.655	-15.27066	-2.450562E-008	0.0090677	7
	28	10	1577.524	5497.33	-1788.286	1	5780.882	-18.01975	5.599128E-008	0.0089538	7
	29	10	1265.625	5562.738	-2172.911	1	5972.068	-21.33656	-2.429466E-008	0.0090629	7
	30	11	998.264	5655.488	-2676.105	1	6256.683	-25.32292	-2.421669E-008	0.009081	7
	31	11	796.875	5762.338	-3265.256	1	6623.174	-29.53827	-1.465189E-008	0.0090407	7
	32	11	627.7902	5905.223	-4035.424	1	7152.364	-34.34734	-1.498506E-008	0.0090444	7
	33	12	505.5147	6072.334	-4891.344	1	7797.338	-38.8519	5.821008E-008	0.0089368	7
	34	12	397.9953	6305.266	-6052.006	1	8739.745	-43.8259	6.970133E-009	0.0090551	7
	35	12	315.5048	6602.373	-7437.504	1	9945.24	-48.4041	5.96012E-010	0.0090573	6
	36	13	252.4038	6969.656	-9062.417	1	11432.56	-52.43711	3.901638E-010	0.0090583	6
	37	13	198.6229	7483.2	-11191	1	13462.42	-56.23014	7.423574E-010	0.0090521	6
	38	13	158.3615	8116.936	-13642.51	1	15874.6	-59.24847	8.216724E-010	0.0090515	6
	39	14	125.558	8965.415	-16683.32	1	18939.69	-61.74695	5.020198E-010	0.0090507	6
	40	14	100.4464	10017.78	-20197.54	1	22545.43	-63.61905	1.046704E-009	0.0090477	6
	41	14	79.00281	11523.09	-24754.66	1	27305.22	-65.03841	5.140871E-010	0.0090516	6
	42	15	63.3446	13290.37	-29872.81	1	32695.85	-66.01579	6.979115E-010	0.0090453	6
	43	15	49.86702	15761.3	-36314.23	1	39587.14	-66.53793	6.091558E-010	0.0090414	6
	44	15	39.72458	18866.67	-43498.63	1	47413.94	-66.55216	1.129543E-009	0.009053	6
	45	16	31.6723	22788.03	-51971.88	1	56748.31	-66.32406	9.328742E-010	0.0090505	6
	46	16	24.93351	28069.14	-62262.77	1	68297.36	-65.73332	-1.532281E-012	0.00905	6
	47	16	19.86229	34329.26	-73508.15	1	81129.2	-64.96681	1.258631E-009	0.009048	6
	48	17	15.83615	41850.15	-86600.35	1	96182.4	-64.20756	-3.016465E-010	0.0090412	6
	49	17	12.40079	52251.46	-101436.6	1	114103.5	-62.74636	-1.931717E-009	0.0090452	5
	50	17	9.93114	62705.61	-117319.5	1	133025.8	-61.87613	-1.240026E-009	0.0090395	5
	51	17	7.944915	74551.3	-135193.1	1	154386.1	-61.12577	1.147749E-009	0.0090389	5
	52	18	6.317385	89259.75	-154944.5	1	178815.8	-60.0548	-3.109075E-010	0.0090488	5
	53	19	5.008013	105284.3	-178240.1	1	207012.9	-59.43015	-7.749062E-012	0.0090539	5
	54	20	3.945707	123231.2	-206326.7	1	240326.1	-59.15171	5.389413E-011	0.0090368	5
	55	20	3.158693	141744.5	-237057.4	1	276202.3	-59.12339	2.992685E-011	0.0090603	5
	56	22	2.504006	163947.1	-275113	1	320259	-59.20816	-2.358503E-010	0.0090515	5
	57	23	1.998082	187470.7	-319172.8	1	370157.4	-59.57154	-1.790253E-010	0.0090264	5
	58	25	1.584686	216666.7	-372200.2	1	430670.9	-59.79528	-5.019744E-011	0.0090728	5
	59	27	1.266892	250137.4	-434696.9	1	501527.8	-60.08261	-2.423679E-012	0.0090805	5
	60	29	0.999041	291619.5	-512610.6	1	589755.6	-60.36485	9.566539E-012	0.0090748	5
