EXPLAIN
TAG	EISPOT
TITLE	LABEL	Potentiostatic EIS	Test &Identifier
DATE	LABEL	7/30/2020	Date
TIME	LABEL	22:39:43	Time
NOTES	NOTES	1	&Notes...
	
PSTAT	PSTAT	REF600-11020	Potentiostat
VDC	POTEN	0.00000E+000	T	DC &Voltage (V)
FREQINIT	QUANT	1.00000E+006	Initial Fre&q. (Hz)
FREQFINAL	QUANT	1.00000E+000	Final Fre&q. (Hz)
PTSPERDEC	QUANT	1.00000E+001	Points/&decade
VAC	QUANT	2.50000E+001	AC &Voltage (mV rms)
AREA	QUANT	4.00000E-005	&Area (cm^2)
CONDIT	TWOPARAM	F	5.00000E+000	0.00000E+000	Conditionin&g	Time(s)	E(V)
DELAY	TWOPARAM	F	3.00000E+000	0.00000E+000	Init. De&lay	Time(s)	Stab.(mV/s)
SPEED	SELECTOR	0	&Optimize for:
ZGUESS	QUANT	1.00000E+003	E&stimated Z (ohms)
OCVCURVE	TABLE	39
	Pt	T	Vf	Vm	Ach	Over
	#	s	V vs. Ref.	V	V	bits
	0	0.258333	-1.32383E-001	-1.32383E-001	5.20650E-004	...........
	1	0.516667	-1.32382E-001	-1.32370E-001	5.23683E-004	...........
	2	0.775	-1.32381E-001	-1.32355E-001	5.20383E-004	...........
	3	1.03333	-1.32376E-001	-1.32342E-001	5.25583E-004	...........
	4	1.29167	-1.32368E-001	-1.32334E-001	5.27383E-004	...........
	5	1.55	-1.32357E-001	-1.32324E-001	5.29583E-004	...........
	6	1.80833	-1.32346E-001	-1.32313E-001	5.26750E-004	...........
	7	2.06667	-1.32335E-001	-1.32304E-001	5.21317E-004	...........
	8	2.325	-1.32325E-001	-1.32295E-001	5.30216E-004	...........
	9	2.58333	-1.32315E-001	-1.32286E-001	5.20983E-004	...........
	10	2.84167	-1.32305E-001	-1.32280E-001	5.29083E-004	...........
	11	3.1	-1.32296E-001	-1.32275E-001	5.30683E-004	...........
	12	3.35833	-1.32288E-001	-1.32267E-001	5.22283E-004	...........
	13	3.61667	-1.32281E-001	-1.32261E-001	5.23550E-004	...........
	14	3.875	-1.32274E-001	-1.32253E-001	5.26250E-004	...........
	15	4.13333	-1.32268E-001	-1.32247E-001	5.23150E-004	...........
	16	4.39167	-1.32261E-001	-1.32242E-001	5.24917E-004	...........
	17	4.65	-1.32255E-001	-1.32239E-001	5.25583E-004	...........
	18	4.90833	-1.32249E-001	-1.32233E-001	5.20483E-004	...........
	19	5.16667	-1.32243E-001	-1.32225E-001	5.23417E-004	...........
	20	5.425	-1.32238E-001	-1.32219E-001	5.23617E-004	...........
	21	5.68333	-1.32232E-001	-1.32213E-001	5.21317E-004	...........
	22	5.94167	-1.32226E-001	-1.32206E-001	5.31150E-004	...........
	23	6.2	-1.32220E-001	-1.32200E-001	5.24383E-004	...........
	24	6.45833	-1.32213E-001	-1.32193E-001	5.22283E-004	...........
	25	6.71667	-1.32207E-001	-1.32181E-001	5.23250E-004	...........
	26	6.975	-1.32200E-001	-1.32175E-001	5.19617E-004	...........
	27	7.23333	-1.32192E-001	-1.32165E-001	5.24717E-004	...........
	28	7.49167	-1.32184E-001	-1.32160E-001	5.21050E-004	...........
	29	7.75	-1.32176E-001	-1.32157E-001	5.28850E-004	...........
	30	8.00833	-1.32168E-001	-1.32150E-001	5.21950E-004	...........
	31	8.26667	-1.32162E-001	-1.32144E-001	5.20217E-004	...........
	32	8.525	-1.32156E-001	-1.32139E-001	5.19550E-004	...........
	33	8.78333	-1.32150E-001	-1.32132E-001	5.21550E-004	...........
	34	9.04167	-1.32145E-001	-1.32125E-001	5.26483E-004	...........
	35	9.3	-1.32139E-001	-1.32119E-001	5.30983E-004	...........
	36	9.5583	-1.32132E-001	-1.32111E-001	5.28550E-004	...........
	37	9.8167	-1.32126E-001	-1.32103E-001	5.31483E-004	...........
	38	10.075	-1.32119E-001	-1.32097E-001	5.28550E-004	...........
EOC	QUANT	-0.1321186	Open Circuit (V)
PSTATMODEL	IQUANT	4	Pstat Model
PSTATSECTION	LABEL	REF600-11020	Pstat Section
PSTATSERIALNO	LABEL	11020	Pstat Serial Number
CTRLMODE	IQUANT	1	Control Mode
IESTAB	IQUANT	0	I/E Stability
CASPEED	IQUANT	1	Control Amp Speed
CONVENTION	IQUANT	1	Current Convention
ICHRANGE	IQUANT	2	Ich Range
ICHRANGEMODE	TOGGLE	F	Ich Auto Range
ICHOFFSETENABLE	TOGGLE	T	Ich Offset Enable
ICHOFFSET	QUANT	0	Ich Offset (V)
ICHFILTER	IQUANT	3	Ich Filter
VCHRANGE	IQUANT	2	Vch Range
VCHRANGEMODE	TOGGLE	F	Vch Auto Range
VCHOFFSETENABLE	TOGGLE	T	Vch Offset Enable
VCHOFFSET	QUANT	0	Vch Offset (V)
VCHFILTER	IQUANT	3	Vch Filter
ACHRANGE	IQUANT	2	Ach Range
ACHOFFSETENABLE	TOGGLE	F	Ach Offset Enable
ACHOFFSET	QUANT	0	Ach Offset (V)
ACHFILTER	IQUANT	3	Ach Filter
IERANGELOWERLIMIT	IQUANT	1	I/E Range Lower Limit
IERANGEMODE	TOGGLE	F	I/E AutoRange
IERANGE	IQUANT	8	I/E Range
POSFEEDENABLE	TOGGLE	F	Positive Feedback IR Comp
POSFEEDRESISTANCE	QUANT	0	Positive Feedback Resistance (ohm)
ACHSELECT	IQUANT	0	Ach Select
CABLEID	IQUANT	14	Cable ID
DCCALDATE	LABEL	6/26/2020	DC Calibration Date
ACCALDATE	LABEL	6/26/2020	AC Calibration Date
THERMOSELECT	IQUANT	1	Thermo Select
FRAMEWORKVERSION	QUANT	6.33	Framework Version
INSTRUMENTVERSION	LABEL	3.50	Instrument Version
ZCURVE	TABLE
	Pt	Time	Freq	Zreal	Zimag	Zsig	Zmod	Zphz	Idc	Vdc	IERange
	#	s	Hz	ohm	ohm	V	ohm	°	A	V	#
	0	1	1000078	1316.291	-1827.13	1	2251.894	-54.23048	1.338713E-008	-0.1296044	8
	1	1	794390.6	1514.875	-2075.182	1	2569.285	-53.8707	5.37855E-008	-0.1299423	8
	2	1	630984.4	1726.308	-2361.266	1	2925.015	-53.82967	3.035883E-008	-0.1301206	8
	3	2	501234.4	1960.77	-2689.92	1	3328.707	-53.91048	-3.075673E-008	-0.1302001	8
	4	2	398109.4	2207.953	-3088.338	1	3796.431	-54.43779	5.165064E-008	-0.1302783	8
	5	2	316265.6	2484.487	-3543.963	1	4328.088	-54.96772	5.82197E-010	-0.1302972	8
	6	3	251203.1	2787.431	-4111.261	1	4967.116	-55.86277	7.378618E-008	-0.1303149	8
	7	3	199546.9	3136.205	-4777.142	1	5714.618	-56.715	4.618183E-008	-0.1303075	8
	8	3	158578.1	3517.936	-5573.419	1	6590.817	-57.73993	5.854346E-008	-0.1303007	8
	9	3	125953.1	3996.084	-6521.368	1	7648.329	-58.50138	-3.902381E-009	-0.1302896	7
	10	4	100078.1	4518.038	-7684.688	1	8914.432	-59.54757	8.77583E-010	-0.130345	7
	11	4	79453.13	5110.319	-9094.4	1	10431.85	-60.66753	1.403121E-009	-0.1303529	7
	12	4	63140.62	5805.302	-10778.5	1	12242.45	-61.6931	8.822685E-010	-0.130357	7
	13	5	50203.12	6631.677	-12833.98	1	14446.11	-62.67333	2.519205E-009	-0.1303561	7
	14	5	39890.62	7672.357	-15282.54	1	17100.32	-63.34178	1.840365E-009	-0.1303578	7
	15	5	31640.63	8970.483	-18282.22	1	20364.41	-63.86433	2.396541E-009	-0.1303573	7
	16	6	25171.88	10643.42	-21846.8	1	24301.55	-64.02538	1.815829E-009	-0.1303592	7
	17	6	20015.62	12807.04	-26143.53	1	29111.93	-63.90096	3.470588E-009	-0.130356	7
	18	6	15890.62	15825.29	-31107.42	1	34901.45	-63.03618	1.872869E-009	-0.1303703	7
	19	6	12609.37	19951.96	-36841.43	1	41897.16	-61.56165	1.250846E-009	-0.1303785	6
	20	7	10078.13	25090.08	-43022.02	1	49803.68	-59.74963	9.406407E-010	-0.1303705	6
	21	7	8015.625	31988.38	-49723.98	1	59124.71	-57.24606	1.035645E-009	-0.1303755	6
	22	7	6328.125	41096.25	-56654.82	1	69990.5	-54.04364	1.264277E-009	-0.1303687	6
	23	8	5015.625	52252.07	-62673.02	1	81597.71	-50.18119	1.142419E-009	-0.1303745	6
	24	8	3984.375	65189.99	-67251.43	1	93661.57	-45.89173	1.216742E-009	-0.1303737	6
	25	8	3170.956	79305.17	-69543.73	1	105478.1	-41.24794	1.19449E-009	-0.1303708	6
	26	9	2527.573	93667.58	-69135.66	1	116418.9	-36.43089	1.002261E-009	-0.1303816	6
	27	9	1976.103	108509.1	-66108.36	1	127061.2	-31.35155	9.746624E-010	-0.1303786	6
	28	9	1577.524	120335.9	-61329.32	1	135063	-27.00572	9.943206E-010	-0.1303797	6
	29	9	1265.625	130653.5	-54267.25	1	141475.4	-22.55567	4.752492E-010	-0.1303913	5
	30	10	998.264	138739.8	-47941.61	1	146789.5	-19.06261	5.043774E-010	-0.1303953	5
	31	10	796.875	144683.5	-42323.19	1	150746.7	-16.30539	5.004686E-010	-0.1303926	5
	32	10	627.7902	149335.4	-37035.27	1	153859.2	-13.92838	4.978317E-010	-0.1303939	5
	33	11	505.5147	152334.9	-33061.79	1	155881.4	-12.2452	6.050508E-010	-0.130403	5
	34	11	397.9953	155288	-29888.6	1	158138.2	-10.89461	5.090541E-010	-0.1303715	5
	35	11	315.5048	157446.9	-27809.17	1	159883.9	-10.0166	5.132346E-010	-0.1303728	5
	36	12	252.4038	159171.6	-26795.61	1	161411.3	-9.55581	3.86949E-010	-0.1303742	5
	37	12	198.6229	160708.4	-26794.63	1	162926.8	-9.465755	5.421695E-010	-0.1303767	5
	38	12	158.3615	162413.9	-27853.96	1	164785.1	-9.73155	3.665242E-010	-0.1303774	5
	39	12	125.558	164630.7	-30066.39	1	167353.7	-10.34983	1.179278E-010	-0.1303703	5
	40	13	100.4464	166249.6	-33154.11	1	169523.2	-11.27818	4.870419E-010	-0.1303789	5
	41	13	79.00281	168967.2	-37726.34	1	173127.6	-12.58634	2.398337E-010	-0.130383	5
	42	13	63.3446	172097.7	-43059.14	1	177402.7	-14.04712	9.770339E-011	-0.1303823	5
	43	14	49.86702	176736.3	-50065.61	1	183690.7	-15.81629	-2.549117E-010	-0.1303855	5
	44	15	39.72458	181362.7	-57800.27	1	190350.5	-17.67707	3.670649E-010	-0.1303857	5
	45	15	31.6723	188637.9	-66565.85	1	200038.1	-19.43674	-9.195071E-010	-0.1303859	5
	46	15	24.93351	197263.5	-76869.7	1	211711.6	-21.28989	-1.261427E-009	-0.1303888	5
	47	16	19.86229	206294	-87198.34	1	223966	-22.91328	3.780399E-010	-0.1303829	5
	48	16	15.83615	217463	-97957	1	238507.3	-24.24934	-8.761867E-010	-0.1303916	5
	49	16	12.40079	231527.2	-110475	1	256533.7	-25.5085	-9.470363E-010	-0.1303811	5
	50	16	9.93114	244312.1	-122714.3	1	273399.4	-26.66969	-2.392117E-010	-0.1303815	5
	51	17	7.944915	258904.8	-135848	1	292380.5	-27.68612	-3.280509E-010	-0.1303876	5
	52	17	6.317385	274582.2	-150982.5	1	313354.6	-28.80474	7.192071E-011	-0.1303996	5
	53	18	5.008013	292114.3	-168353.4	1	337155.3	-29.95601	9.48067E-011	-0.1303943	5
	54	19	3.945707	311291.1	-189267.4	1	364313.4	-31.29992	-4.162604E-010	-0.1303917	5
	55	20	3.158693	329726.6	-211449.4	1	391702	-32.67152	-2.218229E-010	-0.130407	5
	56	21	2.504006	350996.2	-238928.5	1	424600	-34.24372	7.811769E-011	-0.1304018	5
	57	22	1.998082	373157.3	-271255.5	1	461330.6	-36.01415	9.537066E-011	-0.1303903	5
	58	24	1.584686	398862.7	-309532.7	1	504878.1	-37.81283	-1.17088E-010	-0.1304318	5
	59	26	1.266892	427093.3	-355233.5	1	555517.3	-39.75188	-1.452502E-010	-0.1304445	5
	60	28	0.999041	460456.6	-413587.3	1	618930.4	-41.93054	-8.824518E-011	-0.1304403	5
