EXPLAIN
TAG	EISPOT
TITLE	LABEL	Potentiostatic EIS	Test &Identifier
DATE	LABEL	2/6/2020	Date
TIME	LABEL	18:14:03	Time
NOTES	NOTES	6	&Notes...
	
	
	
	
	
	
PSTAT	PSTAT	REF600-11020	Potentiostat
VDC	POTEN	0.00000E+000	T	DC &Voltage (V)
FREQINIT	QUANT	1.00000E+006	Initial Fre&q. (Hz)
FREQFINAL	QUANT	1.00000E+000	Final Fre&q. (Hz)
PTSPERDEC	QUANT	1.00000E+001	Points/&decade
VAC	QUANT	2.50000E+001	AC &Voltage (mV rms)
AREA	QUANT	1.60000E-004	&Area (cm^2)
CONDIT	TWOPARAM	F	5.00000E+000	0.00000E+000	Conditionin&g	Time(s)	E(V)
DELAY	TWOPARAM	F	5.00000E+000	0.00000E+000	Init. De&lay	Time(s)	Stab.(mV/s)
SPEED	SELECTOR	0	&Optimize for:
ZGUESS	QUANT	1.00000E+003	E&stimated Z (ohms)
OCVCURVE	TABLE	39
	Pt	T	Vf	Vm	Ach	Over
	#	s	V vs. Ref.	V	V	bits
	0	0.258333	-1.02368E-002	-1.02368E-002	5.64971E-004	...........
	1	0.516667	-1.02366E-002	-1.02301E-002	5.67138E-004	...........
	2	0.775	-1.02363E-002	-1.02456E-002	5.62738E-004	...........
	3	1.03333	-1.02366E-002	-1.02612E-002	5.63538E-004	...........
	4	1.29167	-1.02398E-002	-1.02643E-002	5.66571E-004	...........
	5	1.55	-1.02467E-002	-1.02810E-002	5.64038E-004	...........
	6	1.80833	-1.02563E-002	-1.02951E-002	5.63504E-004	...........
	7	2.06667	-1.02672E-002	-1.02902E-002	5.64271E-004	...........
	8	2.325	-1.02778E-002	-1.02914E-002	5.64471E-004	...........
	9	2.58333	-1.02860E-002	-1.03126E-002	5.69638E-004	...........
	10	2.84167	-1.02926E-002	-1.03198E-002	5.68071E-004	...........
	11	3.1	-1.02997E-002	-1.03271E-002	5.67471E-004	...........
	12	3.35833	-1.03084E-002	-1.03398E-002	5.64504E-004	...........
	13	3.61667	-1.03180E-002	-1.03496E-002	5.65904E-004	...........
	14	3.875	-1.03281E-002	-1.03585E-002	5.71271E-004	...........
	15	4.13333	-1.03382E-002	-1.03664E-002	5.63038E-004	...........
	16	4.39167	-1.03481E-002	-1.03812E-002	5.61571E-004	...........
	17	4.65	-1.03579E-002	-1.03910E-002	5.66238E-004	...........
	18	4.90833	-1.03682E-002	-1.04011E-002	5.70904E-004	...........
	19	5.16667	-1.03789E-002	-1.04103E-002	5.68438E-004	...........
	20	5.425	-1.03896E-002	-1.04223E-002	5.65771E-004	...........
	21	5.68333	-1.04000E-002	-1.04301E-002	5.68438E-004	...........
	22	5.94167	-1.04103E-002	-1.04450E-002	5.67038E-004	...........
	23	6.2	-1.04207E-002	-1.04550E-002	5.68538E-004	...........
	24	6.45833	-1.04316E-002	-1.04646E-002	5.69704E-004	...........
	25	6.71667	-1.04426E-002	-1.04740E-002	5.67104E-004	...........
	26	6.975	-1.04531E-002	-1.04730E-002	5.65904E-004	...........
	27	7.23333	-1.04626E-002	-1.04958E-002	5.65971E-004	...........
	28	7.49167	-1.04713E-002	-1.05023E-002	5.65804E-004	...........
	29	7.75	-1.04806E-002	-1.05165E-002	5.65771E-004	...........
	30	8.00833	-1.04911E-002	-1.05210E-002	5.65371E-004	...........
	31	8.26667	-1.05022E-002	-1.05427E-002	5.67704E-004	...........
	32	8.525	-1.05136E-002	-1.05532E-002	5.68071E-004	...........
	33	8.78333	-1.05258E-002	-1.05654E-002	5.66704E-004	...........
	34	9.04167	-1.05386E-002	-1.05741E-002	5.68738E-004	...........
	35	9.3	-1.05512E-002	-1.05856E-002	5.63538E-004	...........
	36	9.5583	-1.05629E-002	-1.05904E-002	5.61371E-004	...........
	37	9.8167	-1.05734E-002	-1.05998E-002	5.65071E-004	...........
	38	10.075	-1.05826E-002	-1.06086E-002	5.64304E-004	...........
EOC	QUANT	-0.0105826	Open Circuit (V)
PSTATMODEL	IQUANT	4	Pstat Model
PSTATSECTION	LABEL	REF600-11020	Pstat Section
PSTATSERIALNO	LABEL	11020	Pstat Serial Number
CTRLMODE	IQUANT	1	Control Mode
IESTAB	IQUANT	0	I/E Stability
CASPEED	IQUANT	1	Control Amp Speed
CONVENTION	IQUANT	1	Current Convention
ICHRANGE	IQUANT	2	Ich Range
ICHRANGEMODE	TOGGLE	F	Ich Auto Range
ICHOFFSETENABLE	TOGGLE	T	Ich Offset Enable
ICHOFFSET	QUANT	0	Ich Offset (V)
ICHFILTER	IQUANT	3	Ich Filter
VCHRANGE	IQUANT	2	Vch Range
VCHRANGEMODE	TOGGLE	F	Vch Auto Range
VCHOFFSETENABLE	TOGGLE	T	Vch Offset Enable
VCHOFFSET	QUANT	0	Vch Offset (V)
VCHFILTER	IQUANT	3	Vch Filter
ACHRANGE	IQUANT	2	Ach Range
ACHOFFSETENABLE	TOGGLE	F	Ach Offset Enable
ACHOFFSET	QUANT	0	Ach Offset (V)
ACHFILTER	IQUANT	3	Ach Filter
IERANGELOWERLIMIT	IQUANT	1	I/E Range Lower Limit
IERANGEMODE	TOGGLE	F	I/E AutoRange
IERANGE	IQUANT	7	I/E Range
POSFEEDENABLE	TOGGLE	F	Positive Feedback IR Comp
POSFEEDRESISTANCE	QUANT	0	Positive Feedback Resistance (ohm)
ACHSELECT	IQUANT	0	Ach Select
CABLEID	IQUANT	14	Cable ID
DCCALDATE	LABEL	1/27/2020	DC Calibration Date
ACCALDATE	LABEL	1/27/2020	AC Calibration Date
THERMOSELECT	IQUANT	1	Thermo Select
FRAMEWORKVERSION	QUANT	6.33	Framework Version
INSTRUMENTVERSION	LABEL	3.50	Instrument Version
ZCURVE	TABLE
	Pt	Time	Freq	Zreal	Zimag	Zsig	Zmod	Zphz	Idc	Vdc	IERange
	#	s	Hz	ohm	ohm	V	ohm	°	A	V	#
	0	2	1000078	2384.337	-1922.306	1	3062.731	-38.87655	1.624985E-006	-0.0086281	8
	1	2	794390.6	2757.2	-1961.774	1	3383.89	-35.43221	9.570369E-007	-0.008918	8
	2	2	630984.4	3122.459	-1926.234	1	3668.805	-31.67029	1.413165E-006	-0.0091795	8
	3	2	501234.4	3466.822	-1844.641	1	3927.029	-28.01673	8.779363E-007	-0.0090832	8
	4	3	398109.4	3790.163	-1747.334	1	4173.549	-24.75056	3.727514E-007	-0.0090199	8
	5	3	316265.6	4062.846	-1629.621	1	4377.486	-21.85589	-8.289766E-007	-0.0088177	8
	6	3	251203.1	4322.48	-1467.776	1	4564.888	-18.75584	1.919999E-006	-0.0092694	8
	7	4	199546.9	4539.763	-1325.149	1	4729.214	-16.27244	-8.892138E-007	-0.0087525	8
	8	4	158578.1	4715.691	-1204.773	1	4867.158	-14.33147	-7.532963E-007	-0.0088318	8
	9	4	125953.1	4894.187	-1007.367	1	4996.784	-11.63072	4.563141E-008	-0.0090816	7
	10	5	100078.1	4998.159	-894.9718	1	5077.654	-10.15181	2.954295E-009	-0.0090183	7
	11	5	79453.13	5090.474	-801.4789	1	5153.183	-8.947585	4.135172E-008	-0.0090862	7
	12	5	63140.62	5165.537	-724.1112	1	5216.043	-7.979794	-4.285666E-008	-0.0089136	7
	13	6	50203.12	5227.998	-663.8456	1	5269.976	-7.236629	-3.645577E-008	-0.0089473	7
	14	6	39890.62	5282.942	-622.1037	1	5319.444	-6.716053	-2.116774E-008	-0.0088857	7
	15	6	31640.63	5334.167	-596.0568	1	5367.366	-6.375962	1.028757E-007	-0.0091162	7
	16	7	25171.88	5376.754	-586.8016	1	5408.681	-6.228426	1.941279E-008	-0.0090392	7
	17	7	20015.62	5420.862	-596.8736	1	5453.623	-6.283342	-1.61905E-008	-0.0089313	7
	18	7	15890.62	5461.995	-623.9974	1	5497.523	-6.517414	-4.738937E-009	-0.008944	7
	19	8	12609.37	5503.874	-669.3839	1	5544.43	-6.934286	-1.035377E-008	-0.0088811	7
	20	8	10078.13	5544.256	-735.4437	1	5592.822	-7.556153	6.237801E-008	-0.0091017	7
	21	8	8015.625	5592.576	-826.5162	1	5653.321	-8.406782	-3.54103E-008	-0.0089565	7
	22	8	6328.125	5644.605	-949.265	1	5723.869	-9.54622	-2.36212E-008	-0.0089756	7
	23	9	5015.625	5699.204	-1103.83	1	5805.116	-10.96141	-3.50712E-008	-0.0089565	7
	24	9	3984.375	5762.792	-1299.149	1	5907.416	-12.70424	6.81538E-008	-0.0091022	7
	25	9	3170.956	5832.336	-1537.562	1	6031.604	-14.7687	-1.799659E-008	-0.008987	7
	26	10	2527.573	5912.794	-1831.594	1	6189.981	-17.21131	-3.50289E-008	-0.0089602	7
	27	10	1976.103	6015.957	-2226.53	1	6414.762	-20.30972	6.751863E-008	-0.0091007	7
	28	10	1577.524	6128.4	-2670.307	1	6684.895	-23.54404	-2.164756E-008	-0.0089769	7
	29	11	1265.625	6259.422	-3204.469	1	7031.998	-27.10987	-1.871121E-009	-0.0089597	7
	30	11	998.264	6424.038	-3904.391	1	7517.482	-31.29033	6.849948E-008	-0.0091082	7
	31	11	796.875	6617.863	-4721.012	1	8129.21	-35.50308	4.994392E-008	-0.0089984	7
	32	12	627.7902	6870.46	-5768.979	1	8971.307	-40.01946	2.593344E-008	-0.0090176	7
	33	12	505.5147	7142.899	-6938.405	1	9958.04	-44.16799	2.099878E-009	-0.008964	6
	34	12	397.9953	7511.989	-8512.925	1	11353.41	-48.57412	8.206928E-010	-0.0089779	6
	35	13	315.5048	7958.27	-10388.08	1	13086.11	-52.54441	3.655065E-010	-0.0089775	6
	36	13	252.4038	8489.298	-12579.08	1	15175.68	-55.98559	9.974331E-010	-0.008987	6
	37	13	198.6229	9207.589	-15459.52	1	17993.79	-59.22225	6.983734E-010	-0.0089891	6
	38	14	158.3615	10074.29	-18781.62	1	21312.92	-61.79129	6.111919E-010	-0.0089839	6
	39	14	125.558	11194.4	-22908.5	1	25497.33	-63.95721	5.888955E-010	-0.0089819	6
	40	14	100.4464	12605.18	-27722.99	1	30454.14	-65.5495	1.37736E-009	-0.0089891	6
	41	15	79.00281	14580.31	-34014.79	1	37007.99	-66.7978	3.504114E-010	-0.0089883	6
	42	15	63.3446	16425.35	-40751.53	1	43937.22	-68.04756	4.853739E-010	-0.0089891	6
	43	15	49.86702	19749.91	-49689.32	1	53470.44	-68.32377	9.484006E-010	-0.0089912	6
	44	16	39.72458	23953.52	-60095.01	1	64692.98	-68.26806	7.743542E-010	-0.0089848	6
	45	16	31.6723	29179.29	-72042.03	1	77726.99	-67.9505	1.063935E-009	-0.008989	6
	46	16	24.93351	35869.55	-86848.25	1	93964.05	-67.55869	-1.485894E-010	-0.0089913	6
	47	17	19.86229	44167.93	-103374.1	1	112414.5	-66.86478	-1.362424E-009	-0.0089941	5
	48	17	15.83615	55258.16	-122732	1	134598	-65.76109	6.253085E-010	-0.0089921	5
	49	17	12.40079	70411.63	-146564.7	1	162600.7	-64.33974	1.274242E-010	-0.0089884	5
	50	18	9.93114	86382.65	-169727.4	1	190445.1	-63.02621	8.57016E-010	-0.0089932	5
	51	18	7.944915	107166.8	-196266.2	1	223618.3	-61.36423	-2.440823E-010	-0.0089831	5
	52	19	6.317385	132679.5	-226316.9	1	262341.7	-59.6188	-3.698825E-010	-0.0089772	5
	53	20	5.008013	163923.4	-257921.4	1	305604.9	-57.56178	1.135E-010	-0.0089819	5
	54	21	3.945707	200324.9	-292257.7	1	354322.7	-55.57173	-1.483285E-010	-0.0089927	5
	55	22	3.158693	239061.5	-325170.3	1	403591.5	-53.6771	2.865658E-010	-0.0089939	5
	56	24	2.504006	282094.8	-360655.4	1	457875.3	-51.96846	2.350388E-010	-0.0089943	5
	57	25	1.998082	327090.2	-397304.8	1	514625.2	-50.5363	-9.663603E-011	-0.0090381	5
	58	26	1.584686	372957.8	-439328.8	1	576287.6	-49.67119	-2.933584E-011	-0.0090192	5
	59	28	1.266892	419207.9	-484038.8	1	640335	-49.10539	6.663632E-011	-0.0089816	5
	60	31	0.999041	470074.2	-540907.8	1	716624.8	-49.00783	1.546753E-010	-0.0089655	5
