EXPLAIN
TAG	EISPOT
TITLE	LABEL	Potentiostatic EIS	Test &Identifier
DATE	LABEL	7/13/2020	Date
TIME	LABEL	20:11:58	Time
NOTES	NOTES	1	&Notes...
	
PSTAT	PSTAT	REF600-11020	Potentiostat
VDC	POTEN	0.00000E+000	T	DC &Voltage (V)
FREQINIT	QUANT	1.00000E+006	Initial Fre&q. (Hz)
FREQFINAL	QUANT	1.00000E+000	Final Fre&q. (Hz)
PTSPERDEC	QUANT	1.00000E+001	Points/&decade
VAC	QUANT	2.50000E+001	AC &Voltage (mV rms)
AREA	QUANT	4.00000E-004	&Area (cm^2)
CONDIT	TWOPARAM	F	5.00000E+000	0.00000E+000	Conditionin&g	Time(s)	E(V)
DELAY	TWOPARAM	F	3.00000E+000	0.00000E+000	Init. De&lay	Time(s)	Stab.(mV/s)
SPEED	SELECTOR	0	&Optimize for:
ZGUESS	QUANT	1.00000E+003	E&stimated Z (ohms)
OCVCURVE	TABLE	39
	Pt	T	Vf	Vm	Ach	Over
	#	s	V vs. Ref.	V	V	bits
	0	0.258333	1.84367E-001	1.84367E-001	5.19817E-004	...........
	1	0.516667	1.84367E-001	1.84383E-001	5.24583E-004	...........
	2	0.775	1.84369E-001	1.84407E-001	5.17617E-004	...........
	3	1.03333	1.84376E-001	1.84416E-001	5.25150E-004	...........
	4	1.29167	1.84386E-001	1.84428E-001	5.20250E-004	...........
	5	1.55	1.84400E-001	1.84437E-001	5.19417E-004	...........
	6	1.80833	1.84414E-001	1.84453E-001	5.19917E-004	...........
	7	2.06667	1.84426E-001	1.84462E-001	5.24817E-004	...........
	8	2.325	1.84438E-001	1.84473E-001	5.17783E-004	...........
	9	2.58333	1.84450E-001	1.84482E-001	5.17883E-004	...........
	10	2.84167	1.84461E-001	1.84488E-001	5.22617E-004	...........
	11	3.1	1.84471E-001	1.84497E-001	5.21950E-004	...........
	12	3.35833	1.84480E-001	1.84504E-001	5.26517E-004	...........
	13	3.61667	1.84488E-001	1.84509E-001	5.28317E-004	...........
	14	3.875	1.84496E-001	1.84517E-001	5.26117E-004	...........
	15	4.13333	1.84503E-001	1.84520E-001	5.25583E-004	...........
	16	4.39167	1.84509E-001	1.84524E-001	5.26050E-004	...........
	17	4.65	1.84515E-001	1.84529E-001	5.25117E-004	...........
	18	4.90833	1.84519E-001	1.84534E-001	5.26150E-004	...........
	19	5.16667	1.84524E-001	1.84539E-001	5.13883E-004	...........
	20	5.425	1.84529E-001	1.84541E-001	5.22517E-004	...........
	21	5.68333	1.84533E-001	1.84547E-001	5.19750E-004	...........
	22	5.94167	1.84538E-001	1.84548E-001	5.21183E-004	...........
	23	6.2	1.84542E-001	1.84551E-001	5.25517E-004	...........
	24	6.45833	1.84545E-001	1.84551E-001	5.27417E-004	...........
	25	6.71667	1.84548E-001	1.84557E-001	5.23883E-004	...........
	26	6.975	1.84551E-001	1.84559E-001	5.28883E-004	...........
	27	7.23333	1.84553E-001	1.84563E-001	5.22317E-004	...........
	28	7.49167	1.84556E-001	1.84563E-001	5.24883E-004	...........
	29	7.75	1.84559E-001	1.84566E-001	5.21683E-004	...........
	30	8.00833	1.84561E-001	1.84565E-001	5.22217E-004	...........
	31	8.26667	1.84563E-001	1.84572E-001	5.19417E-004	...........
	32	8.525	1.84565E-001	1.84571E-001	5.20983E-004	...........
	33	8.78333	1.84568E-001	1.84577E-001	5.18650E-004	...........
	34	9.04167	1.84570E-001	1.84576E-001	5.16117E-004	...........
	35	9.3	1.84572E-001	1.84578E-001	5.21417E-004	...........
	36	9.5583	1.84574E-001	1.84580E-001	5.23717E-004	...........
	37	9.8167	1.84576E-001	1.84582E-001	5.20583E-004	...........
	38	10.075	1.84578E-001	1.84584E-001	5.20517E-004	...........
EOC	QUANT	0.184578	Open Circuit (V)
PSTATMODEL	IQUANT	4	Pstat Model
PSTATSECTION	LABEL	REF600-11020	Pstat Section
PSTATSERIALNO	LABEL	11020	Pstat Serial Number
CTRLMODE	IQUANT	1	Control Mode
IESTAB	IQUANT	0	I/E Stability
CASPEED	IQUANT	1	Control Amp Speed
CONVENTION	IQUANT	1	Current Convention
ICHRANGE	IQUANT	2	Ich Range
ICHRANGEMODE	TOGGLE	F	Ich Auto Range
ICHOFFSETENABLE	TOGGLE	T	Ich Offset Enable
ICHOFFSET	QUANT	0	Ich Offset (V)
ICHFILTER	IQUANT	3	Ich Filter
VCHRANGE	IQUANT	2	Vch Range
VCHRANGEMODE	TOGGLE	F	Vch Auto Range
VCHOFFSETENABLE	TOGGLE	T	Vch Offset Enable
VCHOFFSET	QUANT	0	Vch Offset (V)
VCHFILTER	IQUANT	3	Vch Filter
ACHRANGE	IQUANT	2	Ach Range
ACHOFFSETENABLE	TOGGLE	F	Ach Offset Enable
ACHOFFSET	QUANT	0	Ach Offset (V)
ACHFILTER	IQUANT	3	Ach Filter
IERANGELOWERLIMIT	IQUANT	1	I/E Range Lower Limit
IERANGEMODE	TOGGLE	F	I/E AutoRange
IERANGE	IQUANT	8	I/E Range
POSFEEDENABLE	TOGGLE	F	Positive Feedback IR Comp
POSFEEDRESISTANCE	QUANT	0	Positive Feedback Resistance (ohm)
ACHSELECT	IQUANT	0	Ach Select
CABLEID	IQUANT	14	Cable ID
DCCALDATE	LABEL	6/26/2020	DC Calibration Date
ACCALDATE	LABEL	6/26/2020	AC Calibration Date
THERMOSELECT	IQUANT	1	Thermo Select
FRAMEWORKVERSION	QUANT	6.33	Framework Version
INSTRUMENTVERSION	LABEL	3.50	Instrument Version
ZCURVE	TABLE
	Pt	Time	Freq	Zreal	Zimag	Zsig	Zmod	Zphz	Idc	Vdc	IERange
	#	s	Hz	ohm	ohm	V	ohm	°	A	V	#
	0	1	1000078	1371.686	-1961.131	1	2393.231	-55.02967	4.072759E-008	0.186821	8
	1	1	794390.6	1555.668	-2232.818	1	2721.319	-55.13398	2.03779E-007	0.1864929	8
	2	2	630984.4	1735.546	-2555.543	1	3089.162	-55.8184	-3.726272E-009	0.1863142	8
	3	2	501234.4	1926.495	-2957.491	1	3529.609	-56.91999	1.367688E-008	0.1862196	8
	4	2	398109.4	2133.298	-3454.303	1	4059.947	-58.30147	5.890994E-008	0.1861602	8
	5	3	316265.6	2348.173	-4070.35	1	4699.113	-60.01948	7.008886E-009	0.1861364	8
	6	3	251203.1	2602.155	-4828.607	1	5485.13	-61.6796	6.420574E-008	0.1861269	8
	7	3	199546.9	2911.239	-5789.753	1	6480.475	-63.30555	5.865746E-009	0.1861181	8
	8	4	158578.1	3311.367	-6941.539	1	7690.911	-64.49716	1.93369E-007	0.1861115	8
	9	4	125953.1	3938.353	-8358.319	1	9239.704	-64.77068	7.297182E-009	0.1861436	7
	10	4	100078.1	4571.801	-10122.08	1	11106.66	-65.69292	-1.32881E-008	0.186093	7
	11	5	79453.13	5419.786	-12184.44	1	13335.47	-66.01993	1.177453E-008	0.1860813	7
	12	5	63140.62	6535.809	-14648.63	1	16040.55	-65.95491	1.513514E-008	0.1860741	7
	13	5	50203.12	7988.768	-17557.54	1	19289.57	-65.53423	1.140933E-008	0.1860543	7
	14	6	39890.62	9931.01	-20868.79	1	23111.29	-64.55124	1.655268E-008	0.1860509	7
	15	6	31640.63	12521.4	-24638.63	1	27637.79	-63.06025	-8.679509E-009	0.1860944	7
	16	6	25171.88	15736.64	-28737.93	1	32764.47	-61.29527	-8.809057E-009	0.1860959	7
	17	7	20015.62	19638.75	-33217.36	1	38588.51	-59.4076	-1.303744E-008	0.1860751	7
	18	7	15890.62	24546.71	-37696.89	1	44984.4	-56.92943	3.625062E-010	0.186083	7
	19	7	12609.37	31025.03	-42253.94	1	52420.87	-53.71196	2.62632E-009	0.1860532	6
	20	7	10078.13	37201.48	-46846.71	1	59821.1	-51.54652	3.056683E-009	0.1860435	6
	21	8	8015.625	44196.26	-51514.45	1	67875.23	-49.37241	4.462189E-010	0.1860859	6
	22	8	6328.125	52059.4	-56525.46	1	76846.02	-47.35523	-4.129059E-010	0.1860602	6
	23	8	5015.625	60547.09	-61382.02	1	86218.92	-45.39233	1.100819E-009	0.1860773	6
	24	9	3984.375	69606.67	-66650.52	1	96371.1	-43.75714	1.700507E-009	0.1860232	6
	25	9	3170.956	79480.79	-71792.43	1	107104.4	-42.09048	3.285536E-009	0.1860301	6
	26	9	2527.573	90247.48	-77431.85	1	118913	-40.62941	-1.513594E-009	0.1860864	6
	27	10	1976.103	103271.2	-83296.77	1	132677.4	-38.88905	2.988731E-009	0.1860404	6
	28	10	1577.524	116572.6	-88750.27	1	146512.1	-37.28312	2.603243E-009	0.1860474	6
	29	10	1265.625	133801.8	-90773.87	1	161687.4	-34.15376	5.852216E-010	0.1860133	5
	30	11	998.264	149957	-94684.59	1	177347.9	-32.26879	2.618846E-010	0.1860753	5
	31	11	796.875	166253.9	-97606.1	1	192788.2	-30.41679	4.537939E-010	0.1860176	5
	32	11	627.7902	184190	-99189.4	1	209199.6	-28.30322	2.254063E-010	0.1860559	5
	33	12	505.5147	200859.9	-99317.2	1	224072.7	-26.31055	1.961591E-010	0.1860729	5
	34	12	397.9953	218593.9	-97515.4	1	239358.6	-24.04179	4.530775E-010	0.1860652	5
	35	12	315.5048	235260	-94633.84	1	253580	-21.91257	4.004615E-010	0.1860659	5
	36	13	252.4038	249721.4	-90701.44	1	265683.1	-19.96156	4.417123E-010	0.1860634	5
	37	13	198.6229	262254.9	-85242.67	1	275760.7	-18.0061	4.839797E-010	0.1860633	5
	38	13	158.3615	273601.7	-81101.07	1	285368.7	-16.51089	3.539527E-010	0.1860634	5
	39	14	125.558	283369.1	-77411.98	1	293752.7	-15.27949	2.716626E-010	0.1860603	5
	40	14	100.4464	292116.4	-75227.18	1	301647.3	-14.44129	1.97562E-010	0.1860546	5
	41	14	79.00281	299266.9	-73886.84	1	308253.1	-13.86856	3.445207E-010	0.186052	5
	42	15	63.3446	306419.6	-74864.63	1	315432.5	-13.72958	3.286295E-010	0.1860528	5
	43	15	49.86702	312310.3	-77343.81	1	321744.9	-13.90948	3.738189E-010	0.1860536	5
	44	16	39.72458	319022.1	-82417.2	1	329496.1	-14.48527	3.836822E-010	0.186056	5
	45	16	31.6723	324766.9	-89631.88	1	336908.6	-15.42888	3.659391E-010	0.1860583	5
	46	16	24.93351	331471.7	-100218.5	1	346290.6	-16.82238	3.945691E-010	0.1860524	5
	47	17	19.86229	339108.8	-113654.2	1	357648	-18.52886	1.167208E-009	0.1860576	5
	48	17	15.83615	350099	-129825.1	1	373395	-20.34599	-5.493409E-010	0.1860533	5
	49	17	12.40079	362652.3	-151446.2	1	393004.6	-22.66577	-7.896102E-010	0.1860579	5
	50	18	9.93114	376199.8	-175445.4	1	415099.2	-25.00257	-9.815443E-010	0.1860522	5
	51	18	7.944915	392518.5	-203540.6	1	442153.3	-27.40901	-1.176998E-010	0.1860589	5
	52	18	6.317385	415808	-236465.7	1	478343.3	-29.62644	-1.312896E-010	0.1860586	5
	53	19	5.008013	441308.7	-274780.7	1	519863.2	-31.90844	-4.246574E-010	0.1860436	5
	54	20	3.945707	474968.7	-317746.5	1	571452.7	-33.78189	-2.649264E-010	0.1860544	5
	55	21	3.158693	510534.4	-363549.8	1	626748.6	-35.45454	-2.774669E-010	0.1860332	5
	56	22	2.504006	553648.1	-414425.3	1	691573.9	-36.81617	4.285246E-011	0.1860387	5
	57	23	1.998082	600603.7	-471172.7	1	763366.6	-38.11413	7.067141E-011	0.186048	5
	58	25	1.584686	657461.3	-533889.3	1	846931.6	-39.07821	-7.23838E-011	0.1859947	5
	59	27	1.266892	720627.1	-604266.5	1	940447.5	-39.9808	-1.111945E-010	0.1859907	5
	60	29	0.999041	795727.3	-688550.2	1	1052275	-40.86994	-1.530134E-010	0.1860089	4
