EXPLAIN
TAG	EISPOT
TITLE	LABEL	Potentiostatic EIS	Test &Identifier
DATE	LABEL	6/26/2020	Date
TIME	LABEL	13:07:54	Time
NOTES	NOTES	1	&Notes...
	
PSTAT	PSTAT	REF600-11020	Potentiostat
VDC	POTEN	0.00000E+000	T	DC &Voltage (V)
FREQINIT	QUANT	1.00000E+006	Initial Fre&q. (Hz)
FREQFINAL	QUANT	1.00000E+000	Final Fre&q. (Hz)
PTSPERDEC	QUANT	1.00000E+001	Points/&decade
VAC	QUANT	2.50000E+001	AC &Voltage (mV rms)
AREA	QUANT	4.00000E-004	&Area (cm^2)
CONDIT	TWOPARAM	F	5.00000E+000	0.00000E+000	Conditionin&g	Time(s)	E(V)
DELAY	TWOPARAM	F	3.00000E+000	0.00000E+000	Init. De&lay	Time(s)	Stab.(mV/s)
SPEED	SELECTOR	0	&Optimize for:
ZGUESS	QUANT	1.00000E+003	E&stimated Z (ohms)
OCVCURVE	TABLE	39
	Pt	T	Vf	Vm	Ach	Over
	#	s	V vs. Ref.	V	V	bits
	0	0.258333	8.51261E-002	8.51261E-002	5.14917E-004	...........
	1	0.516667	8.51259E-002	8.51177E-002	5.10950E-004	...........
	2	0.775	8.51249E-002	8.51073E-002	5.12450E-004	...........
	3	1.03333	8.51218E-002	8.50968E-002	5.17917E-004	...........
	4	1.29167	8.51159E-002	8.50859E-002	5.16283E-004	...........
	5	1.55	8.51076E-002	8.50769E-002	5.15717E-004	...........
	6	1.80833	8.50979E-002	8.50665E-002	5.18850E-004	...........
	7	2.06667	8.50877E-002	8.50576E-002	5.20883E-004	...........
	8	2.325	8.50775E-002	8.50448E-002	5.15850E-004	...........
	9	2.58333	8.50674E-002	8.50374E-002	5.23083E-004	...........
	10	2.84167	8.50573E-002	8.50268E-002	5.20617E-004	...........
	11	3.1	8.50473E-002	8.50170E-002	5.28350E-004	...........
	12	3.35833	8.50374E-002	8.50093E-002	5.29350E-004	...........
	13	3.61667	8.50278E-002	8.49997E-002	5.18383E-004	...........
	14	3.875	8.50185E-002	8.49902E-002	5.19717E-004	...........
	15	4.13333	8.50093E-002	8.49786E-002	5.18183E-004	...........
	16	4.39167	8.50000E-002	8.49740E-002	5.15650E-004	...........
	17	4.65	8.49907E-002	8.49598E-002	5.11517E-004	...........
	18	4.90833	8.49813E-002	8.49507E-002	5.15050E-004	...........
	19	5.16667	8.49716E-002	8.49385E-002	5.18450E-004	...........
	20	5.425	8.49615E-002	8.49316E-002	5.18817E-004	...........
	21	5.68333	8.49513E-002	8.49233E-002	5.19083E-004	...........
	22	5.94167	8.49415E-002	8.49165E-002	5.12317E-004	...........
	23	6.2	8.49324E-002	8.49012E-002	5.10784E-004	...........
	24	6.45833	8.49235E-002	8.48954E-002	5.16650E-004	...........
	25	6.71667	8.49143E-002	8.48829E-002	5.10217E-004	...........
	26	6.975	8.49046E-002	8.48749E-002	5.12584E-004	...........
	27	7.23333	8.48947E-002	8.48666E-002	5.09784E-004	...........
	28	7.49167	8.48851E-002	8.48570E-002	5.14050E-004	...........
	29	7.75	8.48759E-002	8.48489E-002	5.12217E-004	...........
	30	8.00833	8.48669E-002	8.48412E-002	5.10450E-004	...........
	31	8.26667	8.48582E-002	8.48304E-002	5.11350E-004	...........
	32	8.525	8.48496E-002	8.48219E-002	5.14983E-004	...........
	33	8.78333	8.48408E-002	8.48145E-002	5.11350E-004	...........
	34	9.04167	8.48320E-002	8.48089E-002	5.08017E-004	...........
	35	9.3	8.48236E-002	8.48006E-002	5.10884E-004	...........
	36	9.5583	8.48159E-002	8.47933E-002	5.10217E-004	...........
	37	9.8167	8.48085E-002	8.47838E-002	5.13550E-004	...........
	38	10.075	8.48010E-002	8.47753E-002	5.09817E-004	...........
EOC	QUANT	0.084801	Open Circuit (V)
PSTATMODEL	IQUANT	4	Pstat Model
PSTATSECTION	LABEL	REF600-11020	Pstat Section
PSTATSERIALNO	LABEL	11020	Pstat Serial Number
CTRLMODE	IQUANT	1	Control Mode
IESTAB	IQUANT	0	I/E Stability
CASPEED	IQUANT	1	Control Amp Speed
CONVENTION	IQUANT	1	Current Convention
ICHRANGE	IQUANT	2	Ich Range
ICHRANGEMODE	TOGGLE	F	Ich Auto Range
ICHOFFSETENABLE	TOGGLE	T	Ich Offset Enable
ICHOFFSET	QUANT	0	Ich Offset (V)
ICHFILTER	IQUANT	3	Ich Filter
VCHRANGE	IQUANT	2	Vch Range
VCHRANGEMODE	TOGGLE	F	Vch Auto Range
VCHOFFSETENABLE	TOGGLE	T	Vch Offset Enable
VCHOFFSET	QUANT	0	Vch Offset (V)
VCHFILTER	IQUANT	3	Vch Filter
ACHRANGE	IQUANT	2	Ach Range
ACHOFFSETENABLE	TOGGLE	F	Ach Offset Enable
ACHOFFSET	QUANT	0	Ach Offset (V)
ACHFILTER	IQUANT	3	Ach Filter
IERANGELOWERLIMIT	IQUANT	1	I/E Range Lower Limit
IERANGEMODE	TOGGLE	F	I/E AutoRange
IERANGE	IQUANT	8	I/E Range
POSFEEDENABLE	TOGGLE	F	Positive Feedback IR Comp
POSFEEDRESISTANCE	QUANT	0	Positive Feedback Resistance (ohm)
ACHSELECT	IQUANT	0	Ach Select
CABLEID	IQUANT	14	Cable ID
DCCALDATE	LABEL	6/26/2020	DC Calibration Date
ACCALDATE	LABEL	6/26/2020	AC Calibration Date
THERMOSELECT	IQUANT	1	Thermo Select
FRAMEWORKVERSION	QUANT	6.33	Framework Version
INSTRUMENTVERSION	LABEL	3.50	Instrument Version
ZCURVE	TABLE
	Pt	Time	Freq	Zreal	Zimag	Zsig	Zmod	Zphz	Idc	Vdc	IERange
	#	s	Hz	ohm	ohm	V	ohm	°	A	V	#
	0	1	1000078	1634.052	-1757.854	1	2400.037	-47.09032	-1.510598E-009	0.0872162	8
	1	1	794390.6	1902.03	-1906.881	1	2693.309	-45.07297	8.053411E-008	0.086876	8
	2	2	630984.4	2183.306	-2056.204	1	2999.134	-43.28277	4.435373E-008	0.0867155	8
	3	2	501234.4	2481.88	-2213.332	1	3325.442	-41.72647	-3.584645E-008	0.0866134	8
	4	2	398109.4	2797.273	-2376.345	1	3670.389	-40.34863	1.811264E-008	0.0865356	8
	5	3	316265.6	3129.89	-2550.81	1	4037.677	-39.17948	-2.705323E-008	0.0865193	8
	6	3	251203.1	3491.253	-2740.141	1	4438.155	-38.12692	-3.126636E-008	0.0865051	8
	7	3	199546.9	3877.931	-2941.945	1	4867.586	-37.18533	-1.898335E-008	0.0864968	8
	8	4	158578.1	4286.964	-3153.92	1	5322.149	-36.34192	6.299959E-008	0.0864985	8
	9	4	125953.1	4801.733	-3352.42	1	5856.224	-34.92154	-5.538592E-008	0.0865545	7
	10	4	100078.1	5292.24	-3604.916	1	6403.376	-34.26152	-1.751721E-008	0.0864908	7
	11	5	79453.13	5817.538	-3872.488	1	6988.556	-33.65002	-2.091945E-008	0.0864828	7
	12	5	63140.62	6388.6	-4150.902	1	7618.674	-33.01323	3.60764E-009	0.0864342	7
	13	5	50203.12	7007.261	-4424.163	1	8287.033	-32.26702	-1.178837E-008	0.0864809	7
	14	6	39890.62	7676.475	-4709.734	1	9006.102	-31.53029	1.557287E-008	0.0864175	7
	15	6	31640.63	8397.701	-4983.242	1	9764.94	-30.68513	1.881269E-008	0.0864351	7
	16	6	25171.88	9154.236	-5245.451	1	10550.58	-29.81305	-5.87537E-009	0.086463	7
	17	6	20015.62	9946.25	-5497.142	1	11364.26	-28.92878	-6.532346E-009	0.0864603	7
	18	7	15890.62	10782.45	-5758.083	1	12223.61	-28.10328	1.114836E-008	0.0864171	7
	19	7	12609.37	11737.16	-5879.512	1	13127.44	-26.60772	3.76723E-009	0.0864063	6
	20	7	10078.13	12569.23	-6132.789	1	13985.59	-26.00871	-1.77343E-010	0.0864671	6
	21	8	8015.625	13448.39	-6405.98	1	14896.17	-25.47023	6.110497E-010	0.0864542	6
	22	8	6328.125	14365.95	-6697.898	1	15850.62	-24.99655	-2.832832E-009	0.086456	6
	23	8	5015.625	15310.47	-7030.474	1	16847.5	-24.66429	8.743624E-010	0.0864564	6
	24	9	3984.375	16268.9	-7386.236	1	17867.11	-24.41851	3.662842E-009	0.0863863	6
	25	9	3170.956	17270.61	-7797.491	1	18949.27	-24.29865	-2.221814E-009	0.0864385	6
	26	9	2527.573	18324.68	-8243.447	1	20093.49	-24.22083	3.644406E-009	0.0864032	6
	27	10	1976.103	19545.04	-8774.021	1	21424.1	-24.17593	1.711975E-009	0.0863869	6
	28	10	1577.524	20734.16	-9280.43	1	22716.33	-24.11287	-2.234307E-009	0.0864408	6
	29	10	1265.625	21975.44	-9806.8	1	24064.36	-24.04937	-2.217423E-009	0.0864418	6
	30	11	998.264	23374.13	-10398.98	1	25582.98	-23.98392	-2.904185E-009	0.0864571	6
	31	11	796.875	24700.64	-10975.13	1	27029.15	-23.95681	3.403777E-009	0.0863975	6
	32	11	627.7902	26065.44	-11663.44	1	28555.96	-24.10696	-3.191187E-009	0.0864732	6
	33	12	505.5147	27263.11	-12387.59	1	29945.45	-24.43572	-2.671053E-009	0.0864716	6
	34	12	397.9953	28541.19	-13453.01	1	31552.86	-25.23704	4.329516E-010	0.0864526	6
	35	12	315.5048	29748.03	-14789.37	1	33221.54	-26.43449	3.627656E-010	0.0864559	6
	36	12	252.4038	30891.03	-16451.8	1	34998.82	-28.03867	2.993588E-010	0.0864532	6
	37	13	198.6229	32158.71	-18754.64	1	37227.93	-30.25031	2.948675E-010	0.0864471	6
	38	13	158.3615	33472.54	-21536.74	1	39802.54	-32.75784	3.608881E-010	0.0864452	6
	39	13	125.558	35012.97	-25113.31	1	43088.12	-35.65025	3.817231E-010	0.0864442	6
	40	14	100.4464	36728.9	-29353.93	1	47017.71	-38.63203	3.653487E-010	0.0864448	6
	41	14	79.00281	38887.52	-34952.3	1	52286.73	-41.94936	1.983587E-010	0.0864396	6
	42	14	63.3446	41425.67	-41282.5	1	58483.6	-44.90083	1.039661E-010	0.0864397	6
	43	15	49.86702	44830.25	-49508.96	1	66789.88	-47.83923	7.333525E-011	0.0864375	6
	44	15	39.72458	48967.42	-58874.58	1	76576.92	-50.24888	1.138761E-010	0.0864425	6
	45	15	31.6723	54337.72	-69917.23	1	88549.46	-52.14665	1.005922E-010	0.086437	6
	46	16	24.93351	61540.36	-83470.05	1	103703.7	-53.59959	-8.759719E-010	0.0864258	5
	47	16	19.86229	70248.64	-98411.6	1	120912	-54.47982	-1.310457E-009	0.086423	5
	48	16	15.83615	80968.17	-115082.4	1	140711.8	-54.87105	5.466425E-010	0.0864288	5
	49	17	12.40079	95372.9	-135194.4	1	165449.4	-54.79893	-5.21575E-010	0.0864296	5
	50	17	9.93114	110946.4	-155374.3	1	190919.6	-54.47093	9.588252E-011	0.0864222	5
	51	17	7.944915	128751	-177360.3	1	219165.4	-54.023	3.674467E-010	0.0864266	5
	52	18	6.317385	149955.9	-202419.1	1	251913.2	-53.46825	-1.516794E-010	0.0864268	5
	53	18	5.008013	173884.6	-230257.9	1	288538.6	-52.94086	2.669137E-010	0.0864349	5
	54	19	3.945707	201578.3	-262849.5	1	331245.6	-52.51553	3.104002E-010	0.0864207	5
	55	20	3.158693	229907.9	-297029.6	1	375611.8	-52.25928	1.579176E-010	0.0864448	5
	56	21	2.504006	263706	-337961.7	1	428671.2	-52.03566	-1.283314E-010	0.0864189	5
	57	23	1.998082	299294.8	-383079.4	1	486134.9	-51.99997	-5.106936E-011	0.0864155	5
	58	24	1.584686	342255.9	-435602.4	1	553975.2	-51.84303	1.45653E-010	0.0864581	5
	59	26	1.266892	387901.1	-495356.4	1	629162.3	-51.9364	1.564903E-010	0.0864486	5
	60	29	0.999041	441343	-566821	1	718379.9	-52.09466	1.65413E-010	0.0864299	5
