EXPLAIN
TAG	EISPOT
TITLE	LABEL	Potentiostatic EIS	Test &Identifier
DATE	LABEL	1/14/2020	Date
TIME	LABEL	17:28:19	Time
NOTES	NOTES	5	&Notes...
	
	
	
	
	
PSTAT	PSTAT	REF600-11020	Potentiostat
VDC	POTEN	0.00000E+000	T	DC &Voltage (V)
FREQINIT	QUANT	1.00000E+006	Initial Fre&q. (Hz)
FREQFINAL	QUANT	1.00000E+000	Final Fre&q. (Hz)
PTSPERDEC	QUANT	1.00000E+001	Points/&decade
VAC	QUANT	2.50000E+001	AC &Voltage (mV rms)
AREA	QUANT	1.00000E-001	&Area (cm^2)
CONDIT	TWOPARAM	T	5.00000E+000	0.00000E+000	Conditionin&g	Time(s)	E(V)
DELAY	TWOPARAM	T	5.00000E+000	0.00000E+000	Init. De&lay	Time(s)	Stab.(mV/s)
SPEED	SELECTOR	0	&Optimize for:
ZGUESS	QUANT	5.00000E+002	E&stimated Z (ohms)
OCVCURVE	TABLE	19
	Pt	T	Vf	Vm	Ach	Over
	#	s	V vs. Ref.	V	V	bits
	0	0.258333	8.34805E-003	8.34805E-003	6.48313E-004	...........
	1	0.516667	8.35051E-003	8.47647E-003	6.38780E-004	...........
	2	0.775	8.36581E-003	8.61053E-003	6.42346E-004	...........
	3	1.03333	8.41011E-003	8.75154E-003	6.42813E-004	...........
	4	1.29167	8.49208E-003	8.89558E-003	6.46480E-004	...........
	5	1.55	8.60620E-003	9.04120E-003	6.42280E-004	...........
	6	1.80833	8.73990E-003	9.18270E-003	6.41680E-004	...........
	7	2.06667	8.88237E-003	9.33034E-003	6.43313E-004	...........
	8	2.325	9.02727E-003	9.46542E-003	6.43380E-004	...........
	9	2.58333	9.17159E-003	9.60017E-003	6.37180E-004	...........
	10	2.84167	9.31361E-003	9.73237E-003	6.42280E-004	...........
	11	3.1	9.45243E-003	9.86434E-003	6.39946E-004	...........
	12	3.35833	9.58807E-003	9.98922E-003	6.40146E-004	...........
	13	3.61667	9.72098E-003	1.01212E-002	6.35580E-004	...........
	14	3.875	9.85207E-003	1.02641E-002	6.45046E-004	...........
	15	4.13333	9.98254E-003	1.03637E-002	6.42813E-004	...........
	16	4.39167	1.01110E-002	1.04397E-002	6.39746E-004	...........
	17	4.65	1.02319E-002	1.05466E-002	6.36446E-004	...........
	18	4.90833	1.03432E-002	1.07340E-002	6.42946E-004	...........
EOC	QUANT	0.0103432	Open Circuit (V)
PSTATMODEL	IQUANT	4	Pstat Model
PSTATSECTION	LABEL	REF600-11020	Pstat Section
PSTATSERIALNO	LABEL	11020	Pstat Serial Number
CTRLMODE	IQUANT	1	Control Mode
IESTAB	IQUANT	0	I/E Stability
CASPEED	IQUANT	1	Control Amp Speed
CONVENTION	IQUANT	1	Current Convention
ICHRANGE	IQUANT	2	Ich Range
ICHRANGEMODE	TOGGLE	F	Ich Auto Range
ICHOFFSETENABLE	TOGGLE	T	Ich Offset Enable
ICHOFFSET	QUANT	0	Ich Offset (V)
ICHFILTER	IQUANT	3	Ich Filter
VCHRANGE	IQUANT	2	Vch Range
VCHRANGEMODE	TOGGLE	F	Vch Auto Range
VCHOFFSETENABLE	TOGGLE	T	Vch Offset Enable
VCHOFFSET	QUANT	0	Vch Offset (V)
VCHFILTER	IQUANT	3	Vch Filter
ACHRANGE	IQUANT	2	Ach Range
ACHOFFSETENABLE	TOGGLE	F	Ach Offset Enable
ACHOFFSET	QUANT	0	Ach Offset (V)
ACHFILTER	IQUANT	3	Ach Filter
IERANGELOWERLIMIT	IQUANT	1	I/E Range Lower Limit
IERANGEMODE	TOGGLE	F	I/E AutoRange
IERANGE	IQUANT	7	I/E Range
POSFEEDENABLE	TOGGLE	F	Positive Feedback IR Comp
POSFEEDRESISTANCE	QUANT	0	Positive Feedback Resistance (ohm)
ACHSELECT	IQUANT	0	Ach Select
CABLEID	IQUANT	14	Cable ID
DCCALDATE	LABEL	12/22/2019	DC Calibration Date
ACCALDATE	LABEL	12/22/2019	AC Calibration Date
THERMOSELECT	IQUANT	1	Thermo Select
FRAMEWORKVERSION	QUANT	6.33	Framework Version
INSTRUMENTVERSION	LABEL	3.50	Instrument Version
ZCURVE	TABLE
	Pt	Time	Freq	Zreal	Zimag	Zsig	Zmod	Zphz	Idc	Vdc	IERange
	#	s	Hz	ohm	ohm	V	ohm	°	A	V	#
	0	1	1000078	2285.48	-1639.544	1	2812.743	-35.65467	-3.593637E-006	0.013097	8
	1	1	794390.6	2617.046	-1578.477	1	3056.227	-31.09637	3.136382E-006	0.0116531	8
	2	2	630984.4	2907.919	-1464.523	1	3255.89	-26.73132	-8.133194E-007	0.0121155	8
	3	2	501234.4	3177.876	-1338.416	1	3448.225	-22.83921	-8.571971E-007	0.0120362	8
	4	2	398109.4	3372.894	-1187.164	1	3575.72	-19.39063	6.168412E-007	0.0116721	8
	5	3	316265.6	3533.496	-1034.955	1	3681.946	-16.32521	-1.928264E-006	0.012224	8
	6	3	251203.1	3650.317	-902.5084	1	3760.23	-13.88737	9.138918E-007	0.0116723	8
	7	3	199546.9	3736.395	-780.778	1	3817.101	-11.803	3.205107E-007	0.0117292	8
	8	3	158578.1	3821.192	-674.7742	1	3880.313	-10.01447	-2.132538E-006	0.012278	8
	9	4	125953.1	3883.577	-587.3085	1	3927.735	-8.599607	6.947819E-007	0.0104411	7
	10	4	100078.1	3929.631	-524.509	1	3964.481	-7.60264	4.181804E-010	0.0118252	7
	11	4	79453.13	3970.423	-485.9707	1	4000.053	-6.978163	-5.343631E-009	0.0118331	7
	12	5	63140.62	4008.007	-462.3683	1	4034.589	-6.580617	-2.412589E-008	0.0118205	7
	13	5	50203.12	4044.633	-450.4563	1	4069.639	-6.354922	-3.85138E-008	0.0118566	7
	14	5	39890.62	4079.205	-451.9726	1	4104.167	-6.322538	-5.148303E-009	0.011823	7
	15	6	31640.63	4115.826	-465.8057	1	4142.101	-6.456935	-2.740446E-008	0.01182	7
	16	6	25171.88	4153.011	-493.2962	1	4182.206	-6.773876	-2.525103E-008	0.0118237	7
	17	6	20015.62	4193.811	-534.0652	1	4227.679	-7.257329	-2.153804E-008	0.011875	7
	18	7	15890.62	4237.733	-587.2566	1	4278.23	-7.889686	4.467879E-008	0.0117861	7
	19	7	12609.37	4286.556	-655.1989	1	4336.34	-8.690383	1.778449E-008	0.0117342	7
	20	7	10078.13	4342.209	-733.3295	1	4403.697	-9.58589	4.277699E-008	0.0117843	7
	21	8	8015.625	4394.988	-843.7661	1	4475.25	-10.86763	8.922706E-008	0.0116683	7
	22	8	6328.125	4462.358	-979.601	1	4568.617	-12.38148	4.306452E-008	0.0117874	7
	23	8	5015.625	4533.553	-1140.892	1	4674.905	-14.12547	-2.282291E-009	0.0118186	7
	24	8	3984.375	4613.268	-1334.911	1	4802.523	-16.13851	-1.380608E-009	0.0118647	7
	25	9	3170.956	4702.277	-1571.849	1	4958.036	-18.48344	-5.826508E-009	0.0118224	7
	26	9	2527.573	4801.885	-1855.963	1	5148.077	-21.13188	3.383046E-008	0.011697	7
	27	9	1976.103	4926.164	-2235.647	1	5409.732	-24.41003	3.370387E-008	0.0116938	7
	28	10	1577.524	5063.363	-2663.157	1	5721.019	-27.74284	-2.850928E-008	0.0118409	7
	29	10	1265.625	5208.438	-3164.925	1	6094.635	-31.2851	4.350368E-008	0.0117735	7
	30	10	998.264	5399.935	-3820.67	1	6614.893	-35.28094	-2.630987E-008	0.0118194	7
	31	11	796.875	5610.684	-4581.768	1	7243.782	-39.23559	5.519717E-008	0.0116942	7
	32	11	627.7902	5880.383	-5565.542	1	8096.553	-43.42438	-3.459919E-008	0.0118312	7
	33	11	505.5147	6167.28	-6643.214	1	9064.637	-47.12767	-7.389332E-009	0.0118093	7
	34	12	397.9953	6550.618	-8096.972	1	10414.97	-51.02642	5.485425E-010	0.0117946	6
	35	12	315.5048	6996.948	-9821.42	1	12058.92	-54.53329	3.720794E-010	0.0117957	6
	36	12	252.4038	7514.353	-11834.14	1	14018.29	-57.58558	2.956279E-010	0.0117893	6
	37	13	198.6229	8189.209	-14466.19	1	16623.29	-60.4861	7.236131E-010	0.011793	6
	38	13	158.3615	8971.475	-17497.69	1	19663.58	-62.85472	5.77671E-010	0.0117895	6
	39	13	125.558	9947.89	-21276	1	23486.78	-64.9409	6.478628E-010	0.0117895	6
	40	14	100.4464	11089.92	-25664.93	1	27958.45	-66.63064	7.038032E-010	0.0117854	6
	41	14	79.00281	12640.55	-31420.72	1	33868.06	-68.08508	4.174595E-010	0.0117858	6
	42	14	63.3446	14258.61	-38011.95	1	40598.23	-69.43849	3.163068E-010	0.0117899	6
	43	15	49.86702	16602.08	-46478.73	1	49354.85	-70.34341	5.181364E-010	0.0117855	6
	44	15	39.72458	19490.14	-56247.79	1	59528.81	-70.88854	3.8844E-010	0.0117949	6
	45	15	31.6723	23060.14	-68051.72	1	71852.67	-71.28043	6.636113E-010	0.0117836	6
	46	16	24.93351	27798.59	-83301.05	1	87817.01	-71.54551	3.704342E-012	0.0117832	6
	47	16	19.86229	33743.55	-100819.5	1	106316.5	-71.49499	-1.155409E-009	0.0117795	5
	48	16	15.83615	41532.8	-121069.6	1	127995.4	-71.06551	-3.686647E-010	0.011786	5
	49	16	12.40079	53063.21	-148320.6	1	157526.8	-70.31481	-7.826663E-010	0.011785	5
	50	17	9.93114	66359.88	-176912.2	1	188948.6	-69.4389	-3.803075E-010	0.0117816	5
	51	17	7.944915	83178.37	-209916.6	1	225795.5	-68.38431	7.792053E-010	0.0117822	5
	52	18	6.317385	106351.6	-249032.2	1	270790.9	-66.87463	-3.784397E-010	0.0118031	5
	53	18	5.008013	135542.3	-293503.3	1	323289.2	-65.2121	-3.603632E-010	0.0117815	5
	54	19	3.945707	173288.8	-343878.8	1	385073.6	-63.25536	-6.569884E-011	0.0117788	5
	55	20	3.158693	215025.7	-395374.2	1	450063.1	-61.46028	-1.426831E-011	0.0117923	5
	56	22	2.504006	267385.6	-452868.9	1	525913.8	-59.4413	-2.091546E-010	0.0117889	5
	57	23	1.998082	324290	-512869.9	1	606794.5	-57.69464	-2.513469E-010	0.011759	5
	58	25	1.584686	391183.7	-576434.7	1	696635.9	-55.83816	-9.409086E-011	0.0118089	5
	59	27	1.266892	463432.6	-645022.9	1	794244.5	-54.30371	-3.283935E-011	0.0118146	5
	60	29	0.999041	545280.6	-724855.3	1	907053.5	-53.04727	7.697277E-012	0.011808	5
