EXPLAIN
TAG	EISPOT
TITLE	LABEL	Potentiostatic EIS	Test &Identifier
DATE	LABEL	6/1/2020	Date
TIME	LABEL	12:34:06	Time
NOTES	NOTES	1	&Notes...
	
PSTAT	PSTAT	REF600-11020	Potentiostat
VDC	POTEN	0.00000E+000	T	DC &Voltage (V)
FREQINIT	QUANT	1.00000E+006	Initial Fre&q. (Hz)
FREQFINAL	QUANT	1.00000E+000	Final Fre&q. (Hz)
PTSPERDEC	QUANT	1.00000E+001	Points/&decade
VAC	QUANT	2.50000E+001	AC &Voltage (mV rms)
AREA	QUANT	4.00000E-004	&Area (cm^2)
CONDIT	TWOPARAM	F	5.00000E+000	0.00000E+000	Conditionin&g	Time(s)	E(V)
DELAY	TWOPARAM	T	3.00000E+000	0.00000E+000	Init. De&lay	Time(s)	Stab.(mV/s)
SPEED	SELECTOR	0	&Optimize for:
ZGUESS	QUANT	1.00000E+003	E&stimated Z (ohms)
OCVCURVE	TABLE	12
	Pt	T	Vf	Vm	Ach	Over
	#	s	V vs. Ref.	V	V	bits
	0	0.258333	1.05367E-002	1.05367E-002	5.88930E-004	...........
	1	0.516667	1.05367E-002	1.05344E-002	5.81563E-004	...........
	2	0.775	1.05363E-002	1.05270E-002	5.87930E-004	...........
	3	1.03333	1.05351E-002	1.05267E-002	5.84030E-004	...........
	4	1.29167	1.05326E-002	1.05206E-002	5.81563E-004	...........
	5	1.55	1.05294E-002	1.05181E-002	5.79097E-004	...........
	6	1.80833	1.05256E-002	1.05134E-002	5.90030E-004	...........
	7	2.06667	1.05217E-002	1.05066E-002	5.84197E-004	...........
	8	2.325	1.05175E-002	1.05022E-002	5.85930E-004	...........
	9	2.58333	1.05128E-002	1.04995E-002	5.79663E-004	...........
	10	2.84167	1.05081E-002	1.04959E-002	5.87130E-004	...........
	11	3.1	1.05036E-002	1.04926E-002	5.85230E-004	...........
EOC	QUANT	0.0105036	Open Circuit (V)
PSTATMODEL	IQUANT	4	Pstat Model
PSTATSECTION	LABEL	REF600-11020	Pstat Section
PSTATSERIALNO	LABEL	11020	Pstat Serial Number
CTRLMODE	IQUANT	1	Control Mode
IESTAB	IQUANT	0	I/E Stability
CASPEED	IQUANT	1	Control Amp Speed
CONVENTION	IQUANT	1	Current Convention
ICHRANGE	IQUANT	2	Ich Range
ICHRANGEMODE	TOGGLE	F	Ich Auto Range
ICHOFFSETENABLE	TOGGLE	T	Ich Offset Enable
ICHOFFSET	QUANT	0	Ich Offset (V)
ICHFILTER	IQUANT	3	Ich Filter
VCHRANGE	IQUANT	2	Vch Range
VCHRANGEMODE	TOGGLE	F	Vch Auto Range
VCHOFFSETENABLE	TOGGLE	T	Vch Offset Enable
VCHOFFSET	QUANT	0	Vch Offset (V)
VCHFILTER	IQUANT	3	Vch Filter
ACHRANGE	IQUANT	2	Ach Range
ACHOFFSETENABLE	TOGGLE	F	Ach Offset Enable
ACHOFFSET	QUANT	0	Ach Offset (V)
ACHFILTER	IQUANT	3	Ach Filter
IERANGELOWERLIMIT	IQUANT	1	I/E Range Lower Limit
IERANGEMODE	TOGGLE	F	I/E AutoRange
IERANGE	IQUANT	7	I/E Range
POSFEEDENABLE	TOGGLE	F	Positive Feedback IR Comp
POSFEEDRESISTANCE	QUANT	0	Positive Feedback Resistance (ohm)
ACHSELECT	IQUANT	0	Ach Select
CABLEID	IQUANT	14	Cable ID
DCCALDATE	LABEL	2/27/2020	DC Calibration Date
ACCALDATE	LABEL	2/27/2020	AC Calibration Date
THERMOSELECT	IQUANT	1	Thermo Select
FRAMEWORKVERSION	QUANT	6.33	Framework Version
INSTRUMENTVERSION	LABEL	3.50	Instrument Version
ZCURVE	TABLE
	Pt	Time	Freq	Zreal	Zimag	Zsig	Zmod	Zphz	Idc	Vdc	IERange
	#	s	Hz	ohm	ohm	V	ohm	°	A	V	#
	0	1	1000078	2147.035	-2255.723	1	3114.168	-46.41413	4.833122E-008	0.0130356	8
	1	1	794390.6	2562.669	-2429.127	1	3530.996	-43.46758	4.17445E-008	0.0126346	8
	2	1	630984.4	3023.871	-2555.323	1	3958.974	-40.19949	8.839857E-008	0.0124309	8
	3	2	501234.4	3508.969	-2631.664	1	4386.174	-36.86924	2.971709E-008	0.0123432	8
	4	2	398109.4	4002.255	-2639.237	1	4794.123	-33.40236	5.235371E-008	0.0122961	8
	5	2	316265.6	4483.441	-2588.465	1	5177.007	-29.99951	5.282806E-008	0.0122551	8
	6	3	251203.1	4934.854	-2495.521	1	5529.956	-26.8254	4.046285E-008	0.0122318	8
	7	3	199546.9	5338.73	-2357.658	1	5836.146	-23.82693	4.117497E-008	0.0122295	8
	8	3	158578.1	5686.163	-2213.727	1	6101.888	-21.27187	4.256167E-008	0.0122313	8
	9	4	125953.1	6029.282	-2009.785	1	6355.429	-18.43516	2.411914E-009	0.0121911	7
	10	4	100078.1	6262.723	-1891.453	1	6542.117	-16.80525	2.28185E-009	0.0121638	7
	11	4	79453.13	6486.986	-1806.634	1	6733.863	-15.56259	2.273871E-009	0.0121479	7
	12	5	63140.62	6686.217	-1750.048	1	6911.452	-14.66754	3.332598E-009	0.0121487	7
	13	5	50203.12	6867.609	-1723.214	1	7080.503	-14.08579	2.962074E-009	0.0121413	7
	14	5	39890.62	7044.687	-1733.553	1	7254.848	-13.82463	3.339161E-009	0.0121437	7
	15	6	31640.63	7220.297	-1777.615	1	7435.9	-13.83098	2.972084E-009	0.0121405	7
	16	6	25171.88	7398.518	-1857.826	1	7628.209	-14.09597	3.042556E-009	0.0121351	7
	17	6	20015.62	7586.923	-1976.925	1	7840.257	-14.60481	3.408722E-009	0.0121398	7
	18	7	15890.62	7787.807	-2133.771	1	8074.832	-15.32237	2.957712E-009	0.0121343	7
	19	7	12609.37	8011.081	-2338.683	1	8345.469	-16.27416	3.499664E-009	0.0121348	7
	20	7	10078.13	8248.057	-2576.975	1	8641.252	-17.35059	3.035844E-009	0.0121416	7
	21	8	8015.625	8512.804	-2866.707	1	8982.529	-18.61107	2.479359E-009	0.0121286	7
	22	8	6328.125	8848.197	-3184.612	1	9403.848	-19.79464	4.614538E-010	0.0121853	6
	23	8	5015.625	9187.313	-3611.273	1	9871.58	-21.45838	4.094056E-010	0.0121892	6
	24	8	3984.375	9564.45	-4105.287	1	10408.27	-23.23016	4.42539E-010	0.0121846	6
	25	9	3170.956	9992.85	-4674.22	1	11032.01	-25.06815	3.998852E-010	0.0121913	6
	26	9	2527.573	10476.65	-5328.907	1	11754.04	-26.95999	4.75976E-010	0.0121889	6
	27	9	1976.103	11077.73	-6156.165	1	12673.37	-29.062	3.220516E-010	0.0121881	6
	28	10	1577.524	11713.27	-7034.614	1	13663.33	-30.98768	2.429816E-010	0.0121845	6
	29	10	1265.625	12423.11	-8024.917	1	14789.63	-32.86111	2.5798E-010	0.0121803	6
	30	10	998.264	13288.87	-9249.793	1	16191.13	-34.84007	1.013396E-010	0.0121789	6
	31	11	796.875	14239.64	-10595.76	1	17749.29	-36.65306	9.700576E-011	0.0121758	6
	32	11	627.7902	15399.68	-12250.44	1	19677.99	-38.50224	2.079417E-010	0.012176	6
	33	11	505.5147	16600.64	-13965.45	1	21693.66	-40.07254	2.573908E-011	0.0121721	6
	34	12	397.9953	18133.91	-16172.3	1	24297.78	-41.72741	5.977773E-010	0.0121978	6
	35	12	315.5048	19856.33	-18641.51	1	27235.64	-43.1926	6.024852E-010	0.0121962	6
	36	12	252.4038	21765.61	-21369.24	1	30502.23	-44.47351	5.735754E-010	0.0121897	6
	37	13	198.6229	24136.7	-24738.66	1	34562.72	-45.70564	5.538435E-010	0.0121873	6
	38	13	158.3615	26724.43	-28396.95	1	38994.64	-46.73797	5.185409E-010	0.0121882	6
	39	13	125.558	29769.96	-32691.62	1	44215.3	-47.67807	5.694848E-010	0.0121877	6
	40	14	100.4464	33114.73	-37411.84	1	49962.29	-48.48666	4.645082E-010	0.0121842	6
	41	14	79.00281	37215.41	-43248.17	1	57056.03	-49.28773	6.092319E-010	0.0121814	6
	42	14	63.3446	41491.76	-49423.32	1	64530.86	-49.98594	5.690188E-010	0.0121864	6
	43	15	49.86702	46734.29	-57152.61	1	73827.59	-50.72677	3.691482E-010	0.0121859	6
	44	15	39.72458	52354.71	-65706.84	1	84014.3	-51.45243	7.195829E-010	0.01219	6
	45	15	31.6723	58691.86	-75653.98	1	95751	-52.19593	7.648169E-010	0.0121864	6
	46	16	24.93351	66367.51	-87953.08	1	110183.4	-52.96258	-2.077356E-010	0.0121955	5
	47	16	19.86229	74698.9	-101882.5	1	126332.8	-53.75162	5.860883E-010	0.0121929	5
	48	16	15.83615	84550.95	-118204.7	1	145331.4	-54.42414	-7.996707E-010	0.0121903	5
	49	17	12.40079	97088.7	-138964.4	1	169520.8	-55.05959	-8.000862E-010	0.0121961	5
	50	17	9.93114	110714.9	-160828.8	1	195252.9	-55.45639	-9.441682E-010	0.012191	5
	51	17	7.944915	127097.3	-186604.9	1	225776.7	-55.74107	-1.577091E-010	0.0121979	5
	52	18	6.317385	147443.8	-216617.7	1	262036.1	-55.7583	7.577479E-011	0.0121872	5
	53	18	5.008013	172350	-251240	1	304673.7	-55.54998	-1.573111E-010	0.012183	5
	54	19	3.945707	203188.8	-291422.5	1	355264.4	-55.1146	-1.294747E-010	0.0121862	5
	55	20	3.158693	236438.3	-332749.5	1	408197.6	-54.60395	-5.162375E-011	0.0121736	5
	56	21	2.504006	277448.9	-380914.7	1	471247.2	-53.93132	2.813924E-010	0.0121763	5
	57	23	1.998082	321872.7	-432024.5	1	538746	-53.31266	1.605267E-010	0.0121664	5
	58	24	1.584686	376401.4	-491291.4	1	618906.5	-52.54258	2.871149E-011	0.0121263	5
	59	26	1.266892	434471.7	-555653.9	1	705348.8	-51.97778	3.829794E-011	0.0121408	5
	60	29	0.999041	504518.9	-630114.4	1	807207.3	-51.31651	4.029988E-011	0.0121637	5
