EXPLAIN
TAG	EISPOT
TITLE	LABEL	Potentiostatic EIS	Test &Identifier
DATE	LABEL	1/10/2020	Date
TIME	LABEL	13:38:02	Time
NOTES	NOTES	5	&Notes...
	
	
	
	
	
PSTAT	PSTAT	REF600-11020	Potentiostat
VDC	POTEN	0.00000E+000	T	DC &Voltage (V)
FREQINIT	QUANT	1.00000E+006	Initial Fre&q. (Hz)
FREQFINAL	QUANT	1.00000E+000	Final Fre&q. (Hz)
PTSPERDEC	QUANT	1.00000E+001	Points/&decade
VAC	QUANT	2.50000E+001	AC &Voltage (mV rms)
AREA	QUANT	1.00000E-001	&Area (cm^2)
CONDIT	TWOPARAM	T	5.00000E+000	0.00000E+000	Conditionin&g	Time(s)	E(V)
DELAY	TWOPARAM	T	5.00000E+000	0.00000E+000	Init. De&lay	Time(s)	Stab.(mV/s)
SPEED	SELECTOR	0	&Optimize for:
ZGUESS	QUANT	5.00000E+002	E&stimated Z (ohms)
OCVCURVE	TABLE	19
	Pt	T	Vf	Vm	Ach	Over
	#	s	V vs. Ref.	V	V	bits
	0	0.258333	9.53161E-003	9.53161E-003	6.55380E-004	...........
	1	0.516667	9.53510E-003	9.71414E-003	6.56346E-004	...........
	2	0.775	9.55844E-003	9.98832E-003	6.58479E-004	...........
	3	1.03333	9.63009E-003	1.02087E-002	6.62546E-004	...........
	4	1.29167	9.76929E-003	1.05322E-002	6.58679E-004	...........
	5	1.55	9.97178E-003	1.07853E-002	6.53746E-004	...........
	6	1.80833	1.02177E-002	1.10344E-002	6.52546E-004	...........
	7	2.06667	1.04834E-002	1.12764E-002	6.53346E-004	...........
	8	2.325	1.07478E-002	1.14237E-002	6.53380E-004	...........
	9	2.58333	1.09960E-002	1.16623E-002	6.54680E-004	...........
	10	2.84167	1.12213E-002	1.17668E-002	6.54379E-004	...........
	11	3.1	1.14242E-002	1.19874E-002	6.52813E-004	...........
	12	3.35833	1.16099E-002	1.21381E-002	6.55446E-004	...........
	13	3.61667	1.17866E-002	1.23472E-002	6.55279E-004	...........
	14	3.875	1.19622E-002	1.25134E-002	6.61279E-004	...........
	15	4.13333	1.21411E-002	1.27230E-002	6.56213E-004	...........
	16	4.39167	1.23240E-002	1.28938E-002	6.51213E-004	...........
	17	4.65	1.25097E-002	1.30698E-002	6.57946E-004	...........
	18	4.90833	1.26945E-002	1.32219E-002	6.57846E-004	...........
EOC	QUANT	0.0126945	Open Circuit (V)
PSTATMODEL	IQUANT	4	Pstat Model
PSTATSECTION	LABEL	REF600-11020	Pstat Section
PSTATSERIALNO	LABEL	11020	Pstat Serial Number
CTRLMODE	IQUANT	1	Control Mode
IESTAB	IQUANT	0	I/E Stability
CASPEED	IQUANT	1	Control Amp Speed
CONVENTION	IQUANT	1	Current Convention
ICHRANGE	IQUANT	2	Ich Range
ICHRANGEMODE	TOGGLE	F	Ich Auto Range
ICHOFFSETENABLE	TOGGLE	T	Ich Offset Enable
ICHOFFSET	QUANT	0	Ich Offset (V)
ICHFILTER	IQUANT	3	Ich Filter
VCHRANGE	IQUANT	2	Vch Range
VCHRANGEMODE	TOGGLE	F	Vch Auto Range
VCHOFFSETENABLE	TOGGLE	T	Vch Offset Enable
VCHOFFSET	QUANT	0	Vch Offset (V)
VCHFILTER	IQUANT	3	Vch Filter
ACHRANGE	IQUANT	2	Ach Range
ACHOFFSETENABLE	TOGGLE	F	Ach Offset Enable
ACHOFFSET	QUANT	0	Ach Offset (V)
ACHFILTER	IQUANT	3	Ach Filter
IERANGELOWERLIMIT	IQUANT	1	I/E Range Lower Limit
IERANGEMODE	TOGGLE	F	I/E AutoRange
IERANGE	IQUANT	7	I/E Range
POSFEEDENABLE	TOGGLE	F	Positive Feedback IR Comp
POSFEEDRESISTANCE	QUANT	0	Positive Feedback Resistance (ohm)
ACHSELECT	IQUANT	0	Ach Select
CABLEID	IQUANT	14	Cable ID
DCCALDATE	LABEL	12/22/2019	DC Calibration Date
ACCALDATE	LABEL	12/22/2019	AC Calibration Date
THERMOSELECT	IQUANT	1	Thermo Select
FRAMEWORKVERSION	QUANT	6.33	Framework Version
INSTRUMENTVERSION	LABEL	3.50	Instrument Version
ZCURVE	TABLE
	Pt	Time	Freq	Zreal	Zimag	Zsig	Zmod	Zphz	Idc	Vdc	IERange
	#	s	Hz	ohm	ohm	V	ohm	°	A	V	#
	0	1	1000078	2259.041	-1958.104	1	2989.555	-40.91828	4.297096E-006	0.0144959	8
	1	2	794390.6	2669.263	-1956.007	1	3309.219	-36.23355	-1.513878E-006	0.0147494	8
	2	2	630984.4	3062.505	-1878.689	1	3592.827	-31.52697	-1.51454E-006	0.0149146	8
	3	2	501234.4	3415.876	-1761.822	1	3843.465	-27.28353	1.12219E-007	0.0144295	8
	4	3	398109.4	3701.867	-1599.941	1	4032.82	-23.37392	2.614742E-008	0.0143827	8
	5	3	316265.6	3941.231	-1413.972	1	4187.197	-19.73617	-1.558087E-006	0.0146578	8
	6	3	251203.1	4148.49	-1268.557	1	4338.111	-17.00299	5.7356E-007	0.0142556	8
	7	4	199546.9	4299.243	-1112.627	1	4440.881	-14.50958	6.000055E-007	0.0142935	8
	8	4	158578.1	4409.048	-966.333	1	4513.702	-12.36207	-1.501781E-006	0.0147611	8
	9	4	125953.1	4522.201	-842.7693	1	4600.061	-10.55669	2.05094E-007	0.0140791	7
	10	5	100078.1	4584.274	-750.8451	1	4645.356	-9.301722	5.44691E-009	0.014325	7
	11	5	79453.13	4648.669	-691.2516	1	4699.783	-8.457839	-2.048163E-008	0.0143526	7
	12	5	63140.62	4707.17	-652.4097	1	4752.167	-7.890875	-2.931722E-008	0.0143781	7
	13	6	50203.12	4760.546	-629.186	1	4801.945	-7.528962	-2.02535E-008	0.0143833	7
	14	6	39890.62	4812.914	-622.2993	1	4852.979	-7.367345	-2.912969E-008	0.014381	7
	15	6	31640.63	4864.712	-632.4061	1	4905.646	-7.406837	-1.965183E-008	0.0144069	7
	16	7	25171.88	4917.828	-659.0679	1	4961.794	-7.633074	-2.075043E-008	0.0143516	7
	17	7	20015.62	4977.23	-707.0201	1	5027.196	-8.084827	-2.847649E-008	0.0143757	7
	18	7	15890.62	5034.452	-764.1421	1	5092.114	-8.630626	-3.447104E-008	0.0144007	7
	19	8	12609.37	5101.484	-847.1249	1	5171.341	-9.428197	-1.773595E-008	0.0144007	7
	20	8	10078.13	5170.749	-944.1343	1	5256.237	-10.34773	-1.40073E-008	0.0143356	7
	21	8	8015.625	5252.454	-1071.622	1	5360.657	-11.5314	-1.803287E-008	0.0143994	7
	22	8	6328.125	5342.32	-1227.843	1	5481.604	-12.94369	-1.358224E-008	0.0143277	7
	23	9	5015.625	5442.417	-1418.942	1	5624.349	-14.6128	-3.39491E-008	0.0143752	7
	24	9	3984.375	5551.478	-1646.617	1	5790.532	-16.52082	2.964084E-008	0.0143006	7
	25	9	3170.956	5683.857	-1917.666	1	5998.64	-18.64378	2.101169E-009	0.0143561	7
	26	10	2527.573	5825.223	-2242.988	1	6242.132	-21.05908	-3.23771E-008	0.014376	7
	27	10	1976.103	5999.573	-2668.701	1	6566.342	-23.98022	-2.663039E-008	0.0143776	7
	28	10	1577.524	6174.497	-3152.078	1	6932.532	-27.04429	-1.199247E-008	0.0143319	7
	29	11	1265.625	6394.007	-3697.379	1	7386.064	-30.03894	-6.186812E-009	0.0143522	7
	30	11	998.264	6648.556	-4416.46	1	7981.755	-33.59504	-3.079657E-008	0.0144464	7
	31	11	796.875	6926.505	-5246.042	1	8688.926	-37.1398	-1.688219E-008	0.0143941	7
	32	12	627.7902	7269.521	-6304.892	1	9622.76	-40.93526	2.74289E-009	0.0143536	7
	33	12	505.5147	7633.856	-7472.156	1	10682.17	-44.38671	-1.589578E-009	0.0143988	6
	34	12	397.9953	8103.908	-9037.286	1	12138.61	-48.11681	4.478383E-010	0.0143466	6
	35	13	315.5048	8642.31	-10893.24	1	13905.12	-51.57277	3.439168E-011	0.0143448	6
	36	13	252.4038	9261.051	-13048	1	16000.55	-54.6341	-2.155655E-010	0.0143398	6
	37	13	198.6229	10049.49	-15869.82	1	18784.13	-57.65614	2.598844E-010	0.0143451	6
	38	14	158.3615	10968.6	-19109.46	1	22033.64	-60.1447	-1.838377E-011	0.0143417	6
	39	14	125.558	12078.3	-23142.82	1	26105.08	-62.43983	1.776757E-010	0.0143431	6
	40	14	100.4464	13422.12	-27853.14	1	30918.46	-64.2711	8.027056E-010	0.014347	6
	41	15	79.00281	15111.09	-34095.2	1	37293.8	-66.09695	1.007383E-009	0.0143463	6
	42	15	63.3446	16928.47	-40500.7	1	43896.24	-67.31607	1.106579E-010	0.0143377	6
	43	15	49.86702	19757.13	-49724.25	1	53505.57	-68.33041	-1.323312E-010	0.0143386	6
	44	16	39.72458	22903.85	-60575.7	1	64761.12	-69.28825	1.276651E-010	0.0143441	6
	45	16	31.6723	27148.99	-73410.16	1	78269.53	-69.70429	6.898235E-011	0.0143413	6
	46	16	24.93351	32977.36	-89386.18	1	95275.4	-69.7494	-2.499538E-010	0.01434	6
	47	17	19.86229	40087.88	-107673	1	114893.5	-69.57914	-1.402451E-009	0.0143361	5
	48	17	15.83615	50260.02	-128806.7	1	138265.1	-68.68441	-1.064825E-009	0.0143413	5
	49	17	12.40079	63670.98	-157196.3	1	169601.5	-67.95002	-1.14568E-010	0.0143416	5
	50	18	9.93114	78868.13	-185636.5	1	201695.5	-66.98166	-4.53747E-010	0.0143315	5
	51	18	7.944915	98803.3	-218169.5	1	239499.5	-65.63546	-1.263838E-009	0.0143456	5
	52	19	6.317385	125873.3	-255507.4	1	284830	-63.77327	-9.309046E-010	0.0143549	5
	53	20	5.008013	159334	-297425.8	1	337415.8	-61.82161	-6.256381E-010	0.0143422	5
	54	21	3.945707	200911.4	-342870	1	397398.1	-59.631	-3.753529E-010	0.0143361	5
	55	22	3.158693	246094.4	-388348.1	1	459757.2	-57.63775	-1.811748E-010	0.0143501	5
	56	24	2.504006	301305.2	-437197.2	1	530967.3	-55.42638	-4.045657E-010	0.0143483	5
	57	25	1.998082	359374.7	-486957.4	1	605208.8	-53.57266	-4.793853E-010	0.014322	5
	58	27	1.584686	425247.9	-537666.3	1	685507.7	-51.65902	-2.764887E-010	0.0143663	5
	59	29	1.266892	494579.5	-592452.7	1	771757.1	-50.14487	-2.22058E-010	0.0143775	5
	60	31	0.999041	570686.1	-656178.1	1	869627.6	-48.98612	-1.714934E-010	0.0143701	5
