EXPLAIN
TAG	EISPOT
TITLE	LABEL	Potentiostatic EIS	Test &Identifier
DATE	LABEL	1/14/2020	Date
TIME	LABEL	18:51:27	Time
NOTES	NOTES	5	&Notes...
	
	
	
	
	
PSTAT	PSTAT	REF600-11020	Potentiostat
VDC	POTEN	0.00000E+000	T	DC &Voltage (V)
FREQINIT	QUANT	1.00000E+006	Initial Fre&q. (Hz)
FREQFINAL	QUANT	1.00000E+000	Final Fre&q. (Hz)
PTSPERDEC	QUANT	1.00000E+001	Points/&decade
VAC	QUANT	2.50000E+001	AC &Voltage (mV rms)
AREA	QUANT	1.00000E-001	&Area (cm^2)
CONDIT	TWOPARAM	T	5.00000E+000	0.00000E+000	Conditionin&g	Time(s)	E(V)
DELAY	TWOPARAM	T	5.00000E+000	0.00000E+000	Init. De&lay	Time(s)	Stab.(mV/s)
SPEED	SELECTOR	0	&Optimize for:
ZGUESS	QUANT	5.00000E+002	E&stimated Z (ohms)
OCVCURVE	TABLE	19
	Pt	T	Vf	Vm	Ach	Over
	#	s	V vs. Ref.	V	V	bits
	0	0.258333	9.24196E-003	9.24196E-003	6.11447E-004	...........
	1	0.516667	9.24251E-003	9.27109E-003	6.09980E-004	...........
	2	0.775	9.24631E-003	9.31860E-003	6.12680E-004	...........
	3	1.03333	9.25854E-003	9.37592E-003	6.04714E-004	...........
	4	1.29167	9.28416E-003	9.44756E-003	6.03480E-004	...........
	5	1.55	9.32506E-003	9.52279E-003	6.11080E-004	...........
	6	1.80833	9.37994E-003	9.60274E-003	6.09347E-004	...........
	7	2.06667	9.44578E-003	9.68338E-003	6.11547E-004	...........
	8	2.325	9.51917E-003	9.76745E-003	6.12547E-004	...........
	9	2.58333	9.59724E-003	9.84772E-003	6.18580E-004	...........
	10	2.84167	9.67794E-003	9.93292E-003	6.14213E-004	...........
	11	3.1	9.75999E-003	1.00166E-002	6.12713E-004	...........
	12	3.35833	9.84285E-003	1.01012E-002	6.14447E-004	...........
	13	3.61667	9.92635E-003	1.01857E-002	6.12880E-004	...........
	14	3.875	1.00104E-002	1.02713E-002	6.10580E-004	...........
	15	4.13333	1.00947E-002	1.03512E-002	6.12014E-004	...........
	16	4.39167	1.01789E-002	1.04333E-002	6.20013E-004	...........
	17	4.65	1.02624E-002	1.05146E-002	6.18947E-004	...........
	18	4.90833	1.03449E-002	1.05952E-002	6.08914E-004	...........
EOC	QUANT	0.0103449	Open Circuit (V)
PSTATMODEL	IQUANT	4	Pstat Model
PSTATSECTION	LABEL	REF600-11020	Pstat Section
PSTATSERIALNO	LABEL	11020	Pstat Serial Number
CTRLMODE	IQUANT	1	Control Mode
IESTAB	IQUANT	0	I/E Stability
CASPEED	IQUANT	1	Control Amp Speed
CONVENTION	IQUANT	1	Current Convention
ICHRANGE	IQUANT	2	Ich Range
ICHRANGEMODE	TOGGLE	F	Ich Auto Range
ICHOFFSETENABLE	TOGGLE	T	Ich Offset Enable
ICHOFFSET	QUANT	0	Ich Offset (V)
ICHFILTER	IQUANT	3	Ich Filter
VCHRANGE	IQUANT	2	Vch Range
VCHRANGEMODE	TOGGLE	F	Vch Auto Range
VCHOFFSETENABLE	TOGGLE	T	Vch Offset Enable
VCHOFFSET	QUANT	0	Vch Offset (V)
VCHFILTER	IQUANT	3	Vch Filter
ACHRANGE	IQUANT	2	Ach Range
ACHOFFSETENABLE	TOGGLE	F	Ach Offset Enable
ACHOFFSET	QUANT	0	Ach Offset (V)
ACHFILTER	IQUANT	3	Ach Filter
IERANGELOWERLIMIT	IQUANT	1	I/E Range Lower Limit
IERANGEMODE	TOGGLE	F	I/E AutoRange
IERANGE	IQUANT	7	I/E Range
POSFEEDENABLE	TOGGLE	F	Positive Feedback IR Comp
POSFEEDRESISTANCE	QUANT	0	Positive Feedback Resistance (ohm)
ACHSELECT	IQUANT	0	Ach Select
CABLEID	IQUANT	14	Cable ID
DCCALDATE	LABEL	12/22/2019	DC Calibration Date
ACCALDATE	LABEL	12/22/2019	AC Calibration Date
THERMOSELECT	IQUANT	1	Thermo Select
FRAMEWORKVERSION	QUANT	6.33	Framework Version
INSTRUMENTVERSION	LABEL	3.50	Instrument Version
ZCURVE	TABLE
	Pt	Time	Freq	Zreal	Zimag	Zsig	Zmod	Zphz	Idc	Vdc	IERange
	#	s	Hz	ohm	ohm	V	ohm	°	A	V	#
	0	1	1000078	2167.133	-1277.427	1	2515.608	-30.51743	3.635028E-006	0.0116872	8
	1	2	794390.6	2377.038	-1237.954	1	2680.082	-27.51037	3.489916E-007	0.0116949	8
	2	2	630984.4	2581.938	-1178.626	1	2838.232	-24.53618	-2.773473E-006	0.0125456	8
	3	2	501234.4	2759.687	-1113.986	1	2976.044	-21.98215	3.388258E-006	0.0113604	8
	4	2	398109.4	2915.571	-1041.844	1	3096.125	-19.66374	-3.242581E-006	0.0125245	8
	5	3	316265.6	3058.531	-978.661	1	3211.292	-17.74351	1.588051E-006	0.0115793	8
	6	3	251203.1	3184.687	-910.2937	1	3312.23	-15.95177	1.556799E-006	0.0115387	8
	7	3	199546.9	3299.73	-858.3652	1	3409.547	-14.5813	1.294566E-006	0.0115936	8
	8	4	158578.1	3385.251	-818.5303	1	3482.803	-13.59284	-5.01294E-007	0.0120249	8
	9	4	125953.1	3505.195	-767.6447	1	3588.268	-12.35287	-1.748542E-007	0.011788	7
	10	4	100078.1	3591.094	-744.8905	1	3667.536	-11.71852	-3.253486E-008	0.0118853	7
	11	5	79453.13	3682.535	-740.364	1	3756.222	-11.36762	-1.237586E-008	0.0118049	7
	12	5	63140.62	3769.846	-745.3802	1	3842.829	-11.18436	-2.506506E-008	0.0118332	7
	13	5	50203.12	3859.36	-760.0928	1	3933.498	-11.14169	3.026117E-008	0.0117223	7
	14	6	39890.62	3950.298	-782.2075	1	4026.997	-11.20038	-3.218382E-009	0.0117804	7
	15	6	31640.63	4045.725	-813.9277	1	4126.787	-11.37505	2.337275E-008	0.0117893	7
	16	6	25171.88	4143.991	-854.0329	1	4231.079	-11.64502	1.465125E-008	0.0117462	7
	17	7	20015.62	4244.762	-905.0641	1	4340.178	-12.03631	2.909385E-008	0.0117183	7
	18	7	15890.62	4354.5	-962.608	1	4459.629	-12.46537	-2.673405E-008	0.0118316	7
	19	7	12609.37	4467.506	-1034.325	1	4585.677	-13.03555	-2.405089E-008	0.0118338	7
	20	8	10078.13	4582.2	-1116.552	1	4716.274	-13.69448	4.776047E-008	0.0117884	7
	21	8	8015.625	4703.342	-1218.147	1	4858.529	-14.52032	-3.931389E-008	0.0118698	7
	22	8	6328.125	4828.169	-1339.335	1	5010.492	-15.50402	-1.651704E-008	0.0118054	7
	23	8	5015.625	4959.22	-1487.753	1	5177.574	-16.6991	-3.945015E-009	0.0118211	7
	24	9	3984.375	5088.062	-1661.644	1	5352.516	-18.08585	-4.677931E-009	0.0118275	7
	25	9	3170.956	5226.784	-1879.981	1	5554.602	-19.78275	-2.602457E-008	0.0118153	7
	26	9	2527.573	5366.809	-2144.238	1	5779.308	-21.77853	2.331498E-008	0.0117802	7
	27	10	1976.103	5523.082	-2497.897	1	6061.676	-24.33558	1.647499E-008	0.0117405	7
	28	10	1577.524	5665.729	-2906.879	1	6367.922	-27.16071	-2.226496E-008	0.0118202	7
	29	10	1265.625	5828.955	-3402.423	1	6749.311	-30.27256	7.555369E-010	0.0118134	7
	30	11	998.264	6013.783	-4063.334	1	7257.842	-34.04572	9.027044E-008	0.0116635	7
	31	11	796.875	6210.99	-4846.883	1	7878.367	-37.96748	-2.234684E-008	0.0118809	7
	32	11	627.7902	6448.788	-5860.123	1	8713.662	-42.26195	-2.624439E-008	0.0118148	7
	33	12	505.5147	6705.692	-7009.968	1	9700.82	-46.27087	-2.589076E-008	0.0118118	7
	34	12	397.9953	7031.838	-8576.6	1	11090.75	-50.65213	4.707674E-010	0.0118078	6
	35	12	315.5048	7418.398	-10454.34	1	12818.97	-54.6405	5.010057E-010	0.0118061	6
	36	13	252.4038	7867.414	-12672.14	1	14915.74	-58.1662	5.452702E-010	0.0118044	6
	37	13	198.6229	8459.108	-15602.3	1	17747.91	-61.53475	4.462361E-010	0.0118061	6
	38	13	158.3615	9154.106	-19014.11	1	21102.94	-64.29209	5.910614E-010	0.0118041	6
	39	14	125.558	10046.69	-23303.76	1	25377.18	-66.67821	4.829197E-010	0.0118036	6
	40	14	100.4464	11123.74	-28359.58	1	30463.15	-68.58294	9.770591E-011	0.0118033	6
	41	14	79.00281	12577.3	-35029.38	1	37218.89	-70.24933	3.872492E-010	0.0118012	6
	42	15	63.3446	14373.03	-42302.36	1	44677.44	-71.23383	7.221716E-011	0.0118001	6
	43	15	49.86702	16849.88	-52206.48	1	54858.32	-72.11228	-1.256864E-010	0.0118023	6
	44	15	39.72458	19758.51	-63736	1	66728.38	-72.77628	5.058369E-010	0.0118028	6
	45	16	31.6723	23614.39	-77448.44	1	80968.51	-73.0433	6.131819E-010	0.0117989	6
	46	16	24.93351	28837.19	-95216.8	1	99487.8	-73.15063	2.203572E-010	0.0117958	6
	47	16	19.86229	35349.89	-115517.7	1	120805.5	-72.98522	-6.862542E-010	0.011797	5
	48	17	15.83615	43097.32	-139021.8	1	145548.7	-72.77635	-3.161655E-010	0.0117903	5
	49	17	12.40079	55648.05	-170541.5	1	179391	-71.92839	-1.484748E-010	0.0117922	5
	50	17	9.93114	70494.91	-204187.9	1	216014.4	-70.95301	3.540568E-010	0.0117921	5
	51	17	7.944915	88508.81	-243796	1	259365.2	-70.04685	3.950368E-010	0.0117945	5
	52	18	6.317385	113578.1	-290444	1	311861.7	-68.64201	-1.155951E-010	0.0117978	5
	53	19	5.008013	145588.3	-344780	1	374258.2	-67.1074	1.975914E-011	0.0118007	5
	54	20	3.945707	187221.9	-406912.7	1	447917.4	-65.29268	-2.46283E-010	0.0117875	5
	55	21	3.158693	236039.9	-472149.7	1	527863.8	-63.43834	-1.441731E-010	0.0117828	5
	56	23	2.504006	296706.9	-546032.3	1	621438.9	-61.48092	3.496166E-012	0.0117847	5
	57	24	1.998082	365580.4	-620929.3	1	720556.9	-59.51198	-1.889164E-010	0.0117584	5
	58	25	1.584686	446322.1	-706129.4	1	835357.5	-57.70431	-2.403144E-010	0.0117456	5
	59	27	1.266892	531385.6	-791780.9	1	953566	-56.13337	-1.988693E-010	0.0117795	5
	60	30	0.999041	632493	-890818.1	1	1092522	-54.62473	-2.022709E-010	0.011849	4
