EXPLAIN
TAG	EISPOT
TITLE	LABEL	Potentiostatic EIS	Test &Identifier
DATE	LABEL	6/1/2020	Date
TIME	LABEL	14:07:10	Time
NOTES	NOTES	1	&Notes...
	
PSTAT	PSTAT	REF600-11020	Potentiostat
VDC	POTEN	0.00000E+000	T	DC &Voltage (V)
FREQINIT	QUANT	1.00000E+006	Initial Fre&q. (Hz)
FREQFINAL	QUANT	1.00000E+000	Final Fre&q. (Hz)
PTSPERDEC	QUANT	1.00000E+001	Points/&decade
VAC	QUANT	2.50000E+001	AC &Voltage (mV rms)
AREA	QUANT	4.00000E-004	&Area (cm^2)
CONDIT	TWOPARAM	F	5.00000E+000	0.00000E+000	Conditionin&g	Time(s)	E(V)
DELAY	TWOPARAM	T	3.00000E+000	0.00000E+000	Init. De&lay	Time(s)	Stab.(mV/s)
SPEED	SELECTOR	0	&Optimize for:
ZGUESS	QUANT	1.00000E+003	E&stimated Z (ohms)
OCVCURVE	TABLE	12
	Pt	T	Vf	Vm	Ach	Over
	#	s	V vs. Ref.	V	V	bits
	0	0.258333	8.22183E-002	8.22183E-002	6.03563E-004	...........
	1	0.516667	8.22188E-002	8.22399E-002	6.03130E-004	...........
	2	0.775	8.22212E-002	8.22538E-002	6.02196E-004	...........
	3	1.03333	8.22275E-002	8.22626E-002	6.02596E-004	...........
	4	1.29167	8.22375E-002	8.22691E-002	5.98430E-004	...........
	5	1.55	8.22489E-002	8.22740E-002	6.00630E-004	...........
	6	1.80833	8.22590E-002	8.22737E-002	6.02896E-004	...........
	7	2.06667	8.22665E-002	8.22765E-002	6.03763E-004	...........
	8	2.325	8.22713E-002	8.22771E-002	6.01863E-004	...........
	9	2.58333	8.22742E-002	8.22771E-002	6.05430E-004	...........
	10	2.84167	8.22757E-002	8.22744E-002	6.01630E-004	...........
	11	3.1	8.22763E-002	8.22727E-002	6.04896E-004	...........
EOC	QUANT	0.0822763	Open Circuit (V)
PSTATMODEL	IQUANT	4	Pstat Model
PSTATSECTION	LABEL	REF600-11020	Pstat Section
PSTATSERIALNO	LABEL	11020	Pstat Serial Number
CTRLMODE	IQUANT	1	Control Mode
IESTAB	IQUANT	0	I/E Stability
CASPEED	IQUANT	1	Control Amp Speed
CONVENTION	IQUANT	1	Current Convention
ICHRANGE	IQUANT	2	Ich Range
ICHRANGEMODE	TOGGLE	F	Ich Auto Range
ICHOFFSETENABLE	TOGGLE	T	Ich Offset Enable
ICHOFFSET	QUANT	0	Ich Offset (V)
ICHFILTER	IQUANT	3	Ich Filter
VCHRANGE	IQUANT	2	Vch Range
VCHRANGEMODE	TOGGLE	F	Vch Auto Range
VCHOFFSETENABLE	TOGGLE	T	Vch Offset Enable
VCHOFFSET	QUANT	0	Vch Offset (V)
VCHFILTER	IQUANT	3	Vch Filter
ACHRANGE	IQUANT	2	Ach Range
ACHOFFSETENABLE	TOGGLE	F	Ach Offset Enable
ACHOFFSET	QUANT	0	Ach Offset (V)
ACHFILTER	IQUANT	3	Ach Filter
IERANGELOWERLIMIT	IQUANT	1	I/E Range Lower Limit
IERANGEMODE	TOGGLE	F	I/E AutoRange
IERANGE	IQUANT	8	I/E Range
POSFEEDENABLE	TOGGLE	F	Positive Feedback IR Comp
POSFEEDRESISTANCE	QUANT	0	Positive Feedback Resistance (ohm)
ACHSELECT	IQUANT	0	Ach Select
CABLEID	IQUANT	14	Cable ID
DCCALDATE	LABEL	2/27/2020	DC Calibration Date
ACCALDATE	LABEL	2/27/2020	AC Calibration Date
THERMOSELECT	IQUANT	1	Thermo Select
FRAMEWORKVERSION	QUANT	6.33	Framework Version
INSTRUMENTVERSION	LABEL	3.50	Instrument Version
ZCURVE	TABLE
	Pt	Time	Freq	Zreal	Zimag	Zsig	Zmod	Zphz	Idc	Vdc	IERange
	#	s	Hz	ohm	ohm	V	ohm	°	A	V	#
	0	1	1000078	1463.208	-701.6362	1	1622.736	-25.6186	1.006323E-007	0.0845	8
	1	1	794390.6	1569.783	-701.8627	1	1719.544	-24.08981	1.380106E-008	0.0842558	8
	2	1	630984.4	1674.548	-701.0237	1	1815.364	-22.71587	2.547424E-008	0.084118	8
	3	2	501234.4	1777.436	-700.7182	1	1910.571	-21.51584	4.776765E-008	0.0840025	8
	4	2	398109.4	1879.042	-700.2693	1	2005.287	-20.4391	4.755695E-008	0.0839628	8
	5	2	316265.6	1978.629	-700.4479	1	2098.952	-19.4943	4.434118E-008	0.0839291	8
	6	3	251203.1	2074.785	-700.5316	1	2189.858	-18.65677	3.891223E-008	0.0839202	8
	7	3	199546.9	2169.283	-705.8729	1	2281.237	-18.02461	3.668589E-008	0.0839381	8
	8	3	158578.1	2265.232	-715.8708	1	2375.657	-17.53786	5.693632E-008	0.0839393	8
	9	3	125953.1	2383.596	-685.1028	1	2480.1	-16.03592	2.034672E-009	0.0838815	7
	10	4	100078.1	2468.295	-703.6535	1	2566.634	-15.91162	4.348507E-009	0.0838629	7
	11	4	79453.13	2557.577	-737.8293	1	2661.877	-16.0922	2.384233E-009	0.0838488	7
	12	4	63140.62	2649.076	-777.9887	1	2760.954	-16.36662	2.754499E-009	0.0838511	7
	13	5	50203.12	2743.005	-824.2159	1	2864.159	-16.72443	2.082404E-009	0.0838431	7
	14	5	39890.62	2839.814	-879.6915	1	2972.945	-17.21145	2.115255E-009	0.0838477	7
	15	5	31640.63	2938.679	-946.9739	1	3087.49	-17.86126	2.041829E-009	0.0838486	7
	16	6	25171.88	3039.681	-1028.855	1	3209.082	-18.69966	1.102612E-009	0.0838432	7
	17	6	20015.62	3145.021	-1130.579	1	3342.061	-19.77261	3.202904E-009	0.0838408	7
	18	6	15890.62	3254.945	-1255.391	1	3488.649	-21.091	3.40138E-009	0.0838477	7
	19	7	12609.37	3373.665	-1410	1	3656.462	-22.68216	1.949645E-009	0.083836	7
	20	7	10078.13	3499.365	-1595.085	1	3845.758	-24.5045	2.377829E-009	0.0838425	7
	21	7	8015.625	3641.99	-1825.173	1	4073.739	-26.61761	1.965272E-009	0.0838415	7
	22	8	6328.125	3812.072	-2113.326	1	4358.674	-29.00299	1.313647E-009	0.0838353	7
	23	8	5015.625	4010.341	-2457.319	1	4703.324	-31.4977	1.663702E-009	0.0838368	7
	24	8	3984.375	4247.69	-2868.167	1	5125.354	-34.02839	1.940372E-009	0.0838389	7
	25	8	3170.956	4535.808	-3341.998	1	5634.049	-36.38291	6.683831E-010	0.0838263	7
	26	9	2527.573	4890.29	-3893.793	1	6251.125	-38.52784	1.334094E-009	0.0838293	7
	27	9	1976.103	5370.382	-4581.277	1	7058.973	-40.46628	1.277948E-009	0.0838278	7
	28	9	1577.524	5912.363	-5284.802	1	7930.017	-41.79213	3.672497E-009	0.0838417	7
	29	10	1265.625	6550.821	-6028.679	1	8902.709	-42.62317	3.839085E-009	0.0838378	7
	30	10	998.264	7373.399	-6868.145	1	10076.63	-42.96814	9.249361E-011	0.0838905	6
	31	10	796.875	8244.244	-7716.331	1	11292	-43.10557	4.145631E-010	0.0838849	6
	32	11	627.7902	9247.057	-8653.229	1	12664.38	-43.09995	2.932111E-010	0.0838897	6
	33	11	505.5147	10186.16	-9562.54	1	13971.4	-43.19134	4.498686E-010	0.0838817	6
	34	11	397.9953	11240.77	-10682.42	1	15507.06	-43.54108	3.284469E-010	0.083902	6
	35	12	315.5048	12232.79	-11960.59	1	17108.38	-44.35539	2.492822E-010	0.0838974	6
	36	12	252.4038	13163.08	-13464.58	1	18829.81	-45.6487	1.910666E-010	0.0838944	6
	37	12	198.6229	14153.27	-15494.83	1	20985.83	-47.59084	1.940082E-010	0.0838962	6
	38	13	158.3615	15113.82	-17926.99	1	23447.91	-49.86655	7.114699E-011	0.0838911	6
	39	13	125.558	16176.96	-21073.23	1	26566.43	-52.48818	7.011906E-011	0.0838964	6
	40	13	100.4464	17318.43	-24852.73	1	30291.69	-55.12958	-6.255127E-011	0.0838954	6
	41	14	79.00281	18753.15	-29928.04	1	35318.11	-57.92842	-3.717953E-011	0.0838883	6
	42	14	63.3446	20354.42	-35707.79	1	41101.68	-60.31567	-9.135923E-011	0.083889	6
	43	14	49.86702	22492.01	-43398.84	1	48880.97	-62.60396	-2.96376E-011	0.0838899	6
	44	15	39.72458	25048.06	-52369.17	1	58051.14	-64.43832	1.119677E-010	0.0838914	6
	45	15	31.6723	28241.75	-63196.83	1	69220.2	-65.92082	-9.227012E-011	0.083887	6
	46	15	24.93351	32562.29	-77071.91	1	83668.28	-67.09631	4.566668E-010	0.0838878	6
	47	16	19.86229	37802.85	-93076.7	1	100460.6	-67.8956	8.827687E-010	0.0838958	6
	48	16	15.83615	44484.23	-112109.9	1	120612.9	-68.35725	-6.566139E-010	0.0838977	5
	49	16	12.40079	53784.91	-136716.5	1	146915.7	-68.5251	-7.193503E-011	0.0838947	5
	50	16	9.93114	64638.86	-163444.9	1	175762.4	-68.42229	-3.120349E-010	0.083896	5
	51	17	7.944915	78330.61	-194834.7	1	209991.1	-68.09809	-2.495252E-010	0.0838977	5
	52	17	6.317385	96217	-232445.5	1	251572.3	-67.5137	-5.043537E-011	0.0838909	5
	53	18	5.008013	119230.2	-277008.7	1	301578.7	-66.71196	-1.932764E-010	0.0838828	5
	54	19	3.945707	149039.6	-329967.8	1	362065.7	-65.6923	-1.663795E-010	0.083889	5
	55	20	3.158693	183147.6	-385932	1	427184.4	-64.61288	-1.469951E-010	0.0838764	5
	56	21	2.504006	227309	-452019	1	505955.1	-63.30333	1.344605E-010	0.0838793	5
	57	22	1.998082	277615.8	-522877.8	1	592006.4	-62.03446	4.486053E-011	0.0838788	5
	58	24	1.584686	341611	-604915.8	1	694709.4	-60.5455	-3.953941E-011	0.0838361	5
	59	26	1.266892	411627.5	-693321.1	1	806307.2	-59.30223	-3.522486E-011	0.0838482	5
	60	28	0.999041	496925.5	-795202.8	1	937700.6	-57.99857	-3.640221E-011	0.0838682	5
