EXPLAIN
TAG	EISPOT
TITLE	LABEL	Potentiostatic EIS	Test &Identifier
DATE	LABEL	2/21/2020	Date
TIME	LABEL	16:02:59	Time
NOTES	NOTES	1	&Notes...
	
PSTAT	PSTAT	REF600-11020	Potentiostat
VDC	POTEN	0.00000E+000	T	DC &Voltage (V)
FREQINIT	QUANT	1.00000E+006	Initial Fre&q. (Hz)
FREQFINAL	QUANT	1.00000E+000	Final Fre&q. (Hz)
PTSPERDEC	QUANT	1.00000E+001	Points/&decade
VAC	QUANT	2.50000E+001	AC &Voltage (mV rms)
AREA	QUANT	2.08200E-005	&Area (cm^2)
CONDIT	TWOPARAM	F	1.50000E+001	0.00000E+000	Conditionin&g	Time(s)	E(V)
DELAY	TWOPARAM	F	1.00000E+002	0.00000E+000	Init. De&lay	Time(s)	Stab.(mV/s)
SPEED	SELECTOR	1	&Optimize for:
ZGUESS	QUANT	2.00000E+003	E&stimated Z (ohms)
OCVCURVE	TABLE	39
	Pt	T	Vf	Vm	Ach	Over
	#	s	V vs. Ref.	V	V	bits
	0	0.258333	6.40007E-002	6.40007E-002	5.53071E-004	...........
	1	0.516667	6.40014E-002	6.40358E-002	5.50205E-004	...........
	2	0.775	6.40058E-002	6.40841E-002	5.46005E-004	...........
	3	1.03333	6.40189E-002	6.41135E-002	5.46038E-004	...........
	4	1.29167	6.40432E-002	6.41666E-002	5.50805E-004	...........
	5	1.55	6.40769E-002	6.42041E-002	5.50871E-004	...........
	6	1.80833	6.41162E-002	6.42369E-002	5.50071E-004	...........
	7	2.06667	6.41570E-002	6.42637E-002	5.55838E-004	...........
	8	2.325	6.41957E-002	6.42954E-002	5.52771E-004	...........
	9	2.58333	6.42302E-002	6.42990E-002	5.52638E-004	...........
	10	2.84167	6.42595E-002	6.43247E-002	5.52004E-004	...........
	11	3.1	6.42838E-002	6.43538E-002	5.46271E-004	...........
	12	3.35833	6.43053E-002	6.43772E-002	5.46905E-004	...........
	13	3.61667	6.43272E-002	6.44035E-002	5.53171E-004	...........
	14	3.875	6.43507E-002	6.44255E-002	5.49005E-004	...........
	15	4.13333	6.43752E-002	6.44467E-002	5.48271E-004	...........
	16	4.39167	6.43994E-002	6.44643E-002	5.48805E-004	...........
	17	4.65	6.44222E-002	6.44857E-002	5.49071E-004	...........
	18	4.90833	6.44436E-002	6.45058E-002	5.48871E-004	...........
	19	5.16667	6.44639E-002	6.45205E-002	5.49271E-004	...........
	20	5.425	6.44834E-002	6.45348E-002	5.49171E-004	...........
	21	5.68333	6.45017E-002	6.45519E-002	5.56938E-004	...........
	22	5.94167	6.45187E-002	6.45694E-002	5.54504E-004	...........
	23	6.2	6.45350E-002	6.45860E-002	5.52971E-004	...........
	24	6.45833	6.45512E-002	6.45999E-002	5.53271E-004	...........
	25	6.71667	6.45674E-002	6.46110E-002	5.51538E-004	...........
	26	6.975	6.45830E-002	6.46257E-002	5.50538E-004	...........
	27	7.23333	6.45973E-002	6.46315E-002	5.56804E-004	...........
	28	7.49167	6.46099E-002	6.46251E-002	5.55605E-004	...........
	29	7.75	6.46190E-002	6.46003E-002	5.61171E-004	...........
	30	8.00833	6.46214E-002	6.45731E-002	5.53005E-004	...........
	31	8.26667	6.46149E-002	6.45740E-002	5.52871E-004	...........
	32	8.525	6.46023E-002	6.45964E-002	5.50671E-004	...........
	33	8.78333	6.45916E-002	6.46250E-002	5.52004E-004	...........
	34	9.04167	6.45903E-002	6.46377E-002	5.53671E-004	...........
	35	9.3	6.45999E-002	6.46465E-002	5.50338E-004	...........
	36	9.5583	6.46154E-002	6.46552E-002	5.53871E-004	...........
	37	9.8167	6.46310E-002	6.46602E-002	5.52671E-004	...........
	38	10.075	6.46435E-002	6.46656E-002	5.57371E-004	...........
EOC	QUANT	0.0646435	Open Circuit (V)
PSTATMODEL	IQUANT	4	Pstat Model
PSTATSECTION	LABEL	REF600-11020	Pstat Section
PSTATSERIALNO	LABEL	11020	Pstat Serial Number
CTRLMODE	IQUANT	1	Control Mode
IESTAB	IQUANT	0	I/E Stability
CASPEED	IQUANT	1	Control Amp Speed
CONVENTION	IQUANT	1	Current Convention
ICHRANGE	IQUANT	2	Ich Range
ICHRANGEMODE	TOGGLE	F	Ich Auto Range
ICHOFFSETENABLE	TOGGLE	T	Ich Offset Enable
ICHOFFSET	QUANT	0	Ich Offset (V)
ICHFILTER	IQUANT	3	Ich Filter
VCHRANGE	IQUANT	2	Vch Range
VCHRANGEMODE	TOGGLE	F	Vch Auto Range
VCHOFFSETENABLE	TOGGLE	T	Vch Offset Enable
VCHOFFSET	QUANT	0	Vch Offset (V)
VCHFILTER	IQUANT	3	Vch Filter
ACHRANGE	IQUANT	2	Ach Range
ACHOFFSETENABLE	TOGGLE	F	Ach Offset Enable
ACHOFFSET	QUANT	0	Ach Offset (V)
ACHFILTER	IQUANT	3	Ach Filter
IERANGELOWERLIMIT	IQUANT	1	I/E Range Lower Limit
IERANGEMODE	TOGGLE	F	I/E AutoRange
IERANGE	IQUANT	7	I/E Range
POSFEEDENABLE	TOGGLE	F	Positive Feedback IR Comp
POSFEEDRESISTANCE	QUANT	0	Positive Feedback Resistance (ohm)
ACHSELECT	IQUANT	0	Ach Select
CABLEID	IQUANT	14	Cable ID
DCCALDATE	LABEL	1/27/2020	DC Calibration Date
ACCALDATE	LABEL	1/27/2020	AC Calibration Date
THERMOSELECT	IQUANT	1	Thermo Select
FRAMEWORKVERSION	QUANT	6.33	Framework Version
INSTRUMENTVERSION	LABEL	3.50	Instrument Version
ZCURVE	TABLE
	Pt	Time	Freq	Zreal	Zimag	Zsig	Zmod	Zphz	Idc	Vdc	IERange
	#	s	Hz	ohm	ohm	V	ohm	°	A	V	#
	0	1	1000078	1713.154	-1429.138	1	2230.993	-39.83536	-8.230443E-007	0.0667851	8
	1	2	794390.6	1937.499	-1479.791	1	2437.967	-37.37126	2.627264E-007	0.0666077	8
	2	4	630984.4	2168.519	-1522.637	1	2649.697	-35.07481	-1.120798E-006	0.0667932	8
	3	5	501234.4	2401.704	-1569.823	1	2869.238	-33.16978	2.716754E-007	0.066349	8
	4	6	398109.4	2622.41	-1612.078	1	3078.283	-31.58036	-1.169989E-006	0.0665843	8
	5	8	316265.6	2851.049	-1659.297	1	3298.75	-30.19921	-8.690168E-007	0.0665713	8
	6	9	251203.1	3092.94	-1718.109	1	3538.104	-29.0519	4.169524E-008	0.0662728	8
	7	10	199546.9	3345.119	-1794.165	1	3795.899	-28.20702	1.976101E-006	0.0658954	8
	8	12	158578.1	3595.171	-1867.563	1	4051.302	-27.45026	-1.09826E-006	0.0664472	8
	9	13	125953.1	3893.345	-1933.356	1	4346.953	-26.40806	-7.636656E-008	0.0664045	7
	10	14	100078.1	4182.607	-2011.098	1	4640.982	-25.67936	5.665616E-009	0.0662312	7
	11	16	79453.13	4499.059	-2101.284	1	4965.574	-25.03491	-1.765007E-008	0.0662679	7
	12	17	63140.62	4843.485	-2182.943	1	5312.682	-24.26093	-2.247994E-009	0.0662866	7
	13	18	50203.12	5209.562	-2242.416	1	5671.681	-23.28909	5.299079E-008	0.0661578	7
	14	19	39890.62	5593.634	-2276.162	1	6039.011	-22.1424	9.694268E-009	0.0662401	7
	15	21	31640.63	5992.415	-2278.83	1	6411.092	-20.82109	5.350658E-008	0.0661822	7
	16	22	25171.88	6382.421	-2247.337	1	6766.522	-19.39786	5.423324E-008	0.0661806	7
	17	23	20015.62	6755.911	-2180.634	1	7099.119	-17.88874	7.167497E-010	0.06628	7
	18	25	15890.62	7103.504	-2086.313	1	7403.545	-16.36762	1.056872E-008	0.0662325	7
	19	26	12609.37	7421.898	-1980.966	1	7681.718	-14.94434	-6.7828E-009	0.0662476	7
	20	28	10078.13	7693.832	-1872.244	1	7918.354	-13.67673	4.084718E-010	0.0662691	7
	21	29	8015.625	7932.555	-1763.881	1	8126.297	-12.53632	1.326109E-009	0.0662709	7
	22	31	6328.125	8152.695	-1672	1	8322.381	-11.58983	-1.104048E-008	0.0662645	7
	23	33	5015.625	8337.848	-1604.836	1	8490.89	-10.89483	5.460307E-008	0.0661733	7
	24	34	3984.375	8487.104	-1565.178	1	8630.221	-10.44899	-9.268292E-009	0.0662479	7
	25	36	3170.956	8625.387	-1564.171	1	8766.066	-10.2786	5.495015E-008	0.0661466	7
	26	37	2527.573	8743.409	-1600.463	1	8888.683	-10.37304	1.17655E-008	0.0662259	7
	27	39	1976.103	8872.102	-1689.318	1	9031.499	-10.78052	-2.860367E-009	0.0662669	6
	28	40	1577.524	8982.788	-1832.884	1	9167.876	-11.53255	-4.649809E-010	0.0662721	6
	29	42	1265.625	9085.377	-2029.298	1	9309.249	-12.59084	-3.107978E-009	0.0662417	6
	30	44	998.264	9206.064	-2317.96	1	9493.396	-14.13253	5.167611E-009	0.0661913	6
	31	45	796.875	9336.973	-2675.161	1	9712.65	-15.98768	4.598947E-009	0.0662061	6
	32	46	627.7902	9489.7	-3157.932	1	10001.35	-18.40614	-1.0087E-009	0.0662625	6
	33	48	505.5147	9651	-3703.485	1	10337.2	-20.99386	-1.319766E-009	0.0662649	6
	34	49	397.9953	9855.74	-4450.167	1	10813.86	-24.30062	2.064952E-009	0.0662416	6
	35	50	315.5048	10107.72	-5349.588	1	11436.09	-27.89037	1.921034E-009	0.066241	6
	36	52	252.4038	10399.22	-6407.896	1	12214.95	-31.64095	1.116002E-009	0.066234	6
	37	53	198.6229	10777.22	-7801.573	1	13304.62	-35.90059	1.514489E-009	0.0662398	6
	38	54	158.3615	11228.06	-9414.179	1	14652.51	-39.97819	1.733431E-009	0.0662353	6
	39	55	125.558	11816.18	-11421.97	1	16434.22	-44.02813	1.323708E-009	0.0662394	6
	40	57	100.4464	12518.7	-13750	1	18595.17	-47.68368	1.583641E-009	0.0662388	6
	41	58	79.00281	13516.63	-16786.99	1	21552.31	-51.15951	1.771948E-009	0.0662411	6
	42	59	63.3446	14604.33	-20219.45	1	24942.18	-54.15976	7.069639E-010	0.0662392	6
	43	61	49.86702	16279.42	-24452.38	1	29375.81	-56.34591	1.57387E-009	0.0662369	6
	44	62	39.72458	18237.74	-29445.03	1	34635.6	-58.22665	1.621732E-009	0.0662408	6
	45	64	31.6723	20796.14	-35236.76	1	40915.87	-59.45162	1.339186E-009	0.0662364	6
	46	65	24.93351	24171.69	-42389.59	1	48797.01	-60.30704	7.360309E-010	0.0662342	6
	47	66	19.86229	28285.29	-50254.48	1	57667.76	-60.6274	1.282821E-009	0.0662423	6
	48	67	15.83615	33251.56	-59224.3	1	67920.42	-60.68791	5.15925E-010	0.0662376	6
	49	69	12.40079	40112.13	-70121.09	1	80783.35	-60.22868	2.347422E-009	0.0662344	6
	50	70	9.93114	47438.1	-81468.63	1	94273.6	-59.78833	1.492796E-009	0.0662304	6
	51	72	7.944915	56060.91	-93839.58	1	109310.1	-59.14539	-7.901689E-010	0.0662333	5
	52	73	6.317385	66035.38	-108085	1	126661.1	-58.57682	-3.754143E-010	0.0662244	5
	53	75	5.008013	77522.26	-124678.4	1	146814.2	-58.12757	5.578779E-010	0.0662453	5
	54	78	3.945707	90543.52	-143980.1	1	170083.5	-57.83579	-4.772521E-011	0.0662315	5
	55	80	3.158693	103545.1	-164970.4	1	194773.8	-57.8852	4.355472E-010	0.0662555	5
	56	83	2.504006	118615.2	-190623.9	1	224515.1	-58.10818	-3.034963E-010	0.0662392	5
	57	86	1.998082	134506.5	-219930	1	257800.7	-58.55055	1.094126E-010	0.0661877	5
	58	89	1.584686	151761.1	-256315.1	1	297873.9	-59.37074	5.646524E-011	0.0662276	5
	59	93	1.266892	171696.1	-298785.8	1	344604.9	-60.11634	1.650866E-010	0.06619	5
	60	97	0.999041	194974.7	-353239.6	1	403476.6	-61.10299	1.074013E-010	0.0662742	5
