EXPLAIN
TAG	EISPOT
TITLE	LABEL	Potentiostatic EIS	Test &Identifier
DATE	LABEL	2/11/2020	Date
TIME	LABEL	12:26:21	Time
NOTES	NOTES	6	&Notes...
	
	
	
	
	
	
PSTAT	PSTAT	REF600-11020	Potentiostat
VDC	POTEN	0.00000E+000	T	DC &Voltage (V)
FREQINIT	QUANT	1.00000E+006	Initial Fre&q. (Hz)
FREQFINAL	QUANT	1.00000E+000	Final Fre&q. (Hz)
PTSPERDEC	QUANT	1.00000E+001	Points/&decade
VAC	QUANT	2.50000E+001	AC &Voltage (mV rms)
AREA	QUANT	4.00000E-005	&Area (cm^2)
CONDIT	TWOPARAM	F	5.00000E+000	0.00000E+000	Conditionin&g	Time(s)	E(V)
DELAY	TWOPARAM	F	5.00000E+000	0.00000E+000	Init. De&lay	Time(s)	Stab.(mV/s)
SPEED	SELECTOR	0	&Optimize for:
ZGUESS	QUANT	1.00000E+003	E&stimated Z (ohms)
OCVCURVE	TABLE	39
	Pt	T	Vf	Vm	Ach	Over
	#	s	V vs. Ref.	V	V	bits
	0	0.258333	4.63181E-002	4.63181E-002	5.75137E-004	...........
	1	0.516667	4.63210E-002	4.64726E-002	5.78904E-004	...........
	2	0.775	4.63378E-002	4.65501E-002	5.79837E-004	...........
	3	1.03333	4.63794E-002	4.65413E-002	5.82937E-004	...........
	4	1.29167	4.64398E-002	4.66073E-002	5.78504E-004	...........
	5	1.55	4.65005E-002	4.66061E-002	5.75804E-004	...........
	6	1.80833	4.65496E-002	4.66563E-002	5.79871E-004	...........
	7	2.06667	4.65877E-002	4.66973E-002	5.82471E-004	...........
	8	2.325	4.66214E-002	4.67424E-002	5.84471E-004	...........
	9	2.58333	4.66563E-002	4.67617E-002	5.86137E-004	...........
	10	2.84167	4.66927E-002	4.67775E-002	5.88637E-004	...........
	11	3.1	4.67265E-002	4.67998E-002	5.87004E-004	...........
	12	3.35833	4.67547E-002	4.68205E-002	5.87204E-004	...........
	13	3.61667	4.67779E-002	4.68350E-002	5.87604E-004	...........
	14	3.875	4.67981E-002	4.68475E-002	5.85071E-004	...........
	15	4.13333	4.68161E-002	4.68603E-002	5.86937E-004	...........
	16	4.39167	4.68319E-002	4.68689E-002	5.82704E-004	...........
	17	4.65	4.68455E-002	4.68687E-002	5.85671E-004	...........
	18	4.90833	4.68565E-002	4.68819E-002	5.88837E-004	...........
	19	5.16667	4.68662E-002	4.69389E-002	5.89404E-004	...........
	20	5.425	4.68783E-002	4.69252E-002	5.83471E-004	...........
	21	5.68333	4.68942E-002	4.69052E-002	5.89704E-004	...........
	22	5.94167	4.69079E-002	4.68879E-002	5.84004E-004	...........
	23	6.2	4.69118E-002	4.68636E-002	5.80037E-004	...........
	24	6.45833	4.69049E-002	4.68925E-002	5.84071E-004	...........
	25	6.71667	4.68939E-002	4.68911E-002	5.82404E-004	...........
	26	6.975	4.68872E-002	4.69117E-002	5.81571E-004	...........
	27	7.23333	4.68884E-002	4.69273E-002	5.78571E-004	...........
	28	7.49167	4.68969E-002	4.69451E-002	5.76338E-004	...........
	29	7.75	4.69100E-002	4.69519E-002	5.76071E-004	...........
	30	8.00833	4.69249E-002	4.69649E-002	5.75171E-004	...........
	31	8.26667	4.69391E-002	4.69747E-002	5.79204E-004	...........
	32	8.525	4.69518E-002	4.69828E-002	5.79471E-004	...........
	33	8.78333	4.69629E-002	4.69843E-002	5.77037E-004	...........
	34	9.04167	4.69721E-002	4.69915E-002	5.82137E-004	...........
	35	9.3	4.69794E-002	4.69934E-002	5.78204E-004	...........
	36	9.5583	4.69851E-002	4.69980E-002	5.85304E-004	...........
	37	9.8167	4.69897E-002	4.69981E-002	5.81604E-004	...........
	38	10.075	4.69933E-002	4.69980E-002	5.84171E-004	...........
EOC	QUANT	0.0469933	Open Circuit (V)
PSTATMODEL	IQUANT	4	Pstat Model
PSTATSECTION	LABEL	REF600-11020	Pstat Section
PSTATSERIALNO	LABEL	11020	Pstat Serial Number
CTRLMODE	IQUANT	1	Control Mode
IESTAB	IQUANT	0	I/E Stability
CASPEED	IQUANT	1	Control Amp Speed
CONVENTION	IQUANT	1	Current Convention
ICHRANGE	IQUANT	2	Ich Range
ICHRANGEMODE	TOGGLE	F	Ich Auto Range
ICHOFFSETENABLE	TOGGLE	T	Ich Offset Enable
ICHOFFSET	QUANT	0	Ich Offset (V)
ICHFILTER	IQUANT	3	Ich Filter
VCHRANGE	IQUANT	2	Vch Range
VCHRANGEMODE	TOGGLE	F	Vch Auto Range
VCHOFFSETENABLE	TOGGLE	T	Vch Offset Enable
VCHOFFSET	QUANT	0	Vch Offset (V)
VCHFILTER	IQUANT	3	Vch Filter
ACHRANGE	IQUANT	2	Ach Range
ACHOFFSETENABLE	TOGGLE	F	Ach Offset Enable
ACHOFFSET	QUANT	0	Ach Offset (V)
ACHFILTER	IQUANT	3	Ach Filter
IERANGELOWERLIMIT	IQUANT	1	I/E Range Lower Limit
IERANGEMODE	TOGGLE	F	I/E AutoRange
IERANGE	IQUANT	7	I/E Range
POSFEEDENABLE	TOGGLE	F	Positive Feedback IR Comp
POSFEEDRESISTANCE	QUANT	0	Positive Feedback Resistance (ohm)
ACHSELECT	IQUANT	0	Ach Select
CABLEID	IQUANT	14	Cable ID
DCCALDATE	LABEL	1/27/2020	DC Calibration Date
ACCALDATE	LABEL	1/27/2020	AC Calibration Date
THERMOSELECT	IQUANT	1	Thermo Select
FRAMEWORKVERSION	QUANT	6.33	Framework Version
INSTRUMENTVERSION	LABEL	3.50	Instrument Version
ZCURVE	TABLE
	Pt	Time	Freq	Zreal	Zimag	Zsig	Zmod	Zphz	Idc	Vdc	IERange
	#	s	Hz	ohm	ohm	V	ohm	°	A	V	#
	0	2	1000078	1766.56	-2242.013	1	2854.357	-51.7642	3.169074E-006	0.0486721	8
	1	2	794390.6	2078.829	-2507.096	1	3256.848	-50.33522	-2.630736E-006	0.0493626	8
	2	2	630984.4	2403.928	-2760.835	1	3660.749	-48.95309	2.737509E-006	0.0484096	8
	3	2	501234.4	2758.041	-3066.166	1	4124.095	-48.02837	-3.737614E-006	0.0493747	8
	4	3	398109.4	3133.976	-3408.858	1	4630.563	-47.40573	2.526155E-006	0.0480492	8
	5	3	316265.6	3556.501	-3745.782	1	5165.229	-46.48482	3.696001E-007	0.0487089	8
	6	3	251203.1	4063.756	-4220.806	1	5859.123	-46.08602	5.392358E-007	0.0486815	8
	7	4	199546.9	4669.546	-4713.197	1	6634.673	-45.26655	4.196776E-006	0.0478509	8
	8	4	158578.1	5282.509	-5235.626	1	7437.519	-44.74461	-1.223844E-006	0.0487659	8
	9	4	125953.1	6194.176	-5806.293	1	8490.045	-43.14872	1.532027E-007	0.0482563	7
	10	5	100078.1	7108.925	-6359.239	1	9538.17	-41.814	7.593745E-008	0.0485096	7
	11	5	79453.13	8173.182	-6926.936	1	10713.7	-40.28194	-6.097103E-008	0.0486249	7
	12	5	63140.62	9385.297	-7421.431	1	11965.01	-38.33521	-6.056678E-008	0.0486248	7
	13	6	50203.12	10732.66	-7819.678	1	13279.21	-36.0766	-4.089988E-008	0.0485599	7
	14	6	39890.62	12151.9	-8096.522	1	14602.14	-33.67457	-6.052817E-008	0.0486182	7
	15	6	31640.63	13646.15	-8204.739	1	15922.79	-31.01636	8.097908E-008	0.0483597	7
	16	7	25171.88	15097.54	-8166.636	1	17164.78	-28.41007	-3.1485E-008	0.0485601	7
	17	7	20015.62	16525.18	-8023.362	1	18369.97	-25.89766	1.315516E-007	0.048333	7
	18	7	15890.62	17843.65	-7718.204	1	19441.36	-23.39071	-5.984793E-008	0.0486149	7
	19	8	12609.37	19172.94	-7244.896	1	20496.1	-20.70012	-4.525892E-009	0.048677	6
	20	8	10078.13	20227.15	-6886.572	1	21367.32	-18.80175	7.504699E-009	0.0483521	6
	21	8	8015.625	21205.41	-6513.936	1	22183.34	-17.07606	5.059546E-009	0.048336	6
	22	9	6328.125	22110.2	-6138.356	1	22946.46	-15.51602	-8.244334E-009	0.0486421	6
	23	9	5015.625	22910.38	-5808.122	1	23635.14	-14.22563	3.305729E-009	0.0485755	6
	24	9	3984.375	23626.33	-5534.677	1	24265.95	-13.1843	2.671744E-009	0.0484317	6
	25	10	3170.956	24273.15	-5318.458	1	24848.98	-12.3587	-8.627652E-010	0.0485116	6
	26	10	2527.573	24860.82	-5183.583	1	25395.47	-11.77766	-1.722875E-009	0.0484704	6
	27	10	1976.103	25392.05	-5112.027	1	25901.53	-11.38285	4.857491E-009	0.0483296	6
	28	11	1577.524	25876.99	-5160.343	1	26386.51	-11.27788	-2.49516E-009	0.0486396	6
	29	11	1265.625	26341.33	-5297.667	1	26868.77	-11.37141	-4.02114E-009	0.0485826	6
	30	11	998.264	26820.56	-5583.689	1	27395.62	-11.76025	-1.735967E-009	0.0486377	6
	31	11	796.875	27263.73	-5984.528	1	27912.82	-12.38037	-6.034835E-009	0.0485411	6
	32	12	627.7902	27718.46	-6598.11	1	28492.95	-13.38952	-5.77016E-009	0.0485426	6
	33	12	505.5147	28168.79	-7349.494	1	29111.78	-14.623	7.050895E-009	0.0483364	6
	34	12	397.9953	28690.24	-8433.328	1	29904.03	-16.38039	7.005402E-010	0.0485193	6
	35	13	315.5048	29263.31	-9768.84	1	30850.8	-18.46033	1.533479E-009	0.0485165	6
	36	13	252.4038	29895.81	-11372.04	1	31985.67	-20.82627	1.341422E-009	0.0485163	6
	37	13	198.6229	30757.63	-13511.54	1	33594.54	-23.71545	9.775094E-010	0.0485148	6
	38	14	158.3615	31728.42	-15981.61	1	35526.11	-26.7344	1.493E-009	0.0485122	6
	39	14	125.558	32925.75	-19048.55	1	38038.82	-30.05069	9.995383E-010	0.0485117	6
	40	14	100.4464	34398.89	-22504.99	1	41106.67	-33.19416	1.497525E-010	0.0485095	6
	41	15	79.00281	36525.24	-27045.97	1	45448.63	-36.51897	-5.62615E-012	0.0485079	6
	42	15	63.3446	38197.47	-32095.57	1	49891.61	-40.03879	8.12291E-010	0.048505	6
	43	15	49.86702	41568.29	-37990.08	1	56313.13	-42.4248	6.905549E-010	0.0485028	6
	44	16	39.72458	45642.96	-44879.76	1	64011.5	-44.51695	5.852696E-010	0.0485072	6
	45	16	31.6723	50468.43	-52478.46	1	72808.31	-46.11855	1.346896E-009	0.0485043	6
	46	16	24.93351	56184.99	-61684.23	1	83436.78	-47.67122	-2.7526E-010	0.0484991	6
	47	17	19.86229	62736.61	-71494.7	1	95117.7	-48.73304	-1.212301E-009	0.0484967	6
	48	17	15.83615	70137.69	-82768.38	1	108489.2	-49.72216	3.78618E-010	0.0485011	5
	49	17	12.40079	80853.16	-96040.8	1	125543.1	-49.90723	-1.6928E-010	0.0485048	5
	50	18	9.93114	90217.52	-109919.6	1	142202.4	-50.62226	-8.34989E-012	0.0485004	5
	51	18	7.944915	101304.7	-125586	1	161352	-51.10841	-1.075334E-009	0.0485128	5
	52	19	6.317385	114535.9	-143950.7	1	183957.2	-51.49212	-6.150735E-010	0.0485188	5
	53	20	5.008013	129582.2	-165668.1	1	210327	-51.96822	-2.113801E-010	0.0485073	5
	54	21	3.945707	146832.5	-191518.3	1	241327.7	-52.52348	-3.966568E-011	0.0484956	5
	55	22	3.158693	165511.5	-220357.5	1	275592.9	-53.08963	3.002011E-010	0.0485013	5
	56	24	2.504006	187813.4	-254802.7	1	316541.1	-53.60632	1.374131E-010	0.0485023	5
	57	25	1.998082	213383.4	-294291.6	1	363510.7	-54.05508	-1.03824E-010	0.0484613	5
	58	27	1.584686	243063.8	-340426.2	1	418294.1	-54.47322	4.608747E-011	0.0485026	5
	59	29	1.266892	278241.9	-391950.8	1	480670.4	-54.62944	1.51652E-010	0.04853	5
	60	31	0.999041	321346.8	-455891.6	1	557764.2	-54.82093	1.767299E-010	0.0485353	5
