EXPLAIN
TAG	EISPOT
TITLE	LABEL	Potentiostatic EIS	Test &Identifier
DATE	LABEL	1/21/2020	Date
TIME	LABEL	16:03:18	Time
NOTES	NOTES	6	&Notes...
	
	
	
	
	
	
PSTAT	PSTAT	REF600-11020	Potentiostat
VDC	POTEN	0.00000E+000	T	DC &Voltage (V)
FREQINIT	QUANT	1.00000E+006	Initial Fre&q. (Hz)
FREQFINAL	QUANT	1.00000E+000	Final Fre&q. (Hz)
PTSPERDEC	QUANT	1.00000E+001	Points/&decade
VAC	QUANT	2.50000E+001	AC &Voltage (mV rms)
AREA	QUANT	1.00000E-001	&Area (cm^2)
CONDIT	TWOPARAM	F	5.00000E+000	0.00000E+000	Conditionin&g	Time(s)	E(V)
DELAY	TWOPARAM	F	5.00000E+000	0.00000E+000	Init. De&lay	Time(s)	Stab.(mV/s)
SPEED	SELECTOR	0	&Optimize for:
ZGUESS	QUANT	5.00000E+002	E&stimated Z (ohms)
OCVCURVE	TABLE	39
	Pt	T	Vf	Vm	Ach	Over
	#	s	V vs. Ref.	V	V	bits
	0	0.258333	-1.46464E-001	-1.46464E-001	6.66313E-004	...........
	1	0.516667	-1.46461E-001	-1.46347E-001	6.64913E-004	...........
	2	0.775	-1.46449E-001	-1.46281E-001	6.62113E-004	...........
	3	1.03333	-1.46415E-001	-1.46231E-001	6.64913E-004	...........
	4	1.29167	-1.46363E-001	-1.46189E-001	6.66413E-004	...........
	5	1.55	-1.46302E-001	-1.46167E-001	6.64779E-004	...........
	6	1.80833	-1.46247E-001	-1.46119E-001	6.62413E-004	...........
	7	2.06667	-1.46201E-001	-1.46108E-001	6.60646E-004	...........
	8	2.325	-1.46164E-001	-1.46087E-001	6.62979E-004	...........
	9	2.58333	-1.46134E-001	-1.46071E-001	6.66413E-004	...........
	10	2.84167	-1.46109E-001	-1.46044E-001	6.57513E-004	...........
	11	3.1	-1.46088E-001	-1.46032E-001	6.63579E-004	...........
	12	3.35833	-1.46070E-001	-1.46059E-001	6.60846E-004	...........
	13	3.61667	-1.46057E-001	-1.46103E-001	6.56380E-004	...........
	14	3.875	-1.46052E-001	-1.45944E-001	6.56813E-004	...........
	15	4.13333	-1.46043E-001	-1.45724E-001	6.57113E-004	...........
	16	4.39167	-1.45998E-001	-1.45532E-001	6.59579E-004	...........
	17	4.65	-1.45901E-001	-1.45607E-001	6.61913E-004	...........
	18	4.90833	-1.45779E-001	-1.45803E-001	6.62046E-004	...........
	19	5.16667	-1.45699E-001	-1.45989E-001	6.66213E-004	...........
	20	5.425	-1.45708E-001	-1.46121E-001	6.66013E-004	...........
	21	5.68333	-1.45798E-001	-1.46073E-001	6.63846E-004	...........
	22	5.94167	-1.45919E-001	-1.46100E-001	6.67579E-004	...........
	23	6.2	-1.46020E-001	-1.46266E-001	6.66113E-004	...........
	24	6.45833	-1.46092E-001	-1.46266E-001	6.64979E-004	...........
	25	6.71667	-1.46151E-001	-1.46214E-001	6.67546E-004	...........
	26	6.975	-1.46200E-001	-1.46327E-001	6.63046E-004	...........
	27	7.23333	-1.46241E-001	-1.46507E-001	6.68579E-004	...........
	28	7.49167	-1.46288E-001	-1.46497E-001	6.65146E-004	...........
	29	7.75	-1.46345E-001	-1.46050E-001	6.62713E-004	...........
	30	8.00833	-1.46367E-001	-1.46010E-001	6.61513E-004	...........
	31	8.26667	-1.46315E-001	-1.46112E-001	6.66379E-004	...........
	32	8.525	-1.46212E-001	-1.45932E-001	6.62846E-004	...........
	33	8.78333	-1.46105E-001	-1.45516E-001	6.62513E-004	...........
	34	9.04167	-1.45985E-001	-1.45335E-001	6.60746E-004	...........
	35	9.3	-1.45824E-001	-1.45393E-001	6.62346E-004	...........
	36	9.5583	-1.45645E-001	-1.45580E-001	6.55146E-004	...........
	37	9.8167	-1.45517E-001	-1.45592E-001	6.63013E-004	...........
	38	10.075	-1.45481E-001	-1.45707E-001	6.63779E-004	...........
EOC	QUANT	-0.1454813	Open Circuit (V)
PSTATMODEL	IQUANT	4	Pstat Model
PSTATSECTION	LABEL	REF600-11020	Pstat Section
PSTATSERIALNO	LABEL	11020	Pstat Serial Number
CTRLMODE	IQUANT	1	Control Mode
IESTAB	IQUANT	0	I/E Stability
CASPEED	IQUANT	1	Control Amp Speed
CONVENTION	IQUANT	1	Current Convention
ICHRANGE	IQUANT	2	Ich Range
ICHRANGEMODE	TOGGLE	F	Ich Auto Range
ICHOFFSETENABLE	TOGGLE	T	Ich Offset Enable
ICHOFFSET	QUANT	0	Ich Offset (V)
ICHFILTER	IQUANT	3	Ich Filter
VCHRANGE	IQUANT	2	Vch Range
VCHRANGEMODE	TOGGLE	F	Vch Auto Range
VCHOFFSETENABLE	TOGGLE	T	Vch Offset Enable
VCHOFFSET	QUANT	0	Vch Offset (V)
VCHFILTER	IQUANT	3	Vch Filter
ACHRANGE	IQUANT	2	Ach Range
ACHOFFSETENABLE	TOGGLE	F	Ach Offset Enable
ACHOFFSET	QUANT	0	Ach Offset (V)
ACHFILTER	IQUANT	3	Ach Filter
IERANGELOWERLIMIT	IQUANT	1	I/E Range Lower Limit
IERANGEMODE	TOGGLE	F	I/E AutoRange
IERANGE	IQUANT	8	I/E Range
POSFEEDENABLE	TOGGLE	F	Positive Feedback IR Comp
POSFEEDRESISTANCE	QUANT	0	Positive Feedback Resistance (ohm)
ACHSELECT	IQUANT	0	Ach Select
CABLEID	IQUANT	14	Cable ID
DCCALDATE	LABEL	12/22/2019	DC Calibration Date
ACCALDATE	LABEL	12/22/2019	AC Calibration Date
THERMOSELECT	IQUANT	1	Thermo Select
FRAMEWORKVERSION	QUANT	6.33	Framework Version
INSTRUMENTVERSION	LABEL	3.50	Instrument Version
ZCURVE	TABLE
	Pt	Time	Freq	Zreal	Zimag	Zsig	Zmod	Zphz	Idc	Vdc	IERange
	#	s	Hz	ohm	ohm	V	ohm	°	A	V	#
	0	1	1000078	1986.633	-1726.531	1	2632.037	-40.99306	-2.28781E-006	-0.143005	8
	1	1	794390.6	2246.777	-1843.611	1	2906.357	-39.37086	-8.013798E-007	-0.1432908	8
	2	2	630984.4	2533.578	-1946.283	1	3194.845	-37.5313	1.203388E-006	-0.1439253	8
	3	2	501234.4	2854.543	-2047.485	1	3512.921	-35.65082	-1.740136E-007	-0.1435395	8
	4	2	398109.4	3202.77	-2153.177	1	3859.262	-33.91238	1.535911E-006	-0.1441123	8
	5	3	316265.6	3585.118	-2234.496	1	4224.458	-31.93404	1.509781E-006	-0.1442464	8
	6	3	251203.1	3983.557	-2257.307	1	4578.663	-29.53833	-1.263377E-006	-0.1437046	8
	7	3	199546.9	4409.013	-2260.542	1	4954.739	-27.14464	-2.383606E-006	-0.143435	8
	8	4	158578.1	4822.596	-2239.583	1	5317.251	-24.90986	-1.157434E-006	-0.1435703	8
	9	4	125953.1	5223.652	-2117.749	1	5636.612	-22.06839	-3.173315E-007	-0.1431639	7
	10	4	100078.1	5567.312	-1983.121	1	5909.968	-19.60631	1.488099E-008	-0.1439662	7
	11	5	79453.13	5887.47	-1846.456	1	6170.227	-17.41272	-1.458083E-008	-0.143792	7
	12	5	63140.62	6155.793	-1697.918	1	6385.665	-15.42016	1.597776E-008	-0.1439794	7
	13	6	50203.12	6388.126	-1551.211	1	6573.767	-13.6488	2.738792E-008	-0.1439351	7
	14	6	39890.62	6581.275	-1413.927	1	6731.447	-12.12517	-3.223194E-008	-0.1438712	7
	15	6	31640.63	6747.637	-1295.861	1	6870.943	-10.8711	6.911126E-008	-0.1440367	7
	16	6	25171.88	6881.326	-1196.782	1	6984.622	-9.86605	1.779254E-008	-0.1439877	7
	17	7	20015.62	7006.745	-1119.45	1	7095.607	-9.077283	-7.923003E-009	-0.1438767	7
	18	7	15890.62	7110.103	-1066.227	1	7189.604	-8.52849	3.864366E-008	-0.1440327	7
	19	7	12609.37	7209.027	-1037.025	1	7283.233	-8.185896	-3.061797E-008	-0.1438997	7
	20	8	10078.13	7299.332	-1036.419	1	7372.544	-8.081307	-8.401503E-009	-0.14388	7
	21	8	8015.625	7384.303	-1054.537	1	7459.221	-8.127337	3.439172E-009	-0.1438912	7
	22	8	6328.125	7474.645	-1105.463	1	7555.949	-8.412776	-2.346028E-008	-0.1438165	7
	23	9	5015.625	7558.63	-1185.712	1	7651.065	-8.915253	6.805377E-008	-0.1440553	7
	24	9	3984.375	7643.801	-1293.82	1	7752.526	-9.60705	1.863953E-008	-0.1439921	7
	25	9	3170.956	7737.533	-1455.208	1	7873.185	-10.65127	1.125106E-007	-0.1440818	7
	26	10	2527.573	7823.469	-1651.553	1	7995.892	-11.92026	-3.190548E-008	-0.1438827	7
	27	10	1976.103	7940.414	-1929.428	1	8171.466	-13.65752	4.084425E-009	-0.1439032	7
	28	10	1577.524	8040.214	-2257.717	1	8351.188	-15.68491	-4.49779E-008	-0.1438307	7
	29	11	1265.625	8178.163	-2631.433	1	8591.087	-17.83627	-2.357029E-008	-0.1438314	7
	30	11	998.264	8339.378	-3145.701	1	8912.949	-20.667	2.865652E-009	-0.143911	7
	31	11	796.875	8516.774	-3739.278	1	9301.486	-23.70381	2.691756E-009	-0.1439171	6
	32	12	627.7902	8744.609	-4523.087	1	9845.13	-27.34994	-5.698682E-009	-0.1437982	6
	33	12	505.5147	8992.164	-5387.715	1	10482.68	-30.92821	-5.863244E-009	-0.1438001	6
	34	12	397.9953	9327.825	-6544.966	1	11394.95	-35.05582	4.594723E-010	-0.1439219	6
	35	12	315.5048	9735.58	-7913.467	1	12546.09	-39.10558	4.688283E-010	-0.1439249	6
	36	13	252.4038	10218.71	-9495.135	1	13949.18	-42.89795	4.433059E-010	-0.143929	6
	37	13	198.6229	10860.92	-11542.37	1	15848.84	-46.74225	9.001941E-010	-0.1439258	6
	38	13	158.3615	11590.97	-13870.95	1	18076.33	-50.11688	1.083979E-009	-0.1439306	6
	39	14	125.558	12511.75	-16731.44	1	20892.22	-53.21091	9.85412E-010	-0.1439286	6
	40	14	100.4464	13574.83	-20037.7	1	24203	-55.88375	1.88335E-010	-0.1439339	6
	41	14	79.00281	14926.89	-24319.05	1	28534.68	-58.45865	4.00792E-010	-0.1439319	6
	42	15	63.3446	16305.05	-28932.96	1	33211	-60.59675	8.082389E-010	-0.1439353	6
	43	15	49.86702	18387.36	-35098.11	1	39622.88	-62.35064	5.845424E-010	-0.1439366	6
	44	16	39.72458	20777.62	-42289.64	1	47118.18	-63.83433	9.396721E-010	-0.1439318	6
	45	16	31.6723	23676.89	-50860.56	1	56101.62	-65.03682	1.325334E-009	-0.1439349	6
	46	16	24.93351	27377.58	-61578.22	1	67389.98	-66.03014	3.760152E-010	-0.1439347	6
	47	16	19.86229	31732.08	-73969.74	1	80488.8	-66.78128	7.848994E-010	-0.1439277	6
	48	17	15.83615	37845.95	-88685.07	1	96422.8	-66.88985	-9.375094E-010	-0.1439335	6
	49	17	12.40079	44837.28	-108113.2	1	117042.1	-67.47498	-4.269719E-010	-0.143929	5
	50	17	9.93114	53736.19	-128302.5	1	139101.1	-67.27489	-6.310981E-010	-0.1439439	5
	51	18	7.944915	64452.32	-152519	1	165578.3	-67.09179	5.474614E-010	-0.1439357	5
	52	18	6.317385	78913.13	-181740.8	1	198133.8	-66.52917	4.597129E-010	-0.1439502	5
	53	19	5.008013	97184.3	-216264.6	1	237097.4	-65.80196	3.426081E-010	-0.1439327	5
	54	20	3.945707	120966.6	-257032.7	1	284075.2	-64.79704	4.667739E-012	-0.1439354	5
	55	21	3.158693	148103.3	-300506.2	1	335020.3	-63.76379	-7.708576E-011	-0.1439516	5
	56	23	2.504006	183458.9	-351418.7	1	396424.4	-62.43309	1.840038E-010	-0.1439552	5
	57	24	1.998082	223763.5	-406347.1	1	463883.7	-61.1597	1.322896E-010	-0.1439296	5
	58	26	1.584686	274520.1	-467526.1	1	542164.1	-59.57957	-7.469403E-013	-0.1439791	5
	59	28	1.266892	332013.1	-534434.8	1	629168.7	-58.14973	-3.9206E-011	-0.1439899	5
	60	30	0.999041	401349.9	-611759.3	1	731663.3	-56.73278	-8.978861E-011	-0.1439849	5
