EXPLAIN
TAG	EISPOT
TITLE	LABEL	Potentiostatic EIS	Test &Identifier
DATE	LABEL	3/20/2020	Date
TIME	LABEL	15:09:19	Time
NOTES	NOTES	1	&Notes...
	
PSTAT	PSTAT	REF600-11020	Potentiostat
VDC	POTEN	0.00000E+000	T	DC &Voltage (V)
FREQINIT	QUANT	1.00000E+006	Initial Fre&q. (Hz)
FREQFINAL	QUANT	1.00000E+000	Final Fre&q. (Hz)
PTSPERDEC	QUANT	1.00000E+001	Points/&decade
VAC	QUANT	2.50000E+001	AC &Voltage (mV rms)
AREA	QUANT	4.00000E-004	&Area (cm^2)
CONDIT	TWOPARAM	F	5.00000E+000	0.00000E+000	Conditionin&g	Time(s)	E(V)
DELAY	TWOPARAM	T	3.00000E+000	0.00000E+000	Init. De&lay	Time(s)	Stab.(mV/s)
SPEED	SELECTOR	0	&Optimize for:
ZGUESS	QUANT	1.00000E+003	E&stimated Z (ohms)
OCVCURVE	TABLE	12
	Pt	T	Vf	Vm	Ach	Over
	#	s	V vs. Ref.	V	V	bits
	0	0.258333	2.87027E-002	2.87027E-002	5.82563E-004	...........
	1	0.516667	2.87023E-002	2.86804E-002	5.79563E-004	...........
	2	0.775	2.87004E-002	2.86971E-002	5.76763E-004	...........
	3	1.03333	2.86941E-002	2.85370E-002	5.77030E-004	...........
	4	1.29167	2.86788E-002	2.86975E-002	5.81463E-004	...........
	5	1.55	2.86595E-002	2.87211E-002	5.81697E-004	...........
	6	1.80833	2.86536E-002	2.87158E-002	5.77863E-004	...........
	7	2.06667	2.86679E-002	2.87023E-002	5.77263E-004	...........
	8	2.325	2.86889E-002	2.86990E-002	5.80097E-004	...........
	9	2.58333	2.87022E-002	2.87036E-002	5.82063E-004	...........
	10	2.84167	2.87062E-002	2.87165E-002	5.79597E-004	...........
	11	3.1	2.87066E-002	2.87134E-002	5.80997E-004	...........
EOC	QUANT	0.0287066	Open Circuit (V)
PSTATMODEL	IQUANT	4	Pstat Model
PSTATSECTION	LABEL	REF600-11020	Pstat Section
PSTATSERIALNO	LABEL	11020	Pstat Serial Number
CTRLMODE	IQUANT	1	Control Mode
IESTAB	IQUANT	0	I/E Stability
CASPEED	IQUANT	1	Control Amp Speed
CONVENTION	IQUANT	1	Current Convention
ICHRANGE	IQUANT	2	Ich Range
ICHRANGEMODE	TOGGLE	F	Ich Auto Range
ICHOFFSETENABLE	TOGGLE	T	Ich Offset Enable
ICHOFFSET	QUANT	0	Ich Offset (V)
ICHFILTER	IQUANT	3	Ich Filter
VCHRANGE	IQUANT	2	Vch Range
VCHRANGEMODE	TOGGLE	F	Vch Auto Range
VCHOFFSETENABLE	TOGGLE	T	Vch Offset Enable
VCHOFFSET	QUANT	0	Vch Offset (V)
VCHFILTER	IQUANT	3	Vch Filter
ACHRANGE	IQUANT	2	Ach Range
ACHOFFSETENABLE	TOGGLE	F	Ach Offset Enable
ACHOFFSET	QUANT	0	Ach Offset (V)
ACHFILTER	IQUANT	3	Ach Filter
IERANGELOWERLIMIT	IQUANT	1	I/E Range Lower Limit
IERANGEMODE	TOGGLE	F	I/E AutoRange
IERANGE	IQUANT	7	I/E Range
POSFEEDENABLE	TOGGLE	F	Positive Feedback IR Comp
POSFEEDRESISTANCE	QUANT	0	Positive Feedback Resistance (ohm)
ACHSELECT	IQUANT	0	Ach Select
CABLEID	IQUANT	14	Cable ID
DCCALDATE	LABEL	2/27/2020	DC Calibration Date
ACCALDATE	LABEL	2/27/2020	AC Calibration Date
THERMOSELECT	IQUANT	1	Thermo Select
FRAMEWORKVERSION	QUANT	6.33	Framework Version
INSTRUMENTVERSION	LABEL	3.50	Instrument Version
ZCURVE	TABLE
	Pt	Time	Freq	Zreal	Zimag	Zsig	Zmod	Zphz	Idc	Vdc	IERange
	#	s	Hz	ohm	ohm	V	ohm	°	A	V	#
	0	1	1000078	1692.317	-1548.026	1	2293.538	-42.45033	-9.391595E-008	0.0311727	8
	1	1	794390.6	1965.729	-1631.635	1	2554.667	-39.69405	1.361269E-007	0.0307324	8
	2	1	630984.4	2252.617	-1691.347	1	2816.902	-36.90056	1.548972E-007	0.0305916	8
	3	2	501234.4	2545.413	-1729.674	1	3077.483	-34.19712	5.885969E-007	0.0304448	8
	4	2	398109.4	2839.996	-1751.999	1	3336.926	-31.67052	2.14736E-007	0.0304135	8
	5	2	316265.6	3130.889	-1750.139	1	3586.845	-29.2048	-2.54781E-007	0.0304705	8
	6	3	251203.1	3413.657	-1734.779	1	3829.166	-26.93912	-2.301676E-007	0.0304461	8
	7	3	199546.9	3683.09	-1706.594	1	4059.263	-24.86109	2.549544E-007	0.0303793	8
	8	3	158578.1	3943.738	-1669.728	1	4282.646	-22.94718	-1.399784E-007	0.0304286	8
	9	4	125953.1	4229.334	-1573.057	1	4512.402	-20.40216	2.324894E-008	0.0303139	7
	10	4	100078.1	4439.074	-1540.562	1	4698.798	-19.13912	9.174117E-009	0.0303215	7
	11	4	79453.13	4653.17	-1523.159	1	4896.122	-18.12524	7.720774E-009	0.0303169	7
	12	4	63140.62	4858.179	-1510.984	1	5087.728	-17.27666	8.709997E-009	0.0303076	7
	13	5	50203.12	5054.014	-1507.083	1	5273.932	-16.60433	3.571859E-009	0.0303125	7
	14	5	39890.62	5249.07	-1517.432	1	5464.004	-16.12383	-1.596022E-009	0.0303357	7
	15	5	31640.63	5443.528	-1539.869	1	5657.136	-15.79519	1.292543E-010	0.0303082	7
	16	6	25171.88	5639.089	-1577.985	1	5855.712	-15.6332	-1.194372E-009	0.0303256	7
	17	6	20015.62	5843.284	-1630.159	1	6066.414	-15.58803	1.280753E-008	0.0302963	7
	18	6	15890.62	6054.793	-1695.934	1	6287.822	-15.64744	7.318285E-009	0.0303211	7
	19	7	12609.37	6274.673	-1771.555	1	6519.964	-15.76619	4.399471E-009	0.0303038	7
	20	7	10078.13	6499.327	-1857.173	1	6759.463	-15.94721	4.996364E-011	0.0303063	7
	21	7	8015.625	6736.007	-1960.208	1	7015.426	-16.22523	-1.936546E-009	0.0303215	7
	22	8	6328.125	6986.685	-2080.162	1	7289.776	-16.57997	3.459177E-009	0.0303212	7
	23	8	5015.625	7235.07	-2215.758	1	7566.757	-17.02734	4.284929E-009	0.0302987	7
	24	8	3984.375	7490.425	-2380.975	1	7859.74	-17.63386	1.462367E-008	0.0302942	7
	25	9	3170.956	7743.33	-2575.045	1	8160.271	-18.39455	3.951901E-009	0.0303058	7
	26	9	2527.573	7999.249	-2811.869	1	8479.068	-19.36742	-2.448335E-009	0.0303135	7
	27	9	1976.103	8284.727	-3135.275	1	8858.14	-20.72866	4.549949E-009	0.0303047	7
	28	10	1577.524	8567.219	-3486.061	1	9249.316	-22.14175	-1.212767E-010	0.0303654	6
	29	10	1265.625	8846.672	-3927.338	1	9679.23	-23.93806	9.015509E-011	0.0303579	6
	30	10	998.264	9172.828	-4509.935	1	10221.56	-26.18161	-1.719467E-010	0.0303534	6
	31	10	796.875	9502.75	-5185.501	1	10825.51	-28.62061	-2.275483E-010	0.0303487	6
	32	11	627.7902	9878.61	-6060.793	1	11589.65	-31.53024	1.339529E-009	0.0303309	6
	33	11	505.5147	10254.58	-7033.621	1	12434.96	-34.44624	-1.313321E-009	0.0303534	6
	34	11	397.9953	10703	-8343.925	1	13571.12	-37.93953	3.871405E-010	0.030369	6
	35	12	315.5048	11192.54	-9918.31	1	14954.79	-41.54587	4.274121E-010	0.0303671	6
	36	12	252.4038	11724.9	-11774.81	1	16616.84	-45.1217	3.446055E-010	0.0303655	6
	37	12	198.6229	12383.31	-14229.7	1	18863.48	-48.96878	3.588665E-010	0.0303648	6
	38	13	158.3615	13117.82	-17091.52	1	21545.23	-52.4936	3.187191E-010	0.0303643	6
	39	13	125.558	14013.27	-20693.59	1	24991.92	-55.89496	3.99141E-010	0.0303638	6
	40	13	100.4464	15050.16	-24932.82	1	29123.06	-58.88361	2.653894E-010	0.0303658	6
	41	14	79.00281	16429.33	-30547	1	34684.89	-61.72695	5.032544E-011	0.03036	6
	42	14	63.3446	17987.21	-36874.31	1	41027.48	-63.99697	1.392964E-010	0.0303545	6
	43	14	49.86702	20155.76	-45239.54	1	49526.46	-65.9854	-1.596855E-011	0.0303583	6
	44	15	39.72458	22824.34	-54968.34	1	59518.64	-67.45045	3.836854E-010	0.0303653	6
	45	15	31.6723	26227.38	-66714.45	1	71684.68	-68.53877	1.381327E-010	0.030362	6
	46	15	24.93351	30926.7	-81728.55	1	87384.3	-69.27298	3.258691E-010	0.0303602	6
	47	16	19.86229	36850.55	-98939.6	1	105579.4	-69.5719	-4.407434E-010	0.0303677	5
	48	16	15.83615	44503.34	-119424.8	1	127447.4	-69.56223	4.848338E-010	0.0303656	5
	49	16	12.40079	55313.59	-145751.4	1	155894.4	-69.21793	2.495869E-010	0.0303676	5
	50	17	9.93114	68193.63	-174051.3	1	186933.8	-68.60466	3.750217E-010	0.0303688	5
	51	17	7.944915	85153.45	-206625.8	1	223484.5	-67.60274	5.247225E-010	0.0303658	5
	52	17	6.317385	107326.7	-245353	1	267800.5	-66.37361	-1.987213E-010	0.030385	5
	53	18	5.008013	136187.5	-290505.7	1	320843.5	-64.88306	2.407546E-011	0.0303731	5
	54	19	3.945707	172809.3	-341306.5	1	382561.3	-63.14613	3.545556E-010	0.0303687	5
	55	20	3.158693	215399.5	-392291.7	1	447537.3	-61.22969	4.406634E-011	0.0303819	5
	56	21	2.504006	267957.9	-450172.5	1	523886.2	-59.23746	-1.135734E-010	0.0303723	5
	57	22	1.998082	326518.6	-508123.8	1	603990.3	-57.27534	6.018049E-011	0.0303874	5
	58	24	1.584686	396277.7	-572867	1	696572.1	-55.32666	1.787459E-010	0.0304161	5
	59	26	1.266892	468450.6	-638761.1	1	792124.8	-53.74466	1.289128E-010	0.0303894	5
	60	28	0.999041	552079.6	-712459.4	1	901327	-52.22816	1.266295E-010	0.0303648	5
