EXPLAIN
TAG	EISPOT
TITLE	LABEL	Potentiostatic EIS	Test &Identifier
DATE	LABEL	3/17/2020	Date
TIME	LABEL	15:39:59	Time
NOTES	NOTES	1	&Notes...
	
PSTAT	PSTAT	REF600-11020	Potentiostat
VDC	POTEN	0.00000E+000	T	DC &Voltage (V)
FREQINIT	QUANT	1.00000E+006	Initial Fre&q. (Hz)
FREQFINAL	QUANT	1.00000E+000	Final Fre&q. (Hz)
PTSPERDEC	QUANT	1.00000E+001	Points/&decade
VAC	QUANT	2.50000E+001	AC &Voltage (mV rms)
AREA	QUANT	4.00000E-004	&Area (cm^2)
CONDIT	TWOPARAM	F	5.00000E+000	0.00000E+000	Conditionin&g	Time(s)	E(V)
DELAY	TWOPARAM	T	3.00000E+000	0.00000E+000	Init. De&lay	Time(s)	Stab.(mV/s)
SPEED	SELECTOR	0	&Optimize for:
ZGUESS	QUANT	5.00000E+003	E&stimated Z (ohms)
OCVCURVE	TABLE	12
	Pt	T	Vf	Vm	Ach	Over
	#	s	V vs. Ref.	V	V	bits
	0	0.258333	9.80470E-002	9.80470E-002	4.76898E-004	...........
	1	0.516667	9.80470E-002	9.80471E-002	4.88665E-004	...........
	2	0.775	9.80471E-002	9.80517E-002	4.90331E-004	...........
	3	1.03333	9.80477E-002	9.80570E-002	4.85198E-004	...........
	4	1.29167	9.80494E-002	9.80656E-002	4.92031E-004	...........
	5	1.55	9.80529E-002	9.80723E-002	4.91165E-004	...........
	6	1.80833	9.80581E-002	9.80789E-002	4.82365E-004	...........
	7	2.06667	9.80643E-002	9.80799E-002	4.84865E-004	...........
	8	2.325	9.80705E-002	9.80774E-002	4.90665E-004	...........
	9	2.58333	9.80751E-002	9.80792E-002	4.91665E-004	...........
	10	2.84167	9.80778E-002	9.80814E-002	4.86265E-004	...........
	11	3.1	9.80791E-002	9.80829E-002	4.84998E-004	...........
EOC	QUANT	0.0980791	Open Circuit (V)
PSTATMODEL	IQUANT	4	Pstat Model
PSTATSECTION	LABEL	REF600-11020	Pstat Section
PSTATSERIALNO	LABEL	11020	Pstat Serial Number
CTRLMODE	IQUANT	1	Control Mode
IESTAB	IQUANT	0	I/E Stability
CASPEED	IQUANT	1	Control Amp Speed
CONVENTION	IQUANT	1	Current Convention
ICHRANGE	IQUANT	2	Ich Range
ICHRANGEMODE	TOGGLE	F	Ich Auto Range
ICHOFFSETENABLE	TOGGLE	T	Ich Offset Enable
ICHOFFSET	QUANT	0	Ich Offset (V)
ICHFILTER	IQUANT	3	Ich Filter
VCHRANGE	IQUANT	2	Vch Range
VCHRANGEMODE	TOGGLE	F	Vch Auto Range
VCHOFFSETENABLE	TOGGLE	T	Vch Offset Enable
VCHOFFSET	QUANT	0	Vch Offset (V)
VCHFILTER	IQUANT	3	Vch Filter
ACHRANGE	IQUANT	2	Ach Range
ACHOFFSETENABLE	TOGGLE	F	Ach Offset Enable
ACHOFFSET	QUANT	0	Ach Offset (V)
ACHFILTER	IQUANT	3	Ach Filter
IERANGELOWERLIMIT	IQUANT	1	I/E Range Lower Limit
IERANGEMODE	TOGGLE	F	I/E AutoRange
IERANGE	IQUANT	7	I/E Range
POSFEEDENABLE	TOGGLE	F	Positive Feedback IR Comp
POSFEEDRESISTANCE	QUANT	0	Positive Feedback Resistance (ohm)
ACHSELECT	IQUANT	0	Ach Select
CABLEID	IQUANT	14	Cable ID
DCCALDATE	LABEL	2/27/2020	DC Calibration Date
ACCALDATE	LABEL	2/27/2020	AC Calibration Date
THERMOSELECT	IQUANT	1	Thermo Select
FRAMEWORKVERSION	QUANT	6.33	Framework Version
INSTRUMENTVERSION	LABEL	3.50	Instrument Version
ZCURVE	TABLE
	Pt	Time	Freq	Zreal	Zimag	Zsig	Zmod	Zphz	Idc	Vdc	IERange
	#	s	Hz	ohm	ohm	V	ohm	°	A	V	#
	0	1	1000078	1972.849	-2108.526	1	2887.563	-46.90398	9.92852E-008	0.1002959	8
	1	2	794390.6	2392.942	-2249.133	1	3284.018	-43.22557	-1.530903E-009	0.0999785	8
	2	2	630984.4	2851.917	-2324.166	1	3679.018	-39.17828	4.49979E-008	0.0998695	8
	3	2	501234.4	3326.074	-2326.24	1	4058.837	-34.96875	5.395028E-010	0.099777	8
	4	2	398109.4	3783.859	-2255.852	1	4405.276	-30.80245	1.005614E-008	0.0996907	8
	5	3	316265.6	4199.154	-2120.278	1	4704.091	-26.79057	3.778009E-008	0.099676	8
	6	3	251203.1	4561.57	-1945.679	1	4959.193	-23.10005	7.849504E-009	0.0996777	8
	7	3	199546.9	4864.465	-1748.285	1	5169.093	-19.76839	4.185675E-008	0.0996455	8
	8	4	158578.1	5098.375	-1553.623	1	5329.838	-16.94751	7.463949E-008	0.0996238	8
	9	4	125953.1	5336.371	-1302.58	1	5493.047	-13.71736	-1.109008E-009	0.0996188	7
	10	4	100078.1	5465.207	-1151.04	1	5585.104	-11.89337	2.198688E-010	0.0995843	7
	11	5	79453.13	5584.319	-1030.383	1	5678.583	-10.45427	-7.23695E-011	0.0995776	7
	12	5	63140.62	5683.034	-931.9362	1	5758.939	-9.3128	7.824883E-010	0.0995815	7
	13	5	50203.12	5765.89	-855.2675	1	5828.977	-8.437291	2.323853E-010	0.0995762	7
	14	6	39890.62	5840.204	-800.4742	1	5894.807	-7.804485	-1.450934E-011	0.099567	7
	15	6	31640.63	5905.916	-766.782	1	5955.485	-7.397495	2.867134E-010	0.0995713	7
	16	6	25171.88	5969.187	-753.5665	1	6016.564	-7.195114	-9.176891E-011	0.0995695	7
	17	7	20015.62	6031.134	-760.7339	1	6078.922	-7.189008	1.089316E-009	0.0995716	7
	18	7	15890.62	6093.679	-787.6116	1	6144.368	-7.364684	5.736446E-010	0.0995648	7
	19	7	12609.37	6158.514	-835.3069	1	6214.904	-7.724148	1.210599E-009	0.0995609	7
	20	8	10078.13	6224.765	-902.3647	1	6289.83	-8.248348	2.106486E-009	0.0995574	7
	21	8	8015.625	6295.686	-994.562	1	6373.76	-8.977124	1.207936E-009	0.0995633	7
	22	8	6328.125	6375.983	-1117.801	1	6473.225	-9.94372	1.423895E-009	0.0995629	7
	23	9	5015.625	6459.887	-1272.317	1	6583.99	-11.14217	1.024332E-009	0.0995598	7
	24	9	3984.375	6551.385	-1463.787	1	6712.922	-12.59483	1.550657E-009	0.0995579	7
	25	9	3170.956	6651.283	-1695.893	1	6864.082	-14.30406	7.261455E-010	0.0995537	7
	26	9	2527.573	6761.098	-1982.394	1	7045.731	-16.34145	3.446909E-010	0.0995538	7
	27	10	1976.103	6899.324	-2366.364	1	7293.857	-18.9312	2.296696E-009	0.0995634	7
	28	10	1577.524	7041.756	-2795.638	1	7576.405	-21.6535	1.835224E-009	0.0995578	7
	29	10	1265.625	7201.816	-3305.241	1	7924.063	-24.65254	1.570178E-009	0.0995543	7
	30	11	998.264	7401.784	-3973.922	1	8401.099	-28.23078	1.991302E-009	0.0995563	7
	31	11	796.875	7621.314	-4746.897	1	8978.723	-31.91651	1.67924E-009	0.0995521	7
	32	11	627.7902	7898.995	-5740.197	1	9764.42	-36.00589	-4.330976E-010	0.0996027	6
	33	12	505.5147	8184.193	-6846.326	1	10670.2	-39.91351	-7.17464E-010	0.0996004	6
	34	12	397.9953	8548.981	-8334.552	1	11939.42	-44.27235	4.380523E-010	0.0996232	6
	35	12	315.5048	8967.345	-10112.46	1	13515.74	-48.43461	5.175846E-010	0.099617	6
	36	13	252.4038	9444.118	-12202.94	1	15430.59	-52.26294	4.246939E-010	0.0996178	6
	37	13	198.6229	10059.47	-14962.76	1	18029.9	-56.08704	4.108252E-010	0.0996201	6
	38	13	158.3615	10768.91	-18174.65	1	21125.52	-59.35226	4.564579E-010	0.099613	6
	39	14	125.558	11671.37	-22213.73	1	25093.24	-62.28201	4.941256E-010	0.0996131	6
	40	14	100.4464	12757.13	-26963.03	1	29828.67	-64.67957	4.725613E-010	0.099613	6
	41	14	79.00281	14252.68	-33233.39	1	36160.71	-66.78713	3.461992E-010	0.099613	6
	42	15	63.3446	16024.66	-40277.48	1	43348.18	-68.30454	2.596209E-010	0.0996137	6
	43	15	49.86702	18519.62	-49563.22	1	52910.2	-69.51147	4.692627E-011	0.0996091	6
	44	15	39.72458	21625.22	-60293.84	1	64054.64	-70.26893	3.705945E-010	0.0996131	6
	45	16	31.6723	25668.66	-73155.66	1	77528.26	-70.66519	3.460379E-010	0.0996105	6
	46	16	24.93351	31290.48	-89504.37	1	94816.27	-70.73051	3.395711E-011	0.0996093	6
	47	16	19.86229	38374.33	-108055.2	1	114667	-70.4482	1.606043E-010	0.0996124	5
	48	17	15.83615	47505.31	-130007.9	1	138415.4	-69.92754	-6.793537E-010	0.0996146	5
	49	17	12.40079	60495.79	-157858.1	1	169053	-69.03172	-6.029441E-010	0.0996169	5
	50	17	9.93114	75882.15	-187264.3	1	202054.5	-67.94151	-7.934985E-010	0.0996167	5
	51	18	7.944915	95151.9	-220940.3	1	240558.7	-66.70001	-4.673145E-010	0.0996161	5
	52	18	6.317385	120421.1	-259845.4	1	286392.9	-65.1354	1.205088E-010	0.0996072	5
	53	19	5.008013	152540	-304126	1	340236.8	-63.36311	-9.238702E-011	0.0996029	5
	54	20	3.945707	192813	-354306.8	1	403373.4	-61.44506	-2.489464E-010	0.099611	5
	55	21	3.158693	237891.9	-403745.6	1	468618.3	-59.49288	-4.703045E-011	0.0996026	5
	56	22	2.504006	292965.7	-459276.8	1	544760.6	-57.46682	2.182403E-010	0.0996071	5
	57	23	1.998082	352938.3	-514744.8	1	624121.5	-55.56325	4.763243E-011	0.0995826	5
	58	24	1.584686	423374.4	-576656.1	1	715386.7	-53.7143	-6.612141E-011	0.0995553	5
	59	26	1.266892	495139	-639930.1	1	809118.7	-52.26947	-5.600945E-011	0.0995771	5
	60	29	0.999041	577284.9	-711310.6	1	916089.8	-50.93793	-4.190784E-011	0.0995979	5
