EXPLAIN
TAG	EISPOT
TITLE	LABEL	Potentiostatic EIS	Test &Identifier
DATE	LABEL	3/19/2020	Date
TIME	LABEL	21:04:56	Time
NOTES	NOTES	1	&Notes...
	
PSTAT	PSTAT	REF600-11020	Potentiostat
VDC	POTEN	0.00000E+000	T	DC &Voltage (V)
FREQINIT	QUANT	1.00000E+006	Initial Fre&q. (Hz)
FREQFINAL	QUANT	1.00000E+000	Final Fre&q. (Hz)
PTSPERDEC	QUANT	1.00000E+001	Points/&decade
VAC	QUANT	2.50000E+001	AC &Voltage (mV rms)
AREA	QUANT	4.00000E-004	&Area (cm^2)
CONDIT	TWOPARAM	F	5.00000E+000	0.00000E+000	Conditionin&g	Time(s)	E(V)
DELAY	TWOPARAM	T	3.00000E+000	0.00000E+000	Init. De&lay	Time(s)	Stab.(mV/s)
SPEED	SELECTOR	0	&Optimize for:
ZGUESS	QUANT	1.00000E+003	E&stimated Z (ohms)
OCVCURVE	TABLE	12
	Pt	T	Vf	Vm	Ach	Over
	#	s	V vs. Ref.	V	V	bits
	0	0.258333	2.84651E-002	2.84651E-002	5.32031E-004	...........
	1	0.516667	2.84658E-002	2.85020E-002	5.28964E-004	...........
	2	0.775	2.84704E-002	2.85487E-002	5.28931E-004	...........
	3	1.03333	2.84839E-002	2.85890E-002	5.28331E-004	...........
	4	1.29167	2.85093E-002	2.86341E-002	5.32931E-004	...........
	5	1.55	2.85452E-002	2.87036E-002	5.27964E-004	...........
	6	1.80833	2.85887E-002	2.87296E-002	5.27431E-004	...........
	7	2.06667	2.86364E-002	2.87779E-002	5.31297E-004	...........
	8	2.325	2.86843E-002	2.88239E-002	5.29597E-004	...........
	9	2.58333	2.87307E-002	2.88775E-002	5.31164E-004	...........
	10	2.84167	2.87765E-002	2.89195E-002	5.29131E-004	...........
	11	3.1	2.88228E-002	2.89593E-002	5.31964E-004	...........
EOC	QUANT	0.0288228	Open Circuit (V)
PSTATMODEL	IQUANT	4	Pstat Model
PSTATSECTION	LABEL	REF600-11020	Pstat Section
PSTATSERIALNO	LABEL	11020	Pstat Serial Number
CTRLMODE	IQUANT	1	Control Mode
IESTAB	IQUANT	0	I/E Stability
CASPEED	IQUANT	1	Control Amp Speed
CONVENTION	IQUANT	1	Current Convention
ICHRANGE	IQUANT	2	Ich Range
ICHRANGEMODE	TOGGLE	F	Ich Auto Range
ICHOFFSETENABLE	TOGGLE	T	Ich Offset Enable
ICHOFFSET	QUANT	0	Ich Offset (V)
ICHFILTER	IQUANT	3	Ich Filter
VCHRANGE	IQUANT	2	Vch Range
VCHRANGEMODE	TOGGLE	F	Vch Auto Range
VCHOFFSETENABLE	TOGGLE	T	Vch Offset Enable
VCHOFFSET	QUANT	0	Vch Offset (V)
VCHFILTER	IQUANT	3	Vch Filter
ACHRANGE	IQUANT	2	Ach Range
ACHOFFSETENABLE	TOGGLE	F	Ach Offset Enable
ACHOFFSET	QUANT	0	Ach Offset (V)
ACHFILTER	IQUANT	3	Ach Filter
IERANGELOWERLIMIT	IQUANT	1	I/E Range Lower Limit
IERANGEMODE	TOGGLE	F	I/E AutoRange
IERANGE	IQUANT	7	I/E Range
POSFEEDENABLE	TOGGLE	F	Positive Feedback IR Comp
POSFEEDRESISTANCE	QUANT	0	Positive Feedback Resistance (ohm)
ACHSELECT	IQUANT	0	Ach Select
CABLEID	IQUANT	14	Cable ID
DCCALDATE	LABEL	2/27/2020	DC Calibration Date
ACCALDATE	LABEL	2/27/2020	AC Calibration Date
THERMOSELECT	IQUANT	1	Thermo Select
FRAMEWORKVERSION	QUANT	6.33	Framework Version
INSTRUMENTVERSION	LABEL	3.50	Instrument Version
ZCURVE	TABLE
	Pt	Time	Freq	Zreal	Zimag	Zsig	Zmod	Zphz	Idc	Vdc	IERange
	#	s	Hz	ohm	ohm	V	ohm	°	A	V	#
	0	1	1000078	1801.916	-2261.148	1	2891.313	-51.44855	2.841204E-008	0.0310838	8
	1	1	794390.6	2251.608	-2463.557	1	3337.492	-47.57374	1.932101E-007	0.0307232	8
	2	2	630984.4	2761.867	-2600.146	1	3793.24	-43.27246	7.943398E-008	0.0305865	8
	3	2	501234.4	3303.817	-2645.548	1	4232.509	-38.68617	-1.335796E-007	0.0305139	8
	4	2	398109.4	3838.696	-2608.266	1	4640.974	-34.1948	1.62691E-007	0.0304236	8
	5	3	316265.6	4333.791	-2479.878	1	4993.149	-29.77902	3.829092E-007	0.0303536	8
	6	3	251203.1	4775.23	-2302.698	1	5301.438	-25.74416	3.305585E-007	0.0303564	8
	7	3	199546.9	5141.861	-2099.286	1	5553.894	-22.2089	-2.601348E-008	0.0304017	8
	8	4	158578.1	5436.572	-1890.462	1	5755.881	-19.17412	-2.385998E-009	0.0304061	8
	9	4	125953.1	5720.426	-1614.822	1	5943.982	-15.76387	1.062515E-007	0.0301887	7
	10	4	100078.1	5890.98	-1448.182	1	6066.373	-13.81118	9.297644E-009	0.0303206	7
	11	4	79453.13	6048.584	-1315.663	1	6190.02	-12.27159	1.324361E-009	0.0303422	7
	12	5	63140.62	6181.847	-1205.777	1	6298.343	-11.03704	9.956628E-009	0.030307	7
	13	5	50203.12	6296.04	-1122.65	1	6395.347	-10.11019	-3.58689E-010	0.0303287	7
	14	5	39890.62	6400.292	-1064.756	1	6488.254	-9.445255	6.72072E-009	0.0303125	7
	15	6	31640.63	6496.424	-1033.192	1	6578.071	-9.036641	1.929611E-009	0.0303165	7
	16	6	25171.88	6589.328	-1027.059	1	6668.89	-8.859241	-2.079413E-009	0.0303266	7
	17	6	20015.62	6681.012	-1045.625	1	6762.341	-8.895034	-2.803401E-009	0.0303299	7
	18	7	15890.62	6775.563	-1089.745	1	6862.638	-9.136901	1.900363E-009	0.030326	7
	19	7	12609.37	6874.825	-1160.33	1	6972.057	-9.58007	1.558287E-009	0.030338	7
	20	7	10078.13	6976.007	-1254.574	1	7087.921	-10.19517	-2.636511E-009	0.0303286	7
	21	8	8015.625	7089.797	-1381.089	1	7223.062	-11.02315	-2.068937E-009	0.0303355	7
	22	8	6328.125	7217.756	-1543.846	1	7381.021	-12.07338	1.106038E-008	0.0303012	7
	23	8	5015.625	7357.2	-1744.526	1	7561.202	-13.33951	1.328421E-009	0.0303308	7
	24	9	3984.375	7509.748	-1984.579	1	7767.552	-14.80298	4.350707E-009	0.0303177	7
	25	9	3170.956	7680.178	-2273.963	1	8009.747	-16.49307	1.551597E-008	0.0302913	7
	26	9	2527.573	7867.397	-2617.097	1	8291.269	-18.39976	-3.069503E-010	0.030312	7
	27	10	1976.103	8098.625	-3066.97	1	8659.909	-20.7418	1.003054E-008	0.0302957	7
	28	10	1577.524	8339.25	-3566.963	1	9070.078	-23.15794	3.775167E-009	0.0303218	7
	29	10	1265.625	8608.466	-4135.887	1	9550.46	-25.66168	-4.261671E-010	0.0303782	6
	30	11	998.264	8930.756	-4892.274	1	10182.96	-28.71396	-1.035778E-009	0.03037	6
	31	11	796.875	9282.355	-5755.732	1	10922.02	-31.80191	3.6236E-011	0.030342	6
	32	11	627.7902	9715.05	-6866.348	1	11896.59	-35.2517	-6.907689E-010	0.0303568	6
	33	11	505.5147	10172.8	-8075.252	1	12988.28	-38.44284	-3.189647E-010	0.0303501	6
	34	12	397.9953	10775.84	-9691.97	1	14493.2	-41.96874	5.345471E-010	0.0303733	6
	35	12	315.5048	11484.98	-11592.18	1	16318.19	-45.26616	4.097636E-010	0.0303738	6
	36	12	252.4038	12314.07	-13783.38	1	18482.91	-48.22241	4.725458E-010	0.0303674	6
	37	13	198.6229	13413.85	-16607.32	1	21347.94	-51.07194	3.727439E-010	0.0303691	6
	38	13	158.3615	14704.77	-19795.07	1	24659.18	-53.39318	3.41497E-010	0.0303672	6
	39	13	125.558	16341.67	-23658.52	1	28753.71	-55.36596	5.378957E-010	0.0303692	6
	40	14	100.4464	18278.1	-28016.41	1	33451.57	-56.8793	5.194376E-010	0.0303666	6
	41	14	79.00281	20814.25	-33526.33	1	39461.98	-58.16663	3.399473E-010	0.0303682	6
	42	14	63.3446	23570.99	-39464.23	1	45967.56	-59.15119	2.774348E-010	0.0303662	6
	43	15	49.86702	27165.84	-46987.13	1	54274.98	-59.96544	1.356034E-010	0.0303677	6
	44	15	39.72458	31253.14	-55468.24	1	63666.98	-60.60126	6.100793E-010	0.0303709	6
	45	15	31.6723	36085	-65448	1	74736.66	-61.12969	5.248993E-010	0.0303673	6
	46	16	24.93351	42320.48	-77999.43	1	88740.83	-61.51688	6.296066E-011	0.0303632	6
	47	16	19.86229	49719.5	-92127.88	1	104688	-61.64519	7.785205E-010	0.0303722	5
	48	16	15.83615	58994.57	-108568.1	1	123561.3	-61.48088	-7.277101E-010	0.0303676	5
	49	17	12.40079	71978.4	-129073.4	1	147786.5	-60.85357	1.50104E-009	0.0303669	5
	50	17	9.93114	86384.74	-149801.9	1	172924.7	-60.02968	1.532526E-009	0.0303728	5
	51	17	7.944915	104657.4	-173284.1	1	202436.6	-58.86952	-2.852447E-010	0.0303642	5
	52	18	6.317385	126698.7	-198895.4	1	235821.8	-57.50237	1.741602E-010	0.0303677	5
	53	19	5.008013	152914.4	-226548.3	1	273325.7	-55.98164	6.676498E-010	0.030379	5
	54	19	3.945707	184053.9	-256139.5	1	315409.7	-54.30015	2.425776E-010	0.0303606	5
	55	20	3.158693	214808	-285715.9	1	357457.8	-53.06329	3.916464E-010	0.0303794	5
	56	21	2.504006	249524.1	-318436.9	1	404554.5	-51.91809	-2.68789E-011	0.0303747	5
	57	23	1.998082	283240.1	-354866.8	1	454043.4	-51.40458	-2.86627E-011	0.030356	5
	58	24	1.584686	319774.8	-397032.8	1	509795	-51.15163	1.451107E-010	0.0303967	5
	59	26	1.266892	357347.2	-447584.5	1	572738.1	-51.39647	2.038201E-010	0.0304106	5
	60	29	0.999041	398623.9	-513215.9	1	649839.7	-52.16288	2.507988E-010	0.0303971	5
