EXPLAIN
TAG	EISPOT
TITLE	LABEL	Potentiostatic EIS	Test &Identifier
DATE	LABEL	2/13/2020	Date
TIME	LABEL	13:37:26	Time
NOTES	NOTES	1	&Notes...
	
PSTAT	PSTAT	REF600-11020	Potentiostat
VDC	POTEN	0.00000E+000	T	DC &Voltage (V)
FREQINIT	QUANT	1.00000E+006	Initial Fre&q. (Hz)
FREQFINAL	QUANT	1.00000E+000	Final Fre&q. (Hz)
PTSPERDEC	QUANT	1.00000E+001	Points/&decade
VAC	QUANT	2.50000E+001	AC &Voltage (mV rms)
AREA	QUANT	5.00000E-004	&Area (cm^2)
CONDIT	TWOPARAM	F	1.50000E+001	0.00000E+000	Conditionin&g	Time(s)	E(V)
DELAY	TWOPARAM	F	1.00000E+002	0.00000E+000	Init. De&lay	Time(s)	Stab.(mV/s)
SPEED	SELECTOR	1	&Optimize for:
ZGUESS	QUANT	1.00000E+003	E&stimated Z (ohms)
OCVCURVE	TABLE	39
	Pt	T	Vf	Vm	Ach	Over
	#	s	V vs. Ref.	V	V	bits
	0	0.258333	-1.14016E-002	-1.14016E-002	5.82071E-004	...........
	1	0.516667	-1.14026E-002	-1.14529E-002	5.85604E-004	...........
	2	0.775	-1.14082E-002	-1.14807E-002	5.88471E-004	...........
	3	1.03333	-1.14225E-002	-1.14936E-002	5.84337E-004	...........
	4	1.29167	-1.14440E-002	-1.14841E-002	5.81337E-004	...........
	5	1.55	-1.14654E-002	-1.14993E-002	5.81037E-004	...........
	6	1.80833	-1.14803E-002	-1.14684E-002	5.81771E-004	...........
	7	2.06667	-1.14860E-002	-1.14433E-002	5.81171E-004	...........
	8	2.325	-1.14820E-002	-1.14513E-002	5.79571E-004	...........
	9	2.58333	-1.14708E-002	-1.14205E-002	5.82071E-004	...........
	10	2.84167	-1.14573E-002	-1.14493E-002	5.80771E-004	...........
	11	3.1	-1.14466E-002	-1.14512E-002	5.86171E-004	...........
	12	3.35833	-1.14421E-002	-1.14588E-002	5.83904E-004	...........
	13	3.61667	-1.14440E-002	-1.14585E-002	5.80871E-004	...........
	14	3.875	-1.14494E-002	-1.14743E-002	5.81771E-004	...........
	15	4.13333	-1.14557E-002	-1.14603E-002	5.80637E-004	...........
	16	4.39167	-1.14607E-002	-1.14567E-002	5.82771E-004	...........
	17	4.65	-1.14630E-002	-1.14584E-002	5.80971E-004	...........
	18	4.90833	-1.14624E-002	-1.14616E-002	5.82437E-004	...........
	19	5.16667	-1.14608E-002	-1.14628E-002	5.85704E-004	...........
	20	5.425	-1.14602E-002	-1.14628E-002	5.80837E-004	...........
	21	5.68333	-1.14608E-002	-1.14660E-002	5.85637E-004	...........
	22	5.94167	-1.14622E-002	-1.14749E-002	5.84304E-004	...........
	23	6.2	-1.14645E-002	-1.14757E-002	5.84004E-004	...........
	24	6.45833	-1.14679E-002	-1.14780E-002	5.82271E-004	...........
	25	6.71667	-1.14717E-002	-1.14834E-002	5.79904E-004	...........
	26	6.975	-1.14753E-002	-1.14826E-002	5.82604E-004	...........
	27	7.23333	-1.14784E-002	-1.14816E-002	5.79337E-004	...........
	28	7.49167	-1.14808E-002	-1.14891E-002	5.79571E-004	...........
	29	7.75	-1.14827E-002	-1.14914E-002	5.82404E-004	...........
	30	8.00833	-1.14848E-002	-1.14929E-002	5.84571E-004	...........
	31	8.26667	-1.14875E-002	-1.14951E-002	5.85937E-004	...........
	32	8.525	-1.14903E-002	-1.14999E-002	5.81804E-004	...........
	33	8.78333	-1.14930E-002	-1.14996E-002	5.84037E-004	...........
	34	9.04167	-1.14957E-002	-1.15064E-002	5.82771E-004	...........
	35	9.3	-1.14992E-002	-1.15442E-002	5.82637E-004	...........
	36	9.5583	-1.15054E-002	-1.15277E-002	5.80737E-004	...........
	37	9.8167	-1.15155E-002	-1.15735E-002	5.85337E-004	...........
	38	10.075	-1.15304E-002	-1.16720E-002	5.81104E-004	...........
EOC	QUANT	-0.0115304	Open Circuit (V)
PSTATMODEL	IQUANT	4	Pstat Model
PSTATSECTION	LABEL	REF600-11020	Pstat Section
PSTATSERIALNO	LABEL	11020	Pstat Serial Number
CTRLMODE	IQUANT	1	Control Mode
IESTAB	IQUANT	0	I/E Stability
CASPEED	IQUANT	1	Control Amp Speed
CONVENTION	IQUANT	1	Current Convention
ICHRANGE	IQUANT	2	Ich Range
ICHRANGEMODE	TOGGLE	F	Ich Auto Range
ICHOFFSETENABLE	TOGGLE	T	Ich Offset Enable
ICHOFFSET	QUANT	0	Ich Offset (V)
ICHFILTER	IQUANT	3	Ich Filter
VCHRANGE	IQUANT	2	Vch Range
VCHRANGEMODE	TOGGLE	F	Vch Auto Range
VCHOFFSETENABLE	TOGGLE	T	Vch Offset Enable
VCHOFFSET	QUANT	0	Vch Offset (V)
VCHFILTER	IQUANT	3	Vch Filter
ACHRANGE	IQUANT	2	Ach Range
ACHOFFSETENABLE	TOGGLE	F	Ach Offset Enable
ACHOFFSET	QUANT	0	Ach Offset (V)
ACHFILTER	IQUANT	3	Ach Filter
IERANGELOWERLIMIT	IQUANT	1	I/E Range Lower Limit
IERANGEMODE	TOGGLE	F	I/E AutoRange
IERANGE	IQUANT	7	I/E Range
POSFEEDENABLE	TOGGLE	F	Positive Feedback IR Comp
POSFEEDRESISTANCE	QUANT	0	Positive Feedback Resistance (ohm)
ACHSELECT	IQUANT	0	Ach Select
CABLEID	IQUANT	14	Cable ID
DCCALDATE	LABEL	1/27/2020	DC Calibration Date
ACCALDATE	LABEL	1/27/2020	AC Calibration Date
THERMOSELECT	IQUANT	1	Thermo Select
FRAMEWORKVERSION	QUANT	6.33	Framework Version
INSTRUMENTVERSION	LABEL	3.50	Instrument Version
ZCURVE	TABLE
	Pt	Time	Freq	Zreal	Zimag	Zsig	Zmod	Zphz	Idc	Vdc	IERange
	#	s	Hz	ohm	ohm	V	ohm	°	A	V	#
	0	1	1000078	2143.95	-2150.696	1	3036.777	-45.09	3.279239E-006	-0.0099493	8
	1	3	794390.6	2581.873	-2233.063	1	3413.596	-40.85654	-4.193093E-007	-0.0097466	8
	2	4	630984.4	3034.986	-2268.071	1	3788.837	-36.77107	2.290455E-006	-0.0103165	8
	3	5	501234.4	3501.43	-2207.436	1	4139.177	-32.2289	1.53242E-006	-0.0101526	8
	4	7	398109.4	3913.865	-2081.16	1	4432.783	-28.00139	6.025535E-007	-0.0101477	8
	5	8	316265.6	4271.272	-1906.975	1	4677.64	-24.05911	-7.418822E-007	-0.0098491	8
	6	10	251203.1	4582.494	-1766.446	1	4911.169	-21.0805	-6.074376E-007	-0.0098726	8
	7	11	199546.9	4837.771	-1569.152	1	5085.89	-17.9707	3.383634E-006	-0.0105575	8
	8	12	158578.1	5013.746	-1388.694	1	5202.51	-15.48152	-2.944602E-006	-0.0093862	8
	9	14	125953.1	5208.402	-1184.387	1	5341.369	-12.81116	4.836536E-008	-0.0099123	7
	10	15	100078.1	5322.726	-1054.595	1	5426.194	-11.20691	-2.919853E-008	-0.0099781	7
	11	17	79453.13	5425.097	-954.197	1	5508.373	-9.97548	-3.589161E-008	-0.0099472	7
	12	18	63140.62	5509.92	-879.7591	1	5579.713	-9.071741	3.352408E-008	-0.0100316	7
	13	19	50203.12	5586.023	-826.4501	1	5646.829	-8.41584	-2.783896E-008	-0.0099952	7
	14	21	39890.62	5654.724	-795.0222	1	5710.338	-8.003006	-2.358525E-008	-0.0099025	7
	15	22	31640.63	5723.399	-784.3327	1	5776.891	-7.803189	2.361024E-008	-0.0100885	7
	16	23	25171.88	5788.665	-794.8587	1	5842.982	-7.818559	-2.369872E-009	-0.009909	7
	17	25	20015.62	5852.702	-824.3401	1	5910.47	-8.017246	2.222722E-008	-0.0100872	7
	18	26	15890.62	5922.874	-877.5573	1	5987.532	-8.427863	8.072654E-008	-0.0101417	7
	19	27	12609.37	5997.379	-950.861	1	6072.289	-9.00903	7.541223E-008	-0.0101557	7
	20	29	10078.13	6075.763	-1049.837	1	6165.797	-9.80339	4.957404E-008	-0.0101401	7
	21	30	8015.625	6167.15	-1170.474	1	6277.241	-10.74645	-3.177974E-008	-0.0099966	7
	22	31	6328.125	6265.075	-1334.983	1	6405.727	-12.02888	7.325001E-009	-0.0100769	7
	23	33	5015.625	6375.249	-1529.1	1	6556.062	-13.48757	-4.298636E-009	-0.0099671	7
	24	34	3984.375	6495.156	-1765.066	1	6730.713	-15.20305	-3.289033E-008	-0.0099821	7
	25	36	3170.956	6631.073	-2049.919	1	6940.698	-17.17838	-2.175632E-008	-0.009906	7
	26	37	2527.573	6786.874	-2388.927	1	7195.042	-19.39167	3.450414E-008	-0.0100399	7
	27	38	1976.103	6975.804	-2840.955	1	7532.122	-22.15903	-2.454889E-008	-0.0099013	7
	28	40	1577.524	7177.846	-3330.641	1	7912.941	-24.89209	2.425776E-008	-0.0100874	7
	29	41	1265.625	7398.387	-3916.289	1	8370.988	-27.89422	2.593892E-008	-0.0100888	7
	30	42	998.264	7678.923	-4674.965	1	8990.06	-31.33326	-4.925146E-008	-0.0099419	7
	31	44	796.875	7984.247	-5538.174	1	9716.97	-34.74664	-4.774418E-011	-0.0100193	6
	32	45	627.7902	8367.325	-6655.2	1	10691.3	-38.49802	5.317812E-009	-0.010191	6
	33	47	505.5147	8769.423	-7882.536	1	11791.4	-41.95129	-8.512704E-009	-0.0099478	6
	34	48	397.9953	9288.69	-9512.99	1	13295.74	-45.68349	1.266928E-009	-0.0100036	6
	35	49	315.5048	9891.2	-11444.03	1	15126.19	-49.16277	1.899452E-009	-0.0100054	6
	36	51	252.4038	10595.42	-13691.8	1	17312.66	-52.26546	2.285881E-009	-0.0100112	6
	37	52	198.6229	11507.81	-16612.8	1	20209.27	-55.28936	1.758855E-009	-0.0100142	6
	38	53	158.3615	12567.44	-19970.42	1	23595.73	-57.81768	3.049673E-009	-0.0100091	6
	39	55	125.558	13916.8	-24117.91	1	27845.12	-60.01369	1.651186E-009	-0.0100091	6
	40	56	100.4464	15501.78	-28902.53	1	32797.27	-61.79326	1.804649E-009	-0.0100086	6
	41	57	79.00281	17698.6	-35190.49	1	39390.49	-63.30048	1.71569E-009	-0.0100148	6
	42	59	63.3446	19849.72	-42229.87	1	46662.34	-64.82461	7.660347E-010	-0.0100211	6
	43	60	49.86702	23592.85	-50488.77	1	55729.15	-64.95383	5.749177E-010	-0.0100205	6
	44	62	39.72458	27723.88	-60741.3	1	66769.15	-65.46684	1.127527E-009	-0.0100167	6
	45	63	31.6723	32778.22	-72728.27	1	79773.52	-65.73918	1.940097E-009	-0.010016	6
	46	64	24.93351	39742.31	-87288.57	1	95910.1	-65.52032	-1.118868E-009	-0.0100162	6
	47	66	19.86229	48183.45	-103602.9	1	114259.4	-65.05788	4.585033E-010	-0.0100122	5
	48	67	15.83615	57668.12	-123350.6	1	136165.3	-64.94325	1.949576E-009	-0.0100213	5
	49	69	12.40079	71686.3	-145111.4	1	161852.5	-63.71022	5.539759E-010	-0.0100182	5
	50	70	9.93114	88552.09	-169630.9	1	191353.4	-62.43417	-1.351104E-010	-0.0100125	5
	51	72	7.944915	108327.3	-197191.9	1	224987.7	-61.21783	1.987104E-010	-0.0100194	5
	52	73	6.317385	132794.6	-227091.1	1	263068	-59.68245	2.791926E-010	-0.0100227	5
	53	75	5.008013	161503.8	-260101.2	1	306163.5	-58.16275	-1.002939E-010	-0.0100138	5
	54	78	3.945707	196684.4	-297974.1	1	357034.1	-56.57232	3.147695E-010	-0.0100109	5
	55	80	3.158693	233907.9	-335547.8	1	409029.6	-55.11993	-4.071958E-011	-0.0100315	5
	56	84	2.504006	277580.2	-377513.8	1	468580.2	-53.67351	5.582287E-010	-0.0100107	5
	57	86	1.998082	324643.9	-421751.8	1	532229.5	-52.41269	4.261731E-010	-0.0099895	5
	58	90	1.584686	377429.3	-469670.9	1	602531	-51.21451	2.805437E-010	-0.0100502	5
	59	93	1.266892	432604.2	-523624.4	1	679212	-50.43741	3.489999E-010	-0.0099857	5
	60	97	0.999041	495786.9	-585834.6	1	767467.8	-49.75904	-7.090867E-011	-0.0100562	5
