EXPLAIN
TAG	EISPOT
TITLE	LABEL	Potentiostatic EIS	Test &Identifier
DATE	LABEL	3/17/2020	Date
TIME	LABEL	15:29:32	Time
NOTES	NOTES	1	&Notes...
	
PSTAT	PSTAT	REF600-11020	Potentiostat
VDC	POTEN	0.00000E+000	T	DC &Voltage (V)
FREQINIT	QUANT	1.00000E+006	Initial Fre&q. (Hz)
FREQFINAL	QUANT	1.00000E+000	Final Fre&q. (Hz)
PTSPERDEC	QUANT	1.00000E+001	Points/&decade
VAC	QUANT	2.50000E+001	AC &Voltage (mV rms)
AREA	QUANT	4.00000E-004	&Area (cm^2)
CONDIT	TWOPARAM	F	5.00000E+000	0.00000E+000	Conditionin&g	Time(s)	E(V)
DELAY	TWOPARAM	T	3.00000E+000	0.00000E+000	Init. De&lay	Time(s)	Stab.(mV/s)
SPEED	SELECTOR	0	&Optimize for:
ZGUESS	QUANT	5.00000E+003	E&stimated Z (ohms)
OCVCURVE	TABLE	12
	Pt	T	Vf	Vm	Ach	Over
	#	s	V vs. Ref.	V	V	bits
	0	0.258333	-4.81005E-003	-4.81005E-003	6.43629E-004	...........
	1	0.516667	-4.80988E-003	-4.80101E-003	6.45729E-004	...........
	2	0.775	-4.80884E-003	-4.79346E-003	6.50196E-004	...........
	3	1.03333	-4.80606E-003	-4.79154E-003	6.53962E-004	...........
	4	1.29167	-4.80165E-003	-4.78956E-003	6.48696E-004	...........
	5	1.55	-4.79680E-003	-4.78376E-003	6.40629E-004	...........
	6	1.80833	-4.79243E-003	-4.78155E-003	6.45496E-004	...........
	7	2.06667	-4.78861E-003	-4.78045E-003	6.42796E-004	...........
	8	2.325	-4.78537E-003	-4.78176E-003	6.50929E-004	...........
	9	2.58333	-4.78302E-003	-4.78175E-003	6.48762E-004	...........
	10	2.84167	-4.78181E-003	-4.78332E-003	6.51629E-004	...........
	11	3.1	-4.78165E-003	-4.78571E-003	6.44562E-004	...........
EOC	QUANT	-0.0047817	Open Circuit (V)
PSTATMODEL	IQUANT	4	Pstat Model
PSTATSECTION	LABEL	REF600-11020	Pstat Section
PSTATSERIALNO	LABEL	11020	Pstat Serial Number
CTRLMODE	IQUANT	1	Control Mode
IESTAB	IQUANT	0	I/E Stability
CASPEED	IQUANT	1	Control Amp Speed
CONVENTION	IQUANT	1	Current Convention
ICHRANGE	IQUANT	2	Ich Range
ICHRANGEMODE	TOGGLE	F	Ich Auto Range
ICHOFFSETENABLE	TOGGLE	T	Ich Offset Enable
ICHOFFSET	QUANT	0	Ich Offset (V)
ICHFILTER	IQUANT	3	Ich Filter
VCHRANGE	IQUANT	2	Vch Range
VCHRANGEMODE	TOGGLE	F	Vch Auto Range
VCHOFFSETENABLE	TOGGLE	T	Vch Offset Enable
VCHOFFSET	QUANT	0	Vch Offset (V)
VCHFILTER	IQUANT	3	Vch Filter
ACHRANGE	IQUANT	2	Ach Range
ACHOFFSETENABLE	TOGGLE	F	Ach Offset Enable
ACHOFFSET	QUANT	0	Ach Offset (V)
ACHFILTER	IQUANT	3	Ach Filter
IERANGELOWERLIMIT	IQUANT	1	I/E Range Lower Limit
IERANGEMODE	TOGGLE	F	I/E AutoRange
IERANGE	IQUANT	6	I/E Range
POSFEEDENABLE	TOGGLE	F	Positive Feedback IR Comp
POSFEEDRESISTANCE	QUANT	0	Positive Feedback Resistance (ohm)
ACHSELECT	IQUANT	0	Ach Select
CABLEID	IQUANT	14	Cable ID
DCCALDATE	LABEL	2/27/2020	DC Calibration Date
ACCALDATE	LABEL	2/27/2020	AC Calibration Date
THERMOSELECT	IQUANT	1	Thermo Select
FRAMEWORKVERSION	QUANT	6.33	Framework Version
INSTRUMENTVERSION	LABEL	3.50	Instrument Version
ZCURVE	TABLE
	Pt	Time	Freq	Zreal	Zimag	Zsig	Zmod	Zphz	Idc	Vdc	IERange
	#	s	Hz	ohm	ohm	V	ohm	°	A	V	#
	0	1	1000078	2427.019	-6894.366	1	7309.083	-70.60644	-6.990819E-009	-0.0023469	8
	1	1	794390.6	3144.756	-8299.635	1	8875.439	-69.24815	4.869056E-008	-0.0026957	8
	2	1	630984.4	4101.851	-9940.81	1	10753.83	-67.57761	3.074251E-008	-0.0028546	8
	3	2	501234.4	5428.157	-11754.93	1	12947.71	-65.21358	3.828602E-008	-0.0029808	8
	4	2	398109.4	7213.294	-13839.76	1	15606.75	-62.47144	4.229023E-008	-0.0030345	8
	5	2	316265.6	9335.067	-15801.36	1	18352.83	-59.42642	3.519909E-009	-0.003032	8
	6	3	251203.1	12031.48	-17890.34	1	21559.7	-56.07868	3.571253E-008	-0.0030728	8
	7	3	199546.9	15276.41	-19756.13	1	24973.46	-52.28705	2.863871E-008	-0.0030737	8
	8	3	158578.1	19095.14	-21332.38	1	28630.32	-48.16748	4.481431E-008	-0.003085	8
	9	4	125953.1	23723.11	-22128.23	1	32441.4	-43.00784	2.606795E-009	-0.003158	7
	10	4	100078.1	27885.47	-22624.67	1	35909.26	-39.05389	2.112434E-009	-0.0031544	7
	11	4	79453.13	32168.38	-22576.39	1	39300.1	-35.06192	1.162147E-009	-0.0031646	7
	12	5	63140.62	36250.99	-22093.98	1	42453.25	-31.36116	1.888496E-009	-0.0031582	7
	13	5	50203.12	39949.45	-21187.37	1	45220.16	-27.93945	1.268254E-009	-0.0031671	7
	14	5	39890.62	43529.04	-20024.23	1	47913.95	-24.70338	1.703626E-009	-0.0031732	7
	15	6	31640.63	46640.62	-18659.57	1	50234.72	-21.80493	2.628439E-009	-0.0031694	7
	16	6	25171.88	49172.21	-17522.14	1	52200.88	-19.61314	1.693938E-009	-0.0031657	7
	17	6	20015.62	51440.13	-16547.85	1	54036.27	-17.83253	1.52032E-009	-0.003161	7
	18	7	15890.62	53529.19	-15754.9	1	55799.56	-16.4004	2.067893E-009	-0.0031698	7
	19	7	12609.37	55914.71	-14210.23	1	57692.16	-14.25934	5.731267E-010	-0.0031151	6
	20	7	10078.13	57567.82	-13859.4	1	59212.64	-13.53631	4.928046E-010	-0.0031161	6
	21	7	8015.625	59160.89	-13747.97	1	60737.29	-13.08236	4.831674E-010	-0.0031167	6
	22	8	6328.125	60782.73	-13775.3	1	62324.15	-12.76934	5.469875E-010	-0.003124	6
	23	8	5015.625	62459.82	-13864.16	1	63980.03	-12.515	5.068418E-010	-0.0031265	6
	24	8	3984.375	64082.23	-14135.45	1	65622.73	-12.43927	4.867294E-010	-0.003125	6
	25	9	3170.956	65777.89	-14476.51	1	67352.06	-12.41189	3.874205E-010	-0.0031165	6
	26	9	2527.573	67409.09	-15135.68	1	69087.44	-12.655	4.869177E-010	-0.0031252	6
	27	9	1976.103	69276.63	-16010.91	1	71102.74	-13.01346	4.750406E-010	-0.0031246	6
	28	10	1577.524	71039.33	-17019.36	1	73049.61	-13.4728	4.40476E-010	-0.0031234	6
	29	10	1265.625	72832.91	-18213.84	1	75075.81	-14.0404	4.732912E-010	-0.0031338	6
	30	10	998.264	74815.79	-19848.4	1	77403.88	-14.85812	3.650037E-010	-0.0031311	6
	31	11	796.875	76808.98	-21789.01	1	79839.72	-15.83747	3.973145E-010	-0.0031317	6
	32	11	627.7902	79025.2	-24319.54	1	82682.66	-17.10544	5.004546E-010	-0.0031257	6
	33	11	505.5147	81251.37	-27101.23	1	85651.98	-18.44602	3.757949E-010	-0.0031335	6
	34	12	397.9953	83913.68	-30834.16	1	89399.39	-20.1759	4.457417E-010	-0.0031149	6
	35	12	315.5048	87006.23	-34720.68	1	93678.22	-21.75495	1.255277E-010	-0.0031107	5
	36	12	252.4038	90155.38	-39838.23	1	98565.1	-23.83987	1.27031E-010	-0.0031163	5
	37	13	198.6229	94045.6	-46359.37	1	104851.2	-26.24079	1.378906E-010	-0.0031134	5
	38	13	158.3615	98297.9	-53657.65	1	111989.4	-28.62869	8.592721E-011	-0.0031176	5
	39	13	125.558	103362.4	-62498.75	1	120788.5	-31.15954	6.231114E-011	-0.0031155	5
	40	14	100.4464	109035.1	-72443.79	1	130907.4	-33.60039	1.319964E-010	-0.0031187	5
	41	14	79.00281	116218.5	-85028.9	1	144002.3	-36.19031	1.440373E-010	-0.0031186	5
	42	14	63.3446	123980.3	-98594	1	158404.2	-38.4931	1.737721E-010	-0.0031206	5
	43	15	49.86702	133893.2	-115812.6	1	177031	-40.85858	9.438589E-011	-0.0031232	5
	44	15	39.72458	145101.8	-134983.1	1	198179.1	-42.93096	1.43861E-010	-0.0031239	5
	45	15	31.6723	158342.7	-157227	1	223142.9	-44.79742	1.433331E-011	-0.003123	5
	46	16	24.93351	175152.8	-184479.6	1	254384	-46.48559	3.1484E-010	-0.0031249	5
	47	16	19.86229	194225.6	-214441.5	1	289324.6	-47.83199	3.578727E-010	-0.0031248	5
	48	16	15.83615	216975.5	-248840.1	1	330151.1	-48.91328	1.020823E-010	-0.0031242	5
	49	16	12.40079	246671.3	-290799.7	1	381328.2	-49.69367	5.770475E-010	-0.0031235	5
	50	17	9.93114	278321.8	-334833.4	1	435403.7	-50.26581	3.752172E-010	-0.0031199	5
	51	17	7.944915	315913.2	-383720	1	497033.4	-50.53568	-2.564312E-010	-0.0031216	5
	52	18	6.317385	361620.9	-440552.4	1	569961.5	-50.61965	3.053373E-010	-0.0031386	5
	53	18	5.008013	415770.9	-505077.3	1	654193.1	-50.53938	3.739411E-010	-0.0031217	5
	54	19	3.945707	480146.4	-577579.3	1	751091.4	-50.26297	1.111983E-010	-0.0031398	5
	55	20	3.158693	549995	-653538.9	1	854170.8	-49.91723	2.932106E-010	-0.0031263	5
	56	21	2.504006	632269.3	-739780.6	1	973160	-49.48044	1.962025E-010	-0.0031258	5
	57	22	1.998082	725567.8	-834015.7	1	1105455	-48.97775	8.054594E-011	-0.0031668	4
	58	24	1.584686	829697.1	-938310.2	1	1252527	-48.51541	1.254915E-010	-0.0031246	4
	59	26	1.266892	947515.4	-1049153	1	1413686	-47.91405	1.631533E-010	-0.0030999	4
	60	28	0.999041	1087887	-1181837	1	1606312	-47.37027	1.87436E-010	-0.0030949	4
