EXPLAIN
TAG	EISPOT
TITLE	LABEL	Potentiostatic EIS	Test &Identifier
DATE	LABEL	2/18/2020	Date
TIME	LABEL	16:41:12	Time
NOTES	NOTES	1	&Notes...
	
PSTAT	PSTAT	REF600-11020	Potentiostat
VDC	POTEN	0.00000E+000	T	DC &Voltage (V)
FREQINIT	QUANT	1.00000E+006	Initial Fre&q. (Hz)
FREQFINAL	QUANT	1.00000E+000	Final Fre&q. (Hz)
PTSPERDEC	QUANT	1.00000E+001	Points/&decade
VAC	QUANT	2.50000E+001	AC &Voltage (mV rms)
AREA	QUANT	1.60000E-004	&Area (cm^2)
CONDIT	TWOPARAM	F	1.50000E+001	0.00000E+000	Conditionin&g	Time(s)	E(V)
DELAY	TWOPARAM	F	1.00000E+002	0.00000E+000	Init. De&lay	Time(s)	Stab.(mV/s)
SPEED	SELECTOR	1	&Optimize for:
ZGUESS	QUANT	1.00000E+003	E&stimated Z (ohms)
OCVCURVE	TABLE	39
	Pt	T	Vf	Vm	Ach	Over
	#	s	V vs. Ref.	V	V	bits
	0	0.258333	7.20578E-003	7.20578E-003	5.69338E-004	...........
	1	0.516667	7.20530E-003	7.18031E-003	5.68071E-004	...........
	2	0.775	7.20257E-003	7.16983E-003	5.70104E-004	...........
	3	1.03333	7.19562E-003	7.15423E-003	5.67104E-004	...........
	4	1.29167	7.18426E-003	7.13192E-003	5.65771E-004	...........
	5	1.55	7.16979E-003	7.12126E-003	5.66771E-004	...........
	6	1.80833	7.15389E-003	7.11374E-003	5.62871E-004	...........
	7	2.06667	7.13828E-003	7.09096E-003	5.68038E-004	...........
	8	2.325	7.12377E-003	7.08396E-003	5.65704E-004	...........
	9	2.58333	7.11000E-003	7.07161E-003	5.64171E-004	...........
	10	2.84167	7.09684E-003	7.06227E-003	5.68371E-004	...........
	11	3.1	7.08462E-003	7.05266E-003	5.74971E-004	...........
	12	3.35833	7.07350E-003	7.04412E-003	5.67338E-004	...........
	13	3.61667	7.06330E-003	7.03522E-003	5.64338E-004	...........
	14	3.875	7.05384E-003	7.02876E-003	5.67904E-004	...........
	15	4.13333	7.04493E-003	7.01629E-003	5.68738E-004	...........
	16	4.39167	7.03622E-003	7.00740E-003	5.61104E-004	...........
	17	4.65	7.02727E-003	6.99924E-003	5.62838E-004	...........
	18	4.90833	7.01806E-003	6.99172E-003	5.63438E-004	...........
	19	5.16667	7.00900E-003	6.98399E-003	5.65138E-004	...........
	20	5.425	7.00049E-003	6.97937E-003	5.61738E-004	...........
	21	5.68333	6.99269E-003	6.97130E-003	5.61104E-004	...........
	22	5.94167	6.98568E-003	6.97117E-003	5.65038E-004	...........
	23	6.2	6.97961E-003	6.96841E-003	5.62804E-004	...........
	24	6.45833	6.97462E-003	6.95767E-003	5.60204E-004	...........
	25	6.71667	6.97033E-003	6.96124E-003	5.63938E-004	...........
	26	6.975	6.96597E-003	6.93917E-003	5.64804E-004	...........
	27	7.23333	6.95697E-003	6.74591E-003	5.65138E-004	...........
	28	7.49167	6.93365E-003	6.87388E-003	5.64004E-004	...........
	29	7.75	6.89798E-003	6.92207E-003	5.62371E-004	...........
	30	8.00833	6.87280E-003	6.94642E-003	5.62938E-004	...........
	31	8.26667	6.87530E-003	6.92953E-003	5.61071E-004	...........
	32	8.525	6.89630E-003	6.91645E-003	5.60038E-004	...........
	33	8.78333	6.91478E-003	6.85880E-003	5.65438E-004	...........
	34	9.04167	6.91715E-003	6.84872E-003	5.63471E-004	...........
	35	9.3	6.90242E-003	6.82449E-003	5.57304E-004	...........
	36	9.5583	6.87883E-003	6.84384E-003	5.57404E-004	...........
	37	9.8167	6.85745E-003	6.85901E-003	5.62838E-004	...........
	38	10.075	6.84609E-003	6.86125E-003	5.62371E-004	...........
EOC	QUANT	0.0068461	Open Circuit (V)
PSTATMODEL	IQUANT	4	Pstat Model
PSTATSECTION	LABEL	REF600-11020	Pstat Section
PSTATSERIALNO	LABEL	11020	Pstat Serial Number
CTRLMODE	IQUANT	1	Control Mode
IESTAB	IQUANT	0	I/E Stability
CASPEED	IQUANT	1	Control Amp Speed
CONVENTION	IQUANT	1	Current Convention
ICHRANGE	IQUANT	2	Ich Range
ICHRANGEMODE	TOGGLE	F	Ich Auto Range
ICHOFFSETENABLE	TOGGLE	T	Ich Offset Enable
ICHOFFSET	QUANT	0	Ich Offset (V)
ICHFILTER	IQUANT	3	Ich Filter
VCHRANGE	IQUANT	2	Vch Range
VCHRANGEMODE	TOGGLE	F	Vch Auto Range
VCHOFFSETENABLE	TOGGLE	T	Vch Offset Enable
VCHOFFSET	QUANT	0	Vch Offset (V)
VCHFILTER	IQUANT	3	Vch Filter
ACHRANGE	IQUANT	2	Ach Range
ACHOFFSETENABLE	TOGGLE	F	Ach Offset Enable
ACHOFFSET	QUANT	0	Ach Offset (V)
ACHFILTER	IQUANT	3	Ach Filter
IERANGELOWERLIMIT	IQUANT	1	I/E Range Lower Limit
IERANGEMODE	TOGGLE	F	I/E AutoRange
IERANGE	IQUANT	7	I/E Range
POSFEEDENABLE	TOGGLE	F	Positive Feedback IR Comp
POSFEEDRESISTANCE	QUANT	0	Positive Feedback Resistance (ohm)
ACHSELECT	IQUANT	0	Ach Select
CABLEID	IQUANT	14	Cable ID
DCCALDATE	LABEL	1/27/2020	DC Calibration Date
ACCALDATE	LABEL	1/27/2020	AC Calibration Date
THERMOSELECT	IQUANT	1	Thermo Select
FRAMEWORKVERSION	QUANT	6.33	Framework Version
INSTRUMENTVERSION	LABEL	3.50	Instrument Version
ZCURVE	TABLE
	Pt	Time	Freq	Zreal	Zimag	Zsig	Zmod	Zphz	Idc	Vdc	IERange
	#	s	Hz	ohm	ohm	V	ohm	°	A	V	#
	0	2	1000078	1453.444	-1685.491	1	2225.619	-49.22793	3.440183E-006	0.0083335	8
	1	3	794390.6	1684.135	-1875.111	1	2520.387	-48.07133	-2.501036E-006	0.0089873	8
	2	5	630984.4	1942.394	-2076.628	1	2843.463	-46.91296	-2.953493E-006	0.0092955	8
	3	6	501234.4	2231.993	-2291.302	1	3198.727	-45.75121	4.380991E-007	0.0084347	8
	4	7	398109.4	2553.829	-2531.238	1	3595.721	-44.74546	9.274893E-008	0.0083329	8
	5	9	316265.6	2924.11	-2797.535	1	4046.804	-43.73271	-2.724861E-007	0.0083705	8
	6	10	251203.1	3363.653	-3064.781	1	4550.499	-42.33811	-5.288044E-007	0.0083818	8
	7	11	199546.9	3859.785	-3338.346	1	5103.185	-40.85668	1.736739E-006	0.0080164	8
	8	13	158578.1	4375.87	-3589.505	1	5659.751	-39.36186	3.213361E-006	0.0078692	8
	9	14	125953.1	5045.946	-3830.48	1	6335.152	-37.20287	7.079082E-007	0.0070887	7
	10	16	100078.1	5675.362	-3996.821	1	6941.492	-35.15477	-9.925643E-009	0.0083371	7
	11	17	79453.13	6377.685	-4146.632	1	7607.195	-33.03105	5.632088E-008	0.0081844	7
	12	18	63140.62	7101.914	-4239.209	1	8270.918	-30.83344	6.234981E-009	0.0083189	7
	13	20	50203.12	7837.036	-4272.36	1	8925.928	-28.59701	9.715473E-008	0.0081559	7
	14	21	39890.62	8550.228	-4236.601	1	9542.28	-26.35822	4.380985E-009	0.0082365	7
	15	23	31640.63	9254.064	-4166.549	1	10148.79	-24.23917	-2.951762E-008	0.0083281	7
	16	24	25171.88	9912.84	-4056.794	1	10710.84	-22.25665	-2.999371E-008	0.0083286	7
	17	26	20015.62	10516.89	-3916.998	1	11222.65	-20.42777	4.256979E-009	0.0082326	7
	18	27	15890.62	11087.62	-3783.934	1	11715.53	-18.84351	9.772418E-008	0.0081453	7
	19	29	12609.37	11624.91	-3619.72	1	12175.42	-17.29534	-2.084696E-009	0.008283	6
	20	31	10078.13	12080.4	-3521.448	1	12583.19	-16.25145	-2.570201E-009	0.0083608	6
	21	32	8015.625	12508.34	-3452.14	1	12975.97	-15.42881	1.771695E-009	0.0082269	6
	22	34	6328.125	12933.7	-3429.113	1	13380.56	-14.84919	2.43631E-009	0.0083035	6
	23	35	5015.625	13330.03	-3449.554	1	13769.14	-14.50876	5.590384E-009	0.0082732	6
	24	37	3984.375	13733.2	-3523.386	1	14177.97	-14.38944	-2.607911E-009	0.0083517	6
	25	38	3170.956	14141.81	-3645.265	1	14604.06	-14.45421	-2.454766E-009	0.0083496	6
	26	40	2527.573	14547.63	-3807.734	1	15037.7	-14.66769	-3.100085E-009	0.0083233	6
	27	42	1976.103	15013.62	-4047.202	1	15549.56	-15.08654	3.549349E-009	0.0082911	6
	28	43	1577.524	15456.45	-4313.377	1	16047.03	-15.59263	-2.307556E-009	0.0082754	6
	29	45	1265.625	15895.36	-4640.982	1	16559.02	-16.27627	-4.852305E-011	0.0082493	6
	30	46	998.264	16401.59	-5072.872	1	17168.17	-17.18639	-5.910112E-009	0.0082956	6
	31	48	796.875	16905.08	-5571.074	1	17799.4	-18.23965	3.15306E-009	0.0082869	6
	32	49	627.7902	17462.31	-6208.736	1	18533.24	-19.57287	3.08669E-009	0.0082877	6
	33	51	505.5147	18011	-6906.958	1	19289.95	-20.98109	-1.819456E-009	0.0082561	6
	34	52	397.9953	18649.19	-7839.219	1	20229.82	-22.79953	9.778326E-010	0.0082887	6
	35	53	315.5048	19321.24	-8935.685	1	21287.48	-24.81959	9.174588E-010	0.0082799	6
	36	55	252.4038	20006.93	-10213.68	1	22463.23	-27.04464	8.659701E-010	0.0082777	6
	37	56	198.6229	20783.02	-11880.73	1	23939.21	-29.7547	1.108581E-009	0.0082744	6
	38	57	158.3615	21582.71	-13810.9	1	25623.32	-32.61541	1.262283E-009	0.008275	6
	39	59	125.558	22451.55	-16245.4	1	27712.54	-35.8886	1.171259E-009	0.0082826	6
	40	60	100.4464	23370.29	-19115.44	1	30192.22	-39.28103	1.05679E-009	0.0082768	6
	41	62	79.00281	24446.73	-22961.42	1	33539.08	-43.2055	1.035527E-009	0.0082771	6
	42	64	63.3446	25627.59	-27151.3	1	37335.86	-46.65365	7.107139E-010	0.0082761	6
	43	65	49.86702	27042.83	-33130.18	1	42765.91	-50.77663	7.688867E-010	0.0082717	6
	44	67	39.72458	28634.46	-40011.97	1	49202.54	-54.4107	8.397913E-010	0.0082796	6
	45	68	31.6723	30740.34	-48503.84	1	57424.66	-57.63465	1.083131E-009	0.0082739	6
	46	70	24.93351	33368.25	-59419.9	1	68148.11	-60.68287	6.444572E-010	0.0082768	6
	47	71	19.86229	36680.36	-72135.61	1	80925.86	-63.04704	8.666726E-010	0.0082857	6
	48	72	15.83615	40943.78	-87517.88	1	96621.8	-64.92825	5.212772E-010	0.0082754	6
	49	74	12.40079	46621.05	-108220.3	1	117835.3	-66.69374	-3.945482E-010	0.0082681	5
	50	75	9.93114	53721.75	-129870.9	1	140543.5	-67.52733	4.703149E-010	0.0082699	5
	51	77	7.944915	62451.47	-156516.6	1	168516	-68.24758	-1.225333E-010	0.0082672	5
	52	78	6.317385	73778.96	-188944.1	1	202837.9	-68.67033	3.986157E-010	0.0082616	5
	53	81	5.008013	88661.85	-228264.6	1	244878.8	-68.77298	2.686011E-010	0.008282	5
	54	83	3.945707	108058.9	-276409	1	296780.5	-68.64756	-1.339387E-011	0.0082658	5
	55	86	3.158693	130965.3	-329353.7	1	354437.3	-68.31509	2.607171E-010	0.0082898	5
	56	89	2.504006	161214.3	-394339.4	1	426020.6	-67.76422	-5.958926E-011	0.0082688	5
	57	92	1.998082	197722.8	-467291.2	1	507400.6	-67.06554	-3.12987E-011	0.0082672	5
	58	95	1.584686	246686.6	-554492.8	1	606890.8	-66.01634	1.576712E-010	0.0083248	5
	59	99	1.266892	302461.3	-649732.4	1	716683.3	-65.03723	-4.113794E-011	0.0082792	5
	60	103	0.999041	376658.8	-765756.1	1	853378.2	-63.80843	3.226558E-010	0.0082827	5
