EXPLAIN
TAG	EISPOT
TITLE	LABEL	Potentiostatic EIS	Test &Identifier
DATE	LABEL	2/21/2020	Date
TIME	LABEL	15:43:01	Time
NOTES	NOTES	1	&Notes...
	
PSTAT	PSTAT	REF600-11020	Potentiostat
VDC	POTEN	0.00000E+000	T	DC &Voltage (V)
FREQINIT	QUANT	1.00000E+006	Initial Fre&q. (Hz)
FREQFINAL	QUANT	1.00000E+000	Final Fre&q. (Hz)
PTSPERDEC	QUANT	1.00000E+001	Points/&decade
VAC	QUANT	2.50000E+001	AC &Voltage (mV rms)
AREA	QUANT	2.08200E-005	&Area (cm^2)
CONDIT	TWOPARAM	F	1.50000E+001	0.00000E+000	Conditionin&g	Time(s)	E(V)
DELAY	TWOPARAM	F	1.00000E+002	0.00000E+000	Init. De&lay	Time(s)	Stab.(mV/s)
SPEED	SELECTOR	1	&Optimize for:
ZGUESS	QUANT	2.00000E+003	E&stimated Z (ohms)
OCVCURVE	TABLE	39
	Pt	T	Vf	Vm	Ach	Over
	#	s	V vs. Ref.	V	V	bits
	0	0.258333	7.10601E-002	7.10601E-002	5.67538E-004	...........
	1	0.516667	7.10620E-002	7.11598E-002	5.68138E-004	...........
	2	0.775	7.10721E-002	7.11711E-002	5.67871E-004	...........
	3	1.03333	7.10961E-002	7.12169E-002	5.72738E-004	...........
	4	1.29167	7.11311E-002	7.12303E-002	5.68804E-004	...........
	5	1.55	7.11693E-002	7.13021E-002	5.71738E-004	...........
	6	1.80833	7.12055E-002	7.12328E-002	5.71271E-004	...........
	7	2.06667	7.12377E-002	7.14182E-002	5.66771E-004	...........
	8	2.325	7.12723E-002	7.15177E-002	5.68971E-004	...........
	9	2.58333	7.13209E-002	7.14025E-002	5.65471E-004	...........
	10	2.84167	7.13789E-002	7.15291E-002	5.68104E-004	...........
	11	3.1	7.14295E-002	7.15310E-002	5.66204E-004	...........
	12	3.35833	7.14695E-002	7.16370E-002	5.67204E-004	...........
	13	3.61667	7.15099E-002	7.16764E-002	5.65204E-004	...........
	14	3.875	7.15567E-002	7.16403E-002	5.62504E-004	...........
	15	4.13333	7.16024E-002	7.16616E-002	5.64204E-004	...........
	16	4.39167	7.16349E-002	7.16493E-002	5.65371E-004	...........
	17	4.65	7.16504E-002	7.16380E-002	5.70071E-004	...........
	18	4.90833	7.16535E-002	7.16412E-002	5.69438E-004	...........
	19	5.16667	7.16505E-002	7.16540E-002	5.63071E-004	...........
	20	5.425	7.16466E-002	7.16275E-002	5.59604E-004	...........
	21	5.68333	7.16439E-002	7.16400E-002	5.65138E-004	...........
	22	5.94167	7.16417E-002	7.16479E-002	5.61604E-004	...........
	23	6.2	7.16406E-002	7.16550E-002	5.61771E-004	...........
	24	6.45833	7.16424E-002	7.16613E-002	5.59304E-004	...........
	25	6.71667	7.16471E-002	7.16657E-002	5.60704E-004	...........
	26	6.975	7.16533E-002	7.16703E-002	5.58938E-004	...........
	27	7.23333	7.16595E-002	7.16796E-002	5.61271E-004	...........
	28	7.49167	7.16655E-002	7.16835E-002	5.64038E-004	...........
	29	7.75	7.16715E-002	7.16889E-002	5.69938E-004	...........
	30	8.00833	7.16774E-002	7.16945E-002	5.64738E-004	...........
	31	8.26667	7.16830E-002	7.16957E-002	5.59704E-004	...........
	32	8.525	7.16881E-002	7.16975E-002	5.62271E-004	...........
	33	8.78333	7.16921E-002	7.16984E-002	5.67438E-004	...........
	34	9.04167	7.16951E-002	7.17036E-002	5.66104E-004	...........
	35	9.3	7.16975E-002	7.17039E-002	5.67171E-004	...........
	36	9.5583	7.16997E-002	7.17067E-002	5.70738E-004	...........
	37	9.8167	7.17020E-002	7.17083E-002	5.63204E-004	...........
	38	10.075	7.17042E-002	7.17123E-002	5.62671E-004	...........
EOC	QUANT	0.0717042	Open Circuit (V)
PSTATMODEL	IQUANT	4	Pstat Model
PSTATSECTION	LABEL	REF600-11020	Pstat Section
PSTATSERIALNO	LABEL	11020	Pstat Serial Number
CTRLMODE	IQUANT	1	Control Mode
IESTAB	IQUANT	0	I/E Stability
CASPEED	IQUANT	1	Control Amp Speed
CONVENTION	IQUANT	1	Current Convention
ICHRANGE	IQUANT	2	Ich Range
ICHRANGEMODE	TOGGLE	F	Ich Auto Range
ICHOFFSETENABLE	TOGGLE	T	Ich Offset Enable
ICHOFFSET	QUANT	0	Ich Offset (V)
ICHFILTER	IQUANT	3	Ich Filter
VCHRANGE	IQUANT	2	Vch Range
VCHRANGEMODE	TOGGLE	F	Vch Auto Range
VCHOFFSETENABLE	TOGGLE	T	Vch Offset Enable
VCHOFFSET	QUANT	0	Vch Offset (V)
VCHFILTER	IQUANT	3	Vch Filter
ACHRANGE	IQUANT	2	Ach Range
ACHOFFSETENABLE	TOGGLE	F	Ach Offset Enable
ACHOFFSET	QUANT	0	Ach Offset (V)
ACHFILTER	IQUANT	3	Ach Filter
IERANGELOWERLIMIT	IQUANT	1	I/E Range Lower Limit
IERANGEMODE	TOGGLE	F	I/E AutoRange
IERANGE	IQUANT	7	I/E Range
POSFEEDENABLE	TOGGLE	F	Positive Feedback IR Comp
POSFEEDRESISTANCE	QUANT	0	Positive Feedback Resistance (ohm)
ACHSELECT	IQUANT	0	Ach Select
CABLEID	IQUANT	14	Cable ID
DCCALDATE	LABEL	1/27/2020	DC Calibration Date
ACCALDATE	LABEL	1/27/2020	AC Calibration Date
THERMOSELECT	IQUANT	1	Thermo Select
FRAMEWORKVERSION	QUANT	6.33	Framework Version
INSTRUMENTVERSION	LABEL	3.50	Instrument Version
ZCURVE	TABLE
	Pt	Time	Freq	Zreal	Zimag	Zsig	Zmod	Zphz	Idc	Vdc	IERange
	#	s	Hz	ohm	ohm	V	ohm	°	A	V	#
	0	1	1000078	1777.12	-1844.734	1	2561.484	-46.06949	-8.202326E-007	0.074181	8
	1	3	794390.6	2163.932	-1920.567	1	2893.299	-41.59021	-1.719612E-007	0.0738448	8
	2	4	630984.4	2565.3	-1923.32	1	3206.232	-36.86053	9.026109E-007	0.0733818	8
	3	5	501234.4	2944.464	-1865.636	1	3485.752	-32.35867	1.446134E-008	0.0733875	8
	4	7	398109.4	3287.678	-1746.2	1	3722.639	-27.97433	-7.897717E-009	0.0733701	8
	5	8	316265.6	3587.323	-1608.147	1	3931.287	-24.14603	3.140091E-007	0.0732465	8
	6	10	251203.1	3827.579	-1445.828	1	4091.55	-20.69353	1.179745E-007	0.0732783	8
	7	11	199546.9	4013.01	-1283.952	1	4213.405	-17.74193	1.89632E-007	0.0732488	8
	8	12	158578.1	4173.146	-1158.968	1	4331.092	-15.52106	1.551738E-006	0.0729945	8
	9	14	125953.1	4301.758	-1019.626	1	4420.945	-13.33448	-1.748538E-009	0.0732419	7
	10	15	100078.1	4402.464	-924.8644	1	4498.562	-11.8641	-9.748998E-009	0.073295	7
	11	16	79453.13	4484.585	-861.0543	1	4566.5	-10.8687	7.742424E-009	0.0732161	7
	12	18	63140.62	4557.798	-820.2842	1	4631.024	-10.20252	-9.058281E-009	0.0732544	7
	13	19	50203.12	4627.201	-801.8604	1	4696.165	-9.83131	-9.264566E-009	0.0732571	7
	14	20	39890.62	4695.597	-804.0284	1	4763.937	-9.71654	1.548412E-008	0.0732313	7
	15	22	31640.63	4766.808	-828.2246	1	4838.225	-9.85664	-3.866959E-009	0.0732817	7
	16	23	25171.88	4840.516	-871.6514	1	4918.371	-10.20808	-7.653415E-009	0.0732612	7
	17	25	20015.62	4920.786	-936.0873	1	5009.031	-10.77076	4.004441E-009	0.0732272	7
	18	26	15890.62	5009.254	-1023.021	1	5112.65	-11.54257	2.26023E-008	0.0732514	7
	19	27	12609.37	5108.769	-1132.001	1	5232.68	-12.49374	-1.825797E-008	0.0732698	7
	20	29	10078.13	5216.65	-1263.731	1	5367.537	-13.61754	2.134741E-008	0.0732473	7
	21	30	8015.625	5341.729	-1422.683	1	5527.937	-14.91361	-7.534637E-009	0.0732726	7
	22	31	6328.125	5486.13	-1619.041	1	5720.045	-16.44213	2.601211E-008	0.0731748	7
	23	33	5015.625	5647.953	-1847.101	1	5942.319	-18.10977	-1.845332E-008	0.0732632	7
	24	34	3984.375	5830.247	-2114.679	1	6201.906	-19.93613	-7.465951E-009	0.0732729	7
	25	35	3170.956	6034.886	-2424.038	1	6503.523	-21.8839	1.726445E-008	0.0732247	7
	26	37	2527.573	6264.866	-2780.649	1	6854.236	-23.93395	-1.749449E-008	0.0732717	7
	27	38	1976.103	6552.279	-3243.967	1	7311.339	-26.33955	4.161295E-008	0.0732032	7
	28	40	1577.524	6848.492	-3736.005	1	7801.255	-28.61345	1.047197E-008	0.073203	7
	29	41	1265.625	7176.556	-4306.025	1	8369.278	-30.96429	-7.315772E-009	0.0732708	7
	30	42	998.264	7581.347	-5018.363	1	9091.798	-33.50199	2.028475E-008	0.0731985	7
	31	44	796.875	8021.005	-5823.731	1	9912.23	-35.9819	6.035988E-010	0.0732029	6
	32	45	627.7902	8554.002	-6834.205	1	10948.85	-38.62305	-2.397044E-009	0.0732837	6
	33	46	505.5147	9110.832	-7913.468	1	12067.74	-40.97686	8.366303E-010	0.0732047	6
	34	48	397.9953	9813.93	-9323.901	1	13536.92	-43.53326	8.535139E-010	0.0732523	6
	35	49	315.5048	10610.54	-10952.64	1	15249.39	-45.90894	7.92915E-010	0.0732536	6
	36	51	252.4038	11493.81	-12803.53	1	17205.76	-48.08546	6.811783E-010	0.0732526	6
	37	52	198.6229	12598.14	-15164.05	1	19714.51	-50.28054	9.200781E-010	0.0732526	6
	38	53	158.3615	13817.57	-17811.41	1	22542.67	-52.19674	1.176449E-009	0.073247	6
	39	55	125.558	15267	-21031.3	1	25988.4	-54.02344	9.866881E-010	0.0732541	6
	40	56	100.4464	16901.58	-24689.4	1	29920.39	-55.60569	5.908816E-010	0.0732477	6
	41	57	79.00281	18921.13	-29297.48	1	34876.23	-57.1445	7.744205E-010	0.0732481	6
	42	59	63.3446	21198.76	-34424.22	1	40427.89	-58.37485	1.08295E-009	0.073251	6
	43	60	49.86702	23504.5	-41065.63	1	47316.46	-60.21472	6.854749E-010	0.0732442	6
	44	62	39.72458	26359.54	-48521.87	1	55219.53	-61.48695	9.044503E-010	0.0732526	6
	45	63	31.6723	29542.17	-57541	1	64681.58	-62.82354	8.17247E-010	0.0732519	6
	46	64	24.93351	33254.58	-69195.22	1	76771.38	-64.3315	6.257297E-010	0.0732481	6
	47	66	19.86229	37384.57	-82746.16	1	90799.41	-65.68663	4.945571E-010	0.0732568	6
	48	67	15.83615	42629.05	-99582.3	1	108323	-66.82528	-5.765365E-010	0.0732492	5
	49	69	12.40079	49283.75	-121229.1	1	130864	-67.87659	-4.815827E-010	0.0732547	5
	50	70	9.93114	56292.32	-145550.6	1	156057	-68.8558	2.526122E-010	0.0732469	5
	51	72	7.944915	65756.71	-174627.1	1	186597.4	-69.36589	-1.76034E-010	0.0732493	5
	52	73	6.317385	78030.7	-211307.7	1	225254.8	-69.73206	2.9484E-010	0.0732401	5
	53	75	5.008013	94341.6	-255963.1	1	272795.6	-69.76738	1.816314E-010	0.0732563	5
	54	78	3.945707	116108.6	-310262.6	1	331276.5	-69.4828	-2.427484E-011	0.0732422	5
	55	81	3.158693	142316.1	-370547.9	1	396937.8	-68.98975	2.767256E-010	0.073262	5
	56	84	2.504006	177825.2	-443974.2	1	478262.3	-68.17239	-1.08439E-010	0.0732435	5
	57	87	1.998082	221254.5	-526110.2	1	570741.2	-67.19092	9.275028E-011	0.0732052	5
	58	90	1.584686	278187.1	-621600	1	681010	-65.88986	9.336924E-011	0.0732843	5
	59	93	1.266892	345384.2	-728829.2	1	806524.8	-64.64424	1.851346E-011	0.0732279	5
	60	98	0.999041	435136.9	-855116.5	1	959463	-63.03016	2.878768E-010	0.0732843	5
