EXPLAIN
TAG	EISPOT
TITLE	LABEL	Potentiostatic EIS	Test &Identifier
DATE	LABEL	1/14/2020	Date
TIME	LABEL	17:19:06	Time
NOTES	NOTES	5	&Notes...
	
	
	
	
	
PSTAT	PSTAT	REF600-11020	Potentiostat
VDC	POTEN	0.00000E+000	T	DC &Voltage (V)
FREQINIT	QUANT	1.00000E+006	Initial Fre&q. (Hz)
FREQFINAL	QUANT	1.00000E+000	Final Fre&q. (Hz)
PTSPERDEC	QUANT	1.00000E+001	Points/&decade
VAC	QUANT	2.50000E+001	AC &Voltage (mV rms)
AREA	QUANT	1.00000E-001	&Area (cm^2)
CONDIT	TWOPARAM	T	5.00000E+000	0.00000E+000	Conditionin&g	Time(s)	E(V)
DELAY	TWOPARAM	T	5.00000E+000	0.00000E+000	Init. De&lay	Time(s)	Stab.(mV/s)
SPEED	SELECTOR	0	&Optimize for:
ZGUESS	QUANT	5.00000E+002	E&stimated Z (ohms)
OCVCURVE	TABLE	19
	Pt	T	Vf	Vm	Ach	Over
	#	s	V vs. Ref.	V	V	bits
	0	0.258333	2.69050E-003	2.69050E-003	6.37913E-004	...........
	1	0.516667	2.68503E-003	2.40375E-003	6.39113E-004	...........
	2	0.775	2.65200E-003	2.16377E-003	6.38313E-004	...........
	3	1.03333	2.56098E-003	1.95474E-003	6.39913E-004	...........
	4	1.29167	2.40406E-003	1.76593E-003	6.37880E-004	...........
	5	1.55	2.20525E-003	1.59760E-003	6.41246E-004	...........
	6	1.80833	1.99715E-003	1.43592E-003	6.39880E-004	...........
	7	2.06667	1.80016E-003	1.28642E-003	6.39680E-004	...........
	8	2.325	1.62043E-003	1.15161E-003	6.37113E-004	...........
	9	2.58333	1.45688E-003	1.02495E-003	6.36313E-004	...........
	10	2.84167	1.30708E-003	9.09332E-004	6.37280E-004	...........
	11	3.1	1.16902E-003	7.90673E-004	6.42613E-004	...........
	12	3.35833	1.04088E-003	6.98179E-004	6.41813E-004	...........
	13	3.61667	9.21811E-004	6.14452E-004	6.41313E-004	...........
	14	3.875	8.12409E-004	5.26129E-004	6.40746E-004	...........
	15	4.13333	7.12673E-004	4.36057E-004	6.38813E-004	...........
	16	4.39167	6.19927E-004	3.39909E-004	6.39246E-004	...........
	17	4.65	5.30059E-004	2.53838E-004	6.38980E-004	...........
	18	4.90833	4.40436E-004	1.69166E-004	6.38646E-004	...........
EOC	QUANT	0.0004404	Open Circuit (V)
PSTATMODEL	IQUANT	4	Pstat Model
PSTATSECTION	LABEL	REF600-11020	Pstat Section
PSTATSERIALNO	LABEL	11020	Pstat Serial Number
CTRLMODE	IQUANT	1	Control Mode
IESTAB	IQUANT	0	I/E Stability
CASPEED	IQUANT	1	Control Amp Speed
CONVENTION	IQUANT	1	Current Convention
ICHRANGE	IQUANT	2	Ich Range
ICHRANGEMODE	TOGGLE	F	Ich Auto Range
ICHOFFSETENABLE	TOGGLE	T	Ich Offset Enable
ICHOFFSET	QUANT	0	Ich Offset (V)
ICHFILTER	IQUANT	3	Ich Filter
VCHRANGE	IQUANT	2	Vch Range
VCHRANGEMODE	TOGGLE	F	Vch Auto Range
VCHOFFSETENABLE	TOGGLE	T	Vch Offset Enable
VCHOFFSET	QUANT	0	Vch Offset (V)
VCHFILTER	IQUANT	3	Vch Filter
ACHRANGE	IQUANT	2	Ach Range
ACHOFFSETENABLE	TOGGLE	F	Ach Offset Enable
ACHOFFSET	QUANT	0	Ach Offset (V)
ACHFILTER	IQUANT	3	Ach Filter
IERANGELOWERLIMIT	IQUANT	1	I/E Range Lower Limit
IERANGEMODE	TOGGLE	F	I/E AutoRange
IERANGE	IQUANT	6	I/E Range
POSFEEDENABLE	TOGGLE	F	Positive Feedback IR Comp
POSFEEDRESISTANCE	QUANT	0	Positive Feedback Resistance (ohm)
ACHSELECT	IQUANT	0	Ach Select
CABLEID	IQUANT	14	Cable ID
DCCALDATE	LABEL	12/22/2019	DC Calibration Date
ACCALDATE	LABEL	12/22/2019	AC Calibration Date
THERMOSELECT	IQUANT	1	Thermo Select
FRAMEWORKVERSION	QUANT	6.33	Framework Version
INSTRUMENTVERSION	LABEL	3.50	Instrument Version
ZCURVE	TABLE
	Pt	Time	Freq	Zreal	Zimag	Zsig	Zmod	Zphz	Idc	Vdc	IERange
	#	s	Hz	ohm	ohm	V	ohm	°	A	V	#
	0	1	1000078	2433.864	-1718.671	1	2979.517	-35.2278	-1.199762E-006	0.0024616	8
	1	1	794390.6	2763.4	-1648.438	1	3217.721	-30.81715	6.825096E-007	0.0025761	8
	2	1	630984.4	3080.906	-1549.181	1	3448.469	-26.69476	3.814236E-007	0.0022014	8
	3	2	501234.4	3332.349	-1397.092	1	3613.367	-22.74593	3.571067E-006	0.0016646	8
	4	2	398109.4	3533.881	-1263.721	1	3753.04	-19.67712	1.172356E-006	0.0017992	8
	5	2	316265.6	3694.63	-1114.89	1	3859.18	-16.79169	-9.075019E-007	0.0023479	8
	6	3	251203.1	3822.729	-992.885	1	3949.566	-14.55983	-8.08659E-007	0.0023336	8
	7	3	199546.9	3927.052	-876.1511	1	4023.603	-12.57708	-4.937282E-007	0.0022247	8
	8	3	158578.1	4045.914	-764.7309	1	4117.552	-10.70338	-1.09558E-006	0.0022643	8
	9	3	125953.1	4103.088	-686.579	1	4160.135	-9.499423	1.215833E-007	0.0018933	7
	10	4	100078.1	4155.032	-634.7788	1	4203.241	-8.686115	2.605593E-008	0.0020721	7
	11	4	79453.13	4207.053	-613.4324	1	4251.54	-8.295863	5.466922E-008	0.0019953	7
	12	4	63140.62	4259.189	-604.2861	1	4301.843	-8.075128	5.84166E-008	0.001968	7
	13	5	50203.12	4310.022	-610.9432	1	4353.107	-8.067895	-2.305076E-008	0.0021662	7
	14	5	39890.62	4362.253	-633.2888	1	4407.982	-8.260189	-2.64043E-008	0.002104	7
	15	5	31640.63	4419.033	-673.6131	1	4470.079	-8.667133	-1.043809E-008	0.0021743	7
	16	6	25171.88	4478.932	-727.8667	1	4537.688	-9.230389	-2.351487E-008	0.0020967	7
	17	6	20015.62	4549.299	-799.9085	1	4619.088	-9.97245	-3.411787E-008	0.0021534	7
	18	6	15890.62	4623.426	-890.8824	1	4708.475	-10.90658	5.570687E-008	0.0019885	7
	19	7	12609.37	4710.078	-1004.06	1	4815.908	-12.03377	1.931598E-008	0.0020198	7
	20	7	10078.13	4801.306	-1134.342	1	4933.484	-13.29278	-2.203499E-008	0.0021648	7
	21	7	8015.625	4911.059	-1287.212	1	5076.949	-14.68711	5.841505E-008	0.0019673	7
	22	8	6328.125	5041.619	-1478.528	1	5253.948	-16.34454	5.600378E-008	0.0019889	7
	23	8	5015.625	5184.329	-1700.044	1	5455.952	-18.15534	-1.274152E-008	0.0020738	7
	24	8	3984.375	5337.745	-1962.113	1	5686.951	-20.18303	-3.893414E-008	0.0021367	7
	25	9	3170.956	5520.169	-2255.297	1	5963.106	-22.22275	5.839005E-008	0.0019621	7
	26	9	2527.573	5718.195	-2607.586	1	6284.685	-24.51373	-2.71119E-009	0.0020981	7
	27	9	1976.103	5957.915	-3058.027	1	6696.886	-27.17013	2.596695E-008	0.0020506	7
	28	9	1577.524	6204.437	-3565.227	1	7155.828	-29.88277	-2.340964E-008	0.0020927	7
	29	10	1265.625	6483.665	-4125.454	1	7684.874	-32.46795	-8.395414E-009	0.0020664	7
	30	10	998.264	6815.805	-4859.763	1	8370.932	-35.4894	-9.236194E-009	0.0021703	7
	31	10	796.875	7170.756	-5692.535	1	9155.582	-38.44445	-3.787739E-008	0.0021327	7
	32	11	627.7902	7599.095	-6752.998	1	10166.08	-41.62615	1.012712E-008	0.0019713	6
	33	11	505.5147	8037.63	-7914.375	1	11280.11	-44.5573	1.213497E-008	0.001873	6
	34	11	397.9953	8586.666	-9459.901	1	12775.78	-47.77026	1.242557E-009	0.0020869	6
	35	12	315.5048	9199.36	-11289.04	1	14562.64	-50.82364	8.623033E-010	0.002087	6
	36	12	252.4038	9877.88	-13418.96	1	16662.56	-53.64271	9.119203E-010	0.0020762	6
	37	12	198.6229	10728.59	-16204.09	1	19433.87	-56.4918	1.089287E-009	0.0020764	6
	38	13	158.3615	11679.41	-19419.78	1	22661.34	-58.97653	8.942278E-010	0.0020722	6
	39	13	125.558	12840.21	-23419.83	1	26708.79	-61.26569	1.075529E-009	0.0020776	6
	40	13	100.4464	14180.86	-28103.85	1	31478.93	-63.22504	5.694129E-010	0.0020776	6
	41	14	79.00281	15918.68	-34198.7	1	37722.08	-65.03913	7.268741E-010	0.0020774	6
	42	14	63.3446	18120.23	-41063.73	1	44883.99	-66.18953	9.201367E-010	0.0020777	6
	43	14	49.86702	20734.53	-50039.51	1	54165.24	-67.49268	1.172914E-009	0.0020775	6
	44	15	39.72458	23740.57	-60269.39	1	64776.65	-68.50014	1.067822E-009	0.0020833	6
	45	15	31.6723	27592.66	-72619.19	1	77684.63	-69.19502	8.032726E-010	0.0020806	6
	46	15	24.93351	32550.15	-88403.59	1	94205.66	-69.78632	9.988625E-010	0.0020821	6
	47	16	19.86229	38535.22	-106555.6	1	113309.6	-70.11777	1.510445E-010	0.0020783	5
	48	16	15.83615	45411.5	-127914	1	135735.7	-70.45433	8.814769E-011	0.0020782	5
	49	16	12.40079	56858.59	-156590.8	1	166594	-70.04388	5.997294E-010	0.002077	5
	50	16	9.93114	69118.72	-187466	1	199802.2	-69.76107	7.786818E-010	0.0020808	5
	51	17	7.944915	83895.44	-225400.8	1	240507.8	-69.58446	1.356197E-009	0.0020759	5
	52	17	6.317385	106243.4	-267929.7	1	288225.5	-68.36996	3.166871E-010	0.0020839	5
	53	18	5.008013	134240.6	-319763.3	1	346798.4	-67.22674	3.624111E-010	0.0020873	5
	54	19	3.945707	171363	-381284.6	1	418023	-65.79914	-8.286398E-012	0.0020682	5
	55	20	3.158693	214869	-444048.3	1	493302.8	-64.17828	1.802586E-010	0.0020587	5
	56	22	2.504006	271547.6	-517460.8	1	584383.2	-62.31088	3.801248E-010	0.002065	5
	57	23	1.998082	336979.6	-592525.7	1	681646.5	-60.37236	1.891859E-010	0.0020367	5
	58	25	1.584686	416355.3	-677557.9	1	795258.8	-58.42952	1.008472E-010	0.0020201	5
	59	27	1.266892	502019.6	-762802.3	1	913176.4	-56.65007	1.177412E-010	0.0020456	5
	60	29	0.999041	605785.5	-858699.1	1	1050876	-54.79822	8.616031E-011	0.0021167	4
