EXPLAIN
TAG	EISPOT
TITLE	LABEL	Potentiostatic EIS	Test &Identifier
DATE	LABEL	1/25/2020	Date
TIME	LABEL	12:03:24	Time
NOTES	NOTES	6	&Notes...
	
	
	
	
	
	
PSTAT	PSTAT	REF600-11020	Potentiostat
VDC	POTEN	0.00000E+000	T	DC &Voltage (V)
FREQINIT	QUANT	1.00000E+006	Initial Fre&q. (Hz)
FREQFINAL	QUANT	1.00000E+000	Final Fre&q. (Hz)
PTSPERDEC	QUANT	1.00000E+001	Points/&decade
VAC	QUANT	2.50000E+001	AC &Voltage (mV rms)
AREA	QUANT	1.00000E-001	&Area (cm^2)
CONDIT	TWOPARAM	F	5.00000E+000	0.00000E+000	Conditionin&g	Time(s)	E(V)
DELAY	TWOPARAM	F	5.00000E+000	0.00000E+000	Init. De&lay	Time(s)	Stab.(mV/s)
SPEED	SELECTOR	0	&Optimize for:
ZGUESS	QUANT	5.00000E+002	E&stimated Z (ohms)
OCVCURVE	TABLE	39
	Pt	T	Vf	Vm	Ach	Over
	#	s	V vs. Ref.	V	V	bits
	0	0.258333	-2.25875E-002	-2.25875E-002	6.54980E-004	...........
	1	0.516667	-2.25873E-002	-2.25744E-002	6.56213E-004	...........
	2	0.775	-2.25854E-002	-2.25456E-002	6.56413E-004	...........
	3	1.03333	-2.25800E-002	-2.25661E-002	6.49580E-004	...........
	4	1.29167	-2.25720E-002	-2.25633E-002	6.54813E-004	...........
	5	1.55	-2.25654E-002	-2.25688E-002	6.56446E-004	...........
	6	1.80833	-2.25630E-002	-2.25673E-002	6.58813E-004	...........
	7	2.06667	-2.25638E-002	-2.25675E-002	6.54280E-004	...........
	8	2.325	-2.25656E-002	-2.25700E-002	6.53080E-004	...........
	9	2.58333	-2.25672E-002	-2.25742E-002	6.58046E-004	...........
	10	2.84167	-2.25686E-002	-2.25662E-002	6.53980E-004	...........
	11	3.1	-2.25696E-002	-2.25658E-002	6.52413E-004	...........
	12	3.35833	-2.25694E-002	-2.25621E-002	6.46480E-004	...........
	13	3.61667	-2.25678E-002	-2.25552E-002	6.56746E-004	...........
	14	3.875	-2.25649E-002	-2.25506E-002	6.52580E-004	...........
	15	4.13333	-2.25605E-002	-2.25195E-002	6.50413E-004	...........
	16	4.39167	-2.25531E-002	-2.25106E-002	6.52646E-004	...........
	17	4.65	-2.25418E-002	-2.25037E-002	6.56213E-004	...........
	18	4.90833	-2.25284E-002	-2.24969E-002	6.52513E-004	...........
	19	5.16667	-2.25158E-002	-2.24901E-002	6.46646E-004	...........
	20	5.425	-2.25056E-002	-2.24845E-002	6.49480E-004	...........
	21	5.68333	-2.24976E-002	-2.24781E-002	6.55879E-004	...........
	22	5.94167	-2.24907E-002	-2.24677E-002	6.52813E-004	...........
	23	6.2	-2.24841E-002	-2.24640E-002	6.47280E-004	...........
	24	6.45833	-2.24772E-002	-2.24497E-002	6.55746E-004	...........
	25	6.71667	-2.24696E-002	-2.24418E-002	6.56513E-004	...........
	26	6.975	-2.24612E-002	-2.24319E-002	6.53713E-004	...........
	27	7.23333	-2.24521E-002	-2.24293E-002	6.53679E-004	...........
	28	7.49167	-2.24433E-002	-2.24264E-002	6.57646E-004	...........
	29	7.75	-2.24360E-002	-2.24256E-002	6.51046E-004	...........
	30	8.00833	-2.24308E-002	-2.24204E-002	6.55279E-004	...........
	31	8.26667	-2.24267E-002	-2.23986E-002	6.54280E-004	...........
	32	8.525	-2.24218E-002	-2.23960E-002	6.53413E-004	...........
	33	8.78333	-2.24155E-002	-2.24377E-002	6.52880E-004	...........
	34	9.04167	-2.24124E-002	-2.24695E-002	6.51846E-004	...........
	35	9.3	-2.24185E-002	-2.24699E-002	6.53146E-004	...........
	36	9.5583	-2.24336E-002	-2.24652E-002	6.51846E-004	...........
	37	9.8167	-2.24500E-002	-2.24568E-002	6.57246E-004	...........
	38	10.075	-2.24602E-002	-2.24578E-002	6.49080E-004	...........
EOC	QUANT	-0.0224602	Open Circuit (V)
PSTATMODEL	IQUANT	4	Pstat Model
PSTATSECTION	LABEL	REF600-11020	Pstat Section
PSTATSERIALNO	LABEL	11020	Pstat Serial Number
CTRLMODE	IQUANT	1	Control Mode
IESTAB	IQUANT	0	I/E Stability
CASPEED	IQUANT	1	Control Amp Speed
CONVENTION	IQUANT	1	Current Convention
ICHRANGE	IQUANT	2	Ich Range
ICHRANGEMODE	TOGGLE	F	Ich Auto Range
ICHOFFSETENABLE	TOGGLE	T	Ich Offset Enable
ICHOFFSET	QUANT	0	Ich Offset (V)
ICHFILTER	IQUANT	3	Ich Filter
VCHRANGE	IQUANT	2	Vch Range
VCHRANGEMODE	TOGGLE	F	Vch Auto Range
VCHOFFSETENABLE	TOGGLE	T	Vch Offset Enable
VCHOFFSET	QUANT	0	Vch Offset (V)
VCHFILTER	IQUANT	3	Vch Filter
ACHRANGE	IQUANT	2	Ach Range
ACHOFFSETENABLE	TOGGLE	F	Ach Offset Enable
ACHOFFSET	QUANT	0	Ach Offset (V)
ACHFILTER	IQUANT	3	Ach Filter
IERANGELOWERLIMIT	IQUANT	1	I/E Range Lower Limit
IERANGEMODE	TOGGLE	F	I/E AutoRange
IERANGE	IQUANT	7	I/E Range
POSFEEDENABLE	TOGGLE	F	Positive Feedback IR Comp
POSFEEDRESISTANCE	QUANT	0	Positive Feedback Resistance (ohm)
ACHSELECT	IQUANT	0	Ach Select
CABLEID	IQUANT	14	Cable ID
DCCALDATE	LABEL	12/22/2019	DC Calibration Date
ACCALDATE	LABEL	12/22/2019	AC Calibration Date
THERMOSELECT	IQUANT	1	Thermo Select
FRAMEWORKVERSION	QUANT	6.33	Framework Version
INSTRUMENTVERSION	LABEL	3.50	Instrument Version
ZCURVE	TABLE
	Pt	Time	Freq	Zreal	Zimag	Zsig	Zmod	Zphz	Idc	Vdc	IERange
	#	s	Hz	ohm	ohm	V	ohm	°	A	V	#
	0	1	1000078	1930.456	-1719.446	1	2585.18	-41.69126	1.430296E-006	-0.0206987	8
	1	1	794390.6	2264.837	-1756.553	1	2866.177	-37.7963	-3.280243E-006	-0.0200723	8
	2	2	630984.4	2591.492	-1752.781	1	3128.59	-34.07283	1.276818E-007	-0.0206629	8
	3	2	501234.4	2889.357	-1689.934	1	3347.276	-30.32261	4.231322E-007	-0.0209797	8
	4	2	398109.4	3183.803	-1617.3	1	3571.031	-26.92954	1.33646E-006	-0.0211472	8
	5	3	316265.6	3414.847	-1556.696	1	3752.929	-24.5064	5.937389E-007	-0.0210759	8
	6	3	251203.1	3631.566	-1483.118	1	3922.743	-22.21492	-8.614496E-007	-0.0208104	8
	7	3	199546.9	3835.851	-1404.09	1	4084.755	-20.10485	3.157295E-006	-0.0213997	8
	8	4	158578.1	3982.311	-1354.094	1	4206.229	-18.77943	-8.916329E-007	-0.0207318	8
	9	4	125953.1	4154.688	-1311.858	1	4356.879	-17.52371	8.211221E-007	-0.0227602	7
	10	4	100078.1	4293.256	-1313.912	1	4489.813	-17.01625	4.401933E-008	-0.0209637	7
	11	5	79453.13	4434.788	-1343.591	1	4633.852	-16.85504	-2.620274E-008	-0.0209422	7
	12	5	63140.62	4581.389	-1397.101	1	4789.678	-16.95915	-1.966435E-008	-0.0208823	7
	13	5	50203.12	4730.501	-1472.76	1	4954.459	-17.29307	2.103497E-008	-0.0209902	7
	14	6	39890.62	4887.947	-1576.349	1	5135.845	-17.87436	-1.447925E-008	-0.0209661	7
	15	6	31640.63	5058.012	-1708.35	1	5338.721	-18.66246	-1.993782E-008	-0.0208935	7
	16	6	25171.88	5240.292	-1870.094	1	5563.984	-19.63987	8.390292E-008	-0.0210926	7
	17	7	20015.62	5438.799	-2066.224	1	5818.06	-20.80201	3.24336E-010	-0.0209492	7
	18	7	15890.62	5658.426	-2298.586	1	6107.478	-22.10815	-2.249753E-008	-0.0209405	7
	19	7	12609.37	5904.421	-2578.371	1	6442.84	-23.59017	-3.321892E-008	-0.0208986	7
	20	7	10078.13	6169.878	-2895.063	1	6815.335	-25.13716	-2.647289E-008	-0.0209513	7
	21	8	8015.625	6464.424	-3271.586	1	7245.14	-26.84356	2.709568E-008	-0.0210595	7
	22	8	6328.125	6813.956	-3736.178	1	7771.037	-28.73652	-5.693317E-009	-0.0209472	7
	23	8	5015.625	7199.868	-4266.786	1	8369.203	-30.65183	5.105909E-008	-0.0210808	7
	24	9	3984.375	7630.534	-4884.411	1	9059.94	-32.62387	-3.452928E-008	-0.0209148	7
	25	9	3170.956	8127.663	-5588.604	1	9863.64	-34.51252	-4.571519E-009	-0.0209011	6
	26	9	2527.573	8678.425	-6418.061	1	10793.82	-36.48449	1.365323E-009	-0.0209505	6
	27	10	1976.103	9373.761	-7477.3	1	11990.72	-38.57881	-4.868752E-009	-0.0209071	6
	28	10	1577.524	10102.7	-8604.715	1	13270.48	-40.42184	5.037509E-009	-0.0210791	6
	29	10	1265.625	10933.99	-9888.51	1	14742.28	-42.12564	3.869861E-009	-0.0209469	6
	30	11	998.264	11976.71	-11485.02	1	16593.6	-43.79942	3.851411E-011	-0.0210402	6
	31	11	796.875	13116.53	-13252.76	1	18646.16	-45.29601	-3.171954E-011	-0.0210167	6
	32	11	627.7902	14530.37	-15409.47	1	21179.78	-46.68185	5.015361E-009	-0.0210841	6
	33	12	505.5147	16014.87	-17675.54	1	23851.64	-47.82195	1.409865E-009	-0.0209565	6
	34	12	397.9953	17898.14	-20551.1	1	27252.36	-48.94709	4.185008E-010	-0.0209693	6
	35	12	315.5048	20018.81	-23784.35	1	31087.75	-49.91335	4.103779E-010	-0.0209752	6
	36	13	252.4038	22379.04	-27376.99	1	35359.88	-50.73608	4.327647E-010	-0.0209712	6
	37	13	198.6229	25288.18	-31852.55	1	40670.34	-51.55346	5.068023E-010	-0.0209699	6
	38	13	158.3615	28474.04	-36765.84	1	46502.66	-52.24329	5.694244E-010	-0.0209715	6
	39	14	125.558	32277.1	-42591.81	1	53440.37	-52.84427	4.430026E-010	-0.0209723	6
	40	14	100.4464	36575.85	-49061.64	1	61195.08	-53.29517	1.735344E-011	-0.0209739	6
	41	14	79.00281	42000.7	-57211.04	1	70972.96	-53.71625	2.492343E-010	-0.0209762	6
	42	15	63.3446	46897	-65423.13	1	80495.43	-54.36606	4.911733E-010	-0.020976	6
	43	15	49.86702	54293.54	-75920.12	1	93336.23	-54.42991	5.38968E-010	-0.0209765	6
	44	15	39.72458	62555.99	-87494.37	1	107557	-54.43631	-8.121004E-012	-0.0209738	5
	45	16	31.6723	71490.3	-100303.3	1	123173.1	-54.52096	1.968809E-011	-0.0209792	5
	46	16	24.93351	81531.55	-116102.7	1	141870.5	-54.92207	-5.885831E-011	-0.0209784	5
	47	16	19.86229	92292.16	-133800.2	1	162543.3	-55.40302	5.683988E-010	-0.0209734	5
	48	17	15.83615	105724.9	-153354.6	1	186267	-55.41705	-1.328546E-009	-0.0209841	5
	49	17	12.40079	118858.5	-181292.9	1	216782	-56.75052	-3.242629E-010	-0.0209758	5
	50	17	9.93114	133312	-209895.3	1	248652.7	-57.57891	4.001539E-010	-0.0209794	5
	51	18	7.944915	150853.9	-244598.1	1	287376.3	-58.33613	3.081284E-010	-0.020975	5
	52	18	6.317385	172116.5	-287844.2	1	335377.9	-59.12268	1.491361E-010	-0.0209853	5
	53	19	5.008013	198130.4	-339838.4	1	393377.4	-59.75724	1.798043E-010	-0.0209769	5
	54	20	3.945707	231077.3	-403460.1	1	464948.2	-60.19855	-7.415883E-011	-0.0209902	5
	55	22	3.158693	268875	-472569.3	1	543705.4	-60.36168	3.078928E-011	-0.0210013	5
	56	23	2.504006	317899.4	-557293.9	1	641589.1	-60.29809	1.480068E-010	-0.0209912	5
	57	25	1.998082	376151.5	-649914.2	1	750918.4	-59.93899	-1.039193E-011	-0.0210281	5
	58	26	1.584686	448769.4	-761362.4	1	883779.8	-59.48365	-2.639363E-011	-0.0210424	5
	59	28	1.266892	533424.1	-880970.2	1	1029879	-58.80525	-1.11365E-011	-0.0209636	4
	60	31	0.999041	642683.1	-1021451	1	1206816	-57.82247	8.643707E-012	-0.0209403	4
