EXPLAIN
TAG	EISPOT
TITLE	LABEL	Potentiostatic EIS	Test &Identifier
DATE	LABEL	1/28/2020	Date
TIME	LABEL	12:49:27	Time
NOTES	NOTES	6	&Notes...
	
	
	
	
	
	
PSTAT	PSTAT	REF600-11020	Potentiostat
VDC	POTEN	0.00000E+000	T	DC &Voltage (V)
FREQINIT	QUANT	1.00000E+006	Initial Fre&q. (Hz)
FREQFINAL	QUANT	1.00000E+000	Final Fre&q. (Hz)
PTSPERDEC	QUANT	1.00000E+001	Points/&decade
VAC	QUANT	2.50000E+001	AC &Voltage (mV rms)
AREA	QUANT	1.60000E-004	&Area (cm^2)
CONDIT	TWOPARAM	F	5.00000E+000	0.00000E+000	Conditionin&g	Time(s)	E(V)
DELAY	TWOPARAM	F	5.00000E+000	0.00000E+000	Init. De&lay	Time(s)	Stab.(mV/s)
SPEED	SELECTOR	0	&Optimize for:
ZGUESS	QUANT	1.00000E+003	E&stimated Z (ohms)
OCVCURVE	TABLE	39
	Pt	T	Vf	Vm	Ach	Over
	#	s	V vs. Ref.	V	V	bits
	0	0.258333	3.61775E-002	3.61775E-002	5.87304E-004	...........
	1	0.516667	3.61803E-002	3.63238E-002	5.85437E-004	...........
	2	0.775	3.61946E-002	3.63110E-002	5.85504E-004	...........
	3	1.03333	3.62353E-002	3.68204E-002	5.82171E-004	...........
	4	1.29167	3.63482E-002	3.81056E-002	5.85037E-004	...........
	5	1.55	3.66142E-002	3.79540E-002	5.84037E-004	...........
	6	1.80833	3.70387E-002	3.79385E-002	5.84771E-004	...........
	7	2.06667	3.74727E-002	3.75779E-002	5.76038E-004	...........
	8	2.325	3.77417E-002	3.76104E-002	5.79304E-004	...........
	9	2.58333	3.78132E-002	3.80167E-002	5.78737E-004	...........
	10	2.84167	3.77985E-002	3.80816E-002	5.78537E-004	...........
	11	3.1	3.78249E-002	3.83661E-002	5.76738E-004	...........
	12	3.35833	3.79362E-002	3.85024E-002	5.78971E-004	...........
	13	3.61667	3.81040E-002	3.85391E-002	5.79737E-004	...........
	14	3.875	3.82788E-002	3.85993E-002	5.78171E-004	...........
	15	4.13333	3.84214E-002	3.85966E-002	5.79137E-004	...........
	16	4.39167	3.85185E-002	3.86919E-002	5.80404E-004	...........
	17	4.65	3.85811E-002	3.87137E-002	5.82637E-004	...........
	18	4.90833	3.86299E-002	3.88570E-002	5.78237E-004	...........
	19	5.16667	3.86863E-002	3.90796E-002	5.80504E-004	...........
	20	5.425	3.87648E-002	3.89375E-002	5.86671E-004	...........
	21	5.68333	3.88542E-002	3.88994E-002	5.79571E-004	...........
	22	5.94167	3.89196E-002	3.89397E-002	5.83171E-004	...........
	23	6.2	3.89451E-002	3.89924E-002	5.82004E-004	...........
	24	6.45833	3.89482E-002	3.89070E-002	5.83871E-004	...........
	25	6.71667	3.89451E-002	3.88181E-002	5.81571E-004	...........
	26	6.975	3.89353E-002	3.90610E-002	5.85037E-004	...........
	27	7.23333	3.89274E-002	3.90085E-002	5.82671E-004	...........
	28	7.49167	3.89407E-002	3.90845E-002	5.85971E-004	...........
	29	7.75	3.89774E-002	3.91196E-002	5.76571E-004	...........
	30	8.00833	3.90241E-002	3.91642E-002	5.77837E-004	...........
	31	8.26667	3.90688E-002	3.90717E-002	5.84537E-004	...........
	32	8.525	3.90988E-002	3.90035E-002	5.84404E-004	...........
	33	8.78333	3.91010E-002	3.90077E-002	5.79371E-004	...........
	34	9.04167	3.90766E-002	3.89688E-002	5.78071E-004	...........
	35	9.3	3.90410E-002	3.89736E-002	5.86004E-004	...........
	36	9.5583	3.90100E-002	3.90184E-002	5.86704E-004	...........
	37	9.8167	3.89939E-002	3.90649E-002	5.79737E-004	...........
	38	10.075	3.89981E-002	3.90990E-002	5.81671E-004	...........
EOC	QUANT	0.0389981	Open Circuit (V)
PSTATMODEL	IQUANT	4	Pstat Model
PSTATSECTION	LABEL	REF600-11020	Pstat Section
PSTATSERIALNO	LABEL	11020	Pstat Serial Number
CTRLMODE	IQUANT	1	Control Mode
IESTAB	IQUANT	0	I/E Stability
CASPEED	IQUANT	1	Control Amp Speed
CONVENTION	IQUANT	1	Current Convention
ICHRANGE	IQUANT	2	Ich Range
ICHRANGEMODE	TOGGLE	F	Ich Auto Range
ICHOFFSETENABLE	TOGGLE	T	Ich Offset Enable
ICHOFFSET	QUANT	0	Ich Offset (V)
ICHFILTER	IQUANT	3	Ich Filter
VCHRANGE	IQUANT	2	Vch Range
VCHRANGEMODE	TOGGLE	F	Vch Auto Range
VCHOFFSETENABLE	TOGGLE	T	Vch Offset Enable
VCHOFFSET	QUANT	0	Vch Offset (V)
VCHFILTER	IQUANT	3	Vch Filter
ACHRANGE	IQUANT	2	Ach Range
ACHOFFSETENABLE	TOGGLE	F	Ach Offset Enable
ACHOFFSET	QUANT	0	Ach Offset (V)
ACHFILTER	IQUANT	3	Ach Filter
IERANGELOWERLIMIT	IQUANT	1	I/E Range Lower Limit
IERANGEMODE	TOGGLE	F	I/E AutoRange
IERANGE	IQUANT	7	I/E Range
POSFEEDENABLE	TOGGLE	F	Positive Feedback IR Comp
POSFEEDRESISTANCE	QUANT	0	Positive Feedback Resistance (ohm)
ACHSELECT	IQUANT	0	Ach Select
CABLEID	IQUANT	14	Cable ID
DCCALDATE	LABEL	1/27/2020	DC Calibration Date
ACCALDATE	LABEL	1/27/2020	AC Calibration Date
THERMOSELECT	IQUANT	1	Thermo Select
FRAMEWORKVERSION	QUANT	6.33	Framework Version
INSTRUMENTVERSION	LABEL	3.50	Instrument Version
ZCURVE	TABLE
	Pt	Time	Freq	Zreal	Zimag	Zsig	Zmod	Zphz	Idc	Vdc	IERange
	#	s	Hz	ohm	ohm	V	ohm	°	A	V	#
	0	1	1000078	2032.756	-2726.643	1	3400.982	-53.29488	-9.308594E-007	0.0418154	8
	1	1	794390.6	2360.88	-3074.178	1	3876.122	-52.47677	-1.317277E-006	0.0413763	8
	2	1	630984.4	2735.109	-3450.084	1	4402.716	-51.59381	-7.370987E-007	0.0409492	8
	3	2	501234.4	3152.608	-3873.764	1	4994.495	-50.86007	-8.007613E-007	0.0408109	8
	4	2	398109.4	3599.436	-4373.49	1	5664.217	-50.5452	3.789572E-006	0.039971	8
	5	2	316265.6	4125.73	-4924.516	1	6424.369	-50.04392	-1.075832E-006	0.0406804	8
	6	3	251203.1	4749.295	-5536.125	1	7294.141	-49.37458	4.316666E-006	0.0398384	8
	7	3	199546.9	5404.027	-6297.631	1	8298.413	-49.36695	4.30778E-006	0.0398455	8
	8	4	158578.1	5985.125	-7105.934	1	9290.642	-49.89352	-4.084035E-007	0.0406305	8
	9	4	125953.1	7192.947	-8061.994	1	10804.36	-48.26052	-8.089873E-007	0.0429619	7
	10	5	100078.1	8271.608	-9088.459	1	12289	-47.69398	6.059273E-008	0.0405531	7
	11	5	79453.13	9530.69	-10242.97	1	13991.16	-47.06298	7.678679E-008	0.0403986	7
	12	5	63140.62	11010.91	-11445.74	1	15882.22	-46.10928	-4.316988E-008	0.0405823	7
	13	5	50203.12	12762.39	-12689.46	1	17997.25	-44.83583	-2.445998E-008	0.0405452	7
	14	6	39890.62	14754.44	-13931.52	1	20292.38	-43.35679	-2.406211E-008	0.0406383	7
	15	6	31640.63	17030.83	-15116.95	1	22772.16	-41.59299	-1.355735E-009	0.0404734	7
	16	6	25171.88	19503.35	-16254.62	1	25388.85	-39.80874	-1.283339E-008	0.040657	7
	17	7	20015.62	22138.62	-17138.07	1	27996.99	-37.74437	-3.750691E-008	0.0405539	7
	18	7	15890.62	25018.54	-18035.73	1	30841.77	-35.78762	7.474698E-008	0.0403993	7
	19	7	12609.37	28129.15	-18533.09	1	33685.67	-33.37918	1.438917E-008	0.0403772	6
	20	8	10078.13	30987.15	-19076.92	1	36388.63	-31.61811	4.376804E-009	0.0405797	6
	21	8	8015.625	33892.42	-19579.13	1	39141.27	-30.01437	3.510911E-009	0.04057	6
	22	8	6328.125	36847.13	-19967.02	1	41909.34	-28.45274	-4.364934E-009	0.0406034	6
	23	9	5015.625	39661.27	-20387.08	1	44594.27	-27.20453	6.09499E-009	0.0405392	6
	24	9	3984.375	42424.25	-20886.04	1	47286.82	-26.21166	7.560801E-009	0.0403525	6
	25	9	3170.956	44995.72	-21613.49	1	49917.51	-25.65709	-4.894693E-009	0.0405458	6
	26	10	2527.573	47584.52	-22511.11	1	52640.63	-25.31773	-2.379058E-009	0.0406583	6
	27	10	1976.103	50374.35	-23853.93	1	55736.75	-25.33911	-9.834536E-009	0.0406189	6
	28	10	1577.524	53330.69	-25129.6	1	58954.72	-25.22997	-1.655374E-009	0.0405263	6
	29	11	1265.625	55857.38	-27191.25	1	62124.16	-25.95671	-7.636757E-009	0.0406034	6
	30	11	998.264	58940.04	-29611.38	1	65960.3	-26.67488	-2.036238E-009	0.0406528	6
	31	11	796.875	62022.77	-32407.17	1	69978.91	-27.58727	3.622795E-009	0.040565	6
	32	12	627.7902	65453.01	-35834.38	1	74620.37	-28.69994	-1.894709E-009	0.0404336	6
	33	12	505.5147	68845.96	-39720.43	1	79482.57	-29.98264	-2.209621E-009	0.0406504	6
	34	12	397.9953	72602.48	-44880.07	1	85354.21	-31.72277	4.419453E-010	0.0405346	6
	35	13	315.5048	76498.06	-51178.63	1	92039.16	-33.78326	1.008308E-009	0.040529	6
	36	13	252.4038	81032.41	-58407.96	1	99888.6	-35.78397	3.648669E-010	0.0405253	5
	37	13	198.6229	86392.57	-68311.27	1	110136.8	-38.33369	8.389466E-012	0.0405239	5
	38	14	158.3615	92482.2	-79646.14	1	122051.1	-40.7352	-2.870266E-010	0.0405209	5
	39	14	125.558	100436.3	-93317.18	1	137096.9	-42.89571	-6.411138E-011	0.0405218	5
	40	14	100.4464	109758.9	-107630.3	1	153724.7	-44.43898	1.15346E-011	0.0405182	5
	41	14	79.00281	121126.5	-126787.8	1	175347.6	-46.30816	4.72646E-010	0.0405173	5
	42	15	63.3446	144423.4	-145398.6	1	204936.2	-45.19279	-4.216368E-010	0.0405158	5
	43	15	49.86702	159792	-171021.9	1	234055.5	-46.94423	-4.716845E-010	0.0405164	5
	44	16	39.72458	174342.8	-193805.2	1	260683.5	-48.02615	-1.104201E-010	0.0405202	5
	45	16	31.6723	193938.3	-222164	1	294904.8	-48.88063	-3.148801E-010	0.040519	5
	46	16	24.93351	225495.4	-256855.4	1	341793.6	-48.71984	1.638298E-011	0.0405195	5
	47	17	19.86229	257464.7	-291383	1	388834.3	-48.53634	-6.002628E-011	0.0405241	5
	48	17	15.83615	287188	-320321	1	430212.1	-48.12177	-9.546689E-010	0.0405212	5
	49	17	12.40079	333985.9	-372889.3	1	500592.7	-48.15014	7.824273E-010	0.0405201	5
	50	18	9.93114	386613.2	-422506.6	1	572696.8	-47.54003	3.57411E-010	0.0405142	5
	51	18	7.944915	443721.7	-469424.1	1	645947.3	-46.61228	1.29215E-010	0.0405242	5
	52	19	6.317385	512592.3	-528652	1	736358.5	-45.88363	5.077073E-010	0.040522	6
	53	20	5.008013	590903.1	-585750.9	1	832027.9	-44.74912	9.24166E-010	0.0405249	6
	54	21	3.945707	676731.4	-642585.2	1	933210.1	-43.51741	6.910712E-010	0.0405094	6
	55	23	3.158693	767711.5	-701652.4	1	1040047	-42.42585	1.339285E-010	0.0405375	5
	56	25	2.504006	872862.8	-761437.9	1	1158308	-41.09967	-1.384622E-010	0.0404703	4
	57	26	1.998082	974633	-820776.1	1	1274199	-40.10204	-5.448169E-011	0.0404704	4
	58	28	1.584686	1088316	-880902.3	1	1400150	-38.98732	5.615972E-011	0.0405096	4
	59	30	1.266892	1199385	-948465.2	1	1529088	-38.3367	8.814497E-011	0.0404954	4
	60	32	0.999041	1315451	-1026864	1	1668790	-37.9762	9.256103E-011	0.040468	4
