EXPLAIN
TAG	EISPOT
TITLE	LABEL	Potentiostatic EIS	Test &Identifier
DATE	LABEL	6/14/2020	Date
TIME	LABEL	20:52:17	Time
NOTES	NOTES	1	&Notes...
	
PSTAT	PSTAT	REF600-10037	Potentiostat
VDC	POTEN	0.00000E+000	T	DC &Voltage (V)
FREQINIT	QUANT	1.00000E+006	Initial Fre&q. (Hz)
FREQFINAL	QUANT	1.00000E+000	Final Fre&q. (Hz)
PTSPERDEC	QUANT	1.00000E+001	Points/&decade
VAC	QUANT	2.50000E+001	AC &Voltage (mV rms)
AREA	QUANT	2.50000E-001	&Area (cm^2)
CONDIT	TWOPARAM	F	5.00000E+000	0.00000E+000	Conditionin&g	Time(s)	E(V)
DELAY	TWOPARAM	F	3.00000E+000	0.00000E+000	Init. De&lay	Time(s)	Stab.(mV/s)
SPEED	SELECTOR	0	&Optimize for:
ZGUESS	QUANT	1.00000E+003	E&stimated Z (ohms)
OCVCURVE	TABLE	39
	Pt	T	Vf	Vm	Ach	Over
	#	s	V vs. Ref.	V	V	bits
	0	0.258333	-8.35711E-002	-8.35711E-002	4.89021E-004	...........
	1	0.516667	-8.35716E-002	-8.35961E-002	4.87821E-004	...........
	2	0.775	-8.35745E-002	-8.36187E-002	4.86155E-004	...........
	3	1.03333	-8.35827E-002	-8.36411E-002	4.86621E-004	...........
	4	1.29167	-8.35974E-002	-8.36680E-002	4.89555E-004	...........
	5	1.55	-8.36173E-002	-8.36920E-002	4.86121E-004	...........
	6	1.80833	-8.36404E-002	-8.37167E-002	4.86588E-004	...........
	7	2.06667	-8.36648E-002	-8.37365E-002	4.86855E-004	...........
	8	2.325	-8.36892E-002	-8.37599E-002	4.86688E-004	...........
	9	2.58333	-8.37129E-002	-8.37814E-002	4.86688E-004	...........
	10	2.84167	-8.37357E-002	-8.38079E-002	4.87821E-004	...........
	11	3.1	-8.37584E-002	-8.38322E-002	4.86755E-004	...........
	12	3.35833	-8.37816E-002	-8.38548E-002	4.87621E-004	...........
	13	3.61667	-8.38054E-002	-8.38754E-002	4.87955E-004	...........
	14	3.875	-8.38290E-002	-8.38990E-002	4.89221E-004	...........
	15	4.13333	-8.38520E-002	-8.39198E-002	4.90221E-004	...........
	16	4.39167	-8.38745E-002	-8.39395E-002	4.88288E-004	...........
	17	4.65	-8.38963E-002	-8.39621E-002	4.89188E-004	...........
	18	4.90833	-8.39178E-002	-8.39895E-002	4.88788E-004	...........
	19	5.16667	-8.39396E-002	-8.40092E-002	4.87088E-004	...........
	20	5.425	-8.39621E-002	-8.40285E-002	4.87321E-004	...........
	21	5.68333	-8.39847E-002	-8.40516E-002	4.88821E-004	...........
	22	5.94167	-8.40067E-002	-8.40768E-002	4.89688E-004	...........
	23	6.2	-8.40286E-002	-8.40952E-002	4.88921E-004	...........
	24	6.45833	-8.40506E-002	-8.41151E-002	4.88421E-004	...........
	25	6.71667	-8.40725E-002	-8.41421E-002	4.91421E-004	...........
	26	6.975	-8.40942E-002	-8.41610E-002	4.89588E-004	...........
	27	7.23333	-8.41159E-002	-8.41806E-002	4.89821E-004	...........
	28	7.49167	-8.41376E-002	-8.41999E-002	4.89321E-004	...........
	29	7.75	-8.41587E-002	-8.42253E-002	4.89655E-004	...........
	30	8.00833	-8.41795E-002	-8.42432E-002	4.90955E-004	...........
	31	8.26667	-8.42004E-002	-8.42629E-002	4.90455E-004	...........
	32	8.525	-8.42212E-002	-8.42849E-002	4.88621E-004	...........
	33	8.78333	-8.42420E-002	-8.43128E-002	4.89721E-004	...........
	34	9.04167	-8.42632E-002	-8.43303E-002	4.89555E-004	...........
	35	9.3	-8.42851E-002	-8.43482E-002	4.90421E-004	...........
	36	9.5583	-8.43069E-002	-8.43686E-002	4.88921E-004	...........
	37	9.8167	-8.43279E-002	-8.43964E-002	4.90221E-004	...........
	38	10.075	-8.43485E-002	-8.44093E-002	4.89455E-004	...........
EOC	QUANT	-0.0843485	Open Circuit (V)
PSTATMODEL	IQUANT	4	Pstat Model
PSTATSECTION	LABEL	REF600-10037	Pstat Section
PSTATSERIALNO	LABEL	10037	Pstat Serial Number
CTRLMODE	IQUANT	1	Control Mode
IESTAB	IQUANT	0	I/E Stability
CASPEED	IQUANT	1	Control Amp Speed
CONVENTION	IQUANT	1	Current Convention
ICHRANGE	IQUANT	2	Ich Range
ICHRANGEMODE	TOGGLE	F	Ich Auto Range
ICHOFFSETENABLE	TOGGLE	T	Ich Offset Enable
ICHOFFSET	QUANT	0	Ich Offset (V)
ICHFILTER	IQUANT	3	Ich Filter
VCHRANGE	IQUANT	2	Vch Range
VCHRANGEMODE	TOGGLE	F	Vch Auto Range
VCHOFFSETENABLE	TOGGLE	T	Vch Offset Enable
VCHOFFSET	QUANT	0	Vch Offset (V)
VCHFILTER	IQUANT	3	Vch Filter
ACHRANGE	IQUANT	2	Ach Range
ACHOFFSETENABLE	TOGGLE	F	Ach Offset Enable
ACHOFFSET	QUANT	0	Ach Offset (V)
ACHFILTER	IQUANT	3	Ach Filter
IERANGELOWERLIMIT	IQUANT	1	I/E Range Lower Limit
IERANGEMODE	TOGGLE	F	I/E AutoRange
IERANGE	IQUANT	8	I/E Range
POSFEEDENABLE	TOGGLE	F	Positive Feedback IR Comp
POSFEEDRESISTANCE	QUANT	0	Positive Feedback Resistance (ohm)
ACHSELECT	IQUANT	0	Ach Select
CABLEID	IQUANT	14	Cable ID
DCCALDATE	LABEL	6/8/2020	DC Calibration Date
ACCALDATE	LABEL	6/8/2020	AC Calibration Date
THERMOSELECT	IQUANT	1	Thermo Select
FRAMEWORKVERSION	QUANT	6.33	Framework Version
INSTRUMENTVERSION	LABEL	3.50	Instrument Version
ZCURVE	TABLE
	Pt	Time	Freq	Zreal	Zimag	Zsig	Zmod	Zphz	Idc	Vdc	IERange
	#	s	Hz	ohm	ohm	V	ohm	°	A	V	#
	0	1	1000078	1850.876	-1458.856	1	2356.693	-38.2451	7.507041E-008	-0.0751225	8
	1	1	794390.6	2064.748	-1554.84	1	2584.708	-36.98125	-1.907038E-008	-0.0754291	8
	2	1	630984.4	2289.329	-1656.509	1	2825.783	-35.88869	2.869292E-007	-0.0755265	8
	3	2	501234.4	2523.129	-1768.382	1	3081.129	-35.02541	-6.358785E-008	-0.0756192	8
	4	2	398109.4	2775.179	-1886.638	1	3355.744	-34.20887	8.442681E-008	-0.0756352	8
	5	2	316265.6	3043.408	-2018.827	1	3652.122	-33.55807	-9.665776E-008	-0.0757068	8
	6	3	251203.1	3335.592	-2153.946	1	3970.599	-32.8522	2.851079E-007	-0.0757016	8
	7	3	199546.9	3653.237	-2295.869	1	4314.761	-32.14722	4.265183E-007	-0.0757203	8
	8	3	158578.1	3992.989	-2440.994	1	4680.001	-31.43828	5.431282E-007	-0.075705	8
	9	4	125953.1	4497.858	-2455.837	1	5124.633	-28.63461	-6.966886E-008	-0.0757128	7
	10	4	100078.1	4868.737	-2612.425	1	5525.338	-28.21673	-8.455089E-008	-0.0755687	7
	11	4	79453.13	5264.039	-2778.71	1	5952.422	-27.82808	3.536855E-008	-0.0756501	7
	12	5	63140.62	5696.757	-2946.925	1	6413.845	-27.35247	-2.179035E-008	-0.0757233	7
	13	5	50203.12	6155.445	-3103.701	1	6893.654	-26.75817	6.805393E-008	-0.0757056	7
	14	5	39890.62	6655.922	-3257.107	1	7410.132	-26.07504	3.54159E-008	-0.0757828	7
	15	5	31640.63	7192.9	-3391.659	1	7952.431	-25.24522	5.636888E-008	-0.0757998	7
	16	6	25171.88	7759.571	-3499.333	1	8512.126	-24.27394	-8.347299E-008	-0.075581	7
	17	6	20015.62	8349.004	-3571.962	1	9081.012	-23.16273	1.303939E-008	-0.0756352	7
	18	6	15890.62	8973.692	-3606.854	1	9671.43	-21.89699	-7.215644E-008	-0.0756384	7
	19	7	12609.37	9782.71	-3278.13	1	10317.34	-18.5257	5.594261E-010	-0.0758087	6
	20	7	10078.13	10324.62	-3247.326	1	10823.26	-17.45954	9.674962E-009	-0.0757438	6
	21	7	8015.625	10852.19	-3181.536	1	11308.94	-16.33955	1.019925E-008	-0.0757693	6
	22	8	6328.125	11354.78	-3076.761	1	11764.25	-15.16115	4.504956E-010	-0.0756006	6
	23	8	5015.625	11809.19	-2962.153	1	12175.03	-14.08124	1.110529E-008	-0.0758058	6
	24	8	3984.375	12206.07	-2849.884	1	12534.36	-13.14203	4.272554E-009	-0.0756466	6
	25	9	3170.956	12554.45	-2757.681	1	12853.76	-12.38871	-1.00152E-008	-0.0755078	6
	26	9	2527.573	12840.21	-2693.896	1	13119.76	-11.84889	-1.327657E-008	-0.0755758	6
	27	9	1976.103	13118.56	-2692.611	1	13392.04	-11.59899	1.026847E-008	-0.0757479	6
	28	10	1577.524	13347.5	-2757.715	1	13629.41	-11.67357	-1.346627E-008	-0.0755345	6
	29	10	1265.625	13540.2	-2888.325	1	13844.84	-12.04156	6.985387E-009	-0.0758425	6
	30	10	998.264	13753.22	-3127.435	1	14104.32	-12.81101	4.180429E-010	-0.0755982	6
	31	11	796.875	13946.3	-3453.179	1	14367.46	-13.90704	-1.325109E-008	-0.0755732	6
	32	11	627.7902	14159.51	-3927.211	1	14694.04	-15.50162	9.756732E-009	-0.0758556	6
	33	11	505.5147	14360.58	-4500.8	1	15049.36	-17.4017	-6.681346E-009	-0.0755238	6
	34	12	397.9953	14639.94	-5276.011	1	15561.62	-19.81839	5.822695E-010	-0.0756757	6
	35	12	315.5048	14950.49	-6240.627	1	16200.7	-22.65661	7.065232E-010	-0.0756727	6
	36	12	252.4038	15291.55	-7388.011	1	16982.77	-25.7872	6.705376E-010	-0.0756769	6
	37	12	198.6229	15747.36	-8907.697	1	18092.16	-29.49523	8.414686E-010	-0.0756764	6
	38	13	158.3615	16271.6	-10672.18	1	19459.2	-33.25998	7.592562E-010	-0.0756812	6
	39	13	125.558	16940.14	-12880.45	1	21280.85	-37.24757	6.647581E-010	-0.0756769	6
	40	13	100.4464	17738.24	-15450.44	1	23523.64	-41.05666	3.746226E-010	-0.0756784	6
	41	14	79.00281	18851.91	-18810.41	1	26631.3	-44.93687	3.884456E-010	-0.0756789	6
	42	14	63.3446	20180.26	-22507.55	1	30229.67	-48.12061	6.031065E-010	-0.075684	6
	43	14	49.86702	22014.04	-27314.41	1	35081.27	-51.13293	6.61786E-010	-0.0756895	6
	44	15	39.72458	24245.89	-32753.91	1	40751.46	-53.48951	8.598573E-010	-0.0756803	6
	45	15	31.6723	27074.14	-39109.25	1	47566.19	-55.30632	1.04749E-009	-0.0756819	6
	46	16	24.93351	30837.15	-46925.95	1	56151.36	-56.68929	-1.05436E-010	-0.0756857	6
	47	16	19.86229	34894.8	-55511.22	1	65567.85	-57.8462	-8.078794E-009	-0.0843166	6
	48	16	15.83615	40522.36	-65455.77	1	76983.89	-58.23917	-5.033786E-009	-0.0843241	6
	49	17	12.40079	47768.37	-77656.72	1	91172.27	-58.40341	-3.506327E-009	-0.0843161	6
	50	17	9.93114	55759.62	-90168.12	1	106016.1	-58.26751	-3.09267E-009	-0.0843115	5
	51	17	7.944915	65363.36	-104367.8	1	123146.3	-57.94195	-2.546876E-009	-0.0843083	5
	52	18	6.317385	76919.17	-120512.9	1	142968.2	-57.45133	-1.522116E-009	-0.0843037	5
	53	19	5.008013	90277.52	-138851.6	1	165619.4	-56.96917	-1.079639E-009	-0.0843063	5
	54	20	3.945707	105637.8	-159953.4	1	191688.3	-56.55809	-6.993243E-010	-0.0843057	5
	55	21	3.158693	121476.2	-182333	1	219093.1	-56.32715	-5.462458E-010	-0.0843114	5
	56	22	2.504006	139666.7	-209168.9	1	251512.3	-56.26809	-3.558588E-010	-0.0843198	5
	57	24	1.998082	158189.3	-239615.2	1	287122.4	-56.56797	-2.627779E-010	-0.0843191	5
	58	26	1.584686	178530.1	-276726.2	1	329318	-57.17188	-1.247294E-010	-0.0843186	5
	59	28	1.266892	199688.9	-319801.3	1	377025.9	-58.0187	-4.694021E-011	-0.0843211	5
	60	32	0.999041	224216	-375559.4	1	437398.8	-59.16201	-3.122726E-011	-0.084318	5
