EXPLAIN
TAG	EISPOT
TITLE	LABEL	Potentiostatic EIS	Test &Identifier
DATE	LABEL	1/7/2020	Date
TIME	LABEL	17:37:38	Time
NOTES	NOTES	5	&Notes...
	
	
	
	
	
PSTAT	PSTAT	REF600-11020	Potentiostat
VDC	POTEN	0.00000E+000	T	DC &Voltage (V)
FREQINIT	QUANT	1.00000E+006	Initial Fre&q. (Hz)
FREQFINAL	QUANT	1.00000E+000	Final Fre&q. (Hz)
PTSPERDEC	QUANT	1.00000E+001	Points/&decade
VAC	QUANT	2.50000E+001	AC &Voltage (mV rms)
AREA	QUANT	1.00000E-001	&Area (cm^2)
CONDIT	TWOPARAM	T	5.00000E+000	0.00000E+000	Conditionin&g	Time(s)	E(V)
DELAY	TWOPARAM	T	5.00000E+000	0.00000E+000	Init. De&lay	Time(s)	Stab.(mV/s)
SPEED	SELECTOR	0	&Optimize for:
ZGUESS	QUANT	1.00000E+003	E&stimated Z (ohms)
OCVCURVE	TABLE	19
	Pt	T	Vf	Vm	Ach	Over
	#	s	V vs. Ref.	V	V	bits
	0	0.258333	8.74578E-003	8.74578E-003	6.57913E-004	...........
	1	0.516667	8.74691E-003	8.80475E-003	6.61546E-004	...........
	2	0.775	8.75259E-003	8.79587E-003	6.60613E-004	...........
	3	1.03333	8.76645E-003	8.88718E-003	6.57279E-004	...........
	4	1.29167	8.79139E-003	8.96338E-003	6.57246E-004	...........
	5	1.55	8.83172E-003	9.06417E-003	6.58079E-004	...........
	6	1.80833	8.89107E-003	9.16747E-003	6.57546E-004	...........
	7	2.06667	8.96872E-003	9.27782E-003	6.58713E-004	...........
	8	2.325	9.06010E-003	9.35731E-003	6.65113E-004	...........
	9	2.58333	9.15778E-003	9.42439E-003	6.62146E-004	...........
	10	2.84167	9.25345E-003	9.51816E-003	6.61413E-004	...........
	11	3.1	9.34325E-003	9.62370E-003	6.61213E-004	...........
	12	3.35833	9.42991E-003	9.69307E-003	6.58079E-004	...........
	13	3.61667	9.51661E-003	9.76486E-003	6.60379E-004	...........
	14	3.875	9.61152E-003	1.03427E-002	6.63746E-004	...........
	15	4.13333	9.73411E-003	9.97552E-003	6.59346E-004	...........
	16	4.39167	9.87782E-003	1.00315E-002	6.57846E-004	...........
	17	4.65	9.99328E-003	1.01135E-002	6.54446E-004	...........
	18	4.90833	1.00542E-002	1.02106E-002	6.52546E-004	...........
EOC	QUANT	0.0100542	Open Circuit (V)
PSTATMODEL	IQUANT	4	Pstat Model
PSTATSECTION	LABEL	REF600-11020	Pstat Section
PSTATSERIALNO	LABEL	11020	Pstat Serial Number
CTRLMODE	IQUANT	1	Control Mode
IESTAB	IQUANT	0	I/E Stability
CASPEED	IQUANT	1	Control Amp Speed
CONVENTION	IQUANT	1	Current Convention
ICHRANGE	IQUANT	2	Ich Range
ICHRANGEMODE	TOGGLE	F	Ich Auto Range
ICHOFFSETENABLE	TOGGLE	T	Ich Offset Enable
ICHOFFSET	QUANT	0	Ich Offset (V)
ICHFILTER	IQUANT	3	Ich Filter
VCHRANGE	IQUANT	2	Vch Range
VCHRANGEMODE	TOGGLE	F	Vch Auto Range
VCHOFFSETENABLE	TOGGLE	T	Vch Offset Enable
VCHOFFSET	QUANT	0	Vch Offset (V)
VCHFILTER	IQUANT	3	Vch Filter
ACHRANGE	IQUANT	2	Ach Range
ACHOFFSETENABLE	TOGGLE	F	Ach Offset Enable
ACHOFFSET	QUANT	0	Ach Offset (V)
ACHFILTER	IQUANT	3	Ach Filter
IERANGELOWERLIMIT	IQUANT	1	I/E Range Lower Limit
IERANGEMODE	TOGGLE	F	I/E AutoRange
IERANGE	IQUANT	7	I/E Range
POSFEEDENABLE	TOGGLE	F	Positive Feedback IR Comp
POSFEEDRESISTANCE	QUANT	0	Positive Feedback Resistance (ohm)
ACHSELECT	IQUANT	0	Ach Select
CABLEID	IQUANT	14	Cable ID
DCCALDATE	LABEL	12/22/2019	DC Calibration Date
ACCALDATE	LABEL	12/22/2019	AC Calibration Date
THERMOSELECT	IQUANT	1	Thermo Select
FRAMEWORKVERSION	QUANT	6.33	Framework Version
INSTRUMENTVERSION	LABEL	3.50	Instrument Version
ZCURVE	TABLE
	Pt	Time	Freq	Zreal	Zimag	Zsig	Zmod	Zphz	Idc	Vdc	IERange
	#	s	Hz	ohm	ohm	V	ohm	°	A	V	#
	0	1	1000078	1965.755	-922.8035	1	2171.58	-25.14722	9.325975E-006	0.0113431	8
	1	1	794390.6	2121.72	-860.1436	1	2289.442	-22.06759	1.341554E-006	0.0105658	8
	2	2	630984.4	2240.779	-773.8853	1	2370.651	-19.05309	1.0653E-005	0.0096555	8
	3	2	501234.4	2349.457	-708.9762	1	2454.097	-16.79181	-4.581187E-006	0.0123984	8
	4	2	398109.4	2448.793	-646.4276	1	2532.677	-14.7875	1.015749E-005	0.0097252	8
	5	3	316265.6	2529.526	-597.9796	1	2599.246	-13.30054	-1.331657E-006	0.0116427	8
	6	3	251203.1	2580.902	-576.1016	1	2644.418	-12.58312	3.776386E-006	0.0105255	8
	7	3	199546.9	2633.393	-527.4177	1	2685.689	-11.32539	2.611498E-006	0.0111005	8
	8	4	158578.1	2723.27	-503.9692	1	2769.51	-10.48456	2.658227E-006	0.0110942	8
	9	4	125953.1	2777.319	-437.7696	1	2811.609	-8.957439	8.978649E-007	0.0094632	7
	10	4	100078.1	2816.92	-437.1616	1	2850.64	-8.821439	-8.807528E-008	0.0116653	7
	11	5	79453.13	2867.453	-451.3211	1	2902.754	-8.944654	-9.557152E-008	0.0117297	7
	12	5	63140.62	2921.045	-471.8533	1	2958.91	-9.176053	-2.812023E-008	0.0116337	7
	13	5	50203.12	2976.416	-495.8871	1	3017.442	-9.458909	-8.431224E-008	0.0116197	7
	14	6	39890.62	3036.363	-524.5223	1	3081.334	-9.80094	-7.893182E-008	0.0116536	7
	15	6	31640.63	3102.069	-560.525	1	3152.304	-10.24248	-8.838471E-008	0.0116533	7
	16	6	25171.88	3169.514	-600.3743	1	3225.875	-10.72598	-2.837026E-008	0.0116257	7
	17	6	20015.62	3237.06	-648.8598	1	3301.451	-11.33457	-7.391711E-008	0.011588	7
	18	7	15890.62	3313.673	-701.6545	1	3387.145	-11.95552	1.297107E-007	0.0112817	7
	19	7	12609.37	3390.015	-765.4435	1	3475.357	-12.72365	-2.450877E-008	0.0116126	7
	20	7	10078.13	3470.526	-841.4248	1	3571.07	-13.62832	7.881544E-009	0.0114141	7
	21	8	8015.625	3553.094	-931.7583	1	3673.234	-14.69429	4.273164E-008	0.0113957	7
	22	8	6328.125	3643.495	-1050.818	1	3792.002	-16.08806	-2.932661E-008	0.0116208	7
	23	8	5015.625	3739.232	-1189.594	1	3923.9	-17.64788	-3.994834E-008	0.0116765	7
	24	9	3984.375	3841.902	-1356.09	1	4074.211	-19.44169	-2.959541E-008	0.0116227	7
	25	9	3170.956	3950.79	-1556.749	1	4246.435	-21.50617	4.302701E-008	0.0113918	7
	26	9	2527.573	4070.721	-1798.731	1	4450.416	-23.83922	1.285027E-007	0.0112696	7
	27	10	1976.103	4217.071	-2114.33	1	4717.423	-26.62799	-7.955843E-008	0.0116479	7
	28	10	1577.524	4378.67	-2464.721	1	5024.7	-29.37484	2.162819E-007	0.0112147	7
	29	10	1265.625	4526.225	-2887.149	1	5368.645	-32.53264	-2.983603E-008	0.0115049	7
	30	11	998.264	4719.373	-3433.91	1	5836.456	-36.04039	-4.460974E-008	0.0115493	7
	31	11	796.875	4920.038	-4066.314	1	6382.921	-39.57306	-3.986552E-008	0.0116716	7
	32	11	627.7902	5165.08	-4873.294	1	7101.201	-43.33505	3.755996E-008	0.0115176	7
	33	12	505.5147	5415.987	-5788.095	1	7926.85	-46.9022	-3.695134E-008	0.0117459	7
	34	12	397.9953	5734.882	-7009.759	1	9056.798	-50.71243	6.474067E-009	0.0115304	7
	35	12	315.5048	6103.551	-8476.186	1	10445.05	-54.24301	6.675861E-010	0.0115304	6
	36	12	252.4038	6514.45	-10205.23	1	12107.22	-57.4481	8.058507E-010	0.0115259	6
	37	13	198.6229	7050.417	-12490.21	1	14342.73	-60.55635	3.893896E-010	0.0115276	6
	38	13	158.3615	7671.771	-15149.45	1	16981.22	-63.14207	9.029383E-010	0.0115229	6
	39	13	125.558	8461.937	-18493.29	1	20337.31	-65.41269	7.546459E-010	0.0115238	6
	40	14	100.4464	9410.334	-22409.45	1	24305.1	-67.22115	-2.11711E-010	0.0115215	6
	41	14	79.00281	10763.37	-27542.47	1	29570.89	-68.65485	1.606544E-010	0.0115191	6
	42	14	63.3446	12377.19	-33593.03	1	35800.64	-69.77393	6.638473E-010	0.01152	6
	43	15	49.86702	14598.52	-41157.46	1	43669.82	-70.47044	9.994424E-010	0.0115229	6
	44	15	39.72458	17459.17	-49706.9	1	52683.95	-70.64657	8.834199E-010	0.0115228	6
	45	15	31.6723	21210.15	-60005.05	1	63643.36	-70.53289	5.792558E-010	0.0115241	6
	46	16	24.93351	26201.05	-72910.52	1	77475.41	-70.23364	9.853137E-011	0.0115255	6
	47	16	19.86229	32282.64	-87348.34	1	93123.04	-69.71644	-5.789461E-010	0.0115214	6
	48	16	15.83615	39433.46	-104747.6	1	111924.3	-69.37056	-5.89373E-010	0.0115205	5
	49	17	12.40079	51157.32	-125494.9	1	135521.3	-67.82199	8.739071E-010	0.0115169	5
	50	17	9.93114	62354.27	-147085.4	1	159756.6	-67.02634	-7.182315E-010	0.0115231	5
	51	18	7.944915	76671.29	-172300	1	188588.9	-66.01155	-2.748498E-010	0.0115184	5
	52	18	6.317385	93984.79	-202140.1	1	222921	-65.06399	-1.552862E-010	0.0115194	5
	53	19	5.008013	114682.3	-236571.6	1	262903.3	-64.13737	-3.267691E-010	0.0115093	5
	54	20	3.945707	139610.8	-276629.3	1	309862.8	-63.22058	3.787796E-012	0.011519	5
	55	21	3.158693	166868.3	-320019.3	1	360911.9	-62.46102	-2.072275E-010	0.0115276	5
	56	23	2.504006	198954.1	-372416.9	1	422228.8	-61.88779	-2.562646E-010	0.0115145	5
	57	24	1.998082	234936.1	-430554.9	1	490481.9	-61.38052	2.162332E-012	0.0115523	5
	58	26	1.584686	276546.5	-501745.8	1	572910.8	-61.13783	2.865095E-011	0.0115532	5
	59	28	1.266892	322865.5	-580080.8	1	663879.4	-60.90025	-2.515769E-011	0.0115178	5
	60	30	0.999041	382880.9	-676774.9	1	777574.4	-60.50127	-1.372976E-011	0.0114912	5
