EXPLAIN
TAG	EISPOT
TITLE	LABEL	Potentiostatic EIS	Test &Identifier
DATE	LABEL	6/19/2020	Date
TIME	LABEL	17:00:08	Time
NOTES	NOTES	1	&Notes...
	
PSTAT	PSTAT	REF600-10037	Potentiostat
VDC	POTEN	0.00000E+000	T	DC &Voltage (V)
FREQINIT	QUANT	1.00000E+006	Initial Fre&q. (Hz)
FREQFINAL	QUANT	1.00000E+000	Final Fre&q. (Hz)
PTSPERDEC	QUANT	1.00000E+001	Points/&decade
VAC	QUANT	1.00000E+002	AC &Voltage (mV rms)
AREA	QUANT	2.50000E-001	&Area (cm^2)
CONDIT	TWOPARAM	F	5.00000E+000	0.00000E+000	Conditionin&g	Time(s)	E(V)
DELAY	TWOPARAM	F	5.00000E+000	0.00000E+000	Init. De&lay	Time(s)	Stab.(mV/s)
SPEED	SELECTOR	0	&Optimize for:
ZGUESS	QUANT	1.00000E+003	E&stimated Z (ohms)
OCVCURVE	TABLE	39
	Pt	T	Vf	Vm	Ach	Over
	#	s	V vs. Ref.	V	V	bits
	0	0.258333	-9.64526E-002	-9.64526E-002	5.25354E-004	...........
	1	0.516667	-9.64524E-002	-9.64418E-002	5.21754E-004	...........
	2	0.775	-9.64512E-002	-9.64342E-002	5.23654E-004	...........
	3	1.03333	-9.64479E-002	-9.64235E-002	5.25421E-004	...........
	4	1.29167	-9.64420E-002	-9.64170E-002	5.22354E-004	...........
	5	1.55	-9.64343E-002	-9.64078E-002	5.24354E-004	...........
	6	1.80833	-9.64258E-002	-9.63994E-002	5.23521E-004	...........
	7	2.06667	-9.64172E-002	-9.63917E-002	5.18254E-004	...........
	8	2.325	-9.64087E-002	-9.63845E-002	5.20554E-004	...........
	9	2.58333	-9.64005E-002	-9.63758E-002	5.20387E-004	...........
	10	2.84167	-9.63925E-002	-9.63672E-002	5.22021E-004	...........
	11	3.1	-9.63844E-002	-9.63568E-002	5.23054E-004	...........
	12	3.35833	-9.63760E-002	-9.63479E-002	5.22488E-004	...........
	13	3.61667	-9.63672E-002	-9.63404E-002	5.22088E-004	...........
	14	3.875	-9.63582E-002	-9.63325E-002	5.20754E-004	...........
	15	4.13333	-9.63495E-002	-9.63248E-002	5.26887E-004	...........
	16	4.39167	-9.63411E-002	-9.63155E-002	5.25054E-004	...........
	17	4.65	-9.63329E-002	-9.63065E-002	5.18621E-004	...........
	18	4.90833	-9.63247E-002	-9.62976E-002	5.30854E-004	...........
	19	5.16667	-9.63162E-002	-9.62939E-002	5.23054E-004	...........
	20	5.425	-9.63078E-002	-9.62810E-002	5.26354E-004	...........
	21	5.68333	-9.62996E-002	-9.62717E-002	5.20588E-004	...........
	22	5.94167	-9.62913E-002	-9.62645E-002	5.21254E-004	...........
	23	6.2	-9.62825E-002	-9.62587E-002	5.21321E-004	...........
	24	6.45833	-9.62740E-002	-9.62500E-002	5.24421E-004	...........
	25	6.71667	-9.62659E-002	-9.62434E-002	5.21654E-004	...........
	26	6.975	-9.62584E-002	-9.62356E-002	5.22454E-004	...........
	27	7.23333	-9.62510E-002	-9.62304E-002	5.19921E-004	...........
	28	7.49167	-9.62439E-002	-9.62254E-002	5.18088E-004	...........
	29	7.75	-9.62373E-002	-9.62213E-002	5.20321E-004	...........
	30	8.00833	-9.62314E-002	-9.62122E-002	5.14488E-004	...........
	31	8.26667	-9.62257E-002	-9.62072E-002	5.22488E-004	...........
	32	8.525	-9.62198E-002	-9.61978E-002	5.21521E-004	...........
	33	8.78333	-9.62134E-002	-9.61926E-002	5.20754E-004	...........
	34	9.04167	-9.62066E-002	-9.61844E-002	5.24321E-004	...........
	35	9.3	-9.61996E-002	-9.61818E-002	5.24021E-004	...........
	36	9.5583	-9.61929E-002	-9.61721E-002	5.18488E-004	...........
	37	9.8167	-9.61864E-002	-9.61672E-002	5.17288E-004	...........
	38	10.075	-9.61802E-002	-9.61612E-002	5.19154E-004	...........
EOC	QUANT	-0.0961802	Open Circuit (V)
PSTATMODEL	IQUANT	4	Pstat Model
PSTATSECTION	LABEL	REF600-10037	Pstat Section
PSTATSERIALNO	LABEL	10037	Pstat Serial Number
CTRLMODE	IQUANT	1	Control Mode
IESTAB	IQUANT	0	I/E Stability
CASPEED	IQUANT	1	Control Amp Speed
CONVENTION	IQUANT	1	Current Convention
ICHRANGE	IQUANT	2	Ich Range
ICHRANGEMODE	TOGGLE	F	Ich Auto Range
ICHOFFSETENABLE	TOGGLE	T	Ich Offset Enable
ICHOFFSET	QUANT	0	Ich Offset (V)
ICHFILTER	IQUANT	3	Ich Filter
VCHRANGE	IQUANT	2	Vch Range
VCHRANGEMODE	TOGGLE	F	Vch Auto Range
VCHOFFSETENABLE	TOGGLE	T	Vch Offset Enable
VCHOFFSET	QUANT	0	Vch Offset (V)
VCHFILTER	IQUANT	3	Vch Filter
ACHRANGE	IQUANT	2	Ach Range
ACHOFFSETENABLE	TOGGLE	F	Ach Offset Enable
ACHOFFSET	QUANT	0	Ach Offset (V)
ACHFILTER	IQUANT	3	Ach Filter
IERANGELOWERLIMIT	IQUANT	1	I/E Range Lower Limit
IERANGEMODE	TOGGLE	F	I/E AutoRange
IERANGE	IQUANT	8	I/E Range
POSFEEDENABLE	TOGGLE	F	Positive Feedback IR Comp
POSFEEDRESISTANCE	QUANT	0	Positive Feedback Resistance (ohm)
ACHSELECT	IQUANT	0	Ach Select
CABLEID	IQUANT	14	Cable ID
DCCALDATE	LABEL	6/8/2020	DC Calibration Date
ACCALDATE	LABEL	6/8/2020	AC Calibration Date
THERMOSELECT	IQUANT	1	Thermo Select
FRAMEWORKVERSION	QUANT	6.33	Framework Version
INSTRUMENTVERSION	LABEL	3.50	Instrument Version
ZCURVE	TABLE
	Pt	Time	Freq	Zreal	Zimag	Zsig	Zmod	Zphz	Idc	Vdc	IERange
	#	s	Hz	ohm	ohm	V	ohm	°	A	V	#
	0	2	1000078	1272.928	-2862.213	1	3132.509	-66.02358	7.134016E-008	-0.0872065	8
	1	3	794390.6	1512.999	-3437.134	1	3755.404	-66.24129	8.483811E-008	-0.0874833	8
	2	3	630984.4	1826.236	-4105.179	1	4493.065	-66.01756	7.816869E-008	-0.0876206	8
	3	3	501234.4	2217.26	-4897.595	1	5376.121	-65.64259	5.037198E-008	-0.0876947	8
	4	4	398109.4	2733.771	-5827.615	1	6436.971	-64.86842	1.037145E-007	-0.0877294	8
	5	4	316265.6	3402.208	-6894.029	1	7687.826	-63.73363	7.056899E-008	-0.0877771	8
	6	4	251203.1	4241.772	-8111.24	1	9153.406	-62.39268	4.469249E-008	-0.0877246	8
	7	4	199546.9	5358.44	-9456.846	1	10869.44	-60.46323	6.340144E-008	-0.087708	8
	8	5	158578.1	6736.287	-10892.66	1	12807.33	-58.26635	7.077682E-008	-0.087664	8
	9	5	125953.1	8781.875	-12271.07	1	15089.75	-54.41034	3.310094E-010	-0.0876625	7
	10	5	100078.1	10842.18	-13668.91	1	17446.83	-51.57855	7.35236E-009	-0.0876792	7
	11	6	79453.13	13225.15	-15042.13	1	20029.23	-48.67784	5.269271E-009	-0.0877098	7
	12	6	63140.62	15865.7	-16109.82	1	22610.76	-45.43741	1.319989E-008	-0.0877157	7
	13	6	50203.12	18739.84	-17029.66	1	25321.75	-42.26271	4.497181E-009	-0.0877456	7
	14	7	39890.62	21728.52	-17561.12	1	27937.82	-38.94535	7.0089E-009	-0.0877498	7
	15	7	31640.63	24729.06	-17978.85	1	30573.93	-36.01839	2.415764E-009	-0.0877574	7
	16	7	25171.88	27605.53	-18087.9	1	33003.6	-33.23392	1.251464E-008	-0.0877574	7
	17	8	20015.62	30360.52	-18125.59	1	35359.55	-30.83771	-1.185039E-009	-0.0877565	7
	18	8	15890.62	32991.46	-18116.84	1	37638.5	-28.77283	2.28455E-010	-0.0877506	7
	19	8	12609.37	36092.73	-17507.29	1	40114.72	-25.87637	-4.29618E-010	-0.0877569	6
	20	9	10078.13	38344.68	-17707.23	1	42235.78	-24.78707	2.370434E-009	-0.0877585	6
	21	9	8015.625	40608.94	-18043.18	1	44436.95	-23.95632	-4.644568E-010	-0.0877532	6
	22	9	6328.125	42971.35	-18536.89	1	46799.07	-23.3343	-9.504635E-010	-0.0877595	6
	23	10	5015.625	45350.38	-19195.32	1	49245.48	-22.94134	-8.540352E-010	-0.0877571	6
	24	10	3984.375	47752.51	-19986.15	1	51766.28	-22.71107	-8.968562E-010	-0.0877566	6
	25	10	3170.956	50380.07	-20980.47	1	54574.1	-22.60899	2.589217E-009	-0.0877732	6
	26	11	2527.573	52811.28	-22070.29	1	57237.48	-22.68047	9.7166E-010	-0.0877604	6
	27	11	1976.103	55752.73	-23524.34	1	60512.49	-22.87685	-1.323939E-009	-0.0877531	6
	28	11	1577.524	58578.75	-25065.45	1	63716.14	-23.16575	-4.614982E-010	-0.0877446	6
	29	11	1265.625	61510.84	-26855.91	1	67117.98	-23.5863	-7.690347E-010	-0.0877482	6
	30	12	998.264	64877.64	-29054.24	1	71086.26	-24.12433	4.767611E-011	-0.0877524	6
	31	12	796.875	68322.46	-31447.61	1	75212.44	-24.71577	-1.421622E-009	-0.0877579	6
	32	12	627.7902	72200.15	-34336.25	1	79948.98	-25.43438	1.440562E-009	-0.0877613	6
	33	13	505.5147	76039.24	-37401.79	1	84739.95	-26.19141	1.517806E-009	-0.0877637	6
	34	13	397.9953	80685.98	-41216.48	1	90603.67	-27.05912	5.694273E-010	-0.0877469	6
	35	13	315.5048	85592.1	-45641.72	1	97000.9	-28.06863	3.099102E-011	-0.0877357	6
	36	14	252.4038	90875.41	-50427.12	1	103929	-29.02607	-4.514462E-011	-0.0877377	6
	37	14	198.6229	97155.2	-56281.58	1	112279.8	-30.08353	-1.213193E-010	-0.087738	6
	38	14	158.3615	103765.1	-62568.45	1	121169.4	-31.0892	2.393589E-010	-0.0877355	6
	39	15	125.558	111281.8	-69877.25	1	131401.9	-32.12598	-1.573711E-010	-0.0877369	6
	40	15	100.4464	119302.8	-77834.23	1	142447.6	-33.12079	-4.046961E-010	-0.0877312	6
	41	15	79.00281	128873.3	-87561.38	1	155805.4	-34.19368	3.634395E-010	-0.0877358	6
	42	16	63.3446	138689.5	-97768	1	169686	-35.18159	-1.338646E-010	-0.0877339	6
	43	16	49.86702	150378.6	-110144.3	1	186401.4	-36.22077	1.347659E-010	-0.0877475	6
	44	16	39.72458	163213.1	-124163.1	1	205073.1	-37.26178	-6.190518E-010	-0.0877288	6
	45	17	31.6723	177525.8	-139720.6	1	225914.3	-38.2043	-6.897799E-012	-0.0877321	6
	46	17	24.93351	194615.1	-158347.9	1	250896.6	-39.13339	1.08784E-009	-0.0877382	6
	47	17	19.86229	213467.3	-178838.4	1	278480.6	-39.95557	-7.568562E-009	-0.0963041	6
	48	18	15.83615	234622.4	-201457.7	1	309245.7	-40.65093	-5.780835E-009	-0.0963084	6
	49	18	12.40079	260374.2	-229281.8	1	346936.4	-41.36668	-4.644596E-009	-0.096306	6
	50	18	9.93114	287405.1	-257621.4	1	385967	-41.87211	-3.65697E-009	-0.0963061	6
	51	19	7.944915	318216.3	-289031.1	1	429884.4	-42.2484	-3.663574E-009	-0.0962971	5
	52	19	6.317385	354816.8	-324366	1	480737.2	-42.43289	-2.494796E-009	-0.0962917	5
	53	20	5.008013	397077.2	-363469.1	1	538312.3	-42.46978	-1.943664E-009	-0.0962989	5
	54	21	3.945707	445799.7	-406732	1	603463.6	-42.37622	-1.504951E-009	-0.0963017	5
	55	22	3.158693	495878	-450139	1	669716.4	-42.23196	-1.299108E-009	-0.0962934	5
	56	24	2.504006	553440.4	-498490	1	744841.3	-42.00972	-1.136815E-009	-0.0963011	5
	57	25	1.998082	610407.6	-550203.2	1	821779.1	-42.03056	-1.000071E-009	-0.0963012	5
	58	27	1.584686	671923.3	-610680.3	1	907970.9	-42.26626	-6.737049E-010	-0.0963056	5
	59	30	1.266892	733316	-678439.4	1	999016	-42.77396	-5.059376E-010	-0.0963015	5
	60	33	0.999041	801154.8	-764765.4	1	1107572	-43.66878	-5.216803E-010	-0.0962982	5
