EXPLAIN
TAG	EISPOT
TITLE	LABEL	Potentiostatic EIS	Test &Identifier
DATE	LABEL	6/1/2020	Date
TIME	LABEL	13:27:45	Time
NOTES	NOTES	1	&Notes...
	
PSTAT	PSTAT	REF600-11020	Potentiostat
VDC	POTEN	0.00000E+000	T	DC &Voltage (V)
FREQINIT	QUANT	1.00000E+006	Initial Fre&q. (Hz)
FREQFINAL	QUANT	1.00000E+000	Final Fre&q. (Hz)
PTSPERDEC	QUANT	1.00000E+001	Points/&decade
VAC	QUANT	2.50000E+001	AC &Voltage (mV rms)
AREA	QUANT	4.00000E-004	&Area (cm^2)
CONDIT	TWOPARAM	F	5.00000E+000	0.00000E+000	Conditionin&g	Time(s)	E(V)
DELAY	TWOPARAM	T	3.00000E+000	0.00000E+000	Init. De&lay	Time(s)	Stab.(mV/s)
SPEED	SELECTOR	0	&Optimize for:
ZGUESS	QUANT	1.00000E+003	E&stimated Z (ohms)
OCVCURVE	TABLE	12
	Pt	T	Vf	Vm	Ach	Over
	#	s	V vs. Ref.	V	V	bits
	0	0.258333	-1.05473E-001	-1.05473E-001	5.84930E-004	...........
	1	0.516667	-1.05472E-001	-1.05459E-001	5.80630E-004	...........
	2	0.775	-1.05471E-001	-1.05449E-001	5.86663E-004	...........
	3	1.03333	-1.05467E-001	-1.05438E-001	5.83130E-004	...........
	4	1.29167	-1.05459E-001	-1.05429E-001	5.77730E-004	...........
	5	1.55	-1.05450E-001	-1.05423E-001	5.84330E-004	...........
	6	1.80833	-1.05440E-001	-1.05417E-001	5.81997E-004	...........
	7	2.06667	-1.05432E-001	-1.05415E-001	5.80530E-004	...........
	8	2.325	-1.05424E-001	-1.05410E-001	5.88497E-004	...........
	9	2.58333	-1.05419E-001	-1.05407E-001	5.80797E-004	...........
	10	2.84167	-1.05414E-001	-1.05401E-001	5.77697E-004	...........
	11	3.1	-1.05410E-001	-1.05397E-001	5.80930E-004	...........
EOC	QUANT	-0.1054103	Open Circuit (V)
PSTATMODEL	IQUANT	4	Pstat Model
PSTATSECTION	LABEL	REF600-11020	Pstat Section
PSTATSERIALNO	LABEL	11020	Pstat Serial Number
CTRLMODE	IQUANT	1	Control Mode
IESTAB	IQUANT	0	I/E Stability
CASPEED	IQUANT	1	Control Amp Speed
CONVENTION	IQUANT	1	Current Convention
ICHRANGE	IQUANT	2	Ich Range
ICHRANGEMODE	TOGGLE	F	Ich Auto Range
ICHOFFSETENABLE	TOGGLE	T	Ich Offset Enable
ICHOFFSET	QUANT	0	Ich Offset (V)
ICHFILTER	IQUANT	3	Ich Filter
VCHRANGE	IQUANT	2	Vch Range
VCHRANGEMODE	TOGGLE	F	Vch Auto Range
VCHOFFSETENABLE	TOGGLE	T	Vch Offset Enable
VCHOFFSET	QUANT	0	Vch Offset (V)
VCHFILTER	IQUANT	3	Vch Filter
ACHRANGE	IQUANT	2	Ach Range
ACHOFFSETENABLE	TOGGLE	F	Ach Offset Enable
ACHOFFSET	QUANT	0	Ach Offset (V)
ACHFILTER	IQUANT	3	Ach Filter
IERANGELOWERLIMIT	IQUANT	1	I/E Range Lower Limit
IERANGEMODE	TOGGLE	F	I/E AutoRange
IERANGE	IQUANT	8	I/E Range
POSFEEDENABLE	TOGGLE	F	Positive Feedback IR Comp
POSFEEDRESISTANCE	QUANT	0	Positive Feedback Resistance (ohm)
ACHSELECT	IQUANT	0	Ach Select
CABLEID	IQUANT	14	Cable ID
DCCALDATE	LABEL	2/27/2020	DC Calibration Date
ACCALDATE	LABEL	2/27/2020	AC Calibration Date
THERMOSELECT	IQUANT	1	Thermo Select
FRAMEWORKVERSION	QUANT	6.33	Framework Version
INSTRUMENTVERSION	LABEL	3.50	Instrument Version
ZCURVE	TABLE
	Pt	Time	Freq	Zreal	Zimag	Zsig	Zmod	Zphz	Idc	Vdc	IERange
	#	s	Hz	ohm	ohm	V	ohm	°	A	V	#
	0	1	1000078	1688.081	-2305.602	1	2857.519	-53.78971	4.252345E-008	-0.1029636	8
	1	1	794390.6	2035.036	-2610.977	1	3310.373	-52.06659	5.906151E-008	-0.1033331	8
	2	1	630984.4	2448.786	-2927.262	1	3816.467	-50.08601	4.756724E-008	-0.1035171	8
	3	2	501234.4	2940.149	-3242.639	1	4377.121	-47.80094	4.458875E-008	-0.1036171	8
	4	2	398109.4	3523.414	-3541.122	1	4995.397	-45.14362	5.926157E-008	-0.103693	8
	5	2	316265.6	4187.19	-3783.123	1	5643.101	-42.09779	5.37117E-008	-0.103729	8
	6	3	251203.1	4920.49	-3942.5	1	6305.119	-38.70316	7.08424E-008	-0.1037325	8
	7	3	199546.9	5705.441	-4005.093	1	6970.855	-35.068	5.69281E-008	-0.1037537	8
	8	3	158578.1	6480.853	-3951.192	1	7590.348	-31.36948	4.609719E-008	-0.1037462	8
	9	4	125953.1	7319.836	-3682.699	1	8194.039	-26.70753	2.331135E-009	-0.1038115	7
	10	4	100078.1	7933.561	-3443.535	1	8648.659	-23.46309	1.7824E-009	-0.1038337	7
	11	4	79453.13	8494.294	-3186.907	1	9072.453	-20.56519	2.567979E-009	-0.1038306	7
	12	5	63140.62	8957.563	-2898.898	1	9414.963	-17.93292	1.370784E-009	-0.1038452	7
	13	5	50203.12	9341.646	-2624.54	1	9703.33	-15.69273	1.486263E-009	-0.1038468	7
	14	5	39890.62	9660.68	-2375.444	1	9948.45	-13.81428	2.074791E-009	-0.1038461	7
	15	6	31640.63	9922.06	-2160.824	1	10154.63	-12.28602	1.231693E-009	-0.1038483	7
	16	6	25171.88	10148.06	-1991.791	1	10341.68	-11.10446	2.285906E-009	-0.1038437	7
	17	6	20015.62	10341.77	-1863.296	1	10508.29	-10.21351	2.798482E-009	-0.1038382	7
	18	7	15890.62	10514.14	-1772.533	1	10662.51	-9.56926	1.847262E-009	-0.1038454	7
	19	7	12609.37	10750.01	-1548.91	1	10861.02	-8.19901	-7.894052E-011	-0.1037947	6
	20	7	10078.13	10880.27	-1569.913	1	10992.95	-8.210535	1.382748E-010	-0.1037868	6
	21	8	8015.625	11011.05	-1627.765	1	11130.71	-8.40914	-1.063957E-011	-0.1037885	6
	22	8	6328.125	11150.63	-1730.938	1	11284.18	-8.82373	-3.300019E-011	-0.1037929	6
	23	8	5015.625	11294.53	-1877.258	1	11449.48	-9.436831	-7.283928E-011	-0.1037933	6
	24	8	3984.375	11440.45	-2071.946	1	11626.56	-10.2654	-1.095594E-010	-0.1037938	6
	25	9	3170.956	11594.59	-2323.236	1	11825.06	-11.33044	-1.647248E-010	-0.1037948	6
	26	9	2527.573	11758.46	-2637.885	1	12050.72	-12.64435	-8.159286E-011	-0.1037924	6
	27	9	1976.103	11958.45	-3070.065	1	12346.25	-14.39846	-1.703523E-010	-0.103801	6
	28	10	1577.524	12156.62	-3558.65	1	12666.79	-16.31652	-1.183238E-010	-0.1038014	6
	29	10	1265.625	12372.21	-4145.489	1	13048.24	-18.52418	-1.137892E-010	-0.1037967	6
	30	10	998.264	12631.5	-4924.312	1	13557.42	-21.29801	-1.761234E-010	-0.1037995	6
	31	11	796.875	12907.93	-5833.925	1	14165.08	-24.32127	-1.637983E-010	-0.1037978	6
	32	11	627.7902	13251.08	-7016.002	1	14993.84	-27.89972	-2.122437E-010	-0.103804	6
	33	11	505.5147	13608.58	-8334.739	1	15958.11	-31.48589	-5.210421E-010	-0.1038036	6
	34	12	397.9953	14073.18	-10117.1	1	17332.34	-35.71207	3.185587E-010	-0.1037847	6
	35	12	315.5048	14624.78	-12248.66	1	19076.53	-39.94712	3.450736E-010	-0.103786	6
	36	12	252.4038	15270.74	-14749.18	1	21230.49	-44.00466	2.569072E-010	-0.1037903	6
	37	13	198.6229	16135.51	-18029.02	1	24195.04	-48.17228	3.342661E-010	-0.1037902	6
	38	13	158.3615	17160.06	-21810.7	1	27752.01	-51.80531	2.548992E-010	-0.1037924	6
	39	13	125.558	18480.76	-26510.98	1	32316.72	-55.11971	3.462035E-010	-0.1037952	6
	40	14	100.4464	20078.09	-31962.02	1	37745.21	-57.86355	2.999872E-010	-0.1037933	6
	41	14	79.00281	22251.41	-39049.72	1	44944.47	-60.32454	2.125816E-010	-0.1037932	6
	42	14	63.3446	24765.7	-46885.07	1	53024.05	-62.15603	1.292821E-010	-0.1037947	6
	43	15	49.86702	28180.35	-57069.86	1	63648.26	-63.72045	2.090521E-010	-0.1037981	6
	44	15	39.72458	32252.8	-68677.52	1	75873.88	-64.84399	4.074151E-010	-0.1037934	6
	45	15	31.6723	37333.08	-82491.68	1	90546.32	-65.65002	4.66319E-010	-0.1037967	6
	46	16	24.93351	44164.54	-99885.2	1	109213.3	-66.14723	-5.722993E-011	-0.1037906	5
	47	16	19.86229	52299.2	-119668.1	1	130597.3	-66.39296	6.525738E-010	-0.1037881	5
	48	16	15.83615	62719.86	-143064.8	1	156209.2	-66.32727	-6.311486E-010	-0.1037955	5
	49	17	12.40079	77170.58	-172723.9	1	189179.4	-65.92558	-3.787694E-010	-0.1037899	5
	50	17	9.93114	94090.08	-204165.6	1	224803.3	-65.2573	-6.339614E-010	-0.1037868	5
	51	17	7.944915	115091.2	-240210.8	1	266359.2	-64.39972	-6.752282E-010	-0.1037869	5
	52	18	6.317385	142708.3	-282107.2	1	316148.9	-63.16674	1.188125E-010	-0.1038064	5
	53	18	5.008013	177621.9	-329723.8	1	374522.8	-61.6887	3.670642E-011	-0.1037974	5
	54	19	3.945707	221037.1	-383482.1	1	442623.9	-60.04108	-2.697856E-010	-0.1037949	5
	55	20	3.158693	270168.6	-436886.8	1	513674.1	-58.26756	4.942351E-011	-0.1038061	5
	56	21	2.504006	329287.1	-496990.8	1	596179.3	-56.47307	1.77857E-010	-0.1038036	5
	57	23	1.998082	395060.1	-556991.6	1	682870.5	-54.65289	-3.665681E-011	-0.103843	5
	58	24	1.584686	470070.6	-624989.4	1	782034.6	-53.05223	-8.55838E-011	-0.10385	5
	59	26	1.266892	548793.1	-692413.4	1	883521.5	-51.60036	-2.798884E-011	-0.1038089	5
	60	29	0.999041	642324.9	-770137.4	1	1002842	-50.17057	-9.040978E-012	-0.1037907	4
