EXPLAIN
TAG	EISPOT
TITLE	LABEL	Potentiostatic EIS	Test &Identifier
DATE	LABEL	3/17/2020	Date
TIME	LABEL	16:10:43	Time
NOTES	NOTES	1	&Notes...
	
PSTAT	PSTAT	REF600-11020	Potentiostat
VDC	POTEN	0.00000E+000	T	DC &Voltage (V)
FREQINIT	QUANT	1.00000E+006	Initial Fre&q. (Hz)
FREQFINAL	QUANT	1.00000E+000	Final Fre&q. (Hz)
PTSPERDEC	QUANT	1.00000E+001	Points/&decade
VAC	QUANT	2.50000E+001	AC &Voltage (mV rms)
AREA	QUANT	4.00000E-004	&Area (cm^2)
CONDIT	TWOPARAM	F	5.00000E+000	0.00000E+000	Conditionin&g	Time(s)	E(V)
DELAY	TWOPARAM	T	3.00000E+000	0.00000E+000	Init. De&lay	Time(s)	Stab.(mV/s)
SPEED	SELECTOR	0	&Optimize for:
ZGUESS	QUANT	5.00000E+003	E&stimated Z (ohms)
OCVCURVE	TABLE	12
	Pt	T	Vf	Vm	Ach	Over
	#	s	V vs. Ref.	V	V	bits
	0	0.258333	9.59568E-004	9.59568E-004	5.94630E-004	...........
	1	0.516667	9.59714E-004	9.67199E-004	5.92696E-004	...........
	2	0.775	9.60636E-004	9.75852E-004	5.89596E-004	...........
	3	1.03333	9.63350E-004	9.84905E-004	5.95030E-004	...........
	4	1.29167	9.68436E-004	9.93324E-004	5.92763E-004	...........
	5	1.55	9.75450E-004	9.97144E-004	5.89963E-004	...........
	6	1.80833	9.83207E-004	1.00453E-003	5.92063E-004	...........
	7	2.06667	9.90628E-004	1.00951E-003	5.93663E-004	...........
	8	2.325	9.97334E-004	1.01535E-003	5.98363E-004	...........
	9	2.58333	1.00342E-003	1.01869E-003	5.92696E-004	...........
	10	2.84167	1.00895E-003	1.02175E-003	5.91930E-004	...........
	11	3.1	1.01387E-003	1.02866E-003	5.93596E-004	...........
EOC	QUANT	0.0010139	Open Circuit (V)
PSTATMODEL	IQUANT	4	Pstat Model
PSTATSECTION	LABEL	REF600-11020	Pstat Section
PSTATSERIALNO	LABEL	11020	Pstat Serial Number
CTRLMODE	IQUANT	1	Control Mode
IESTAB	IQUANT	0	I/E Stability
CASPEED	IQUANT	1	Control Amp Speed
CONVENTION	IQUANT	1	Current Convention
ICHRANGE	IQUANT	2	Ich Range
ICHRANGEMODE	TOGGLE	F	Ich Auto Range
ICHOFFSETENABLE	TOGGLE	T	Ich Offset Enable
ICHOFFSET	QUANT	0	Ich Offset (V)
ICHFILTER	IQUANT	3	Ich Filter
VCHRANGE	IQUANT	2	Vch Range
VCHRANGEMODE	TOGGLE	F	Vch Auto Range
VCHOFFSETENABLE	TOGGLE	T	Vch Offset Enable
VCHOFFSET	QUANT	0	Vch Offset (V)
VCHFILTER	IQUANT	3	Vch Filter
ACHRANGE	IQUANT	2	Ach Range
ACHOFFSETENABLE	TOGGLE	F	Ach Offset Enable
ACHOFFSET	QUANT	0	Ach Offset (V)
ACHFILTER	IQUANT	3	Ach Filter
IERANGELOWERLIMIT	IQUANT	1	I/E Range Lower Limit
IERANGEMODE	TOGGLE	F	I/E AutoRange
IERANGE	IQUANT	5	I/E Range
POSFEEDENABLE	TOGGLE	F	Positive Feedback IR Comp
POSFEEDRESISTANCE	QUANT	0	Positive Feedback Resistance (ohm)
ACHSELECT	IQUANT	0	Ach Select
CABLEID	IQUANT	14	Cable ID
DCCALDATE	LABEL	2/27/2020	DC Calibration Date
ACCALDATE	LABEL	2/27/2020	AC Calibration Date
THERMOSELECT	IQUANT	1	Thermo Select
FRAMEWORKVERSION	QUANT	6.33	Framework Version
INSTRUMENTVERSION	LABEL	3.50	Instrument Version
ZCURVE	TABLE
	Pt	Time	Freq	Zreal	Zimag	Zsig	Zmod	Zphz	Idc	Vdc	IERange
	#	s	Hz	ohm	ohm	V	ohm	°	A	V	#
	0	1	1000078	1758.685	-1524.703	1	2327.594	-40.92387	1.801922E-008	0.0033207	8
	1	1	794390.6	2004.258	-1592.889	1	2560.146	-38.47601	1.807418E-008	0.0030625	8
	2	2	630984.4	2244.837	-1653.446	1	2788.042	-36.3737	4.141529E-008	0.0028827	8
	3	2	501234.4	2483.453	-1716.39	1	3018.863	-34.64954	3.222231E-008	0.0027811	8
	4	2	398109.4	2719.08	-1787.408	1	3253.955	-33.31922	4.320803E-008	0.0027381	8
	5	3	316265.6	2952.744	-1867.719	1	3493.862	-32.31485	5.767683E-008	0.0027296	8
	6	3	251203.1	3202.257	-1973.703	1	3761.643	-31.6475	3.428526E-008	0.0027092	8
	7	3	199546.9	3451.304	-2095.219	1	4037.504	-31.26111	5.742304E-008	0.0027209	8
	8	4	158578.1	3724.683	-2242.115	1	4347.453	-31.04632	4.432507E-008	0.0027133	8
	9	4	125953.1	4052.849	-2368.906	1	4694.39	-30.30645	4.137635E-010	0.002683	7
	10	4	100078.1	4353.357	-2551.227	1	5045.838	-30.37187	2.634198E-009	0.0026444	7
	11	5	79453.13	4694.208	-2771.956	1	5451.544	-30.56208	2.379487E-009	0.0026443	7
	12	5	63140.62	5066.3	-3008.922	1	5892.454	-30.70647	2.082645E-009	0.0026332	7
	13	5	50203.12	5472.289	-3267.344	1	6373.498	-30.84019	2.859734E-009	0.0026355	7
	14	5	39890.62	5912.394	-3549.002	1	6895.782	-30.97492	2.985525E-009	0.0026325	7
	15	6	31640.63	6393.012	-3854.327	1	7465.014	-31.08565	3.551217E-009	0.0026312	7
	16	6	25171.88	6907.542	-4182.591	1	8075.16	-31.19536	3.560141E-009	0.002633	7
	17	6	20015.62	7456.992	-4537.417	1	8728.969	-31.3196	2.476242E-009	0.0026333	7
	18	7	15890.62	8050.52	-4930.099	1	9440.166	-31.4831	3.236813E-009	0.002626	7
	19	7	12609.37	8739.528	-5291.601	1	10216.67	-31.19402	1.200918E-009	0.0026811	6
	20	7	10078.13	9374.449	-5770.273	1	11008.01	-31.61363	9.75879E-010	0.0026785	6
	21	8	8015.625	10063.44	-6331.556	1	11889.55	-32.17664	1.216538E-009	0.0026808	6
	22	8	6328.125	10822.61	-7002.313	1	12890.35	-32.90319	9.421315E-010	0.0026753	6
	23	8	5015.625	11633.39	-7777.282	1	13993.63	-33.76396	1.077922E-009	0.0026745	6
	24	9	3984.375	12520.22	-8675.98	1	15232.48	-34.72031	8.5728E-010	0.0026833	6
	25	9	3170.956	13499.99	-9703.45	1	16625.48	-35.70761	6.777144E-010	0.0026749	6
	26	9	2527.573	14592.27	-10866.87	1	18194.04	-36.67507	7.806847E-010	0.0026795	6
	27	10	1976.103	15920.6	-12298.56	1	20117.66	-37.68586	1.010398E-009	0.0026803	6
	28	10	1577.524	17257.22	-13763.29	1	22073.51	-38.5737	8.478783E-010	0.0026738	6
	29	10	1265.625	18641.54	-15377.88	1	24165.81	-39.52008	8.159911E-010	0.002677	6
	30	11	998.264	20182.98	-17371.05	1	26629.05	-40.71786	8.866398E-010	0.0026729	6
	31	11	796.875	21675.04	-19593.76	1	29218.54	-42.11289	5.321776E-010	0.0026639	6
	32	11	627.7902	23241.93	-22507.13	1	32353.64	-44.07982	7.482511E-010	0.0026741	6
	33	12	505.5147	24684.66	-25758.38	1	35676.7	-46.21941	7.742422E-010	0.0026728	6
	34	12	397.9953	26339.36	-30240.61	1	40103.08	-48.94436	7.179454E-010	0.0026798	6
	35	12	315.5048	28073.47	-35774.04	1	45474.19	-51.87716	7.168661E-010	0.0026793	6
	36	12	252.4038	29946.58	-42392.42	1	51902.94	-54.7621	7.020905E-010	0.0026753	6
	37	13	198.6229	32316.05	-51277.76	1	60611.35	-57.78022	7.083342E-010	0.0026787	6
	38	13	158.3615	35055.5	-61720.79	1	70981.3	-60.40477	6.256486E-010	0.0026747	6
	39	13	125.558	38609.2	-74959.96	1	84318.84	-62.74862	6.473833E-010	0.0026761	6
	40	14	100.4464	42979.31	-90599.45	1	100277	-64.62089	4.817698E-010	0.0026744	6
	41	14	79.00281	49356.21	-111030.2	1	121506.1	-66.03343	3.054796E-010	0.0026757	5
	42	14	63.3446	57066.74	-134044.6	1	145686.5	-66.93912	2.52713E-010	0.0026726	5
	43	15	49.86702	68322.59	-164236	1	177880.4	-67.41257	1.311062E-010	0.0026724	5
	44	15	39.72458	83102.47	-198454.8	1	215151.9	-67.27863	2.537479E-010	0.0026744	5
	45	16	31.6723	103078.6	-238905	1	260193.8	-66.6616	3.524261E-010	0.0026705	5
	46	16	24.93351	131748	-288695.5	1	317336.7	-65.47012	-2.464143E-011	0.0026747	5
	47	16	19.86229	170017.8	-340624.6	1	380698.3	-63.47459	5.473651E-011	0.0026761	5
	48	16	15.83615	219301.6	-397963.3	1	454387.5	-61.1426	1.688032E-010	0.0026722	5
	49	17	12.40079	288264.5	-462991.6	1	545396.8	-58.09308	-2.856407E-010	0.0026819	5
	50	17	9.93114	365962.5	-518124.6	1	634335.6	-54.76562	-1.594511E-010	0.0026693	5
	51	17	7.944915	457897.1	-562841.6	1	725575.9	-50.87009	6.972956E-010	0.0026726	5
	52	18	6.317385	561706.1	-603855.4	1	824715.2	-47.07104	-4.57502E-011	0.0026846	5
	53	19	5.008013	673187.6	-634090.9	1	924798.8	-43.28697	-1.98725E-010	0.0026703	5
	54	20	3.945707	785077.9	-645340.4	1	1016273	-39.42048	1.332809E-010	0.0026755	4
	55	20	3.158693	881407.6	-654238.4	1	1097683	-36.58522	-1.632026E-010	0.0026648	4
	56	21	2.504006	976869	-658559.1	1	1178123	-33.98598	2.246456E-011	0.0026591	4
	57	23	1.998082	1060111	-669108.2	1	1253612	-32.2588	2.400259E-010	0.0026937	4
	58	24	1.584686	1140885	-687498.3	1	1332018	-31.07321	1.013688E-010	0.0026452	4
	59	26	1.266892	1221137	-715822.3	1	1415477	-30.37855	-2.541949E-013	0.0026222	4
	60	29	0.999041	1306666	-756722.2	1	1509969	-30.07617	-9.982852E-011	0.0026199	4
