EXPLAIN
TAG	EISPOT
TITLE	LABEL	Potentiostatic EIS	Test &Identifier
DATE	LABEL	6/6/2020	Date
TIME	LABEL	18:21:57	Time
NOTES	NOTES	1	&Notes...
	
PSTAT	PSTAT	REF600-11020	Potentiostat
VDC	POTEN	0.00000E+000	T	DC &Voltage (V)
FREQINIT	QUANT	1.00000E+006	Initial Fre&q. (Hz)
FREQFINAL	QUANT	1.00000E+000	Final Fre&q. (Hz)
PTSPERDEC	QUANT	1.00000E+001	Points/&decade
VAC	QUANT	2.50000E+001	AC &Voltage (mV rms)
AREA	QUANT	4.00000E-004	&Area (cm^2)
CONDIT	TWOPARAM	F	5.00000E+000	0.00000E+000	Conditionin&g	Time(s)	E(V)
DELAY	TWOPARAM	T	3.00000E+000	0.00000E+000	Init. De&lay	Time(s)	Stab.(mV/s)
SPEED	SELECTOR	0	&Optimize for:
ZGUESS	QUANT	1.00000E+003	E&stimated Z (ohms)
OCVCURVE	TABLE	12
	Pt	T	Vf	Vm	Ach	Over
	#	s	V vs. Ref.	V	V	bits
	0	0.258333	2.53187E-002	2.53187E-002	5.79163E-004	...........
	1	0.516667	2.53207E-002	2.54277E-002	5.74663E-004	...........
	2	0.775	2.53334E-002	2.55262E-002	5.73063E-004	...........
	3	1.03333	2.53690E-002	2.56172E-002	5.78597E-004	...........
	4	1.29167	2.54316E-002	2.56992E-002	5.79530E-004	...........
	5	1.55	2.55130E-002	2.57785E-002	5.78330E-004	...........
	6	1.80833	2.56009E-002	2.58503E-002	5.73497E-004	...........
	7	2.06667	2.56867E-002	2.59180E-002	5.81597E-004	...........
	8	2.325	2.57669E-002	2.59807E-002	5.79830E-004	...........
	9	2.58333	2.58409E-002	2.60395E-002	5.73297E-004	...........
	10	2.84167	2.59094E-002	2.60955E-002	5.76197E-004	...........
	11	3.1	2.59731E-002	2.61523E-002	5.77663E-004	...........
EOC	QUANT	0.0259731	Open Circuit (V)
PSTATMODEL	IQUANT	4	Pstat Model
PSTATSECTION	LABEL	REF600-11020	Pstat Section
PSTATSERIALNO	LABEL	11020	Pstat Serial Number
CTRLMODE	IQUANT	1	Control Mode
IESTAB	IQUANT	0	I/E Stability
CASPEED	IQUANT	1	Control Amp Speed
CONVENTION	IQUANT	1	Current Convention
ICHRANGE	IQUANT	2	Ich Range
ICHRANGEMODE	TOGGLE	F	Ich Auto Range
ICHOFFSETENABLE	TOGGLE	T	Ich Offset Enable
ICHOFFSET	QUANT	0	Ich Offset (V)
ICHFILTER	IQUANT	3	Ich Filter
VCHRANGE	IQUANT	2	Vch Range
VCHRANGEMODE	TOGGLE	F	Vch Auto Range
VCHOFFSETENABLE	TOGGLE	T	Vch Offset Enable
VCHOFFSET	QUANT	0	Vch Offset (V)
VCHFILTER	IQUANT	3	Vch Filter
ACHRANGE	IQUANT	2	Ach Range
ACHOFFSETENABLE	TOGGLE	F	Ach Offset Enable
ACHOFFSET	QUANT	0	Ach Offset (V)
ACHFILTER	IQUANT	3	Ach Filter
IERANGELOWERLIMIT	IQUANT	1	I/E Range Lower Limit
IERANGEMODE	TOGGLE	F	I/E AutoRange
IERANGE	IQUANT	7	I/E Range
POSFEEDENABLE	TOGGLE	F	Positive Feedback IR Comp
POSFEEDRESISTANCE	QUANT	0	Positive Feedback Resistance (ohm)
ACHSELECT	IQUANT	0	Ach Select
CABLEID	IQUANT	14	Cable ID
DCCALDATE	LABEL	2/27/2020	DC Calibration Date
ACCALDATE	LABEL	2/27/2020	AC Calibration Date
THERMOSELECT	IQUANT	1	Thermo Select
FRAMEWORKVERSION	QUANT	6.33	Framework Version
INSTRUMENTVERSION	LABEL	3.50	Instrument Version
ZCURVE	TABLE
	Pt	Time	Freq	Zreal	Zimag	Zsig	Zmod	Zphz	Idc	Vdc	IERange
	#	s	Hz	ohm	ohm	V	ohm	°	A	V	#
	0	1	1000078	1653.543	-1060.386	1	1964.338	-32.6713	8.006079E-008	0.0283731	8
	1	1	794390.6	1840.3	-1058.397	1	2122.948	-29.90414	4.858699E-008	0.0280584	8
	2	1	630984.4	2017.286	-1041.763	1	2270.399	-27.31265	1.419005E-008	0.027913	8
	3	2	501234.4	2183.875	-1017.436	1	2409.25	-24.98014	3.842365E-008	0.0277832	8
	4	2	398109.4	2340.604	-986.651	1	2540.061	-22.85722	6.38508E-008	0.0277326	8
	5	2	316265.6	2485.633	-953.71	1	2662.317	-20.99125	3.905305E-008	0.0276911	8
	6	3	251203.1	2618.683	-922.4277	1	2776.396	-19.40475	8.88282E-008	0.0276592	8
	7	3	199546.9	2744.461	-898.9809	1	2887.947	-18.13682	3.149576E-008	0.0276766	8
	8	3	158578.1	2860.146	-875.1248	1	2991.033	-17.01264	9.100019E-008	0.0276602	8
	9	4	125953.1	2993.465	-829.2521	1	3106.202	-15.48384	5.718013E-010	0.0276298	7
	10	4	100078.1	3092.299	-822.2054	1	3199.74	-14.88976	1.855835E-009	0.0276029	7
	11	4	79453.13	3196.417	-833.1768	1	3303.221	-14.60961	1.998038E-009	0.0276083	7
	12	5	63140.62	3300.933	-850.7438	1	3408.801	-14.45223	1.404232E-009	0.0276037	7
	13	5	50203.12	3407.116	-875.4432	1	3517.789	-14.41017	1.987123E-009	0.0276047	7
	14	5	39890.62	3515.375	-908.4885	1	3630.87	-14.49008	1.876159E-009	0.0276037	7
	15	6	31640.63	3627.801	-950.939	1	3750.363	-14.68823	1.704262E-009	0.0276016	7
	16	6	25171.88	3744.089	-1003.94	1	3876.351	-15.01019	1.699609E-009	0.0276032	7
	17	6	20015.62	3866.226	-1067.816	1	4010.977	-15.43967	2.204358E-009	0.027606	7
	18	7	15890.62	3994.519	-1142.618	1	4154.727	-15.96299	1.648045E-009	0.0276015	7
	19	7	12609.37	4129.928	-1233.046	1	4310.071	-16.6237	1.387066E-009	0.0275971	7
	20	7	10078.13	4267.373	-1334.911	1	4471.292	-17.37062	7.870311E-010	0.0275915	7
	21	7	8015.625	4415.209	-1458.23	1	4649.786	-18.27706	1.21992E-009	0.027594	7
	22	8	6328.125	4576.667	-1610.405	1	4851.73	-19.38559	2.010681E-009	0.0275963	7
	23	8	5015.625	4744.202	-1788.033	1	5069.962	-20.65083	2.285721E-009	0.0275914	7
	24	8	3984.375	4919.374	-2000.325	1	5310.512	-22.12773	2.570156E-009	0.0275907	7
	25	9	3170.956	5103.767	-2250.903	1	5578.082	-23.79881	3.470337E-009	0.0275896	7
	26	9	2527.573	5302.776	-2555.052	1	5886.231	-25.7263	2.387391E-009	0.0275835	7
	27	9	1976.103	5537.16	-2954.104	1	6275.896	-28.08015	2.038877E-009	0.027585	7
	28	10	1577.524	5776.34	-3398.802	1	6702.086	-30.47258	3.676705E-009	0.0275881	7
	29	10	1265.625	6035.771	-3920.294	1	7197.168	-33.00413	2.531559E-009	0.027579	7
	30	10	998.264	6349.699	-4593.735	1	7837.161	-35.88413	2.950129E-009	0.0275839	7
	31	11	796.875	6686.365	-5362.097	1	8570.855	-38.7277	2.102432E-009	0.0275812	7
	32	11	627.7902	7077.899	-6339.936	1	9502.18	-41.85198	2.271741E-009	0.0275797	7
	33	11	505.5147	7483.671	-7418.064	1	10537.22	-44.74775	3.31101E-011	0.027634	6
	34	12	397.9953	7978.301	-8862.342	1	11924.53	-48.00496	2.76219E-010	0.027652	6
	35	12	315.5048	8531.385	-10580.4	1	13591.52	-51.11943	3.203752E-010	0.027652	6
	36	12	252.4038	9143.88	-12590.21	1	15560.33	-54.01027	1.602041E-010	0.0276454	6
	37	13	198.6229	9917.33	-15228.13	1	18172.77	-56.92578	2.395123E-010	0.0276479	6
	38	13	158.3615	10789.97	-18275.84	1	21223.33	-59.4426	1.736153E-010	0.0276442	6
	39	13	125.558	11863.77	-22078.98	1	25064.53	-61.74939	2.116188E-010	0.0276444	6
	40	14	100.4464	13111.32	-26517.63	1	29581.94	-63.69047	8.277476E-011	0.0276433	6
	41	14	79.00281	14751.92	-32341.49	1	35547.03	-65.48085	1.98786E-010	0.0276418	6
	42	14	63.3446	16614.89	-38853.11	1	42256.58	-66.84683	1.277282E-010	0.0276416	6
	43	15	49.86702	19117.35	-47428.46	1	51136.41	-68.04675	1.72377E-011	0.0276341	6
	44	15	39.72458	22130.35	-57346.22	1	61468.21	-68.89801	2.377651E-010	0.0276413	6
	45	15	31.6723	25928.62	-69262.08	1	73956.27	-69.47635	3.177975E-010	0.0276383	6
	46	16	24.93351	31114.73	-84477.45	1	90025.37	-69.78024	-1.817567E-010	0.0276351	6
	47	16	19.86229	37549.94	-101829.6	1	108532.3	-69.75842	-3.001147E-010	0.0276452	5
	48	16	15.83615	45802.91	-122471.7	1	130756.4	-69.49483	-7.420867E-010	0.027641	5
	49	17	12.40079	57490.66	-148891.9	1	159605.7	-68.88725	-9.439469E-010	0.0276483	5
	50	17	9.93114	71319.35	-176897.6	1	190733.4	-68.04231	-1.102768E-009	0.027647	5
	51	17	7.944915	88672.52	-209393.2	1	227394.7	-67.04861	-5.770373E-010	0.0276491	5
	52	18	6.317385	111596.1	-247242	1	271260.6	-65.70731	5.864357E-011	0.0276374	5
	53	18	5.008013	140990.4	-290664.9	1	323054.8	-64.12376	-1.265204E-010	0.0276401	5
	54	19	3.945707	177938.1	-340328.1	1	384038	-62.3975	-3.761602E-010	0.0276454	5
	55	20	3.158693	220068.9	-389806.1	1	447637.3	-60.55267	-2.847555E-011	0.0276326	5
	56	21	2.504006	271203	-445929.6	1	521923.6	-58.6931	1.711333E-010	0.02764	5
	57	23	1.998082	327892.3	-502190.8	1	599757.4	-56.85852	-7.236213E-011	0.0276024	5
	58	24	1.584686	392310.1	-566278.1	1	688896.3	-55.28629	-1.325214E-010	0.0275966	5
	59	26	1.266892	458328.7	-631170.3	1	780026.4	-54.01446	-6.49243E-011	0.0276305	5
	60	29	0.999041	534688.8	-707173.6	1	886558.9	-52.90734	-1.642033E-011	0.0276553	5
