EXPLAIN
TAG	EISPOT
TITLE	LABEL	Potentiostatic EIS	Test &Identifier
DATE	LABEL	1/10/2020	Date
TIME	LABEL	13:47:01	Time
NOTES	NOTES	5	&Notes...
	
	
	
	
	
PSTAT	PSTAT	REF600-11020	Potentiostat
VDC	POTEN	0.00000E+000	T	DC &Voltage (V)
FREQINIT	QUANT	1.00000E+006	Initial Fre&q. (Hz)
FREQFINAL	QUANT	1.00000E+000	Final Fre&q. (Hz)
PTSPERDEC	QUANT	1.00000E+001	Points/&decade
VAC	QUANT	2.50000E+001	AC &Voltage (mV rms)
AREA	QUANT	1.00000E-001	&Area (cm^2)
CONDIT	TWOPARAM	T	5.00000E+000	0.00000E+000	Conditionin&g	Time(s)	E(V)
DELAY	TWOPARAM	T	5.00000E+000	0.00000E+000	Init. De&lay	Time(s)	Stab.(mV/s)
SPEED	SELECTOR	0	&Optimize for:
ZGUESS	QUANT	5.00000E+002	E&stimated Z (ohms)
OCVCURVE	TABLE	19
	Pt	T	Vf	Vm	Ach	Over
	#	s	V vs. Ref.	V	V	bits
	0	0.258333	8.42770E-003	8.42770E-003	6.48213E-004	...........
	1	0.516667	8.42751E-003	8.41733E-003	6.59113E-004	...........
	2	0.775	8.42674E-003	8.43122E-003	6.59213E-004	...........
	3	1.03333	8.42666E-003	8.47454E-003	6.58046E-004	...........
	4	1.29167	8.43168E-003	8.50277E-003	6.54013E-004	...........
	5	1.55	8.44710E-003	8.58287E-003	6.56280E-004	...........
	6	1.80833	8.47560E-003	8.60646E-003	6.54746E-004	...........
	7	2.06667	8.51604E-003	8.69433E-003	6.50546E-004	...........
	8	2.325	8.56450E-003	8.70212E-003	6.57279E-004	...........
	9	2.58333	8.61661E-003	8.80873E-003	6.55479E-004	...........
	10	2.84167	8.67040E-003	8.83856E-003	6.60213E-004	...........
	11	3.1	8.72650E-003	8.91850E-003	6.57679E-004	...........
	12	3.35833	8.78464E-003	8.93903E-003	6.60046E-004	...........
	13	3.61667	8.84113E-003	8.95898E-003	6.53679E-004	...........
	14	3.875	8.89006E-003	8.97177E-003	6.59946E-004	...........
	15	4.13333	8.92952E-003	9.10688E-003	6.58946E-004	...........
	16	4.39167	8.96817E-003	9.16592E-003	6.55479E-004	...........
	17	4.65	9.01849E-003	9.22997E-003	6.51480E-004	...........
	18	4.90833	9.08247E-003	9.28633E-003	6.60913E-004	...........
EOC	QUANT	0.0090825	Open Circuit (V)
PSTATMODEL	IQUANT	4	Pstat Model
PSTATSECTION	LABEL	REF600-11020	Pstat Section
PSTATSERIALNO	LABEL	11020	Pstat Serial Number
CTRLMODE	IQUANT	1	Control Mode
IESTAB	IQUANT	0	I/E Stability
CASPEED	IQUANT	1	Control Amp Speed
CONVENTION	IQUANT	1	Current Convention
ICHRANGE	IQUANT	2	Ich Range
ICHRANGEMODE	TOGGLE	F	Ich Auto Range
ICHOFFSETENABLE	TOGGLE	T	Ich Offset Enable
ICHOFFSET	QUANT	0	Ich Offset (V)
ICHFILTER	IQUANT	3	Ich Filter
VCHRANGE	IQUANT	2	Vch Range
VCHRANGEMODE	TOGGLE	F	Vch Auto Range
VCHOFFSETENABLE	TOGGLE	T	Vch Offset Enable
VCHOFFSET	QUANT	0	Vch Offset (V)
VCHFILTER	IQUANT	3	Vch Filter
ACHRANGE	IQUANT	2	Ach Range
ACHOFFSETENABLE	TOGGLE	F	Ach Offset Enable
ACHOFFSET	QUANT	0	Ach Offset (V)
ACHFILTER	IQUANT	3	Ach Filter
IERANGELOWERLIMIT	IQUANT	1	I/E Range Lower Limit
IERANGEMODE	TOGGLE	F	I/E AutoRange
IERANGE	IQUANT	7	I/E Range
POSFEEDENABLE	TOGGLE	F	Positive Feedback IR Comp
POSFEEDRESISTANCE	QUANT	0	Positive Feedback Resistance (ohm)
ACHSELECT	IQUANT	0	Ach Select
CABLEID	IQUANT	14	Cable ID
DCCALDATE	LABEL	12/22/2019	DC Calibration Date
ACCALDATE	LABEL	12/22/2019	AC Calibration Date
THERMOSELECT	IQUANT	1	Thermo Select
FRAMEWORKVERSION	QUANT	6.33	Framework Version
INSTRUMENTVERSION	LABEL	3.50	Instrument Version
ZCURVE	TABLE
	Pt	Time	Freq	Zreal	Zimag	Zsig	Zmod	Zphz	Idc	Vdc	IERange
	#	s	Hz	ohm	ohm	V	ohm	°	A	V	#
	0	1	1000078	2182.213	-2040.22	1	2987.398	-43.07397	-2.484006E-006	0.0111154	8
	1	2	794390.6	2585.239	-2078.852	1	3317.391	-38.80359	2.740905E-006	0.0104465	8
	2	2	630984.4	3002.888	-2065.542	1	3644.695	-34.52221	2.591975E-007	0.0106036	8
	3	2	501234.4	3410.642	-1982.188	1	3944.812	-30.16418	-6.073212E-007	0.0108215	8
	4	2	398109.4	3756.008	-1843.054	1	4183.832	-26.13696	8.0769E-007	0.0105014	8
	5	3	316265.6	4068.771	-1717.085	1	4416.251	-22.88051	4.536195E-007	0.0105053	8
	6	3	251203.1	4336.375	-1531.048	1	4598.723	-19.44664	4.760851E-007	0.0105053	8
	7	3	199546.9	4539.54	-1361.847	1	4739.414	-16.69907	-1.814521E-006	0.0109683	8
	8	4	158578.1	4713.848	-1198.195	1	4863.747	-14.26176	-8.498029E-007	0.0108748	8
	9	4	125953.1	4865.581	-1036.173	1	4974.689	-12.0221	8.756168E-007	0.0087023	7
	10	4	100078.1	4954.358	-912.3792	1	5037.668	-10.4345	-2.633401E-008	0.0106214	7
	11	5	79453.13	5041.818	-823.9398	1	5108.699	-9.281299	-2.109109E-008	0.0105934	7
	12	5	63140.62	5114.976	-753.2349	1	5170.14	-8.377207	-3.213948E-008	0.0106455	7
	13	5	50203.12	5178.129	-700.9806	1	5225.36	-7.709455	-2.661528E-008	0.0106142	7
	14	6	39890.62	5233.652	-668.2839	1	5276.146	-7.276709	5.009362E-008	0.0104751	7
	15	6	31640.63	5286.901	-656.4039	1	5327.494	-7.077435	2.081618E-008	0.0105617	7
	16	6	25171.88	5334.918	-661.9409	1	5375.828	-7.072943	2.898105E-009	0.0105316	7
	17	7	20015.62	5382.905	-690.5798	1	5427.022	-7.310616	-3.362717E-008	0.0106399	7
	18	7	15890.62	5436.845	-733.7899	1	5486.14	-7.686542	-2.015189E-008	0.0106526	7
	19	7	12609.37	5491.07	-802.3285	1	5549.376	-8.312955	-3.398815E-008	0.0106267	7
	20	8	10078.13	5548.325	-891.1485	1	5619.435	-9.124675	-2.02566E-008	0.0106582	7
	21	8	8015.625	5611.257	-1010.37	1	5701.496	-10.20737	-2.066447E-008	0.0105867	7
	22	8	6328.125	5685.238	-1162.306	1	5802.834	-11.55449	-1.224457E-008	0.0106097	7
	23	9	5015.625	5768.188	-1349.346	1	5923.912	-13.16638	4.021731E-009	0.0105247	7
	24	9	3984.375	5855.717	-1580.376	1	6065.23	-15.10348	-2.045674E-008	0.0105753	7
	25	9	3170.956	5962.073	-1860.506	1	6245.622	-17.3309	-3.053169E-008	0.0106316	7
	26	9	2527.573	6084.398	-2198.142	1	6469.292	-19.86353	5.469617E-008	0.0104696	7
	27	10	1976.103	6234.576	-2644.942	1	6772.418	-22.98849	-2.535052E-008	0.0105992	7
	28	10	1577.524	6408.867	-3145.924	1	7139.357	-26.14506	-1.6697E-008	0.0105709	7
	29	10	1265.625	6584.434	-3735.439	1	7570.223	-29.56683	-2.177646E-008	0.0105757	7
	30	11	998.264	6818.399	-4502.635	1	8170.942	-33.43939	5.170494E-008	0.0104704	7
	31	11	796.875	7080.195	-5389.978	1	8898.372	-37.28112	-3.145948E-009	0.0106036	7
	32	11	627.7902	7404.772	-6523.258	1	9868.31	-41.37854	-2.827825E-009	0.0106676	6
	33	12	505.5147	7751.348	-7773.879	1	10978	-45.08315	-3.767045E-009	0.010609	6
	34	12	397.9953	8202.727	-9445.947	1	12510.42	-49.02942	3.473109E-010	0.0105798	6
	35	12	315.5048	8719.644	-11437.29	1	14382.06	-52.67857	7.56344E-010	0.0105755	6
	36	13	252.4038	9307.638	-13762.52	1	16614.43	-55.92939	1.175239E-009	0.0105696	6
	37	13	198.6229	10066.62	-16822.12	1	19604.1	-59.10303	7.120893E-010	0.010572	6
	38	13	158.3615	10956.33	-20339.56	1	23102.79	-61.68993	6.10041E-010	0.0105702	6
	39	14	125.558	12046.63	-24762.24	1	27537.06	-64.05744	7.923343E-010	0.0105751	6
	40	14	100.4464	13374.67	-29897.29	1	32752.55	-65.89846	-2.456465E-010	0.0105722	6
	41	14	79.00281	15113.25	-36750.46	1	39736.72	-67.64559	-5.811751E-011	0.010568	6
	42	15	63.3446	16720.79	-43893.35	1	46970.32	-69.1461	8.379413E-010	0.0105723	6
	43	15	49.86702	19524.79	-53820.92	1	57253.02	-70.06058	9.138988E-010	0.010571	6
	44	15	39.72458	22828.46	-65787.98	1	69636.18	-70.8632	6.120998E-010	0.0105728	6
	45	16	31.6723	26965.07	-79813.07	1	84245.13	-71.33231	4.278899E-010	0.0105666	6
	46	16	24.93351	32323.73	-97548.3	1	102764.2	-71.66679	7.517671E-010	0.0105685	6
	47	16	19.86229	38844.78	-118037	1	124264.4	-71.78415	4.573791E-010	0.0105711	5
	48	17	15.83615	47945.01	-143577.4	1	151371	-71.53421	-6.83249E-010	0.0105667	5
	49	17	12.40079	60923.24	-176229	1	186462.6	-70.92947	4.671202E-010	0.0105707	5
	50	17	9.93114	75008.91	-208803.1	1	221867.3	-70.24005	-1.993814E-010	0.0105732	5
	51	18	7.944915	95013	-248527.9	1	266070.7	-69.07798	1.474493E-010	0.0105617	5
	52	19	6.317385	120161.7	-296582.4	1	319999.9	-67.94445	2.783482E-010	0.0105536	5
	53	19	5.008013	153133.7	-351592.4	1	383493.3	-66.46479	-2.013404E-011	0.0105639	5
	54	20	3.945707	198354.3	-414971.2	1	459940.8	-64.45242	-5.884974E-011	0.0105677	5
	55	22	3.158693	247617.6	-481133.6	1	541113.6	-62.76718	-2.703769E-010	0.0105528	5
	56	23	2.504006	311683.5	-553885.1	1	635559	-60.63257	1.7319E-010	0.0105507	5
	57	25	1.998082	382572.4	-630934	1	737861.3	-58.7691	7.694873E-011	0.0105816	5
	58	26	1.584686	467439.4	-711002.4	1	850895.9	-56.67759	-8.231961E-013	0.0105262	5
	59	28	1.266892	560749.3	-796037.5	1	973712	-54.83815	-7.820721E-011	0.0105112	5
	60	31	0.999041	667595.9	-897316.7	1	1118419	-53.35107	-1.961652E-010	0.0105612	4
