EXPLAIN
TAG	EISPOT
TITLE	LABEL	Potentiostatic EIS	Test &Identifier
DATE	LABEL	1/14/2020	Date
TIME	LABEL	18:13:50	Time
NOTES	NOTES	5	&Notes...
	
	
	
	
	
PSTAT	PSTAT	REF600-11020	Potentiostat
VDC	POTEN	0.00000E+000	T	DC &Voltage (V)
FREQINIT	QUANT	1.00000E+006	Initial Fre&q. (Hz)
FREQFINAL	QUANT	1.00000E+000	Final Fre&q. (Hz)
PTSPERDEC	QUANT	1.00000E+001	Points/&decade
VAC	QUANT	2.50000E+001	AC &Voltage (mV rms)
AREA	QUANT	1.00000E-001	&Area (cm^2)
CONDIT	TWOPARAM	T	5.00000E+000	0.00000E+000	Conditionin&g	Time(s)	E(V)
DELAY	TWOPARAM	T	5.00000E+000	0.00000E+000	Init. De&lay	Time(s)	Stab.(mV/s)
SPEED	SELECTOR	1	&Optimize for:
ZGUESS	QUANT	5.00000E+002	E&stimated Z (ohms)
OCVCURVE	TABLE	19
	Pt	T	Vf	Vm	Ach	Over
	#	s	V vs. Ref.	V	V	bits
	0	0.258333	1.06434E-002	1.06434E-002	6.51946E-004	...........
	1	0.516667	1.06514E-002	1.10586E-002	6.50580E-004	...........
	2	0.775	1.06979E-002	1.13398E-002	6.49413E-004	...........
	3	1.03333	1.08272E-002	1.18582E-002	6.44546E-004	...........
	4	1.29167	1.10616E-002	1.21519E-002	6.45446E-004	...........
	5	1.55	1.13841E-002	1.25781E-002	6.43146E-004	...........
	6	1.80833	1.17560E-002	1.29607E-002	6.43846E-004	...........
	7	2.06667	1.21371E-002	1.29248E-002	6.46746E-004	...........
	8	2.325	1.24631E-002	1.20419E-002	6.48346E-004	...........
	9	2.58333	1.26280E-002	1.20744E-002	6.51413E-004	...........
	10	2.84167	1.25812E-002	1.22954E-002	6.53679E-004	...........
	11	3.1	1.24233E-002	1.25020E-002	6.50913E-004	...........
	12	3.35833	1.23173E-002	1.26511E-002	6.49246E-004	...........
	13	3.61667	1.23387E-002	1.28565E-002	6.45380E-004	...........
	14	3.875	1.24639E-002	1.30976E-002	6.51013E-004	...........
	15	4.13333	1.26456E-002	1.33304E-002	6.48280E-004	...........
	16	4.39167	1.28545E-002	1.35349E-002	6.44846E-004	...........
	17	4.65	1.30765E-002	1.38065E-002	6.48880E-004	...........
	18	4.90833	1.33047E-002	1.40181E-002	6.46013E-004	...........
EOC	QUANT	0.0133047	Open Circuit (V)
PSTATMODEL	IQUANT	4	Pstat Model
PSTATSECTION	LABEL	REF600-11020	Pstat Section
PSTATSERIALNO	LABEL	11020	Pstat Serial Number
CTRLMODE	IQUANT	1	Control Mode
IESTAB	IQUANT	0	I/E Stability
CASPEED	IQUANT	1	Control Amp Speed
CONVENTION	IQUANT	1	Current Convention
ICHRANGE	IQUANT	2	Ich Range
ICHRANGEMODE	TOGGLE	F	Ich Auto Range
ICHOFFSETENABLE	TOGGLE	T	Ich Offset Enable
ICHOFFSET	QUANT	0	Ich Offset (V)
ICHFILTER	IQUANT	3	Ich Filter
VCHRANGE	IQUANT	2	Vch Range
VCHRANGEMODE	TOGGLE	F	Vch Auto Range
VCHOFFSETENABLE	TOGGLE	T	Vch Offset Enable
VCHOFFSET	QUANT	0	Vch Offset (V)
VCHFILTER	IQUANT	3	Vch Filter
ACHRANGE	IQUANT	2	Ach Range
ACHOFFSETENABLE	TOGGLE	F	Ach Offset Enable
ACHOFFSET	QUANT	0	Ach Offset (V)
ACHFILTER	IQUANT	3	Ach Filter
IERANGELOWERLIMIT	IQUANT	1	I/E Range Lower Limit
IERANGEMODE	TOGGLE	F	I/E AutoRange
IERANGE	IQUANT	7	I/E Range
POSFEEDENABLE	TOGGLE	F	Positive Feedback IR Comp
POSFEEDRESISTANCE	QUANT	0	Positive Feedback Resistance (ohm)
ACHSELECT	IQUANT	0	Ach Select
CABLEID	IQUANT	14	Cable ID
DCCALDATE	LABEL	12/22/2019	DC Calibration Date
ACCALDATE	LABEL	12/22/2019	AC Calibration Date
THERMOSELECT	IQUANT	1	Thermo Select
FRAMEWORKVERSION	QUANT	6.33	Framework Version
INSTRUMENTVERSION	LABEL	3.50	Instrument Version
ZCURVE	TABLE
	Pt	Time	Freq	Zreal	Zimag	Zsig	Zmod	Zphz	Idc	Vdc	IERange
	#	s	Hz	ohm	ohm	V	ohm	°	A	V	#
	0	2	1000078	1997.435	-2019.927	1	2840.748	-45.32078	1.386791E-006	0.0155974	8
	1	3	794390.6	2340.595	-2161.483	1	3185.969	-42.72173	4.088702E-007	0.0150074	8
	2	4	630984.4	2703.194	-2274.277	1	3532.647	-40.0749	-5.300153E-007	0.0151627	8
	3	6	501234.4	3086.007	-2383.141	1	3899.077	-37.67678	2.657445E-006	0.0144701	8
	4	7	398109.4	3492.937	-2456.259	1	4270.107	-35.11516	-3.275324E-007	0.014853	8
	5	8	316265.6	3928.386	-2530.747	1	4672.997	-32.79046	-1.035073E-008	0.0148101	8
	6	10	251203.1	4378.106	-2546.291	1	5064.722	-30.18213	3.446757E-007	0.0147413	8
	7	11	199546.9	4830.87	-2565.633	1	5469.897	-27.97238	-1.023501E-006	0.0149616	8
	8	13	158578.1	5301.518	-2487.444	1	5856.063	-25.13573	1.336525E-006	0.0145227	8
	9	14	125953.1	5781.583	-2327.06	1	6232.328	-21.92455	3.411832E-008	0.0147178	7
	10	16	100078.1	6142.567	-2157.346	1	6510.397	-19.35191	-2.12895E-008	0.0147959	7
	11	17	79453.13	6493.489	-1984.396	1	6789.936	-16.99304	-1.970414E-008	0.0147934	7
	12	18	63140.62	6787.78	-1799.155	1	7022.173	-14.84533	9.167918E-008	0.0146622	7
	13	20	50203.12	7023.191	-1608.091	1	7204.941	-12.89663	1.624248E-009	0.0147321	7
	14	21	39890.62	7218.292	-1439.667	1	7360.46	-11.27947	5.826883E-008	0.0146679	7
	15	23	31640.63	7379.367	-1289.447	1	7491.177	-9.91161	2.264643E-009	0.0148581	7
	16	24	25171.88	7503.9	-1167.419	1	7594.167	-8.842899	1.643063E-008	0.0147327	7
	17	25	20015.62	7617.104	-1084.075	1	7693.86	-8.100001	2.83221E-008	0.0147553	7
	18	27	15890.62	7701.914	-1006.798	1	7767.44	-7.447505	5.341301E-009	0.0148045	7
	19	28	12609.37	7777.43	-976.562	1	7838.5	-7.156806	-3.149589E-008	0.0148484	7
	20	29	10078.13	7828.304	-974.709	1	7888.751	-7.097422	3.634085E-008	0.0146875	7
	21	31	8015.625	7925.189	-977.089	1	7985.194	-7.028476	-3.806341E-009	0.0148223	7
	22	32	6328.125	7978.484	-1051.089	1	8047.422	-7.50495	-2.515474E-008	0.0147917	7
	23	33	5015.625	8037.83	-1149.408	1	8119.597	-8.138111	4.910635E-009	0.0147926	7
	24	35	3984.375	8114.912	-1297.402	1	8217.972	-9.083505	-1.683272E-008	0.0147816	7
	25	36	3170.956	8169.262	-1476.97	1	8301.703	-10.24814	3.199651E-008	0.0147508	7
	26	38	2527.573	8239.489	-1715.964	1	8416.277	-11.76432	6.040071E-008	0.0146656	7
	27	39	1976.103	8335.128	-2054.038	1	8584.487	-13.84365	-2.22548E-008	0.014793	7
	28	41	1577.524	8475.103	-2447.51	1	8821.433	-16.1081	3.262206E-008	0.0147425	7
	29	42	1265.625	8554.966	-2907.67	1	9035.596	-18.77192	-3.875332E-009	0.0147854	6
	30	43	998.264	8698.456	-3535.804	1	9389.624	-22.12107	-6.332268E-009	0.0148541	6
	31	45	796.875	8871.989	-4269.188	1	9845.72	-25.69679	1.02624E-008	0.0146551	6
	32	46	627.7902	9098.321	-5220.119	1	10489.48	-29.84484	1.159085E-008	0.014574	6
	33	47	505.5147	9350.871	-6276.007	1	11261.75	-33.86826	-4.788733E-009	0.0148865	6
	34	49	397.9953	9693.75	-7688.071	1	12372.36	-38.41779	8.253179E-010	0.0147869	6
	35	50	315.5048	10100.02	-9364.972	1	13773.64	-42.8374	1.022635E-009	0.0147883	6
	36	51	252.4038	10590.36	-11317.27	1	15499.55	-46.90042	4.968187E-010	0.0147859	6
	37	53	198.6229	11215.86	-13871.76	1	17838.75	-51.04312	6.52895E-010	0.0147826	6
	38	54	158.3615	11941.18	-16815.79	1	20624.32	-54.62078	1.309905E-009	0.0147828	6
	39	55	125.558	12863.9	-20489.43	1	24192.9	-57.87812	9.956571E-010	0.0147849	6
	40	57	100.4464	13943.87	-24780.32	1	28434.06	-60.63357	1.269504E-009	0.0147826	6
	41	58	79.00281	15395.45	-30432.47	1	34105.07	-63.16566	7.66203E-010	0.0147818	6
	42	60	63.3446	16992.06	-36749.26	1	40487.51	-65.1852	1.044526E-009	0.014787	6
	43	61	49.86702	19600.88	-45000.3	1	49083.82	-66.4634	1.460444E-009	0.0147786	6
	44	62	39.72458	22484.27	-54741.27	1	59178.95	-67.67023	1.037742E-009	0.0147795	6
	45	64	31.6723	26194.15	-66221.24	1	71213.66	-68.41847	4.281142E-010	0.0147805	6
	46	65	24.93351	31581.21	-80889.41	1	86835.88	-68.67311	5.980959E-010	0.0147767	6
	47	66	19.86229	38315.35	-97495	1	104753.7	-68.54526	1.422944E-009	0.014784	6
	48	68	15.83615	47203.84	-116827.2	1	126003.1	-67.9989	7.407518E-010	0.0147641	5
	49	69	12.40079	58854.88	-141584.2	1	153329.6	-67.42791	-2.996284E-010	0.0147719	5
	50	71	9.93114	73199.24	-167046.8	1	182380.9	-66.33717	5.630349E-010	0.0147769	5
	51	72	7.944915	91390.48	-196313.5	1	216543.7	-65.03645	4.395208E-010	0.0147816	5
	52	74	6.317385	114213.1	-230124	1	256907.9	-63.60427	-4.171306E-010	0.0147928	5
	53	76	5.008013	142823.4	-267675.7	1	303395.4	-61.91701	2.483916E-010	0.0147761	5
	54	78	3.945707	177677	-309761	1	357100.8	-60.16168	1.211333E-010	0.0147761	5
	55	81	3.158693	216629.8	-351856.4	1	413196.6	-58.38036	-1.181954E-010	0.014784	5
	56	84	2.504006	261899.3	-399617.4	1	477792.1	-56.76017	1.956308E-010	0.0147612	5
	57	87	1.998082	311487.8	-449614.1	1	546971.2	-55.2862	-3.442623E-010	0.0147965	5
	58	90	1.584686	366402.7	-506127.5	1	624832.8	-54.09796	1.064607E-010	0.0148094	5
	59	94	1.266892	423493.3	-567321.4	1	707954.9	-53.25945	-3.635457E-010	0.0148167	5
	60	98	0.999041	490236.3	-633529.3	1	801056.2	-52.26666	6.596562E-011	0.0147643	5
