EXPLAIN
TAG	EISPOT
TITLE	LABEL	Potentiostatic EIS	Test &Identifier
DATE	LABEL	2/28/2020	Date
TIME	LABEL	16:30:45	Time
NOTES	NOTES	1	&Notes...
	
PSTAT	PSTAT	REF600-11020	Potentiostat
VDC	POTEN	0.00000E+000	T	DC &Voltage (V)
FREQINIT	QUANT	1.00000E+006	Initial Fre&q. (Hz)
FREQFINAL	QUANT	1.00000E+000	Final Fre&q. (Hz)
PTSPERDEC	QUANT	1.00000E+001	Points/&decade
VAC	QUANT	2.50000E+001	AC &Voltage (mV rms)
AREA	QUANT	1.60000E-004	&Area (cm^2)
CONDIT	TWOPARAM	F	1.50000E+001	0.00000E+000	Conditionin&g	Time(s)	E(V)
DELAY	TWOPARAM	F	1.00000E+002	0.00000E+000	Init. De&lay	Time(s)	Stab.(mV/s)
SPEED	SELECTOR	1	&Optimize for:
ZGUESS	QUANT	1.00000E+003	E&stimated Z (ohms)
OCVCURVE	TABLE	39
	Pt	T	Vf	Vm	Ach	Over
	#	s	V vs. Ref.	V	V	bits
	0	0.258333	-1.11639E-001	-1.11639E-001	5.93930E-004	...........
	1	0.516667	-1.11638E-001	-1.11606E-001	5.94263E-004	...........
	2	0.775	-1.11635E-001	-1.11620E-001	5.96730E-004	...........
	3	1.03333	-1.11629E-001	-1.11583E-001	5.93663E-004	...........
	4	1.29167	-1.11619E-001	-1.11560E-001	5.97330E-004	...........
	5	1.55	-1.11603E-001	-1.11499E-001	6.01763E-004	...........
	6	1.80833	-1.11581E-001	-1.11470E-001	5.99963E-004	...........
	7	2.06667	-1.11550E-001	-1.11456E-001	5.94196E-004	...........
	8	2.325	-1.11515E-001	-1.11429E-001	5.94596E-004	...........
	9	2.58333	-1.11483E-001	-1.11406E-001	5.98263E-004	...........
	10	2.84167	-1.11455E-001	-1.11387E-001	5.95596E-004	...........
	11	3.1	-1.11431E-001	-1.11361E-001	5.97196E-004	...........
	12	3.35833	-1.11408E-001	-1.11333E-001	5.97296E-004	...........
	13	3.61667	-1.11386E-001	-1.11317E-001	5.97363E-004	...........
	14	3.875	-1.11363E-001	-1.11307E-001	6.00963E-004	...........
	15	4.13333	-1.11341E-001	-1.11287E-001	5.99396E-004	...........
	16	4.39167	-1.11322E-001	-1.11267E-001	5.96363E-004	...........
	17	4.65	-1.11304E-001	-1.11250E-001	6.02163E-004	...........
	18	4.90833	-1.11287E-001	-1.11233E-001	5.99863E-004	...........
	19	5.16667	-1.11269E-001	-1.11215E-001	5.97130E-004	...........
	20	5.425	-1.11252E-001	-1.11198E-001	6.01130E-004	...........
	21	5.68333	-1.11234E-001	-1.11188E-001	5.96863E-004	...........
	22	5.94167	-1.11217E-001	-1.11170E-001	6.00896E-004	...........
	23	6.2	-1.11202E-001	-1.11154E-001	5.99530E-004	...........
	24	6.45833	-1.11186E-001	-1.11134E-001	6.01196E-004	...........
	25	6.71667	-1.11171E-001	-1.11120E-001	5.97763E-004	...........
	26	6.975	-1.11154E-001	-1.11101E-001	5.96496E-004	...........
	27	7.23333	-1.11137E-001	-1.11091E-001	5.97496E-004	...........
	28	7.49167	-1.11121E-001	-1.11076E-001	5.94630E-004	...........
	29	7.75	-1.11105E-001	-1.11060E-001	5.97063E-004	...........
	30	8.00833	-1.11091E-001	-1.11042E-001	6.01330E-004	...........
	31	8.26667	-1.11076E-001	-1.11031E-001	5.95930E-004	...........
	32	8.525	-1.11061E-001	-1.11017E-001	5.95030E-004	...........
	33	8.78333	-1.11046E-001	-1.11000E-001	5.93896E-004	...........
	34	9.04167	-1.11032E-001	-1.10990E-001	5.96296E-004	...........
	35	9.3	-1.11018E-001	-1.10979E-001	5.99163E-004	...........
	36	9.5583	-1.11004E-001	-1.10964E-001	5.97863E-004	...........
	37	9.8167	-1.10991E-001	-1.10950E-001	5.96296E-004	...........
	38	10.075	-1.10978E-001	-1.10935E-001	5.97996E-004	...........
EOC	QUANT	-0.110978	Open Circuit (V)
PSTATMODEL	IQUANT	4	Pstat Model
PSTATSECTION	LABEL	REF600-11020	Pstat Section
PSTATSERIALNO	LABEL	11020	Pstat Serial Number
CTRLMODE	IQUANT	1	Control Mode
IESTAB	IQUANT	0	I/E Stability
CASPEED	IQUANT	1	Control Amp Speed
CONVENTION	IQUANT	1	Current Convention
ICHRANGE	IQUANT	2	Ich Range
ICHRANGEMODE	TOGGLE	F	Ich Auto Range
ICHOFFSETENABLE	TOGGLE	T	Ich Offset Enable
ICHOFFSET	QUANT	0	Ich Offset (V)
ICHFILTER	IQUANT	3	Ich Filter
VCHRANGE	IQUANT	2	Vch Range
VCHRANGEMODE	TOGGLE	F	Vch Auto Range
VCHOFFSETENABLE	TOGGLE	T	Vch Offset Enable
VCHOFFSET	QUANT	0	Vch Offset (V)
VCHFILTER	IQUANT	3	Vch Filter
ACHRANGE	IQUANT	2	Ach Range
ACHOFFSETENABLE	TOGGLE	F	Ach Offset Enable
ACHOFFSET	QUANT	0	Ach Offset (V)
ACHFILTER	IQUANT	3	Ach Filter
IERANGELOWERLIMIT	IQUANT	1	I/E Range Lower Limit
IERANGEMODE	TOGGLE	F	I/E AutoRange
IERANGE	IQUANT	8	I/E Range
POSFEEDENABLE	TOGGLE	F	Positive Feedback IR Comp
POSFEEDRESISTANCE	QUANT	0	Positive Feedback Resistance (ohm)
ACHSELECT	IQUANT	0	Ach Select
CABLEID	IQUANT	14	Cable ID
DCCALDATE	LABEL	2/27/2020	DC Calibration Date
ACCALDATE	LABEL	2/27/2020	AC Calibration Date
THERMOSELECT	IQUANT	1	Thermo Select
FRAMEWORKVERSION	QUANT	6.33	Framework Version
INSTRUMENTVERSION	LABEL	3.50	Instrument Version
ZCURVE	TABLE
	Pt	Time	Freq	Zreal	Zimag	Zsig	Zmod	Zphz	Idc	Vdc	IERange
	#	s	Hz	ohm	ohm	V	ohm	°	A	V	#
	0	2	1000078	1793.332	-1367.512	1	2255.245	-37.32747	-1.451233E-006	-0.108427	8
	1	3	794390.6	2009.809	-1412.457	1	2456.495	-35.09884	4.403789E-006	-0.1096406	8
	2	5	630984.4	2226.586	-1451.363	1	2657.845	-33.09766	1.05652E-006	-0.1096519	8
	3	6	501234.4	2445.491	-1489.32	1	2863.303	-31.34169	-8.198143E-007	-0.1091449	8
	4	7	398109.4	2655.526	-1533.41	1	3066.458	-30.00391	1.189204E-006	-0.1095852	8
	5	9	316265.6	2882.641	-1589.697	1	3291.923	-28.87552	1.265998E-006	-0.1095788	8
	6	10	251203.1	3105.581	-1628.885	1	3506.836	-27.67713	-2.487774E-006	-0.1088013	8
	7	11	199546.9	3320.378	-1683.464	1	3722.762	-26.88545	-1.363615E-006	-0.1089427	8
	8	13	158578.1	3584.666	-1765.609	1	3995.899	-26.22231	-5.692771E-007	-0.1092556	8
	9	14	125953.1	3869.145	-1803.309	1	4268.748	-24.98902	8.991449E-007	-0.1110453	7
	10	16	100078.1	4128.595	-1878.844	1	4536.006	-24.46936	-4.638696E-009	-0.1094439	7
	11	17	79453.13	4426.594	-1971.511	1	4845.781	-24.00717	2.167269E-008	-0.109427	7
	12	18	63140.62	4744.106	-2052.118	1	5168.919	-23.39145	2.055984E-009	-0.1095073	7
	13	20	50203.12	5086.641	-2119.933	1	5510.72	-22.62466	-1.256885E-009	-0.1094555	7
	14	21	39890.62	5451.768	-2166.785	1	5866.577	-21.67517	-2.081579E-008	-0.1093934	7
	15	22	31640.63	5825.623	-2178.565	1	6219.649	-20.50392	3.275557E-008	-0.1094488	7
	16	24	25171.88	6202.441	-2165.782	1	6569.695	-19.24829	3.420056E-008	-0.1094488	7
	17	25	20015.62	6563.776	-2110.143	1	6894.625	-17.82172	3.236882E-009	-0.1095238	7
	18	27	15890.62	6909.055	-2034.071	1	7202.256	-16.40478	7.874686E-008	-0.1096137	7
	19	28	12609.37	7220.68	-1932.213	1	7474.735	-14.98103	-3.80106E-008	-0.1094356	7
	20	30	10078.13	7484.667	-1836.568	1	7706.7	-13.78669	-2.679721E-008	-0.1094147	7
	21	31	8015.625	7728.414	-1739.031	1	7921.655	-12.68135	3.696896E-009	-0.1095241	7
	22	33	6328.125	7950.138	-1657.164	1	8121.015	-11.7744	2.967917E-008	-0.109456	7
	23	34	5015.625	8125.714	-1595.51	1	8280.874	-11.10888	-4.260093E-008	-0.1094045	7
	24	36	3984.375	8280.672	-1566.33	1	8427.51	-10.71123	3.474487E-009	-0.1094123	7
	25	38	3170.956	8418.895	-1567.797	1	8563.631	-10.54899	9.385935E-009	-0.1094967	7
	26	39	2527.573	8534.61	-1617.32	1	8686.501	-10.73039	-1.630484E-008	-0.109436	7
	27	41	1976.103	8648.153	-1721.652	1	8817.859	-11.2591	-6.188333E-008	-0.1093808	7
	28	42	1577.524	8757.615	-1874.87	1	8956.058	-12.08374	2.873394E-008	-0.1095427	7
	29	44	1265.625	8866.504	-2079.728	1	9107.148	-13.20066	2.447919E-010	-0.1093695	6
	30	46	998.264	8990.067	-2386.423	1	9301.415	-14.86637	-2.995919E-009	-0.1095078	6
	31	47	796.875	9112.572	-2766.573	1	9523.28	-16.88827	-2.1531E-009	-0.1093686	6
	32	48	627.7902	9277.629	-3276.585	1	9839.23	-19.45172	5.831939E-009	-0.1094746	6
	33	50	505.5147	9438.648	-3856.619	1	10196.16	-22.22486	-4.109131E-009	-0.1094273	6
	34	51	397.9953	9655.68	-4647.503	1	10715.94	-25.70259	-7.53608E-011	-0.1094101	6
	35	52	315.5048	9907.51	-5597.643	1	11379.47	-29.46602	-3.966903E-010	-0.1094099	6
	36	54	252.4038	10211.98	-6714.612	1	12221.72	-33.32584	1.889513E-010	-0.1094094	6
	37	55	198.6229	10606.41	-8183.465	1	13396.46	-37.65228	-3.494294E-010	-0.1094111	6
	38	56	158.3615	11076.66	-9881.4	1	14843.67	-41.73589	3.116565E-011	-0.1094131	6
	39	58	125.558	11681.01	-11996.21	1	16743.8	-45.76269	2.927951E-011	-0.1094096	6
	40	59	100.4464	12422	-14459.04	1	19062.27	-49.33359	8.899095E-011	-0.1094106	6
	41	61	79.00281	13443.21	-17640.61	1	22179.07	-52.6904	4.483629E-011	-0.1094148	6
	42	62	63.3446	14624.41	-21136.64	1	25702.74	-55.3207	-2.251338E-010	-0.1094189	6
	43	63	49.86702	16371.78	-25829.45	1	30580.97	-57.63178	-1.323722E-010	-0.1094197	6
	44	65	39.72458	18396.69	-31029.04	1	36072.7	-59.33688	1.692224E-010	-0.109414	6
	45	66	31.6723	21009.82	-37173.64	1	42700.03	-60.52571	-9.359458E-011	-0.1094207	6
	46	68	24.93351	24630.73	-44762.68	1	51091.79	-61.17814	5.443365E-010	-0.1094206	6
	47	69	19.86229	29002.9	-53138.06	1	60537.77	-61.37416	6.696547E-010	-0.1094167	6
	48	70	15.83615	34284.13	-62695.2	1	71456.91	-61.32847	-1.589147E-009	-0.1094118	6
	49	72	12.40079	41653.18	-74417.58	1	85281.67	-60.76329	-7.892418E-010	-0.1094156	6
	50	73	9.93114	49519.77	-86081	1	99308.3	-60.0895	9.476545E-011	-0.1094135	6
	51	75	7.944915	58823.83	-99122	1	115262.4	-59.31304	-1.155303E-010	-0.1094086	5
	52	76	6.317385	69618.75	-113961.2	1	133543.7	-58.5793	2.269537E-010	-0.1093877	5
	53	78	5.008013	81952.12	-131234.7	1	154721.4	-58.01647	-9.850971E-011	-0.1093973	5
	54	81	3.945707	95665.7	-151075.7	1	178817.8	-57.65676	-4.357357E-010	-0.1094089	5
	55	83	3.158693	109848.5	-172714.8	1	204687.8	-57.5432	2.108231E-010	-0.1094018	5
	56	87	2.504006	125648.1	-198965.7	1	235318.5	-57.72733	-4.730475E-010	-0.1094086	5
	57	89	1.998082	142285.7	-229082.7	1	269674.1	-58.15514	-7.329805E-011	-0.1094499	5
	58	92	1.584686	160289.7	-265875.4	1	310455.3	-58.91527	-3.082926E-011	-0.1093904	5
	59	96	1.266892	180528.5	-309853	1	358607.6	-59.7738	-2.380541E-011	-0.1094423	5
	60	100	0.999041	204321.8	-365611.9	1	418831.1	-60.80141	1.614036E-010	-0.1093629	5
