EXPLAIN
TAG	EISPOT
TITLE	LABEL	Potentiostatic EIS	Test &Identifier
DATE	LABEL	1/7/2020	Date
TIME	LABEL	16:21:32	Time
NOTES	NOTES	5	&Notes...
	
	
	
	
	
PSTAT	PSTAT	REF600-11020	Potentiostat
VDC	POTEN	0.00000E+000	T	DC &Voltage (V)
FREQINIT	QUANT	1.00000E+006	Initial Fre&q. (Hz)
FREQFINAL	QUANT	1.00000E+000	Final Fre&q. (Hz)
PTSPERDEC	QUANT	1.00000E+001	Points/&decade
VAC	QUANT	2.50000E+001	AC &Voltage (mV rms)
AREA	QUANT	1.00000E-001	&Area (cm^2)
CONDIT	TWOPARAM	T	5.00000E+000	0.00000E+000	Conditionin&g	Time(s)	E(V)
DELAY	TWOPARAM	T	5.00000E+000	0.00000E+000	Init. De&lay	Time(s)	Stab.(mV/s)
SPEED	SELECTOR	0	&Optimize for:
ZGUESS	QUANT	1.00000E+003	E&stimated Z (ohms)
OCVCURVE	TABLE	19
	Pt	T	Vf	Vm	Ach	Over
	#	s	V vs. Ref.	V	V	bits
	0	0.258333	5.37246E-003	5.37246E-003	6.42413E-004	...........
	1	0.516667	5.36843E-003	5.16158E-003	6.40046E-004	...........
	2	0.775	5.34181E-003	4.86294E-003	6.42013E-004	...........
	3	1.03333	5.26214E-003	4.67656E-003	6.45080E-004	...........
	4	1.29167	5.11285E-003	4.34333E-003	6.41246E-004	...........
	5	1.55	4.90312E-003	4.05704E-003	6.47746E-004	...........
	6	1.80833	4.66270E-003	4.35550E-003	6.42646E-004	...........
	7	2.06667	4.44591E-003	4.17732E-003	6.46780E-004	...........
	8	2.325	4.30119E-003	4.08610E-003	6.38646E-004	...........
	9	2.58333	4.22129E-003	4.03748E-003	6.46280E-004	...........
	10	2.84167	4.16882E-003	4.22084E-003	6.43913E-004	...........
	11	3.1	4.12506E-003	3.66632E-003	6.39480E-004	...........
	12	3.35833	4.05903E-003	3.12564E-003	6.37313E-004	...........
	13	3.61667	3.91230E-003	3.26910E-003	6.43446E-004	...........
	14	3.875	3.69345E-003	3.76531E-003	6.49346E-004	...........
	15	4.13333	3.52752E-003	4.15502E-003	6.50646E-004	...........
	16	4.39167	3.52584E-003	3.65471E-003	6.42513E-004	...........
	17	4.65	3.63639E-003	3.26701E-003	6.40980E-004	...........
	18	4.90833	3.70594E-003	3.73697E-003	6.40180E-004	...........
EOC	QUANT	0.0037059	Open Circuit (V)
PSTATMODEL	IQUANT	4	Pstat Model
PSTATSECTION	LABEL	REF600-11020	Pstat Section
PSTATSERIALNO	LABEL	11020	Pstat Serial Number
CTRLMODE	IQUANT	1	Control Mode
IESTAB	IQUANT	0	I/E Stability
CASPEED	IQUANT	1	Control Amp Speed
CONVENTION	IQUANT	1	Current Convention
ICHRANGE	IQUANT	2	Ich Range
ICHRANGEMODE	TOGGLE	F	Ich Auto Range
ICHOFFSETENABLE	TOGGLE	T	Ich Offset Enable
ICHOFFSET	QUANT	0	Ich Offset (V)
ICHFILTER	IQUANT	3	Ich Filter
VCHRANGE	IQUANT	2	Vch Range
VCHRANGEMODE	TOGGLE	F	Vch Auto Range
VCHOFFSETENABLE	TOGGLE	T	Vch Offset Enable
VCHOFFSET	QUANT	0	Vch Offset (V)
VCHFILTER	IQUANT	3	Vch Filter
ACHRANGE	IQUANT	2	Ach Range
ACHOFFSETENABLE	TOGGLE	F	Ach Offset Enable
ACHOFFSET	QUANT	0	Ach Offset (V)
ACHFILTER	IQUANT	3	Ach Filter
IERANGELOWERLIMIT	IQUANT	1	I/E Range Lower Limit
IERANGEMODE	TOGGLE	F	I/E AutoRange
IERANGE	IQUANT	6	I/E Range
POSFEEDENABLE	TOGGLE	F	Positive Feedback IR Comp
POSFEEDRESISTANCE	QUANT	0	Positive Feedback Resistance (ohm)
ACHSELECT	IQUANT	0	Ach Select
CABLEID	IQUANT	14	Cable ID
DCCALDATE	LABEL	12/22/2019	DC Calibration Date
ACCALDATE	LABEL	12/22/2019	AC Calibration Date
THERMOSELECT	IQUANT	1	Thermo Select
FRAMEWORKVERSION	QUANT	6.33	Framework Version
INSTRUMENTVERSION	LABEL	3.50	Instrument Version
ZCURVE	TABLE
	Pt	Time	Freq	Zreal	Zimag	Zsig	Zmod	Zphz	Idc	Vdc	IERange
	#	s	Hz	ohm	ohm	V	ohm	°	A	V	#
	0	1	1000078	2203.974	-1912.665	1	2918.183	-40.95229	5.517535E-007	0.0058355	8
	1	1	794390.6	2593.306	-1947.977	1	3243.432	-36.91226	-4.730216E-006	0.0064931	8
	2	1	630984.4	2995.482	-1917.844	1	3556.83	-32.62923	-2.783345E-007	0.0060951	8
	3	2	501234.4	3354.813	-1812.238	1	3813.001	-28.37749	2.579181E-007	0.0051954	8
	4	2	398109.4	3704.3	-1691.483	1	4072.218	-24.54271	-3.205627E-006	0.0059236	8
	5	2	316265.6	3955.378	-1494.505	1	4228.305	-20.69864	-7.297199E-007	0.0058821	8
	6	3	251203.1	4196.899	-1351.112	1	4409.021	-17.84498	-2.952818E-006	0.0058526	8
	7	3	199546.9	4359.677	-1200.594	1	4521.97	-15.39681	-8.189012E-007	0.005512	8
	8	3	158578.1	4493.152	-1032.175	1	4610.185	-12.93762	4.150734E-006	0.0046325	8
	9	4	125953.1	4647.089	-851.2905	1	4724.418	-10.3808	-2.240689E-007	0.0057855	7
	10	4	100078.1	4713.805	-756.5629	1	4774.133	-9.118176	-7.810982E-008	0.0055749	7
	11	4	79453.13	4784.989	-686.3485	1	4833.962	-8.162706	1.149712E-007	0.0052457	7
	12	4	63140.62	4845.943	-634.2458	1	4887.273	-7.45659	-4.43724E-008	0.0054269	7
	13	5	50203.12	4898.307	-598.505	1	4934.736	-6.966218	-5.701632E-008	0.0054155	7
	14	5	39890.62	4946.034	-578.6668	1	4979.77	-6.673047	2.432413E-009	0.0053502	7
	15	5	31640.63	4997.019	-574.0806	1	5029.888	-6.553671	-5.512229E-008	0.0054136	7
	16	6	25171.88	5045.525	-585.2195	1	5079.351	-6.61605	-9.014114E-008	0.0054472	7
	17	6	20015.62	5094.132	-610.2608	1	5130.556	-6.831296	-7.647363E-008	0.0053978	7
	18	6	15890.62	5147.754	-650.3422	1	5188.672	-7.200324	1.754075E-007	0.0050568	7
	19	7	12609.37	5205.292	-705.8121	1	5252.927	-7.721931	-3.779961E-008	0.0052766	7
	20	7	10078.13	5271.305	-779.8732	1	5328.682	-8.415686	-1.895956E-008	0.005345	7
	21	7	8015.625	5326.781	-869.7322	1	5397.317	-9.273164	6.50691E-008	0.0052218	7
	22	8	6328.125	5402.745	-987.626	1	5492.272	-10.35933	-5.569112E-008	0.0054091	7
	23	8	5015.625	5478.233	-1130.579	1	5593.679	-11.66079	-7.636582E-008	0.0053959	7
	24	8	3984.375	5562.164	-1303.779	1	5712.924	-13.19204	-9.231017E-008	0.0054426	7
	25	9	3170.956	5650.139	-1515.48	1	5849.851	-15.01448	-1.843604E-008	0.0053442	7
	26	9	2527.573	5743.907	-1771.016	1	6010.737	-17.13607	6.371736E-008	0.0051058	7
	27	9	1976.103	5858.488	-2115.43	1	6228.718	-19.85405	-5.39746E-008	0.0053087	7
	28	10	1577.524	5969.281	-2502.075	1	6472.457	-22.74141	-1.906403E-008	0.0053443	7
	29	10	1265.625	6088.84	-2967.163	1	6773.333	-25.98051	6.374646E-008	0.0051052	7
	30	10	998.264	6236.219	-3591.609	1	7196.533	-29.93881	-9.079816E-008	0.0054383	7
	31	10	796.875	6394.58	-4321.57	1	7717.941	-34.05152	-3.670802E-008	0.0052719	7
	32	11	627.7902	6586.241	-5278.316	1	8440.331	-38.70923	1.788035E-008	0.0054232	7
	33	11	505.5147	6796.512	-6352.865	1	9303.304	-43.06763	-5.453045E-008	0.0053041	7
	34	11	397.9953	7077.12	-7806.428	1	10536.88	-47.8053	1.205923E-009	0.0053042	6
	35	12	315.5048	7405.29	-9563.5	1	12095.41	-52.24837	8.179225E-010	0.005304	6
	36	12	252.4038	7794.518	-11640.83	1	14009.4	-56.19434	1.217038E-009	0.0053004	6
	37	12	198.6229	8318.596	-14390.35	1	16621.71	-59.96918	7.271315E-010	0.0053007	6
	38	13	158.3615	8949.134	-17594.59	1	19739.72	-63.04076	4.216202E-010	0.0052981	6
	39	13	125.558	9773.08	-21616.94	1	23723.52	-65.67215	7.940682E-010	0.005301	6
	40	13	100.4464	10764.31	-26345.93	1	28460.12	-67.77625	1.836475E-010	0.0052942	6
	41	14	79.00281	12164.65	-32517.03	1	34717.95	-69.48914	3.388063E-010	0.0052917	6
	42	14	63.3446	14059.18	-39767.21	1	42179.28	-70.52962	8.782541E-010	0.0052904	6
	43	14	49.86702	16243.01	-48961.21	1	51585.23	-71.64661	7.920043E-010	0.0052887	6
	44	15	39.72458	19145.85	-59422.15	1	62430.41	-72.14103	1.20417E-009	0.0052954	6
	45	15	31.6723	23091.75	-72094.95	1	75702.78	-72.23993	1.270029E-009	0.005291	6
	46	15	24.93351	28061.38	-88223.61	1	92578.87	-72.35564	2.724587E-010	0.0052915	6
	47	16	19.86229	34471.97	-106701.5	1	112131.8	-72.09595	-7.848496E-010	0.0052919	5
	48	16	15.83615	43214.27	-129211.3	1	136246.2	-71.50767	1.244753E-009	0.0052916	5
	49	16	12.40079	54165.89	-157041.5	1	166120.4	-70.96995	4.540724E-010	0.0052908	5
	50	17	9.93114	67337.2	-186458.7	1	198245.2	-70.14346	-3.718492E-010	0.0052966	5
	51	17	7.944915	84385.01	-221639.6	1	237160.2	-69.15664	5.497626E-011	0.0052851	5
	52	18	6.317385	105966	-264045.3	1	284514.9	-68.13354	1.942602E-010	0.0052952	5
	53	19	5.008013	133932.5	-312836.7	1	340300.9	-66.82313	1.046648E-011	0.0052809	5
	54	20	3.945707	169815.8	-370552	1	407610.3	-65.37906	3.167185E-010	0.0052977	5
	55	21	3.158693	211262.7	-430609	1	479641.6	-63.8668	1.024632E-010	0.0053044	5
	56	23	2.504006	263639.3	-500685	1	565854.4	-62.23063	2.425651E-011	0.0052926	5
	57	24	1.998082	324619.5	-572946.8	1	658517.9	-60.46503	4.61764E-010	0.0053274	5
	58	26	1.584686	395468.3	-657987.1	1	767686.3	-58.99298	2.484266E-010	0.0053335	5
	59	28	1.266892	475757.3	-746876.4	1	885533.4	-57.50303	2.095673E-010	0.0052944	5
	60	30	0.999041	569745.6	-844959.6	1	1019101	-56.00871	7.410315E-011	0.0053111	4
