EXPLAIN
TAG	EISPOT
TITLE	LABEL	Potentiostatic EIS	Test &Identifier
DATE	LABEL	1/7/2020	Date
TIME	LABEL	17:48:35	Time
NOTES	NOTES	5	&Notes...
	
	
	
	
	
PSTAT	PSTAT	REF600-11020	Potentiostat
VDC	POTEN	0.00000E+000	T	DC &Voltage (V)
FREQINIT	QUANT	1.00000E+006	Initial Fre&q. (Hz)
FREQFINAL	QUANT	1.00000E+000	Final Fre&q. (Hz)
PTSPERDEC	QUANT	1.00000E+001	Points/&decade
VAC	QUANT	2.50000E+001	AC &Voltage (mV rms)
AREA	QUANT	1.00000E-001	&Area (cm^2)
CONDIT	TWOPARAM	T	5.00000E+000	0.00000E+000	Conditionin&g	Time(s)	E(V)
DELAY	TWOPARAM	T	5.00000E+000	0.00000E+000	Init. De&lay	Time(s)	Stab.(mV/s)
SPEED	SELECTOR	0	&Optimize for:
ZGUESS	QUANT	1.00000E+003	E&stimated Z (ohms)
OCVCURVE	TABLE	19
	Pt	T	Vf	Vm	Ach	Over
	#	s	V vs. Ref.	V	V	bits
	0	0.258333	4.58795E-004	4.58795E-004	6.41746E-004	...........
	1	0.516667	4.51070E-004	5.43796E-005	6.42946E-004	...........
	2	0.775	4.03696E-004	-3.25423E-004	6.35347E-004	...........
	3	1.03333	2.73649E-004	-4.93956E-004	6.41313E-004	...........
	4	1.29167	5.06614E-005	-1.02645E-003	6.44446E-004	...........
	5	1.55	-2.39311E-004	-1.23884E-003	6.45680E-004	...........
	6	1.80833	-5.63619E-004	-1.49092E-003	6.46713E-004	...........
	7	2.06667	-8.89998E-004	-1.74900E-003	6.47346E-004	...........
	8	2.325	-1.18704E-003	-1.65608E-003	6.45846E-004	...........
	9	2.58333	-1.43575E-003	-2.22408E-003	6.41380E-004	...........
	10	2.84167	-1.65048E-003	-2.44462E-003	6.36946E-004	...........
	11	3.1	-1.87342E-003	-2.66072E-003	6.32480E-004	...........
	12	3.35833	-2.12397E-003	-2.87096E-003	6.44013E-004	...........
	13	3.61667	-2.38206E-003	-3.07345E-003	6.39346E-004	...........
	14	3.875	-2.62531E-003	-3.28801E-003	6.43080E-004	...........
	15	4.13333	-2.84886E-003	-3.43576E-003	6.46746E-004	...........
	16	4.39167	-3.07218E-003	-4.48526E-003	6.44446E-004	...........
	17	4.65	-3.34419E-003	-4.32531E-003	6.44146E-004	...........
	18	4.90833	-3.68363E-003	-4.49479E-003	6.43380E-004	...........
EOC	QUANT	-0.0036836	Open Circuit (V)
PSTATMODEL	IQUANT	4	Pstat Model
PSTATSECTION	LABEL	REF600-11020	Pstat Section
PSTATSERIALNO	LABEL	11020	Pstat Serial Number
CTRLMODE	IQUANT	1	Control Mode
IESTAB	IQUANT	0	I/E Stability
CASPEED	IQUANT	1	Control Amp Speed
CONVENTION	IQUANT	1	Current Convention
ICHRANGE	IQUANT	2	Ich Range
ICHRANGEMODE	TOGGLE	F	Ich Auto Range
ICHOFFSETENABLE	TOGGLE	T	Ich Offset Enable
ICHOFFSET	QUANT	0	Ich Offset (V)
ICHFILTER	IQUANT	3	Ich Filter
VCHRANGE	IQUANT	2	Vch Range
VCHRANGEMODE	TOGGLE	F	Vch Auto Range
VCHOFFSETENABLE	TOGGLE	T	Vch Offset Enable
VCHOFFSET	QUANT	0	Vch Offset (V)
VCHFILTER	IQUANT	3	Vch Filter
ACHRANGE	IQUANT	2	Ach Range
ACHOFFSETENABLE	TOGGLE	F	Ach Offset Enable
ACHOFFSET	QUANT	0	Ach Offset (V)
ACHFILTER	IQUANT	3	Ach Filter
IERANGELOWERLIMIT	IQUANT	1	I/E Range Lower Limit
IERANGEMODE	TOGGLE	F	I/E AutoRange
IERANGE	IQUANT	6	I/E Range
POSFEEDENABLE	TOGGLE	F	Positive Feedback IR Comp
POSFEEDRESISTANCE	QUANT	0	Positive Feedback Resistance (ohm)
ACHSELECT	IQUANT	0	Ach Select
CABLEID	IQUANT	14	Cable ID
DCCALDATE	LABEL	12/22/2019	DC Calibration Date
ACCALDATE	LABEL	12/22/2019	AC Calibration Date
THERMOSELECT	IQUANT	1	Thermo Select
FRAMEWORKVERSION	QUANT	6.33	Framework Version
INSTRUMENTVERSION	LABEL	3.50	Instrument Version
ZCURVE	TABLE
	Pt	Time	Freq	Zreal	Zimag	Zsig	Zmod	Zphz	Idc	Vdc	IERange
	#	s	Hz	ohm	ohm	V	ohm	°	A	V	#
	0	1	1000078	2433.835	-1762.54	1	3005.012	-35.91138	3.520651E-006	-0.0034106	8
	1	1	794390.6	2757.654	-1717.887	1	3248.968	-31.92093	-1.558972E-006	-0.0014148	8
	2	2	630984.4	3051.767	-1642.265	1	3465.59	-28.28628	4.603207E-008	-0.0017975	8
	3	2	501234.4	3361.378	-1560.415	1	3705.908	-24.90161	-4.491413E-006	-0.0010426	8
	4	2	398109.4	3594.719	-1463.792	1	3881.326	-22.15647	5.906034E-006	-0.0031381	8
	5	2	316265.6	3813.2	-1338.387	1	4041.259	-19.34046	-5.581405E-007	-0.0019655	8
	6	3	251203.1	4021.24	-1256.019	1	4212.832	-17.34599	-4.34279E-006	-0.0014545	8
	7	3	199546.9	4162.688	-1112.819	1	4308.868	-14.96699	1.214821E-006	-0.0023681	8
	8	3	158578.1	4294.159	-1051.669	1	4421.064	-13.76126	-4.57172E-006	-0.0014023	8
	9	4	125953.1	4489.072	-826.6545	1	4564.551	-10.43402	3.063093E-008	-0.0029273	7
	10	4	100078.1	4580.733	-753.1668	1	4642.238	-9.337064	-1.043431E-007	-0.0021116	7
	11	4	79453.13	4667.037	-689.054	1	4717.629	-8.39863	-4.154857E-008	-0.0022618	7
	12	5	63140.62	4741.048	-633.9987	1	4783.251	-7.616715	-1.072419E-007	-0.0020638	7
	13	5	50203.12	4803.722	-588.7546	1	4839.667	-6.987447	-5.729914E-008	-0.0021264	7
	14	5	39890.62	4858.504	-556.5974	1	4890.282	-6.535397	-8.979739E-011	-0.0021837	7
	15	6	31640.63	4907.599	-537.4326	1	4936.938	-6.249574	-4.120321E-008	-0.002269	7
	16	6	25171.88	4950.953	-532.0594	1	4979.46	-6.133812	7.576429E-008	-0.0023347	7
	17	6	20015.62	4993.406	-542.5845	1	5022.798	-6.20144	1.245006E-007	-0.0024926	7
	18	7	15890.62	5034.254	-569.4448	1	5066.357	-6.453526	-1.050197E-007	-0.001902	7
	19	7	12609.37	5077.391	-610.3021	1	5113.938	-6.854066	1.129767E-008	-0.0023627	7
	20	7	10078.13	5118.659	-671.1014	1	5162.465	-7.469379	-5.974326E-008	-0.0020927	7
	21	8	8015.625	5160.691	-751.525	1	5215.125	-8.285449	-1.126348E-007	-0.0021162	7
	22	8	6328.125	5216.124	-860.5888	1	5286.64	-9.368619	1.21819E-007	-0.0024942	7
	23	8	5015.625	5270.548	-997.453	1	5364.102	-10.71651	1.249429E-007	-0.0024448	7
	24	8	3984.375	5328.897	-1166.947	1	5455.173	-12.35192	2.032285E-007	-0.0025273	7
	25	9	3170.956	5398.495	-1376.87	1	5571.312	-14.30808	-5.627403E-008	-0.0021244	7
	26	9	2527.573	5474.11	-1634.473	1	5712.914	-16.6247	-1.150992E-007	-0.0021191	7
	27	9	1976.103	5568.342	-1979.281	1	5909.652	-19.56788	-1.023493E-008	-0.0022902	7
	28	10	1577.524	5687.02	-2368.352	1	6160.462	-22.60922	-3.506655E-008	-0.0022962	7
	29	10	1265.625	5789.331	-2835.282	1	6446.331	-26.09296	-3.533282E-008	-0.0022922	7
	30	10	998.264	5940.385	-3449.693	1	6869.392	-30.14454	-1.128654E-007	-0.0020594	7
	31	11	796.875	6112.236	-4162.397	1	7394.929	-34.25464	-5.260298E-009	-0.0022947	7
	32	11	627.7902	6330.528	-5088.664	1	8122.197	-38.79334	1.259381E-007	-0.0024553	7
	33	11	505.5147	6579.975	-6115.278	1	8982.911	-42.90368	-6.097842E-011	-0.0021884	7
	34	12	397.9953	6907.929	-7491.657	1	10190.41	-47.32138	7.907626E-010	-0.0022342	6
	35	12	315.5048	7300.207	-9134.274	1	11693.07	-51.36779	7.536975E-010	-0.0022369	6
	36	12	252.4038	7767.469	-11058.3	1	13513.68	-54.91539	1.696368E-010	-0.0022431	6
	37	13	198.6229	8389.52	-13574.55	1	15957.83	-58.28257	8.554608E-010	-0.002237	6
	38	13	158.3615	9127.337	-16479.43	1	18838.26	-61.01958	2.890155E-010	-0.0022416	6
	39	13	125.558	10071.28	-20101.66	1	22483.49	-63.38834	7.077705E-010	-0.0022411	6
	40	14	100.4464	11241.88	-24312.01	1	26785.33	-65.18417	1.236909E-009	-0.0022451	6
	41	14	79.00281	12852.63	-29852.6	1	32501.81	-66.70637	4.12255E-010	-0.0022443	6
	42	14	63.3446	14404.82	-36063.42	1	38833.87	-68.22674	1.080466E-009	-0.0022505	6
	43	15	49.86702	17068.05	-43981.49	1	47177.22	-68.79009	1.025226E-009	-0.0022534	6
	44	15	39.72458	20516.62	-53335.25	1	57145.25	-68.95962	1.049853E-009	-0.0022478	6
	45	15	31.6723	24910.78	-64289.6	1	68947.08	-68.81977	1.47089E-009	-0.0022507	6
	46	16	24.93351	30641.43	-77859.44	1	83671.91	-68.51798	3.411596E-011	-0.0022528	6
	47	16	19.86229	37980.52	-93212.73	1	100653.5	-67.83104	-2.249194E-010	-0.0022508	6
	48	16	15.83615	47918.44	-111207.3	1	121091.9	-66.68913	-5.824223E-010	-0.0022517	5
	49	16	12.40079	60354.49	-132596.3	1	145686.1	-65.52616	5.831911E-010	-0.0022473	5
	50	17	9.93114	75069.97	-154286.6	1	171580.5	-64.05421	1.073828E-009	-0.0022533	5
	51	17	7.944915	92887.09	-179325.3	1	201954.4	-62.6167	-1.128748E-010	-0.002245	5
	52	18	6.317385	115088.8	-206530.4	1	236432.3	-60.87132	2.404099E-010	-0.0022447	5
	53	19	5.008013	141780.8	-236737.7	1	275946.6	-59.08285	6.074278E-010	-0.0022396	5
	54	20	3.945707	173218.5	-270753	1	321421.6	-57.39027	1.812979E-010	-0.0022504	5
	55	21	3.158693	206189.2	-304238.9	1	367525.9	-55.87367	4.36898E-010	-0.002267	5
	56	23	2.504006	244902.1	-342988.9	1	421448	-54.47227	7.002557E-010	-0.0022564	5
	57	24	1.998082	284869.2	-382630.3	1	477028.7	-53.33223	3.91029E-010	-0.0022873	5
	58	26	1.584686	330151.7	-430021.5	1	542142.7	-52.48452	2.872623E-010	-0.002302	5
	59	28	1.266892	375347.1	-481064.7	1	610171	-52.03713	3.254677E-010	-0.0022747	5
	60	30	0.999041	427335.8	-542768.1	1	690806.1	-51.7857	3.580461E-010	-0.0022445	5
