EXPLAIN
TAG	EISPOT
TITLE	LABEL	Potentiostatic EIS	Test &Identifier
DATE	LABEL	1/14/2020	Date
TIME	LABEL	15:44:08	Time
NOTES	NOTES	5	&Notes...
	
	
	
	
	
PSTAT	PSTAT	REF600-11020	Potentiostat
VDC	POTEN	0.00000E+000	T	DC &Voltage (V)
FREQINIT	QUANT	1.00000E+006	Initial Fre&q. (Hz)
FREQFINAL	QUANT	1.00000E+000	Final Fre&q. (Hz)
PTSPERDEC	QUANT	1.00000E+001	Points/&decade
VAC	QUANT	2.50000E+001	AC &Voltage (mV rms)
AREA	QUANT	1.00000E-001	&Area (cm^2)
CONDIT	TWOPARAM	T	5.00000E+000	0.00000E+000	Conditionin&g	Time(s)	E(V)
DELAY	TWOPARAM	T	5.00000E+000	0.00000E+000	Init. De&lay	Time(s)	Stab.(mV/s)
SPEED	SELECTOR	0	&Optimize for:
ZGUESS	QUANT	5.00000E+002	E&stimated Z (ohms)
OCVCURVE	TABLE	19
	Pt	T	Vf	Vm	Ach	Over
	#	s	V vs. Ref.	V	V	bits
	0	0.258333	5.05489E-003	5.05489E-003	6.60179E-004	...........
	1	0.516667	5.05205E-003	4.90650E-003	6.60779E-004	...........
	2	0.775	5.03489E-003	4.77895E-003	6.58779E-004	...........
	3	1.03333	4.98758E-003	4.67676E-003	6.56913E-004	...........
	4	1.29167	4.90622E-003	4.57853E-003	6.55746E-004	...........
	5	1.55	4.80367E-003	4.49165E-003	6.55013E-004	...........
	6	1.80833	4.69692E-003	4.41424E-003	6.59879E-004	...........
	7	2.06667	4.59655E-003	4.34284E-003	6.54846E-004	...........
	8	2.325	4.50554E-003	4.24659E-003	6.64046E-004	...........
	9	2.58333	4.42153E-003	4.18019E-003	6.60513E-004	...........
	10	2.84167	4.34062E-003	4.08984E-003	6.53013E-004	...........
	11	3.1	4.26066E-003	4.02687E-003	6.59579E-004	...........
	12	3.35833	4.18153E-003	3.93921E-003	6.61346E-004	...........
	13	3.61667	4.10313E-003	3.84986E-003	6.61379E-004	...........
	14	3.875	4.02046E-003	3.58428E-003	6.61413E-004	...........
	15	4.13333	3.91199E-003	3.03907E-003	6.66779E-004	...........
	16	4.39167	3.72398E-003	1.99729E-003	6.60513E-004	...........
	17	4.65	3.37834E-003	1.19722E-003	6.64013E-004	...........
	18	4.90833	2.82765E-003	3.25186E-004	6.66346E-004	...........
EOC	QUANT	0.0028277	Open Circuit (V)
PSTATMODEL	IQUANT	4	Pstat Model
PSTATSECTION	LABEL	REF600-11020	Pstat Section
PSTATSERIALNO	LABEL	11020	Pstat Serial Number
CTRLMODE	IQUANT	1	Control Mode
IESTAB	IQUANT	0	I/E Stability
CASPEED	IQUANT	1	Control Amp Speed
CONVENTION	IQUANT	1	Current Convention
ICHRANGE	IQUANT	2	Ich Range
ICHRANGEMODE	TOGGLE	F	Ich Auto Range
ICHOFFSETENABLE	TOGGLE	T	Ich Offset Enable
ICHOFFSET	QUANT	0	Ich Offset (V)
ICHFILTER	IQUANT	3	Ich Filter
VCHRANGE	IQUANT	2	Vch Range
VCHRANGEMODE	TOGGLE	F	Vch Auto Range
VCHOFFSETENABLE	TOGGLE	T	Vch Offset Enable
VCHOFFSET	QUANT	0	Vch Offset (V)
VCHFILTER	IQUANT	3	Vch Filter
ACHRANGE	IQUANT	2	Ach Range
ACHOFFSETENABLE	TOGGLE	F	Ach Offset Enable
ACHOFFSET	QUANT	0	Ach Offset (V)
ACHFILTER	IQUANT	3	Ach Filter
IERANGELOWERLIMIT	IQUANT	1	I/E Range Lower Limit
IERANGEMODE	TOGGLE	F	I/E AutoRange
IERANGE	IQUANT	7	I/E Range
POSFEEDENABLE	TOGGLE	F	Positive Feedback IR Comp
POSFEEDRESISTANCE	QUANT	0	Positive Feedback Resistance (ohm)
ACHSELECT	IQUANT	0	Ach Select
CABLEID	IQUANT	14	Cable ID
DCCALDATE	LABEL	12/22/2019	DC Calibration Date
ACCALDATE	LABEL	12/22/2019	AC Calibration Date
THERMOSELECT	IQUANT	1	Thermo Select
FRAMEWORKVERSION	QUANT	6.33	Framework Version
INSTRUMENTVERSION	LABEL	3.50	Instrument Version
ZCURVE	TABLE
	Pt	Time	Freq	Zreal	Zimag	Zsig	Zmod	Zphz	Idc	Vdc	IERange
	#	s	Hz	ohm	ohm	V	ohm	°	A	V	#
	0	1	1000078	2219.617	-1748.956	1	2825.871	-38.23649	3.560956E-006	0.0042795	8
	1	1	794390.6	2561.96	-1746.078	1	3100.391	-34.27599	8.290154E-007	0.0043028	8
	2	1	630984.4	2890.077	-1695.307	1	3350.613	-30.39571	-2.748172E-006	0.0050759	8
	3	2	501234.4	3188.809	-1605.836	1	3570.323	-26.72914	-4.689177E-007	0.0046816	8
	4	2	398109.4	3477.171	-1487.305	1	3781.904	-23.15805	1.671676E-007	0.0043369	8
	5	2	316265.6	3705.682	-1361.982	1	3948.047	-20.18034	2.765186E-006	0.0038702	8
	6	3	251203.1	3907.268	-1228.583	1	4095.871	-17.45499	2.616654E-006	0.0038785	8
	7	3	199546.9	4058.806	-1082.684	1	4200.727	-14.93585	5.84023E-007	0.0042351	8
	8	3	158578.1	4192.808	-971.259	1	4303.833	-13.04246	8.574073E-007	0.0041528	8
	9	4	125953.1	4309.307	-830.5688	1	4388.619	-10.90932	1.374245E-007	0.0040535	7
	10	4	100078.1	4384.009	-736.5934	1	4445.459	-9.53765	-2.375864E-008	0.0044391	7
	11	4	79453.13	4455.846	-669.3859	1	4505.845	-8.543453	-4.254404E-008	0.0044103	7
	12	4	63140.62	4515.764	-618.5106	1	4557.925	-7.799102	8.865199E-008	0.00421	7
	13	5	50203.12	4568.535	-582.2957	1	4605.494	-7.263633	-3.823147E-009	0.0043763	7
	14	5	39890.62	4618.052	-561.3642	1	4652.046	-6.930793	-5.57178E-009	0.0043617	7
	15	5	31640.63	4664.92	-554.8118	1	4697.797	-6.782485	5.512399E-008	0.0042269	7
	16	6	25171.88	4711.907	-562.6025	1	4745.376	-6.808891	-1.142416E-008	0.00443	7
	17	6	20015.62	4760.69	-587.0059	1	4796.743	-7.029243	-7.336354E-010	0.0043053	7
	18	6	15890.62	4805.039	-622.7153	1	4845.221	-7.384166	-3.173787E-008	0.0044088	7
	19	7	12609.37	4858.789	-676.7117	1	4905.688	-7.92891	5.044208E-008	0.0042453	7
	20	7	10078.13	4912.173	-745.2867	1	4968.39	-8.627256	-4.009054E-008	0.0043977	7
	21	7	8015.625	4978.097	-837.6769	1	5048.084	-9.55182	-3.321619E-008	0.004407	7
	22	8	6328.125	5037.051	-950.577	1	5125.961	-10.687	-2.751229E-008	0.0043618	7
	23	8	5015.625	5109.117	-1093.126	1	5224.749	-12.07669	-3.610583E-009	0.0043585	7
	24	8	3984.375	5189.845	-1265.906	1	5342.004	-13.7079	-1.445112E-008	0.0043379	7
	25	9	3170.956	5275.353	-1477.353	1	5478.314	-15.64481	-2.170211E-008	0.0043554	7
	26	9	2527.573	5372.238	-1732.954	1	5644.827	-17.87845	-9.069125E-009	0.0044228	7
	27	9	1976.103	5492.042	-2073.89	1	5870.565	-20.6874	9.016159E-008	0.0041968	7
	28	10	1577.524	5619.456	-2440.088	1	6126.362	-23.47152	-9.111327E-009	0.0044224	7
	29	10	1265.625	5750.208	-2910.037	1	6444.626	-26.84284	5.190187E-008	0.0043116	7
	30	10	998.264	5924.176	-3505.342	1	6883.551	-30.61285	2.817949E-008	0.004305	7
	31	10	796.875	6118.005	-4199.28	1	7420.508	-34.46495	-3.191783E-008	0.0044014	7
	32	11	627.7902	6364.938	-5095.1	1	8153.066	-38.67709	9.259698E-008	0.0041947	7
	33	11	505.5147	6627.163	-6084.572	1	8996.738	-42.55586	9.120051E-008	0.0041925	7
	34	11	397.9953	6981.686	-7410.884	1	10181.61	-46.7081	6.339617E-010	0.0043376	6
	35	12	315.5048	7399.521	-8987.257	1	11641.46	-50.53418	7.01026E-010	0.0043396	6
	36	12	252.4038	7887.085	-10821.72	1	13390.88	-53.91469	9.220751E-010	0.0043363	6
	37	12	198.6229	8525.521	-13213.7	1	15725.34	-57.16976	7.716678E-010	0.0043391	6
	38	13	158.3615	9260.199	-15959.2	1	18451.21	-59.87589	5.00425E-010	0.0043354	6
	39	13	125.558	10169.22	-19366.6	1	21874.15	-62.29645	9.654428E-010	0.0043342	6
	40	13	100.4464	11219.3	-23340.71	1	25897.13	-64.32757	6.781327E-010	0.0043292	6
	41	14	79.00281	12584.64	-28530.28	1	31182.53	-66.19783	4.841333E-010	0.0043268	6
	42	14	63.3446	14248.53	-34276.49	1	37120.05	-67.42764	7.735513E-010	0.0043265	6
	43	14	49.86702	16315.89	-42004.56	1	45062.09	-68.77226	8.181699E-010	0.0043268	6
	44	15	39.72458	18734.74	-50956.48	1	54291.38	-69.81347	4.642308E-010	0.0043305	6
	45	15	31.6723	21924.33	-61725.89	1	65503.91	-70.44554	3.811692E-011	0.0043305	6
	46	15	24.93351	26210.59	-75662	1	80073.3	-70.89305	6.162849E-010	0.0043316	6
	47	16	19.86229	31715.67	-91598.62	1	96933.9	-70.90179	9.647657E-010	0.0043325	6
	48	16	15.83615	38660.36	-110417.4	1	116989.8	-70.70335	4.309776E-010	0.0043229	5
	49	16	12.40079	48751.98	-135096.3	1	143623.7	-70.15709	8.776032E-010	0.0043234	5
	50	17	9.93114	61175.77	-160705	1	171955.2	-69.15961	1.07963E-009	0.0043228	5
	51	17	7.944915	77401.71	-191042.6	1	206126.9	-67.94447	-4.50403E-010	0.0043328	5
	52	17	6.317385	97709.1	-225748.1	1	245986.3	-66.5959	-7.331422E-010	0.0043151	5
	53	18	5.008013	123191.4	-266096	1	293228.9	-65.15782	1.641104E-009	0.0043171	5
	54	19	3.945707	156758.8	-311765.7	1	348957.3	-63.3063	5.225002E-010	0.0043241	5
	55	20	3.158693	195128.9	-358418.2	1	408091.8	-61.43539	-4.144291E-011	0.0043313	5
	56	22	2.504006	240750.2	-410708.1	1	476069.1	-59.62189	-6.72909E-011	0.0043171	5
	57	23	1.998082	296146.8	-463145.3	1	549733.1	-57.40412	-1.186028E-009	0.0043643	5
	58	25	1.584686	346870.6	-526375.9	1	630389.4	-56.61596	6.215258E-010	0.0043385	5
	59	27	1.266892	407502.2	-588777.4	1	716042.5	-55.31228	8.572575E-011	0.004302	5
	60	29	0.999041	477677.1	-666112.2	1	819683.4	-54.35523	3.26028E-011	0.0042856	5
