EXPLAIN
TAG	EISPOT
TITLE	LABEL	Potentiostatic EIS	Test &Identifier
DATE	LABEL	7/13/2020	Date
TIME	LABEL	20:38:04	Time
NOTES	NOTES	1	&Notes...
	
PSTAT	PSTAT	REF600-11020	Potentiostat
VDC	POTEN	0.00000E+000	T	DC &Voltage (V)
FREQINIT	QUANT	1.00000E+006	Initial Fre&q. (Hz)
FREQFINAL	QUANT	1.00000E+000	Final Fre&q. (Hz)
PTSPERDEC	QUANT	1.00000E+001	Points/&decade
VAC	QUANT	2.50000E+001	AC &Voltage (mV rms)
AREA	QUANT	4.00000E-004	&Area (cm^2)
CONDIT	TWOPARAM	F	5.00000E+000	0.00000E+000	Conditionin&g	Time(s)	E(V)
DELAY	TWOPARAM	F	3.00000E+000	0.00000E+000	Init. De&lay	Time(s)	Stab.(mV/s)
SPEED	SELECTOR	0	&Optimize for:
ZGUESS	QUANT	1.00000E+003	E&stimated Z (ohms)
OCVCURVE	TABLE	39
	Pt	T	Vf	Vm	Ach	Over
	#	s	V vs. Ref.	V	V	bits
	0	0.258333	2.02571E-001	2.02571E-001	5.20950E-004	...........
	1	0.516667	2.02571E-001	2.02565E-001	5.24417E-004	...........
	2	0.775	2.02570E-001	2.02565E-001	5.24717E-004	...........
	3	1.03333	2.02568E-001	2.02549E-001	5.26417E-004	...........
	4	1.29167	2.02565E-001	2.02544E-001	5.21717E-004	...........
	5	1.55	2.02560E-001	2.02537E-001	5.25517E-004	...........
	6	1.80833	2.02553E-001	2.02532E-001	5.28883E-004	...........
	7	2.06667	2.02545E-001	2.02521E-001	5.25117E-004	...........
	8	2.325	2.02538E-001	2.02517E-001	5.29517E-004	...........
	9	2.58333	2.02531E-001	2.02506E-001	5.28983E-004	...........
	10	2.84167	2.02523E-001	2.02503E-001	5.32750E-004	...........
	11	3.1	2.02516E-001	2.02493E-001	5.33317E-004	...........
	12	3.35833	2.02509E-001	2.02489E-001	5.29283E-004	...........
	13	3.61667	2.02502E-001	2.02481E-001	5.26217E-004	...........
	14	3.875	2.02495E-001	2.02477E-001	5.30683E-004	...........
	15	4.13333	2.02489E-001	2.02467E-001	5.26183E-004	...........
	16	4.39167	2.02482E-001	2.02464E-001	5.21983E-004	...........
	17	4.65	2.02476E-001	2.02455E-001	5.27283E-004	...........
	18	4.90833	2.02470E-001	2.02455E-001	5.24050E-004	...........
	19	5.16667	2.02463E-001	2.02443E-001	5.26150E-004	...........
	20	5.425	2.02458E-001	2.02446E-001	5.26117E-004	...........
	21	5.68333	2.02452E-001	2.02432E-001	5.25383E-004	...........
	22	5.94167	2.02447E-001	2.02434E-001	5.28650E-004	...........
	23	6.2	2.02442E-001	2.02423E-001	5.27717E-004	...........
	24	6.45833	2.02437E-001	2.02423E-001	5.31983E-004	...........
	25	6.71667	2.02431E-001	2.02414E-001	5.26083E-004	...........
	26	6.975	2.02426E-001	2.02410E-001	5.25550E-004	...........
	27	7.23333	2.02421E-001	2.02407E-001	5.24750E-004	...........
	28	7.49167	2.02416E-001	2.02401E-001	5.25650E-004	...........
	29	7.75	2.02411E-001	2.02397E-001	5.22717E-004	...........
	30	8.00833	2.02406E-001	2.02398E-001	5.24817E-004	...........
	31	8.26667	2.02402E-001	2.02390E-001	5.26517E-004	...........
	32	8.525	2.02399E-001	2.02390E-001	5.25250E-004	...........
	33	8.78333	2.02395E-001	2.02385E-001	5.29750E-004	...........
	34	9.04167	2.02392E-001	2.02378E-001	5.28850E-004	...........
	35	9.3	2.02388E-001	2.02378E-001	5.26717E-004	...........
	36	9.5583	2.02385E-001	2.02371E-001	5.21450E-004	...........
	37	9.8167	2.02381E-001	2.02369E-001	5.26517E-004	...........
	38	10.075	2.02377E-001	2.02365E-001	5.22883E-004	...........
EOC	QUANT	0.2023766	Open Circuit (V)
PSTATMODEL	IQUANT	4	Pstat Model
PSTATSECTION	LABEL	REF600-11020	Pstat Section
PSTATSERIALNO	LABEL	11020	Pstat Serial Number
CTRLMODE	IQUANT	1	Control Mode
IESTAB	IQUANT	0	I/E Stability
CASPEED	IQUANT	1	Control Amp Speed
CONVENTION	IQUANT	1	Current Convention
ICHRANGE	IQUANT	2	Ich Range
ICHRANGEMODE	TOGGLE	F	Ich Auto Range
ICHOFFSETENABLE	TOGGLE	T	Ich Offset Enable
ICHOFFSET	QUANT	0	Ich Offset (V)
ICHFILTER	IQUANT	3	Ich Filter
VCHRANGE	IQUANT	2	Vch Range
VCHRANGEMODE	TOGGLE	F	Vch Auto Range
VCHOFFSETENABLE	TOGGLE	T	Vch Offset Enable
VCHOFFSET	QUANT	0	Vch Offset (V)
VCHFILTER	IQUANT	3	Vch Filter
ACHRANGE	IQUANT	2	Ach Range
ACHOFFSETENABLE	TOGGLE	F	Ach Offset Enable
ACHOFFSET	QUANT	0	Ach Offset (V)
ACHFILTER	IQUANT	3	Ach Filter
IERANGELOWERLIMIT	IQUANT	1	I/E Range Lower Limit
IERANGEMODE	TOGGLE	F	I/E AutoRange
IERANGE	IQUANT	8	I/E Range
POSFEEDENABLE	TOGGLE	F	Positive Feedback IR Comp
POSFEEDRESISTANCE	QUANT	0	Positive Feedback Resistance (ohm)
ACHSELECT	IQUANT	0	Ach Select
CABLEID	IQUANT	14	Cable ID
DCCALDATE	LABEL	6/26/2020	DC Calibration Date
ACCALDATE	LABEL	6/26/2020	AC Calibration Date
THERMOSELECT	IQUANT	1	Thermo Select
FRAMEWORKVERSION	QUANT	6.33	Framework Version
INSTRUMENTVERSION	LABEL	3.50	Instrument Version
ZCURVE	TABLE
	Pt	Time	Freq	Zreal	Zimag	Zsig	Zmod	Zphz	Idc	Vdc	IERange
	#	s	Hz	ohm	ohm	V	ohm	°	A	V	#
	0	1	1000078	1262.346	-796.9629	1	1492.872	-32.26564	5.02467E-008	0.204881	8
	1	1	794390.6	1372.24	-820.6002	1	1598.883	-30.87945	9.891263E-008	0.2045404	8
	2	2	630984.4	1477.716	-851.8034	1	1705.642	-29.96054	-2.084957E-008	0.2043668	8
	3	2	501234.4	1582.238	-890.8197	1	1815.774	-29.38006	1.460276E-008	0.2042481	8
	4	2	398109.4	1689.943	-943.7161	1	1935.59	-29.18033	-6.989104E-009	0.2042032	8
	5	3	316265.6	1800.064	-1009.46	1	2063.793	-29.28332	-3.949755E-008	0.2041639	8
	6	3	251203.1	1920.462	-1086.648	1	2206.576	-29.50232	-9.472952E-009	0.204158	8
	7	3	199546.9	2045.502	-1183.688	1	2363.302	-30.05703	-2.375471E-008	0.2041524	8
	8	4	158578.1	2178.549	-1296.402	1	2535.1	-30.75585	6.523921E-008	0.2041657	8
	9	4	125953.1	2356.999	-1401.454	1	2742.174	-30.7354	-1.860174E-008	0.204182	7
	10	4	100078.1	2519.338	-1557.35	1	2961.824	-31.72263	-1.619988E-008	0.204145	7
	11	5	79453.13	2686.88	-1744.759	1	3203.671	-32.99818	-1.722028E-008	0.2041345	7
	12	5	63140.62	2872.438	-1966.437	1	3481.06	-34.39508	1.394647E-008	0.2040895	7
	13	5	50203.12	3079.585	-2222.593	1	3797.863	-35.81867	1.698434E-008	0.2040965	7
	14	6	39890.62	3316.821	-2525.781	1	4169.037	-37.28951	-1.560446E-008	0.2041241	7
	15	6	31640.63	3589.365	-2886.271	1	4605.876	-38.80336	8.5082E-009	0.2040888	7
	16	6	25171.88	3902.652	-3300.512	1	5111.171	-40.22154	1.668433E-008	0.2040867	7
	17	6	20015.62	4272.132	-3780.572	1	5704.72	-41.50684	1.488719E-008	0.2041112	7
	18	7	15890.62	4716.981	-4335.55	1	6406.786	-42.58725	7.04706E-009	0.2041142	7
	19	7	12609.37	5252.963	-4962.798	1	7226.547	-43.37303	-3.547864E-009	0.2041227	7
	20	7	10078.13	5871.652	-5642.059	1	8143.042	-43.85762	1.628779E-008	0.2040984	7
	21	8	8015.625	6623.069	-6380.068	1	9196.212	-43.92939	-8.248842E-009	0.2041284	7
	22	8	6328.125	7597.175	-7151.416	1	10433.59	-43.26883	3.135172E-009	0.2040653	6
	23	8	5015.625	8587.534	-7976.526	1	11720.53	-42.88745	4.709081E-010	0.2040769	6
	24	9	3984.375	9663.45	-8818.017	1	13082.03	-42.38084	6.641865E-010	0.2041204	6
	25	9	3170.956	10793.93	-9697.53	1	14510.38	-41.93729	3.106671E-009	0.2040644	6
	26	9	2527.573	11941.83	-10623.96	1	15983.61	-41.65765	3.140429E-009	0.2040635	6
	27	10	1976.103	13196.8	-11752.28	1	17671.21	-41.68633	1.319227E-010	0.204124	6
	28	10	1577.524	14331.41	-12980.24	1	19335.87	-42.16776	3.143401E-009	0.2040725	6
	29	10	1265.625	15402.19	-14412.97	1	21094.1	-43.0997	2.868369E-009	0.2040564	6
	30	11	998.264	16545.33	-16352.26	1	23262.51	-44.66375	3.07382E-009	0.2040751	6
	31	11	796.875	17598.63	-18683.49	1	25666.79	-46.71267	2.905891E-009	0.2040703	6
	32	11	627.7902	18740.81	-21811.38	1	28756.81	-49.3301	-3.574976E-010	0.2041147	6
	33	12	505.5147	19839.79	-25410.84	1	32238.61	-52.01868	2.936065E-009	0.2040809	6
	34	12	397.9953	21116.97	-30436.33	1	37044.52	-55.24678	6.340162E-010	0.2041098	6
	35	12	315.5048	22582.03	-36568.66	1	42979.24	-58.30367	6.55145E-010	0.2041135	6
	36	13	252.4038	24247.68	-43932.62	1	50179.92	-61.10443	6.720535E-010	0.2041058	6
	37	13	198.6229	26457.53	-53775.47	1	59931.65	-63.80281	6.140315E-010	0.2041105	6
	38	13	158.3615	29119.45	-65288.11	1	71487.62	-65.96243	5.791389E-010	0.204108	6
	39	14	125.558	32666.63	-79806.48	1	86233.3	-67.73959	5.751334E-010	0.2041104	6
	40	14	100.4464	37094.09	-96906.1	1	103763	-69.05396	5.054855E-010	0.2041065	6
	41	14	79.00281	43665.07	-119216.1	1	126961.1	-69.88382	3.214777E-010	0.2040932	5
	42	15	63.3446	51642.51	-144204.1	1	153172.3	-70.29649	2.98321E-010	0.2040894	5
	43	15	49.86702	63010.14	-176930.4	1	187815.4	-70.39768	3.492119E-010	0.2040884	5
	44	15	39.72458	77692.76	-214070.8	1	227733.3	-70.05264	3.915175E-010	0.2040947	5
	45	16	31.6723	96820.1	-258353.3	1	275899.6	-69.45609	3.462503E-010	0.2040915	5
	46	16	24.93351	125066.9	-312584.9	1	336676.5	-68.19338	4.516965E-010	0.2040919	5
	47	16	19.86229	161294.9	-371585.7	1	405082.6	-66.5357	7.928967E-010	0.2041022	5
	48	16	15.83615	208660	-438490.3	1	485605.5	-64.55209	1.587325E-010	0.2040918	5
	49	17	12.40079	275247.5	-519046	1	587511.6	-62.06322	1.368827E-010	0.2041033	5
	50	17	9.93114	353158.5	-596312.2	1	693043.4	-59.36439	1.790704E-011	0.2040988	5
	51	17	7.944915	449227.2	-669643.3	1	806366.8	-56.14449	-6.499188E-011	0.2041019	5
	52	18	6.317385	568274.8	-739125.6	1	932331.9	-52.44521	2.881116E-010	0.204085	5
	53	19	5.008013	707300.8	-806613.3	1	1072800	-48.75322	1.977834E-010	0.2040858	4
	54	20	3.945707	856227.8	-851502.6	1	1207552	-44.84146	-6.09521E-011	0.2040857	4
	55	20	3.158693	1000271	-877206.3	1	1330426	-41.24976	1.590405E-010	0.2040738	4
	56	21	2.504006	1142602	-890304.1	1	1448510	-37.92537	2.801665E-010	0.2040799	4
	57	23	1.998082	1274342	-899416.7	1	1559775	-35.21403	1.533657E-010	0.2040444	4
	58	24	1.584686	1405931	-917107.9	1	1678609	-33.11696	2.476092E-011	0.2040387	4
	59	26	1.266892	1514271	-934404.6	1	1779362	-31.67731	1.056585E-011	0.2040713	4
	60	29	0.999041	1620781	-956884	1	1882168	-30.55693	5.945781E-011	0.2041006	4
