EXPLAIN
TAG	EISPOT
TITLE	LABEL	Potentiostatic EIS	Test &Identifier
DATE	LABEL	6/6/2020	Date
TIME	LABEL	18:40:06	Time
NOTES	NOTES	1	&Notes...
	
PSTAT	PSTAT	REF600-11020	Potentiostat
VDC	POTEN	0.00000E+000	T	DC &Voltage (V)
FREQINIT	QUANT	1.00000E+006	Initial Fre&q. (Hz)
FREQFINAL	QUANT	1.00000E+000	Final Fre&q. (Hz)
PTSPERDEC	QUANT	1.00000E+001	Points/&decade
VAC	QUANT	2.50000E+001	AC &Voltage (mV rms)
AREA	QUANT	4.00000E-004	&Area (cm^2)
CONDIT	TWOPARAM	F	5.00000E+000	0.00000E+000	Conditionin&g	Time(s)	E(V)
DELAY	TWOPARAM	T	3.00000E+000	0.00000E+000	Init. De&lay	Time(s)	Stab.(mV/s)
SPEED	SELECTOR	0	&Optimize for:
ZGUESS	QUANT	1.00000E+003	E&stimated Z (ohms)
OCVCURVE	TABLE	12
	Pt	T	Vf	Vm	Ach	Over
	#	s	V vs. Ref.	V	V	bits
	0	0.258333	-1.66433E-001	-1.66433E-001	5.82330E-004	...........
	1	0.516667	-1.66433E-001	-1.66441E-001	5.82630E-004	...........
	2	0.775	-1.66432E-001	-1.66343E-001	5.78763E-004	...........
	3	1.03333	-1.66423E-001	-1.66314E-001	5.73497E-004	...........
	4	1.29167	-1.66400E-001	-1.66264E-001	5.78130E-004	...........
	5	1.55	-1.66365E-001	-1.66337E-001	5.80263E-004	...........
	6	1.80833	-1.66334E-001	-1.66407E-001	5.77097E-004	...........
	7	2.06667	-1.66324E-001	-1.66394E-001	5.88863E-004	...........
	8	2.325	-1.66339E-001	-1.66353E-001	5.85763E-004	...........
	9	2.58333	-1.66359E-001	-1.66326E-001	5.84030E-004	...........
	10	2.84167	-1.66365E-001	-1.66247E-001	5.84663E-004	...........
	11	3.1	-1.66348E-001	-1.66183E-001	5.83830E-004	...........
EOC	QUANT	-0.1663479	Open Circuit (V)
PSTATMODEL	IQUANT	4	Pstat Model
PSTATSECTION	LABEL	REF600-11020	Pstat Section
PSTATSERIALNO	LABEL	11020	Pstat Serial Number
CTRLMODE	IQUANT	1	Control Mode
IESTAB	IQUANT	0	I/E Stability
CASPEED	IQUANT	1	Control Amp Speed
CONVENTION	IQUANT	1	Current Convention
ICHRANGE	IQUANT	2	Ich Range
ICHRANGEMODE	TOGGLE	F	Ich Auto Range
ICHOFFSETENABLE	TOGGLE	T	Ich Offset Enable
ICHOFFSET	QUANT	0	Ich Offset (V)
ICHFILTER	IQUANT	3	Ich Filter
VCHRANGE	IQUANT	2	Vch Range
VCHRANGEMODE	TOGGLE	F	Vch Auto Range
VCHOFFSETENABLE	TOGGLE	T	Vch Offset Enable
VCHOFFSET	QUANT	0	Vch Offset (V)
VCHFILTER	IQUANT	3	Vch Filter
ACHRANGE	IQUANT	2	Ach Range
ACHOFFSETENABLE	TOGGLE	F	Ach Offset Enable
ACHOFFSET	QUANT	0	Ach Offset (V)
ACHFILTER	IQUANT	3	Ach Filter
IERANGELOWERLIMIT	IQUANT	1	I/E Range Lower Limit
IERANGEMODE	TOGGLE	F	I/E AutoRange
IERANGE	IQUANT	8	I/E Range
POSFEEDENABLE	TOGGLE	F	Positive Feedback IR Comp
POSFEEDRESISTANCE	QUANT	0	Positive Feedback Resistance (ohm)
ACHSELECT	IQUANT	0	Ach Select
CABLEID	IQUANT	14	Cable ID
DCCALDATE	LABEL	2/27/2020	DC Calibration Date
ACCALDATE	LABEL	2/27/2020	AC Calibration Date
THERMOSELECT	IQUANT	1	Thermo Select
FRAMEWORKVERSION	QUANT	6.33	Framework Version
INSTRUMENTVERSION	LABEL	3.50	Instrument Version
ZCURVE	TABLE
	Pt	Time	Freq	Zreal	Zimag	Zsig	Zmod	Zphz	Idc	Vdc	IERange
	#	s	Hz	ohm	ohm	V	ohm	°	A	V	#
	0	1	1000078	1330.792	-2964.126	1	3249.161	-65.82153	5.430094E-008	-0.1637639	8
	1	1	794390.6	1563.931	-3544.371	1	3874.073	-66.19083	3.123573E-008	-0.164106	8
	2	1	630984.4	1845.348	-4239.581	1	4623.781	-66.47811	6.966891E-008	-0.164291	8
	3	2	501234.4	2208.408	-5086.146	1	5544.903	-66.52948	5.342279E-008	-0.1644284	8
	4	2	398109.4	2679.806	-6085.535	1	6649.443	-66.23338	9.537211E-008	-0.164522	8
	5	2	316265.6	3289.755	-7253.054	1	7964.25	-65.60246	5.777618E-008	-0.1645151	8
	6	3	251203.1	4105.144	-8636.564	1	9562.55	-64.57726	6.706455E-008	-0.1645499	8
	7	3	199546.9	5139.762	-10203.77	1	11425.15	-63.26505	6.093668E-008	-0.1645496	8
	8	3	158578.1	6504.478	-11908.82	1	13569.38	-61.35707	6.641127E-008	-0.1645525	8
	9	4	125953.1	8388.437	-13703.05	1	16066.72	-58.52677	9.949873E-009	-0.1646105	7
	10	4	100078.1	10431.81	-15584.43	1	18753.58	-56.20269	3.607325E-009	-0.1646148	7
	11	4	79453.13	12912.76	-17567.75	1	21802.88	-53.68312	3.6303E-009	-0.1646234	7
	12	5	63140.62	15794.72	-19434.6	1	25043.5	-50.89884	3.726405E-009	-0.1646301	7
	13	5	50203.12	19069	-21182.41	1	28501.25	-48.00557	3.195706E-009	-0.1646359	7
	14	5	39890.62	22646.06	-22798.82	1	32134.56	-45.1926	4.003315E-009	-0.1646467	7
	15	6	31640.63	26533.4	-24154.95	1	35881.51	-42.31348	4.026443E-009	-0.1646432	7
	16	6	25171.88	30565.49	-25275.1	1	39662.07	-39.58789	3.491525E-009	-0.1646462	7
	17	6	20015.62	34727.95	-26164.75	1	43481.31	-36.99512	3.343539E-009	-0.1646435	7
	18	6	15890.62	38975.86	-26867.79	1	47339.16	-34.58022	4.902031E-009	-0.1646357	7
	19	7	12609.37	43653.94	-26869.9	1	51260.68	-31.61316	7.250217E-010	-0.1645939	6
	20	7	10078.13	47614.09	-27269.16	1	54869.93	-29.80028	6.359462E-010	-0.1645937	6
	21	7	8015.625	51590.72	-27650.88	1	58533.52	-28.18981	6.665758E-010	-0.1645936	6
	22	8	6328.125	55618.01	-28117.69	1	62321.48	-26.81889	6.992371E-010	-0.1645848	6
	23	8	5015.625	59522.44	-28664.03	1	66064.72	-25.71392	6.457968E-010	-0.164595	6
	24	8	3984.375	63360.89	-29353.81	1	69830.14	-24.85733	4.830269E-010	-0.1645995	6
	25	9	3170.956	67232.38	-30281.8	1	73737.23	-24.24704	5.736167E-010	-0.164595	6
	26	9	2527.573	71125.01	-31416.5	1	77754.51	-23.83144	4.338652E-010	-0.1645995	6
	27	9	1976.103	75454.1	-32933.49	1	82328.23	-23.57985	5.770708E-010	-0.1645923	6
	28	10	1577.524	79613.31	-34604.64	1	86808.76	-23.49261	5.271266E-010	-0.1645941	6
	29	10	1265.625	83840.01	-36580.61	1	91472.88	-23.57234	5.928715E-010	-0.164594	6
	30	10	998.264	89276.59	-37814.97	1	96955	-22.95611	-2.284525E-010	-0.1645891	5
	31	11	796.875	94066.27	-40702.32	1	102494.6	-23.39806	-2.265472E-010	-0.1645974	5
	32	11	627.7902	99430.3	-44182.76	1	108804.9	-23.9584	-1.069576E-010	-0.1645924	5
	33	11	505.5147	104736.6	-47779.44	1	115120	-24.52185	-1.194989E-010	-0.1645933	5
	34	12	397.9953	111049.9	-52250.26	1	122728.1	-25.19752	1.032496E-010	-0.1645792	5
	35	12	315.5048	117706.6	-57160.24	1	130851.6	-25.90197	6.466043E-011	-0.1645811	5
	36	12	252.4038	124684.1	-62484.48	1	139464.8	-26.6174	3.913034E-011	-0.1645843	5
	37	13	198.6229	132883.3	-68954.91	1	149708.9	-27.42539	1.496898E-011	-0.1645838	5
	38	13	158.3615	141406.8	-75855.21	1	160467.7	-28.21056	-4.46647E-011	-0.1645834	5
	39	13	125.558	151035.7	-83801.59	1	172726.6	-29.02355	-1.009637E-010	-0.1645811	5
	40	14	100.4464	161229.4	-92338	1	185798.8	-29.80029	4.761565E-011	-0.1645863	5
	41	14	79.00281	173349	-102616.1	1	201444.6	-30.62395	-1.102141E-011	-0.1645875	5
	42	14	63.3446	185646.3	-113194.3	1	217433.9	-31.37195	-7.292475E-011	-0.1645881	5
	43	15	49.86702	200315.4	-126025.6	1	236661.6	-32.17547	5.614276E-011	-0.1645929	5
	44	15	39.72458	215726.6	-139777.4	1	257051.9	-32.94072	-8.284694E-011	-0.1645896	5
	45	15	31.6723	232746.4	-155183.3	1	279736.9	-33.69331	-1.848263E-010	-0.1645962	5
	46	16	24.93351	252736.8	-173463.7	1	306538	-34.46342	-8.92065E-011	-0.1645935	5
	47	16	19.86229	273941.2	-193457.3	1	335364.7	-35.22974	-7.695127E-010	-0.1645935	5
	48	16	15.83615	298078	-215038	1	367548.4	-35.80725	6.622592E-010	-0.1645949	5
	49	16	12.40079	326382.1	-241372.6	1	405938.5	-36.48441	3.633939E-010	-0.1645942	5
	50	17	9.93114	355219.4	-267804.5	1	444859.6	-37.01311	6.417504E-010	-0.1645936	5
	51	17	7.944915	386881.8	-298827.1	1	488850.8	-37.68246	6.956042E-010	-0.1645962	5
	52	18	6.317385	424936.1	-333483.7	1	540168.5	-38.12431	-1.852612E-010	-0.1645778	5
	53	18	5.008013	468483.2	-372045.6	1	598242.8	-38.45482	-9.485228E-011	-0.1645901	5
	54	19	3.945707	517617.1	-416724.1	1	664519.6	-38.83691	2.283759E-010	-0.1645935	5
	55	20	3.158693	570281.6	-460566.9	1	733036.8	-38.9248	-1.245008E-010	-0.1645838	5
	56	21	2.504006	629611.9	-512356.5	1	811739.1	-39.13751	-2.157889E-010	-0.1645973	5
	57	22	1.998082	692758.2	-564462.1	1	893605.8	-39.17329	3.192813E-011	-0.1645573	5
	58	24	1.584686	765830.9	-626617.6	1	989518	-39.29069	6.831003E-011	-0.1645714	4
	59	26	1.266892	837312.4	-691692.6	1	1086062	-39.55965	1.109073E-012	-0.1646079	4
	60	28	0.999041	920812.1	-767304.4	1	1198604	-39.80414	-6.613239E-011	-0.1646333	4
