EXPLAIN
TAG	EISPOT
TITLE	LABEL	Potentiostatic EIS	Test &Identifier
DATE	LABEL	3/12/2020	Date
TIME	LABEL	14:23:35	Time
NOTES	NOTES	1	&Notes...
	
PSTAT	PSTAT	REF600-11020	Potentiostat
VDC	POTEN	0.00000E+000	T	DC &Voltage (V)
FREQINIT	QUANT	1.00000E+006	Initial Fre&q. (Hz)
FREQFINAL	QUANT	1.00000E+000	Final Fre&q. (Hz)
PTSPERDEC	QUANT	1.00000E+001	Points/&decade
VAC	QUANT	2.50000E+001	AC &Voltage (mV rms)
AREA	QUANT	2.50000E-001	&Area (cm^2)
CONDIT	TWOPARAM	F	5.00000E+000	0.00000E+000	Conditionin&g	Time(s)	E(V)
DELAY	TWOPARAM	T	5.00000E+000	0.00000E+000	Init. De&lay	Time(s)	Stab.(mV/s)
SPEED	SELECTOR	1	&Optimize for:
ZGUESS	QUANT	5.00000E+003	E&stimated Z (ohms)
OCVCURVE	TABLE	19
	Pt	T	Vf	Vm	Ach	Over
	#	s	V vs. Ref.	V	V	bits
	0	0.258333	-3.78223E-002	-3.78223E-002	5.88230E-004	...........
	1	0.516667	-3.78242E-002	-3.79214E-002	5.83997E-004	...........
	2	0.775	-3.78346E-002	-3.79535E-002	5.85496E-004	...........
	3	1.03333	-3.78607E-002	-3.80083E-002	5.85697E-004	...........
	4	1.29167	-3.79029E-002	-3.81204E-002	5.88630E-004	...........
	5	1.55	-3.79589E-002	-3.82120E-002	5.86496E-004	...........
	6	1.80833	-3.80281E-002	-3.82565E-002	5.93930E-004	...........
	7	2.06667	-3.81056E-002	-3.83251E-002	5.87063E-004	...........
	8	2.325	-3.81825E-002	-3.83791E-002	5.87930E-004	...........
	9	2.58333	-3.82526E-002	-3.84340E-002	5.87863E-004	...........
	10	2.84167	-3.83159E-002	-3.84902E-002	5.84263E-004	...........
	11	3.1	-3.83744E-002	-3.85448E-002	5.87630E-004	...........
	12	3.35833	-3.84305E-002	-3.85997E-002	5.89163E-004	...........
	13	3.61667	-3.84856E-002	-3.86489E-002	5.84197E-004	...........
	14	3.875	-3.85399E-002	-3.87003E-002	5.88030E-004	...........
	15	4.13333	-3.85930E-002	-3.87472E-002	5.88197E-004	...........
	16	4.39167	-3.86445E-002	-3.87910E-002	5.88463E-004	...........
	17	4.65	-3.86941E-002	-3.88394E-002	5.90663E-004	...........
	18	4.90833	-3.87421E-002	-3.88840E-002	5.90363E-004	...........
EOC	QUANT	-0.0387421	Open Circuit (V)
PSTATMODEL	IQUANT	4	Pstat Model
PSTATSECTION	LABEL	REF600-11020	Pstat Section
PSTATSERIALNO	LABEL	11020	Pstat Serial Number
CTRLMODE	IQUANT	1	Control Mode
IESTAB	IQUANT	0	I/E Stability
CASPEED	IQUANT	1	Control Amp Speed
CONVENTION	IQUANT	1	Current Convention
ICHRANGE	IQUANT	2	Ich Range
ICHRANGEMODE	TOGGLE	F	Ich Auto Range
ICHOFFSETENABLE	TOGGLE	T	Ich Offset Enable
ICHOFFSET	QUANT	0	Ich Offset (V)
ICHFILTER	IQUANT	3	Ich Filter
VCHRANGE	IQUANT	2	Vch Range
VCHRANGEMODE	TOGGLE	F	Vch Auto Range
VCHOFFSETENABLE	TOGGLE	T	Vch Offset Enable
VCHOFFSET	QUANT	0	Vch Offset (V)
VCHFILTER	IQUANT	3	Vch Filter
ACHRANGE	IQUANT	2	Ach Range
ACHOFFSETENABLE	TOGGLE	F	Ach Offset Enable
ACHOFFSET	QUANT	0	Ach Offset (V)
ACHFILTER	IQUANT	3	Ach Filter
IERANGELOWERLIMIT	IQUANT	1	I/E Range Lower Limit
IERANGEMODE	TOGGLE	F	I/E AutoRange
IERANGE	IQUANT	7	I/E Range
POSFEEDENABLE	TOGGLE	F	Positive Feedback IR Comp
POSFEEDRESISTANCE	QUANT	0	Positive Feedback Resistance (ohm)
ACHSELECT	IQUANT	0	Ach Select
CABLEID	IQUANT	14	Cable ID
DCCALDATE	LABEL	2/27/2020	DC Calibration Date
ACCALDATE	LABEL	2/27/2020	AC Calibration Date
THERMOSELECT	IQUANT	1	Thermo Select
FRAMEWORKVERSION	QUANT	6.33	Framework Version
INSTRUMENTVERSION	LABEL	3.50	Instrument Version
ZCURVE	TABLE
	Pt	Time	Freq	Zreal	Zimag	Zsig	Zmod	Zphz	Idc	Vdc	IERange
	#	s	Hz	ohm	ohm	V	ohm	°	A	V	#
	0	2	1000078	1891.218	-2190.853	1	2894.226	-49.19815	2.363078E-006	-0.0369741	8
	1	3	794390.6	2242.464	-2385.822	1	3274.262	-46.77413	-4.619664E-006	-0.0358695	8
	2	4	630984.4	2598.853	-2583.113	1	3664.22	-44.82597	-6.068163E-007	-0.0365822	8
	3	6	501234.4	3006.185	-2737.846	1	4066.073	-42.32531	-5.197216E-007	-0.0368192	8
	4	7	398109.4	3400.802	-2904.744	1	4472.471	-40.5018	4.197705E-006	-0.037924	8
	5	8	316265.6	3845.328	-3081.169	1	4927.49	-38.70436	4.640131E-007	-0.0372428	8
	6	10	251203.1	4258.956	-3294.806	1	5384.649	-37.72618	1.948252E-006	-0.0375025	8
	7	11	199546.9	4732.806	-3504.594	1	5889.111	-36.51957	-6.999308E-007	-0.037033	8
	8	13	158578.1	5252.407	-3774.74	1	6468.11	-35.70361	-1.354124E-006	-0.0368586	8
	9	14	125953.1	5886.372	-3996.725	1	7114.997	-34.17569	-8.984223E-007	-0.0348503	7
	10	16	100078.1	6502.245	-4258.344	1	7772.56	-33.22094	-2.57884E-008	-0.0370977	7
	11	17	79453.13	7237.434	-4511.225	1	8528.282	-31.93604	1.564944E-008	-0.037203	7
	12	18	63140.62	8037.032	-4708.565	1	9314.745	-30.36428	-4.088562E-008	-0.0371257	7
	13	20	50203.12	8902.989	-4836.309	1	10131.79	-28.51183	-2.430007E-008	-0.0371236	7
	14	21	39890.62	9801.94	-4859.083	1	10940.23	-26.36884	-5.066747E-009	-0.0371204	7
	15	23	31640.63	10702.28	-4772.141	1	11718.03	-24.03206	1.910257E-008	-0.037163	7
	16	24	25171.88	11538.34	-4580.262	1	12414.19	-21.65111	-3.946613E-008	-0.0371386	7
	17	26	20015.62	12310.25	-4316.457	1	13045.08	-19.32267	-2.489405E-008	-0.0371149	7
	18	27	15890.62	12998.32	-4002.559	1	13600.62	-17.11512	-1.584548E-008	-0.0371647	7
	19	29	12609.37	13634.4	-3567.838	1	14093.49	-14.66429	5.862059E-010	-0.0371703	6
	20	30	10078.13	14087.46	-3258.789	1	14459.47	-13.02487	8.641156E-009	-0.0373148	6
	21	32	8015.625	14469.62	-2977.774	1	14772.85	-11.62883	-1.264092E-009	-0.0371493	6
	22	34	6328.125	14790.92	-2731.216	1	15040.97	-10.4621	-6.138309E-009	-0.0370914	6
	23	35	5015.625	15032.41	-2552.227	1	15247.54	-9.63588	7.929409E-009	-0.037317	6
	24	37	3984.375	15239.69	-2443.835	1	15434.39	-9.110381	1.558294E-009	-0.0370756	6
	25	38	3170.956	15410.18	-2408.834	1	15597.32	-8.884262	-1.088375E-009	-0.0371508	6
	26	40	2527.573	15558.65	-2458.34	1	15751.67	-8.978775	1.126226E-008	-0.0373198	6
	27	41	1976.103	15696.92	-2605.699	1	15911.72	-9.425191	-1.316144E-009	-0.0371505	6
	28	43	1577.524	15824.99	-2848.485	1	16079.31	-10.20392	5.894216E-010	-0.0370761	6
	29	45	1265.625	15945.01	-3188.468	1	16260.68	-11.30808	4.586798E-009	-0.0371181	6
	30	46	998.264	16076.5	-3687.771	1	16494.04	-12.91951	4.77988E-009	-0.0371109	6
	31	48	796.875	16246.12	-4313.756	1	16809.07	-14.87035	7.422469E-009	-0.037193	6
	32	49	627.7902	16451.85	-5164.136	1	17243.31	-17.42676	-9.540072E-010	-0.0371571	6
	33	50	505.5147	16672.62	-6147.791	1	17769.96	-20.24073	-4.154781E-009	-0.0370458	6
	34	52	397.9953	16967.68	-7481.648	1	18543.93	-23.79437	1.31139E-009	-0.037133	6
	35	53	315.5048	17341.27	-9092.021	1	19580.21	-27.668	2.232037E-009	-0.0371381	6
	36	54	252.4038	17818.76	-10991.82	1	20936.29	-31.66911	1.715291E-009	-0.037139	6
	37	56	198.6229	18466.59	-13481.18	1	22863.88	-36.13058	1.324819E-009	-0.0371391	6
	38	57	158.3615	19299.69	-16357.01	1	25298.81	-40.28218	8.578662E-010	-0.0371433	6
	39	59	125.558	20400.62	-19903.03	1	28501.16	-44.29265	1.428633E-009	-0.0371411	6
	40	60	100.4464	21810.13	-24003.95	1	32432.56	-47.74153	9.546494E-010	-0.0371471	6
	41	62	79.00281	23790.72	-29297.64	1	37740.56	-50.92218	5.114533E-010	-0.0371449	6
	42	63	63.3446	26406.81	-35194.91	1	44000.01	-53.11903	4.421462E-010	-0.0371446	6
	43	65	49.86702	29690.38	-42369.2	1	51736.53	-54.979	4.674884E-010	-0.0371472	6
	44	67	39.72458	33960.65	-50394.77	1	60769.72	-56.02427	4.665064E-010	-0.037145	6
	45	68	31.6723	39218.56	-59422.69	1	71197.98	-56.57547	9.215108E-010	-0.0371451	6
	46	69	24.93351	46554.45	-70411.22	1	84410.05	-56.52814	4.785771E-010	-0.0371439	6
	47	71	19.86229	55084.32	-81719.22	1	98551.1	-56.01735	6.161724E-010	-0.0371339	6
	48	72	15.83615	65141.53	-94718.32	1	114956.4	-55.48216	-1.286598E-009	-0.0371366	5
	49	74	12.40079	78447.09	-107814.5	1	133333.9	-53.95993	1.607818E-009	-0.0371379	5
	50	75	9.93114	91846.31	-122026.3	1	152729	-53.03209	5.217326E-010	-0.037134	5
	51	77	7.944915	106721.5	-136404.3	1	173192.4	-51.96069	6.521342E-010	-0.0371396	5
	52	78	6.317385	123067.4	-152639.5	1	196072.5	-51.12209	8.19028E-010	-0.0371338	5
	53	80	5.008013	140733.2	-170953.8	1	221429.5	-50.53797	6.042193E-010	-0.0371314	5
	54	83	3.945707	159856.1	-192607.1	1	250302.8	-50.30869	3.335592E-010	-0.0371356	5
	55	86	3.158693	178492.3	-215972.9	1	280185.2	-50.42773	1.669163E-010	-0.0371259	5
	56	89	2.504006	198997.5	-245205.4	1	315793.8	-50.93878	3.307133E-010	-0.0371481	5
	57	92	1.998082	220095.7	-279186.6	1	355509.9	-51.74966	-4.528551E-011	-0.0371069	5
	58	95	1.584686	244023.8	-322237.6	1	404208.7	-52.86412	3.137997E-010	-0.0371089	5
	59	98	1.266892	270416.9	-370910.8	1	459020.9	-53.90564	7.366801E-011	-0.0370969	5
	60	103	0.999041	301102.4	-433854.6	1	528102.8	-55.2387	2.028174E-010	-0.0371667	5
