EXPLAIN
TAG	EISPOT
TITLE	LABEL	Potentiostatic EIS	Test &Identifier
DATE	LABEL	3/19/2020	Date
TIME	LABEL	21:40:55	Time
NOTES	NOTES	1	&Notes...
	
PSTAT	PSTAT	REF600-11020	Potentiostat
VDC	POTEN	0.00000E+000	T	DC &Voltage (V)
FREQINIT	QUANT	1.00000E+006	Initial Fre&q. (Hz)
FREQFINAL	QUANT	1.00000E+000	Final Fre&q. (Hz)
PTSPERDEC	QUANT	1.00000E+001	Points/&decade
VAC	QUANT	2.50000E+001	AC &Voltage (mV rms)
AREA	QUANT	4.00000E-004	&Area (cm^2)
CONDIT	TWOPARAM	F	5.00000E+000	0.00000E+000	Conditionin&g	Time(s)	E(V)
DELAY	TWOPARAM	T	3.00000E+000	0.00000E+000	Init. De&lay	Time(s)	Stab.(mV/s)
SPEED	SELECTOR	0	&Optimize for:
ZGUESS	QUANT	1.00000E+003	E&stimated Z (ohms)
OCVCURVE	TABLE	12
	Pt	T	Vf	Vm	Ach	Over
	#	s	V vs. Ref.	V	V	bits
	0	0.258333	7.44100E-002	7.44100E-002	5.94596E-004	...........
	1	0.516667	7.44087E-002	7.43428E-002	5.96396E-004	...........
	2	0.775	7.44018E-002	7.43307E-002	6.00363E-004	...........
	3	1.03333	7.43864E-002	7.43615E-002	5.94230E-004	...........
	4	1.29167	7.43694E-002	7.44289E-002	5.94296E-004	...........
	5	1.55	7.43636E-002	7.43812E-002	5.97463E-004	...........
	6	1.80833	7.43698E-002	7.43003E-002	5.98396E-004	...........
	7	2.06667	7.43753E-002	7.44481E-002	5.98430E-004	...........
	8	2.325	7.43712E-002	7.41556E-002	5.97130E-004	...........
	9	2.58333	7.43558E-002	7.43861E-002	5.97430E-004	...........
	10	2.84167	7.43310E-002	7.41827E-002	5.93096E-004	...........
	11	3.1	7.43044E-002	7.43132E-002	5.96830E-004	...........
EOC	QUANT	0.0743044	Open Circuit (V)
PSTATMODEL	IQUANT	4	Pstat Model
PSTATSECTION	LABEL	REF600-11020	Pstat Section
PSTATSERIALNO	LABEL	11020	Pstat Serial Number
CTRLMODE	IQUANT	1	Control Mode
IESTAB	IQUANT	0	I/E Stability
CASPEED	IQUANT	1	Control Amp Speed
CONVENTION	IQUANT	1	Current Convention
ICHRANGE	IQUANT	2	Ich Range
ICHRANGEMODE	TOGGLE	F	Ich Auto Range
ICHOFFSETENABLE	TOGGLE	T	Ich Offset Enable
ICHOFFSET	QUANT	0	Ich Offset (V)
ICHFILTER	IQUANT	3	Ich Filter
VCHRANGE	IQUANT	2	Vch Range
VCHRANGEMODE	TOGGLE	F	Vch Auto Range
VCHOFFSETENABLE	TOGGLE	T	Vch Offset Enable
VCHOFFSET	QUANT	0	Vch Offset (V)
VCHFILTER	IQUANT	3	Vch Filter
ACHRANGE	IQUANT	2	Ach Range
ACHOFFSETENABLE	TOGGLE	F	Ach Offset Enable
ACHOFFSET	QUANT	0	Ach Offset (V)
ACHFILTER	IQUANT	3	Ach Filter
IERANGELOWERLIMIT	IQUANT	1	I/E Range Lower Limit
IERANGEMODE	TOGGLE	F	I/E AutoRange
IERANGE	IQUANT	8	I/E Range
POSFEEDENABLE	TOGGLE	F	Positive Feedback IR Comp
POSFEEDRESISTANCE	QUANT	0	Positive Feedback Resistance (ohm)
ACHSELECT	IQUANT	0	Ach Select
CABLEID	IQUANT	14	Cable ID
DCCALDATE	LABEL	2/27/2020	DC Calibration Date
ACCALDATE	LABEL	2/27/2020	AC Calibration Date
THERMOSELECT	IQUANT	1	Thermo Select
FRAMEWORKVERSION	QUANT	6.33	Framework Version
INSTRUMENTVERSION	LABEL	3.50	Instrument Version
ZCURVE	TABLE
	Pt	Time	Freq	Zreal	Zimag	Zsig	Zmod	Zphz	Idc	Vdc	IERange
	#	s	Hz	ohm	ohm	V	ohm	°	A	V	#
	0	1	1000078	1671.635	-2325.6	1	2864.049	-54.29153	-2.598204E-007	0.0766314	8
	1	1	794390.6	2044.831	-2606.615	1	3312.971	-51.88662	-3.870538E-008	0.0762725	8
	2	1	630984.4	2488.81	-2883.355	1	3808.925	-49.2004	3.026994E-007	0.0760576	8
	3	2	501234.4	3005.69	-3130.993	1	4340.195	-46.16974	2.466763E-007	0.0759917	8
	4	2	398109.4	3572.97	-3341.021	1	4891.68	-43.07858	1.032495E-007	0.0759383	8
	5	2	316265.6	4194.904	-3496.648	1	5461.114	-39.81279	2.267296E-007	0.075904	8
	6	3	251203.1	4860.049	-3582.159	1	6037.544	-36.39253	2.479987E-007	0.0758887	8
	7	3	199546.9	5529.365	-3581.415	1	6587.898	-32.93146	-1.17555E-007	0.075961	8
	8	3	158578.1	6184.728	-3505.953	1	7109.329	-29.54771	1.683207E-007	0.0759013	8
	9	4	125953.1	6874.111	-3290.48	1	7621.067	-25.57937	3.698145E-008	0.0757755	7
	10	4	100078.1	7408.694	-3105.053	1	8033.063	-22.73901	-2.949037E-009	0.0758512	7
	11	4	79453.13	7912.736	-2896.095	1	8426.076	-20.10284	-4.046309E-010	0.0758355	7
	12	5	63140.62	8351.058	-2667.871	1	8766.853	-17.71687	1.174154E-008	0.0758303	7
	13	5	50203.12	8724.931	-2433.477	1	9057.938	-15.58436	1.204037E-008	0.0758275	7
	14	5	39890.62	9038.28	-2204.419	1	9303.224	-13.70672	8.491121E-009	0.0758185	7
	15	6	31640.63	9303.918	-1997.298	1	9515.89	-12.11596	2.383252E-009	0.0758428	7
	16	6	25171.88	9520.1	-1817.276	1	9691.99	-10.80708	6.46621E-010	0.0758239	7
	17	6	20015.62	9703.2	-1669.959	1	9845.85	-9.76517	3.008011E-010	0.0758344	7
	18	7	15890.62	9856.1	-1559.225	1	9978.67	-8.989635	-4.753176E-009	0.0758361	7
	19	7	12609.37	10036.71	-1372.794	1	10130.16	-7.788432	3.701475E-011	0.0758781	6
	20	7	10078.13	10144.92	-1360.431	1	10235.73	-7.637787	1.291561E-009	0.0758602	6
	21	7	8015.625	10250.64	-1385.568	1	10343.86	-7.697952	3.876805E-010	0.0758641	6
	22	8	6328.125	10354.13	-1452.894	1	10455.57	-7.987603	2.234542E-010	0.075863	6
	23	8	5015.625	10458.01	-1563.949	1	10574.31	-8.5053	-2.361512E-010	0.0758731	6
	24	8	3984.375	10563.37	-1723.159	1	10702.99	-9.264823	5.453646E-010	0.0758813	6
	25	9	3170.956	10677.69	-1932.499	1	10851.16	-10.25862	1.061054E-009	0.0758573	6
	26	9	2527.573	10800.74	-2202.682	1	11023.05	-11.52673	-2.142711E-010	0.0758716	6
	27	9	1976.103	10948.91	-2575.866	1	11247.83	-13.2388	-4.324122E-010	0.0758694	6
	28	10	1577.524	11099.47	-3005.891	1	11499.29	-15.15304	-1.191724E-009	0.0758857	6
	29	10	1265.625	11263.33	-3521.157	1	11800.89	-17.36036	1.885959E-010	0.0758839	6
	30	10	998.264	11470.74	-4204.561	1	12217.04	-20.13025	-8.149182E-010	0.0758729	6
	31	11	796.875	11694.91	-4997.279	1	12717.85	-23.13719	-3.283523E-011	0.0758578	6
	32	11	627.7902	11971.8	-6029.97	1	13404.65	-26.73353	-3.558332E-010	0.0758698	6
	33	11	505.5147	12260.24	-7175.676	1	14205.77	-30.33959	-7.094878E-010	0.0758772	6
	34	12	397.9953	12628.55	-8720.724	1	15347.03	-34.62725	4.119673E-010	0.0758865	6
	35	12	315.5048	13050.27	-10574.43	1	16796.67	-39.01733	4.850861E-010	0.0758832	6
	36	12	252.4038	13534.06	-12758.48	1	18599.72	-43.31037	3.518385E-010	0.0758878	6
	37	13	198.6229	14156.76	-15647.36	1	21101.04	-47.86315	4.59274E-010	0.0758869	6
	38	13	158.3615	14883.37	-19014.42	1	24146.69	-51.94824	3.238594E-010	0.0758836	6
	39	13	125.558	15807.1	-23252.28	1	28116.42	-55.7918	4.559403E-010	0.075886	6
	40	14	100.4464	16926.72	-28237.37	1	32922.07	-59.05968	5.024682E-010	0.0758809	6
	41	14	79.00281	18465.56	-34824.12	1	39416.95	-62.06514	4.527214E-010	0.0758798	6
	42	14	63.3446	20320.09	-42236.04	1	46869.91	-64.30743	2.874312E-010	0.0758807	6
	43	15	49.86702	22901.31	-52007.89	1	56826.85	-66.23404	1.637325E-010	0.0758761	6
	44	15	39.72458	26110.21	-63291.68	1	68465.9	-67.582	4.323231E-010	0.0758814	6
	45	15	31.6723	30308.4	-76843.2	1	82604.33	-68.47479	4.315164E-010	0.0758803	6
	46	16	24.93351	36205.81	-94118.84	1	100842.5	-68.95918	4.170819E-011	0.0758779	6
	47	16	19.86229	43604.8	-113663.5	1	121740.5	-69.01165	-6.727075E-010	0.0758774	5
	48	16	15.83615	53310.49	-136876.4	1	146891.6	-68.72012	5.046749E-010	0.0758793	5
	49	16	12.40079	67051.38	-166312.9	1	179320.6	-68.04248	6.522586E-010	0.0758801	5
	50	17	9.93114	83407.04	-197289.9	1	214196.3	-67.08311	9.142601E-010	0.0758794	5
	51	17	7.944915	103723.6	-233002.9	1	255046.9	-66.00328	7.181367E-010	0.0758727	5
	52	18	6.317385	131080.7	-274509.3	1	304199.7	-64.47509	-3.55349E-011	0.0758901	5
	53	18	5.008013	165878.9	-321142.9	1	361453.4	-62.68244	1.013964E-010	0.0758774	5
	54	19	3.945707	209680.5	-373008.1	1	427903	-60.65818	4.611225E-010	0.0758755	5
	55	20	3.158693	259011.7	-424609.1	1	497373	-58.61679	6.826376E-011	0.0758876	5
	56	21	2.504006	318780.3	-481354.4	1	577341.3	-56.48521	-3.965986E-011	0.0758711	5
	57	22	1.998082	385310.9	-536734.3	1	660717.9	-54.32618	2.013914E-010	0.0759097	5
	58	24	1.584686	460196.2	-598008.4	1	754582.4	-52.41999	2.613921E-010	0.0759105	5
	59	26	1.266892	538019	-657476.4	1	849552.6	-50.70622	1.857593E-010	0.0758743	5
	60	28	0.999041	627781.6	-724150.1	1	958386	-49.07727	1.562988E-010	0.0758443	5
