EXPLAIN
TAG	EISPOT
TITLE	LABEL	Potentiostatic EIS	Test &Identifier
DATE	LABEL	7/5/2020	Date
TIME	LABEL	17:46:34	Time
NOTES	NOTES	1	&Notes...
	
PSTAT	PSTAT	REF600-11020	Potentiostat
VDC	POTEN	0.00000E+000	T	DC &Voltage (V)
FREQINIT	QUANT	1.00000E+006	Initial Fre&q. (Hz)
FREQFINAL	QUANT	1.00000E+000	Final Fre&q. (Hz)
PTSPERDEC	QUANT	1.00000E+001	Points/&decade
VAC	QUANT	2.50000E+001	AC &Voltage (mV rms)
AREA	QUANT	4.00000E-004	&Area (cm^2)
CONDIT	TWOPARAM	F	5.00000E+000	0.00000E+000	Conditionin&g	Time(s)	E(V)
DELAY	TWOPARAM	F	3.00000E+000	0.00000E+000	Init. De&lay	Time(s)	Stab.(mV/s)
SPEED	SELECTOR	0	&Optimize for:
ZGUESS	QUANT	1.00000E+003	E&stimated Z (ohms)
OCVCURVE	TABLE	39
	Pt	T	Vf	Vm	Ach	Over
	#	s	V vs. Ref.	V	V	bits
	0	0.258333	8.67877E-002	8.67877E-002	5.03117E-004	...........
	1	0.516667	8.67875E-002	8.67787E-002	5.03250E-004	...........
	2	0.775	8.67865E-002	8.67693E-002	5.11384E-004	...........
	3	1.03333	8.67834E-002	8.67625E-002	5.09050E-004	...........
	4	1.29167	8.67780E-002	8.67538E-002	5.02117E-004	...........
	5	1.55	8.67709E-002	8.67462E-002	5.09750E-004	...........
	6	1.80833	8.67629E-002	8.67362E-002	5.06517E-004	...........
	7	2.06667	8.67546E-002	8.67289E-002	5.04217E-004	...........
	8	2.325	8.67461E-002	8.67185E-002	5.02350E-004	...........
	9	2.58333	8.67376E-002	8.67129E-002	5.06250E-004	...........
	10	2.84167	8.67290E-002	8.67041E-002	5.02017E-004	...........
	11	3.1	8.67207E-002	8.66957E-002	5.02750E-004	...........
	12	3.35833	8.67126E-002	8.66880E-002	5.00317E-004	...........
	13	3.61667	8.67047E-002	8.66816E-002	5.03250E-004	...........
	14	3.875	8.66968E-002	8.66736E-002	5.02984E-004	...........
	15	4.13333	8.66891E-002	8.66640E-002	5.03150E-004	...........
	16	4.39167	8.66814E-002	8.66557E-002	5.06984E-004	...........
	17	4.65	8.66733E-002	8.66462E-002	5.04384E-004	...........
	18	4.90833	8.66649E-002	8.66398E-002	5.03450E-004	...........
	19	5.16667	8.66564E-002	8.66300E-002	5.07550E-004	...........
	20	5.425	8.66479E-002	8.66232E-002	5.02117E-004	...........
	21	5.68333	8.66397E-002	8.66203E-002	4.99750E-004	...........
	22	5.94167	8.66321E-002	8.66107E-002	5.01584E-004	...........
	23	6.2	8.66252E-002	8.66039E-002	5.03584E-004	...........
	24	6.45833	8.66185E-002	8.65984E-002	4.97584E-004	...........
	25	6.71667	8.66118E-002	8.65902E-002	5.02884E-004	...........
	26	6.975	8.66049E-002	8.65831E-002	5.00817E-004	...........
	27	7.23333	8.65980E-002	8.65756E-002	5.03984E-004	...........
	28	7.49167	8.65909E-002	8.65687E-002	5.05984E-004	...........
	29	7.75	8.65837E-002	8.65619E-002	5.00450E-004	...........
	30	8.00833	8.65766E-002	8.65585E-002	5.01250E-004	...........
	31	8.26667	8.65698E-002	8.65506E-002	5.00117E-004	...........
	32	8.525	8.65635E-002	8.65419E-002	5.05084E-004	...........
	33	8.78333	8.65571E-002	8.65352E-002	5.02450E-004	...........
	34	9.04167	8.65504E-002	8.65305E-002	5.04417E-004	...........
	35	9.3	8.65435E-002	8.65229E-002	5.02317E-004	...........
	36	9.5583	8.65367E-002	8.65183E-002	5.04650E-004	...........
	37	9.8167	8.65302E-002	8.65093E-002	5.02384E-004	...........
	38	10.075	8.65240E-002	8.65070E-002	5.01950E-004	...........
EOC	QUANT	0.086524	Open Circuit (V)
PSTATMODEL	IQUANT	4	Pstat Model
PSTATSECTION	LABEL	REF600-11020	Pstat Section
PSTATSERIALNO	LABEL	11020	Pstat Serial Number
CTRLMODE	IQUANT	1	Control Mode
IESTAB	IQUANT	0	I/E Stability
CASPEED	IQUANT	1	Control Amp Speed
CONVENTION	IQUANT	1	Current Convention
ICHRANGE	IQUANT	2	Ich Range
ICHRANGEMODE	TOGGLE	F	Ich Auto Range
ICHOFFSETENABLE	TOGGLE	T	Ich Offset Enable
ICHOFFSET	QUANT	0	Ich Offset (V)
ICHFILTER	IQUANT	3	Ich Filter
VCHRANGE	IQUANT	2	Vch Range
VCHRANGEMODE	TOGGLE	F	Vch Auto Range
VCHOFFSETENABLE	TOGGLE	T	Vch Offset Enable
VCHOFFSET	QUANT	0	Vch Offset (V)
VCHFILTER	IQUANT	3	Vch Filter
ACHRANGE	IQUANT	2	Ach Range
ACHOFFSETENABLE	TOGGLE	F	Ach Offset Enable
ACHOFFSET	QUANT	0	Ach Offset (V)
ACHFILTER	IQUANT	3	Ach Filter
IERANGELOWERLIMIT	IQUANT	1	I/E Range Lower Limit
IERANGEMODE	TOGGLE	F	I/E AutoRange
IERANGE	IQUANT	8	I/E Range
POSFEEDENABLE	TOGGLE	F	Positive Feedback IR Comp
POSFEEDRESISTANCE	QUANT	0	Positive Feedback Resistance (ohm)
ACHSELECT	IQUANT	0	Ach Select
CABLEID	IQUANT	14	Cable ID
DCCALDATE	LABEL	6/26/2020	DC Calibration Date
ACCALDATE	LABEL	6/26/2020	AC Calibration Date
THERMOSELECT	IQUANT	1	Thermo Select
FRAMEWORKVERSION	QUANT	6.33	Framework Version
INSTRUMENTVERSION	LABEL	3.50	Instrument Version
ZCURVE	TABLE
	Pt	Time	Freq	Zreal	Zimag	Zsig	Zmod	Zphz	Idc	Vdc	IERange
	#	s	Hz	ohm	ohm	V	ohm	°	A	V	#
	0	1	1000078	1111.01	-501.2896	1	1218.866	-24.28498	4.844458E-008	0.0889602	8
	1	1	794390.6	1175.424	-514.9568	1	1283.278	-23.65837	-2.440187E-008	0.0885775	8
	2	2	630984.4	1241.068	-532.8865	1	1350.636	-23.23759	7.928916E-008	0.0884857	8
	3	2	501234.4	1307.789	-558.3872	1	1422.008	-23.12105	4.047772E-008	0.0883253	8
	4	2	398109.4	1377.901	-590.4847	1	1499.094	-23.19704	4.376282E-008	0.0882629	8
	5	3	316265.6	1450.796	-628.4454	1	1581.061	-23.42095	6.648039E-008	0.0882223	8
	6	3	251203.1	1531.972	-673.3087	1	1673.405	-23.7257	-5.815722E-009	0.0882069	8
	7	3	199546.9	1615.61	-723.5696	1	1770.24	-24.12577	-6.672416E-009	0.0882497	8
	8	3	158578.1	1708.969	-782.2141	1	1879.477	-24.59409	5.794734E-008	0.0882042	8
	9	4	125953.1	1820.053	-841.9258	1	2005.351	-24.82447	-8.779208E-009	0.0882169	7
	10	4	100078.1	1938.507	-915.7237	1	2143.912	-25.2854	4.467375E-009	0.088195	7
	11	4	79453.13	2058.635	-1001.778	1	2289.44	-25.94859	1.979533E-009	0.0881812	7
	12	5	63140.62	2193.287	-1097.078	1	2452.364	-26.57414	9.730642E-010	0.0881816	7
	13	5	50203.12	2343.935	-1198.136	1	2632.406	-27.07451	1.374573E-009	0.0881812	7
	14	5	39890.62	2508.986	-1302.91	1	2827.116	-27.44274	2.407356E-009	0.0881789	7
	15	6	31640.63	2689.115	-1413.343	1	3037.907	-27.72547	1.393187E-009	0.088167	7
	16	6	25171.88	2876.374	-1527.448	1	3256.781	-27.96975	1.626006E-009	0.0881815	7
	17	6	20015.62	3071.334	-1649.079	1	3486.051	-28.2325	1.72444E-009	0.0881798	7
	18	7	15890.62	3271.414	-1784.207	1	3726.331	-28.60776	2.732387E-009	0.0881805	7
	19	7	12609.37	3470.627	-1937.711	1	3974.918	-29.17538	1.536946E-009	0.0881703	7
	20	7	10078.13	3660.888	-2115.98	1	4228.413	-30.02776	1.979215E-009	0.0881708	7
	21	8	8015.625	3853.084	-2343.431	1	4509.759	-31.30781	2.485496E-009	0.0881735	7
	22	8	6328.125	4047.698	-2633.609	1	4829.053	-33.04979	-7.889239E-011	0.0881679	7
	23	8	5015.625	4245.043	-3003.781	1	5200.297	-35.28312	3.041826E-009	0.0881673	7
	24	9	3984.375	4448.821	-3468.332	1	5641.04	-37.94023	5.118016E-010	0.0881687	7
	25	9	3170.956	4669.697	-4052.003	1	6182.621	-40.94892	3.174683E-009	0.0881671	7
	26	9	2527.573	4917.78	-4774.172	1	6853.998	-44.15109	1.460932E-009	0.0881658	7
	27	9	1976.103	5244.422	-5753.353	1	7784.923	-47.64951	2.331369E-009	0.0881666	7
	28	10	1577.524	5614.466	-6861.125	1	8865.511	-50.7065	2.237134E-009	0.0881673	7
	29	10	1265.625	6075.727	-8171.791	1	10182.96	-53.36919	1.133667E-009	0.0881583	6
	30	10	998.264	6704.387	-9894.88	1	11952.3	-55.87995	6.804793E-010	0.0881566	6
	31	11	796.875	7482.814	-11861.7	1	14024.71	-57.7547	7.705804E-010	0.0881563	6
	32	11	627.7902	8571.459	-14344.98	1	16710.72	-59.1407	6.50579E-010	0.0881528	6
	33	11	505.5147	9860.43	-17022.99	1	19672.58	-59.91879	1.250034E-009	0.0881565	6
	34	12	397.9953	11750.55	-20442.53	1	23579.06	-60.10932	4.233821E-010	0.0881757	6
	35	12	315.5048	14175.6	-24240.05	1	28080.73	-59.68086	4.584085E-010	0.0881723	6
	36	12	252.4038	17173.44	-28258.73	1	33067.85	-58.71204	4.028902E-010	0.088174	6
	37	13	198.6229	21217.13	-32889.61	1	39139.41	-57.17389	3.937037E-010	0.0881753	6
	38	13	158.3615	25851.69	-37362.68	1	45434.35	-55.32017	3.115452E-010	0.0881721	6
	39	13	125.558	31307.77	-41971.71	1	52362.21	-53.2798	2.813541E-010	0.0881753	6
	40	14	100.4464	37079.5	-46414.2	1	59406.79	-51.37925	3.075162E-010	0.0881725	6
	41	14	79.00281	43570.6	-51209.35	1	67236.86	-49.60777	1.544816E-010	0.0881709	6
	42	14	63.3446	49599.4	-55818.83	1	74671.56	-48.3764	1.712884E-010	0.0881687	6
	43	15	49.86702	56152.88	-61597.11	1	83350.77	-47.64722	-1.542836E-010	0.0881691	6
	44	15	39.72458	62449.35	-68227.88	1	92493.05	-47.53196	-7.716416E-011	0.088175	6
	45	15	31.6723	68742.03	-76121.48	1	102566.8	-47.91617	-2.498598E-010	0.0881612	5
	46	16	24.93351	76066.63	-86701.06	1	115339.5	-48.73811	-5.625229E-010	0.0881586	5
	47	16	19.86229	83694.19	-99049.5	1	129674.7	-49.80308	-1.129514E-009	0.0881617	5
	48	16	15.83615	92563.17	-113960.6	1	146816.1	-50.91518	3.098373E-010	0.0881651	5
	49	17	12.40079	104533	-133352.5	1	169440.4	-51.90766	-6.354332E-010	0.088164	5
	50	17	9.93114	117372	-153995.9	1	193625.8	-52.68621	-6.845936E-011	0.0881576	5
	51	17	7.944915	132954.1	-178062.8	1	222223.2	-53.25242	5.265461E-010	0.088155	5
	52	18	6.317385	152579.5	-206219	1	256528.3	-53.50262	-3.552582E-010	0.0881751	5
	53	18	5.008013	175956.2	-238219.3	1	296157.1	-53.54927	-7.514965E-012	0.0881696	5
	54	19	3.945707	204429.8	-275483.5	1	343049.1	-53.42176	2.575571E-010	0.0881632	5
	55	20	3.158693	235332.8	-313759.9	1	392207.7	-53.1286	-4.754741E-011	0.0881837	5
	56	21	2.504006	272049.2	-358978.5	1	450417.9	-52.8436	-2.120497E-010	0.088167	5
	57	23	1.998082	311195.9	-406454	1	511906	-52.56102	3.901193E-011	0.0881801	5
	58	24	1.584686	356481.2	-463138.8	1	584445.3	-52.41427	1.309433E-010	0.0882051	5
	59	26	1.266892	403697.4	-525527.4	1	662684.4	-52.4694	9.106126E-011	0.0881805	5
	60	29	0.999041	458789.7	-600768.9	1	755917.4	-52.63208	7.51318E-011	0.0881517	5
