EXPLAIN
TAG	EISPOT
TITLE	LABEL	Potentiostatic EIS	Test &Identifier
DATE	LABEL	2/6/2020	Date
TIME	LABEL	17:26:17	Time
NOTES	NOTES	6	&Notes...
	
	
	
	
	
	
PSTAT	PSTAT	REF600-11020	Potentiostat
VDC	POTEN	0.00000E+000	T	DC &Voltage (V)
FREQINIT	QUANT	1.00000E+006	Initial Fre&q. (Hz)
FREQFINAL	QUANT	1.00000E+000	Final Fre&q. (Hz)
PTSPERDEC	QUANT	1.00000E+001	Points/&decade
VAC	QUANT	2.50000E+001	AC &Voltage (mV rms)
AREA	QUANT	1.60000E-004	&Area (cm^2)
CONDIT	TWOPARAM	F	5.00000E+000	0.00000E+000	Conditionin&g	Time(s)	E(V)
DELAY	TWOPARAM	F	5.00000E+000	0.00000E+000	Init. De&lay	Time(s)	Stab.(mV/s)
SPEED	SELECTOR	0	&Optimize for:
ZGUESS	QUANT	1.00000E+003	E&stimated Z (ohms)
OCVCURVE	TABLE	39
	Pt	T	Vf	Vm	Ach	Over
	#	s	V vs. Ref.	V	V	bits
	0	0.258333	6.69632E-003	6.69632E-003	5.78204E-004	...........
	1	0.516667	6.69345E-003	6.54635E-003	5.77571E-004	...........
	2	0.775	6.68103E-003	6.67496E-003	5.72238E-004	...........
	3	1.03333	6.65752E-003	6.50688E-003	5.75904E-004	...........
	4	1.29167	6.62050E-003	6.13866E-003	5.81104E-004	...........
	5	1.55	6.55292E-003	6.33737E-003	5.76504E-004	...........
	6	1.80833	6.45311E-003	6.22659E-003	5.76904E-004	...........
	7	2.06667	6.35308E-003	6.11784E-003	5.75771E-004	...........
	8	2.325	6.27290E-003	6.00782E-003	5.77037E-004	...........
	9	2.58333	6.20020E-003	5.97165E-003	5.81504E-004	...........
	10	2.84167	6.12303E-003	5.89197E-003	5.83837E-004	...........
	11	3.1	6.04358E-003	5.77679E-003	5.75504E-004	...........
	12	3.35833	5.96382E-003	5.69723E-003	5.75271E-004	...........
	13	3.61667	5.88100E-003	5.61983E-003	5.78237E-004	...........
	14	3.875	5.79528E-003	5.55024E-003	5.76471E-004	...........
	15	4.13333	5.71102E-003	5.48233E-003	5.74171E-004	...........
	16	4.39167	5.63188E-003	5.42239E-003	5.79571E-004	...........
	17	4.65	5.55866E-003	5.35101E-003	5.71638E-004	...........
	18	4.90833	5.48976E-003	5.27697E-003	5.79904E-004	...........
	19	5.16667	5.42230E-003	5.21201E-003	5.77504E-004	...........
	20	5.425	5.35436E-003	5.14777E-003	5.72971E-004	...........
	21	5.68333	5.28620E-003	5.08281E-003	5.72438E-004	...........
	22	5.94167	5.21905E-003	5.02444E-003	5.77538E-004	...........
	23	6.2	5.15377E-003	4.96507E-003	5.79071E-004	...........
	24	6.45833	5.09062E-003	4.90431E-003	5.69738E-004	...........
	25	6.71667	5.02925E-003	4.84246E-003	5.72771E-004	...........
	26	6.975	4.96882E-003	4.78667E-003	5.78637E-004	...........
	27	7.23333	4.90884E-003	4.72771E-003	5.71271E-004	...........
	28	7.49167	4.84953E-003	4.67547E-003	5.74204E-004	...........
	29	7.75	4.79137E-003	4.61953E-003	5.73504E-004	...........
	30	8.00833	4.73462E-003	4.56667E-003	5.71404E-004	...........
	31	8.26667	4.67913E-003	4.51133E-003	5.70071E-004	...........
	32	8.525	4.62447E-003	4.45852E-003	5.79337E-004	...........
	33	8.78333	4.57027E-003	4.40638E-003	5.71471E-004	...........
	34	9.04167	4.51654E-003	4.35604E-003	5.72438E-004	...........
	35	9.3	4.46358E-003	4.30818E-003	5.76038E-004	...........
	36	9.5583	4.41172E-003	4.25669E-003	5.77004E-004	...........
	37	9.8167	4.36094E-003	4.20652E-003	5.77104E-004	...........
	38	10.075	4.31070E-003	4.15434E-003	5.76504E-004	...........
EOC	QUANT	0.0043107	Open Circuit (V)
PSTATMODEL	IQUANT	4	Pstat Model
PSTATSECTION	LABEL	REF600-11020	Pstat Section
PSTATSERIALNO	LABEL	11020	Pstat Serial Number
CTRLMODE	IQUANT	1	Control Mode
IESTAB	IQUANT	0	I/E Stability
CASPEED	IQUANT	1	Control Amp Speed
CONVENTION	IQUANT	1	Current Convention
ICHRANGE	IQUANT	2	Ich Range
ICHRANGEMODE	TOGGLE	F	Ich Auto Range
ICHOFFSETENABLE	TOGGLE	T	Ich Offset Enable
ICHOFFSET	QUANT	0	Ich Offset (V)
ICHFILTER	IQUANT	3	Ich Filter
VCHRANGE	IQUANT	2	Vch Range
VCHRANGEMODE	TOGGLE	F	Vch Auto Range
VCHOFFSETENABLE	TOGGLE	T	Vch Offset Enable
VCHOFFSET	QUANT	0	Vch Offset (V)
VCHFILTER	IQUANT	3	Vch Filter
ACHRANGE	IQUANT	2	Ach Range
ACHOFFSETENABLE	TOGGLE	F	Ach Offset Enable
ACHOFFSET	QUANT	0	Ach Offset (V)
ACHFILTER	IQUANT	3	Ach Filter
IERANGELOWERLIMIT	IQUANT	1	I/E Range Lower Limit
IERANGEMODE	TOGGLE	F	I/E AutoRange
IERANGE	IQUANT	6	I/E Range
POSFEEDENABLE	TOGGLE	F	Positive Feedback IR Comp
POSFEEDRESISTANCE	QUANT	0	Positive Feedback Resistance (ohm)
ACHSELECT	IQUANT	0	Ach Select
CABLEID	IQUANT	14	Cable ID
DCCALDATE	LABEL	1/27/2020	DC Calibration Date
ACCALDATE	LABEL	1/27/2020	AC Calibration Date
THERMOSELECT	IQUANT	1	Thermo Select
FRAMEWORKVERSION	QUANT	6.33	Framework Version
INSTRUMENTVERSION	LABEL	3.50	Instrument Version
ZCURVE	TABLE
	Pt	Time	Freq	Zreal	Zimag	Zsig	Zmod	Zphz	Idc	Vdc	IERange
	#	s	Hz	ohm	ohm	V	ohm	°	A	V	#
	0	1	1000078	2232.026	-1272.64	1	2569.349	-29.6906	-9.703618E-007	0.0065737	8
	1	1	794390.6	2382.932	-1276.656	1	2703.371	-28.18018	-6.353629E-007	0.0063361	8
	2	1	630984.4	2517.663	-1300.067	1	2833.514	-27.31086	3.379627E-006	0.0054244	8
	3	2	501234.4	2642.167	-1349.989	1	2967.072	-27.06431	1.355723E-006	0.0055855	8
	4	2	398109.4	2755.597	-1437.537	1	3108.027	-27.55011	-2.746829E-007	0.0058774	8
	5	2	316265.6	2873.014	-1555.211	1	3266.939	-28.42744	-7.138639E-007	0.0060027	8
	6	3	251203.1	2988.226	-1737.216	1	3456.503	-30.17173	-7.192251E-007	0.0059306	8
	7	3	199546.9	3123.039	-1965.529	1	3690.078	-32.18485	-2.058473E-006	0.0062325	8
	8	3	158578.1	3266.588	-2263.47	1	3974.153	-34.7187	2.68785E-006	0.005381	8
	9	3	125953.1	3475.329	-2617.654	1	4350.865	-36.98744	-4.4762E-007	0.0066353	7
	10	4	100078.1	3693.169	-3091.196	1	4816.118	-39.92945	2.281638E-008	0.0057911	7
	11	4	79453.13	3961.565	-3680.542	1	5407.439	-42.89401	-3.374704E-009	0.0058836	7
	12	4	63140.62	4318.784	-4379.691	1	6150.901	-45.40118	-7.196451E-010	0.0058141	7
	13	5	50203.12	4796.015	-5213.983	1	7084.305	-47.391	-1.920497E-009	0.0058759	7
	14	5	39890.62	5446.625	-6176.663	1	8235.101	-48.59393	4.976344E-008	0.0057818	7
	15	5	31640.63	6327.738	-7260.448	1	9630.91	-48.92669	-3.159158E-008	0.0058139	7
	16	6	25171.88	7493.297	-8408.087	1	11262.57	-48.29254	1.581786E-008	0.0057347	7
	17	6	20015.62	8996.818	-9578.49	1	13141.16	-46.79358	5.16815E-008	0.0057788	7
	18	6	15890.62	10894.75	-10588.2	1	15192.29	-44.18249	1.022314E-007	0.0056481	7
	19	7	12609.37	13272.23	-11244.66	1	17395.24	-40.27236	2.653779E-009	0.0058435	6
	20	7	10078.13	15615.51	-11549.49	1	19422.54	-36.48724	2.673619E-009	0.005726	6
	21	7	8015.625	18054.29	-11428.01	1	21367.18	-32.33301	1.406976E-008	0.0055593	6
	22	8	6328.125	20405.47	-10831.71	1	23102.14	-27.96043	1.147002E-010	0.0057837	6
	23	8	5015.625	22405.82	-9956.26	1	24518.32	-23.95847	-1.861332E-009	0.0057742	6
	24	8	3984.375	23972.4	-8888.992	1	25567.37	-20.34483	2.141056E-009	0.0058423	6
	25	9	3170.956	25144.17	-7820.4	1	26332.26	-17.27686	-3.355138E-010	0.0057441	6
	26	9	2527.573	25984.32	-6846.909	1	26871.27	-14.76198	4.920936E-009	0.0056387	6
	27	9	1976.103	26737.83	-6025.226	1	27408.3	-12.69918	2.340137E-009	0.0057204	6
	28	9	1577.524	27160.67	-5428.501	1	27697.85	-11.30256	2.410927E-009	0.0058327	6
	29	10	1265.625	27576.28	-5017.384	1	28029	-10.31192	-2.823956E-009	0.0058131	6
	30	10	998.264	27840.25	-4794.878	1	28250.14	-9.77208	1.816391E-009	0.0057964	6
	31	10	796.875	28019.84	-4753.278	1	28420.15	-9.62798	1.070714E-008	0.0056592	6
	32	11	627.7902	28240.09	-4928.717	1	28666.96	-9.90007	-5.764609E-009	0.0058427	6
	33	11	505.5147	28396.66	-5297.226	1	28886.51	-10.56673	6.621777E-009	0.0056284	6
	34	11	397.9953	28652.17	-5926.267	1	29258.63	-11.68598	1.38639E-009	0.0057866	6
	35	12	315.5048	28921.64	-6804.171	1	29711.24	-13.23879	1.683961E-009	0.0057846	6
	36	12	252.4038	29191.53	-7921.448	1	30247.23	-15.18224	1.29962E-009	0.0057816	6
	37	12	198.6229	29558.77	-9465.974	1	31037.49	-17.75727	8.995673E-010	0.0057886	6
	38	13	158.3615	29976.43	-11331.68	1	32046.73	-20.70758	1.009234E-009	0.0057791	6
	39	13	125.558	30554.51	-13704.78	1	33487.29	-24.15792	8.944873E-010	0.0057857	6
	40	13	100.4464	31336.05	-16465.01	1	35398.37	-27.71894	7.058468E-010	0.0057774	6
	41	14	79.00281	32364.48	-20200.4	1	38151.22	-31.97049	2.941525E-010	0.0057783	6
	42	14	63.3446	33266.04	-24560.8	1	41350.48	-36.439	1.114831E-009	0.0057844	6
	43	14	49.86702	35064.83	-29897.71	1	46080.53	-40.45226	9.202724E-010	0.0057744	6
	44	15	39.72458	37491.98	-36088.37	1	52038.64	-43.90717	3.815328E-010	0.0057784	6
	45	15	31.6723	40451.89	-43478.72	1	59386.48	-47.06539	1.477423E-010	0.0057751	6
	46	15	24.93351	44411.42	-52605.12	1	68845.29	-49.82756	5.403164E-011	0.0057766	6
	47	16	19.86229	49370.54	-62908.37	1	79968.2	-51.87515	-1.475147E-009	0.0057758	6
	48	16	15.83615	56088.7	-74534.94	1	93281.29	-53.03797	3.351404E-009	0.0057776	6
	49	16	12.40079	64890.53	-88916.63	1	110077	-53.87838	8.539615E-010	0.0057771	5
	50	17	9.93114	74270.73	-103588.3	1	127462.5	-54.36024	7.014625E-010	0.0057706	5
	51	17	7.944915	86204.66	-120105.1	1	147839.4	-54.33135	-1.172573E-009	0.0057779	5
	52	18	6.317385	100868.8	-138483.4	1	171324.7	-53.93107	-8.083833E-010	0.0057849	5
	53	18	5.008013	118401.3	-158538.5	1	197871.9	-53.24653	3.369371E-011	0.0057714	5
	54	20	3.945707	138790.9	-180294.4	1	227528	-52.41087	5.197384E-011	0.0057574	5
	55	21	3.158693	160274.9	-203270.5	1	258857	-51.7449	4.287216E-010	0.0057642	5
	56	22	2.504006	183986.7	-228683.4	1	293508.5	-51.18166	3.336488E-010	0.0057674	5
	57	24	1.998082	208949.9	-256416.3	1	330770.9	-50.82391	-5.375436E-011	0.0057213	5
	58	25	1.584686	234458.6	-289215.1	1	372311.9	-50.96928	8.566536E-011	0.0057499	5
	59	27	1.266892	260807.6	-325666.9	1	417228.4	-51.3108	2.377509E-010	0.0057879	5
	60	30	0.999041	290463.5	-373255.1	1	472957.1	-52.11029	3.038984E-010	0.0058007	5
