EXPLAIN
TAG	EISPOT
TITLE	LABEL	Potentiostatic EIS	Test &Identifier
DATE	LABEL	1/28/2020	Date
TIME	LABEL	11:28:50	Time
NOTES	NOTES	6	&Notes...
	
	
	
	
	
	
PSTAT	PSTAT	REF600-11020	Potentiostat
VDC	POTEN	0.00000E+000	T	DC &Voltage (V)
FREQINIT	QUANT	1.00000E+006	Initial Fre&q. (Hz)
FREQFINAL	QUANT	1.00000E+000	Final Fre&q. (Hz)
PTSPERDEC	QUANT	1.00000E+001	Points/&decade
VAC	QUANT	2.50000E+001	AC &Voltage (mV rms)
AREA	QUANT	1.60000E-004	&Area (cm^2)
CONDIT	TWOPARAM	F	5.00000E+000	0.00000E+000	Conditionin&g	Time(s)	E(V)
DELAY	TWOPARAM	F	5.00000E+000	0.00000E+000	Init. De&lay	Time(s)	Stab.(mV/s)
SPEED	SELECTOR	0	&Optimize for:
ZGUESS	QUANT	1.00000E+003	E&stimated Z (ohms)
OCVCURVE	TABLE	39
	Pt	T	Vf	Vm	Ach	Over
	#	s	V vs. Ref.	V	V	bits
	0	0.258333	4.44824E-002	4.44824E-002	5.72004E-004	...........
	1	0.516667	4.44833E-002	4.45324E-002	5.68404E-004	...........
	2	0.775	4.44896E-002	4.46012E-002	5.71371E-004	...........
	3	1.03333	4.45085E-002	4.46552E-002	5.73671E-004	...........
	4	1.29167	4.45436E-002	4.46905E-002	5.70571E-004	...........
	5	1.55	4.45897E-002	4.47093E-002	5.72938E-004	...........
	6	1.80833	4.46364E-002	4.47390E-002	5.67538E-004	...........
	7	2.06667	4.46765E-002	4.47694E-002	5.68104E-004	...........
	8	2.325	4.47095E-002	4.47900E-002	5.65938E-004	...........
	9	2.58333	4.47376E-002	4.47967E-002	5.67838E-004	...........
	10	2.84167	4.47642E-002	4.49371E-002	5.70371E-004	...........
	11	3.1	4.47999E-002	4.51356E-002	5.68338E-004	...........
	12	3.35833	4.48734E-002	4.57576E-002	5.72238E-004	...........
	13	3.61667	4.50348E-002	4.63748E-002	5.66271E-004	...........
	14	3.875	4.53420E-002	4.74596E-002	5.72204E-004	...........
	15	4.13333	4.58000E-002	4.64111E-002	5.67238E-004	...........
	16	4.39167	4.62676E-002	4.59830E-002	5.70938E-004	...........
	17	4.65	4.65124E-002	4.56646E-002	5.68838E-004	...........
	18	4.90833	4.64566E-002	4.65065E-002	5.62838E-004	...........
	19	5.16667	4.62761E-002	4.64033E-002	5.72838E-004	...........
	20	5.425	4.61736E-002	4.57290E-002	5.71871E-004	...........
	21	5.68333	4.61397E-002	4.52448E-002	5.71171E-004	...........
	22	5.94167	4.60410E-002	4.58554E-002	5.68904E-004	...........
	23	6.2	4.58474E-002	4.47311E-002	5.70371E-004	...........
	24	6.45833	4.56060E-002	4.44421E-002	5.68471E-004	...........
	25	6.71667	4.53262E-002	4.50638E-002	5.67404E-004	...........
	26	6.975	4.50587E-002	4.50826E-002	5.68304E-004	...........
	27	7.23333	4.49146E-002	4.51644E-002	5.75771E-004	...........
	28	7.49167	4.49199E-002	4.49672E-002	5.75438E-004	...........
	29	7.75	4.49890E-002	4.50845E-002	5.70271E-004	...........
	30	8.00833	4.50429E-002	4.51709E-002	5.74937E-004	...........
	31	8.26667	4.50730E-002	4.51915E-002	5.69504E-004	...........
	32	8.525	4.51032E-002	4.52226E-002	5.68938E-004	...........
	33	8.78333	4.51397E-002	4.51532E-002	5.72071E-004	...........
	34	9.04167	4.51695E-002	4.51665E-002	5.69704E-004	...........
	35	9.3	4.51818E-002	4.51723E-002	5.66971E-004	...........
	36	9.5583	4.51819E-002	4.52716E-002	5.68571E-004	...........
	37	9.8167	4.51949E-002	4.57150E-002	5.72038E-004	...........
	38	10.075	4.52714E-002	4.64218E-002	5.72838E-004	...........
EOC	QUANT	0.0452714	Open Circuit (V)
PSTATMODEL	IQUANT	4	Pstat Model
PSTATSECTION	LABEL	REF600-11020	Pstat Section
PSTATSERIALNO	LABEL	11020	Pstat Serial Number
CTRLMODE	IQUANT	1	Control Mode
IESTAB	IQUANT	0	I/E Stability
CASPEED	IQUANT	1	Control Amp Speed
CONVENTION	IQUANT	1	Current Convention
ICHRANGE	IQUANT	2	Ich Range
ICHRANGEMODE	TOGGLE	F	Ich Auto Range
ICHOFFSETENABLE	TOGGLE	T	Ich Offset Enable
ICHOFFSET	QUANT	0	Ich Offset (V)
ICHFILTER	IQUANT	3	Ich Filter
VCHRANGE	IQUANT	2	Vch Range
VCHRANGEMODE	TOGGLE	F	Vch Auto Range
VCHOFFSETENABLE	TOGGLE	T	Vch Offset Enable
VCHOFFSET	QUANT	0	Vch Offset (V)
VCHFILTER	IQUANT	3	Vch Filter
ACHRANGE	IQUANT	2	Ach Range
ACHOFFSETENABLE	TOGGLE	F	Ach Offset Enable
ACHOFFSET	QUANT	0	Ach Offset (V)
ACHFILTER	IQUANT	3	Ach Filter
IERANGELOWERLIMIT	IQUANT	1	I/E Range Lower Limit
IERANGEMODE	TOGGLE	F	I/E AutoRange
IERANGE	IQUANT	7	I/E Range
POSFEEDENABLE	TOGGLE	F	Positive Feedback IR Comp
POSFEEDRESISTANCE	QUANT	0	Positive Feedback Resistance (ohm)
ACHSELECT	IQUANT	0	Ach Select
CABLEID	IQUANT	14	Cable ID
DCCALDATE	LABEL	1/27/2020	DC Calibration Date
ACCALDATE	LABEL	1/27/2020	AC Calibration Date
THERMOSELECT	IQUANT	1	Thermo Select
FRAMEWORKVERSION	QUANT	6.33	Framework Version
INSTRUMENTVERSION	LABEL	3.50	Instrument Version
ZCURVE	TABLE
	Pt	Time	Freq	Zreal	Zimag	Zsig	Zmod	Zphz	Idc	Vdc	IERange
	#	s	Hz	ohm	ohm	V	ohm	°	A	V	#
	0	1	1000078	2348.932	-1848.951	1	2989.331	-38.20789	-8.891616E-007	0.0481694	8
	1	1	794390.6	2720.431	-1827.673	1	3277.367	-33.89448	2.405607E-006	0.0468366	8
	2	2	630984.4	3077.833	-1737.051	1	3534.177	-29.43928	-4.786483E-006	0.0478626	8
	3	2	501234.4	3371.777	-1634.374	1	3747.007	-25.86048	-5.318925E-007	0.0471188	8
	4	2	398109.4	3641.602	-1515.485	1	3944.358	-22.59507	5.103303E-006	0.0459948	8
	5	2	316265.6	3856.785	-1341.132	1	4083.31	-19.17426	-1.395752E-006	0.0470144	8
	6	3	251203.1	4043.297	-1202.018	1	4218.187	-16.5565	1.885345E-006	0.0463763	8
	7	3	199546.9	4162.496	-1078.413	1	4299.924	-14.52475	-4.363966E-006	0.0477893	8
	8	3	158578.1	4278.331	-988.92	1	4391.136	-13.01512	1.215013E-006	0.0465734	8
	9	4	125953.1	4409.738	-871.3161	1	4494.996	-11.17705	-5.710368E-007	0.0479312	7
	10	4	100078.1	4502.409	-810.3666	1	4574.755	-10.20315	-1.772821E-008	0.0468103	7
	11	4	79453.13	4573.692	-786.6082	1	4640.841	-9.75857	7.71066E-008	0.0466728	7
	12	5	63140.62	4646.039	-778.2819	1	4710.775	-9.50962	-2.068017E-008	0.046809	7
	13	5	50203.12	4718.991	-786.3537	1	4784.06	-9.460612	-1.563105E-008	0.0468505	7
	14	5	39890.62	4793.539	-813.1927	1	4862.026	-9.62819	-2.946418E-008	0.0469093	7
	15	6	31640.63	4874.116	-856.9653	1	4948.878	-9.97181	-1.492939E-008	0.0468467	7
	16	6	25171.88	4958.724	-917.759	1	5042.938	-10.48563	-4.508662E-008	0.0468391	7
	17	6	20015.62	5051.624	-997.412	1	5149.149	-11.16904	-2.073019E-008	0.0467964	7
	18	7	15890.62	5153.468	-1096.042	1	5268.732	-12.00679	-3.917644E-008	0.0468237	7
	19	7	12609.37	5266.942	-1217.722	1	5405.879	-13.0181	-7.039245E-009	0.0468384	7
	20	7	10078.13	5390.075	-1357.557	1	5558.406	-14.13663	-1.319946E-008	0.046841	7
	21	8	8015.625	5526.076	-1533.326	1	5734.858	-15.50779	-8.347238E-009	0.0468377	7
	22	8	6328.125	5685.797	-1740.185	1	5946.136	-17.01716	2.925631E-008	0.04677	7
	23	8	5015.625	5863.451	-1981.125	1	6189.097	-18.66893	1.30202E-007	0.0466121	7
	24	9	3984.375	6057.394	-2265.32	1	6467.124	-20.50459	8.137008E-008	0.0466344	7
	25	9	3170.956	6284.644	-2591.152	1	6797.854	-22.4063	-5.296636E-008	0.0468696	7
	26	9	2527.573	6537.034	-2968.89	1	7179.633	-24.42587	-4.38223E-008	0.0468312	7
	27	9	1976.103	6845.453	-3452.19	1	7666.671	-26.762	3.039657E-008	0.0467674	7
	28	10	1577.524	7173.058	-3975.807	1	8201.207	-28.99826	6.102434E-008	0.046787	7
	29	10	1265.625	7531.281	-4568.258	1	8808.472	-31.23979	-3.86072E-008	0.0468235	7
	30	10	998.264	7982.08	-5311.342	1	9587.7	-33.64012	-3.625512E-009	0.0469318	6
	31	11	796.875	8465.996	-6143.308	1	10460.08	-35.96633	-7.232865E-009	0.0469297	6
	32	11	627.7902	9046.82	-7174.78	1	11546.53	-38.41695	-3.79861E-009	0.046846	6
	33	11	505.5147	9648.88	-8271.517	1	12709	-40.6049	-4.571705E-009	0.0469264	6
	34	12	397.9953	10387.49	-9691.93	1	14206.81	-43.01606	2.850395E-010	0.0467976	6
	35	12	315.5048	11202.61	-11330.27	1	15933.41	-45.32461	1.3883E-009	0.046798	6
	36	12	252.4038	12081.68	-13192.44	1	17888.75	-47.51645	1.398459E-009	0.0467964	6
	37	13	198.6229	13136.07	-15584.36	1	20382.07	-49.87243	9.519154E-010	0.0467945	6
	38	13	158.3615	14253.53	-18300.06	1	23196.02	-52.08572	8.516302E-010	0.0467963	6
	39	13	125.558	15513.3	-21654.57	1	26638	-54.38225	1.068818E-009	0.0467955	6
	40	14	100.4464	16914.03	-25564.58	1	30653.42	-56.51059	-9.492054E-011	0.0467962	6
	41	14	79.00281	18565.65	-30771.56	1	35938.46	-58.89582	8.084572E-011	0.0467896	6
	42	14	63.3446	20246.59	-36102.63	1	41392.32	-60.716	8.701103E-010	0.0467876	6
	43	15	49.86702	22711.73	-43841.18	1	49374.81	-62.61378	8.048775E-012	0.0467871	6
	44	15	39.72458	25244.3	-53115.98	1	58809.71	-64.57978	6.163292E-010	0.0467918	6
	45	15	31.6723	28556.28	-64179.48	1	70245.77	-66.01362	2.604791E-010	0.0467862	6
	46	16	24.93351	33029.19	-78016.72	1	84720.34	-67.05412	7.484638E-010	0.0467851	6
	47	16	19.86229	38439.73	-94174.87	1	101717.8	-67.79599	4.440805E-010	0.0467844	6
	48	16	15.83615	46504.03	-114009.8	1	123129.5	-67.8097	1.975748E-009	0.0467853	5
	49	17	12.40079	56745.22	-138596.8	1	149763.4	-67.7345	-8.134967E-010	0.0467909	5
	50	17	9.93114	67547.3	-165443.1	1	178701	-67.79073	4.939754E-010	0.046781	5
	51	18	7.944915	82711.14	-196684	1	213367.6	-67.19188	-1.386568E-010	0.0467882	5
	52	18	6.317385	102941.9	-233155.2	1	254869.4	-66.17774	-6.931345E-011	0.0467923	5
	53	19	5.008013	128755.6	-275491.1	1	304094.3	-64.95013	1.519346E-010	0.0467907	5
	54	20	3.945707	161080.8	-324522.2	1	362300.5	-63.60191	-7.439138E-011	0.0467716	5
	55	21	3.158693	197854.4	-375326.6	1	424283.4	-62.20393	1.830212E-010	0.0467733	5
	56	23	2.504006	242473.7	-433568.6	1	496764.8	-60.78385	1.968381E-010	0.0467791	5
	57	24	1.998082	293310.4	-495851.8	1	576107.7	-59.39448	-4.605011E-011	0.046735	5
	58	26	1.584686	350642.6	-566961.4	1	666629.9	-58.26489	1.105648E-011	0.0467457	5
	59	28	1.266892	414863.8	-641572.9	1	764020.8	-57.11186	8.10977E-011	0.0467863	5
	60	30	0.999041	491625.6	-731895.8	1	881684.3	-56.11014	1.30711E-010	0.0468042	5
