EXPLAIN
TAG	EISPOT
TITLE	LABEL	Potentiostatic EIS	Test &Identifier
DATE	LABEL	1/14/2020	Date
TIME	LABEL	15:43:08	Time
NOTES	NOTES	5	&Notes...
	
	
	
	
	
PSTAT	PSTAT	REF600-11020	Potentiostat
VDC	POTEN	0.00000E+000	T	DC &Voltage (V)
FREQINIT	QUANT	1.00000E+006	Initial Fre&q. (Hz)
FREQFINAL	QUANT	1.00000E+000	Final Fre&q. (Hz)
PTSPERDEC	QUANT	1.00000E+001	Points/&decade
VAC	QUANT	2.50000E+001	AC &Voltage (mV rms)
AREA	QUANT	1.00000E-001	&Area (cm^2)
CONDIT	TWOPARAM	T	5.00000E+000	0.00000E+000	Conditionin&g	Time(s)	E(V)
DELAY	TWOPARAM	T	5.00000E+000	0.00000E+000	Init. De&lay	Time(s)	Stab.(mV/s)
SPEED	SELECTOR	0	&Optimize for:
ZGUESS	QUANT	5.00000E+002	E&stimated Z (ohms)
OCVCURVE	TABLE	19
	Pt	T	Vf	Vm	Ach	Over
	#	s	V vs. Ref.	V	V	bits
	0	0.258333	-4.94704E-003	-4.94704E-003	7.10745E-004	...........
	1	0.516667	-4.96423E-003	-5.84694E-003	7.14412E-004	...........
	2	0.775	-5.06878E-003	-6.64668E-003	7.11079E-004	...........
	3	1.03333	-5.36060E-003	-7.38491E-003	7.12345E-004	...........
	4	1.29167	-5.87347E-003	-8.08102E-003	7.21612E-004	...........
	5	1.55	-6.54089E-003	-8.72166E-003	7.14745E-004	...........
	6	1.80833	-7.26271E-003	-9.30809E-003	7.20479E-004	...........
	7	2.06667	-7.96800E-003	-9.86181E-003	7.12445E-004	...........
	8	2.325	-8.62654E-003	-1.04025E-002	7.11212E-004	...........
	9	2.58333	-9.23574E-003	-1.09060E-002	7.12612E-004	...........
	10	2.84167	-9.80395E-003	-1.13737E-002	7.17445E-004	...........
	11	3.1	-1.03385E-002	-1.18171E-002	7.17645E-004	...........
	12	3.35833	-1.08428E-002	-1.22517E-002	7.19479E-004	...........
	13	3.61667	-1.13195E-002	-1.26689E-002	7.18179E-004	...........
	14	3.875	-1.17727E-002	-1.30591E-002	7.13612E-004	...........
	15	4.13333	-1.22058E-002	-1.34350E-002	7.14579E-004	...........
	16	4.39167	-1.26205E-002	-1.38189E-002	7.15712E-004	...........
	17	4.65	-1.30189E-002	-1.41742E-002	7.18245E-004	...........
	18	4.90833	-1.34036E-002	-1.45139E-002	7.14312E-004	...........
EOC	QUANT	-0.0134036	Open Circuit (V)
PSTATMODEL	IQUANT	4	Pstat Model
PSTATSECTION	LABEL	REF600-11020	Pstat Section
PSTATSERIALNO	LABEL	11020	Pstat Serial Number
CTRLMODE	IQUANT	1	Control Mode
IESTAB	IQUANT	0	I/E Stability
CASPEED	IQUANT	1	Control Amp Speed
CONVENTION	IQUANT	1	Current Convention
ICHRANGE	IQUANT	2	Ich Range
ICHRANGEMODE	TOGGLE	F	Ich Auto Range
ICHOFFSETENABLE	TOGGLE	T	Ich Offset Enable
ICHOFFSET	QUANT	0	Ich Offset (V)
ICHFILTER	IQUANT	3	Ich Filter
VCHRANGE	IQUANT	2	Vch Range
VCHRANGEMODE	TOGGLE	F	Vch Auto Range
VCHOFFSETENABLE	TOGGLE	T	Vch Offset Enable
VCHOFFSET	QUANT	0	Vch Offset (V)
VCHFILTER	IQUANT	3	Vch Filter
ACHRANGE	IQUANT	2	Ach Range
ACHOFFSETENABLE	TOGGLE	F	Ach Offset Enable
ACHOFFSET	QUANT	0	Ach Offset (V)
ACHFILTER	IQUANT	3	Ach Filter
IERANGELOWERLIMIT	IQUANT	1	I/E Range Lower Limit
IERANGEMODE	TOGGLE	F	I/E AutoRange
IERANGE	IQUANT	7	I/E Range
POSFEEDENABLE	TOGGLE	F	Positive Feedback IR Comp
POSFEEDRESISTANCE	QUANT	0	Positive Feedback Resistance (ohm)
ACHSELECT	IQUANT	0	Ach Select
CABLEID	IQUANT	14	Cable ID
DCCALDATE	LABEL	12/22/2019	DC Calibration Date
ACCALDATE	LABEL	12/22/2019	AC Calibration Date
THERMOSELECT	IQUANT	1	Thermo Select
FRAMEWORKVERSION	QUANT	6.33	Framework Version
INSTRUMENTVERSION	LABEL	3.50	Instrument Version
ZCURVE	TABLE
	Pt	Time	Freq	Zreal	Zimag	Zsig	Zmod	Zphz	Idc	Vdc	IERange
	#	s	Hz	ohm	ohm	V	ohm	°	A	V	#
	0	1	1000078	2427.038	-1912.549	1	3090.042	-38.23873	-6.926707E-007	-0.0111798	8
	1	1	794390.6	2812.169	-1863.908	1	3373.788	-33.53645	2.248503E-006	-0.0119333	8
	2	2	630984.4	3180.074	-1774.472	1	3641.651	-29.16139	-1.409725E-006	-0.0114896	8
	3	2	501234.4	3498.165	-1618.891	1	3854.603	-24.8339	6.191601E-007	-0.0117825	8
	4	2	398109.4	3767.236	-1464.904	1	4042.031	-21.24876	-1.059315E-006	-0.0117209	8
	5	3	316265.6	3968.271	-1283.445	1	4170.66	-17.9226	-1.185981E-006	-0.0117372	8
	6	3	251203.1	4140.628	-1126.403	1	4291.105	-15.21829	1.396683E-006	-0.0122522	8
	7	3	199546.9	4256.643	-964.328	1	4364.509	-12.7647	3.489101E-007	-0.0118884	8
	8	4	158578.1	4357.406	-842.501	1	4438.107	-10.94306	-4.746796E-007	-0.0117349	8
	9	4	125953.1	4447.972	-716.2189	1	4505.266	-9.147333	1.918021E-007	-0.0123447	7
	10	4	100078.1	4488.137	-629.002	1	4531.999	-7.97791	2.71186E-008	-0.0119723	7
	11	5	79453.13	4538.841	-574.068	1	4575	-7.208437	-1.329627E-008	-0.0119544	7
	12	5	63140.62	4584.097	-534.5106	1	4615.154	-6.650718	-9.405136E-009	-0.0118626	7
	13	5	50203.12	4625.186	-510.4509	1	4653.268	-6.297866	-4.046716E-008	-0.0118936	7
	14	5	39890.62	4665.345	-499.0712	1	4691.963	-6.105945	5.117342E-008	-0.0120404	7
	15	6	31640.63	4704.951	-502.4603	1	4731.705	-6.095739	5.172976E-008	-0.0120458	7
	16	6	25171.88	4745.648	-518.4117	1	4773.88	-6.234236	4.180848E-010	-0.0119398	7
	17	6	20015.62	4787.493	-547.3047	1	4818.675	-6.521723	-9.2676E-009	-0.0119662	7
	18	7	15890.62	4834.653	-590.478	1	4870.579	-6.963305	5.095933E-008	-0.0119775	7
	19	7	12609.37	4881.198	-648.1418	1	4924.041	-7.56368	-8.947253E-009	-0.0118674	7
	20	7	10078.13	4933.354	-722.9597	1	4986.046	-8.337083	5.281272E-008	-0.0120499	7
	21	8	8015.625	4994.935	-829.5637	1	5063.354	-9.429668	3.228336E-008	-0.0120571	7
	22	8	6328.125	5052.471	-934.2368	1	5138.119	-10.47606	4.996232E-008	-0.0119841	7
	23	8	5015.625	5119.908	-1081.23	1	5232.831	-11.9246	5.90839E-008	-0.0120788	7
	24	9	3984.375	5191.546	-1267.103	1	5343.941	-13.71604	2.770462E-008	-0.0119899	7
	25	9	3170.956	5275.854	-1474.42	1	5478.006	-15.61385	-2.560422E-008	-0.011948	7
	26	9	2527.573	5363.386	-1737.871	1	5637.917	-17.95362	-2.480254E-008	-0.0119471	7
	27	10	1976.103	5474.229	-2090.054	1	5859.651	-20.8968	-2.052383E-008	-0.0119445	7
	28	10	1577.524	5593.152	-2492.943	1	6123.57	-24.02318	-1.020991E-008	-0.0119745	7
	29	10	1265.625	5716.227	-2963.816	1	6438.901	-27.40637	-3.223601E-008	-0.011896	7
	30	11	998.264	5879.858	-3587.352	1	6887.803	-31.38772	5.206071E-008	-0.0120543	7
	31	11	796.875	6061.012	-4313.985	1	7439.512	-35.44174	3.113951E-008	-0.0120635	7
	32	11	627.7902	6293.109	-5260.553	1	8202.234	-39.89302	9.374869E-008	-0.0121076	7
	33	12	505.5147	6546.861	-6307.812	1	9091.198	-43.93463	-1.834827E-009	-0.011955	7
	34	12	397.9953	6883.204	-7711.646	1	10336.73	-48.24877	1.579409E-009	-0.0119639	6
	35	12	315.5048	7281.91	-9386.751	1	11880.12	-52.19695	1.711627E-009	-0.0119642	6
	36	12	252.4038	7748.854	-11344.75	1	13738.56	-55.66557	1.205314E-009	-0.0119683	6
	37	13	198.6229	8361.043	-13910.67	1	16230.03	-58.99193	1.46707E-009	-0.0119685	6
	38	13	158.3615	9073.46	-16877.15	1	19161.57	-61.73672	1.451213E-009	-0.0119684	6
	39	13	125.558	9966.09	-20574.01	1	22860.72	-64.15437	1.390152E-009	-0.011964	6
	40	14	100.4464	11038.79	-24897.26	1	27234.69	-66.08876	1.43872E-009	-0.0119669	6
	41	14	79.00281	12474.56	-30606.7	1	33051.24	-67.82537	1.137086E-009	-0.0119653	6
	42	14	63.3446	13987.87	-37021.09	1	39575.52	-69.30167	1.233612E-009	-0.0119678	6
	43	15	49.86702	16294.56	-45392.3	1	48228.35	-70.25328	1.147901E-009	-0.0119695	6
	44	15	39.72458	19189.4	-55155.66	1	58398.46	-70.81652	1.518467E-009	-0.0119692	6
	45	15	31.6723	22796.63	-66868.55	1	70647.65	-71.17488	1.43115E-009	-0.0119669	6
	46	16	24.93351	27837.2	-81696.93	1	86309.31	-71.1841	9.974878E-010	-0.011968	6
	47	16	19.86229	34051.3	-98589.4	1	104304.2	-70.94585	6.013557E-010	-0.0119706	6
	48	16	15.83615	42438.66	-117970.4	1	125371.7	-70.21432	7.834604E-012	-0.0119751	5
	49	17	12.40079	53545.52	-143696.4	1	153348.6	-69.56313	-4.279657E-010	-0.0119661	5
	50	17	9.93114	66329.16	-170595.4	1	183036.5	-68.75343	-1.964727E-010	-0.0119731	5
	51	17	7.944915	82958.23	-202218.2	1	218573.3	-67.69455	6.890457E-010	-0.0119694	5
	52	18	6.317385	103119.4	-237975	1	259356.4	-66.57195	4.632099E-010	-0.0119541	5
	53	19	5.008013	128633.4	-280077.8	1	308204.7	-65.33174	3.364463E-010	-0.0119714	5
	54	20	3.945707	159602.9	-328306.8	1	365045.7	-64.07378	6.627257E-010	-0.0119666	5
	55	20	3.158693	195140.3	-379684	1	426895.4	-62.7989	6.284538E-010	-0.0119538	5
	56	22	2.504006	238367.3	-440289.8	1	500673.6	-61.56945	4.465346E-010	-0.0119663	5
	57	23	1.998082	285114.1	-504258.2	1	579280.9	-60.51562	6.782092E-010	-0.0119588	5
	58	25	1.584686	341051.3	-581836.9	1	674425.8	-59.62275	7.386423E-010	-0.0119289	5
	59	27	1.266892	402833.6	-667669.4	1	779780.4	-58.89562	5.468544E-010	-0.0119442	5
	60	29	0.999041	475082.9	-768133.3	1	903179.1	-58.26361	5.647111E-010	-0.0119781	5
