EXPLAIN
TAG	EISPOT
TITLE	LABEL	Potentiostatic EIS	Test &Identifier
DATE	LABEL	1/10/2020	Date
TIME	LABEL	12:36:34	Time
NOTES	NOTES	5	&Notes...
	
	
	
	
	
PSTAT	PSTAT	REF600-11020	Potentiostat
VDC	POTEN	0.00000E+000	T	DC &Voltage (V)
FREQINIT	QUANT	1.00000E+006	Initial Fre&q. (Hz)
FREQFINAL	QUANT	1.00000E+000	Final Fre&q. (Hz)
PTSPERDEC	QUANT	1.00000E+001	Points/&decade
VAC	QUANT	2.50000E+001	AC &Voltage (mV rms)
AREA	QUANT	1.00000E-001	&Area (cm^2)
CONDIT	TWOPARAM	T	5.00000E+000	0.00000E+000	Conditionin&g	Time(s)	E(V)
DELAY	TWOPARAM	T	5.00000E+000	0.00000E+000	Init. De&lay	Time(s)	Stab.(mV/s)
SPEED	SELECTOR	0	&Optimize for:
ZGUESS	QUANT	5.00000E+002	E&stimated Z (ohms)
OCVCURVE	TABLE	19
	Pt	T	Vf	Vm	Ach	Over
	#	s	V vs. Ref.	V	V	bits
	0	0.258333	-2.31721E-002	-2.31721E-002	6.54146E-004	...........
	1	0.516667	-2.32096E-002	-2.51349E-002	6.60979E-004	...........
	2	0.775	-2.34366E-002	-2.68233E-002	6.60879E-004	...........
	3	1.03333	-2.40664E-002	-2.83726E-002	6.51446E-004	...........
	4	1.29167	-2.51655E-002	-2.98326E-002	6.49280E-004	...........
	5	1.55	-2.65857E-002	-3.11866E-002	6.48413E-004	...........
	6	1.80833	-2.81136E-002	-3.24705E-002	6.49613E-004	...........
	7	2.06667	-2.96059E-002	-3.36631E-002	6.50380E-004	...........
	8	2.325	-3.10067E-002	-3.48342E-002	6.55746E-004	...........
	9	2.58333	-3.23126E-002	-3.59205E-002	6.55579E-004	...........
	10	2.84167	-3.35385E-002	-3.69691E-002	6.56046E-004	...........
	11	3.1	-3.46987E-002	-3.79827E-002	6.52180E-004	...........
	12	3.35833	-3.58031E-002	-3.89279E-002	6.53880E-004	...........
	13	3.61667	-3.68569E-002	-3.98240E-002	6.51046E-004	...........
	14	3.875	-3.78622E-002	-4.07294E-002	6.55246E-004	...........
	15	4.13333	-3.88225E-002	-4.15794E-002	6.52213E-004	...........
	16	4.39167	-3.97445E-002	-4.24215E-002	6.51646E-004	...........
	17	4.65	-4.06348E-002	-4.32131E-002	6.53113E-004	...........
	18	4.90833	-4.14965E-002	-4.40039E-002	6.56046E-004	...........
EOC	QUANT	-0.0414965	Open Circuit (V)
PSTATMODEL	IQUANT	4	Pstat Model
PSTATSECTION	LABEL	REF600-11020	Pstat Section
PSTATSERIALNO	LABEL	11020	Pstat Serial Number
CTRLMODE	IQUANT	1	Control Mode
IESTAB	IQUANT	0	I/E Stability
CASPEED	IQUANT	1	Control Amp Speed
CONVENTION	IQUANT	1	Current Convention
ICHRANGE	IQUANT	2	Ich Range
ICHRANGEMODE	TOGGLE	F	Ich Auto Range
ICHOFFSETENABLE	TOGGLE	T	Ich Offset Enable
ICHOFFSET	QUANT	0	Ich Offset (V)
ICHFILTER	IQUANT	3	Ich Filter
VCHRANGE	IQUANT	2	Vch Range
VCHRANGEMODE	TOGGLE	F	Vch Auto Range
VCHOFFSETENABLE	TOGGLE	T	Vch Offset Enable
VCHOFFSET	QUANT	0	Vch Offset (V)
VCHFILTER	IQUANT	3	Vch Filter
ACHRANGE	IQUANT	2	Ach Range
ACHOFFSETENABLE	TOGGLE	F	Ach Offset Enable
ACHOFFSET	QUANT	0	Ach Offset (V)
ACHFILTER	IQUANT	3	Ach Filter
IERANGELOWERLIMIT	IQUANT	1	I/E Range Lower Limit
IERANGEMODE	TOGGLE	F	I/E AutoRange
IERANGE	IQUANT	8	I/E Range
POSFEEDENABLE	TOGGLE	F	Positive Feedback IR Comp
POSFEEDRESISTANCE	QUANT	0	Positive Feedback Resistance (ohm)
ACHSELECT	IQUANT	0	Ach Select
CABLEID	IQUANT	14	Cable ID
DCCALDATE	LABEL	12/22/2019	DC Calibration Date
ACCALDATE	LABEL	12/22/2019	AC Calibration Date
THERMOSELECT	IQUANT	1	Thermo Select
FRAMEWORKVERSION	QUANT	6.33	Framework Version
INSTRUMENTVERSION	LABEL	3.50	Instrument Version
ZCURVE	TABLE
	Pt	Time	Freq	Zreal	Zimag	Zsig	Zmod	Zphz	Idc	Vdc	IERange
	#	s	Hz	ohm	ohm	V	ohm	°	A	V	#
	0	1	1000078	2382.029	-1875.859	1	3031.98	-38.2206	3.738876E-006	-0.0395812	8
	1	1	794390.6	2748.455	-1877.907	1	3328.745	-34.3432	5.289165E-007	-0.0399833	8
	2	2	630984.4	3098.267	-1835.107	1	3600.954	-30.63831	2.200831E-006	-0.0401229	8
	3	2	501234.4	3423.797	-1742.672	1	3841.782	-26.97555	-1.424177E-006	-0.0396318	8
	4	2	398109.4	3742.097	-1620.87	1	4078.052	-23.4196	2.169103E-006	-0.0402278	8
	5	3	316265.6	3980.472	-1479.078	1	4246.391	-20.38424	-2.289676E-008	-0.0399051	8
	6	3	251203.1	4195.048	-1338.505	1	4403.41	-17.69621	4.206681E-006	-0.0406956	8
	7	3	199546.9	4363.651	-1214.472	1	4529.502	-15.55271	8.624344E-007	-0.0402242	8
	8	4	158578.1	4502.733	-1065.577	1	4627.101	-13.31417	3.629375E-007	-0.0400643	8
	9	4	125953.1	4648.191	-935.674	1	4741.431	-11.38145	-1.203328E-006	-0.037364	7
	10	4	100078.1	4724.367	-846.0007	1	4799.517	-10.15245	6.250137E-009	-0.0399487	7
	11	5	79453.13	4801.921	-789.3701	1	4866.369	-9.335152	-1.59451E-008	-0.0399799	7
	12	5	63140.62	4870.921	-751.3344	1	4928.526	-8.768704	9.030065E-008	-0.0400941	7
	13	5	50203.12	4932.959	-731.3535	1	4986.879	-8.43316	5.299986E-009	-0.0399464	7
	14	6	39890.62	4993.952	-733.235	1	5047.493	-8.35275	-8.314363E-009	-0.0399853	7
	15	6	31640.63	5056.371	-753.9225	1	5112.269	-8.480523	9.121172E-008	-0.0401004	7
	16	6	25171.88	5119.442	-795.6328	1	5180.899	-8.833894	-2.319294E-008	-0.0399706	7
	17	7	20015.62	5190.989	-855.5439	1	5261.02	-9.35897	6.2861E-009	-0.0399598	7
	18	7	15890.62	5267.032	-937.5522	1	5349.826	-10.09316	-1.712024E-008	-0.0399842	7
	19	7	12609.37	5355.362	-1042.767	1	5455.939	-11.01845	6.583005E-009	-0.0399591	7
	20	8	10078.13	5450.807	-1165.795	1	5574.08	-12.0723	7.862847E-009	-0.0399587	7
	21	8	8015.625	5559.684	-1317.611	1	5713.684	-13.33277	-4.306127E-008	-0.0398942	7
	22	8	6328.125	5686.736	-1505.828	1	5882.728	-14.83134	-1.573256E-008	-0.0398856	7
	23	8	5015.625	5823.761	-1725.099	1	6073.892	-16.50021	-2.033785E-008	-0.0399622	7
	24	9	3984.375	5977.841	-1982.913	1	6298.137	-18.35123	-2.047548E-008	-0.0399589	7
	25	9	3170.956	6145.891	-2284.979	1	6556.913	-20.39462	-1.638158E-010	-0.0399113	7
	26	9	2527.573	6330.536	-2642.907	1	6860.076	-22.65983	-1.61657E-008	-0.039978	7
	27	10	1976.103	6550.111	-3108.465	1	7250.277	-25.38746	5.499965E-008	-0.0401071	7
	28	10	1577.524	6777.074	-3628.724	1	7687.417	-28.16643	-3.919259E-008	-0.0399037	7
	29	10	1265.625	7017.202	-4235.83	1	8196.547	-31.11666	-1.929719E-008	-0.0399663	7
	30	11	998.264	7311.335	-5031.842	1	8875.531	-34.53671	9.445363E-009	-0.0399685	7
	31	11	796.875	7631.99	-5952.175	1	9678.62	-37.9506	1.461067E-010	-0.0399564	6
	32	11	627.7902	8021.658	-7141.384	1	10739.94	-41.67749	-2.565112E-009	-0.0399157	6
	33	12	505.5147	8421.981	-8453.237	1	11932.6	-45.10612	1.096874E-008	-0.0401727	6
	34	12	397.9953	8950.647	-10210.28	1	13578.07	-48.7612	2.938084E-009	-0.0399931	6
	35	12	315.5048	9555.5	-12296.73	1	15572.96	-52.15006	3.553588E-009	-0.0399944	6
	36	13	252.4038	10244.95	-14725.99	1	17939.17	-55.17347	2.838532E-009	-0.0399964	6
	37	13	198.6229	11134.61	-17899.61	1	21080.22	-58.11595	3.427083E-009	-0.0399922	6
	38	13	158.3615	12119	-21561.46	1	24733.92	-60.66106	3.75397E-009	-0.0399956	6
	39	14	125.558	13345.17	-26127.11	1	29338.02	-62.94304	3.227886E-009	-0.0399955	6
	40	14	100.4464	14775.04	-31507.64	1	34799.91	-64.87647	3.980564E-009	-0.039997	6
	41	14	79.00281	16587.26	-38576.17	1	41991.17	-66.73291	3.510047E-009	-0.0399958	6
	42	15	63.3446	19188.6	-46067.5	1	49904.07	-67.3867	2.865388E-009	-0.039995	6
	43	15	49.86702	22246.14	-56658.46	1	60869.31	-68.56325	2.452766E-009	-0.04	6
	44	15	39.72458	25568.39	-68900.92	1	73492.04	-69.64066	3.047355E-009	-0.0399936	6
	45	16	31.6723	30252.05	-83726.49	1	89024.23	-70.1342	2.550995E-009	-0.04	6
	46	16	24.93351	37464.85	-101903.7	1	108572.5	-69.81407	2.003535E-009	-0.040006	5
	47	16	19.86229	46154.57	-122902.2	1	131282.9	-69.41689	2.599259E-009	-0.0399981	5
	48	17	15.83615	59205.2	-147133.3	1	158598.5	-68.08056	7.103586E-010	-0.0400029	5
	49	17	12.40079	74502.67	-178053	1	193011.7	-67.29411	2.813275E-009	-0.0400024	5
	50	17	9.93114	92757.45	-208792.7	1	228469.6	-66.04652	1.587873E-009	-0.0400062	5
	51	18	7.944915	117354.7	-243353.5	1	270172.2	-64.25479	1.599566E-009	-0.0400047	5
	52	19	6.317385	148219.3	-283097.8	1	319551.8	-62.36515	1.900674E-009	-0.0399913	5
	53	19	5.008013	185446.2	-326038.2	1	375088.3	-60.36936	1.974412E-009	-0.0400095	5
	54	20	3.945707	230930.2	-373057.8	1	438749.3	-58.24167	2.464451E-009	-0.0400032	5
	55	22	3.158693	276371.8	-418798.1	1	501770.1	-56.57852	2.268562E-009	-0.039988	5
	56	23	2.504006	330482.9	-471535.9	1	575816.9	-54.97474	2.057201E-009	-0.0400013	5
	57	25	1.998082	386065.3	-525680.6	1	652216.6	-53.70606	2.195507E-009	-0.0399842	5
	58	26	1.584686	449614.9	-590611.1	1	742276.9	-52.71905	2.287211E-009	-0.0399568	5
	59	28	1.266892	514579.2	-662387.7	1	838778.4	-52.15797	2.220763E-009	-0.0399816	5
	60	31	0.999041	591638.5	-748850.3	1	954365	-51.68906	2.156865E-009	-0.0400119	5
