EXPLAIN
TAG	EISPOT
TITLE	LABEL	Potentiostatic EIS	Test &Identifier
DATE	LABEL	3/20/2020	Date
TIME	LABEL	14:44:08	Time
NOTES	NOTES	1	&Notes...
	
PSTAT	PSTAT	REF600-11020	Potentiostat
VDC	POTEN	0.00000E+000	T	DC &Voltage (V)
FREQINIT	QUANT	1.00000E+006	Initial Fre&q. (Hz)
FREQFINAL	QUANT	1.00000E+000	Final Fre&q. (Hz)
PTSPERDEC	QUANT	1.00000E+001	Points/&decade
VAC	QUANT	2.50000E+001	AC &Voltage (mV rms)
AREA	QUANT	4.00000E-004	&Area (cm^2)
CONDIT	TWOPARAM	F	5.00000E+000	0.00000E+000	Conditionin&g	Time(s)	E(V)
DELAY	TWOPARAM	T	3.00000E+000	0.00000E+000	Init. De&lay	Time(s)	Stab.(mV/s)
SPEED	SELECTOR	0	&Optimize for:
ZGUESS	QUANT	1.00000E+003	E&stimated Z (ohms)
OCVCURVE	TABLE	12
	Pt	T	Vf	Vm	Ach	Over
	#	s	V vs. Ref.	V	V	bits
	0	0.258333	-2.68497E-002	-2.68497E-002	5.81930E-004	...........
	1	0.516667	-2.68494E-002	-2.68368E-002	5.80497E-004	...........
	2	0.775	-2.68481E-002	-2.68358E-002	5.82297E-004	...........
	3	1.03333	-2.68454E-002	-2.68449E-002	5.79863E-004	...........
	4	1.29167	-2.68425E-002	-2.68428E-002	5.79197E-004	...........
	5	1.55	-2.68413E-002	-2.68529E-002	5.83197E-004	...........
	6	1.80833	-2.68428E-002	-2.68635E-002	5.81330E-004	...........
	7	2.06667	-2.68470E-002	-2.68725E-002	5.83663E-004	...........
	8	2.325	-2.68540E-002	-2.68964E-002	5.83030E-004	...........
	9	2.58333	-2.68641E-002	-2.69180E-002	5.76163E-004	...........
	10	2.84167	-2.68802E-002	-2.70498E-002	5.80797E-004	...........
	11	3.1	-2.69059E-002	-2.69204E-002	5.86296E-004	...........
EOC	QUANT	-0.0269059	Open Circuit (V)
PSTATMODEL	IQUANT	4	Pstat Model
PSTATSECTION	LABEL	REF600-11020	Pstat Section
PSTATSERIALNO	LABEL	11020	Pstat Serial Number
CTRLMODE	IQUANT	1	Control Mode
IESTAB	IQUANT	0	I/E Stability
CASPEED	IQUANT	1	Control Amp Speed
CONVENTION	IQUANT	1	Current Convention
ICHRANGE	IQUANT	2	Ich Range
ICHRANGEMODE	TOGGLE	F	Ich Auto Range
ICHOFFSETENABLE	TOGGLE	T	Ich Offset Enable
ICHOFFSET	QUANT	0	Ich Offset (V)
ICHFILTER	IQUANT	3	Ich Filter
VCHRANGE	IQUANT	2	Vch Range
VCHRANGEMODE	TOGGLE	F	Vch Auto Range
VCHOFFSETENABLE	TOGGLE	T	Vch Offset Enable
VCHOFFSET	QUANT	0	Vch Offset (V)
VCHFILTER	IQUANT	3	Vch Filter
ACHRANGE	IQUANT	2	Ach Range
ACHOFFSETENABLE	TOGGLE	F	Ach Offset Enable
ACHOFFSET	QUANT	0	Ach Offset (V)
ACHFILTER	IQUANT	3	Ach Filter
IERANGELOWERLIMIT	IQUANT	1	I/E Range Lower Limit
IERANGEMODE	TOGGLE	F	I/E AutoRange
IERANGE	IQUANT	7	I/E Range
POSFEEDENABLE	TOGGLE	F	Positive Feedback IR Comp
POSFEEDRESISTANCE	QUANT	0	Positive Feedback Resistance (ohm)
ACHSELECT	IQUANT	0	Ach Select
CABLEID	IQUANT	14	Cable ID
DCCALDATE	LABEL	2/27/2020	DC Calibration Date
ACCALDATE	LABEL	2/27/2020	AC Calibration Date
THERMOSELECT	IQUANT	1	Thermo Select
FRAMEWORKVERSION	QUANT	6.33	Framework Version
INSTRUMENTVERSION	LABEL	3.50	Instrument Version
ZCURVE	TABLE
	Pt	Time	Freq	Zreal	Zimag	Zsig	Zmod	Zphz	Idc	Vdc	IERange
	#	s	Hz	ohm	ohm	V	ohm	°	A	V	#
	0	1	1000078	1669.162	-2382.182	1	2908.762	-54.9816	3.889332E-007	-0.02479	8
	1	1	794390.6	2025.031	-2681.006	1	3359.843	-52.93534	6.315489E-008	-0.0250823	8
	2	1	630984.4	2442.234	-2985.133	1	3856.88	-50.71228	-7.723211E-008	-0.0251726	8
	3	2	501234.4	2917.62	-3284.821	1	4393.468	-48.3881	7.07121E-007	-0.0253276	8
	4	2	398109.4	3456.097	-3586.112	1	4980.442	-46.05769	5.901599E-007	-0.0253638	8
	5	2	316265.6	4069.286	-3866.897	1	5613.553	-43.53916	1.172295E-007	-0.0253516	8
	6	3	251203.1	4736.39	-4120.519	1	6277.902	-41.0223	5.398356E-007	-0.0254325	8
	7	3	199546.9	5485.412	-4302.277	1	6971.322	-38.10754	2.615785E-007	-0.0253759	8
	8	3	158578.1	6264.967	-4437.543	1	7677.343	-35.31035	5.253914E-007	-0.025428	8
	9	4	125953.1	7143.238	-4419.398	1	8399.817	-31.74437	-6.69057E-009	-0.0253973	7
	10	4	100078.1	7920.666	-4384.701	1	9053.316	-28.96792	-2.036555E-009	-0.025394	7
	11	4	79453.13	8715.215	-4282.182	1	9710.41	-26.16699	4.275388E-009	-0.0254135	7
	12	5	63140.62	9448.618	-4093.929	1	10297.41	-23.42628	-3.185783E-009	-0.0254062	7
	13	5	50203.12	10120.43	-3852.275	1	10828.81	-20.839	-1.053289E-009	-0.0254199	7
	14	5	39890.62	10717.8	-3581.885	1	11300.49	-18.47961	3.556535E-009	-0.0254016	7
	15	6	31640.63	11232.06	-3291.426	1	11704.38	-16.33262	5.405074E-009	-0.0254162	7
	16	6	25171.88	11666.11	-3017.669	1	12050.08	-14.5028	4.88719E-009	-0.0254212	7
	17	6	20015.62	12037.31	-2770.59	1	12352.04	-12.96185	5.606191E-009	-0.0254222	7
	18	6	15890.62	12351.47	-2555.079	1	12612.98	-11.6876	-3.108742E-009	-0.0254148	7
	19	7	12609.37	12686.39	-2264.219	1	12886.86	-10.11939	3.336143E-010	-0.0253895	6
	20	7	10078.13	12903.34	-2147.115	1	13080.76	-9.447449	1.276869E-009	-0.0253662	6
	21	7	8015.625	13108.42	-2072.448	1	13271.24	-8.984128	-8.056011E-010	-0.0253534	6
	22	8	6328.125	13300.69	-2043.361	1	13456.73	-8.733965	1.778852E-011	-0.0253533	6
	23	8	5015.625	13473.51	-2066.583	1	13631.08	-8.720132	-1.209707E-010	-0.0253757	6
	24	8	3984.375	13629.04	-2144.113	1	13796.67	-8.94046	2.222126E-009	-0.0253994	6
	25	9	3170.956	13784.08	-2285.107	1	13972.2	-9.412817	-3.191242E-010	-0.0253621	6
	26	9	2527.573	13930.48	-2493.184	1	14151.83	-10.14698	1.053058E-010	-0.0253796	6
	27	9	1976.103	14100.15	-2813.928	1	14378.19	-11.28609	-1.830255E-010	-0.0253792	6
	28	10	1577.524	14266.59	-3205.984	1	14622.38	-12.66509	-1.375207E-009	-0.0253609	6
	29	10	1265.625	14437.81	-3697.125	1	14903.66	-14.36323	-7.613715E-011	-0.0253675	6
	30	10	998.264	14653.41	-4364.981	1	15289.71	-16.58783	-2.219685E-010	-0.0253571	6
	31	11	796.875	14893.96	-5159.936	1	15762.45	-19.10839	-1.145953E-009	-0.0253626	6
	32	11	627.7902	15194.04	-6197.859	1	16409.52	-22.19123	-3.678221E-010	-0.0253796	6
	33	11	505.5147	15529.12	-7354.847	1	17182.76	-25.34301	-3.21014E-010	-0.0253813	6
	34	12	397.9953	15968.85	-8912.844	1	18287.79	-29.1676	5.126772E-010	-0.0253636	6
	35	12	315.5048	16497.05	-10762.4	1	19697.26	-33.11977	4.955631E-010	-0.0253625	6
	36	12	252.4038	17125.44	-12916.7	1	21450.45	-37.02508	4.801718E-010	-0.0253666	6
	37	13	198.6229	17962.4	-15724.06	1	23872.46	-41.19849	4.749086E-010	-0.0253641	6
	38	13	158.3615	18952.43	-18942.73	1	26795.93	-44.98534	2.531078E-010	-0.0253669	6
	39	13	125.558	20225.08	-22925.57	1	30571.81	-48.58106	2.079896E-010	-0.0253626	6
	40	13	100.4464	21767.87	-27517.43	1	35086.31	-51.65397	2.122549E-010	-0.0253659	6
	41	14	79.00281	23874.18	-33445.43	1	41092.25	-54.4798	3.631255E-010	-0.0253667	6
	42	14	63.3446	26278.1	-39972.2	1	47836.34	-56.67871	4.41828E-010	-0.0253701	6
	43	15	49.86702	29587.19	-48312.47	1	56652.42	-58.51615	1.621711E-010	-0.0253724	6
	44	15	39.72458	33528.59	-57710.46	1	66743.27	-59.84429	2.395247E-010	-0.0253651	6
	45	15	31.6723	38338.33	-68727.37	1	78697.39	-60.84582	3.003399E-010	-0.0253708	6
	46	16	24.93351	44618.71	-82490.11	1	93784.05	-61.59115	-5.964759E-011	-0.0253711	6
	47	16	19.86229	51982.77	-97916	1	110859.2	-62.03655	-1.366013E-009	-0.0253696	5
	48	16	15.83615	61176.09	-115815.6	1	130980	-62.1561	5.348348E-010	-0.0253708	5
	49	16	12.40079	73908.28	-138490.6	1	156978	-61.9125	-5.003888E-010	-0.0253703	5
	50	17	9.93114	88052.8	-162191.9	1	184552.2	-61.50279	-1.621855E-010	-0.0253774	5
	51	17	7.944915	105599.3	-188790.4	1	216316.9	-60.77967	5.77506E-010	-0.0253753	5
	52	17	6.317385	127576.1	-219811.3	1	254150.9	-59.86959	-3.542294E-010	-0.0253561	5
	53	18	5.008013	154611.7	-254456.7	1	297746.5	-58.7165	-1.543599E-010	-0.0253643	5
	54	19	3.945707	186674.6	-293411.7	1	347761.2	-57.53463	3.170973E-010	-0.0253703	5
	55	20	3.158693	221902.5	-332892.1	1	400072.3	-56.31297	-1.064749E-010	-0.0253602	5
	56	21	2.504006	262703.8	-378489.3	1	460724.9	-55.23605	-1.858471E-010	-0.0253717	5
	57	22	1.998082	307229.9	-426087.5	1	525300.6	-54.20655	7.106688E-011	-0.025328	5
	58	24	1.584686	356850.9	-483112.7	1	600616.8	-53.54859	5.878827E-011	-0.0253346	5
	59	26	1.266892	409555.3	-543134.8	1	680243.3	-52.98158	4.969337E-012	-0.0253702	5
	60	28	0.999041	472695.6	-616508.9	1	776868.3	-52.52155	-5.829286E-011	-0.0253941	5
