EXPLAIN
TAG	EISPOT
TITLE	LABEL	Potentiostatic EIS	Test &Identifier
DATE	LABEL	1/28/2020	Date
TIME	LABEL	12:28:19	Time
NOTES	NOTES	6	&Notes...
	
	
	
	
	
	
PSTAT	PSTAT	REF600-11020	Potentiostat
VDC	POTEN	0.00000E+000	T	DC &Voltage (V)
FREQINIT	QUANT	1.00000E+006	Initial Fre&q. (Hz)
FREQFINAL	QUANT	1.00000E+000	Final Fre&q. (Hz)
PTSPERDEC	QUANT	1.00000E+001	Points/&decade
VAC	QUANT	2.50000E+001	AC &Voltage (mV rms)
AREA	QUANT	1.60000E-004	&Area (cm^2)
CONDIT	TWOPARAM	F	5.00000E+000	0.00000E+000	Conditionin&g	Time(s)	E(V)
DELAY	TWOPARAM	F	5.00000E+000	0.00000E+000	Init. De&lay	Time(s)	Stab.(mV/s)
SPEED	SELECTOR	0	&Optimize for:
ZGUESS	QUANT	1.00000E+003	E&stimated Z (ohms)
OCVCURVE	TABLE	39
	Pt	T	Vf	Vm	Ach	Over
	#	s	V vs. Ref.	V	V	bits
	0	0.258333	3.02133E-002	3.02133E-002	5.58138E-004	...........
	1	0.516667	3.02162E-002	3.03628E-002	5.55804E-004	...........
	2	0.775	3.02357E-002	3.06069E-002	5.59371E-004	...........
	3	1.03333	3.03143E-002	3.17290E-002	5.58771E-004	...........
	4	1.29167	3.05211E-002	3.17371E-002	5.63038E-004	...........
	5	1.55	3.08663E-002	3.15195E-002	5.58771E-004	...........
	6	1.80833	3.12252E-002	3.12124E-002	5.57871E-004	...........
	7	2.06667	3.14385E-002	3.13357E-002	5.55204E-004	...........
	8	2.325	3.14709E-002	3.12353E-002	5.57804E-004	...........
	9	2.58333	3.14049E-002	3.12344E-002	5.59904E-004	...........
	10	2.84167	3.13273E-002	3.12475E-002	5.58671E-004	...........
	11	3.1	3.12748E-002	3.12623E-002	5.54238E-004	...........
	12	3.35833	3.12533E-002	3.13792E-002	5.55438E-004	...........
	13	3.61667	3.12616E-002	3.13942E-002	5.55605E-004	...........
	14	3.875	3.12934E-002	3.13713E-002	5.57971E-004	...........
	15	4.13333	3.13326E-002	3.13794E-002	5.52105E-004	...........
	16	4.39167	3.13622E-002	3.13966E-002	5.61738E-004	...........
	17	4.65	3.13784E-002	3.14133E-002	5.55271E-004	...........
	18	4.90833	3.13876E-002	3.13855E-002	5.56004E-004	...........
	19	5.16667	3.13932E-002	3.13672E-002	5.52838E-004	...........
	20	5.425	3.13935E-002	3.13838E-002	5.66538E-004	...........
	21	5.68333	3.13889E-002	3.13902E-002	5.54038E-004	...........
	22	5.94167	3.13846E-002	3.13924E-002	5.57871E-004	...........
	23	6.2	3.13844E-002	3.14069E-002	5.57738E-004	...........
	24	6.45833	3.13889E-002	3.14361E-002	5.55238E-004	...........
	25	6.71667	3.13974E-002	3.14048E-002	5.61004E-004	...........
	26	6.975	3.14068E-002	3.14111E-002	5.59004E-004	...........
	27	7.23333	3.14130E-002	3.14260E-002	5.64071E-004	...........
	28	7.49167	3.14156E-002	3.14259E-002	5.57904E-004	...........
	29	7.75	3.14179E-002	3.14279E-002	5.65104E-004	...........
	30	8.00833	3.14211E-002	3.14317E-002	5.55338E-004	...........
	31	8.26667	3.14247E-002	3.14305E-002	5.60571E-004	...........
	32	8.525	3.14277E-002	3.14339E-002	5.60204E-004	...........
	33	8.78333	3.14299E-002	3.14302E-002	5.55804E-004	...........
	34	9.04167	3.14312E-002	3.14308E-002	5.54438E-004	...........
	35	9.3	3.14316E-002	3.14309E-002	5.56471E-004	...........
	36	9.5583	3.14314E-002	3.14307E-002	5.61371E-004	...........
	37	9.8167	3.14311E-002	3.14282E-002	5.54971E-004	...........
	38	10.075	3.14309E-002	3.14452E-002	5.55738E-004	...........
EOC	QUANT	0.0314309	Open Circuit (V)
PSTATMODEL	IQUANT	4	Pstat Model
PSTATSECTION	LABEL	REF600-11020	Pstat Section
PSTATSERIALNO	LABEL	11020	Pstat Serial Number
CTRLMODE	IQUANT	1	Control Mode
IESTAB	IQUANT	0	I/E Stability
CASPEED	IQUANT	1	Control Amp Speed
CONVENTION	IQUANT	1	Current Convention
ICHRANGE	IQUANT	2	Ich Range
ICHRANGEMODE	TOGGLE	F	Ich Auto Range
ICHOFFSETENABLE	TOGGLE	T	Ich Offset Enable
ICHOFFSET	QUANT	0	Ich Offset (V)
ICHFILTER	IQUANT	3	Ich Filter
VCHRANGE	IQUANT	2	Vch Range
VCHRANGEMODE	TOGGLE	F	Vch Auto Range
VCHOFFSETENABLE	TOGGLE	T	Vch Offset Enable
VCHOFFSET	QUANT	0	Vch Offset (V)
VCHFILTER	IQUANT	3	Vch Filter
ACHRANGE	IQUANT	2	Ach Range
ACHOFFSETENABLE	TOGGLE	F	Ach Offset Enable
ACHOFFSET	QUANT	0	Ach Offset (V)
ACHFILTER	IQUANT	3	Ach Filter
IERANGELOWERLIMIT	IQUANT	1	I/E Range Lower Limit
IERANGEMODE	TOGGLE	F	I/E AutoRange
IERANGE	IQUANT	7	I/E Range
POSFEEDENABLE	TOGGLE	F	Positive Feedback IR Comp
POSFEEDRESISTANCE	QUANT	0	Positive Feedback Resistance (ohm)
ACHSELECT	IQUANT	0	Ach Select
CABLEID	IQUANT	14	Cable ID
DCCALDATE	LABEL	1/27/2020	DC Calibration Date
ACCALDATE	LABEL	1/27/2020	AC Calibration Date
THERMOSELECT	IQUANT	1	Thermo Select
FRAMEWORKVERSION	QUANT	6.33	Framework Version
INSTRUMENTVERSION	LABEL	3.50	Instrument Version
ZCURVE	TABLE
	Pt	Time	Freq	Zreal	Zimag	Zsig	Zmod	Zphz	Idc	Vdc	IERange
	#	s	Hz	ohm	ohm	V	ohm	°	A	V	#
	0	2	1000078	2344.031	-1553.511	1	2812.095	-33.5345	-5.990491E-007	0.0336988	8
	1	2	794390.6	2632.476	-1514.434	1	3037.012	-29.91133	-2.527449E-006	0.0338765	8
	2	2	630984.4	2900.039	-1445.234	1	3240.205	-26.48936	1.208097E-006	0.0330875	8
	3	2	501234.4	3131.146	-1363.211	1	3415.029	-23.52692	-2.790633E-007	0.0333483	8
	4	3	398109.4	3354.316	-1247.454	1	3578.768	-20.39993	4.160922E-007	0.033032	8
	5	3	316265.6	3532.182	-1141.287	1	3711.987	-17.90621	-2.267116E-006	0.0336074	8
	6	3	251203.1	3700.021	-1039.904	1	3843.378	-15.69821	1.760777E-006	0.0326564	8
	7	4	199546.9	3815.292	-940.1378	1	3929.417	-13.84265	-6.509334E-007	0.0331761	8
	8	4	158578.1	3921.304	-869.131	1	4016.468	-12.4972	-1.222357E-007	0.0330723	8
	9	4	125953.1	4045.574	-752.7833	1	4115.015	-10.5408	2.534813E-008	0.0328292	7
	10	5	100078.1	4129.903	-694.3785	1	4187.871	-9.54412	-2.719043E-008	0.033086	7
	11	5	79453.13	4204.462	-653.7258	1	4254.981	-8.837801	-2.135215E-008	0.0330951	7
	12	5	63140.62	4274.194	-623.4451	1	4319.424	-8.298787	6.500495E-008	0.0329159	7
	13	6	50203.12	4339.401	-601.9482	1	4380.953	-7.897493	-2.033637E-008	0.0330165	7
	14	6	39890.62	4404.27	-590.2788	1	4443.649	-7.633533	1.000211E-008	0.0329502	7
	15	6	31640.63	4468.023	-587.1196	1	4506.433	-7.486049	1.014552E-007	0.0328912	7
	16	7	25171.88	4528.322	-594.1066	1	4567.129	-7.474399	-3.739341E-008	0.0330609	7
	17	7	20015.62	4591.762	-607.8812	1	4631.825	-7.54126	2.038524E-009	0.0330465	7
	18	7	15890.62	4651.351	-637.231	1	4694.798	-7.800908	-1.028187E-008	0.0330502	7
	19	8	12609.37	4713.126	-676.5817	1	4761.441	-8.16915	-3.90233E-008	0.0330707	7
	20	8	10078.13	4773.114	-728.9399	1	4828.454	-8.683002	-2.359306E-008	0.0330189	7
	21	8	8015.625	4834.004	-800.0508	1	4899.763	-9.397539	-2.35587E-008	0.0330201	7
	22	9	6328.125	4901.776	-893.1955	1	4982.49	-10.32706	4.090634E-008	0.0328965	7
	23	9	5015.625	4970.924	-1010.351	1	5072.563	-11.48898	-1.384956E-008	0.0330694	7
	24	9	3984.375	5043.874	-1156.239	1	5174.703	-12.9112	-2.569336E-008	0.0331127	7
	25	9	3170.956	5120.246	-1334.763	1	5291.362	-14.61088	-8.570723E-009	0.0330554	7
	26	10	2527.573	5200.448	-1553.254	1	5427.455	-16.62968	2.90813E-008	0.0329841	7
	27	10	1976.103	5296.41	-1852.506	1	5611.037	-19.27811	-2.986894E-008	0.0330211	7
	28	10	1577.524	5384.431	-2209.448	1	5820.116	-22.31031	7.468906E-008	0.032881	7
	29	11	1265.625	5499.429	-2602.704	1	6084.225	-25.3267	7.642213E-008	0.032878	7
	30	11	998.264	5630.681	-3150.54	1	6452.168	-29.22836	-4.168601E-008	0.0330999	7
	31	11	796.875	5779.552	-3794.016	1	6913.594	-33.2831	-2.310479E-008	0.0331001	7
	32	12	627.7902	5963.673	-4632.311	1	7551.404	-37.83844	-2.174772E-008	0.0330204	7
	33	12	505.5147	6170.799	-5570.67	1	8313.311	-42.07405	1.136012E-009	0.0330367	7
	34	12	397.9953	6448.318	-6830.24	1	9393.241	-46.6475	8.44448E-009	0.0330179	7
	35	13	315.5048	6787.757	-8343.297	1	10755.66	-50.86964	9.705895E-010	0.0330089	6
	36	13	252.4038	7193.098	-10117.74	1	12414.08	-54.58949	3.108118E-010	0.0330112	6
	37	13	198.6229	7739.795	-12451.57	1	14661.03	-58.13524	9.892275E-010	0.0330107	6
	38	14	158.3615	8396.646	-15147.34	1	17318.94	-60.99902	1.185149E-009	0.0330116	6
	39	14	125.558	9253.197	-18517.55	1	20700.76	-63.44876	9.398128E-010	0.0330127	6
	40	14	100.4464	10285.7	-22445.23	1	24689.75	-65.38001	1.691018E-009	0.0330075	6
	41	15	79.00281	11725.23	-27524.56	1	29917.93	-66.9264	1.273446E-009	0.0330031	6
	42	15	63.3446	13719.98	-33130.2	1	35858.73	-67.50443	3.019165E-010	0.0330023	6
	43	15	49.86702	16101.36	-40674.67	1	43745.66	-68.40351	4.174751E-010	0.0329984	6
	44	16	39.72458	18925.56	-49203.29	1	52717.55	-68.96125	6.966139E-010	0.033004	6
	45	16	31.6723	22908.99	-59306.11	1	63577.01	-68.87926	4.593874E-010	0.0329984	6
	46	16	24.93351	28281.83	-72006.57	1	77361.54	-68.55672	1.146046E-009	0.0329941	6
	47	17	19.86229	35157.45	-86172.93	1	93068.9	-67.80517	5.996474E-010	0.0330029	6
	48	17	15.83615	44095.73	-101605.2	1	110761.3	-66.5396	1.511276E-009	0.0329965	5
	49	17	12.40079	54836.65	-121753.2	1	133532.4	-65.75359	-1.208953E-009	0.0329982	5
	50	18	9.93114	69148.38	-141969.9	1	157914.4	-64.03098	-7.22692E-010	0.0329983	5
	51	18	7.944915	85483.12	-164412.8	1	185307.6	-62.52873	-1.310486E-010	0.0329933	5
	52	19	6.317385	104772.3	-188972	1	216073.3	-60.99458	-5.323144E-011	0.0329976	5
	53	20	5.008013	127307.2	-216425	1	251091.5	-59.53479	-1.71047E-010	0.0329876	5
	54	21	3.945707	153075	-247882.8	1	291338	-58.30344	2.294755E-010	0.0329956	5
	55	22	3.158693	179275.8	-280615.4	1	332993.7	-57.42685	8.056759E-011	0.0330127	5
	56	24	2.504006	209402	-319778.8	1	382240.3	-56.78186	-1.430876E-010	0.0330033	5
	57	25	1.998082	240625.4	-363077.5	1	435575.3	-56.46604	1.118974E-010	0.0330185	5
	58	26	1.584686	276930.8	-416912.4	1	500506.4	-56.40621	2.021624E-010	0.0330423	5
	59	28	1.266892	314230.4	-477828	1	571891.9	-56.67018	1.410629E-010	0.0330136	5
	60	31	0.999041	359743.4	-553401.4	1	660051.8	-56.97377	1.090373E-010	0.0329878	5
