EXPLAIN
TAG	EISPOT
TITLE	LABEL	Potentiostatic EIS	Test &Identifier
DATE	LABEL	2/18/2020	Date
TIME	LABEL	15:37:38	Time
NOTES	NOTES	1	&Notes...
	
PSTAT	PSTAT	REF600-11020	Potentiostat
VDC	POTEN	0.00000E+000	T	DC &Voltage (V)
FREQINIT	QUANT	1.00000E+006	Initial Fre&q. (Hz)
FREQFINAL	QUANT	1.00000E+000	Final Fre&q. (Hz)
PTSPERDEC	QUANT	1.00000E+001	Points/&decade
VAC	QUANT	2.50000E+001	AC &Voltage (mV rms)
AREA	QUANT	1.60000E-004	&Area (cm^2)
CONDIT	TWOPARAM	F	1.50000E+001	0.00000E+000	Conditionin&g	Time(s)	E(V)
DELAY	TWOPARAM	F	1.00000E+002	0.00000E+000	Init. De&lay	Time(s)	Stab.(mV/s)
SPEED	SELECTOR	1	&Optimize for:
ZGUESS	QUANT	1.00000E+003	E&stimated Z (ohms)
OCVCURVE	TABLE	39
	Pt	T	Vf	Vm	Ach	Over
	#	s	V vs. Ref.	V	V	bits
	0	0.258333	-1.69267E-002	-1.69267E-002	5.46671E-004	...........
	1	0.516667	-1.69283E-002	-1.70074E-002	5.42571E-004	...........
	2	0.775	-1.69544E-002	-1.79568E-002	5.43171E-004	...........
	3	1.03333	-1.70582E-002	-1.75284E-002	5.36571E-004	...........
	4	1.29167	-1.72443E-002	-1.73659E-002	5.43205E-004	...........
	5	1.55	-1.74100E-002	-1.70750E-002	5.40905E-004	...........
	6	1.80833	-1.74439E-002	-1.68426E-002	5.39538E-004	...........
	7	2.06667	-1.73298E-002	-1.65673E-002	5.41338E-004	...........
	8	2.325	-1.71247E-002	-1.66076E-002	5.48538E-004	...........
	9	2.58333	-1.69094E-002	-1.68280E-002	5.51871E-004	...........
	10	2.84167	-1.67645E-002	-1.69729E-002	5.43838E-004	...........
	11	3.1	-1.67313E-002	-1.69040E-002	5.45038E-004	...........
	12	3.35833	-1.67809E-002	-1.68602E-002	5.43371E-004	...........
	13	3.61667	-1.68456E-002	-1.68997E-002	5.42838E-004	...........
	14	3.875	-1.68871E-002	-1.71103E-002	5.39171E-004	...........
	15	4.13333	-1.69208E-002	-1.71560E-002	5.40505E-004	...........
	16	4.39167	-1.69723E-002	-1.70701E-002	5.40438E-004	...........
	17	4.65	-1.70331E-002	-1.70625E-002	5.40938E-004	...........
	18	4.90833	-1.70750E-002	-1.71140E-002	5.41738E-004	...........
	19	5.16667	-1.70912E-002	-1.71199E-002	5.43938E-004	...........
	20	5.425	-1.70969E-002	-1.71243E-002	5.46338E-004	...........
	21	5.68333	-1.71048E-002	-1.71617E-002	5.42005E-004	...........
	22	5.94167	-1.71162E-002	-1.71122E-002	5.45771E-004	...........
	23	6.2	-1.71257E-002	-1.70791E-002	5.50305E-004	...........
	24	6.45833	-1.71262E-002	-1.71117E-002	5.48538E-004	...........
	25	6.71667	-1.71179E-002	-1.71033E-002	5.36838E-004	...........
	26	6.975	-1.71091E-002	-1.71241E-002	5.34171E-004	...........
	27	7.23333	-1.71066E-002	-1.71357E-002	5.45605E-004	...........
	28	7.49167	-1.71114E-002	-1.71449E-002	5.50238E-004	...........
	29	7.75	-1.71208E-002	-1.71461E-002	5.37905E-004	...........
	30	8.00833	-1.71317E-002	-1.71782E-002	5.40571E-004	...........
	31	8.26667	-1.71430E-002	-1.71806E-002	5.46271E-004	...........
	32	8.525	-1.71543E-002	-1.71431E-002	5.53571E-004	...........
	33	8.78333	-1.71668E-002	-1.73933E-002	5.45005E-004	...........
	34	9.04167	-1.71955E-002	-1.75922E-002	5.44605E-004	...........
	35	9.3	-1.72608E-002	-1.74047E-002	5.49971E-004	...........
	36	9.5583	-1.73481E-002	-1.73719E-002	5.48105E-004	...........
	37	9.8167	-1.74033E-002	-1.70022E-002	5.39671E-004	...........
	38	10.075	-1.73789E-002	-1.69179E-002	5.42738E-004	...........
EOC	QUANT	-0.0173789	Open Circuit (V)
PSTATMODEL	IQUANT	4	Pstat Model
PSTATSECTION	LABEL	REF600-11020	Pstat Section
PSTATSERIALNO	LABEL	11020	Pstat Serial Number
CTRLMODE	IQUANT	1	Control Mode
IESTAB	IQUANT	0	I/E Stability
CASPEED	IQUANT	1	Control Amp Speed
CONVENTION	IQUANT	1	Current Convention
ICHRANGE	IQUANT	2	Ich Range
ICHRANGEMODE	TOGGLE	F	Ich Auto Range
ICHOFFSETENABLE	TOGGLE	T	Ich Offset Enable
ICHOFFSET	QUANT	0	Ich Offset (V)
ICHFILTER	IQUANT	3	Ich Filter
VCHRANGE	IQUANT	2	Vch Range
VCHRANGEMODE	TOGGLE	F	Vch Auto Range
VCHOFFSETENABLE	TOGGLE	T	Vch Offset Enable
VCHOFFSET	QUANT	0	Vch Offset (V)
VCHFILTER	IQUANT	3	Vch Filter
ACHRANGE	IQUANT	2	Ach Range
ACHOFFSETENABLE	TOGGLE	F	Ach Offset Enable
ACHOFFSET	QUANT	0	Ach Offset (V)
ACHFILTER	IQUANT	3	Ach Filter
IERANGELOWERLIMIT	IQUANT	1	I/E Range Lower Limit
IERANGEMODE	TOGGLE	F	I/E AutoRange
IERANGE	IQUANT	7	I/E Range
POSFEEDENABLE	TOGGLE	F	Positive Feedback IR Comp
POSFEEDRESISTANCE	QUANT	0	Positive Feedback Resistance (ohm)
ACHSELECT	IQUANT	0	Ach Select
CABLEID	IQUANT	14	Cable ID
DCCALDATE	LABEL	1/27/2020	DC Calibration Date
ACCALDATE	LABEL	1/27/2020	AC Calibration Date
THERMOSELECT	IQUANT	1	Thermo Select
FRAMEWORKVERSION	QUANT	6.33	Framework Version
INSTRUMENTVERSION	LABEL	3.50	Instrument Version
ZCURVE	TABLE
	Pt	Time	Freq	Zreal	Zimag	Zsig	Zmod	Zphz	Idc	Vdc	IERange
	#	s	Hz	ohm	ohm	V	ohm	°	A	V	#
	0	1	1000078	1269.778	-6098.189	1	6228.985	-78.23782	1.732673E-006	-0.0155552	8
	1	3	794390.6	1629.904	-7551.548	1	7725.443	-77.82029	1.626983E-006	-0.016057	8
	2	5	630984.4	2186.504	-9316.8	1	9569.93	-76.7926	3.459318E-006	-0.0165485	8
	3	7	501234.4	2993.824	-11294.46	1	11684.52	-75.15402	3.938357E-006	-0.0164674	8
	4	8	398109.4	3894.537	-13814.88	1	14353.34	-74.25639	-2.457108E-006	-0.0154315	8
	5	10	316265.6	5425.748	-16514.92	1	17383.37	-71.81278	-2.761037E-007	-0.0159847	8
	6	12	251203.1	7271.209	-19638.94	1	20941.79	-69.6832	1.191244E-006	-0.0162152	8
	7	13	199546.9	10478.95	-23695.34	1	25909.02	-66.14323	-4.926836E-007	-0.0159849	8
	8	15	158578.1	13080.05	-28113.45	1	31007.32	-65.04934	-2.493244E-006	-0.0154912	8
	9	16	125953.1	18280.34	-32170.85	1	37001.82	-60.39361	-6.881436E-008	-0.0156827	7
	10	18	100078.1	23448.41	-36269.37	1	43189.06	-57.11705	-2.885761E-008	-0.0159768	7
	11	19	79453.13	29928.82	-40233.31	1	50144.33	-53.35512	5.337391E-008	-0.0160157	7
	12	21	63140.62	37314.09	-43460.97	1	57281.73	-49.35175	-7.351558E-009	-0.0159238	7
	13	22	50203.12	45440.17	-45886.25	1	64578.3	-45.27985	8.009161E-008	-0.0161872	7
	14	23	39890.62	53730.66	-47373.26	1	71632.46	-41.40199	-3.00473E-008	-0.0160165	7
	15	25	31640.63	62234.25	-48254.29	1	78750.09	-37.78876	-3.775304E-008	-0.0160024	7
	16	26	25171.88	70451.57	-48364.77	1	85455.11	-34.46947	-7.511001E-009	-0.0159186	7
	17	28	20015.62	78561.69	-48169.14	1	92153.16	-31.51403	1.220397E-007	-0.0161994	7
	18	29	15890.62	85753.67	-47053.61	1	97814.8	-28.75387	8.171597E-008	-0.0161855	7
	19	30	12609.37	93381.69	-45724.09	1	103975.1	-26.08856	4.430955E-009	-0.0162182	6
	20	32	10078.13	99776.8	-45003.33	1	109456.4	-24.27728	4.404142E-009	-0.0162169	6
	21	33	8015.625	106553.1	-43954.68	1	115263.1	-22.41685	3.550735E-009	-0.0159798	6
	22	34	6328.125	112797.2	-43260.71	1	120808.5	-20.98314	7.120471E-009	-0.0160299	6
	23	36	5015.625	119091.6	-42722	1	126522.6	-19.73455	-1.786475E-009	-0.0160767	6
	24	37	3984.375	124933.9	-41928.53	1	131782	-18.55204	-7.861669E-009	-0.0159508	6
	25	38	3170.956	130776.3	-41450.26	1	137188.1	-17.58629	4.356465E-009	-0.0162249	6
	26	40	2527.573	136412.4	-41190.59	1	142495.7	-16.80202	6.31612E-009	-0.0160145	6
	27	42	1976.103	142263.3	-40700.7	1	147970.9	-15.96552	-2.110343E-009	-0.0161301	6
	28	43	1577.524	147457.7	-40953.65	1	153039.1	-15.52165	-5.907263E-009	-0.0159295	6
	29	45	1265.625	152702.7	-39823.11	1	157810	-14.61652	-9.564547E-010	-0.0159848	5
	30	46	998.264	157673.1	-41097.98	1	162941.3	-14.60926	1.917378E-009	-0.0162296	5
	31	47	796.875	162503	-42394.34	1	167942	-14.62162	-5.630026E-010	-0.0160671	5
	32	49	627.7902	167261.8	-44513.05	1	173083.5	-14.9026	4.22027E-010	-0.0160117	5
	33	50	505.5147	171779.4	-47071.52	1	178112	-15.3242	9.555228E-010	-0.0160947	5
	34	51	397.9953	176863.8	-50894.75	1	184040.9	-16.05383	3.409921E-010	-0.0160309	5
	35	53	315.5048	181793.5	-55387.68	1	190043.9	-16.94459	2.521075E-010	-0.0160377	5
	36	54	252.4038	186742.5	-61190.5	1	196512.2	-18.14258	3.6444E-010	-0.0160341	5
	37	55	198.6229	192597.1	-68628	1	204458.9	-19.61247	2.13477E-010	-0.0160339	5
	38	57	158.3615	198586.2	-77532.17	1	213184.7	-21.3267	3.440484E-010	-0.0160389	5
	39	58	125.558	205196.9	-89135.27	1	223720.5	-23.4796	2.211273E-010	-0.0160357	5
	40	60	100.4464	211324.4	-101934.8	1	234624.6	-25.75087	6.09215E-010	-0.0160403	5
	41	61	79.00281	218662	-119670.3	1	249267	-28.69119	3.785303E-010	-0.0160384	5
	42	62	63.3446	227121.6	-147610.8	1	270874.8	-33.02064	2.099209E-010	-0.0160352	5
	43	64	49.86702	240208.2	-163486.6	1	290564.7	-34.23935	2.16097E-010	-0.0160385	5
	44	65	39.72458	253112.1	-192602.8	1	318059.1	-37.26891	5.687267E-011	-0.0160338	5
	45	67	31.6723	270801.8	-227736.9	1	353832.9	-40.06291	-1.160324E-010	-0.0160346	5
	46	68	24.93351	287687.6	-269376.3	1	394116.5	-43.11731	1.97296E-010	-0.0160412	5
	47	70	19.86229	308953.8	-317642.5	1	443113.1	-45.79444	6.767393E-011	-0.0160261	5
	48	71	15.83615	331684.9	-374496.3	1	500262.3	-48.46923	2.732673E-010	-0.0160368	5
	49	72	12.40079	371273.7	-455238.5	1	587440.4	-50.80074	1.966238E-010	-0.0160276	5
	50	74	9.93114	403476.5	-531327.8	1	667160	-52.78791	2.931305E-011	-0.0160255	5
	51	75	7.944915	447091.7	-626124	1	769364.9	-54.47079	1.300786E-009	-0.0160253	6
	52	77	6.317385	508366.8	-746465.4	1	903132	-55.74389	1.593787E-010	-0.0160291	5
	53	80	5.008013	580604.5	-888474.9	1	1061362	-56.83601	4.017333E-011	-0.0160909	4
	54	82	3.945707	676112.8	-1053798	1	1252046	-57.31593	1.11585E-010	-0.0160788	4
	55	85	3.158693	786188.7	-1234926	1	1463945	-57.51803	2.590121E-011	-0.016095	4
	56	88	2.504006	930752.8	-1449515	1	1722613	-57.29494	1.382659E-010	-0.0160879	4
	57	91	1.998082	1102776	-1680951	1	2010401	-56.73341	4.494232E-011	-0.0160458	4
	58	94	1.584686	1316713	-1949513	1	2352516	-55.96468	8.516092E-011	-0.0160761	4
	59	98	1.266892	1575992	-2233731	1	2733734	-54.79541	5.633309E-011	-0.0160403	4
	60	102	0.999041	1896248	-2547127	1	3175470	-53.3336	7.35629E-011	-0.0161137	4
