EXPLAIN
TAG	EISPOT
TITLE	LABEL	Potentiostatic EIS	Test &Identifier
DATE	LABEL	6/19/2020	Date
TIME	LABEL	16:05:25	Time
NOTES	NOTES	1	&Notes...
	
PSTAT	PSTAT	REF600-10037	Potentiostat
VDC	POTEN	0.00000E+000	T	DC &Voltage (V)
FREQINIT	QUANT	1.00000E+006	Initial Fre&q. (Hz)
FREQFINAL	QUANT	1.00000E+000	Final Fre&q. (Hz)
PTSPERDEC	QUANT	1.00000E+001	Points/&decade
VAC	QUANT	1.00000E+002	AC &Voltage (mV rms)
AREA	QUANT	2.50000E-001	&Area (cm^2)
CONDIT	TWOPARAM	F	5.00000E+000	0.00000E+000	Conditionin&g	Time(s)	E(V)
DELAY	TWOPARAM	F	5.00000E+000	0.00000E+000	Init. De&lay	Time(s)	Stab.(mV/s)
SPEED	SELECTOR	0	&Optimize for:
ZGUESS	QUANT	1.00000E+003	E&stimated Z (ohms)
OCVCURVE	TABLE	39
	Pt	T	Vf	Vm	Ach	Over
	#	s	V vs. Ref.	V	V	bits
	0	0.258333	6.99597E-002	6.99597E-002	5.34621E-004	...........
	1	0.516667	6.99599E-002	6.99726E-002	5.43854E-004	...........
	2	0.775	6.99614E-002	6.99842E-002	5.33387E-004	...........
	3	1.03333	6.99657E-002	6.99951E-002	5.30687E-004	...........
	4	1.29167	6.99730E-002	7.00030E-002	5.39121E-004	...........
	5	1.55	6.99825E-002	7.00122E-002	5.32687E-004	...........
	6	1.80833	6.99927E-002	7.00287E-002	5.33354E-004	...........
	7	2.06667	7.00031E-002	7.00390E-002	5.31087E-004	...........
	8	2.325	7.00142E-002	7.00475E-002	5.30054E-004	...........
	9	2.58333	7.00255E-002	7.00556E-002	5.31487E-004	...........
	10	2.84167	7.00364E-002	7.00686E-002	5.25087E-004	...........
	11	3.1	7.00467E-002	7.00786E-002	5.21054E-004	...........
	12	3.35833	7.00568E-002	7.00874E-002	5.31054E-004	...........
	13	3.61667	7.00669E-002	7.00963E-002	5.32421E-004	...........
	14	3.875	7.00769E-002	7.01048E-002	5.31321E-004	...........
	15	4.13333	7.00864E-002	7.01163E-002	5.37421E-004	...........
	16	4.39167	7.00959E-002	7.01296E-002	5.34454E-004	...........
	17	4.65	7.01057E-002	7.01371E-002	5.30387E-004	...........
	18	4.90833	7.01161E-002	7.01475E-002	5.26887E-004	...........
	19	5.16667	7.01266E-002	7.01597E-002	5.30421E-004	...........
	20	5.425	7.01370E-002	7.01689E-002	5.32087E-004	...........
	21	5.68333	7.01474E-002	7.01753E-002	5.28421E-004	...........
	22	5.94167	7.01574E-002	7.01834E-002	5.27754E-004	...........
	23	6.2	7.01667E-002	7.01937E-002	5.24621E-004	...........
	24	6.45833	7.01753E-002	7.02021E-002	5.27887E-004	...........
	25	6.71667	7.01840E-002	7.02147E-002	5.32721E-004	...........
	26	6.975	7.01930E-002	7.02230E-002	5.29654E-004	...........
	27	7.23333	7.02026E-002	7.02336E-002	5.30254E-004	...........
	28	7.49167	7.02124E-002	7.02345E-002	5.30387E-004	...........
	29	7.75	7.02216E-002	7.02430E-002	5.29921E-004	...........
	30	8.00833	7.02294E-002	7.02509E-002	5.28287E-004	...........
	31	8.26667	7.02364E-002	7.02620E-002	5.29021E-004	...........
	32	8.525	7.02436E-002	7.02719E-002	5.29621E-004	...........
	33	8.78333	7.02520E-002	7.02860E-002	5.35787E-004	...........
	34	9.04167	7.02615E-002	7.02927E-002	5.29687E-004	...........
	35	9.3	7.02720E-002	7.03050E-002	5.30521E-004	...........
	36	9.5583	7.02827E-002	7.03131E-002	5.32921E-004	...........
	37	9.8167	7.02930E-002	7.03186E-002	5.28887E-004	...........
	38	10.075	7.03024E-002	7.03202E-002	5.28921E-004	...........
EOC	QUANT	0.0703024	Open Circuit (V)
PSTATMODEL	IQUANT	4	Pstat Model
PSTATSECTION	LABEL	REF600-10037	Pstat Section
PSTATSERIALNO	LABEL	10037	Pstat Serial Number
CTRLMODE	IQUANT	1	Control Mode
IESTAB	IQUANT	0	I/E Stability
CASPEED	IQUANT	1	Control Amp Speed
CONVENTION	IQUANT	1	Current Convention
ICHRANGE	IQUANT	2	Ich Range
ICHRANGEMODE	TOGGLE	F	Ich Auto Range
ICHOFFSETENABLE	TOGGLE	T	Ich Offset Enable
ICHOFFSET	QUANT	0	Ich Offset (V)
ICHFILTER	IQUANT	3	Ich Filter
VCHRANGE	IQUANT	2	Vch Range
VCHRANGEMODE	TOGGLE	F	Vch Auto Range
VCHOFFSETENABLE	TOGGLE	T	Vch Offset Enable
VCHOFFSET	QUANT	0	Vch Offset (V)
VCHFILTER	IQUANT	3	Vch Filter
ACHRANGE	IQUANT	2	Ach Range
ACHOFFSETENABLE	TOGGLE	F	Ach Offset Enable
ACHOFFSET	QUANT	0	Ach Offset (V)
ACHFILTER	IQUANT	3	Ach Filter
IERANGELOWERLIMIT	IQUANT	1	I/E Range Lower Limit
IERANGEMODE	TOGGLE	F	I/E AutoRange
IERANGE	IQUANT	8	I/E Range
POSFEEDENABLE	TOGGLE	F	Positive Feedback IR Comp
POSFEEDRESISTANCE	QUANT	0	Positive Feedback Resistance (ohm)
ACHSELECT	IQUANT	0	Ach Select
CABLEID	IQUANT	14	Cable ID
DCCALDATE	LABEL	6/8/2020	DC Calibration Date
ACCALDATE	LABEL	6/8/2020	AC Calibration Date
THERMOSELECT	IQUANT	1	Thermo Select
FRAMEWORKVERSION	QUANT	6.33	Framework Version
INSTRUMENTVERSION	LABEL	3.50	Instrument Version
ZCURVE	TABLE
	Pt	Time	Freq	Zreal	Zimag	Zsig	Zmod	Zphz	Idc	Vdc	IERange
	#	s	Hz	ohm	ohm	V	ohm	°	A	V	#
	0	2	1000078	1946.429	-1807.635	1	2656.338	-42.88265	5.556199E-008	0.0791468	8
	1	3	794390.6	2307.523	-1897.115	1	2987.258	-39.4251	5.502706E-008	0.0788901	8
	2	3	630984.4	2693.577	-1918.286	1	3306.838	-35.45736	1.815277E-007	0.0788032	8
	3	3	501234.4	3070.946	-1871.78	1	3596.424	-31.36283	1.692745E-007	0.0786685	8
	4	4	398109.4	3418.656	-1781.091	1	3854.802	-27.51913	5.039128E-008	0.0786104	8
	5	4	316265.6	3719.941	-1649.885	1	4069.408	-23.91845	5.351914E-008	0.0785987	8
	6	4	251203.1	3968.773	-1496.127	1	4241.41	-20.65517	1.096416E-007	0.0786249	8
	7	4	199546.9	4175.543	-1354.931	1	4389.875	-17.97784	1.774822E-007	0.0787295	8
	8	5	158578.1	4343.61	-1225.908	1	4513.292	-15.76079	1.130196E-007	0.0786634	8
	9	5	125953.1	4507.621	-1032.357	1	4624.328	-12.89969	-2.718359E-008	0.0787158	7
	10	5	100078.1	4622.779	-943.3626	1	4718.052	-11.53389	-8.880931E-009	0.0786619	7
	11	6	79453.13	4723.936	-899.0388	1	4808.725	-10.77542	2.095136E-008	0.0786488	7
	12	6	63140.62	4785.445	-864.312	1	4862.871	-10.23797	1.670223E-008	0.0786369	7
	13	6	50203.12	4877.824	-863.8075	1	4953.719	-10.04232	1.747414E-008	0.0786067	7
	14	7	39890.62	4935.777	-876.9132	1	5013.07	-10.07432	-6.922829E-009	0.0785961	7
	15	7	31640.63	5015.185	-914.1252	1	5097.814	-10.32999	-1.928402E-009	0.0786038	7
	16	7	25171.88	5099.892	-972.962	1	5191.874	-10.80115	2.543152E-008	0.0785955	7
	17	8	20015.62	5191.312	-1051.458	1	5296.724	-11.44989	3.13261E-008	0.0786056	7
	18	8	15890.62	5293.118	-1153.988	1	5417.452	-12.29898	3.124019E-008	0.0786016	7
	19	8	12609.37	5406.34	-1281.614	1	5556.172	-13.33622	2.928205E-008	0.078599	7
	20	9	10078.13	5545.754	-1431.384	1	5727.499	-14.47244	2.136384E-008	0.0785808	7
	21	9	8015.625	5670.186	-1609.024	1	5894.062	-15.84231	2.341878E-008	0.0786098	7
	22	9	6328.125	5836.675	-1828.808	1	6116.479	-17.39737	-7.933983E-009	0.0786107	7
	23	10	5015.625	6024.567	-2084.283	1	6374.923	-19.08378	1.228284E-008	0.0785952	7
	24	10	3984.375	6233.229	-2372.174	1	6669.359	-20.83527	1.386431E-008	0.0786101	7
	25	10	3170.956	6470.723	-2711.515	1	7015.88	-22.73581	2.970092E-008	0.0785987	7
	26	10	2527.573	6737.545	-3099.951	1	7416.482	-24.7072	1.286573E-008	0.078592	7
	27	11	1976.103	7064.514	-3582.831	1	7921.113	-26.89225	-1.391662E-010	0.0786089	7
	28	11	1577.524	7409.846	-4112.697	1	8474.673	-29.03165	-1.420196E-008	0.0785947	7
	29	11	1265.625	7789.001	-4691.407	1	9092.735	-31.06105	2.947739E-008	0.0785829	7
	30	12	998.264	8253.706	-5445.122	1	9888.02	-33.41357	-1.748166E-008	0.0786096	7
	31	12	796.875	8754.495	-6267.641	1	10766.82	-35.60016	-7.379237E-009	0.0786164	7
	32	12	627.7902	9365.716	-7297.715	1	11873.22	-37.92553	3.153024E-008	0.0786081	7
	33	13	505.5147	10009.74	-8383.045	1	13056.43	-39.9458	-9.681128E-009	0.0786043	7
	34	13	397.9953	10808.06	-9799.85	1	14589.42	-42.19914	7.028696E-009	0.0786261	7
	35	13	315.5048	11710.52	-11412.46	1	16351.78	-44.26147	7.853469E-009	0.0786213	7
	36	14	252.4038	12707.56	-13228.79	1	18343.47	-46.15128	8.468768E-009	0.0786208	7
	37	14	198.6229	13945.06	-15526	1	20869.15	-48.07063	8.126936E-009	0.0786255	7
	38	14	158.3615	15265.77	-18015	1	23613.21	-49.72232	8.637042E-009	0.0786076	7
	39	15	125.558	16901.4	-21169.82	1	27089.09	-51.39711	8.748523E-009	0.0786219	7
	40	15	100.4464	18675.22	-24643.93	1	30920.66	-52.84507	8.174184E-009	0.0786225	7
	41	15	79.00281	20862.92	-29040.75	1	35757.89	-54.30648	8.471383E-009	0.0786217	7
	42	16	63.3446	23148.04	-33803.46	1	40969.57	-55.59731	1.038191E-009	0.0786185	6
	43	16	49.86702	25946.75	-39935.56	1	47624.4	-56.98759	3.187739E-010	0.0786186	6
	44	16	39.72458	28949.14	-46911.33	1	55124.64	-58.32113	1.064927E-009	0.0786231	6
	45	17	31.6723	32351.88	-55259.64	1	64033.36	-59.65307	1.583912E-009	0.0786246	6
	46	17	24.93351	36506.67	-65953.15	1	75382.73	-61.0344	-6.845888E-010	0.0786218	6
	47	17	19.86229	41170.86	-78499.74	1	88641.13	-62.32428	-5.733976E-009	0.0700528	6
	48	18	15.83615	46851.29	-93504.98	1	104586	-63.38654	-4.075148E-009	0.0700458	6
	49	18	12.40079	54088.24	-112952.7	1	125235.2	-64.41222	-3.275819E-009	0.0700502	6
	50	18	9.93114	62396.8	-134286.6	1	148075.2	-65.07787	-2.589406E-009	0.0700497	6
	51	19	7.944915	72853.41	-159763.3	1	175590.2	-65.48661	-2.177563E-009	0.0700496	6
	52	19	6.317385	86264.9	-190527.6	1	209146.9	-65.64049	-1.250578E-009	0.0700525	6
	53	20	5.008013	103319	-227194.8	1	249584.3	-65.54588	-8.554818E-010	0.0700502	6
	54	21	3.945707	125173.1	-271259.9	1	298747.8	-65.229	-5.043969E-010	0.0700479	6
	55	22	3.158693	150081.6	-318780.2	1	352342.6	-64.78896	-3.535773E-010	0.0700469	6
	56	24	2.504006	181844.4	-375654.8	1	417353.5	-64.16963	-5.433174E-010	0.0700484	5
	57	25	1.998082	217755.2	-438280.7	1	489394.8	-63.57999	-3.975948E-010	0.0700546	5
	58	27	1.584686	261687.3	-513870.1	1	576665.2	-63.01262	-2.580852E-010	0.0700577	5
	59	30	1.266892	311334.9	-597697.2	1	673922.4	-62.48541	-1.798506E-010	0.0700567	5
	60	33	0.999041	372973.1	-700692.4	1	793775.1	-61.97398	-2.210856E-010	0.0700527	5
