EXPLAIN
TAG	EISPOT
TITLE	LABEL	Potentiostatic EIS	Test &Identifier
DATE	LABEL	7/13/2020	Date
TIME	LABEL	20:42:02	Time
NOTES	NOTES	1	&Notes...
	
PSTAT	PSTAT	REF600-11020	Potentiostat
VDC	POTEN	0.00000E+000	T	DC &Voltage (V)
FREQINIT	QUANT	1.00000E+006	Initial Fre&q. (Hz)
FREQFINAL	QUANT	1.00000E+000	Final Fre&q. (Hz)
PTSPERDEC	QUANT	1.00000E+001	Points/&decade
VAC	QUANT	2.50000E+001	AC &Voltage (mV rms)
AREA	QUANT	4.00000E-004	&Area (cm^2)
CONDIT	TWOPARAM	F	5.00000E+000	0.00000E+000	Conditionin&g	Time(s)	E(V)
DELAY	TWOPARAM	F	3.00000E+000	0.00000E+000	Init. De&lay	Time(s)	Stab.(mV/s)
SPEED	SELECTOR	0	&Optimize for:
ZGUESS	QUANT	1.00000E+003	E&stimated Z (ohms)
OCVCURVE	TABLE	39
	Pt	T	Vf	Vm	Ach	Over
	#	s	V vs. Ref.	V	V	bits
	0	0.258333	7.76656E-002	7.76656E-002	5.04150E-004	...........
	1	0.516667	7.76655E-002	7.76637E-002	5.09617E-004	...........
	2	0.775	7.76653E-002	7.76637E-002	5.00950E-004	...........
	3	1.03333	7.76648E-002	7.76582E-002	5.06384E-004	...........
	4	1.29167	7.76638E-002	7.76590E-002	5.06184E-004	...........
	5	1.55	7.76622E-002	7.76551E-002	5.08450E-004	...........
	6	1.80833	7.76602E-002	7.76548E-002	5.05950E-004	...........
	7	2.06667	7.76582E-002	7.76511E-002	5.06450E-004	...........
	8	2.325	7.76562E-002	7.76524E-002	5.04717E-004	...........
	9	2.58333	7.76544E-002	7.76530E-002	5.01884E-004	...........
	10	2.84167	7.76531E-002	7.76500E-002	5.10417E-004	...........
	11	3.1	7.76522E-002	7.76476E-002	5.10817E-004	...........
	12	3.35833	7.76514E-002	7.76484E-002	5.01250E-004	...........
	13	3.61667	7.76502E-002	7.76470E-002	5.05050E-004	...........
	14	3.875	7.76490E-002	7.76473E-002	4.99550E-004	...........
	15	4.13333	7.76481E-002	7.76471E-002	5.02917E-004	...........
	16	4.39167	7.76475E-002	7.76440E-002	5.02050E-004	...........
	17	4.65	7.76469E-002	7.76417E-002	5.06650E-004	...........
	18	4.90833	7.76458E-002	7.76431E-002	5.05984E-004	...........
	19	5.16667	7.76445E-002	7.76373E-002	5.04550E-004	...........
	20	5.425	7.76428E-002	7.76373E-002	5.09250E-004	...........
	21	5.68333	7.76410E-002	7.76362E-002	5.10117E-004	...........
	22	5.94167	7.76392E-002	7.76336E-002	5.08550E-004	...........
	23	6.2	7.76374E-002	7.76348E-002	5.11050E-004	...........
	24	6.45833	7.76360E-002	7.76336E-002	5.03684E-004	...........
	25	6.71667	7.76349E-002	7.76279E-002	5.07583E-004	...........
	26	6.975	7.76336E-002	7.76270E-002	5.03284E-004	...........
	27	7.23333	7.76319E-002	7.76295E-002	5.02250E-004	...........
	28	7.49167	7.76301E-002	7.76258E-002	5.04617E-004	...........
	29	7.75	7.76286E-002	7.76231E-002	5.09284E-004	...........
	30	8.00833	7.76273E-002	7.76201E-002	5.08884E-004	...........
	31	8.26667	7.76256E-002	7.76202E-002	5.08950E-004	...........
	32	8.525	7.76236E-002	7.76193E-002	5.06883E-004	...........
	33	8.78333	7.76217E-002	7.76170E-002	5.08617E-004	...........
	34	9.04167	7.76201E-002	7.76140E-002	5.03684E-004	...........
	35	9.3	7.76186E-002	7.76132E-002	5.06950E-004	...........
	36	9.5583	7.76168E-002	7.76095E-002	5.07717E-004	...........
	37	9.8167	7.76148E-002	7.76087E-002	5.11184E-004	...........
	38	10.075	7.76126E-002	7.76066E-002	5.08383E-004	...........
EOC	QUANT	0.0776126	Open Circuit (V)
PSTATMODEL	IQUANT	4	Pstat Model
PSTATSECTION	LABEL	REF600-11020	Pstat Section
PSTATSERIALNO	LABEL	11020	Pstat Serial Number
CTRLMODE	IQUANT	1	Control Mode
IESTAB	IQUANT	0	I/E Stability
CASPEED	IQUANT	1	Control Amp Speed
CONVENTION	IQUANT	1	Current Convention
ICHRANGE	IQUANT	2	Ich Range
ICHRANGEMODE	TOGGLE	F	Ich Auto Range
ICHOFFSETENABLE	TOGGLE	T	Ich Offset Enable
ICHOFFSET	QUANT	0	Ich Offset (V)
ICHFILTER	IQUANT	3	Ich Filter
VCHRANGE	IQUANT	2	Vch Range
VCHRANGEMODE	TOGGLE	F	Vch Auto Range
VCHOFFSETENABLE	TOGGLE	T	Vch Offset Enable
VCHOFFSET	QUANT	0	Vch Offset (V)
VCHFILTER	IQUANT	3	Vch Filter
ACHRANGE	IQUANT	2	Ach Range
ACHOFFSETENABLE	TOGGLE	F	Ach Offset Enable
ACHOFFSET	QUANT	0	Ach Offset (V)
ACHFILTER	IQUANT	3	Ach Filter
IERANGELOWERLIMIT	IQUANT	1	I/E Range Lower Limit
IERANGEMODE	TOGGLE	F	I/E AutoRange
IERANGE	IQUANT	8	I/E Range
POSFEEDENABLE	TOGGLE	F	Positive Feedback IR Comp
POSFEEDRESISTANCE	QUANT	0	Positive Feedback Resistance (ohm)
ACHSELECT	IQUANT	0	Ach Select
CABLEID	IQUANT	14	Cable ID
DCCALDATE	LABEL	6/26/2020	DC Calibration Date
ACCALDATE	LABEL	6/26/2020	AC Calibration Date
THERMOSELECT	IQUANT	1	Thermo Select
FRAMEWORKVERSION	QUANT	6.33	Framework Version
INSTRUMENTVERSION	LABEL	3.50	Instrument Version
ZCURVE	TABLE
	Pt	Time	Freq	Zreal	Zimag	Zsig	Zmod	Zphz	Idc	Vdc	IERange
	#	s	Hz	ohm	ohm	V	ohm	°	A	V	#
	0	1	1000078	1081.292	-480.2702	1	1183.154	-23.94903	-2.566509E-007	0.0798069	8
	1	2	794390.6	1145.452	-483.6895	1	1243.389	-22.89285	3.48738E-007	0.0794772	8
	2	2	630984.4	1207.858	-490.9784	1	1303.833	-22.1211	7.047269E-008	0.0793498	8
	3	2	501234.4	1267.892	-503.6057	1	1364.247	-21.66293	-9.363914E-008	0.0792623	8
	4	3	398109.4	1328.219	-522.4461	1	1427.276	-21.47186	5.166016E-008	0.0792108	8
	5	3	316265.6	1391.234	-549.4901	1	1495.818	-21.55233	4.20905E-008	0.0791806	8
	6	3	251203.1	1454.972	-584.7531	1	1568.081	-21.8952	5.103421E-008	0.0791837	8
	7	4	199546.9	1524.987	-625.8641	1	1648.421	-22.31355	-5.203238E-010	0.0791686	8
	8	4	158578.1	1600.403	-680.3948	1	1739.03	-23.03227	-7.010723E-008	0.079168	8
	9	4	125953.1	1702.704	-721.3854	1	1849.215	-22.96094	-2.197501E-008	0.0792221	7
	10	4	100078.1	1801.69	-793.2951	1	1968.604	-23.76419	-1.424609E-008	0.0791372	7
	11	5	79453.13	1903.927	-879.0993	1	2097.083	-24.78416	2.545314E-009	0.0791101	7
	12	5	63140.62	2021.233	-972.896	1	2243.192	-25.70328	-2.177999E-008	0.0791451	7
	13	5	50203.12	2156.344	-1073.934	1	2408.973	-26.47489	-2.609938E-008	0.0791471	7
	14	6	39890.62	2311.09	-1179.829	1	2594.828	-27.04465	2.106315E-008	0.0791076	7
	15	6	31640.63	2486.592	-1290.003	1	2801.293	-27.41954	1.652177E-008	0.0790902	7
	16	6	25171.88	2677.473	-1398.329	1	3020.626	-27.57613	1.580762E-008	0.0791255	7
	17	7	20015.62	2887.273	-1507.707	1	3257.227	-27.57314	-2.489949E-008	0.0791582	7
	18	7	15890.62	3114.038	-1615.387	1	3508.092	-27.41773	2.302736E-008	0.0790963	7
	19	7	12609.37	3353.21	-1719.709	1	3768.477	-27.15123	-6.106312E-009	0.0791152	7
	20	8	10078.13	3592.111	-1819.407	1	4026.6	-26.86225	1.594204E-008	0.0790881	7
	21	8	8015.625	3837.992	-1923.151	1	4292.865	-26.61465	1.012095E-008	0.0790985	7
	22	8	6328.125	4086.427	-2037.582	1	4566.248	-26.50185	1.939721E-008	0.0791244	7
	23	9	5015.625	4325.39	-2173.448	1	4840.751	-26.67888	-2.2707E-008	0.0791365	7
	24	9	3984.375	4554.532	-2339.979	1	5120.475	-27.19271	-1.196177E-008	0.0791536	7
	25	9	3170.956	4781.618	-2557.017	1	5422.38	-28.13608	1.879711E-008	0.0791267	7
	26	10	2527.573	5016.979	-2834.702	1	5762.432	-29.46739	2.278671E-008	0.0790943	7
	27	10	1976.103	5292.14	-3217.431	1	6193.433	-31.2981	2.294612E-008	0.0790961	7
	28	10	1577.524	5577.229	-3645.797	1	6663.131	-33.17237	-2.341903E-008	0.0791482	7
	29	11	1265.625	5900.134	-4159.287	1	7218.813	-35.18184	2.265929E-008	0.079097	7
	30	11	998.264	6309.039	-4809.418	1	7933.125	-37.31849	2.510482E-010	0.0791125	7
	31	11	796.875	6756.325	-5516.028	1	8722.069	-39.22904	1.995736E-008	0.0790775	7
	32	12	627.7902	7293.506	-6369.137	1	9683.03	-41.12946	-9.289122E-009	0.0791462	7
	33	12	505.5147	7827.011	-7281.454	1	10690.26	-42.93198	-3.515678E-009	0.0791443	6
	34	12	397.9953	8442.081	-8463.861	1	11954.32	-45.07381	2.29454E-010	0.0791299	6
	35	12	315.5048	9075.654	-9850.48	1	13394.01	-47.34436	2.572496E-010	0.0791297	6
	36	13	252.4038	9723.47	-11474.71	1	15040.44	-49.72262	1.543711E-010	0.0791227	6
	37	13	198.6229	10479.14	-13623.25	1	17187.36	-52.43214	7.839773E-011	0.079126	6
	38	13	158.3615	11289.92	-16140.12	1	19696.85	-55.02742	-3.475484E-013	0.0791211	6
	39	14	125.558	12258.09	-19318.92	1	22879.72	-57.60437	1.155284E-010	0.0791169	6
	40	14	100.4464	13367.06	-23068.64	1	26661.59	-59.90998	4.276753E-011	0.0791151	6
	41	14	79.00281	14837.28	-28022.72	1	31708.33	-62.09998	2.334997E-011	0.0791172	6
	42	15	63.3446	16528.77	-33575.98	1	37423.88	-63.78992	-4.947574E-011	0.0791173	6
	43	15	49.86702	18852.63	-40899.67	1	45035.59	-65.25275	1.577344E-010	0.079113	6
	44	16	39.72458	21684.22	-49320	1	53876.41	-66.26665	4.095134E-010	0.0791101	6
	45	16	31.6723	25302.49	-59355.13	1	64523.23	-66.91194	3.914568E-010	0.0791132	6
	46	16	24.93351	30247.05	-72002.14	1	78097.33	-67.21343	2.710222E-010	0.0791103	6
	47	17	19.86229	36221.33	-86237.71	1	93535.7	-67.21675	1.107595E-009	0.0791172	6
	48	17	15.83615	43821	-102760.8	1	111714.2	-66.90481	-6.95981E-010	0.0791039	5
	49	17	12.40079	54100.56	-123585.5	1	134908.3	-66.3582	-7.342904E-010	0.0791065	5
	50	17	9.93114	65661	-145339.3	1	159483.2	-65.68763	-8.091899E-010	0.0791066	5
	51	18	7.944915	79330.7	-170455.5	1	188011.8	-65.04253	-5.64462E-010	0.0791089	5
	52	18	6.317385	96467.8	-199788.3	1	221859	-64.22643	1.740041E-010	0.0790956	5
	53	19	5.008013	117123.5	-234105.3	1	261769.3	-63.42108	-5.933944E-012	0.0791039	5
	54	20	3.945707	141800.5	-274744.2	1	309179.1	-62.70091	-2.254793E-010	0.079099	5
	55	21	3.158693	169061.3	-317720.1	1	359899.7	-61.98222	1.676279E-011	0.0790875	5
	56	22	2.504006	201896	-369677.9	1	421216.9	-61.35927	2.069413E-010	0.0790946	5
	57	23	1.998082	238683	-426574.4	1	488810.1	-60.77149	-1.608787E-011	0.0790682	5
	58	25	1.584686	282461.5	-496210	1	570971.9	-60.34983	-5.021915E-011	0.07905	5
	59	27	1.266892	329825.7	-572316.1	1	660553.4	-60.04516	-8.188806E-012	0.0790781	5
	60	29	0.999041	389040.3	-665145.4	1	770565.3	-59.67685	2.140088E-011	0.0790959	5
