EXPLAIN
TAG	EISPOT
TITLE	LABEL	Potentiostatic EIS	Test &Identifier
DATE	LABEL	2/18/2020	Date
TIME	LABEL	15:03:58	Time
NOTES	NOTES	1	&Notes...
	
PSTAT	PSTAT	REF600-11020	Potentiostat
VDC	POTEN	0.00000E+000	T	DC &Voltage (V)
FREQINIT	QUANT	1.00000E+006	Initial Fre&q. (Hz)
FREQFINAL	QUANT	1.00000E+000	Final Fre&q. (Hz)
PTSPERDEC	QUANT	1.00000E+001	Points/&decade
VAC	QUANT	2.50000E+001	AC &Voltage (mV rms)
AREA	QUANT	1.60000E-004	&Area (cm^2)
CONDIT	TWOPARAM	F	1.50000E+001	0.00000E+000	Conditionin&g	Time(s)	E(V)
DELAY	TWOPARAM	F	1.00000E+002	0.00000E+000	Init. De&lay	Time(s)	Stab.(mV/s)
SPEED	SELECTOR	1	&Optimize for:
ZGUESS	QUANT	1.00000E+003	E&stimated Z (ohms)
OCVCURVE	TABLE	39
	Pt	T	Vf	Vm	Ach	Over
	#	s	V vs. Ref.	V	V	bits
	0	0.258333	-1.42832E-003	-1.42832E-003	5.69404E-004	...........
	1	0.516667	-1.42909E-003	-1.46841E-003	5.73204E-004	...........
	2	0.775	-1.43425E-003	-1.53044E-003	5.71371E-004	...........
	3	1.03333	-1.45012E-003	-1.57654E-003	5.72438E-004	...........
	4	1.29167	-1.47901E-003	-1.55052E-003	5.69904E-004	...........
	5	1.55	-1.51188E-003	-1.50320E-003	5.69704E-004	...........
	6	1.80833	-1.53209E-003	-1.45447E-003	5.68371E-004	...........
	7	2.06667	-1.52879E-003	-1.43249E-003	5.72938E-004	...........
	8	2.325	-1.50624E-003	-1.47238E-003	5.71238E-004	...........
	9	2.58333	-1.48033E-003	-1.47592E-003	5.70371E-004	...........
	10	2.84167	-1.46548E-003	-1.48133E-003	5.70338E-004	...........
	11	3.1	-1.46442E-003	-1.49223E-003	5.72271E-004	...........
	12	3.35833	-1.47057E-003	-1.45628E-003	5.68338E-004	...........
	13	3.61667	-1.47538E-003	-1.44948E-003	5.69738E-004	...........
	14	3.875	-1.47362E-003	-1.45383E-003	5.67738E-004	...........
	15	4.13333	-1.46648E-003	-1.45296E-003	5.67704E-004	...........
	16	4.39167	-1.45935E-003	-1.46736E-003	5.67204E-004	...........
	17	4.65	-1.45672E-003	-1.49025E-003	5.68871E-004	...........
	18	4.90833	-1.46017E-003	-1.47592E-003	5.71138E-004	...........
	19	5.16667	-1.46725E-003	-1.46249E-003	5.71671E-004	...........
	20	5.425	-1.47280E-003	-1.47952E-003	5.69604E-004	...........
	21	5.68333	-1.47464E-003	-1.48299E-003	5.67638E-004	...........
	22	5.94167	-1.47538E-003	-1.48707E-003	5.71538E-004	...........
	23	6.2	-1.47765E-003	-1.48726E-003	5.69038E-004	...........
	24	6.45833	-1.48097E-003	-1.47786E-003	5.67671E-004	...........
	25	6.71667	-1.48344E-003	-1.48934E-003	5.69304E-004	...........
	26	6.975	-1.48446E-003	-1.48776E-003	5.72038E-004	...........
	27	7.23333	-1.48500E-003	-1.48363E-003	5.69204E-004	...........
	28	7.49167	-1.48565E-003	-1.48914E-003	5.69638E-004	...........
	29	7.75	-1.48623E-003	-1.48820E-003	5.68071E-004	...........
	30	8.00833	-1.48684E-003	-1.49136E-003	5.72771E-004	...........
	31	8.26667	-1.48784E-003	-1.49476E-003	5.75238E-004	...........
	32	8.525	-1.48957E-003	-1.50547E-003	5.70071E-004	...........
	33	8.78333	-1.49254E-003	-1.50654E-003	5.76238E-004	...........
	34	9.04167	-1.49662E-003	-1.50055E-003	5.68404E-004	...........
	35	9.3	-1.50056E-003	-1.50929E-003	5.70638E-004	...........
	36	9.5583	-1.50351E-003	-1.51849E-003	5.71371E-004	...........
	37	9.8167	-1.50640E-003	-1.51949E-003	5.74838E-004	...........
	38	10.075	-1.51023E-003	-1.52014E-003	5.72038E-004	...........
EOC	QUANT	-0.0015102	Open Circuit (V)
PSTATMODEL	IQUANT	4	Pstat Model
PSTATSECTION	LABEL	REF600-11020	Pstat Section
PSTATSERIALNO	LABEL	11020	Pstat Serial Number
CTRLMODE	IQUANT	1	Control Mode
IESTAB	IQUANT	0	I/E Stability
CASPEED	IQUANT	1	Control Amp Speed
CONVENTION	IQUANT	1	Current Convention
ICHRANGE	IQUANT	2	Ich Range
ICHRANGEMODE	TOGGLE	F	Ich Auto Range
ICHOFFSETENABLE	TOGGLE	T	Ich Offset Enable
ICHOFFSET	QUANT	0	Ich Offset (V)
ICHFILTER	IQUANT	3	Ich Filter
VCHRANGE	IQUANT	2	Vch Range
VCHRANGEMODE	TOGGLE	F	Vch Auto Range
VCHOFFSETENABLE	TOGGLE	T	Vch Offset Enable
VCHOFFSET	QUANT	0	Vch Offset (V)
VCHFILTER	IQUANT	3	Vch Filter
ACHRANGE	IQUANT	2	Ach Range
ACHOFFSETENABLE	TOGGLE	F	Ach Offset Enable
ACHOFFSET	QUANT	0	Ach Offset (V)
ACHFILTER	IQUANT	3	Ach Filter
IERANGELOWERLIMIT	IQUANT	1	I/E Range Lower Limit
IERANGEMODE	TOGGLE	F	I/E AutoRange
IERANGE	IQUANT	6	I/E Range
POSFEEDENABLE	TOGGLE	F	Positive Feedback IR Comp
POSFEEDRESISTANCE	QUANT	0	Positive Feedback Resistance (ohm)
ACHSELECT	IQUANT	0	Ach Select
CABLEID	IQUANT	14	Cable ID
DCCALDATE	LABEL	1/27/2020	DC Calibration Date
ACCALDATE	LABEL	1/27/2020	AC Calibration Date
THERMOSELECT	IQUANT	1	Thermo Select
FRAMEWORKVERSION	QUANT	6.33	Framework Version
INSTRUMENTVERSION	LABEL	3.50	Instrument Version
ZCURVE	TABLE
	Pt	Time	Freq	Zreal	Zimag	Zsig	Zmod	Zphz	Idc	Vdc	IERange
	#	s	Hz	ohm	ohm	V	ohm	°	A	V	#
	0	1	1000078	1565.024	-2039.551	1	2570.811	-52.49961	3.50611E-006	0.0001891	8
	1	3	794390.6	1867.308	-2287.669	1	2953.01	-50.77698	6.295975E-007	-4.940287E-005	8
	2	4	630984.4	2259.26	-2526.98	1	3389.673	-48.20152	-4.044081E-006	0.0010881	8
	3	6	501234.4	2687.8	-2786.76	1	3871.731	-46.03558	-2.419051E-006	0.0007093	8
	4	7	398109.4	3205.946	-2989.291	1	4383.372	-42.99711	1.747365E-006	-0.0002418	8
	5	9	316265.6	3780.729	-3150.326	1	4921.226	-39.80305	3.629311E-007	-5.930101E-006	8
	6	10	251203.1	4421.187	-3226.877	1	5473.539	-36.12445	2.07735E-007	-2.461452E-005	8
	7	12	199546.9	5001.65	-3226.729	1	5952.167	-32.82739	-3.033483E-007	0.0002245	8
	8	13	158578.1	5653.844	-3118.715	1	6456.96	-28.88155	3.068827E-006	-0.0005322	8
	9	15	125953.1	6262.974	-2917.618	1	6909.221	-24.97854	-8.387348E-007	0.0017378	7
	10	16	100078.1	6711.683	-2685.163	1	7228.886	-21.80501	-9.032703E-009	-1.852579E-005	7
	11	18	79453.13	7120.309	-2433.932	1	7524.813	-18.87195	-3.414535E-008	1.175499E-005	7
	12	19	63140.62	7453.528	-2191.423	1	7769.003	-16.38394	-2.64569E-008	-1.067806E-005	7
	13	21	50203.12	7725.676	-1967.876	1	7972.365	-14.29043	4.516459E-008	-2.455689E-005	7
	14	22	39890.62	7944.212	-1768.191	1	8138.612	-12.54812	1.241715E-009	-8.869592E-006	7
	15	24	31640.63	8124.855	-1602.843	1	8281.448	-11.15981	-2.413986E-008	-1.836941E-005	7
	16	25	25171.88	8279.534	-1475.204	1	8409.93	-10.10264	-3.885247E-008	5.082873E-005	7
	17	27	20015.62	8413.105	-1377.49	1	8525.129	-9.298613	-3.862512E-008	5.692636E-005	7
	18	28	15890.62	8537.186	-1313.826	1	8637.689	-8.748872	-2.48959E-008	-2.193575E-005	7
	19	30	12609.37	8652.423	-1284.025	1	8747.179	-8.441124	6.396012E-008	-0.0001574	7
	20	32	10078.13	8751.898	-1284.637	1	8845.678	-8.350462	-3.102626E-008	-2.740825E-006	7
	21	33	8015.625	8865.046	-1296.854	1	8959.401	-8.322679	-3.293803E-009	5.456316E-005	6
	22	35	6328.125	8968.128	-1370.851	1	9072.296	-8.690854	4.337661E-009	-3.676757E-005	6
	23	36	5015.625	9070.968	-1481.559	1	9191.163	-9.2762	9.836405E-009	-0.0001447	6
	24	38	3984.375	9174.091	-1636.473	1	9318.904	-10.11403	-3.985518E-009	1.958304E-005	6
	25	40	3170.956	9281.452	-1841.066	1	9462.287	-11.21954	-6.315806E-009	4.950844E-005	6
	26	41	2527.573	9395.77	-2102.019	1	9628.03	-12.61054	-1.936487E-009	-3.570896E-005	6
	27	43	1976.103	9527.01	-2464.581	1	9840.64	-14.5041	6.722035E-009	-0.0001944	6
	28	44	1577.524	9661.88	-2882.826	1	10082.79	-16.61358	-3.57039E-009	5.80608E-006	6
	29	46	1265.625	9813.79	-3395.389	1	10384.56	-19.08467	6.748293E-009	-0.0001942	6
	30	47	998.264	10000.06	-4075.8	1	10798.76	-22.17471	4.49897E-009	-5.543531E-005	6
	31	49	796.875	10206.16	-4873.459	1	11310.01	-25.52456	6.491871E-009	-0.0001041	6
	32	50	627.7902	10468.88	-5915.944	1	12024.8	-29.47072	2.610378E-009	-2.165968E-005	6
	33	52	505.5147	10759.23	-7074.01	1	12876.44	-33.32423	5.296424E-009	-6.113044E-005	6
	34	53	397.9953	11148.04	-8641.228	1	14104.95	-37.78049	9.760956E-010	-3.584698E-005	6
	35	54	315.5048	11622.05	-10506.09	1	15666.84	-42.11291	1.062166E-009	-3.289909E-005	6
	36	56	252.4038	12188.96	-12688.31	1	17594.43	-46.14993	9.276951E-010	-3.203201E-005	6
	37	57	198.6229	12956.32	-15536.26	1	20229.72	-50.17389	1.253912E-009	-3.033283E-005	6
	38	59	158.3615	13874.64	-18811.98	1	23375.12	-53.58964	8.076467E-010	-3.343263E-005	6
	39	60	125.558	15062.09	-22858.14	1	27374.46	-56.61761	1.375797E-009	-3.608139E-005	6
	40	61	100.4464	16520.98	-27536.22	1	32112.09	-59.0374	1.664453E-009	-3.168039E-005	6
	41	63	79.00281	18502.31	-33627.14	1	38381.25	-61.17955	1.459927E-009	-3.955789E-005	6
	42	64	63.3446	20996.61	-40335.78	1	45473.43	-62.50097	1.161398E-009	-3.882089E-005	6
	43	65	49.86702	23671.55	-49055.2	1	54467.93	-64.24039	1.064822E-009	-3.939519E-005	6
	44	67	39.72458	27427.77	-58647.28	1	64744	-64.93576	1.057205E-009	-3.604565E-005	6
	45	68	31.6723	31967.36	-70153.33	1	77093.46	-65.50227	1.067597E-009	-3.675843E-005	6
	46	70	24.93351	37915.12	-84790.48	1	92881.55	-65.9076	9.761476E-010	-3.302417E-005	6
	47	71	19.86229	44958.62	-101061.1	1	110610.2	-66.01735	8.812527E-010	-2.933816E-005	5
	48	72	15.83615	54009.93	-120472.4	1	132025.3	-65.85245	5.225695E-010	-3.371323E-005	5
	49	74	12.40079	65710.09	-145296	1	159463.9	-65.66514	1.110612E-009	-3.894744E-005	5
	50	75	9.93114	78654.88	-170071.5	1	187379	-65.18034	5.526096E-010	-3.879741E-005	5
	51	77	7.944915	95228.1	-200019.5	1	221531.5	-64.54115	3.809877E-010	-3.236935E-005	5
	52	78	6.317385	115158	-235532.5	1	262177.3	-63.94478	1.212911E-010	-2.438293E-005	5
	53	80	5.008013	140054.8	-276945.4	1	310345.2	-63.17371	5.267436E-010	-2.80289E-005	5
	54	83	3.945707	172179.1	-326059.9	1	368728.5	-62.16328	1.672296E-010	-4.147005E-005	5
	55	86	3.158693	208260	-377522.4	1	431155.9	-61.1167	2.968324E-010	-1.550363E-005	5
	56	89	2.504006	254222.4	-437927.2	1	506368.7	-59.86428	1.035274E-010	-3.842356E-005	5
	57	92	1.998082	306974.2	-502299.1	1	588674.4	-58.5693	-1.185209E-010	-1.236808E-005	5
	58	95	1.584686	372118.8	-575136.6	1	685021.6	-57.09676	2.34565E-010	8.860997E-006	5
	59	99	1.266892	443570.6	-649073.6	1	786162.4	-55.65168	-8.102771E-011	3.251537E-006	5
	60	103	0.999041	529014.1	-734435.4	1	905125	-54.23478	3.396134E-010	-5.183898E-005	5
