EXPLAIN
TAG	EISPOT
TITLE	LABEL	Potentiostatic EIS	Test &Identifier
DATE	LABEL	2/6/2020	Date
TIME	LABEL	17:13:14	Time
NOTES	NOTES	6	&Notes...
	
	
	
	
	
	
PSTAT	PSTAT	REF600-11020	Potentiostat
VDC	POTEN	0.00000E+000	T	DC &Voltage (V)
FREQINIT	QUANT	1.00000E+006	Initial Fre&q. (Hz)
FREQFINAL	QUANT	1.00000E+000	Final Fre&q. (Hz)
PTSPERDEC	QUANT	1.00000E+001	Points/&decade
VAC	QUANT	2.50000E+001	AC &Voltage (mV rms)
AREA	QUANT	1.60000E-004	&Area (cm^2)
CONDIT	TWOPARAM	F	5.00000E+000	0.00000E+000	Conditionin&g	Time(s)	E(V)
DELAY	TWOPARAM	F	5.00000E+000	0.00000E+000	Init. De&lay	Time(s)	Stab.(mV/s)
SPEED	SELECTOR	0	&Optimize for:
ZGUESS	QUANT	1.00000E+003	E&stimated Z (ohms)
OCVCURVE	TABLE	39
	Pt	T	Vf	Vm	Ach	Over
	#	s	V vs. Ref.	V	V	bits
	0	0.258333	-5.07915E-002	-5.07915E-002	5.67738E-004	...........
	1	0.516667	-5.07917E-002	-5.07971E-002	5.73438E-004	...........
	2	0.775	-5.07921E-002	-5.07942E-002	5.72504E-004	...........
	3	1.03333	-5.07932E-002	-5.07987E-002	5.72604E-004	...........
	4	1.29167	-5.07946E-002	-5.08023E-002	5.78104E-004	...........
	5	1.55	-5.07964E-002	-5.08053E-002	5.76504E-004	...........
	6	1.80833	-5.07989E-002	-5.08111E-002	5.79804E-004	...........
	7	2.06667	-5.08020E-002	-5.08091E-002	5.79837E-004	...........
	8	2.325	-5.08051E-002	-5.08027E-002	5.79804E-004	...........
	9	2.58333	-5.08064E-002	-5.07779E-002	5.80671E-004	...........
	10	2.84167	-5.08036E-002	-5.07659E-002	5.77837E-004	...........
	11	3.1	-5.07953E-002	-5.07546E-002	5.79604E-004	...........
	12	3.35833	-5.07830E-002	-5.07416E-002	5.76804E-004	...........
	13	3.61667	-5.07693E-002	-5.07351E-002	5.77504E-004	...........
	14	3.875	-5.07564E-002	-5.07258E-002	5.77637E-004	...........
	15	4.13333	-5.07452E-002	-5.07169E-002	5.75371E-004	...........
	16	4.39167	-5.07352E-002	-5.07042E-002	5.75404E-004	...........
	17	4.65	-5.07258E-002	-5.06940E-002	5.77637E-004	...........
	18	4.90833	-5.07157E-002	-5.06695E-002	5.77037E-004	...........
	19	5.16667	-5.07038E-002	-5.06498E-002	5.75871E-004	...........
	20	5.425	-5.06890E-002	-5.06297E-002	5.78271E-004	...........
	21	5.68333	-5.06714E-002	-5.06153E-002	5.74171E-004	...........
	22	5.94167	-5.06527E-002	-5.06048E-002	5.73304E-004	...........
	23	6.2	-5.06347E-002	-5.05855E-002	5.73104E-004	...........
	24	6.45833	-5.06182E-002	-5.05649E-002	5.69004E-004	...........
	25	6.71667	-5.06020E-002	-5.05428E-002	5.76804E-004	...........
	26	6.975	-5.05846E-002	-5.05233E-002	5.72338E-004	...........
	27	7.23333	-5.05655E-002	-5.04963E-002	5.75037E-004	...........
	28	7.49167	-5.05447E-002	-5.04746E-002	5.73471E-004	...........
	29	7.75	-5.05226E-002	-5.04542E-002	5.73238E-004	...........
	30	8.00833	-5.05000E-002	-5.04320E-002	5.71404E-004	...........
	31	8.26667	-5.04775E-002	-5.04083E-002	5.75104E-004	...........
	32	8.525	-5.04552E-002	-5.03844E-002	5.72138E-004	...........
	33	8.78333	-5.04326E-002	-5.03551E-002	5.71104E-004	...........
	34	9.04167	-5.04092E-002	-5.03418E-002	5.72638E-004	...........
	35	9.3	-5.03858E-002	-5.03253E-002	5.66671E-004	...........
	36	9.5583	-5.03635E-002	-5.02990E-002	5.67571E-004	...........
	37	9.8167	-5.03427E-002	-5.02713E-002	5.67738E-004	...........
	38	10.075	-5.03219E-002	-5.02627E-002	5.68471E-004	...........
EOC	QUANT	-0.0503219	Open Circuit (V)
PSTATMODEL	IQUANT	4	Pstat Model
PSTATSECTION	LABEL	REF600-11020	Pstat Section
PSTATSERIALNO	LABEL	11020	Pstat Serial Number
CTRLMODE	IQUANT	1	Control Mode
IESTAB	IQUANT	0	I/E Stability
CASPEED	IQUANT	1	Control Amp Speed
CONVENTION	IQUANT	1	Current Convention
ICHRANGE	IQUANT	2	Ich Range
ICHRANGEMODE	TOGGLE	F	Ich Auto Range
ICHOFFSETENABLE	TOGGLE	T	Ich Offset Enable
ICHOFFSET	QUANT	0	Ich Offset (V)
ICHFILTER	IQUANT	3	Ich Filter
VCHRANGE	IQUANT	2	Vch Range
VCHRANGEMODE	TOGGLE	F	Vch Auto Range
VCHOFFSETENABLE	TOGGLE	T	Vch Offset Enable
VCHOFFSET	QUANT	0	Vch Offset (V)
VCHFILTER	IQUANT	3	Vch Filter
ACHRANGE	IQUANT	2	Ach Range
ACHOFFSETENABLE	TOGGLE	F	Ach Offset Enable
ACHOFFSET	QUANT	0	Ach Offset (V)
ACHFILTER	IQUANT	3	Ach Filter
IERANGELOWERLIMIT	IQUANT	1	I/E Range Lower Limit
IERANGEMODE	TOGGLE	F	I/E AutoRange
IERANGE	IQUANT	7	I/E Range
POSFEEDENABLE	TOGGLE	F	Positive Feedback IR Comp
POSFEEDRESISTANCE	QUANT	0	Positive Feedback Resistance (ohm)
ACHSELECT	IQUANT	0	Ach Select
CABLEID	IQUANT	14	Cable ID
DCCALDATE	LABEL	1/27/2020	DC Calibration Date
ACCALDATE	LABEL	1/27/2020	AC Calibration Date
THERMOSELECT	IQUANT	1	Thermo Select
FRAMEWORKVERSION	QUANT	6.33	Framework Version
INSTRUMENTVERSION	LABEL	3.50	Instrument Version
ZCURVE	TABLE
	Pt	Time	Freq	Zreal	Zimag	Zsig	Zmod	Zphz	Idc	Vdc	IERange
	#	s	Hz	ohm	ohm	V	ohm	°	A	V	#
	0	2	1000078	2187.692	-1313.797	1	2551.874	-30.98651	-2.037575E-006	-0.0478904	8
	1	2	794390.6	2424.952	-1244.637	1	2725.713	-27.16973	2.42828E-007	-0.0481823	8
	2	2	630984.4	2635.881	-1159.796	1	2879.756	-23.74965	9.23553E-008	-0.0484218	8
	3	2	501234.4	2820.991	-1057.039	1	3012.527	-20.54122	4.382988E-007	-0.0486558	8
	4	3	398109.4	2976.48	-956.275	1	3126.323	-17.81103	-3.092033E-007	-0.0484422	8
	5	3	316265.6	3097.464	-858.7509	1	3214.302	-15.49567	-7.836562E-007	-0.0485146	8
	6	3	251203.1	3199.756	-773.4282	1	3291.903	-13.5886	2.088889E-006	-0.0490356	8
	7	4	199546.9	3272.109	-698.4583	1	3345.824	-12.04941	-3.89342E-007	-0.0487194	8
	8	4	158578.1	3349.975	-643.1147	1	3411.148	-10.8672	6.96652E-007	-0.0487995	8
	9	4	125953.1	3421.337	-561.6226	1	3467.127	-9.322132	8.080158E-007	-0.0504422	7
	10	5	100078.1	3475.477	-536.472	1	3516.638	-8.774878	-1.202589E-008	-0.0487141	7
	11	5	79453.13	3522.836	-532.8464	1	3562.906	-8.601074	3.349752E-008	-0.0487495	7
	12	5	63140.62	3570.56	-542	1	3611.462	-8.631431	8.346058E-008	-0.0488255	7
	13	6	50203.12	3620.222	-561.3284	1	3663.482	-8.813731	-3.387572E-008	-0.0486526	7
	14	6	39890.62	3672.095	-594.8138	1	3719.958	-9.200976	1.632256E-009	-0.048699	7
	15	6	31640.63	3728.615	-641.9047	1	3783.466	-9.76808	5.032327E-008	-0.0488038	7
	16	7	25171.88	3789.56	-702.988	1	3854.212	-10.50928	-1.071632E-008	-0.0487297	7
	17	7	20015.62	3857.16	-779.0384	1	3935.046	-11.41853	-3.358191E-008	-0.0485979	7
	18	7	15890.62	3932.691	-873.5769	1	4028.547	-12.52389	9.21141E-009	-0.0487707	7
	19	8	12609.37	4018.121	-987.487	1	4137.684	-13.80729	-1.234468E-008	-0.0487362	7
	20	8	10078.13	4110.674	-1118.418	1	4260.105	-15.22041	3.298086E-009	-0.0487555	7
	21	8	8015.625	4218.353	-1278.799	1	4407.928	-16.86474	3.512274E-008	-0.0487666	7
	22	8	6328.125	4344.771	-1473.712	1	4587.904	-18.73653	8.223773E-009	-0.0487808	7
	23	9	5015.625	4487.322	-1701.391	1	4799.041	-20.76448	3.507428E-008	-0.0487718	7
	24	9	3984.375	4648.126	-1967.103	1	5047.234	-22.93824	5.131715E-008	-0.0488113	7
	25	9	3170.956	4833.043	-2275.216	1	5341.808	-25.2093	3.405384E-008	-0.0487692	7
	26	10	2527.573	5046.178	-2638.266	1	5694.239	-27.60167	-2.63331E-010	-0.0487288	7
	27	10	1976.103	5312.863	-3102.575	1	6152.437	-30.28383	-1.446994E-008	-0.0486923	7
	28	10	1577.524	5596.659	-3600.154	1	6654.6	-32.7519	-1.837758E-008	-0.0486771	7
	29	11	1265.625	5922.914	-4165.401	1	7240.958	-35.11753	1.40059E-008	-0.0486809	7
	30	11	998.264	6331.896	-4880.069	1	7994.247	-37.62188	1.758951E-009	-0.0487272	7
	31	11	796.875	6783.989	-5668.554	1	8840.532	-39.8814	-1.699677E-008	-0.0486788	7
	32	12	627.7902	7356.543	-6637.116	1	9908.08	-42.05696	2.939204E-009	-0.0488211	6
	33	12	505.5147	7952.057	-7664.173	1	11044.22	-43.94387	-4.380305E-009	-0.0486515	6
	34	12	397.9953	8715.037	-8976.038	1	12510.84	-45.84524	7.413484E-010	-0.0487274	6
	35	13	315.5048	9568.69	-10458.18	1	14175.1	-47.54311	1.152644E-009	-0.0487293	6
	36	13	252.4038	10502.26	-12104.4	1	16025.41	-49.05379	9.843413E-010	-0.0487302	6
	37	13	198.6229	11626.37	-14167.71	1	18327.48	-50.62688	6.67902E-010	-0.0487278	6
	38	14	158.3615	12808.59	-16453.91	1	20851.65	-52.10094	2.676239E-010	-0.0487336	6
	39	14	125.558	14140.41	-19235.92	1	23874.08	-53.68023	4.258547E-010	-0.0487356	6
	40	14	100.4464	15544.92	-22423.15	1	27284.47	-55.26826	-1.812825E-011	-0.0487363	6
	41	15	79.00281	17252.41	-26607.84	1	31711.55	-57.0408	4.264598E-010	-0.0487393	6
	42	15	63.3446	18705.17	-31376.02	1	36528.59	-59.19824	8.394824E-010	-0.0487424	6
	43	15	49.86702	20902.05	-37506.58	1	42937.62	-60.86951	2.432344E-010	-0.0487411	6
	44	16	39.72458	23508.28	-44763.58	1	50561.02	-62.29311	5.565538E-010	-0.0487327	6
	45	16	31.6723	26460.12	-53464.12	1	59653.59	-63.66856	7.790713E-010	-0.0487348	6
	46	16	24.93351	30164.4	-64772.73	1	71452.07	-65.02879	1.463568E-010	-0.0487354	6
	47	17	19.86229	34664.13	-77825.55	1	85196.36	-65.99142	-6.223043E-010	-0.0487374	6
	48	17	15.83615	41195.04	-93446.61	1	102123.9	-66.21017	2.256342E-009	-0.0487355	6
	49	17	12.40079	48730.59	-113366.4	1	123396.1	-66.73952	4.567578E-010	-0.0487381	5
	50	17	9.93114	57724.23	-135000	1	146823.3	-66.84908	2.581844E-010	-0.0487416	5
	51	18	7.944915	69233.58	-160584.7	1	174873.5	-66.67747	-5.116412E-010	-0.0487304	5
	52	19	6.317385	84241.05	-190889.6	1	208651.3	-66.18776	-4.157899E-010	-0.048724	5
	53	19	5.008013	103338.1	-226546.2	1	249001.9	-65.48009	-1.587726E-010	-0.0487303	5
	54	20	3.945707	127093.1	-269109	1	297611	-64.71986	-3.165631E-010	-0.0487418	5
	55	22	3.158693	154439.2	-314324.8	1	350216.4	-63.83343	-1.157452E-010	-0.0487451	5
	56	23	2.504006	188628.5	-368257.1	1	413755.9	-62.87758	1.219554E-011	-0.0487381	5
	57	25	1.998082	228666.5	-427019	1	484390	-61.83118	-2.32195E-010	-0.0487776	5
	58	26	1.584686	276754.8	-497025.8	1	568883	-60.88999	-2.69738E-010	-0.0487801	5
	59	28	1.266892	331455.2	-571222.8	1	660422.6	-59.87531	-2.530188E-010	-0.0487501	5
	60	31	0.999041	400628.7	-659280.9	1	771462.7	-58.71398	-2.179561E-010	-0.0487232	5
