EXPLAIN
TAG	EISPOT
TITLE	LABEL	Potentiostatic EIS	Test &Identifier
DATE	LABEL	7/13/2020	Date
TIME	LABEL	21:00:48	Time
NOTES	NOTES	1	&Notes...
	
PSTAT	PSTAT	REF600-11020	Potentiostat
VDC	POTEN	0.00000E+000	T	DC &Voltage (V)
FREQINIT	QUANT	1.00000E+006	Initial Fre&q. (Hz)
FREQFINAL	QUANT	1.00000E+000	Final Fre&q. (Hz)
PTSPERDEC	QUANT	1.00000E+001	Points/&decade
VAC	QUANT	2.50000E+001	AC &Voltage (mV rms)
AREA	QUANT	4.00000E-004	&Area (cm^2)
CONDIT	TWOPARAM	F	5.00000E+000	0.00000E+000	Conditionin&g	Time(s)	E(V)
DELAY	TWOPARAM	F	3.00000E+000	0.00000E+000	Init. De&lay	Time(s)	Stab.(mV/s)
SPEED	SELECTOR	0	&Optimize for:
ZGUESS	QUANT	1.00000E+003	E&stimated Z (ohms)
OCVCURVE	TABLE	39
	Pt	T	Vf	Vm	Ach	Over
	#	s	V vs. Ref.	V	V	bits
	0	0.258333	1.46784E-001	1.46784E-001	5.26350E-004	...........
	1	0.516667	1.46784E-001	1.46769E-001	5.23983E-004	...........
	2	0.775	1.46782E-001	1.46758E-001	5.27617E-004	...........
	3	1.03333	1.46778E-001	1.46745E-001	5.25617E-004	...........
	4	1.29167	1.46769E-001	1.46738E-001	5.28783E-004	...........
	5	1.55	1.46759E-001	1.46729E-001	5.29783E-004	...........
	6	1.80833	1.46749E-001	1.46718E-001	5.22183E-004	...........
	7	2.06667	1.46739E-001	1.46712E-001	5.20717E-004	...........
	8	2.325	1.46729E-001	1.46704E-001	5.23017E-004	...........
	9	2.58333	1.46720E-001	1.46697E-001	5.24017E-004	...........
	10	2.84167	1.46712E-001	1.46691E-001	5.21583E-004	...........
	11	3.1	1.46705E-001	1.46685E-001	5.20483E-004	...........
	12	3.35833	1.46698E-001	1.46678E-001	5.21317E-004	...........
	13	3.61667	1.46691E-001	1.46675E-001	5.21783E-004	...........
	14	3.875	1.46685E-001	1.46670E-001	5.24683E-004	...........
	15	4.13333	1.46680E-001	1.46666E-001	5.22217E-004	...........
	16	4.39167	1.46675E-001	1.46660E-001	5.27117E-004	...........
	17	4.65	1.46670E-001	1.46656E-001	5.26783E-004	...........
	18	4.90833	1.46666E-001	1.46655E-001	5.27050E-004	...........
	19	5.16667	1.46662E-001	1.46652E-001	5.25317E-004	...........
	20	5.425	1.46658E-001	1.46652E-001	5.22850E-004	...........
	21	5.68333	1.46655E-001	1.46647E-001	5.25717E-004	...........
	22	5.94167	1.46653E-001	1.46644E-001	5.26550E-004	...........
	23	6.2	1.46650E-001	1.46640E-001	5.26117E-004	...........
	24	6.45833	1.46648E-001	1.46639E-001	5.27350E-004	...........
	25	6.71667	1.46644E-001	1.46634E-001	5.24450E-004	...........
	26	6.975	1.46641E-001	1.46633E-001	5.19983E-004	...........
	27	7.23333	1.46638E-001	1.46630E-001	5.23650E-004	...........
	28	7.49167	1.46635E-001	1.46627E-001	5.24417E-004	...........
	29	7.75	1.46633E-001	1.46625E-001	5.25683E-004	...........
	30	8.00833	1.46630E-001	1.46622E-001	5.27850E-004	...........
	31	8.26667	1.46627E-001	1.46617E-001	5.25950E-004	...........
	32	8.525	1.46625E-001	1.46618E-001	5.23317E-004	...........
	33	8.78333	1.46622E-001	1.46617E-001	5.20850E-004	...........
	34	9.04167	1.46620E-001	1.46615E-001	5.23417E-004	...........
	35	9.3	1.46618E-001	1.46613E-001	5.24817E-004	...........
	36	9.5583	1.46616E-001	1.46613E-001	5.30383E-004	...........
	37	9.8167	1.46615E-001	1.46610E-001	5.21417E-004	...........
	38	10.075	1.46614E-001	1.46612E-001	5.20717E-004	...........
EOC	QUANT	0.1466136	Open Circuit (V)
PSTATMODEL	IQUANT	4	Pstat Model
PSTATSECTION	LABEL	REF600-11020	Pstat Section
PSTATSERIALNO	LABEL	11020	Pstat Serial Number
CTRLMODE	IQUANT	1	Control Mode
IESTAB	IQUANT	0	I/E Stability
CASPEED	IQUANT	1	Control Amp Speed
CONVENTION	IQUANT	1	Current Convention
ICHRANGE	IQUANT	2	Ich Range
ICHRANGEMODE	TOGGLE	F	Ich Auto Range
ICHOFFSETENABLE	TOGGLE	T	Ich Offset Enable
ICHOFFSET	QUANT	0	Ich Offset (V)
ICHFILTER	IQUANT	3	Ich Filter
VCHRANGE	IQUANT	2	Vch Range
VCHRANGEMODE	TOGGLE	F	Vch Auto Range
VCHOFFSETENABLE	TOGGLE	T	Vch Offset Enable
VCHOFFSET	QUANT	0	Vch Offset (V)
VCHFILTER	IQUANT	3	Vch Filter
ACHRANGE	IQUANT	2	Ach Range
ACHOFFSETENABLE	TOGGLE	F	Ach Offset Enable
ACHOFFSET	QUANT	0	Ach Offset (V)
ACHFILTER	IQUANT	3	Ach Filter
IERANGELOWERLIMIT	IQUANT	1	I/E Range Lower Limit
IERANGEMODE	TOGGLE	F	I/E AutoRange
IERANGE	IQUANT	8	I/E Range
POSFEEDENABLE	TOGGLE	F	Positive Feedback IR Comp
POSFEEDRESISTANCE	QUANT	0	Positive Feedback Resistance (ohm)
ACHSELECT	IQUANT	0	Ach Select
CABLEID	IQUANT	14	Cable ID
DCCALDATE	LABEL	6/26/2020	DC Calibration Date
ACCALDATE	LABEL	6/26/2020	AC Calibration Date
THERMOSELECT	IQUANT	1	Thermo Select
FRAMEWORKVERSION	QUANT	6.33	Framework Version
INSTRUMENTVERSION	LABEL	3.50	Instrument Version
ZCURVE	TABLE
	Pt	Time	Freq	Zreal	Zimag	Zsig	Zmod	Zphz	Idc	Vdc	IERange
	#	s	Hz	ohm	ohm	V	ohm	°	A	V	#
	0	1	1000078	1387.769	-2014.851	1	2446.533	-55.44209	3.497178E-008	0.1486682	8
	1	1	794390.6	1672.058	-2273.806	1	2822.406	-53.67085	-1.204739E-007	0.1484143	8
	2	2	630984.4	2001.18	-2549.486	1	3241.08	-51.8704	-7.226814E-008	0.1483023	8
	3	2	501234.4	2372.934	-2833.775	1	3696.092	-50.05801	-1.203916E-009	0.1482088	8
	4	2	398109.4	2810.817	-3128.53	1	4205.757	-48.06201	7.091575E-008	0.148186	8
	5	3	316265.6	3283.898	-3438.219	1	4754.507	-46.31511	-2.372831E-008	0.1481554	8
	6	3	251203.1	3819.355	-3726.939	1	5336.436	-44.29836	1.409967E-007	0.1481439	8
	7	3	199546.9	4432.627	-4022.865	1	5985.952	-42.22556	6.813451E-008	0.1481295	8
	8	4	158578.1	5075.086	-4300.715	1	6652.267	-40.27851	7.288469E-008	0.1481625	8
	9	4	125953.1	5892.817	-4496.815	1	7412.6	-37.34729	1.218844E-008	0.1481951	7
	10	4	100078.1	6662.112	-4731.656	1	8171.432	-35.38365	2.484366E-008	0.1481013	7
	11	5	79453.13	7477.259	-4914.657	1	8947.808	-33.31614	7.102791E-009	0.1481353	7
	12	5	63140.62	8332.058	-5039.325	1	9737.45	-31.16604	-2.696919E-008	0.1481471	7
	13	5	50203.12	9210.489	-5101.443	1	10528.91	-28.98089	-2.709468E-008	0.1481296	7
	14	6	39890.62	10104.61	-5087.41	1	11313.04	-26.72406	-2.911978E-008	0.1481417	7
	15	6	31640.63	10985.64	-4993.395	1	12067.24	-24.44362	2.198358E-008	0.1480981	7
	16	6	25171.88	11830.38	-4833.911	1	12779.85	-22.22499	2.295075E-008	0.1480948	7
	17	6	20015.62	12626.23	-4610.48	1	13441.66	-20.05972	-2.231698E-008	0.148119	7
	18	7	15890.62	13346.12	-4332.852	1	14031.84	-17.98616	1.963107E-008	0.1480599	7
	19	7	12609.37	14123.06	-3822.186	1	14631.13	-15.14345	5.057139E-010	0.1480451	6
	20	7	10078.13	14631.96	-3549.458	1	15056.33	-13.63556	-6.009913E-010	0.1481416	6
	21	8	8015.625	15064.36	-3284.26	1	15418.22	-12.2989	3.953651E-009	0.1480721	6
	22	8	6328.125	15425.84	-3056.333	1	15725.7	-11.20691	-4.395215E-009	0.1481544	6
	23	8	5015.625	15722.54	-2892.878	1	15986.46	-10.42556	4.879039E-010	0.1481288	6
	24	9	3984.375	15967.58	-2802.384	1	16211.64	-9.95429	3.893333E-009	0.1480687	6
	25	9	3170.956	16175.33	-2793.646	1	16414.8	-9.79891	-3.618398E-009	0.1481046	6
	26	9	2527.573	16357.71	-2871.548	1	16607.84	-9.95666	-4.018295E-009	0.1481519	6
	27	10	1976.103	16543.3	-3067.409	1	16825.27	-10.50432	1.117674E-009	0.1480328	6
	28	10	1577.524	16709.55	-3353.736	1	17042.79	-11.34891	1.535385E-009	0.1480366	6
	29	10	1265.625	16877.95	-3750.281	1	17289.59	-12.52759	-1.197622E-009	0.1480643	6
	30	11	998.264	17081.01	-4322.091	1	17619.35	-14.19978	-3.553601E-009	0.1481533	6
	31	11	796.875	17289.38	-5023.824	1	18004.49	-16.20242	-4.899341E-009	0.1481437	6
	32	11	627.7902	17547.77	-5968.336	1	18534.98	-18.78416	2.289505E-009	0.1480238	6
	33	12	505.5147	17820.85	-7036.354	1	19159.67	-21.54601	-2.857673E-009	0.1480789	6
	34	12	397.9953	18186.26	-8495.294	1	20072.62	-25.03856	6.724602E-011	0.1481133	6
	35	12	315.5048	18610.87	-10246.46	1	21245.1	-28.83557	-6.433902E-011	0.1481125	6
	36	13	252.4038	19108.6	-12306.03	1	22728.33	-32.78173	-1.501298E-010	0.1481041	6
	37	13	198.6229	19787.11	-15017.28	1	24840.46	-37.1964	3.410465E-012	0.1481015	6
	38	13	158.3615	20599.78	-18156.87	1	27459.48	-41.39331	-2.240052E-010	0.1481005	6
	39	14	125.558	21650.1	-22081.76	1	30924.6	-45.56552	-3.787857E-010	0.1481075	6
	40	14	100.4464	22956.32	-26666.97	1	35186.93	-49.27641	-3.793846E-010	0.1481074	6
	41	14	79.00281	24770.55	-32672.05	1	41000.52	-52.83216	1.657496E-011	0.1480989	6
	42	15	63.3446	26954.8	-39359.05	1	47704.26	-55.59496	1.599213E-010	0.1480957	6
	43	15	49.86702	30102.74	-48075.29	1	56722.2	-57.94693	4.754946E-011	0.1480954	6
	44	15	39.72458	34091.14	-58009.88	1	67285.6	-59.55817	-9.562973E-011	0.1480977	6
	45	16	31.6723	39332.48	-69690.24	1	80023.59	-60.56005	-3.837311E-010	0.1480952	6
	46	16	24.93351	46693.28	-84108.52	1	96200.3	-60.96293	-2.24105E-010	0.1480973	6
	47	16	19.86229	55843.39	-99838.6	1	114395.1	-60.78012	-1.953371E-009	0.1480867	5
	48	16	15.83615	67643.84	-117369.9	1	135467.3	-60.04385	7.396182E-010	0.1480851	5
	49	17	12.40079	84196.69	-138216.6	1	161842.2	-58.6517	-1.208632E-009	0.1480918	5
	50	17	9.93114	102262.2	-158491.9	1	188619.3	-57.16906	-5.13515E-010	0.1480793	5
	51	17	7.944915	123624.8	-178932.4	1	217485.4	-55.35933	1.731061E-009	0.148086	5
	52	18	6.317385	149311.8	-201236.5	1	250579.6	-53.42563	-5.464817E-010	0.1481049	5
	53	19	5.008013	177906.7	-223989.5	1	286045.6	-51.54115	-5.922419E-010	0.1480793	5
	54	20	3.945707	208595.3	-246821.1	1	323160.4	-49.79793	2.799729E-010	0.148095	5
	55	20	3.158693	238750.8	-270270.8	1	360622	-48.54338	-3.487416E-010	0.1480935	5
	56	21	2.504006	269470.1	-296688.7	1	400797.1	-47.75242	-7.178816E-011	0.1480841	5
	57	23	1.998082	299892.1	-327314.9	1	443926.1	-47.5035	2.288297E-010	0.1481188	5
	58	24	1.584686	329723.3	-365388.8	1	492165.1	-47.93721	8.177223E-011	0.1480817	5
	59	26	1.266892	360875.3	-410350.1	1	546459.7	-48.67054	-2.722439E-011	0.148047	5
	60	29	0.999041	396202.9	-471183.4	1	615622.1	-49.94061	-7.79902E-011	0.1480375	5
