EXPLAIN
TAG	EISPOT
TITLE	LABEL	Potentiostatic EIS	Test &Identifier
DATE	LABEL	3/20/2020	Date
TIME	LABEL	14:20:22	Time
NOTES	NOTES	1	&Notes...
	
PSTAT	PSTAT	REF600-11020	Potentiostat
VDC	POTEN	0.00000E+000	T	DC &Voltage (V)
FREQINIT	QUANT	1.00000E+006	Initial Fre&q. (Hz)
FREQFINAL	QUANT	1.00000E+000	Final Fre&q. (Hz)
PTSPERDEC	QUANT	1.00000E+001	Points/&decade
VAC	QUANT	2.50000E+001	AC &Voltage (mV rms)
AREA	QUANT	4.00000E-004	&Area (cm^2)
CONDIT	TWOPARAM	F	5.00000E+000	0.00000E+000	Conditionin&g	Time(s)	E(V)
DELAY	TWOPARAM	T	3.00000E+000	0.00000E+000	Init. De&lay	Time(s)	Stab.(mV/s)
SPEED	SELECTOR	0	&Optimize for:
ZGUESS	QUANT	1.00000E+003	E&stimated Z (ohms)
OCVCURVE	TABLE	12
	Pt	T	Vf	Vm	Ach	Over
	#	s	V vs. Ref.	V	V	bits
	0	0.258333	1.85056E-002	1.85056E-002	5.94330E-004	...........
	1	0.516667	1.85053E-002	1.84922E-002	5.93430E-004	...........
	2	0.775	1.85033E-002	1.84562E-002	5.92930E-004	...........
	3	1.03333	1.84961E-002	1.84202E-002	5.91063E-004	...........
	4	1.29167	1.84805E-002	1.84033E-002	5.87996E-004	...........
	5	1.55	1.84578E-002	1.83977E-002	5.91263E-004	...........
	6	1.80833	1.84342E-002	1.84155E-002	5.89763E-004	...........
	7	2.06667	1.84170E-002	1.84145E-002	5.88197E-004	...........
	8	2.325	1.84090E-002	1.83921E-002	5.90930E-004	...........
	9	2.58333	1.84063E-002	1.83806E-002	5.89330E-004	...........
	10	2.84167	1.84023E-002	1.83703E-002	5.86397E-004	...........
	11	3.1	1.83947E-002	1.83848E-002	5.88963E-004	...........
EOC	QUANT	0.0183947	Open Circuit (V)
PSTATMODEL	IQUANT	4	Pstat Model
PSTATSECTION	LABEL	REF600-11020	Pstat Section
PSTATSERIALNO	LABEL	11020	Pstat Serial Number
CTRLMODE	IQUANT	1	Control Mode
IESTAB	IQUANT	0	I/E Stability
CASPEED	IQUANT	1	Control Amp Speed
CONVENTION	IQUANT	1	Current Convention
ICHRANGE	IQUANT	2	Ich Range
ICHRANGEMODE	TOGGLE	F	Ich Auto Range
ICHOFFSETENABLE	TOGGLE	T	Ich Offset Enable
ICHOFFSET	QUANT	0	Ich Offset (V)
ICHFILTER	IQUANT	3	Ich Filter
VCHRANGE	IQUANT	2	Vch Range
VCHRANGEMODE	TOGGLE	F	Vch Auto Range
VCHOFFSETENABLE	TOGGLE	T	Vch Offset Enable
VCHOFFSET	QUANT	0	Vch Offset (V)
VCHFILTER	IQUANT	3	Vch Filter
ACHRANGE	IQUANT	2	Ach Range
ACHOFFSETENABLE	TOGGLE	F	Ach Offset Enable
ACHOFFSET	QUANT	0	Ach Offset (V)
ACHFILTER	IQUANT	3	Ach Filter
IERANGELOWERLIMIT	IQUANT	1	I/E Range Lower Limit
IERANGEMODE	TOGGLE	F	I/E AutoRange
IERANGE	IQUANT	7	I/E Range
POSFEEDENABLE	TOGGLE	F	Positive Feedback IR Comp
POSFEEDRESISTANCE	QUANT	0	Positive Feedback Resistance (ohm)
ACHSELECT	IQUANT	0	Ach Select
CABLEID	IQUANT	14	Cable ID
DCCALDATE	LABEL	2/27/2020	DC Calibration Date
ACCALDATE	LABEL	2/27/2020	AC Calibration Date
THERMOSELECT	IQUANT	1	Thermo Select
FRAMEWORKVERSION	QUANT	6.33	Framework Version
INSTRUMENTVERSION	LABEL	3.50	Instrument Version
ZCURVE	TABLE
	Pt	Time	Freq	Zreal	Zimag	Zsig	Zmod	Zphz	Idc	Vdc	IERange
	#	s	Hz	ohm	ohm	V	ohm	°	A	V	#
	0	1	1000078	1902.184	-1925.641	1	2706.732	-45.35111	4.803404E-007	0.0209223	8
	1	1	794390.6	2193.755	-2060.42	1	3009.633	-43.20481	2.133807E-007	0.0205685	8
	2	1	630984.4	2490.298	-2196.573	1	3320.621	-41.41398	5.957878E-007	0.0203911	8
	3	2	501234.4	2802.335	-2350.74	1	3657.74	-39.99162	-1.322332E-007	0.0203333	8
	4	2	398109.4	3127.113	-2520.233	1	4016.268	-38.86637	-5.463338E-008	0.020258	8
	5	2	316265.6	3479.625	-2716.453	1	4414.397	-37.97824	6.393756E-007	0.0201161	8
	6	3	251203.1	3870.992	-2932.936	1	4856.614	-37.15013	5.463347E-007	0.0201588	8
	7	3	199546.9	4337.633	-3160.358	1	5366.835	-36.07672	2.070145E-007	0.0201529	8
	8	3	158578.1	4860.431	-3398.061	1	5930.481	-34.95846	6.185177E-007	0.0201091	8
	9	4	125953.1	5523.229	-3525.793	1	6552.654	-32.55241	9.392534E-008	0.0199466	7
	10	4	100078.1	6149.875	-3678.801	1	7166.208	-30.88749	-6.804524E-010	0.0201366	7
	11	4	79453.13	6850.81	-3772.177	1	7820.672	-28.83796	-8.948518E-010	0.0201296	7
	12	5	63140.62	7572.287	-3764.117	1	8456.246	-26.43157	9.794117E-009	0.020101	7
	13	5	50203.12	8269.901	-3661.952	1	9044.399	-23.88399	3.569343E-009	0.0201154	7
	14	5	39890.62	8929.257	-3485.181	1	9585.31	-21.32121	2.110103E-009	0.0201302	7
	15	6	31640.63	9507.26	-3230.961	1	10041.27	-18.76988	-6.368875E-009	0.0201243	7
	16	6	25171.88	9998.58	-2959.538	1	10427.39	-16.48853	4.014428E-009	0.020101	7
	17	6	20015.62	10406.96	-2686.756	1	10748.19	-14.47591	-4.491479E-010	0.0201189	7
	18	6	15890.62	10736.2	-2429.429	1	11007.64	-12.75038	-2.916828E-009	0.0201156	7
	19	7	12609.37	11066.47	-2080.543	1	11260.35	-10.64756	-5.888496E-010	0.0201634	6
	20	7	10078.13	11264.82	-1929.548	1	11428.88	-9.71985	-3.402163E-010	0.0201639	6
	21	7	8015.625	11442.63	-1823.876	1	11587.07	-9.056371	-3.197511E-010	0.0201547	6
	22	8	6328.125	11596.65	-1762.798	1	11729.87	-8.643322	5.455159E-010	0.0201613	6
	23	8	5015.625	11742.29	-1754.854	1	11872.7	-8.499794	-1.350447E-010	0.0201699	6
	24	8	3984.375	11876.41	-1792.5	1	12010.92	-8.582842	-1.822265E-010	0.0201684	6
	25	9	3170.956	12014.31	-1883.508	1	12161.06	-8.909855	-1.268465E-009	0.0201688	6
	26	9	2527.573	12151.39	-2028.561	1	12319.55	-9.477593	-6.568289E-010	0.020165	6
	27	9	1976.103	12295.64	-2253.438	1	12500.43	-10.38542	-1.010773E-009	0.0201512	6
	28	10	1577.524	12438.62	-2532.517	1	12693.81	-11.50819	-1.272374E-009	0.0201669	6
	29	10	1265.625	12585.73	-2885.165	1	12912.2	-12.91145	-2.06404E-009	0.0201683	6
	30	10	998.264	12765.99	-3371.442	1	13203.68	-14.7938	-1.575093E-009	0.0201678	6
	31	11	796.875	12964.48	-3951.743	1	13553.38	-16.95191	-2.206711E-009	0.0201675	6
	32	11	627.7902	13192.73	-4719.249	1	14011.41	-19.68293	2.147248E-011	0.02015	6
	33	11	505.5147	13442.17	-5578.311	1	14553.68	-22.53776	-1.105006E-009	0.0201463	6
	34	12	397.9953	13780.82	-6745.64	1	15343.23	-26.08151	-1.846287E-010	0.0201634	6
	35	12	315.5048	14161.82	-8134.836	1	16331.96	-29.87393	-1.831236E-010	0.0201613	6
	36	12	252.4038	14641.03	-9755.74	1	17593.58	-33.67666	-1.292904E-010	0.0201585	6
	37	13	198.6229	15269.69	-11866.71	1	19338.62	-37.85225	-2.408209E-010	0.0201556	6
	38	13	158.3615	16007.48	-14283.32	1	21453.49	-41.74223	-1.706323E-010	0.0201533	6
	39	13	125.558	16944.26	-17266.89	1	24192.01	-45.54032	-1.101253E-010	0.020157	6
	40	13	100.4464	18042.5	-20710.04	1	27467.03	-48.93777	-2.572234E-010	0.0201552	6
	41	14	79.00281	19514.26	-25173.91	1	31851.72	-52.21795	-1.382309E-010	0.0201571	6
	42	14	63.3446	21196.18	-30132.79	1	36841.05	-54.87646	-2.526304E-010	0.0201529	6
	43	15	49.86702	23443.29	-36547.11	1	43419.8	-57.32169	5.084371E-011	0.020146	6
	44	15	39.72458	26127.06	-43864.99	1	51056.45	-59.22094	-2.525203E-010	0.0201569	6
	45	15	31.6723	29452.84	-52567.79	1	60256.47	-60.73883	-3.565892E-010	0.0201492	6
	46	16	24.93351	33875.76	-63539.61	1	72005.89	-61.93596	-1.720997E-010	0.0201479	6
	47	16	19.86229	39170.04	-75979.91	1	85482.38	-62.72746	-1.227423E-009	0.0201463	6
	48	16	15.83615	45837.3	-90507.92	1	101453.1	-63.14029	7.681439E-010	0.0201527	6
	49	16	12.40079	54947.73	-108901.1	1	121978.3	-63.22606	2.020892E-010	0.0201522	5
	50	17	9.93114	65467.95	-128450.1	1	144171.7	-62.99315	3.857255E-010	0.0201513	5
	51	17	7.944915	78527.08	-150791.7	1	170013.7	-62.49107	9.357379E-010	0.0201475	5
	52	18	6.317385	95302	-177381	1	201361.6	-61.75205	-3.354673E-010	0.020171	5
	53	18	5.008013	116535	-207724.7	1	238180.5	-60.70727	-2.952504E-010	0.0201584	5
	54	19	3.945707	142956	-242128	1	281180.3	-59.44176	3.759206E-010	0.0201603	5
	55	20	3.158693	173241.7	-277411	1	327062	-58.01544	-2.504814E-010	0.0201658	5
	56	21	2.504006	209913.4	-317119.2	1	380300.2	-56.49789	-2.281804E-010	0.0201539	5
	57	22	1.998082	251645.6	-357865.8	1	437485.3	-54.88572	2.407321E-010	0.0201957	5
	58	24	1.584686	299047.4	-403248.3	1	502034.4	-53.43951	1.789048E-010	0.0201762	5
	59	26	1.266892	350786.1	-448582.8	1	569453.6	-51.97504	1.027857E-010	0.0201402	5
	60	28	0.999041	412163.7	-501016.6	1	648765.4	-50.55742	2.833808E-011	0.0201145	5
