EXPLAIN
TAG	EISPOT
TITLE	LABEL	Potentiostatic EIS	Test &Identifier
DATE	LABEL	6/1/2020	Date
TIME	LABEL	13:47:28	Time
NOTES	NOTES	1	&Notes...
	
PSTAT	PSTAT	REF600-11020	Potentiostat
VDC	POTEN	0.00000E+000	T	DC &Voltage (V)
FREQINIT	QUANT	1.00000E+006	Initial Fre&q. (Hz)
FREQFINAL	QUANT	1.00000E+000	Final Fre&q. (Hz)
PTSPERDEC	QUANT	1.00000E+001	Points/&decade
VAC	QUANT	2.50000E+001	AC &Voltage (mV rms)
AREA	QUANT	4.00000E-004	&Area (cm^2)
CONDIT	TWOPARAM	F	5.00000E+000	0.00000E+000	Conditionin&g	Time(s)	E(V)
DELAY	TWOPARAM	T	3.00000E+000	0.00000E+000	Init. De&lay	Time(s)	Stab.(mV/s)
SPEED	SELECTOR	0	&Optimize for:
ZGUESS	QUANT	1.00000E+003	E&stimated Z (ohms)
OCVCURVE	TABLE	12
	Pt	T	Vf	Vm	Ach	Over
	#	s	V vs. Ref.	V	V	bits
	0	0.258333	4.71859E-002	4.71859E-002	5.65663E-004	...........
	1	0.516667	4.71858E-002	4.71804E-002	5.70663E-004	...........
	2	0.775	4.71851E-002	4.71747E-002	5.71463E-004	...........
	3	1.03333	4.71832E-002	4.71656E-002	5.66197E-004	...........
	4	1.29167	4.71794E-002	4.71585E-002	5.66130E-004	...........
	5	1.55	4.71737E-002	4.71513E-002	5.68930E-004	...........
	6	1.80833	4.71668E-002	4.71448E-002	5.66263E-004	...........
	7	2.06667	4.71596E-002	4.71406E-002	5.67530E-004	...........
	8	2.325	4.71526E-002	4.71309E-002	5.71430E-004	...........
	9	2.58333	4.71459E-002	4.71293E-002	5.69597E-004	...........
	10	2.84167	4.71396E-002	4.71200E-002	5.67797E-004	...........
	11	3.1	4.71336E-002	4.71154E-002	5.67297E-004	...........
EOC	QUANT	0.0471336	Open Circuit (V)
PSTATMODEL	IQUANT	4	Pstat Model
PSTATSECTION	LABEL	REF600-11020	Pstat Section
PSTATSERIALNO	LABEL	11020	Pstat Serial Number
CTRLMODE	IQUANT	1	Control Mode
IESTAB	IQUANT	0	I/E Stability
CASPEED	IQUANT	1	Control Amp Speed
CONVENTION	IQUANT	1	Current Convention
ICHRANGE	IQUANT	2	Ich Range
ICHRANGEMODE	TOGGLE	F	Ich Auto Range
ICHOFFSETENABLE	TOGGLE	T	Ich Offset Enable
ICHOFFSET	QUANT	0	Ich Offset (V)
ICHFILTER	IQUANT	3	Ich Filter
VCHRANGE	IQUANT	2	Vch Range
VCHRANGEMODE	TOGGLE	F	Vch Auto Range
VCHOFFSETENABLE	TOGGLE	T	Vch Offset Enable
VCHOFFSET	QUANT	0	Vch Offset (V)
VCHFILTER	IQUANT	3	Vch Filter
ACHRANGE	IQUANT	2	Ach Range
ACHOFFSETENABLE	TOGGLE	F	Ach Offset Enable
ACHOFFSET	QUANT	0	Ach Offset (V)
ACHFILTER	IQUANT	3	Ach Filter
IERANGELOWERLIMIT	IQUANT	1	I/E Range Lower Limit
IERANGEMODE	TOGGLE	F	I/E AutoRange
IERANGE	IQUANT	7	I/E Range
POSFEEDENABLE	TOGGLE	F	Positive Feedback IR Comp
POSFEEDRESISTANCE	QUANT	0	Positive Feedback Resistance (ohm)
ACHSELECT	IQUANT	0	Ach Select
CABLEID	IQUANT	14	Cable ID
DCCALDATE	LABEL	2/27/2020	DC Calibration Date
ACCALDATE	LABEL	2/27/2020	AC Calibration Date
THERMOSELECT	IQUANT	1	Thermo Select
FRAMEWORKVERSION	QUANT	6.33	Framework Version
INSTRUMENTVERSION	LABEL	3.50	Instrument Version
ZCURVE	TABLE
	Pt	Time	Freq	Zreal	Zimag	Zsig	Zmod	Zphz	Idc	Vdc	IERange
	#	s	Hz	ohm	ohm	V	ohm	°	A	V	#
	0	1	1000078	1715.291	-1129.089	1	2053.549	-33.35488	4.907107E-008	0.0496399	8
	1	1	794390.6	1915.697	-1125.112	1	2221.659	-30.42623	1.51013E-008	0.0493176	8
	2	1	630984.4	2106.563	-1106.953	1	2379.696	-27.72094	7.475973E-008	0.0491471	8
	3	2	501234.4	2285.907	-1077.041	1	2526.933	-25.22821	5.064018E-008	0.0490231	8
	4	2	398109.4	2452.958	-1039.327	1	2664.058	-22.96254	6.424452E-008	0.0489699	8
	5	2	316265.6	2603.645	-999.706	1	2788.975	-21.00498	2.914468E-008	0.0489323	8
	6	3	251203.1	2746.59	-962.462	1	2910.342	-19.31153	5.082086E-008	0.0489186	8
	7	3	199546.9	2875.511	-926.2538	1	3021.011	-17.85468	5.312759E-008	0.0489258	8
	8	3	158578.1	2993.992	-900.2229	1	3126.402	-16.7348	6.17604E-008	0.0489484	8
	9	4	125953.1	3130.586	-840.3054	1	3241.402	-15.02505	1.488287E-009	0.0488683	7
	10	4	100078.1	3227.364	-830.3248	1	3332.464	-14.42795	3.143483E-009	0.0488524	7
	11	4	79453.13	3330.476	-839.8122	1	3434.728	-14.15265	2.29655E-009	0.048852	7
	12	4	63140.62	3434.896	-856.5794	1	3540.091	-14.00257	1.316725E-009	0.0488436	7
	13	5	50203.12	3540.049	-881.1774	1	3648.071	-13.97781	1.899613E-009	0.048844	7
	14	5	39890.62	3648.164	-914.6736	1	3761.08	-14.07515	1.465173E-009	0.048841	7
	15	5	31640.63	3762.012	-959.075	1	3882.339	-14.30215	2.991971E-009	0.0488533	7
	16	6	25171.88	3878.582	-1012.317	1	4008.514	-14.62797	2.790381E-009	0.0488475	7
	17	6	20015.62	4001.251	-1077.171	1	4143.707	-15.0673	4.101517E-009	0.0488491	7
	18	6	15890.62	4130.656	-1153.716	1	4288.75	-15.60535	1.912177E-009	0.0488424	7
	19	7	12609.37	4266.202	-1244.161	1	4443.919	-16.25838	1.913731E-009	0.0488361	7
	20	7	10078.13	4405.223	-1348.79	1	4607.084	-17.02353	2.335682E-009	0.0488439	7
	21	7	8015.625	4554.259	-1473.937	1	4786.833	-17.93361	1.812177E-009	0.048838	7
	22	8	6328.125	4715.875	-1628.054	1	4988.991	-19.04613	2.818594E-009	0.0488387	7
	23	8	5015.625	4884.017	-1809.805	1	5208.552	-20.33253	2.968633E-009	0.0488424	7
	24	8	3984.375	5060.85	-2024.604	1	5450.8	-21.80399	2.338907E-009	0.0488417	7
	25	9	3170.956	5246.515	-2283.349	1	5721.853	-23.51927	3.928216E-009	0.0488452	7
	26	9	2527.573	5445.478	-2592.547	1	6031.13	-25.45874	1.168437E-009	0.0488317	7
	27	9	1976.103	5680.505	-3002.24	1	6425.075	-27.85718	5.472904E-009	0.0488439	7
	28	10	1577.524	5920.628	-3458.782	1	6856.895	-30.29312	3.785949E-009	0.0488381	7
	29	10	1265.625	6183.927	-3992.934	1	7361.01	-32.85015	3.410882E-009	0.0488353	7
	30	10	998.264	6497.809	-4684.479	1	8010.36	-35.78905	5.858672E-009	0.048839	7
	31	11	796.875	6842.198	-5466.582	1	8757.808	-38.62314	2.84378E-009	0.0488275	7
	32	11	627.7902	7245.913	-6473.099	1	9716.19	-41.77584	-6.030373E-011	0.0488855	6
	33	11	505.5147	7660.139	-7581.329	1	10777.49	-44.70374	-3.847644E-010	0.0488802	6
	34	11	397.9953	8172.742	-9060.073	1	12201.58	-47.9476	5.125312E-010	0.0489034	6
	35	12	315.5048	8745.774	-10815.67	1	13909.25	-51.04029	3.927285E-010	0.0489008	6
	36	12	252.4038	9380.32	-12865.58	1	15922.11	-53.90413	4.39145E-010	0.0488962	6
	37	12	198.6229	10181.68	-15550.47	1	18587.2	-56.7852	3.787846E-010	0.048896	6
	38	13	158.3615	11081.02	-18650.4	1	21693.92	-59.2836	3.430495E-010	0.0488956	6
	39	13	125.558	12183.43	-22513.56	1	25598.76	-61.57954	4.086984E-010	0.0488953	6
	40	13	100.4464	13458.65	-27021.62	1	30187.79	-63.52349	3.477631E-010	0.0488941	6
	41	14	79.00281	15125.48	-32933.65	1	36240.94	-65.33205	3.454171E-010	0.0488893	6
	42	14	63.3446	17003.31	-39545.92	1	43046.4	-66.73405	3.455681E-010	0.048891	6
	43	14	49.86702	19517.79	-48253.27	1	52051.15	-67.97734	1.125613E-010	0.0488916	6
	44	15	39.72458	22517.45	-58330.41	1	62525.77	-68.89178	2.22335E-010	0.0488964	6
	45	15	31.6723	26274.65	-70448.93	1	75189.16	-69.54648	2.594421E-010	0.0488913	6
	46	15	24.93351	31416.28	-85997.41	1	91556.2	-69.93192	3.714503E-011	0.04889	6
	47	16	19.86229	37645.04	-103723.7	1	110343.8	-70.05235	-7.894299E-010	0.0488912	5
	48	16	15.83615	45734.01	-124811.8	1	132927	-69.87597	3.933437E-010	0.0488932	5
	49	16	12.40079	57218.59	-152033.8	1	162444.6	-69.37595	-3.201208E-010	0.0488924	5
	50	17	9.93114	70588.77	-181141.2	1	194409.2	-68.70968	-1.789438E-010	0.0488837	5
	51	17	7.944915	87901.52	-214783.8	1	232074.9	-67.74288	7.96608E-010	0.0488873	5
	52	17	6.317385	110510.3	-255072.6	1	277983.1	-66.5753	-1.722142E-010	0.0489038	5
	53	18	5.008013	139626.3	-301470.4	1	332234.7	-65.14874	-3.022036E-010	0.0488859	5
	54	19	3.945707	177272	-354030.6	1	395933.1	-63.40173	1.602234E-010	0.048895	5
	55	20	3.158693	220304.1	-408920.8	1	464489.1	-61.68665	-1.81969E-010	0.0488901	5
	56	21	2.504006	273599.3	-469490.8	1	543395.1	-59.76818	2.623679E-011	0.0488835	5
	57	22	1.998082	333838.6	-533071.3	1	628977.9	-57.94294	2.130325E-010	0.0489254	5
	58	24	1.584686	402809.7	-600480.8	1	723071.8	-56.14582	1.166376E-010	0.0488826	5
	59	26	1.266892	479065.5	-670773.4	1	824281.9	-54.46563	5.327759E-011	0.0488532	5
	60	28	0.999041	566239.4	-753221.9	1	942321.8	-53.06575	4.234045E-012	0.0488478	5
