EXPLAIN
TAG	EISPOT
TITLE	LABEL	Potentiostatic EIS	Test &Identifier
DATE	LABEL	3/20/2020	Date
TIME	LABEL	14:34:33	Time
NOTES	NOTES	1	&Notes...
	
PSTAT	PSTAT	REF600-11020	Potentiostat
VDC	POTEN	0.00000E+000	T	DC &Voltage (V)
FREQINIT	QUANT	1.00000E+006	Initial Fre&q. (Hz)
FREQFINAL	QUANT	1.00000E+000	Final Fre&q. (Hz)
PTSPERDEC	QUANT	1.00000E+001	Points/&decade
VAC	QUANT	2.50000E+001	AC &Voltage (mV rms)
AREA	QUANT	4.00000E-004	&Area (cm^2)
CONDIT	TWOPARAM	F	5.00000E+000	0.00000E+000	Conditionin&g	Time(s)	E(V)
DELAY	TWOPARAM	T	3.00000E+000	0.00000E+000	Init. De&lay	Time(s)	Stab.(mV/s)
SPEED	SELECTOR	0	&Optimize for:
ZGUESS	QUANT	1.00000E+003	E&stimated Z (ohms)
OCVCURVE	TABLE	12
	Pt	T	Vf	Vm	Ach	Over
	#	s	V vs. Ref.	V	V	bits
	0	0.258333	-1.66840E-001	-1.66840E-001	5.84497E-004	...........
	1	0.516667	-1.66842E-001	-1.66909E-001	5.84963E-004	...........
	2	0.775	-1.66850E-001	-1.66984E-001	5.78830E-004	...........
	3	1.03333	-1.66874E-001	-1.67055E-001	5.79463E-004	...........
	4	1.29167	-1.66918E-001	-1.67128E-001	5.82197E-004	...........
	5	1.55	-1.66978E-001	-1.67203E-001	5.81363E-004	...........
	6	1.80833	-1.67048E-001	-1.67272E-001	5.81930E-004	...........
	7	2.06667	-1.67121E-001	-1.67346E-001	5.78997E-004	...........
	8	2.325	-1.67195E-001	-1.67422E-001	5.80797E-004	...........
	9	2.58333	-1.67268E-001	-1.67502E-001	5.84763E-004	...........
	10	2.84167	-1.67342E-001	-1.67576E-001	5.81663E-004	...........
	11	3.1	-1.67418E-001	-1.67656E-001	5.83163E-004	...........
EOC	QUANT	-0.1674179	Open Circuit (V)
PSTATMODEL	IQUANT	4	Pstat Model
PSTATSECTION	LABEL	REF600-11020	Pstat Section
PSTATSERIALNO	LABEL	11020	Pstat Serial Number
CTRLMODE	IQUANT	1	Control Mode
IESTAB	IQUANT	0	I/E Stability
CASPEED	IQUANT	1	Control Amp Speed
CONVENTION	IQUANT	1	Current Convention
ICHRANGE	IQUANT	2	Ich Range
ICHRANGEMODE	TOGGLE	F	Ich Auto Range
ICHOFFSETENABLE	TOGGLE	T	Ich Offset Enable
ICHOFFSET	QUANT	0	Ich Offset (V)
ICHFILTER	IQUANT	3	Ich Filter
VCHRANGE	IQUANT	2	Vch Range
VCHRANGEMODE	TOGGLE	F	Vch Auto Range
VCHOFFSETENABLE	TOGGLE	T	Vch Offset Enable
VCHOFFSET	QUANT	0	Vch Offset (V)
VCHFILTER	IQUANT	3	Vch Filter
ACHRANGE	IQUANT	2	Ach Range
ACHOFFSETENABLE	TOGGLE	F	Ach Offset Enable
ACHOFFSET	QUANT	0	Ach Offset (V)
ACHFILTER	IQUANT	3	Ach Filter
IERANGELOWERLIMIT	IQUANT	1	I/E Range Lower Limit
IERANGEMODE	TOGGLE	F	I/E AutoRange
IERANGE	IQUANT	8	I/E Range
POSFEEDENABLE	TOGGLE	F	Positive Feedback IR Comp
POSFEEDRESISTANCE	QUANT	0	Positive Feedback Resistance (ohm)
ACHSELECT	IQUANT	0	Ach Select
CABLEID	IQUANT	14	Cable ID
DCCALDATE	LABEL	2/27/2020	DC Calibration Date
ACCALDATE	LABEL	2/27/2020	AC Calibration Date
THERMOSELECT	IQUANT	1	Thermo Select
FRAMEWORKVERSION	QUANT	6.33	Framework Version
INSTRUMENTVERSION	LABEL	3.50	Instrument Version
ZCURVE	TABLE
	Pt	Time	Freq	Zreal	Zimag	Zsig	Zmod	Zphz	Idc	Vdc	IERange
	#	s	Hz	ohm	ohm	V	ohm	°	A	V	#
	0	1	1000078	1741.096	-2477.12	1	3027.794	-54.89773	-1.752868E-007	-0.1650452	8
	1	1	794390.6	2176.039	-2777.733	1	3528.59	-51.92532	-2.414562E-007	-0.165387	8
	2	2	630984.4	2705.15	-3038.003	1	4067.837	-48.31696	1.88447E-007	-0.1656127	8
	3	2	501234.4	3303.265	-3247.636	1	4632.354	-44.51347	1.727418E-007	-0.1657336	8
	4	2	398109.4	3960.917	-3356.526	1	5191.833	-40.27831	-2.230163E-007	-0.165707	8
	5	3	316265.6	4626.585	-3381.883	1	5730.831	-36.16558	-2.965502E-008	-0.1657996	8
	6	3	251203.1	5278.367	-3294.354	1	6222.052	-31.96926	-1.826152E-007	-0.1657602	8
	7	3	199546.9	5879.058	-3128.14	1	6659.473	-28.01663	-1.859513E-007	-0.1657659	8
	8	4	158578.1	6413.835	-2904.483	1	7040.832	-24.36323	1.525269E-007	-0.1658372	8
	9	4	125953.1	6939.156	-2564.01	1	7397.704	-20.27921	-3.965124E-008	-0.165792	7
	10	4	100078.1	7285.569	-2319.458	1	7645.875	-17.65957	-1.423672E-009	-0.165896	7
	11	5	79453.13	7596.612	-2094.336	1	7880.023	-15.41318	4.383844E-009	-0.1659011	7
	12	5	63140.62	7845.807	-1885.13	1	8069.102	-13.51048	7.014594E-010	-0.1659005	7
	13	5	50203.12	8054.216	-1702.075	1	8232.1	-11.93259	7.791022E-009	-0.1659199	7
	14	6	39890.62	8229.446	-1551.494	1	8374.421	-10.67663	3.798453E-009	-0.1659144	7
	15	6	31640.63	8380.382	-1433.014	1	8502.02	-9.70351	2.44466E-009	-0.165904	7
	16	6	25171.88	8511.22	-1347.873	1	8617.286	-8.998871	8.499408E-009	-0.1659324	7
	17	6	20015.62	8628.002	-1295.686	1	8724.747	-8.540413	-1.508524E-009	-0.1659131	7
	18	7	15890.62	8737.949	-1274.356	1	8830.388	-8.297606	4.825309E-009	-0.1659245	7
	19	7	12609.37	8887.398	-1172.923	1	8964.463	-7.518219	1.434695E-009	-0.1658592	6
	20	7	10078.13	8984.409	-1238.618	1	9069.387	-7.849493	6.877192E-010	-0.1658709	6
	21	8	8015.625	9081.498	-1338.77	1	9179.646	-8.385992	6.269383E-010	-0.1658642	6
	22	8	6328.125	9189.256	-1479.519	1	9307.599	-9.146428	1.389832E-009	-0.1658801	6
	23	8	5015.625	9307.058	-1659.687	1	9453.882	-10.11102	3.530026E-010	-0.1658682	6
	24	9	3984.375	9432.217	-1888.239	1	9619.36	-11.32042	1.216084E-009	-0.1658849	6
	25	9	3170.956	9571.61	-2167.271	1	9813.91	-12.75817	3.731573E-010	-0.1658568	6
	26	9	2527.573	9726.58	-2508.598	1	10044.87	-14.46208	2.082984E-010	-0.1658718	6
	27	10	1976.103	9916.06	-2963.504	1	10349.43	-16.63925	5.655287E-010	-0.1658661	6
	28	10	1577.524	10114.37	-3473.44	1	10694.17	-18.95331	8.755684E-010	-0.1658815	6
	29	10	1265.625	10336.69	-4076.305	1	11111.41	-21.52195	2.175077E-010	-0.1658773	6
	30	11	998.264	10606.58	-4864.292	1	11668.8	-24.63671	1.453769E-009	-0.1658784	6
	31	11	796.875	10911.22	-5776.425	1	12345.92	-27.89686	5.581824E-010	-0.1658716	6
	32	11	627.7902	11280.37	-6948.004	1	13248.46	-31.63047	2.005922E-009	-0.1659002	6
	33	12	505.5147	11683.14	-8241.28	1	14297.36	-35.19913	1.122305E-009	-0.1658952	6
	34	12	397.9953	12204.07	-9976.29	1	15762.8	-39.26449	1.608305E-009	-0.1658649	6
	35	12	315.5048	12820.01	-12035.81	1	17584.47	-43.19292	1.661179E-009	-0.1658635	6
	36	13	252.4038	13541.18	-14436.02	1	19792.98	-46.83197	1.488303E-009	-0.1658672	6
	37	13	198.6229	14502.06	-17568.03	1	22780.37	-50.461	1.511172E-009	-0.1658676	6
	38	13	158.3615	15642.35	-21162.83	1	26316.31	-53.53032	1.501693E-009	-0.1658712	6
	39	13	125.558	17116.05	-25605.68	1	30799.51	-56.23935	1.366988E-009	-0.1658725	6
	40	14	100.4464	18911.25	-30730.25	1	36083.01	-58.39205	1.500141E-009	-0.1658738	6
	41	14	79.00281	21373.28	-37334.8	1	43019.81	-60.20989	1.671622E-009	-0.1658801	6
	42	14	63.3446	24285.12	-44561.1	1	50748.97	-61.41029	1.436325E-009	-0.1658781	6
	43	15	49.86702	28243.28	-53834.6	1	60793.48	-62.31712	1.370137E-009	-0.1658794	6
	44	15	39.72458	33016.26	-64194.45	1	72187.26	-62.78249	1.700901E-009	-0.1658727	6
	45	16	31.6723	39009.33	-76259.88	1	85658.03	-62.90882	1.823457E-009	-0.1658744	6
	46	16	24.93351	47040.59	-91121.66	1	102547.4	-62.69543	1.301868E-009	-0.165877	6
	47	16	19.86229	56590.75	-107345.7	1	121349.1	-62.20259	2.077159E-009	-0.1658689	5
	48	16	15.83615	68550.75	-125926.6	1	143376.1	-61.43742	9.880138E-011	-0.1658737	5
	49	17	12.40079	84655.55	-148181.2	1	170658.2	-60.26078	1.23327E-009	-0.1658691	5
	50	17	9.93114	102624.6	-170528.9	1	199027.4	-58.96038	6.639782E-010	-0.1658777	5
	51	17	7.944915	124147.8	-195009.1	1	231173.6	-57.51813	1.579106E-009	-0.1658686	5
	52	18	6.317385	149916.7	-221875.2	1	267775.3	-55.95388	1.446552E-009	-0.1658721	5
	53	19	5.008013	180041.3	-250565.5	1	308541.7	-54.30125	1.06375E-009	-0.1658781	5
	54	20	3.945707	215197	-282057.9	1	354776.5	-52.65807	1.17242E-009	-0.1658707	5
	55	20	3.158693	250758.1	-313051.9	1	401099.9	-51.30487	1.241399E-009	-0.1658857	5
	56	21	2.504006	291645.1	-347683.2	1	453806.6	-50.00927	1.616047E-009	-0.1658849	5
	57	23	1.998082	333024.3	-385313.6	1	509285.6	-49.16333	1.666717E-009	-0.1658672	5
	58	24	1.584686	380199.6	-427732.5	1	572282.1	-48.36699	1.519481E-009	-0.1659155	5
	59	26	1.266892	429794.3	-476789.2	1	641912.1	-47.96741	1.504299E-009	-0.1659201	5
	60	29	0.999041	486483.7	-536687.6	1	724361.8	-47.80907	1.544423E-009	-0.1659061	5
