EXPLAIN
TAG	EISPOT
TITLE	LABEL	Potentiostatic EIS	Test &Identifier
DATE	LABEL	3/17/2020	Date
TIME	LABEL	15:55:14	Time
NOTES	NOTES	1	&Notes...
	
PSTAT	PSTAT	REF600-11020	Potentiostat
VDC	POTEN	0.00000E+000	T	DC &Voltage (V)
FREQINIT	QUANT	1.00000E+006	Initial Fre&q. (Hz)
FREQFINAL	QUANT	1.00000E+000	Final Fre&q. (Hz)
PTSPERDEC	QUANT	1.00000E+001	Points/&decade
VAC	QUANT	2.50000E+001	AC &Voltage (mV rms)
AREA	QUANT	4.00000E-004	&Area (cm^2)
CONDIT	TWOPARAM	F	5.00000E+000	0.00000E+000	Conditionin&g	Time(s)	E(V)
DELAY	TWOPARAM	T	3.00000E+000	0.00000E+000	Init. De&lay	Time(s)	Stab.(mV/s)
SPEED	SELECTOR	0	&Optimize for:
ZGUESS	QUANT	5.00000E+003	E&stimated Z (ohms)
OCVCURVE	TABLE	12
	Pt	T	Vf	Vm	Ach	Over
	#	s	V vs. Ref.	V	V	bits
	0	0.258333	1.97242E-002	1.97242E-002	5.99763E-004	...........
	1	0.516667	1.97241E-002	1.97207E-002	6.08429E-004	...........
	2	0.775	1.97238E-002	1.97185E-002	6.01730E-004	...........
	3	1.03333	1.97228E-002	1.97192E-002	5.99696E-004	...........
	4	1.29167	1.97214E-002	1.97190E-002	6.03963E-004	...........
	5	1.55	1.97200E-002	1.97150E-002	6.05363E-004	...........
	6	1.80833	1.97188E-002	1.97132E-002	6.02730E-004	...........
	7	2.06667	1.97174E-002	1.97108E-002	6.01063E-004	...........
	8	2.325	1.97155E-002	1.97085E-002	6.02830E-004	...........
	9	2.58333	1.97134E-002	1.97068E-002	5.99263E-004	...........
	10	2.84167	1.97111E-002	1.97050E-002	5.97030E-004	...........
	11	3.1	1.97089E-002	1.96992E-002	6.02996E-004	...........
EOC	QUANT	0.0197089	Open Circuit (V)
PSTATMODEL	IQUANT	4	Pstat Model
PSTATSECTION	LABEL	REF600-11020	Pstat Section
PSTATSERIALNO	LABEL	11020	Pstat Serial Number
CTRLMODE	IQUANT	1	Control Mode
IESTAB	IQUANT	0	I/E Stability
CASPEED	IQUANT	1	Control Amp Speed
CONVENTION	IQUANT	1	Current Convention
ICHRANGE	IQUANT	2	Ich Range
ICHRANGEMODE	TOGGLE	F	Ich Auto Range
ICHOFFSETENABLE	TOGGLE	T	Ich Offset Enable
ICHOFFSET	QUANT	0	Ich Offset (V)
ICHFILTER	IQUANT	3	Ich Filter
VCHRANGE	IQUANT	2	Vch Range
VCHRANGEMODE	TOGGLE	F	Vch Auto Range
VCHOFFSETENABLE	TOGGLE	T	Vch Offset Enable
VCHOFFSET	QUANT	0	Vch Offset (V)
VCHFILTER	IQUANT	3	Vch Filter
ACHRANGE	IQUANT	2	Ach Range
ACHOFFSETENABLE	TOGGLE	F	Ach Offset Enable
ACHOFFSET	QUANT	0	Ach Offset (V)
ACHFILTER	IQUANT	3	Ach Filter
IERANGELOWERLIMIT	IQUANT	1	I/E Range Lower Limit
IERANGEMODE	TOGGLE	F	I/E AutoRange
IERANGE	IQUANT	6	I/E Range
POSFEEDENABLE	TOGGLE	F	Positive Feedback IR Comp
POSFEEDRESISTANCE	QUANT	0	Positive Feedback Resistance (ohm)
ACHSELECT	IQUANT	0	Ach Select
CABLEID	IQUANT	14	Cable ID
DCCALDATE	LABEL	2/27/2020	DC Calibration Date
ACCALDATE	LABEL	2/27/2020	AC Calibration Date
THERMOSELECT	IQUANT	1	Thermo Select
FRAMEWORKVERSION	QUANT	6.33	Framework Version
INSTRUMENTVERSION	LABEL	3.50	Instrument Version
ZCURVE	TABLE
	Pt	Time	Freq	Zreal	Zimag	Zsig	Zmod	Zphz	Idc	Vdc	IERange
	#	s	Hz	ohm	ohm	V	ohm	°	A	V	#
	0	1	1000078	1772.175	-2069.844	1	2724.859	-49.43026	4.441917E-008	0.0222547	8
	1	1	794390.6	2173.169	-2246.508	1	3125.614	-45.95066	-1.940558E-009	0.0219042	8
	2	2	630984.4	2628.178	-2371.222	1	3539.776	-42.05774	5.474744E-008	0.0217065	8
	3	2	501234.4	3116.92	-2423.392	1	3948.167	-37.86491	1.102474E-009	0.0216045	8
	4	2	398109.4	3608.967	-2399.8	1	4334.015	-33.62212	4.14972E-008	0.0215062	8
	5	3	316265.6	4078.913	-2289.267	1	4677.421	-29.30307	2.569867E-008	0.0214643	8
	6	3	251203.1	4495.74	-2128.781	1	4974.272	-25.33805	1.690732E-008	0.0214523	8
	7	3	199546.9	4839.086	-1924.587	1	5207.763	-21.68856	3.940715E-008	0.0214714	8
	8	3	158578.1	5128.78	-1713.49	1	5407.442	-18.47412	3.448594E-008	0.0214505	8
	9	4	125953.1	5382.542	-1449.101	1	5574.196	-15.06804	1.274069E-009	0.0214058	7
	10	4	100078.1	5533.051	-1269.209	1	5676.754	-12.91939	-3.520794E-010	0.0213762	7
	11	4	79453.13	5666.946	-1123.316	1	5777.207	-11.21197	-4.895787E-010	0.0213715	7
	12	5	63140.62	5774.445	-1001.791	1	5860.699	-9.84211	7.715359E-010	0.0213775	7
	13	5	50203.12	5863.203	-905.0051	1	5932.637	-8.774549	3.558461E-010	0.0213764	7
	14	5	39890.62	5937.599	-833.0179	1	5995.749	-7.98621	5.683091E-010	0.0213763	7
	15	6	31640.63	6006.178	-783.7545	1	6057.099	-7.434596	3.661189E-010	0.0213716	7
	16	6	25171.88	6068.284	-757.0015	1	6115.319	-7.110755	1.173716E-009	0.0213671	7
	17	6	20015.62	6128.675	-750.027	1	6174.398	-6.977162	8.200813E-010	0.021363	7
	18	7	15890.62	6188.519	-763.6712	1	6235.459	-7.034809	1.546115E-009	0.0213606	7
	19	7	12609.37	6248.587	-797.775	1	6299.308	-7.275754	1.630506E-009	0.0213658	7
	20	7	10078.13	6307.934	-850.4209	1	6365.001	-7.678188	5.292465E-010	0.0213548	7
	21	8	8015.625	6370.936	-929.1116	1	6438.328	-8.297294	2.032581E-009	0.0213622	7
	22	8	6328.125	6436.991	-1037.075	1	6519.998	-9.152377	1.435141E-009	0.0213547	7
	23	8	5015.625	6507.55	-1177.026	1	6613.139	-10.25229	2.010716E-009	0.0213573	7
	24	9	3984.375	6579.956	-1352.985	1	6717.617	-11.61933	1.631586E-009	0.0213517	7
	25	9	3170.956	6658.211	-1574.941	1	6841.945	-13.3082	1.210268E-009	0.021357	7
	26	9	2527.573	6745.527	-1851.008	1	6994.881	-15.34456	1.94459E-009	0.0213512	7
	27	10	1976.103	6849.241	-2227.445	1	7202.333	-18.01507	2.646579E-009	0.0213585	7
	28	10	1577.524	6960.166	-2654.456	1	7449.165	-20.87576	1.75707E-009	0.0213467	7
	29	10	1265.625	7086.595	-3171.491	1	7763.903	-24.11013	2.603133E-009	0.0213523	7
	30	10	998.264	7247.012	-3855.052	1	8208.569	-28.01077	2.109212E-009	0.0213488	7
	31	11	796.875	7433.551	-4655.339	1	8770.967	-32.05729	2.417331E-009	0.0213532	7
	32	11	627.7902	7680.032	-5693.288	1	9560.15	-36.54993	-1.821951E-010	0.0214038	6
	33	11	505.5147	7947.984	-6849.377	1	10492.11	-40.75396	-3.1771E-010	0.0213994	6
	34	12	397.9953	8317.791	-8403.166	1	11823.66	-45.29254	5.10464E-010	0.0214148	6
	35	12	315.5048	8768.848	-10250.71	1	13489.61	-49.45505	4.552428E-010	0.0214113	6
	36	12	252.4038	9308.391	-12403.65	1	15507.96	-53.1134	4.760639E-010	0.0214099	6
	37	13	198.6229	10031.91	-15211.96	1	18222.05	-56.59613	5.55175E-010	0.0214111	6
	38	13	158.3615	10887.93	-18436.66	1	21411.62	-59.43566	4.236416E-010	0.0214092	6
	39	13	125.558	11978.19	-22432.05	1	25429.78	-61.89882	4.227638E-010	0.0214103	6
	40	14	100.4464	13276.15	-27064.54	1	30145.41	-63.87035	3.685282E-010	0.0214063	6
	41	14	79.00281	15010.71	-33099.69	1	36344.34	-65.60571	3.073928E-010	0.0214046	6
	42	14	63.3446	16993.77	-39808.27	1	43283.79	-66.88282	2.261805E-010	0.0214022	6
	43	15	49.86702	19663.93	-48581.98	1	52410.68	-67.96398	2.10623E-010	0.0213943	6
	44	15	39.72458	22858.01	-58685.81	1	62980.26	-68.71918	4.188447E-010	0.0213986	6
	45	15	31.6723	26869.09	-70794.55	1	75721.97	-69.21644	5.573143E-010	0.0213974	6
	46	16	24.93351	32312.4	-86243.23	1	92097.7	-69.46074	1.206873E-010	0.0213973	6
	47	16	19.86229	38987.58	-103781.3	1	110862.9	-69.41027	3.044381E-010	0.0214038	5
	48	16	15.83615	47543.73	-124670	1	133427.9	-69.12532	-6.834148E-010	0.0214084	5
	49	17	12.40079	59633.92	-151341.4	1	162666.6	-68.49378	-6.252891E-010	0.0214088	5
	50	17	9.93114	73970.95	-179613.8	1	194249.4	-67.6165	-8.524065E-010	0.0214052	5
	51	17	7.944915	91952.6	-212290.2	1	231349.1	-66.58036	-4.380634E-010	0.021409	5
	52	18	6.317385	115690	-250228.2	1	275677.9	-65.1871	1.115355E-010	0.0213974	5
	53	18	5.008013	145969.5	-293570.2	1	327857.5	-63.56244	-7.500824E-011	0.0213983	5
	54	19	3.945707	184089.1	-342967.1	1	389249.6	-61.77512	-2.433073E-010	0.0213989	5
	55	20	3.158693	226956.9	-391962	1	452927.9	-59.92797	-2.635488E-011	0.0213833	5
	56	21	2.504006	279459.8	-447336.4	1	527453.9	-58.00618	2.486319E-010	0.0213972	5
	57	23	1.998082	336945.7	-503113	1	605520.5	-56.18893	5.133483E-011	0.0213746	5
	58	24	1.584686	404669.7	-566255.6	1	695990.6	-54.44883	-5.188867E-011	0.0213499	5
	59	26	1.266892	474500.1	-630929.8	1	789444.6	-53.05446	-3.764697E-011	0.0213746	5
	60	29	0.999041	555914.3	-704093.4	1	897099.9	-51.70728	-1.787112E-011	0.0214021	5
