EXPLAIN
TAG	EISPOT
TITLE	LABEL	Potentiostatic EIS	Test &Identifier
DATE	LABEL	2/6/2020	Date
TIME	LABEL	18:22:22	Time
NOTES	NOTES	6	&Notes...
	
	
	
	
	
	
PSTAT	PSTAT	REF600-11020	Potentiostat
VDC	POTEN	0.00000E+000	T	DC &Voltage (V)
FREQINIT	QUANT	1.00000E+006	Initial Fre&q. (Hz)
FREQFINAL	QUANT	1.00000E+000	Final Fre&q. (Hz)
PTSPERDEC	QUANT	1.00000E+001	Points/&decade
VAC	QUANT	2.50000E+001	AC &Voltage (mV rms)
AREA	QUANT	1.60000E-004	&Area (cm^2)
CONDIT	TWOPARAM	F	5.00000E+000	0.00000E+000	Conditionin&g	Time(s)	E(V)
DELAY	TWOPARAM	F	5.00000E+000	0.00000E+000	Init. De&lay	Time(s)	Stab.(mV/s)
SPEED	SELECTOR	0	&Optimize for:
ZGUESS	QUANT	1.00000E+003	E&stimated Z (ohms)
OCVCURVE	TABLE	39
	Pt	T	Vf	Vm	Ach	Over
	#	s	V vs. Ref.	V	V	bits
	0	0.258333	-7.57678E-003	-7.57678E-003	5.97570E-004	...........
	1	0.516667	-7.57398E-003	-7.43006E-003	5.93471E-004	...........
	2	0.775	-7.55712E-003	-7.30978E-003	5.93804E-004	...........
	3	1.03333	-7.51057E-003	-7.19076E-003	5.96970E-004	...........
	4	1.29167	-7.42969E-003	-7.09654E-003	5.91471E-004	...........
	5	1.55	-7.32463E-003	-6.92627E-003	5.91571E-004	...........
	6	1.80833	-7.20818E-003	-6.87657E-003	5.94370E-004	...........
	7	2.06667	-7.08910E-003	-6.73297E-003	5.93137E-004	...........
	8	2.325	-6.97246E-003	-6.60666E-003	5.93837E-004	...........
	9	2.58333	-6.85851E-003	-6.54590E-003	5.88171E-004	...........
	10	2.84167	-6.74914E-003	-6.53940E-003	5.93437E-004	...........
	11	3.1	-6.65461E-003	-6.50601E-003	5.92904E-004	...........
	12	3.35833	-6.58439E-003	-6.45454E-003	5.89904E-004	...........
	13	3.61667	-6.53542E-003	-6.41833E-003	5.90471E-004	...........
	14	3.875	-6.49650E-003	-6.38040E-003	5.92404E-004	...........
	15	4.13333	-6.45942E-003	-6.34575E-003	5.94071E-004	...........
	16	4.39167	-6.42217E-003	-6.31433E-003	5.98337E-004	...........
	17	4.65	-6.38552E-003	-6.27942E-003	5.93137E-004	...........
	18	4.90833	-6.35009E-003	-6.24240E-003	6.00370E-004	...........
	19	5.16667	-6.31565E-003	-6.21863E-003	5.96904E-004	...........
	20	5.425	-6.28247E-003	-6.20466E-003	5.90404E-004	...........
	21	5.68333	-6.25236E-003	-6.19014E-003	5.95637E-004	...........
	22	5.94167	-6.22719E-003	-6.17000E-003	5.92971E-004	...........
	23	6.2	-6.20678E-003	-6.15829E-003	5.91504E-004	...........
	24	6.45833	-6.18939E-003	-6.14226E-003	5.96970E-004	...........
	25	6.71667	-6.17329E-003	-6.11529E-003	5.97037E-004	...........
	26	6.975	-6.15693E-003	-6.10017E-003	5.90404E-004	...........
	27	7.23333	-6.13924E-003	-6.08120E-003	5.94304E-004	...........
	28	7.49167	-6.12063E-003	-6.07125E-003	5.93437E-004	...........
	29	7.75	-6.10273E-003	-6.06517E-003	5.86804E-004	...........
	30	8.00833	-6.08733E-003	-6.06059E-003	5.87837E-004	...........
	31	8.26667	-6.07508E-003	-6.03358E-003	5.94171E-004	...........
	32	8.525	-6.06420E-003	-6.01746E-003	5.90137E-004	...........
	33	8.78333	-6.05210E-003	-6.01641E-003	5.96104E-004	...........
	34	9.04167	-6.03885E-003	-6.01607E-003	5.89004E-004	...........
	35	9.3	-6.02718E-003	-6.00455E-003	5.87637E-004	...........
	36	9.5583	-6.01878E-003	-6.00778E-003	5.92571E-004	...........
	37	9.8167	-6.01286E-003	-5.99083E-003	5.90837E-004	...........
	38	10.075	-6.00761E-003	-5.98659E-003	5.92437E-004	...........
EOC	QUANT	-0.0060076	Open Circuit (V)
PSTATMODEL	IQUANT	4	Pstat Model
PSTATSECTION	LABEL	REF600-11020	Pstat Section
PSTATSERIALNO	LABEL	11020	Pstat Serial Number
CTRLMODE	IQUANT	1	Control Mode
IESTAB	IQUANT	0	I/E Stability
CASPEED	IQUANT	1	Control Amp Speed
CONVENTION	IQUANT	1	Current Convention
ICHRANGE	IQUANT	2	Ich Range
ICHRANGEMODE	TOGGLE	F	Ich Auto Range
ICHOFFSETENABLE	TOGGLE	T	Ich Offset Enable
ICHOFFSET	QUANT	0	Ich Offset (V)
ICHFILTER	IQUANT	3	Ich Filter
VCHRANGE	IQUANT	2	Vch Range
VCHRANGEMODE	TOGGLE	F	Vch Auto Range
VCHOFFSETENABLE	TOGGLE	T	Vch Offset Enable
VCHOFFSET	QUANT	0	Vch Offset (V)
VCHFILTER	IQUANT	3	Vch Filter
ACHRANGE	IQUANT	2	Ach Range
ACHOFFSETENABLE	TOGGLE	F	Ach Offset Enable
ACHOFFSET	QUANT	0	Ach Offset (V)
ACHFILTER	IQUANT	3	Ach Filter
IERANGELOWERLIMIT	IQUANT	1	I/E Range Lower Limit
IERANGEMODE	TOGGLE	F	I/E AutoRange
IERANGE	IQUANT	7	I/E Range
POSFEEDENABLE	TOGGLE	F	Positive Feedback IR Comp
POSFEEDRESISTANCE	QUANT	0	Positive Feedback Resistance (ohm)
ACHSELECT	IQUANT	0	Ach Select
CABLEID	IQUANT	14	Cable ID
DCCALDATE	LABEL	1/27/2020	DC Calibration Date
ACCALDATE	LABEL	1/27/2020	AC Calibration Date
THERMOSELECT	IQUANT	1	Thermo Select
FRAMEWORKVERSION	QUANT	6.33	Framework Version
INSTRUMENTVERSION	LABEL	3.50	Instrument Version
ZCURVE	TABLE
	Pt	Time	Freq	Zreal	Zimag	Zsig	Zmod	Zphz	Idc	Vdc	IERange
	#	s	Hz	ohm	ohm	V	ohm	°	A	V	#
	0	1	1000078	1916.929	-2200.097	1	2918.055	-48.93459	2.693105E-006	-0.0045234	8
	1	2	794390.6	2252.671	-2436.148	1	3318.033	-47.24088	1.593424E-006	-0.00455	8
	2	2	630984.4	2626.317	-2671.383	1	3746.175	-45.48738	4.987051E-007	-0.0044146	8
	3	2	501234.4	3071.076	-2879.792	1	4210.073	-43.15892	2.389723E-006	-0.0048563	8
	4	3	398109.4	3542.986	-3104.38	1	4710.619	-41.22499	-1.354891E-006	-0.0041874	8
	5	3	316265.6	4026.07	-3265.405	1	5183.832	-39.0443	-5.029493E-007	-0.0043707	8
	6	3	251203.1	4625.676	-3461.773	1	5777.607	-36.81052	2.229737E-006	-0.0048956	8
	7	4	199546.9	5183.939	-3575.192	1	6297.24	-34.59275	3.906101E-006	-0.0050386	8
	8	4	158578.1	5783.687	-3711.738	1	6872.265	-32.69072	3.881019E-006	-0.0050265	8
	9	4	125953.1	6426.252	-3671.564	1	7401.155	-29.74098	3.47057E-007	-0.0052993	7
	10	5	100078.1	7013.9	-3726.552	1	7942.417	-27.98214	-4.482039E-008	-0.0043878	7
	11	5	79453.13	7605.687	-3748.903	1	8479.431	-26.23905	4.857435E-008	-0.0044837	7
	12	5	63140.62	8176.968	-3753.16	1	8997.167	-24.65473	7.255215E-008	-0.0046083	7
	13	6	50203.12	8725.954	-3743.98	1	9495.244	-23.22236	6.401724E-008	-0.0046125	7
	14	6	39890.62	9269.408	-3747.375	1	9998.24	-22.01217	1.076771E-007	-0.0046359	7
	15	6	31640.63	9780.08	-3755.033	1	10476.17	-21.00415	-4.426971E-008	-0.0044028	7
	16	7	25171.88	10282.01	-3778.541	1	10954.32	-20.17789	1.077871E-007	-0.0046425	7
	17	7	20015.62	10760.1	-3828.828	1	11421.02	-19.58737	-2.714004E-008	-0.0044771	7
	18	7	15890.62	11247.79	-3920.099	1	11911.34	-19.21455	-4.59307E-008	-0.0044068	7
	19	8	12609.37	11790.64	-3952.212	1	12435.4	-18.53111	9.861769E-010	-0.0045627	6
	20	8	10078.13	12250.62	-4134.645	1	12929.54	-18.64979	-3.299087E-010	-0.0045911	6
	21	8	8015.625	12739.5	-4378.818	1	13471.04	-18.96886	-1.142804E-009	-0.0045068	6
	22	8	6328.125	13275.72	-4691.186	1	14080.2	-19.46166	-7.765061E-009	-0.0044221	6
	23	9	5015.625	13835.05	-5065.734	1	14733.3	-20.11032	-4.256638E-009	-0.0043927	6
	24	9	3984.375	14434.37	-5508.877	1	15449.88	-20.88935	1.068573E-008	-0.0046248	6
	25	9	3170.956	15087.69	-6016.505	1	16243.06	-21.74058	3.908778E-009	-0.0044947	6
	26	10	2527.573	15797.35	-6594.269	1	17118.43	-22.65706	1.514252E-009	-0.00446	6
	27	10	1976.103	16633.53	-7304.363	1	18166.67	-23.70796	-8.852692E-010	-0.0046031	6
	28	10	1577.524	17437.51	-8069.055	1	19213.96	-24.83193	1.087669E-008	-0.0046206	6
	29	11	1265.625	18302.18	-8902.663	1	20352.57	-25.93951	4.372903E-009	-0.0046528	6
	30	11	998.264	18291.32	-9985.82	1	21722.61	-27.36757	4.028826E-009	-0.0044722	6
	31	11	796.875	20306.49	-11181.9	1	23181.64	-28.83967	4.021605E-009	-0.0044705	6
	32	12	627.7902	21496.51	-12714.84	1	24975.33	-30.60364	3.62548E-009	-0.0044716	6
	33	12	505.5147	22712.24	-14357.18	1	26869.59	-32.29838	-7.271246E-010	-0.0045964	6
	34	12	397.9953	24228.34	-16517.97	1	29323.3	-34.28469	1.128371E-009	-0.0044915	6
	35	13	315.5048	25957.97	-18977.63	1	32155.35	-36.17018	2.431524E-010	-0.0044925	6
	36	13	252.4038	27907.81	-21712.8	1	35359.46	-37.88358	1.252346E-009	-0.0044958	6
	37	13	198.6229	30337	-25077.2	1	39359.87	-39.57785	5.661273E-010	-0.0044932	6
	38	14	158.3615	32976.71	-28702.98	1	43718.7	-41.03637	3.821455E-010	-0.004498	6
	39	14	125.558	36074.58	-32897.16	1	48822.11	-42.36234	5.628483E-010	-0.0044972	6
	40	14	100.4464	39459.06	-37484.18	1	54425.01	-43.52973	1.370441E-009	-0.0045	6
	41	15	79.00281	43520.69	-43192.85	1	61316.17	-44.78338	3.006617E-010	-0.0045047	6
	42	15	63.3446	46350.56	-49367.89	1	67716.78	-46.80553	7.183975E-010	-0.0045054	6
	43	15	49.86702	51322.46	-56806.73	1	76557.16	-47.90353	1.135849E-009	-0.0045075	6
	44	16	39.72458	56781.21	-65851.81	1	86951.52	-49.2302	5.986513E-010	-0.0045053	6
	45	16	31.6723	62346.65	-76326.93	1	98554.1	-50.75678	6.555573E-010	-0.0045034	6
	46	16	24.93351	68486.49	-89497.85	1	112695.5	-52.57568	-3.504476E-010	-0.0045101	5
	47	17	19.86229	75385.25	-105105.2	1	129344.7	-54.35055	3.919076E-011	-0.0045072	5
	48	17	15.83615	83960.06	-123421.4	1	149272	-55.77367	-6.011839E-010	-0.004508	5
	49	17	12.40079	94339.28	-148733.5	1	176129.4	-57.61369	7.335999E-011	-0.0045099	5
	50	18	9.93114	105730.6	-174428.1	1	203970.9	-58.77761	3.384818E-010	-0.0045161	5
	51	18	7.944915	120289.4	-206564.4	1	239036.4	-59.78632	-3.420541E-010	-0.0045073	5
	52	19	6.317385	138802.1	-245452	1	281980	-60.51202	-3.010071E-010	-0.0044993	5
	53	20	5.008013	163320.1	-291476.8	1	334114	-60.73726	-1.260485E-010	-0.0045094	5
	54	21	3.945707	193516.2	-345802	1	396267.1	-60.76794	-9.450205E-011	-0.0045193	5
	55	22	3.158693	229440.8	-403187.8	1	463900.3	-60.35723	1.496833E-010	-0.0045048	5
	56	24	2.504006	273522.5	-469520.2	1	543381.8	-59.77674	4.678933E-011	-0.0045117	5
	57	25	1.998082	322931.5	-542465.4	1	631310.9	-59.23452	-4.371648E-011	-0.0045506	5
	58	26	1.584686	379608.4	-624460.6	1	730789.7	-58.70466	5.753117E-011	-0.0045134	5
	59	28	1.266892	442764.2	-716077.3	1	841906.6	-58.27071	9.671598E-011	-0.0044784	5
	60	31	0.999041	515421.9	-830221.8	1	977204	-58.16698	1.163627E-010	-0.0044774	5
