EXPLAIN
TAG	EISPOT
TITLE	LABEL	Potentiostatic EIS	Test &Identifier
DATE	LABEL	7/5/2020	Date
TIME	LABEL	17:34:09	Time
NOTES	NOTES	1	&Notes...
	
PSTAT	PSTAT	REF600-11020	Potentiostat
VDC	POTEN	0.00000E+000	T	DC &Voltage (V)
FREQINIT	QUANT	1.00000E+006	Initial Fre&q. (Hz)
FREQFINAL	QUANT	1.00000E+000	Final Fre&q. (Hz)
PTSPERDEC	QUANT	1.00000E+001	Points/&decade
VAC	QUANT	2.50000E+001	AC &Voltage (mV rms)
AREA	QUANT	4.00000E-004	&Area (cm^2)
CONDIT	TWOPARAM	F	5.00000E+000	0.00000E+000	Conditionin&g	Time(s)	E(V)
DELAY	TWOPARAM	F	3.00000E+000	0.00000E+000	Init. De&lay	Time(s)	Stab.(mV/s)
SPEED	SELECTOR	0	&Optimize for:
ZGUESS	QUANT	1.00000E+003	E&stimated Z (ohms)
OCVCURVE	TABLE	39
	Pt	T	Vf	Vm	Ach	Over
	#	s	V vs. Ref.	V	V	bits
	0	0.258333	6.81430E-002	6.81430E-002	5.11584E-004	...........
	1	0.516667	6.81428E-002	6.81311E-002	5.11617E-004	...........
	2	0.775	6.81404E-002	6.80716E-002	5.09650E-004	...........
	3	1.03333	6.81311E-002	6.80278E-002	5.02684E-004	...........
	4	1.29167	6.81116E-002	6.80930E-002	5.05417E-004	...........
	5	1.55	6.80888E-002	6.80733E-002	5.13083E-004	...........
	6	1.80833	6.80741E-002	6.80621E-002	5.11217E-004	...........
	7	2.06667	6.80690E-002	6.80529E-002	5.09150E-004	...........
	8	2.325	6.80666E-002	6.80441E-002	5.08483E-004	...........
	9	2.58333	6.80614E-002	6.80171E-002	5.13783E-004	...........
	10	2.84167	6.80521E-002	6.80137E-002	5.13050E-004	...........
	11	3.1	6.80397E-002	6.79973E-002	5.07283E-004	...........
	12	3.35833	6.80264E-002	6.80129E-002	5.08784E-004	...........
	13	3.61667	6.80155E-002	6.80005E-002	5.04184E-004	...........
	14	3.875	6.80086E-002	6.79939E-002	5.08117E-004	...........
	15	4.13333	6.80041E-002	6.79831E-002	5.07683E-004	...........
	16	4.39167	6.79993E-002	6.79772E-002	5.12217E-004	...........
	17	4.65	6.79929E-002	6.79673E-002	5.12484E-004	...........
	18	4.90833	6.79853E-002	6.79623E-002	5.07417E-004	...........
	19	5.16667	6.79772E-002	6.79509E-002	5.11884E-004	...........
	20	5.425	6.79692E-002	6.79474E-002	5.10217E-004	...........
	21	5.68333	6.79614E-002	6.79365E-002	5.09017E-004	...........
	22	5.94167	6.79536E-002	6.79309E-002	5.07117E-004	...........
	23	6.2	6.79460E-002	6.79228E-002	5.13383E-004	...........
	24	6.45833	6.79385E-002	6.79178E-002	5.09517E-004	...........
	25	6.71667	6.79312E-002	6.79115E-002	5.11717E-004	...........
	26	6.975	6.79244E-002	6.79043E-002	5.13083E-004	...........
	27	7.23333	6.79179E-002	6.79007E-002	5.07817E-004	...........
	28	7.49167	6.79118E-002	6.78925E-002	5.09717E-004	...........
	29	7.75	6.79058E-002	6.78903E-002	5.07917E-004	...........
	30	8.00833	6.79001E-002	6.78817E-002	5.05917E-004	...........
	31	8.26667	6.78945E-002	6.78750E-002	5.07317E-004	...........
	32	8.525	6.78886E-002	6.78661E-002	5.12050E-004	...........
	33	8.78333	6.78820E-002	6.78582E-002	5.10717E-004	...........
	34	9.04167	6.78748E-002	6.78537E-002	5.13117E-004	...........
	35	9.3	6.78674E-002	6.78459E-002	5.15250E-004	...........
	36	9.5583	6.78602E-002	6.78376E-002	5.16583E-004	...........
	37	9.8167	6.78532E-002	6.78376E-002	5.10184E-004	...........
	38	10.075	6.78467E-002	6.78286E-002	5.11117E-004	...........
EOC	QUANT	0.0678467	Open Circuit (V)
PSTATMODEL	IQUANT	4	Pstat Model
PSTATSECTION	LABEL	REF600-11020	Pstat Section
PSTATSERIALNO	LABEL	11020	Pstat Serial Number
CTRLMODE	IQUANT	1	Control Mode
IESTAB	IQUANT	0	I/E Stability
CASPEED	IQUANT	1	Control Amp Speed
CONVENTION	IQUANT	1	Current Convention
ICHRANGE	IQUANT	2	Ich Range
ICHRANGEMODE	TOGGLE	F	Ich Auto Range
ICHOFFSETENABLE	TOGGLE	T	Ich Offset Enable
ICHOFFSET	QUANT	0	Ich Offset (V)
ICHFILTER	IQUANT	3	Ich Filter
VCHRANGE	IQUANT	2	Vch Range
VCHRANGEMODE	TOGGLE	F	Vch Auto Range
VCHOFFSETENABLE	TOGGLE	T	Vch Offset Enable
VCHOFFSET	QUANT	0	Vch Offset (V)
VCHFILTER	IQUANT	3	Vch Filter
ACHRANGE	IQUANT	2	Ach Range
ACHOFFSETENABLE	TOGGLE	F	Ach Offset Enable
ACHOFFSET	QUANT	0	Ach Offset (V)
ACHFILTER	IQUANT	3	Ach Filter
IERANGELOWERLIMIT	IQUANT	1	I/E Range Lower Limit
IERANGEMODE	TOGGLE	F	I/E AutoRange
IERANGE	IQUANT	8	I/E Range
POSFEEDENABLE	TOGGLE	F	Positive Feedback IR Comp
POSFEEDRESISTANCE	QUANT	0	Positive Feedback Resistance (ohm)
ACHSELECT	IQUANT	0	Ach Select
CABLEID	IQUANT	14	Cable ID
DCCALDATE	LABEL	6/26/2020	DC Calibration Date
ACCALDATE	LABEL	6/26/2020	AC Calibration Date
THERMOSELECT	IQUANT	1	Thermo Select
FRAMEWORKVERSION	QUANT	6.33	Framework Version
INSTRUMENTVERSION	LABEL	3.50	Instrument Version
ZCURVE	TABLE
	Pt	Time	Freq	Zreal	Zimag	Zsig	Zmod	Zphz	Idc	Vdc	IERange
	#	s	Hz	ohm	ohm	V	ohm	°	A	V	#
	0	1	1000078	1604.211	-1877.02	1	2469.149	-49.48085	-6.374085E-006	0.0705276	8
	1	1	794390.6	1900.324	-2035.927	1	2785.001	-46.97306	8.703506E-007	0.0703833	8
	2	2	630984.4	2213.563	-2180.784	1	3107.359	-44.57262	-7.267392E-006	0.0705289	8
	3	2	501234.4	2536.49	-2302.844	1	3425.912	-42.23587	9.331229E-006	0.0687636	8
	4	2	398109.4	2851.29	-2441.153	1	3753.543	-40.56873	1.233835E-006	0.0698018	8
	5	2	316265.6	3159.055	-2606.165	1	4095.33	-39.52204	-3.941856E-006	0.070031	8
	6	3	251203.1	3448.571	-2788.14	1	4434.677	-38.95524	-4.303822E-007	0.0691669	8
	7	3	199546.9	3761.878	-3013.57	1	4820.097	-38.69757	-1.570225E-006	0.0698843	8
	8	3	158578.1	4097.786	-3343.604	1	5288.812	-39.21285	3.27098E-006	0.0688858	8
	9	4	125953.1	4363.363	-3693.954	1	5717.013	-40.25072	-4.232935E-007	0.0669281	7
	10	4	100078.1	4715.545	-4153.704	1	6284.077	-41.37532	-1.054424E-006	0.0714442	7
	11	4	79453.13	5102.688	-4738.966	1	6963.852	-42.88346	-1.290989E-006	0.0713715	7
	12	5	63140.62	5543.551	-5462.792	1	7782.87	-44.5796	1.215087E-006	0.0685623	7
	13	5	50203.12	6085.713	-6306.737	1	8764.179	-46.02179	-3.231014E-007	0.0710293	7
	14	5	39890.62	6733.632	-7324.809	1	9949.6	-47.40795	9.004033E-007	0.0673445	7
	15	6	31640.63	7537.265	-8520.146	1	11375.55	-48.50273	5.440885E-007	0.0674896	7
	16	6	25171.88	8507.179	-9890.03	1	13045.49	-49.29862	1.291062E-006	0.0676709	7
	17	6	20015.62	9704	-11432.49	1	14995.65	-49.67508	1.318441E-006	0.0680481	7
	18	7	15890.62	11200.96	-13156.66	1	17278.87	-49.59048	4.815489E-007	0.0700466	7
	19	7	12609.37	13030.68	-15105	1	19948.92	-49.21653	-2.623813E-007	0.0727859	6
	20	7	10078.13	15233.85	-17119.65	1	22916.21	-48.33585	2.131637E-007	0.0661364	6
	21	8	8015.625	17940.19	-19288.73	1	26342.09	-47.0745	4.152362E-008	0.0712935	6
	22	8	6328.125	21345.97	-21496.07	1	30294.08	-45.20074	2.281822E-007	0.0666916	6
	23	8	5015.625	25292.26	-23461.85	1	34498.65	-42.84991	-3.559477E-008	0.0721759	6
	24	9	3984.375	29804.27	-25087.09	1	38957.11	-40.08826	1.731063E-007	0.0691138	6
	25	9	3170.956	34705.54	-26018.45	1	43375.5	-36.85859	-1.113713E-007	0.0728297	6
	26	9	2527.573	39832.98	-26278.2	1	47720.12	-33.41323	4.143423E-008	0.0712866	6
	27	10	1976.103	45152.68	-25581.23	1	51895.7	-29.5337	-1.112802E-007	0.0728285	6
	28	10	1577.524	49644.02	-24313.77	1	55278.27	-26.09387	-1.117179E-007	0.0728275	6
	29	10	1265.625	53597.29	-22711.55	1	58210.68	-22.96453	2.122544E-007	0.068097	6
	30	10	998.264	56576	-20455.76	1	60160.46	-19.87809	-9.854733E-009	0.0670588	6
	31	11	796.875	59359.11	-19019.79	1	62331.82	-17.76645	2.151007E-007	0.0661357	6
	32	11	627.7902	61246.21	-17436.17	1	63679.81	-15.89111	-2.558779E-007	0.0718282	6
	33	12	505.5147	62882.8	-16505.38	1	65012.87	-14.70715	1.802261E-007	0.0658865	6
	34	12	397.9953	64119.34	-15972.03	1	66078.7	-13.98762	8.9028E-010	0.0694432	6
	35	12	315.5048	65062.96	-16023.33	1	67006.99	-13.83515	6.224679E-010	0.0694403	6
	36	13	252.4038	65751.48	-16633.16	1	67822.71	-14.1963	1.125568E-009	0.0694322	6
	37	13	198.6229	66978.14	-18069.21	1	69372.67	-15.09771	1.259746E-009	0.0694302	6
	38	14	158.3615	68241.17	-20147.01	1	71153.07	-16.44831	8.233417E-010	0.0694189	6
	39	14	125.558	69314.91	-22960.11	1	73018.66	-18.32711	6.285787E-010	0.0694282	6
	40	14	100.4464	70854.67	-26439.57	1	75626.95	-20.46316	5.808104E-010	0.0694348	6
	41	15	79.00281	73323.88	-31233.38	1	79698.9	-23.07229	5.229912E-010	0.0694308	6
	42	15	63.3446	75425.07	-36949.96	1	83989.53	-26.09976	-1.94711E-010	0.0694297	6
	43	16	49.86702	79236.45	-43450.06	1	90367.71	-28.73858	-1.807729E-010	0.0694274	6
	44	16	39.72458	83342.58	-50921.09	1	97667.5	-31.42432	2.470032E-010	0.0694103	5
	45	17	31.6723	88659.51	-59504.27	1	106776.7	-33.86773	2.175681E-010	0.0694136	5
	46	17	24.93351	95926.8	-69817.83	1	118644.3	-36.04803	5.435796E-010	0.0694211	5
	47	17	19.86229	104110.5	-80422.34	1	131555.1	-37.68505	2.112795E-009	0.0694267	5
	48	17	15.83615	114358.3	-92125.06	1	146849.8	-38.85431	-6.393395E-010	0.0694171	5
	49	18	12.40079	127825.4	-104885	1	165348.7	-39.37002	-1.281747E-010	0.0694253	5
	50	18	9.93114	140339	-117469.9	1	183014.3	-39.93081	1.026152E-009	0.0694201	5
	51	19	7.944915	154388.3	-131917.5	1	203071.4	-40.51233	1.605212E-009	0.0693998	5
	52	19	6.317385	170669.8	-146685.7	1	225044.1	-40.67811	-4.822815E-010	0.0694281	5
	53	20	5.008013	187663.7	-163561.3	1	248937.7	-41.0743	1.497496E-010	0.0694212	5
	54	21	3.945707	206031.8	-183950.8	1	276201	-41.75935	4.417692E-010	0.0694162	5
	55	22	3.158693	224917.1	-205623.1	1	304743.5	-42.43409	4.560069E-011	0.0694382	5
	56	23	2.504006	245885.7	-232727.6	1	338558.6	-43.42521	-3.22383E-010	0.0694194	5
	57	24	1.998082	267265.9	-262788.1	1	374818.2	-44.51599	6.74077E-011	0.0694385	5
	58	26	1.584686	292255.3	-300273.4	1	419019.4	-45.77529	2.043636E-010	0.069461	5
	59	28	1.266892	317296.5	-343421.8	1	467563.5	-47.26434	1.200988E-010	0.0694321	5
	60	30	0.999041	346462.8	-397224.9	1	527090.3	-48.9048	6.513376E-011	0.0694038	5
