EXPLAIN
TAG	EISPOT
TITLE	LABEL	Potentiostatic EIS	Test &Identifier
DATE	LABEL	3/17/2020	Date
TIME	LABEL	15:54:09	Time
NOTES	NOTES	1	&Notes...
	
PSTAT	PSTAT	REF600-11020	Potentiostat
VDC	POTEN	0.00000E+000	T	DC &Voltage (V)
FREQINIT	QUANT	1.00000E+006	Initial Fre&q. (Hz)
FREQFINAL	QUANT	1.00000E+000	Final Fre&q. (Hz)
PTSPERDEC	QUANT	1.00000E+001	Points/&decade
VAC	QUANT	2.50000E+001	AC &Voltage (mV rms)
AREA	QUANT	4.00000E-004	&Area (cm^2)
CONDIT	TWOPARAM	F	5.00000E+000	0.00000E+000	Conditionin&g	Time(s)	E(V)
DELAY	TWOPARAM	T	3.00000E+000	0.00000E+000	Init. De&lay	Time(s)	Stab.(mV/s)
SPEED	SELECTOR	0	&Optimize for:
ZGUESS	QUANT	5.00000E+003	E&stimated Z (ohms)
OCVCURVE	TABLE	12
	Pt	T	Vf	Vm	Ach	Over
	#	s	V vs. Ref.	V	V	bits
	0	0.258333	2.98828E-003	2.98828E-003	5.79963E-004	...........
	1	0.516667	2.98825E-003	2.98687E-003	5.80397E-004	...........
	2	0.775	2.98808E-003	2.98490E-003	5.78963E-004	...........
	3	1.03333	2.98755E-003	2.98373E-003	5.81930E-004	...........
	4	1.29167	2.98658E-003	2.98231E-003	5.79997E-004	...........
	5	1.55	2.98528E-003	2.98060E-003	5.76330E-004	...........
	6	1.80833	2.98381E-003	2.97772E-003	5.79630E-004	...........
	7	2.06667	2.98214E-003	2.97541E-003	5.78997E-004	...........
	8	2.325	2.98022E-003	2.97394E-003	5.80730E-004	...........
	9	2.58333	2.97810E-003	2.97124E-003	5.75930E-004	...........
	10	2.84167	2.97594E-003	2.96979E-003	5.77397E-004	...........
	11	3.1	2.97378E-003	2.96592E-003	5.71730E-004	...........
EOC	QUANT	0.0029738	Open Circuit (V)
PSTATMODEL	IQUANT	4	Pstat Model
PSTATSECTION	LABEL	REF600-11020	Pstat Section
PSTATSERIALNO	LABEL	11020	Pstat Serial Number
CTRLMODE	IQUANT	1	Control Mode
IESTAB	IQUANT	0	I/E Stability
CASPEED	IQUANT	1	Control Amp Speed
CONVENTION	IQUANT	1	Current Convention
ICHRANGE	IQUANT	2	Ich Range
ICHRANGEMODE	TOGGLE	F	Ich Auto Range
ICHOFFSETENABLE	TOGGLE	T	Ich Offset Enable
ICHOFFSET	QUANT	0	Ich Offset (V)
ICHFILTER	IQUANT	3	Ich Filter
VCHRANGE	IQUANT	2	Vch Range
VCHRANGEMODE	TOGGLE	F	Vch Auto Range
VCHOFFSETENABLE	TOGGLE	T	Vch Offset Enable
VCHOFFSET	QUANT	0	Vch Offset (V)
VCHFILTER	IQUANT	3	Vch Filter
ACHRANGE	IQUANT	2	Ach Range
ACHOFFSETENABLE	TOGGLE	F	Ach Offset Enable
ACHOFFSET	QUANT	0	Ach Offset (V)
ACHFILTER	IQUANT	3	Ach Filter
IERANGELOWERLIMIT	IQUANT	1	I/E Range Lower Limit
IERANGEMODE	TOGGLE	F	I/E AutoRange
IERANGE	IQUANT	6	I/E Range
POSFEEDENABLE	TOGGLE	F	Positive Feedback IR Comp
POSFEEDRESISTANCE	QUANT	0	Positive Feedback Resistance (ohm)
ACHSELECT	IQUANT	0	Ach Select
CABLEID	IQUANT	14	Cable ID
DCCALDATE	LABEL	2/27/2020	DC Calibration Date
ACCALDATE	LABEL	2/27/2020	AC Calibration Date
THERMOSELECT	IQUANT	1	Thermo Select
FRAMEWORKVERSION	QUANT	6.33	Framework Version
INSTRUMENTVERSION	LABEL	3.50	Instrument Version
ZCURVE	TABLE
	Pt	Time	Freq	Zreal	Zimag	Zsig	Zmod	Zphz	Idc	Vdc	IERange
	#	s	Hz	ohm	ohm	V	ohm	°	A	V	#
	0	1	1000078	1891.003	-1715.201	1	2552.999	-42.20905	-1.122565E-008	0.0055508	8
	1	1	794390.6	2255.506	-1744.141	1	2851.199	-37.71412	5.468181E-008	0.005132	8
	2	2	630984.4	2615.559	-1704.647	1	3122.013	-33.09363	3.396304E-008	0.0049525	8
	3	2	501234.4	2946.728	-1608.196	1	3357.007	-28.62379	3.238657E-008	0.0048198	8
	4	2	398109.4	3232.395	-1473.236	1	3552.295	-24.50218	7.467803E-008	0.0047176	8
	5	3	316265.6	3465.669	-1318.375	1	3707.961	-20.82732	3.866882E-008	0.0047169	8
	6	3	251203.1	3652.453	-1161.543	1	3832.701	-17.64156	3.633667E-008	0.0047083	8
	7	3	199546.9	3793.587	-1014.018	1	3926.771	-14.96518	2.683343E-008	0.0046996	8
	8	4	158578.1	3905.199	-886.5857	1	4004.574	-12.79088	4.627927E-008	0.004708	8
	9	4	125953.1	4014.906	-732.2498	1	4081.135	-10.33616	-3.374738E-009	0.0046247	7
	10	4	100078.1	4066.39	-649.2642	1	4117.897	-9.071615	1.741818E-009	0.0046212	7
	11	5	79453.13	4120.613	-595.2943	1	4163.391	-8.220499	4.541244E-010	0.0046103	7
	12	5	63140.62	4168.902	-555.4822	1	4205.747	-7.589629	-6.335118E-010	0.0046083	7
	13	5	50203.12	4213.5	-531.5573	1	4246.896	-7.190209	-7.663465E-010	0.004601	7
	14	5	39890.62	4256.567	-522.0975	1	4288.467	-6.992796	2.822723E-010	0.0046092	7
	15	6	31640.63	4299.969	-527.0137	1	4332.145	-6.987449	-3.342115E-011	0.004611	7
	16	6	25171.88	4344.102	-544.8054	1	4378.131	-7.148296	1.182409E-009	0.0046043	7
	17	6	20015.62	4391.048	-576.7103	1	4428.758	-7.482272	3.838418E-010	0.0046107	7
	18	7	15890.62	4440.832	-622.3119	1	4484.224	-7.977145	1.197387E-010	0.0046096	7
	19	7	12609.37	4495.313	-683.3188	1	4546.951	-8.643191	-2.870565E-011	0.004598	7
	20	7	10078.13	4551.712	-758.5664	1	4614.489	-9.461681	8.901722E-010	0.0045948	7
	21	8	8015.625	4614.486	-854.7284	1	4692.978	-10.49381	1.549631E-009	0.0046033	7
	22	8	6328.125	4684.42	-976.7	1	4785.158	-11.77742	-8.022404E-010	0.004591	7
	23	8	5015.625	4759.974	-1125.266	1	4891.173	-13.30063	2.588529E-010	0.0045935	7
	24	9	3984.375	4842.033	-1305.655	1	5014.979	-15.09089	1.144943E-009	0.004601	7
	25	9	3170.956	4931.754	-1524.539	1	5162.017	-17.1778	9.308561E-010	0.0045958	7
	26	9	2527.573	5031.157	-1788.979	1	5339.755	-19.57437	3.761143E-010	0.0045925	7
	27	10	1976.103	5153.827	-2143.298	1	5581.726	-22.58073	7.027591E-010	0.0045914	7
	28	10	1577.524	5282.925	-2542.021	1	5862.693	-25.69578	2.010736E-009	0.0045959	7
	29	10	1265.625	5428.925	-3013.989	1	6209.458	-29.03782	1.874784E-009	0.0045944	7
	30	11	998.264	5612.565	-3633.841	1	6686.231	-32.92093	1.649257E-009	0.0045894	7
	31	11	796.875	5820.501	-4354.424	1	7269.061	-36.80084	1.897099E-009	0.0045876	7
	32	11	627.7902	6083.547	-5282.797	1	8057.139	-40.97021	2.629067E-009	0.004585	7
	33	12	505.5147	6374.944	-6300.389	1	8962.969	-44.66299	8.258523E-010	0.0045833	7
	34	12	397.9953	6763.883	-7666.607	1	10223.84	-48.57957	5.351307E-010	0.0046538	6
	35	12	315.5048	7223.146	-9282.542	1	11761.78	-52.11198	5.47334E-010	0.0046513	6
	36	13	252.4038	7760.317	-11157.56	1	13590.94	-55.18058	4.348407E-010	0.0046472	6
	37	13	198.6229	8465.949	-13593.17	1	16013.95	-58.08498	6.297933E-010	0.004648	6
	38	13	158.3615	9282.779	-16377.53	1	18825.34	-60.45545	5.30791E-010	0.0046454	6
	39	13	125.558	10300.08	-19815.05	1	22332.22	-62.53409	4.699761E-010	0.0046555	6
	40	14	100.4464	11481.46	-23788.47	1	26414.3	-64.2358	4.915275E-010	0.0046482	6
	41	14	79.00281	13020.11	-28952.42	1	31745.33	-65.78622	3.4516E-010	0.004647	6
	42	14	63.3446	14727.8	-34694.28	1	37690.87	-66.99866	2.221189E-010	0.0046441	6
	43	15	49.86702	16967.6	-42227.23	1	45508.66	-68.10892	2.207841E-010	0.0046472	6
	44	15	39.72458	19581.59	-50920.42	1	54555.73	-68.96561	3.553588E-010	0.0046519	6
	45	16	31.6723	22794.06	-61397.45	1	65492.1	-69.63235	5.142795E-010	0.0046399	6
	46	16	24.93351	27056.94	-74817.93	1	79560.05	-70.11813	4.520429E-010	0.0046465	6
	47	16	19.86229	32192.42	-90219.97	1	95791.4	-70.36251	1.167022E-009	0.0046481	6
	48	16	15.83615	38736.58	-108684.6	1	115381.4	-70.38328	-4.16994E-010	0.0046533	5
	49	17	12.40079	47942.07	-132530.7	1	140935.5	-70.11275	3.38237E-010	0.0046527	5
	50	17	9.93114	58615.3	-158338.2	1	168839.4	-69.68592	3.211134E-010	0.0046571	5
	51	17	7.944915	72314.87	-188697.9	1	202080	-69.03162	-5.259729E-010	0.0046555	5
	52	18	6.317385	90294.91	-225078.2	1	242514.7	-68.14076	3.425264E-010	0.0046369	5
	53	19	5.008013	113498	-267910.4	1	290960.1	-67.04045	4.176322E-010	0.0046534	5
	54	20	3.945707	143559.9	-317975.7	1	348881.1	-65.70175	-5.976041E-012	0.0046392	5
	55	20	3.158693	178580	-371080	1	411814.5	-64.30109	3.049635E-010	0.0046465	5
	56	21	2.504006	222658.3	-432264.3	1	486239.8	-62.74712	1.451028E-010	0.0046505	5
	57	23	1.998082	274003.3	-498550.4	1	568885.1	-61.20681	-2.570952E-011	0.0046102	5
	58	24	1.584686	335067.8	-571541.6	1	662518.1	-59.61892	3.751859E-011	0.0046433	5
	59	26	1.266892	405445.1	-648707.4	1	764988.3	-57.99443	9.896979E-011	0.0046743	5
	60	29	0.999041	490058.5	-739859.7	1	887439.9	-56.48083	1.357869E-010	0.0046811	5
