EXPLAIN
TAG	EISPOT
TITLE	LABEL	Potentiostatic EIS	Test &Identifier
DATE	LABEL	2/6/2020	Date
TIME	LABEL	17:59:41	Time
NOTES	NOTES	6	&Notes...
	
	
	
	
	
	
PSTAT	PSTAT	REF600-11020	Potentiostat
VDC	POTEN	0.00000E+000	T	DC &Voltage (V)
FREQINIT	QUANT	1.00000E+006	Initial Fre&q. (Hz)
FREQFINAL	QUANT	1.00000E+000	Final Fre&q. (Hz)
PTSPERDEC	QUANT	1.00000E+001	Points/&decade
VAC	QUANT	2.50000E+001	AC &Voltage (mV rms)
AREA	QUANT	1.60000E-004	&Area (cm^2)
CONDIT	TWOPARAM	F	5.00000E+000	0.00000E+000	Conditionin&g	Time(s)	E(V)
DELAY	TWOPARAM	F	5.00000E+000	0.00000E+000	Init. De&lay	Time(s)	Stab.(mV/s)
SPEED	SELECTOR	0	&Optimize for:
ZGUESS	QUANT	1.00000E+003	E&stimated Z (ohms)
OCVCURVE	TABLE	39
	Pt	T	Vf	Vm	Ach	Over
	#	s	V vs. Ref.	V	V	bits
	0	0.258333	-4.72172E-002	-4.72172E-002	5.66904E-004	...........
	1	0.516667	-4.72173E-002	-4.72228E-002	5.65271E-004	...........
	2	0.775	-4.72194E-002	-4.73020E-002	5.67371E-004	...........
	3	1.03333	-4.72248E-002	-4.71083E-002	5.71404E-004	...........
	4	1.29167	-4.72241E-002	-4.70835E-002	5.64304E-004	...........
	5	1.55	-4.72102E-002	-4.75036E-002	5.65071E-004	...........
	6	1.80833	-4.72102E-002	-4.74624E-002	5.65638E-004	...........
	7	2.06667	-4.72571E-002	-4.73920E-002	5.71971E-004	...........
	8	2.325	-4.73410E-002	-4.78584E-002	5.65004E-004	...........
	9	2.58333	-4.74426E-002	-4.78284E-002	5.64738E-004	...........
	10	2.84167	-4.75627E-002	-4.78526E-002	5.64671E-004	...........
	11	3.1	-4.76870E-002	-4.78991E-002	5.62571E-004	...........
	12	3.35833	-4.77862E-002	-4.79186E-002	5.66604E-004	...........
	13	3.61667	-4.78507E-002	-4.79324E-002	5.63804E-004	...........
	14	3.875	-4.78896E-002	-4.79393E-002	5.68471E-004	...........
	15	4.13333	-4.79077E-002	-4.76499E-002	5.66638E-004	...........
	16	4.39167	-4.79023E-002	-4.81272E-002	5.69204E-004	...........
	17	4.65	-4.78913E-002	-4.80059E-002	5.69171E-004	...........
	18	4.90833	-4.79083E-002	-4.80479E-002	5.70438E-004	...........
	19	5.16667	-4.79564E-002	-4.81382E-002	5.71304E-004	...........
	20	5.425	-4.80112E-002	-4.80773E-002	5.70004E-004	...........
	21	5.68333	-4.80557E-002	-4.81155E-002	5.66504E-004	...........
	22	5.94167	-4.80856E-002	-4.81606E-002	5.68204E-004	...........
	23	6.2	-4.81064E-002	-4.81928E-002	5.61204E-004	...........
	24	6.45833	-4.81279E-002	-4.82028E-002	5.69671E-004	...........
	25	6.71667	-4.81503E-002	-4.80688E-002	5.72838E-004	...........
	26	6.975	-4.81623E-002	-4.81717E-002	5.70071E-004	...........
	27	7.23333	-4.81601E-002	-4.82261E-002	5.71804E-004	...........
	28	7.49167	-4.81590E-002	-4.82205E-002	5.69171E-004	...........
	29	7.75	-4.81721E-002	-4.82307E-002	5.64338E-004	...........
	30	8.00833	-4.81943E-002	-4.82470E-002	5.69071E-004	...........
	31	8.26667	-4.82153E-002	-4.82562E-002	5.68538E-004	...........
	32	8.525	-4.82325E-002	-4.83135E-002	5.64871E-004	...........
	33	8.78333	-4.82504E-002	-4.83419E-002	5.66171E-004	...........
	34	9.04167	-4.82738E-002	-4.83620E-002	5.64871E-004	...........
	35	9.3	-4.83024E-002	-4.83798E-002	5.63671E-004	...........
	36	9.5583	-4.83304E-002	-4.83562E-002	5.68738E-004	...........
	37	9.8167	-4.83509E-002	-4.83425E-002	5.64538E-004	...........
	38	10.075	-4.83599E-002	-4.83571E-002	5.69238E-004	...........
EOC	QUANT	-0.0483599	Open Circuit (V)
PSTATMODEL	IQUANT	4	Pstat Model
PSTATSECTION	LABEL	REF600-11020	Pstat Section
PSTATSERIALNO	LABEL	11020	Pstat Serial Number
CTRLMODE	IQUANT	1	Control Mode
IESTAB	IQUANT	0	I/E Stability
CASPEED	IQUANT	1	Control Amp Speed
CONVENTION	IQUANT	1	Current Convention
ICHRANGE	IQUANT	2	Ich Range
ICHRANGEMODE	TOGGLE	F	Ich Auto Range
ICHOFFSETENABLE	TOGGLE	T	Ich Offset Enable
ICHOFFSET	QUANT	0	Ich Offset (V)
ICHFILTER	IQUANT	3	Ich Filter
VCHRANGE	IQUANT	2	Vch Range
VCHRANGEMODE	TOGGLE	F	Vch Auto Range
VCHOFFSETENABLE	TOGGLE	T	Vch Offset Enable
VCHOFFSET	QUANT	0	Vch Offset (V)
VCHFILTER	IQUANT	3	Vch Filter
ACHRANGE	IQUANT	2	Ach Range
ACHOFFSETENABLE	TOGGLE	F	Ach Offset Enable
ACHOFFSET	QUANT	0	Ach Offset (V)
ACHFILTER	IQUANT	3	Ach Filter
IERANGELOWERLIMIT	IQUANT	1	I/E Range Lower Limit
IERANGEMODE	TOGGLE	F	I/E AutoRange
IERANGE	IQUANT	7	I/E Range
POSFEEDENABLE	TOGGLE	F	Positive Feedback IR Comp
POSFEEDRESISTANCE	QUANT	0	Positive Feedback Resistance (ohm)
ACHSELECT	IQUANT	0	Ach Select
CABLEID	IQUANT	14	Cable ID
DCCALDATE	LABEL	1/27/2020	DC Calibration Date
ACCALDATE	LABEL	1/27/2020	AC Calibration Date
THERMOSELECT	IQUANT	1	Thermo Select
FRAMEWORKVERSION	QUANT	6.33	Framework Version
INSTRUMENTVERSION	LABEL	3.50	Instrument Version
ZCURVE	TABLE
	Pt	Time	Freq	Zreal	Zimag	Zsig	Zmod	Zphz	Idc	Vdc	IERange
	#	s	Hz	ohm	ohm	V	ohm	°	A	V	#
	0	1	1000078	1941.518	-2290.715	1	3002.81	-49.71673	-2.539906E-006	-0.0454268	8
	1	2	794390.6	2332.262	-2531.285	1	3441.925	-47.34332	-1.360954E-006	-0.0458502	8
	2	2	630984.4	2771.611	-2747.752	1	3902.816	-44.75232	-1.345556E-006	-0.0460167	8
	3	2	501234.4	3278.028	-2928.323	1	4395.514	-41.77501	5.422086E-007	-0.0465315	8
	4	3	398109.4	3827.874	-3060.292	1	4900.817	-38.64149	2.049876E-006	-0.046987	8
	5	3	316265.6	4418.7	-3124.162	1	5411.589	-35.26153	5.222409E-009	-0.0466365	8
	6	3	251203.1	5024.207	-3111.021	1	5909.408	-31.76606	-3.764021E-007	-0.0464906	8
	7	4	199546.9	5610.757	-3012.538	1	6368.357	-28.23232	-1.257986E-006	-0.046409	8
	8	4	158578.1	6106.515	-2843.286	1	6736.007	-24.9674	1.955175E-006	-0.047004	8
	9	5	125953.1	6648.318	-2595.32	1	7136.934	-21.3243	2.268247E-007	-0.0472817	7
	10	5	100078.1	7073.546	-2367.684	1	7459.288	-18.50662	5.432873E-008	-0.0468219	7
	11	5	79453.13	7409.216	-2140.007	1	7712.076	-16.11033	2.940519E-008	-0.0467983	7
	12	6	63140.62	7691.315	-1913.582	1	7925.789	-13.97139	-3.345854E-008	-0.0465942	7
	13	6	50203.12	7914.934	-1703.1	1	8096.094	-12.14349	-4.084393E-008	-0.0466684	7
	14	6	39890.62	8099.005	-1520.971	1	8240.584	-10.63611	2.890355E-008	-0.0468063	7
	15	7	31640.63	8248.943	-1363.854	1	8360.931	-9.388167	2.635592E-009	-0.0467511	7
	16	7	25171.88	8368.455	-1243.735	1	8460.373	-8.453522	-2.384708E-008	-0.046716	7
	17	7	20015.62	8472.646	-1154.119	1	8550.891	-7.756921	6.413315E-009	-0.0467756	7
	18	8	15890.62	8558.937	-1100.679	1	8629.42	-7.328014	6.669666E-008	-0.0467786	7
	19	8	12609.37	8634.787	-1080.039	1	8702.07	-7.129526	-1.440484E-008	-0.0467372	7
	20	8	10078.13	8699.678	-1084.62	1	8767.028	-7.106603	2.917702E-008	-0.0468106	7
	21	8	8015.625	8778.584	-1100.075	1	8847.242	-7.142703	1.170827E-008	-0.0468857	6
	22	9	6328.125	8843.646	-1203.073	1	8925.103	-7.746854	-1.845639E-009	-0.0467905	6
	23	9	5015.625	8908.929	-1351.007	1	9010.784	-8.622998	-6.77408E-009	-0.046694	6
	24	9	3984.375	8978.511	-1547.622	1	9110.916	-9.77995	-3.108455E-009	-0.046629	6
	25	10	3170.956	9054.813	-1800.41	1	9232.069	-11.24572	-2.045661E-009	-0.0467938	6
	26	10	2527.573	9139.06	-2121.21	1	9382.001	-13.06719	6.928184E-010	-0.0466702	6
	27	10	1976.103	9252.551	-2562.028	1	9600.71	-15.47739	1.180548E-008	-0.0468942	6
	28	11	1577.524	9376.518	-3065.503	1	9864.91	-18.10433	1.064659E-008	-0.0469229	6
	29	11	1265.625	9519.86	-3666.148	1	10201.39	-21.06196	2.253346E-009	-0.046821	6
	30	11	998.264	9710.85	-4461.146	1	10686.56	-24.67395	7.27188E-009	-0.0467808	6
	31	12	796.875	9929.51	-5388.249	1	11297.27	-28.48647	2.297899E-009	-0.0468664	6
	32	12	627.7902	10216.64	-6585.6	1	12155.24	-32.80565	1.066783E-008	-0.0469273	6
	33	12	505.5147	10523.88	-7908.301	1	13164.09	-36.9235	1.36172E-009	-0.0466562	6
	34	13	397.9953	10947.77	-9683.32	1	14615.76	-41.49282	4.942629E-010	-0.0467238	6
	35	13	315.5048	11448.88	-11791.25	1	16435.04	-45.84401	1.36205E-009	-0.0467251	6
	36	13	252.4038	12029.81	-14252.73	1	18650.91	-49.83443	1.400215E-009	-0.0467234	6
	37	14	198.6229	12792.47	-17479.59	1	21660.64	-53.8014	1.013643E-009	-0.0467266	6
	38	14	158.3615	13682.18	-21206.46	1	25237.2	-57.17032	9.730711E-010	-0.0467271	6
	39	14	125.558	14785.88	-25864.69	1	29792.69	-60.245	1.005613E-009	-0.0467279	6
	40	15	100.4464	16115.17	-31346.82	1	35246.59	-62.79263	2.557902E-010	-0.0467292	6
	41	15	79.00281	17832.12	-38569.89	1	42492.6	-65.18736	6.931591E-010	-0.0467282	6
	42	15	63.3446	20063.26	-46124.98	1	50299.58	-66.49211	8.635468E-010	-0.0467323	6
	43	16	49.86702	23048.71	-56962.12	1	61448.56	-67.97015	1.160149E-009	-0.0467315	6
	44	16	39.72458	26261.73	-69454.49	1	74253.65	-69.28768	8.513987E-010	-0.0467299	6
	45	16	31.6723	30680.52	-84475.9	1	89874.76	-70.03966	1.143432E-009	-0.0467323	6
	46	17	24.93351	37151.07	-103281.8	1	109760.3	-70.21604	2.2426E-010	-0.0467392	5
	47	17	19.86229	45244.45	-124936.1	1	132876.2	-70.09261	7.69374E-010	-0.0467291	5
	48	17	15.83615	55428.66	-150681	1	160552.5	-69.80373	1.861109E-010	-0.0467339	5
	49	17	12.40079	70499.95	-183075.8	1	196181	-68.939	1.146636E-010	-0.0467286	5
	50	18	9.93114	88482.33	-216381	1	233773	-67.75941	6.725378E-010	-0.0467337	5
	51	18	7.944915	111351.4	-255383.8	1	278603.7	-66.44203	1.385587E-010	-0.0467289	5
	52	19	6.317385	140144.9	-301111.4	1	332127.5	-65.04153	-2.726785E-011	-0.0467282	5
	53	20	5.008013	176772.6	-351898.2	1	393803.1	-63.32779	2.162949E-010	-0.0467245	5
	54	21	3.945707	222552.4	-409686.9	1	466232.8	-61.48806	-6.428406E-011	-0.0467406	5
	55	22	3.158693	272868.5	-466746.1	1	540656.3	-59.68864	1.150612E-010	-0.0467516	5
	56	24	2.504006	333126.4	-531791.4	1	627515.3	-57.93602	2.381723E-010	-0.0467473	5
	57	25	1.998082	399245.8	-598555.5	1	719490.1	-56.2961	3.810406E-011	-0.0467808	5
	58	27	1.584686	474910	-675851.3	1	826023.3	-54.9049	-9.621715E-012	-0.0467884	5
	59	29	1.266892	553428.6	-755145	1	936230.3	-53.76316	2.261579E-011	-0.0467552	5
	60	31	0.999041	646629.4	-848954.9	1	1067171	-52.70431	5.268574E-012	-0.0467829	4
