EXPLAIN
TAG	EISPOT
TITLE	LABEL	Potentiostatic EIS	Test &Identifier
DATE	LABEL	7/5/2020	Date
TIME	LABEL	17:38:04	Time
NOTES	NOTES	1	&Notes...
	
PSTAT	PSTAT	REF600-11020	Potentiostat
VDC	POTEN	0.00000E+000	T	DC &Voltage (V)
FREQINIT	QUANT	1.00000E+006	Initial Fre&q. (Hz)
FREQFINAL	QUANT	1.00000E+000	Final Fre&q. (Hz)
PTSPERDEC	QUANT	1.00000E+001	Points/&decade
VAC	QUANT	2.50000E+001	AC &Voltage (mV rms)
AREA	QUANT	4.00000E-004	&Area (cm^2)
CONDIT	TWOPARAM	F	5.00000E+000	0.00000E+000	Conditionin&g	Time(s)	E(V)
DELAY	TWOPARAM	F	3.00000E+000	0.00000E+000	Init. De&lay	Time(s)	Stab.(mV/s)
SPEED	SELECTOR	0	&Optimize for:
ZGUESS	QUANT	1.00000E+003	E&stimated Z (ohms)
OCVCURVE	TABLE	39
	Pt	T	Vf	Vm	Ach	Over
	#	s	V vs. Ref.	V	V	bits
	0	0.258333	6.70284E-002	6.70284E-002	5.04284E-004	...........
	1	0.516667	6.70284E-002	6.70315E-002	5.01750E-004	...........
	2	0.775	6.70283E-002	6.70064E-002	5.01150E-004	...........
	3	1.03333	6.70266E-002	6.70119E-002	4.97517E-004	...........
	4	1.29167	6.70215E-002	6.69631E-002	5.07283E-004	...........
	5	1.55	6.70119E-002	6.69750E-002	5.00617E-004	...........
	6	1.80833	6.69986E-002	6.69751E-002	5.00750E-004	...........
	7	2.06667	6.69859E-002	6.69732E-002	5.05084E-004	...........
	8	2.325	6.69777E-002	6.69712E-002	5.10250E-004	...........
	9	2.58333	6.69739E-002	6.69716E-002	5.08617E-004	...........
	10	2.84167	6.69724E-002	6.69674E-002	5.02884E-004	...........
	11	3.1	6.69714E-002	6.69658E-002	5.04017E-004	...........
	12	3.35833	6.69701E-002	6.69666E-002	5.00650E-004	...........
	13	3.61667	6.69685E-002	6.69644E-002	5.01917E-004	...........
	14	3.875	6.69671E-002	6.69638E-002	4.99350E-004	...........
	15	4.13333	6.69660E-002	6.69677E-002	5.01284E-004	...........
	16	4.39167	6.69654E-002	6.69685E-002	5.02717E-004	...........
	17	4.65	6.69656E-002	6.69634E-002	5.02850E-004	...........
	18	4.90833	6.69660E-002	6.69608E-002	5.05784E-004	...........
	19	5.16667	6.69655E-002	6.69608E-002	4.96250E-004	...........
	20	5.425	6.69642E-002	6.69622E-002	5.03884E-004	...........
	21	5.68333	6.69627E-002	6.69573E-002	5.05484E-004	...........
	22	5.94167	6.69618E-002	6.69800E-002	5.02717E-004	...........
	23	6.2	6.69634E-002	6.70119E-002	5.05284E-004	...........
	24	6.45833	6.69703E-002	6.70099E-002	5.03484E-004	...........
	25	6.71667	6.69821E-002	6.69860E-002	5.00184E-004	...........
	26	6.975	6.69929E-002	6.69935E-002	5.05517E-004	...........
	27	7.23333	6.69973E-002	6.69862E-002	4.99184E-004	...........
	28	7.49167	6.69967E-002	6.70200E-002	5.02184E-004	...........
	29	7.75	6.69963E-002	6.70089E-002	5.05884E-004	...........
	30	8.00833	6.69991E-002	6.69938E-002	5.04150E-004	...........
	31	8.26667	6.70023E-002	6.69827E-002	5.05484E-004	...........
	32	8.525	6.70016E-002	6.69898E-002	5.03584E-004	...........
	33	8.78333	6.69969E-002	6.69812E-002	5.03484E-004	...........
	34	9.04167	6.69914E-002	6.69847E-002	5.04817E-004	...........
	35	9.3	6.69874E-002	6.69911E-002	5.03817E-004	...........
	36	9.5583	6.69860E-002	6.70036E-002	5.05450E-004	...........
	37	9.8167	6.69878E-002	6.69965E-002	5.04450E-004	...........
	38	10.075	6.69918E-002	6.70064E-002	5.02250E-004	...........
EOC	QUANT	0.0669918	Open Circuit (V)
PSTATMODEL	IQUANT	4	Pstat Model
PSTATSECTION	LABEL	REF600-11020	Pstat Section
PSTATSERIALNO	LABEL	11020	Pstat Serial Number
CTRLMODE	IQUANT	1	Control Mode
IESTAB	IQUANT	0	I/E Stability
CASPEED	IQUANT	1	Control Amp Speed
CONVENTION	IQUANT	1	Current Convention
ICHRANGE	IQUANT	2	Ich Range
ICHRANGEMODE	TOGGLE	F	Ich Auto Range
ICHOFFSETENABLE	TOGGLE	T	Ich Offset Enable
ICHOFFSET	QUANT	0	Ich Offset (V)
ICHFILTER	IQUANT	3	Ich Filter
VCHRANGE	IQUANT	2	Vch Range
VCHRANGEMODE	TOGGLE	F	Vch Auto Range
VCHOFFSETENABLE	TOGGLE	T	Vch Offset Enable
VCHOFFSET	QUANT	0	Vch Offset (V)
VCHFILTER	IQUANT	3	Vch Filter
ACHRANGE	IQUANT	2	Ach Range
ACHOFFSETENABLE	TOGGLE	F	Ach Offset Enable
ACHOFFSET	QUANT	0	Ach Offset (V)
ACHFILTER	IQUANT	3	Ach Filter
IERANGELOWERLIMIT	IQUANT	1	I/E Range Lower Limit
IERANGEMODE	TOGGLE	F	I/E AutoRange
IERANGE	IQUANT	8	I/E Range
POSFEEDENABLE	TOGGLE	F	Positive Feedback IR Comp
POSFEEDRESISTANCE	QUANT	0	Positive Feedback Resistance (ohm)
ACHSELECT	IQUANT	0	Ach Select
CABLEID	IQUANT	14	Cable ID
DCCALDATE	LABEL	6/26/2020	DC Calibration Date
ACCALDATE	LABEL	6/26/2020	AC Calibration Date
THERMOSELECT	IQUANT	1	Thermo Select
FRAMEWORKVERSION	QUANT	6.33	Framework Version
INSTRUMENTVERSION	LABEL	3.50	Instrument Version
ZCURVE	TABLE
	Pt	Time	Freq	Zreal	Zimag	Zsig	Zmod	Zphz	Idc	Vdc	IERange
	#	s	Hz	ohm	ohm	V	ohm	°	A	V	#
	0	1	1000078	1319.776	-1953.443	1	2357.488	-55.95646	6.636354E-006	0.0696424	8
	1	2	794390.6	1563.965	-2214.2	1	2710.843	-54.76514	-3.760407E-006	0.0698081	8
	2	2	630984.4	1844.478	-2498.653	1	3105.699	-53.56567	-3.597988E-006	0.069632	8
	3	2	501234.4	2159.583	-2808.61	1	3542.893	-52.44276	7.838016E-006	0.0681411	8
	4	3	398109.4	2516.118	-3170.471	1	4047.56	-51.56413	-4.649054E-006	0.0693561	8
	5	3	316265.6	2910.819	-3570.502	1	4606.664	-50.81168	3.777357E-007	0.0684379	8
	6	3	251203.1	3397.638	-4019.721	1	5263.279	-49.79409	-4.350583E-006	0.0690325	8
	7	4	199546.9	3964.459	-4546.281	1	6032.048	-48.91084	-4.187423E-006	0.0690215	8
	8	4	158578.1	4639.999	-5088.854	1	6886.655	-47.64155	-1.577491E-006	0.0691409	8
	9	4	125953.1	5435.54	-5624.813	1	7821.996	-45.9804	-3.433802E-006	0.0715821	7
	10	5	100078.1	6413.213	-6164.003	1	8895.181	-43.86487	-1.378945E-006	0.0707616	7
	11	5	79453.13	7499.456	-6649.096	1	10022.59	-41.56053	-1.085666E-006	0.0707891	7
	12	5	63140.62	8708.146	-7060.314	1	11210.7	-39.03415	5.435975E-007	0.0694132	7
	13	6	50203.12	10005.74	-7342.226	1	12410.6	-36.27128	-1.655612E-006	0.070677	7
	14	6	39890.62	11382.13	-7543.93	1	13655.17	-33.53591	1.317172E-006	0.0663756	7
	15	6	31640.63	12721.86	-7473.229	1	14754.49	-30.43135	-3.781725E-007	0.0705265	7
	16	7	25171.88	14143.92	-7334.44	1	15932.49	-27.40936	-4.606001E-007	0.0676082	7
	17	7	20015.62	15406.04	-7060.653	1	16946.94	-24.62218	-1.013695E-006	0.0685187	7
	18	7	15890.62	16609.7	-6659.186	1	17894.89	-21.84691	-1.418675E-006	0.0694105	7
	19	8	12609.37	17747.79	-6236.686	1	18811.71	-19.36179	2.139809E-007	0.065936	6
	20	8	10078.13	18672.97	-5685.23	1	19519.27	-16.93356	2.171777E-007	0.0665434	6
	21	8	8015.625	19350.66	-5043.974	1	19997.24	-14.60972	4.075475E-008	0.0659494	6
	22	9	6328.125	19938.57	-4469.316	1	20433.34	-12.63426	-1.765062E-007	0.068795	6
	23	9	5015.625	20425.99	-4005.743	1	20815.07	-11.09547	2.356077E-007	0.0656697	6
	24	9	3984.375	20813.38	-3666.497	1	21133.86	-9.99075	-1.784142E-007	0.0726423	6
	25	9	3170.956	21076.64	-3423.624	1	21352.89	-9.226364	-2.385705E-007	0.0727332	6
	26	10	2527.573	21259.64	-3282.604	1	21511.57	-8.777464	-1.079367E-007	0.0675297	6
	27	10	1976.103	21428.54	-3282.469	1	21678.49	-8.70899	-2.384616E-007	0.0727349	6
	28	10	1577.524	21652.07	-3419.314	1	21920.4	-8.974088	1.749761E-007	0.0649889	6
	29	11	1265.625	21820.17	-3663.719	1	22125.61	-9.53135	-2.71138E-007	0.0723046	6
	30	11	998.264	22028.42	-4077.194	1	22402.56	-10.48609	-3.0161E-008	0.0664571	6
	31	11	796.875	22255	-4659.239	1	22737.5	-11.82448	-2.707916E-007	0.0723	6
	32	12	627.7902	22471.84	-5448.405	1	23122.91	-13.62865	-1.784297E-007	0.0726369	6
	33	12	505.5147	22722.73	-6342.885	1	23591.41	-15.59669	-2.703473E-007	0.0714028	6
	34	12	397.9953	23161.53	-7620.326	1	24382.9	-18.21162	-2.308631E-010	0.0687024	6
	35	13	315.5048	23675.92	-9141.551	1	25379.47	-21.11216	-2.190452E-010	0.0686991	6
	36	13	252.4038	24233.96	-10925.09	1	26582.74	-24.26668	2.737668E-010	0.0686834	6
	37	13	198.6229	24848.98	-13254.24	1	28162.86	-28.07508	1.85677E-010	0.0686947	6
	38	14	158.3615	25819.78	-15914.51	1	30330.39	-31.64839	7.654049E-010	0.0686957	6
	39	14	125.558	27108.46	-19190.23	1	33213.45	-35.29489	5.668231E-010	0.0686848	6
	40	14	100.4464	28532.52	-22981.53	1	36636.8	-38.84972	8.147434E-010	0.0686904	6
	41	15	79.00281	30460.31	-27832.97	1	41261.42	-42.41937	4.595981E-010	0.0686987	6
	42	15	63.3446	32617.14	-33002	1	46400.54	-45.33604	-4.161671E-012	0.0686963	6
	43	15	49.86702	35955.59	-39689.96	1	53554.62	-47.82621	4.702645E-010	0.0686758	6
	44	16	39.72458	39978.64	-47117.61	1	61792.88	-49.68586	2.040171E-010	0.0687003	6
	45	16	31.6723	44788.49	-55559.13	1	71364.03	-51.12629	-4.228893E-010	0.0686964	6
	46	16	24.93351	51166.14	-65533.11	1	83141.82	-52.01843	1.752959E-009	0.068676	6
	47	17	19.86229	58371.04	-76239.11	1	96018.6	-52.5612	2.792888E-009	0.0686845	6
	48	17	15.83615	67007.56	-88467.59	1	110979.9	-52.8588	-7.896567E-010	0.0686691	5
	49	17	12.40079	78532.91	-102806.5	1	129370	-52.62413	1.504075E-009	0.0686733	5
	50	17	9.93114	89953.17	-117070.1	1	147638	-52.46241	6.997346E-010	0.0686824	5
	51	18	7.944915	103636.6	-132579.5	1	168279.1	-51.98546	-1.086575E-009	0.0686928	5
	52	18	6.317385	118828.6	-150817.8	1	192005.8	-51.76561	5.159588E-010	0.06867	5
	53	19	5.008013	136223.6	-171033.5	1	218653.4	-51.46362	3.169615E-010	0.0686821	5
	54	20	3.945707	155019.5	-194374.9	1	248621.5	-51.42665	-2.660121E-010	0.0686762	5
	55	21	3.158693	174185	-219461.4	1	280185.2	-51.5612	1.711217E-010	0.0686808	5
	56	22	2.504006	194775.8	-250502.7	1	317315.6	-52.13351	2.362665E-010	0.0686781	5
	57	23	1.998082	216623.3	-286044.4	1	358813.4	-52.86311	-7.781174E-011	0.068634	5
	58	25	1.584686	240443.3	-331485.6	1	409506.6	-54.04472	-4.914296E-011	0.0686361	5
	59	27	1.266892	266193.8	-383301.8	1	466668.5	-55.22096	3.440898E-011	0.0686681	5
	60	29	0.999041	298620.9	-450510.8	1	540494.6	-56.46161	7.642797E-011	0.0686878	5
