EXPLAIN
TAG	EISPOT
TITLE	LABEL	Potentiostatic EIS	Test &Identifier
DATE	LABEL	1/7/2020	Date
TIME	LABEL	16:49:12	Time
NOTES	NOTES	5	&Notes...
	
	
	
	
	
PSTAT	PSTAT	REF600-11020	Potentiostat
VDC	POTEN	0.00000E+000	T	DC &Voltage (V)
FREQINIT	QUANT	1.00000E+006	Initial Fre&q. (Hz)
FREQFINAL	QUANT	1.00000E+000	Final Fre&q. (Hz)
PTSPERDEC	QUANT	1.00000E+001	Points/&decade
VAC	QUANT	2.50000E+001	AC &Voltage (mV rms)
AREA	QUANT	1.00000E-001	&Area (cm^2)
CONDIT	TWOPARAM	T	5.00000E+000	0.00000E+000	Conditionin&g	Time(s)	E(V)
DELAY	TWOPARAM	T	5.00000E+000	0.00000E+000	Init. De&lay	Time(s)	Stab.(mV/s)
SPEED	SELECTOR	0	&Optimize for:
ZGUESS	QUANT	1.00000E+003	E&stimated Z (ohms)
OCVCURVE	TABLE	19
	Pt	T	Vf	Vm	Ach	Over
	#	s	V vs. Ref.	V	V	bits
	0	0.258333	2.01624E-003	2.01624E-003	6.52080E-004	...........
	1	0.516667	2.00730E-003	1.54830E-003	6.53546E-004	...........
	2	0.775	1.95532E-003	1.25689E-003	6.51146E-004	...........
	3	1.03333	1.81603E-003	8.79017E-004	6.53246E-004	...........
	4	1.29167	1.57886E-003	5.94799E-004	6.58413E-004	...........
	5	1.55	1.27683E-003	3.35458E-004	6.53746E-004	...........
	6	1.80833	9.55749E-004	4.70428E-005	6.56313E-004	...........
	7	2.06667	6.45529E-004	-2.14845E-004	6.52713E-004	...........
	8	2.325	3.53001E-004	-5.15641E-004	6.49546E-004	...........
	9	2.58333	7.13040E-005	-7.92424E-004	6.56080E-004	...........
	10	2.84167	-2.09345E-004	-1.14789E-003	6.58213E-004	...........
	11	3.1	-4.96124E-004	-1.37117E-003	6.55679E-004	...........
	12	3.35833	-7.85603E-004	-1.51129E-003	6.52913E-004	...........
	13	3.61667	-1.05692E-003	-1.57441E-003	6.58313E-004	...........
	14	3.875	-1.28341E-003	-1.71528E-003	6.59279E-004	...........
	15	4.13333	-1.45794E-003	-1.91206E-003	6.60146E-004	...........
	16	4.39167	-1.60224E-003	-2.10828E-003	6.54879E-004	...........
	17	4.65	-1.74511E-003	-2.16748E-003	6.50313E-004	...........
	18	4.90833	-1.89494E-003	-2.32706E-003	6.55713E-004	...........
EOC	QUANT	-0.0018949	Open Circuit (V)
PSTATMODEL	IQUANT	4	Pstat Model
PSTATSECTION	LABEL	REF600-11020	Pstat Section
PSTATSERIALNO	LABEL	11020	Pstat Serial Number
CTRLMODE	IQUANT	1	Control Mode
IESTAB	IQUANT	0	I/E Stability
CASPEED	IQUANT	1	Control Amp Speed
CONVENTION	IQUANT	1	Current Convention
ICHRANGE	IQUANT	2	Ich Range
ICHRANGEMODE	TOGGLE	F	Ich Auto Range
ICHOFFSETENABLE	TOGGLE	T	Ich Offset Enable
ICHOFFSET	QUANT	0	Ich Offset (V)
ICHFILTER	IQUANT	3	Ich Filter
VCHRANGE	IQUANT	2	Vch Range
VCHRANGEMODE	TOGGLE	F	Vch Auto Range
VCHOFFSETENABLE	TOGGLE	T	Vch Offset Enable
VCHOFFSET	QUANT	0	Vch Offset (V)
VCHFILTER	IQUANT	3	Vch Filter
ACHRANGE	IQUANT	2	Ach Range
ACHOFFSETENABLE	TOGGLE	F	Ach Offset Enable
ACHOFFSET	QUANT	0	Ach Offset (V)
ACHFILTER	IQUANT	3	Ach Filter
IERANGELOWERLIMIT	IQUANT	1	I/E Range Lower Limit
IERANGEMODE	TOGGLE	F	I/E AutoRange
IERANGE	IQUANT	6	I/E Range
POSFEEDENABLE	TOGGLE	F	Positive Feedback IR Comp
POSFEEDRESISTANCE	QUANT	0	Positive Feedback Resistance (ohm)
ACHSELECT	IQUANT	0	Ach Select
CABLEID	IQUANT	14	Cable ID
DCCALDATE	LABEL	12/22/2019	DC Calibration Date
ACCALDATE	LABEL	12/22/2019	AC Calibration Date
THERMOSELECT	IQUANT	1	Thermo Select
FRAMEWORKVERSION	QUANT	6.33	Framework Version
INSTRUMENTVERSION	LABEL	3.50	Instrument Version
ZCURVE	TABLE
	Pt	Time	Freq	Zreal	Zimag	Zsig	Zmod	Zphz	Idc	Vdc	IERange
	#	s	Hz	ohm	ohm	V	ohm	°	A	V	#
	0	1	1000078	2082.453	-1893.786	1	2814.789	-42.28344	-1.98701E-006	0.000735	8
	1	1	794390.6	2437.4	-1939.871	1	3115.128	-38.51548	-2.539055E-006	0.0004329	8
	2	1	630984.4	2832.406	-1949.262	1	3438.335	-34.53574	-2.942824E-007	-0.0004598	8
	3	2	501234.4	3225.64	-1897.598	1	3742.41	-30.46769	7.414251E-006	-0.0020226	8
	4	2	398109.4	3542.563	-1790.864	1	3969.502	-26.81787	-8.148735E-007	-0.0005554	8
	5	2	316265.6	3822.478	-1703.964	1	4185.072	-24.0261	-2.915325E-006	0.0003374	8
	6	3	251203.1	4091.086	-1522.98	1	4365.37	-20.41869	-4.010282E-008	-8.051503E-005	8
	7	3	199546.9	4282.868	-1416.733	1	4511.107	-18.30373	-2.881523E-007	-0.0002556	8
	8	3	158578.1	4485.789	-1292.36	1	4668.243	-16.07174	-1.830163E-007	-0.000454	8
	9	4	125953.1	4649.279	-1141.328	1	4787.319	-13.79251	-6.817186E-007	0.0015649	7
	10	4	100078.1	4746.919	-1082.23	1	4868.723	-12.84311	-4.862454E-008	-0.0004631	7
	11	4	79453.13	4857.013	-1053.236	1	4969.897	-12.23507	6.274857E-010	-0.0004531	7
	12	5	63140.62	4958.568	-1046.678	1	5067.833	-11.91929	7.395781E-008	-0.0005653	7
	13	5	50203.12	5062.454	-1059.875	1	5172.211	-11.82465	-1.093815E-008	-0.0004971	7
	14	5	39890.62	5165.906	-1098.985	1	5281.51	-12.00995	-5.009193E-008	-0.0004737	7
	15	5	31640.63	5273.667	-1160.164	1	5399.772	-12.40698	-2.595583E-008	-0.0005117	7
	16	6	25171.88	5387.594	-1245.874	1	5529.771	-13.0207	-1.031663E-007	-0.0002985	7
	17	6	20015.62	5511.624	-1360.529	1	5677.062	-13.8661	-1.025397E-007	-0.0003006	7
	18	6	15890.62	5648.434	-1499.638	1	5844.118	-14.8688	1.119364E-007	-0.0006542	7
	19	7	12609.37	5800.826	-1672.368	1	6037.085	-16.08217	1.12549E-007	-0.0006526	7
	20	7	10078.13	5967.826	-1870.652	1	6254.141	-17.40392	-8.827269E-008	-0.0001753	7
	21	7	8015.625	6153.285	-2108.523	1	6504.52	-18.91486	3.716879E-009	-0.0004243	7
	22	8	6328.125	6376.756	-2412.831	1	6817.974	-20.72559	-9.497955E-008	-0.0003693	7
	23	8	5015.625	6628.421	-2756.442	1	7178.714	-22.58008	-2.816746E-008	-0.0005141	7
	24	8	3984.375	6904.758	-3156.83	1	7592.184	-24.5697	-5.257159E-008	-0.0003531	7
	25	9	3170.956	7238.09	-3613.883	1	8090.124	-26.53235	5.653579E-008	-0.0006503	7
	26	9	2527.573	7608.255	-4139.807	1	8661.613	-28.55152	1.442426E-008	-0.0005765	7
	27	9	1976.103	8074.058	-4811.048	1	9398.755	-30.78923	-5.147737E-008	-0.0003593	7
	28	10	1577.524	8560.242	-5494.643	1	10171.96	-32.69557	3.750502E-010	-0.0002353	6
	29	10	1265.625	9117.019	-6295.181	1	11079.23	-34.62457	1.496018E-008	-0.0005108	6
	30	10	998.264	9787.64	-7284.707	1	12201.02	-36.65943	2.443468E-008	-0.0007714	6
	31	11	796.875	10531.74	-8371.716	1	13453.74	-38.48131	-6.684131E-009	-0.0004548	6
	32	11	627.7902	11419.18	-9705.84	1	14986.7	-40.36317	1.220608E-009	-0.0003381	6
	33	11	505.5147	12357.52	-11100.57	1	16611.17	-41.93285	6.985417E-009	-0.0007382	6
	34	12	397.9953	13549.95	-12876.23	1	18692.2	-43.53961	1.488424E-009	-0.0004675	6
	35	12	315.5048	14890.33	-14856.67	1	21034.31	-44.93517	7.211922E-010	-0.0004677	6
	36	12	252.4038	16360.24	-17024.2	1	23611.03	-46.13937	5.6403E-010	-0.000469	6
	37	12	198.6229	18117.89	-19665.73	1	26739.47	-47.34586	9.236391E-010	-0.0004678	6
	38	13	158.3615	19918.39	-22532.08	1	30073.86	-48.52328	8.413214E-010	-0.0004708	6
	39	13	125.558	21886.16	-25951.58	1	33948.32	-49.85753	8.011907E-010	-0.0004688	6
	40	13	100.4464	23849.57	-29905.48	1	38251.01	-51.4277	1.174854E-009	-0.0004676	6
	41	14	79.00281	25898.78	-34959.85	1	43507.91	-53.4684	1.462653E-009	-0.0004747	6
	42	14	63.3446	28419.09	-41036.76	1	49916.53	-55.29633	5.619705E-010	-0.0004772	6
	43	14	49.86702	30647.1	-48916.97	1	57724.47	-57.93234	1.712438E-009	-0.0004801	6
	44	15	39.72458	33014.13	-58130.28	1	66851.04	-60.40631	6.548794E-010	-0.0004755	6
	45	15	31.6723	36071.35	-69567.65	1	78363.26	-62.59292	9.569079E-010	-0.0004775	6
	46	16	24.93351	39766.83	-84935.35	1	93783.88	-64.91095	5.24678E-010	-0.0004834	6
	47	16	19.86229	44317.95	-102934	1	112069.2	-66.70585	-4.153042E-010	-0.0004874	5
	48	16	15.83615	49926.32	-124921.4	1	134528.8	-68.21529	5.779334E-010	-0.0004871	5
	49	16	12.40079	58771.49	-153371.6	1	164246.6	-69.03333	-3.228575E-010	-0.0004807	5
	50	17	9.93114	69522.27	-185483.6	1	198084.6	-69.45319	2.744835E-010	-0.000481	5
	51	17	7.944915	83080.16	-223887.7	1	238805.4	-69.64114	4.694613E-010	-0.0004873	5
	52	18	6.317385	100858.8	-270489.8	1	288681.9	-69.55079	5.185128E-010	-0.000496	5
	53	19	5.008013	125225.6	-326687.3	1	349865.8	-69.0272	9.006036E-010	-0.0004782	5
	54	20	3.945707	157562.1	-392716.7	1	423145.6	-68.13882	5.967399E-010	-0.0004774	5
	55	21	3.158693	196620.3	-464225.1	1	504147.2	-67.04515	7.405981E-010	-0.0005049	5
	56	23	2.504006	247692	-549912.1	1	603120.7	-65.7522	5.597278E-010	-0.0005002	5
	57	24	1.998082	302029	-641184.2	1	708758.6	-64.77728	6.036464E-010	-0.0005086	5
	58	26	1.584686	389498.8	-734055.2	1	830991.2	-62.04902	4.935662E-010	-0.0005488	5
	59	28	1.266892	471847.2	-861292.2	1	982071	-61.28447	2.518815E-010	-0.0005379	5
	60	30	0.999041	577892.5	-988323	1	1144877	-59.68431	2.459233E-010	-0.0004729	4
