EXPLAIN
TAG	EISPOT
TITLE	LABEL	Potentiostatic EIS	Test &Identifier
DATE	LABEL	6/1/2020	Date
TIME	LABEL	13:06:45	Time
NOTES	NOTES	1	&Notes...
	
PSTAT	PSTAT	REF600-11020	Potentiostat
VDC	POTEN	0.00000E+000	T	DC &Voltage (V)
FREQINIT	QUANT	1.00000E+006	Initial Fre&q. (Hz)
FREQFINAL	QUANT	1.00000E+000	Final Fre&q. (Hz)
PTSPERDEC	QUANT	1.00000E+001	Points/&decade
VAC	QUANT	2.50000E+001	AC &Voltage (mV rms)
AREA	QUANT	4.00000E-004	&Area (cm^2)
CONDIT	TWOPARAM	F	5.00000E+000	0.00000E+000	Conditionin&g	Time(s)	E(V)
DELAY	TWOPARAM	T	3.00000E+000	0.00000E+000	Init. De&lay	Time(s)	Stab.(mV/s)
SPEED	SELECTOR	0	&Optimize for:
ZGUESS	QUANT	1.00000E+003	E&stimated Z (ohms)
OCVCURVE	TABLE	12
	Pt	T	Vf	Vm	Ach	Over
	#	s	V vs. Ref.	V	V	bits
	0	0.258333	2.00898E-002	2.00898E-002	5.79930E-004	...........
	1	0.516667	2.00898E-002	2.00862E-002	5.79330E-004	...........
	2	0.775	2.00893E-002	2.00827E-002	5.78930E-004	...........
	3	1.03333	2.00881E-002	2.00789E-002	5.75730E-004	...........
	4	1.29167	2.00859E-002	2.00743E-002	5.80297E-004	...........
	5	1.55	2.00828E-002	2.00726E-002	5.82030E-004	...........
	6	1.80833	2.00792E-002	2.00663E-002	5.75097E-004	...........
	7	2.06667	2.00754E-002	2.00628E-002	5.74230E-004	...........
	8	2.325	2.00714E-002	2.00577E-002	5.76330E-004	...........
	9	2.58333	2.00672E-002	2.00535E-002	5.74497E-004	...........
	10	2.84167	2.00628E-002	2.00485E-002	5.74230E-004	...........
	11	3.1	2.00583E-002	2.00444E-002	5.80697E-004	...........
EOC	QUANT	0.0200583	Open Circuit (V)
PSTATMODEL	IQUANT	4	Pstat Model
PSTATSECTION	LABEL	REF600-11020	Pstat Section
PSTATSERIALNO	LABEL	11020	Pstat Serial Number
CTRLMODE	IQUANT	1	Control Mode
IESTAB	IQUANT	0	I/E Stability
CASPEED	IQUANT	1	Control Amp Speed
CONVENTION	IQUANT	1	Current Convention
ICHRANGE	IQUANT	2	Ich Range
ICHRANGEMODE	TOGGLE	F	Ich Auto Range
ICHOFFSETENABLE	TOGGLE	T	Ich Offset Enable
ICHOFFSET	QUANT	0	Ich Offset (V)
ICHFILTER	IQUANT	3	Ich Filter
VCHRANGE	IQUANT	2	Vch Range
VCHRANGEMODE	TOGGLE	F	Vch Auto Range
VCHOFFSETENABLE	TOGGLE	T	Vch Offset Enable
VCHOFFSET	QUANT	0	Vch Offset (V)
VCHFILTER	IQUANT	3	Vch Filter
ACHRANGE	IQUANT	2	Ach Range
ACHOFFSETENABLE	TOGGLE	F	Ach Offset Enable
ACHOFFSET	QUANT	0	Ach Offset (V)
ACHFILTER	IQUANT	3	Ach Filter
IERANGELOWERLIMIT	IQUANT	1	I/E Range Lower Limit
IERANGEMODE	TOGGLE	F	I/E AutoRange
IERANGE	IQUANT	7	I/E Range
POSFEEDENABLE	TOGGLE	F	Positive Feedback IR Comp
POSFEEDRESISTANCE	QUANT	0	Positive Feedback Resistance (ohm)
ACHSELECT	IQUANT	0	Ach Select
CABLEID	IQUANT	14	Cable ID
DCCALDATE	LABEL	2/27/2020	DC Calibration Date
ACCALDATE	LABEL	2/27/2020	AC Calibration Date
THERMOSELECT	IQUANT	1	Thermo Select
FRAMEWORKVERSION	QUANT	6.33	Framework Version
INSTRUMENTVERSION	LABEL	3.50	Instrument Version
ZCURVE	TABLE
	Pt	Time	Freq	Zreal	Zimag	Zsig	Zmod	Zphz	Idc	Vdc	IERange
	#	s	Hz	ohm	ohm	V	ohm	°	A	V	#
	0	1	1000078	1928.17	-1339.595	1	2347.84	-34.78963	1.400988E-008	0.0224511	8
	1	1	794390.6	2183.439	-1326.536	1	2554.82	-31.28053	6.018053E-008	0.0220746	8
	2	2	630984.4	2420.488	-1280.676	1	2738.41	-27.88325	5.624873E-008	0.0219377	8
	3	2	501234.4	2634.415	-1217.199	1	2902.019	-24.79872	5.282113E-008	0.0218123	8
	4	2	398109.4	2822.995	-1141.715	1	3045.129	-22.02007	4.804101E-008	0.0217623	8
	5	3	316265.6	2987.984	-1066.386	1	3172.574	-19.64106	8.51178E-008	0.0216987	8
	6	3	251203.1	3126.257	-994.63	1	3280.667	-17.64866	6.268953E-008	0.0217246	8
	7	3	199546.9	3253.558	-933.9486	1	3384.952	-16.01637	5.27792E-008	0.0217082	8
	8	4	158578.1	3362.483	-881.7643	1	3476.177	-14.69415	4.816877E-008	0.021706	8
	9	4	125953.1	3483.637	-803.691	1	3575.143	-12.9911	7.084E-009	0.0216616	7
	10	4	100078.1	3562.61	-781.4144	1	3647.301	-12.37121	2.595019E-009	0.0216369	7
	11	5	79453.13	3648.472	-783.4224	1	3731.635	-12.11888	3.270104E-009	0.0216353	7
	12	5	63140.62	3732.981	-796.2874	1	3816.965	-12.04137	2.624705E-009	0.0216285	7
	13	5	50203.12	3818.61	-821.9288	1	3906.066	-12.14718	2.013694E-009	0.021626	7
	14	6	39890.62	3906.542	-861.4738	1	4000.401	-12.43588	3.026353E-009	0.021624	7
	15	6	31640.63	3999.509	-917.5115	1	4103.4	-12.92044	3.357665E-009	0.0216282	7
	16	6	25171.88	4096.73	-987.86	1	4214.151	-13.55714	2.735705E-009	0.0216153	7
	17	7	20015.62	4202.661	-1077.967	1	4338.706	-14.38603	3.377958E-009	0.0216217	7
	18	7	15890.62	4318.731	-1187.193	1	4478.936	-15.37061	4.232822E-009	0.0216245	7
	19	7	12609.37	4446.9	-1318.8	1	4638.335	-16.51858	3.929648E-009	0.02162	7
	20	8	10078.13	4584.649	-1469.288	1	4814.334	-17.76961	3.396766E-009	0.021624	7
	21	8	8015.625	4741.441	-1649.056	1	5020.025	-19.17749	3.328057E-009	0.0216137	7
	22	8	6328.125	4924.388	-1868.773	1	5267.059	-20.78143	3.520289E-009	0.0216175	7
	23	8	5015.625	5128.815	-2118.89	1	5549.274	-22.4472	2.970255E-009	0.0216097	7
	24	9	3984.375	5359.501	-2408.203	1	5875.687	-24.19597	3.264056E-009	0.0216155	7
	25	9	3170.956	5620.334	-2739.696	1	6252.526	-25.98744	5.855009E-009	0.0216193	7
	26	9	2527.573	5913.624	-3113.56	1	6683.203	-27.76709	3.970039E-009	0.0216161	7
	27	10	1976.103	6275.113	-3576.865	1	7222.95	-29.68349	3.419162E-009	0.0216033	7
	28	10	1577.524	6651.773	-4067.021	1	7796.585	-31.44241	4.677786E-009	0.0216172	7
	29	10	1265.625	7060.383	-4608.665	1	8431.418	-33.13449	4.331659E-009	0.0216092	7
	30	11	998.264	7550.648	-5280.609	1	9213.964	-34.96734	4.39198E-009	0.0216165	7
	31	11	796.875	8069.463	-6020.92	1	10068.15	-36.72796	3.601802E-010	0.021666	6
	32	11	627.7902	8673.189	-6944.566	1	11110.86	-38.68402	3.135226E-010	0.0216608	6
	33	12	505.5147	9271.632	-7934.12	1	12203.01	-40.55497	-2.286429E-010	0.0216623	6
	34	12	397.9953	10013.53	-9225.857	1	13615.69	-42.6556	5.526071E-010	0.0216812	6
	35	12	315.5048	10831.82	-10730.18	1	15246.81	-44.72993	5.630633E-010	0.0216804	6
	36	13	252.4038	11730.37	-12450.27	1	17105.87	-46.70529	4.711805E-010	0.0216772	6
	37	13	198.6229	12849.37	-14649.22	1	19486.05	-48.7448	4.225492E-010	0.0216849	6
	38	13	158.3615	14082.94	-17122.86	1	22170.29	-50.56391	4.946339E-010	0.0216774	6
	39	14	125.558	15558.62	-20120.28	1	25434.15	-52.28591	4.918652E-010	0.0216824	6
	40	14	100.4464	17212.35	-23520.92	1	29146.15	-53.80375	3.879504E-010	0.0216771	6
	41	14	79.00281	19295.05	-27853.38	1	33883.77	-55.28824	3.881337E-010	0.0216774	6
	42	15	63.3446	21529.73	-32558.85	1	39033.42	-56.52509	2.999427E-010	0.0216753	6
	43	15	49.86702	24348.12	-38585.93	1	45625.7	-57.74766	2.567262E-010	0.0216703	6
	44	15	39.72458	27465.85	-45372.14	1	53037.77	-58.81155	4.919071E-010	0.0216762	6
	45	16	31.6723	31057.89	-53369.45	1	61748.61	-59.8031	6.147402E-010	0.0216733	6
	46	16	24.93351	35433.95	-63414.34	1	72642.57	-60.80491	3.688742E-010	0.0216742	6
	47	16	19.86229	40200.58	-74829.91	1	84944.7	-61.75415	1.126628E-009	0.0216809	6
	48	17	15.83615	45794.76	-88510.47	1	99655.7	-62.64324	-3.119945E-010	0.0216745	6
	49	17	12.40079	52877.58	-106198.2	1	118634.3	-63.53063	-1.536513E-010	0.0216875	5
	50	17	9.93114	60576.97	-125694.1	1	139529.8	-64.26874	-2.113668E-010	0.0216891	5
	51	18	7.944915	69794.63	-148987.5	1	164525.3	-64.89881	-7.050107E-010	0.0216881	5
	52	18	6.317385	81546.07	-177828.9	1	195634.6	-65.36548	3.1738E-010	0.0216715	5
	53	19	5.008013	96329	-212822.6	1	233608.1	-65.64728	4.315127E-010	0.0216842	5
	54	20	3.945707	115523.7	-255248.8	1	280174.3	-65.64885	3.502687E-011	0.0216708	5
	55	21	3.158693	138044.8	-302323.6	1	332349.1	-65.45795	3.072625E-010	0.0216828	5
	56	22	2.504006	167219.6	-358969.7	1	396007.1	-65.02239	1.465084E-010	0.021681	5
	57	23	1.998082	202189.7	-422979.7	1	468820.4	-64.4516	3.114913E-011	0.0216371	5
	58	24	1.584686	246412.3	-496912.7	1	554654.2	-63.62381	1.214468E-010	0.0216805	5
	59	26	1.266892	299990.7	-579651.3	1	652679.1	-62.63679	1.462502E-010	0.0217064	5
	60	29	0.999041	367254.8	-679793.7	1	772654.9	-61.62011	1.707913E-010	0.0217106	5
