EXPLAIN
TAG	EISPOT
TITLE	LABEL	Potentiostatic EIS	Test &Identifier
DATE	LABEL	1/14/2020	Date
TIME	LABEL	17:56:53	Time
NOTES	NOTES	5	&Notes...
	
	
	
	
	
PSTAT	PSTAT	REF600-11020	Potentiostat
VDC	POTEN	0.00000E+000	T	DC &Voltage (V)
FREQINIT	QUANT	1.00000E+006	Initial Fre&q. (Hz)
FREQFINAL	QUANT	1.00000E+000	Final Fre&q. (Hz)
PTSPERDEC	QUANT	1.00000E+001	Points/&decade
VAC	QUANT	2.50000E+001	AC &Voltage (mV rms)
AREA	QUANT	1.00000E-001	&Area (cm^2)
CONDIT	TWOPARAM	T	5.00000E+000	0.00000E+000	Conditionin&g	Time(s)	E(V)
DELAY	TWOPARAM	T	5.00000E+000	0.00000E+000	Init. De&lay	Time(s)	Stab.(mV/s)
SPEED	SELECTOR	0	&Optimize for:
ZGUESS	QUANT	5.00000E+002	E&stimated Z (ohms)
OCVCURVE	TABLE	19
	Pt	T	Vf	Vm	Ach	Over
	#	s	V vs. Ref.	V	V	bits
	0	0.258333	6.13651E-003	6.13651E-003	6.53480E-004	...........
	1	0.516667	6.13780E-003	6.20413E-003	6.55813E-004	...........
	2	0.775	6.14606E-003	6.28528E-003	6.63246E-004	...........
	3	1.03333	6.17055E-003	6.36550E-003	6.61246E-004	...........
	4	1.29167	6.21675E-003	6.44723E-003	6.59279E-004	...........
	5	1.55	6.28191E-003	6.53668E-003	6.61913E-004	...........
	6	1.80833	6.35908E-003	6.62084E-003	6.60513E-004	...........
	7	2.06667	6.44245E-003	6.71541E-003	6.61946E-004	...........
	8	2.325	6.52890E-003	6.80193E-003	6.56979E-004	...........
	9	2.58333	6.61705E-003	6.89067E-003	6.62346E-004	...........
	10	2.84167	6.70608E-003	6.98463E-003	6.58946E-004	...........
	11	3.1	6.79560E-003	7.07254E-003	6.62246E-004	...........
	12	3.35833	6.88567E-003	7.16937E-003	6.58879E-004	...........
	13	3.61667	6.97660E-003	7.26464E-003	6.60279E-004	...........
	14	3.875	7.06869E-003	7.35433E-003	6.59979E-004	...........
	15	4.13333	7.16166E-003	7.44411E-003	6.59913E-004	...........
	16	4.39167	7.25443E-003	7.53112E-003	6.61846E-004	...........
	17	4.65	7.34579E-003	7.61279E-003	6.57480E-004	...........
	18	4.90833	7.43489E-003	7.69220E-003	6.61746E-004	...........
EOC	QUANT	0.0074349	Open Circuit (V)
PSTATMODEL	IQUANT	4	Pstat Model
PSTATSECTION	LABEL	REF600-11020	Pstat Section
PSTATSERIALNO	LABEL	11020	Pstat Serial Number
CTRLMODE	IQUANT	1	Control Mode
IESTAB	IQUANT	0	I/E Stability
CASPEED	IQUANT	1	Control Amp Speed
CONVENTION	IQUANT	1	Current Convention
ICHRANGE	IQUANT	2	Ich Range
ICHRANGEMODE	TOGGLE	F	Ich Auto Range
ICHOFFSETENABLE	TOGGLE	T	Ich Offset Enable
ICHOFFSET	QUANT	0	Ich Offset (V)
ICHFILTER	IQUANT	3	Ich Filter
VCHRANGE	IQUANT	2	Vch Range
VCHRANGEMODE	TOGGLE	F	Vch Auto Range
VCHOFFSETENABLE	TOGGLE	T	Vch Offset Enable
VCHOFFSET	QUANT	0	Vch Offset (V)
VCHFILTER	IQUANT	3	Vch Filter
ACHRANGE	IQUANT	2	Ach Range
ACHOFFSETENABLE	TOGGLE	F	Ach Offset Enable
ACHOFFSET	QUANT	0	Ach Offset (V)
ACHFILTER	IQUANT	3	Ach Filter
IERANGELOWERLIMIT	IQUANT	1	I/E Range Lower Limit
IERANGEMODE	TOGGLE	F	I/E AutoRange
IERANGE	IQUANT	7	I/E Range
POSFEEDENABLE	TOGGLE	F	Positive Feedback IR Comp
POSFEEDRESISTANCE	QUANT	0	Positive Feedback Resistance (ohm)
ACHSELECT	IQUANT	0	Ach Select
CABLEID	IQUANT	14	Cable ID
DCCALDATE	LABEL	12/22/2019	DC Calibration Date
ACCALDATE	LABEL	12/22/2019	AC Calibration Date
THERMOSELECT	IQUANT	1	Thermo Select
FRAMEWORKVERSION	QUANT	6.33	Framework Version
INSTRUMENTVERSION	LABEL	3.50	Instrument Version
ZCURVE	TABLE
	Pt	Time	Freq	Zreal	Zimag	Zsig	Zmod	Zphz	Idc	Vdc	IERange
	#	s	Hz	ohm	ohm	V	ohm	°	A	V	#
	0	2	1000078	2298.91	-1633.115	1	2819.938	-35.38948	-7.313093E-007	0.0098608	8
	1	2	794390.6	2572.863	-1607.528	1	3033.771	-31.99719	1.628061E-006	0.0090366	8
	2	2	630984.4	2838.726	-1563.438	1	3240.787	-28.84393	-1.16551E-006	0.0093702	8
	3	3	501234.4	3084.488	-1500.363	1	3430.037	-25.93931	-3.290653E-007	0.0093035	8
	4	3	398109.4	3303.18	-1454.266	1	3609.14	-23.76209	1.36991E-006	0.0088804	8
	5	3	316265.6	3504.373	-1399.026	1	3773.315	-21.76302	2.535723E-006	0.0086304	8
	6	3	251203.1	3685.362	-1365.932	1	3930.352	-20.33658	-3.793126E-007	0.0091547	8
	7	4	199546.9	3880.531	-1326.638	1	4101.036	-18.87403	9.946931E-007	0.0089198	8
	8	4	158578.1	4077.269	-1310.298	1	4282.64	-17.81566	1.242627E-006	0.0088688	8
	9	4	125953.1	4292.253	-1268.933	1	4475.895	-16.46943	5.557995E-007	0.0079687	7
	10	5	100078.1	4476.812	-1226.19	1	4641.701	-15.31753	-4.860769E-009	0.0090988	7
	11	5	79453.13	4669.236	-1191.523	1	4818.868	-14.31555	2.609348E-008	0.0090464	7
	12	5	63140.62	4852.053	-1146.449	1	4985.656	-13.2941	4.818083E-008	0.0090497	7
	13	6	50203.12	5018.404	-1094.875	1	5136.451	-12.30747	-1.322439E-008	0.0090633	7
	14	6	39890.62	5170.06	-1039.925	1	5273.61	-11.37293	-1.549371E-009	0.0090864	7
	15	6	31640.63	5304.24	-988.49	1	5395.561	-10.55645	-2.401338E-008	0.0090754	7
	16	7	25171.88	5423.031	-947.6285	1	5505.203	-9.91187	4.89716E-008	0.0090447	7
	17	7	20015.62	5522.907	-916.2534	1	5598.395	-9.419609	-7.867632E-010	0.0090837	7
	18	7	15890.62	5617.188	-905.7313	1	5689.74	-9.159696	-2.304292E-008	0.009075	7
	19	7	12609.37	5705.512	-912.1309	1	5777.962	-9.082923	4.867781E-008	0.009042	7
	20	8	10078.13	5777.029	-938.8635	1	5852.822	-9.230817	-1.444861E-010	0.0090799	7
	21	8	8015.625	5859.441	-980.791	1	5940.96	-9.50244	-9.164587E-010	0.0090852	7
	22	8	6328.125	5924.311	-1074.28	1	6020.925	-10.278	-1.691595E-008	0.0090606	7
	23	9	5015.625	5998.449	-1192.889	1	6115.911	-11.24746	2.284788E-009	0.0090139	7
	24	9	3984.375	6083.217	-1352.673	1	6231.793	-12.53641	-2.117983E-009	0.0091275	7
	25	9	3170.956	6153.55	-1549.336	1	6345.599	-14.13215	-5.369071E-009	0.0090694	7
	26	10	2527.573	6240.101	-1800.877	1	6494.768	-16.09801	-2.755177E-008	0.0091139	7
	27	10	1976.103	6344.93	-2148.308	1	6698.758	-18.70541	-2.239292E-008	0.0090743	7
	28	10	1577.524	6433.68	-2529.377	1	6913.03	-21.46208	-1.263504E-008	0.0090463	7
	29	11	1265.625	6571.945	-3021.429	1	7233.221	-24.69044	1.725791E-008	0.0089927	7
	30	11	998.264	6726.165	-3661.698	1	7658.285	-28.5637	1.638938E-010	0.0090658	7
	31	11	796.875	6898.821	-4410.36	1	8188.102	-32.59045	3.242844E-008	0.0089544	7
	32	11	627.7902	7119.283	-5387.939	1	8928.274	-37.11877	2.737888E-008	0.0090228	7
	33	12	505.5147	7367.812	-6481.826	1	9813.19	-41.33968	3.434496E-009	0.0090657	6
	34	12	397.9953	7712.228	-7957.094	1	11081.24	-45.89529	8.996344E-010	0.0090574	6
	35	12	315.5048	8129.655	-9718.49	1	12670.45	-50.08704	5.031923E-010	0.0090562	6
	36	13	252.4038	8637.935	-11782.96	1	14610	-53.75534	6.95289E-010	0.0090519	6
	37	13	198.6229	9334.247	-14489.8	1	17236.08	-57.21059	7.958909E-010	0.0090557	6
	38	13	158.3615	10185.15	-17612.38	1	20345.35	-59.95942	5.613739E-010	0.009056	6
	39	14	125.558	11320.31	-21494.7	1	24293.45	-62.22619	7.64377E-010	0.0090493	6
	40	14	100.4464	12751.64	-26005.91	1	28963.97	-63.87962	8.518145E-010	0.0090518	6
	41	14	79.00281	14781.52	-31793.93	1	35062.05	-65.06551	7.649027E-010	0.0090499	6
	42	15	63.3446	17365.53	-38212.29	1	41973.1	-65.56063	5.450868E-010	0.0090466	6
	43	15	49.86702	20780.34	-46456.42	1	50892.25	-65.90064	7.013612E-010	0.0090507	6
	44	15	39.72458	25030.82	-55517.09	1	60899.01	-65.73096	7.365326E-010	0.0090559	6
	45	16	31.6723	30547.25	-66065.33	1	72785.73	-65.18515	6.326976E-011	0.0090529	6
	46	16	24.93351	37969.59	-78629.29	1	87316.98	-64.2244	-2.185419E-010	0.0090503	6
	47	16	19.86229	46683.15	-92180.74	1	103327.7	-63.14095	-1.879733E-009	0.009051	5
	48	16	15.83615	57174.16	-107015.4	1	121330.9	-61.88614	-5.146078E-010	0.0090416	5
	49	17	12.40079	70893.66	-125111.7	1	143801.4	-60.46225	-7.185939E-011	0.0090547	5
	50	17	9.93114	85723.91	-142423.6	1	166232	-58.95652	-1.381634E-009	0.0090524	5
	51	17	7.944915	102634.4	-161797.2	1	191604.2	-57.61142	1.020858E-010	0.0090473	5
	52	18	6.317385	121620.5	-184330	1	220837.3	-56.58327	-4.981456E-010	0.0090653	5
	53	18	5.008013	143871.4	-209392.2	1	254055.2	-55.50741	-2.557172E-010	0.0090538	5
	54	19	3.945707	168776.3	-238445.2	1	292132.8	-54.70838	4.583309E-012	0.0090454	5
	55	20	3.158693	195870.8	-269070.9	1	332813	-53.94715	-8.785535E-012	0.0090571	5
	56	22	2.504006	227754.6	-304966.1	1	380626.4	-53.24691	-3.22443E-010	0.0090483	5
	57	23	1.998082	261014.2	-344586.1	1	432282.3	-52.8571	-2.785914E-010	0.0090316	5
	58	25	1.584686	300040.3	-389199.5	1	491426.9	-52.37078	-7.164019E-011	0.0090705	5
	59	27	1.266892	342232.8	-439665.1	1	557161.3	-52.10302	-1.005565E-011	0.0090865	5
	60	29	0.999041	390651.8	-501058.7	1	635349.3	-52.05814	3.621821E-011	0.0090792	5
