EXPLAIN
TAG	EISPOT
TITLE	LABEL	Potentiostatic EIS	Test &Identifier
DATE	LABEL	2/14/2020	Date
TIME	LABEL	21:00:06	Time
NOTES	NOTES	1	&Notes...
	
PSTAT	PSTAT	REF600-11020	Potentiostat
VDC	POTEN	0.00000E+000	T	DC &Voltage (V)
FREQINIT	QUANT	1.00000E+006	Initial Fre&q. (Hz)
FREQFINAL	QUANT	1.00000E+000	Final Fre&q. (Hz)
PTSPERDEC	QUANT	1.00000E+001	Points/&decade
VAC	QUANT	2.50000E+001	AC &Voltage (mV rms)
AREA	QUANT	1.60000E-004	&Area (cm^2)
CONDIT	TWOPARAM	F	1.50000E+001	0.00000E+000	Conditionin&g	Time(s)	E(V)
DELAY	TWOPARAM	F	1.00000E+002	0.00000E+000	Init. De&lay	Time(s)	Stab.(mV/s)
SPEED	SELECTOR	1	&Optimize for:
ZGUESS	QUANT	1.00000E+003	E&stimated Z (ohms)
OCVCURVE	TABLE	39
	Pt	T	Vf	Vm	Ach	Over
	#	s	V vs. Ref.	V	V	bits
	0	0.258333	4.75782E-002	4.75782E-002	5.60471E-004	...........
	1	0.516667	4.75832E-002	4.78386E-002	5.59738E-004	...........
	2	0.775	4.76136E-002	4.80777E-002	5.57638E-004	...........
	3	1.03333	4.76944E-002	4.80640E-002	5.59404E-004	...........
	4	1.29167	4.78207E-002	4.81974E-002	5.62704E-004	...........
	5	1.55	4.79595E-002	4.84056E-002	5.59738E-004	...........
	6	1.80833	4.80978E-002	4.87663E-002	5.56638E-004	...........
	7	2.06667	4.82631E-002	4.92366E-002	5.60471E-004	...........
	8	2.325	4.84860E-002	4.91704E-002	5.60338E-004	...........
	9	2.58333	4.87492E-002	4.93495E-002	5.61338E-004	...........
	10	2.84167	4.89936E-002	4.94039E-002	5.60304E-004	...........
	11	3.1	4.91800E-002	4.95330E-002	5.62871E-004	...........
	12	3.35833	4.93176E-002	4.97805E-002	5.62404E-004	...........
	13	3.61667	4.94438E-002	5.00451E-002	5.60738E-004	...........
	14	3.875	4.95998E-002	5.04834E-002	5.61838E-004	...........
	15	4.13333	4.98137E-002	5.07287E-002	5.59838E-004	...........
	16	4.39167	5.00865E-002	5.10694E-002	5.61471E-004	...........
	17	4.65	5.03906E-002	5.11207E-002	5.62938E-004	...........
	18	4.90833	5.06809E-002	5.11867E-002	5.64971E-004	...........
	19	5.16667	5.09155E-002	5.12878E-002	5.67138E-004	...........
	20	5.425	5.10824E-002	5.14481E-002	5.65604E-004	...........
	21	5.68333	5.12054E-002	5.15948E-002	5.66438E-004	...........
	22	5.94167	5.13200E-002	5.17566E-002	5.71171E-004	...........
	23	6.2	5.14474E-002	5.19298E-002	5.68471E-004	...........
	24	6.45833	5.15900E-002	5.20053E-002	5.67938E-004	...........
	25	6.71667	5.17379E-002	5.21467E-002	5.64738E-004	...........
	26	6.975	5.18791E-002	5.22537E-002	5.67404E-004	...........
	27	7.23333	5.20056E-002	5.22000E-002	5.64904E-004	...........
	28	7.49167	5.21072E-002	5.21725E-002	5.63004E-004	...........
	29	7.75	5.21735E-002	5.23462E-002	5.61004E-004	...........
	30	8.00833	5.22148E-002	5.24159E-002	5.64138E-004	...........
	31	8.26667	5.22598E-002	5.25088E-002	5.64404E-004	...........
	32	8.525	5.23255E-002	5.25893E-002	5.62804E-004	...........
	33	8.78333	5.24050E-002	5.25544E-002	5.65438E-004	...........
	34	9.04167	5.24793E-002	5.25775E-002	5.61238E-004	...........
	35	9.3	5.25357E-002	5.27483E-002	5.63138E-004	...........
	36	9.5583	5.25828E-002	5.28141E-002	5.65738E-004	...........
	37	9.8167	5.26415E-002	5.29325E-002	5.63638E-004	...........
	38	10.075	5.27206E-002	5.30065E-002	5.63238E-004	...........
EOC	QUANT	0.0527206	Open Circuit (V)
PSTATMODEL	IQUANT	4	Pstat Model
PSTATSECTION	LABEL	REF600-11020	Pstat Section
PSTATSERIALNO	LABEL	11020	Pstat Serial Number
CTRLMODE	IQUANT	1	Control Mode
IESTAB	IQUANT	0	I/E Stability
CASPEED	IQUANT	1	Control Amp Speed
CONVENTION	IQUANT	1	Current Convention
ICHRANGE	IQUANT	2	Ich Range
ICHRANGEMODE	TOGGLE	F	Ich Auto Range
ICHOFFSETENABLE	TOGGLE	T	Ich Offset Enable
ICHOFFSET	QUANT	0	Ich Offset (V)
ICHFILTER	IQUANT	3	Ich Filter
VCHRANGE	IQUANT	2	Vch Range
VCHRANGEMODE	TOGGLE	F	Vch Auto Range
VCHOFFSETENABLE	TOGGLE	T	Vch Offset Enable
VCHOFFSET	QUANT	0	Vch Offset (V)
VCHFILTER	IQUANT	3	Vch Filter
ACHRANGE	IQUANT	2	Ach Range
ACHOFFSETENABLE	TOGGLE	F	Ach Offset Enable
ACHOFFSET	QUANT	0	Ach Offset (V)
ACHFILTER	IQUANT	3	Ach Filter
IERANGELOWERLIMIT	IQUANT	1	I/E Range Lower Limit
IERANGEMODE	TOGGLE	F	I/E AutoRange
IERANGE	IQUANT	7	I/E Range
POSFEEDENABLE	TOGGLE	F	Positive Feedback IR Comp
POSFEEDRESISTANCE	QUANT	0	Positive Feedback Resistance (ohm)
ACHSELECT	IQUANT	0	Ach Select
CABLEID	IQUANT	14	Cable ID
DCCALDATE	LABEL	1/27/2020	DC Calibration Date
ACCALDATE	LABEL	1/27/2020	AC Calibration Date
THERMOSELECT	IQUANT	1	Thermo Select
FRAMEWORKVERSION	QUANT	6.33	Framework Version
INSTRUMENTVERSION	LABEL	3.50	Instrument Version
ZCURVE	TABLE
	Pt	Time	Freq	Zreal	Zimag	Zsig	Zmod	Zphz	Idc	Vdc	IERange
	#	s	Hz	ohm	ohm	V	ohm	°	A	V	#
	0	2	1000078	1345.359	-1410.837	1	1949.475	-46.36091	6.027306E-007	0.0547925	8
	1	3	794390.6	1553.785	-1542.815	1	2189.641	-44.79702	2.793995E-007	0.0547192	8
	2	4	630984.4	1766.33	-1687.59	1	2442.924	-43.69404	1.959885E-006	0.0541522	8
	3	6	501234.4	2008.454	-1846.644	1	2728.366	-42.59653	4.419189E-007	0.0543487	8
	4	7	398109.4	2280.573	-2021.666	1	3047.646	-41.55612	-4.332504E-007	0.054433	8
	5	8	316265.6	2588.266	-2202.445	1	3398.512	-40.39561	-4.830034E-007	0.0544492	8
	6	10	251203.1	2956.758	-2386.053	1	3799.43	-38.90294	4.048105E-007	0.0542909	8
	7	11	199546.9	3365.54	-2567.857	1	4233.291	-37.3431	3.32898E-007	0.0542694	8
	8	12	158578.1	3818.161	-2708.368	1	4681.197	-35.34954	3.77239E-007	0.0542859	8
	9	14	125953.1	4325.315	-2805.039	1	5155.25	-32.96408	3.476534E-008	0.0540864	7
	10	15	100078.1	4861.541	-2859.55	1	5640.178	-30.46397	2.626059E-008	0.0543144	7
	11	16	79453.13	5393.494	-2840.916	1	6095.948	-27.77712	2.521356E-008	0.0542696	7
	12	18	63140.62	5908.568	-2773.908	1	6527.307	-25.14875	2.920238E-009	0.0542755	7
	13	19	50203.12	6397.001	-2660.988	1	6928.382	-22.58606	-7.602988E-009	0.0543426	7
	14	21	39890.62	6840.877	-2501.399	1	7283.859	-20.08518	2.683366E-008	0.0543005	7
	15	23	31640.63	7239.196	-2325.905	1	7603.669	-17.81186	-8.55203E-009	0.0543327	7
	16	24	25171.88	7575.841	-2138.167	1	7871.793	-15.76092	-1.192687E-008	0.0543199	7
	17	26	20015.62	7865.316	-1957.341	1	8105.207	-13.9746	1.306663E-008	0.0542545	7
	18	27	15890.62	8123.968	-1799.607	1	8320.904	-12.49036	2.607434E-008	0.0542485	7
	19	29	12609.37	8343.093	-1662.369	1	8507.095	-11.26866	2.707915E-008	0.0542867	7
	20	31	10078.13	8506.535	-1548.866	1	8646.394	-10.31934	1.344442E-008	0.0542491	7
	21	32	8015.625	8672.781	-1471.954	1	8796.806	-9.63252	-2.026659E-008	0.0543224	7
	22	34	6328.125	8829.475	-1421.365	1	8943.148	-9.144996	-1.422862E-010	0.0542791	6
	23	35	5015.625	8959.961	-1424.018	1	9072.416	-9.030561	-2.973667E-009	0.0542939	6
	24	37	3984.375	9069.884	-1469.003	1	9188.077	-9.200016	-1.451425E-009	0.0543343	6
	25	38	3170.956	9170.237	-1560.45	1	9302.057	-9.65721	-2.817463E-009	0.0542906	6
	26	40	2527.573	9287.303	-1705.705	1	9442.639	-10.40696	-8.347156E-010	0.0542734	6
	27	42	1976.103	9417.686	-1930.556	1	9613.52	-11.58472	1.819997E-009	0.0542993	6
	28	43	1577.524	9533.17	-2203.173	1	9784.44	-13.01293	1.895944E-009	0.0543024	6
	29	45	1265.625	9663.67	-2552.137	1	9994.99	-14.79383	-2.928447E-010	0.0543266	6
	30	46	998.264	9825.97	-3025.81	1	10281.31	-17.11569	5.257055E-010	0.0543188	6
	31	48	796.875	10007.17	-3589.634	1	10631.51	-19.73321	5.16543E-009	0.0541628	6
	32	49	627.7902	10238.7	-4328.877	1	11116.21	-22.91842	-4.5699E-009	0.0543345	6
	33	50	505.5147	10503.96	-5149.774	1	11698.44	-26.11731	-6.50447E-010	0.0542652	6
	34	52	397.9953	10880.08	-6249.293	1	12547.1	-29.87217	1.083053E-009	0.0542992	6
	35	53	315.5048	11368.51	-7543.184	1	13643.41	-33.5649	6.458618E-010	0.0542957	6
	36	55	252.4038	11965.14	-9024.377	1	14986.79	-37.02441	1.058772E-009	0.0542948	6
	37	56	198.6229	12791.08	-10910.67	1	16812.34	-40.46387	7.448626E-010	0.054292	6
	38	57	158.3615	13787.01	-13008.16	1	18955.05	-43.33506	6.555132E-010	0.0542883	6
	39	59	125.558	15076.13	-15508.01	1	21628.41	-45.80902	6.515778E-010	0.0542902	6
	40	60	100.4464	16605.56	-18278.65	1	24695.22	-47.74588	5.180991E-010	0.0542911	6
	41	62	79.00281	18634.7	-21669.32	1	28579.92	-49.30586	7.404286E-010	0.0542873	6
	42	64	63.3446	20820.11	-25303.93	1	32768.36	-50.5524	7.70097E-010	0.0542868	6
	43	65	49.86702	23928.18	-29495.82	1	37981.06	-50.94967	3.506688E-010	0.0542881	6
	44	66	39.72458	27266.42	-34194.51	1	43734.68	-51.43143	1.081235E-009	0.0542884	6
	45	68	31.6723	31211.49	-39272.98	1	50164.97	-51.52472	1.235381E-009	0.0542864	6
	46	69	24.93351	35895.2	-45329.15	1	57820.39	-51.62504	-4.388067E-010	0.0542817	6
	47	70	19.86229	40954.77	-51783.45	1	66021.35	-51.66004	-9.741091E-010	0.0542817	6
	48	72	15.83615	46511.07	-58967.6	1	75102.98	-51.73516	7.411105E-010	0.0542831	6
	49	73	12.40079	53098.2	-67890.54	1	86189	-51.97051	1.195609E-009	0.0542856	6
	50	75	9.93114	59707.03	-77302.08	1	97675.7	-52.31801	7.960786E-010	0.0542865	6
	51	76	7.944915	66986.85	-88412.13	1	110923.1	-52.85003	-1.649715E-009	0.0542874	5
	52	78	6.317385	75272.49	-101935.2	1	126715.1	-53.55655	-1.052747E-009	0.0542747	5
	53	80	5.008013	84994.51	-118424.2	1	145768.2	-54.33253	-7.910735E-010	0.0542919	5
	54	82	3.945707	96360.3	-138458.8	1	168689.5	-55.16403	7.914042E-010	0.054276	5
	55	84	3.158693	109051.9	-160757.1	1	194255.4	-55.84842	4.357512E-011	0.0542875	5
	56	88	2.504006	124625.5	-188017.7	1	225570.7	-56.46203	-1.040607E-009	0.0542875	5
	57	90	1.998082	142140.1	-218410.7	1	260589.8	-56.94422	-3.221355E-010	0.0542454	5
	58	94	1.584686	162986.2	-256317.3	1	303748.3	-57.54867	-9.648297E-010	0.0542666	5
	59	97	1.266892	187543.8	-298519.2	1	352542.7	-57.86103	-7.002313E-010	0.0542334	5
	60	102	0.999041	217410.9	-350685.1	1	412610.6	-58.20272	-4.129864E-010	0.0543248	5
EXPERIMENTABORTED	TOGGLE	T	Experiment Aborted
