EXPLAIN
TAG	EISPOT
TITLE	LABEL	Potentiostatic EIS	Test &Identifier
DATE	LABEL	3/12/2020	Date
TIME	LABEL	14:02:35	Time
NOTES	NOTES	1	&Notes...
	
PSTAT	PSTAT	REF600-11020	Potentiostat
VDC	POTEN	0.00000E+000	T	DC &Voltage (V)
FREQINIT	QUANT	1.00000E+006	Initial Fre&q. (Hz)
FREQFINAL	QUANT	1.00000E+000	Final Fre&q. (Hz)
PTSPERDEC	QUANT	1.00000E+001	Points/&decade
VAC	QUANT	2.50000E+001	AC &Voltage (mV rms)
AREA	QUANT	2.50000E-001	&Area (cm^2)
CONDIT	TWOPARAM	F	5.00000E+000	0.00000E+000	Conditionin&g	Time(s)	E(V)
DELAY	TWOPARAM	T	5.00000E+000	0.00000E+000	Init. De&lay	Time(s)	Stab.(mV/s)
SPEED	SELECTOR	1	&Optimize for:
ZGUESS	QUANT	5.00000E+003	E&stimated Z (ohms)
OCVCURVE	TABLE	19
	Pt	T	Vf	Vm	Ach	Over
	#	s	V vs. Ref.	V	V	bits
	0	0.258333	2.57203E-002	2.57203E-002	5.75130E-004	...........
	1	0.516667	2.57256E-002	2.59949E-002	5.77697E-004	...........
	2	0.775	2.57536E-002	2.60369E-002	5.74797E-004	...........
	3	1.03333	2.58170E-002	2.59683E-002	5.73530E-004	...........
	4	1.29167	2.58976E-002	2.60623E-002	5.71997E-004	...........
	5	1.55	2.59674E-002	2.61952E-002	5.76663E-004	...........
	6	1.80833	2.60274E-002	2.63190E-002	5.74897E-004	...........
	7	2.06667	2.60980E-002	2.63771E-002	5.75230E-004	...........
	8	2.325	2.61858E-002	2.64666E-002	5.71863E-004	...........
	9	2.58333	2.62819E-002	2.66157E-002	5.70163E-004	...........
	10	2.84167	2.63774E-002	2.65487E-002	5.72197E-004	...........
	11	3.1	2.64643E-002	2.66407E-002	5.75997E-004	...........
	12	3.35833	2.65346E-002	2.67265E-002	5.73263E-004	...........
	13	3.61667	2.65929E-002	2.68084E-002	5.73097E-004	...........
	14	3.875	2.66533E-002	2.68927E-002	5.71930E-004	...........
	15	4.13333	2.67230E-002	2.69534E-002	5.74797E-004	...........
	16	4.39167	2.67987E-002	2.70058E-002	5.75030E-004	...........
	17	4.65	2.68747E-002	2.71596E-002	5.70130E-004	...........
	18	4.90833	2.69486E-002	2.70336E-002	5.68930E-004	...........
EOC	QUANT	0.0269486	Open Circuit (V)
PSTATMODEL	IQUANT	4	Pstat Model
PSTATSECTION	LABEL	REF600-11020	Pstat Section
PSTATSERIALNO	LABEL	11020	Pstat Serial Number
CTRLMODE	IQUANT	1	Control Mode
IESTAB	IQUANT	0	I/E Stability
CASPEED	IQUANT	1	Control Amp Speed
CONVENTION	IQUANT	1	Current Convention
ICHRANGE	IQUANT	2	Ich Range
ICHRANGEMODE	TOGGLE	F	Ich Auto Range
ICHOFFSETENABLE	TOGGLE	T	Ich Offset Enable
ICHOFFSET	QUANT	0	Ich Offset (V)
ICHFILTER	IQUANT	3	Ich Filter
VCHRANGE	IQUANT	2	Vch Range
VCHRANGEMODE	TOGGLE	F	Vch Auto Range
VCHOFFSETENABLE	TOGGLE	T	Vch Offset Enable
VCHOFFSET	QUANT	0	Vch Offset (V)
VCHFILTER	IQUANT	3	Vch Filter
ACHRANGE	IQUANT	2	Ach Range
ACHOFFSETENABLE	TOGGLE	F	Ach Offset Enable
ACHOFFSET	QUANT	0	Ach Offset (V)
ACHFILTER	IQUANT	3	Ach Filter
IERANGELOWERLIMIT	IQUANT	1	I/E Range Lower Limit
IERANGEMODE	TOGGLE	F	I/E AutoRange
IERANGE	IQUANT	7	I/E Range
POSFEEDENABLE	TOGGLE	F	Positive Feedback IR Comp
POSFEEDRESISTANCE	QUANT	0	Positive Feedback Resistance (ohm)
ACHSELECT	IQUANT	0	Ach Select
CABLEID	IQUANT	14	Cable ID
DCCALDATE	LABEL	2/27/2020	DC Calibration Date
ACCALDATE	LABEL	2/27/2020	AC Calibration Date
THERMOSELECT	IQUANT	1	Thermo Select
FRAMEWORKVERSION	QUANT	6.33	Framework Version
INSTRUMENTVERSION	LABEL	3.50	Instrument Version
ZCURVE	TABLE
	Pt	Time	Freq	Zreal	Zimag	Zsig	Zmod	Zphz	Idc	Vdc	IERange
	#	s	Hz	ohm	ohm	V	ohm	°	A	V	#
	0	2	1000078	1777.484	-1546.867	1	2356.321	-41.03164	-2.094574E-007	0.0294985	8
	1	3	794390.6	2077.865	-1599.064	1	2621.932	-37.58083	3.324138E-006	0.02854	8
	2	4	630984.4	2370.717	-1617.211	1	2869.785	-34.30029	-1.148993E-006	0.0290491	8
	3	6	501234.4	2665.64	-1603.735	1	3110.885	-31.03247	4.158811E-008	0.0287491	8
	4	7	398109.4	2936.785	-1561.834	1	3326.264	-28.00483	1.088011E-006	0.0285475	8
	5	9	316265.6	3199.626	-1495.918	1	3532.05	-25.05744	2.576527E-007	0.0285711	8
	6	10	251203.1	3427.951	-1427.342	1	3713.24	-22.60603	8.988519E-007	0.0284744	8
	7	11	199546.9	3639.814	-1355.216	1	3883.923	-20.42187	-1.144051E-006	0.0287591	8
	8	13	158578.1	3826.286	-1279.232	1	4034.464	-18.48618	-1.117328E-006	0.0287564	8
	9	14	125953.1	4018.303	-1179.383	1	4187.804	-16.35711	1.410547E-007	0.0284851	7
	10	15	100078.1	4154.441	-1120.665	1	4302.938	-15.09628	-7.788298E-010	0.0285727	7
	11	17	79453.13	4293.462	-1083.177	1	4427.99	-14.15941	4.463045E-008	0.0284537	7
	12	18	63140.62	4423.112	-1054.958	1	4547.182	-13.41501	3.324855E-009	0.0285015	7
	13	20	50203.12	4547.478	-1040.951	1	4665.097	-12.89329	2.275783E-010	0.0285592	7
	14	21	39890.62	4668.698	-1039.291	1	4782.977	-12.54989	6.498751E-009	0.028567	7
	15	22	31640.63	4790.833	-1052.59	1	4905.102	-12.39153	-1.791237E-008	0.0285736	7
	16	24	25171.88	4914.965	-1078.335	1	5031.867	-12.37453	3.815597E-009	0.0285299	7
	17	25	20015.62	5044.748	-1117.991	1	5167.145	-12.49564	-7.15305E-009	0.0285669	7
	18	26	15890.62	5179.795	-1169.206	1	5310.115	-12.71988	-1.710751E-008	0.0285582	7
	19	28	12609.37	5323.074	-1232.36	1	5463.866	-13.03506	5.634627E-008	0.0284541	7
	20	29	10078.13	5465.608	-1304.633	1	5619.158	-13.42521	2.856125E-008	0.0284705	7
	21	30	8015.625	5618.003	-1391.4	1	5787.742	-13.91043	-2.620405E-008	0.0285665	7
	22	32	6328.125	5781.564	-1499.879	1	5972.949	-14.54332	5.624159E-008	0.0284501	7
	23	33	5015.625	5939.455	-1625.227	1	6157.799	-15.30338	-2.668383E-008	0.0285608	7
	24	35	3984.375	6101.191	-1778.514	1	6355.128	-16.25155	-2.695279E-008	0.0285622	7
	25	36	3170.956	6260.916	-1964.508	1	6561.886	-17.42046	-2.635737E-008	0.02856	7
	26	37	2527.573	6425.52	-2199.786	1	6791.639	-18.89872	5.657424E-008	0.0284411	7
	27	39	1976.103	6605.955	-2514.291	1	7068.26	-20.83731	2.212389E-008	0.0284527	7
	28	40	1577.524	6779.736	-2879.907	1	7366.049	-23.01489	-1.443935E-008	0.0285129	7
	29	41	1265.625	6966.225	-3323.874	1	7718.577	-25.50774	5.990446E-009	0.0285157	7
	30	43	998.264	7182.444	-3917.072	1	8181.134	-28.60662	4.77328E-008	0.0284379	7
	31	44	796.875	7418.078	-4603.261	1	8730.286	-31.82152	-2.586544E-008	0.0285575	7
	32	45	627.7902	7698.353	-5517.378	1	9471.331	-35.62902	3.286968E-009	0.0285468	7
	33	47	505.5147	7998.126	-6513.284	1	10314.69	-39.15769	-3.254337E-009	0.0286203	6
	34	48	397.9953	8377.403	-7862.933	1	11489.41	-43.18556	8.985414E-010	0.028577	6
	35	50	315.5048	8810.91	-9474.75	1	12938.43	-47.07914	4.605737E-010	0.0285732	6
	36	51	252.4038	9302.981	-11362.06	1	14684.75	-50.6902	2.342331E-010	0.0285769	6
	37	52	198.6229	9928.48	-13839.54	1	17032.55	-54.34435	7.151602E-010	0.0285853	6
	38	54	158.3615	10635.05	-16712.54	1	19809.42	-57.52931	3.289851E-010	0.0285822	6
	39	55	125.558	11511.32	-20307.51	1	23343.21	-60.45325	5.753735E-010	0.0285808	6
	40	56	100.4464	12530.27	-24520.79	1	27536.83	-62.93269	-2.058786E-011	0.0285738	6
	41	58	79.00281	13914.66	-30121.41	1	33180.07	-65.20531	3.672972E-010	0.0285747	6
	42	59	63.3446	15280.32	-36482.68	1	39553.44	-67.27422	3.240074E-010	0.02857	6
	43	61	49.86702	17581.04	-44513.54	1	47859.67	-68.448	-1.370714E-010	0.0285716	6
	44	62	39.72458	20154.75	-54268.72	1	57890.48	-69.6256	5.170983E-010	0.0285761	6
	45	63	31.6723	23537.21	-66017.19	1	70087.59	-70.37724	3.922022E-011	0.028576	6
	46	65	24.93351	28126.46	-80784.06	1	85540.41	-70.8035	5.66713E-010	0.0285771	6
	47	66	19.86229	33906.84	-97905.1	1	103610.3	-70.89783	4.653328E-010	0.028575	6
	48	68	15.83615	41369.84	-118181.4	1	125213.1	-70.70721	2.655287E-010	0.0285853	5
	49	69	12.40079	52293.19	-144090.7	1	153286.4	-70.05323	-3.636642E-010	0.0285919	5
	50	70	9.93114	64429.93	-172031.1	1	183700.6	-69.46782	1.13319E-010	0.0285921	5
	51	72	7.944915	80739.55	-204411.5	1	219779.3	-68.44671	-4.41704E-010	0.0285867	5
	52	74	6.317385	102418.1	-242979.7	1	263682.7	-67.14414	-1.581342E-010	0.0285765	5
	53	76	5.008013	130052.1	-287217.2	1	315289.2	-65.63895	-2.619511E-010	0.0285842	5
	54	78	3.945707	165532.6	-337903.3	1	376270.7	-63.90062	-8.778244E-011	0.0285849	5
	55	81	3.158693	205875.5	-389571.2	1	440625	-62.14503	-5.345217E-011	0.0285764	5
	56	84	2.504006	255466.3	-448006.1	1	515725.2	-60.30694	-1.467912E-010	0.0285883	5
	57	87	1.998082	310267.9	-507986.8	1	595245.1	-58.58427	1.822952E-010	0.0285517	5
	58	90	1.584686	373962.1	-576348.6	1	687041	-57.02259	-1.818878E-010	0.0285598	5
	59	94	1.266892	442398.7	-645336.6	1	782416.8	-55.56813	2.294955E-011	0.0285409	5
	60	98	0.999041	519505.5	-727184.3	1	893690.6	-54.45772	-7.630221E-011	0.0286208	5
