EXPLAIN
TAG	EISPOT
TITLE	LABEL	Potentiostatic EIS	Test &Identifier
DATE	LABEL	1/10/2020	Date
TIME	LABEL	13:24:08	Time
NOTES	NOTES	5	&Notes...
	
	
	
	
	
PSTAT	PSTAT	REF600-11020	Potentiostat
VDC	POTEN	0.00000E+000	T	DC &Voltage (V)
FREQINIT	QUANT	1.00000E+006	Initial Fre&q. (Hz)
FREQFINAL	QUANT	1.00000E+000	Final Fre&q. (Hz)
PTSPERDEC	QUANT	1.00000E+001	Points/&decade
VAC	QUANT	2.50000E+001	AC &Voltage (mV rms)
AREA	QUANT	1.00000E-001	&Area (cm^2)
CONDIT	TWOPARAM	T	5.00000E+000	0.00000E+000	Conditionin&g	Time(s)	E(V)
DELAY	TWOPARAM	T	5.00000E+000	0.00000E+000	Init. De&lay	Time(s)	Stab.(mV/s)
SPEED	SELECTOR	0	&Optimize for:
ZGUESS	QUANT	5.00000E+002	E&stimated Z (ohms)
OCVCURVE	TABLE	19
	Pt	T	Vf	Vm	Ach	Over
	#	s	V vs. Ref.	V	V	bits
	0	0.258333	1.06574E-002	1.06574E-002	6.49646E-004	...........
	1	0.516667	1.06606E-002	1.08252E-002	6.52380E-004	...........
	2	0.775	1.06805E-002	1.09966E-002	6.55713E-004	...........
	3	1.03333	1.07375E-002	1.11545E-002	6.50180E-004	...........
	4	1.29167	1.08411E-002	1.13364E-002	6.57013E-004	...........
	5	1.55	1.09819E-002	1.14858E-002	6.52946E-004	...........
	6	1.80833	1.11430E-002	1.16679E-002	6.59346E-004	...........
	7	2.06667	1.13109E-002	1.18178E-002	6.48680E-004	...........
	8	2.325	1.14790E-002	1.19813E-002	6.55879E-004	...........
	9	2.58333	1.16440E-002	1.21087E-002	6.56713E-004	...........
	10	2.84167	1.18037E-002	1.22740E-002	6.55579E-004	...........
	11	3.1	1.19573E-002	1.23880E-002	6.48513E-004	...........
	12	3.35833	1.21053E-002	1.25531E-002	6.51213E-004	...........
	13	3.61667	1.22489E-002	1.26639E-002	6.51913E-004	...........
	14	3.875	1.23885E-002	1.27700E-002	6.48580E-004	...........
	15	4.13333	1.25216E-002	1.28720E-002	6.51146E-004	...........
	16	4.39167	1.26455E-002	1.30155E-002	6.50213E-004	...........
	17	4.65	1.27637E-002	1.31665E-002	6.48513E-004	...........
	18	4.90833	1.28838E-002	1.32595E-002	6.50880E-004	...........
EOC	QUANT	0.0128838	Open Circuit (V)
PSTATMODEL	IQUANT	4	Pstat Model
PSTATSECTION	LABEL	REF600-11020	Pstat Section
PSTATSERIALNO	LABEL	11020	Pstat Serial Number
CTRLMODE	IQUANT	1	Control Mode
IESTAB	IQUANT	0	I/E Stability
CASPEED	IQUANT	1	Control Amp Speed
CONVENTION	IQUANT	1	Current Convention
ICHRANGE	IQUANT	2	Ich Range
ICHRANGEMODE	TOGGLE	F	Ich Auto Range
ICHOFFSETENABLE	TOGGLE	T	Ich Offset Enable
ICHOFFSET	QUANT	0	Ich Offset (V)
ICHFILTER	IQUANT	3	Ich Filter
VCHRANGE	IQUANT	2	Vch Range
VCHRANGEMODE	TOGGLE	F	Vch Auto Range
VCHOFFSETENABLE	TOGGLE	T	Vch Offset Enable
VCHOFFSET	QUANT	0	Vch Offset (V)
VCHFILTER	IQUANT	3	Vch Filter
ACHRANGE	IQUANT	2	Ach Range
ACHOFFSETENABLE	TOGGLE	F	Ach Offset Enable
ACHOFFSET	QUANT	0	Ach Offset (V)
ACHFILTER	IQUANT	3	Ach Filter
IERANGELOWERLIMIT	IQUANT	1	I/E Range Lower Limit
IERANGEMODE	TOGGLE	F	I/E AutoRange
IERANGE	IQUANT	7	I/E Range
POSFEEDENABLE	TOGGLE	F	Positive Feedback IR Comp
POSFEEDRESISTANCE	QUANT	0	Positive Feedback Resistance (ohm)
ACHSELECT	IQUANT	0	Ach Select
CABLEID	IQUANT	14	Cable ID
DCCALDATE	LABEL	12/22/2019	DC Calibration Date
ACCALDATE	LABEL	12/22/2019	AC Calibration Date
THERMOSELECT	IQUANT	1	Thermo Select
FRAMEWORKVERSION	QUANT	6.33	Framework Version
INSTRUMENTVERSION	LABEL	3.50	Instrument Version
ZCURVE	TABLE
	Pt	Time	Freq	Zreal	Zimag	Zsig	Zmod	Zphz	Idc	Vdc	IERange
	#	s	Hz	ohm	ohm	V	ohm	°	A	V	#
	0	1	1000078	2200.751	-1857.106	1	2879.609	-40.15937	5.295276E-006	0.0146276	8
	1	1	794390.6	2585.511	-1854.97	1	3182.103	-35.65747	-2.765496E-006	0.0151721	8
	2	2	630984.4	2962.253	-1767.491	1	3449.488	-30.82332	-2.97489E-006	0.015674	8
	3	2	501234.4	3283.133	-1643.995	1	3671.741	-26.59895	-2.144599E-006	0.015268	8
	4	2	398109.4	3556.688	-1479.716	1	3852.218	-22.58915	3.961068E-006	0.0141053	8
	5	3	316265.6	3792.687	-1312.052	1	4013.222	-19.08269	-9.272037E-007	0.0147477	8
	6	3	251203.1	3942.781	-1151.045	1	4107.363	-16.27449	-6.225204E-007	0.0147278	8
	7	3	199546.9	4084.466	-998.328	1	4204.703	-13.73499	-7.715538E-007	0.0147341	8
	8	4	158578.1	4193.954	-869.5936	1	4283.158	-11.71398	-1.019192E-006	0.0148677	8
	9	4	125953.1	4292.042	-732.9588	1	4354.176	-9.69101	-3.948553E-007	0.015415	7
	10	4	100078.1	4346.561	-647.2175	1	4394.483	-8.469305	5.580532E-008	0.0145142	7
	11	5	79453.13	4400.395	-587.7054	1	4439.468	-7.607258	-1.993626E-008	0.0146842	7
	12	5	63140.62	4449.079	-542.5801	1	4482.042	-6.953077	2.319896E-009	0.0145612	7
	13	5	50203.12	4491.629	-511.9756	1	4520.713	-6.502759	-1.874705E-008	0.014681	7
	14	6	39890.62	4532.688	-495.1013	1	4559.648	-6.233652	-3.803872E-008	0.0146831	7
	15	6	31640.63	4572.215	-492.5786	1	4598.672	-6.148932	-6.989184E-009	0.0146341	7
	16	6	25171.88	4610.868	-501.3411	1	4638.043	-6.205411	3.494778E-008	0.0145004	7
	17	7	20015.62	4651.238	-520.3459	1	4680.254	-6.383283	1.94066E-008	0.0145876	7
	18	7	15890.62	4690.645	-561.92	1	4724.183	-6.831245	-1.931115E-008	0.0146716	7
	19	7	12609.37	4733.075	-615.613	1	4772.942	-7.410642	3.4654E-008	0.0144977	7
	20	7	10078.13	4775.515	-684.6075	1	4824.337	-8.158215	1.935972E-008	0.0145825	7
	21	8	8015.625	4822.209	-778.4562	1	4884.639	-9.170227	-1.756406E-008	0.0146664	7
	22	8	6328.125	4875.715	-895.2369	1	4957.222	-10.40427	3.499936E-008	0.0144948	7
	23	8	5015.625	4930.829	-1044.888	1	5040.324	-11.96451	-1.424172E-008	0.0146926	7
	24	9	3984.375	4990.743	-1228.422	1	5139.702	-13.82791	3.647144E-008	0.0144958	7
	25	9	3170.956	5060.865	-1454.226	1	5265.656	-16.03187	-1.094127E-008	0.0145849	7
	26	9	2527.573	5137.043	-1731.897	1	5421.133	-18.63096	-1.026304E-008	0.0145829	7
	27	10	1976.103	5235.882	-2104.602	1	5643.032	-21.89803	-1.055216E-008	0.0145838	7
	28	10	1577.524	5356.219	-2536.137	1	5926.304	-25.33727	1.946756E-008	0.0145813	7
	29	10	1265.625	5466.334	-3031.226	1	6250.531	-29.00952	-1.502569E-008	0.0145939	7
	30	11	998.264	5631.263	-3698.777	1	6737.364	-33.29807	-3.782705E-008	0.0146653	7
	31	11	796.875	5822.814	-4464.771	1	7337.53	-37.47998	2.176842E-008	0.0145807	7
	32	11	627.7902	6069.009	-5460.645	1	8164.038	-41.97958	-4.036512E-009	0.014626	7
	33	12	505.5147	6348.5	-6553.889	1	9124.522	-45.912	2.121099E-008	0.0145778	7
	34	12	397.9953	6725.385	-8019.343	1	10466.17	-50.01527	1.192906E-009	0.0146026	6
	35	12	315.5048	7172.72	-9751.47	1	12105.33	-53.66356	9.677816E-010	0.0146006	6
	36	13	252.4038	7692.37	-11761.88	1	14053.98	-56.81497	5.419449E-010	0.0146015	6
	37	13	198.6229	8364.434	-14381.77	1	16637.28	-59.81773	6.237838E-010	0.0145973	6
	38	13	158.3615	9136.189	-17381.45	1	19636.31	-62.27229	5.776681E-010	0.0145912	6
	39	14	125.558	10089.59	-21139.81	1	23424.16	-64.48583	3.842917E-010	0.0145938	6
	40	14	100.4464	11199.54	-25503.69	1	27854.4	-66.29208	1.324419E-009	0.0145877	6
	41	14	79.00281	12720.37	-31255.23	1	33744.59	-67.85448	5.125256E-010	0.0145906	6
	42	15	63.3446	14116.82	-38014.62	1	40551.16	-69.6274	-8.90585E-011	0.0145889	6
	43	15	49.86702	16420.21	-46488	1	49302.71	-70.54607	-2.749355E-010	0.0145953	6
	44	15	39.72458	19496.36	-56272.92	1	59554.59	-70.89081	3.489839E-010	0.0145963	6
	45	16	31.6723	23255.44	-68113.66	1	71974.21	-71.14901	-9.775791E-011	0.0145956	6
	46	16	24.93351	28014.8	-83298.22	1	87883.01	-71.41121	7.553648E-010	0.0145961	6
	47	16	19.86229	34116.6	-100597	1	106224.8	-71.26609	7.73021E-010	0.0145974	5
	48	17	15.83615	42482.73	-120075.6	1	127369.3	-70.51622	1.117837E-009	0.0145901	5
	49	17	12.40079	53077.54	-146422.3	1	155745.7	-70.0746	-1.170441E-009	0.0145923	5
	50	17	9.93114	65580.18	-175555.6	1	187404.7	-69.51643	9.687897E-011	0.0145955	5
	51	18	7.944915	81706.27	-207853.5	1	223336.1	-68.54044	5.702141E-010	0.014592	5
	52	18	6.317385	102878.4	-246452.8	1	267063.5	-67.34257	3.110386E-010	0.0145797	5
	53	19	5.008013	129327.8	-291631	1	319020.9	-66.08446	7.22913E-011	0.0145854	5
	54	20	3.945707	162934.8	-343976.3	1	380614.5	-64.654	-5.023436E-011	0.0145879	5
	55	22	3.158693	200928.4	-399718.7	1	447378.2	-63.31249	-2.434872E-010	0.014577	5
	56	23	2.504006	249227.1	-463575.6	1	526323.6	-61.73668	-5.295537E-011	0.0145782	5
	57	25	1.998082	303619	-532665.9	1	613121.1	-60.31691	3.512792E-011	0.0146107	5
	58	26	1.584686	369357.3	-608536.1	1	711857.4	-58.74391	-8.820376E-011	0.0145671	5
	59	28	1.266892	444158.9	-691418.6	1	821788.8	-57.2838	-1.378111E-010	0.0145434	5
	60	31	0.999041	533103.2	-788761.9	1	952021	-55.94629	-1.574682E-010	0.0145451	5
