EXPLAIN
TAG	EISPOT
TITLE	LABEL	Potentiostatic EIS	Test &Identifier
DATE	LABEL	3/9/2020	Date
TIME	LABEL	21:19:57	Time
NOTES	NOTES	1	&Notes...
	
PSTAT	PSTAT	REF600-11020	Potentiostat
VDC	POTEN	0.00000E+000	T	DC &Voltage (V)
FREQINIT	QUANT	1.00000E+006	Initial Fre&q. (Hz)
FREQFINAL	QUANT	1.00000E+000	Final Fre&q. (Hz)
PTSPERDEC	QUANT	1.00000E+001	Points/&decade
VAC	QUANT	2.50000E+001	AC &Voltage (mV rms)
AREA	QUANT	4.00000E-005	&Area (cm^2)
CONDIT	TWOPARAM	F	5.00000E+000	0.00000E+000	Conditionin&g	Time(s)	E(V)
DELAY	TWOPARAM	T	3.00000E+000	0.00000E+000	Init. De&lay	Time(s)	Stab.(mV/s)
SPEED	SELECTOR	0	&Optimize for:
ZGUESS	QUANT	1.00000E+003	E&stimated Z (ohms)
OCVCURVE	TABLE	12
	Pt	T	Vf	Vm	Ach	Over
	#	s	V vs. Ref.	V	V	bits
	0	0.258333	4.22910E-002	4.22910E-002	5.91196E-004	...........
	1	0.516667	4.22908E-002	4.22801E-002	5.89596E-004	...........
	2	0.775	4.22896E-002	4.22704E-002	5.89263E-004	...........
	3	1.03333	4.22860E-002	4.22595E-002	5.88996E-004	...........
	4	1.29167	4.22795E-002	4.22494E-002	5.88730E-004	...........
	5	1.55	4.22708E-002	4.22410E-002	5.90363E-004	...........
	6	1.80833	4.22610E-002	4.22296E-002	5.91730E-004	...........
	7	2.06667	4.22510E-002	4.22210E-002	5.85963E-004	...........
	8	2.325	4.22410E-002	4.22090E-002	5.90330E-004	...........
	9	2.58333	4.22309E-002	4.21999E-002	5.90563E-004	...........
	10	2.84167	4.22209E-002	4.21922E-002	5.91163E-004	...........
	11	3.1	4.22109E-002	4.21817E-002	5.89696E-004	...........
EOC	QUANT	0.0422109	Open Circuit (V)
PSTATMODEL	IQUANT	4	Pstat Model
PSTATSECTION	LABEL	REF600-11020	Pstat Section
PSTATSERIALNO	LABEL	11020	Pstat Serial Number
CTRLMODE	IQUANT	1	Control Mode
IESTAB	IQUANT	0	I/E Stability
CASPEED	IQUANT	1	Control Amp Speed
CONVENTION	IQUANT	1	Current Convention
ICHRANGE	IQUANT	2	Ich Range
ICHRANGEMODE	TOGGLE	F	Ich Auto Range
ICHOFFSETENABLE	TOGGLE	T	Ich Offset Enable
ICHOFFSET	QUANT	0	Ich Offset (V)
ICHFILTER	IQUANT	3	Ich Filter
VCHRANGE	IQUANT	2	Vch Range
VCHRANGEMODE	TOGGLE	F	Vch Auto Range
VCHOFFSETENABLE	TOGGLE	T	Vch Offset Enable
VCHOFFSET	QUANT	0	Vch Offset (V)
VCHFILTER	IQUANT	3	Vch Filter
ACHRANGE	IQUANT	2	Ach Range
ACHOFFSETENABLE	TOGGLE	F	Ach Offset Enable
ACHOFFSET	QUANT	0	Ach Offset (V)
ACHFILTER	IQUANT	3	Ach Filter
IERANGELOWERLIMIT	IQUANT	1	I/E Range Lower Limit
IERANGEMODE	TOGGLE	F	I/E AutoRange
IERANGE	IQUANT	7	I/E Range
POSFEEDENABLE	TOGGLE	F	Positive Feedback IR Comp
POSFEEDRESISTANCE	QUANT	0	Positive Feedback Resistance (ohm)
ACHSELECT	IQUANT	0	Ach Select
CABLEID	IQUANT	14	Cable ID
DCCALDATE	LABEL	2/27/2020	DC Calibration Date
ACCALDATE	LABEL	2/27/2020	AC Calibration Date
THERMOSELECT	IQUANT	1	Thermo Select
FRAMEWORKVERSION	QUANT	6.33	Framework Version
INSTRUMENTVERSION	LABEL	3.50	Instrument Version
ZCURVE	TABLE
	Pt	Time	Freq	Zreal	Zimag	Zsig	Zmod	Zphz	Idc	Vdc	IERange
	#	s	Hz	ohm	ohm	V	ohm	°	A	V	#
	0	2	1000078	1395.013	-656.6223	1	1541.821	-25.20602	1.102998E-008	0.0444877	8
	1	2	794390.6	1498.463	-651.8195	1	1634.093	-23.50866	2.164852E-008	0.044169	8
	2	2	630984.4	1597.995	-644.781	1	1723.175	-21.97376	4.410815E-008	0.0440678	8
	3	3	501234.4	1694.714	-635.8278	1	1810.064	-20.56523	3.19456E-008	0.0439806	8
	4	3	398109.4	1785.728	-626.1974	1	1892.339	-19.32413	4.600855E-008	0.0439349	8
	5	3	316265.6	1873.998	-616.5664	1	1972.821	-18.21178	4.869007E-008	0.0439059	8
	6	3	251203.1	1959.356	-611.0025	1	2052.413	-17.31948	2.836374E-008	0.0438948	8
	7	4	199546.9	2038.253	-607.1126	1	2126.749	-16.58665	1.833109E-008	0.0438987	8
	8	4	158578.1	2116.868	-607.6068	1	2202.344	-16.01512	3.568812E-008	0.0438986	8
	9	4	125953.1	2214.781	-579.0125	1	2289.216	-14.65099	5.746736E-010	0.0438501	7
	10	5	100078.1	2284.828	-590.769	1	2359.968	-14.497	2.059238E-009	0.0438324	7
	11	5	79453.13	2358.648	-617.9661	1	2438.258	-14.68151	1.671665E-009	0.0438278	7
	12	5	63140.62	2433.887	-650.5208	1	2519.323	-14.96403	1.588839E-009	0.043824	7
	13	6	50203.12	2512.124	-688.5577	1	2604.78	-15.32797	1.135575E-009	0.0438228	7
	14	6	39890.62	2592.552	-734.2739	1	2694.529	-15.81341	3.009946E-010	0.0438211	7
	15	6	31640.63	2675.697	-790.2609	1	2789.958	-16.45438	2.194942E-009	0.0438212	7
	16	7	25171.88	2760.276	-858.0661	1	2890.571	-17.26851	7.572173E-010	0.0438242	7
	17	7	20015.62	2848.511	-941.5355	1	3000.084	-18.29058	-8.348819E-011	0.0438174	7
	18	7	15890.62	2943.222	-1045.936	1	3123.545	-19.56373	3.790283E-010	0.043822	7
	19	8	12609.37	3046.856	-1175.781	1	3265.853	-21.10159	2.560652E-009	0.0438263	7
	20	8	10078.13	3158.377	-1327.325	1	3425.95	-22.79485	2.193374E-009	0.0438217	7
	21	8	8015.625	3288.34	-1515.021	1	3620.562	-24.73671	2.102761E-009	0.0438229	7
	22	9	6328.125	3446.98	-1746.768	1	3864.308	-26.87376	1.162054E-009	0.0438187	7
	23	9	5015.625	3634.451	-2016.734	1	4156.495	-29.02562	2.037153E-009	0.0438231	7
	24	9	3984.375	3859.646	-2326.456	1	4506.58	-31.08007	7.698295E-010	0.0438153	7
	25	10	3170.956	4129.838	-2677.698	1	4921.954	-32.9585	1.462148E-009	0.0438236	7
	26	10	2527.573	4453.384	-3061.486	1	5404.195	-34.50664	2.9468E-009	0.0438206	7
	27	10	1976.103	4867.28	-3514.135	1	6003.296	-35.82896	1.066872E-009	0.0438162	7
	28	10	1577.524	5305.167	-3951.457	1	6615.043	-36.67991	-2.402248E-010	0.0438049	7
	29	11	1265.625	5774.767	-4413.076	1	7267.955	-37.38706	2.745951E-009	0.0438105	7
	30	11	998.264	6311.722	-4927.426	1	8007.332	-37.9784	1.019299E-009	0.0438031	7
	31	11	796.875	6834.542	-5475.123	1	8757.165	-38.69807	2.160094E-009	0.0437998	7
	32	12	627.7902	7380.08	-6137.916	1	9598.94	-39.74986	1.973675E-010	0.0438546	6
	33	12	505.5147	7859.142	-6867.7	1	10437.02	-41.14854	-5.049643E-011	0.0438527	6
	34	12	397.9953	8376.105	-7874.932	1	11496.68	-43.23359	2.977622E-010	0.0438722	6
	35	13	315.5048	8882.093	-9117.93	1	12729.03	-45.75065	2.652454E-010	0.0438766	6
	36	13	252.4038	9393.299	-10626.71	1	14183.13	-48.52549	2.023872E-010	0.0438694	6
	37	13	198.6229	10000.37	-12671.39	1	16142.23	-51.71918	2.051273E-010	0.0438744	6
	38	14	158.3615	10668.93	-15097.32	1	18486.62	-54.75203	3.139558E-011	0.0438718	6
	39	14	125.558	11499.98	-18181.77	1	21513.4	-57.68663	6.888473E-011	0.043869	6
	40	14	100.4464	12479.07	-21824.71	1	25140.51	-60.23967	1.182547E-010	0.0438689	6
	41	15	79.00281	13813.5	-26641.14	1	30009.39	-62.59314	3.574602E-011	0.0438664	6
	42	15	63.3446	15375.29	-32034.87	1	35533.54	-64.36109	1.489871E-010	0.0438634	6
	43	15	49.86702	17539.98	-39123.33	1	42875.23	-65.8521	2.403242E-010	0.0438623	6
	44	16	39.72458	20190.17	-47266.63	1	51398.22	-66.87001	7.564335E-011	0.043867	6
	45	16	31.6723	23561.63	-56994.03	1	61672.28	-67.53954	-7.61957E-011	0.0438595	6
	46	16	24.93351	28136.41	-69253.05	1	74750.54	-67.88888	4.069742E-010	0.0438635	6
	47	17	19.86229	33716.01	-83096.74	1	89676.3	-67.91544	5.460064E-010	0.0438669	6
	48	17	15.83615	40781.52	-99279.4	1	107329.1	-67.66836	2.328756E-010	0.0438667	5
	49	17	12.40079	50540.53	-119919.1	1	130134.3	-67.14676	1.376923E-009	0.043867	5
	50	18	9.93114	61640.08	-141451.3	1	154298.3	-66.45393	1.406116E-009	0.0438701	5
	51	18	7.944915	75230.98	-166735.7	1	182922.1	-65.71516	3.0384E-010	0.0438668	5
	52	18	6.317385	92429.22	-196167.8	1	216852.4	-64.77139	2.538248E-011	0.0438731	5
	53	19	5.008013	113705.6	-229987.6	1	256560.4	-63.69226	2.806564E-010	0.0438748	5
	54	20	3.945707	139875.1	-269652.4	1	303772.1	-62.58316	3.676386E-010	0.0438632	5
	55	21	3.158693	168538.1	-310701.1	1	353468.9	-61.52263	1.382386E-010	0.043884	5
	56	22	2.504006	203622.6	-359414.6	1	413087.2	-60.46672	-1.164877E-010	0.0438687	5
	57	23	1.998082	241547.2	-411111.6	1	476820.6	-59.56378	8.140928E-011	0.0438788	5
	58	25	1.584686	286931.3	-472599.5	1	552883.3	-58.73664	1.719928E-010	0.0439077	5
	59	27	1.266892	333791.6	-540115.1	1	634933.9	-58.2839	1.303334E-010	0.0438855	5
	60	29	0.999041	389265.7	-621308.1	1	733179.1	-57.93179	1.135599E-010	0.0438615	5
