EXPLAIN
TAG	EISPOT
TITLE	LABEL	Potentiostatic EIS	Test &Identifier
DATE	LABEL	6/19/2020	Date
TIME	LABEL	17:08:27	Time
NOTES	NOTES	1	&Notes...
	
PSTAT	PSTAT	REF600-10037	Potentiostat
VDC	POTEN	0.00000E+000	T	DC &Voltage (V)
FREQINIT	QUANT	1.00000E+006	Initial Fre&q. (Hz)
FREQFINAL	QUANT	1.00000E+000	Final Fre&q. (Hz)
PTSPERDEC	QUANT	1.00000E+001	Points/&decade
VAC	QUANT	1.00000E+002	AC &Voltage (mV rms)
AREA	QUANT	2.50000E-001	&Area (cm^2)
CONDIT	TWOPARAM	F	5.00000E+000	0.00000E+000	Conditionin&g	Time(s)	E(V)
DELAY	TWOPARAM	F	5.00000E+000	0.00000E+000	Init. De&lay	Time(s)	Stab.(mV/s)
SPEED	SELECTOR	0	&Optimize for:
ZGUESS	QUANT	1.00000E+003	E&stimated Z (ohms)
OCVCURVE	TABLE	39
	Pt	T	Vf	Vm	Ach	Over
	#	s	V vs. Ref.	V	V	bits
	0	0.258333	6.84268E-002	6.84268E-002	5.99653E-004	...........
	1	0.516667	6.84277E-002	6.84723E-002	5.98786E-004	...........
	2	0.775	6.84331E-002	6.85181E-002	5.97986E-004	...........
	3	1.03333	6.84483E-002	6.85536E-002	5.99120E-004	...........
	4	1.29167	6.84753E-002	6.85930E-002	6.00486E-004	...........
	5	1.55	6.85106E-002	6.86279E-002	5.97586E-004	...........
	6	1.80833	6.85491E-002	6.86649E-002	5.97753E-004	...........
	7	2.06667	6.85877E-002	6.87017E-002	5.99086E-004	...........
	8	2.325	6.86251E-002	6.87292E-002	5.98986E-004	...........
	9	2.58333	6.86613E-002	6.87757E-002	5.99320E-004	...........
	10	2.84167	6.86967E-002	6.87984E-002	6.01420E-004	...........
	11	3.1	6.87318E-002	6.88472E-002	6.00553E-004	...........
	12	3.35833	6.87671E-002	6.88732E-002	5.99653E-004	...........
	13	3.61667	6.88025E-002	6.89060E-002	6.01620E-004	...........
	14	3.875	6.88374E-002	6.89381E-002	6.03120E-004	...........
	15	4.13333	6.88709E-002	6.89620E-002	6.01186E-004	...........
	16	4.39167	6.89030E-002	6.90071E-002	6.00986E-004	...........
	17	4.65	6.89344E-002	6.90287E-002	6.00786E-004	...........
	18	4.90833	6.89657E-002	6.90522E-002	6.00520E-004	...........
	19	5.16667	6.89965E-002	6.90896E-002	5.99220E-004	...........
	20	5.425	6.90260E-002	6.91121E-002	5.99886E-004	...........
	21	5.68333	6.90547E-002	6.91386E-002	5.98620E-004	...........
	22	5.94167	6.90830E-002	6.91763E-002	5.99586E-004	...........
	23	6.2	6.91114E-002	6.91982E-002	6.00320E-004	...........
	24	6.45833	6.91400E-002	6.92225E-002	5.98853E-004	...........
	25	6.71667	6.91684E-002	6.92560E-002	5.98286E-004	...........
	26	6.975	6.91962E-002	6.92798E-002	5.99553E-004	...........
	27	7.23333	6.92238E-002	6.93113E-002	5.98053E-004	...........
	28	7.49167	6.92515E-002	6.93394E-002	5.99053E-004	...........
	29	7.75	6.92796E-002	6.93597E-002	5.98786E-004	...........
	30	8.00833	6.93074E-002	6.93920E-002	5.98920E-004	...........
	31	8.26667	6.93346E-002	6.94180E-002	6.00886E-004	...........
	32	8.525	6.93614E-002	6.94376E-002	5.99586E-004	...........
	33	8.78333	6.93877E-002	6.94660E-002	5.99386E-004	...........
	34	9.04167	6.94135E-002	6.94954E-002	6.00986E-004	...........
	35	9.3	6.94389E-002	6.95142E-002	5.99520E-004	...........
	36	9.5583	6.94643E-002	6.95371E-002	6.00953E-004	...........
	37	9.8167	6.94892E-002	6.95616E-002	5.99786E-004	...........
	38	10.075	6.95130E-002	6.95828E-002	6.00186E-004	...........
EOC	QUANT	0.069513	Open Circuit (V)
PSTATMODEL	IQUANT	4	Pstat Model
PSTATSECTION	LABEL	REF600-10037	Pstat Section
PSTATSERIALNO	LABEL	10037	Pstat Serial Number
CTRLMODE	IQUANT	1	Control Mode
IESTAB	IQUANT	0	I/E Stability
CASPEED	IQUANT	1	Control Amp Speed
CONVENTION	IQUANT	1	Current Convention
ICHRANGE	IQUANT	2	Ich Range
ICHRANGEMODE	TOGGLE	F	Ich Auto Range
ICHOFFSETENABLE	TOGGLE	T	Ich Offset Enable
ICHOFFSET	QUANT	0	Ich Offset (V)
ICHFILTER	IQUANT	3	Ich Filter
VCHRANGE	IQUANT	2	Vch Range
VCHRANGEMODE	TOGGLE	F	Vch Auto Range
VCHOFFSETENABLE	TOGGLE	T	Vch Offset Enable
VCHOFFSET	QUANT	0	Vch Offset (V)
VCHFILTER	IQUANT	3	Vch Filter
ACHRANGE	IQUANT	2	Ach Range
ACHOFFSETENABLE	TOGGLE	F	Ach Offset Enable
ACHOFFSET	QUANT	0	Ach Offset (V)
ACHFILTER	IQUANT	3	Ach Filter
IERANGELOWERLIMIT	IQUANT	1	I/E Range Lower Limit
IERANGEMODE	TOGGLE	F	I/E AutoRange
IERANGE	IQUANT	8	I/E Range
POSFEEDENABLE	TOGGLE	F	Positive Feedback IR Comp
POSFEEDRESISTANCE	QUANT	0	Positive Feedback Resistance (ohm)
ACHSELECT	IQUANT	0	Ach Select
CABLEID	IQUANT	14	Cable ID
DCCALDATE	LABEL	6/8/2020	DC Calibration Date
ACCALDATE	LABEL	6/8/2020	AC Calibration Date
THERMOSELECT	IQUANT	1	Thermo Select
FRAMEWORKVERSION	QUANT	6.33	Framework Version
INSTRUMENTVERSION	LABEL	3.50	Instrument Version
ZCURVE	TABLE
	Pt	Time	Freq	Zreal	Zimag	Zsig	Zmod	Zphz	Idc	Vdc	IERange
	#	s	Hz	ohm	ohm	V	ohm	°	A	V	#
	0	2	1000078	1645.509	-1215.141	1	2045.548	-36.44437	1.288709E-007	0.0784504	8
	1	3	794390.6	1829.442	-1273.497	1	2229.048	-34.84224	1.025708E-007	0.0782141	8
	2	3	630984.4	2012.281	-1362.21	1	2429.998	-34.09597	1.040255E-006	0.0779782	9
	3	4	501234.4	2223.524	-1416.851	1	2636.575	-32.50568	1.298072E-007	0.0778986	8
	4	5	398109.4	2438.125	-1486.086	1	2855.33	-31.36314	1.378149E-007	0.0777746	8
	5	5	316265.6	2638.638	-1569.256	1	3070.012	-30.74087	8.880602E-007	0.077781	9
	6	6	251203.1	2862.76	-1636.371	1	3297.439	-29.75254	7.939847E-008	0.0778493	8
	7	6	199546.9	3105.539	-1714.081	1	3547.174	-28.89621	7.711887E-008	0.0779112	8
	8	7	158578.1	3358.938	-1798.653	1	3810.199	-28.16828	1.06332E-007	0.0779618	8
	9	7	125953.1	3634.363	-1856.261	1	4080.968	-27.0558	9.909462E-008	0.077984	8
	10	7	100078.1	3907.766	-1919.689	1	4353.831	-26.16257	1.33323E-007	0.0779215	8
	11	7	79453.13	4223.813	-2043.315	1	4692.093	-25.81588	2.170626E-009	0.0779181	7
	12	8	63140.62	4508.852	-2147.235	1	4994.033	-25.46503	8.06355E-009	0.077901	7
	13	8	50203.12	4815.732	-2249.769	1	5315.331	-25.0406	1.0842E-008	0.0778737	7
	14	8	39890.62	5138.513	-2402.919	1	5672.596	-25.06217	6.093801E-010	0.077898	7
	15	9	31640.63	5472.546	-2456.358	1	5998.538	-24.17298	4.385592E-008	0.0778375	7
	16	9	25171.88	5754.146	-2416.983	1	6241.153	-22.78445	1.175629E-007	0.0777673	7
	17	10	20015.62	6121.677	-2554.004	1	6633.088	-22.64622	9.332521E-008	0.0777822	7
	18	10	15890.62	6619.088	-2870.471	1	7214.703	-23.44472	6.172698E-009	0.0778166	7
	19	10	12609.37	7104.969	-3122.618	1	7760.884	-23.72538	-3.919065E-011	0.0778595	7
	20	11	10078.13	7533.6	-3262.078	1	8209.523	-23.4128	-9.00448E-009	0.0778793	7
	21	11	8015.625	7975.405	-3396.125	1	8668.377	-23.0655	-4.382277E-011	0.0778736	7
	22	11	6328.125	8445.933	-3553.414	1	9162.998	-22.8177	1.501605E-008	0.0778794	7
	23	12	5015.625	8923.857	-3729.333	1	9671.77	-22.68034	9.616871E-009	0.0778843	7
	24	12	3984.375	9416.039	-3943.492	1	10208.47	-22.72422	1.20797E-008	0.0778747	7
	25	12	3170.956	9897.46	-4169.389	1	10739.81	-22.84368	8.421966E-010	0.0778811	7
	26	13	2527.573	10389.24	-4443.154	1	11299.47	-23.15488	1.38299E-008	0.0778792	7
	27	13	1976.103	10939.5	-4806.7	1	11948.93	-23.72017	5.092758E-009	0.0778902	7
	28	13	1577.524	11408.17	-5183.928	1	12530.74	-24.43728	2.46142E-008	0.0778646	7
	29	14	1265.625	12025.3	-5732.441	1	13321.74	-25.48706	1.338608E-008	0.0778763	7
	30	14	998.264	12606.45	-6330.411	1	14106.62	-26.66381	-1.078082E-010	0.077886	7
	31	14	796.875	13216.5	-7035.977	1	14972.67	-28.0292	3.953546E-009	0.0778822	7
	32	15	627.7902	13969.98	-7960.983	1	16079.11	-29.67724	5.276586E-009	0.0778791	7
	33	15	505.5147	14733.96	-8969.464	1	17249.37	-31.33144	9.854293E-009	0.0778663	7
	34	15	397.9953	15667.1	-10206.78	1	18698.57	-33.08337	9.758233E-009	0.0778982	7
	35	15	315.5048	16689.81	-11628.99	1	20341.66	-34.86771	9.161458E-009	0.0778962	7
	36	16	252.4038	17785.84	-13215.45	1	22158.16	-36.61353	8.390649E-009	0.0778958	7
	37	16	198.6229	18848.91	-15256.71	1	24249.71	-38.98744	1.509274E-008	0.0778862	7
	38	16	158.3615	20398.36	-17393.88	1	26807.46	-40.45455	4.80395E-009	0.0778997	7
	39	17	125.558	21792.88	-20049.19	1	29612.48	-42.61369	7.331968E-009	0.0778977	7
	40	17	100.4464	23278.73	-23143.74	1	32825.78	-44.8334	6.788505E-009	0.0779019	7
	41	18	79.00281	25087.36	-27165.96	1	36977.9	-47.278	7.574932E-009	0.0778985	7
	42	18	63.3446	27047.6	-31634.09	1	41620.77	-49.46908	5.570323E-010	0.0778948	6
	43	19	49.86702	29569.18	-37448.72	1	47715.23	-51.70569	3.537217E-010	0.077893	6
	44	19	39.72458	32493.73	-44053.63	1	54740.89	-53.5877	-3.744964E-010	0.0779	6
	45	19	31.6723	36081.79	-51777.89	1	63109.79	-55.12902	1.093906E-009	0.0778975	6
	46	20	24.93351	41111	-62356.4	1	74688.92	-56.6035	2.95932E-009	0.0778841	6
	47	20	19.86229	47232.8	-72491.77	1	86521.64	-56.9133	3.68442E-009	0.0693166	6
	48	21	15.83615	54418.71	-84923.6	1	100863.3	-57.34841	2.445404E-010	0.069318	6
	49	21	12.40079	63779.49	-100208	1	118783.3	-57.52443	-1.499822E-009	0.0693196	6
	50	21	9.93114	74091.88	-115923.1	1	137578.3	-57.41545	-1.935617E-009	0.0693234	6
	51	22	7.944915	86559	-133596	1	159186.6	-57.06016	-2.092863E-009	0.0693225	6
	52	23	6.317385	101500.6	-153625	1	184127.7	-56.54712	-1.456402E-009	0.0693269	6
	53	24	5.008013	119145.1	-176122.6	1	212637.6	-55.92205	-1.238688E-009	0.0693253	6
	54	25	3.945707	139751.6	-201530.2	1	245244.6	-55.26054	-1.013729E-009	0.0693224	6
	55	27	3.158693	161093.1	-227691.9	1	278916.8	-54.72041	-6.963462E-010	0.069323	6
	56	29	2.504006	185562.9	-258284.8	1	318032.5	-54.30491	-7.833554E-010	0.0693136	6
	57	30	1.998082	210568.2	-292134.3	1	360113	-54.21622	-3.662779E-010	0.0693164	6
	58	32	1.584686	236337.8	-331852	1	407408	-54.54236	-7.823394E-010	0.0693212	5
	59	35	1.266892	262345.8	-378152.1	1	460243.8	-55.24874	-6.091973E-010	0.0693181	5
	60	38	0.999041	291579.5	-438433.6	1	526538.3	-56.37418	-6.20151E-010	0.0693213	5
