EXPLAIN
TAG	EISPOT
TITLE	LABEL	Potentiostatic EIS	Test &Identifier
DATE	LABEL	1/25/2020	Date
TIME	LABEL	12:09:12	Time
NOTES	NOTES	6	&Notes...
	
	
	
	
	
	
PSTAT	PSTAT	REF600-11020	Potentiostat
VDC	POTEN	0.00000E+000	T	DC &Voltage (V)
FREQINIT	QUANT	1.00000E+006	Initial Fre&q. (Hz)
FREQFINAL	QUANT	1.00000E+000	Final Fre&q. (Hz)
PTSPERDEC	QUANT	1.00000E+001	Points/&decade
VAC	QUANT	2.50000E+001	AC &Voltage (mV rms)
AREA	QUANT	1.00000E-001	&Area (cm^2)
CONDIT	TWOPARAM	F	5.00000E+000	0.00000E+000	Conditionin&g	Time(s)	E(V)
DELAY	TWOPARAM	F	5.00000E+000	0.00000E+000	Init. De&lay	Time(s)	Stab.(mV/s)
SPEED	SELECTOR	0	&Optimize for:
ZGUESS	QUANT	5.00000E+002	E&stimated Z (ohms)
OCVCURVE	TABLE	39
	Pt	T	Vf	Vm	Ach	Over
	#	s	V vs. Ref.	V	V	bits
	0	0.258333	4.25425E-003	4.25425E-003	6.34046E-004	...........
	1	0.516667	4.25670E-003	4.38238E-003	6.31313E-004	...........
	2	0.775	4.27226E-003	4.53145E-003	6.31580E-004	...........
	3	1.03333	4.31629E-003	4.58373E-003	6.35280E-004	...........
	4	1.29167	4.39151E-003	4.66603E-003	6.31946E-004	...........
	5	1.55	4.48141E-003	4.67362E-003	6.33013E-004	...........
	6	1.80833	4.56312E-003	4.63935E-003	6.29047E-004	...........
	7	2.06667	4.61912E-003	4.60742E-003	6.30080E-004	...........
	8	2.325	4.64222E-003	4.58963E-003	6.29680E-004	...........
	9	2.58333	4.63786E-003	4.57142E-003	6.34313E-004	...........
	10	2.84167	4.61877E-003	4.55073E-003	6.33013E-004	...........
	11	3.1	4.59579E-003	4.53587E-003	6.27313E-004	...........
	12	3.35833	4.57383E-003	4.50898E-003	6.35113E-004	...........
	13	3.61667	4.55319E-003	4.48330E-003	6.41613E-004	...........
	14	3.875	4.53231E-003	4.46286E-003	6.35780E-004	...........
	15	4.13333	4.51026E-003	4.44175E-003	6.33313E-004	...........
	16	4.39167	4.48745E-003	4.41320E-003	6.33346E-004	...........
	17	4.65	4.46414E-003	4.38018E-003	6.39213E-004	...........
	18	4.90833	4.43964E-003	4.36239E-003	6.33713E-004	...........
	19	5.16667	4.41413E-003	4.34902E-003	6.26847E-004	...........
	20	5.425	4.38953E-003	4.32730E-003	6.33413E-004	...........
	21	5.68333	4.36757E-003	4.31214E-003	6.33346E-004	...........
	22	5.94167	4.34835E-003	4.30616E-003	6.24180E-004	...........
	23	6.2	4.33139E-003	4.28128E-003	6.31147E-004	...........
	24	6.45833	4.31598E-003	4.26895E-003	6.26947E-004	...........
	25	6.71667	4.30093E-003	4.25377E-003	6.30613E-004	...........
	26	6.975	4.28558E-003	4.23794E-003	6.33513E-004	...........
	27	7.23333	4.27010E-003	4.22321E-003	6.36180E-004	...........
	28	7.49167	4.25555E-003	4.25184E-003	6.31713E-004	...........
	29	7.75	4.24485E-003	4.24767E-003	6.34080E-004	...........
	30	8.00833	4.24049E-003	4.23570E-003	6.30580E-004	...........
	31	8.26667	4.24009E-003	4.21069E-003	6.35313E-004	...........
	32	8.525	4.23738E-003	4.18781E-003	6.31580E-004	...........
	33	8.78333	4.22825E-003	4.18654E-003	6.35446E-004	...........
	34	9.04167	4.21386E-003	4.16380E-003	6.31147E-004	...........
	35	9.3	4.19762E-003	4.13957E-003	6.25547E-004	...........
	36	9.5583	4.18078E-003	4.12242E-003	6.30513E-004	...........
	37	9.8167	4.16275E-003	4.10331E-003	6.31680E-004	...........
	38	10.075	4.14371E-003	4.08983E-003	6.32980E-004	...........
EOC	QUANT	0.0041437	Open Circuit (V)
PSTATMODEL	IQUANT	4	Pstat Model
PSTATSECTION	LABEL	REF600-11020	Pstat Section
PSTATSERIALNO	LABEL	11020	Pstat Serial Number
CTRLMODE	IQUANT	1	Control Mode
IESTAB	IQUANT	0	I/E Stability
CASPEED	IQUANT	1	Control Amp Speed
CONVENTION	IQUANT	1	Current Convention
ICHRANGE	IQUANT	2	Ich Range
ICHRANGEMODE	TOGGLE	F	Ich Auto Range
ICHOFFSETENABLE	TOGGLE	T	Ich Offset Enable
ICHOFFSET	QUANT	0	Ich Offset (V)
ICHFILTER	IQUANT	3	Ich Filter
VCHRANGE	IQUANT	2	Vch Range
VCHRANGEMODE	TOGGLE	F	Vch Auto Range
VCHOFFSETENABLE	TOGGLE	T	Vch Offset Enable
VCHOFFSET	QUANT	0	Vch Offset (V)
VCHFILTER	IQUANT	3	Vch Filter
ACHRANGE	IQUANT	2	Ach Range
ACHOFFSETENABLE	TOGGLE	F	Ach Offset Enable
ACHOFFSET	QUANT	0	Ach Offset (V)
ACHFILTER	IQUANT	3	Ach Filter
IERANGELOWERLIMIT	IQUANT	1	I/E Range Lower Limit
IERANGEMODE	TOGGLE	F	I/E AutoRange
IERANGE	IQUANT	7	I/E Range
POSFEEDENABLE	TOGGLE	F	Positive Feedback IR Comp
POSFEEDRESISTANCE	QUANT	0	Positive Feedback Resistance (ohm)
ACHSELECT	IQUANT	0	Ach Select
CABLEID	IQUANT	14	Cable ID
DCCALDATE	LABEL	12/22/2019	DC Calibration Date
ACCALDATE	LABEL	12/22/2019	AC Calibration Date
THERMOSELECT	IQUANT	1	Thermo Select
FRAMEWORKVERSION	QUANT	6.33	Framework Version
INSTRUMENTVERSION	LABEL	3.50	Instrument Version
ZCURVE	TABLE
	Pt	Time	Freq	Zreal	Zimag	Zsig	Zmod	Zphz	Idc	Vdc	IERange
	#	s	Hz	ohm	ohm	V	ohm	°	A	V	#
	0	1	1000078	2121.923	-1611.472	1	2664.47	-37.21448	-9.473329E-007	0.0073046	8
	1	1	794390.6	2442.69	-1556.937	1	2896.686	-32.51287	-3.036819E-006	0.0070533	8
	2	1	630984.4	2750.297	-1477.77	1	3122.168	-28.24971	2.189017E-006	0.0057336	8
	3	2	501234.4	3016.228	-1348.643	1	3304.008	-24.09081	9.300076E-007	0.0057925	8
	4	2	398109.4	3237.856	-1216.391	1	3458.803	-20.59009	-2.798767E-008	0.0060669	8
	5	2	316265.6	3396.879	-1060.644	1	3558.617	-17.34048	2.479169E-006	0.0054617	8
	6	3	251203.1	3535.749	-910.4741	1	3651.094	-14.44025	3.098262E-006	0.0054051	8
	7	3	199546.9	3631.317	-793.9458	1	3717.098	-12.33299	-2.065727E-006	0.006294	8
	8	3	158578.1	3698.159	-691.3245	1	3762.221	-10.58852	3.131318E-006	0.0054172	8
	9	4	125953.1	3782.054	-582.4943	1	3826.647	-8.755632	-5.70445E-007	0.0072918	7
	10	4	100078.1	3816.591	-514.2606	1	3851.082	-7.674011	3.898113E-008	0.0058461	7
	11	4	79453.13	3858.417	-471.1495	1	3887.076	-6.961895	8.095247E-008	0.0057315	7
	12	5	63140.62	3895.17	-440.2623	1	3919.972	-6.448645	2.024736E-008	0.0058275	7
	13	5	50203.12	3929.433	-420.4946	1	3951.867	-6.108064	-2.456191E-008	0.0058554	7
	14	5	39890.62	3962.245	-412.7375	1	3983.684	-5.946915	7.963669E-008	0.0057193	7
	15	5	31640.63	3994.179	-416.6942	1	4015.856	-5.955859	3.952809E-008	0.0058325	7
	16	6	25171.88	4025.74	-431.151	1	4048.762	-6.112995	-2.821865E-008	0.0058618	7
	17	6	20015.62	4059.247	-458.9751	1	4085.113	-6.450979	-3.411321E-008	0.005902	7
	18	6	15890.62	4093.007	-498.3193	1	4123.23	-6.941537	-3.46461E-008	0.0059022	7
	19	7	12609.37	4128.798	-553.3392	1	4165.712	-7.633264	3.902958E-008	0.0058331	7
	20	7	10078.13	4164.866	-624.2377	1	4211.387	-8.524143	-3.457732E-008	0.0059056	7
	21	7	8015.625	4204.863	-713.2836	1	4264.933	-9.62761	-1.471837E-008	0.0058293	7
	22	8	6328.125	4248.747	-831.6206	1	4329.37	-11.07467	1.877211E-008	0.0058159	7
	23	8	5015.625	4298.539	-977.935	1	4408.377	-12.81686	-3.606657E-008	0.0058876	7
	24	8	3984.375	4352.703	-1158.95	1	4504.352	-14.90965	-3.448199E-008	0.0058963	7
	25	9	3170.956	4414.061	-1380.484	1	4624.896	-17.36691	-1.362603E-008	0.0058289	7
	26	9	2527.573	4484.169	-1653.84	1	4779.431	-20.24486	-2.304595E-010	0.0058472	7
	27	9	1976.103	4574.19	-2019.502	1	5000.161	-23.82143	-2.740134E-008	0.0058519	7
	28	10	1577.524	4674.224	-2433.298	1	5269.66	-27.50049	-2.43056E-008	0.005841	7
	29	10	1265.625	4792.019	-2926.284	1	5614.854	-31.41065	4.968573E-008	0.0057212	7
	30	10	998.264	4946.695	-3578.465	1	6105.342	-35.88218	1.969242E-008	0.0058037	7
	31	11	796.875	5129.674	-4330.979	1	6713.489	-40.17437	1.555006E-008	0.0057708	7
	32	11	627.7902	5367.192	-5305.011	1	7546.515	-44.66617	-3.583234E-008	0.0058786	7
	33	11	505.5147	5635.452	-6380.569	1	8512.931	-48.54839	9.393091E-010	0.0058419	7
	34	12	397.9953	5999.812	-7806.052	1	9845.42	-52.45375	5.54392E-009	0.0058343	7
	35	12	315.5048	6437.07	-9497.526	1	11473.4	-55.87204	8.479255E-010	0.0058379	6
	36	12	252.4038	6946.95	-11465.1	1	13405.55	-58.78744	3.983793E-010	0.0058349	6
	37	13	198.6229	7614.782	-14026.31	1	15960.02	-61.50279	7.091526E-010	0.0058324	6
	38	13	158.3615	8383.26	-16969.68	1	18927.46	-63.70998	2.905837E-010	0.0058343	6
	39	13	125.558	9341.354	-20635.28	1	22651.18	-65.64429	4.964593E-010	0.0058368	6
	40	13	100.4464	10454.98	-24910.22	1	27015.28	-67.2319	9.228065E-010	0.0058314	6
	41	14	79.00281	11955.03	-30492.18	1	32752.03	-68.5914	7.201066E-010	0.0058257	6
	42	14	63.3446	13834.98	-36911.89	1	39419.46	-69.45345	2.275448E-010	0.005826	6
	43	15	49.86702	16176.66	-45199.89	1	48007.44	-70.30814	-1.253064E-010	0.0058228	6
	44	15	39.72458	19035.42	-54599.57	1	57822.66	-70.77956	7.810696E-010	0.0058265	6
	45	15	31.6723	22695.62	-66020.88	1	69812.95	-71.02886	6.477902E-010	0.0058261	6
	46	16	24.93351	27966.05	-80535.04	1	85252.52	-70.85028	7.608335E-010	0.0058275	6
	47	16	19.86229	34336.47	-96869.5	1	102775	-70.48257	1.540305E-009	0.0058346	6
	48	16	15.83615	42369.39	-116941.6	1	124380.4	-70.08392	-9.643109E-010	0.0058256	5
	49	16	12.40079	53717.18	-140502.2	1	150420.7	-69.077	8.937496E-010	0.0058221	5
	50	17	9.93114	67228.22	-166409.2	1	179476	-68.00161	8.644653E-010	0.0058269	5
	51	17	7.944915	83990.27	-197727.2	1	214826.5	-66.98526	4.901627E-010	0.0058173	5
	52	18	6.317385	104129.9	-231249.5	1	253612.6	-65.75833	1.690242E-010	0.0058122	5
	53	18	5.008013	130058.6	-271435.4	1	300985.8	-64.39854	3.009586E-010	0.005828	5
	54	19	3.945707	162297.2	-317508.8	1	356584.1	-62.92578	-8.17221E-011	0.0058158	5
	55	20	3.158693	198967.8	-365912.1	1	416509.1	-61.4645	3.78793E-011	0.0058095	5
	56	22	2.504006	243190.4	-421863.2	1	486939.6	-60.03795	1.881006E-010	0.0058171	5
	57	23	1.998082	293121	-480837.5	1	563138.2	-58.6333	-6.562302E-011	0.0057765	5
	58	25	1.584686	350459.1	-549655.4	1	651876.3	-57.4785	-9.474013E-011	0.0057792	5
	59	27	1.266892	412039.7	-620909.3	1	745187.9	-56.43147	1.068341E-010	0.0058186	5
	60	29	0.999041	488749.5	-705191.4	1	858004.1	-55.2752	1.680088E-010	0.0058393	5
