EXPLAIN
TAG	EISPOT
TITLE	LABEL	Potentiostatic EIS	Test &Identifier
DATE	LABEL	3/9/2020	Date
TIME	LABEL	21:14:26	Time
NOTES	NOTES	1	&Notes...
	
PSTAT	PSTAT	REF600-11020	Potentiostat
VDC	POTEN	0.00000E+000	T	DC &Voltage (V)
FREQINIT	QUANT	1.00000E+006	Initial Fre&q. (Hz)
FREQFINAL	QUANT	1.00000E+000	Final Fre&q. (Hz)
PTSPERDEC	QUANT	1.00000E+001	Points/&decade
VAC	QUANT	2.50000E+001	AC &Voltage (mV rms)
AREA	QUANT	4.00000E-005	&Area (cm^2)
CONDIT	TWOPARAM	F	5.00000E+000	0.00000E+000	Conditionin&g	Time(s)	E(V)
DELAY	TWOPARAM	T	3.00000E+000	0.00000E+000	Init. De&lay	Time(s)	Stab.(mV/s)
SPEED	SELECTOR	0	&Optimize for:
ZGUESS	QUANT	1.00000E+003	E&stimated Z (ohms)
OCVCURVE	TABLE	12
	Pt	T	Vf	Vm	Ach	Over
	#	s	V vs. Ref.	V	V	bits
	0	0.258333	5.53453E-002	5.53453E-002	5.77430E-004	...........
	1	0.516667	5.53450E-002	5.53301E-002	5.81063E-004	...........
	2	0.775	5.53431E-002	5.53106E-002	5.82363E-004	...........
	3	1.03333	5.53375E-002	5.52941E-002	5.77297E-004	...........
	4	1.29167	5.53271E-002	5.52810E-002	5.81297E-004	...........
	5	1.55	5.53131E-002	5.52653E-002	5.77230E-004	...........
	6	1.80833	5.52976E-002	5.52529E-002	5.86463E-004	...........
	7	2.06667	5.52823E-002	5.52403E-002	5.80863E-004	...........
	8	2.325	5.52677E-002	5.52249E-002	5.77297E-004	...........
	9	2.58333	5.52539E-002	5.52122E-002	5.71063E-004	...........
	10	2.84167	5.52403E-002	5.51996E-002	5.85730E-004	...........
	11	3.1	5.52269E-002	5.51908E-002	5.79263E-004	...........
EOC	QUANT	0.0552269	Open Circuit (V)
PSTATMODEL	IQUANT	4	Pstat Model
PSTATSECTION	LABEL	REF600-11020	Pstat Section
PSTATSERIALNO	LABEL	11020	Pstat Serial Number
CTRLMODE	IQUANT	1	Control Mode
IESTAB	IQUANT	0	I/E Stability
CASPEED	IQUANT	1	Control Amp Speed
CONVENTION	IQUANT	1	Current Convention
ICHRANGE	IQUANT	2	Ich Range
ICHRANGEMODE	TOGGLE	F	Ich Auto Range
ICHOFFSETENABLE	TOGGLE	T	Ich Offset Enable
ICHOFFSET	QUANT	0	Ich Offset (V)
ICHFILTER	IQUANT	3	Ich Filter
VCHRANGE	IQUANT	2	Vch Range
VCHRANGEMODE	TOGGLE	F	Vch Auto Range
VCHOFFSETENABLE	TOGGLE	T	Vch Offset Enable
VCHOFFSET	QUANT	0	Vch Offset (V)
VCHFILTER	IQUANT	3	Vch Filter
ACHRANGE	IQUANT	2	Ach Range
ACHOFFSETENABLE	TOGGLE	F	Ach Offset Enable
ACHOFFSET	QUANT	0	Ach Offset (V)
ACHFILTER	IQUANT	3	Ach Filter
IERANGELOWERLIMIT	IQUANT	1	I/E Range Lower Limit
IERANGEMODE	TOGGLE	F	I/E AutoRange
IERANGE	IQUANT	8	I/E Range
POSFEEDENABLE	TOGGLE	F	Positive Feedback IR Comp
POSFEEDRESISTANCE	QUANT	0	Positive Feedback Resistance (ohm)
ACHSELECT	IQUANT	0	Ach Select
CABLEID	IQUANT	14	Cable ID
DCCALDATE	LABEL	2/27/2020	DC Calibration Date
ACCALDATE	LABEL	2/27/2020	AC Calibration Date
THERMOSELECT	IQUANT	1	Thermo Select
FRAMEWORKVERSION	QUANT	6.33	Framework Version
INSTRUMENTVERSION	LABEL	3.50	Instrument Version
ZCURVE	TABLE
	Pt	Time	Freq	Zreal	Zimag	Zsig	Zmod	Zphz	Idc	Vdc	IERange
	#	s	Hz	ohm	ohm	V	ohm	°	A	V	#
	0	1	1000078	1600.532	-1930.231	1	2507.487	-50.33475	4.21072E-008	0.0576215	8
	1	1	794390.6	1884.038	-2134.257	1	2846.867	-48.56321	7.577741E-008	0.0572945	8
	2	1	630984.4	2193.742	-2346.501	1	3212.254	-46.92702	1.214647E-008	0.0571118	8
	3	2	501234.4	2530.649	-2571.615	1	3607.961	-45.46001	3.290007E-008	0.0570186	8
	4	2	398109.4	2901.233	-2812.109	1	4040.435	-44.1063	6.7859E-008	0.0569689	8
	5	2	316265.6	3319.545	-3079.223	1	4527.802	-42.84912	4.121513E-008	0.0569308	8
	6	3	251203.1	3804.674	-3359.975	1	5075.921	-41.44829	4.102E-008	0.0569178	8
	7	3	199546.9	4355.659	-3623.123	1	5665.579	-39.75435	8.222906E-008	0.0568953	8
	8	3	158578.1	4987.258	-3875.919	1	6316.288	-37.85308	8.109863E-008	0.0568946	8
	9	4	125953.1	5801.851	-4013.429	1	7054.721	-34.67354	2.472079E-009	0.0568714	7
	10	4	100078.1	6545.617	-4133.214	1	7741.354	-32.27026	1.607832E-009	0.0568518	7
	11	4	79453.13	7334.877	-4175.512	1	8440.102	-29.65148	1.580181E-009	0.0568504	7
	12	5	63140.62	8119.061	-4100.623	1	9095.837	-26.79657	1.845684E-009	0.0568353	7
	13	5	50203.12	8854.403	-3938.777	1	9690.95	-23.98133	6.108219E-010	0.0568314	7
	14	5	39890.62	9540.37	-3725.376	1	10241.93	-21.32993	1.920379E-009	0.056826	7
	15	6	31640.63	10144.67	-3445.962	1	10713.96	-18.7617	8.496196E-010	0.0568315	7
	16	6	25171.88	10649.33	-3138.465	1	11102.17	-16.42078	1.421558E-009	0.0568345	7
	17	6	20015.62	11091.13	-2840.882	1	11449.18	-14.36687	7.961586E-010	0.0568315	7
	18	7	15890.62	11438.04	-2549.434	1	11718.72	-12.56531	1.555642E-009	0.0568314	7
	19	7	12609.37	11826.85	-2096.604	1	12011.25	-10.05267	-3.5493E-011	0.0568912	6
	20	7	10078.13	12015.94	-1914.271	1	12167.47	-9.051778	-7.549533E-011	0.0568873	6
	21	8	8015.625	12143	-1770.307	1	12271.37	-8.29462	-1.081026E-011	0.0568847	6
	22	8	6328.125	12292.34	-1693.531	1	12408.45	-7.84433	8.061125E-011	0.0568788	6
	23	8	5015.625	12416.09	-1675.418	1	12528.62	-7.685029	-3.409337E-011	0.0568813	6
	24	9	3984.375	12473.16	-1712.607	1	12590.19	-7.818018	-3.518476E-011	0.0568809	6
	25	9	3170.956	12563.87	-1821.143	1	12695.17	-8.247624	1.357507E-011	0.0568814	6
	26	9	2527.573	12652.02	-2001.918	1	12809.42	-8.991318	-1.859844E-010	0.0568815	6
	27	9	1976.103	12737.08	-2286.01	1	12940.59	-10.17493	6.278836E-011	0.056881	6
	28	10	1577.524	12868.99	-2643.491	1	13137.69	-11.60798	-9.613069E-011	0.0568839	6
	29	10	1265.625	12954.93	-3091.844	1	13318.78	-13.4232	9.655471E-012	0.0568846	6
	30	10	998.264	13091.94	-3706.561	1	13606.52	-15.80776	1.874664E-010	0.0568863	6
	31	11	796.875	13252.89	-4442.402	1	13977.63	-18.53128	-1.122312E-010	0.0568828	6
	32	11	627.7902	13490.5	-5409.885	1	14534.8	-21.85151	-3.016688E-010	0.0568755	6
	33	11	505.5147	13720.22	-6493.265	1	15179.16	-25.32644	-3.080327E-010	0.0568832	6
	34	12	397.9953	14037.72	-7956.662	1	16135.86	-29.54482	4.060594E-010	0.0568916	6
	35	12	315.5048	14465.95	-9702.98	1	17418.71	-33.8516	4.697741E-010	0.0568904	6
	36	12	252.4038	14948.19	-11744.66	1	19010.14	-38.15641	3.961726E-010	0.0568895	6
	37	13	198.6229	15641.82	-14418.63	1	21273.54	-42.66985	2.932335E-010	0.0568928	6
	38	13	158.3615	16440.89	-17491.69	1	24005.46	-46.77373	4.653923E-010	0.056886	6
	39	13	125.558	17446.87	-21315	1	27544.91	-50.6988	5.260852E-010	0.0568854	6
	40	14	100.4464	18669.14	-25763.39	1	31816.49	-54.07148	3.020011E-010	0.056888	6
	41	14	79.00281	20311.57	-31576.3	1	37544.94	-57.2487	3.907332E-010	0.0568819	6
	42	14	63.3446	22228.18	-38051.32	1	44068.08	-59.7081	4.021376E-010	0.0568862	6
	43	15	49.86702	24907.4	-46530.39	1	52777.41	-61.84016	3.098495E-010	0.0568842	6
	44	15	39.72458	28226.63	-56269.23	1	62952.11	-63.36004	4.477535E-010	0.056888	6
	45	15	31.6723	32420.59	-67878.71	1	75223.76	-64.46968	6.055352E-010	0.0568805	6
	46	16	24.93351	38280.27	-82563.78	1	91006.36	-65.12545	-1.547547E-010	0.0568822	6
	47	16	19.86229	45631.43	-99008.4	1	109017.9	-65.25576	-4.647288E-010	0.0568888	5
	48	16	15.83615	55101.83	-118252.1	1	130459.8	-65.01593	-5.858333E-010	0.0568877	5
	49	17	12.40079	68425.68	-142301.7	1	157898.2	-64.31945	-1.206404E-009	0.0568922	5
	50	17	9.93114	83760.84	-166826.2	1	186673.1	-63.33949	-1.305549E-009	0.0568907	5
	51	17	7.944915	102890.3	-194495.2	1	220033.6	-62.12063	-1.020316E-011	0.0568891	5
	52	18	6.317385	126848.6	-225559.7	1	258781.3	-60.64779	1.079485E-011	0.0568923	5
	53	18	5.008013	156020.4	-259687.5	1	302952.1	-59.00253	-3.393494E-010	0.0568795	5
	54	19	3.945707	191300.9	-297456.1	1	353661.1	-57.25399	-2.231714E-010	0.0568844	5
	55	20	3.158693	227922.9	-334525.2	1	404791.3	-55.73212	-1.673196E-010	0.0568701	5
	56	21	2.504006	271148.8	-376133.6	1	463678.9	-54.21275	2.386957E-010	0.0568787	5
	57	23	1.998082	315076.1	-419619.1	1	524741	-53.0985	1.132083E-010	0.0568703	5
	58	24	1.584686	365920.3	-469402.2	1	595177.4	-52.06197	-5.280012E-011	0.056833	5
	59	26	1.266892	416381.2	-524986.8	1	670063	-51.58112	-4.405901E-011	0.0568424	5
	60	29	0.999041	472754.7	-592054.7	1	757644.9	-51.39269	-3.398181E-011	0.0568629	5
