EXPLAIN
TAG	EISPOT
TITLE	LABEL	Potentiostatic EIS	Test &Identifier
DATE	LABEL	1/14/2020	Date
TIME	LABEL	15:07:12	Time
NOTES	NOTES	5	&Notes...
	
	
	
	
	
PSTAT	PSTAT	REF600-11020	Potentiostat
VDC	POTEN	0.00000E+000	T	DC &Voltage (V)
FREQINIT	QUANT	1.00000E+006	Initial Fre&q. (Hz)
FREQFINAL	QUANT	1.00000E+000	Final Fre&q. (Hz)
PTSPERDEC	QUANT	1.00000E+001	Points/&decade
VAC	QUANT	2.50000E+001	AC &Voltage (mV rms)
AREA	QUANT	1.00000E-001	&Area (cm^2)
CONDIT	TWOPARAM	T	5.00000E+000	0.00000E+000	Conditionin&g	Time(s)	E(V)
DELAY	TWOPARAM	T	5.00000E+000	0.00000E+000	Init. De&lay	Time(s)	Stab.(mV/s)
SPEED	SELECTOR	0	&Optimize for:
ZGUESS	QUANT	5.00000E+002	E&stimated Z (ohms)
OCVCURVE	TABLE	19
	Pt	T	Vf	Vm	Ach	Over
	#	s	V vs. Ref.	V	V	bits
	0	0.258333	-9.81043E-003	-9.81043E-003	6.41113E-004	...........
	1	0.516667	-9.82838E-003	-1.07500E-002	6.46380E-004	...........
	2	0.775	-9.93729E-003	-1.15723E-002	6.41246E-004	...........
	3	1.03333	-1.02413E-002	-1.23729E-002	6.41313E-004	...........
	4	1.29167	-1.07772E-002	-1.31135E-002	6.39013E-004	...........
	5	1.55	-1.14788E-002	-1.38005E-002	6.44480E-004	...........
	6	1.80833	-1.22429E-002	-1.44210E-002	6.42046E-004	...........
	7	2.06667	-1.29926E-002	-1.49780E-002	6.33346E-004	...........
	8	2.325	-1.36901E-002	-1.54914E-002	6.40480E-004	...........
	9	2.58333	-1.43239E-002	-1.59226E-002	6.38646E-004	...........
	10	2.84167	-1.48959E-002	-1.64285E-002	6.41280E-004	...........
	11	3.1	-1.54183E-002	-1.69202E-002	6.38546E-004	...........
	12	3.35833	-1.59113E-002	-1.73577E-002	6.37080E-004	...........
	13	3.61667	-1.63902E-002	-1.77902E-002	6.43980E-004	...........
	14	3.875	-1.68576E-002	-1.82114E-002	6.42146E-004	...........
	15	4.13333	-1.73099E-002	-1.85960E-002	6.49046E-004	...........
	16	4.39167	-1.77451E-002	-1.90161E-002	6.42613E-004	...........
	17	4.65	-1.81646E-002	-1.93963E-002	6.39613E-004	...........
	18	4.90833	-1.85724E-002	-1.97768E-002	6.52280E-004	...........
EOC	QUANT	-0.0185724	Open Circuit (V)
PSTATMODEL	IQUANT	4	Pstat Model
PSTATSECTION	LABEL	REF600-11020	Pstat Section
PSTATSERIALNO	LABEL	11020	Pstat Serial Number
CTRLMODE	IQUANT	1	Control Mode
IESTAB	IQUANT	0	I/E Stability
CASPEED	IQUANT	1	Control Amp Speed
CONVENTION	IQUANT	1	Current Convention
ICHRANGE	IQUANT	2	Ich Range
ICHRANGEMODE	TOGGLE	F	Ich Auto Range
ICHOFFSETENABLE	TOGGLE	T	Ich Offset Enable
ICHOFFSET	QUANT	0	Ich Offset (V)
ICHFILTER	IQUANT	3	Ich Filter
VCHRANGE	IQUANT	2	Vch Range
VCHRANGEMODE	TOGGLE	F	Vch Auto Range
VCHOFFSETENABLE	TOGGLE	T	Vch Offset Enable
VCHOFFSET	QUANT	0	Vch Offset (V)
VCHFILTER	IQUANT	3	Vch Filter
ACHRANGE	IQUANT	2	Ach Range
ACHOFFSETENABLE	TOGGLE	F	Ach Offset Enable
ACHOFFSET	QUANT	0	Ach Offset (V)
ACHFILTER	IQUANT	3	Ach Filter
IERANGELOWERLIMIT	IQUANT	1	I/E Range Lower Limit
IERANGEMODE	TOGGLE	F	I/E AutoRange
IERANGE	IQUANT	7	I/E Range
POSFEEDENABLE	TOGGLE	F	Positive Feedback IR Comp
POSFEEDRESISTANCE	QUANT	0	Positive Feedback Resistance (ohm)
ACHSELECT	IQUANT	0	Ach Select
CABLEID	IQUANT	14	Cable ID
DCCALDATE	LABEL	12/22/2019	DC Calibration Date
ACCALDATE	LABEL	12/22/2019	AC Calibration Date
THERMOSELECT	IQUANT	1	Thermo Select
FRAMEWORKVERSION	QUANT	6.33	Framework Version
INSTRUMENTVERSION	LABEL	3.50	Instrument Version
ZCURVE	TABLE
	Pt	Time	Freq	Zreal	Zimag	Zsig	Zmod	Zphz	Idc	Vdc	IERange
	#	s	Hz	ohm	ohm	V	ohm	°	A	V	#
	0	1	1000078	2151.505	-1403.437	1	2568.776	-33.11659	-4.087574E-007	-0.0165904	8
	1	2	794390.6	2425.123	-1344.381	1	2772.829	-29.00205	1.51851E-007	-0.0166381	8
	2	2	630984.4	2659.508	-1243.016	1	2935.655	-25.05072	-4.869092E-007	-0.0167477	8
	3	2	501234.4	2856.189	-1127.262	1	3070.592	-21.53783	-9.701051E-007	-0.0166917	8
	4	2	398109.4	3026.448	-1008.679	1	3190.113	-18.43262	1.6993E-006	-0.0171898	8
	5	3	316265.6	3149.042	-897.8976	1	3274.552	-15.91463	3.742916E-008	-0.016914	8
	6	3	251203.1	3254.728	-791.4757	1	3349.58	-13.66774	8.163673E-009	-0.0169233	8
	7	3	199546.9	3340.491	-715.3128	1	3416.219	-12.08645	2.680325E-006	-0.0174948	8
	8	4	158578.1	3392.851	-646.3832	1	3453.874	-10.78635	-4.498752E-007	-0.0168946	8
	9	4	125953.1	3467.111	-565.6977	1	3512.958	-9.266787	7.375037E-007	-0.0184891	7
	10	4	100078.1	3504.921	-534.1867	1	3545.396	-8.665788	6.884665E-009	-0.0169116	7
	11	5	79453.13	3551.083	-518.2998	1	3588.708	-8.303995	2.840624E-008	-0.0170074	7
	12	5	63140.62	3596.243	-518.3953	1	3633.414	-8.202634	-3.416478E-008	-0.0169108	7
	13	5	50203.12	3641.548	-530.5117	1	3679.988	-8.288712	-1.531062E-008	-0.0169332	7
	14	6	39890.62	3690.064	-555.6904	1	3731.67	-8.56388	7.542046E-008	-0.0170813	7
	15	6	31640.63	3741.747	-593.7675	1	3788.566	-9.016924	-5.163951E-009	-0.0170052	7
	16	6	25171.88	3797.577	-645.2636	1	3852.007	-9.64329	-2.910533E-009	-0.0169924	7
	17	7	20015.62	3860.693	-710.9435	1	3925.607	-10.43408	-2.920313E-008	-0.0169469	7
	18	7	15890.62	3929.172	-792.3303	1	4008.264	-11.40099	8.117552E-009	-0.0169879	7
	19	7	12609.37	4008.148	-891.4705	1	4106.089	-12.53931	1.252754E-008	-0.0170307	7
	20	7	10078.13	4088.688	-1008.622	1	4211.257	-13.85739	-2.792953E-008	-0.0169451	7
	21	8	8015.625	4192.357	-1141.075	1	4344.872	-15.22592	4.541484E-008	-0.0170603	7
	22	8	6328.125	4307.911	-1307.2	1	4501.874	-16.87998	4.65697E-008	-0.0170615	7
	23	8	5015.625	4435.493	-1501.556	1	4682.763	-18.7026	-3.42929E-008	-0.0169217	7
	24	9	3984.375	4579.633	-1724.114	1	4893.425	-20.63006	2.986428E-008	-0.0170744	7
	25	9	3170.956	4739.903	-1986.843	1	5139.478	-22.74215	5.406134E-008	-0.0170265	7
	26	9	2527.573	4920.387	-2291.855	1	5427.965	-24.97552	3.060031E-008	-0.0170713	7
	27	10	1976.103	5147.485	-2686.557	1	5806.393	-27.56079	1.346831E-008	-0.0170417	7
	28	10	1577.524	5375.564	-3121.506	1	6216.147	-30.14307	4.770266E-008	-0.0170785	7
	29	10	1265.625	5635.963	-3601.085	1	6688.191	-32.57645	-1.298054E-008	-0.016996	7
	30	11	998.264	5957.574	-4227.398	1	7305.038	-35.3589	5.584647E-008	-0.0170311	7
	31	11	796.875	6305.745	-4930.154	1	8004.301	-38.02012	4.739596E-008	-0.0170912	7
	32	11	627.7902	6730.844	-5819.813	1	8898.004	-40.84828	4.801712E-008	-0.017069	7
	33	12	505.5147	7179.28	-6771.435	1	9868.86	-43.32545	5.083935E-009	-0.0170927	6
	34	12	397.9953	7755.972	-8026.809	1	11161.75	-45.98312	1.615693E-009	-0.0169848	6
	35	12	315.5048	8409.193	-9476.771	1	12669.8	-48.41582	1.966032E-009	-0.0169881	6
	36	13	252.4038	9138.58	-11124.77	1	14397.02	-50.59818	1.660254E-009	-0.016992	6
	37	13	198.6229	10051.15	-13223.37	1	16609.73	-52.76134	1.635058E-009	-0.016989	6
	38	13	158.3615	11044.03	-15578.23	1	19095.86	-54.66566	1.521094E-009	-0.0169929	6
	39	13	125.558	12205.66	-18441.42	1	22114.79	-56.50098	1.737759E-009	-0.0169897	6
	40	14	100.4464	13456.18	-21711.06	1	25542.89	-58.21	1.374425E-009	-0.0169921	6
	41	14	79.00281	14971.2	-25948.46	1	29957.63	-60.01681	1.83717E-009	-0.016991	6
	42	14	63.3446	16491.82	-30793.82	1	34931.93	-61.82846	1.695539E-009	-0.0169895	6
	43	15	49.86702	18381.74	-37029.7	1	41341.1	-63.59996	1.648352E-009	-0.016991	6
	44	15	39.72458	20501.79	-44294.46	1	48809.04	-65.16283	1.516701E-009	-0.016985	6
	45	16	31.6723	22923.34	-53182.64	1	57912.63	-66.68249	1.528039E-009	-0.016991	6
	46	16	24.93351	26020.37	-64809.88	1	69838.24	-68.12514	1.092357E-009	-0.0169899	6
	47	16	19.86229	29652	-78401.35	1	83821.31	-69.28299	7.317667E-010	-0.0169908	6
	48	16	15.83615	34183.17	-94825.16	1	100798.3	-70.17646	1.48147E-009	-0.0169912	6
	49	17	12.40079	40761.65	-116583.5	1	123504	-70.7286	9.749533E-010	-0.0169911	5
	50	17	9.93114	48289.49	-140534.1	1	148599.2	-71.03656	7.550466E-010	-0.0169914	5
	51	17	7.944915	57906.24	-169118.2	1	178757.1	-71.09874	1.231315E-009	-0.0169915	5
	52	18	6.317385	71017.3	-204595.4	1	216570.4	-70.85755	8.750636E-010	-0.0169785	5
	53	18	5.008013	88638.06	-247549	1	262939.6	-70.29945	7.641912E-010	-0.0169957	5
	54	19	3.945707	111366.1	-299425.7	1	319465.4	-69.59821	1.244814E-009	-0.0169902	5
	55	20	3.158693	139766	-355244.6	1	381750.3	-68.52354	8.543353E-010	-0.0169875	5
	56	22	2.504006	176927	-422927.1	1	458443.5	-67.29853	8.701227E-010	-0.0169988	5
	57	23	1.998082	222601.5	-497298.8	1	544846.3	-65.88569	1.046185E-009	-0.0169499	5
	58	25	1.584686	278931.1	-583408.1	1	646658.8	-64.44724	9.731257E-010	-0.0169734	5
	59	27	1.266892	347423.8	-675038.2	1	759196.9	-62.76635	9.111449E-010	-0.0170096	5
	60	29	0.999041	435392.3	-783581.9	1	896419	-60.94154	8.355809E-010	-0.0170342	5
