EXPLAIN
TAG	EISPOT
TITLE	LABEL	Potentiostatic EIS	Test &Identifier
DATE	LABEL	1/18/2020	Date
TIME	LABEL	22:37:34	Time
NOTES	NOTES	6	&Notes...
	
	
	
	
	
	
PSTAT	PSTAT	REF600-11020	Potentiostat
VDC	POTEN	0.00000E+000	T	DC &Voltage (V)
FREQINIT	QUANT	1.00000E+006	Initial Fre&q. (Hz)
FREQFINAL	QUANT	1.00000E+000	Final Fre&q. (Hz)
PTSPERDEC	QUANT	1.00000E+001	Points/&decade
VAC	QUANT	2.50000E+001	AC &Voltage (mV rms)
AREA	QUANT	1.00000E-001	&Area (cm^2)
CONDIT	TWOPARAM	F	5.00000E+000	0.00000E+000	Conditionin&g	Time(s)	E(V)
DELAY	TWOPARAM	F	5.00000E+000	0.00000E+000	Init. De&lay	Time(s)	Stab.(mV/s)
SPEED	SELECTOR	0	&Optimize for:
ZGUESS	QUANT	5.00000E+002	E&stimated Z (ohms)
OCVCURVE	TABLE	39
	Pt	T	Vf	Vm	Ach	Over
	#	s	V vs. Ref.	V	V	bits
	0	0.258333	-1.18341E-001	-1.18341E-001	6.46813E-004	...........
	1	0.516667	-1.18343E-001	-1.18448E-001	6.46046E-004	...........
	2	0.775	-1.18358E-001	-1.18668E-001	6.53113E-004	...........
	3	1.03333	-1.18401E-001	-1.18532E-001	6.48446E-004	...........
	4	1.29167	-1.18459E-001	-1.18219E-001	6.51080E-004	...........
	5	1.55	-1.18484E-001	-1.18268E-001	6.51013E-004	...........
	6	1.80833	-1.18444E-001	-1.18218E-001	6.48380E-004	...........
	7	2.06667	-1.18363E-001	-1.18192E-001	6.52080E-004	...........
	8	2.325	-1.18286E-001	-1.18151E-001	6.45513E-004	...........
	9	2.58333	-1.18230E-001	-1.18138E-001	6.46746E-004	...........
	10	2.84167	-1.18191E-001	-1.18114E-001	6.46980E-004	...........
	11	3.1	-1.18174E-001	-1.18750E-001	6.43680E-004	...........
	12	3.35833	-1.18210E-001	-1.18488E-001	6.47646E-004	...........
	13	3.61667	-1.18310E-001	-1.18470E-001	6.49180E-004	...........
	14	3.875	-1.18417E-001	-1.18368E-001	6.47413E-004	...........
	15	4.13333	-1.18468E-001	-1.18351E-001	6.50880E-004	...........
	16	4.39167	-1.18456E-001	-1.18274E-001	6.50713E-004	...........
	17	4.65	-1.18407E-001	-1.18208E-001	6.44413E-004	...........
	18	4.90833	-1.18346E-001	-1.18168E-001	6.49980E-004	...........
	19	5.16667	-1.18283E-001	-1.18104E-001	6.46746E-004	...........
	20	5.425	-1.18224E-001	-1.18094E-001	6.49913E-004	...........
	21	5.68333	-1.18173E-001	-1.18134E-001	6.49480E-004	...........
	22	5.94167	-1.18138E-001	-1.18159E-001	6.45846E-004	...........
	23	6.2	-1.18124E-001	-1.18143E-001	6.51646E-004	...........
	24	6.45833	-1.18127E-001	-1.18109E-001	6.48080E-004	...........
	25	6.71667	-1.18132E-001	-1.18095E-001	6.50513E-004	...........
	26	6.975	-1.18129E-001	-1.18108E-001	6.44013E-004	...........
	27	7.23333	-1.18120E-001	-1.18082E-001	6.52313E-004	...........
	28	7.49167	-1.18108E-001	-1.18056E-001	6.53280E-004	...........
	29	7.75	-1.18095E-001	-1.18028E-001	6.51713E-004	...........
	30	8.00833	-1.18078E-001	-1.18024E-001	6.51846E-004	...........
	31	8.26667	-1.18059E-001	-1.18002E-001	6.48113E-004	...........
	32	8.525	-1.18040E-001	-1.18001E-001	6.50080E-004	...........
	33	8.78333	-1.18023E-001	-1.17997E-001	6.54580E-004	...........
	34	9.04167	-1.18011E-001	-1.17986E-001	6.47013E-004	...........
	35	9.3	-1.18002E-001	-1.17975E-001	6.53313E-004	...........
	36	9.5583	-1.17994E-001	-1.17980E-001	6.44846E-004	...........
	37	9.8167	-1.17988E-001	-1.18004E-001	6.51013E-004	...........
	38	10.075	-1.17985E-001	-1.17995E-001	6.49646E-004	...........
EOC	QUANT	-0.1179852	Open Circuit (V)
PSTATMODEL	IQUANT	4	Pstat Model
PSTATSECTION	LABEL	REF600-11020	Pstat Section
PSTATSERIALNO	LABEL	11020	Pstat Serial Number
CTRLMODE	IQUANT	1	Control Mode
IESTAB	IQUANT	0	I/E Stability
CASPEED	IQUANT	1	Control Amp Speed
CONVENTION	IQUANT	1	Current Convention
ICHRANGE	IQUANT	2	Ich Range
ICHRANGEMODE	TOGGLE	F	Ich Auto Range
ICHOFFSETENABLE	TOGGLE	T	Ich Offset Enable
ICHOFFSET	QUANT	0	Ich Offset (V)
ICHFILTER	IQUANT	3	Ich Filter
VCHRANGE	IQUANT	2	Vch Range
VCHRANGEMODE	TOGGLE	F	Vch Auto Range
VCHOFFSETENABLE	TOGGLE	T	Vch Offset Enable
VCHOFFSET	QUANT	0	Vch Offset (V)
VCHFILTER	IQUANT	3	Vch Filter
ACHRANGE	IQUANT	2	Ach Range
ACHOFFSETENABLE	TOGGLE	F	Ach Offset Enable
ACHOFFSET	QUANT	0	Ach Offset (V)
ACHFILTER	IQUANT	3	Ach Filter
IERANGELOWERLIMIT	IQUANT	1	I/E Range Lower Limit
IERANGEMODE	TOGGLE	F	I/E AutoRange
IERANGE	IQUANT	8	I/E Range
POSFEEDENABLE	TOGGLE	F	Positive Feedback IR Comp
POSFEEDRESISTANCE	QUANT	0	Positive Feedback Resistance (ohm)
ACHSELECT	IQUANT	0	Ach Select
CABLEID	IQUANT	14	Cable ID
DCCALDATE	LABEL	12/22/2019	DC Calibration Date
ACCALDATE	LABEL	12/22/2019	AC Calibration Date
THERMOSELECT	IQUANT	1	Thermo Select
FRAMEWORKVERSION	QUANT	6.33	Framework Version
INSTRUMENTVERSION	LABEL	3.50	Instrument Version
ZCURVE	TABLE
	Pt	Time	Freq	Zreal	Zimag	Zsig	Zmod	Zphz	Idc	Vdc	IERange
	#	s	Hz	ohm	ohm	V	ohm	°	A	V	#
	0	2	1000078	1840.092	-897.6719	1	2047.378	-26.005	-2.676829E-006	-0.1151485	8
	1	2	794390.6	1988.625	-855.1406	1	2164.693	-23.26847	-2.040989E-006	-0.1154799	8
	2	2	630984.4	2117.511	-802.6345	1	2264.526	-20.75902	-1.03959E-007	-0.1160785	8
	3	3	501234.4	2234.073	-752.1299	1	2357.283	-18.60648	-7.886852E-007	-0.1160965	8
	4	3	398109.4	2330.1	-701.3101	1	2433.352	-16.75067	-6.952314E-007	-0.1161634	8
	5	3	316265.6	2417.93	-661.7668	1	2506.854	-15.30653	1.56329E-006	-0.1166635	8
	6	3	251203.1	2504.108	-619.3572	1	2579.566	-13.89252	-5.045359E-007	-0.1163288	8
	7	4	199546.9	2571.943	-602.665	1	2641.608	-13.18778	3.991017E-006	-0.1170955	8
	8	4	158578.1	2638.75	-580.7204	1	2701.896	-12.41146	-5.235131E-007	-0.1162809	8
	9	4	125953.1	2714.164	-560.1921	1	2771.372	-11.66186	-6.710342E-007	-0.1144809	7
	10	5	100078.1	2772.944	-553.3809	1	2827.623	-11.28593	1.950349E-008	-0.1164449	7
	11	5	79453.13	2837.088	-569.9597	1	2893.773	-11.35929	3.884834E-008	-0.1165428	7
	12	5	63140.62	2904.427	-592.068	1	2964.16	-11.52189	-3.933735E-008	-0.1163809	7
	13	6	50203.12	2975.994	-621.1726	1	3040.131	-11.78995	5.270175E-008	-0.1165492	7
	14	6	39890.62	3051.221	-656.1465	1	3120.974	-12.13629	4.168151E-008	-0.1164389	7
	15	6	31640.63	3130.932	-697.9886	1	3207.791	-12.56762	-2.31164E-008	-0.1164299	7
	16	7	25171.88	3213.838	-748.1218	1	3299.764	-13.10403	-3.761211E-008	-0.1163806	7
	17	7	20015.62	3302.646	-805.3547	1	3399.422	-13.7042	-3.981551E-008	-0.1163779	7
	18	7	15890.62	3395.217	-874.2322	1	3505.964	-14.43939	-2.909843E-008	-0.1164169	7
	19	8	12609.37	3492.495	-956.009	1	3620.977	-15.30871	5.41723E-008	-0.1165471	7
	20	8	10078.13	3592.283	-1048.876	1	3742.277	-16.27676	-2.816554E-008	-0.116419	7
	21	8	8015.625	3701.214	-1165.768	1	3880.464	-17.48281	-1.124134E-008	-0.1164003	7
	22	9	6328.125	3822.289	-1308.497	1	4040.056	-18.89779	9.230253E-009	-0.1164993	7
	23	9	5015.625	3953.129	-1480.298	1	4221.198	-20.52904	-1.069591E-008	-0.1164052	7
	24	9	3984.375	4097.639	-1681.947	1	4429.401	-22.31654	-3.31662E-008	-0.1163714	7
	25	9	3170.956	4258.704	-1918.41	1	4670.852	-24.25004	-1.192892E-008	-0.1164105	7
	26	10	2527.573	4439.326	-2193.863	1	4951.833	-26.29805	-1.071E-008	-0.116409	7
	27	10	1976.103	4658.729	-2544.364	1	5308.252	-28.64116	-2.243191E-008	-0.1164316	7
	28	10	1577.524	4884.825	-2921.266	1	5691.688	-30.88064	-3.346151E-008	-0.1163783	7
	29	11	1265.625	5121.754	-3350.469	1	6120.294	-33.19128	-2.268974E-008	-0.116357	7
	30	11	998.264	5395.802	-3900.268	1	6657.835	-35.86068	4.258321E-008	-0.1164477	7
	31	11	796.875	5677.03	-4532.144	1	7264.227	-38.60142	-8.612782E-009	-0.1164113	7
	32	12	627.7902	5993.735	-5347.471	1	8032.453	-41.7386	-3.226901E-008	-0.1163824	7
	33	12	505.5147	6320.989	-6254.837	1	8892.574	-44.69861	-2.299803E-008	-0.1164341	7
	34	12	397.9953	6723.342	-7477.518	1	10055.67	-48.03999	5.360484E-010	-0.1164416	6
	35	13	315.5048	7179.8	-8947.174	1	11471.77	-51.25415	9.030799E-010	-0.116438	6
	36	13	252.4038	7700.001	-10669.27	1	13157.63	-54.18204	6.696987E-010	-0.1164406	6
	37	13	198.6229	8374.581	-12930.03	1	15405.17	-57.0695	4.790441E-010	-0.1164403	6
	38	14	158.3615	9154.061	-15532.49	1	18029.28	-59.48706	2.001703E-010	-0.1164444	6
	39	14	125.558	10126.79	-18763.44	1	21321.78	-61.64389	3.794361E-010	-0.1164502	6
	40	14	100.4464	11265	-22502.88	1	25165.04	-63.40734	5.794583E-010	-0.1164481	6
	41	15	79.00281	12787.46	-27372.54	1	30212.17	-64.95971	4.890851E-010	-0.1164472	6
	42	15	63.3446	14660.42	-32963.68	1	36076.75	-66.02316	3.369334E-010	-0.1164476	6
	43	15	49.86702	16951.75	-40037.68	1	43478.48	-67.05244	2.075454E-010	-0.1164461	6
	44	16	39.72458	19755.69	-48048.38	1	51951.27	-67.64938	5.167708E-010	-0.1164465	6
	45	16	31.6723	23255.13	-57662.83	1	62175.58	-68.03603	3.631585E-010	-0.1164479	6
	46	16	24.93351	28050.01	-69934.09	1	75349.72	-68.14467	7.668041E-010	-0.1164494	6
	47	17	19.86229	33784.76	-83643.74	1	90209.13	-68.0056	9.367941E-010	-0.1164387	6
	48	17	15.83615	41108.91	-99546.4	1	107700.6	-67.56122	-1.598255E-010	-0.1164515	5
	49	17	12.40079	50795.84	-119470.4	1	129820.6	-66.96601	1.339497E-009	-0.1164507	5
	50	18	9.93114	61752.6	-141093.6	1	154015.5	-66.36239	6.148858E-010	-0.1164448	5
	51	18	7.944915	75555.14	-166281.7	1	182642.2	-65.56388	-3.80495E-010	-0.1164457	5
	52	18	6.317385	91695.98	-195192.6	1	215657.9	-64.83719	3.849896E-010	-0.1164653	5
	53	19	5.008013	111963.2	-228896.7	1	254812.6	-63.93476	2.273092E-010	-0.1164539	5
	54	20	3.945707	137371.9	-268722.9	1	301799.7	-62.92376	1.032191E-011	-0.1164475	5
	55	21	3.158693	163762.9	-312098	1	352453.5	-62.31327	-1.410471E-010	-0.1164622	5
	56	23	2.504006	197701.8	-362991	1	413338.2	-61.42523	1.530047E-010	-0.1164634	5
	57	24	1.998082	235057.3	-418545.7	1	480033.7	-60.68122	1.684016E-010	-0.1164277	5
	58	26	1.584686	280453.1	-483356.9	1	558827.3	-59.87686	4.293992E-011	-0.116474	5
	59	28	1.266892	332493.4	-558043.4	1	649587.8	-59.21267	4.296143E-011	-0.1164991	5
	60	30	0.999041	396156	-649219.3	1	760542.7	-58.6083	9.028882E-012	-0.1165012	5
