EXPLAIN
TAG	EISPOT
TITLE	LABEL	Potentiostatic EIS	Test &Identifier
DATE	LABEL	6/6/2020	Date
TIME	LABEL	18:44:54	Time
NOTES	NOTES	1	&Notes...
	
PSTAT	PSTAT	REF600-11020	Potentiostat
VDC	POTEN	0.00000E+000	T	DC &Voltage (V)
FREQINIT	QUANT	1.00000E+006	Initial Fre&q. (Hz)
FREQFINAL	QUANT	1.00000E+000	Final Fre&q. (Hz)
PTSPERDEC	QUANT	1.00000E+001	Points/&decade
VAC	QUANT	2.50000E+001	AC &Voltage (mV rms)
AREA	QUANT	4.00000E-004	&Area (cm^2)
CONDIT	TWOPARAM	F	5.00000E+000	0.00000E+000	Conditionin&g	Time(s)	E(V)
DELAY	TWOPARAM	T	3.00000E+000	0.00000E+000	Init. De&lay	Time(s)	Stab.(mV/s)
SPEED	SELECTOR	0	&Optimize for:
ZGUESS	QUANT	1.00000E+003	E&stimated Z (ohms)
OCVCURVE	TABLE	12
	Pt	T	Vf	Vm	Ach	Over
	#	s	V vs. Ref.	V	V	bits
	0	0.258333	-4.39156E-002	-4.39156E-002	5.72897E-004	...........
	1	0.516667	-4.39093E-002	-4.35822E-002	5.71797E-004	...........
	2	0.775	-4.38700E-002	-4.32563E-002	5.67130E-004	...........
	3	1.03333	-4.37585E-002	-4.29587E-002	5.72030E-004	...........
	4	1.29167	-4.35588E-002	-4.26635E-002	5.61764E-004	...........
	5	1.55	-4.32935E-002	-4.23870E-002	5.63363E-004	...........
	6	1.80833	-4.29998E-002	-4.21224E-002	5.66063E-004	...........
	7	2.06667	-4.27047E-002	-4.18602E-002	5.70163E-004	...........
	8	2.325	-4.24202E-002	-4.16104E-002	5.63730E-004	...........
	9	2.58333	-4.21483E-002	-4.13674E-002	5.65964E-004	...........
	10	2.84167	-4.18875E-002	-4.11436E-002	5.71497E-004	...........
	11	3.1	-4.16370E-002	-4.09300E-002	5.67197E-004	...........
EOC	QUANT	-0.041637	Open Circuit (V)
PSTATMODEL	IQUANT	4	Pstat Model
PSTATSECTION	LABEL	REF600-11020	Pstat Section
PSTATSERIALNO	LABEL	11020	Pstat Serial Number
CTRLMODE	IQUANT	1	Control Mode
IESTAB	IQUANT	0	I/E Stability
CASPEED	IQUANT	1	Control Amp Speed
CONVENTION	IQUANT	1	Current Convention
ICHRANGE	IQUANT	2	Ich Range
ICHRANGEMODE	TOGGLE	F	Ich Auto Range
ICHOFFSETENABLE	TOGGLE	T	Ich Offset Enable
ICHOFFSET	QUANT	0	Ich Offset (V)
ICHFILTER	IQUANT	3	Ich Filter
VCHRANGE	IQUANT	2	Vch Range
VCHRANGEMODE	TOGGLE	F	Vch Auto Range
VCHOFFSETENABLE	TOGGLE	T	Vch Offset Enable
VCHOFFSET	QUANT	0	Vch Offset (V)
VCHFILTER	IQUANT	3	Vch Filter
ACHRANGE	IQUANT	2	Ach Range
ACHOFFSETENABLE	TOGGLE	F	Ach Offset Enable
ACHOFFSET	QUANT	0	Ach Offset (V)
ACHFILTER	IQUANT	3	Ach Filter
IERANGELOWERLIMIT	IQUANT	1	I/E Range Lower Limit
IERANGEMODE	TOGGLE	F	I/E AutoRange
IERANGE	IQUANT	7	I/E Range
POSFEEDENABLE	TOGGLE	F	Positive Feedback IR Comp
POSFEEDRESISTANCE	QUANT	0	Positive Feedback Resistance (ohm)
ACHSELECT	IQUANT	0	Ach Select
CABLEID	IQUANT	14	Cable ID
DCCALDATE	LABEL	2/27/2020	DC Calibration Date
ACCALDATE	LABEL	2/27/2020	AC Calibration Date
THERMOSELECT	IQUANT	1	Thermo Select
FRAMEWORKVERSION	QUANT	6.33	Framework Version
INSTRUMENTVERSION	LABEL	3.50	Instrument Version
ZCURVE	TABLE
	Pt	Time	Freq	Zreal	Zimag	Zsig	Zmod	Zphz	Idc	Vdc	IERange
	#	s	Hz	ohm	ohm	V	ohm	°	A	V	#
	0	1	1000078	1877.523	-2084.766	1	2805.591	-47.99407	-1.77512E-008	-0.0393661	8
	1	2	794390.6	2217.673	-2255.844	1	3163.37	-45.48887	1.236387E-007	-0.0397444	8
	2	2	630984.4	2577.396	-2411.026	1	3529.308	-43.08983	-1.567761E-008	-0.0398203	8
	3	2	501234.4	2947.51	-2554.54	1	3900.447	-40.91473	5.98293E-008	-0.0399349	8
	4	3	398109.4	3324.413	-2699.78	1	4282.584	-39.08031	5.554312E-008	-0.0399861	8
	5	3	316265.6	3715.099	-2853.456	1	4684.46	-37.52679	3.906626E-008	-0.0400282	8
	6	3	251203.1	4106.737	-3016.033	1	5095.267	-36.29397	6.77377E-008	-0.0400287	8
	7	4	199546.9	4518.105	-3211.402	1	5543.138	-35.40465	3.648222E-009	-0.0400119	8
	8	4	158578.1	4970.787	-3428.806	1	6038.661	-34.59758	3.372024E-008	-0.0400358	8
	9	4	125953.1	5517.978	-3631.422	1	6605.703	-33.34921	2.858632E-010	-0.040101	7
	10	5	100078.1	6037.468	-3901.451	1	7188.348	-32.87081	2.5825E-009	-0.0401048	7
	11	5	79453.13	6650.457	-4190.528	1	7860.604	-32.2155	1.325291E-009	-0.0401229	7
	12	5	63140.62	7334.733	-4472.545	1	8590.807	-31.37384	2.025851E-009	-0.040121	7
	13	5	50203.12	8097.936	-4724.582	1	9375.406	-30.26059	2.462637E-009	-0.0401251	7
	14	6	39890.62	8920.336	-4910.345	1	10182.53	-28.83131	1.526272E-009	-0.0401366	7
	15	6	31640.63	9796.77	-5033.936	1	11014.41	-27.19574	1.95413E-009	-0.0401326	7
	16	6	25171.88	10681.54	-5084.602	1	11829.99	-25.45527	3.078659E-009	-0.0401215	7
	17	7	20015.62	11557.89	-5044.602	1	12610.82	-23.57953	1.716291E-009	-0.0401335	7
	18	7	15890.62	12426.2	-4957.407	1	13378.58	-21.74942	3.58248E-009	-0.0401272	7
	19	7	12609.37	13321.48	-4669.453	1	14116.15	-19.31662	-3.158478E-010	-0.0400729	6
	20	8	10078.13	14032.06	-4489.458	1	14732.75	-17.74171	-4.208534E-010	-0.0400722	6
	21	8	8015.625	14707.21	-4289.726	1	15320.04	-16.26065	-4.929085E-010	-0.0400792	6
	22	8	6328.125	15324.22	-4076.496	1	15857.16	-14.89664	-6.030767E-010	-0.0400808	6
	23	9	5015.625	15857.92	-3880.494	1	16325.8	-13.75029	-4.164849E-010	-0.0400796	6
	24	9	3984.375	16319.47	-3720.489	1	16738.19	-12.84272	-5.966709E-010	-0.040077	6
	25	9	3170.956	16735.96	-3615.201	1	17121.97	-12.1894	-5.857263E-010	-0.0400783	6
	26	10	2527.573	17096.16	-3574.27	1	17465.8	-11.80866	-8.023219E-010	-0.0400832	6
	27	10	1976.103	17429.38	-3618.304	1	17801	-11.7279	-6.599688E-010	-0.0400771	6
	28	10	1577.524	17702.2	-3759.651	1	18097.04	-11.9905	-4.893186E-010	-0.0400799	6
	29	11	1265.625	17955.77	-4006.859	1	18397.41	-12.57954	-6.455871E-010	-0.040083	6
	30	11	998.264	18221.38	-4417.296	1	18749.16	-13.62697	-7.850682E-010	-0.0400853	6
	31	11	796.875	18473.8	-4963.068	1	19128.87	-15.03769	-7.093486E-010	-0.0400807	6
	32	12	627.7902	18771.35	-5735.958	1	19628.16	-16.99157	-8.14411E-010	-0.0400934	6
	33	12	505.5147	19073.87	-6641.26	1	20197	-19.19742	-9.210971E-010	-0.0400921	6
	34	12	397.9953	19474.07	-7910.181	1	21019.28	-22.10652	-5.483846E-010	-0.040074	6
	35	12	315.5048	19941.62	-9458.19	1	22070.92	-25.37471	-5.284647E-010	-0.0400758	6
	36	13	252.4038	20495.88	-11290.68	1	23400.01	-28.84929	-5.986636E-010	-0.0400788	6
	37	13	198.6229	21251.36	-13705.42	1	25287.52	-32.81876	-6.611666E-010	-0.0400803	6
	38	13	158.3615	22181.38	-16486.97	1	27637.54	-36.62268	-4.990023E-010	-0.0400778	6
	39	14	125.558	23413.52	-19925.83	1	30744.62	-40.3991	-4.766453E-010	-0.0400745	6
	40	14	100.4464	24973.46	-23874.22	1	34549.27	-43.71087	-8.378796E-010	-0.0400736	6
	41	14	79.00281	27154.8	-28919.79	1	39670.36	-46.80283	-6.34657E-010	-0.0400752	6
	42	15	63.3446	29771.77	-34373.25	1	45473.93	-49.10312	-5.973637E-010	-0.0400755	6
	43	15	49.86702	33427.21	-41229.65	1	53077.89	-50.96636	-7.648959E-010	-0.0400787	6
	44	16	39.72458	37912.95	-48692.74	1	61712.03	-52.0951	-6.562927E-010	-0.0400766	6
	45	16	31.6723	43517.96	-57043.49	1	71747.98	-52.66032	-5.017258E-010	-0.0400764	6
	46	16	24.93351	50921.28	-66824.2	1	84014.58	-52.69193	-1.589186E-009	-0.0400786	6
	47	17	19.86229	59434.74	-76921.73	1	97208.2	-52.30799	-9.910638E-010	-0.0400773	6
	48	17	15.83615	69528.77	-87607.77	1	111845.3	-51.56318	-2.682939E-009	-0.0400769	5
	49	17	12.40079	82145.69	-100008.1	1	129420	-50.60064	-3.59722E-009	-0.0400672	5
	50	17	9.93114	94862.52	-111463.9	1	146366.3	-49.6002	-3.493012E-009	-0.0400692	5
	51	18	7.944915	108450.5	-124247.9	1	164921.4	-48.88374	-2.831371E-009	-0.0400669	5
	52	18	6.317385	123893.8	-138073.6	1	185510.1	-48.09829	-9.220411E-010	-0.0400873	5
	53	19	5.008013	140775.9	-153733.4	1	208451	-47.51922	-1.36733E-009	-0.0400773	5
	54	20	3.945707	158997.6	-172465.1	1	234572.9	-47.32667	-2.014495E-009	-0.0400794	5
	55	21	3.158693	177384.8	-192077	1	261455.4	-47.27724	-1.301698E-009	-0.0400891	5
	56	22	2.504006	198056.8	-216657	1	293541.7	-47.56802	-1.107263E-009	-0.0400806	5
	57	23	1.998082	220236	-244068.3	1	328745	-47.93837	-1.604031E-009	-0.0401235	5
	58	25	1.584686	245503.2	-278560.7	1	371305.7	-48.60939	-1.679347E-009	-0.0401169	5
	59	27	1.266892	272389.6	-316435.2	1	417525.2	-49.2779	-1.537951E-009	-0.0400849	5
	60	29	0.999041	305766.4	-363484.8	1	474988.7	-49.92918	-1.452469E-009	-0.040062	5
