EXPLAIN
TAG	EISPOT
TITLE	LABEL	Potentiostatic EIS	Test &Identifier
DATE	LABEL	6/26/2020	Date
TIME	LABEL	13:34:26	Time
NOTES	NOTES	1	&Notes...
	
PSTAT	PSTAT	REF600-11020	Potentiostat
VDC	POTEN	0.00000E+000	T	DC &Voltage (V)
FREQINIT	QUANT	1.00000E+006	Initial Fre&q. (Hz)
FREQFINAL	QUANT	1.00000E+000	Final Fre&q. (Hz)
PTSPERDEC	QUANT	1.00000E+001	Points/&decade
VAC	QUANT	2.50000E+001	AC &Voltage (mV rms)
AREA	QUANT	4.00000E-004	&Area (cm^2)
CONDIT	TWOPARAM	F	5.00000E+000	0.00000E+000	Conditionin&g	Time(s)	E(V)
DELAY	TWOPARAM	F	3.00000E+000	0.00000E+000	Init. De&lay	Time(s)	Stab.(mV/s)
SPEED	SELECTOR	0	&Optimize for:
ZGUESS	QUANT	1.00000E+003	E&stimated Z (ohms)
OCVCURVE	TABLE	39
	Pt	T	Vf	Vm	Ach	Over
	#	s	V vs. Ref.	V	V	bits
	0	0.258333	1.25368E-001	1.25368E-001	4.90251E-004	...........
	1	0.516667	1.25333E-001	1.23519E-001	4.93884E-004	...........
	2	0.775	1.25137E-001	1.22860E-001	4.90251E-004	...........
	3	1.03333	1.24632E-001	1.21179E-001	4.92084E-004	...........
	4	1.29167	1.23806E-001	1.21189E-001	4.90484E-004	...........
	5	1.55	1.22806E-001	1.19418E-001	4.95284E-004	...........
	6	1.80833	1.21798E-001	1.19704E-001	4.97384E-004	...........
	7	2.06667	1.20880E-001	1.18575E-001	4.94817E-004	...........
	8	2.325	1.20116E-001	1.19570E-001	4.94517E-004	...........
	9	2.58333	1.19548E-001	1.17837E-001	4.90617E-004	...........
	10	2.84167	1.19136E-001	1.18045E-001	5.00350E-004	...........
	11	3.1	1.18751E-001	1.16991E-001	4.95850E-004	...........
	12	3.35833	1.18318E-001	1.17557E-001	4.91850E-004	...........
	13	3.61667	1.17881E-001	1.16640E-001	4.91884E-004	...........
	14	3.875	1.17504E-001	1.16781E-001	4.93184E-004	...........
	15	4.13333	1.17182E-001	1.15793E-001	4.92017E-004	...........
	16	4.39167	1.16861E-001	1.15970E-001	4.94650E-004	...........
	17	4.65	1.16511E-001	1.15247E-001	4.95150E-004	...........
	18	4.90833	1.16152E-001	1.15492E-001	4.94284E-004	...........
	19	5.16667	1.15825E-001	1.15093E-001	4.96950E-004	...........
	20	5.425	1.15563E-001	1.15225E-001	4.88551E-004	...........
	21	5.68333	1.15372E-001	1.14934E-001	4.94650E-004	...........
	22	5.94167	1.15223E-001	1.14405E-001	4.91584E-004	...........
	23	6.2	1.15060E-001	1.14472E-001	4.92250E-004	...........
	24	6.45833	1.14844E-001	1.13624E-001	4.91584E-004	...........
	25	6.71667	1.14568E-001	1.13686E-001	5.00117E-004	...........
	26	6.975	1.14249E-001	1.13188E-001	4.94417E-004	...........
	27	7.23333	1.13923E-001	1.13440E-001	4.94250E-004	...........
	28	7.49167	1.13639E-001	1.12874E-001	4.97284E-004	...........
	29	7.75	1.13423E-001	1.13434E-001	4.90917E-004	...........
	30	8.00833	1.13267E-001	1.12393E-001	4.97084E-004	...........
	31	8.26667	1.13134E-001	1.12845E-001	4.91917E-004	...........
	32	8.525	1.12977E-001	1.11996E-001	4.94917E-004	...........
	33	8.78333	1.12783E-001	1.12636E-001	4.97317E-004	...........
	34	9.04167	1.12580E-001	1.11544E-001	4.97617E-004	...........
	35	9.3	1.12389E-001	1.12333E-001	4.94550E-004	...........
	36	9.5583	1.12207E-001	1.11164E-001	4.99350E-004	...........
	37	9.8167	1.12030E-001	1.11969E-001	4.99717E-004	...........
	38	10.075	1.11858E-001	1.11094E-001	4.99784E-004	...........
EOC	QUANT	0.1118576	Open Circuit (V)
PSTATMODEL	IQUANT	4	Pstat Model
PSTATSECTION	LABEL	REF600-11020	Pstat Section
PSTATSERIALNO	LABEL	11020	Pstat Serial Number
CTRLMODE	IQUANT	1	Control Mode
IESTAB	IQUANT	0	I/E Stability
CASPEED	IQUANT	1	Control Amp Speed
CONVENTION	IQUANT	1	Current Convention
ICHRANGE	IQUANT	2	Ich Range
ICHRANGEMODE	TOGGLE	F	Ich Auto Range
ICHOFFSETENABLE	TOGGLE	T	Ich Offset Enable
ICHOFFSET	QUANT	0	Ich Offset (V)
ICHFILTER	IQUANT	3	Ich Filter
VCHRANGE	IQUANT	2	Vch Range
VCHRANGEMODE	TOGGLE	F	Vch Auto Range
VCHOFFSETENABLE	TOGGLE	T	Vch Offset Enable
VCHOFFSET	QUANT	0	Vch Offset (V)
VCHFILTER	IQUANT	3	Vch Filter
ACHRANGE	IQUANT	2	Ach Range
ACHOFFSETENABLE	TOGGLE	F	Ach Offset Enable
ACHOFFSET	QUANT	0	Ach Offset (V)
ACHFILTER	IQUANT	3	Ach Filter
IERANGELOWERLIMIT	IQUANT	1	I/E Range Lower Limit
IERANGEMODE	TOGGLE	F	I/E AutoRange
IERANGE	IQUANT	8	I/E Range
POSFEEDENABLE	TOGGLE	F	Positive Feedback IR Comp
POSFEEDRESISTANCE	QUANT	0	Positive Feedback Resistance (ohm)
ACHSELECT	IQUANT	0	Ach Select
CABLEID	IQUANT	14	Cable ID
DCCALDATE	LABEL	6/26/2020	DC Calibration Date
ACCALDATE	LABEL	6/26/2020	AC Calibration Date
THERMOSELECT	IQUANT	1	Thermo Select
FRAMEWORKVERSION	QUANT	6.33	Framework Version
INSTRUMENTVERSION	LABEL	3.50	Instrument Version
ZCURVE	TABLE
	Pt	Time	Freq	Zreal	Zimag	Zsig	Zmod	Zphz	Idc	Vdc	IERange
	#	s	Hz	ohm	ohm	V	ohm	°	A	V	#
	0	1	1000078	800.6056	-7332.878	1	7376.454	-83.76911	1.141945E-007	0.1140835	8
	1	2	794390.6	901.8512	-9134.289	1	9178.702	-84.36132	1.558326E-008	0.1137826	8
	2	2	630984.4	1042.061	-11447.75	1	11495.08	-84.79884	5.224427E-008	0.1136283	8
	3	2	501234.4	1248.644	-14312.39	1	14366.76	-85.01402	9.186877E-008	0.1135278	8
	4	3	398109.4	1461.859	-17854.68	1	17914.42	-85.31933	1.520728E-007	0.113502	8
	5	3	316265.6	1723.977	-22252.86	1	22319.54	-85.57002	3.584216E-008	0.1134719	8
	6	3	251203.1	2011.674	-27732.18	1	27805.05	-85.85107	5.613986E-008	0.1134666	8
	7	4	199546.9	2519.743	-34651.1	1	34742.59	-85.84091	4.674602E-008	0.1134604	8
	8	4	158578.1	3133.594	-43161.35	1	43274.95	-85.8475	5.82212E-008	0.1134702	8
	9	4	125953.1	4715.422	-54036.73	1	54242.09	-85.01282	1.810178E-008	0.1134827	7
	10	4	100078.1	5580.734	-67351.01	1	67581.82	-85.26327	5.288487E-009	0.1134525	7
	11	5	79453.13	6350.482	-84133.55	1	84372.88	-85.68344	-2.888608E-009	0.1134356	7
	12	5	63140.62	7780.641	-104801.8	1	105090.3	-85.75407	-1.881738E-009	0.1134441	7
	13	5	50203.12	8980.204	-130521.5	1	130830	-86.06411	8.015676E-010	0.113429	7
	14	6	39890.62	11259.01	-162831	1	163219.7	-86.04456	1.581517E-009	0.113434	7
	15	6	31640.63	13253.23	-203418.2	1	203849.5	-86.2723	7.642202E-009	0.1134311	7
	16	6	25171.88	16256.67	-253226.8	1	253748.1	-86.32676	8.27296E-009	0.1134199	7
	17	7	20015.62	19306.65	-316136.4	1	316725.4	-86.50525	7.706742E-009	0.1134259	7
	18	7	15890.62	26209.33	-395657.5	1	396524.7	-86.21012	-1.516725E-010	0.1134252	7
	19	7	12609.37	38558.69	-495122.9	1	496622.1	-85.54697	5.571578E-010	0.1134036	6
	20	8	10078.13	45245.61	-614291.6	1	615955.6	-85.78749	-4.970699E-010	0.1134265	6
	21	8	8015.625	57692.55	-765005.1	1	767177.4	-85.68723	1.293368E-009	0.1134117	6
	22	8	6328.125	71031.75	-959362	1	961988	-85.76551	1.348092E-009	0.1134091	6
	23	9	5015.625	80142.77	-1200680	1	1203352	-86.1813	-7.283829E-010	0.1134281	6
	24	9	3984.375	106142.4	-1496447	1	1500206	-85.94283	1.546103E-009	0.1134089	6
	25	9	3170.956	127473.2	-1867373	1	1871719	-86.09486	-8.423224E-010	0.1134336	6
	26	9	2527.573	178248.4	-2323787	1	2330613	-85.61366	5.794459E-010	0.1134262	6
	27	10	1976.103	231877.7	-2930980	1	2940138	-85.4766	1.319532E-009	0.1134093	6
	28	10	1577.524	260619.6	-3649969	1	3659262	-85.91582	-5.718239E-010	0.1134263	6
	29	10	1265.625	444370.3	-4518285	1	4540084	-84.38306	-1.107597E-010	0.1134175	5
	30	11	998.264	537905.3	-5671611	1	5697062	-84.58218	-1.169512E-010	0.1134113	5
	31	11	796.875	702610.8	-7042317	1	7077280	-84.30247	1.575816E-010	0.1133856	5
	32	11	627.7902	883446.6	-8862941	1	8906863	-84.30763	-8.357973E-011	0.1134158	5
	33	12	505.5147	1132573	-1.085205E+007	1	1.091099E+007	-84.0419	-2.167512E-011	0.1134034	5
	34	12	397.9953	1527834	-1.365515E+007	1	1.374035E+007	-83.6159	2.142345E-011	0.1134308	5
	35	12	315.5048	2094386	-1.703961E+007	1	1.716784E+007	-82.99276	2.112474E-011	0.1134305	5
	36	13	252.4038	2813543	-2.09948E+007	1	2.118249E+007	-82.36719	2.052788E-011	0.1134258	5
	37	13	198.6229	4049811	-2.6343E+007	1	2.665248E+007	-81.26012	2.494015E-011	0.1134253	5
	38	13	158.3615	5377153	-3.244745E+007	1	3.288998E+007	-80.59053	1.974071E-011	0.1134275	5
	39	14	125.558	8411401	-4.027994E+007	1	4.114882E+007	-78.2048	5.642653E-012	0.1134268	4
	40	14	100.4464	1.22638E+007	-4.890766E+007	1	5.042182E+007	-75.9231	3.536371E-012	0.1134259	4
	41	14	79.00281	1.715132E+007	-5.943182E+007	1	6.185716E+007	-73.90249	5.655241E-012	0.1134252	4
	42	15	63.3446	1.965705E+007	-6.781294E+007	1	7.060449E+007	-73.83462	5.504659E-012	0.1134149	4
	43	15	49.86702	3.294162E+007	-8.680895E+007	1	9.284904E+007	-69.21962	4.025227E-012	0.1134202	4
	44	16	39.72458	4.561376E+007	-1.041343E+008	1	1.136863E+008	-66.34523	7.221234E-012	0.1134244	4
	45	16	31.6723	6.308349E+007	-1.173012E+008	1	1.331882E+008	-61.72905	7.072184E-012	0.1134225	4
	46	17	24.93351	8.216587E+007	-1.35184E+008	1	1.581959E+008	-58.70845	7.343842E-012	0.1134211	4
	47	17	19.86229	1.094403E+008	-1.497195E+008	1	1.854538E+008	-53.83436	8.868915E-012	0.1134312	4
	48	17	15.83615	1.38889E+008	-1.679697E+008	1	2.179541E+008	-50.41371	3.298038E-012	0.1134217	4
	49	18	12.40079	1.73712E+008	-1.697735E+008	1	2.428969E+008	-44.34305	4.606719E-012	0.1134182	3
	50	18	9.93114	1.949721E+008	-1.688705E+008	1	2.579368E+008	-40.89671	4.248382E-012	0.1134157	3
	51	19	7.944915	2.257777E+008	-1.689417E+008	1	2.819873E+008	-36.80626	6.182877E-012	0.1134167	3
	52	19	6.317385	2.483904E+008	-1.721623E+008	1	3.022211E+008	-34.72628	6.415143E-012	0.1134165	3
	53	20	5.008013	2.719348E+008	-1.73816E+008	1	3.227391E+008	-32.58601	6.136108E-012	0.1134119	3
	54	21	3.945707	2.93906E+008	-1.786825E+008	1	3.439596E+008	-31.29784	6.531469E-012	0.1134212	3
	55	22	3.158693	3.150269E+008	-1.844836E+008	1	3.6507E+008	-30.35376	6.324996E-012	0.1134217	3
	56	24	2.504006	3.36554E+008	-1.95121E+008	1	3.890254E+008	-30.1035	6.385777E-012	0.1134021	3
	57	25	1.998082	3.573543E+008	-2.076787E+008	1	4.133189E+008	-30.16328	6.962481E-012	0.1134375	3
	58	27	1.584686	3.257852E+008	-7.988678E+007	1	3.354368E+008	-13.77782	2.734727E-011	0.1134337	3
	59	30	1.266892	4.134266E+008	-2.372691E+008	1	4.76674E+008	-29.85189	6.192349E-012	0.113386	2
	60	33	0.999041	4.459849E+008	-2.632671E+008	1	5.178919E+008	-30.55356	6.638752E-012	0.1133599	2
