EXPLAIN
TAG	EISPOT
TITLE	LABEL	Potentiostatic EIS	Test &Identifier
DATE	LABEL	1/28/2020	Date
TIME	LABEL	12:00:47	Time
NOTES	NOTES	6	&Notes...
	
	
	
	
	
	
PSTAT	PSTAT	REF600-11020	Potentiostat
VDC	POTEN	0.00000E+000	T	DC &Voltage (V)
FREQINIT	QUANT	1.00000E+006	Initial Fre&q. (Hz)
FREQFINAL	QUANT	1.00000E+000	Final Fre&q. (Hz)
PTSPERDEC	QUANT	1.00000E+001	Points/&decade
VAC	QUANT	2.50000E+001	AC &Voltage (mV rms)
AREA	QUANT	1.60000E-004	&Area (cm^2)
CONDIT	TWOPARAM	F	5.00000E+000	0.00000E+000	Conditionin&g	Time(s)	E(V)
DELAY	TWOPARAM	F	5.00000E+000	0.00000E+000	Init. De&lay	Time(s)	Stab.(mV/s)
SPEED	SELECTOR	0	&Optimize for:
ZGUESS	QUANT	1.00000E+003	E&stimated Z (ohms)
OCVCURVE	TABLE	39
	Pt	T	Vf	Vm	Ach	Over
	#	s	V vs. Ref.	V	V	bits
	0	0.258333	5.40712E-002	5.40712E-002	5.56704E-004	...........
	1	0.516667	5.40747E-002	5.42532E-002	5.55804E-004	...........
	2	0.775	5.40962E-002	5.44353E-002	5.55438E-004	...........
	3	1.03333	5.41552E-002	5.44774E-002	5.57704E-004	...........
	4	1.29167	5.42446E-002	5.41901E-002	5.51671E-004	...........
	5	1.55	5.43186E-002	5.42877E-002	5.52004E-004	...........
	6	1.80833	5.43470E-002	5.46812E-002	5.54104E-004	...........
	7	2.06667	5.43712E-002	5.48837E-002	5.47438E-004	...........
	8	2.325	5.44545E-002	5.48528E-002	5.50671E-004	...........
	9	2.58333	5.45953E-002	5.49046E-002	5.49138E-004	...........
	10	2.84167	5.47313E-002	5.46743E-002	5.49871E-004	...........
	11	3.1	5.48083E-002	5.48084E-002	5.50038E-004	...........
	12	3.35833	5.48243E-002	5.49581E-002	5.49771E-004	...........
	13	3.61667	5.48242E-002	5.49511E-002	5.52738E-004	...........
	14	3.875	5.48470E-002	5.49620E-002	5.49205E-004	...........
	15	4.13333	5.48981E-002	5.54187E-002	5.47238E-004	...........
	16	4.39167	5.49796E-002	5.52781E-002	5.51005E-004	...........
	17	4.65	5.50837E-002	5.49654E-002	5.50038E-004	...........
	18	4.90833	5.51589E-002	5.49929E-002	5.54971E-004	...........
	19	5.16667	5.51741E-002	5.58384E-002	5.49038E-004	...........
	20	5.425	5.51873E-002	5.51198E-002	5.47905E-004	...........
	21	5.68333	5.52413E-002	5.50678E-002	5.49871E-004	...........
	22	5.94167	5.52798E-002	5.52219E-002	5.44505E-004	...........
	23	6.2	5.52587E-002	5.51819E-002	5.51471E-004	...........
	24	6.45833	5.52142E-002	5.51621E-002	5.49771E-004	...........
	25	6.71667	5.51849E-002	5.51423E-002	5.53905E-004	...........
	26	6.975	5.51701E-002	5.51164E-002	5.57738E-004	...........
	27	7.23333	5.51576E-002	5.51186E-002	5.50438E-004	...........
	28	7.49167	5.51439E-002	5.51415E-002	5.54504E-004	...........
	29	7.75	5.51323E-002	5.50819E-002	5.53838E-004	...........
	30	8.00833	5.51240E-002	5.51207E-002	5.52938E-004	...........
	31	8.26667	5.51172E-002	5.51047E-002	5.51604E-004	...........
	32	8.525	5.51121E-002	5.51207E-002	5.50738E-004	...........
	33	8.78333	5.51126E-002	5.52334E-002	5.55371E-004	...........
	34	9.04167	5.51206E-002	5.49734E-002	5.55804E-004	...........
	35	9.3	5.51253E-002	5.50986E-002	5.56904E-004	...........
	36	9.5583	5.51127E-002	5.49976E-002	5.53805E-004	...........
	37	9.8167	5.50866E-002	5.50856E-002	5.54605E-004	...........
	38	10.075	5.50625E-002	5.50002E-002	5.49338E-004	...........
EOC	QUANT	0.0550625	Open Circuit (V)
PSTATMODEL	IQUANT	4	Pstat Model
PSTATSECTION	LABEL	REF600-11020	Pstat Section
PSTATSERIALNO	LABEL	11020	Pstat Serial Number
CTRLMODE	IQUANT	1	Control Mode
IESTAB	IQUANT	0	I/E Stability
CASPEED	IQUANT	1	Control Amp Speed
CONVENTION	IQUANT	1	Current Convention
ICHRANGE	IQUANT	2	Ich Range
ICHRANGEMODE	TOGGLE	F	Ich Auto Range
ICHOFFSETENABLE	TOGGLE	T	Ich Offset Enable
ICHOFFSET	QUANT	0	Ich Offset (V)
ICHFILTER	IQUANT	3	Ich Filter
VCHRANGE	IQUANT	2	Vch Range
VCHRANGEMODE	TOGGLE	F	Vch Auto Range
VCHOFFSETENABLE	TOGGLE	T	Vch Offset Enable
VCHOFFSET	QUANT	0	Vch Offset (V)
VCHFILTER	IQUANT	3	Vch Filter
ACHRANGE	IQUANT	2	Ach Range
ACHOFFSETENABLE	TOGGLE	F	Ach Offset Enable
ACHOFFSET	QUANT	0	Ach Offset (V)
ACHFILTER	IQUANT	3	Ach Filter
IERANGELOWERLIMIT	IQUANT	1	I/E Range Lower Limit
IERANGEMODE	TOGGLE	F	I/E AutoRange
IERANGE	IQUANT	8	I/E Range
POSFEEDENABLE	TOGGLE	F	Positive Feedback IR Comp
POSFEEDRESISTANCE	QUANT	0	Positive Feedback Resistance (ohm)
ACHSELECT	IQUANT	0	Ach Select
CABLEID	IQUANT	14	Cable ID
DCCALDATE	LABEL	1/27/2020	DC Calibration Date
ACCALDATE	LABEL	1/27/2020	AC Calibration Date
THERMOSELECT	IQUANT	1	Thermo Select
FRAMEWORKVERSION	QUANT	6.33	Framework Version
INSTRUMENTVERSION	LABEL	3.50	Instrument Version
ZCURVE	TABLE
	Pt	Time	Freq	Zreal	Zimag	Zsig	Zmod	Zphz	Idc	Vdc	IERange
	#	s	Hz	ohm	ohm	V	ohm	°	A	V	#
	0	1	1000078	2174.296	-2202.435	1	3094.88	-45.36836	-6.027122E-006	0.0583033	8
	1	2	794390.6	2599.382	-2316.13	1	3481.558	-41.70202	5.658689E-006	0.0561488	8
	2	2	630984.4	3059.925	-2390.787	1	3883.169	-38.0013	4.954348E-006	0.0556175	8
	3	2	501234.4	3510.14	-2374.352	1	4237.763	-34.07547	-7.235969E-008	0.0563854	8
	4	3	398109.4	3923.89	-2325.541	1	4561.255	-30.65361	-5.252771E-007	0.0566701	8
	5	3	316265.6	4344.284	-2205.688	1	4872.152	-26.91791	-1.409951E-006	0.0570648	8
	6	3	251203.1	4702.691	-2104.009	1	5151.908	-24.10399	2.7531E-006	0.056037	8
	7	4	199546.9	5044.228	-1955.11	1	5409.87	-21.18601	2.398998E-006	0.055944	8
	8	4	158578.1	5304.365	-1817.879	1	5607.225	-18.91729	2.01081E-006	0.0560422	8
	9	4	125953.1	5589.426	-1578.963	1	5808.167	-15.77452	1.452648E-006	0.0532677	7
	10	5	100078.1	5817.694	-1437.905	1	5992.757	-13.88303	-3.029242E-008	0.0566737	7
	11	5	79453.13	5986.721	-1315.094	1	6129.461	-12.3893	2.864998E-008	0.0564471	7
	12	5	63140.62	6131.872	-1209.365	1	6249.993	-11.15703	5.019815E-008	0.0563886	7
	13	6	50203.12	6255.685	-1126.346	1	6356.276	-10.20684	8.353006E-008	0.0563939	7
	14	6	39890.62	6362.604	-1064.634	1	6451.06	-9.499119	3.296436E-010	0.0564675	7
	15	6	31640.63	6461.391	-1026.953	1	6542.492	-9.030873	-6.100652E-008	0.0566171	7
	16	7	25171.88	6553.602	-1017.061	1	6632.052	-8.821424	-1.797721E-008	0.0566759	7
	17	7	20015.62	6639.739	-1034.016	1	6719.771	-8.85165	-4.976312E-008	0.0565759	7
	18	7	15890.62	6723.279	-1069.634	1	6807.833	-9.039658	8.373664E-008	0.0563822	7
	19	8	12609.37	6809.259	-1139.718	1	6903.981	-9.50195	-8.08306E-009	0.0565812	7
	20	8	10078.13	6896.588	-1240.64	1	7007.29	-10.19797	1.8297E-009	0.0564565	7
	21	8	8015.625	6989.606	-1376.015	1	7123.764	-11.13716	3.499828E-008	0.0565048	7
	22	9	6328.125	7101.945	-1556.685	1	7270.549	-12.36322	-2.911123E-008	0.0566411	7
	23	9	5015.625	7217.125	-1784.474	1	7434.463	-13.88815	6.602469E-008	0.0565201	7
	24	9	3984.375	7345.97	-2066.313	1	7631.05	-15.71051	-2.232001E-008	0.0565142	7
	25	10	3170.956	7491.421	-2399.964	1	7866.462	-17.76347	3.054143E-008	0.0564226	7
	26	10	2527.573	7655.692	-2814.394	1	8156.619	-20.1845	-4.590962E-008	0.056559	7
	27	10	1976.103	7868.243	-3362.965	1	8556.797	-23.14234	-1.854417E-008	0.0565785	7
	28	11	1577.524	8082.033	-3983.745	1	9010.521	-26.23932	3.563088E-008	0.0564961	7
	29	11	1265.625	8350.279	-4672.919	1	9568.87	-29.23191	-3.654142E-009	0.0566821	6
	30	11	998.264	8670.603	-5607.299	1	10325.75	-32.89085	7.23299E-009	0.0563032	6
	31	11	796.875	9025.178	-6678.979	1	11227.76	-36.50287	2.863431E-009	0.056599	6
	32	12	627.7902	9480.994	-8049.8	1	12437.38	-40.33279	6.319529E-009	0.0563019	6
	33	12	505.5147	9964.91	-9558.15	1	13807.89	-43.80642	-4.8714E-009	0.0565923	6
	34	12	397.9953	10603.16	-11561.18	1	15687.19	-47.475	2.956258E-010	0.0565303	6
	35	13	315.5048	11357.85	-13931.48	1	17974.62	-50.81084	1.560667E-009	0.0565262	6
	36	13	252.4038	12235.51	-16684.16	1	20689.83	-53.74514	6.796185E-010	0.0565311	6
	37	13	198.6229	13411.69	-20257.05	1	24294.47	-56.49245	1.038062E-009	0.0565284	6
	38	14	158.3615	14785.41	-24345.59	1	28483.61	-58.72913	1.433842E-009	0.0565275	6
	39	14	125.558	16546.66	-29371.63	1	33711.79	-60.60505	1.089479E-009	0.0565285	6
	40	14	100.4464	18705.55	-35218.95	1	39878.22	-62.02626	9.311009E-010	0.0565247	6
	41	15	79.00281	21458.52	-42695.62	1	47784.77	-63.31622	6.285694E-010	0.0565199	6
	42	15	63.3446	25436.43	-50117.05	1	56202.59	-63.09036	6.316426E-010	0.0565221	6
	43	15	49.86702	29988.64	-60799.09	1	67792.69	-63.74557	6.171079E-010	0.0565169	6
	44	16	39.72458	35062.31	-72650.41	1	80668.75	-64.23726	7.801406E-010	0.0565226	6
	45	16	31.6723	41714.14	-86312.02	1	95863.6	-64.20576	7.168165E-010	0.0565223	6
	46	16	24.93351	51346.24	-102871.1	1	114973.5	-63.47475	3.428582E-010	0.0565199	5
	47	17	19.86229	62364.22	-120764.3	1	135916.6	-62.68759	-4.245757E-010	0.0565168	5
	48	17	15.83615	74877.61	-142060.5	1	160585.9	-62.20706	1.385318E-010	0.0565216	5
	49	17	12.40079	93326.57	-167345.5	1	191609.9	-60.85212	4.691316E-010	0.0565238	5
	50	18	9.93114	115318.9	-189713.7	1	222012.9	-58.70637	8.297705E-010	0.0565237	5
	51	18	7.944915	139252.1	-216155.7	1	257127.3	-57.2095	5.489638E-010	0.0565255	5
	52	19	6.317385	167066.8	-244597	1	296207.7	-55.66579	3.975906E-010	0.0565156	5
	53	20	5.008013	199156.5	-276104.2	1	340436.2	-54.19674	5.225559E-010	0.0565267	5
	54	21	3.945707	235313.5	-309269.6	1	388613.1	-52.73363	1.097037E-011	0.0565147	5
	55	22	3.158693	272163.3	-343467.9	1	438227.2	-51.60676	7.60114E-011	0.0564989	5
	56	24	2.504006	312789.9	-383185.2	1	494639.7	-50.77562	3.204363E-010	0.0565102	5
	57	25	1.998082	353104.8	-426039	1	553346.3	-50.34777	7.345859E-011	0.0564855	5
	58	27	1.584686	398442.6	-479910.7	1	623755.4	-50.29908	-3.499342E-011	0.0564615	5
	59	29	1.266892	442656.7	-540816.5	1	698875.8	-50.69978	2.220375E-011	0.0564853	5
	60	31	0.999041	494698.2	-617514.9	1	791233.9	-51.30139	6.276119E-011	0.056511	5
