EXPLAIN
TAG	EISPOT
TITLE	LABEL	Potentiostatic EIS	Test &Identifier
DATE	LABEL	3/20/2020	Date
TIME	LABEL	14:49:10	Time
NOTES	NOTES	1	&Notes...
	
PSTAT	PSTAT	REF600-11020	Potentiostat
VDC	POTEN	0.00000E+000	T	DC &Voltage (V)
FREQINIT	QUANT	1.00000E+006	Initial Fre&q. (Hz)
FREQFINAL	QUANT	1.00000E+000	Final Fre&q. (Hz)
PTSPERDEC	QUANT	1.00000E+001	Points/&decade
VAC	QUANT	2.50000E+001	AC &Voltage (mV rms)
AREA	QUANT	4.00000E-004	&Area (cm^2)
CONDIT	TWOPARAM	F	5.00000E+000	0.00000E+000	Conditionin&g	Time(s)	E(V)
DELAY	TWOPARAM	T	3.00000E+000	0.00000E+000	Init. De&lay	Time(s)	Stab.(mV/s)
SPEED	SELECTOR	0	&Optimize for:
ZGUESS	QUANT	1.00000E+003	E&stimated Z (ohms)
OCVCURVE	TABLE	12
	Pt	T	Vf	Vm	Ach	Over
	#	s	V vs. Ref.	V	V	bits
	0	0.258333	-4.86720E-002	-4.86720E-002	5.87096E-004	...........
	1	0.516667	-4.86719E-002	-4.86648E-002	5.84030E-004	...........
	2	0.775	-4.86712E-002	-4.86678E-002	5.85630E-004	...........
	3	1.03333	-4.86700E-002	-4.86696E-002	5.89996E-004	...........
	4	1.29167	-4.86688E-002	-4.86678E-002	5.83730E-004	...........
	5	1.55	-4.86682E-002	-4.86667E-002	5.85097E-004	...........
	6	1.80833	-4.86681E-002	-4.86714E-002	5.86796E-004	...........
	7	2.06667	-4.86683E-002	-4.86729E-002	5.79497E-004	...........
	8	2.325	-4.86690E-002	-4.86693E-002	5.89796E-004	...........
	9	2.58333	-4.86701E-002	-4.86766E-002	5.84630E-004	...........
	10	2.84167	-4.86714E-002	-4.86827E-002	5.90163E-004	...........
	11	3.1	-4.86736E-002	-4.86908E-002	5.86763E-004	...........
EOC	QUANT	-0.0486736	Open Circuit (V)
PSTATMODEL	IQUANT	4	Pstat Model
PSTATSECTION	LABEL	REF600-11020	Pstat Section
PSTATSERIALNO	LABEL	11020	Pstat Serial Number
CTRLMODE	IQUANT	1	Control Mode
IESTAB	IQUANT	0	I/E Stability
CASPEED	IQUANT	1	Control Amp Speed
CONVENTION	IQUANT	1	Current Convention
ICHRANGE	IQUANT	2	Ich Range
ICHRANGEMODE	TOGGLE	F	Ich Auto Range
ICHOFFSETENABLE	TOGGLE	T	Ich Offset Enable
ICHOFFSET	QUANT	0	Ich Offset (V)
ICHFILTER	IQUANT	3	Ich Filter
VCHRANGE	IQUANT	2	Vch Range
VCHRANGEMODE	TOGGLE	F	Vch Auto Range
VCHOFFSETENABLE	TOGGLE	T	Vch Offset Enable
VCHOFFSET	QUANT	0	Vch Offset (V)
VCHFILTER	IQUANT	3	Vch Filter
ACHRANGE	IQUANT	2	Ach Range
ACHOFFSETENABLE	TOGGLE	F	Ach Offset Enable
ACHOFFSET	QUANT	0	Ach Offset (V)
ACHFILTER	IQUANT	3	Ach Filter
IERANGELOWERLIMIT	IQUANT	1	I/E Range Lower Limit
IERANGEMODE	TOGGLE	F	I/E AutoRange
IERANGE	IQUANT	7	I/E Range
POSFEEDENABLE	TOGGLE	F	Positive Feedback IR Comp
POSFEEDRESISTANCE	QUANT	0	Positive Feedback Resistance (ohm)
ACHSELECT	IQUANT	0	Ach Select
CABLEID	IQUANT	14	Cable ID
DCCALDATE	LABEL	2/27/2020	DC Calibration Date
ACCALDATE	LABEL	2/27/2020	AC Calibration Date
THERMOSELECT	IQUANT	1	Thermo Select
FRAMEWORKVERSION	QUANT	6.33	Framework Version
INSTRUMENTVERSION	LABEL	3.50	Instrument Version
ZCURVE	TABLE
	Pt	Time	Freq	Zreal	Zimag	Zsig	Zmod	Zphz	Idc	Vdc	IERange
	#	s	Hz	ohm	ohm	V	ohm	°	A	V	#
	0	1	1000078	1834.396	-2178.46	1	2847.929	-49.90058	6.434535E-007	-0.0464533	8
	1	1	794390.6	2252.559	-2352.94	1	3257.353	-46.24862	-8.987741E-007	-0.0466078	8
	2	2	630984.4	2728.711	-2473.227	1	3682.759	-42.18828	4.905568E-007	-0.0469108	8
	3	2	501234.4	3229.698	-2519.657	1	4096.293	-37.95967	-3.605125E-007	-0.0469491	8
	4	2	398109.4	3733.698	-2485.693	1	4485.439	-33.65352	3.0168E-007	-0.0471134	8
	5	3	316265.6	4204.129	-2379.071	1	4830.598	-29.50504	2.488365E-007	-0.0471449	8
	6	3	251203.1	4622.119	-2221.822	1	5128.399	-25.67329	8.827669E-008	-0.0471057	8
	7	3	199546.9	4990.221	-2032.496	1	5388.26	-22.16086	-2.613149E-007	-0.0470556	8
	8	4	158578.1	5269.243	-1839.427	1	5581.077	-19.24346	-3.531555E-007	-0.0470005	8
	9	4	125953.1	5554.912	-1593.803	1	5779.035	-16.00912	-1.491345E-007	-0.046755	7
	10	4	100078.1	5727.94	-1428.097	1	5903.284	-13.99963	1.317476E-008	-0.0471781	7
	11	5	79453.13	5865.163	-1334.089	1	6014.975	-12.81446	5.130637E-008	-0.0471205	8
	12	5	63140.62	6013.46	-1184.834	1	6129.073	-11.14624	-3.086237E-009	-0.0471663	7
	13	5	50203.12	6125.553	-1101.511	1	6223.803	-10.19411	1.49448E-008	-0.0472072	7
	14	6	39890.62	6224.241	-1045.147	1	6311.379	-9.53193	-6.092577E-009	-0.0471748	7
	15	6	31640.63	6317.27	-1014.817	1	6398.262	-9.126126	-2.317712E-009	-0.0471943	7
	16	6	25171.88	6406.544	-1012.474	1	6486.055	-8.980602	-3.147645E-009	-0.0471768	7
	17	7	20015.62	6495.088	-1032.628	1	6576.663	-9.033621	-9.378258E-010	-0.0471835	7
	18	7	15890.62	6588.454	-1079.118	1	6676.243	-9.30184	1.087753E-008	-0.0472134	7
	19	7	12609.37	6687.242	-1151.59	1	6785.674	-9.7709	6.067342E-009	-0.0472087	7
	20	8	10078.13	6791.307	-1248.065	1	6905.036	-10.41328	-2.582264E-009	-0.0471939	7
	21	8	8015.625	6907.239	-1373.531	1	7042.481	-11.24677	-1.413006E-010	-0.0472058	7
	22	8	6328.125	7039.641	-1536.298	1	7205.328	-12.31094	1.300626E-008	-0.0472197	7
	23	9	5015.625	7183.856	-1730.91	1	7389.441	-13.54689	1.058639E-011	-0.047205	7
	24	9	3984.375	7343.32	-1965.621	1	7601.843	-14.98533	1.253557E-008	-0.047218	7
	25	9	3170.956	7518.165	-2242.939	1	7845.609	-16.61174	-7.945649E-009	-0.047186	7
	26	9	2527.573	7714.284	-2572.755	1	8131.989	-18.44382	-2.101724E-009	-0.0471907	7
	27	10	1976.103	7955.678	-3004.103	1	8503.967	-20.68678	-3.978847E-009	-0.0471814	7
	28	10	1577.524	8200.968	-3472.118	1	8905.699	-22.94678	-5.706273E-009	-0.0471905	7
	29	10	1265.625	8480.502	-4013.173	1	9382.136	-25.32461	-1.685072E-009	-0.0471261	6
	30	11	998.264	8809.977	-4717.431	1	9993.49	-28.16747	-1.714361E-010	-0.0471314	6
	31	11	796.875	9171.923	-5520.956	1	10705.38	-31.04546	-3.835038E-010	-0.0471526	6
	32	11	627.7902	9609.47	-6540.85	1	11624.31	-34.24183	-1.53983E-009	-0.0471302	6
	33	12	505.5147	10063.94	-7653.845	1	12643.74	-37.25378	-1.736791E-011	-0.0471673	6
	34	12	397.9953	10648.45	-9128.994	1	14025.98	-40.60672	6.076474E-010	-0.0471328	6
	35	12	315.5048	11318.98	-10860.65	1	15686.71	-43.81618	5.230557E-010	-0.0471334	6
	36	13	252.4038	12079.49	-12858.93	1	17642.74	-46.79017	5.122027E-010	-0.0471349	6
	37	13	198.6229	13054.58	-15442.34	1	20220.98	-49.78963	5.917161E-010	-0.0471365	6
	38	13	158.3615	14164.31	-18380.74	1	23205.16	-52.38194	5.63843E-010	-0.0471407	6
	39	14	125.558	15540.73	-21990.29	1	26927.44	-54.75082	6.768002E-010	-0.0471421	6
	40	14	100.4464	17139.47	-26133.07	1	31252.18	-56.74099	2.48642E-010	-0.0471466	6
	41	14	79.00281	19241.98	-31471.64	1	36887.91	-58.5581	5.808637E-010	-0.0471478	6
	42	15	63.3446	21610.76	-37378.23	1	43175.88	-59.96503	6.881143E-010	-0.0471509	6
	43	15	49.86702	24764.95	-44979.6	1	51346.54	-61.16362	4.704206E-010	-0.0471436	6
	44	15	39.72458	28524.78	-53602.9	1	60720.13	-61.98033	7.899846E-010	-0.0471382	6
	45	16	31.6723	33237.77	-63759.46	1	71902.84	-62.467	6.485551E-010	-0.0471448	6
	46	16	24.93351	39546.69	-76399.73	1	86028.24	-62.63262	-3.162738E-010	-0.0471505	6
	47	16	19.86229	47165.94	-90522.8	1	102073.5	-62.47872	-1.41104E-009	-0.0471558	6
	48	17	15.83615	56878.68	-106589.9	1	120816.3	-61.91465	1.306663E-009	-0.0471548	5
	49	17	12.40079	69904.44	-126108.6	1	144187.4	-60.99955	5.7038E-010	-0.0471458	5
	50	17	9.93114	84741.23	-145958.3	1	168774.7	-59.86118	9.579737E-010	-0.0471447	5
	51	18	7.944915	102457.3	-167700.2	1	196521.9	-58.57696	1.496165E-009	-0.0471527	5
	52	18	6.317385	124464.7	-191773.4	1	228623	-57.01564	-2.967832E-010	-0.0471343	5
	53	19	5.008013	149885.6	-218032.6	1	264582.5	-55.49358	-6.08756E-011	-0.0471462	5
	54	-64783	3.945707	178921.3	-245982	1	304171	-53.96877	5.32311E-010	-0.0471495	5
	55	-64782	3.158693	209480.8	-273816.2	1	344757.2	-52.58251	4.23421E-011	-0.0471434	5
	56	-64781	2.504006	243067.4	-305969.7	1	390767.5	-51.53579	-1.075286E-010	-0.04715	5
	57	-64780	1.998082	277674.5	-339875.6	1	438883.3	-50.75156	2.49547E-010	-0.0471113	5
	58	-64778	1.584686	315361.3	-381893.6	1	495273.2	-50.45068	2.861852E-010	-0.0471046	5
	59	-64776	1.266892	353617.6	-428077.9	1	555244.2	-50.44129	1.706304E-010	-0.0471447	5
	60	-64774	0.999041	398883.7	-485963.7	1	628704.2	-50.62051	1.425814E-011	-0.0471714	5
