EXPLAIN
TAG	EISPOT
TITLE	LABEL	Potentiostatic EIS	Test &Identifier
DATE	LABEL	6/6/2020	Date
TIME	LABEL	18:49:47	Time
NOTES	NOTES	1	&Notes...
	
PSTAT	PSTAT	REF600-11020	Potentiostat
VDC	POTEN	0.00000E+000	T	DC &Voltage (V)
FREQINIT	QUANT	1.00000E+006	Initial Fre&q. (Hz)
FREQFINAL	QUANT	1.00000E+000	Final Fre&q. (Hz)
PTSPERDEC	QUANT	1.00000E+001	Points/&decade
VAC	QUANT	2.50000E+001	AC &Voltage (mV rms)
AREA	QUANT	4.00000E-004	&Area (cm^2)
CONDIT	TWOPARAM	F	5.00000E+000	0.00000E+000	Conditionin&g	Time(s)	E(V)
DELAY	TWOPARAM	T	3.00000E+000	0.00000E+000	Init. De&lay	Time(s)	Stab.(mV/s)
SPEED	SELECTOR	0	&Optimize for:
ZGUESS	QUANT	1.00000E+003	E&stimated Z (ohms)
OCVCURVE	TABLE	12
	Pt	T	Vf	Vm	Ach	Over
	#	s	V vs. Ref.	V	V	bits
	0	0.258333	3.46122E-002	3.46122E-002	5.60064E-004	...........
	1	0.516667	3.46123E-002	3.46162E-002	5.63797E-004	...........
	2	0.775	3.46127E-002	3.46180E-002	5.64397E-004	...........
	3	1.03333	3.46138E-002	3.46190E-002	5.64497E-004	...........
	4	1.29167	3.46154E-002	3.46207E-002	5.63130E-004	...........
	5	1.55	3.46172E-002	3.46220E-002	5.60464E-004	...........
	6	1.80833	3.46190E-002	3.46252E-002	5.65330E-004	...........
	7	2.06667	3.46207E-002	3.46282E-002	5.68130E-004	...........
	8	2.325	3.46227E-002	3.46303E-002	5.64197E-004	...........
	9	2.58333	3.46251E-002	3.46324E-002	5.63363E-004	...........
	10	2.84167	3.46276E-002	3.46383E-002	5.62197E-004	...........
	11	3.1	3.46304E-002	3.46386E-002	5.64663E-004	...........
EOC	QUANT	0.0346304	Open Circuit (V)
PSTATMODEL	IQUANT	4	Pstat Model
PSTATSECTION	LABEL	REF600-11020	Pstat Section
PSTATSERIALNO	LABEL	11020	Pstat Serial Number
CTRLMODE	IQUANT	1	Control Mode
IESTAB	IQUANT	0	I/E Stability
CASPEED	IQUANT	1	Control Amp Speed
CONVENTION	IQUANT	1	Current Convention
ICHRANGE	IQUANT	2	Ich Range
ICHRANGEMODE	TOGGLE	F	Ich Auto Range
ICHOFFSETENABLE	TOGGLE	T	Ich Offset Enable
ICHOFFSET	QUANT	0	Ich Offset (V)
ICHFILTER	IQUANT	3	Ich Filter
VCHRANGE	IQUANT	2	Vch Range
VCHRANGEMODE	TOGGLE	F	Vch Auto Range
VCHOFFSETENABLE	TOGGLE	T	Vch Offset Enable
VCHOFFSET	QUANT	0	Vch Offset (V)
VCHFILTER	IQUANT	3	Vch Filter
ACHRANGE	IQUANT	2	Ach Range
ACHOFFSETENABLE	TOGGLE	F	Ach Offset Enable
ACHOFFSET	QUANT	0	Ach Offset (V)
ACHFILTER	IQUANT	3	Ach Filter
IERANGELOWERLIMIT	IQUANT	1	I/E Range Lower Limit
IERANGEMODE	TOGGLE	F	I/E AutoRange
IERANGE	IQUANT	7	I/E Range
POSFEEDENABLE	TOGGLE	F	Positive Feedback IR Comp
POSFEEDRESISTANCE	QUANT	0	Positive Feedback Resistance (ohm)
ACHSELECT	IQUANT	0	Ach Select
CABLEID	IQUANT	14	Cable ID
DCCALDATE	LABEL	2/27/2020	DC Calibration Date
ACCALDATE	LABEL	2/27/2020	AC Calibration Date
THERMOSELECT	IQUANT	1	Thermo Select
FRAMEWORKVERSION	QUANT	6.33	Framework Version
INSTRUMENTVERSION	LABEL	3.50	Instrument Version
ZCURVE	TABLE
	Pt	Time	Freq	Zreal	Zimag	Zsig	Zmod	Zphz	Idc	Vdc	IERange
	#	s	Hz	ohm	ohm	V	ohm	°	A	V	#
	0	1	1000078	1710.757	-2187.569	1	2777.075	-51.97333	7.413855E-008	0.037156	8
	1	1	794390.6	2054.791	-2432.93	1	3184.543	-49.81641	3.489511E-008	0.0367965	8
	2	2	630984.4	2444.839	-2675.289	1	3624.143	-47.57706	9.846005E-008	0.0366595	8
	3	2	501234.4	2875.312	-2913.331	1	4093.277	-45.37631	5.009096E-008	0.0365461	8
	4	2	398109.4	3349.35	-3137.379	1	4589.258	-43.12838	5.049231E-008	0.0364857	8
	5	3	316265.6	3875.83	-3346.188	1	5120.453	-40.8056	9.053592E-008	0.0364372	8
	6	3	251203.1	4442.666	-3537.414	1	5678.959	-38.52809	8.380408E-008	0.0364555	8
	7	3	199546.9	5070.192	-3696.193	1	6274.447	-36.09221	4.930042E-008	0.0364444	8
	8	4	158578.1	5718.067	-3803.524	1	6867.539	-33.63092	4.121225E-008	0.0364674	8
	9	4	125953.1	6475.042	-3796.357	1	7505.898	-30.38336	4.530464E-009	0.0364044	7
	10	4	100078.1	7139.914	-3761.719	1	8070.248	-27.78285	3.044599E-009	0.0363794	7
	11	5	79453.13	7805.184	-3672.037	1	8625.818	-25.19517	2.936763E-009	0.0363717	7
	12	5	63140.62	8419.114	-3514.521	1	9123.23	-22.65787	2.880506E-009	0.0363719	7
	13	5	50203.12	8975.32	-3322.668	1	9570.61	-20.31458	2.979596E-009	0.0363632	7
	14	6	39890.62	9455.362	-3116.893	1	9955.85	-18.24444	4.426664E-009	0.03637	7
	15	6	31640.63	9874.61	-2915.102	1	10295.91	-16.44723	3.028971E-009	0.0363597	7
	16	6	25171.88	10235.16	-2742.647	1	10596.26	-15.00075	2.555005E-009	0.0363594	7
	17	6	20015.62	10546.97	-2602.849	1	10863.4	-13.86282	2.044622E-009	0.0363548	7
	18	7	15890.62	10829.75	-2505.139	1	11115.72	-13.02458	2.67502E-009	0.0363562	7
	19	7	12609.37	11143.42	-2357.227	1	11390.01	-11.94401	6.998986E-011	0.0364121	6
	20	7	10078.13	11377.39	-2370.327	1	11621.68	-11.76848	6.122956E-011	0.0364078	6
	21	8	8015.625	11610.03	-2428.598	1	11861.32	-11.81483	6.853795E-012	0.0364085	6
	22	8	6328.125	11856.6	-2543.431	1	12126.34	-12.10737	1.978134E-010	0.0364106	6
	23	8	5015.625	12110.36	-2708.706	1	12409.59	-12.60775	-6.274488E-012	0.0364059	6
	24	9	3984.375	12374.41	-2931.585	1	12716.92	-13.32806	1.382702E-010	0.0364054	6
	25	9	3170.956	12662.37	-3213.282	1	13063.72	-14.23916	-1.112859E-010	0.0363998	6
	26	9	2527.573	12979.08	-3560.788	1	13458.67	-15.34153	-1.674397E-011	0.0363982	6
	27	10	1976.103	13360.11	-4015.132	1	13950.4	-16.72717	2.032822E-010	0.0364031	6
	28	10	1577.524	13749.39	-4511.831	1	14470.74	-18.16713	-1.172291E-010	0.0364029	6
	29	10	1265.625	14176.26	-5084.248	1	15060.41	-19.73012	2.788492E-012	0.0363999	6
	30	11	998.264	14685.02	-5801.261	1	15789.37	-21.55631	-8.399031E-012	0.0363998	6
	31	11	796.875	15217.79	-6604.371	1	16589.11	-23.46037	6.935766E-011	0.0364027	6
	32	11	627.7902	15841.04	-7612.701	1	17575.32	-25.66746	-1.077232E-010	0.0364016	6
	33	12	505.5147	16455.21	-8694.209	1	18610.84	-27.85	-1.238074E-010	0.0364	6
	34	12	397.9953	17210.17	-10124.89	1	19967.56	-30.46865	3.897517E-010	0.0364133	6
	35	12	315.5048	18026.23	-11801.53	1	21545.79	-33.21223	3.933672E-010	0.0364118	6
	36	13	252.4038	18906.79	-13741.29	1	23372.84	-36.00932	3.827101E-010	0.0364072	6
	37	13	198.6229	19984.28	-16262.69	1	25765.22	-39.13781	4.696439E-010	0.0364118	6
	38	13	158.3615	21167.91	-19150.35	1	28544.99	-42.13527	2.620413E-010	0.0364066	6
	39	14	125.558	22592.12	-22722.48	1	32042.39	-45.16484	1.841971E-010	0.0364121	6
	40	14	100.4464	24214.31	-26851.11	1	36156.81	-47.95588	3.368206E-010	0.0364066	6
	41	14	79.00281	26317.16	-32193.96	1	41581.78	-50.7355	2.982727E-010	0.0364048	6
	42	15	63.3446	28647	-38083.7	1	47655.21	-53.0491	3.39628E-010	0.0363993	6
	43	15	49.86702	31697.55	-45711.82	1	55626.48	-55.26173	5.981247E-011	0.0364003	6
	44	15	39.72458	35202.25	-54390.55	1	64788.35	-57.08854	4.9112E-010	0.0363988	6
	45	16	31.6723	39436.25	-64691.38	1	75764.06	-58.63327	5.930323E-010	0.0364014	6
	46	16	24.93351	44933.96	-77725.63	1	89779.36	-59.96737	7.177486E-011	0.0363985	6
	47	16	19.86229	51470.59	-92495.38	1	105851.9	-60.90553	1.824043E-010	0.0364079	5
	48	16	15.83615	59645.75	-110030.3	1	125157	-61.53855	-1.008736E-009	0.0364066	5
	49	17	12.40079	70913.3	-132227.5	1	150042.7	-61.79544	-7.222196E-010	0.0364146	5
	50	17	9.93114	84031.64	-155542.2	1	176789.9	-61.61987	-9.268626E-010	0.0364128	5
	51	17	7.944915	99959.8	-182234.1	1	207849	-61.25417	-8.679544E-010	0.0364104	5
	52	18	6.317385	120602.8	-213028.4	1	244798.2	-60.48429	3.331062E-010	0.0363932	5
	53	19	5.008013	146079.4	-247893.9	1	287733.5	-59.48993	1.540458E-010	0.0364015	5
	54	20	3.945707	176583.2	-287403	1	337316	-58.43302	-2.728468E-010	0.0363962	5
	55	20	3.158693	210194.7	-327430.6	1	389092	-57.30149	1.603041E-010	0.03639	5
	56	21	2.504006	249320.6	-373895.4	1	449398	-56.30388	2.736796E-010	0.0363984	5
	57	23	1.998082	292048.5	-422527.8	1	513636.1	-55.34802	-1.861397E-011	0.0363619	5
	58	24	1.584686	339445.1	-480683.9	1	588455.6	-54.77137	-1.187995E-011	0.0363643	5
	59	26	1.266892	389193.6	-542508	1	667672.5	-54.34446	8.088245E-011	0.0364	5
	60	29	0.999041	448370	-618650.1	1	764044.2	-54.06707	1.291979E-010	0.036428	5
