EXPLAIN
TAG	EISPOT
TITLE	LABEL	Potentiostatic EIS	Test &Identifier
DATE	LABEL	6/14/2020	Date
TIME	LABEL	20:53:32	Time
NOTES	NOTES	1	&Notes...
	
PSTAT	PSTAT	REF600-10037	Potentiostat
VDC	POTEN	0.00000E+000	T	DC &Voltage (V)
FREQINIT	QUANT	1.00000E+006	Initial Fre&q. (Hz)
FREQFINAL	QUANT	1.00000E+000	Final Fre&q. (Hz)
PTSPERDEC	QUANT	1.00000E+001	Points/&decade
VAC	QUANT	2.50000E+001	AC &Voltage (mV rms)
AREA	QUANT	2.50000E-001	&Area (cm^2)
CONDIT	TWOPARAM	F	5.00000E+000	0.00000E+000	Conditionin&g	Time(s)	E(V)
DELAY	TWOPARAM	F	3.00000E+000	0.00000E+000	Init. De&lay	Time(s)	Stab.(mV/s)
SPEED	SELECTOR	0	&Optimize for:
ZGUESS	QUANT	1.00000E+003	E&stimated Z (ohms)
OCVCURVE	TABLE	39
	Pt	T	Vf	Vm	Ach	Over
	#	s	V vs. Ref.	V	V	bits
	0	0.258333	-5.25745E-002	-5.25745E-002	5.60287E-004	...........
	1	0.516667	-5.25754E-002	-5.26211E-002	5.58987E-004	...........
	2	0.775	-5.25807E-002	-5.26567E-002	5.57454E-004	...........
	3	1.03333	-5.25951E-002	-5.26888E-002	5.61587E-004	...........
	4	1.29167	-5.26197E-002	-5.27216E-002	5.57787E-004	...........
	5	1.55	-5.26509E-002	-5.27511E-002	5.60320E-004	...........
	6	1.80833	-5.26843E-002	-5.27850E-002	5.62287E-004	...........
	7	2.06667	-5.27173E-002	-5.28095E-002	5.56020E-004	...........
	8	2.325	-5.27491E-002	-5.28405E-002	5.54120E-004	...........
	9	2.58333	-5.27794E-002	-5.28652E-002	5.53387E-004	...........
	10	2.84167	-5.28084E-002	-5.28874E-002	5.51987E-004	...........
	11	3.1	-5.28357E-002	-5.29071E-002	5.52754E-004	...........
	12	3.35833	-5.28611E-002	-5.29360E-002	5.53720E-004	...........
	13	3.61667	-5.28851E-002	-5.29571E-002	5.52820E-004	...........
	14	3.875	-5.29086E-002	-5.29812E-002	5.55120E-004	...........
	15	4.13333	-5.29321E-002	-5.30007E-002	5.52387E-004	...........
	16	4.39167	-5.29553E-002	-5.30266E-002	5.55520E-004	...........
	17	4.65	-5.29781E-002	-5.30421E-002	5.58854E-004	...........
	18	4.90833	-5.30002E-002	-5.30631E-002	5.61754E-004	...........
	19	5.16667	-5.30215E-002	-5.30860E-002	5.60354E-004	...........
	20	5.425	-5.30422E-002	-5.31081E-002	5.62120E-004	...........
	21	5.68333	-5.30630E-002	-5.31273E-002	5.63554E-004	...........
	22	5.94167	-5.30840E-002	-5.31440E-002	5.61754E-004	...........
	23	6.2	-5.31046E-002	-5.31635E-002	5.61354E-004	...........
	24	6.45833	-5.31244E-002	-5.31841E-002	5.60254E-004	...........
	25	6.71667	-5.31436E-002	-5.32013E-002	5.63187E-004	...........
	26	6.975	-5.31626E-002	-5.32195E-002	5.59720E-004	...........
	27	7.23333	-5.31812E-002	-5.32315E-002	5.57420E-004	...........
	28	7.49167	-5.31992E-002	-5.32549E-002	5.51954E-004	...........
	29	7.75	-5.32167E-002	-5.32750E-002	5.56520E-004	...........
	30	8.00833	-5.32344E-002	-5.32861E-002	5.54954E-004	...........
	31	8.26667	-5.32523E-002	-5.33038E-002	5.59020E-004	...........
	32	8.525	-5.32698E-002	-5.33226E-002	5.53587E-004	...........
	33	8.78333	-5.32867E-002	-5.33404E-002	5.59020E-004	...........
	34	9.04167	-5.33037E-002	-5.33571E-002	5.65487E-004	...........
	35	9.3	-5.33210E-002	-5.33716E-002	5.60220E-004	...........
	36	9.5583	-5.33380E-002	-5.33834E-002	5.59220E-004	...........
	37	9.8167	-5.33543E-002	-5.34025E-002	5.54687E-004	...........
	38	10.075	-5.33698E-002	-5.34249E-002	5.62420E-004	...........
EOC	QUANT	-0.0533698	Open Circuit (V)
PSTATMODEL	IQUANT	4	Pstat Model
PSTATSECTION	LABEL	REF600-10037	Pstat Section
PSTATSERIALNO	LABEL	10037	Pstat Serial Number
CTRLMODE	IQUANT	1	Control Mode
IESTAB	IQUANT	0	I/E Stability
CASPEED	IQUANT	1	Control Amp Speed
CONVENTION	IQUANT	1	Current Convention
ICHRANGE	IQUANT	2	Ich Range
ICHRANGEMODE	TOGGLE	F	Ich Auto Range
ICHOFFSETENABLE	TOGGLE	T	Ich Offset Enable
ICHOFFSET	QUANT	0	Ich Offset (V)
ICHFILTER	IQUANT	3	Ich Filter
VCHRANGE	IQUANT	2	Vch Range
VCHRANGEMODE	TOGGLE	F	Vch Auto Range
VCHOFFSETENABLE	TOGGLE	T	Vch Offset Enable
VCHOFFSET	QUANT	0	Vch Offset (V)
VCHFILTER	IQUANT	3	Vch Filter
ACHRANGE	IQUANT	2	Ach Range
ACHOFFSETENABLE	TOGGLE	F	Ach Offset Enable
ACHOFFSET	QUANT	0	Ach Offset (V)
ACHFILTER	IQUANT	3	Ach Filter
IERANGELOWERLIMIT	IQUANT	1	I/E Range Lower Limit
IERANGEMODE	TOGGLE	F	I/E AutoRange
IERANGE	IQUANT	8	I/E Range
POSFEEDENABLE	TOGGLE	F	Positive Feedback IR Comp
POSFEEDRESISTANCE	QUANT	0	Positive Feedback Resistance (ohm)
ACHSELECT	IQUANT	0	Ach Select
CABLEID	IQUANT	14	Cable ID
DCCALDATE	LABEL	6/8/2020	DC Calibration Date
ACCALDATE	LABEL	6/8/2020	AC Calibration Date
THERMOSELECT	IQUANT	1	Thermo Select
FRAMEWORKVERSION	QUANT	6.33	Framework Version
INSTRUMENTVERSION	LABEL	3.50	Instrument Version
ZCURVE	TABLE
	Pt	Time	Freq	Zreal	Zimag	Zsig	Zmod	Zphz	Idc	Vdc	IERange
	#	s	Hz	ohm	ohm	V	ohm	°	A	V	#
	0	1	1000078	1960.083	-2312.896	1	3031.734	-49.72012	-1.760984E-007	-0.0441438	8
	1	2	794390.6	2318.852	-2587.48	1	3474.497	-48.13389	-9.711641E-008	-0.0443862	8
	2	2	630984.4	2744.973	-2864.476	1	3967.379	-46.22044	-1.666349E-007	-0.0445399	8
	3	2	501234.4	3240.569	-3118.919	1	4497.66	-43.90413	2.788657E-007	-0.0446714	8
	4	2	398109.4	3805.636	-3349.292	1	5069.578	-41.35059	6.732785E-008	-0.0446529	8
	5	3	316265.6	4438.818	-3520.082	1	5665.164	-38.4152	1.82844E-007	-0.0446874	8
	6	3	251203.1	5112.028	-3624.796	1	6266.736	-35.33939	5.104598E-007	-0.0447311	8
	7	3	199546.9	5799.932	-3637.636	1	6846.284	-32.09536	4.309389E-007	-0.0447427	8
	8	4	158578.1	6486.345	-3570.323	1	7404.045	-28.83	-7.589685E-008	-0.0446825	8
	9	4	125953.1	7313.136	-3184.136	1	7976.257	-23.52829	1.241704E-007	-0.0450628	7
	10	5	100078.1	7839.158	-2994.864	1	8391.758	-20.90881	8.818496E-008	-0.0447509	7
	11	5	79453.13	8316.571	-2785.183	1	8770.553	-18.51547	6.428342E-008	-0.0448188	7
	12	5	63140.62	8718.801	-2547.338	1	9083.305	-16.28657	-4.237626E-008	-0.0445877	7
	13	6	50203.12	9053.729	-2328.483	1	9348.36	-14.42303	8.935543E-008	-0.0448131	7
	14	6	39890.62	9340.653	-2121.818	1	9578.62	-12.7981	1.343039E-008	-0.0446409	7
	15	6	31640.63	9581.25	-1947.495	1	9777.17	-11.48948	8.007822E-008	-0.0448267	7
	16	6	25171.88	9793.33	-1808.471	1	9958.91	-10.46258	-8.747447E-008	-0.0446265	7
	17	7	20015.62	9960.41	-1696.962	1	10103.93	-9.66869	3.731645E-008	-0.0446808	7
	18	7	15890.62	10130.78	-1631.961	1	10261.39	-9.151125	-4.021444E-008	-0.0445983	7
	19	7	12609.37	10424.51	-1240.203	1	10498.03	-6.784583	6.923988E-009	-0.044683	6
	20	8	10078.13	10530.72	-1305.339	1	10611.31	-7.066077	1.382517E-008	-0.0448672	6
	21	8	8015.625	10647.15	-1393.597	1	10737.97	-7.457005	1.362077E-008	-0.0448686	6
	22	8	6328.125	10770.39	-1519.428	1	10877.04	-8.029983	-1.053276E-008	-0.0445037	6
	23	9	5015.625	10899.83	-1682.163	1	11028.87	-8.773207	-1.295635E-008	-0.0446341	6
	24	9	3984.375	11038.81	-1882.503	1	11198.18	-9.67783	-1.545809E-008	-0.0445157	6
	25	9	3170.956	11178.76	-2134.396	1	11380.7	-10.80956	9.911086E-009	-0.0447407	6
	26	10	2527.573	11330.46	-2444.683	1	11591.19	-12.17561	1.007328E-008	-0.044741	6
	27	10	1976.103	11506.12	-2866.333	1	11857.76	-13.98845	1.137049E-008	-0.0448158	6
	28	10	1577.524	11686.69	-3348.176	1	12156.85	-15.98674	1.229889E-008	-0.044853	6
	29	11	1265.625	11881.46	-3924.557	1	12512.84	-18.27887	1.427633E-008	-0.0448738	6
	30	11	998.264	12127.81	-4688.331	1	13002.47	-21.13535	1.320371E-008	-0.0449033	6
	31	11	796.875	12394.66	-5578.987	1	13592.38	-24.23308	-1.109535E-008	-0.0444939	6
	32	12	627.7902	12740.27	-6739.721	1	14413.13	-27.87925	-6.046582E-010	-0.0448376	6
	33	12	505.5147	13113.27	-8027.294	1	15375.15	-31.47291	-1.570343E-008	-0.0445625	6
	34	12	397.9953	13609.29	-9729.24	1	16729.35	-35.56085	8.328238E-010	-0.0446977	6
	35	12	315.5048	14213.47	-11759.2	1	18447.26	-39.6019	7.529362E-010	-0.0446976	6
	36	13	252.4038	14925.51	-14112.33	1	20540.9	-43.3959	7.80721E-010	-0.0447006	6
	37	13	198.6229	15873.06	-17171.12	1	23383.78	-47.24956	7.822879E-010	-0.0446994	6
	38	13	158.3615	16985.1	-20663.92	1	26748.67	-50.58086	7.612999E-010	-0.0447003	6
	39	14	125.558	18400.26	-24982.37	1	31027.22	-53.62724	6.654803E-010	-0.044702	6
	40	14	100.4464	20102.46	-29966.01	1	36084.21	-56.14463	6.755735E-010	-0.044706	6
	41	14	79.00281	22409.92	-36428.68	1	42769.77	-58.40131	7.692216E-010	-0.0447048	6
	42	15	63.3446	25145.99	-43570.34	1	50306.02	-60.00923	5.280902E-010	-0.0447056	6
	43	15	49.86702	28886.02	-52725.37	1	60119.6	-61.28352	4.629173E-010	-0.0447041	6
	44	16	39.72458	33453.73	-62985.75	1	71318.7	-62.02581	5.143221E-010	-0.0446993	6
	45	16	31.6723	39204.49	-74892.34	1	84533.16	-62.36893	6.896764E-010	-0.0447017	6
	46	16	24.93351	46815.84	-89444.82	1	100955.9	-62.37223	3.435699E-010	-0.0447009	6
	47	16	19.86229	55059.41	-104794	1	118377.9	-62.2823	-4.578625E-009	-0.0533323	5
	48	17	15.83615	65590.73	-122642.7	1	139080.5	-61.86163	-3.223963E-009	-0.0533346	5
	49	17	12.40079	79077.16	-144618.1	1	164825.9	-61.33017	-2.214082E-009	-0.0533352	5
	50	18	9.93114	93779.38	-167713.9	1	192152.4	-60.7877	-1.849067E-009	-0.0533332	5
	51	18	7.944915	111063.3	-194107.5	1	223635.3	-60.22292	-1.588777E-009	-0.0533337	5
	52	18	6.317385	131141.4	-224742.3	1	260206	-59.73564	-9.871717E-010	-0.0533323	5
	53	19	5.008013	155106.4	-260505.3	1	303184.8	-59.23018	-7.125061E-010	-0.0533326	5
	54	20	3.945707	183555.5	-302508.3	1	353841.6	-58.75153	-5.054806E-010	-0.0533341	5
	55	21	3.158693	214270.5	-347369.8	1	408139.3	-58.33219	-4.197896E-010	-0.0533349	5
	56	23	2.504006	251458.9	-400983.9	1	473307.2	-57.90798	-2.903078E-010	-0.0533402	5
	57	24	1.998082	291225.6	-460584.9	1	544931.9	-57.69503	-2.342647E-010	-0.0533369	5
	58	26	1.584686	337268.9	-531097.3	1	629138.1	-57.58275	-1.389323E-010	-0.0533418	5
	59	29	1.266892	387279.2	-610751.7	1	723189.3	-57.62112	-6.819601E-011	-0.0533387	5
	60	32	0.999041	447170.2	-710124.2	1	839188.6	-57.80109	-5.368552E-011	-0.0533348	5
