EXPLAIN
TAG	EISPOT
TITLE	LABEL	Potentiostatic EIS	Test &Identifier
DATE	LABEL	9/11/2020	Date
TIME	LABEL	19:54:25	Time
NOTES	NOTES	1	&Notes...
	
PSTAT	PSTAT	REF600-11020	Potentiostat
VDC	POTEN	0.00000E+000	T	DC &Voltage (V)
FREQINIT	QUANT	1.00000E+006	Initial Fre&q. (Hz)
FREQFINAL	QUANT	1.00000E+000	Final Fre&q. (Hz)
PTSPERDEC	QUANT	1.00000E+001	Points/&decade
VAC	QUANT	2.50000E+001	AC &Voltage (mV rms)
AREA	QUANT	4.00000E-005	&Area (cm^2)
CONDIT	TWOPARAM	F	5.00000E+000	0.00000E+000	Conditionin&g	Time(s)	E(V)
DELAY	TWOPARAM	F	3.00000E+000	0.00000E+000	Init. De&lay	Time(s)	Stab.(mV/s)
SPEED	SELECTOR	0	&Optimize for:
ZGUESS	QUANT	1.00000E+003	E&stimated Z (ohms)
OCVCURVE	TABLE	39
	Pt	T	Vf	Vm	Ach	Over
	#	s	V vs. Ref.	V	V	bits
	0	0.258333	-2.30780E-001	-2.30780E-001	5.54125E-004	...........
	1	0.516667	-2.30780E-001	-2.30772E-001	5.57025E-004	...........
	2	0.775	-2.30779E-001	-2.30768E-001	5.56359E-004	...........
	3	1.03333	-2.30777E-001	-2.30764E-001	5.61992E-004	...........
	4	1.29167	-2.30773E-001	-2.30757E-001	5.60025E-004	...........
	5	1.55	-2.30769E-001	-2.30758E-001	5.61859E-004	...........
	6	1.80833	-2.30764E-001	-2.30756E-001	5.59492E-004	...........
	7	2.06667	-2.30761E-001	-2.30753E-001	5.62425E-004	...........
	8	2.325	-2.30758E-001	-2.30751E-001	5.56592E-004	...........
	9	2.58333	-2.30756E-001	-2.30747E-001	5.61659E-004	...........
	10	2.84167	-2.30753E-001	-2.30746E-001	5.57625E-004	...........
	11	3.1	-2.30751E-001	-2.30744E-001	5.58459E-004	...........
	12	3.35833	-2.30748E-001	-2.30742E-001	5.56425E-004	...........
	13	3.61667	-2.30746E-001	-2.30742E-001	5.57325E-004	...........
	14	3.875	-2.30744E-001	-2.30739E-001	5.54659E-004	...........
	15	4.13333	-2.30743E-001	-2.30740E-001	5.59325E-004	...........
	16	4.39167	-2.30741E-001	-2.30738E-001	5.64658E-004	...........
	17	4.65	-2.30740E-001	-2.30737E-001	5.60192E-004	...........
	18	4.90833	-2.30739E-001	-2.30735E-001	5.59325E-004	...........
	19	5.16667	-2.30738E-001	-2.30734E-001	5.59225E-004	...........
	20	5.425	-2.30737E-001	-2.30731E-001	5.61125E-004	...........
	21	5.68333	-2.30735E-001	-2.30732E-001	5.62225E-004	...........
	22	5.94167	-2.30734E-001	-2.30732E-001	5.59859E-004	...........
	23	6.2	-2.30733E-001	-2.30731E-001	5.66225E-004	...........
	24	6.45833	-2.30732E-001	-2.30729E-001	5.63258E-004	...........
	25	6.71667	-2.30731E-001	-2.30727E-001	5.58792E-004	...........
	26	6.975	-2.30730E-001	-2.30727E-001	5.60692E-004	...........
	27	7.23333	-2.30729E-001	-2.30727E-001	5.57825E-004	...........
	28	7.49167	-2.30728E-001	-2.30725E-001	5.62325E-004	...........
	29	7.75	-2.30727E-001	-2.30724E-001	5.61492E-004	...........
	30	8.00833	-2.30726E-001	-2.30725E-001	5.54259E-004	...........
	31	8.26667	-2.30726E-001	-2.30724E-001	5.59725E-004	...........
	32	8.525	-2.30725E-001	-2.30723E-001	5.60992E-004	...........
	33	8.78333	-2.30724E-001	-2.30719E-001	5.63092E-004	...........
	34	9.04167	-2.30723E-001	-2.30719E-001	5.61392E-004	...........
	35	9.3	-2.30722E-001	-2.30720E-001	5.60025E-004	...........
	36	9.5583	-2.30721E-001	-2.30718E-001	5.61092E-004	...........
	37	9.8167	-2.30720E-001	-2.30715E-001	5.59959E-004	...........
	38	10.075	-2.30719E-001	-2.30714E-001	5.58025E-004	...........
EOC	QUANT	-0.2307187	Open Circuit (V)
PSTATMODEL	IQUANT	4	Pstat Model
PSTATSECTION	LABEL	REF600-11020	Pstat Section
PSTATSERIALNO	LABEL	11020	Pstat Serial Number
CTRLMODE	IQUANT	1	Control Mode
IESTAB	IQUANT	0	I/E Stability
CASPEED	IQUANT	1	Control Amp Speed
CONVENTION	IQUANT	1	Current Convention
ICHRANGE	IQUANT	2	Ich Range
ICHRANGEMODE	TOGGLE	F	Ich Auto Range
ICHOFFSETENABLE	TOGGLE	T	Ich Offset Enable
ICHOFFSET	QUANT	0	Ich Offset (V)
ICHFILTER	IQUANT	3	Ich Filter
VCHRANGE	IQUANT	2	Vch Range
VCHRANGEMODE	TOGGLE	F	Vch Auto Range
VCHOFFSETENABLE	TOGGLE	T	Vch Offset Enable
VCHOFFSET	QUANT	0	Vch Offset (V)
VCHFILTER	IQUANT	3	Vch Filter
ACHRANGE	IQUANT	2	Ach Range
ACHOFFSETENABLE	TOGGLE	F	Ach Offset Enable
ACHOFFSET	QUANT	0	Ach Offset (V)
ACHFILTER	IQUANT	3	Ach Filter
IERANGELOWERLIMIT	IQUANT	1	I/E Range Lower Limit
IERANGEMODE	TOGGLE	F	I/E AutoRange
IERANGE	IQUANT	8	I/E Range
POSFEEDENABLE	TOGGLE	F	Positive Feedback IR Comp
POSFEEDRESISTANCE	QUANT	0	Positive Feedback Resistance (ohm)
ACHSELECT	IQUANT	0	Ach Select
CABLEID	IQUANT	14	Cable ID
DCCALDATE	LABEL	9/1/2020	DC Calibration Date
ACCALDATE	LABEL	9/1/2020	AC Calibration Date
THERMOSELECT	IQUANT	1	Thermo Select
FRAMEWORKVERSION	QUANT	6.33	Framework Version
INSTRUMENTVERSION	LABEL	3.50	Instrument Version
ZCURVE	TABLE
	Pt	Time	Freq	Zreal	Zimag	Zsig	Zmod	Zphz	Idc	Vdc	IERange
	#	s	Hz	ohm	ohm	V	ohm	°	A	V	#
	0	1	1000078	1878.148	-2319.673	1	2984.681	-51.00426	7.807188E-008	-0.2285926	8
	1	1	794390.6	2338.033	-2520.728	1	3438.091	-47.15337	2.037711E-008	-0.2289031	8
	2	1	630984.4	2853.809	-2659.342	1	3900.811	-42.97984	1.730038E-007	-0.229041	8
	3	2	501234.4	3401.526	-2716.682	1	4353.245	-38.61316	7.705987E-008	-0.2291614	8
	4	2	398109.4	3946.309	-2683.874	1	4772.477	-34.21951	1.752261E-008	-0.2292371	8
	5	2	316265.6	4453.733	-2562.636	1	5138.37	-29.91572	7.707179E-008	-0.2292548	8
	6	3	251203.1	4905.143	-2392.356	1	5457.453	-25.99961	7.042534E-008	-0.2292592	8
	7	3	199546.9	5291.608	-2193.448	1	5728.205	-22.51472	7.742015E-008	-0.2292524	8
	8	3	158578.1	5609.666	-1984.326	1	5950.285	-19.48038	9.321609E-008	-0.2292473	8
	9	4	125953.1	5901.769	-1744.415	1	6154.174	-16.46636	1.768607E-011	-0.2292546	7
	10	4	100078.1	6106.941	-1560.396	1	6303.139	-14.33309	4.395937E-009	-0.2292726	7
	11	4	79453.13	6274.283	-1414.517	1	6431.756	-12.70475	5.897405E-009	-0.2292815	7
	12	4	63140.62	6414.201	-1298.108	1	6544.239	-11.44101	3.525997E-009	-0.2292796	7
	13	5	50203.12	6536.64	-1212.047	1	6648.061	-10.50468	5.266542E-009	-0.2292894	7
	14	5	39890.62	6646.221	-1154.779	1	6745.796	-9.85672	3.458635E-009	-0.2292807	7
	15	5	31640.63	6749.897	-1126.395	1	6843.236	-9.473985	4.034322E-009	-0.2292828	7
	16	6	25171.88	6848.851	-1124.446	1	6940.543	-9.323659	2.50397E-009	-0.2292907	7
	17	6	20015.62	6948.56	-1152.734	1	7043.528	-9.419318	6.341529E-009	-0.2292853	7
	18	6	15890.62	7050.97	-1207.929	1	7153.689	-9.72119	4.440963E-009	-0.2292871	7
	19	7	12609.37	7160.588	-1293	1	7276.392	-10.2357	5.941933E-009	-0.2292948	7
	20	7	10078.13	7272.273	-1404.27	1	7406.614	-10.92925	3.863054E-009	-0.2292914	7
	21	7	8015.625	7398.024	-1553.137	1	7559.299	-11.85645	5.112605E-009	-0.2292998	7
	22	8	6328.125	7539.011	-1745.224	1	7738.378	-13.03395	4.373453E-009	-0.2292914	7
	23	8	5015.625	7695.339	-1980.183	1	7946.028	-14.43042	4.586751E-009	-0.2292947	7
	24	8	3984.375	7867.414	-2263.93	1	8186.671	-16.05372	6.397154E-009	-0.2292955	7
	25	9	3170.956	8060.068	-2602.2	1	8469.719	-17.89272	6.461848E-009	-0.2292979	7
	26	9	2527.573	8275.939	-3002.657	1	8803.813	-19.94167	3.420648E-009	-0.2293027	7
	27	9	1976.103	8556.741	-3514.979	1	9250.562	-22.33211	3.733296E-010	-0.2292995	6
	28	10	1577.524	8835.43	-4095.933	1	9738.66	-24.87152	5.944549E-010	-0.2293076	6
	29	10	1265.625	9147.644	-4769.956	1	10316.58	-27.53938	-9.266578E-011	-0.2293034	6
	30	10	998.264	9531	-5638.091	1	11073.76	-30.60655	3.357699E-010	-0.2293017	6
	31	10	796.875	9954.73	-6624.938	1	11957.7	-33.64403	2.04093E-010	-0.2292971	6
	32	11	627.7902	10465.95	-7879.042	1	13100.21	-36.9734	8.783724E-010	-0.229308	6
	33	11	505.5147	11007.88	-9240.914	1	14372.47	-40.01284	-7.391888E-011	-0.2293065	6
	34	11	397.9953	11697.69	-11049.28	1	16091.07	-43.3672	7.357747E-010	-0.2292947	6
	35	12	315.5048	12486.7	-13169.83	1	18148.33	-46.52519	7.146564E-010	-0.2292941	6
	36	12	252.4038	13379.76	-15620.87	1	20567.68	-49.41892	6.748849E-010	-0.2292983	6
	37	12	198.6229	14522.64	-18796.64	1	23753.34	-52.30965	7.178718E-010	-0.2292961	6
	38	13	158.3615	15824.45	-22421.67	1	27443.48	-54.78686	6.633677E-010	-0.2292981	6
	39	13	125.558	17440.5	-26888.56	1	32049.43	-57.03169	6.60292E-010	-0.2292945	6
	40	13	100.4464	19332.55	-32029.24	1	37411.5	-58.88521	6.423748E-010	-0.2292984	6
	41	14	79.00281	21837.37	-38656.25	1	44397.94	-60.53738	7.370278E-010	-0.2293062	6
	42	14	63.3446	24664.13	-45914.82	1	52119.95	-61.75658	6.341932E-010	-0.2293052	6
	43	14	49.86702	28421.03	-55248.44	1	62130.07	-62.7777	4.385394E-010	-0.2293053	6
	44	15	39.72458	32769.87	-65754.22	1	73467.55	-63.50975	6.172704E-010	-0.2292961	6
	45	15	31.6723	38005.07	-78096.11	1	86852.68	-64.05036	6.242992E-010	-0.2292996	6
	46	15	24.93351	44634.62	-93479.61	1	103589	-64.47647	8.652505E-010	-0.2292985	6
	47	16	19.86229	52265.87	-110780.3	1	122490.8	-64.74217	3.870098E-010	-0.2293017	5
	48	16	15.83615	61239.62	-131182.8	1	144773	-64.97558	4.699861E-010	-0.2293045	5
	49	16	12.40079	72970.81	-157365.7	1	173460.9	-65.12274	8.194523E-010	-0.2293109	5
	50	17	9.93114	85607.62	-185506.7	1	204307.1	-65.22763	6.946426E-010	-0.2293042	5
	51	17	7.944915	100997.7	-219014.3	1	241180	-65.24337	-6.86434E-011	-0.2293064	5
	52	17	6.317385	120067.2	-259624.1	1	286043.3	-65.18108	2.452785E-010	-0.2293149	5
	53	18	5.008013	143877.8	-308278.5	1	340200.6	-64.9809	3.845661E-010	-0.229302	5
	54	19	3.945707	174249.9	-366712.5	1	406006.3	-64.58445	1.274092E-010	-0.2293146	5
	55	20	3.158693	208952.6	-430919.9	1	478908.3	-64.1313	2.794545E-010	-0.2293009	5
	56	21	2.504006	253646	-507512.3	1	567366.8	-63.4449	1.389769E-010	-0.2293045	5
	57	22	1.998082	305887	-593645.6	1	667818.8	-62.73936	6.145221E-011	-0.2293406	5
	58	24	1.584686	372340.1	-692132.6	1	785929.2	-61.7215	1.280038E-010	-0.22929	5
	59	26	1.266892	451372.5	-802084.3	1	920367.5	-60.63139	1.514268E-010	-0.229275	5
	60	28	0.999041	551151.1	-934710.1	1	1085104	-59.4743	9.648495E-011	-0.2292753	4
