EXPLAIN
TAG	EISPOT
TITLE	LABEL	Potentiostatic EIS	Test &Identifier
DATE	LABEL	2/11/2020	Date
TIME	LABEL	11:02:54	Time
NOTES	NOTES	6	&Notes...
	
	
	
	
	
	
PSTAT	PSTAT	REF600-11020	Potentiostat
VDC	POTEN	0.00000E+000	T	DC &Voltage (V)
FREQINIT	QUANT	1.00000E+000	Initial Fre&q. (Hz)
FREQFINAL	QUANT	1.00000E+006	Final Fre&q. (Hz)
PTSPERDEC	QUANT	1.00000E+001	Points/&decade
VAC	QUANT	2.50000E+001	AC &Voltage (mV rms)
AREA	QUANT	4.00000E-005	&Area (cm^2)
CONDIT	TWOPARAM	F	5.00000E+000	0.00000E+000	Conditionin&g	Time(s)	E(V)
DELAY	TWOPARAM	F	5.00000E+000	0.00000E+000	Init. De&lay	Time(s)	Stab.(mV/s)
SPEED	SELECTOR	1	&Optimize for:
ZGUESS	QUANT	2.00000E+002	E&stimated Z (ohms)
OCVCURVE	TABLE	39
	Pt	T	Vf	Vm	Ach	Over
	#	s	V vs. Ref.	V	V	bits
	0	0.258333	2.36745E-002	2.36745E-002	5.61768E-004	...........
	1	0.516667	2.37655E-002	2.84338E-002	5.62968E-004	...........
	2	0.775	2.42266E-002	2.78608E-002	5.63968E-004	...........
	3	1.03333	2.52203E-002	2.79331E-002	5.64234E-004	...........
	4	1.29167	2.64700E-002	3.03633E-002	5.65934E-004	...........
	5	1.55	2.80069E-002	4.99980E-002	5.67168E-004	...........
	6	1.80833	3.08016E-002	4.15720E-002	5.72101E-004	...........
	7	2.06667	3.50722E-002	3.88704E-002	5.67934E-004	...........
	8	2.325	3.88514E-002	3.32899E-002	5.63701E-004	...........
	9	2.58333	3.99809E-002	3.10349E-002	5.67568E-004	...........
	10	2.84167	3.83465E-002	2.95673E-002	5.71634E-004	...........
	11	3.1	3.53986E-002	3.01677E-002	5.69134E-004	...........
	12	3.35833	3.26690E-002	3.02589E-002	5.64968E-004	...........
	13	3.61667	3.09488E-002	3.03978E-002	5.64901E-004	...........
	14	3.875	3.02313E-002	3.03058E-002	5.69601E-004	...........
	15	4.13333	3.01063E-002	3.02246E-002	5.62701E-004	...........
	16	4.39167	3.01736E-002	3.00556E-002	5.65968E-004	...........
	17	4.65	3.02168E-002	2.99100E-002	5.66734E-004	...........
	18	4.90833	3.01773E-002	2.97924E-002	5.64368E-004	...........
	19	5.16667	3.00747E-002	2.96938E-002	5.67334E-004	...........
	20	5.425	2.99470E-002	2.95895E-002	5.64934E-004	...........
	21	5.68333	2.98209E-002	2.94922E-002	5.67034E-004	...........
	22	5.94167	2.97057E-002	2.93978E-002	5.59368E-004	...........
	23	6.2	2.96004E-002	2.93107E-002	5.60168E-004	...........
	24	6.45833	2.95023E-002	2.92339E-002	5.61834E-004	...........
	25	6.71667	2.94101E-002	2.91652E-002	5.57701E-004	...........
	26	6.975	2.93247E-002	2.91144E-002	5.65534E-004	...........
	27	7.23333	2.92475E-002	2.90491E-002	5.64901E-004	...........
	28	7.49167	2.91783E-002	2.89863E-002	5.60401E-004	...........
	29	7.75	2.91146E-002	2.89338E-002	5.60534E-004	...........
	30	8.00833	2.90540E-002	2.88799E-002	5.53334E-004	...........
	31	8.26667	2.89955E-002	2.88319E-002	5.54434E-004	...........
	32	8.525	2.89396E-002	2.87788E-002	5.62701E-004	...........
	33	8.78333	2.88862E-002	2.87262E-002	5.70968E-004	...........
	34	9.04167	2.88341E-002	2.86747E-002	5.63501E-004	...........
	35	9.3	2.87825E-002	2.86307E-002	5.64434E-004	...........
	36	9.5583	2.87318E-002	2.85903E-002	5.71668E-004	...........
	37	9.8167	2.86829E-002	2.85448E-002	5.64234E-004	...........
	38	10.075	2.86364E-002	2.84969E-002	5.63868E-004	...........
EOC	QUANT	0.0286364	Open Circuit (V)
PSTATMODEL	IQUANT	4	Pstat Model
PSTATSECTION	LABEL	REF600-11020	Pstat Section
PSTATSERIALNO	LABEL	11020	Pstat Serial Number
CTRLMODE	IQUANT	1	Control Mode
IESTAB	IQUANT	0	I/E Stability
CASPEED	IQUANT	1	Control Amp Speed
CONVENTION	IQUANT	1	Current Convention
ICHRANGE	IQUANT	2	Ich Range
ICHRANGEMODE	TOGGLE	F	Ich Auto Range
ICHOFFSETENABLE	TOGGLE	T	Ich Offset Enable
ICHOFFSET	QUANT	0	Ich Offset (V)
ICHFILTER	IQUANT	3	Ich Filter
VCHRANGE	IQUANT	2	Vch Range
VCHRANGEMODE	TOGGLE	F	Vch Auto Range
VCHOFFSETENABLE	TOGGLE	T	Vch Offset Enable
VCHOFFSET	QUANT	0	Vch Offset (V)
VCHFILTER	IQUANT	3	Vch Filter
ACHRANGE	IQUANT	2	Ach Range
ACHOFFSETENABLE	TOGGLE	F	Ach Offset Enable
ACHOFFSET	QUANT	0	Ach Offset (V)
ACHFILTER	IQUANT	0	Ach Filter
IERANGELOWERLIMIT	IQUANT	1	I/E Range Lower Limit
IERANGEMODE	TOGGLE	F	I/E AutoRange
IERANGE	IQUANT	8	I/E Range
POSFEEDENABLE	TOGGLE	F	Positive Feedback IR Comp
POSFEEDRESISTANCE	QUANT	0	Positive Feedback Resistance (ohm)
ACHSELECT	IQUANT	0	Ach Select
CABLEID	IQUANT	14	Cable ID
DCCALDATE	LABEL	1/27/2020	DC Calibration Date
ACCALDATE	LABEL	1/27/2020	AC Calibration Date
THERMOSELECT	IQUANT	1	Thermo Select
FRAMEWORKVERSION	QUANT	6.33	Framework Version
INSTRUMENTVERSION	LABEL	3.50	Instrument Version
ZCURVE	TABLE
	Pt	Time	Freq	Zreal	Zimag	Zsig	Zmod	Zphz	Idc	Vdc	IERange
	#	s	Hz	ohm	ohm	V	ohm	°	A	V	#
	0	4	0.999041	1219461	-855971.6	1	1489890	-35.06603	3.736738E-010	0.0302591	5
	1	9	1.266892	1123165	-801325.4	1	1379718	-35.50607	1.774669E-010	0.0301857	4
	2	14	1.584686	1028316	-752586	1	1274292	-36.199	2.569885E-010	0.0302685	4
	3	17	1.998082	931385.7	-714075.2	1	1173620	-37.47668	-7.878696E-011	0.0302144	4
	4	20	2.504006	836959.4	-669532.6	1	1071809	-38.65835	8.123114E-011	0.0302117	4
	5	23	3.158693	743741.8	-624343.9	1	971060	-40.01223	2.879048E-010	0.0302546	5
	6	27	3.945707	659128.9	-583910.1	1	880569.1	-41.53714	3.213882E-010	0.0302606	5
	7	30	5.008013	575935	-538360.7	1	788373.9	-43.06871	4.73133E-010	0.0302583	5
	8	33	6.317385	499347.3	-493375.1	1	701973.4	-44.65531	1.602897E-009	0.0302675	6
	9	35	7.944915	425153.7	-454198.7	1	622135.1	-46.89179	2.351169E-009	0.0302475	6
	10	37	9.93114	372691.9	-408887.6	1	553252.4	-47.65153	1.326695E-009	0.0302509	6
	11	39	12.40079	315392.2	-361503.1	1	479746.5	-48.89703	-3.855849E-010	0.0302538	5
	12	40	15.83615	283968.5	-330887.3	1	436032.7	-49.36371	1.595778E-009	0.030252	5
	13	41	19.86229	239750.4	-282442.9	1	370478.3	-49.67389	4.875335E-010	0.0302523	5
	14	43	24.93351	208304	-249768.7	1	325230.6	-50.17232	4.885568E-010	0.0302382	5
	15	44	31.6723	177954.6	-219300	1	282418.7	-50.94182	5.757336E-010	0.0302412	5
	16	46	39.72458	157723.9	-191920.7	1	248415.8	-50.58602	4.120407E-010	0.0302484	5
	17	47	49.86702	137619.8	-167844.5	1	217050.6	-50.65083	1.86875E-010	0.0302432	5
	18	49	63.3446	122730.3	-138011.7	1	184688.8	-48.35411	-3.806037E-011	0.030249	5
	19	50	79.00281	104917	-126135.1	1	164065.9	-50.24689	9.694187E-011	0.0302487	5
	20	52	100.4464	91517.09	-107526	1	141199.2	-49.59837	-5.286651E-010	0.0302556	5
	21	53	125.558	81257.89	-92928.91	1	123444.8	-48.83326	3.518942E-010	0.0302513	5
	22	54	158.3615	73122.74	-79039.52	1	107676.3	-47.2268	6.527735E-010	0.0302485	5
	23	56	198.6229	66622.43	-67387.91	1	94761.17	-45.32728	1.510514E-010	0.0302504	5
	24	57	252.4038	61229.71	-57110.43	1	83729.79	-43.0064	-3.701419E-010	0.0302481	5
	25	58	315.5048	56918.94	-49359.97	1	75340.38	-40.93175	1.502121E-009	0.0302411	6
	26	60	397.9953	53256.41	-42617.93	1	68209.48	-38.6682	8.14076E-010	0.0302498	6
	27	61	505.5147	50059.45	-37156.72	1	62342.36	-36.58472	4.644203E-008	0.0301892	7
	28	63	627.7902	47166.32	-32797.44	1	57448.53	-34.8131	-1.77452E-009	0.0301911	6
	29	64	796.875	44205.61	-29120.52	1	52935.25	-33.37496	-2.245759E-009	0.0301461	6
	30	65	998.264	41604.36	-26049.4	1	49086.6	-32.05158	3.682599E-009	0.0301339	6
	31	67	1265.625	38964.5	-23372.99	1	45437.09	-30.95758	-4.500734E-009	0.0303187	6
	32	68	1577.524	36729.05	-21238.99	1	42427.8	-30.03914	-2.353897E-009	0.0303858	6
	33	69	1976.103	34597.02	-19192.05	1	39563.73	-29.01851	-4.739435E-009	0.0303133	6
	34	71	2527.573	32486.58	-17366.67	1	36837.2	-28.12806	-2.373588E-009	0.0301971	6
	35	72	3170.956	30697.99	-15971.96	1	34604.48	-27.48766	-4.918907E-009	0.0303193	6
	36	74	3984.375	29015.15	-14790.66	1	32567.51	-27.01051	-2.00432E-009	0.0301976	6
	37	75	5015.625	27384.14	-13817.64	1	30672.76	-26.77484	-6.171102E-009	0.030285	6
	38	77	6328.125	25799	-13050.57	1	28912.03	-26.83282	4.274442E-009	0.0302899	6
	39	78	8015.625	24184.93	-12406.26	1	27181.35	-27.15668	5.481321E-009	0.0302605	6
	40	79	10078.13	22627.69	-11890.9	1	25561.81	-27.72203	-1.668028E-009	0.030373	6
	41	81	12609.37	21097.32	-11437.62	1	23998.25	-28.46371	-8.883005E-009	0.030361	6
	42	82	15890.62	19358.08	-11178.45	1	22353.81	-30.00458	8.494165E-008	0.0300529	7
	43	83	20015.62	17746.07	-10732.03	1	20738.84	-31.16369	-3.948968E-008	0.0302438	7
	44	85	25171.88	16196.2	-10292.88	1	19190.1	-32.43645	-6.4569E-009	0.0301662	7
	45	86	31640.63	14691.65	-9851.07	1	17688.64	-33.84272	-5.720756E-008	0.030345	7
	46	88	39890.62	13250.51	-9332.903	1	16207.38	-35.15868	8.457425E-008	0.0301954	7
	47	89	50203.12	11900.91	-8791.647	1	14796.11	-36.45467	4.822899E-008	0.0300829	7
	48	90	63140.62	10631.59	-8231.755	1	13445.91	-37.74966	-3.181879E-008	0.0302657	7
	49	92	79453.13	9470.765	-7664.724	1	12183.73	-38.98337	4.70715E-008	0.0301886	7
	50	93	100078.1	8397.721	-7109.275	1	11002.89	-40.25032	-2.990026E-008	0.0303765	7
	51	94	125953.1	7420.385	-6554.107	1	9900.43	-41.45278	5.264602E-007	0.0289752	7
	52	96	158578.1	6430.346	-6051.657	1	8830.17	-43.26225	4.260867E-006	0.029543	8
	53	98	199546.9	5608.17	-5563.48	1	7899.613	-44.7708	-1.817788E-006	0.0305096	8
	54	100	251203.1	4906.547	-5070.552	1	7055.828	-45.94175	2.222001E-006	0.0298211	8
	55	101	316265.6	4257.823	-4583.502	1	6256.001	-47.10959	-4.431679E-006	0.0312844	8
	56	103	398109.4	3672.042	-4161.366	1	5549.853	-48.57441	-4.419745E-007	0.0304482	8
	57	105	501234.4	3143.195	-3720.458	1	4870.471	-49.80751	1.149741E-006	0.0301046	8
	58	106	630984.4	2690.466	-3335.78	1	4285.561	-51.11216	3.431448E-007	0.0306273	8
	59	108	794390.6	2312.837	-2974.514	1	3767.884	-52.13311	-3.923632E-006	0.031428	8
	60	109	1000078	1951.291	-2633.383	1	3277.536	-53.4622	5.004963E-006	0.0301346	8
