EXPLAIN
TAG	EISPOT
TITLE	LABEL	Potentiostatic EIS	Test &Identifier
DATE	LABEL	1/25/2020	Date
TIME	LABEL	11:59:01	Time
NOTES	NOTES	6	&Notes...
	
	
	
	
	
	
PSTAT	PSTAT	REF600-11020	Potentiostat
VDC	POTEN	0.00000E+000	T	DC &Voltage (V)
FREQINIT	QUANT	1.00000E+006	Initial Fre&q. (Hz)
FREQFINAL	QUANT	1.00000E+000	Final Fre&q. (Hz)
PTSPERDEC	QUANT	1.00000E+001	Points/&decade
VAC	QUANT	2.50000E+001	AC &Voltage (mV rms)
AREA	QUANT	1.00000E-001	&Area (cm^2)
CONDIT	TWOPARAM	F	5.00000E+000	0.00000E+000	Conditionin&g	Time(s)	E(V)
DELAY	TWOPARAM	F	5.00000E+000	0.00000E+000	Init. De&lay	Time(s)	Stab.(mV/s)
SPEED	SELECTOR	0	&Optimize for:
ZGUESS	QUANT	5.00000E+002	E&stimated Z (ohms)
OCVCURVE	TABLE	39
	Pt	T	Vf	Vm	Ach	Over
	#	s	V vs. Ref.	V	V	bits
	0	0.258333	-1.37963E-001	-1.37963E-001	6.67946E-004	...........
	1	0.516667	-1.37961E-001	-1.37888E-001	6.68513E-004	...........
	2	0.775	-1.37953E-001	-1.37835E-001	6.70213E-004	...........
	3	1.03333	-1.37930E-001	-1.37767E-001	6.63013E-004	...........
	4	1.29167	-1.37889E-001	-1.37668E-001	6.66479E-004	...........
	5	1.55	-1.37833E-001	-1.37700E-001	6.65913E-004	...........
	6	1.80833	-1.37776E-001	-1.37758E-001	6.65746E-004	...........
	7	2.06667	-1.37736E-001	-1.37760E-001	6.62479E-004	...........
	8	2.325	-1.37724E-001	-1.37746E-001	6.58413E-004	...........
	9	2.58333	-1.37731E-001	-1.37727E-001	6.63279E-004	...........
	10	2.84167	-1.37739E-001	-1.37706E-001	6.65146E-004	...........
	11	3.1	-1.37738E-001	-1.37675E-001	6.66813E-004	...........
	12	3.35833	-1.37725E-001	-1.37638E-001	6.63746E-004	...........
	13	3.61667	-1.37705E-001	-1.37705E-001	6.66846E-004	...........
	14	3.875	-1.37691E-001	-1.37955E-001	6.56879E-004	...........
	15	4.13333	-1.37709E-001	-1.37924E-001	6.59946E-004	...........
	16	4.39167	-1.37763E-001	-1.37691E-001	6.64113E-004	...........
	17	4.65	-1.37812E-001	-1.37721E-001	6.66446E-004	...........
	18	4.90833	-1.37816E-001	-1.37633E-001	6.64179E-004	...........
	19	5.16667	-1.37774E-001	-1.37558E-001	6.66946E-004	...........
	20	5.425	-1.37709E-001	-1.37440E-001	6.64513E-004	...........
	21	5.68333	-1.37636E-001	-1.37513E-001	6.58113E-004	...........
	22	5.94167	-1.37571E-001	-1.37630E-001	6.63379E-004	...........
	23	6.2	-1.37532E-001	-1.37384E-001	6.62246E-004	...........
	24	6.45833	-1.37516E-001	-1.37410E-001	6.60046E-004	...........
	25	6.71667	-1.37498E-001	-1.37520E-001	6.60146E-004	...........
	26	6.975	-1.37477E-001	-1.37563E-001	6.59413E-004	...........
	27	7.23333	-1.37476E-001	-1.37561E-001	6.59813E-004	...........
	28	7.49167	-1.37498E-001	-1.37535E-001	6.55446E-004	...........
	29	7.75	-1.37524E-001	-1.37518E-001	6.62013E-004	...........
	30	8.00833	-1.37537E-001	-1.37428E-001	6.63113E-004	...........
	31	8.26667	-1.37526E-001	-1.37370E-001	6.63713E-004	...........
	32	8.525	-1.37492E-001	-1.37344E-001	6.62713E-004	...........
	33	8.78333	-1.37444E-001	-1.37322E-001	6.57146E-004	...........
	34	9.04167	-1.37397E-001	-1.37371E-001	6.57946E-004	...........
	35	9.3	-1.37365E-001	-1.37380E-001	6.62913E-004	...........
	36	9.5583	-1.37350E-001	-1.37179E-001	6.57346E-004	...........
	37	9.8167	-1.37335E-001	-1.37219E-001	6.64413E-004	...........
	38	10.075	-1.37307E-001	-1.37353E-001	6.60546E-004	...........
EOC	QUANT	-0.1373071	Open Circuit (V)
PSTATMODEL	IQUANT	4	Pstat Model
PSTATSECTION	LABEL	REF600-11020	Pstat Section
PSTATSERIALNO	LABEL	11020	Pstat Serial Number
CTRLMODE	IQUANT	1	Control Mode
IESTAB	IQUANT	0	I/E Stability
CASPEED	IQUANT	1	Control Amp Speed
CONVENTION	IQUANT	1	Current Convention
ICHRANGE	IQUANT	2	Ich Range
ICHRANGEMODE	TOGGLE	F	Ich Auto Range
ICHOFFSETENABLE	TOGGLE	T	Ich Offset Enable
ICHOFFSET	QUANT	0	Ich Offset (V)
ICHFILTER	IQUANT	3	Ich Filter
VCHRANGE	IQUANT	2	Vch Range
VCHRANGEMODE	TOGGLE	F	Vch Auto Range
VCHOFFSETENABLE	TOGGLE	T	Vch Offset Enable
VCHOFFSET	QUANT	0	Vch Offset (V)
VCHFILTER	IQUANT	3	Vch Filter
ACHRANGE	IQUANT	2	Ach Range
ACHOFFSETENABLE	TOGGLE	F	Ach Offset Enable
ACHOFFSET	QUANT	0	Ach Offset (V)
ACHFILTER	IQUANT	3	Ach Filter
IERANGELOWERLIMIT	IQUANT	1	I/E Range Lower Limit
IERANGEMODE	TOGGLE	F	I/E AutoRange
IERANGE	IQUANT	8	I/E Range
POSFEEDENABLE	TOGGLE	F	Positive Feedback IR Comp
POSFEEDRESISTANCE	QUANT	0	Positive Feedback Resistance (ohm)
ACHSELECT	IQUANT	0	Ach Select
CABLEID	IQUANT	14	Cable ID
DCCALDATE	LABEL	12/22/2019	DC Calibration Date
ACCALDATE	LABEL	12/22/2019	AC Calibration Date
THERMOSELECT	IQUANT	1	Thermo Select
FRAMEWORKVERSION	QUANT	6.33	Framework Version
INSTRUMENTVERSION	LABEL	3.50	Instrument Version
ZCURVE	TABLE
	Pt	Time	Freq	Zreal	Zimag	Zsig	Zmod	Zphz	Idc	Vdc	IERange
	#	s	Hz	ohm	ohm	V	ohm	°	A	V	#
	0	1	1000078	2180.775	-1434.987	1	2610.549	-33.34559	1.819304E-006	-0.1352113	8
	1	1	794390.6	2461.55	-1368.813	1	2816.536	-29.07746	-2.624056E-007	-0.1354254	8
	2	2	630984.4	2708.376	-1257.974	1	2986.269	-24.91371	3.81323E-007	-0.1355618	8
	3	2	501234.4	2911.477	-1134.126	1	3124.571	-21.28271	1.660726E-006	-0.1358538	8
	4	2	398109.4	3070.076	-1009.591	1	3231.817	-18.20339	-8.735856E-007	-0.135359	8
	5	3	316265.6	3189.596	-885.5259	1	3310.238	-15.51622	3.403434E-006	-0.1361569	8
	6	3	251203.1	3284.662	-773.2853	1	3374.459	-13.24752	-2.238933E-006	-0.1352314	8
	7	3	199546.9	3357.528	-703.0118	1	3430.338	-11.82596	1.434923E-007	-0.1356747	8
	8	4	158578.1	3428.845	-629.5853	1	3486.167	-10.40444	1.072422E-006	-0.1358088	8
	9	4	125953.1	3491.157	-545.726	1	3533.552	-8.884387	6.719513E-007	-0.1370248	7
	10	4	100078.1	3527.075	-506.3872	1	3563.241	-8.170207	-2.607459E-008	-0.1356327	7
	11	4	79453.13	3568.576	-492.569	1	3602.41	-7.858853	-1.231962E-008	-0.1356594	7
	12	5	63140.62	3610.66	-490.6096	1	3643.839	-7.737854	1.468097E-008	-0.1356725	7
	13	5	50203.12	3652.979	-500.7976	1	3687.147	-7.806186	-1.9805E-008	-0.1355954	7
	14	5	39890.62	3697.531	-522.0856	1	3734.208	-8.036944	-3.492893E-008	-0.1355927	7
	15	6	31640.63	3744.996	-556.4982	1	3786.117	-8.452177	-3.44304E-008	-0.1356133	7
	16	6	25171.88	3795.597	-603.3832	1	3843.257	-9.032685	3.467433E-008	-0.1356661	7
	17	6	20015.62	3851.529	-664.9197	1	3908.503	-9.79487	8.017113E-008	-0.1357748	7
	18	7	15890.62	3913.304	-741.4131	1	3982.919	-10.72808	-6.373466E-009	-0.1356289	7
	19	7	12609.37	3983.032	-836.407	1	4069.905	-11.85937	1.646372E-009	-0.135648	7
	20	7	10078.13	4057.317	-946.0771	1	4166.159	-13.12558	8.978412E-010	-0.1357067	7
	21	8	8015.625	4143.967	-1081.279	1	4282.712	-14.62404	-3.394599E-008	-0.135617	7
	22	8	6328.125	4243.199	-1247.09	1	4422.666	-16.37823	7.858187E-008	-0.1357861	7
	23	8	5015.625	4353.941	-1442.225	1	4586.591	-18.32723	3.496498E-008	-0.1356679	7
	24	9	3984.375	4477.346	-1674.487	1	4780.223	-20.50535	7.870374E-008	-0.1357863	7
	25	9	3170.956	4615.896	-1947.773	1	5010.021	-22.87832	-3.390846E-008	-0.1356245	7
	26	9	2527.573	4772.338	-2269.27	1	5284.392	-25.43131	-2.664341E-008	-0.1356333	7
	27	10	1976.103	4968.1	-2688.203	1	5648.756	-28.4175	2.887979E-008	-0.1357631	7
	28	10	1577.524	5172.13	-3153.593	1	6057.729	-31.37184	-1.373853E-008	-0.1356733	7
	29	10	1265.625	5401.85	-3687.414	1	6540.414	-34.31825	2.931223E-008	-0.1357626	7
	30	11	998.264	5684.662	-4388.292	1	7181.398	-37.66645	-8.055466E-009	-0.1356502	7
	31	11	796.875	5998.046	-5176.459	1	7922.896	-40.79499	1.718527E-008	-0.1356939	7
	32	11	627.7902	6385.274	-6188.21	1	8891.889	-44.10208	1.758101E-008	-0.1356942	7
	33	11	505.5147	6799.611	-7294.976	1	9972.53	-47.01287	1.071538E-009	-0.1357299	6
	34	12	397.9953	7339.559	-8766.839	1	11433.57	-50.06408	2.651797E-010	-0.13567	6
	35	12	315.5048	7973.173	-10495.63	1	13180.66	-52.77731	1.042383E-010	-0.1356692	6
	36	12	252.4038	8711.39	-12489.95	1	15227.84	-55.1053	2.876234E-010	-0.1356721	6
	37	13	198.6229	9686.31	-15063.75	1	17909.25	-57.25814	4.735822E-010	-0.1356738	6
	38	13	158.3615	10827.66	-17979.62	1	20988.21	-58.94287	5.756576E-010	-0.1356764	6
	39	13	125.558	12273.33	-21532.48	1	24784.72	-60.31722	5.71294E-010	-0.1356732	6
	40	14	100.4464	13995.04	-25553.87	1	29135.23	-61.29188	1.347616E-010	-0.1356758	6
	41	14	79.00281	16297.65	-30705.3	1	34762.46	-62.04169	4.944332E-011	-0.1356779	6
	42	14	63.3446	18657.89	-36272.43	1	40789.78	-62.77951	4.697642E-010	-0.1356793	6
	43	15	49.86702	22093.62	-43277.54	1	48590.88	-62.95523	3.681161E-010	-0.1356844	6
	44	15	39.72458	26171.96	-51109.77	1	57421.07	-62.88422	1.774767E-010	-0.1356801	6
	45	15	31.6723	30980.35	-60181.79	1	67687.73	-62.76152	-9.337461E-011	-0.1356811	6
	46	16	24.93351	36971.02	-71242	1	80263.8	-62.57296	8.243461E-011	-0.1356822	6
	47	16	19.86229	43816.62	-83564.69	1	94355.46	-62.33001	-5.837136E-010	-0.1356805	6
	48	16	15.83615	52393.33	-97600.8	1	110774.4	-61.77253	1.163895E-009	-0.1356852	5
	49	17	12.40079	63150.77	-115158.2	1	131337.1	-61.2604	1.347674E-009	-0.1356836	5
	50	17	9.93114	74344.98	-133875.8	1	153133.6	-60.95535	9.542729E-010	-0.1356857	5
	51	17	7.944915	87376.51	-156443.9	1	179190.8	-60.81591	1.687708E-009	-0.1356861	5
	52	18	6.317385	104861.2	-180594.9	1	208831	-59.85871	-1.140126E-010	-0.1356705	5
	53	19	5.008013	125659	-209888.6	1	244629.1	-59.0913	4.478039E-011	-0.1356758	5
	54	20	3.945707	151453.1	-243364.1	1	286642.9	-58.1047	2.021208E-012	-0.1356912	5
	55	21	3.158693	180014.1	-279361.8	1	332337.3	-57.20323	2.440614E-010	-0.1356836	5
	56	22	2.504006	215230.7	-319893.8	1	385559.7	-56.06657	8.567584E-011	-0.1356826	5
	57	24	1.998082	255137.3	-363356.4	1	443985.3	-54.92469	-1.159801E-010	-0.1357254	5
	58	25	1.584686	301116.8	-410910.1	1	509429.5	-53.76587	-6.142208E-012	-0.1356885	5
	59	27	1.266892	353275.4	-460896.9	1	580714.6	-52.53	7.970897E-011	-0.1356576	5
	60	30	0.999041	415951.5	-520618.6	1	666377.8	-51.37667	1.089792E-010	-0.1356457	5
