EXPLAIN
TAG	EISPOT
TITLE	LABEL	Potentiostatic EIS	Test &Identifier
DATE	LABEL	7/30/2020	Date
TIME	LABEL	23:13:23	Time
NOTES	NOTES	1	&Notes...
	
PSTAT	PSTAT	REF600-11020	Potentiostat
VDC	POTEN	0.00000E+000	T	DC &Voltage (V)
FREQINIT	QUANT	1.00000E+006	Initial Fre&q. (Hz)
FREQFINAL	QUANT	1.00000E+000	Final Fre&q. (Hz)
PTSPERDEC	QUANT	1.00000E+001	Points/&decade
VAC	QUANT	2.50000E+001	AC &Voltage (mV rms)
AREA	QUANT	4.00000E-005	&Area (cm^2)
CONDIT	TWOPARAM	F	5.00000E+000	0.00000E+000	Conditionin&g	Time(s)	E(V)
DELAY	TWOPARAM	F	3.00000E+000	0.00000E+000	Init. De&lay	Time(s)	Stab.(mV/s)
SPEED	SELECTOR	0	&Optimize for:
ZGUESS	QUANT	1.00000E+003	E&stimated Z (ohms)
OCVCURVE	TABLE	39
	Pt	T	Vf	Vm	Ach	Over
	#	s	V vs. Ref.	V	V	bits
	0	0.258333	2.39228E-002	2.39228E-002	5.91316E-004	...........
	1	0.516667	2.39228E-002	2.39241E-002	5.91816E-004	...........
	2	0.775	2.39229E-002	2.39222E-002	5.86949E-004	...........
	3	1.03333	2.39230E-002	2.39234E-002	5.88382E-004	...........
	4	1.29167	2.39231E-002	2.39222E-002	5.87682E-004	...........
	5	1.55	2.39229E-002	2.39198E-002	5.90682E-004	...........
	6	1.80833	2.39225E-002	2.39208E-002	5.91482E-004	...........
	7	2.06667	2.39219E-002	2.39248E-002	5.89882E-004	...........
	8	2.325	2.39216E-002	2.39210E-002	5.90982E-004	...........
	9	2.58333	2.39217E-002	2.39202E-002	5.94482E-004	...........
	10	2.84167	2.39218E-002	2.39214E-002	5.95715E-004	...........
	11	3.1	2.39217E-002	2.39227E-002	5.93449E-004	...........
	12	3.35833	2.39215E-002	2.39216E-002	5.93116E-004	...........
	13	3.61667	2.39216E-002	2.39229E-002	5.99949E-004	...........
	14	3.875	2.39219E-002	2.39230E-002	5.97715E-004	...........
	15	4.13333	2.39222E-002	2.39248E-002	5.93549E-004	...........
	16	4.39167	2.39228E-002	2.39241E-002	5.98749E-004	...........
	17	4.65	2.39234E-002	2.39251E-002	5.95149E-004	...........
	18	4.90833	2.39240E-002	2.39299E-002	5.92849E-004	...........
	19	5.16667	2.39251E-002	2.39341E-002	5.96815E-004	...........
	20	5.425	2.39269E-002	2.39353E-002	5.91882E-004	...........
	21	5.68333	2.39295E-002	2.39363E-002	5.90182E-004	...........
	22	5.94167	2.39323E-002	2.39380E-002	5.91749E-004	...........
	23	6.2	2.39346E-002	2.39407E-002	5.86849E-004	...........
	24	6.45833	2.39365E-002	2.39424E-002	5.85816E-004	...........
	25	6.71667	2.39384E-002	2.39440E-002	5.90616E-004	...........
	26	6.975	2.39403E-002	2.39494E-002	5.94682E-004	...........
	27	7.23333	2.39425E-002	2.39509E-002	5.95549E-004	...........
	28	7.49167	2.39451E-002	2.39537E-002	5.91382E-004	...........
	29	7.75	2.39480E-002	2.39596E-002	5.93982E-004	...........
	30	8.00833	2.39511E-002	2.39617E-002	5.86216E-004	...........
	31	8.26667	2.39546E-002	2.39674E-002	5.94816E-004	...........
	32	8.525	2.39583E-002	2.39699E-002	5.89849E-004	...........
	33	8.78333	2.39623E-002	2.39753E-002	5.93849E-004	...........
	34	9.04167	2.39662E-002	2.39766E-002	5.92349E-004	...........
	35	9.3	2.39701E-002	2.39809E-002	5.94082E-004	...........
	36	9.5583	2.39738E-002	2.39854E-002	5.82116E-004	...........
	37	9.8167	2.39774E-002	2.39927E-002	5.91349E-004	...........
	38	10.075	2.39814E-002	2.39980E-002	5.90682E-004	...........
EOC	QUANT	0.0239814	Open Circuit (V)
PSTATMODEL	IQUANT	4	Pstat Model
PSTATSECTION	LABEL	REF600-11020	Pstat Section
PSTATSERIALNO	LABEL	11020	Pstat Serial Number
CTRLMODE	IQUANT	1	Control Mode
IESTAB	IQUANT	0	I/E Stability
CASPEED	IQUANT	1	Control Amp Speed
CONVENTION	IQUANT	1	Current Convention
ICHRANGE	IQUANT	2	Ich Range
ICHRANGEMODE	TOGGLE	F	Ich Auto Range
ICHOFFSETENABLE	TOGGLE	T	Ich Offset Enable
ICHOFFSET	QUANT	0	Ich Offset (V)
ICHFILTER	IQUANT	3	Ich Filter
VCHRANGE	IQUANT	2	Vch Range
VCHRANGEMODE	TOGGLE	F	Vch Auto Range
VCHOFFSETENABLE	TOGGLE	T	Vch Offset Enable
VCHOFFSET	QUANT	0	Vch Offset (V)
VCHFILTER	IQUANT	3	Vch Filter
ACHRANGE	IQUANT	2	Ach Range
ACHOFFSETENABLE	TOGGLE	F	Ach Offset Enable
ACHOFFSET	QUANT	0	Ach Offset (V)
ACHFILTER	IQUANT	3	Ach Filter
IERANGELOWERLIMIT	IQUANT	1	I/E Range Lower Limit
IERANGEMODE	TOGGLE	F	I/E AutoRange
IERANGE	IQUANT	7	I/E Range
POSFEEDENABLE	TOGGLE	F	Positive Feedback IR Comp
POSFEEDRESISTANCE	QUANT	0	Positive Feedback Resistance (ohm)
ACHSELECT	IQUANT	0	Ach Select
CABLEID	IQUANT	14	Cable ID
DCCALDATE	LABEL	6/26/2020	DC Calibration Date
ACCALDATE	LABEL	6/26/2020	AC Calibration Date
THERMOSELECT	IQUANT	1	Thermo Select
FRAMEWORKVERSION	QUANT	6.33	Framework Version
INSTRUMENTVERSION	LABEL	3.50	Instrument Version
ZCURVE	TABLE
	Pt	Time	Freq	Zreal	Zimag	Zsig	Zmod	Zphz	Idc	Vdc	IERange
	#	s	Hz	ohm	ohm	V	ohm	°	A	V	#
	0	1	1000078	1523.111	-1784.342	1	2346.006	-49.51599	1.499813E-008	0.0263693	8
	1	1	794390.6	1789.009	-1953.743	1	2649.088	-47.52019	-1.542748E-008	0.0260659	8
	2	1	630984.4	2069.192	-2129.522	1	2969.246	-45.82321	5.758906E-008	0.0258807	8
	3	2	501234.4	2368.465	-2308.098	1	3307.105	-44.26045	4.978184E-008	0.0257874	8
	4	2	398109.4	2679.988	-2504.295	1	3667.946	-43.05901	-9.794421E-009	0.0257318	8
	5	2	316265.6	3011.03	-2733.499	1	4066.733	-42.23406	6.946042E-008	0.0256826	8
	6	3	251203.1	3372.143	-2990.906	1	4507.424	-41.57127	5.533515E-008	0.0256725	8
	7	3	199546.9	3779.448	-3270.644	1	4998.134	-40.87212	-4.632295E-009	0.0257003	8
	8	3	158578.1	4246.32	-3600.051	1	5567.01	-40.29145	7.879844E-008	0.0256727	8
	9	4	125953.1	4839.899	-3916.356	1	6225.951	-38.97914	2.806098E-009	0.0256661	7
	10	4	100078.1	5477.794	-4278.029	1	6950.378	-37.989	2.979586E-009	0.0256418	7
	11	4	79453.13	6202.117	-4603.121	1	7723.663	-36.58227	1.993506E-009	0.0256305	7
	12	5	63140.62	7009.365	-4889.298	1	8546.136	-34.89723	2.088357E-009	0.025633	7
	13	5	50203.12	7890.372	-5102.681	1	9396.56	-32.89063	2.583906E-009	0.0256284	7
	14	5	39890.62	8816.188	-5226.142	1	10248.79	-30.65901	2.407471E-009	0.0256241	7
	15	5	31640.63	9765.46	-5257.32	1	11090.7	-28.29619	2.793621E-009	0.0256268	7
	16	6	25171.88	10688.77	-5190.776	1	11882.51	-25.90254	3.179447E-009	0.0256268	7
	17	6	20015.62	11559.44	-5043.824	1	12611.93	-23.57348	2.331844E-009	0.0256284	7
	18	6	15890.62	12381.32	-4839.781	1	13293.63	-21.35022	2.940203E-009	0.0256251	7
	19	7	12609.37	13192.33	-4519.822	1	13945.12	-18.91196	7.283996E-010	0.025615	6
	20	7	10078.13	13831.7	-4273.974	1	14476.98	-17.17107	6.77454E-010	0.0256105	6
	21	7	8015.625	14393.45	-4026.685	1	14946.09	-15.62939	4.853879E-010	0.0256063	6
	22	8	6328.125	14898.66	-3801.839	1	15376.09	-14.31523	5.952551E-010	0.0256118	6
	23	8	5015.625	15331.19	-3627.497	1	15754.5	-13.31188	3.896069E-010	0.0256061	6
	24	8	3984.375	15687.69	-3516.503	1	16076.99	-12.63439	5.471243E-010	0.0256066	6
	25	9	3170.956	16001.88	-3485.927	1	16377.18	-12.28958	3.61643E-010	0.0256095	6
	26	9	2527.573	16276.46	-3546.161	1	16658.28	-12.29099	2.678718E-010	0.025605	6
	27	9	1976.103	16538.54	-3725.993	1	16953.06	-12.69628	3.01164E-010	0.0255954	6
	28	10	1577.524	16773.84	-4016.133	1	17247.93	-13.46476	2.552168E-010	0.0255988	6
	29	10	1265.625	17011.18	-4434.926	1	17579.78	-14.61213	3.222635E-010	0.0256063	6
	30	10	998.264	17269.1	-5047.136	1	17991.54	-16.29174	3.107802E-010	0.025598	6
	31	11	796.875	17543.13	-5812.103	1	18480.86	-18.33022	1.692669E-010	0.0256002	6
	32	11	627.7902	17878.86	-6852.367	1	19147.03	-20.97015	2.94114E-010	0.0256063	6
	33	11	505.5147	18232.14	-8029.551	1	19921.96	-23.769	-1.752977E-010	0.025602	6
	34	12	397.9953	18715.21	-9647.54	1	21055.5	-27.27073	3.971542E-010	0.0256315	6
	35	12	315.5048	19305.77	-11582.37	1	22513.64	-30.96136	3.722739E-010	0.0256316	6
	36	12	252.4038	20021.23	-13846.57	1	24342.91	-34.6675	1.362384E-010	0.0256263	6
	37	12	198.6229	21006.84	-16802.19	1	26899.83	-38.65435	2.173176E-010	0.0256273	6
	38	13	158.3615	22206.83	-20185.94	1	30010.26	-42.27074	2.6624E-010	0.0256253	6
	39	13	125.558	23812.9	-24351.12	1	34059.23	-45.64024	4.401047E-011	0.0256257	6
	40	13	100.4464	25821.11	-29119.66	1	38918.95	-48.43582	-1.510064E-010	0.0256237	6
	41	14	79.00281	28665.43	-35194.03	1	45390.82	-50.83729	2.853522E-010	0.0256253	6
	42	14	63.3446	32097.72	-41718.58	1	52637.47	-52.4258	2.539857E-010	0.02562	6
	43	14	49.86702	36933.18	-49837.7	1	62031.09	-53.459	3.682961E-010	0.0256181	6
	44	15	39.72458	42868.12	-58516.87	1	72538.95	-53.77435	-5.489617E-010	0.0256215	6
	45	15	31.6723	50342.95	-68018.24	1	84622.06	-53.49342	-6.067518E-010	0.0256197	6
	46	15	24.93351	59984.8	-78700.22	1	98954	-52.68559	4.772331E-010	0.0256167	6
	47	16	19.86229	70915.91	-89147.28	1	113913.6	-51.49805	-7.984833E-010	0.0256028	5
	48	16	15.83615	83378.27	-99843.7	1	130079.6	-50.13515	2.895236E-010	0.0256034	5
	49	16	12.40079	98232.7	-111191.8	1	148368.7	-48.54094	-1.507079E-009	0.0256122	5
	50	17	9.93114	112477.9	-122103	1	166013.3	-47.34959	3.075707E-010	0.0256038	5
	51	17	7.944915	126757.8	-133690.6	1	184230	-46.52479	8.714351E-010	0.0256056	5
	52	17	6.317385	141990.5	-146922.9	1	204322.4	-45.97806	-4.028474E-010	0.0256186	5
	53	18	5.008013	157213.4	-162518.2	1	226115.5	-45.95053	1.424848E-010	0.0256148	5
	54	19	3.945707	173118.4	-182518.4	1	251561	-46.51406	2.242342E-010	0.0256023	5
	55	20	3.158693	188018.7	-205455.1	1	278501	-47.53736	1.308239E-010	0.0256187	5
	56	21	2.504006	205046.7	-235178.5	1	312014.5	-48.91557	-1.694302E-010	0.0256019	5
	57	22	1.998082	222304.2	-270780.6	1	350344.5	-50.61484	-4.677753E-011	0.0255969	5
	58	24	1.584686	243635.1	-315518.2	1	398634.9	-52.3256	1.099335E-010	0.0256475	5
	59	26	1.266892	266708.5	-369563.4	1	455752.7	-54.18257	7.038586E-011	0.025645	5
	60	28	0.999041	295134.3	-438525	1	528591.1	-56.05882	6.54836E-011	0.0256225	5
