EXPLAIN
TAG	EISPOT
TITLE	LABEL	Potentiostatic EIS	Test &Identifier
DATE	LABEL	3/12/2020	Date
TIME	LABEL	13:33:37	Time
NOTES	NOTES	1	&Notes...
	
PSTAT	PSTAT	REF600-11020	Potentiostat
VDC	POTEN	0.00000E+000	T	DC &Voltage (V)
FREQINIT	QUANT	1.00000E+006	Initial Fre&q. (Hz)
FREQFINAL	QUANT	1.00000E+000	Final Fre&q. (Hz)
PTSPERDEC	QUANT	1.00000E+001	Points/&decade
VAC	QUANT	2.50000E+001	AC &Voltage (mV rms)
AREA	QUANT	2.50000E-001	&Area (cm^2)
CONDIT	TWOPARAM	F	5.00000E+000	0.00000E+000	Conditionin&g	Time(s)	E(V)
DELAY	TWOPARAM	T	5.00000E+000	0.00000E+000	Init. De&lay	Time(s)	Stab.(mV/s)
SPEED	SELECTOR	1	&Optimize for:
ZGUESS	QUANT	5.00000E+003	E&stimated Z (ohms)
OCVCURVE	TABLE	19
	Pt	T	Vf	Vm	Ach	Over
	#	s	V vs. Ref.	V	V	bits
	0	0.258333	7.61228E-002	7.61228E-002	5.60964E-004	...........
	1	0.516667	7.61224E-002	7.61026E-002	5.62364E-004	...........
	2	0.775	7.61202E-002	7.60903E-002	5.62764E-004	...........
	3	1.03333	7.61142E-002	7.60726E-002	5.61630E-004	...........
	4	1.29167	7.61039E-002	7.60617E-002	5.63930E-004	...........
	5	1.55	7.60907E-002	7.60461E-002	5.63830E-004	...........
	6	1.80833	7.60764E-002	7.60353E-002	5.69497E-004	...........
	7	2.06667	7.60623E-002	7.60229E-002	5.70330E-004	...........
	8	2.325	7.60489E-002	7.60132E-002	5.71063E-004	...........
	9	2.58333	7.60366E-002	7.60108E-002	5.66730E-004	...........
	10	2.84167	7.60258E-002	7.60012E-002	5.66930E-004	...........
	11	3.1	7.60169E-002	7.59967E-002	5.68530E-004	...........
	12	3.35833	7.60094E-002	7.59878E-002	5.61264E-004	...........
	13	3.61667	7.60027E-002	7.59836E-002	5.62397E-004	...........
	14	3.875	7.59961E-002	7.59786E-002	5.64963E-004	...........
	15	4.13333	7.59899E-002	7.59701E-002	5.61997E-004	...........
	16	4.39167	7.59839E-002	7.59668E-002	5.62997E-004	...........
	17	4.65	7.59781E-002	7.59661E-002	5.63597E-004	...........
	18	4.90833	7.59729E-002	7.59642E-002	5.56364E-004	...........
EOC	QUANT	0.0759729	Open Circuit (V)
PSTATMODEL	IQUANT	4	Pstat Model
PSTATSECTION	LABEL	REF600-11020	Pstat Section
PSTATSERIALNO	LABEL	11020	Pstat Serial Number
CTRLMODE	IQUANT	1	Control Mode
IESTAB	IQUANT	0	I/E Stability
CASPEED	IQUANT	1	Control Amp Speed
CONVENTION	IQUANT	1	Current Convention
ICHRANGE	IQUANT	2	Ich Range
ICHRANGEMODE	TOGGLE	F	Ich Auto Range
ICHOFFSETENABLE	TOGGLE	T	Ich Offset Enable
ICHOFFSET	QUANT	0	Ich Offset (V)
ICHFILTER	IQUANT	3	Ich Filter
VCHRANGE	IQUANT	2	Vch Range
VCHRANGEMODE	TOGGLE	F	Vch Auto Range
VCHOFFSETENABLE	TOGGLE	T	Vch Offset Enable
VCHOFFSET	QUANT	0	Vch Offset (V)
VCHFILTER	IQUANT	3	Vch Filter
ACHRANGE	IQUANT	2	Ach Range
ACHOFFSETENABLE	TOGGLE	F	Ach Offset Enable
ACHOFFSET	QUANT	0	Ach Offset (V)
ACHFILTER	IQUANT	3	Ach Filter
IERANGELOWERLIMIT	IQUANT	1	I/E Range Lower Limit
IERANGEMODE	TOGGLE	F	I/E AutoRange
IERANGE	IQUANT	7	I/E Range
POSFEEDENABLE	TOGGLE	F	Positive Feedback IR Comp
POSFEEDRESISTANCE	QUANT	0	Positive Feedback Resistance (ohm)
ACHSELECT	IQUANT	0	Ach Select
CABLEID	IQUANT	14	Cable ID
DCCALDATE	LABEL	2/27/2020	DC Calibration Date
ACCALDATE	LABEL	2/27/2020	AC Calibration Date
THERMOSELECT	IQUANT	1	Thermo Select
FRAMEWORKVERSION	QUANT	6.33	Framework Version
INSTRUMENTVERSION	LABEL	3.50	Instrument Version
ZCURVE	TABLE
	Pt	Time	Freq	Zreal	Zimag	Zsig	Zmod	Zphz	Idc	Vdc	IERange
	#	s	Hz	ohm	ohm	V	ohm	°	A	V	#
	0	1	1000078	1901.01	-1996.523	1	2756.8	-46.40381	3.386652E-006	0.0777802	8
	1	3	794390.6	2302.651	-2094.909	1	3113.012	-42.29535	-2.277386E-006	0.0781949	8
	2	4	630984.4	2735.673	-2109.372	1	3454.469	-37.63443	2.215764E-007	0.0778462	8
	3	5	501234.4	3170.512	-2067.045	1	3784.815	-33.10272	8.730442E-007	0.0775391	8
	4	7	398109.4	3560.096	-1956.021	1	4062.057	-28.78568	-3.10878E-006	0.0783453	8
	5	8	316265.6	3918.019	-1796.732	1	4310.35	-24.63533	1.025746E-006	0.0774537	8
	6	9	251203.1	4178.421	-1597.685	1	4473.455	-20.92515	-1.546894E-006	0.0780488	8
	7	11	199546.9	4438.989	-1408.209	1	4657.003	-17.60092	-2.101365E-006	0.0780993	8
	8	12	158578.1	4576.506	-1213.041	1	4734.541	-14.84535	-1.371875E-006	0.0778553	8
	9	14	125953.1	4747.129	-1048.002	1	4861.434	-12.44924	-1.048495E-007	0.0777898	7
	10	15	100078.1	4841.573	-910.8456	1	4926.506	-10.65453	4.086597E-008	0.0774301	7
	11	17	79453.13	4925.949	-814.524	1	4992.837	-9.389114	1.772374E-008	0.0775869	7
	12	18	63140.62	4998.644	-737.9034	1	5052.815	-8.397396	-2.358033E-008	0.0775895	7
	13	19	50203.12	5060.344	-679.4729	1	5105.758	-7.647594	1.837695E-008	0.0775779	7
	14	21	39890.62	5115.54	-640.0652	1	5155.427	-7.131884	4.258651E-008	0.0774239	7
	15	22	31640.63	5167.757	-619.6133	1	5204.77	-6.837117	1.738153E-008	0.0775544	7
	16	24	25171.88	5218.159	-615.5703	1	5254.342	-6.727913	-2.535708E-008	0.0775717	7
	17	25	20015.62	5268.13	-626.8033	1	5305.288	-6.785168	-2.439913E-008	0.0775771	7
	18	26	15890.62	5318.663	-654.0622	1	5358.729	-7.010745	-2.57071E-008	0.0775725	7
	19	28	12609.37	5371.932	-700.5449	1	5417.417	-7.42992	-1.414302E-008	0.077555	7
	20	29	10078.13	5425.655	-762.0046	1	5478.904	-7.9946	5.858142E-009	0.077502	7
	21	30	8015.625	5483.579	-845.9446	1	5548.447	-8.769811	1.511724E-008	0.0775063	7
	22	32	6328.125	5548.973	-958.014	1	5631.064	-9.79539	-1.421959E-008	0.0775532	7
	23	33	5015.625	5614.899	-1098.094	1	5721.268	-11.06556	-4.878524E-008	0.0776152	7
	24	34	3984.375	5688.645	-1271.097	1	5828.925	-12.59553	-2.580553E-008	0.077545	7
	25	36	3170.956	5767.27	-1484.766	1	5955.328	-14.43711	4.419149E-008	0.0774146	7
	26	37	2527.573	5851.931	-1748.419	1	6107.542	-16.63491	3.007796E-008	0.0774756	7
	27	39	1976.103	5958.141	-2103.882	1	6318.684	-19.44866	1.35135E-008	0.0774643	7
	28	40	1577.524	6068.203	-2508.237	1	6566.151	-22.45732	1.527485E-008	0.0775068	7
	29	41	1265.625	6196.512	-2990.078	1	6880.212	-25.75927	7.338902E-008	0.0774455	7
	30	43	998.264	6356.881	-3624.931	1	7317.791	-29.69341	-2.341686E-008	0.0775615	7
	31	44	796.875	6539.799	-4370.248	1	7865.624	-33.75299	1.890215E-009	0.0775308	7
	32	45	627.7902	6776.849	-5332.46	1	8623.271	-38.19794	8.053773E-009	0.0774945	7
	33	47	505.5147	7035.455	-6405.334	1	9514.51	-42.31587	-3.531938E-008	0.0775799	7
	34	48	397.9953	7387.128	-7841.625	1	10773.15	-46.70947	1.016444E-009	0.0775985	6
	35	50	315.5048	7808.218	-9554.73	1	12339.41	-50.74396	1.1224E-009	0.0775959	6
	36	51	252.4038	8308.695	-11553.33	1	14230.74	-54.27782	6.733531E-010	0.0775939	6
	37	52	198.6229	8980.331	-14169.86	1	16775.91	-57.63499	6.16903E-010	0.0776017	6
	38	54	158.3615	9775.58	-17178.49	1	19765.18	-60.35755	4.015309E-010	0.0775951	6
	39	55	125.558	10792.72	-20924.15	1	23543.64	-62.71522	5.519369E-010	0.0775982	6
	40	56	100.4464	12018.94	-25284.69	1	27995.9	-64.57618	1.03513E-009	0.0775967	6
	41	58	79.00281	13652.63	-30952.24	1	33829.5	-66.19835	1.002272E-009	0.0775919	6
	42	59	63.3446	15450.09	-37083.95	1	40173.68	-67.38219	5.352819E-010	0.0775896	6
	43	61	49.86702	18470.79	-45494.77	1	49101.36	-67.90295	2.821186E-010	0.0775893	6
	44	62	39.72458	21612.87	-54866.77	1	58970.14	-68.49976	3.125808E-010	0.0775938	6
	45	63	31.6723	25708.52	-65974.38	1	70806.4	-68.71042	7.854899E-010	0.0775938	6
	46	65	24.93351	31401.04	-80244.67	1	86169.79	-68.62879	9.558565E-010	0.0775901	6
	47	66	19.86229	38588.78	-96234.1	1	103682.7	-68.14979	2.921874E-010	0.0775942	6
	48	68	15.83615	46823.76	-114622.4	1	123817.4	-67.77976	1.143179E-009	0.0775933	5
	49	69	12.40079	60183.03	-137776.3	1	150347.3	-66.40348	-6.151707E-011	0.0776071	5
	50	70	9.93114	75325.16	-162044	1	178695.6	-65.06892	7.821588E-010	0.0775987	5
	51	72	7.944915	94279.55	-189557.3	1	211708.8	-63.55576	-4.02375E-010	0.0776019	5
	52	74	6.317385	117554.4	-219559.5	1	249049	-61.83495	1.850592E-010	0.0775964	5
	53	76	5.008013	146619	-253127.7	1	292524.8	-59.91931	1.104938E-010	0.0776109	5
	54	78	3.945707	181093.9	-289196.8	1	341218	-57.94536	-1.606947E-010	0.0775986	5
	55	81	3.158693	217693.6	-324819.5	1	391022	-56.17006	2.535997E-010	0.0776092	5
	56	84	2.504006	259885.3	-364651.3	1	447784.5	-54.5227	-3.594675E-010	0.0776031	5
	57	87	1.998082	303348.3	-405073.3	1	506067.8	-53.17147	2.445324E-011	0.0775644	5
	58	90	1.584686	349273.3	-451668.9	1	570961.1	-52.2854	-9.678902E-012	0.07761	5
	59	94	1.266892	396737.4	-503392.9	1	640940.7	-51.75741	1.550845E-011	0.0775677	5
	60	98	0.999041	450593.3	-568197.8	1	725177.9	-51.58481	2.336036E-010	0.0776458	5
