EXPLAIN
TAG	EISPOT
TITLE	LABEL	Potentiostatic EIS	Test &Identifier
DATE	LABEL	2/28/2020	Date
TIME	LABEL	17:00:41	Time
NOTES	NOTES	1	&Notes...
	
PSTAT	PSTAT	REF600-11020	Potentiostat
VDC	POTEN	0.00000E+000	T	DC &Voltage (V)
FREQINIT	QUANT	1.00000E+006	Initial Fre&q. (Hz)
FREQFINAL	QUANT	1.00000E+000	Final Fre&q. (Hz)
PTSPERDEC	QUANT	1.00000E+001	Points/&decade
VAC	QUANT	2.50000E+001	AC &Voltage (mV rms)
AREA	QUANT	1.60000E-004	&Area (cm^2)
CONDIT	TWOPARAM	F	1.50000E+001	0.00000E+000	Conditionin&g	Time(s)	E(V)
DELAY	TWOPARAM	F	1.00000E+002	0.00000E+000	Init. De&lay	Time(s)	Stab.(mV/s)
SPEED	SELECTOR	1	&Optimize for:
ZGUESS	QUANT	1.00000E+003	E&stimated Z (ohms)
OCVCURVE	TABLE	39
	Pt	T	Vf	Vm	Ach	Over
	#	s	V vs. Ref.	V	V	bits
	0	0.258333	-9.45088E-002	-9.45088E-002	5.61830E-004	...........
	1	0.516667	-9.45060E-002	-9.43624E-002	5.58897E-004	...........
	2	0.775	-9.44973E-002	-9.46696E-002	5.61630E-004	...........
	3	1.03333	-9.44884E-002	-9.42981E-002	5.58097E-004	...........
	4	1.29167	-9.44748E-002	-9.40973E-002	5.57430E-004	...........
	5	1.55	-9.44272E-002	-9.41813E-002	5.58997E-004	...........
	6	1.80833	-9.43387E-002	-9.41730E-002	5.58630E-004	...........
	7	2.06667	-9.42490E-002	-9.41896E-002	5.60430E-004	...........
	8	2.325	-9.41942E-002	-9.41740E-002	5.61364E-004	...........
	9	2.58333	-9.41724E-002	-9.40588E-002	5.56497E-004	...........
	10	2.84167	-9.41581E-002	-9.40280E-002	5.59764E-004	...........
	11	3.1	-9.41304E-002	-9.39875E-002	5.61464E-004	...........
	12	3.35833	-9.40884E-002	-9.39908E-002	5.56997E-004	...........
	13	3.61667	-9.40449E-002	-9.39667E-002	5.55497E-004	...........
	14	3.875	-9.40101E-002	-9.39279E-002	5.56630E-004	...........
	15	4.13333	-9.39824E-002	-9.38534E-002	5.57330E-004	...........
	16	4.39167	-9.39518E-002	-9.37694E-002	5.61597E-004	...........
	17	4.65	-9.39116E-002	-9.38603E-002	5.63997E-004	...........
	18	4.90833	-9.38698E-002	-9.38277E-002	5.62797E-004	...........
	19	5.16667	-9.38405E-002	-9.37807E-002	5.64963E-004	...........
	20	5.425	-9.38236E-002	-9.37307E-002	5.55364E-004	...........
	21	5.68333	-9.38057E-002	-9.37160E-002	5.58097E-004	...........
	22	5.94167	-9.37795E-002	-9.36829E-002	5.58730E-004	...........
	23	6.2	-9.37470E-002	-9.35962E-002	5.61630E-004	...........
	24	6.45833	-9.37105E-002	-9.36205E-002	5.61197E-004	...........
	25	6.71667	-9.36724E-002	-9.35819E-002	5.57364E-004	...........
	26	6.975	-9.36380E-002	-9.35754E-002	5.51864E-004	...........
	27	7.23333	-9.36115E-002	-9.35789E-002	5.54364E-004	...........
	28	7.49167	-9.35922E-002	-9.35093E-002	5.57264E-004	...........
	29	7.75	-9.35738E-002	-9.34505E-002	5.57764E-004	...........
	30	8.00833	-9.35482E-002	-9.34426E-002	5.59797E-004	...........
	31	8.26667	-9.35149E-002	-9.34783E-002	5.57297E-004	...........
	32	8.525	-9.34845E-002	-9.34479E-002	5.59430E-004	...........
	33	8.78333	-9.34654E-002	-9.34214E-002	5.62930E-004	...........
	34	9.04167	-9.34535E-002	-9.33862E-002	5.61330E-004	...........
	35	9.3	-9.34395E-002	-9.33656E-002	5.64197E-004	...........
	36	9.5583	-9.34189E-002	-9.33361E-002	5.61664E-004	...........
	37	9.8167	-9.33931E-002	-9.32809E-002	5.60297E-004	...........
	38	10.075	-9.33630E-002	-9.32495E-002	5.59264E-004	...........
EOC	QUANT	-0.093363	Open Circuit (V)
PSTATMODEL	IQUANT	4	Pstat Model
PSTATSECTION	LABEL	REF600-11020	Pstat Section
PSTATSERIALNO	LABEL	11020	Pstat Serial Number
CTRLMODE	IQUANT	1	Control Mode
IESTAB	IQUANT	0	I/E Stability
CASPEED	IQUANT	1	Control Amp Speed
CONVENTION	IQUANT	1	Current Convention
ICHRANGE	IQUANT	2	Ich Range
ICHRANGEMODE	TOGGLE	F	Ich Auto Range
ICHOFFSETENABLE	TOGGLE	T	Ich Offset Enable
ICHOFFSET	QUANT	0	Ich Offset (V)
ICHFILTER	IQUANT	3	Ich Filter
VCHRANGE	IQUANT	2	Vch Range
VCHRANGEMODE	TOGGLE	F	Vch Auto Range
VCHOFFSETENABLE	TOGGLE	T	Vch Offset Enable
VCHOFFSET	QUANT	0	Vch Offset (V)
VCHFILTER	IQUANT	3	Vch Filter
ACHRANGE	IQUANT	2	Ach Range
ACHOFFSETENABLE	TOGGLE	F	Ach Offset Enable
ACHOFFSET	QUANT	0	Ach Offset (V)
ACHFILTER	IQUANT	3	Ach Filter
IERANGELOWERLIMIT	IQUANT	1	I/E Range Lower Limit
IERANGEMODE	TOGGLE	F	I/E AutoRange
IERANGE	IQUANT	8	I/E Range
POSFEEDENABLE	TOGGLE	F	Positive Feedback IR Comp
POSFEEDRESISTANCE	QUANT	0	Positive Feedback Resistance (ohm)
ACHSELECT	IQUANT	0	Ach Select
CABLEID	IQUANT	14	Cable ID
DCCALDATE	LABEL	2/27/2020	DC Calibration Date
ACCALDATE	LABEL	2/27/2020	AC Calibration Date
THERMOSELECT	IQUANT	1	Thermo Select
FRAMEWORKVERSION	QUANT	6.33	Framework Version
INSTRUMENTVERSION	LABEL	3.50	Instrument Version
ZCURVE	TABLE
	Pt	Time	Freq	Zreal	Zimag	Zsig	Zmod	Zphz	Idc	Vdc	IERange
	#	s	Hz	ohm	ohm	V	ohm	°	A	V	#
	0	1	1000078	1866.109	-2133.041	1	2834.119	-48.81866	5.010075E-006	-0.0918916	8
	1	2	794390.6	2290.262	-2276.813	1	3229.424	-44.83128	-2.74251E-006	-0.0911438	8
	2	4	630984.4	2776.907	-2389.626	1	3663.54	-40.71315	1.298489E-006	-0.0915781	8
	3	5	501234.4	3250.488	-2391.476	1	4035.446	-36.34298	1.562206E-006	-0.0919131	8
	4	7	398109.4	3746.519	-2338.65	1	4416.524	-31.97321	-2.539925E-006	-0.09114	8
	5	8	316265.6	4190.865	-2206.07	1	4736.042	-27.7623	-2.813127E-007	-0.0914427	8
	6	9	251203.1	4559.169	-1994.999	1	4976.549	-23.6332	3.545387E-008	-0.0916945	8
	7	11	199546.9	4895.505	-1796.651	1	5214.78	-20.15314	9.353734E-008	-0.0916845	8
	8	12	158578.1	5135.472	-1580.526	1	5373.186	-17.10661	5.285852E-007	-0.0917912	8
	9	14	125953.1	5336.804	-1316.868	1	5496.873	-13.86097	-1.813138E-007	-0.0913835	7
	10	15	100078.1	5475.799	-1152.987	1	5595.87	-11.89053	-4.195931E-008	-0.0916399	7
	11	16	79453.13	5588.563	-1016.429	1	5680.243	-10.30809	3.60471E-009	-0.0917725	7
	12	18	63140.62	5678.894	-908.4381	1	5751.095	-9.088458	6.477557E-008	-0.0917627	7
	13	19	50203.12	5756.115	-827.5546	1	5815.3	-8.181332	-3.291273E-008	-0.0916972	7
	14	20	39890.62	5824.279	-766.0464	1	5874.441	-7.492897	-3.297684E-008	-0.0917037	7
	15	22	31640.63	5885.317	-729.6944	1	5930.381	-7.06778	-9.628331E-009	-0.0917729	7
	16	23	25171.88	5941.503	-711.2892	1	5983.928	-6.826696	6.536001E-008	-0.0918476	7
	17	25	20015.62	6001.347	-711.3028	1	6043.353	-6.759383	4.889264E-009	-0.0917888	7
	18	26	15890.62	6053.695	-732.8145	1	6097.888	-6.90221	6.659669E-008	-0.091773	7
	19	27	12609.37	6112.652	-770.0325	1	6160.963	-7.179932	-4.063449E-008	-0.0916705	7
	20	29	10078.13	6145.784	-837.7887	1	6202.625	-7.76267	2.313218E-008	-0.0916944	7
	21	30	8015.625	6231.217	-913.9652	1	6297.889	-8.344372	1.045995E-007	-0.091901	7
	22	32	6328.125	6294.168	-1026.543	1	6377.331	-9.263059	-3.544142E-008	-0.0917318	7
	23	33	5015.625	6365.493	-1171.104	1	6472.324	-10.42453	2.175432E-008	-0.0918431	7
	24	34	3984.375	6437.93	-1354.923	1	6578.963	-11.88499	4.983582E-008	-0.0918648	7
	25	36	3170.956	6515.25	-1579.828	1	6704.054	-13.63009	-4.098735E-008	-0.0916769	7
	26	37	2527.573	6603.732	-1860.977	1	6860.941	-15.7382	1.952567E-009	-0.0916994	7
	27	38	1976.103	6711.15	-2239.852	1	7075.06	-18.45647	6.537824E-008	-0.0918662	7
	28	40	1577.524	6825.916	-2666.684	1	7328.324	-21.33912	-3.173094E-008	-0.0917162	7
	29	41	1265.625	6948.937	-3187.52	1	7645.129	-24.64121	1.051757E-007	-0.091907	7
	30	43	998.264	7118.614	-3883.661	1	8109.099	-28.6153	1.145015E-009	-0.0916975	7
	31	44	796.875	7307.091	-4687.544	1	8681.396	-32.68042	-3.154092E-008	-0.091664	7
	32	45	627.7902	7547.624	-5737.041	1	9480.521	-37.23891	-3.401093E-009	-0.0916672	7
	33	47	505.5147	7827.673	-6886.369	1	10425.67	-41.33959	2.321534E-009	-0.0916653	6
	34	48	397.9953	8201.144	-8446.867	1	11773.2	-45.84562	2.498389E-010	-0.0916859	6
	35	49	315.5048	8657.817	-10299.47	1	13455	-49.94933	-4.591277E-011	-0.0916818	6
	36	51	252.4038	9200.67	-12456.47	1	15485.99	-53.54947	9.644093E-010	-0.0916838	6
	37	52	198.6229	9925.47	-15270.01	1	18212.3	-56.97622	-7.96662E-011	-0.0916849	6
	38	53	158.3615	10780.15	-18500.63	1	21412.27	-59.77103	-6.280618E-011	-0.0916797	6
	39	55	125.558	11869.18	-22498.63	1	25437.49	-62.18604	7.584196E-011	-0.0916837	6
	40	56	100.4464	13133.16	-27130.99	1	30142.5	-64.17001	6.68343E-010	-0.091687	6
	41	58	79.00281	14877.21	-33207.52	1	36387.78	-65.86728	2.394121E-010	-0.0916887	6
	42	59	63.3446	16577.58	-39962.37	1	43264.39	-67.46987	4.553091E-011	-0.0916853	6
	43	60	49.86702	19485.35	-48614.18	1	52373.82	-68.15829	6.102819E-010	-0.0916899	6
	44	62	39.72458	22444.07	-58880.25	1	63012.86	-69.13407	-5.093994E-010	-0.0916802	6
	45	63	31.6723	26373.7	-71021.09	1	75759.93	-69.62751	-5.288055E-010	-0.0916879	6
	46	65	24.93351	31533.65	-86780.91	1	92332.53	-70.03033	7.371312E-011	-0.091688	6
	47	66	19.86229	37899.29	-104496.8	1	111157.2	-70.0651	-6.725894E-010	-0.0916792	5
	48	67	15.83615	45465.12	-125482.4	1	133465	-70.0834	-1.722223E-010	-0.0916787	5
	49	69	12.40079	56846.29	-153255.9	1	163459.1	-69.64897	-3.238974E-010	-0.0916754	5
	50	70	9.93114	71202.54	-182509.8	1	195907.2	-68.68775	-2.587527E-010	-0.0916863	5
	51	72	7.944915	88464.19	-216372	1	233757.9	-67.7627	-1.60897E-010	-0.0916832	5
	52	73	6.317385	111129	-256177.8	1	279243.2	-66.54897	-1.559682E-009	-0.091684	5
	53	76	5.008013	140231.6	-302827.6	1	333720.6	-65.15237	-5.29458E-010	-0.0916881	5
	54	78	3.945707	177155.2	-356378.8	1	397982.1	-63.56812	7.862614E-011	-0.0916795	5
	55	81	3.158693	219367.7	-411044.1	1	465917.8	-61.91187	-9.372344E-011	-0.0916971	5
	56	84	2.504006	271405.5	-473865.7	1	546085.8	-60.19817	1.453063E-010	-0.0916726	5
	57	87	1.998082	329629	-539956.2	1	632619.9	-58.59703	9.719703E-011	-0.0916885	5
	58	90	1.584686	402515.9	-611667	1	732226.4	-56.65253	2.020295E-010	-0.0917319	5
	59	94	1.266892	475318.8	-688636.3	1	836748.4	-55.38532	1.671912E-010	-0.091699	5
	60	98	0.999041	562564.5	-776052.9	1	958508	-54.06146	-4.284746E-010	-0.091683	5
