EXPLAIN
TAG	EISPOT
TITLE	LABEL	Potentiostatic EIS	Test &Identifier
DATE	LABEL	6/26/2020	Date
TIME	LABEL	12:48:49	Time
NOTES	NOTES	1	&Notes...
	
PSTAT	PSTAT	REF600-11020	Potentiostat
VDC	POTEN	0.00000E+000	T	DC &Voltage (V)
FREQINIT	QUANT	1.00000E+006	Initial Fre&q. (Hz)
FREQFINAL	QUANT	1.00000E+000	Final Fre&q. (Hz)
PTSPERDEC	QUANT	1.00000E+001	Points/&decade
VAC	QUANT	2.50000E+001	AC &Voltage (mV rms)
AREA	QUANT	4.00000E-004	&Area (cm^2)
CONDIT	TWOPARAM	F	5.00000E+000	0.00000E+000	Conditionin&g	Time(s)	E(V)
DELAY	TWOPARAM	F	3.00000E+000	0.00000E+000	Init. De&lay	Time(s)	Stab.(mV/s)
SPEED	SELECTOR	0	&Optimize for:
ZGUESS	QUANT	1.00000E+003	E&stimated Z (ohms)
OCVCURVE	TABLE	39
	Pt	T	Vf	Vm	Ach	Over
	#	s	V vs. Ref.	V	V	bits
	0	0.258333	8.81189E-002	8.81189E-002	5.15050E-004	...........
	1	0.516667	8.81163E-002	8.79859E-002	5.18183E-004	...........
	2	0.775	8.81123E-002	8.84642E-002	5.15483E-004	...........
	3	1.03333	8.81241E-002	8.81344E-002	5.17050E-004	...........
	4	1.29167	8.81620E-002	8.82434E-002	5.19550E-004	...........
	5	1.55	8.82081E-002	8.84969E-002	5.20250E-004	...........
	6	1.80833	8.82526E-002	8.82995E-002	5.15883E-004	...........
	7	2.06667	8.83009E-002	8.84521E-002	5.15750E-004	...........
	8	2.325	8.83426E-002	8.82119E-002	5.16783E-004	...........
	9	2.58333	8.83636E-002	8.85748E-002	5.13450E-004	...........
	10	2.84167	8.83685E-002	8.81348E-002	5.15950E-004	...........
	11	3.1	8.83671E-002	8.85284E-002	5.19517E-004	...........
	12	3.35833	8.83551E-002	8.78630E-002	5.20783E-004	...........
	13	3.61667	8.83195E-002	8.83780E-002	5.24350E-004	...........
	14	3.875	8.82513E-002	8.74351E-002	5.14950E-004	...........
	15	4.13333	8.81515E-002	8.83097E-002	5.23050E-004	...........
	16	4.39167	8.80368E-002	8.72863E-002	5.26417E-004	...........
	17	4.65	8.79332E-002	8.83018E-002	5.19383E-004	...........
	18	4.90833	8.78590E-002	8.73286E-002	5.18583E-004	...........
	19	5.16667	8.78213E-002	8.84201E-002	5.20117E-004	...........
	20	5.425	8.78189E-002	8.73675E-002	5.22483E-004	...........
	21	5.68333	8.78347E-002	8.81613E-002	5.20383E-004	...........
	22	5.94167	8.78447E-002	8.76334E-002	5.25650E-004	...........
	23	6.2	8.78637E-002	8.89892E-002	5.14817E-004	...........
	24	6.45833	8.79347E-002	8.73315E-002	5.21817E-004	...........
	25	6.71667	8.80371E-002	8.86484E-002	5.18617E-004	...........
	26	6.975	8.80968E-002	8.74318E-002	5.16183E-004	...........
	27	7.23333	8.80738E-002	8.76086E-002	5.15483E-004	...........
	28	7.49167	8.79565E-002	8.70551E-002	5.23017E-004	...........
	29	7.75	8.77736E-002	8.82867E-002	5.20750E-004	...........
	30	8.00833	8.76328E-002	8.75038E-002	5.19317E-004	...........
	31	8.26667	8.76100E-002	8.76879E-002	5.20817E-004	...........
	32	8.525	8.76538E-002	8.77343E-002	5.18350E-004	...........
	33	8.78333	8.76921E-002	8.79382E-002	5.17617E-004	...........
	34	9.04167	8.77280E-002	8.79195E-002	5.20383E-004	...........
	35	9.3	8.77808E-002	8.78039E-002	5.22383E-004	...........
	36	9.5583	8.78321E-002	8.78294E-002	5.17217E-004	...........
	37	9.8167	8.78510E-002	8.75933E-002	5.18883E-004	...........
	38	10.075	8.78294E-002	8.78668E-002	5.22517E-004	...........
EOC	QUANT	0.0878294	Open Circuit (V)
PSTATMODEL	IQUANT	4	Pstat Model
PSTATSECTION	LABEL	REF600-11020	Pstat Section
PSTATSERIALNO	LABEL	11020	Pstat Serial Number
CTRLMODE	IQUANT	1	Control Mode
IESTAB	IQUANT	0	I/E Stability
CASPEED	IQUANT	1	Control Amp Speed
CONVENTION	IQUANT	1	Current Convention
ICHRANGE	IQUANT	2	Ich Range
ICHRANGEMODE	TOGGLE	F	Ich Auto Range
ICHOFFSETENABLE	TOGGLE	T	Ich Offset Enable
ICHOFFSET	QUANT	0	Ich Offset (V)
ICHFILTER	IQUANT	3	Ich Filter
VCHRANGE	IQUANT	2	Vch Range
VCHRANGEMODE	TOGGLE	F	Vch Auto Range
VCHOFFSETENABLE	TOGGLE	T	Vch Offset Enable
VCHOFFSET	QUANT	0	Vch Offset (V)
VCHFILTER	IQUANT	3	Vch Filter
ACHRANGE	IQUANT	2	Ach Range
ACHOFFSETENABLE	TOGGLE	F	Ach Offset Enable
ACHOFFSET	QUANT	0	Ach Offset (V)
ACHFILTER	IQUANT	3	Ach Filter
IERANGELOWERLIMIT	IQUANT	1	I/E Range Lower Limit
IERANGEMODE	TOGGLE	F	I/E AutoRange
IERANGE	IQUANT	8	I/E Range
POSFEEDENABLE	TOGGLE	F	Positive Feedback IR Comp
POSFEEDRESISTANCE	QUANT	0	Positive Feedback Resistance (ohm)
ACHSELECT	IQUANT	0	Ach Select
CABLEID	IQUANT	14	Cable ID
DCCALDATE	LABEL	6/26/2020	DC Calibration Date
ACCALDATE	LABEL	6/26/2020	AC Calibration Date
THERMOSELECT	IQUANT	1	Thermo Select
FRAMEWORKVERSION	QUANT	6.33	Framework Version
INSTRUMENTVERSION	LABEL	3.50	Instrument Version
ZCURVE	TABLE
	Pt	Time	Freq	Zreal	Zimag	Zsig	Zmod	Zphz	Idc	Vdc	IERange
	#	s	Hz	ohm	ohm	V	ohm	°	A	V	#
	0	1	1000078	936.1418	-7458.937	1	7517.453	-82.84644	-4.115017E-008	0.090111	8
	1	1	794390.6	1069.163	-9269.883	1	9331.336	-83.42073	2.119845E-007	0.0898135	8
	2	2	630984.4	1247.696	-11555.78	1	11622.94	-83.83755	1.338063E-007	0.0896743	8
	3	2	501234.4	1439.242	-14367.9	1	14439.81	-84.27972	2.204163E-007	0.0895601	8
	4	2	398109.4	1681.97	-17887.84	1	17966.75	-84.62835	7.495571E-008	0.0895322	8
	5	3	316265.6	1935.629	-22292.09	1	22375.96	-85.03744	-5.160304E-008	0.0895159	8
	6	3	251203.1	2315.046	-27774.92	1	27871.23	-85.2354	2.137114E-008	0.0894916	8
	7	3	199546.9	2861.122	-34707.84	1	34825.57	-85.28751	-1.256749E-008	0.089489	8
	8	4	158578.1	3283.62	-43212.78	1	43337.36	-85.6546	2.950914E-008	0.0894883	8
	9	4	125953.1	4974.032	-53978.75	1	54207.43	-84.73518	8.881634E-008	0.0893744	7
	10	4	100078.1	6044.984	-67409.32	1	67679.82	-84.87566	1.611778E-008	0.0894341	7
	11	4	79453.13	7519.586	-84134.99	1	84470.36	-84.89275	-2.389742E-008	0.0894904	7
	12	5	63140.62	9427.193	-104501.7	1	104926	-84.84525	2.031571E-008	0.0894285	7
	13	5	50203.12	12107.07	-130134.8	1	130696.8	-84.6848	1.618002E-008	0.0894254	7
	14	5	39890.62	15916.05	-162017.8	1	162797.7	-84.38947	-8.826314E-010	0.0894789	7
	15	6	31640.63	19701.01	-202226.8	1	203184.2	-84.43578	-2.463538E-008	0.0894771	7
	16	6	25171.88	27857.99	-249807.1	1	251355.6	-83.63678	1.6486E-008	0.0894533	7
	17	6	20015.62	36954.71	-309484.9	1	311683.4	-83.19071	2.556657E-008	0.0894327	7
	18	7	15890.62	49058.57	-383026.3	1	386155.3	-82.70121	2.256405E-008	0.0894367	7
	19	7	12609.37	67297.3	-474865.2	1	479610.2	-81.93383	4.946685E-009	0.0893652	6
	20	7	10078.13	86199.51	-582674.3	1	589015.8	-81.58483	1.537564E-009	0.0893725	6
	21	8	8015.625	109463.5	-714843.3	1	723175.8	-81.29396	-5.020472E-009	0.0895063	6
	22	8	6328.125	140836.1	-884205.7	1	895351.6	-80.94996	-5.026112E-009	0.0894842	6
	23	8	5015.625	175891.6	-1084208	1	1098383	-80.78516	-5.075509E-009	0.0894793	6
	24	9	3984.375	220039.8	-1326553	1	1344679	-80.58191	-4.363227E-009	0.0894582	6
	25	9	3170.956	282486.2	-1615843	1	1640349	-80.0836	4.15979E-009	0.0894119	6
	26	9	2527.573	336416	-1971925	1	2000416	-80.31839	5.260667E-009	0.0893638	6
	27	9	1976.103	393101.3	-2458502	1	2489731	-80.91561	-3.167432E-009	0.089427	6
	28	10	1577.524	533082.3	-2986095	1	3033306	-79.8781	4.103624E-009	0.0894083	6
	29	10	1265.625	663427.4	-3660342	1	3719978	-79.72681	3.777552E-011	0.0894531	5
	30	10	998.264	803541.4	-4536779	1	4607390	-79.95609	-1.590361E-010	0.0894733	5
	31	11	796.875	947714.8	-5559130	1	5639334	-80.32529	1.808012E-010	0.0893446	5
	32	11	627.7902	1165614	-6911502	1	7009103	-80.42723	4.20772E-010	0.0893388	5
	33	11	505.5147	1371704	-8381870	1	8493369	-80.70586	-4.20729E-010	0.0894253	5
	34	12	397.9953	1728644	-1.041487E+007	1	1.055736E+007	-80.57605	-1.209985E-011	0.0894354	5
	35	12	315.5048	2165093	-1.289797E+007	1	1.307842E+007	-80.47099	-1.619775E-011	0.0894362	5
	36	13	252.4038	2661903	-1.581473E+007	1	1.603719E+007	-80.44565	-1.135827E-011	0.0894332	5
	37	13	198.6229	3421512	-1.973802E+007	1	2.003238E+007	-80.16572	-9.635544E-013	0.0894332	5
	38	13	158.3615	3968300	-2.394889E+007	1	2.427544E+007	-80.59165	1.962148E-012	0.0894288	5
	39	14	125.558	5565018	-2.98732E+007	1	3.038713E+007	-79.44744	8.817089E-012	0.0894276	4
	40	14	100.4464	6924241	-3.560852E+007	1	3.62755E+007	-78.9959	4.275549E-013	0.0894307	4
	41	14	79.00281	1.128993E+007	-4.567962E+007	1	4.705412E+007	-76.1173	-7.224154E-012	0.0894265	4
	42	15	63.3446	2.091481E+007	-6.471323E+007	1	6.800906E+007	-72.08957	6.007029E-012	0.0894268	4
	43	15	49.86702	1.411252E+007	-6.817146E+007	1	6.961688E+007	-78.30412	5.119415E-012	0.0894249	4
	44	16	39.72458	2.271359E+007	-8.077973E+007	1	8.391229E+007	-74.29511	7.850572E-012	0.0894287	4
	45	16	31.6723	2.204952E+007	-9.761128E+007	1	1.000707E+008	-77.27103	-1.331671E-012	0.0894289	4
	46	17	24.93351	3.903696E+007	-1.20591E+008	1	1.26752E+008	-72.06252	4.281803E-012	0.0894287	4
	47	17	19.86229	5.7744E+007	-1.407464E+008	1	1.521312E+008	-67.69313	8.910574E-012	0.0894268	4
	48	18	15.83615	9.955145E+007	-1.549439E+008	1	1.841686E+008	-57.27925	2.306073E-011	0.0894269	4
	49	18	12.40079	1.163454E+008	-2.353469E+008	1	2.625346E+008	-63.69419	-7.613436E-012	0.0894228	3
	50	19	9.93114	1.101817E+008	-2.365483E+008	1	2.609504E+008	-65.02438	1.730545E-012	0.089424	3
	51	20	7.944915	1.395379E+008	-2.682065E+008	1	3.023335E+008	-62.51371	1.061862E-012	0.0894222	3
	52	21	6.317385	1.931454E+008	-3.112066E+008	1	3.662714E+008	-58.17485	3.188159E-012	0.0894354	3
	53	22	5.008013	2.457938E+008	-3.485134E+008	1	4.264694E+008	-54.80608	3.365269E-012	0.0894287	3
	54	23	3.945707	3.082021E+008	-3.837826E+008	1	4.92217E+008	-51.23329	3.606959E-012	0.0894099	3
	55	24	3.158693	3.717769E+008	-4.199262E+008	1	5.60853E+008	-48.4803	3.70053E-012	0.0894131	3
	56	26	2.504006	4.444822E+008	-4.429357E+008	1	6.275002E+008	-44.90015	4.033521E-012	0.0894063	3
	57	27	1.998082	5.27474E+008	-4.633692E+008	1	7.020968E+008	-41.29828	3.868741E-012	0.0893622	3
	58	28	1.584686	6.023996E+008	-4.838419E+008	1	7.726502E+008	-38.77111	4.001389E-012	0.0893786	3
	59	30	1.266892	6.868824E+008	-4.81474E+008	1	8.388234E+008	-35.02875	3.636426E-012	0.0894153	2
	60	33	0.999041	7.693778E+008	-4.883084E+008	1	9.112559E+008	-32.40247	3.70759E-012	0.0894294	2
