EXPLAIN
TAG	EISPOT
TITLE	LABEL	Potentiostatic EIS	Test &Identifier
DATE	LABEL	7/13/2020	Date
TIME	LABEL	20:28:34	Time
NOTES	NOTES	1	&Notes...
	
PSTAT	PSTAT	REF600-11020	Potentiostat
VDC	POTEN	0.00000E+000	T	DC &Voltage (V)
FREQINIT	QUANT	1.00000E+006	Initial Fre&q. (Hz)
FREQFINAL	QUANT	1.00000E+000	Final Fre&q. (Hz)
PTSPERDEC	QUANT	1.00000E+001	Points/&decade
VAC	QUANT	2.50000E+001	AC &Voltage (mV rms)
AREA	QUANT	4.00000E-004	&Area (cm^2)
CONDIT	TWOPARAM	F	5.00000E+000	0.00000E+000	Conditionin&g	Time(s)	E(V)
DELAY	TWOPARAM	F	3.00000E+000	0.00000E+000	Init. De&lay	Time(s)	Stab.(mV/s)
SPEED	SELECTOR	0	&Optimize for:
ZGUESS	QUANT	1.00000E+003	E&stimated Z (ohms)
OCVCURVE	TABLE	39
	Pt	T	Vf	Vm	Ach	Over
	#	s	V vs. Ref.	V	V	bits
	0	0.258333	1.67934E-001	1.67934E-001	5.28383E-004	...........
	1	0.516667	1.67934E-001	1.67935E-001	5.31617E-004	...........
	2	0.775	1.67934E-001	1.67929E-001	5.28517E-004	...........
	3	1.03333	1.67934E-001	1.67929E-001	5.26617E-004	...........
	4	1.29167	1.67932E-001	1.67922E-001	5.31450E-004	...........
	5	1.55	1.67930E-001	1.67916E-001	5.24083E-004	...........
	6	1.80833	1.67927E-001	1.67913E-001	5.26683E-004	...........
	7	2.06667	1.67923E-001	1.67909E-001	5.25983E-004	...........
	8	2.325	1.67918E-001	1.67905E-001	5.26283E-004	...........
	9	2.58333	1.67914E-001	1.67899E-001	5.29483E-004	...........
	10	2.84167	1.67909E-001	1.67897E-001	5.29050E-004	...........
	11	3.1	1.67905E-001	1.67892E-001	5.32550E-004	...........
	12	3.35833	1.67901E-001	1.67887E-001	5.31383E-004	...........
	13	3.61667	1.67896E-001	1.67885E-001	5.31217E-004	...........
	14	3.875	1.67892E-001	1.67883E-001	5.28450E-004	...........
	15	4.13333	1.67889E-001	1.67880E-001	5.32850E-004	...........
	16	4.39167	1.67886E-001	1.67875E-001	5.33550E-004	...........
	17	4.65	1.67883E-001	1.67872E-001	5.32083E-004	...........
	18	4.90833	1.67879E-001	1.67869E-001	5.30283E-004	...........
	19	5.16667	1.67876E-001	1.67865E-001	5.31483E-004	...........
	20	5.425	1.67872E-001	1.67860E-001	5.28483E-004	...........
	21	5.68333	1.67869E-001	1.67857E-001	5.32883E-004	...........
	22	5.94167	1.67865E-001	1.67855E-001	5.29650E-004	...........
	23	6.2	1.67861E-001	1.67851E-001	5.25450E-004	...........
	24	6.45833	1.67858E-001	1.67847E-001	5.28550E-004	...........
	25	6.71667	1.67854E-001	1.67844E-001	5.24750E-004	...........
	26	6.975	1.67851E-001	1.67841E-001	5.27417E-004	...........
	27	7.23333	1.67848E-001	1.67836E-001	5.28417E-004	...........
	28	7.49167	1.67844E-001	1.67834E-001	5.27517E-004	...........
	29	7.75	1.67841E-001	1.67832E-001	5.28817E-004	...........
	30	8.00833	1.67837E-001	1.67829E-001	5.26250E-004	...........
	31	8.26667	1.67834E-001	1.67826E-001	5.26817E-004	...........
	32	8.525	1.67832E-001	1.67824E-001	5.28683E-004	...........
	33	8.78333	1.67829E-001	1.67819E-001	5.25017E-004	...........
	34	9.04167	1.67826E-001	1.67819E-001	5.27250E-004	...........
	35	9.3	1.67823E-001	1.67813E-001	5.25517E-004	...........
	36	9.5583	1.67820E-001	1.67810E-001	5.24317E-004	...........
	37	9.8167	1.67817E-001	1.67809E-001	5.23850E-004	...........
	38	10.075	1.67814E-001	1.67806E-001	5.21983E-004	...........
EOC	QUANT	0.167814	Open Circuit (V)
PSTATMODEL	IQUANT	4	Pstat Model
PSTATSECTION	LABEL	REF600-11020	Pstat Section
PSTATSERIALNO	LABEL	11020	Pstat Serial Number
CTRLMODE	IQUANT	1	Control Mode
IESTAB	IQUANT	0	I/E Stability
CASPEED	IQUANT	1	Control Amp Speed
CONVENTION	IQUANT	1	Current Convention
ICHRANGE	IQUANT	2	Ich Range
ICHRANGEMODE	TOGGLE	F	Ich Auto Range
ICHOFFSETENABLE	TOGGLE	T	Ich Offset Enable
ICHOFFSET	QUANT	0	Ich Offset (V)
ICHFILTER	IQUANT	3	Ich Filter
VCHRANGE	IQUANT	2	Vch Range
VCHRANGEMODE	TOGGLE	F	Vch Auto Range
VCHOFFSETENABLE	TOGGLE	T	Vch Offset Enable
VCHOFFSET	QUANT	0	Vch Offset (V)
VCHFILTER	IQUANT	3	Vch Filter
ACHRANGE	IQUANT	2	Ach Range
ACHOFFSETENABLE	TOGGLE	F	Ach Offset Enable
ACHOFFSET	QUANT	0	Ach Offset (V)
ACHFILTER	IQUANT	3	Ach Filter
IERANGELOWERLIMIT	IQUANT	1	I/E Range Lower Limit
IERANGEMODE	TOGGLE	F	I/E AutoRange
IERANGE	IQUANT	8	I/E Range
POSFEEDENABLE	TOGGLE	F	Positive Feedback IR Comp
POSFEEDRESISTANCE	QUANT	0	Positive Feedback Resistance (ohm)
ACHSELECT	IQUANT	0	Ach Select
CABLEID	IQUANT	14	Cable ID
DCCALDATE	LABEL	6/26/2020	DC Calibration Date
ACCALDATE	LABEL	6/26/2020	AC Calibration Date
THERMOSELECT	IQUANT	1	Thermo Select
FRAMEWORKVERSION	QUANT	6.33	Framework Version
INSTRUMENTVERSION	LABEL	3.50	Instrument Version
ZCURVE	TABLE
	Pt	Time	Freq	Zreal	Zimag	Zsig	Zmod	Zphz	Idc	Vdc	IERange
	#	s	Hz	ohm	ohm	V	ohm	°	A	V	#
	0	1	1000078	1884.548	-1925.208	1	2694.058	-45.61147	1.515084E-007	0.1699607	8
	1	1	794390.6	2275.805	-2010.194	1	3036.473	-41.45382	-7.941612E-009	0.1697268	8
	2	1	630984.4	2678.93	-2039.544	1	3366.958	-37.28302	2.274059E-008	0.1695566	8
	3	2	501234.4	3073.888	-2001.971	1	3668.335	-33.07551	1.729877E-007	0.1694985	8
	4	2	398109.4	3443.906	-1922.64	1	3944.241	-29.17344	1.247345E-008	0.1694465	8
	5	2	316265.6	3767.903	-1800.377	1	4175.938	-25.53938	6.070383E-008	0.169423	8
	6	3	251203.1	4045.245	-1665.208	1	4374.577	-22.37431	3.740141E-008	0.1694065	8
	7	3	199546.9	4274.768	-1532.737	1	4541.247	-19.72552	8.663761E-008	0.1693894	8
	8	3	158578.1	4472.826	-1409.558	1	4689.672	-17.49162	7.984004E-008	0.1693891	8
	9	4	125953.1	4680.156	-1245.101	1	4842.947	-14.89781	4.824195E-008	0.1693481	7
	10	4	100078.1	4822.731	-1168.067	1	4962.169	-13.61488	1.151643E-008	0.1693769	7
	11	4	79453.13	4940.134	-1115.629	1	5064.539	-12.72562	-1.339949E-008	0.1694004	7
	12	4	63140.62	5050.006	-1087.012	1	5165.671	-12.14755	9.448938E-009	0.169376	7
	13	5	50203.12	5157.25	-1081.137	1	5269.354	-11.83972	-1.325255E-008	0.1693928	7
	14	5	39890.62	5263.393	-1097.937	1	5376.688	-11.78286	1.139924E-008	0.1693711	7
	15	5	31640.63	5373.518	-1137.826	1	5492.663	-11.95561	1.239311E-008	0.1693642	7
	16	6	25171.88	5486.074	-1199.381	1	5615.649	-12.33214	-1.333069E-008	0.1693877	7
	17	6	20015.62	5607.262	-1285.502	1	5752.73	-12.91231	-4.685764E-009	0.1693795	7
	18	6	15890.62	5737.046	-1397.234	1	5904.74	-13.68768	-1.438448E-009	0.1693811	7
	19	7	12609.37	5879.357	-1539.092	1	6077.47	-14.66964	1.164092E-008	0.1693546	7
	20	7	10078.13	6030.271	-1707.162	1	6267.262	-15.80675	8.682703E-009	0.1693725	7
	21	7	8015.625	6201.527	-1909.6	1	6488.875	-17.11486	1.281825E-008	0.1693584	7
	22	8	6328.125	6398.226	-2161.963	1	6753.62	-18.67013	5.058095E-010	0.169364	7
	23	8	5015.625	6615.747	-2456.419	1	7057.06	-20.36991	-1.301307E-008	0.1693859	7
	24	8	3984.375	6858.317	-2800.241	1	7407.959	-22.21013	2.848775E-009	0.1693838	7
	25	9	3170.956	7130.187	-3203.625	1	7816.826	-24.1946	-7.530282E-009	0.1693944	7
	26	9	2527.573	7438.311	-3674.624	1	8296.465	-26.28998	-1.205777E-008	0.1693836	7
	27	9	1976.103	7823.232	-4282.459	1	8918.655	-28.69642	5.097529E-009	0.1693667	7
	28	10	1577.524	8240.527	-4913.766	1	9594.34	-30.80731	-9.992638E-010	0.1693874	6
	29	10	1265.625	8693.289	-5658.096	1	10372.43	-33.05841	-2.789994E-010	0.1693503	6
	30	10	998.264	9262.718	-6595.179	1	11370.77	-35.45137	1.677318E-009	0.1693491	6
	31	10	796.875	9886.87	-7632.996	1	12490.51	-37.66936	1.891702E-009	0.1693417	6
	32	11	627.7902	10654.13	-8912.82	1	13890.61	-39.9145	-2.331744E-009	0.1693868	6
	33	11	505.5147	11466.11	-10264.91	1	15389.6	-41.83615	1.219235E-009	0.1693233	6
	34	11	397.9953	12493.71	-11992.27	1	17317.84	-43.82682	1.559685E-010	0.169381	6
	35	12	315.5048	13647.97	-13946.91	1	19513.67	-45.62067	1.120764E-010	0.1693805	6
	36	12	252.4038	14911.2	-16129.63	1	21966.09	-47.24786	2.051845E-010	0.1693777	6
	37	12	198.6229	16451.77	-18875.12	1	25038.59	-48.92423	1.983573E-010	0.1693774	6
	38	13	158.3615	18106.66	-21935.16	1	28442.96	-50.4616	1.91896E-010	0.1693749	6
	39	13	125.558	20036.13	-25645.49	1	32544.39	-52.00046	1.884734E-010	0.1693779	6
	40	13	100.4464	22156.74	-29879.95	1	37198.56	-53.44212	3.521847E-010	0.1693745	6
	41	14	79.00281	24811.8	-35335.88	1	43176.96	-54.92462	6.892263E-011	0.1693759	6
	42	14	63.3446	27675.89	-41339.15	1	49748.17	-56.19834	-7.073574E-011	0.1693785	6
	43	14	49.86702	31400.1	-49094.91	1	58277.58	-57.39786	-1.700555E-010	0.1693758	6
	44	15	39.72458	35700.31	-57869.7	1	67995.7	-58.32921	1.680736E-010	0.1693804	6
	45	15	31.6723	40932.82	-68198.98	1	79539.91	-59.02795	4.509279E-010	0.1693806	6
	46	15	24.93351	47766.02	-81060.35	1	94087.05	-59.49065	-5.69492E-010	0.1693767	6
	47	16	19.86229	55875.23	-95284	1	110458.5	-59.61234	-8.995044E-010	0.1693686	5
	48	16	15.83615	65929.15	-111789.1	1	129782.3	-59.46944	-9.293509E-010	0.1693662	5
	49	16	12.40079	79563.46	-132086.5	1	154198.5	-58.93697	-1.672138E-009	0.1693716	5
	50	17	9.93114	94626.16	-152565.4	1	179528	-58.19143	-1.739263E-009	0.169369	5
	51	17	7.944915	113080.2	-175624.8	1	208880.8	-57.22359	1.292196E-010	0.1693677	5
	52	17	6.317385	135515.9	-201077.2	1	242480.1	-56.022	-5.050249E-011	0.1693777	5
	53	18	5.008013	162031	-228624.5	1	280220	-54.67399	-5.542805E-010	0.169356	5
	54	19	3.945707	193643.5	-258575	1	323046.2	-53.17094	-1.799234E-010	0.1693613	5
	55	20	3.158693	225343.5	-288087.2	1	365751.2	-51.96727	-2.742801E-010	0.1693451	5
	56	21	2.504006	261782.8	-320594	1	413897	-50.76646	2.351849E-010	0.169348	5
	57	22	1.998082	297248	-355601.8	1	463474.9	-50.1077	1.824113E-010	0.1693607	5
	58	24	1.584686	336187.4	-395106	1	518778.1	-49.60624	-3.710653E-011	0.1693115	5
	59	26	1.266892	374382.9	-441831	1	579117.6	-49.72392	-5.526387E-011	0.1693043	5
	60	28	0.999041	414507.6	-501436.3	1	650580.5	-50.42148	-5.804029E-011	0.169327	5
