EXPLAIN
TAG	EISPOT
TITLE	LABEL	Potentiostatic EIS	Test &Identifier
DATE	LABEL	6/6/2020	Date
TIME	LABEL	13:40:26	Time
NOTES	NOTES	1	&Notes...
	
PSTAT	PSTAT	REF600-11020	Potentiostat
VDC	POTEN	0.00000E+000	T	DC &Voltage (V)
FREQINIT	QUANT	1.00000E+006	Initial Fre&q. (Hz)
FREQFINAL	QUANT	1.00000E+000	Final Fre&q. (Hz)
PTSPERDEC	QUANT	1.00000E+001	Points/&decade
VAC	QUANT	2.50000E+001	AC &Voltage (mV rms)
AREA	QUANT	2.50000E-001	&Area (cm^2)
CONDIT	TWOPARAM	F	5.00000E+000	0.00000E+000	Conditionin&g	Time(s)	E(V)
DELAY	TWOPARAM	T	3.00000E+000	0.00000E+000	Init. De&lay	Time(s)	Stab.(mV/s)
SPEED	SELECTOR	0	&Optimize for:
ZGUESS	QUANT	1.00000E+003	E&stimated Z (ohms)
OCVCURVE	TABLE	12
	Pt	T	Vf	Vm	Ach	Over
	#	s	V vs. Ref.	V	V	bits
	0	0.258333	-5.94172E-004	-5.94172E-004	5.80430E-004	...........
	1	0.516667	-5.92186E-004	-4.90197E-004	5.82197E-004	...........
	2	0.775	-5.80034E-004	-3.94046E-004	5.77363E-004	...........
	3	1.03333	-5.45724E-004	-2.97140E-004	5.83963E-004	...........
	4	1.29167	-4.84261E-004	-2.04807E-004	5.80597E-004	...........
	5	1.55	-4.02134E-004	-1.18717E-004	5.78297E-004	...........
	6	1.80833	-3.10480E-004	-3.16405E-005	5.81263E-004	...........
	7	2.06667	-2.17657E-004	5.30775E-005	5.76997E-004	...........
	8	2.325	-1.27309E-004	1.33833E-004	5.77730E-004	...........
	9	2.58333	-4.00893E-005	2.12839E-004	5.76063E-004	...........
	10	2.84167	4.42365E-005	2.90480E-004	5.75030E-004	...........
	11	3.1	1.26006E-004	3.66388E-004	5.78097E-004	...........
EOC	QUANT	0.000126	Open Circuit (V)
PSTATMODEL	IQUANT	4	Pstat Model
PSTATSECTION	LABEL	REF600-11020	Pstat Section
PSTATSERIALNO	LABEL	11020	Pstat Serial Number
CTRLMODE	IQUANT	1	Control Mode
IESTAB	IQUANT	0	I/E Stability
CASPEED	IQUANT	1	Control Amp Speed
CONVENTION	IQUANT	1	Current Convention
ICHRANGE	IQUANT	2	Ich Range
ICHRANGEMODE	TOGGLE	F	Ich Auto Range
ICHOFFSETENABLE	TOGGLE	T	Ich Offset Enable
ICHOFFSET	QUANT	0	Ich Offset (V)
ICHFILTER	IQUANT	3	Ich Filter
VCHRANGE	IQUANT	2	Vch Range
VCHRANGEMODE	TOGGLE	F	Vch Auto Range
VCHOFFSETENABLE	TOGGLE	T	Vch Offset Enable
VCHOFFSET	QUANT	0	Vch Offset (V)
VCHFILTER	IQUANT	3	Vch Filter
ACHRANGE	IQUANT	2	Ach Range
ACHOFFSETENABLE	TOGGLE	F	Ach Offset Enable
ACHOFFSET	QUANT	0	Ach Offset (V)
ACHFILTER	IQUANT	3	Ach Filter
IERANGELOWERLIMIT	IQUANT	1	I/E Range Lower Limit
IERANGEMODE	TOGGLE	F	I/E AutoRange
IERANGE	IQUANT	5	I/E Range
POSFEEDENABLE	TOGGLE	F	Positive Feedback IR Comp
POSFEEDRESISTANCE	QUANT	0	Positive Feedback Resistance (ohm)
ACHSELECT	IQUANT	0	Ach Select
CABLEID	IQUANT	14	Cable ID
DCCALDATE	LABEL	2/27/2020	DC Calibration Date
ACCALDATE	LABEL	2/27/2020	AC Calibration Date
THERMOSELECT	IQUANT	1	Thermo Select
FRAMEWORKVERSION	QUANT	6.33	Framework Version
INSTRUMENTVERSION	LABEL	3.50	Instrument Version
ZCURVE	TABLE
	Pt	Time	Freq	Zreal	Zimag	Zsig	Zmod	Zphz	Idc	Vdc	IERange
	#	s	Hz	ohm	ohm	V	ohm	°	A	V	#
	0	1	1000078	1999.019	-1672.594	1	2606.463	-39.91948	1.53703E-008	0.0028382	8
	1	2	794390.6	2315.082	-1724.764	1	2886.938	-36.68656	7.750813E-008	0.0024435	8
	2	2	630984.4	2639.37	-1737.891	1	3160.149	-33.36288	7.706679E-008	0.0022565	8
	3	2	501234.4	2953.71	-1716.984	1	3416.495	-30.16933	7.954517E-008	0.002132	8
	4	3	398109.4	3251.824	-1663.345	1	3652.543	-27.09026	7.484547E-008	0.0020557	8
	5	3	316265.6	3527.823	-1591.917	1	3870.367	-24.2871	5.510467E-008	0.0020067	8
	6	3	251203.1	3777.611	-1504.801	1	4066.297	-21.71974	7.967329E-008	0.0019959	8
	7	3	199546.9	3998.361	-1410.409	1	4239.828	-19.43014	3.150533E-008	0.0020237	8
	8	4	158578.1	4195.763	-1318.105	1	4397.935	-17.44019	8.720723E-008	0.0019977	8
	9	4	125953.1	4411.881	-1162.773	1	4562.536	-14.76483	1.988672E-009	0.0019365	7
	10	4	100078.1	4543.198	-1094.438	1	4673.162	-13.54426	2.176296E-009	0.0019192	7
	11	5	79453.13	4674.164	-1046.976	1	4789.986	-12.62541	1.746531E-009	0.0019163	7
	12	5	63140.62	4793.097	-1012.42	1	4898.854	-11.92696	2.645113E-009	0.0019119	7
	13	5	50203.12	4903.758	-992.133	1	5003.116	-11.43774	1.885635E-009	0.0019055	7
	14	6	39890.62	5009.332	-989.377	1	5106.101	-11.17251	1.423088E-009	0.0019024	7
	15	6	31640.63	5113.503	-1005.106	1	5211.348	-11.12024	2.131024E-009	0.0018954	7
	16	6	25171.88	5217.756	-1039.916	1	5320.376	-11.27155	2.745199E-009	0.0019057	7
	17	7	20015.62	5323.395	-1093.468	1	5434.538	-11.60756	2.542083E-009	0.0019017	7
	18	7	15890.62	5436.877	-1170.242	1	5561.394	-12.14711	3.08122E-009	0.0019021	7
	19	7	12609.37	5558.975	-1269.818	1	5702.161	-12.86712	3.203107E-009	0.0018975	7
	20	8	10078.13	5684.045	-1390.369	1	5851.624	-13.74517	2.728049E-009	0.0018997	7
	21	8	8015.625	5825.09	-1541.526	1	6025.61	-14.82272	3.482825E-009	0.0018988	7
	22	8	6328.125	5985.89	-1730.893	1	6231.121	-16.12786	3.528092E-009	0.0018993	7
	23	9	5015.625	6163.884	-1954.232	1	6466.258	-17.59099	3.803632E-009	0.0019009	7
	24	9	3984.375	6362.616	-2215.979	1	6737.465	-19.20226	4.064892E-009	0.0018997	7
	25	9	3170.956	6586.32	-2521.01	1	7052.312	-20.94508	5.000651E-009	0.0018977	7
	26	10	2527.573	6837.153	-2872.032	1	7415.877	-22.78546	2.519202E-009	0.0018882	7
	27	10	1976.103	7148.248	-3319.552	1	7881.426	-24.90953	4.670447E-009	0.0018996	7
	28	10	1577.524	7468.226	-3792.578	1	8376.04	-26.92276	3.438699E-009	0.0018906	7
	29	11	1265.625	7816.316	-4329.083	1	8935.086	-28.97997	2.889563E-009	0.0018839	7
	30	11	998.264	8242.242	-4997.485	1	9638.95	-31.22952	-4.080935E-010	0.001946	6
	31	11	796.875	8675.652	-5754.377	1	10410.56	-33.55548	-2.289475E-010	0.0019396	6
	32	11	627.7902	9182.617	-6708.613	1	11372.16	-36.15102	-1.151729E-010	0.0019353	6
	33	12	505.5147	9685.29	-7744.957	1	12401.18	-38.64798	-2.486415E-010	0.001944	6
	34	12	397.9953	10306.81	-9122.455	1	13764.07	-41.51172	3.185522E-010	0.0019571	6
	35	12	315.5048	10990.48	-10746.72	1	15371.49	-44.35753	3.472541E-010	0.0019575	6
	36	13	252.4038	11741.17	-12634.92	1	17248.07	-47.09981	2.27995E-010	0.0019566	6
	37	13	198.6229	12680.56	-15096.88	1	19715.79	-49.97158	3.315228E-010	0.0019585	6
	38	13	158.3615	13733.06	-17926.24	1	22582.01	-52.54473	3.566657E-010	0.0019551	6
	39	14	125.558	15030.68	-21438.83	1	26182.91	-54.96585	2.944459E-010	0.0019543	6
	40	14	100.4464	16554.81	-25512.15	1	30412.69	-57.02049	2.446293E-010	0.0019538	6
	41	14	79.00281	18597.92	-30804.77	1	35983.56	-58.87914	6.908023E-011	0.0019521	6
	42	15	63.3446	20965.33	-36638.7	1	42213.02	-60.22102	-3.604301E-011	0.0019513	6
	43	15	49.86702	24222.37	-44157.83	1	50365.04	-61.25344	4.626094E-010	0.0019481	6
	44	16	39.72458	28185.23	-52609.93	1	59684.27	-61.82028	6.098669E-011	0.0019533	6
	45	16	31.6723	33189.06	-62404.08	1	70680.85	-61.99412	1.571726E-010	0.0019528	6
	46	16	24.93351	39864.59	-74365.43	1	84376.55	-61.80587	-3.233061E-010	0.0019517	6
	47	17	19.86229	47697.29	-87333.24	1	99509.4	-61.35872	-1.266957E-009	0.0019475	6
	48	17	15.83615	57308.73	-101898.8	1	116908.7	-60.64624	3.811603E-010	0.0019527	5
	49	17	12.40079	70050.11	-119622.9	1	138624.2	-59.64715	-1.719444E-009	0.001957	5
	50	17	9.93114	83493.31	-137524.9	1	160885.8	-58.73748	-1.669039E-009	0.0019505	5
	51	18	7.944915	99655.4	-157632.4	1	186491.8	-57.69887	4.421261E-010	0.0019519	5
	52	18	6.317385	118889.4	-180591.2	1	216212.6	-56.64171	-2.630318E-010	0.0019526	5
	53	19	5.008013	141671.2	-206100.8	1	250096.5	-55.49584	-7.592087E-010	0.0019394	5
	54	20	3.945707	169279.9	-234776.4	1	289440.2	-54.20742	-4.28236E-010	0.0019475	5
	55	21	3.158693	197778.8	-263467.9	1	329441.6	-53.10535	-4.226084E-010	0.0019267	5
	56	22	2.504006	231786.4	-295625.4	1	375658.5	-51.90163	1.456618E-010	0.0019386	5
	57	23	1.998082	266049.1	-329285.4	1	423333.2	-51.06321	1.820385E-012	0.0019329	5
	58	25	1.584686	305389.2	-367106	1	477524.2	-50.2435	-2.386539E-010	0.0018834	5
	59	27	1.266892	344020.3	-410130.7	1	535310.3	-50.00986	-2.338001E-010	0.0018876	5
	60	29	0.999041	385717.3	-462707.3	1	602391.8	-50.18508	-2.057873E-010	0.0019147	5
