EXPLAIN
TAG	EISPOT
TITLE	LABEL	Potentiostatic EIS	Test &Identifier
DATE	LABEL	1/7/2021	Date
TIME	LABEL	16:11:58	Time
NOTES	NOTES	1	&Notes...
	
PSTAT	PSTAT	REF600-11020	Potentiostat
VDC	POTEN	0.00000E+000	T	DC &Voltage (V)
FREQINIT	QUANT	1.00000E+006	Initial Fre&q. (Hz)
FREQFINAL	QUANT	1.00000E+000	Final Fre&q. (Hz)
PTSPERDEC	QUANT	1.00000E+001	Points/&decade
VAC	QUANT	2.50000E+001	AC &Voltage (mV rms)
AREA	QUANT	4.00000E-005	&Area (cm^2)
CONDIT	TWOPARAM	F	5.00000E+000	0.00000E+000	Conditionin&g	Time(s)	E(V)
DELAY	TWOPARAM	F	3.00000E+000	0.00000E+000	Init. De&lay	Time(s)	Stab.(mV/s)
SPEED	SELECTOR	0	&Optimize for:
ZGUESS	QUANT	1.00000E+003	E&stimated Z (ohms)
OCVCURVE	TABLE	39
	Pt	T	Vf	Vm	Ach	Over
	#	s	V vs. Ref.	V	V	bits
	0	0.258333	7.76391E-002	7.76391E-002	5.26759E-004	...........
	1	0.516667	7.76632E-002	7.89026E-002	5.29959E-004	...........
	2	0.775	7.78647E-002	8.28858E-002	5.30359E-004	...........
	3	1.03333	7.85229E-002	8.20768E-002	5.31359E-004	...........
	4	1.29167	7.96060E-002	7.86329E-002	5.21792E-004	...........
	5	1.55	8.04908E-002	7.94465E-002	5.21926E-004	...........
	6	1.80833	8.06019E-002	7.78704E-002	5.24992E-004	...........
	7	2.06667	8.00455E-002	7.87879E-002	5.17859E-004	...........
	8	2.325	7.93376E-002	7.92698E-002	5.21326E-004	...........
	9	2.58333	7.89170E-002	8.04515E-002	5.21026E-004	...........
	10	2.84167	7.89558E-002	8.01107E-002	5.22459E-004	...........
	11	3.1	7.93228E-002	7.98650E-002	5.21892E-004	...........
	12	3.35833	7.97175E-002	7.98581E-002	5.20226E-004	...........
	13	3.61667	7.99403E-002	8.02768E-002	5.28159E-004	...........
	14	3.875	8.00116E-002	7.99234E-002	5.20492E-004	...........
	15	4.13333	8.00304E-002	8.00188E-002	5.21693E-004	...........
	16	4.39167	8.00353E-002	7.99912E-002	5.24059E-004	...........
	17	4.65	8.00301E-002	8.01860E-002	5.32259E-004	...........
	18	4.90833	8.00291E-002	7.98953E-002	5.23892E-004	...........
	19	5.16667	8.00336E-002	7.99975E-002	5.29592E-004	...........
	20	5.425	8.00321E-002	8.02405E-002	5.33059E-004	...........
	21	5.68333	8.00411E-002	8.03502E-002	5.33792E-004	...........
	22	5.94167	8.01025E-002	8.08906E-002	5.34192E-004	...........
	23	6.2	8.02491E-002	8.11606E-002	5.31692E-004	...........
	24	6.45833	8.04749E-002	8.08444E-002	5.27326E-004	...........
	25	6.71667	8.07183E-002	8.13167E-002	5.20959E-004	...........
	26	6.975	8.09219E-002	8.16073E-002	5.27826E-004	...........
	27	7.23333	8.11010E-002	8.16636E-002	5.16826E-004	...........
	28	7.49167	8.12504E-002	7.97308E-002	5.18193E-004	...........
	29	7.75	8.12297E-002	7.95986E-002	5.18626E-004	...........
	30	8.00833	8.09148E-002	7.96984E-002	5.18426E-004	...........
	31	8.26667	8.03926E-002	7.82007E-002	5.18459E-004	...........
	32	8.525	7.98265E-002	7.86106E-002	5.15059E-004	...........
	33	8.78333	7.93345E-002	8.03126E-002	5.14526E-004	...........
	34	9.04167	7.90905E-002	7.99934E-002	5.18193E-004	...........
	35	9.3	7.92159E-002	8.05342E-002	5.22093E-004	...........
	36	9.5583	7.95873E-002	8.02554E-002	5.26759E-004	...........
	37	9.8167	7.99685E-002	8.04514E-002	5.18926E-004	...........
	38	10.075	8.02188E-002	8.00684E-002	5.22792E-004	...........
EOC	QUANT	0.0802188	Open Circuit (V)
PSTATMODEL	IQUANT	4	Pstat Model
PSTATSECTION	LABEL	REF600-11020	Pstat Section
PSTATSERIALNO	LABEL	11020	Pstat Serial Number
CTRLMODE	IQUANT	1	Control Mode
IESTAB	IQUANT	0	I/E Stability
CASPEED	IQUANT	1	Control Amp Speed
CONVENTION	IQUANT	1	Current Convention
ICHRANGE	IQUANT	2	Ich Range
ICHRANGEMODE	TOGGLE	F	Ich Auto Range
ICHOFFSETENABLE	TOGGLE	T	Ich Offset Enable
ICHOFFSET	QUANT	0	Ich Offset (V)
ICHFILTER	IQUANT	3	Ich Filter
VCHRANGE	IQUANT	2	Vch Range
VCHRANGEMODE	TOGGLE	F	Vch Auto Range
VCHOFFSETENABLE	TOGGLE	T	Vch Offset Enable
VCHOFFSET	QUANT	0	Vch Offset (V)
VCHFILTER	IQUANT	3	Vch Filter
ACHRANGE	IQUANT	2	Ach Range
ACHOFFSETENABLE	TOGGLE	F	Ach Offset Enable
ACHOFFSET	QUANT	0	Ach Offset (V)
ACHFILTER	IQUANT	3	Ach Filter
IERANGELOWERLIMIT	IQUANT	1	I/E Range Lower Limit
IERANGEMODE	TOGGLE	F	I/E AutoRange
IERANGE	IQUANT	8	I/E Range
POSFEEDENABLE	TOGGLE	F	Positive Feedback IR Comp
POSFEEDRESISTANCE	QUANT	0	Positive Feedback Resistance (ohm)
ACHSELECT	IQUANT	0	Ach Select
CABLEID	IQUANT	14	Cable ID
DCCALDATE	LABEL	9/1/2020	DC Calibration Date
ACCALDATE	LABEL	9/1/2020	AC Calibration Date
THERMOSELECT	IQUANT	1	Thermo Select
FRAMEWORKVERSION	QUANT	6.33	Framework Version
INSTRUMENTVERSION	LABEL	3.50	Instrument Version
ZCURVE	TABLE
	Pt	Time	Freq	Zreal	Zimag	Zsig	Zmod	Zphz	Idc	Vdc	IERange
	#	s	Hz	ohm	ohm	V	ohm	°	A	V	#
	0	2	1000078	848.0165	-7824.77	1	7870.588	-83.81466	7.251916E-008	0.0821761	8
	1	2	794390.6	997.761	-9718.52	1	9769.61	-84.13821	8.107146E-008	0.081943	8
	2	2	630984.4	1175.654	-12066.45	1	12123.59	-84.43514	7.989362E-008	0.0818252	8
	3	3	501234.4	1369.137	-15015.19	1	15077.48	-84.78998	6.618797E-008	0.0817451	8
	4	3	398109.4	1561.897	-18680.67	1	18745.85	-85.2206	8.364497E-008	0.0817076	8
	5	3	316265.6	1891.562	-23320.54	1	23397.13	-85.36281	3.586889E-008	0.0817048	8
	6	4	251203.1	2202.616	-29072.87	1	29156.19	-85.66744	5.553613E-008	0.0816738	8
	7	4	199546.9	2650.438	-36144.28	1	36241.33	-85.80605	4.950147E-008	0.0816806	8
	8	4	158578.1	3155.922	-45189.68	1	45299.75	-86.0051	6.383281E-008	0.0816749	8
	9	4	125953.1	4101.163	-56427.79	1	56576.63	-85.84306	-7.851382E-009	0.0817147	7
	10	5	100078.1	5102.774	-70209.98	1	70395.17	-85.84312	7.164428E-009	0.0816518	7
	11	5	79453.13	6290.007	-87765.05	1	87990.16	-85.9007	-1.542371E-009	0.0816496	7
	12	5	63140.62	7570.477	-109278.9	1	109540.9	-86.03707	6.805547E-009	0.0816489	7
	13	6	50203.12	9185.872	-136460	1	136768.9	-86.14892	-4.198546E-009	0.0816416	7
	14	6	39890.62	11029.49	-170056.1	1	170413.4	-86.28912	-4.754185E-009	0.0816457	7
	15	6	31640.63	14183.16	-212027.4	1	212501.3	-86.17301	7.189927E-009	0.0816378	7
	16	7	25171.88	18257.87	-263930.6	1	264561.4	-86.04277	7.901696E-009	0.0816391	7
	17	7	20015.62	19739.92	-329464.8	1	330055.6	-86.57121	-2.197773E-009	0.081636	7
	18	7	15890.62	26171.12	-411034.9	1	411867.3	-86.35682	7.307491E-009	0.0816346	7
	19	8	12609.37	34043.82	-513754.9	1	514881.7	-86.20885	-3.471749E-010	0.0816413	6
	20	8	10078.13	42844.01	-636783.6	1	638223.3	-86.15083	1.755656E-009	0.081622	6
	21	8	8015.625	54968.21	-793432.8	1	795334.6	-86.03694	5.250528E-010	0.0816436	6
	22	9	6328.125	63388.23	-996854	1	998867	-86.36156	-8.830606E-010	0.0816487	6
	23	9	5015.625	87292.13	-1242189	1	1245253	-85.98027	1.268147E-009	0.0816295	6
	24	9	3984.375	95823.2	-1554245	1	1557197	-86.47204	1.803793E-010	0.0816253	6
	25	10	3170.956	118549.8	-1933036	1	1936667	-86.49054	-9.330201E-010	0.0816348	6
	26	10	2527.573	178290.5	-2405963	1	2412560	-85.76192	1.233102E-009	0.081623	6
	27	10	1976.103	177004	-3050475	1	3055606	-86.67913	-9.503849E-010	0.0816333	6
	28	11	1577.524	211713.6	-3785133	1	3791050	-86.79861	-7.163817E-010	0.0816323	6
	29	11	1265.625	371138.1	-4659294	1	4674052	-85.44569	3.805796E-011	0.0816265	5
	30	11	998.264	454856.2	-5856349	1	5873987	-85.55882	-7.627936E-012	0.0816106	5
	31	12	796.875	564712.6	-7269010	1	7290913	-85.55775	-1.115011E-011	0.0816139	5
	32	12	627.7902	732351.2	-9124938	1	9154279	-85.41138	-1.21876E-010	0.0816313	5
	33	12	505.5147	976639	-1.123502E+007	1	1.127739E+007	-85.03188	1.350132E-010	0.081607	5
	34	13	397.9953	1242085	-1.40982E+007	1	1.415281E+007	-84.9651	5.495161E-012	0.0816453	5
	35	13	315.5048	1641237	-1.758904E+007	1	1.766545E+007	-84.66916	-3.226964E-012	0.0816411	5
	36	13	252.4038	2165872	-2.176603E+007	1	2.187352E+007	-84.31738	-2.089396E-012	0.0816388	5
	37	13	198.6229	2880054	-2.730562E+007	1	2.745709E+007	-83.979	2.271006E-013	0.081638	5
	38	14	158.3615	3915149	-3.383165E+007	1	3.405744E+007	-83.39884	2.492615E-012	0.0816348	5
	39	14	125.558	5334927	-4.213471E+007	1	4.247111E+007	-82.78384	-1.199946E-011	0.0816422	4
	40	14	100.4464	7257912	-5.191409E+007	1	5.241898E+007	-82.04128	-1.218228E-011	0.0816405	4
	41	15	79.00281	1.015268E+007	-6.484773E+007	1	6.563768E+007	-81.1019	-1.249089E-011	0.0816367	4
	42	15	63.3446	1.438555E+007	-7.929857E+007	1	8.059285E+007	-79.7178	-1.16678E-011	0.0816335	4
	43	16	49.86702	2.015236E+007	-9.871955E+007	1	1.007555E+008	-78.46231	-1.169487E-011	0.0816337	4
	44	16	39.72458	2.779778E+007	-1.205196E+008	1	1.236838E+008	-77.01189	-1.157311E-011	0.0816367	4
	45	16	31.6723	3.913416E+007	-1.471347E+008	1	1.522501E+008	-75.10558	-1.18114E-011	0.0816349	4
	46	17	24.93351	5.507079E+007	-1.788453E+008	1	1.871321E+008	-72.88513	-1.231929E-011	0.0816337	4
	47	17	19.86229	7.722353E+007	-2.122008E+008	1	2.258156E+008	-70.00269	-1.219548E-011	0.0816404	4
	48	17	15.83615	1.050579E+008	-2.516702E+008	1	2.727179E+008	-67.34226	-1.200258E-011	0.0816344	4
	49	17	12.40079	1.490327E+008	-3.000548E+008	1	3.350277E+008	-63.5871	-1.431164E-012	0.0816315	3
	50	18	9.93114	1.969454E+008	-3.394992E+008	1	3.924885E+008	-59.88174	-1.094308E-012	0.0816326	3
	51	18	7.944915	2.573662E+008	-3.745921E+008	1	4.54485E+008	-55.50871	-1.443894E-012	0.0816247	3
	52	19	6.317385	3.283001E+008	-4.116682E+008	1	5.265469E+008	-51.42809	-1.364272E-012	0.0816408	3
	53	19	5.008013	4.112762E+008	-4.37656E+008	1	6.005754E+008	-46.77984	-1.312037E-012	0.0816297	3
	54	20	3.945707	5.014058E+008	-4.506664E+008	1	6.741721E+008	-41.94938	-1.18495E-012	0.0816233	3
	55	21	3.158693	5.852082E+008	-4.535277E+008	1	7.403756E+008	-37.77515	-1.130004E-012	0.0816382	3
	56	23	2.504006	6.691996E+008	-4.432769E+008	1	8.02697E+008	-33.52044	-1.175669E-012	0.0816311	3
	57	24	1.998082	7.437491E+008	-4.2727E+008	1	8.577426E+008	-29.87657	-1.151534E-012	0.0816204	3
	58	26	1.584686	8.154979E+008	-4.022238E+008	1	9.092968E+008	-26.25366	-9.311959E-013	0.0816672	3
	59	28	1.266892	8.735283E+008	-3.762191E+008	1	9.511007E+008	-23.30102	-2.801538E-012	0.0816806	2
	60	30	0.999041	9.310573E+008	-3.498851E+008	1	9.946292E+008	-20.59588	-2.785729E-012	0.0816597	2
