EXPLAIN
TAG	EISPOT
TITLE	LABEL	Potentiostatic EIS	Test &Identifier
DATE	LABEL	6/10/2021	Date
TIME	LABEL	15:28:00	Time
NOTES	NOTES	1	&Notes...
	
PSTAT	PSTAT	REF600-11020	Potentiostat
VDC	POTEN	0.00000E+000	T	DC &Voltage (V)
FREQINIT	QUANT	1.00000E+006	Initial Fre&q. (Hz)
FREQFINAL	QUANT	1.00000E+000	Final Fre&q. (Hz)
PTSPERDEC	QUANT	1.00000E+001	Points/&decade
VAC	QUANT	2.50000E+001	AC &Voltage (mV rms)
AREA	QUANT	4.00000E-005	&Area (cm^2)
CONDIT	TWOPARAM	F	5.00000E+000	0.00000E+000	Conditionin&g	Time(s)	E(V)
DELAY	TWOPARAM	F	3.00000E+000	0.00000E+000	Init. De&lay	Time(s)	Stab.(mV/s)
SPEED	SELECTOR	0	&Optimize for:
ZGUESS	QUANT	1.00000E+003	E&stimated Z (ohms)
OCVCURVE	TABLE	39
	Pt	T	Vf	Vm	Ach	Over
	#	s	V vs. Ref.	V	V	bits
	0	0.258333	-3.69814E-002	-3.69814E-002	5.65192E-004	...........
	1	0.516667	-3.69815E-002	-3.69849E-002	5.68025E-004	...........
	2	0.775	-3.69822E-002	-3.70073E-002	5.69658E-004	...........
	3	1.03333	-3.69856E-002	-3.70282E-002	5.62225E-004	...........
	4	1.29167	-3.69940E-002	-3.70507E-002	5.61692E-004	...........
	5	1.55	-3.70082E-002	-3.70656E-002	5.61192E-004	...........
	6	1.80833	-3.70260E-002	-3.70724E-002	5.61159E-004	...........
	7	2.06667	-3.70444E-002	-3.71047E-002	5.67092E-004	...........
	8	2.325	-3.70622E-002	-3.71276E-002	5.60725E-004	...........
	9	2.58333	-3.70809E-002	-3.71415E-002	5.62925E-004	...........
	10	2.84167	-3.71007E-002	-3.71455E-002	5.70592E-004	...........
	11	3.1	-3.71190E-002	-3.71394E-002	5.65592E-004	...........
	12	3.35833	-3.71327E-002	-3.71574E-002	5.70592E-004	...........
	13	3.61667	-3.71417E-002	-3.71761E-002	5.64325E-004	...........
	14	3.875	-3.71497E-002	-3.71888E-002	5.64792E-004	...........
	15	4.13333	-3.71598E-002	-3.71902E-002	5.66792E-004	...........
	16	4.39167	-3.71716E-002	-3.72105E-002	5.65525E-004	...........
	17	4.65	-3.71836E-002	-3.72265E-002	5.60959E-004	...........
	18	4.90833	-3.71961E-002	-3.72446E-002	5.67892E-004	...........
	19	5.16667	-3.72104E-002	-3.72736E-002	5.61392E-004	...........
	20	5.425	-3.72270E-002	-3.72743E-002	5.68025E-004	...........
	21	5.68333	-3.72451E-002	-3.73006E-002	5.71392E-004	...........
	22	5.94167	-3.72629E-002	-3.73149E-002	5.66725E-004	...........
	23	6.2	-3.72801E-002	-3.73365E-002	5.63325E-004	...........
	24	6.45833	-3.72972E-002	-3.73404E-002	5.61792E-004	...........
	25	6.71667	-3.73139E-002	-3.73595E-002	5.61825E-004	...........
	26	6.975	-3.73293E-002	-3.73749E-002	5.60359E-004	...........
	27	7.23333	-3.73438E-002	-3.73846E-002	5.60125E-004	...........
	28	7.49167	-3.73579E-002	-3.74018E-002	5.61125E-004	...........
	29	7.75	-3.73719E-002	-3.74186E-002	5.67658E-004	...........
	30	8.00833	-3.73862E-002	-3.74328E-002	5.66625E-004	...........
	31	8.26667	-3.74012E-002	-3.74519E-002	5.59392E-004	...........
	32	8.525	-3.74169E-002	-3.74694E-002	5.65125E-004	...........
	33	8.78333	-3.74332E-002	-3.74836E-002	5.65758E-004	...........
	34	9.04167	-3.74499E-002	-3.74930E-002	5.68458E-004	...........
	35	9.3	-3.74658E-002	-3.75105E-002	5.68125E-004	...........
	36	9.5583	-3.74805E-002	-3.75170E-002	5.65225E-004	...........
	37	9.8167	-3.74938E-002	-3.75282E-002	5.74558E-004	...........
	38	10.075	-3.75060E-002	-3.75412E-002	5.69958E-004	...........
EOC	QUANT	-0.037506	Open Circuit (V)
PSTATMODEL	IQUANT	4	Pstat Model
PSTATSECTION	LABEL	REF600-11020	Pstat Section
PSTATSERIALNO	LABEL	11020	Pstat Serial Number
CTRLMODE	IQUANT	1	Control Mode
IESTAB	IQUANT	0	I/E Stability
CASPEED	IQUANT	1	Control Amp Speed
CONVENTION	IQUANT	1	Current Convention
ICHRANGE	IQUANT	2	Ich Range
ICHRANGEMODE	TOGGLE	F	Ich Auto Range
ICHOFFSETENABLE	TOGGLE	T	Ich Offset Enable
ICHOFFSET	QUANT	0	Ich Offset (V)
ICHFILTER	IQUANT	3	Ich Filter
VCHRANGE	IQUANT	2	Vch Range
VCHRANGEMODE	TOGGLE	F	Vch Auto Range
VCHOFFSETENABLE	TOGGLE	T	Vch Offset Enable
VCHOFFSET	QUANT	0	Vch Offset (V)
VCHFILTER	IQUANT	3	Vch Filter
ACHRANGE	IQUANT	2	Ach Range
ACHOFFSETENABLE	TOGGLE	F	Ach Offset Enable
ACHOFFSET	QUANT	0	Ach Offset (V)
ACHFILTER	IQUANT	3	Ach Filter
IERANGELOWERLIMIT	IQUANT	1	I/E Range Lower Limit
IERANGEMODE	TOGGLE	F	I/E AutoRange
IERANGE	IQUANT	7	I/E Range
POSFEEDENABLE	TOGGLE	F	Positive Feedback IR Comp
POSFEEDRESISTANCE	QUANT	0	Positive Feedback Resistance (ohm)
ACHSELECT	IQUANT	0	Ach Select
CABLEID	IQUANT	14	Cable ID
DCCALDATE	LABEL	9/1/2020	DC Calibration Date
ACCALDATE	LABEL	9/1/2020	AC Calibration Date
THERMOSELECT	IQUANT	1	Thermo Select
FRAMEWORKVERSION	QUANT	6.33	Framework Version
INSTRUMENTVERSION	LABEL	3.50	Instrument Version
ZCURVE	TABLE
	Pt	Time	Freq	Zreal	Zimag	Zsig	Zmod	Zphz	Idc	Vdc	IERange
	#	s	Hz	ohm	ohm	V	ohm	°	A	V	#
	0	1	1000078	828.0948	-3858.673	1	3946.53	-77.8877	1.531564E-007	-0.03535	8
	1	2	794390.6	1066.288	-4758.961	1	4876.954	-77.37095	2.736225E-008	-0.035683	8
	2	2	630984.4	1413.139	-5859.542	1	6027.537	-76.44096	3.27017E-008	-0.0358442	8
	3	2	501234.4	1913.315	-7169.74	1	7420.643	-75.05826	7.883429E-008	-0.0359158	8
	4	3	398109.4	2583.047	-8735.956	1	9109.833	-73.52811	3.024737E-008	-0.0359967	8
	5	3	316265.6	3544.921	-10543.58	1	11123.56	-71.41653	1.362687E-008	-0.0360066	8
	6	3	251203.1	4844.11	-12617.74	1	13515.65	-68.99757	4.550997E-008	-0.0360368	8
	7	4	199546.9	6534.636	-14862.29	1	16235.43	-66.26593	5.595805E-008	-0.0360322	8
	8	4	158578.1	8776.064	-17196.71	1	19306.63	-62.96323	3.659952E-008	-0.0360365	8
	9	4	125953.1	11711.79	-19544.55	1	22784.99	-59.06846	-2.819085E-009	-0.0360397	7
	10	5	100078.1	14955.05	-21824.88	1	26457.12	-55.57992	-1.95164E-009	-0.0360585	7
	11	5	79453.13	18604.39	-23989.01	1	30357.8	-52.20505	-1.701455E-009	-0.0360596	7
	12	5	63140.62	22655.08	-25920.25	1	34425.46	-48.84557	-1.905704E-009	-0.0360614	7
	13	6	50203.12	27020.33	-27642.67	1	38655.08	-45.65229	-6.230315E-010	-0.0360644	7
	14	6	39890.62	31588.29	-29072.98	1	42930.86	-42.6256	-4.148848E-010	-0.0360671	7
	15	6	31640.63	36320.19	-30189.39	1	47228.75	-39.73341	-1.534883E-009	-0.0360687	7
	16	7	25171.88	41061.57	-31187.42	1	51562.66	-37.21769	-1.823359E-009	-0.0360755	7
	17	7	20015.62	45780.6	-32045.96	1	55882.07	-34.99163	-3.789435E-010	-0.0360719	7
	18	7	15890.62	50390.27	-32907.86	1	60183.94	-33.14694	-7.405935E-011	-0.0360795	7
	19	8	12609.37	55125.42	-33533.96	1	64523.94	-31.31303	1.244205E-011	-0.0360806	6
	20	8	10078.13	59356.95	-34701.03	1	68756.16	-30.31125	1.627761E-010	-0.0360824	6
	21	8	8015.625	63632.98	-36243.84	1	73230.95	-29.66482	2.369563E-010	-0.0360814	6
	22	8	6328.125	68133.59	-38363.3	1	78191.63	-29.38212	2.355354E-010	-0.0360774	6
	23	9	5015.625	72712.03	-40971.44	1	83460.76	-29.40019	1.011745E-010	-0.0360763	6
	24	9	3984.375	77655.08	-44366.82	1	89435.59	-29.7407	2.443186E-010	-0.0360766	6
	25	9	3170.956	83079.61	-48338.47	1	96118.8	-30.19226	1.21023E-010	-0.0360762	6
	26	10	2527.573	89150.05	-52866.85	1	103646.7	-30.66835	-6.004698E-011	-0.0360823	6
	27	10	1976.103	96557.4	-58510.01	1	112901.5	-31.21422	7.281613E-011	-0.0360783	6
	28	10	1577.524	104293.3	-64161.93	1	122449.4	-31.60011	-6.115385E-011	-0.0360865	6
	29	11	1265.625	113799.2	-69112.11	1	133141.8	-31.27099	-1.214139E-010	-0.0360908	5
	30	11	998.264	124056.3	-75971.48	1	145470.4	-31.4831	-1.039631E-010	-0.0360893	5
	31	11	796.875	134931.1	-82492.87	1	158150.2	-31.44037	-1.136324E-010	-0.0360887	5
	32	12	627.7902	147790.6	-89335.84	1	172693.2	-31.15195	-9.186263E-011	-0.036092	5
	33	12	505.5147	160065.2	-95508	1	186393.8	-30.82376	-1.255398E-010	-0.0360886	5
	34	12	397.9953	174158.4	-102002.4	1	201830.8	-30.35697	-5.004151E-011	-0.0360661	5
	35	13	315.5048	188429.5	-109002	1	217685.9	-30.04837	-3.226634E-011	-0.0360675	5
	36	13	252.4038	202181.8	-115862.4	1	233027	-29.81532	-3.470029E-011	-0.0360749	5
	37	13	198.6229	216977.7	-123786.5	1	249804.7	-29.70491	-3.323531E-011	-0.0360737	5
	38	14	158.3615	230448	-132774.8	1	265961.3	-29.94881	-3.265531E-011	-0.0360762	5
	39	14	125.558	243923.9	-144565.2	1	283545.3	-30.65374	-3.674275E-011	-0.0360748	5
	40	14	100.4464	256414	-158349.8	1	301368.2	-31.69762	-2.557918E-011	-0.0360778	5
	41	15	79.00281	270250.4	-177864.1	1	323528.8	-33.35073	-3.331375E-011	-0.0360803	5
	42	15	63.3446	282174.3	-200583.5	1	346202.4	-35.4071	-4.673637E-011	-0.0360775	5
	43	15	49.86702	295162.2	-232084.4	1	375478.2	-38.17777	-4.589248E-011	-0.0360801	5
	44	16	39.72458	307446.6	-269859.4	1	409081.3	-41.27485	-4.335315E-011	-0.0360767	5
	45	16	31.6723	320794.8	-317037.1	1	451023.1	-44.66246	-5.23659E-011	-0.0360767	5
	46	16	24.93351	336295.9	-379816	1	507301.8	-48.47774	-3.754845E-011	-0.0360768	5
	47	17	19.86229	353638.6	-454931.1	1	576214	-52.14045	-5.894003E-011	-0.0360725	5
	48	17	15.83615	373700.7	-548490	1	663696.9	-55.73236	-5.768975E-011	-0.0360783	5
	49	17	12.40079	398211.4	-672301.5	1	781384.4	-59.36129	1.483887E-011	-0.0360774	5
	50	17	9.93114	423950.8	-811879.7	1	915905.6	-62.42714	-1.894248E-011	-0.0360756	5
	51	18	7.944915	455841.3	-985957	1	1086233	-65.18729	-5.480442E-011	-0.0360758	4
	52	18	6.317385	493824.4	-1204068	1	1301401	-67.7	3.902129E-012	-0.0360926	4
	53	19	5.008013	540557.6	-1476965	1	1572777	-69.89777	9.230268E-012	-0.0360723	4
	54	20	3.945707	598842.8	-1820418	1	1916386	-71.79092	-8.85528E-012	-0.0360807	4
	55	21	3.158693	662592.2	-2218432	1	2315269	-73.37038	3.64606E-012	-0.0360698	4
	56	22	2.504006	748655.5	-2729626	1	2830432	-74.66262	-1.123625E-011	-0.0360737	4
	57	23	1.998082	837963.1	-3333307	1	3437021	-75.88877	-4.160464E-012	-0.0361074	4
	58	25	1.584686	965180	-4098231	1	4210353	-76.74768	-9.615682E-013	-0.0360629	4
	59	27	1.266892	1114427	-5026425	1	5148485	-77.49896	-6.367159E-012	-0.0360393	4
	60	29	0.999041	1310346	-6233029	1	6369275	-78.12781	-9.038217E-012	-0.0360395	4
