EXPLAIN
TAG	EISPOT
TITLE	LABEL	Potentiostatic EIS	Test &Identifier
DATE	LABEL	6/10/2021	Date
TIME	LABEL	15:48:27	Time
NOTES	NOTES	1	&Notes...
	
PSTAT	PSTAT	REF600-11020	Potentiostat
VDC	POTEN	0.00000E+000	T	DC &Voltage (V)
FREQINIT	QUANT	1.00000E+006	Initial Fre&q. (Hz)
FREQFINAL	QUANT	1.00000E+000	Final Fre&q. (Hz)
PTSPERDEC	QUANT	1.00000E+001	Points/&decade
VAC	QUANT	2.50000E+001	AC &Voltage (mV rms)
AREA	QUANT	4.00000E-005	&Area (cm^2)
CONDIT	TWOPARAM	F	5.00000E+000	0.00000E+000	Conditionin&g	Time(s)	E(V)
DELAY	TWOPARAM	F	3.00000E+000	0.00000E+000	Init. De&lay	Time(s)	Stab.(mV/s)
SPEED	SELECTOR	0	&Optimize for:
ZGUESS	QUANT	1.00000E+003	E&stimated Z (ohms)
OCVCURVE	TABLE	39
	Pt	T	Vf	Vm	Ach	Over
	#	s	V vs. Ref.	V	V	bits
	0	0.258333	4.59846E-002	4.59846E-002	5.17326E-004	...........
	1	0.516667	4.59843E-002	4.59714E-002	5.18493E-004	...........
	2	0.775	4.59827E-002	4.59546E-002	5.22659E-004	...........
	3	1.03333	4.59787E-002	4.59832E-002	5.21493E-004	...........
	4	1.29167	4.59735E-002	4.59514E-002	5.21026E-004	...........
	5	1.55	4.59689E-002	4.59418E-002	5.17093E-004	...........
	6	1.80833	4.59635E-002	4.59406E-002	5.20093E-004	...........
	7	2.06667	4.59556E-002	4.59085E-002	5.23959E-004	...........
	8	2.325	4.59452E-002	4.59202E-002	5.19659E-004	...........
	9	2.58333	4.59340E-002	4.59124E-002	5.18026E-004	...........
	10	2.84167	4.59244E-002	4.59151E-002	5.28859E-004	...........
	11	3.1	4.59181E-002	4.59071E-002	5.28492E-004	...........
	12	3.35833	4.59143E-002	4.59004E-002	5.21659E-004	...........
	13	3.61667	4.59109E-002	4.58967E-002	5.26092E-004	...........
	14	3.875	4.59069E-002	4.58924E-002	5.25059E-004	...........
	15	4.13333	4.59020E-002	4.58802E-002	5.20192E-004	...........
	16	4.39167	4.58963E-002	4.58681E-002	5.20959E-004	...........
	17	4.65	4.58894E-002	4.58722E-002	5.29092E-004	...........
	18	4.90833	4.58819E-002	4.58708E-002	5.28392E-004	...........
	19	5.16667	4.58756E-002	4.58545E-002	5.25926E-004	...........
	20	5.425	4.58707E-002	4.58644E-002	5.25492E-004	...........
	21	5.68333	4.58665E-002	4.58593E-002	5.28526E-004	...........
	22	5.94167	4.58632E-002	4.58550E-002	5.28559E-004	...........
	23	6.2	4.58606E-002	4.58443E-002	5.24992E-004	...........
	24	6.45833	4.58575E-002	4.58456E-002	5.24826E-004	...........
	25	6.71667	4.58533E-002	4.58350E-002	5.25926E-004	...........
	26	6.975	4.58485E-002	4.58410E-002	5.30559E-004	...........
	27	7.23333	4.58437E-002	4.58212E-002	5.19692E-004	...........
	28	7.49167	4.58388E-002	4.58188E-002	5.19692E-004	...........
	29	7.75	4.58332E-002	4.58196E-002	5.23992E-004	...........
	30	8.00833	4.58272E-002	4.58115E-002	5.23726E-004	...........
	31	8.26667	4.58217E-002	4.58053E-002	5.14193E-004	...........
	32	8.525	4.58168E-002	4.58038E-002	5.18693E-004	...........
	33	8.78333	4.58122E-002	4.58021E-002	5.22059E-004	...........
	34	9.04167	4.58080E-002	4.57993E-002	5.19493E-004	...........
	35	9.3	4.58046E-002	4.57964E-002	5.13559E-004	...........
	36	9.5583	4.58016E-002	4.57836E-002	5.21493E-004	...........
	37	9.8167	4.57980E-002	4.57807E-002	5.20559E-004	...........
	38	10.075	4.57933E-002	4.57860E-002	5.18926E-004	...........
EOC	QUANT	0.0457933	Open Circuit (V)
PSTATMODEL	IQUANT	4	Pstat Model
PSTATSECTION	LABEL	REF600-11020	Pstat Section
PSTATSERIALNO	LABEL	11020	Pstat Serial Number
CTRLMODE	IQUANT	1	Control Mode
IESTAB	IQUANT	0	I/E Stability
CASPEED	IQUANT	1	Control Amp Speed
CONVENTION	IQUANT	1	Current Convention
ICHRANGE	IQUANT	2	Ich Range
ICHRANGEMODE	TOGGLE	F	Ich Auto Range
ICHOFFSETENABLE	TOGGLE	T	Ich Offset Enable
ICHOFFSET	QUANT	0	Ich Offset (V)
ICHFILTER	IQUANT	3	Ich Filter
VCHRANGE	IQUANT	2	Vch Range
VCHRANGEMODE	TOGGLE	F	Vch Auto Range
VCHOFFSETENABLE	TOGGLE	T	Vch Offset Enable
VCHOFFSET	QUANT	0	Vch Offset (V)
VCHFILTER	IQUANT	3	Vch Filter
ACHRANGE	IQUANT	2	Ach Range
ACHOFFSETENABLE	TOGGLE	F	Ach Offset Enable
ACHOFFSET	QUANT	0	Ach Offset (V)
ACHFILTER	IQUANT	3	Ach Filter
IERANGELOWERLIMIT	IQUANT	1	I/E Range Lower Limit
IERANGEMODE	TOGGLE	F	I/E AutoRange
IERANGE	IQUANT	7	I/E Range
POSFEEDENABLE	TOGGLE	F	Positive Feedback IR Comp
POSFEEDRESISTANCE	QUANT	0	Positive Feedback Resistance (ohm)
ACHSELECT	IQUANT	0	Ach Select
CABLEID	IQUANT	14	Cable ID
DCCALDATE	LABEL	9/1/2020	DC Calibration Date
ACCALDATE	LABEL	9/1/2020	AC Calibration Date
THERMOSELECT	IQUANT	1	Thermo Select
FRAMEWORKVERSION	QUANT	6.33	Framework Version
INSTRUMENTVERSION	LABEL	3.50	Instrument Version
ZCURVE	TABLE
	Pt	Time	Freq	Zreal	Zimag	Zsig	Zmod	Zphz	Idc	Vdc	IERange
	#	s	Hz	ohm	ohm	V	ohm	°	A	V	#
	0	1	1000078	1845.894	-2332.822	1	2974.791	-51.64647	2.029287E-008	0.0479545	8
	1	2	794390.6	2196.613	-2545.931	1	3362.569	-49.21259	1.080126E-007	0.0475986	8
	2	2	630984.4	2560.956	-2756.031	1	3762.207	-47.10118	6.926447E-008	0.0474361	8
	3	2	501234.4	2931.504	-2960.26	1	4166.155	-45.27964	8.43721E-008	0.0473335	8
	4	3	398109.4	3298.255	-3189.602	1	4588.25	-44.04055	7.282427E-008	0.0472688	8
	5	3	316265.6	3656.621	-3440.834	1	5020.977	-43.25855	6.559598E-008	0.0472447	8
	6	3	251203.1	3990.803	-3748.035	1	5474.877	-43.20322	5.382903E-008	0.0472495	8
	7	4	199546.9	4319.257	-4140.412	1	5983.226	-43.78889	6.684669E-008	0.0472261	8
	8	4	158578.1	4631.404	-4644.537	1	6559.087	-45.08112	9.133663E-008	0.0472032	8
	9	4	125953.1	4967.713	-5290.335	1	7257.122	-46.80139	-4.6086E-009	0.0472361	7
	10	5	100078.1	5285.6	-6099.678	1	8071.161	-49.08984	2.315979E-009	0.0471972	7
	11	5	79453.13	5601.169	-7168.855	1	9097.559	-51.99878	3.751333E-009	0.0471999	7
	12	5	63140.62	5946.003	-8492.954	1	10367.51	-55.00375	2.854335E-009	0.0471881	7
	13	6	50203.12	6321.107	-10170.35	1	11974.65	-58.13808	3.758506E-009	0.0471862	7
	14	6	39890.62	6745.054	-12260.39	1	13993.32	-61.18261	4.577994E-009	0.0471928	7
	15	6	31640.63	7266.739	-14864.43	1	16545.6	-63.94749	3.159369E-009	0.0471944	7
	16	7	25171.88	7865.203	-18086.85	1	19722.97	-66.49783	4.242482E-009	0.0471876	7
	17	7	20015.62	8617.915	-22040.57	1	23665.49	-68.64439	3.314849E-009	0.0471815	7
	18	7	15890.62	9521.11	-26994.05	1	28623.94	-70.57166	4.83741E-009	0.0471806	7
	19	8	12609.37	10709.27	-33093.07	1	34782.75	-72.06786	1.36142E-009	0.0471821	6
	20	8	10078.13	12076.22	-40373.79	1	42141.17	-73.34753	1.18515E-009	0.0471807	6
	21	8	8015.625	13848.79	-49494.3	1	51395.27	-74.36808	1.186868E-009	0.0471799	6
	22	9	6328.125	16132.03	-61100.88	1	63194.62	-75.21009	1.277973E-009	0.0471778	6
	23	9	5015.625	19054.11	-75234.83	1	77610.17	-75.78799	1.082174E-009	0.0471783	6
	24	9	3984.375	22713.35	-92483.89	1	95232.2	-76.20168	1.411156E-009	0.04719	6
	25	9	3170.956	27811.92	-113376.1	1	116737.5	-76.21712	1.136483E-009	0.0471825	6
	26	10	2527.573	34704.25	-138693.5	1	142969.5	-75.95175	1.096462E-009	0.0471789	6
	27	10	1976.103	44583.18	-172832.5	1	178490.2	-75.53554	1.011515E-009	0.0471768	6
	28	10	1577.524	57542.55	-210575.9	1	218296.5	-74.71633	1.238261E-009	0.0471802	6
	29	11	1265.625	76505.43	-255017.4	1	266246.1	-73.30071	5.394659E-010	0.0471688	5
	30	11	998.264	102415.1	-312591.3	1	328941	-71.85951	5.007421E-010	0.0471656	5
	31	11	796.875	138896	-376146.4	1	400971.6	-69.73281	5.341843E-010	0.0471643	5
	32	12	627.7902	193177.7	-452604.7	1	492106.3	-66.88657	5.212293E-010	0.0471695	5
	33	12	505.5147	258053.5	-531335.9	1	590685.6	-64.09558	4.868861E-010	0.0471679	5
	34	12	397.9953	356591.3	-617310.1	1	712901.8	-59.98698	4.187933E-010	0.0471921	5
	35	13	315.5048	478806.1	-698996.2	1	847260.9	-55.58921	4.269548E-010	0.0471922	5
	36	13	252.4038	625138.2	-747623	1	974545	-50.09872	3.380826E-010	0.0471865	5
	37	13	198.6229	796326.3	-772976	1	1109787	-44.14753	3.023409E-010	0.0471887	5
	38	14	158.3615	961606	-769848	1	1231808	-38.68028	4.131089E-010	0.0471824	5
	39	14	125.558	1122253	-731028.3	1	1339348	-33.07996	3.775039E-010	0.047187	4
	40	14	100.4464	1250712	-667536.6	1	1417705	-28.08996	2.878596E-010	0.0471904	4
	41	15	79.00281	1378594	-610540.3	1	1507741	-23.88719	3.325447E-010	0.0471865	4
	42	15	63.3446	1441416	-524917.9	1	1534020	-20.01002	3.063083E-010	0.0471851	4
	43	16	49.86702	1518791	-464421.8	1	1588211	-17.00279	2.064085E-010	0.0471804	4
	44	16	39.72458	1600408	-422106.6	1	1655137	-14.77525	3.429547E-010	0.0471858	4
	45	16	31.6723	1619202	-365825.7	1	1660013	-12.73107	2.802054E-010	0.047183	4
	46	17	24.93351	1616984	-324648.2	1	1649252	-11.35256	2.345542E-010	0.0471833	4
	47	17	19.86229	1656502	-320098.8	1	1687146	-10.93691	4.125687E-010	0.047187	4
	48	17	15.83615	1593099	-279707	1	1617468	-9.95816	4.711328E-011	0.0471829	4
	49	18	12.40079	1708315	-286914.2	1	1732241	-9.53394	4.561303E-010	0.0471819	4
	50	18	9.93114	1752712	-301160.9	1	1778398	-9.74968	1.500605E-010	0.0471786	4
	51	19	7.944915	1779639	-321294.9	1	1808409	-10.23391	-1.113108E-010	0.0471843	4
	52	19	6.317385	1813101	-336433.7	1	1844051	-10.51208	-1.491038E-011	0.0471924	4
	53	20	5.008013	1838766	-348701.5	1	1871538	-10.73799	2.099103E-010	0.0471824	4
	54	21	3.945707	1882543	-378059	1	1920130	-11.3553	-1.003622E-010	0.0471696	4
	55	23	3.158693	1954838	-409786.5	1	1997327	-11.8393	7.647704E-011	0.0471586	4
	56	24	2.504006	1985907	-445787.8	1	2035326	-12.65179	1.241283E-010	0.0471669	4
	57	26	1.998082	2028944	-489099.2	1	2087063	-13.5532	7.743801E-011	0.0471369	4
	58	29	1.584686	2052929	-538892.2	1	2122480	-14.70826	-6.682487E-011	0.0471274	4
	59	32	1.266892	2072965	-593808.4	1	2156337	-15.98456	-2.26611E-011	0.0471636	4
	60	36	0.999041	2158519	-664614.4	1	2258521	-17.11376	-2.993748E-011	0.0471934	4
