EXPLAIN
TAG	EISPOT
TITLE	LABEL	Potentiostatic EIS	Test &Identifier
DATE	LABEL	1/7/2021	Date
TIME	LABEL	15:30:25	Time
NOTES	NOTES	1	&Notes...
	
PSTAT	PSTAT	REF600-11020	Potentiostat
VDC	POTEN	0.00000E+000	T	DC &Voltage (V)
FREQINIT	QUANT	1.00000E+006	Initial Fre&q. (Hz)
FREQFINAL	QUANT	1.00000E+000	Final Fre&q. (Hz)
PTSPERDEC	QUANT	1.00000E+001	Points/&decade
VAC	QUANT	2.50000E+001	AC &Voltage (mV rms)
AREA	QUANT	4.00000E-005	&Area (cm^2)
CONDIT	TWOPARAM	F	5.00000E+000	0.00000E+000	Conditionin&g	Time(s)	E(V)
DELAY	TWOPARAM	F	3.00000E+000	0.00000E+000	Init. De&lay	Time(s)	Stab.(mV/s)
SPEED	SELECTOR	0	&Optimize for:
ZGUESS	QUANT	1.00000E+003	E&stimated Z (ohms)
OCVCURVE	TABLE	39
	Pt	T	Vf	Vm	Ach	Over
	#	s	V vs. Ref.	V	V	bits
	0	0.258333	-3.67000E-002	-3.67000E-002	5.04859E-004	...........
	1	0.516667	-3.66971E-002	-3.65483E-002	5.04159E-004	...........
	2	0.775	-3.66801E-002	-3.64440E-002	4.99593E-004	...........
	3	1.03333	-3.66337E-002	-3.63086E-002	5.01759E-004	...........
	4	1.29167	-3.65530E-002	-3.61984E-002	5.03026E-004	...........
	5	1.55	-3.64468E-002	-3.60620E-002	5.03493E-004	...........
	6	1.80833	-3.63295E-002	-3.60649E-002	5.08526E-004	...........
	7	2.06667	-3.62191E-002	-3.60429E-002	5.01359E-004	...........
	8	2.325	-3.61342E-002	-3.61035E-002	5.09493E-004	...........
	9	2.58333	-3.60859E-002	-3.60772E-002	5.04859E-004	...........
	10	2.84167	-3.60699E-002	-3.60683E-002	5.03059E-004	...........
	11	3.1	-3.60703E-002	-3.60703E-002	5.01859E-004	...........
	12	3.35833	-3.60731E-002	-3.60813E-002	5.07293E-004	...........
	13	3.61667	-3.60752E-002	-3.61303E-002	5.09126E-004	...........
	14	3.875	-3.60820E-002	-3.61718E-002	5.02959E-004	...........
	15	4.13333	-3.61003E-002	-3.62379E-002	5.03126E-004	...........
	16	4.39167	-3.61325E-002	-3.62830E-002	5.06193E-004	...........
	17	4.65	-3.61766E-002	-3.63530E-002	5.06759E-004	...........
	18	4.90833	-3.62292E-002	-3.64350E-002	5.06559E-004	...........
	19	5.16667	-3.62876E-002	-3.64438E-002	5.03893E-004	...........
	20	5.425	-3.63461E-002	-3.64385E-002	5.05259E-004	...........
	21	5.68333	-3.63945E-002	-3.64499E-002	5.04426E-004	...........
	22	5.94167	-3.64263E-002	-3.64823E-002	5.05759E-004	...........
	23	6.2	-3.64459E-002	-3.65149E-002	5.01026E-004	...........
	24	6.45833	-3.64631E-002	-3.65339E-002	5.05293E-004	...........
	25	6.71667	-3.64837E-002	-3.65623E-002	5.03059E-004	...........
	26	6.975	-3.65079E-002	-3.65895E-002	5.05126E-004	...........
	27	7.23333	-3.65331E-002	-3.65804E-002	5.04059E-004	...........
	28	7.49167	-3.65555E-002	-3.65772E-002	5.05126E-004	...........
	29	7.75	-3.65711E-002	-3.65811E-002	5.08793E-004	...........
	30	8.00833	-3.65782E-002	-3.65624E-002	5.03426E-004	...........
	31	8.26667	-3.65778E-002	-3.65180E-002	5.12159E-004	...........
	32	8.525	-3.65689E-002	-3.64792E-002	5.07493E-004	...........
	33	8.78333	-3.65500E-002	-3.64826E-002	5.04993E-004	...........
	34	9.04167	-3.65262E-002	-3.65295E-002	5.02626E-004	...........
	35	9.3	-3.65090E-002	-3.65526E-002	5.11493E-004	...........
	36	9.5583	-3.65075E-002	-3.65454E-002	5.00726E-004	...........
	37	9.8167	-3.65186E-002	-3.65257E-002	5.06393E-004	...........
	38	10.075	-3.65300E-002	-3.64993E-002	5.07426E-004	...........
EOC	QUANT	-0.03653	Open Circuit (V)
PSTATMODEL	IQUANT	4	Pstat Model
PSTATSECTION	LABEL	REF600-11020	Pstat Section
PSTATSERIALNO	LABEL	11020	Pstat Serial Number
CTRLMODE	IQUANT	1	Control Mode
IESTAB	IQUANT	0	I/E Stability
CASPEED	IQUANT	1	Control Amp Speed
CONVENTION	IQUANT	1	Current Convention
ICHRANGE	IQUANT	2	Ich Range
ICHRANGEMODE	TOGGLE	F	Ich Auto Range
ICHOFFSETENABLE	TOGGLE	T	Ich Offset Enable
ICHOFFSET	QUANT	0	Ich Offset (V)
ICHFILTER	IQUANT	3	Ich Filter
VCHRANGE	IQUANT	2	Vch Range
VCHRANGEMODE	TOGGLE	F	Vch Auto Range
VCHOFFSETENABLE	TOGGLE	T	Vch Offset Enable
VCHOFFSET	QUANT	0	Vch Offset (V)
VCHFILTER	IQUANT	3	Vch Filter
ACHRANGE	IQUANT	2	Ach Range
ACHOFFSETENABLE	TOGGLE	F	Ach Offset Enable
ACHOFFSET	QUANT	0	Ach Offset (V)
ACHFILTER	IQUANT	3	Ach Filter
IERANGELOWERLIMIT	IQUANT	1	I/E Range Lower Limit
IERANGEMODE	TOGGLE	F	I/E AutoRange
IERANGE	IQUANT	7	I/E Range
POSFEEDENABLE	TOGGLE	F	Positive Feedback IR Comp
POSFEEDRESISTANCE	QUANT	0	Positive Feedback Resistance (ohm)
ACHSELECT	IQUANT	0	Ach Select
CABLEID	IQUANT	14	Cable ID
DCCALDATE	LABEL	9/1/2020	DC Calibration Date
ACCALDATE	LABEL	9/1/2020	AC Calibration Date
THERMOSELECT	IQUANT	1	Thermo Select
FRAMEWORKVERSION	QUANT	6.33	Framework Version
INSTRUMENTVERSION	LABEL	3.50	Instrument Version
ZCURVE	TABLE
	Pt	Time	Freq	Zreal	Zimag	Zsig	Zmod	Zphz	Idc	Vdc	IERange
	#	s	Hz	ohm	ohm	V	ohm	°	A	V	#
	0	1	1000078	1816.075	-2849.786	1	3379.262	-57.49199	6.842737E-008	-0.0344584	8
	1	1	794390.6	2241.629	-3218.875	1	3922.506	-55.1466	3.57256E-008	-0.0347893	8
	2	2	630984.4	2723.559	-3591.095	1	4507.077	-52.82259	6.663774E-008	-0.0348831	8
	3	2	501234.4	3259.332	-3956.836	1	5126.383	-50.52098	3.545268E-008	-0.0349867	8
	4	2	398109.4	3834.881	-4307.115	1	5766.936	-48.31942	6.014309E-008	-0.0350109	8
	5	2	316265.6	4445.549	-4682.683	1	6456.812	-46.4881	5.764423E-008	-0.0350535	8
	6	3	251203.1	5081.168	-5084.728	1	7188.375	-45.02006	4.091399E-008	-0.0350726	8
	7	3	199546.9	5733.964	-5505.267	1	7948.982	-43.8343	5.891311E-008	-0.0350597	8
	8	3	158578.1	6439.904	-6020.549	1	8815.859	-43.07245	6.083129E-008	-0.0350537	8
	9	4	125953.1	7217.891	-6574.638	1	9763.39	-42.32979	3.339572E-009	-0.0350281	7
	10	4	100078.1	8041.687	-7242.239	1	10822.14	-42.00579	8.238189E-009	-0.0350712	7
	11	4	79453.13	8969.726	-8025.827	1	12036.19	-41.82117	5.088587E-010	-0.0350752	7
	12	5	63140.62	10020.8	-8929.042	1	13421.78	-41.70266	-4.894238E-009	-0.0350922	7
	13	5	50203.12	11233.54	-9913.31	1	14982.2	-41.42757	8.289286E-009	-0.0350856	7
	14	5	39890.62	12677.18	-11008.71	1	16789.95	-40.97066	-8.305324E-009	-0.035087	7
	15	6	31640.63	14362.37	-12176.39	1	18829.29	-40.29122	1.165037E-008	-0.0351047	7
	16	6	25171.88	16324.41	-13309.01	1	21062.2	-39.18978	3.993849E-009	-0.0350924	7
	17	6	20015.62	18605.43	-14411.17	1	23533.89	-37.76023	2.398788E-009	-0.0351042	7
	18	7	15890.62	21167.39	-15305.72	1	26121.33	-35.86994	-4.554029E-009	-0.0350832	7
	19	7	12609.37	23995.79	-15931.01	1	28802.69	-33.58052	1.413926E-009	-0.0351192	6
	20	7	10078.13	26791.95	-16272.01	1	31346.24	-31.27228	-1.301102E-009	-0.0350799	6
	21	8	8015.625	29636.75	-16325.69	1	33835.86	-28.8486	5.17721E-010	-0.0351036	6
	22	8	6328.125	32473.86	-16170.45	1	36277.2	-26.47114	2.388894E-009	-0.0351228	6
	23	8	5015.625	35039.9	-15832.88	1	38450.94	-24.31597	2.144803E-009	-0.0351237	6
	24	9	3984.375	37297.11	-15408.25	1	40354.54	-22.4466	-1.201406E-009	-0.0350834	6
	25	9	3170.956	39398.52	-15103.41	1	42194.27	-20.9743	7.566546E-010	-0.0351151	6
	26	9	2527.573	41243.9	-14863.26	1	43840.34	-19.81788	-1.32986E-009	-0.0350844	6
	27	10	1976.103	43142.7	-14833.07	1	45621.4	-18.97369	3.469065E-011	-0.035111	6
	28	10	1577.524	44742.27	-14993.58	1	47187.7	-18.52652	2.169805E-009	-0.0351144	6
	29	10	1265.625	46331.2	-15405.8	1	48825.39	-18.39272	1.711935E-009	-0.0350992	6
	30	10	998.264	48025.29	-16126.05	1	50660.42	-18.56115	-3.450453E-010	-0.0351008	6
	31	11	796.875	49664.02	-17066.86	1	52514.7	-18.9651	-1.146084E-009	-0.035079	6
	32	11	627.7902	51493.23	-18416.17	1	54687.37	-19.67921	1.541424E-011	-0.035081	6
	33	11	505.5147	53286.04	-20053.18	1	56934.46	-20.62287	1.620361E-009	-0.0351247	6
	34	12	397.9953	55403.25	-22190.15	1	59681.85	-21.82713	7.357974E-010	-0.0350805	6
	35	12	315.5048	57572.37	-24753.58	1	62668.31	-23.26557	7.45747E-010	-0.0350819	6
	36	12	252.4038	59939.75	-27740.77	1	66047.89	-24.83521	7.002709E-010	-0.0350825	6
	37	13	198.6229	62643.17	-31591.35	1	70158.25	-26.7621	6.025812E-010	-0.0350843	6
	38	13	158.3615	65651.78	-35957.6	1	74853.89	-28.7096	6.415305E-010	-0.0350861	6
	39	13	125.558	69120.69	-41298.8	1	80518.7	-30.85782	6.313223E-010	-0.0350877	6
	40	14	100.4464	72941.95	-47367.86	1	86972.65	-32.99934	5.344666E-010	-0.0350805	6
	41	14	79.00281	77600.13	-55131.95	1	95190.9	-35.39235	7.68737E-010	-0.0350866	6
	42	14	63.3446	82722.58	-63492.39	1	104280	-37.50747	3.99367E-010	-0.0350937	5
	43	15	49.86702	89207.2	-74241.37	1	116059.1	-39.76842	4.90061E-010	-0.0350949	5
	44	15	39.72458	96538.3	-86265.42	1	129465.7	-41.78359	1.940362E-010	-0.0350912	5
	45	15	31.6723	105325.6	-100258.4	1	145414	-43.58809	4.737009E-011	-0.0350966	5
	46	16	24.93351	116627.6	-117423	1	165499.7	-45.19471	5.731304E-010	-0.0350983	5
	47	16	19.86229	129614.6	-136355.9	1	188130	-46.4519	2.824794E-010	-0.0350975	5
	48	16	15.83615	145625.7	-157704.3	1	214656.7	-47.28032	9.928184E-010	-0.035098	5
	49	17	12.40079	167147.2	-183518.2	1	248227.9	-47.67294	1.778343E-009	-0.0351032	5
	50	17	9.93114	190302.1	-208858.9	1	282554.3	-47.66174	1.863202E-009	-0.0350966	5
	51	17	7.944915	218663.4	-236779.4	1	322301.3	-47.27784	6.128509E-010	-0.0351005	5
	52	18	6.317385	252455.3	-266040.7	1	366757.9	-46.5009	2.970336E-010	-0.0350913	5
	53	19	5.008013	291351.3	-295718	1	415132.2	-45.42616	6.806278E-010	-0.0350843	5
	54	19	3.945707	336058.2	-326896.2	1	468824.3	-44.20822	7.38036E-010	-0.0351013	5
	55	20	3.158693	379099	-354992	1	519360.5	-43.11912	5.232082E-010	-0.0350837	5
	56	21	2.504006	426843.5	-386516.8	1	575839.1	-42.16158	2.119791E-010	-0.0350949	5
	57	23	1.998082	471452.3	-419017.6	1	630748	-41.63007	5.128107E-010	-0.0350804	5
	58	24	1.584686	519955.9	-458930.3	1	693520.9	-41.43269	5.809089E-010	-0.0350524	5
	59	26	1.266892	566121.6	-506884.8	1	759885.4	-41.84011	6.636838E-010	-0.035076	5
	60	29	0.999041	615798.1	-567282.9	1	837267.7	-42.65176	4.728599E-010	-0.0351004	5
