EXPLAIN
TAG	EISPOT
TITLE	LABEL	Potentiostatic EIS	Test &Identifier
DATE	LABEL	1/7/2021	Date
TIME	LABEL	15:39:19	Time
NOTES	NOTES	1	&Notes...
	
PSTAT	PSTAT	REF600-11020	Potentiostat
VDC	POTEN	0.00000E+000	T	DC &Voltage (V)
FREQINIT	QUANT	1.00000E+006	Initial Fre&q. (Hz)
FREQFINAL	QUANT	1.00000E+000	Final Fre&q. (Hz)
PTSPERDEC	QUANT	1.00000E+001	Points/&decade
VAC	QUANT	2.50000E+001	AC &Voltage (mV rms)
AREA	QUANT	4.00000E-005	&Area (cm^2)
CONDIT	TWOPARAM	F	5.00000E+000	0.00000E+000	Conditionin&g	Time(s)	E(V)
DELAY	TWOPARAM	F	3.00000E+000	0.00000E+000	Init. De&lay	Time(s)	Stab.(mV/s)
SPEED	SELECTOR	0	&Optimize for:
ZGUESS	QUANT	1.00000E+003	E&stimated Z (ohms)
OCVCURVE	TABLE	39
	Pt	T	Vf	Vm	Ach	Over
	#	s	V vs. Ref.	V	V	bits
	0	0.258333	7.21217E-002	7.21217E-002	5.18059E-004	...........
	1	0.516667	7.21213E-002	7.20996E-002	5.14793E-004	...........
	2	0.775	7.21184E-002	7.20621E-002	5.20692E-004	...........
	3	1.03333	7.21103E-002	7.20894E-002	5.21892E-004	...........
	4	1.29167	7.20979E-002	7.20515E-002	5.20592E-004	...........
	5	1.55	7.20845E-002	7.20365E-002	5.26759E-004	...........
	6	1.80833	7.20709E-002	7.20236E-002	5.26492E-004	...........
	7	2.06667	7.20562E-002	7.20177E-002	5.24559E-004	...........
	8	2.325	7.20417E-002	7.20165E-002	5.21926E-004	...........
	9	2.58333	7.20296E-002	7.20061E-002	5.21159E-004	...........
	10	2.84167	7.20206E-002	7.19976E-002	5.23459E-004	...........
	11	3.1	7.20131E-002	7.19830E-002	5.25426E-004	...........
	12	3.35833	7.20052E-002	7.19704E-002	5.22559E-004	...........
	13	3.61667	7.19957E-002	7.19662E-002	5.22626E-004	...........
	14	3.875	7.19852E-002	7.19607E-002	5.34259E-004	...........
	15	4.13333	7.19754E-002	7.19490E-002	5.30926E-004	...........
	16	4.39167	7.19666E-002	7.19330E-002	5.27792E-004	...........
	17	4.65	7.19578E-002	7.19291E-002	5.25459E-004	...........
	18	4.90833	7.19482E-002	7.19226E-002	5.23359E-004	...........
	19	5.16667	7.19387E-002	7.19172E-002	5.22959E-004	...........
	20	5.425	7.19304E-002	7.19110E-002	5.19059E-004	...........
	21	5.68333	7.19234E-002	7.19034E-002	5.26259E-004	...........
	22	5.94167	7.19167E-002	7.18773E-002	5.21993E-004	...........
	23	6.2	7.19085E-002	7.18790E-002	5.22226E-004	...........
	24	6.45833	7.18985E-002	7.18734E-002	5.22559E-004	...........
	25	6.71667	7.18883E-002	7.18655E-002	5.24026E-004	...........
	26	6.975	7.18797E-002	7.18600E-002	5.24359E-004	...........
	27	7.23333	7.18727E-002	7.18558E-002	5.23293E-004	...........
	28	7.49167	7.18666E-002	7.18509E-002	5.23326E-004	...........
	29	7.75	7.18611E-002	7.18460E-002	5.24792E-004	...........
	30	8.00833	7.18560E-002	7.18389E-002	5.21593E-004	...........
	31	8.26667	7.18509E-002	7.18332E-002	5.24959E-004	...........
	32	8.525	7.18455E-002	7.18304E-002	5.27859E-004	...........
	33	8.78333	7.18404E-002	7.18390E-002	5.22893E-004	...........
	34	9.04167	7.18366E-002	7.18337E-002	5.25426E-004	...........
	35	9.3	7.18346E-002	7.18229E-002	5.27259E-004	...........
	36	9.5583	7.18331E-002	7.18168E-002	5.31092E-004	...........
	37	9.8167	7.18298E-002	7.18076E-002	5.27892E-004	...........
	38	10.075	7.18242E-002	7.18030E-002	5.34692E-004	...........
EOC	QUANT	0.0718242	Open Circuit (V)
PSTATMODEL	IQUANT	4	Pstat Model
PSTATSECTION	LABEL	REF600-11020	Pstat Section
PSTATSERIALNO	LABEL	11020	Pstat Serial Number
CTRLMODE	IQUANT	1	Control Mode
IESTAB	IQUANT	0	I/E Stability
CASPEED	IQUANT	1	Control Amp Speed
CONVENTION	IQUANT	1	Current Convention
ICHRANGE	IQUANT	2	Ich Range
ICHRANGEMODE	TOGGLE	F	Ich Auto Range
ICHOFFSETENABLE	TOGGLE	T	Ich Offset Enable
ICHOFFSET	QUANT	0	Ich Offset (V)
ICHFILTER	IQUANT	3	Ich Filter
VCHRANGE	IQUANT	2	Vch Range
VCHRANGEMODE	TOGGLE	F	Vch Auto Range
VCHOFFSETENABLE	TOGGLE	T	Vch Offset Enable
VCHOFFSET	QUANT	0	Vch Offset (V)
VCHFILTER	IQUANT	3	Vch Filter
ACHRANGE	IQUANT	2	Ach Range
ACHOFFSETENABLE	TOGGLE	F	Ach Offset Enable
ACHOFFSET	QUANT	0	Ach Offset (V)
ACHFILTER	IQUANT	3	Ach Filter
IERANGELOWERLIMIT	IQUANT	1	I/E Range Lower Limit
IERANGEMODE	TOGGLE	F	I/E AutoRange
IERANGE	IQUANT	8	I/E Range
POSFEEDENABLE	TOGGLE	F	Positive Feedback IR Comp
POSFEEDRESISTANCE	QUANT	0	Positive Feedback Resistance (ohm)
ACHSELECT	IQUANT	0	Ach Select
CABLEID	IQUANT	14	Cable ID
DCCALDATE	LABEL	9/1/2020	DC Calibration Date
ACCALDATE	LABEL	9/1/2020	AC Calibration Date
THERMOSELECT	IQUANT	1	Thermo Select
FRAMEWORKVERSION	QUANT	6.33	Framework Version
INSTRUMENTVERSION	LABEL	3.50	Instrument Version
ZCURVE	TABLE
	Pt	Time	Freq	Zreal	Zimag	Zsig	Zmod	Zphz	Idc	Vdc	IERange
	#	s	Hz	ohm	ohm	V	ohm	°	A	V	#
	0	1	1000078	1691.201	-2917.311	1	3372.072	-59.8986	6.804409E-008	0.0737131	8
	1	1	794390.6	2155.772	-3351.425	1	3984.896	-57.24923	2.432131E-008	0.0734141	8
	2	2	630984.4	2736.574	-3777.183	1	4664.327	-54.07662	7.729995E-008	0.0733379	8
	3	2	501234.4	3425.818	-4164.061	1	5392.183	-50.5555	5.569981E-008	0.07326	8
	4	2	398109.4	4215.662	-4481.954	1	6153.025	-46.75366	6.741379E-008	0.0732232	8
	5	3	316265.6	5081.798	-4693.887	1	6917.893	-42.72763	1.994012E-007	0.0731733	8
	6	3	251203.1	5974.681	-4795.807	1	7661.369	-38.7536	7.944163E-008	0.0731762	8
	7	3	199546.9	6864.843	-4791.789	1	8371.816	-34.91576	8.32956E-008	0.0732368	8
	8	4	158578.1	7704.176	-4703.625	1	9026.539	-31.40529	5.128314E-008	0.0732036	8
	9	4	125953.1	8501.768	-4523.705	1	9630.37	-28.01699	-1.95266E-008	0.0732418	7
	10	4	100078.1	9201.017	-4328.566	1	10168.34	-25.19437	-1.255465E-008	0.0731914	7
	11	5	79453.13	9814.27	-4144.95	1	10653.66	-22.89625	1.300587E-008	0.0731673	7
	12	5	63140.62	10367.9	-3977.097	1	11104.53	-20.98668	-1.05278E-008	0.0731775	7
	13	5	50203.12	10863.18	-3845.198	1	11523.64	-19.49224	1.08346E-009	0.073164	7
	14	6	39890.62	11319.26	-3755.777	1	11926.09	-18.35605	6.276199E-009	0.0731563	7
	15	6	31640.63	11747.81	-3719.583	1	12322.59	-17.56879	1.267613E-008	0.0731566	7
	16	6	25171.88	12159.11	-3744.834	1	12722.73	-17.11809	2.2233E-009	0.0731628	7
	17	7	20015.62	12556.89	-3832.299	1	13128.67	-16.97192	1.45131E-008	0.0731519	7
	18	7	15890.62	12958.27	-3984.43	1	13557	-17.09171	7.051149E-009	0.0731701	7
	19	7	12609.37	13399.02	-4194.89	1	14040.33	-17.384	2.488751E-009	0.0731377	6
	20	8	10078.13	13823.63	-4501.544	1	14538.11	-18.03738	4.256795E-010	0.0731835	6
	21	8	8015.625	14281.72	-4900.145	1	15098.97	-18.93741	-2.084965E-009	0.0731821	6
	22	8	6328.125	14805.08	-5414.72	1	15764.19	-20.08918	2.317326E-009	0.0731426	6
	23	8	5015.625	15366.53	-6029.625	1	16507.17	-21.42439	-3.881713E-010	0.0731882	6
	24	9	3984.375	15980.22	-6765.834	1	17353.5	-22.94722	1.749442E-009	0.073134	6
	25	9	3170.956	16664.13	-7633.017	1	18329.11	-24.61018	2.436718E-009	0.0731455	6
	26	9	2527.573	17430.7	-8651.143	1	19459.48	-26.39596	1.729284E-009	0.07316	6
	27	10	1976.103	18367.53	-9955.76	1	20892.19	-28.45905	-1.023883E-009	0.0731565	6
	28	10	1577.524	19357.42	-11361.53	1	22445.36	-30.41013	-1.028412E-009	0.0731577	6
	29	10	1265.625	20464.03	-12965.58	1	24225.66	-32.35748	1.521442E-009	0.0731245	6
	30	11	998.264	21837.71	-14961.42	1	26471.3	-34.41576	2.097803E-009	0.0731428	6
	31	11	796.875	23335.7	-17168.18	1	28970.7	-36.34208	2.112772E-009	0.0731446	6
	32	11	627.7902	25160.11	-19882.91	1	32068.07	-38.31774	3.283051E-010	0.0731679	6
	33	12	505.5147	27088.08	-22732.91	1	35363.1	-40.00412	-2.234503E-009	0.0731827	6
	34	12	397.9953	29526	-26371.72	1	39588.54	-41.77025	3.112812E-010	0.0731784	6
	35	12	315.5048	32274.26	-30458.46	1	44377.31	-43.34204	3.438529E-010	0.0731786	6
	36	13	252.4038	35309.49	-34981.13	1	49703.52	-44.73235	3.358002E-010	0.073176	6
	37	13	198.6229	39060.98	-40586.7	1	56329.74	-46.09742	3.693882E-010	0.0731734	6
	38	13	158.3615	43134.84	-46711.95	1	63581.6	-47.27994	3.804952E-010	0.0731728	6
	39	14	125.558	47900.9	-53958.59	1	72152.8	-48.40343	3.984273E-010	0.0731738	6
	40	14	100.4464	53123.32	-62011.14	1	81654.57	-49.4142	3.885098E-010	0.073173	6
	41	14	79.00281	59537.16	-72096.63	1	93501.85	-50.45022	2.934942E-010	0.0731738	6
	42	15	63.3446	66262.55	-82829.52	1	106072.9	-51.34064	-9.205745E-011	0.0731645	5
	43	15	49.86702	74565.16	-96525.9	1	121972.2	-52.31432	-5.54365E-012	0.0731646	5
	44	15	39.72458	83651.78	-111837.9	1	139661.5	-53.20449	8.09414E-012	0.0731652	5
	45	16	31.6723	94102.7	-129747.2	1	160279.9	-54.04747	7.154588E-011	0.0731649	5
	46	16	24.93351	106999.2	-152019	1	185899.5	-54.86004	-2.4415E-010	0.0731642	5
	47	16	19.86229	121387.1	-176948.4	1	214582.3	-55.54976	-2.920737E-010	0.0731631	5
	48	17	15.83615	138352	-206030.3	1	248172.8	-56.11814	-4.808004E-011	0.0731645	5
	49	17	12.40079	160428.2	-242680.2	1	290913.9	-56.53257	-5.101808E-010	0.073165	5
	50	17	9.93114	183827.3	-281499.1	1	336205.7	-56.85427	-4.45165E-010	0.073157	5
	51	18	7.944915	212314.4	-326354.2	1	389338.5	-56.95341	3.035582E-010	0.0731603	5
	52	18	6.317385	246857.7	-379852.3	1	453019.3	-56.98104	-5.588156E-011	0.0731634	5
	53	19	5.008013	289032	-442117.4	1	528211.4	-56.82555	-2.01575E-010	0.0731518	5
	54	20	3.945707	342141.4	-514682	1	618027.8	-56.38552	-3.150994E-011	0.0731651	5
	55	21	3.158693	400371.8	-591345	1	714133.4	-55.89992	-1.152044E-010	0.0731471	5
	56	22	2.504006	474131	-678881.5	1	828058.2	-55.06954	1.18384E-010	0.0731504	5
	57	23	1.998082	555440.9	-772996.3	1	951860	-54.30065	1.444865E-010	0.0731662	5
	58	24	1.584686	655979.9	-876993.8	1	1095184	-53.20399	7.951365E-012	0.0731215	4
	59	26	1.266892	764610.8	-989495	1	1250492	-52.30573	-3.773152E-011	0.0731177	4
	60	29	0.999041	890014.6	-1118049	1	1429042	-51.47872	-4.475246E-011	0.0731298	4
