EXPLAIN
TAG	EISPOT
TITLE	LABEL	Potentiostatic EIS	Test &Identifier
DATE	LABEL	1/7/2021	Date
TIME	LABEL	15:38:22	Time
NOTES	NOTES	1	&Notes...
	
PSTAT	PSTAT	REF600-11020	Potentiostat
VDC	POTEN	0.00000E+000	T	DC &Voltage (V)
FREQINIT	QUANT	1.00000E+006	Initial Fre&q. (Hz)
FREQFINAL	QUANT	1.00000E+000	Final Fre&q. (Hz)
PTSPERDEC	QUANT	1.00000E+001	Points/&decade
VAC	QUANT	2.50000E+001	AC &Voltage (mV rms)
AREA	QUANT	4.00000E-005	&Area (cm^2)
CONDIT	TWOPARAM	F	5.00000E+000	0.00000E+000	Conditionin&g	Time(s)	E(V)
DELAY	TWOPARAM	F	3.00000E+000	0.00000E+000	Init. De&lay	Time(s)	Stab.(mV/s)
SPEED	SELECTOR	0	&Optimize for:
ZGUESS	QUANT	1.00000E+003	E&stimated Z (ohms)
OCVCURVE	TABLE	39
	Pt	T	Vf	Vm	Ach	Over
	#	s	V vs. Ref.	V	V	bits
	0	0.258333	6.49015E-002	6.49015E-002	5.41192E-004	...........
	1	0.516667	6.49010E-002	6.48755E-002	5.40592E-004	...........
	2	0.775	6.48979E-002	6.48475E-002	5.40726E-004	...........
	3	1.03333	6.48888E-002	6.48186E-002	5.38826E-004	...........
	4	1.29167	6.48720E-002	6.47893E-002	5.40259E-004	...........
	5	1.55	6.48487E-002	6.47658E-002	5.37459E-004	...........
	6	1.80833	6.48219E-002	6.47387E-002	5.35292E-004	...........
	7	2.06667	6.47944E-002	6.47130E-002	5.42692E-004	...........
	8	2.325	6.47673E-002	6.46830E-002	5.40192E-004	...........
	9	2.58333	6.47405E-002	6.46555E-002	5.43059E-004	...........
	10	2.84167	6.47133E-002	6.46224E-002	5.44792E-004	...........
	11	3.1	6.46850E-002	6.45903E-002	5.40992E-004	...........
	12	3.35833	6.46555E-002	6.45624E-002	5.34292E-004	...........
	13	3.61667	6.46252E-002	6.45342E-002	5.39759E-004	...........
	14	3.875	6.45949E-002	6.45056E-002	5.39492E-004	...........
	15	4.13333	6.45653E-002	6.44796E-002	5.42925E-004	...........
	16	4.39167	6.45365E-002	6.44470E-002	5.41859E-004	...........
	17	4.65	6.45081E-002	6.44186E-002	5.36726E-004	...........
	18	4.90833	6.44795E-002	6.43952E-002	5.32626E-004	...........
	19	5.16667	6.44511E-002	6.43686E-002	5.39192E-004	...........
	20	5.425	6.44233E-002	6.43404E-002	5.42725E-004	...........
	21	5.68333	6.43964E-002	6.43156E-002	5.38859E-004	...........
	22	5.94167	6.43698E-002	6.42833E-002	5.38159E-004	...........
	23	6.2	6.43428E-002	6.42565E-002	5.40192E-004	...........
	24	6.45833	6.43153E-002	6.42320E-002	5.39859E-004	...........
	25	6.71667	6.42875E-002	6.42011E-002	5.33592E-004	...........
	26	6.975	6.42597E-002	6.41743E-002	5.30459E-004	...........
	27	7.23333	6.42321E-002	6.41482E-002	5.44559E-004	...........
	28	7.49167	6.42045E-002	6.41224E-002	5.39992E-004	...........
	29	7.75	6.41773E-002	6.40938E-002	5.40026E-004	...........
	30	8.00833	6.41504E-002	6.40716E-002	5.40726E-004	...........
	31	8.26667	6.41239E-002	6.40407E-002	5.43092E-004	...........
	32	8.525	6.40974E-002	6.40098E-002	5.41192E-004	...........
	33	8.78333	6.40702E-002	6.39752E-002	5.40259E-004	...........
	34	9.04167	6.40414E-002	6.39456E-002	5.39959E-004	...........
	35	9.3	6.40110E-002	6.39182E-002	5.35859E-004	...........
	36	9.5583	6.39800E-002	6.38868E-002	5.42659E-004	...........
	37	9.8167	6.39494E-002	6.38550E-002	5.30592E-004	...........
	38	10.075	6.39191E-002	6.38270E-002	5.32826E-004	...........
EOC	QUANT	0.0639191	Open Circuit (V)
PSTATMODEL	IQUANT	4	Pstat Model
PSTATSECTION	LABEL	REF600-11020	Pstat Section
PSTATSERIALNO	LABEL	11020	Pstat Serial Number
CTRLMODE	IQUANT	1	Control Mode
IESTAB	IQUANT	0	I/E Stability
CASPEED	IQUANT	1	Control Amp Speed
CONVENTION	IQUANT	1	Current Convention
ICHRANGE	IQUANT	2	Ich Range
ICHRANGEMODE	TOGGLE	F	Ich Auto Range
ICHOFFSETENABLE	TOGGLE	T	Ich Offset Enable
ICHOFFSET	QUANT	0	Ich Offset (V)
ICHFILTER	IQUANT	3	Ich Filter
VCHRANGE	IQUANT	2	Vch Range
VCHRANGEMODE	TOGGLE	F	Vch Auto Range
VCHOFFSETENABLE	TOGGLE	T	Vch Offset Enable
VCHOFFSET	QUANT	0	Vch Offset (V)
VCHFILTER	IQUANT	3	Vch Filter
ACHRANGE	IQUANT	2	Ach Range
ACHOFFSETENABLE	TOGGLE	F	Ach Offset Enable
ACHOFFSET	QUANT	0	Ach Offset (V)
ACHFILTER	IQUANT	3	Ach Filter
IERANGELOWERLIMIT	IQUANT	1	I/E Range Lower Limit
IERANGEMODE	TOGGLE	F	I/E AutoRange
IERANGE	IQUANT	8	I/E Range
POSFEEDENABLE	TOGGLE	F	Positive Feedback IR Comp
POSFEEDRESISTANCE	QUANT	0	Positive Feedback Resistance (ohm)
ACHSELECT	IQUANT	0	Ach Select
CABLEID	IQUANT	14	Cable ID
DCCALDATE	LABEL	9/1/2020	DC Calibration Date
ACCALDATE	LABEL	9/1/2020	AC Calibration Date
THERMOSELECT	IQUANT	1	Thermo Select
FRAMEWORKVERSION	QUANT	6.33	Framework Version
INSTRUMENTVERSION	LABEL	3.50	Instrument Version
ZCURVE	TABLE
	Pt	Time	Freq	Zreal	Zimag	Zsig	Zmod	Zphz	Idc	Vdc	IERange
	#	s	Hz	ohm	ohm	V	ohm	°	A	V	#
	0	1	1000078	1435.483	-2677.621	1	3038.135	-61.80407	6.645971E-008	0.0660737	8
	1	2	794390.6	1753.357	-3126.547	1	3584.628	-60.71643	1.692334E-007	0.0657222	8
	2	2	630984.4	2143.861	-3634.678	1	4219.837	-59.4664	4.999525E-009	0.0656211	8
	3	2	501234.4	2635.179	-4199.5	1	4957.82	-57.8918	1.382115E-007	0.0655366	8
	4	3	398109.4	3236.376	-4808.525	1	5796.209	-56.0575	6.374889E-008	0.0655162	8
	5	3	316265.6	3979.266	-5451.002	1	6748.924	-53.87032	1.248412E-007	0.0654632	8
	6	3	251203.1	4874.846	-6100.349	1	7808.866	-51.37132	3.535885E-008	0.0654577	8
	7	4	199546.9	5914.746	-6686.992	1	8927.49	-48.50676	1.391953E-007	0.0654527	8
	8	4	158578.1	7052.571	-7224.596	1	10096.21	-45.69032	7.321397E-008	0.0654637	8
	9	4	125953.1	8345.553	-7628.867	1	11306.98	-42.43117	4.273642E-008	0.0654225	7
	10	5	100078.1	9644.84	-7942.682	1	12494.36	-39.47202	1.284491E-008	0.0654221	7
	11	5	79453.13	10946.83	-8197.334	1	13675.87	-36.82703	1.001264E-008	0.0654093	7
	12	5	63140.62	12213.32	-8375.933	1	14809.5	-34.44246	6.541078E-009	0.06542	7
	13	6	50203.12	13441.86	-8559.634	1	15935.84	-32.48855	1.213012E-008	0.0654003	7
	14	6	39890.62	14636.93	-8741.093	1	17048.35	-30.84542	-6.68588E-009	0.0654272	7
	15	6	31640.63	15793.43	-8991.666	1	18173.68	-29.65414	1.326308E-008	0.0654016	7
	16	7	25171.88	16937.05	-9309.511	1	19326.94	-28.79555	1.359407E-008	0.0654054	7
	17	7	20015.62	18107.92	-9750.37	1	20566.15	-28.30064	2.405345E-009	0.0654006	7
	18	7	15890.62	19289.1	-10271.71	1	21853.55	-28.03592	1.450934E-008	0.0654045	7
	19	7	12609.37	20573.71	-10915.12	1	23289.86	-27.94761	-1.82992E-009	0.0654341	6
	20	8	10078.13	21853.8	-11711.16	1	24793.94	-28.18626	-1.815075E-009	0.0654349	6
	21	8	8015.625	23255.21	-12679.6	1	26487.3	-28.60085	1.277192E-009	0.0654143	6
	22	8	6328.125	24811.63	-13859.06	1	28419.9	-29.18647	4.531506E-011	0.0653963	6
	23	9	5015.625	26492.33	-15218.71	1	30552.46	-29.87553	2.224346E-009	0.0653758	6
	24	9	3984.375	28319.19	-16769.79	1	32912.04	-30.63276	1.771476E-009	0.065377	6
	25	9	3170.956	30334.7	-18535.66	1	35549.47	-31.42653	1.15202E-009	0.0654068	6
	26	10	2527.573	32556.62	-20554.43	1	38502.18	-32.26603	4.55996E-010	0.065383	6
	27	10	1976.103	35278.47	-23021.5	1	42125.53	-33.12707	-1.38458E-010	0.0654234	6
	28	10	1577.524	38086.36	-25586.71	1	45883.01	-33.89351	6.072622E-010	0.0654169	6
	29	11	1265.625	41156.43	-28383.28	1	49994.62	-34.59185	2.256067E-009	0.0653875	6
	30	11	998.264	44890.17	-31780.22	1	55001	-35.29678	2.378219E-009	0.0653695	6
	31	11	796.875	48924.32	-35343.78	1	60355.38	-35.845	2.467345E-009	0.065378	6
	32	12	627.7902	53701.47	-39513.12	1	66671.84	-36.34534	6.392178E-010	0.0653784	6
	33	12	505.5147	58677.49	-43632.76	1	73122.27	-36.63461	2.199503E-009	0.0653617	6
	34	12	397.9953	64793.3	-48558.07	1	80969.49	-36.849	4.607978E-010	0.0654179	6
	35	13	315.5048	71516.77	-53713.4	1	89441.48	-36.90876	4.278814E-010	0.0654193	6
	36	13	252.4038	78750	-58825.75	1	98295.6	-36.7595	1.049058E-010	0.0654087	5
	37	13	198.6229	87279.77	-64836.57	1	108726.9	-36.60715	2.425963E-011	0.0654102	5
	38	14	158.3615	96112.2	-70836.22	1	119395.7	-36.3908	1.364525E-010	0.0654086	5
	39	14	125.558	105930	-77330.76	1	131153.4	-36.1301	6.09656E-011	0.0654091	5
	40	14	100.4464	116048.5	-83923.3	1	143214.4	-35.87349	4.464694E-011	0.0654071	5
	41	15	79.00281	127634.1	-91613.63	1	157109.9	-35.67016	1.449483E-010	0.065403	5
	42	15	63.3446	138876.2	-99406.6	1	170787.2	-35.59482	1.107694E-010	0.0654017	5
	43	15	49.86702	151682.5	-108812.8	1	186675.7	-35.6546	-4.839268E-011	0.0654011	5
	44	16	39.72458	164494.8	-119053.7	1	203057.4	-35.89526	2.116564E-010	0.0654038	5
	45	16	31.6723	178014.4	-130856.9	1	220935.9	-36.3193	2.526008E-010	0.0654024	5
	46	16	24.93351	193285.1	-145497.7	1	241927	-36.97105	-1.157867E-011	0.0653992	5
	47	17	19.86229	208971.2	-162119.9	1	264484	-37.80431	5.906937E-010	0.0654039	5
	48	17	15.83615	226339.8	-181154.6	1	289908.1	-38.67257	-4.871589E-010	0.0654015	5
	49	17	12.40079	246708.5	-205496.8	1	321082.6	-39.79272	-7.637838E-010	0.0654057	5
	50	17	9.93114	266413	-231575	1	352991.3	-40.99825	-7.554892E-010	0.0654051	5
	51	18	7.944915	289608	-262918.9	1	391151.1	-42.23455	9.828419E-012	0.0654116	5
	52	18	6.317385	315798.9	-300335.7	1	435810.2	-43.56234	1.314578E-010	0.065401	5
	53	19	5.008013	346068	-344894.9	1	488585.3	-44.90273	-5.68565E-011	0.0653978	5
	54	20	3.945707	382305.8	-399456.9	1	552922.7	-46.25681	-5.279653E-011	0.0653997	5
	55	21	3.158693	420657.9	-458733.2	1	622406	-47.4792	2.186678E-011	0.0653855	5
	56	22	2.504006	468860.4	-531152.9	1	708486.8	-48.56445	2.460585E-010	0.0653921	5
	57	23	1.998082	522198.2	-611718.6	1	804295.1	-49.51402	1.437049E-010	0.065376	5
	58	25	1.584686	590203	-708959.9	1	922476.9	-50.22291	7.195104E-011	0.0653425	5
	59	27	1.266892	665649.6	-818035.8	1	1054643	-50.86417	5.136481E-011	0.0653675	4
	60	29	0.999041	758813.7	-945996.5	1	1212727	-51.2658	6.326735E-011	0.0653953	4
