EXPLAIN
TAG	EISPOT
TITLE	LABEL	Potentiostatic EIS	Test &Identifier
DATE	LABEL	1/7/2021	Date
TIME	LABEL	16:03:26	Time
NOTES	NOTES	1	&Notes...
	
PSTAT	PSTAT	REF600-11020	Potentiostat
VDC	POTEN	0.00000E+000	T	DC &Voltage (V)
FREQINIT	QUANT	1.00000E+006	Initial Fre&q. (Hz)
FREQFINAL	QUANT	1.00000E+000	Final Fre&q. (Hz)
PTSPERDEC	QUANT	1.00000E+001	Points/&decade
VAC	QUANT	2.50000E+001	AC &Voltage (mV rms)
AREA	QUANT	4.00000E-005	&Area (cm^2)
CONDIT	TWOPARAM	F	5.00000E+000	0.00000E+000	Conditionin&g	Time(s)	E(V)
DELAY	TWOPARAM	F	3.00000E+000	0.00000E+000	Init. De&lay	Time(s)	Stab.(mV/s)
SPEED	SELECTOR	0	&Optimize for:
ZGUESS	QUANT	1.00000E+003	E&stimated Z (ohms)
OCVCURVE	TABLE	39
	Pt	T	Vf	Vm	Ach	Over
	#	s	V vs. Ref.	V	V	bits
	0	0.258333	2.51027E-002	2.51027E-002	5.37526E-004	...........
	1	0.516667	2.51027E-002	2.51018E-002	5.39292E-004	...........
	2	0.775	2.51027E-002	2.51061E-002	5.42792E-004	...........
	3	1.03333	2.51028E-002	2.50988E-002	5.35492E-004	...........
	4	1.29167	2.51025E-002	2.50874E-002	5.38726E-004	...........
	5	1.55	2.51006E-002	2.50766E-002	5.34559E-004	...........
	6	1.80833	2.50957E-002	2.50696E-002	5.40325E-004	...........
	7	2.06667	2.50881E-002	2.50591E-002	5.40659E-004	...........
	8	2.325	2.50791E-002	2.50534E-002	5.35026E-004	...........
	9	2.58333	2.50700E-002	2.50441E-002	5.37492E-004	...........
	10	2.84167	2.50615E-002	2.50439E-002	5.37292E-004	...........
	11	3.1	2.50541E-002	2.50440E-002	5.35659E-004	...........
	12	3.35833	2.50486E-002	2.50414E-002	5.36692E-004	...........
	13	3.61667	2.50452E-002	2.50436E-002	5.36659E-004	...........
	14	3.875	2.50434E-002	2.50382E-002	5.47925E-004	...........
	15	4.13333	2.50422E-002	2.50329E-002	5.45525E-004	...........
	16	4.39167	2.50404E-002	2.50248E-002	5.44692E-004	...........
	17	4.65	2.50370E-002	2.50175E-002	5.40192E-004	...........
	18	4.90833	2.50319E-002	2.50107E-002	5.43359E-004	...........
	19	5.16667	2.50256E-002	2.50058E-002	5.46392E-004	...........
	20	5.425	2.50188E-002	2.50017E-002	5.42759E-004	...........
	21	5.68333	2.50124E-002	2.49948E-002	5.42792E-004	...........
	22	5.94167	2.50066E-002	2.49908E-002	5.48325E-004	...........
	23	6.2	2.50012E-002	2.49844E-002	5.37592E-004	...........
	24	6.45833	2.49959E-002	2.49781E-002	5.41559E-004	...........
	25	6.71667	2.49903E-002	2.49662E-002	5.35559E-004	...........
	26	6.975	2.49835E-002	2.49374E-002	5.42459E-004	...........
	27	7.23333	2.49740E-002	2.49329E-002	5.41059E-004	...........
	28	7.49167	2.49618E-002	2.49447E-002	5.39459E-004	...........
	29	7.75	2.49502E-002	2.49383E-002	5.42025E-004	...........
	30	8.00833	2.49429E-002	2.49446E-002	5.42559E-004	...........
	31	8.26667	2.49403E-002	2.49426E-002	5.40759E-004	...........
	32	8.525	2.49408E-002	2.49573E-002	5.34792E-004	...........
	33	8.78333	2.49432E-002	2.49491E-002	5.38492E-004	...........
	34	9.04167	2.49464E-002	2.49482E-002	5.41126E-004	...........
	35	9.3	2.49487E-002	2.49396E-002	5.32359E-004	...........
	36	9.5583	2.49487E-002	2.49388E-002	5.39292E-004	...........
	37	9.8167	2.49462E-002	2.49327E-002	5.39826E-004	...........
	38	10.075	2.49425E-002	2.49331E-002	5.42225E-004	...........
EOC	QUANT	0.0249425	Open Circuit (V)
PSTATMODEL	IQUANT	4	Pstat Model
PSTATSECTION	LABEL	REF600-11020	Pstat Section
PSTATSERIALNO	LABEL	11020	Pstat Serial Number
CTRLMODE	IQUANT	1	Control Mode
IESTAB	IQUANT	0	I/E Stability
CASPEED	IQUANT	1	Control Amp Speed
CONVENTION	IQUANT	1	Current Convention
ICHRANGE	IQUANT	2	Ich Range
ICHRANGEMODE	TOGGLE	F	Ich Auto Range
ICHOFFSETENABLE	TOGGLE	T	Ich Offset Enable
ICHOFFSET	QUANT	0	Ich Offset (V)
ICHFILTER	IQUANT	3	Ich Filter
VCHRANGE	IQUANT	2	Vch Range
VCHRANGEMODE	TOGGLE	F	Vch Auto Range
VCHOFFSETENABLE	TOGGLE	T	Vch Offset Enable
VCHOFFSET	QUANT	0	Vch Offset (V)
VCHFILTER	IQUANT	3	Vch Filter
ACHRANGE	IQUANT	2	Ach Range
ACHOFFSETENABLE	TOGGLE	F	Ach Offset Enable
ACHOFFSET	QUANT	0	Ach Offset (V)
ACHFILTER	IQUANT	3	Ach Filter
IERANGELOWERLIMIT	IQUANT	1	I/E Range Lower Limit
IERANGEMODE	TOGGLE	F	I/E AutoRange
IERANGE	IQUANT	7	I/E Range
POSFEEDENABLE	TOGGLE	F	Positive Feedback IR Comp
POSFEEDRESISTANCE	QUANT	0	Positive Feedback Resistance (ohm)
ACHSELECT	IQUANT	0	Ach Select
CABLEID	IQUANT	14	Cable ID
DCCALDATE	LABEL	9/1/2020	DC Calibration Date
ACCALDATE	LABEL	9/1/2020	AC Calibration Date
THERMOSELECT	IQUANT	1	Thermo Select
FRAMEWORKVERSION	QUANT	6.33	Framework Version
INSTRUMENTVERSION	LABEL	3.50	Instrument Version
ZCURVE	TABLE
	Pt	Time	Freq	Zreal	Zimag	Zsig	Zmod	Zphz	Idc	Vdc	IERange
	#	s	Hz	ohm	ohm	V	ohm	°	A	V	#
	0	1	1000078	1613.565	-2432.43	1	2918.956	-56.44149	3.955616E-008	0.0272672	8
	1	1	794390.6	2011.813	-2750.704	1	3407.897	-53.81898	1.078416E-007	0.0269181	8
	2	2	630984.4	2481.856	-3057.591	1	3938.079	-50.93365	-2.536397E-009	0.026717	8
	3	2	501234.4	3022.417	-3335.361	1	4501.071	-47.81795	1.428848E-008	0.0266289	8
	4	2	398109.4	3638.562	-3566.662	1	5095.116	-44.42828	3.647305E-008	0.026545	8
	5	2	316265.6	4294.756	-3744.581	1	5697.966	-41.08504	5.406777E-008	0.0265443	8
	6	3	251203.1	4988.621	-3846.877	1	6299.587	-37.63691	1.761025E-008	0.0265107	8
	7	3	199546.9	5684.905	-3870.164	1	6877.232	-34.24621	6.459493E-008	0.0265038	8
	8	3	158578.1	6382.069	-3838.466	1	7447.458	-31.02461	2.407931E-007	0.0264765	8
	9	4	125953.1	7069.859	-3716.114	1	7987.015	-27.72766	-4.236072E-008	0.026562	7
	10	4	100078.1	7680.398	-3562.437	1	8466.373	-24.88351	1.89248E-008	0.0264619	7
	11	4	79453.13	8243.864	-3390.039	1	8913.678	-22.35343	1.208387E-008	0.0264462	7
	12	5	63140.62	8741.562	-3198.91	1	9308.486	-20.09973	1.005406E-008	0.0264693	7
	13	5	50203.12	9191.101	-3012.734	1	9672.27	-18.14853	-1.110893E-009	0.0264423	7
	14	5	39890.62	9584.19	-2836.116	1	9995.02	-16.48433	1.350843E-008	0.0264658	7
	15	6	31640.63	9940.12	-2682.832	1	10295.8	-15.1042	5.809885E-009	0.0264647	7
	16	6	25171.88	10258.93	-2561.427	1	10573.86	-14.01887	2.038407E-008	0.0264357	7
	17	6	20015.62	10550.01	-2470.332	1	10835.37	-13.17864	-1.457945E-008	0.0264758	7
	18	7	15890.62	10817.21	-2418.064	1	11084.18	-12.60066	-1.517094E-008	0.0264739	7
	19	7	12609.37	11083.81	-2385.223	1	11337.56	-12.14477	-8.124462E-010	0.0264913	6
	20	7	10078.13	11315.25	-2422.191	1	11571.6	-12.08263	-1.974474E-009	0.0264501	6
	21	8	8015.625	11554.5	-2509.216	1	11823.81	-12.25231	2.031824E-009	0.0264496	6
	22	8	6328.125	11796.61	-2655.916	1	12091.9	-12.68814	-2.885998E-009	0.0265036	6
	23	8	5015.625	12041.69	-2861.297	1	12376.96	-13.36651	-3.686087E-009	0.0264924	6
	24	9	3984.375	12293.62	-3134.158	1	12686.85	-14.30242	-2.245128E-009	0.0264435	6
	25	9	3170.956	12568.28	-3483.673	1	13042.15	-15.49229	1.1725E-009	0.0264597	6
	26	9	2527.573	12857.25	-3915.613	1	13440.28	-16.93785	-3.679845E-009	0.0264916	6
	27	10	1976.103	13208.6	-4503.865	1	13955.36	-18.82833	2.077919E-009	0.0264469	6
	28	10	1577.524	13562.94	-5165.125	1	14513.16	-20.84815	-3.847674E-009	0.0264886	6
	29	10	1265.625	13956.16	-5944.179	1	15169.3	-23.07003	-3.640781E-009	0.0264786	6
	30	10	998.264	14444.95	-6962.007	1	16035.15	-25.73259	2.509656E-009	0.0264009	6
	31	11	796.875	14974.92	-8126.324	1	17037.76	-28.48701	1.879614E-009	0.0264419	6
	32	11	627.7902	15615.49	-9609.65	1	18335.45	-31.60782	-3.797914E-009	0.0264872	6
	33	11	505.5147	16300.21	-11234.16	1	19796.54	-34.57475	2.8438E-009	0.0264136	6
	34	12	397.9953	17165.01	-13387.42	1	21768.34	-37.95156	2.75314E-010	0.026467	6
	35	12	315.5048	18168.11	-15915.38	1	24153.25	-41.21857	3.119625E-010	0.0264638	6
	36	12	252.4038	19316.12	-18834.54	1	26978.74	-44.27679	2.299362E-010	0.0264603	6
	37	13	198.6229	20805.65	-22601.49	1	30719.74	-47.36909	2.315011E-010	0.0264621	6
	38	13	158.3615	22525.63	-26876.31	1	35067.65	-50.03288	3.052829E-010	0.02646	6
	39	13	125.558	24679.88	-32101.04	1	40491.65	-52.44624	2.534637E-010	0.0264636	6
	40	14	100.4464	27223.5	-38061.42	1	46795.2	-54.42569	1.528006E-010	0.0264601	6
	41	14	79.00281	30594	-45667.62	1	54968.39	-56.18077	2.773198E-010	0.0264592	6
	42	14	63.3446	34408.11	-53919.25	1	63962.52	-57.45636	3.153976E-010	0.0264537	6
	43	15	49.86702	39476.11	-64426.99	1	75559.25	-58.50311	3.009423E-010	0.0264564	6
	44	15	39.72458	45428.14	-76168.95	1	88687.23	-59.18761	1.404537E-010	0.0264603	6
	45	15	31.6723	52679.21	-89721.82	1	104043.8	-59.58113	-7.096759E-011	0.0264523	5
	46	16	24.93351	62135.97	-106467.1	1	123272.6	-59.73146	-2.331851E-010	0.0264504	5
	47	16	19.86229	73279.21	-124938.7	1	144843.1	-59.60746	1.008314E-010	0.0264513	5
	48	16	15.83615	86964.17	-145940.1	1	169886.1	-59.20974	-6.921669E-010	0.0264516	5
	49	17	12.40079	105335.5	-171691.5	1	201428.8	-58.47023	-1.395682E-009	0.0264575	5
	50	17	9.93114	125472.5	-197233	1	233761.1	-57.53695	-1.50204E-009	0.0264569	5
	51	17	7.944915	149569.4	-226070.8	1	271070.1	-56.51121	-3.061517E-010	0.0264589	5
	52	18	6.317385	178883.3	-257401.5	1	313456.2	-55.2023	1.193145E-010	0.0264536	5
	53	19	5.008013	213071.7	-290917.8	1	360600.5	-53.78051	-2.406651E-010	0.0264491	5
	54	19	3.945707	252418.2	-327997	1	413880.4	-52.41903	-3.470683E-010	0.0264576	5
	55	20	3.158693	291647.7	-363540.3	1	466068.6	-51.26191	-6.103819E-011	0.0264405	5
	56	21	2.504006	335414.1	-404939.5	1	525812.4	-50.36482	2.331254E-010	0.0264492	5
	57	23	1.998082	377764.3	-448897.9	1	586698.6	-49.91814	8.236954E-012	0.0264227	5
	58	24	1.584686	424328.4	-503715.2	1	658622.5	-49.88931	-9.447309E-011	0.026403	5
	59	26	1.266892	468167.3	-566795.4	1	735144.6	-50.44363	-3.398208E-011	0.0264239	5
	60	29	0.999041	517439.5	-647195	1	828616.3	-51.35728	3.968804E-013	0.0264561	5
