EXPLAIN
TAG	EISPOT
TITLE	LABEL	Potentiostatic EIS	Test &Identifier
DATE	LABEL	1/7/2021	Date
TIME	LABEL	16:15:05	Time
NOTES	NOTES	1	&Notes...
	
PSTAT	PSTAT	REF600-11020	Potentiostat
VDC	POTEN	0.00000E+000	T	DC &Voltage (V)
FREQINIT	QUANT	1.00000E+006	Initial Fre&q. (Hz)
FREQFINAL	QUANT	1.00000E+000	Final Fre&q. (Hz)
PTSPERDEC	QUANT	1.00000E+001	Points/&decade
VAC	QUANT	2.50000E+001	AC &Voltage (mV rms)
AREA	QUANT	4.00000E-005	&Area (cm^2)
CONDIT	TWOPARAM	F	5.00000E+000	0.00000E+000	Conditionin&g	Time(s)	E(V)
DELAY	TWOPARAM	F	3.00000E+000	0.00000E+000	Init. De&lay	Time(s)	Stab.(mV/s)
SPEED	SELECTOR	0	&Optimize for:
ZGUESS	QUANT	1.00000E+003	E&stimated Z (ohms)
OCVCURVE	TABLE	39
	Pt	T	Vf	Vm	Ach	Over
	#	s	V vs. Ref.	V	V	bits
	0	0.258333	8.46505E-002	8.46505E-002	5.31592E-004	...........
	1	0.516667	8.46503E-002	8.46433E-002	5.32026E-004	...........
	2	0.775	8.46494E-002	8.46327E-002	5.37292E-004	...........
	3	1.03333	8.46466E-002	8.46235E-002	5.37792E-004	...........
	4	1.29167	8.46412E-002	8.46143E-002	5.39759E-004	...........
	5	1.55	8.46335E-002	8.46054E-002	5.31226E-004	...........
	6	1.80833	8.46246E-002	8.45962E-002	5.30992E-004	...........
	7	2.06667	8.46154E-002	8.45870E-002	5.31292E-004	...........
	8	2.325	8.46061E-002	8.45769E-002	5.32459E-004	...........
	9	2.58333	8.45968E-002	8.45697E-002	5.38492E-004	...........
	10	2.84167	8.45877E-002	8.45611E-002	5.35026E-004	...........
	11	3.1	8.45787E-002	8.45527E-002	5.36292E-004	...........
	12	3.35833	8.45701E-002	8.45453E-002	5.37126E-004	...........
	13	3.61667	8.45618E-002	8.45357E-002	5.35259E-004	...........
	14	3.875	8.45534E-002	8.45237E-002	5.37492E-004	...........
	15	4.13333	8.45447E-002	8.45167E-002	5.36059E-004	...........
	16	4.39167	8.45356E-002	8.45116E-002	5.34992E-004	...........
	17	4.65	8.45267E-002	8.45033E-002	5.34392E-004	...........
	18	4.90833	8.45186E-002	8.44966E-002	5.37192E-004	...........
	19	5.16667	8.45112E-002	8.44895E-002	5.39492E-004	...........
	20	5.425	8.45041E-002	8.44832E-002	5.40459E-004	...........
	21	5.68333	8.44971E-002	8.44760E-002	5.34126E-004	...........
	22	5.94167	8.44903E-002	8.44722E-002	5.37959E-004	...........
	23	6.2	8.44838E-002	8.44637E-002	5.40659E-004	...........
	24	6.45833	8.44775E-002	8.44579E-002	5.38526E-004	...........
	25	6.71667	8.44712E-002	8.44505E-002	5.32692E-004	...........
	26	6.975	8.44647E-002	8.44442E-002	5.32226E-004	...........
	27	7.23333	8.44581E-002	8.44386E-002	5.30659E-004	...........
	28	7.49167	8.44515E-002	8.44334E-002	5.34426E-004	...........
	29	7.75	8.44452E-002	8.44256E-002	5.38092E-004	...........
	30	8.00833	8.44391E-002	8.44197E-002	5.34292E-004	...........
	31	8.26667	8.44329E-002	8.44136E-002	5.30992E-004	...........
	32	8.525	8.44266E-002	8.44080E-002	5.24459E-004	...........
	33	8.78333	8.44204E-002	8.44012E-002	5.25592E-004	...........
	34	9.04167	8.44142E-002	8.43964E-002	5.29959E-004	...........
	35	9.3	8.44082E-002	8.43900E-002	5.31926E-004	...........
	36	9.5583	8.44023E-002	8.43868E-002	5.32826E-004	...........
	37	9.8167	8.43967E-002	8.43818E-002	5.34626E-004	...........
	38	10.075	8.43915E-002	8.43750E-002	5.37359E-004	...........
EOC	QUANT	0.0843915	Open Circuit (V)
PSTATMODEL	IQUANT	4	Pstat Model
PSTATSECTION	LABEL	REF600-11020	Pstat Section
PSTATSERIALNO	LABEL	11020	Pstat Serial Number
CTRLMODE	IQUANT	1	Control Mode
IESTAB	IQUANT	0	I/E Stability
CASPEED	IQUANT	1	Control Amp Speed
CONVENTION	IQUANT	1	Current Convention
ICHRANGE	IQUANT	2	Ich Range
ICHRANGEMODE	TOGGLE	F	Ich Auto Range
ICHOFFSETENABLE	TOGGLE	T	Ich Offset Enable
ICHOFFSET	QUANT	0	Ich Offset (V)
ICHFILTER	IQUANT	3	Ich Filter
VCHRANGE	IQUANT	2	Vch Range
VCHRANGEMODE	TOGGLE	F	Vch Auto Range
VCHOFFSETENABLE	TOGGLE	T	Vch Offset Enable
VCHOFFSET	QUANT	0	Vch Offset (V)
VCHFILTER	IQUANT	3	Vch Filter
ACHRANGE	IQUANT	2	Ach Range
ACHOFFSETENABLE	TOGGLE	F	Ach Offset Enable
ACHOFFSET	QUANT	0	Ach Offset (V)
ACHFILTER	IQUANT	3	Ach Filter
IERANGELOWERLIMIT	IQUANT	1	I/E Range Lower Limit
IERANGEMODE	TOGGLE	F	I/E AutoRange
IERANGE	IQUANT	8	I/E Range
POSFEEDENABLE	TOGGLE	F	Positive Feedback IR Comp
POSFEEDRESISTANCE	QUANT	0	Positive Feedback Resistance (ohm)
ACHSELECT	IQUANT	0	Ach Select
CABLEID	IQUANT	14	Cable ID
DCCALDATE	LABEL	9/1/2020	DC Calibration Date
ACCALDATE	LABEL	9/1/2020	AC Calibration Date
THERMOSELECT	IQUANT	1	Thermo Select
FRAMEWORKVERSION	QUANT	6.33	Framework Version
INSTRUMENTVERSION	LABEL	3.50	Instrument Version
ZCURVE	TABLE
	Pt	Time	Freq	Zreal	Zimag	Zsig	Zmod	Zphz	Idc	Vdc	IERange
	#	s	Hz	ohm	ohm	V	ohm	°	A	V	#
	0	1	1000078	1697.921	-2969.763	1	3420.881	-60.24183	3.327245E-008	0.0865848	8
	1	2	794390.6	2173.168	-3420.45	1	4052.424	-57.57034	8.941781E-008	0.0862956	8
	2	2	630984.4	2766.22	-3865.113	1	4753.006	-54.4091	4.242336E-008	0.0861295	8
	3	2	501234.4	3474.978	-4266.242	1	5502.39	-50.83618	8.444106E-008	0.0860387	8
	4	3	398109.4	4294.5	-4592.6	1	6287.663	-46.92115	7.77388E-008	0.0859855	8
	5	3	316265.6	5204.002	-4807.808	1	7084.96	-42.73383	6.152705E-008	0.0859471	8
	6	3	251203.1	6135.231	-4914.183	1	7860.678	-38.69395	5.360067E-008	0.0859405	8
	7	4	199546.9	7052.108	-4874.533	1	8572.823	-34.65286	6.433569E-008	0.0859424	8
	8	4	158578.1	7922.23	-4742.966	1	9233.497	-30.90857	7.52153E-008	0.0859363	8
	9	4	125953.1	8720.914	-4529.952	1	9827.25	-27.44896	3.069428E-008	0.0858921	7
	10	4	100078.1	9417.673	-4292.528	1	10349.8	-24.50326	-4.817188E-009	0.0859089	7
	11	5	79453.13	10021.19	-4070.252	1	10816.24	-22.10526	-6.766981E-009	0.0859029	7
	12	5	63140.62	10551.41	-3874.414	1	11240.25	-20.16293	-6.166087E-010	0.0858925	7
	13	5	50203.12	11018.87	-3714.05	1	11627.97	-18.62704	-1.574268E-011	0.0858995	7
	14	6	39890.62	11452.29	-3611.392	1	12008.21	-17.50227	5.340754E-009	0.0858833	7
	15	6	31640.63	11857.51	-3560.265	1	12380.47	-16.7126	-2.544529E-009	0.0858818	7
	16	6	25171.88	12237.07	-3569.827	1	12747.14	-16.26315	7.09115E-009	0.0858867	7
	17	7	20015.62	12623.82	-3647.566	1	13140.23	-16.11628	3.538325E-009	0.0858802	7
	18	7	15890.62	13016.48	-3785.475	1	13555.76	-16.21558	-5.180202E-009	0.0858941	7
	19	7	12609.37	13439.24	-3967.85	1	14012.74	-16.4489	1.400804E-009	0.0858754	6
	20	8	10078.13	13855.36	-4244.159	1	14490.83	-17.03081	1.599107E-009	0.0858691	6
	21	8	8015.625	14310.43	-4597.669	1	15030.87	-17.81123	1.356441E-010	0.0858795	6
	22	8	6328.125	14826.72	-5048.037	1	15662.52	-18.80211	-2.970778E-012	0.0858754	6
	23	9	5015.625	15385.91	-5582.773	1	16367.45	-19.9433	-3.941195E-010	0.0858976	6
	24	9	3984.375	15994.39	-6209.938	1	17157.62	-21.21906	-1.126861E-009	0.0859007	6
	25	9	3170.956	16672.73	-6942.604	1	18060.44	-22.60708	1.177185E-009	0.085875	6
	26	10	2527.573	17419.38	-7792.079	1	19082.75	-24.10003	1.566913E-009	0.0858715	6
	27	10	1976.103	18331.44	-8868.015	1	20363.77	-25.81584	1.088884E-009	0.0858627	6
	28	10	1577.524	19286.52	-10010.58	1	21729.74	-27.43137	1.471598E-009	0.0858625	6
	29	11	1265.625	20329.25	-11296.9	1	23257.22	-29.06078	-1.174995E-009	0.0858944	6
	30	11	998.264	21616.1	-12898.03	1	25171.71	-30.82395	-1.12431E-009	0.0859	6
	31	11	796.875	23015.06	-14648.93	1	27281.57	-32.47648	1.468933E-009	0.0858625	6
	32	12	627.7902	24696.37	-16765.37	1	29849.42	-34.171	9.198982E-011	0.0858901	6
	33	12	505.5147	26446.97	-18968.06	1	32545.81	-35.64851	-5.371006E-010	0.0858736	6
	34	12	397.9953	28667.94	-21753.72	1	35987.15	-37.19184	3.227445E-010	0.0859038	6
	35	12	315.5048	31141.6	-24840.81	1	39835.47	-38.57841	3.713576E-010	0.0859056	6
	36	13	252.4038	33861.39	-28208.82	1	44071.89	-39.79657	3.012298E-010	0.0859059	6
	37	13	198.6229	37206.05	-32321.55	1	49284.61	-40.98142	2.861834E-010	0.0859046	6
	38	13	158.3615	40817.05	-36734.39	1	54913.08	-41.98647	3.199962E-010	0.0858994	6
	39	14	125.558	45034.01	-41865.77	1	61488.25	-42.912	3.419967E-010	0.0859024	6
	40	14	100.4464	49616.26	-47430.84	1	68640.06	-43.70996	3.126285E-010	0.0858999	6
	41	14	79.00281	55209.32	-54242.3	1	77397.01	-44.4938	4.568988E-010	0.0858984	6
	42	15	63.3446	61005.13	-61357.23	1	86523.61	-45.16488	3.276801E-010	0.0858957	6
	43	15	49.86702	68043.53	-70134.06	1	97717.5	-45.86678	2.507043E-010	0.0858963	6
	44	16	39.72458	75510.1	-79627.72	1	109737.6	-46.52037	1.43463E-010	0.0858931	5
	45	16	31.6723	83800.43	-90598.88	1	123412.6	-47.23238	-1.436237E-010	0.0858957	5
	46	16	24.93351	93596.9	-104042.6	1	139947.3	-48.02539	3.252148E-010	0.0858923	5
	47	17	19.86229	104094.7	-119106	1	158183.3	-48.8476	5.293931E-011	0.0858972	5
	48	17	15.83615	116009.9	-136648	1	179251.2	-49.66978	6.224921E-010	0.085895	5
	49	17	12.40079	131047.3	-159065.7	1	206095.4	-50.51637	1.258792E-009	0.0858909	5
	50	17	9.93114	146808.5	-182740.9	1	234407.7	-51.22266	1.371543E-009	0.085896	5
	51	18	7.944915	165941.3	-210909.8	1	268364.4	-51.80476	2.201179E-010	0.0858909	5
	52	18	6.317385	189394	-243678	1	308624.4	-52.14455	-7.043583E-011	0.0859032	5
	53	19	5.008013	218157.3	-281154.6	1	355865.9	-52.19091	2.752392E-010	0.0859036	5
	54	20	3.945707	253689.3	-324644.2	1	412009.8	-51.99458	4.171928E-010	0.0858974	5
	55	21	3.158693	292137	-368162.3	1	469986.7	-51.56798	1.431272E-010	0.0859094	5
	56	22	2.504006	339080.8	-418217.9	1	538406.9	-50.96571	-1.768459E-010	0.0858972	5
	57	23	1.998082	388390.9	-468971	1	608918.1	-50.36924	7.413271E-011	0.0859161	5
	58	25	1.584686	445789.5	-527361.2	1	690534.6	-49.79146	2.006434E-010	0.0859427	5
	59	27	1.266892	501889.4	-589581.7	1	774273.6	-49.59346	1.461459E-010	0.0859135	5
	60	29	0.999041	564021.8	-662927.8	1	870398.6	-49.60873	1.053355E-010	0.085884	5
