EXPLAIN
TAG	EISPOT
TITLE	LABEL	Potentiostatic EIS	Test &Identifier
DATE	LABEL	1/7/2021	Date
TIME	LABEL	16:23:42	Time
NOTES	NOTES	1	&Notes...
	
PSTAT	PSTAT	REF600-11020	Potentiostat
VDC	POTEN	0.00000E+000	T	DC &Voltage (V)
FREQINIT	QUANT	1.00000E+006	Initial Fre&q. (Hz)
FREQFINAL	QUANT	1.00000E+000	Final Fre&q. (Hz)
PTSPERDEC	QUANT	1.00000E+001	Points/&decade
VAC	QUANT	2.50000E+001	AC &Voltage (mV rms)
AREA	QUANT	4.00000E-005	&Area (cm^2)
CONDIT	TWOPARAM	F	5.00000E+000	0.00000E+000	Conditionin&g	Time(s)	E(V)
DELAY	TWOPARAM	F	3.00000E+000	0.00000E+000	Init. De&lay	Time(s)	Stab.(mV/s)
SPEED	SELECTOR	0	&Optimize for:
ZGUESS	QUANT	1.00000E+003	E&stimated Z (ohms)
OCVCURVE	TABLE	39
	Pt	T	Vf	Vm	Ach	Over
	#	s	V vs. Ref.	V	V	bits
	0	0.258333	2.45220E-002	2.45220E-002	5.38259E-004	...........
	1	0.516667	2.45217E-002	2.45050E-002	5.43159E-004	...........
	2	0.775	2.45197E-002	2.44927E-002	5.39259E-004	...........
	3	1.03333	2.45144E-002	2.44750E-002	5.35926E-004	...........
	4	1.29167	2.45049E-002	2.44552E-002	5.37892E-004	...........
	5	1.55	2.44916E-002	2.44453E-002	5.42859E-004	...........
	6	1.80833	2.44762E-002	2.44289E-002	5.47425E-004	...........
	7	2.06667	2.44605E-002	2.44181E-002	5.41859E-004	...........
	8	2.325	2.44456E-002	2.44067E-002	5.40259E-004	...........
	9	2.58333	2.44319E-002	2.43932E-002	5.39292E-004	...........
	10	2.84167	2.44191E-002	2.43814E-002	5.38859E-004	...........
	11	3.1	2.44068E-002	2.43702E-002	5.41392E-004	...........
	12	3.35833	2.43946E-002	2.43580E-002	5.36859E-004	...........
	13	3.61667	2.43826E-002	2.43448E-002	5.44159E-004	...........
	14	3.875	2.43707E-002	2.43355E-002	5.39092E-004	...........
	15	4.13333	2.43589E-002	2.43284E-002	5.45692E-004	...........
	16	4.39167	2.43477E-002	2.43179E-002	5.34826E-004	...........
	17	4.65	2.43375E-002	2.43060E-002	5.43359E-004	...........
	18	4.90833	2.43275E-002	2.42903E-002	5.42225E-004	...........
	19	5.16667	2.43170E-002	2.42782E-002	5.38759E-004	...........
	20	5.425	2.43053E-002	2.42684E-002	5.38559E-004	...........
	21	5.68333	2.42929E-002	2.42557E-002	5.37359E-004	...........
	22	5.94167	2.42806E-002	2.42495E-002	5.40992E-004	...........
	23	6.2	2.42692E-002	2.42378E-002	5.37392E-004	...........
	24	6.45833	2.42586E-002	2.42291E-002	5.40826E-004	...........
	25	6.71667	2.42487E-002	2.42206E-002	5.39259E-004	...........
	26	6.975	2.42392E-002	2.42095E-002	5.38592E-004	...........
	27	7.23333	2.42299E-002	2.42030E-002	5.40492E-004	...........
	28	7.49167	2.42207E-002	2.41938E-002	5.42592E-004	...........
	29	7.75	2.42118E-002	2.41866E-002	5.35326E-004	...........
	30	8.00833	2.42031E-002	2.41750E-002	5.41192E-004	...........
	31	8.26667	2.41946E-002	2.41658E-002	5.40759E-004	...........
	32	8.525	2.41857E-002	2.41572E-002	5.47159E-004	...........
	33	8.78333	2.41764E-002	2.41501E-002	5.42625E-004	...........
	34	9.04167	2.41673E-002	2.41426E-002	5.44025E-004	...........
	35	9.3	2.41587E-002	2.41321E-002	5.40325E-004	...........
	36	9.5583	2.41504E-002	2.41252E-002	5.41692E-004	...........
	37	9.8167	2.41422E-002	2.41183E-002	5.40192E-004	...........
	38	10.075	2.41341E-002	2.41127E-002	5.43959E-004	...........
EOC	QUANT	0.0241341	Open Circuit (V)
PSTATMODEL	IQUANT	4	Pstat Model
PSTATSECTION	LABEL	REF600-11020	Pstat Section
PSTATSERIALNO	LABEL	11020	Pstat Serial Number
CTRLMODE	IQUANT	1	Control Mode
IESTAB	IQUANT	0	I/E Stability
CASPEED	IQUANT	1	Control Amp Speed
CONVENTION	IQUANT	1	Current Convention
ICHRANGE	IQUANT	2	Ich Range
ICHRANGEMODE	TOGGLE	F	Ich Auto Range
ICHOFFSETENABLE	TOGGLE	T	Ich Offset Enable
ICHOFFSET	QUANT	0	Ich Offset (V)
ICHFILTER	IQUANT	3	Ich Filter
VCHRANGE	IQUANT	2	Vch Range
VCHRANGEMODE	TOGGLE	F	Vch Auto Range
VCHOFFSETENABLE	TOGGLE	T	Vch Offset Enable
VCHOFFSET	QUANT	0	Vch Offset (V)
VCHFILTER	IQUANT	3	Vch Filter
ACHRANGE	IQUANT	2	Ach Range
ACHOFFSETENABLE	TOGGLE	F	Ach Offset Enable
ACHOFFSET	QUANT	0	Ach Offset (V)
ACHFILTER	IQUANT	3	Ach Filter
IERANGELOWERLIMIT	IQUANT	1	I/E Range Lower Limit
IERANGEMODE	TOGGLE	F	I/E AutoRange
IERANGE	IQUANT	7	I/E Range
POSFEEDENABLE	TOGGLE	F	Positive Feedback IR Comp
POSFEEDRESISTANCE	QUANT	0	Positive Feedback Resistance (ohm)
ACHSELECT	IQUANT	0	Ach Select
CABLEID	IQUANT	14	Cable ID
DCCALDATE	LABEL	9/1/2020	DC Calibration Date
ACCALDATE	LABEL	9/1/2020	AC Calibration Date
THERMOSELECT	IQUANT	1	Thermo Select
FRAMEWORKVERSION	QUANT	6.33	Framework Version
INSTRUMENTVERSION	LABEL	3.50	Instrument Version
ZCURVE	TABLE
	Pt	Time	Freq	Zreal	Zimag	Zsig	Zmod	Zphz	Idc	Vdc	IERange
	#	s	Hz	ohm	ohm	V	ohm	°	A	V	#
	0	1	1000078	1323.876	-2784.875	1	3083.533	-64.57449	2.008517E-007	0.0264838	8
	1	2	794390.6	1653.124	-3268.651	1	3662.909	-63.17194	-2.276161E-008	0.026161	8
	2	2	630984.4	2059.122	-3798.389	1	4320.619	-61.5377	3.996454E-008	0.0259822	8
	3	2	501234.4	2548.754	-4388.28	1	5074.756	-59.85159	4.603859E-008	0.0258825	8
	4	3	398109.4	3141.204	-5021.056	1	5922.682	-57.96965	5.485893E-008	0.0258139	8
	5	3	316265.6	3841.643	-5697.039	1	6871.279	-56.00732	4.998536E-008	0.0257933	8
	6	3	251203.1	4630.122	-6427.134	1	7921.242	-54.23093	6.857525E-008	0.0257663	8
	7	3	199546.9	5571.694	-7171.486	1	9081.52	-52.15554	5.658625E-008	0.0257623	8
	8	4	158578.1	6623.51	-7975.003	1	10366.85	-50.28922	3.136417E-008	0.0257456	8
	9	4	125953.1	7857.024	-8779.774	1	11782.07	-48.17463	-5.312435E-009	0.0257712	7
	10	4	100078.1	9203.445	-9619.76	1	13313.27	-46.26701	-9.86256E-009	0.0257316	7
	11	5	79453.13	10685.66	-10469.53	1	14959.76	-44.41467	9.630726E-009	0.0257155	7
	12	5	63140.62	12352.69	-11334.52	1	16764.85	-42.53871	-4.767652E-009	0.0257113	7
	13	5	50203.12	14181.28	-12161.83	1	18682.04	-40.61632	8.270997E-009	0.0256981	7
	14	6	39890.62	16221.69	-12915.22	1	20735.14	-38.52575	-3.547336E-009	0.0257158	7
	15	6	31640.63	18480.91	-13610.26	1	22951.76	-36.36977	-9.215144E-009	0.0257071	7
	16	6	25171.88	20871.5	-14133.67	1	25206.75	-34.10489	1.014985E-008	0.0256907	7
	17	7	20015.62	23421.37	-14422.04	1	27505.56	-31.62327	9.170342E-009	0.0256918	7
	18	7	15890.62	26053.98	-14460.08	1	29797.71	-29.03049	2.831196E-009	0.0256896	7
	19	7	12609.37	28654.62	-14145.23	1	31955.82	-26.27305	2.064339E-010	0.0256906	6
	20	8	10078.13	31019.8	-13628.1	1	33881.46	-23.71759	-5.228795E-010	0.0256962	6
	21	8	8015.625	33203.14	-12926.12	1	35630.51	-21.27116	2.191682E-009	0.0256915	6
	22	8	6328.125	35146.33	-12091.68	1	37168.18	-18.98518	-1.448935E-009	0.025721	6
	23	9	5015.625	36787.71	-11307.47	1	38486.3	-17.08591	1.873831E-009	0.0256775	6
	24	9	3984.375	38113.82	-10622.77	1	39566.48	-15.57378	1.897429E-009	0.0256735	6
	25	9	3170.956	39270.49	-10119.58	1	40553.39	-14.45012	-1.471279E-009	0.0257137	6
	26	10	2527.573	40241.59	-9821.75	1	41422.85	-13.716	-1.369862E-009	0.0257111	6
	27	10	1976.103	41213.46	-9763.02	1	42354.05	-13.32708	1.475188E-009	0.0256736	6
	28	10	1577.524	42050.84	-9954.31	1	43212.98	-13.31795	-1.221407E-009	0.025719	6
	29	11	1265.625	42851.98	-10400.16	1	44095.98	-13.64189	9.679341E-010	0.025672	6
	30	11	998.264	43736.67	-11152.43	1	45136.16	-14.30504	-1.079512E-009	0.0256977	6
	31	11	796.875	44659.67	-12157.34	1	46284.84	-15.22816	-1.771792E-009	0.0257102	6
	32	11	627.7902	45711.12	-13564.94	1	47681.38	-16.52845	1.849852E-009	0.0256677	6
	33	12	505.5147	46737.63	-15163.11	1	49135.79	-17.97464	1.702716E-009	0.0256702	6
	34	12	397.9953	48009.1	-17350.06	1	51048	-19.86941	3.020686E-010	0.0257173	6
	35	12	315.5048	49385.11	-19960.61	1	53266.45	-22.00771	2.968065E-010	0.0257153	6
	36	13	252.4038	50861.32	-23003.61	1	55821.5	-24.33634	2.822679E-010	0.0257099	6
	37	13	198.6229	52658.21	-26977.33	1	59166.4	-27.12652	2.613659E-010	0.0257097	6
	38	13	158.3615	54527.95	-31537.97	1	62991.59	-30.0443	2.627116E-010	0.0257035	6
	39	14	125.558	56751.12	-37199.64	1	67856.49	-33.24434	2.013369E-010	0.0257072	6
	40	14	100.4464	59156.93	-43791.34	1	73601.79	-36.51096	2.204966E-010	0.0257059	6
	41	14	79.00281	62194.18	-52417.32	1	81336.9	-40.12422	1.844687E-010	0.0257069	6
	42	15	63.3446	65456.26	-62053.19	1	90194.9	-43.47121	9.599502E-011	0.025704	6
	43	15	49.86702	69635.19	-74649.39	1	102086.2	-46.99035	-7.343928E-011	0.0256937	5
	44	16	39.72458	74412.24	-89268.35	1	116215.4	-50.18612	-2.183459E-010	0.025699	5
	45	16	31.6723	80171.19	-106864.7	1	133594.5	-53.12232	-1.518349E-010	0.0256988	5
	46	16	24.93351	87617.04	-129387.1	1	156261.8	-55.89533	-2.097109E-010	0.0256996	5
	47	16	19.86229	96234	-155410.3	1	182793.2	-58.23314	-5.10519E-010	0.0256983	5
	48	17	15.83615	107048.1	-186547.9	1	215080	-60.15121	1.877878E-010	0.0256987	5
	49	17	12.40079	121612.6	-227164	1	257668.6	-61.83756	4.150697E-011	0.0256984	5
	50	17	9.93114	138533.6	-271609.6	1	304898.8	-62.97629	1.853272E-010	0.0256939	5
	51	18	7.944915	159615.8	-324459.6	1	361595.3	-63.80542	3.538412E-010	0.025689	5
	52	18	6.317385	187818.5	-389203.6	1	432151.9	-64.23937	-9.165304E-011	0.0257101	5
	53	19	5.008013	224552.7	-466801.3	1	518003.3	-64.31033	-1.224751E-010	0.0256889	5
	54	20	3.945707	273061.8	-559277.6	1	622377.9	-63.97651	9.383569E-011	0.0256978	5
	55	21	3.158693	331798.2	-659310.8	1	738092.7	-63.28617	-7.352285E-011	0.0256985	5
	56	22	2.504006	408338.8	-776940.6	1	877711.3	-62.27481	-3.605423E-011	0.0256849	5
	57	23	1.998082	503186.2	-905351.4	1	1035788	-60.93509	6.211313E-011	0.0257314	4
	58	25	1.584686	618492.1	-1048040	1	1216931	-59.45338	4.777887E-011	0.0256955	4
	59	27	1.266892	757662.3	-1194848	1	1414819	-57.6209	9.532215E-012	0.025657	4
	60	29	0.999041	931527.8	-1361967	1	1650060	-55.62953	-2.231027E-011	0.0256425	4
