EXPLAIN
TAG	EISPOT
TITLE	LABEL	Potentiostatic EIS	Test &Identifier
DATE	LABEL	1/7/2021	Date
TIME	LABEL	16:36:31	Time
NOTES	NOTES	1	&Notes...
	
PSTAT	PSTAT	REF600-11020	Potentiostat
VDC	POTEN	0.00000E+000	T	DC &Voltage (V)
FREQINIT	QUANT	1.00000E+006	Initial Fre&q. (Hz)
FREQFINAL	QUANT	1.00000E+000	Final Fre&q. (Hz)
PTSPERDEC	QUANT	1.00000E+001	Points/&decade
VAC	QUANT	2.50000E+001	AC &Voltage (mV rms)
AREA	QUANT	4.00000E-005	&Area (cm^2)
CONDIT	TWOPARAM	F	5.00000E+000	0.00000E+000	Conditionin&g	Time(s)	E(V)
DELAY	TWOPARAM	F	3.00000E+000	0.00000E+000	Init. De&lay	Time(s)	Stab.(mV/s)
SPEED	SELECTOR	0	&Optimize for:
ZGUESS	QUANT	1.00000E+003	E&stimated Z (ohms)
OCVCURVE	TABLE	39
	Pt	T	Vf	Vm	Ach	Over
	#	s	V vs. Ref.	V	V	bits
	0	0.258333	7.14101E-002	7.14101E-002	5.29692E-004	...........
	1	0.516667	7.14102E-002	7.14120E-002	5.36392E-004	...........
	2	0.775	7.14103E-002	7.14104E-002	5.29759E-004	...........
	3	1.03333	7.14106E-002	7.14152E-002	5.33492E-004	...........
	4	1.29167	7.14112E-002	7.14107E-002	5.34659E-004	...........
	5	1.55	7.14116E-002	7.14031E-002	5.33026E-004	...........
	6	1.80833	7.14110E-002	7.13961E-002	5.29592E-004	...........
	7	2.06667	7.14083E-002	7.13944E-002	5.35792E-004	...........
	8	2.325	7.14040E-002	7.13953E-002	5.34892E-004	...........
	9	2.58333	7.13996E-002	7.13901E-002	5.35259E-004	...........
	10	2.84167	7.13961E-002	7.13845E-002	5.38326E-004	...........
	11	3.1	7.13929E-002	7.13817E-002	5.31259E-004	...........
	12	3.35833	7.13896E-002	7.13797E-002	5.31592E-004	...........
	13	3.61667	7.13861E-002	7.13795E-002	5.28592E-004	...........
	14	3.875	7.13830E-002	7.13758E-002	5.33126E-004	...........
	15	4.13333	7.13805E-002	7.13726E-002	5.42625E-004	...........
	16	4.39167	7.13783E-002	7.13723E-002	5.35659E-004	...........
	17	4.65	7.13760E-002	7.13710E-002	5.33592E-004	...........
	18	4.90833	7.13740E-002	7.13672E-002	5.37992E-004	...........
	19	5.16667	7.13720E-002	7.13638E-002	5.35526E-004	...........
	20	5.425	7.13699E-002	7.13645E-002	5.31326E-004	...........
	21	5.68333	7.13678E-002	7.13653E-002	5.31592E-004	...........
	22	5.94167	7.13659E-002	7.13602E-002	5.29626E-004	...........
	23	6.2	7.13646E-002	7.13599E-002	5.32892E-004	...........
	24	6.45833	7.13632E-002	7.13568E-002	5.32026E-004	...........
	25	6.71667	7.13614E-002	7.13536E-002	5.35626E-004	...........
	26	6.975	7.13593E-002	7.13542E-002	5.31459E-004	...........
	27	7.23333	7.13572E-002	7.13524E-002	5.35359E-004	...........
	28	7.49167	7.13552E-002	7.13502E-002	5.35392E-004	...........
	29	7.75	7.13536E-002	7.13491E-002	5.30926E-004	...........
	30	8.00833	7.13522E-002	7.13494E-002	5.30026E-004	...........
	31	8.26667	7.13508E-002	7.13474E-002	5.31892E-004	...........
	32	8.525	7.13497E-002	7.13467E-002	5.32159E-004	...........
	33	8.78333	7.13487E-002	7.13441E-002	5.32559E-004	...........
	34	9.04167	7.13475E-002	7.13418E-002	5.38326E-004	...........
	35	9.3	7.13460E-002	7.13403E-002	5.29359E-004	...........
	36	9.5583	7.13443E-002	7.13398E-002	5.32026E-004	...........
	37	9.8167	7.13425E-002	7.13397E-002	5.35159E-004	...........
	38	10.075	7.13411E-002	7.13401E-002	5.28126E-004	...........
EOC	QUANT	0.0713411	Open Circuit (V)
PSTATMODEL	IQUANT	4	Pstat Model
PSTATSECTION	LABEL	REF600-11020	Pstat Section
PSTATSERIALNO	LABEL	11020	Pstat Serial Number
CTRLMODE	IQUANT	1	Control Mode
IESTAB	IQUANT	0	I/E Stability
CASPEED	IQUANT	1	Control Amp Speed
CONVENTION	IQUANT	1	Current Convention
ICHRANGE	IQUANT	2	Ich Range
ICHRANGEMODE	TOGGLE	F	Ich Auto Range
ICHOFFSETENABLE	TOGGLE	T	Ich Offset Enable
ICHOFFSET	QUANT	0	Ich Offset (V)
ICHFILTER	IQUANT	3	Ich Filter
VCHRANGE	IQUANT	2	Vch Range
VCHRANGEMODE	TOGGLE	F	Vch Auto Range
VCHOFFSETENABLE	TOGGLE	T	Vch Offset Enable
VCHOFFSET	QUANT	0	Vch Offset (V)
VCHFILTER	IQUANT	3	Vch Filter
ACHRANGE	IQUANT	2	Ach Range
ACHOFFSETENABLE	TOGGLE	F	Ach Offset Enable
ACHOFFSET	QUANT	0	Ach Offset (V)
ACHFILTER	IQUANT	3	Ach Filter
IERANGELOWERLIMIT	IQUANT	1	I/E Range Lower Limit
IERANGEMODE	TOGGLE	F	I/E AutoRange
IERANGE	IQUANT	8	I/E Range
POSFEEDENABLE	TOGGLE	F	Positive Feedback IR Comp
POSFEEDRESISTANCE	QUANT	0	Positive Feedback Resistance (ohm)
ACHSELECT	IQUANT	0	Ach Select
CABLEID	IQUANT	14	Cable ID
DCCALDATE	LABEL	9/1/2020	DC Calibration Date
ACCALDATE	LABEL	9/1/2020	AC Calibration Date
THERMOSELECT	IQUANT	1	Thermo Select
FRAMEWORKVERSION	QUANT	6.33	Framework Version
INSTRUMENTVERSION	LABEL	3.50	Instrument Version
ZCURVE	TABLE
	Pt	Time	Freq	Zreal	Zimag	Zsig	Zmod	Zphz	Idc	Vdc	IERange
	#	s	Hz	ohm	ohm	V	ohm	°	A	V	#
	0	1	1000078	1571.248	-2850.979	1	3255.288	-61.13972	-5.568337E-008	0.0733978	8
	1	1	794390.6	1931.57	-3313.019	1	3834.978	-59.75678	1.190492E-007	0.0731271	8
	2	2	630984.4	2372.452	-3835.457	1	4509.907	-58.26081	4.485075E-008	0.0729305	8
	3	2	501234.4	2919.571	-4396.769	1	5277.828	-56.41478	8.069027E-008	0.072876	8
	4	2	398109.4	3589.24	-5008.273	1	6161.611	-54.37226	5.235187E-008	0.0727866	8
	5	3	316265.6	4417.882	-5624.069	1	7151.771	-51.84926	5.164547E-008	0.0727512	8
	6	3	251203.1	5404.981	-6207.625	1	8230.943	-48.9539	5.00063E-008	0.0727417	8
	7	3	199546.9	6559.454	-6724.469	1	9393.877	-45.7117	6.169592E-008	0.0727444	8
	8	4	158578.1	7829.105	-7124.234	1	10585.35	-42.30119	5.380406E-008	0.0727423	8
	9	4	125953.1	9230.82	-7307.862	1	11773.4	-38.36798	2.317478E-009	0.0727738	7
	10	4	100078.1	10631.77	-7346.925	1	12923.31	-34.64582	1.088027E-008	0.0727143	7
	11	5	79453.13	12004.12	-7218.509	1	14007.35	-31.02	-5.398826E-009	0.0727122	7
	12	5	63140.62	13266.95	-6951.45	1	14977.81	-27.65307	1.03155E-008	0.0727038	7
	13	5	50203.12	14405.72	-6568.914	1	15832.73	-24.51268	1.078088E-008	0.0727005	7
	14	6	39890.62	15414.28	-6144.372	1	16593.78	-21.73299	1.091636E-008	0.0727026	7
	15	6	31640.63	16280.02	-5701.157	1	17249.41	-19.29992	7.942986E-009	0.0727126	7
	16	6	25171.88	17027.35	-5302.693	1	17833.93	-17.29774	1.009906E-008	0.0726966	7
	17	7	20015.62	17680.69	-4956.718	1	18362.35	-15.66065	1.223638E-008	0.0726904	7
	18	7	15890.62	18265.58	-4676.86	1	18854.82	-14.36191	-2.574544E-009	0.0726942	7
	19	7	12609.37	18764.08	-4440.682	1	19282.38	-13.31458	-1.414556E-009	0.0727174	6
	20	8	10078.13	19219.14	-4316.254	1	19697.86	-12.65753	-1.56707E-009	0.0727171	6
	21	8	8015.625	19658.28	-4274.574	1	20117.65	-12.26766	1.269536E-009	0.0726777	6
	22	8	6328.125	20106.45	-4324.374	1	20566.22	-12.13793	1.34017E-009	0.0726937	6
	23	9	5015.625	20527.06	-4461.778	1	21006.37	-12.26311	-1.608035E-010	0.0727113	6
	24	9	3984.375	20953.21	-4696.522	1	21473.11	-12.63366	-1.833029E-010	0.0727113	6
	25	9	3170.956	21393.38	-5033.305	1	21977.51	-13.23942	1.196871E-009	0.0726713	6
	26	9	2527.573	21844.09	-5472.215	1	22519.09	-14.06387	-3.351968E-010	0.0727068	6
	27	10	1976.103	22395.78	-6091.899	1	23209.53	-15.21692	-1.598329E-009	0.0727075	6
	28	10	1577.524	22957.04	-6801.396	1	23943.36	-16.50278	-4.292742E-010	0.072707	6
	29	10	1265.625	23545.53	-7639.474	1	24753.86	-17.97593	-1.653179E-009	0.0727078	6
	30	11	998.264	24258.67	-8731.813	1	25782.31	-19.79614	-1.31027E-009	0.0727103	6
	31	11	796.875	24995.8	-9982.73	1	26915.52	-21.7706	-5.062761E-011	0.0726767	6
	32	11	627.7902	25885.66	-11569.31	1	28353.42	-24.08174	-4.730116E-010	0.0726838	6
	33	12	505.5147	26786.91	-13291.26	1	29903.11	-26.38991	1.603323E-009	0.0726687	6
	34	12	397.9953	27911.04	-15563.23	1	31956.85	-29.1441	5.095736E-010	0.0727057	6
	35	12	315.5048	29121.75	-18226.18	1	34355.06	-32.04087	4.554379E-010	0.0727082	6
	36	13	252.4038	30470.27	-21294.67	1	37173.92	-34.94843	5.047729E-010	0.0727036	6
	37	13	198.6229	32099.84	-25268.06	1	40851.86	-38.2088	5.127819E-010	0.0727027	6
	38	13	158.3615	33892.52	-29806.64	1	45134.67	-41.32988	4.653379E-010	0.0726988	6
	39	14	125.558	36014.32	-35406.63	1	50504.06	-44.51251	4.406278E-010	0.0727012	6
	40	14	100.4464	38371.15	-41888.64	1	56806.71	-47.50946	4.485838E-010	0.0726991	6
	41	14	79.00281	41369.39	-50313.87	1	65137.64	-50.57206	4.513007E-010	0.0726966	6
	42	15	63.3446	44636.91	-59646.24	1	74499.18	-53.19025	4.952014E-010	0.0726975	6
	43	15	49.86702	48820.74	-71841.3	1	86859.88	-55.8014	3.468071E-010	0.0726956	6
	44	15	39.72458	53576.82	-85859.06	1	101204	-58.03547	4.30336E-010	0.072699	6
	45	16	31.6723	59218.62	-102589.4	1	118454.3	-60.00477	-5.920173E-011	0.0726892	5
	46	16	24.93351	66410.41	-124056.7	1	140713.9	-61.83883	1.742413E-010	0.0726891	5
	47	16	19.86229	74696.59	-148738.2	1	166441.1	-63.33411	4.510007E-010	0.072698	5
	48	17	15.83615	84836.95	-178468.5	1	197606.4	-64.57541	-8.128374E-011	0.0726894	5
	49	17	12.40079	98633.7	-217184	1	238532	-65.57491	3.139649E-010	0.07269	5
	50	17	9.93114	114230.4	-259590.6	1	283612.2	-66.24856	2.083359E-010	0.0726949	5
	51	18	7.944915	134004.6	-310087.8	1	337804.2	-66.62839	-2.930891E-010	0.0726938	5
	52	18	6.317385	159848.9	-371891	1	404789.6	-66.74065	1.906788E-010	0.0726791	5
	53	19	5.008013	193292.5	-445950.8	1	486039.2	-66.56621	2.390139E-010	0.0726868	5
	54	20	3.945707	237114.1	-534227.9	1	584484.8	-66.06622	1.224878E-011	0.0726751	5
	55	21	3.158693	288530.5	-630488.5	1	693372.6	-65.40974	1.729382E-010	0.0726848	5
	56	22	2.504006	354816.2	-743620.4	1	823933.2	-64.492	7.088916E-011	0.072682	5
	57	23	1.998082	432374.5	-869547.1	1	971113	-63.56155	1.178697E-011	0.07264	5
	58	24	1.584686	529017	-1013301	1	1143083	-62.43217	1.890788E-011	0.0726933	4
	59	26	1.266892	641689.8	-1171273	1	1335532	-61.28357	4.807088E-011	0.0727181	4
	60	29	0.999041	777756.1	-1361205	1	1567732	-60.2575	5.656839E-011	0.0727231	4
