EXPLAIN
TAG	EISPOT
TITLE	LABEL	Potentiostatic EIS	Test &Identifier
DATE	LABEL	6/10/2021	Date
TIME	LABEL	15:15:38	Time
NOTES	NOTES	1	&Notes...
	
PSTAT	PSTAT	REF600-11020	Potentiostat
VDC	POTEN	0.00000E+000	T	DC &Voltage (V)
FREQINIT	QUANT	1.00000E+006	Initial Fre&q. (Hz)
FREQFINAL	QUANT	1.00000E+000	Final Fre&q. (Hz)
PTSPERDEC	QUANT	1.00000E+001	Points/&decade
VAC	QUANT	2.50000E+001	AC &Voltage (mV rms)
AREA	QUANT	4.00000E-005	&Area (cm^2)
CONDIT	TWOPARAM	F	5.00000E+000	0.00000E+000	Conditionin&g	Time(s)	E(V)
DELAY	TWOPARAM	F	3.00000E+000	0.00000E+000	Init. De&lay	Time(s)	Stab.(mV/s)
SPEED	SELECTOR	0	&Optimize for:
ZGUESS	QUANT	1.00000E+003	E&stimated Z (ohms)
OCVCURVE	TABLE	39
	Pt	T	Vf	Vm	Ach	Over
	#	s	V vs. Ref.	V	V	bits
	0	0.258333	6.89868E-002	6.89868E-002	5.02893E-004	...........
	1	0.516667	6.89867E-002	6.89834E-002	5.01493E-004	...........
	2	0.775	6.89863E-002	6.89802E-002	5.05093E-004	...........
	3	1.03333	6.89852E-002	6.89791E-002	5.01093E-004	...........
	4	1.29167	6.89835E-002	6.89767E-002	5.05126E-004	...........
	5	1.55	6.89811E-002	6.89638E-002	5.04126E-004	...........
	6	1.80833	6.89778E-002	6.89633E-002	5.00260E-004	...........
	7	2.06667	6.89734E-002	6.89606E-002	5.03826E-004	...........
	8	2.325	6.89686E-002	6.89573E-002	5.03193E-004	...........
	9	2.58333	6.89642E-002	6.89550E-002	5.01560E-004	...........
	10	2.84167	6.89607E-002	6.89531E-002	5.05793E-004	...........
	11	3.1	6.89578E-002	6.89478E-002	5.02626E-004	...........
	12	3.35833	6.89550E-002	6.89444E-002	5.06026E-004	...........
	13	3.61667	6.89519E-002	6.89413E-002	5.07726E-004	...........
	14	3.875	6.89485E-002	6.89347E-002	5.07626E-004	...........
	15	4.13333	6.89447E-002	6.89332E-002	5.08326E-004	...........
	16	4.39167	6.89407E-002	6.89287E-002	5.05459E-004	...........
	17	4.65	6.89367E-002	6.89269E-002	5.05193E-004	...........
	18	4.90833	6.89331E-002	6.89241E-002	5.09993E-004	...........
	19	5.16667	6.89299E-002	6.89226E-002	5.12193E-004	...........
	20	5.425	6.89271E-002	6.89199E-002	5.12326E-004	...........
	21	5.68333	6.89247E-002	6.89172E-002	5.04959E-004	...........
	22	5.94167	6.89223E-002	6.89149E-002	5.05759E-004	...........
	23	6.2	6.89199E-002	6.89068E-002	5.04526E-004	...........
	24	6.45833	6.89168E-002	6.88996E-002	5.05193E-004	...........
	25	6.71667	6.89126E-002	6.88982E-002	5.10159E-004	...........
	26	6.975	6.89077E-002	6.88944E-002	5.06559E-004	...........
	27	7.23333	6.89027E-002	6.88899E-002	5.08926E-004	...........
	28	7.49167	6.88983E-002	6.88882E-002	5.09893E-004	...........
	29	7.75	6.88945E-002	6.88859E-002	5.14726E-004	...........
	30	8.00833	6.88912E-002	6.88813E-002	5.05826E-004	...........
	31	8.26667	6.88882E-002	6.88798E-002	5.07226E-004	...........
	32	8.525	6.88853E-002	6.88753E-002	5.10426E-004	...........
	33	8.78333	6.88823E-002	6.88720E-002	5.11393E-004	...........
	34	9.04167	6.88792E-002	6.88701E-002	5.07826E-004	...........
	35	9.3	6.88760E-002	6.88665E-002	5.02393E-004	...........
	36	9.5583	6.88728E-002	6.88618E-002	5.03393E-004	...........
	37	9.8167	6.88696E-002	6.88584E-002	5.07559E-004	...........
	38	10.075	6.88662E-002	6.88565E-002	5.12559E-004	...........
EOC	QUANT	0.0688662	Open Circuit (V)
PSTATMODEL	IQUANT	4	Pstat Model
PSTATSECTION	LABEL	REF600-11020	Pstat Section
PSTATSERIALNO	LABEL	11020	Pstat Serial Number
CTRLMODE	IQUANT	1	Control Mode
IESTAB	IQUANT	0	I/E Stability
CASPEED	IQUANT	1	Control Amp Speed
CONVENTION	IQUANT	1	Current Convention
ICHRANGE	IQUANT	2	Ich Range
ICHRANGEMODE	TOGGLE	F	Ich Auto Range
ICHOFFSETENABLE	TOGGLE	T	Ich Offset Enable
ICHOFFSET	QUANT	0	Ich Offset (V)
ICHFILTER	IQUANT	3	Ich Filter
VCHRANGE	IQUANT	2	Vch Range
VCHRANGEMODE	TOGGLE	F	Vch Auto Range
VCHOFFSETENABLE	TOGGLE	T	Vch Offset Enable
VCHOFFSET	QUANT	0	Vch Offset (V)
VCHFILTER	IQUANT	3	Vch Filter
ACHRANGE	IQUANT	2	Ach Range
ACHOFFSETENABLE	TOGGLE	F	Ach Offset Enable
ACHOFFSET	QUANT	0	Ach Offset (V)
ACHFILTER	IQUANT	3	Ach Filter
IERANGELOWERLIMIT	IQUANT	1	I/E Range Lower Limit
IERANGEMODE	TOGGLE	F	I/E AutoRange
IERANGE	IQUANT	8	I/E Range
POSFEEDENABLE	TOGGLE	F	Positive Feedback IR Comp
POSFEEDRESISTANCE	QUANT	0	Positive Feedback Resistance (ohm)
ACHSELECT	IQUANT	0	Ach Select
CABLEID	IQUANT	14	Cable ID
DCCALDATE	LABEL	9/1/2020	DC Calibration Date
ACCALDATE	LABEL	9/1/2020	AC Calibration Date
THERMOSELECT	IQUANT	1	Thermo Select
FRAMEWORKVERSION	QUANT	6.33	Framework Version
INSTRUMENTVERSION	LABEL	3.50	Instrument Version
ZCURVE	TABLE
	Pt	Time	Freq	Zreal	Zimag	Zsig	Zmod	Zphz	Idc	Vdc	IERange
	#	s	Hz	ohm	ohm	V	ohm	°	A	V	#
	0	1	1000078	1924.122	-2659.85	1	3282.841	-54.11822	9.370522E-008	0.0707941	8
	1	2	794390.6	2370.855	-2954.922	1	3788.471	-51.2585	9.607879E-008	0.0704693	8
	2	2	630984.4	2880.158	-3228.595	1	4326.562	-48.26456	8.327629E-008	0.0703697	8
	3	2	501234.4	3447.976	-3476.847	1	4896.632	-45.23888	5.739937E-008	0.0702741	8
	4	2	398109.4	4071.694	-3665.59	1	5478.617	-41.9955	1.843898E-010	0.0702528	8
	5	3	316265.6	4734.688	-3820.913	1	6084.131	-38.90367	6.912496E-008	0.0702001	8
	6	3	251203.1	5417.294	-3890.451	1	6669.534	-35.68417	1.798684E-008	0.0702235	8
	7	3	199546.9	6115.58	-3908.377	1	7257.805	-32.58204	4.903791E-008	0.0702007	8
	8	4	158578.1	6767.46	-3875.669	1	7798.675	-29.79942	1.560175E-007	0.0702131	8
	9	4	125953.1	7428.828	-3728.912	1	8312.176	-26.65444	-4.334367E-009	0.0702247	7
	10	4	100078.1	8014.075	-3614.922	1	8791.646	-24.27878	8.124836E-010	0.0701895	7
	11	5	79453.13	8546.569	-3506.371	1	9237.883	-22.3067	1.247071E-009	0.0701824	7
	12	5	63140.62	8993.913	-3375.84	1	9606.6	-20.57348	6.4184E-010	0.0701706	7
	13	5	50203.12	9426.076	-3298.656	1	9986.59	-19.28749	9.507892E-010	0.07017	7
	14	6	39890.62	9822.99	-3251.75	1	10347.22	-18.31634	1.325532E-009	0.0701674	7
	15	6	31640.63	10206.02	-3256.319	1	10712.91	-17.69574	1.453216E-009	0.0701637	7
	16	6	25171.88	10565.32	-3308.169	1	11071.13	-17.38617	7.115368E-010	0.0701698	7
	17	7	20015.62	10924.01	-3417.219	1	11446.02	-17.37058	1.613691E-009	0.0701663	7
	18	7	15890.62	11308.46	-3589.79	1	11864.56	-17.61167	1.162225E-009	0.070168	7
	19	7	12609.37	11690.55	-3781.096	1	12286.81	-17.92286	1.242385E-010	0.0701674	6
	20	8	10078.13	12062.36	-4079.466	1	12733.52	-18.68544	3.859921E-011	0.0701623	6
	21	8	8015.625	12518.28	-4464.322	1	13290.5	-19.62747	3.775474E-010	0.0701726	6
	22	8	6328.125	13004.26	-4942.082	1	13911.68	-20.80857	3.131602E-010	0.0701662	6
	23	8	5015.625	13555.57	-5508.153	1	14631.92	-22.11382	1.970575E-010	0.0701718	6
	24	9	3984.375	14149.75	-6167.314	1	15435.39	-23.55047	-1.012598E-010	0.0701563	6
	25	9	3170.956	14793.27	-6935.341	1	16338.29	-25.118	1.245477E-010	0.0701655	6
	26	9	2527.573	15507.89	-7828.455	1	17371.79	-26.78486	2.218615E-011	0.070169	6
	27	10	1976.103	16374.71	-8958.757	1	18665.22	-28.68349	1.207965E-010	0.0701711	6
	28	10	1577.524	17338.6	-10167.97	1	20100.12	-30.38887	2.828744E-011	0.0701601	6
	29	10	1265.625	18322.19	-11537.32	1	21652.07	-32.19826	1.767425E-010	0.0701636	6
	30	11	998.264	19579.14	-13246.39	1	23639.16	-34.08057	6.264407E-011	0.0701596	6
	31	11	796.875	20891.5	-15136.16	1	25798.41	-35.92382	1.248519E-012	0.0701614	6
	32	11	627.7902	22524.64	-17456.54	1	28497.2	-37.77559	1.699512E-010	0.070151	6
	33	12	505.5147	24229.69	-19907.02	1	31358.69	-39.4064	-1.078258E-010	0.0701519	6
	34	12	397.9953	26370.08	-23042.57	1	35019.15	-41.14745	2.659645E-010	0.0701784	6
	35	12	315.5048	28815.17	-26581.05	1	39202.89	-42.69052	3.069754E-010	0.0701797	6
	36	13	252.4038	31545.15	-30512.62	1	43887.54	-44.04679	3.147073E-010	0.0701776	6
	37	13	198.6229	34953.64	-35376.46	1	49731.8	-45.34446	3.5123E-010	0.0701777	6
	38	13	158.3615	38740.8	-40673.75	1	56171.2	-46.3943	2.688726E-010	0.0701725	6
	39	14	125.558	43306.48	-46857.05	1	63804.66	-47.2551	3.239416E-010	0.0701734	6
	40	14	100.4464	48437.99	-53590.34	1	72236.86	-47.89093	2.92469E-010	0.0701662	6
	41	14	79.00281	54785.92	-61769.55	1	82564.97	-48.42888	2.638282E-010	0.0701666	6
	42	15	63.3446	61520.14	-70206.16	1	93346.84	-48.77262	3.436512E-010	0.0701653	6
	43	15	49.86702	69771.7	-80398.97	1	106452.3	-49.04796	-1.208223E-010	0.0701593	5
	44	15	39.72458	78532.49	-91379.55	1	120488.9	-49.32391	3.106593E-010	0.0701629	5
	45	16	31.6723	88265.16	-103802.1	1	136255.7	-49.62476	1.302302E-010	0.0701632	5
	46	16	24.93351	99644.1	-118869.4	1	155109.2	-50.02807	1.376454E-010	0.0701568	5
	47	16	19.86229	111581	-135559.1	1	175575.1	-50.54162	4.746739E-010	0.0701561	5
	48	17	15.83615	124467.7	-154955.6	1	198754.8	-51.22693	4.270159E-010	0.070157	5
	49	17	12.40079	140224.4	-179565	1	227829.9	-52.01329	-2.036587E-010	0.0701595	5
	50	17	9.93114	156352.6	-206341.7	1	258888.1	-52.84748	2.445092E-010	0.0701561	5
	51	17	7.944915	174154.7	-237720.3	1	294687.6	-53.77337	7.104483E-010	0.0701545	5
	52	18	6.317385	195702.2	-276402.3	1	338670.3	-54.70022	-9.920914E-011	0.0701716	5
	53	19	5.008013	220961.1	-323004.7	1	391351.3	-55.62474	-1.168152E-010	0.0701547	5
	54	20	3.945707	250895.3	-379210.3	1	454696.5	-56.51036	1.929304E-010	0.0701573	5
	55	20	3.158693	284438.9	-441923.4	1	525549.1	-57.2331	-6.329255E-011	0.070161	5
	56	22	2.504006	325152	-518364	1	611902.8	-57.90136	2.854781E-011	0.0701472	5
	57	23	1.998082	372846	-605708.6	1	711264.4	-58.38549	1.679396E-010	0.0701904	5
	58	24	1.584686	429291.2	-710074.1	1	829756.7	-58.844	8.218427E-011	0.0701582	5
	59	26	1.266892	498066.1	-827278.9	1	965640	-58.94981	4.101245E-011	0.0701237	5
	60	29	0.999041	586497.5	-974958	1	1137770	-58.97048	-2.274436E-012	0.0701122	4
