EXPLAIN
TAG	EISPOT
TITLE	LABEL	Potentiostatic EIS	Test &Identifier
DATE	LABEL	6/10/2021	Date
TIME	LABEL	15:36:38	Time
NOTES	NOTES	1	&Notes...
	
PSTAT	PSTAT	REF600-11020	Potentiostat
VDC	POTEN	0.00000E+000	T	DC &Voltage (V)
FREQINIT	QUANT	1.00000E+006	Initial Fre&q. (Hz)
FREQFINAL	QUANT	1.00000E+000	Final Fre&q. (Hz)
PTSPERDEC	QUANT	1.00000E+001	Points/&decade
VAC	QUANT	2.50000E+001	AC &Voltage (mV rms)
AREA	QUANT	4.00000E-005	&Area (cm^2)
CONDIT	TWOPARAM	F	5.00000E+000	0.00000E+000	Conditionin&g	Time(s)	E(V)
DELAY	TWOPARAM	F	3.00000E+000	0.00000E+000	Init. De&lay	Time(s)	Stab.(mV/s)
SPEED	SELECTOR	0	&Optimize for:
ZGUESS	QUANT	1.00000E+003	E&stimated Z (ohms)
OCVCURVE	TABLE	39
	Pt	T	Vf	Vm	Ach	Over
	#	s	V vs. Ref.	V	V	bits
	0	0.258333	-1.28917E-001	-1.28917E-001	5.29092E-004	...........
	1	0.516667	-1.28968E-001	-1.31593E-001	5.38359E-004	...........
	2	0.775	-1.29325E-001	-1.36377E-001	5.39692E-004	...........
	3	1.03333	-1.30572E-001	-1.45925E-001	5.37926E-004	...........
	4	1.29167	-1.33233E-001	-1.41540E-001	5.36226E-004	...........
	5	1.55	-1.36818E-001	-1.40890E-001	5.29626E-004	...........
	6	1.80833	-1.39877E-001	-1.43069E-001	5.30226E-004	...........
	7	2.06667	-1.41612E-001	-1.45435E-001	5.35226E-004	...........
	8	2.325	-1.42605E-001	-1.48017E-001	5.37292E-004	...........
	9	2.58333	-1.43790E-001	-1.50520E-001	5.37459E-004	...........
	10	2.84167	-1.45561E-001	-1.53528E-001	5.37059E-004	...........
	11	3.1	-1.47844E-001	-1.55999E-001	5.35759E-004	...........
	12	3.35833	-1.50407E-001	-1.57913E-001	5.37526E-004	...........
	13	3.61667	-1.53013E-001	-1.60313E-001	5.36126E-004	...........
	14	3.875	-1.55509E-001	-1.62837E-001	5.36159E-004	...........
	15	4.13333	-1.57895E-001	-1.65337E-001	5.33359E-004	...........
	16	4.39167	-1.60259E-001	-1.67563E-001	5.35892E-004	...........
	17	4.65	-1.62646E-001	-1.70005E-001	5.35659E-004	...........
	18	4.90833	-1.65044E-001	-1.72506E-001	5.32959E-004	...........
	19	5.16667	-1.67446E-001	-1.74912E-001	5.34859E-004	...........
	20	5.425	-1.69866E-001	-1.77691E-001	5.38559E-004	...........
	21	5.68333	-1.72324E-001	-1.79879E-001	5.32959E-004	...........
	22	5.94167	-1.74804E-001	-1.81974E-001	5.34392E-004	...........
	23	6.2	-1.77230E-001	-1.83557E-001	5.34826E-004	...........
	24	6.45833	-1.79489E-001	-1.84687E-001	5.38059E-004	...........
	25	6.71667	-1.81501E-001	-1.87265E-001	5.33426E-004	...........
	26	6.975	-1.83368E-001	-1.91416E-001	5.37859E-004	...........
	27	7.23333	-1.85408E-001	-1.94188E-001	5.37192E-004	...........
	28	7.49167	-1.87880E-001	-1.96574E-001	5.32559E-004	...........
	29	7.75	-1.90716E-001	-2.00135E-001	5.33326E-004	...........
	30	8.00833	-1.93684E-001	-2.02482E-001	5.35526E-004	...........
	31	8.26667	-1.96625E-001	-2.04443E-001	5.38126E-004	...........
	32	8.525	-1.99459E-001	-2.08764E-001	5.40026E-004	...........
	33	8.78333	-2.02288E-001	-2.14188E-001	5.40992E-004	...........
	34	9.04167	-2.05421E-001	-2.16943E-001	5.37059E-004	...........
	35	9.3	-2.08903E-001	-2.14576E-001	5.42525E-004	...........
	36	9.5583	-2.12121E-001	-2.16874E-001	5.39859E-004	...........
	37	9.8167	-2.14442E-001	-2.19292E-001	5.43992E-004	...........
	38	10.075	-2.16027E-001	-2.21980E-001	5.36892E-004	...........
EOC	QUANT	-0.2160268	Open Circuit (V)
PSTATMODEL	IQUANT	4	Pstat Model
PSTATSECTION	LABEL	REF600-11020	Pstat Section
PSTATSERIALNO	LABEL	11020	Pstat Serial Number
CTRLMODE	IQUANT	1	Control Mode
IESTAB	IQUANT	0	I/E Stability
CASPEED	IQUANT	1	Control Amp Speed
CONVENTION	IQUANT	1	Current Convention
ICHRANGE	IQUANT	2	Ich Range
ICHRANGEMODE	TOGGLE	F	Ich Auto Range
ICHOFFSETENABLE	TOGGLE	T	Ich Offset Enable
ICHOFFSET	QUANT	0	Ich Offset (V)
ICHFILTER	IQUANT	3	Ich Filter
VCHRANGE	IQUANT	2	Vch Range
VCHRANGEMODE	TOGGLE	F	Vch Auto Range
VCHOFFSETENABLE	TOGGLE	T	Vch Offset Enable
VCHOFFSET	QUANT	0	Vch Offset (V)
VCHFILTER	IQUANT	3	Vch Filter
ACHRANGE	IQUANT	2	Ach Range
ACHOFFSETENABLE	TOGGLE	F	Ach Offset Enable
ACHOFFSET	QUANT	0	Ach Offset (V)
ACHFILTER	IQUANT	3	Ach Filter
IERANGELOWERLIMIT	IQUANT	1	I/E Range Lower Limit
IERANGEMODE	TOGGLE	F	I/E AutoRange
IERANGE	IQUANT	8	I/E Range
POSFEEDENABLE	TOGGLE	F	Positive Feedback IR Comp
POSFEEDRESISTANCE	QUANT	0	Positive Feedback Resistance (ohm)
ACHSELECT	IQUANT	0	Ach Select
CABLEID	IQUANT	14	Cable ID
DCCALDATE	LABEL	9/1/2020	DC Calibration Date
ACCALDATE	LABEL	9/1/2020	AC Calibration Date
THERMOSELECT	IQUANT	1	Thermo Select
FRAMEWORKVERSION	QUANT	6.33	Framework Version
INSTRUMENTVERSION	LABEL	3.50	Instrument Version
ZCURVE	TABLE
	Pt	Time	Freq	Zreal	Zimag	Zsig	Zmod	Zphz	Idc	Vdc	IERange
	#	s	Hz	ohm	ohm	V	ohm	°	A	V	#
	0	1	1000078	711.1711	-7638.43	1	7671.465	-84.68085	2.533939E-008	-0.2139141	8
	1	2	794390.6	847.9265	-9504.17	1	9541.92	-84.90178	2.102917E-008	-0.2142366	8
	2	2	630984.4	1034.918	-11841.57	1	11886.71	-85.00521	5.600551E-008	-0.2143798	8
	3	2	501234.4	1262.192	-14727.92	1	14781.91	-85.10168	4.793978E-008	-0.2144709	8
	4	3	398109.4	1553.613	-18333.54	1	18399.25	-85.15623	7.485902E-008	-0.2145277	8
	5	3	316265.6	1858.947	-22768.13	1	22843.89	-85.33233	3.656704E-008	-0.2145606	8
	6	3	251203.1	2296.953	-28326.66	1	28419.64	-85.36414	4.662121E-008	-0.2145587	8
	7	3	199546.9	2642.084	-35328.41	1	35427.07	-85.72301	6.023366E-008	-0.214573	8
	8	4	158578.1	3424.193	-43829.94	1	43963.5	-85.53287	1.640537E-007	-0.2145624	8
	9	4	125953.1	4477.845	-54830.71	1	55013.25	-85.3312	-3.864678E-009	-0.2145581	7
	10	4	100078.1	5399.291	-68201.32	1	68414.71	-85.47351	-1.298288E-009	-0.214588	7
	11	5	79453.13	6323.105	-85124.84	1	85359.36	-85.75185	-8.087716E-011	-0.2146002	7
	12	5	63140.62	7452.945	-105970.1	1	106231.9	-85.97697	-8.012598E-011	-0.2145931	7
	13	5	50203.12	9046.708	-132192.2	1	132501.4	-86.08501	7.820234E-010	-0.2146064	7
	14	6	39890.62	10750.11	-164766	1	165116.4	-86.26704	-4.77601E-010	-0.2146004	7
	15	6	31640.63	12961.88	-206118.2	1	206525.4	-86.40166	1.86192E-009	-0.2146127	7
	16	6	25171.88	16032.51	-256752.5	1	257252.6	-86.4269	1.378417E-009	-0.214618	7
	17	7	20015.62	18664.6	-320755.5	1	321298.1	-86.66975	7.84117E-010	-0.2146081	7
	18	7	15890.62	26843.14	-398617.2	1	399519.9	-86.14748	-2.611973E-010	-0.2146017	7
	19	7	12609.37	33190.05	-499325.6	1	500427.4	-86.19716	9.869513E-011	-0.2146014	6
	20	8	10078.13	40376.66	-619918.6	1	621232.1	-86.27346	1.401533E-010	-0.2146091	6
	21	8	8015.625	46896.34	-773476.7	1	774897.1	-86.53037	3.831271E-010	-0.2146067	6
	22	8	6328.125	57984.69	-969900	1	971632	-86.57869	4.352008E-010	-0.2146175	6
	23	9	5015.625	69012.13	-1213225	1	1215186	-86.74434	4.113868E-010	-0.2146065	6
	24	9	3984.375	94911.18	-1515509	1	1518478	-86.41644	1.207592E-010	-0.2146191	6
	25	9	3170.956	103350.4	-1887351	1	1890179	-86.86565	3.191828E-010	-0.2146036	6
	26	10	2527.573	149617	-2344751	1	2349520	-86.34895	2.515331E-011	-0.2146138	6
	27	10	1976.103	150518.6	-2976817	1	2980620	-87.10538	2.919794E-010	-0.214608	6
	28	10	1577.524	211466.9	-3710457	1	3716478	-86.73812	1.143115E-010	-0.2146075	6
	29	10	1265.625	302430.2	-4575167	1	4585152	-86.2181	-7.049945E-012	-0.214613	5
	30	11	998.264	382118.1	-5743404	1	5756101	-86.19363	-3.862389E-011	-0.2146226	5
	31	11	796.875	450857.1	-7131596	1	7145833	-86.38259	-2.333493E-011	-0.2146313	5
	32	11	627.7902	524120.3	-8995706	1	9010962	-86.66553	-2.871922E-011	-0.2146221	5
	33	12	505.5147	611644.6	-1.105499E+007	1	1.10719E+007	-86.8332	-1.731468E-011	-0.2146201	5
	34	12	397.9953	788175.4	-1.396635E+007	1	1.398857E+007	-86.77	-2.48966E-011	-0.2146051	5
	35	12	315.5048	973698	-1.748015E+007	1	1.750724E+007	-86.81174	-2.332772E-011	-0.214603	5
	36	13	252.4038	1219560	-2.168577E+007	1	2.172004E+007	-86.7812	-2.090415E-011	-0.2146091	5
	37	13	198.6229	1521768	-2.733934E+007	1	2.738166E+007	-86.81408	-2.475527E-011	-0.2146049	5
	38	13	158.3615	1768707	-3.411794E+007	1	3.416375E+007	-87.03239	-2.181476E-011	-0.2146041	5
	39	14	125.558	2368488	-4.268867E+007	1	4.275433E+007	-86.82433	-1.405354E-011	-0.2145994	4
	40	14	100.4464	3313660	-5.352848E+007	1	5.363095E+007	-86.45765	-1.89725E-011	-0.2146034	4
	41	14	79.00281	3762158	-6.871302E+007	1	6.881593E+007	-86.86608	-1.41735E-011	-0.2146063	4
	42	15	63.3446	1.391806E+007	-8.188975E+007	1	8.30641E+007	-80.35413	-1.497957E-011	-0.2146085	4
	43	15	49.86702	6764730	-1.030311E+008	1	1.03253E+008	-86.24352	-1.549826E-011	-0.2146115	4
	44	16	39.72458	6612559	-1.308918E+008	1	1.310587E+008	-87.10792	-1.556473E-011	-0.2146072	4
	45	16	31.6723	1.191358E+007	-1.679933E+008	1	1.684152E+008	-85.94355	-1.87739E-011	-0.2146098	4
	46	17	24.93351	1.395127E+007	-2.02882E+008	1	2.033611E+008	-86.06622	-1.428074E-011	-0.2146098	4
	47	17	19.86229	1.435137E+007	-2.499888E+008	1	2.504004E+008	-86.71436	-1.535794E-011	-0.214604	4
	48	17	15.83615	-1.894129E+007	-3.442111E+008	1	3.447319E+008	-93.1497	-2.266951E-011	-0.214607	4
	49	18	12.40079	2.737481E+007	-4.051479E+008	1	4.060717E+008	-86.13454	-7.947496E-013	-0.2146088	3
	50	18	9.93114	4.077811E+007	-4.899652E+008	1	4.916592E+008	-85.24243	-1.502841E-012	-0.2146083	3
	51	19	7.944915	3.712638E+007	-6.103462E+008	1	6.114743E+008	-86.51908	-9.877706E-013	-0.2146161	3
	52	19	6.317385	4.548199E+007	-7.630787E+008	1	7.644329E+008	-86.58902	-9.101372E-013	-0.2146178	3
	53	20	5.008013	5.352981E+007	-9.551722E+008	1	9.56671E+008	-86.79238	-9.578189E-013	-0.2146205	3
	54	22	3.945707	8.615046E+007	-1.197254E+009	1	1.200349E+009	-85.88428	-1.00012E-012	-0.214611	3
	55	23	3.158693	9.449303E+007	-1.489025E+009	1	1.49202E+009	-86.3689	-7.05533E-013	-0.2146305	3
	56	25	2.504006	1.150536E+008	-1.854446E+009	1	1.858012E+009	-86.44981	-6.757919E-013	-0.2146215	3
	57	27	1.998082	1.587897E+008	-2.321295E+009	1	2.326719E+009	-86.08674	-7.171218E-013	-0.2146561	3
	58	28	1.584686	1.904624E+008	-2.891936E+009	1	2.898201E+009	-86.23195	-5.59059E-013	-0.2146652	3
	59	30	1.266892	2.47524E+008	-3.564548E+009	1	3.573131E+009	-86.02773	-2.337027E-012	-0.2146156	2
	60	33	0.999041	4.306882E+008	-4.719891E+009	1	4.7395E+009	-84.78622	-2.512524E-012	-0.21459	2
