EXPLAIN
TAG	EISPOT
TITLE	LABEL	Potentiostatic EIS	Test &Identifier
DATE	LABEL	6/10/2021	Date
TIME	LABEL	15:56:25	Time
NOTES	NOTES	1	&Notes...
	
PSTAT	PSTAT	REF600-11020	Potentiostat
VDC	POTEN	0.00000E+000	T	DC &Voltage (V)
FREQINIT	QUANT	1.00000E+006	Initial Fre&q. (Hz)
FREQFINAL	QUANT	1.00000E+000	Final Fre&q. (Hz)
PTSPERDEC	QUANT	1.00000E+001	Points/&decade
VAC	QUANT	2.50000E+001	AC &Voltage (mV rms)
AREA	QUANT	4.00000E-005	&Area (cm^2)
CONDIT	TWOPARAM	F	5.00000E+000	0.00000E+000	Conditionin&g	Time(s)	E(V)
DELAY	TWOPARAM	F	3.00000E+000	0.00000E+000	Init. De&lay	Time(s)	Stab.(mV/s)
SPEED	SELECTOR	0	&Optimize for:
ZGUESS	QUANT	1.00000E+003	E&stimated Z (ohms)
OCVCURVE	TABLE	39
	Pt	T	Vf	Vm	Ach	Over
	#	s	V vs. Ref.	V	V	bits
	0	0.258333	-2.89131E-002	-2.89131E-002	4.74493E-004	...........
	1	0.516667	-2.89132E-002	-2.89177E-002	4.77093E-004	...........
	2	0.775	-2.89137E-002	-2.89212E-002	4.71860E-004	...........
	3	1.03333	-2.89151E-002	-2.89240E-002	4.80960E-004	...........
	4	1.29167	-2.89175E-002	-2.89283E-002	4.82560E-004	...........
	5	1.55	-2.89206E-002	-2.89317E-002	4.78560E-004	...........
	6	1.80833	-2.89241E-002	-2.89367E-002	4.83026E-004	...........
	7	2.06667	-2.89279E-002	-2.89377E-002	4.78993E-004	...........
	8	2.325	-2.89316E-002	-2.89455E-002	4.71460E-004	...........
	9	2.58333	-2.89355E-002	-2.89475E-002	4.70627E-004	...........
	10	2.84167	-2.89393E-002	-2.89464E-002	4.70560E-004	...........
	11	3.1	-2.89429E-002	-2.89502E-002	4.76827E-004	...........
	12	3.35833	-2.89458E-002	-2.89584E-002	4.75193E-004	...........
	13	3.61667	-2.89487E-002	-2.89635E-002	4.81026E-004	...........
	14	3.875	-2.89524E-002	-2.89682E-002	4.74460E-004	...........
	15	4.13333	-2.89572E-002	-2.89730E-002	4.70293E-004	...........
	16	4.39167	-2.89624E-002	-2.89780E-002	4.70027E-004	...........
	17	4.65	-2.89676E-002	-2.89792E-002	4.72493E-004	...........
	18	4.90833	-2.89722E-002	-2.89807E-002	4.68593E-004	...........
	19	5.16667	-2.89760E-002	-2.89849E-002	4.70793E-004	...........
	20	5.425	-2.89793E-002	-2.90046E-002	4.70727E-004	...........
	21	5.68333	-2.89836E-002	-2.90036E-002	4.77327E-004	...........
	22	5.94167	-2.89893E-002	-2.89822E-002	4.69227E-004	...........
	23	6.2	-2.89941E-002	-2.90087E-002	4.75193E-004	...........
	24	6.45833	-2.89965E-002	-2.90013E-002	4.70527E-004	...........
	25	6.71667	-2.89981E-002	-2.90086E-002	4.69860E-004	...........
	26	6.975	-2.90006E-002	-2.90109E-002	4.64360E-004	...........
	27	7.23333	-2.90038E-002	-2.90151E-002	4.71360E-004	...........
	28	7.49167	-2.90073E-002	-2.90148E-002	4.68427E-004	...........
	29	7.75	-2.90105E-002	-2.90188E-002	4.64393E-004	...........
	30	8.00833	-2.90134E-002	-2.90221E-002	4.77027E-004	...........
	31	8.26667	-2.90160E-002	-2.90219E-002	4.72993E-004	...........
	32	8.525	-2.90184E-002	-2.90248E-002	4.73960E-004	...........
	33	8.78333	-2.90207E-002	-2.90296E-002	4.71927E-004	...........
	34	9.04167	-2.90230E-002	-2.90329E-002	4.71493E-004	...........
	35	9.3	-2.90257E-002	-2.90325E-002	4.70393E-004	...........
	36	9.5583	-2.90286E-002	-2.90385E-002	4.70927E-004	...........
	37	9.8167	-2.90315E-002	-2.90419E-002	4.73027E-004	...........
	38	10.075	-2.90345E-002	-2.90460E-002	4.69127E-004	...........
EOC	QUANT	-0.0290345	Open Circuit (V)
PSTATMODEL	IQUANT	4	Pstat Model
PSTATSECTION	LABEL	REF600-11020	Pstat Section
PSTATSERIALNO	LABEL	11020	Pstat Serial Number
CTRLMODE	IQUANT	1	Control Mode
IESTAB	IQUANT	0	I/E Stability
CASPEED	IQUANT	1	Control Amp Speed
CONVENTION	IQUANT	1	Current Convention
ICHRANGE	IQUANT	2	Ich Range
ICHRANGEMODE	TOGGLE	F	Ich Auto Range
ICHOFFSETENABLE	TOGGLE	T	Ich Offset Enable
ICHOFFSET	QUANT	0	Ich Offset (V)
ICHFILTER	IQUANT	3	Ich Filter
VCHRANGE	IQUANT	2	Vch Range
VCHRANGEMODE	TOGGLE	F	Vch Auto Range
VCHOFFSETENABLE	TOGGLE	T	Vch Offset Enable
VCHOFFSET	QUANT	0	Vch Offset (V)
VCHFILTER	IQUANT	3	Vch Filter
ACHRANGE	IQUANT	2	Ach Range
ACHOFFSETENABLE	TOGGLE	F	Ach Offset Enable
ACHOFFSET	QUANT	0	Ach Offset (V)
ACHFILTER	IQUANT	3	Ach Filter
IERANGELOWERLIMIT	IQUANT	1	I/E Range Lower Limit
IERANGEMODE	TOGGLE	F	I/E AutoRange
IERANGE	IQUANT	7	I/E Range
POSFEEDENABLE	TOGGLE	F	Positive Feedback IR Comp
POSFEEDRESISTANCE	QUANT	0	Positive Feedback Resistance (ohm)
ACHSELECT	IQUANT	0	Ach Select
CABLEID	IQUANT	14	Cable ID
DCCALDATE	LABEL	9/1/2020	DC Calibration Date
ACCALDATE	LABEL	9/1/2020	AC Calibration Date
THERMOSELECT	IQUANT	1	Thermo Select
FRAMEWORKVERSION	QUANT	6.33	Framework Version
INSTRUMENTVERSION	LABEL	3.50	Instrument Version
ZCURVE	TABLE
	Pt	Time	Freq	Zreal	Zimag	Zsig	Zmod	Zphz	Idc	Vdc	IERange
	#	s	Hz	ohm	ohm	V	ohm	°	A	V	#
	0	1	1000078	1163.138	-2348.101	1	2620.395	-63.64836	-2.477437E-008	-0.0267733	8
	1	2	794390.6	1343.446	-2758.094	1	3067.886	-64.02965	6.904376E-008	-0.0271375	8
	2	2	630984.4	1547.143	-3257.784	1	3606.496	-64.59665	2.391541E-008	-0.0273117	8
	3	2	501234.4	1777.498	-3866.006	1	4255.056	-65.30815	-9.556441E-009	-0.0274066	8
	4	3	398109.4	2062.752	-4626.449	1	5065.469	-65.96978	3.650687E-008	-0.0274709	8
	5	3	316265.6	2409.569	-5542.792	1	6043.887	-66.50439	4.946618E-008	-0.0275035	8
	6	3	251203.1	2881.943	-6662.294	1	7258.909	-66.60789	4.915216E-008	-0.027518	8
	7	4	199546.9	3503.481	-8029.751	1	8760.781	-66.42775	3.316359E-008	-0.0275217	8
	8	4	158578.1	4374.464	-9615.09	1	10563.43	-65.53646	3.11013E-008	-0.0275343	8
	9	4	125953.1	5569.773	-11483.15	1	12762.64	-64.12481	1.025105E-008	-0.0275445	7
	10	5	100078.1	7160.343	-13541.92	1	15318.43	-62.13218	-5.881757E-010	-0.027552	7
	11	5	79453.13	9270.483	-15758.03	1	18282.71	-59.53162	-1.134504E-009	-0.0275507	7
	12	5	63140.62	11954.11	-18055.69	1	21654.3	-56.49269	-2.028193E-010	-0.0275544	7
	13	6	50203.12	15326.81	-20078.69	1	25259.95	-52.64415	2.627233E-010	-0.027558	7
	14	6	39890.62	19205.36	-21836.06	1	29080.22	-48.66757	5.54791E-010	-0.0275521	7
	15	6	31640.63	23595.12	-23037.56	1	32976.64	-44.31498	1.777298E-009	-0.0275685	7
	16	7	25171.88	28095.46	-23632.16	1	36712.86	-40.06847	7.66845E-010	-0.0275708	7
	17	7	20015.62	32471.87	-23492.38	1	40078.85	-35.88456	-8.380612E-010	-0.0275636	7
	18	7	15890.62	36651.7	-22887.72	1	43211.05	-31.98335	1.083132E-009	-0.0275631	7
	19	8	12609.37	40540.94	-21944.42	1	46099.08	-28.42626	3.161321E-010	-0.0275633	6
	20	8	10078.13	43895.89	-21086.59	1	48697.98	-25.65857	1.687693E-010	-0.027569	6
	21	8	8015.625	46899.67	-20170.48	1	51053.18	-23.27144	2.028365E-010	-0.0275591	6
	22	9	6328.125	49244.73	-19010.03	1	52786.6	-21.10817	-3.750574E-011	-0.0275705	6
	23	9	5015.625	51762.2	-18453.94	1	54953.37	-19.62186	1.743959E-010	-0.0275649	6
	24	9	3984.375	54192.22	-18192.92	1	57164.49	-18.55746	2.150275E-010	-0.0275629	6
	25	10	3170.956	56203.87	-17981.76	1	59010.33	-17.74145	2.198699E-010	-0.0275687	6
	26	10	2527.573	58235.44	-18106.11	1	60985.22	-17.27111	-8.003377E-011	-0.027571	6
	27	10	1976.103	60083.11	-18385.14	1	62833.05	-17.01386	5.973522E-011	-0.0275785	6
	28	11	1577.524	62876.46	-19327.37	1	65779.91	-17.08672	2.891666E-010	-0.0275716	6
	29	11	1265.625	64777.95	-20113.63	1	67828.76	-17.24963	7.863963E-011	-0.02757	6
	30	11	998.264	66924.52	-21208.82	1	70204.73	-17.58375	2.213177E-010	-0.0275714	6
	31	12	796.875	69517.67	-22607.32	1	73101.28	-18.01465	-3.321839E-011	-0.0275732	6
	32	12	627.7902	71967.88	-24237.39	1	75939.63	-18.61253	1.042019E-010	-0.0275699	6
	33	12	505.5147	76012.19	-26395.73	1	80464.82	-19.14989	7.271691E-011	-0.027578	6
	34	12	397.9953	78803.2	-28648.11	1	83849.02	-19.97823	6.156233E-011	-0.027553	6
	35	13	315.5048	81900.01	-31256.32	1	87661.67	-20.88885	1.317069E-011	-0.027554	6
	36	13	252.4038	86114.53	-34222.86	1	92665.62	-21.67341	1.759906E-011	-0.0275604	5
	37	13	198.6229	89316.23	-37991.52	1	97060.5	-23.04294	6.068608E-011	-0.0275612	5
	38	14	158.3615	93263.46	-42312.59	1	102413	-24.40327	1.267482E-011	-0.0275658	5
	39	14	125.558	97793.9	-47576.36	1	108752.7	-25.94275	-9.603864E-011	-0.0275642	5
	40	14	100.4464	102398.7	-53547.75	1	115554.6	-27.60659	-9.275258E-011	-0.0275662	5
	41	15	79.00281	107972.2	-61238.45	1	124129.6	-29.56054	-5.644371E-011	-0.0275685	5
	42	15	63.3446	112832.9	-69635.55	1	132591	-31.68108	-1.878677E-010	-0.027569	5
	43	15	49.86702	121163.9	-80538.27	1	145489.2	-33.61219	1.356766E-010	-0.0275722	5
	44	16	39.72458	128269.4	-92717.1	1	158270.3	-35.86058	-2.798464E-010	-0.0275654	5
	45	16	31.6723	137523.1	-107096	1	174304.8	-37.90966	-1.231274E-010	-0.0275666	5
	46	17	24.93351	147699.2	-124996.7	1	193492.2	-40.24099	-3.784361E-010	-0.0275688	5
	47	17	19.86229	160095.3	-145049.9	1	216032.4	-42.17728	-1.220468E-009	-0.0275706	5
	48	17	15.83615	175867.7	-168205	1	243356.5	-43.72419	3.973276E-010	-0.0275669	5
	49	17	12.40079	194904.5	-196323.1	1	276641.5	-45.20776	-4.521053E-010	-0.0275685	5
	50	18	9.93114	216006.1	-226788.8	1	313196.1	-46.39497	-2.530875E-010	-0.0275752	5
	51	18	7.944915	240206.5	-259516.4	1	353621.2	-47.21288	8.77892E-010	-0.0275703	5
	52	18	6.317385	271927.6	-298827	1	404032.4	-47.69833	-2.420939E-010	-0.0275565	5
	53	19	5.008013	307371.7	-343262.2	1	460767.1	-48.15737	-3.735261E-010	-0.0275773	5
	54	20	3.945707	349684.3	-391634.8	1	525030.4	-48.23886	6.595127E-011	-0.0275666	5
	55	21	3.158693	395603.7	-443266.4	1	594127.4	-48.25192	-2.497506E-010	-0.0275831	5
	56	22	2.504006	449196.4	-500292.1	1	672361.2	-48.08034	1.668744E-011	-0.0275869	5
	57	23	1.998082	504086.7	-563807.5	1	756295.1	-48.20087	1.442661E-010	-0.0275555	5
	58	25	1.584686	566813.8	-634440.5	1	850760.1	-48.22216	-2.749016E-013	-0.0276016	5
	59	27	1.266892	632526.4	-714421	1	954194	-48.47931	-6.463104E-011	-0.0276253	5
	60	29	0.999041	706931.4	-816402.6	1	1079938	-49.11037	-8.360563E-011	-0.0276111	4
