EXPLAIN
TAG	EISPOT
TITLE	LABEL	Potentiostatic EIS	Test &Identifier
DATE	LABEL	1/7/2021	Date
TIME	LABEL	15:34:38	Time
NOTES	NOTES	1	&Notes...
	
PSTAT	PSTAT	REF600-11020	Potentiostat
VDC	POTEN	0.00000E+000	T	DC &Voltage (V)
FREQINIT	QUANT	1.00000E+006	Initial Fre&q. (Hz)
FREQFINAL	QUANT	1.00000E+000	Final Fre&q. (Hz)
PTSPERDEC	QUANT	1.00000E+001	Points/&decade
VAC	QUANT	2.50000E+001	AC &Voltage (mV rms)
AREA	QUANT	4.00000E-005	&Area (cm^2)
CONDIT	TWOPARAM	F	5.00000E+000	0.00000E+000	Conditionin&g	Time(s)	E(V)
DELAY	TWOPARAM	F	3.00000E+000	0.00000E+000	Init. De&lay	Time(s)	Stab.(mV/s)
SPEED	SELECTOR	0	&Optimize for:
ZGUESS	QUANT	1.00000E+003	E&stimated Z (ohms)
OCVCURVE	TABLE	39
	Pt	T	Vf	Vm	Ach	Over
	#	s	V vs. Ref.	V	V	bits
	0	0.258333	5.52096E-002	5.52096E-002	5.41126E-004	...........
	1	0.516667	5.52095E-002	5.52034E-002	5.35792E-004	...........
	2	0.775	5.52088E-002	5.52000E-002	5.35459E-004	...........
	3	1.03333	5.52070E-002	5.51923E-002	5.41792E-004	...........
	4	1.29167	5.52037E-002	5.51881E-002	5.46725E-004	...........
	5	1.55	5.51991E-002	5.51811E-002	5.44525E-004	...........
	6	1.80833	5.51937E-002	5.51773E-002	5.38126E-004	...........
	7	2.06667	5.51882E-002	5.51739E-002	5.47625E-004	...........
	8	2.325	5.51829E-002	5.51724E-002	5.46392E-004	...........
	9	2.58333	5.51786E-002	5.51733E-002	5.30326E-004	...........
	10	2.84167	5.51755E-002	5.51708E-002	5.37159E-004	...........
	11	3.1	5.51735E-002	5.51672E-002	5.36392E-004	...........
	12	3.35833	5.51711E-002	5.51235E-002	5.40526E-004	...........
	13	3.61667	5.51644E-002	5.50835E-002	5.36626E-004	...........
	14	3.875	5.51488E-002	5.50581E-002	5.40925E-004	...........
	15	4.13333	5.51239E-002	5.50345E-002	5.42225E-004	...........
	16	4.39167	5.50941E-002	5.50137E-002	5.42325E-004	...........
	17	4.65	5.50651E-002	5.49972E-002	5.43025E-004	...........
	18	4.90833	5.50395E-002	5.49811E-002	5.39259E-004	...........
	19	5.16667	5.50179E-002	5.49666E-002	5.40126E-004	...........
	20	5.425	5.49993E-002	5.49484E-002	5.38759E-004	...........
	21	5.68333	5.49826E-002	5.49374E-002	5.42692E-004	...........
	22	5.94167	5.49671E-002	5.49292E-002	5.49892E-004	...........
	23	6.2	5.49528E-002	5.49174E-002	5.41226E-004	...........
	24	6.45833	5.49402E-002	5.49051E-002	5.40126E-004	...........
	25	6.71667	5.49287E-002	5.48918E-002	5.34826E-004	...........
	26	6.975	5.49173E-002	5.48809E-002	5.40626E-004	...........
	27	7.23333	5.49055E-002	5.48672E-002	5.41625E-004	...........
	28	7.49167	5.48934E-002	5.48551E-002	5.46192E-004	...........
	29	7.75	5.48811E-002	5.48409E-002	5.39892E-004	...........
	30	8.00833	5.48684E-002	5.48268E-002	5.43159E-004	...........
	31	8.26667	5.48555E-002	5.48218E-002	5.42325E-004	...........
	32	8.525	5.48429E-002	5.48087E-002	5.40226E-004	...........
	33	8.78333	5.48312E-002	5.48009E-002	5.42359E-004	...........
	34	9.04167	5.48207E-002	5.47938E-002	5.52059E-004	...........
	35	9.3	5.48111E-002	5.47865E-002	5.48092E-004	...........
	36	9.5583	5.48024E-002	5.47768E-002	5.43292E-004	...........
	37	9.8167	5.47943E-002	5.47740E-002	5.46859E-004	...........
	38	10.075	5.47869E-002	5.47746E-002	5.43025E-004	...........
EOC	QUANT	0.0547869	Open Circuit (V)
PSTATMODEL	IQUANT	4	Pstat Model
PSTATSECTION	LABEL	REF600-11020	Pstat Section
PSTATSERIALNO	LABEL	11020	Pstat Serial Number
CTRLMODE	IQUANT	1	Control Mode
IESTAB	IQUANT	0	I/E Stability
CASPEED	IQUANT	1	Control Amp Speed
CONVENTION	IQUANT	1	Current Convention
ICHRANGE	IQUANT	2	Ich Range
ICHRANGEMODE	TOGGLE	F	Ich Auto Range
ICHOFFSETENABLE	TOGGLE	T	Ich Offset Enable
ICHOFFSET	QUANT	0	Ich Offset (V)
ICHFILTER	IQUANT	3	Ich Filter
VCHRANGE	IQUANT	2	Vch Range
VCHRANGEMODE	TOGGLE	F	Vch Auto Range
VCHOFFSETENABLE	TOGGLE	T	Vch Offset Enable
VCHOFFSET	QUANT	0	Vch Offset (V)
VCHFILTER	IQUANT	3	Vch Filter
ACHRANGE	IQUANT	2	Ach Range
ACHOFFSETENABLE	TOGGLE	F	Ach Offset Enable
ACHOFFSET	QUANT	0	Ach Offset (V)
ACHFILTER	IQUANT	3	Ach Filter
IERANGELOWERLIMIT	IQUANT	1	I/E Range Lower Limit
IERANGEMODE	TOGGLE	F	I/E AutoRange
IERANGE	IQUANT	8	I/E Range
POSFEEDENABLE	TOGGLE	F	Positive Feedback IR Comp
POSFEEDRESISTANCE	QUANT	0	Positive Feedback Resistance (ohm)
ACHSELECT	IQUANT	0	Ach Select
CABLEID	IQUANT	14	Cable ID
DCCALDATE	LABEL	9/1/2020	DC Calibration Date
ACCALDATE	LABEL	9/1/2020	AC Calibration Date
THERMOSELECT	IQUANT	1	Thermo Select
FRAMEWORKVERSION	QUANT	6.33	Framework Version
INSTRUMENTVERSION	LABEL	3.50	Instrument Version
ZCURVE	TABLE
	Pt	Time	Freq	Zreal	Zimag	Zsig	Zmod	Zphz	Idc	Vdc	IERange
	#	s	Hz	ohm	ohm	V	ohm	°	A	V	#
	0	1	1000078	1730.076	-2747.889	1	3247.162	-57.80541	1.702586E-007	0.0568116	8
	1	1	794390.6	2121.699	-3114.78	1	3768.748	-55.73843	2.954871E-008	0.0565461	8
	2	1	630984.4	2570.177	-3499.711	1	4342.095	-53.70655	8.477002E-008	0.0564018	8
	3	2	501234.4	3078.999	-3881.858	1	4954.701	-51.57937	4.169632E-008	0.0562931	8
	4	2	398109.4	3631.084	-4275.83	1	5609.589	-49.6617	4.15173E-008	0.0562315	8
	5	2	316265.6	4234.309	-4679.213	1	6310.658	-47.85746	7.930211E-008	0.0562485	8
	6	3	251203.1	4895.584	-5098.326	1	7068.216	-46.16217	1.084853E-007	0.056241	8
	7	3	199546.9	5554.354	-5579.347	1	7872.735	-45.12862	6.948849E-008	0.0562166	8
	8	3	158578.1	6294.524	-6115.972	1	8776.454	-44.17573	5.813627E-008	0.0562062	8
	9	4	125953.1	7098.716	-6696.076	1	9758.54	-43.32814	-1.920449E-008	0.0562034	7
	10	4	100078.1	7965.902	-7340.29	1	10832.15	-42.65944	-4.185544E-009	0.0562003	7
	11	4	79453.13	8913.346	-8121.072	1	12058.17	-42.33708	-7.027329E-009	0.0561779	7
	12	4	63140.62	9976.25	-8991.545	1	13430.32	-42.02817	5.371855E-009	0.0561701	7
	13	5	50203.12	11200.74	-9947.4	1	14980.23	-41.60833	-3.318863E-009	0.0561884	7
	14	5	39890.62	12616.93	-11027.9	1	16757.13	-41.15528	-1.080551E-008	0.056178	7
	15	5	31640.63	14265.48	-12159.82	1	18744.73	-40.44411	1.286006E-008	0.056164	7
	16	6	25171.88	16176.73	-13329.47	1	20960.95	-39.48819	-5.635429E-009	0.0561703	7
	17	6	20015.62	18351.71	-14409.99	1	23333.09	-38.13945	-3.152907E-009	0.0561781	7
	18	6	15890.62	20827.62	-15453.51	1	25934.54	-36.57438	1.150503E-008	0.0561537	7
	19	7	12609.37	23573.39	-16224.46	1	28617.09	-34.53781	2.283259E-009	0.0561397	6
	20	7	10078.13	26327.64	-16788.31	1	31224.86	-32.52438	1.868359E-009	0.0561439	6
	21	7	8015.625	29166.38	-17108.27	1	33813.77	-30.39482	-1.374393E-009	0.0561938	6
	22	8	6328.125	32008.48	-17200.34	1	36337.23	-28.25217	2.272944E-009	0.0561403	6
	23	8	5015.625	34645.07	-17183.17	1	38672.24	-26.38037	1.787414E-009	0.056143	6
	24	8	3984.375	37052.4	-17144.41	1	40826.59	-24.83031	-7.258744E-010	0.0561877	6
	25	9	3170.956	39253.63	-17204.84	1	42858.54	-23.66781	1.714435E-009	0.0561653	6
	26	9	2527.573	41314.21	-17458.27	1	44851.48	-22.9076	2.101827E-009	0.0561422	6
	27	9	1976.103	43450.72	-18011.96	1	47036.11	-22.51585	1.696934E-009	0.056144	6
	28	10	1577.524	45416.21	-18821.77	1	49161.89	-22.5105	2.284821E-009	0.0561436	6
	29	10	1265.625	47399.26	-19909.89	1	51411.03	-22.78466	2.266068E-009	0.0561507	6
	30	10	998.264	49648.44	-21453.38	1	54085.26	-23.36946	1.158794E-009	0.0561727	6
	31	11	796.875	51975.5	-23333.47	1	56972.84	-24.17684	1.650208E-009	0.056144	6
	32	11	627.7902	54655.8	-25697.76	1	60395.62	-25.18171	-3.75605E-010	0.0561859	6
	33	11	505.5147	57349.52	-28238.63	1	63924.86	-26.21542	2.095016E-010	0.0561799	6
	34	12	397.9953	60698.7	-31620.82	1	68441.27	-27.51714	3.950412E-010	0.0561872	6
	35	12	315.5048	64338.88	-35389	1	73429.38	-28.81258	3.914699E-010	0.0561875	6
	36	12	252.4038	68291.32	-39543.65	1	78913.91	-30.07271	3.517482E-010	0.0561869	6
	37	12	198.6229	73112.07	-44658.26	1	85672.26	-31.41739	4.0576E-010	0.056189	6
	38	13	158.3615	78311.87	-50154.54	1	92995.84	-32.63737	4.230239E-010	0.0561857	6
	39	13	125.558	84336.41	-56416.31	1	101466.4	-33.78029	1.714516E-010	0.0561774	5
	40	13	100.4464	90890.08	-63297.69	1	110759.2	-34.85413	4.774408E-011	0.0561741	5
	41	14	79.00281	98796	-71616.61	1	122022.9	-35.93813	6.801492E-011	0.0561785	5
	42	14	63.3446	107041.9	-80216.55	1	133763.4	-36.84768	1.309564E-010	0.0561763	5
	43	14	49.86702	117138.7	-90705.98	1	148152.1	-37.75229	3.86808E-011	0.056171	5
	44	15	39.72458	127729	-101925.8	1	163412.2	-38.58933	-4.825602E-011	0.0561768	5
	45	15	31.6723	139642.2	-114512.3	1	180590.7	-39.35315	-3.955249E-011	0.0561732	5
	46	16	24.93351	153760.1	-129514.5	1	201037.7	-40.10795	-1.994291E-010	0.056171	5
	47	16	19.86229	168631.6	-145780.2	1	222909.2	-40.84306	-1.031085E-009	0.0561682	5
	48	16	15.83615	185678.2	-163960	1	247708.1	-41.44558	7.564031E-010	0.0561728	5
	49	16	12.40079	205903.5	-186290.3	1	277669.4	-42.13709	2.707862E-010	0.0561729	5
	50	17	9.93114	226914.8	-209548.8	1	308870.5	-42.72152	6.709316E-010	0.0561689	5
	51	17	7.944915	250055	-236722.6	1	344332.8	-43.43111	1.011584E-009	0.056167	5
	52	17	6.317385	278586	-268143.3	1	386666.5	-43.90576	-1.594348E-010	0.0561825	5
	53	18	5.008013	312173.3	-304231.6	1	435900.3	-44.26184	-3.28451E-011	0.0561692	5
	54	19	3.945707	351581.2	-346011.5	1	493288.2	-44.54255	4.696882E-010	0.0561672	5
	55	20	3.158693	394926	-388015.5	1	553644.8	-44.4943	-1.080738E-011	0.0561793	5
	56	21	2.504006	445722.1	-436469.7	1	623838.1	-44.39911	-8.513711E-011	0.0561681	5
	57	22	1.998082	501201.9	-485305.4	1	697656.6	-44.07682	2.146825E-010	0.0562026	5
	58	24	1.584686	563110.1	-542571.2	1	781969.6	-43.93581	2.304977E-010	0.0561939	5
	59	26	1.266892	626541.8	-600057	1	867538.4	-43.76306	1.478225E-010	0.0561496	5
	60	28	0.999041	699535.9	-668071.9	1	967301	-43.68205	7.596364E-011	0.0561265	5
