EXPLAIN
TAG	EISPOT
TITLE	LABEL	Potentiostatic EIS	Test &Identifier
DATE	LABEL	6/10/2021	Date
TIME	LABEL	15:57:21	Time
NOTES	NOTES	1	&Notes...
	
PSTAT	PSTAT	REF600-11020	Potentiostat
VDC	POTEN	0.00000E+000	T	DC &Voltage (V)
FREQINIT	QUANT	1.00000E+006	Initial Fre&q. (Hz)
FREQFINAL	QUANT	1.00000E+000	Final Fre&q. (Hz)
PTSPERDEC	QUANT	1.00000E+001	Points/&decade
VAC	QUANT	2.50000E+001	AC &Voltage (mV rms)
AREA	QUANT	4.00000E-005	&Area (cm^2)
CONDIT	TWOPARAM	F	5.00000E+000	0.00000E+000	Conditionin&g	Time(s)	E(V)
DELAY	TWOPARAM	F	3.00000E+000	0.00000E+000	Init. De&lay	Time(s)	Stab.(mV/s)
SPEED	SELECTOR	0	&Optimize for:
ZGUESS	QUANT	1.00000E+003	E&stimated Z (ohms)
OCVCURVE	TABLE	39
	Pt	T	Vf	Vm	Ach	Over
	#	s	V vs. Ref.	V	V	bits
	0	0.258333	4.51979E-003	4.51979E-003	5.26959E-004	...........
	1	0.516667	4.51970E-003	4.51523E-003	5.29792E-004	...........
	2	0.775	4.51934E-003	4.52018E-003	5.35359E-004	...........
	3	1.03333	4.51892E-003	4.52479E-003	5.37526E-004	...........
	4	1.29167	4.51898E-003	4.51305E-003	5.26859E-004	...........
	5	1.55	4.51927E-003	4.51766E-003	5.35159E-004	...........
	6	1.80833	4.51886E-003	4.51176E-003	5.35259E-004	...........
	7	2.06667	4.51734E-003	4.50510E-003	5.26026E-004	...........
	8	2.325	4.51478E-003	4.50518E-003	5.33026E-004	...........
	9	2.58333	4.51144E-003	4.50011E-003	5.31292E-004	...........
	10	2.84167	4.50778E-003	4.49591E-003	5.24259E-004	...........
	11	3.1	4.50420E-003	4.49837E-003	5.25826E-004	...........
	12	3.35833	4.50099E-003	4.49216E-003	5.27726E-004	...........
	13	3.61667	4.49834E-003	4.49328E-003	5.22792E-004	...........
	14	3.875	4.49626E-003	4.49623E-003	5.26526E-004	...........
	15	4.13333	4.49477E-003	4.48697E-003	5.25659E-004	...........
	16	4.39167	4.49334E-003	4.47577E-003	5.29892E-004	...........
	17	4.65	4.49085E-003	4.48795E-003	5.26126E-004	...........
	18	4.90833	4.48743E-003	4.47887E-003	5.28326E-004	...........
	19	5.16667	4.48427E-003	4.47089E-003	5.30259E-004	...........
	20	5.425	4.48145E-003	4.47382E-003	5.28792E-004	...........
	21	5.68333	4.47843E-003	4.47254E-003	5.27159E-004	...........
	22	5.94167	4.47566E-003	4.47420E-003	5.29259E-004	...........
	23	6.2	4.47385E-003	4.46840E-003	5.21726E-004	...........
	24	6.45833	4.47268E-003	4.46559E-003	5.25426E-004	...........
	25	6.71667	4.47117E-003	4.46108E-003	5.32159E-004	...........
	26	6.975	4.46878E-003	4.45987E-003	5.27959E-004	...........
	27	7.23333	4.46579E-003	4.45880E-003	5.28626E-004	...........
	28	7.49167	4.46288E-003	4.45622E-003	5.27059E-004	...........
	29	7.75	4.46051E-003	4.45827E-003	5.30726E-004	...........
	30	8.00833	4.45877E-003	4.45303E-003	5.30392E-004	...........
	31	8.26667	4.45736E-003	4.45072E-003	5.29759E-004	...........
	32	8.525	4.45533E-003	4.42665E-003	5.27426E-004	...........
	33	8.78333	4.45112E-003	4.42682E-003	5.31659E-004	...........
	34	9.04167	4.44420E-003	4.42784E-003	5.32759E-004	...........
	35	9.3	4.43659E-003	4.42748E-003	5.33559E-004	...........
	36	9.5583	4.43091E-003	4.42474E-003	5.32092E-004	...........
	37	9.8167	4.42776E-003	4.42173E-003	5.25126E-004	...........
	38	10.075	4.42600E-003	4.42354E-003	5.30226E-004	...........
EOC	QUANT	0.004426	Open Circuit (V)
PSTATMODEL	IQUANT	4	Pstat Model
PSTATSECTION	LABEL	REF600-11020	Pstat Section
PSTATSERIALNO	LABEL	11020	Pstat Serial Number
CTRLMODE	IQUANT	1	Control Mode
IESTAB	IQUANT	0	I/E Stability
CASPEED	IQUANT	1	Control Amp Speed
CONVENTION	IQUANT	1	Current Convention
ICHRANGE	IQUANT	2	Ich Range
ICHRANGEMODE	TOGGLE	F	Ich Auto Range
ICHOFFSETENABLE	TOGGLE	T	Ich Offset Enable
ICHOFFSET	QUANT	0	Ich Offset (V)
ICHFILTER	IQUANT	3	Ich Filter
VCHRANGE	IQUANT	2	Vch Range
VCHRANGEMODE	TOGGLE	F	Vch Auto Range
VCHOFFSETENABLE	TOGGLE	T	Vch Offset Enable
VCHOFFSET	QUANT	0	Vch Offset (V)
VCHFILTER	IQUANT	3	Vch Filter
ACHRANGE	IQUANT	2	Ach Range
ACHOFFSETENABLE	TOGGLE	F	Ach Offset Enable
ACHOFFSET	QUANT	0	Ach Offset (V)
ACHFILTER	IQUANT	3	Ach Filter
IERANGELOWERLIMIT	IQUANT	1	I/E Range Lower Limit
IERANGEMODE	TOGGLE	F	I/E AutoRange
IERANGE	IQUANT	6	I/E Range
POSFEEDENABLE	TOGGLE	F	Positive Feedback IR Comp
POSFEEDRESISTANCE	QUANT	0	Positive Feedback Resistance (ohm)
ACHSELECT	IQUANT	0	Ach Select
CABLEID	IQUANT	14	Cable ID
DCCALDATE	LABEL	9/1/2020	DC Calibration Date
ACCALDATE	LABEL	9/1/2020	AC Calibration Date
THERMOSELECT	IQUANT	1	Thermo Select
FRAMEWORKVERSION	QUANT	6.33	Framework Version
INSTRUMENTVERSION	LABEL	3.50	Instrument Version
ZCURVE	TABLE
	Pt	Time	Freq	Zreal	Zimag	Zsig	Zmod	Zphz	Idc	Vdc	IERange
	#	s	Hz	ohm	ohm	V	ohm	°	A	V	#
	0	1	1000078	1834.157	-2122.117	1	2804.909	-49.16296	4.115251E-009	0.0066798	8
	1	2	794390.6	2244.155	-2254.498	1	3181.037	-45.13173	4.651285E-008	0.0063335	8
	2	2	630984.4	2673.805	-2331.605	1	3547.621	-41.08901	2.465773E-008	0.0062089	8
	3	2	501234.4	3104.051	-2367.178	1	3903.674	-37.32948	5.734217E-008	0.0060929	8
	4	3	398109.4	3530.238	-2351.084	1	4241.482	-33.663	2.515052E-008	0.0060568	8
	5	3	316265.6	3939.284	-2315.136	1	4569.225	-30.44296	3.041681E-008	0.0060017	8
	6	3	251203.1	4332.663	-2236.088	1	4875.66	-27.29827	3.54423E-008	0.0059876	8
	7	4	199546.9	4700.632	-2134.96	1	5162.751	-24.42687	7.222088E-008	0.0059671	8
	8	4	158578.1	5043.198	-2020.752	1	5432.981	-21.83542	1.215358E-007	0.0059932	8
	9	4	125953.1	5364.248	-1857.042	1	5676.597	-19.09527	-2.00574E-009	0.0059944	7
	10	4	100078.1	5625.697	-1708.098	1	5879.292	-16.88956	-8.477746E-010	0.0059585	7
	11	5	79453.13	5846.616	-1580.344	1	6056.435	-15.12563	2.891606E-011	0.0059574	7
	12	5	63140.62	6031.144	-1467.436	1	6207.098	-13.67491	-1.352327E-009	0.005964	7
	13	5	50203.12	6193.5	-1377.181	1	6344.768	-12.53628	-1.891312E-009	0.0059572	7
	14	6	39890.62	6340.019	-1313.753	1	6474.703	-11.70691	-8.07417E-010	0.0059606	7
	15	6	31640.63	6472.11	-1274.228	1	6596.353	-11.13794	2.078676E-010	0.0059552	7
	16	6	25171.88	6596.632	-1262.509	1	6716.36	-10.83465	-1.389056E-009	0.0059555	7
	17	7	20015.62	6722.757	-1277.918	1	6843.138	-10.76286	-5.606712E-010	0.0059527	7
	18	7	15890.62	6853.283	-1320.959	1	6979.429	-10.90987	2.973657E-011	0.0059581	7
	19	7	12609.37	6987.114	-1389.073	1	7123.854	-11.24408	2.366209E-010	0.0059434	7
	20	8	10078.13	7121.094	-1481.765	1	7273.624	-11.75444	-1.286231E-009	0.0059512	7
	21	8	8015.625	7273.026	-1606.93	1	7448.431	-12.45899	-1.336714E-009	0.0059525	7
	22	8	6328.125	7443.568	-1767.656	1	7650.576	-13.35882	-1.555951E-009	0.0059535	7
	23	9	5015.625	7624.839	-1961.863	1	7873.187	-14.42916	-1.460651E-009	0.0059577	7
	24	9	3984.375	7827.176	-2193.982	1	8128.852	-15.65835	1.838115E-010	0.0059452	7
	25	9	3170.956	8046.218	-2466.239	1	8415.697	-17.04078	-3.937695E-010	0.0059455	7
	26	10	2527.573	8290.544	-2786.569	1	8746.318	-18.57822	3.313405E-012	0.0059445	7
	27	10	1976.103	8593.399	-3195.935	1	9168.452	-20.40046	-4.861447E-010	0.0059572	6
	28	10	1577.524	8898.996	-3643.019	1	9615.81	-22.26292	-3.73648E-010	0.0059522	6
	29	11	1265.625	9231.856	-4155.019	1	10123.8	-24.23127	-6.149199E-010	0.0059498	6
	30	11	998.264	9640.42	-4806.242	1	10772.08	-26.4986	-3.738687E-010	0.0059446	6
	31	11	796.875	10079.64	-5534.747	1	11499.24	-28.77126	-5.563286E-010	0.0059492	6
	32	12	627.7902	10610.78	-6445.844	1	12415.22	-31.27787	-3.90538E-010	0.0059377	6
	33	12	505.5147	11164.03	-7420	1	13404.93	-33.60938	-7.52282E-010	0.0059384	6
	34	12	397.9953	11864.64	-8690.898	1	14707.19	-36.22292	1.063562E-010	0.0059665	6
	35	13	315.5048	12656.45	-10155.67	1	16227.24	-38.74393	2.302136E-010	0.0059644	6
	36	13	252.4038	13533.02	-11821.09	1	17968.88	-41.13722	2.441613E-010	0.0059616	6
	37	13	198.6229	14643.62	-13947.52	1	20222.98	-43.60531	-1.761122E-012	0.0059636	6
	38	13	158.3615	15897.02	-16339.65	1	22796.91	-45.78666	4.272543E-011	0.0059572	6
	39	14	125.558	17444.9	-19239.74	1	25970.98	-47.80103	2.468567E-010	0.0059578	6
	40	14	100.4464	19259.91	-22513.81	1	29627.96	-49.45398	1.956692E-010	0.0059594	6
	41	14	79.00281	21674.46	-26625.57	1	34332.24	-50.8528	-2.504264E-011	0.0059579	6
	42	15	63.3446	24416.78	-30994.85	1	39457.06	-51.77005	-5.371944E-010	0.0059557	6
	43	15	49.86702	28072.29	-36392.93	1	45961.93	-52.3546	6.854572E-010	0.0059525	6
	44	16	39.72458	32341.17	-42169.95	1	53143.73	-52.51451	-3.457408E-010	0.0059573	6
	45	16	31.6723	37475.35	-48551.02	1	61331.91	-52.33633	-2.113205E-010	0.0059559	6
	46	16	24.93351	43961.19	-55904.96	1	71119.27	-51.82006	-6.133153E-010	0.0059544	6
	47	17	19.86229	51144.07	-63494.69	1	81530.92	-51.14905	-3.503291E-009	0.0059515	6
	48	17	15.83615	59582.45	-71598.2	1	93147.04	-50.23351	2.919792E-009	0.0059558	6
	49	17	12.40079	69742.67	-80461.32	1	106480.3	-49.08174	-4.356012E-010	0.0059517	5
	50	17	9.93114	79816.23	-89146.49	1	119656.7	-48.16071	-1.033864E-009	0.0059484	5
	51	18	7.944915	90782.69	-98081	1	133646.5	-47.21301	2.441981E-009	0.0059484	5
	52	18	6.317385	102542.2	-108619	1	149375.3	-46.64839	-3.850569E-010	0.0059604	5
	53	19	5.008013	114636.7	-120426.5	1	166265.1	-46.41096	-9.031554E-010	0.0059433	5
	54	20	3.945707	127557	-134159.4	1	185120.3	-46.44511	-1.5731E-010	0.0059512	5
	55	21	3.158693	139167.5	-149876.7	1	204525.3	-47.12186	-3.738113E-010	0.0059367	5
	56	22	2.504006	151854.8	-169529.8	1	227596.7	-48.14789	2.847728E-010	0.0059312	5
	57	23	1.998082	163648.6	-193577.1	1	253481.7	-49.78909	1.143619E-010	0.0059475	5
	58	25	1.584686	177167.1	-223969.1	1	285570.2	-51.65482	-1.342535E-010	0.0059031	5
	59	27	1.266892	190865.2	-261687.6	1	323898	-53.89438	-7.848339E-011	0.0058975	5
	60	29	0.999041	206413.3	-311020.9	1	373283.4	-56.42921	-2.122941E-011	0.0059175	5
