EXPLAIN
TAG	EISPOT
TITLE	LABEL	Potentiostatic EIS	Test &Identifier
DATE	LABEL	1/7/2021	Date
TIME	LABEL	16:31:55	Time
NOTES	NOTES	1	&Notes...
	
PSTAT	PSTAT	REF600-11020	Potentiostat
VDC	POTEN	0.00000E+000	T	DC &Voltage (V)
FREQINIT	QUANT	1.00000E+006	Initial Fre&q. (Hz)
FREQFINAL	QUANT	1.00000E+000	Final Fre&q. (Hz)
PTSPERDEC	QUANT	1.00000E+001	Points/&decade
VAC	QUANT	2.50000E+001	AC &Voltage (mV rms)
AREA	QUANT	4.00000E-005	&Area (cm^2)
CONDIT	TWOPARAM	F	5.00000E+000	0.00000E+000	Conditionin&g	Time(s)	E(V)
DELAY	TWOPARAM	F	3.00000E+000	0.00000E+000	Init. De&lay	Time(s)	Stab.(mV/s)
SPEED	SELECTOR	0	&Optimize for:
ZGUESS	QUANT	1.00000E+003	E&stimated Z (ohms)
OCVCURVE	TABLE	39
	Pt	T	Vf	Vm	Ach	Over
	#	s	V vs. Ref.	V	V	bits
	0	0.258333	7.07862E-002	7.07862E-002	5.31626E-004	...........
	1	0.516667	7.07860E-002	7.07765E-002	5.39092E-004	...........
	2	0.775	7.07849E-002	7.07673E-002	5.35626E-004	...........
	3	1.03333	7.07817E-002	7.07593E-002	5.33092E-004	...........
	4	1.29167	7.07761E-002	7.07562E-002	5.29559E-004	...........
	5	1.55	7.07691E-002	7.07471E-002	5.30492E-004	...........
	6	1.80833	7.07619E-002	7.07375E-002	5.26126E-004	...........
	7	2.06667	7.07546E-002	7.07279E-002	5.31492E-004	...........
	8	2.325	7.07467E-002	7.07224E-002	5.37659E-004	...........
	9	2.58333	7.07385E-002	7.07123E-002	5.31159E-004	...........
	10	2.84167	7.07301E-002	7.07055E-002	5.31292E-004	...........
	11	3.1	7.07219E-002	7.07001E-002	5.32026E-004	...........
	12	3.35833	7.07141E-002	7.06908E-002	5.37359E-004	...........
	13	3.61667	7.07066E-002	7.06815E-002	5.31892E-004	...........
	14	3.875	7.06991E-002	7.06796E-002	5.36226E-004	...........
	15	4.13333	7.06918E-002	7.06730E-002	5.32059E-004	...........
	16	4.39167	7.06848E-002	7.06544E-002	5.32726E-004	...........
	17	4.65	7.06774E-002	7.06484E-002	5.32959E-004	...........
	18	4.90833	7.06688E-002	7.06402E-002	5.26026E-004	...........
	19	5.16667	7.06593E-002	7.06351E-002	5.33826E-004	...........
	20	5.425	7.06502E-002	7.06285E-002	5.22693E-004	...........
	21	5.68333	7.06422E-002	7.06210E-002	5.26659E-004	...........
	22	5.94167	7.06351E-002	7.06142E-002	5.28526E-004	...........
	23	6.2	7.06284E-002	7.06068E-002	5.28426E-004	...........
	24	6.45833	7.06216E-002	7.05993E-002	5.22593E-004	...........
	25	6.71667	7.06145E-002	7.05944E-002	5.30092E-004	...........
	26	6.975	7.06075E-002	7.05843E-002	5.26026E-004	...........
	27	7.23333	7.06004E-002	7.05782E-002	5.31992E-004	...........
	28	7.49167	7.05932E-002	7.05699E-002	5.33559E-004	...........
	29	7.75	7.05858E-002	7.05622E-002	5.32226E-004	...........
	30	8.00833	7.05782E-002	7.05505E-002	5.30792E-004	...........
	31	8.26667	7.05701E-002	7.05451E-002	5.28359E-004	...........
	32	8.525	7.05618E-002	7.05376E-002	5.29526E-004	...........
	33	8.78333	7.05536E-002	7.05351E-002	5.29992E-004	...........
	34	9.04167	7.05461E-002	7.05233E-002	5.29459E-004	...........
	35	9.3	7.05393E-002	7.05207E-002	5.30792E-004	...........
	36	9.5583	7.05326E-002	7.05059E-002	5.31859E-004	...........
	37	9.8167	7.05252E-002	7.04835E-002	5.29426E-004	...........
	38	10.075	7.05157E-002	7.04778E-002	5.31292E-004	...........
EOC	QUANT	0.0705157	Open Circuit (V)
PSTATMODEL	IQUANT	4	Pstat Model
PSTATSECTION	LABEL	REF600-11020	Pstat Section
PSTATSERIALNO	LABEL	11020	Pstat Serial Number
CTRLMODE	IQUANT	1	Control Mode
IESTAB	IQUANT	0	I/E Stability
CASPEED	IQUANT	1	Control Amp Speed
CONVENTION	IQUANT	1	Current Convention
ICHRANGE	IQUANT	2	Ich Range
ICHRANGEMODE	TOGGLE	F	Ich Auto Range
ICHOFFSETENABLE	TOGGLE	T	Ich Offset Enable
ICHOFFSET	QUANT	0	Ich Offset (V)
ICHFILTER	IQUANT	3	Ich Filter
VCHRANGE	IQUANT	2	Vch Range
VCHRANGEMODE	TOGGLE	F	Vch Auto Range
VCHOFFSETENABLE	TOGGLE	T	Vch Offset Enable
VCHOFFSET	QUANT	0	Vch Offset (V)
VCHFILTER	IQUANT	3	Vch Filter
ACHRANGE	IQUANT	2	Ach Range
ACHOFFSETENABLE	TOGGLE	F	Ach Offset Enable
ACHOFFSET	QUANT	0	Ach Offset (V)
ACHFILTER	IQUANT	3	Ach Filter
IERANGELOWERLIMIT	IQUANT	1	I/E Range Lower Limit
IERANGEMODE	TOGGLE	F	I/E AutoRange
IERANGE	IQUANT	8	I/E Range
POSFEEDENABLE	TOGGLE	F	Positive Feedback IR Comp
POSFEEDRESISTANCE	QUANT	0	Positive Feedback Resistance (ohm)
ACHSELECT	IQUANT	0	Ach Select
CABLEID	IQUANT	14	Cable ID
DCCALDATE	LABEL	9/1/2020	DC Calibration Date
ACCALDATE	LABEL	9/1/2020	AC Calibration Date
THERMOSELECT	IQUANT	1	Thermo Select
FRAMEWORKVERSION	QUANT	6.33	Framework Version
INSTRUMENTVERSION	LABEL	3.50	Instrument Version
ZCURVE	TABLE
	Pt	Time	Freq	Zreal	Zimag	Zsig	Zmod	Zphz	Idc	Vdc	IERange
	#	s	Hz	ohm	ohm	V	ohm	°	A	V	#
	0	1	1000078	1811.765	-2342.664	1	2961.514	-52.28242	9.731323E-008	0.0726611	8
	1	1	794390.6	2224.062	-2591.039	1	3414.664	-49.35831	3.230027E-008	0.0723135	8
	2	1	630984.4	2701.643	-2810.987	1	3898.784	-46.13632	7.307234E-008	0.0721781	8
	3	2	501234.4	3230.676	-2982.462	1	4396.856	-42.71226	5.200434E-008	0.0720739	8
	4	2	398109.4	3805.526	-3086.09	1	4899.59	-39.04032	8.71196E-008	0.0720214	8
	5	2	316265.6	4394.725	-3120.498	1	5389.909	-35.37687	7.572078E-008	0.0719942	8
	6	3	251203.1	4974.53	-3082.481	1	5852.148	-31.78453	7.242302E-008	0.0719829	8
	7	3	199546.9	5535.636	-2996.02	1	6294.395	-28.42332	4.118279E-008	0.0719791	8
	8	3	158578.1	6037.722	-2833.638	1	6669.602	-25.14172	5.42854E-008	0.0719785	8
	9	4	125953.1	6508.623	-2643.102	1	7024.824	-22.10169	2.618884E-008	0.0719753	7
	10	4	100078.1	6908.01	-2437.83	1	7325.545	-19.43788	-2.151047E-009	0.0719549	7
	11	4	79453.13	7251.888	-2247.782	1	7592.259	-17.22125	8.305999E-009	0.0719348	7
	12	5	63140.62	7542.782	-2064.399	1	7820.186	-15.30655	9.756055E-009	0.0719347	7
	13	5	50203.12	7792.841	-1899.255	1	8020.944	-13.69698	4.197965E-010	0.0719427	7
	14	5	39890.62	8007.75	-1759.358	1	8198.744	-12.3914	5.080096E-009	0.0719353	7
	15	6	31640.63	8196.813	-1646.177	1	8360.481	-11.35572	-5.108946E-009	0.0719398	7
	16	6	25171.88	8361.951	-1567.541	1	8507.609	-10.6175	-5.325847E-009	0.0719339	7
	17	6	20015.62	8508.007	-1520.703	1	8642.842	-10.13391	8.896562E-009	0.0719354	7
	18	7	15890.62	8644.909	-1507.455	1	8775.356	-9.89149	1.059398E-009	0.0719396	7
	19	7	12609.37	8782.158	-1524.311	1	8913.463	-9.84667	-1.688025E-009	0.0719484	6
	20	7	10078.13	8912.134	-1589.026	1	9052.687	-10.10955	1.275624E-009	0.0719263	6
	21	8	8015.625	9041.159	-1696.147	1	9198.885	-10.62534	-9.102685E-010	0.0719258	6
	22	8	6328.125	9186.285	-1855.635	1	9371.831	-11.42011	1.281253E-009	0.0719129	6
	23	8	5015.625	9340.496	-2064.638	1	9565.96	-12.46433	6.493043E-010	0.0719277	6
	24	9	3984.375	9507.74	-2330.665	1	9789.23	-13.77352	1.208426E-009	0.0719071	6
	25	9	3170.956	9694.23	-2658.778	1	10052.22	-15.33704	9.602809E-010	0.0719181	6
	26	9	2527.573	9903.38	-3058.299	1	10364.85	-17.1614	5.853877E-010	0.0719033	6
	27	9	1976.103	10166.8	-3587.573	1	10781.21	-19.43649	-9.282475E-010	0.0719373	6
	28	10	1577.524	10446.86	-4176.348	1	11250.73	-21.79007	6.006976E-010	0.0719214	6
	29	10	1265.625	10762.76	-4863.218	1	11810.5	-24.31611	-1.156422E-010	0.07193	6
	30	10	998.264	11154.96	-5747.246	1	12548.46	-27.25839	-1.548499E-009	0.0719248	6
	31	11	796.875	11599.44	-6758.547	1	13424.79	-30.22772	1.22672E-009	0.0719069	6
	32	11	627.7902	12147.26	-8036.96	1	14565.33	-33.48971	1.340069E-009	0.0719144	6
	33	11	505.5147	12733.66	-9419.512	1	15838.98	-36.49157	-3.808338E-010	0.071927	6
	34	12	397.9953	13492.85	-11244.08	1	17563.78	-39.80566	4.848774E-010	0.071941	6
	35	12	315.5048	14378.41	-13371.45	1	19635.04	-42.92182	4.518095E-010	0.0719388	6
	36	12	252.4038	15394.79	-15809.58	1	22066.77	-45.76157	3.559052E-010	0.0719349	6
	37	13	198.6229	16716.31	-18941.85	1	25263.19	-48.57138	5.235186E-010	0.0719346	6
	38	13	158.3615	18243.13	-22476.46	1	28948.28	-50.93533	2.934534E-010	0.0719321	6
	39	13	125.558	20164.15	-26779.55	1	33522.2	-53.02142	3.041674E-010	0.0719322	6
	40	14	100.4464	22436.4	-31654.93	1	38799.83	-54.67173	4.102031E-010	0.0719292	6
	41	14	79.00281	25471.41	-37826.62	1	45603.13	-56.04476	1.846114E-010	0.0719259	6
	42	14	63.3446	28911.68	-44434.52	1	53012.37	-56.94963	2.82584E-010	0.0719295	6
	43	15	49.86702	33473.41	-52716.55	1	62446	-57.58569	2.564854E-010	0.0719281	6
	44	15	39.72458	38714.11	-61762.52	1	72893.01	-57.91961	3.603648E-010	0.0719341	6
	45	15	31.6723	44957.98	-72075.36	1	84947.5	-58.04559	4.78409E-010	0.071931	6
	46	16	24.93351	52767.31	-84539.73	1	99656.2	-58.02876	-3.19807E-010	0.0719312	6
	47	16	19.86229	61370.14	-98072.4	1	115691.4	-57.96317	-1.026481E-009	0.0719205	5
	48	16	15.83615	71526.17	-113734.2	1	134355.7	-57.83466	-6.908393E-010	0.0719201	5
	49	17	12.40079	84467.3	-133273.8	1	157786.6	-57.63397	-1.35318E-009	0.071925	5
	50	17	9.93114	98263	-153460.8	1	182224.7	-57.36801	-1.57259E-009	0.0719211	5
	51	17	7.944915	114490.8	-177128.4	1	210909	-57.12252	-4.977529E-010	0.0719276	5
	52	18	6.317385	134544.5	-204355.7	1	244670.2	-56.63972	2.111372E-010	0.0719174	5
	53	18	5.008013	158836.9	-235444	1	284012.4	-55.99533	-1.197059E-010	0.0719158	5
	54	19	3.945707	188025.8	-271381	1	330153.5	-55.28392	-3.897193E-010	0.0719179	5
	55	20	3.158693	219622.3	-307338.3	1	377744.3	-54.4506	3.741981E-011	0.0719063	5
	56	21	2.504006	256886	-349171.4	1	433487.1	-53.65802	3.061349E-010	0.0719161	5
	57	23	1.998082	296386.5	-392488.6	1	491825.4	-52.94184	-1.154426E-011	0.0718774	5
	58	24	1.584686	340782.2	-444471.4	1	560078	-52.52213	-8.717754E-011	0.0718683	5
	59	26	1.266892	385095.2	-500032.7	1	631134.7	-52.39869	9.427245E-012	0.0718979	5
	60	29	0.999041	436204.4	-567813.8	1	716021.5	-52.46791	5.351272E-011	0.071926	5
