EXPLAIN
TAG	EISPOT
TITLE	LABEL	Potentiostatic EIS	Test &Identifier
DATE	LABEL	1/7/2021	Date
TIME	LABEL	16:10:35	Time
NOTES	NOTES	1	&Notes...
	
PSTAT	PSTAT	REF600-11020	Potentiostat
VDC	POTEN	0.00000E+000	T	DC &Voltage (V)
FREQINIT	QUANT	1.00000E+006	Initial Fre&q. (Hz)
FREQFINAL	QUANT	1.00000E+000	Final Fre&q. (Hz)
PTSPERDEC	QUANT	1.00000E+001	Points/&decade
VAC	QUANT	2.50000E+001	AC &Voltage (mV rms)
AREA	QUANT	4.00000E-005	&Area (cm^2)
CONDIT	TWOPARAM	F	5.00000E+000	0.00000E+000	Conditionin&g	Time(s)	E(V)
DELAY	TWOPARAM	F	3.00000E+000	0.00000E+000	Init. De&lay	Time(s)	Stab.(mV/s)
SPEED	SELECTOR	0	&Optimize for:
ZGUESS	QUANT	1.00000E+003	E&stimated Z (ohms)
OCVCURVE	TABLE	39
	Pt	T	Vf	Vm	Ach	Over
	#	s	V vs. Ref.	V	V	bits
	0	0.258333	1.10256E-001	1.10257E-001	5.35392E-004	...........
	1	0.516667	1.10256E-001	1.10248E-001	5.31959E-004	...........
	2	0.775	1.10255E-001	1.10243E-001	5.33526E-004	...........
	3	1.03333	1.10253E-001	1.10245E-001	5.33159E-004	...........
	4	1.29167	1.10250E-001	1.10245E-001	5.32426E-004	...........
	5	1.55	1.10247E-001	1.10229E-001	5.37826E-004	...........
	6	1.80833	1.10243E-001	1.10226E-001	5.32959E-004	...........
	7	2.06667	1.10239E-001	1.10217E-001	5.44625E-004	...........
	8	2.325	1.10233E-001	1.10212E-001	5.42892E-004	...........
	9	2.58333	1.10226E-001	1.10210E-001	5.35026E-004	...........
	10	2.84167	1.10219E-001	1.10206E-001	5.34526E-004	...........
	11	3.1	1.10214E-001	1.10196E-001	5.26659E-004	...........
	12	3.35833	1.10209E-001	1.10190E-001	5.38526E-004	...........
	13	3.61667	1.10203E-001	1.10181E-001	5.34426E-004	...........
	14	3.875	1.10197E-001	1.10172E-001	5.31692E-004	...........
	15	4.13333	1.10190E-001	1.10166E-001	5.26726E-004	...........
	16	4.39167	1.10182E-001	1.10163E-001	5.29792E-004	...........
	17	4.65	1.10175E-001	1.10157E-001	5.32326E-004	...........
	18	4.90833	1.10168E-001	1.10151E-001	5.31092E-004	...........
	19	5.16667	1.10162E-001	1.10144E-001	5.32459E-004	...........
	20	5.425	1.10157E-001	1.10138E-001	5.27992E-004	...........
	21	5.68333	1.10151E-001	1.10133E-001	5.29126E-004	...........
	22	5.94167	1.10145E-001	1.10128E-001	5.31892E-004	...........
	23	6.2	1.10139E-001	1.10123E-001	5.35159E-004	...........
	24	6.45833	1.10134E-001	1.10116E-001	5.30759E-004	...........
	25	6.71667	1.10128E-001	1.10108E-001	5.31292E-004	...........
	26	6.975	1.10122E-001	1.10105E-001	5.27092E-004	...........
	27	7.23333	1.10116E-001	1.10097E-001	5.29959E-004	...........
	28	7.49167	1.10110E-001	1.10093E-001	5.36326E-004	...........
	29	7.75	1.10104E-001	1.10090E-001	5.36659E-004	...........
	30	8.00833	1.10099E-001	1.10085E-001	5.36459E-004	...........
	31	8.26667	1.10094E-001	1.10081E-001	5.45459E-004	...........
	32	8.525	1.10089E-001	1.10074E-001	5.33659E-004	...........
	33	8.78333	1.10085E-001	1.10069E-001	5.38859E-004	...........
	34	9.04167	1.10080E-001	1.10068E-001	5.31426E-004	...........
	35	9.3	1.10076E-001	1.10076E-001	5.32926E-004	...........
	36	9.5583	1.10073E-001	1.10071E-001	5.40459E-004	...........
	37	9.8167	1.10071E-001	1.10050E-001	5.37492E-004	...........
	38	10.075	1.10069E-001	1.10046E-001	5.31292E-004	...........
EOC	QUANT	0.110069	Open Circuit (V)
PSTATMODEL	IQUANT	4	Pstat Model
PSTATSECTION	LABEL	REF600-11020	Pstat Section
PSTATSERIALNO	LABEL	11020	Pstat Serial Number
CTRLMODE	IQUANT	1	Control Mode
IESTAB	IQUANT	0	I/E Stability
CASPEED	IQUANT	1	Control Amp Speed
CONVENTION	IQUANT	1	Current Convention
ICHRANGE	IQUANT	2	Ich Range
ICHRANGEMODE	TOGGLE	F	Ich Auto Range
ICHOFFSETENABLE	TOGGLE	T	Ich Offset Enable
ICHOFFSET	QUANT	0	Ich Offset (V)
ICHFILTER	IQUANT	3	Ich Filter
VCHRANGE	IQUANT	2	Vch Range
VCHRANGEMODE	TOGGLE	F	Vch Auto Range
VCHOFFSETENABLE	TOGGLE	T	Vch Offset Enable
VCHOFFSET	QUANT	0	Vch Offset (V)
VCHFILTER	IQUANT	3	Vch Filter
ACHRANGE	IQUANT	2	Ach Range
ACHOFFSETENABLE	TOGGLE	F	Ach Offset Enable
ACHOFFSET	QUANT	0	Ach Offset (V)
ACHFILTER	IQUANT	3	Ach Filter
IERANGELOWERLIMIT	IQUANT	1	I/E Range Lower Limit
IERANGEMODE	TOGGLE	F	I/E AutoRange
IERANGE	IQUANT	8	I/E Range
POSFEEDENABLE	TOGGLE	F	Positive Feedback IR Comp
POSFEEDRESISTANCE	QUANT	0	Positive Feedback Resistance (ohm)
ACHSELECT	IQUANT	0	Ach Select
CABLEID	IQUANT	14	Cable ID
DCCALDATE	LABEL	9/1/2020	DC Calibration Date
ACCALDATE	LABEL	9/1/2020	AC Calibration Date
THERMOSELECT	IQUANT	1	Thermo Select
FRAMEWORKVERSION	QUANT	6.33	Framework Version
INSTRUMENTVERSION	LABEL	3.50	Instrument Version
ZCURVE	TABLE
	Pt	Time	Freq	Zreal	Zimag	Zsig	Zmod	Zphz	Idc	Vdc	IERange
	#	s	Hz	ohm	ohm	V	ohm	°	A	V	#
	0	1	1000078	1912.493	-2593.84	1	3222.675	-53.59786	8.754336E-008	0.112005	8
	1	1	794390.6	2348.216	-2882.254	1	3717.729	-50.82978	1.054257E-007	0.1116825	8
	2	2	630984.4	2849.194	-3152.33	1	4249.128	-47.89154	3.714308E-008	0.1115714	8
	3	2	501234.4	3416.558	-3378.857	1	4805.158	-44.68213	5.983499E-008	0.1115317	8
	4	2	398109.4	4032.683	-3562.021	1	5380.57	-41.45378	6.655695E-008	0.1114437	8
	5	3	316265.6	4670.197	-3684.243	1	5948.478	-38.26934	7.798796E-008	0.1114239	8
	6	3	251203.1	5332.645	-3730.409	1	6507.922	-34.97441	6.303544E-008	0.1114125	8
	7	3	199546.9	5972.286	-3736.578	1	7044.872	-32.03228	7.209902E-008	0.1114087	8
	8	4	158578.1	6595.489	-3686.489	1	7555.837	-29.20262	7.472462E-008	0.1114155	8
	9	4	125953.1	7200.959	-3581.516	1	8042.454	-26.44421	-1.041325E-009	0.1114009	7
	10	4	100078.1	7731.93	-3469.706	1	8474.763	-24.16817	-7.079219E-009	0.1113827	7
	11	4	79453.13	8213.883	-3385.146	1	8884.092	-22.39778	1.836057E-009	0.1113755	7
	12	5	63140.62	8649.811	-3311.771	1	9262.13	-20.95045	2.475368E-009	0.1113813	7
	13	5	50203.12	9057.635	-3275.025	1	9631.54	-19.87878	-6.525222E-009	0.1113803	7
	14	5	39890.62	9441.685	-3279.703	1	9995.09	-19.15539	-6.966546E-009	0.1113787	7
	15	6	31640.63	9813.26	-3332.454	1	10363.66	-18.75681	-4.688728E-009	0.1113777	7
	16	6	25171.88	10176.2	-3437.874	1	10741.23	-18.66676	3.839937E-009	0.1113703	7
	17	6	20015.62	10547.29	-3604.892	1	11146.32	-18.8696	4.427983E-009	0.1113695	7
	18	7	15890.62	10940.2	-3839.917	1	11594.52	-19.34064	5.518603E-009	0.1113605	7
	19	7	12609.37	11365.52	-4114.697	1	12087.42	-19.90194	-7.060286E-010	0.1113669	6
	20	7	10078.13	11790.76	-4485.2	1	12615.03	-20.82679	9.457388E-010	0.1113508	6
	21	8	8015.625	12264.14	-4946.095	1	13223.96	-21.96409	8.99484E-010	0.1113497	6
	22	8	6328.125	12803.54	-5518.486	1	13942.17	-23.31665	-1.264223E-009	0.111375	6
	23	8	5015.625	13393.44	-6190.036	1	14754.68	-24.80493	-1.312821E-009	0.1113752	6
	24	9	3984.375	14050.26	-6975.287	1	15686.44	-26.40222	1.381429E-010	0.1113701	6
	25	9	3170.956	14778.59	-7890.328	1	16753.03	-28.09787	1.037167E-009	0.111344	6
	26	9	2527.573	15600.05	-8943.823	1	17982.04	-29.82651	-3.519202E-010	0.1113734	6
	27	10	1976.103	16613.54	-10279.6	1	19536.63	-31.74709	-1.259226E-009	0.1113714	6
	28	10	1577.524	17681.33	-11711.24	1	21208.08	-33.51853	1.468627E-009	0.1113533	6
	29	10	1265.625	18857.37	-13324.59	1	23089.94	-35.24498	1.108888E-009	0.1113376	6
	30	11	998.264	20321	-15325.52	1	25452.2	-37.02257	8.735133E-010	0.1113508	6
	31	11	796.875	21921.13	-17531.03	1	28069.08	-38.65045	1.333767E-009	0.1113474	6
	32	11	627.7902	23873.25	-20229.9	1	31291.87	-40.27753	1.059645E-009	0.111338	6
	33	12	505.5147	25916.17	-23045.96	1	34680.89	-41.64511	9.207379E-010	0.1113379	6
	34	12	397.9953	28526.42	-26610.15	1	39010.98	-43.00949	3.586855E-010	0.1113737	6
	35	12	315.5048	31477.07	-30595.36	1	43896.27	-44.18619	3.177534E-010	0.1113754	6
	36	12	252.4038	34758.64	-34970.61	1	49306.26	-45.17417	2.738818E-010	0.1113708	6
	37	13	198.6229	38857.89	-40338.31	1	56009.96	-46.0709	3.574739E-010	0.111372	6
	38	13	158.3615	43363.93	-46121.09	1	63305.49	-46.7648	1.481013E-010	0.1113688	6
	39	13	125.558	48705.94	-52822.36	1	71850.34	-47.32176	2.946992E-010	0.1113646	6
	40	14	100.4464	54652.43	-60105.51	1	81237.68	-47.72054	2.958633E-010	0.1113665	6
	41	14	79.00281	62051.33	-68927.4	1	92743.48	-48.00513	3.206845E-010	0.1113644	6
	42	14	63.3446	69873.34	-77955.16	1	104686.6	-48.12926	1.350137E-010	0.1113604	5
	43	15	49.86702	79542.79	-88970.63	1	119343.3	-48.20219	-4.566249E-011	0.1113579	5
	44	15	39.72458	90008.45	-100677.2	1	135046	-48.20233	-6.665576E-011	0.1113605	5
	45	16	31.6723	101777.1	-113691	1	152591.7	-48.16483	-4.383885E-011	0.111358	5
	46	16	24.93351	115683.1	-129108.3	1	173353.8	-48.13914	5.795493E-011	0.1113576	5
	47	16	19.86229	130503.8	-145814.7	1	195686.4	-48.17154	-5.47005E-010	0.1113591	5
	48	16	15.83615	147099.7	-164334.8	1	220554.4	-48.16758	6.907752E-010	0.1113585	5
	49	17	12.40079	166949.9	-187327.8	1	250926.2	-48.29201	9.544053E-010	0.1113578	5
	50	17	9.93114	186733	-210925.3	1	281706.8	-48.48141	1.140675E-009	0.1113625	5
	51	17	7.944915	209156.8	-239156.4	1	317714.3	-48.82833	3.567477E-010	0.111355	5
	52	18	6.317385	235114.3	-271918	1	359469.2	-49.15162	-2.31235E-011	0.1113653	5
	53	19	5.008013	265160.6	-310290.5	1	408154.8	-49.48426	2.293692E-010	0.1113642	5
	54	20	3.945707	300784.5	-356600.6	1	466514	-49.85312	3.505571E-010	0.111356	5
	55	20	3.158693	338870.1	-405139.9	1	528177.4	-50.08997	8.041212E-011	0.1113719	5
	56	21	2.504006	385472.1	-463721.5	1	603014.4	-50.26468	-1.313759E-010	0.1113531	5
	57	23	1.998082	436044.3	-525976.9	1	683217.6	-50.34066	6.985024E-011	0.1113777	5
	58	24	1.584686	497356	-600160.1	1	779458.2	-50.35127	1.779316E-010	0.1113992	5
	59	26	1.266892	560698	-679702.1	1	881122.7	-50.48019	1.264068E-010	0.1113701	5
	60	29	0.999041	636187	-773774.3	1	1001729	-50.57341	5.91968E-011	0.1113432	4
