EXPLAIN
TAG	EISPOT
TITLE	LABEL	Potentiostatic EIS	Test &Identifier
DATE	LABEL	6/10/2021	Date
TIME	LABEL	15:19:33	Time
NOTES	NOTES	1	&Notes...
	
PSTAT	PSTAT	REF600-11020	Potentiostat
VDC	POTEN	0.00000E+000	T	DC &Voltage (V)
FREQINIT	QUANT	1.00000E+006	Initial Fre&q. (Hz)
FREQFINAL	QUANT	1.00000E+000	Final Fre&q. (Hz)
PTSPERDEC	QUANT	1.00000E+001	Points/&decade
VAC	QUANT	2.50000E+001	AC &Voltage (mV rms)
AREA	QUANT	4.00000E-005	&Area (cm^2)
CONDIT	TWOPARAM	F	5.00000E+000	0.00000E+000	Conditionin&g	Time(s)	E(V)
DELAY	TWOPARAM	F	3.00000E+000	0.00000E+000	Init. De&lay	Time(s)	Stab.(mV/s)
SPEED	SELECTOR	0	&Optimize for:
ZGUESS	QUANT	1.00000E+003	E&stimated Z (ohms)
OCVCURVE	TABLE	39
	Pt	T	Vf	Vm	Ach	Over
	#	s	V vs. Ref.	V	V	bits
	0	0.258333	7.33901E-003	7.33901E-003	5.47592E-004	...........
	1	0.516667	7.34818E-003	7.81892E-003	5.47259E-004	...........
	2	0.775	7.38398E-003	7.20071E-003	5.47792E-004	...........
	3	1.03333	7.41086E-003	6.28050E-003	5.43192E-004	...........
	4	1.29167	7.31232E-003	6.05407E-003	5.42825E-004	...........
	5	1.55	7.01161E-003	5.48321E-003	5.44359E-004	...........
	6	1.80833	6.56482E-003	5.22909E-003	5.43225E-004	...........
	7	2.06667	6.08219E-003	4.78055E-003	5.43292E-004	...........
	8	2.325	5.61708E-003	3.78463E-003	5.46625E-004	...........
	9	2.58333	5.14306E-003	3.55987E-003	5.52125E-004	...........
	10	2.84167	4.63184E-003	3.36786E-003	5.51325E-004	...........
	11	3.1	4.12758E-003	2.97934E-003	5.42692E-004	...........
	12	3.35833	3.69113E-003	2.58700E-003	5.54459E-004	...........
	13	3.61667	3.32484E-003	2.50090E-003	5.48259E-004	...........
	14	3.875	3.00229E-003	2.08856E-003	5.44625E-004	...........
	15	4.13333	2.70539E-003	1.74616E-003	5.40259E-004	...........
	16	4.39167	2.41442E-003	1.49175E-003	5.44059E-004	...........
	17	4.65	2.11761E-003	1.34195E-003	5.44192E-004	...........
	18	4.90833	1.82803E-003	1.04964E-003	5.45859E-004	...........
	19	5.16667	1.56089E-003	7.75750E-004	5.47759E-004	...........
	20	5.425	1.31152E-003	6.15501E-004	5.48292E-004	...........
	21	5.68333	1.07146E-003	4.26720E-004	5.45859E-004	...........
	22	5.94167	8.42760E-004	1.60898E-004	5.39226E-004	...........
	23	6.2	6.25073E-004	-5.21563E-005	5.41325E-004	...........
	24	6.45833	4.09659E-004	-2.59272E-004	5.51125E-004	...........
	25	6.71667	1.91369E-004	-4.80291E-004	5.44092E-004	...........
	26	6.975	-2.78356E-005	-6.95336E-004	5.40626E-004	...........
	27	7.23333	-2.46144E-004	-9.30061E-004	5.38792E-004	...........
	28	7.49167	-4.64343E-004	-1.12441E-003	5.44759E-004	...........
	29	7.75	-6.82739E-004	-1.35347E-003	5.38592E-004	...........
	30	8.00833	-9.01378E-004	-1.61929E-003	5.37159E-004	...........
	31	8.26667	-1.12172E-003	-1.75209E-003	5.42025E-004	...........
	32	8.525	-1.34098E-003	-1.94205E-003	5.45992E-004	...........
	33	8.78333	-1.55116E-003	-2.16729E-003	5.44092E-004	...........
	34	9.04167	-1.75184E-003	-2.42137E-003	5.43726E-004	...........
	35	9.3	-1.95316E-003	-2.58048E-003	5.41792E-004	...........
	36	9.5583	-2.15772E-003	-2.63536E-003	5.32659E-004	...........
	37	9.8167	-2.34924E-003	-2.74233E-003	5.41559E-004	...........
	38	10.075	-2.51016E-003	-2.92289E-003	5.46625E-004	...........
EOC	QUANT	-0.0025102	Open Circuit (V)
PSTATMODEL	IQUANT	4	Pstat Model
PSTATSECTION	LABEL	REF600-11020	Pstat Section
PSTATSERIALNO	LABEL	11020	Pstat Serial Number
CTRLMODE	IQUANT	1	Control Mode
IESTAB	IQUANT	0	I/E Stability
CASPEED	IQUANT	1	Control Amp Speed
CONVENTION	IQUANT	1	Current Convention
ICHRANGE	IQUANT	2	Ich Range
ICHRANGEMODE	TOGGLE	F	Ich Auto Range
ICHOFFSETENABLE	TOGGLE	T	Ich Offset Enable
ICHOFFSET	QUANT	0	Ich Offset (V)
ICHFILTER	IQUANT	3	Ich Filter
VCHRANGE	IQUANT	2	Vch Range
VCHRANGEMODE	TOGGLE	F	Vch Auto Range
VCHOFFSETENABLE	TOGGLE	T	Vch Offset Enable
VCHOFFSET	QUANT	0	Vch Offset (V)
VCHFILTER	IQUANT	3	Vch Filter
ACHRANGE	IQUANT	2	Ach Range
ACHOFFSETENABLE	TOGGLE	F	Ach Offset Enable
ACHOFFSET	QUANT	0	Ach Offset (V)
ACHFILTER	IQUANT	3	Ach Filter
IERANGELOWERLIMIT	IQUANT	1	I/E Range Lower Limit
IERANGEMODE	TOGGLE	F	I/E AutoRange
IERANGE	IQUANT	6	I/E Range
POSFEEDENABLE	TOGGLE	F	Positive Feedback IR Comp
POSFEEDRESISTANCE	QUANT	0	Positive Feedback Resistance (ohm)
ACHSELECT	IQUANT	0	Ach Select
CABLEID	IQUANT	14	Cable ID
DCCALDATE	LABEL	9/1/2020	DC Calibration Date
ACCALDATE	LABEL	9/1/2020	AC Calibration Date
THERMOSELECT	IQUANT	1	Thermo Select
FRAMEWORKVERSION	QUANT	6.33	Framework Version
INSTRUMENTVERSION	LABEL	3.50	Instrument Version
ZCURVE	TABLE
	Pt	Time	Freq	Zreal	Zimag	Zsig	Zmod	Zphz	Idc	Vdc	IERange
	#	s	Hz	ohm	ohm	V	ohm	°	A	V	#
	0	1	1000078	1975.628	-2349.659	1	3069.854	-49.94237	2.89405E-008	-0.0004856	8
	1	1	794390.6	2348.696	-2521.698	1	3446.061	-47.03436	1.048954E-007	-0.0008218	8
	2	2	630984.4	2725.818	-2673.345	1	3817.965	-44.44318	2.793331E-008	-0.0008987	8
	3	2	501234.4	3086.12	-2822.978	1	4182.504	-42.45021	8.79502E-008	-0.0009988	8
	4	2	398109.4	3428.677	-2986.049	1	4546.681	-41.05275	3.149456E-008	-0.0010413	8
	5	3	316265.6	3749.561	-3176.975	1	4914.507	-40.27436	4.100957E-008	-0.001059	8
	6	3	251203.1	4036.351	-3449.947	1	5309.827	-40.52115	3.353525E-008	-0.00107	8
	7	3	199546.9	4313.139	-3786.189	1	5739.198	-41.27753	3.735308E-008	-0.0010698	8
	8	4	158578.1	4565.351	-4247.07	1	6235.386	-42.93153	4.913151E-008	-0.0010663	8
	9	4	125953.1	4847.044	-4830.667	1	6843.185	-44.90304	7.275281E-010	-0.0010678	7
	10	4	100078.1	5090.278	-5611.188	1	7576.039	-47.78676	-1.29989E-010	-0.0010793	7
	11	5	79453.13	5344.725	-6621.231	1	8509.218	-51.08918	4.988351E-011	-0.0010846	7
	12	5	63140.62	5617.448	-7881.248	1	9678.32	-54.5202	-1.165747E-009	-0.0010958	7
	13	5	50203.12	5906.499	-9481.917	1	11171.1	-58.0803	-2.305003E-012	-0.0010956	7
	14	6	39890.62	6228.307	-11478.5	1	13059.4	-61.51547	7.399796E-010	-0.0010964	7
	15	6	31640.63	6603.084	-13975.15	1	15456.57	-64.70985	-4.415959E-010	-0.001107	7
	16	6	25171.88	6991.332	-17058.65	1	18435.73	-67.71417	-2.786054E-010	-0.0010981	7
	17	7	20015.62	7474.805	-20887.25	1	22184.45	-70.30952	-5.614669E-010	-0.0011108	7
	18	7	15890.62	7953.902	-25725.21	1	26926.77	-72.81907	2.620946E-010	-0.0010995	7
	19	7	12609.37	8678.792	-31731.05	1	32896.52	-74.70309	2.734703E-010	-0.0010991	6
	20	7	10078.13	9354.77	-38985.7	1	40092.34	-76.50677	1.404856E-010	-0.001104	6
	21	8	8015.625	10107.04	-48196.76	1	49245.1	-78.15648	1.951788E-010	-0.0011086	6
	22	8	6328.125	11042.78	-60111.04	1	61116.93	-79.59047	1.804902E-010	-0.0011102	6
	23	8	5015.625	11975	-74783.04	1	75735.75	-80.90247	3.225767E-010	-0.001102	6
	24	9	3984.375	13158.65	-92905.61	1	93832.84	-81.93855	2.754949E-010	-0.0010998	6
	25	9	3170.956	14554.29	-115368.9	1	116283.3	-82.80987	3.873243E-010	-0.0011018	6
	26	9	2527.573	16251.34	-143353.4	1	144271.6	-83.53224	2.348527E-010	-0.001115	6
	27	10	1976.103	18018.2	-181217.3	1	182110.9	-84.32182	2.057235E-010	-0.0011128	6
	28	10	1577.524	20740.68	-224915.7	1	225870	-84.73135	2.158185E-010	-0.0011153	6
	29	10	1265.625	25467.82	-277952.3	1	279116.6	-84.7648	3.793128E-011	-0.0011165	5
	30	11	998.264	28370.07	-349484.9	1	350634.5	-85.35909	1.759916E-011	-0.0011144	5
	31	11	796.875	32121.26	-434775.4	1	435960.3	-85.77466	3.868143E-011	-0.0011167	5
	32	11	627.7902	37615.62	-547494.8	1	548785.4	-86.06967	3.134983E-011	-0.0011228	5
	33	12	505.5147	42815.85	-675486	1	676841.6	-86.37315	4.226014E-011	-0.0011234	5
	34	12	397.9953	49568.83	-852965.4	1	854404.5	-86.67408	-4.507659E-011	-0.0010994	5
	35	12	315.5048	58420.57	-1069326	1	1070921	-86.87286	-4.456458E-011	-0.0011018	5
	36	13	252.4038	69121.69	-1329068	1	1330864	-87.02287	-4.094902E-011	-0.0011031	5
	37	13	198.6229	83637.85	-1678770	1	1680853	-87.14783	-4.494342E-011	-0.0011067	5
	38	13	158.3615	101727.4	-2093419	1	2095890	-87.21796	-4.141268E-011	-0.0011112	5
	39	14	125.558	131504.5	-2628197	1	2631485	-87.13554	-1.944911E-011	-0.0011068	4
	40	14	100.4464	161758.6	-3269110	1	3273110	-87.16726	-1.824397E-011	-0.0011055	4
	41	14	79.00281	199258.2	-4134072	1	4138872	-87.24054	-1.859404E-011	-0.001106	4
	42	15	63.3446	266367.1	-5105793	1	5112736	-87.01361	-1.889032E-011	-0.0011062	4
	43	15	49.86702	336431.5	-6455518	1	6464278	-87.01671	-1.836602E-011	-0.0011088	4
	44	15	39.72458	412121.7	-8068374	1	8078892	-87.07595	-1.921518E-011	-0.0011036	4
	45	16	31.6723	530761.3	-1.007016E+007	1	1.008414E+007	-86.98294	-1.848657E-011	-0.001108	4
	46	16	24.93351	721434.1	-1.269602E+007	1	1.271651E+007	-86.74774	-1.977603E-011	-0.00111	4
	47	16	19.86229	945521.9	-1.583232E+007	1	1.586053E+007	-86.5823	-2.047012E-011	-0.0011086	4
	48	17	15.83615	1417205	-1.976793E+007	1	1.981866E+007	-85.89936	-1.280888E-011	-0.001106	4
	49	17	12.40079	1666793	-2.507073E+007	1	2.512608E+007	-86.19637	-4.523676E-012	-0.0011155	3
	50	17	9.93114	2386934	-3.097495E+007	1	3.106678E+007	-85.59348	-8.639299E-013	-0.0011135	3
	51	17	7.944915	3134661	-3.845303E+007	1	3.858058E+007	-85.3396	1.501924E-013	-0.0011152	3
	52	18	6.317385	4475525	-4.770834E+007	1	4.79178E+007	-84.64076	-1.633949E-012	-0.0011058	3
	53	19	5.008013	6222196	-5.958256E+007	1	5.990658E+007	-84.03822	-1.645879E-012	-0.001103	3
	54	20	3.945707	8869700	-7.451929E+007	1	7.50453E+007	-83.21227	-1.528668E-012	-0.0011186	3
	55	21	3.158693	1.22269E+007	-9.197783E+007	1	9.278695E+007	-82.42789	-1.532414E-012	-0.0011241	3
	56	22	2.504006	1.71704E+007	-1.14102E+008	1	1.153866E+008	-81.44217	-1.196272E-012	-0.0011195	3
	57	24	1.998082	2.420506E+007	-1.401307E+008	1	1.422058E+008	-80.19988	-1.686758E-012	-0.0011654	3
	58	25	1.584686	3.390972E+007	-1.722041E+008	1	1.755111E+008	-78.86008	-1.409359E-012	-0.0011499	3
	59	27	1.266892	4.746397E+007	-2.078095E+008	1	2.13161E+008	-77.13426	-2.821249E-012	-0.0010942	2
	60	30	0.999041	6.73097E+007	-2.533735E+008	1	2.621616E+008	-75.12276	-2.701349E-012	-0.0010691	2
