EXPLAIN
TAG	EISPOT
TITLE	LABEL	Potentiostatic EIS	Test &Identifier
DATE	LABEL	1/7/2021	Date
TIME	LABEL	16:07:01	Time
NOTES	NOTES	1	&Notes...
	
PSTAT	PSTAT	REF600-11020	Potentiostat
VDC	POTEN	0.00000E+000	T	DC &Voltage (V)
FREQINIT	QUANT	1.00000E+006	Initial Fre&q. (Hz)
FREQFINAL	QUANT	1.00000E+000	Final Fre&q. (Hz)
PTSPERDEC	QUANT	1.00000E+001	Points/&decade
VAC	QUANT	2.50000E+001	AC &Voltage (mV rms)
AREA	QUANT	4.00000E-005	&Area (cm^2)
CONDIT	TWOPARAM	F	5.00000E+000	0.00000E+000	Conditionin&g	Time(s)	E(V)
DELAY	TWOPARAM	F	3.00000E+000	0.00000E+000	Init. De&lay	Time(s)	Stab.(mV/s)
SPEED	SELECTOR	0	&Optimize for:
ZGUESS	QUANT	1.00000E+003	E&stimated Z (ohms)
OCVCURVE	TABLE	39
	Pt	T	Vf	Vm	Ach	Over
	#	s	V vs. Ref.	V	V	bits
	0	0.258333	1.05955E-001	1.05955E-001	5.37826E-004	...........
	1	0.516667	1.05955E-001	1.05956E-001	5.42025E-004	...........
	2	0.775	1.05955E-001	1.05957E-001	5.44892E-004	...........
	3	1.03333	1.05956E-001	1.05960E-001	5.40792E-004	...........
	4	1.29167	1.05957E-001	1.05960E-001	5.39392E-004	...........
	5	1.55	1.05958E-001	1.05960E-001	5.39159E-004	...........
	6	1.80833	1.05959E-001	1.05966E-001	5.38359E-004	...........
	7	2.06667	1.05960E-001	1.05963E-001	5.37126E-004	...........
	8	2.325	1.05962E-001	1.05965E-001	5.42092E-004	...........
	9	2.58333	1.05963E-001	1.05962E-001	5.43726E-004	...........
	10	2.84167	1.05964E-001	1.05964E-001	5.41892E-004	...........
	11	3.1	1.05964E-001	1.05967E-001	5.34526E-004	...........
	12	3.35833	1.05964E-001	1.05966E-001	5.41992E-004	...........
	13	3.61667	1.05965E-001	1.05969E-001	5.39959E-004	...........
	14	3.875	1.05966E-001	1.05969E-001	5.36726E-004	...........
	15	4.13333	1.05967E-001	1.05969E-001	5.31892E-004	...........
	16	4.39167	1.05968E-001	1.05973E-001	5.38159E-004	...........
	17	4.65	1.05969E-001	1.05972E-001	5.37326E-004	...........
	18	4.90833	1.05970E-001	1.05973E-001	5.32792E-004	...........
	19	5.16667	1.05971E-001	1.05971E-001	5.35559E-004	...........
	20	5.425	1.05972E-001	1.05975E-001	5.33492E-004	...........
	21	5.68333	1.05972E-001	1.05975E-001	5.32792E-004	...........
	22	5.94167	1.05973E-001	1.05976E-001	5.29626E-004	...........
	23	6.2	1.05974E-001	1.05977E-001	5.34292E-004	...........
	24	6.45833	1.05975E-001	1.05978E-001	5.37726E-004	...........
	25	6.71667	1.05976E-001	1.05977E-001	5.38292E-004	...........
	26	6.975	1.05977E-001	1.05977E-001	5.30859E-004	...........
	27	7.23333	1.05977E-001	1.05978E-001	5.36626E-004	...........
	28	7.49167	1.05977E-001	1.05977E-001	5.37926E-004	...........
	29	7.75	1.05977E-001	1.05975E-001	5.44326E-004	...........
	30	8.00833	1.05977E-001	1.05976E-001	5.40426E-004	...........
	31	8.26667	1.05977E-001	1.05976E-001	5.33826E-004	...........
	32	8.525	1.05976E-001	1.05976E-001	5.36926E-004	...........
	33	8.78333	1.05976E-001	1.05977E-001	5.35159E-004	...........
	34	9.04167	1.05976E-001	1.05972E-001	5.34959E-004	...........
	35	9.3	1.05976E-001	1.05973E-001	5.32292E-004	...........
	36	9.5583	1.05975E-001	1.05973E-001	5.32692E-004	...........
	37	9.8167	1.05974E-001	1.05977E-001	5.30526E-004	...........
	38	10.075	1.05974E-001	1.05976E-001	5.31592E-004	...........
EOC	QUANT	0.1059738	Open Circuit (V)
PSTATMODEL	IQUANT	4	Pstat Model
PSTATSECTION	LABEL	REF600-11020	Pstat Section
PSTATSERIALNO	LABEL	11020	Pstat Serial Number
CTRLMODE	IQUANT	1	Control Mode
IESTAB	IQUANT	0	I/E Stability
CASPEED	IQUANT	1	Control Amp Speed
CONVENTION	IQUANT	1	Current Convention
ICHRANGE	IQUANT	2	Ich Range
ICHRANGEMODE	TOGGLE	F	Ich Auto Range
ICHOFFSETENABLE	TOGGLE	T	Ich Offset Enable
ICHOFFSET	QUANT	0	Ich Offset (V)
ICHFILTER	IQUANT	3	Ich Filter
VCHRANGE	IQUANT	2	Vch Range
VCHRANGEMODE	TOGGLE	F	Vch Auto Range
VCHOFFSETENABLE	TOGGLE	T	Vch Offset Enable
VCHOFFSET	QUANT	0	Vch Offset (V)
VCHFILTER	IQUANT	3	Vch Filter
ACHRANGE	IQUANT	2	Ach Range
ACHOFFSETENABLE	TOGGLE	F	Ach Offset Enable
ACHOFFSET	QUANT	0	Ach Offset (V)
ACHFILTER	IQUANT	3	Ach Filter
IERANGELOWERLIMIT	IQUANT	1	I/E Range Lower Limit
IERANGEMODE	TOGGLE	F	I/E AutoRange
IERANGE	IQUANT	8	I/E Range
POSFEEDENABLE	TOGGLE	F	Positive Feedback IR Comp
POSFEEDRESISTANCE	QUANT	0	Positive Feedback Resistance (ohm)
ACHSELECT	IQUANT	0	Ach Select
CABLEID	IQUANT	14	Cable ID
DCCALDATE	LABEL	9/1/2020	DC Calibration Date
ACCALDATE	LABEL	9/1/2020	AC Calibration Date
THERMOSELECT	IQUANT	1	Thermo Select
FRAMEWORKVERSION	QUANT	6.33	Framework Version
INSTRUMENTVERSION	LABEL	3.50	Instrument Version
ZCURVE	TABLE
	Pt	Time	Freq	Zreal	Zimag	Zsig	Zmod	Zphz	Idc	Vdc	IERange
	#	s	Hz	ohm	ohm	V	ohm	°	A	V	#
	0	2	1000078	2382.591	-2152.726	1	3211.069	-42.09854	8.163823E-008	0.1080139	8
	1	2	794390.6	2741.448	-2225.324	1	3530.949	-39.06738	2.248272E-008	0.1077138	8
	2	2	630984.4	3089.773	-2277.571	1	3838.493	-36.39512	6.637718E-008	0.1075724	8
	3	3	501234.4	3417.913	-2326.834	1	4134.766	-34.24611	4.972756E-008	0.107488	8
	4	3	398109.4	3732.097	-2385.811	1	4429.52	-32.58949	5.108398E-008	0.1074316	8
	5	3	316265.6	4036.793	-2468.047	1	4731.486	-31.44111	1.791352E-007	0.1073808	8
	6	4	251203.1	4352.1	-2591.517	1	5065.248	-30.77226	5.436647E-008	0.1074373	8
	7	4	199546.9	4669.844	-2740.273	1	5414.475	-30.40449	7.208055E-008	0.1074272	8
	8	4	158578.1	5020.434	-2935.176	1	5815.498	-30.31252	6.667476E-008	0.107442	8
	9	4	125953.1	5442.352	-3154.052	1	6290.249	-30.09394	-9.186395E-009	0.1074519	7
	10	5	100078.1	5895.727	-3407.601	1	6809.65	-30.02697	-6.849036E-009	0.1073841	7
	11	5	79453.13	6413.795	-3682.381	1	7395.722	-29.86162	-2.900068E-009	0.1073862	7
	12	5	63140.62	7004.982	-3957.834	1	8045.758	-29.46657	2.280029E-009	0.1073783	7
	13	6	50203.12	7674.488	-4232.894	1	8764.426	-28.8791	4.500193E-009	0.1073618	7
	14	6	39890.62	8416.813	-4438.098	1	9515.22	-27.80222	9.953268E-009	0.107365	7
	15	6	31640.63	9222.144	-4579.809	1	10296.73	-26.40946	9.516323E-009	0.1073606	7
	16	7	25171.88	10046.41	-4642.396	1	11067.16	-24.80143	4.594871E-010	0.1073727	7
	17	7	20015.62	10870.35	-4604.472	1	11805.33	-22.95658	3.676318E-009	0.1073761	7
	18	7	15890.62	11704.89	-4529.246	1	12550.64	-21.1541	2.695241E-009	0.107365	7
	19	8	12609.37	12488.34	-4326.008	1	13216.39	-19.10628	1.356578E-009	0.1073567	6
	20	8	10078.13	13147.8	-4109.558	1	13775.09	-17.35748	-9.746532E-010	0.107389	6
	21	8	8015.625	13742.6	-3865.331	1	14275.85	-15.70951	1.411273E-009	0.1073549	6
	22	9	6328.125	14243.82	-3612.227	1	14694.71	-14.23019	1.702556E-009	0.1073591	6
	23	9	5015.625	14692.37	-3420.455	1	15085.27	-13.1053	-1.600515E-009	0.1073745	6
	24	9	3984.375	15001.14	-3253.966	1	15350	-12.23869	-1.116548E-009	0.1073626	6
	25	10	3170.956	15266.29	-3169.658	1	15591.87	-11.72937	9.884096E-010	0.1073416	6
	26	10	2527.573	15523.12	-3178.616	1	15845.22	-11.57229	-1.087012E-009	0.1073735	6
	27	10	1976.103	15769.55	-3290.215	1	16109.14	-11.78532	6.21481E-010	0.1073437	6
	28	11	1577.524	16015.22	-3499.427	1	16393.09	-12.32576	7.589985E-010	0.1073562	6
	29	11	1265.625	16255.96	-3810.379	1	16696.56	-13.19191	1.422682E-009	0.1073486	6
	30	11	998.264	16547.04	-4270.564	1	17089.25	-14.47146	4.267046E-011	0.1073521	6
	31	12	796.875	16805.21	-4847.901	1	17490.49	-16.09159	8.633937E-010	0.1073426	6
	32	12	627.7902	17117.76	-5632.543	1	18020.63	-18.21362	7.976441E-010	0.107357	6
	33	12	505.5147	17459.29	-6520.26	1	18637.07	-20.4784	8.924571E-010	0.1073494	6
	34	12	397.9953	17917.8	-7738.998	1	19517.68	-23.36032	3.088225E-010	0.1073836	6
	35	13	315.5048	18368.93	-9195.724	1	20542.13	-26.59313	4.107175E-010	0.1073805	6
	36	13	252.4038	19060.5	-10909.15	1	21961.61	-29.78436	3.041362E-010	0.1073772	6
	37	13	198.6229	19882.3	-13145.66	1	23835.15	-33.47164	3.689989E-010	0.1073814	6
	38	14	158.3615	20728.53	-15708.9	1	26008.49	-37.1563	3.758154E-010	0.107379	6
	39	14	125.558	21852.98	-18879.53	1	28878.87	-40.82485	2.652715E-010	0.1073807	6
	40	14	100.4464	23109.59	-22538.34	1	32280.49	-44.28302	4.064098E-010	0.1073759	6
	41	15	79.00281	24844.38	-27271.69	1	36891.58	-47.66663	1.42947E-010	0.107374	6
	42	15	63.3446	26814.16	-32476.93	1	42115.91	-50.45565	3.494792E-010	0.1073726	6
	43	15	49.86702	29505.09	-39202.39	1	49065.04	-53.0336	9.787866E-011	0.1073721	6
	44	16	39.72458	32652.85	-46820.01	1	57081.71	-55.1076	3.314938E-010	0.107376	6
	45	16	31.6723	36584.41	-55782.92	1	66709.47	-56.74172	5.606525E-010	0.1073725	6
	46	17	24.93351	41816.85	-66935.95	1	78924.46	-58.00577	3.429943E-010	0.1073651	6
	47	17	19.86229	48148.2	-79414.91	1	92870.75	-58.77213	1.421867E-009	0.1073727	6
	48	17	15.83615	55904.15	-93715.66	1	109123.3	-59.18268	-1.230005E-009	0.1073592	5
	49	17	12.40079	66207.79	-111432.1	1	129617.1	-59.28319	-2.137658E-010	0.1073663	5
	50	18	9.93114	77757.95	-129859.8	1	151360	-59.0875	-1.716001E-010	0.107365	5
	51	18	7.944915	91511.2	-150408.6	1	176059.8	-58.68295	-1.380536E-009	0.1073632	5
	52	18	6.317385	108391.5	-174475.9	1	205403.4	-58.14978	4.06144E-010	0.1073461	5
	53	19	5.008013	128392.5	-201898	1	239264.3	-57.5466	6.212508E-010	0.1073625	5
	54	20	3.945707	152255.2	-233002.3	1	278337.4	-56.83743	-6.453646E-011	0.1073487	5
	55	21	3.158693	177816.6	-266162.4	1	320095.5	-56.25409	4.031366E-010	0.1073619	5
	56	22	2.504006	207959.7	-304323.3	1	368591.8	-55.65321	7.162514E-011	0.1073578	5
	57	23	1.998082	240619.3	-347020.1	1	422280.2	-55.26306	-9.703351E-011	0.1073182	5
	58	25	1.584686	277812.3	-395358.3	1	483205.7	-54.90487	7.144817E-011	0.1073624	5
	59	27	1.266892	319505.6	-449822.1	1	551746.1	-54.61407	1.570829E-010	0.1073923	5
	60	29	0.999041	367749.9	-517332.7	1	634722.9	-54.59259	1.888719E-010	0.1073869	5
