EXPLAIN
TAG	EISPOT
TITLE	LABEL	Potentiostatic EIS	Test &Identifier
DATE	LABEL	6/10/2021	Date
TIME	LABEL	15:26:07	Time
NOTES	NOTES	1	&Notes...
	
PSTAT	PSTAT	REF600-11020	Potentiostat
VDC	POTEN	0.00000E+000	T	DC &Voltage (V)
FREQINIT	QUANT	1.00000E+006	Initial Fre&q. (Hz)
FREQFINAL	QUANT	1.00000E+000	Final Fre&q. (Hz)
PTSPERDEC	QUANT	1.00000E+001	Points/&decade
VAC	QUANT	2.50000E+001	AC &Voltage (mV rms)
AREA	QUANT	4.00000E-005	&Area (cm^2)
CONDIT	TWOPARAM	F	5.00000E+000	0.00000E+000	Conditionin&g	Time(s)	E(V)
DELAY	TWOPARAM	F	3.00000E+000	0.00000E+000	Init. De&lay	Time(s)	Stab.(mV/s)
SPEED	SELECTOR	0	&Optimize for:
ZGUESS	QUANT	1.00000E+003	E&stimated Z (ohms)
OCVCURVE	TABLE	39
	Pt	T	Vf	Vm	Ach	Over
	#	s	V vs. Ref.	V	V	bits
	0	0.258333	-2.88051E-002	-2.88051E-002	5.64825E-004	...........
	1	0.516667	-2.88051E-002	-2.88028E-002	5.57225E-004	...........
	2	0.775	-2.88050E-002	-2.88092E-002	5.52625E-004	...........
	3	1.03333	-2.88052E-002	-2.88143E-002	5.65458E-004	...........
	4	1.29167	-2.88065E-002	-2.88189E-002	5.53159E-004	...........
	5	1.55	-2.88095E-002	-2.88237E-002	5.58392E-004	...........
	6	1.80833	-2.88137E-002	-2.88316E-002	5.50892E-004	...........
	7	2.06667	-2.88187E-002	-2.88365E-002	5.62725E-004	...........
	8	2.325	-2.88243E-002	-2.88401E-002	5.54725E-004	...........
	9	2.58333	-2.88300E-002	-2.88505E-002	5.57125E-004	...........
	10	2.84167	-2.88359E-002	-2.88593E-002	5.62492E-004	...........
	11	3.1	-2.88425E-002	-2.88689E-002	5.57592E-004	...........
	12	3.35833	-2.88501E-002	-2.88726E-002	5.56325E-004	...........
	13	3.61667	-2.88582E-002	-2.88833E-002	5.55859E-004	...........
	14	3.875	-2.88659E-002	-2.88715E-002	5.52759E-004	...........
	15	4.13333	-2.88718E-002	-2.88759E-002	5.63658E-004	...........
	16	4.39167	-2.88752E-002	-2.88851E-002	5.60325E-004	...........
	17	4.65	-2.88770E-002	-2.88875E-002	5.52792E-004	...........
	18	4.90833	-2.88794E-002	-2.88935E-002	5.62425E-004	...........
	19	5.16667	-2.88832E-002	-2.89009E-002	5.61392E-004	...........
	20	5.425	-2.88881E-002	-2.89099E-002	5.63592E-004	...........
	21	5.68333	-2.88940E-002	-2.89108E-002	5.63925E-004	...........
	22	5.94167	-2.89004E-002	-2.89206E-002	5.65958E-004	...........
	23	6.2	-2.89068E-002	-2.89277E-002	5.58392E-004	...........
	24	6.45833	-2.89132E-002	-2.89355E-002	5.61459E-004	...........
	25	6.71667	-2.89198E-002	-2.89343E-002	5.53825E-004	...........
	26	6.975	-2.89261E-002	-2.89368E-002	5.61559E-004	...........
	27	7.23333	-2.89312E-002	-2.89420E-002	5.63958E-004	...........
	28	7.49167	-2.89351E-002	-2.89515E-002	5.64525E-004	...........
	29	7.75	-2.89389E-002	-2.89548E-002	5.60625E-004	...........
	30	8.00833	-2.89435E-002	-2.89565E-002	5.67992E-004	...........
	31	8.26667	-2.89482E-002	-2.89447E-002	5.68992E-004	...........
	32	8.525	-2.89513E-002	-2.89584E-002	5.65592E-004	...........
	33	8.78333	-2.89528E-002	-2.89632E-002	5.64759E-004	...........
	34	9.04167	-2.89543E-002	-2.89672E-002	5.58525E-004	...........
	35	9.3	-2.89574E-002	-2.89768E-002	5.59459E-004	...........
	36	9.5583	-2.89624E-002	-2.89818E-002	5.65425E-004	...........
	37	9.8167	-2.89684E-002	-2.89874E-002	5.60459E-004	...........
	38	10.075	-2.89747E-002	-2.89895E-002	5.64592E-004	...........
EOC	QUANT	-0.0289747	Open Circuit (V)
PSTATMODEL	IQUANT	4	Pstat Model
PSTATSECTION	LABEL	REF600-11020	Pstat Section
PSTATSERIALNO	LABEL	11020	Pstat Serial Number
CTRLMODE	IQUANT	1	Control Mode
IESTAB	IQUANT	0	I/E Stability
CASPEED	IQUANT	1	Control Amp Speed
CONVENTION	IQUANT	1	Current Convention
ICHRANGE	IQUANT	2	Ich Range
ICHRANGEMODE	TOGGLE	F	Ich Auto Range
ICHOFFSETENABLE	TOGGLE	T	Ich Offset Enable
ICHOFFSET	QUANT	0	Ich Offset (V)
ICHFILTER	IQUANT	3	Ich Filter
VCHRANGE	IQUANT	2	Vch Range
VCHRANGEMODE	TOGGLE	F	Vch Auto Range
VCHOFFSETENABLE	TOGGLE	T	Vch Offset Enable
VCHOFFSET	QUANT	0	Vch Offset (V)
VCHFILTER	IQUANT	3	Vch Filter
ACHRANGE	IQUANT	2	Ach Range
ACHOFFSETENABLE	TOGGLE	F	Ach Offset Enable
ACHOFFSET	QUANT	0	Ach Offset (V)
ACHFILTER	IQUANT	3	Ach Filter
IERANGELOWERLIMIT	IQUANT	1	I/E Range Lower Limit
IERANGEMODE	TOGGLE	F	I/E AutoRange
IERANGE	IQUANT	7	I/E Range
POSFEEDENABLE	TOGGLE	F	Positive Feedback IR Comp
POSFEEDRESISTANCE	QUANT	0	Positive Feedback Resistance (ohm)
ACHSELECT	IQUANT	0	Ach Select
CABLEID	IQUANT	14	Cable ID
DCCALDATE	LABEL	9/1/2020	DC Calibration Date
ACCALDATE	LABEL	9/1/2020	AC Calibration Date
THERMOSELECT	IQUANT	1	Thermo Select
FRAMEWORKVERSION	QUANT	6.33	Framework Version
INSTRUMENTVERSION	LABEL	3.50	Instrument Version
ZCURVE	TABLE
	Pt	Time	Freq	Zreal	Zimag	Zsig	Zmod	Zphz	Idc	Vdc	IERange
	#	s	Hz	ohm	ohm	V	ohm	°	A	V	#
	0	1	1000078	1092.843	-3588.489	1	3751.208	-73.06234	-6.126719E-009	-0.0269952	8
	1	1	794390.6	1397.534	-4366.044	1	4584.261	-72.25056	2.067387E-008	-0.0272584	8
	2	1	630984.4	1823.904	-5286.825	1	5592.597	-70.96606	1.490029E-008	-0.0273829	8
	3	2	501234.4	2402.642	-6368.038	1	6806.217	-69.32865	-1.289131E-008	-0.0274612	8
	4	2	398109.4	3209.959	-7596.452	1	8246.813	-67.09301	3.038493E-008	-0.0275119	8
	5	2	316265.6	4296.106	-8964.91	1	9941.13	-64.39563	-2.625145E-008	-0.02753	8
	6	3	251203.1	5712.583	-10402.37	1	11867.72	-61.22609	1.336888E-007	-0.0275316	8
	7	3	199546.9	7531.527	-11841.34	1	14033.57	-57.54214	2.697095E-008	-0.027538	8
	8	3	158578.1	9754.31	-13167.27	1	16386.69	-53.46894	-2.331141E-008	-0.0275316	8
	9	4	125953.1	12420.71	-14255.26	1	18907.31	-48.93412	3.427089E-009	-0.0275181	7
	10	4	100078.1	15241.45	-14824.27	1	21261.72	-44.20504	5.61028E-010	-0.0275465	7
	11	4	79453.13	18131.47	-15040.84	1	23557.96	-39.67718	5.550965E-010	-0.027555	7
	12	5	63140.62	20932.47	-14927.13	1	25709.68	-35.493	-6.33337E-010	-0.0275638	7
	13	5	50203.12	23398.59	-14386.48	1	27467.52	-31.58502	1.059237E-009	-0.027574	7
	14	5	39890.62	25343.12	-13489.05	1	28709.38	-28.02444	5.5448E-010	-0.0275654	7
	15	6	31640.63	27695.19	-13319.88	1	30731.79	-25.68503	9.232765E-010	-0.0275715	7
	16	6	25171.88	28954.02	-12535.71	1	31551.22	-23.4103	8.226392E-010	-0.027578	7
	17	6	20015.62	30575.25	-12376.21	1	32985.1	-22.03704	-2.445375E-010	-0.027573	7
	18	6	15890.62	31733.04	-12282.39	1	34027.09	-21.15911	3.956165E-011	-0.0275694	7
	19	7	12609.37	32702.57	-12262.13	1	34925.9	-20.554	2.333111E-010	-0.0275804	6
	20	7	10078.13	34096.01	-12926.87	1	36464.26	-20.76329	2.32842E-010	-0.0275752	6
	21	7	8015.625	35167.7	-13784.23	1	37772.64	-21.40305	4.828732E-010	-0.0275691	6
	22	8	6328.125	36313.08	-15065.27	1	39314.15	-22.53218	2.13935E-010	-0.0275827	6
	23	8	5015.625	37599.33	-16719.48	1	41149.12	-23.97352	4.086446E-010	-0.0275774	6
	24	8	3984.375	38992.47	-18814.58	1	43294.36	-25.75816	1.46423E-010	-0.0275698	6
	25	9	3170.956	40937.42	-21452.45	1	46217.75	-27.65591	3.276949E-010	-0.027569	6
	26	9	2527.573	42650.39	-24504.46	1	49188.66	-29.87919	9.001045E-011	-0.0275778	6
	27	9	1976.103	45184.8	-28590.36	1	53470.32	-32.32329	3.625469E-011	-0.027573	6
	28	10	1577.524	47715.11	-33004.24	1	58017.33	-34.67137	1.24233E-010	-0.0275752	6
	29	10	1265.625	50783.86	-38127.72	1	63503.73	-36.89864	1.186059E-010	-0.0275854	6
	30	10	998.264	54195.1	-44652.57	1	70220.8	-39.48588	2.534387E-010	-0.0275804	6
	31	11	796.875	58206.79	-51887.75	1	77976.73	-41.71503	3.960308E-011	-0.0275826	6
	32	11	627.7902	63091.49	-60946.21	1	87721.02	-44.00914	9.758779E-011	-0.0275767	6
	33	11	505.5147	68624.48	-70242.48	1	98200.4	-45.66755	-2.035327E-010	-0.0275788	5
	34	12	397.9953	76414.81	-82677.16	1	112582.1	-47.25417	1.366965E-011	-0.027559	5
	35	12	315.5048	83831.72	-96750.6	1	128017.3	-49.09198	2.540383E-011	-0.02756	5
	36	12	252.4038	92821.11	-112509	1	145856.2	-50.47701	1.844573E-011	-0.0275656	5
	37	13	198.6229	103878.3	-132263.1	1	168179.2	-51.8542	1.084835E-011	-0.0275643	5
	38	13	158.3615	116520.2	-154010.6	1	193122.3	-52.88984	7.837297E-012	-0.0275661	5
	39	13	125.558	131303.3	-179962.1	1	222771	-53.88489	-7.019312E-012	-0.0275642	5
	40	13	100.4464	148209.7	-208986.3	1	256205.7	-54.65635	1.082814E-011	-0.0275657	5
	41	14	79.00281	169399.5	-245329.8	1	298132.4	-55.37503	-1.771445E-011	-0.0275685	5
	42	14	63.3446	191737.4	-284287.3	1	342903	-56.00232	-4.376701E-011	-0.0275707	5
	43	15	49.86702	220799.7	-333417.8	1	399899.9	-56.48622	3.592487E-013	-0.0275754	5
	44	15	39.72458	252484.6	-387924.2	1	462853.8	-56.94147	-4.099012E-011	-0.0275717	5
	45	15	31.6723	290593.3	-450876.7	1	536408.8	-57.19793	-4.232088E-011	-0.0275729	5
	46	16	24.93351	337463	-528203.4	1	626801.5	-57.42597	-5.689291E-011	-0.0275724	5
	47	16	19.86229	390031.1	-614392.6	1	727738	-57.59164	-2.059691E-010	-0.027573	5
	48	16	15.83615	452857.8	-712362.4	1	844121.1	-57.55536	1.396924E-010	-0.0275722	5
	49	16	12.40079	532304.1	-835048.6	1	990280	-57.48441	6.504378E-011	-0.0275726	5
	50	17	9.93114	619829.6	-964051	1	1146117	-57.26131	1.067557E-010	-0.0275714	4
	51	17	7.944915	719275.2	-1110176	1	1322818	-57.06108	1.910054E-010	-0.0275724	4
	52	18	6.317385	840940.8	-1284513	1	1535303	-56.78817	-4.349342E-011	-0.027551	4
	53	18	5.008013	986876	-1484936	1	1782963	-56.39233	-5.988351E-011	-0.0275733	4
	54	19	3.945707	1161141	-1714199	1	2070442	-55.8876	3.418618E-011	-0.0275717	4
	55	20	3.158693	1354139	-1959834	1	2382150	-55.35762	-4.21571E-011	-0.027575	4
	56	21	2.504006	1582941	-2242740	1	2745102	-54.78531	-2.081518E-011	-0.0275851	4
	57	22	1.998082	1843257	-2550189	1	3146595	-54.14088	2.778335E-011	-0.0275435	4
	58	24	1.584686	2137112	-2902957	1	3604775	-53.64008	1.217182E-011	-0.02757	4
	59	26	1.266892	2469422	-3277110	1	4103352	-53.00063	-4.830244E-012	-0.0276082	4
	60	28	0.999041	2867925	-3730640	1	4705599	-52.44876	-1.587058E-011	-0.0276215	4
