EXPLAIN
TAG	EISPOT
TITLE	LABEL	Potentiostatic EIS	Test &Identifier
DATE	LABEL	6/10/2021	Date
TIME	LABEL	15:33:26	Time
NOTES	NOTES	1	&Notes...
	
PSTAT	PSTAT	REF600-11020	Potentiostat
VDC	POTEN	0.00000E+000	T	DC &Voltage (V)
FREQINIT	QUANT	1.00000E+006	Initial Fre&q. (Hz)
FREQFINAL	QUANT	1.00000E+000	Final Fre&q. (Hz)
PTSPERDEC	QUANT	1.00000E+001	Points/&decade
VAC	QUANT	2.50000E+001	AC &Voltage (mV rms)
AREA	QUANT	4.00000E-005	&Area (cm^2)
CONDIT	TWOPARAM	F	5.00000E+000	0.00000E+000	Conditionin&g	Time(s)	E(V)
DELAY	TWOPARAM	F	3.00000E+000	0.00000E+000	Init. De&lay	Time(s)	Stab.(mV/s)
SPEED	SELECTOR	0	&Optimize for:
ZGUESS	QUANT	1.00000E+003	E&stimated Z (ohms)
OCVCURVE	TABLE	39
	Pt	T	Vf	Vm	Ach	Over
	#	s	V vs. Ref.	V	V	bits
	0	0.258333	-1.96792E-003	-1.96792E-003	5.27326E-004	...........
	1	0.516667	-1.96808E-003	-1.97660E-003	5.35159E-004	...........
	2	0.775	-1.96896E-003	-1.97750E-003	5.30292E-004	...........
	3	1.03333	-1.97097E-003	-1.97769E-003	5.28592E-004	...........
	4	1.29167	-1.97371E-003	-1.98375E-003	5.30159E-004	...........
	5	1.55	-1.97687E-003	-2.00050E-003	5.34459E-004	...........
	6	1.80833	-1.98204E-003	-2.04561E-003	5.32126E-004	...........
	7	2.06667	-1.99296E-003	-2.07338E-003	5.28892E-004	...........
	8	2.325	-2.01146E-003	-2.05657E-003	5.29026E-004	...........
	9	2.58333	-2.03295E-003	-2.05925E-003	5.31659E-004	...........
	10	2.84167	-2.04974E-003	-2.06790E-003	5.30992E-004	...........
	11	3.1	-2.05884E-003	-2.06086E-003	5.32492E-004	...........
	12	3.35833	-2.06253E-003	-2.06470E-003	5.28826E-004	...........
	13	3.61667	-2.06375E-003	-2.06809E-003	5.30926E-004	...........
	14	3.875	-2.06454E-003	-2.07678E-003	5.31192E-004	...........
	15	4.13333	-2.06638E-003	-2.07877E-003	5.31459E-004	...........
	16	4.39167	-2.06992E-003	-2.09171E-003	5.29559E-004	...........
	17	4.65	-2.07530E-003	-2.10725E-003	5.30059E-004	...........
	18	4.90833	-2.08259E-003	-2.10159E-003	5.33059E-004	...........
	19	5.16667	-2.09075E-003	-2.10286E-003	5.28192E-004	...........
	20	5.425	-2.09753E-003	-2.10546E-003	5.21993E-004	...........
	21	5.68333	-2.10182E-003	-2.11341E-003	5.23826E-004	...........
	22	5.94167	-2.10480E-003	-2.11969E-003	5.28959E-004	...........
	23	6.2	-2.10827E-003	-2.12393E-003	5.25826E-004	...........
	24	6.45833	-2.11280E-003	-2.12502E-003	5.31992E-004	...........
	25	6.71667	-2.11763E-003	-2.12863E-003	5.25726E-004	...........
	26	6.975	-2.12190E-003	-2.13232E-003	5.31592E-004	...........
	27	7.23333	-2.12549E-003	-2.13611E-003	5.25292E-004	...........
	28	7.49167	-2.12890E-003	-2.14392E-003	5.23892E-004	...........
	29	7.75	-2.13268E-003	-2.14512E-003	5.22759E-004	...........
	30	8.00833	-2.13690E-003	-2.14808E-003	5.21126E-004	...........
	31	8.26667	-2.14113E-003	-2.15390E-003	5.19559E-004	...........
	32	8.525	-2.14516E-003	-2.16015E-003	5.21693E-004	...........
	33	8.78333	-2.14947E-003	-2.17112E-003	5.24259E-004	...........
	34	9.04167	-2.15465E-003	-2.16908E-003	5.23826E-004	...........
	35	9.3	-2.16040E-003	-2.17311E-003	5.18259E-004	...........
	36	9.5583	-2.16588E-003	-2.18902E-003	5.19159E-004	...........
	37	9.8167	-2.17112E-003	-2.18419E-003	5.19326E-004	...........
	38	10.075	-2.17636E-003	-2.18110E-003	5.22826E-004	...........
EOC	QUANT	-0.0021764	Open Circuit (V)
PSTATMODEL	IQUANT	4	Pstat Model
PSTATSECTION	LABEL	REF600-11020	Pstat Section
PSTATSERIALNO	LABEL	11020	Pstat Serial Number
CTRLMODE	IQUANT	1	Control Mode
IESTAB	IQUANT	0	I/E Stability
CASPEED	IQUANT	1	Control Amp Speed
CONVENTION	IQUANT	1	Current Convention
ICHRANGE	IQUANT	2	Ich Range
ICHRANGEMODE	TOGGLE	F	Ich Auto Range
ICHOFFSETENABLE	TOGGLE	T	Ich Offset Enable
ICHOFFSET	QUANT	0	Ich Offset (V)
ICHFILTER	IQUANT	3	Ich Filter
VCHRANGE	IQUANT	2	Vch Range
VCHRANGEMODE	TOGGLE	F	Vch Auto Range
VCHOFFSETENABLE	TOGGLE	T	Vch Offset Enable
VCHOFFSET	QUANT	0	Vch Offset (V)
VCHFILTER	IQUANT	3	Vch Filter
ACHRANGE	IQUANT	2	Ach Range
ACHOFFSETENABLE	TOGGLE	F	Ach Offset Enable
ACHOFFSET	QUANT	0	Ach Offset (V)
ACHFILTER	IQUANT	3	Ach Filter
IERANGELOWERLIMIT	IQUANT	1	I/E Range Lower Limit
IERANGEMODE	TOGGLE	F	I/E AutoRange
IERANGE	IQUANT	6	I/E Range
POSFEEDENABLE	TOGGLE	F	Positive Feedback IR Comp
POSFEEDRESISTANCE	QUANT	0	Positive Feedback Resistance (ohm)
ACHSELECT	IQUANT	0	Ach Select
CABLEID	IQUANT	14	Cable ID
DCCALDATE	LABEL	9/1/2020	DC Calibration Date
ACCALDATE	LABEL	9/1/2020	AC Calibration Date
THERMOSELECT	IQUANT	1	Thermo Select
FRAMEWORKVERSION	QUANT	6.33	Framework Version
INSTRUMENTVERSION	LABEL	3.50	Instrument Version
ZCURVE	TABLE
	Pt	Time	Freq	Zreal	Zimag	Zsig	Zmod	Zphz	Idc	Vdc	IERange
	#	s	Hz	ohm	ohm	V	ohm	°	A	V	#
	0	1	1000078	1199.141	-3000.375	1	3231.128	-68.21519	4.336677E-009	-0.000308	8
	1	2	794390.6	1500.543	-3591.419	1	3892.29	-67.32417	1.092206E-007	-0.0005943	8
	2	2	630984.4	1904.428	-4279.227	1	4683.869	-66.00902	8.073078E-008	-0.0006995	8
	3	2	501234.4	2437.948	-5052.616	1	5610.038	-64.24213	-2.357947E-008	-0.0007605	8
	4	3	398109.4	3139.419	-5902.832	1	6685.759	-61.99374	3.124969E-008	-0.0007749	8
	5	3	316265.6	4018.446	-6820.415	1	7916.184	-59.4943	5.376748E-008	-0.0008166	8
	6	3	251203.1	5072.662	-7765.356	1	9275.379	-56.84572	3.822471E-008	-0.0008176	8
	7	4	199546.9	6357.517	-8686.355	1	10764.33	-53.79972	4.106182E-008	-0.0008088	8
	8	4	158578.1	7850.788	-9528.55	1	12346.18	-50.51413	-8.953831E-009	-0.0008011	8
	9	4	125953.1	9602.3	-10205.49	1	14012.72	-46.74426	8.829693E-009	-0.0008282	7
	10	5	100078.1	11375.53	-10781.7	1	15673.15	-43.46479	-6.552159E-010	-0.0008348	7
	11	5	79453.13	13182.92	-11179.38	1	17284.9	-40.29861	-1.171688E-009	-0.0008277	7
	12	5	63140.62	15037.11	-11631.93	1	19010.96	-37.72367	-8.849338E-010	-0.0008333	7
	13	6	50203.12	16859.68	-11901.12	1	20636.99	-35.21798	-6.936673E-010	-0.0008365	7
	14	6	39890.62	18630.65	-12049.65	1	22187.73	-32.89338	4.160126E-010	-0.0008436	7
	15	6	31640.63	20376.31	-12271.02	1	23785.96	-31.05718	-1.267334E-009	-0.0008364	7
	16	7	25171.88	22177.04	-12619	1	25515.88	-29.64039	-2.942256E-010	-0.0008503	7
	17	7	20015.62	23962.13	-13003.34	1	27262.99	-28.48701	-4.733207E-010	-0.0008359	7
	18	7	15890.62	25652.04	-13286.39	1	28888.67	-27.38175	3.652366E-010	-0.0008418	7
	19	7	12609.37	27557.46	-13655.25	1	30755.16	-26.3593	1.273582E-010	-0.0008419	6
	20	8	10078.13	29251.2	-14149.36	1	32493.64	-25.81394	1.1689E-010	-0.00085	6
	21	8	8015.625	31231.51	-14949.61	1	34625.11	-25.57908	3.09102E-010	-0.0008382	6
	22	8	6328.125	33032.34	-15662.25	1	36557.37	-25.36792	-7.194537E-012	-0.0008475	6
	23	9	5015.625	35023.2	-16640.05	1	38775.2	-25.4131	1.311096E-010	-0.0008398	6
	24	9	3984.375	37133.12	-17826.71	1	41190.54	-25.64454	1.231393E-010	-0.0008391	6
	25	9	3170.956	39494.71	-19287.4	1	43952.66	-26.02876	2.805051E-010	-0.0008501	6
	26	10	2527.573	41553.89	-20655.37	1	46404.42	-26.43078	-3.141293E-011	-0.0008548	6
	27	10	1976.103	44502.91	-22732.78	1	49972.88	-27.05865	3.890871E-011	-0.0008449	6
	28	10	1577.524	47223.4	-24764.6	1	53322.93	-27.67313	2.814391E-010	-0.0008504	6
	29	11	1265.625	49848.75	-26898.4	1	56642.93	-28.35131	-5.641504E-011	-0.0008517	6
	30	11	998.264	53650.12	-29789.02	1	61365.47	-29.04106	7.948706E-011	-0.0008486	6
	31	11	796.875	56779.33	-32556.27	1	65450.77	-29.8292	3.624262E-013	-0.0008581	6
	32	12	627.7902	60532.71	-36135	1	70497.85	-30.83509	2.087449E-010	-0.0008437	6
	33	12	505.5147	64629.07	-39810.82	1	75906.64	-31.63262	4.507258E-011	-0.0008619	6
	34	12	397.9953	69146.22	-44565.04	1	82263.25	-32.80195	9.335437E-011	-0.0008315	6
	35	13	315.5048	73764.5	-49957.47	1	89089.56	-34.10807	4.114362E-011	-0.000833	6
	36	13	252.4038	78479.85	-55871.89	1	96336.7	-35.44807	-3.068431E-011	-0.0008424	5
	37	13	198.6229	83814.35	-63792.01	1	105329.3	-37.27515	-3.785133E-011	-0.0008405	5
	38	14	158.3615	89302.32	-72834.82	1	115238.1	-39.20063	-3.25729E-011	-0.0008426	5
	39	14	125.558	95324.4	-83990.34	1	127047.7	-41.38327	-9.331873E-012	-0.0008426	5
	40	14	100.4464	101467.7	-96980.7	1	140360.1	-43.70472	-3.453023E-011	-0.0008436	5
	41	15	79.00281	108760.4	-113910.4	1	157494.1	-46.3249	-4.797529E-011	-0.0008465	5
	42	15	63.3446	116249.4	-132788.6	1	176484.4	-48.79956	-4.792325E-011	-0.0008449	5
	43	15	49.86702	126047	-158310.6	1	202361.3	-51.47317	-5.01506E-011	-0.0008467	5
	44	16	39.72458	136233.9	-187626.1	1	231869	-54.01688	-5.198658E-011	-0.0008439	5
	45	16	31.6723	148578.5	-223227.2	1	268152.9	-56.35254	-6.078147E-011	-0.0008433	5
	46	16	24.93351	163955.9	-268888	1	314932.2	-58.62703	-1.064885E-010	-0.0008442	5
	47	17	19.86229	181491.6	-321659.5	1	369329.2	-60.56677	-2.574625E-010	-0.000849	5
	48	17	15.83615	204162	-385460.3	1	436190.1	-62.09172	9.684726E-011	-0.000845	5
	49	17	12.40079	233418.4	-467829.2	1	522827.2	-63.48359	-2.193316E-011	-0.0008437	5
	50	17	9.93114	267554.5	-558319.3	1	619117	-64.39561	1.653178E-011	-0.0008469	5
	51	18	7.944915	308049.4	-665493.7	1	733332.3	-65.16113	1.642497E-010	-0.0008512	5
	52	18	6.317385	359716.9	-795310.4	1	872877.3	-65.66288	-6.815444E-011	-0.000829	5
	53	19	5.008013	428743.3	-956082	1	1047814	-65.84674	-5.384998E-011	-0.0008427	4
	54	20	3.945707	512677.8	-1146662	1	1256054	-65.91036	3.932472E-011	-0.0008392	4
	55	21	3.158693	612388.1	-1358181	1	1489857	-65.72993	-4.144482E-011	-0.0008416	4
	56	22	2.504006	741038.9	-1614779	1	1776697	-65.34912	-1.378527E-011	-0.0008495	4
	57	23	1.998082	893326.9	-1904716	1	2103800	-64.87305	2.000283E-011	-0.0008102	4
	58	25	1.584686	1086555	-2244963	1	2494085	-64.17316	-1.084557E-012	-0.000846	4
	59	27	1.266892	1321292	-2624943	1	2938731	-63.28112	-9.508136E-012	-0.0008819	4
	60	29	0.999041	1623785	-3089869	1	3490554	-62.27722	-1.326543E-011	-0.0008934	4
