EXPLAIN
TAG	EISPOT
TITLE	LABEL	Potentiostatic EIS	Test &Identifier
DATE	LABEL	1/7/2021	Date
TIME	LABEL	15:29:33	Time
NOTES	NOTES	1	&Notes...
	
PSTAT	PSTAT	REF600-11020	Potentiostat
VDC	POTEN	0.00000E+000	T	DC &Voltage (V)
FREQINIT	QUANT	1.00000E+006	Initial Fre&q. (Hz)
FREQFINAL	QUANT	1.00000E+000	Final Fre&q. (Hz)
PTSPERDEC	QUANT	1.00000E+001	Points/&decade
VAC	QUANT	2.50000E+001	AC &Voltage (mV rms)
AREA	QUANT	4.00000E-005	&Area (cm^2)
CONDIT	TWOPARAM	F	5.00000E+000	0.00000E+000	Conditionin&g	Time(s)	E(V)
DELAY	TWOPARAM	F	3.00000E+000	0.00000E+000	Init. De&lay	Time(s)	Stab.(mV/s)
SPEED	SELECTOR	0	&Optimize for:
ZGUESS	QUANT	1.00000E+003	E&stimated Z (ohms)
OCVCURVE	TABLE	39
	Pt	T	Vf	Vm	Ach	Over
	#	s	V vs. Ref.	V	V	bits
	0	0.258333	-1.67097E-004	-1.67097E-004	5.25959E-004	...........
	1	0.516667	-1.70127E-004	-3.25689E-004	5.18693E-004	...........
	2	0.775	-1.88583E-004	-4.68291E-004	5.22759E-004	...........
	3	1.03333	-2.40636E-004	-6.22498E-004	5.20959E-004	...........
	4	1.29167	-3.34196E-004	-7.66970E-004	5.24992E-004	...........
	5	1.55	-4.60204E-004	-9.03402E-004	5.16059E-004	...........
	6	1.80833	-6.02164E-004	-1.03513E-003	5.20792E-004	...........
	7	2.06667	-7.46521E-004	-1.15432E-003	5.24926E-004	...........
	8	2.325	-8.85784E-004	-1.26975E-003	5.22893E-004	...........
	9	2.58333	-1.01714E-003	-1.37741E-003	5.21693E-004	...........
	10	2.84167	-1.14049E-003	-1.49064E-003	5.24092E-004	...........
	11	3.1	-1.25762E-003	-1.60925E-003	5.24126E-004	...........
	12	3.35833	-1.37158E-003	-1.72332E-003	5.22959E-004	...........
	13	3.61667	-1.48495E-003	-1.82915E-003	5.20326E-004	...........
	14	3.875	-1.59807E-003	-1.93109E-003	5.19626E-004	...........
	15	4.13333	-1.70926E-003	-2.02774E-003	5.26026E-004	...........
	16	4.39167	-1.81669E-003	-2.12336E-003	5.19092E-004	...........
	17	4.65	-1.91968E-003	-2.21663E-003	5.15759E-004	...........
	18	4.90833	-2.01886E-003	-2.31677E-003	5.21293E-004	...........
	19	5.16667	-2.11574E-003	-2.41192E-003	5.24926E-004	...........
	20	5.425	-2.21184E-003	-2.50522E-003	5.17426E-004	...........
	21	5.68333	-2.30774E-003	-2.59989E-003	5.23959E-004	...........
	22	5.94167	-2.40316E-003	-2.69192E-003	5.22526E-004	...........
	23	6.2	-2.49767E-003	-2.77862E-003	5.21726E-004	...........
	24	6.45833	-2.59073E-003	-2.86314E-003	5.24959E-004	...........
	25	6.71667	-2.68161E-003	-2.94840E-003	5.26926E-004	...........
	26	6.975	-2.77000E-003	-3.03152E-003	5.19592E-004	...........
	27	7.23333	-2.85608E-003	-3.10453E-003	5.21826E-004	...........
	28	7.49167	-2.93960E-003	-3.17414E-003	5.28392E-004	...........
	29	7.75	-3.01977E-003	-3.25184E-003	5.22459E-004	...........
	30	8.00833	-3.09679E-003	-3.33486E-003	5.26492E-004	...........
	31	8.26667	-3.17283E-003	-3.42428E-003	5.24359E-004	...........
	32	8.525	-3.25099E-003	-3.51927E-003	5.16626E-004	...........
	33	8.78333	-3.33305E-003	-3.58854E-003	5.25759E-004	...........
	34	9.04167	-3.41769E-003	-3.66488E-003	5.24426E-004	...........
	35	9.3	-3.50088E-003	-3.71567E-003	5.23826E-004	...........
	36	9.5583	-3.57884E-003	-3.79308E-003	5.21059E-004	...........
	37	9.8167	-3.65123E-003	-3.88217E-003	5.20126E-004	...........
	38	10.075	-3.72220E-003	-3.96990E-003	5.16626E-004	...........
EOC	QUANT	-0.0037222	Open Circuit (V)
PSTATMODEL	IQUANT	4	Pstat Model
PSTATSECTION	LABEL	REF600-11020	Pstat Section
PSTATSERIALNO	LABEL	11020	Pstat Serial Number
CTRLMODE	IQUANT	1	Control Mode
IESTAB	IQUANT	0	I/E Stability
CASPEED	IQUANT	1	Control Amp Speed
CONVENTION	IQUANT	1	Current Convention
ICHRANGE	IQUANT	2	Ich Range
ICHRANGEMODE	TOGGLE	F	Ich Auto Range
ICHOFFSETENABLE	TOGGLE	T	Ich Offset Enable
ICHOFFSET	QUANT	0	Ich Offset (V)
ICHFILTER	IQUANT	3	Ich Filter
VCHRANGE	IQUANT	2	Vch Range
VCHRANGEMODE	TOGGLE	F	Vch Auto Range
VCHOFFSETENABLE	TOGGLE	T	Vch Offset Enable
VCHOFFSET	QUANT	0	Vch Offset (V)
VCHFILTER	IQUANT	3	Vch Filter
ACHRANGE	IQUANT	2	Ach Range
ACHOFFSETENABLE	TOGGLE	F	Ach Offset Enable
ACHOFFSET	QUANT	0	Ach Offset (V)
ACHFILTER	IQUANT	3	Ach Filter
IERANGELOWERLIMIT	IQUANT	1	I/E Range Lower Limit
IERANGEMODE	TOGGLE	F	I/E AutoRange
IERANGE	IQUANT	6	I/E Range
POSFEEDENABLE	TOGGLE	F	Positive Feedback IR Comp
POSFEEDRESISTANCE	QUANT	0	Positive Feedback Resistance (ohm)
ACHSELECT	IQUANT	0	Ach Select
CABLEID	IQUANT	14	Cable ID
DCCALDATE	LABEL	9/1/2020	DC Calibration Date
ACCALDATE	LABEL	9/1/2020	AC Calibration Date
THERMOSELECT	IQUANT	1	Thermo Select
FRAMEWORKVERSION	QUANT	6.33	Framework Version
INSTRUMENTVERSION	LABEL	3.50	Instrument Version
ZCURVE	TABLE
	Pt	Time	Freq	Zreal	Zimag	Zsig	Zmod	Zphz	Idc	Vdc	IERange
	#	s	Hz	ohm	ohm	V	ohm	°	A	V	#
	0	1	1000078	1896.928	-2573.786	1	3197.297	-53.6091	1.72185E-007	-0.0018155	8
	1	1	794390.6	2291.993	-2852.372	1	3659.134	-51.21675	2.62157E-008	-0.0020233	8
	2	1	630984.4	2714.485	-3118.619	1	4134.515	-48.96328	8.102442E-008	-0.0021389	8
	3	2	501234.4	3159.11	-3380.106	1	4626.563	-46.9356	5.411095E-008	-0.0022408	8
	4	2	398109.4	3618.84	-3649.805	1	5139.754	-45.24408	7.867546E-008	-0.002277	8
	5	2	316265.6	4080.12	-3946.619	1	5676.546	-44.04715	1.50304E-007	-0.0023412	8
	6	3	251203.1	4550.369	-4293.189	1	6255.983	-43.33425	6.997904E-008	-0.0022644	8
	7	3	199546.9	5040.451	-4719.203	1	6904.855	-43.11474	5.243769E-008	-0.0022821	8
	8	3	158578.1	5553.301	-5218.746	1	7620.66	-43.2211	8.047204E-008	-0.0022696	8
	9	4	125953.1	6149.379	-5820.385	1	8467.098	-43.4256	1.470028E-008	-0.0022903	7
	10	4	100078.1	6797.115	-6556.664	1	9444.078	-43.96843	1.215154E-008	-0.002327	7
	11	4	79453.13	7550.947	-7453.893	1	10610.25	-44.62941	-4.509652E-009	-0.0023277	7
	12	5	63140.62	8432.732	-8490.367	1	11966.51	-45.19513	1.211606E-008	-0.00234	7
	13	5	50203.12	9516.16	-9672.7	1	13569.02	-45.46741	1.244047E-008	-0.0023413	7
	14	5	39890.62	10851.58	-10997.45	1	15449.94	-45.38249	8.975785E-009	-0.002332	7
	15	6	31640.63	12504.36	-12467.98	1	17658.13	-44.91654	1.277677E-008	-0.0023442	7
	16	6	25171.88	14529.33	-13930.82	1	20128.81	-43.79527	1.010656E-008	-0.0023484	7
	17	6	20015.62	16952.65	-15300.82	1	22836.54	-42.06822	7.046293E-009	-0.0023415	7
	18	6	15890.62	19798.63	-16505.46	1	25776.27	-39.81684	1.755266E-009	-0.0023343	7
	19	7	12609.37	23030.68	-17467.57	1	28905.51	-37.17842	1.081858E-009	-0.0023597	6
	20	7	10078.13	26348.24	-18043.82	1	31934.45	-34.40416	9.740302E-010	-0.0023596	6
	21	7	8015.625	29728.95	-17992.65	1	34749.75	-31.1833	-1.009814E-009	-0.0023314	6
	22	8	6328.125	33080.34	-17599.71	1	37470.77	-28.01428	-5.127211E-010	-0.0023377	6
	23	8	5015.625	35956.64	-16780.58	1	39679.56	-25.01796	1.983064E-009	-0.0023657	6
	24	8	3984.375	38539.15	-15981.09	1	41721.23	-22.5224	2.156682E-009	-0.0023562	6
	25	9	3170.956	40682.49	-15166.56	1	43417.62	-20.44561	1.848687E-010	-0.0023339	6
	26	9	2527.573	42405.21	-14462.79	1	44803.73	-18.83253	1.351578E-009	-0.0023765	6
	27	9	1976.103	44065.48	-13987.05	1	46232.07	-17.61022	6.599276E-010	-0.0023416	6
	28	10	1577.524	45413.98	-13873.16	1	47485.73	-16.98697	1.3497E-009	-0.0023732	6
	29	10	1265.625	46611.22	-14044.45	1	48681.13	-16.76811	3.669208E-010	-0.0023628	6
	30	10	998.264	47925.96	-14582.52	1	50095.39	-16.92352	1.609545E-009	-0.002353	6
	31	11	796.875	49420.54	-15486.91	1	51790.29	-17.39942	2.074951E-009	-0.0023761	6
	32	11	627.7902	50926.9	-16802.13	1	53627.05	-18.25909	6.385857E-010	-0.0023691	6
	33	11	505.5147	52395.45	-18341.85	1	55513.13	-19.2934	-1.451277E-009	-0.0023369	6
	34	12	397.9953	54291.62	-20497.41	1	58032.1	-20.68367	6.392593E-010	-0.0023338	6
	35	12	315.5048	56343.38	-23069.74	1	60883.41	-22.2666	5.423018E-010	-0.002331	6
	36	12	252.4038	58470.52	-26028.61	1	64002.27	-23.99661	5.906061E-010	-0.0023377	6
	37	13	198.6229	61299.91	-29828.2	1	68171.85	-25.9473	5.790435E-010	-0.0023343	6
	38	13	158.3615	64031.74	-34076.75	1	72534.74	-28.02125	6.647269E-010	-0.0023385	6
	39	13	125.558	67354.13	-39238.98	1	77950.48	-30.2241	6.919902E-010	-0.0023407	6
	40	14	100.4464	71056.48	-45060.43	1	84139.57	-32.38081	6.108808E-010	-0.0023406	6
	41	14	79.00281	75713.07	-52446.64	1	92103.85	-34.71045	6.332499E-010	-0.0023443	6
	42	14	63.3446	80357.85	-60364.95	1	100505.3	-36.91394	4.012432E-010	-0.0023531	5
	43	15	49.86702	86521.64	-70540.34	1	111633	-39.19006	2.246976E-010	-0.0023508	5
	44	15	39.72458	93335.2	-81901.1	1	124174.3	-41.26677	1.303997E-010	-0.00235	5
	45	15	31.6723	101375.2	-95151.3	1	139034.9	-43.18608	3.695472E-010	-0.0023511	5
	46	16	24.93351	111390.7	-111506.4	1	157612.1	-45.02974	-2.99853E-011	-0.002357	5
	47	16	19.86229	122914.9	-129543.8	1	178576.7	-46.50409	-7.870619E-011	-0.0023535	5
	48	16	15.83615	136618.8	-150466.7	1	203236.1	-47.76159	1.727091E-010	-0.0023514	5
	49	16	12.40079	154449.9	-176283.6	1	234373	-48.77696	-6.023194E-010	-0.0023454	5
	50	17	9.93114	173845.8	-203331.7	1	267518.5	-49.47001	-5.012218E-010	-0.0023532	5
	51	17	7.944915	197728.6	-233707.3	1	306130.2	-49.76703	8.135146E-010	-0.0023545	5
	52	18	6.317385	227291.1	-268755.2	1	351980.9	-49.77819	1.502652E-010	-0.0023426	5
	53	18	5.008013	263410	-307731.4	1	405072.2	-49.43734	-1.586571E-010	-0.0023608	5
	54	19	3.945707	308539.3	-349766.4	1	466404.4	-48.58353	2.159994E-010	-0.0023528	5
	55	20	3.158693	356633.6	-391433	1	529535	-47.66343	2.381999E-011	-0.002369	5
	56	21	2.504006	414269.6	-434540.7	1	600370.6	-46.36806	4.624918E-010	-0.0023678	5
	57	22	1.998082	474350	-478183	1	673548	-45.23056	5.729005E-010	-0.0023477	5
	58	24	1.584686	541188.6	-521455.7	1	751532.6	-43.93616	3.733594E-010	-0.0024003	5
	59	26	1.266892	609678.2	-567580.7	1	832979.8	-42.95204	3.139006E-010	-0.002411	5
	60	29	0.999041	683301.9	-621618.3	1	923748.3	-42.29364	3.25331E-010	-0.0023995	5
