EXPLAIN
TAG	EISPOT
TITLE	LABEL	Potentiostatic EIS	Test &Identifier
DATE	LABEL	6/10/2021	Date
TIME	LABEL	15:41:39	Time
NOTES	NOTES	1	&Notes...
	
PSTAT	PSTAT	REF600-11020	Potentiostat
VDC	POTEN	0.00000E+000	T	DC &Voltage (V)
FREQINIT	QUANT	1.00000E+006	Initial Fre&q. (Hz)
FREQFINAL	QUANT	1.00000E+000	Final Fre&q. (Hz)
PTSPERDEC	QUANT	1.00000E+001	Points/&decade
VAC	QUANT	2.50000E+001	AC &Voltage (mV rms)
AREA	QUANT	4.00000E-005	&Area (cm^2)
CONDIT	TWOPARAM	F	5.00000E+000	0.00000E+000	Conditionin&g	Time(s)	E(V)
DELAY	TWOPARAM	F	3.00000E+000	0.00000E+000	Init. De&lay	Time(s)	Stab.(mV/s)
SPEED	SELECTOR	0	&Optimize for:
ZGUESS	QUANT	1.00000E+003	E&stimated Z (ohms)
OCVCURVE	TABLE	39
	Pt	T	Vf	Vm	Ach	Over
	#	s	V vs. Ref.	V	V	bits
	0	0.258333	9.61140E-003	9.61140E-003	5.29359E-004	...........
	1	0.516667	9.60953E-003	9.51349E-003	5.26392E-004	...........
	2	0.775	9.59712E-003	9.37235E-003	5.25859E-004	...........
	3	1.03333	9.55772E-003	9.17274E-003	5.31792E-004	...........
	4	1.29167	9.47732E-003	9.05312E-003	5.31726E-004	...........
	5	1.55	9.36176E-003	9.12702E-003	5.27992E-004	...........
	6	1.80833	9.23955E-003	8.90659E-003	5.31792E-004	...........
	7	2.06667	9.12843E-003	8.58176E-003	5.29859E-004	...........
	8	2.325	9.00670E-003	8.39291E-003	5.30592E-004	...........
	9	2.58333	8.85169E-003	8.58973E-003	5.38192E-004	...........
	10	2.84167	8.69479E-003	8.64527E-003	5.31126E-004	...........
	11	3.1	8.59480E-003	8.58132E-003	5.34759E-004	...........
	12	3.35833	8.56498E-003	8.51782E-003	5.29392E-004	...........
	13	3.61667	8.56554E-003	8.48452E-003	5.35759E-004	...........
	14	3.875	8.55669E-003	8.42884E-003	5.38759E-004	...........
	15	4.13333	8.52836E-003	8.41928E-003	5.37592E-004	...........
	16	4.39167	8.48960E-003	8.38494E-003	5.35426E-004	...........
	17	4.65	8.45144E-003	8.37130E-003	5.31792E-004	...........
	18	4.90833	8.41980E-003	8.37872E-003	5.26526E-004	...........
	19	5.16667	8.39708E-003	8.38511E-003	5.39226E-004	...........
	20	5.425	8.38662E-003	8.50246E-003	5.42759E-004	...........
	21	5.68333	8.39020E-003	8.29120E-003	5.35959E-004	...........
	22	5.94167	8.39837E-003	8.41960E-003	5.37092E-004	...........
	23	6.2	8.39226E-003	8.06235E-003	5.32292E-004	...........
	24	6.45833	8.31238E-003	5.88179E-003	5.34826E-004	...........
	25	6.71667	7.99405E-003	4.48862E-003	5.30359E-004	...........
	26	6.975	7.34268E-003	7.55460E-003	5.28892E-004	...........
	27	7.23333	6.66065E-003	7.53374E-003	5.31226E-004	...........
	28	7.49167	6.41524E-003	7.28014E-003	5.31159E-004	...........
	29	7.75	6.64587E-003	7.28842E-003	5.35226E-004	...........
	30	8.00833	7.00313E-003	7.28881E-003	5.32126E-004	...........
	31	8.26667	7.23140E-003	7.30487E-003	5.32592E-004	...........
	32	8.525	7.31560E-003	7.41132E-003	5.26292E-004	...........
	33	8.78333	7.33693E-003	7.49587E-003	5.27026E-004	...........
	34	9.04167	7.36803E-003	7.92302E-003	5.32692E-004	...........
	35	9.3	7.45049E-003	7.85168E-003	5.28859E-004	...........
	36	9.5583	7.59480E-003	8.49961E-003	5.22093E-004	...........
	37	9.8167	7.77493E-003	7.52052E-003	5.23892E-004	...........
	38	10.075	7.91135E-003	7.51138E-003	5.23826E-004	...........
EOC	QUANT	0.0079114	Open Circuit (V)
PSTATMODEL	IQUANT	4	Pstat Model
PSTATSECTION	LABEL	REF600-11020	Pstat Section
PSTATSERIALNO	LABEL	11020	Pstat Serial Number
CTRLMODE	IQUANT	1	Control Mode
IESTAB	IQUANT	0	I/E Stability
CASPEED	IQUANT	1	Control Amp Speed
CONVENTION	IQUANT	1	Current Convention
ICHRANGE	IQUANT	2	Ich Range
ICHRANGEMODE	TOGGLE	F	Ich Auto Range
ICHOFFSETENABLE	TOGGLE	T	Ich Offset Enable
ICHOFFSET	QUANT	0	Ich Offset (V)
ICHFILTER	IQUANT	3	Ich Filter
VCHRANGE	IQUANT	2	Vch Range
VCHRANGEMODE	TOGGLE	F	Vch Auto Range
VCHOFFSETENABLE	TOGGLE	T	Vch Offset Enable
VCHOFFSET	QUANT	0	Vch Offset (V)
VCHFILTER	IQUANT	3	Vch Filter
ACHRANGE	IQUANT	2	Ach Range
ACHOFFSETENABLE	TOGGLE	F	Ach Offset Enable
ACHOFFSET	QUANT	0	Ach Offset (V)
ACHFILTER	IQUANT	3	Ach Filter
IERANGELOWERLIMIT	IQUANT	1	I/E Range Lower Limit
IERANGEMODE	TOGGLE	F	I/E AutoRange
IERANGE	IQUANT	7	I/E Range
POSFEEDENABLE	TOGGLE	F	Positive Feedback IR Comp
POSFEEDRESISTANCE	QUANT	0	Positive Feedback Resistance (ohm)
ACHSELECT	IQUANT	0	Ach Select
CABLEID	IQUANT	14	Cable ID
DCCALDATE	LABEL	9/1/2020	DC Calibration Date
ACCALDATE	LABEL	9/1/2020	AC Calibration Date
THERMOSELECT	IQUANT	1	Thermo Select
FRAMEWORKVERSION	QUANT	6.33	Framework Version
INSTRUMENTVERSION	LABEL	3.50	Instrument Version
ZCURVE	TABLE
	Pt	Time	Freq	Zreal	Zimag	Zsig	Zmod	Zphz	Idc	Vdc	IERange
	#	s	Hz	ohm	ohm	V	ohm	°	A	V	#
	0	1	1000078	1578.835	-2839.063	1	3248.538	-60.92106	3.671238E-008	0.0100513	8
	1	1	794390.6	1887.183	-3275.308	1	3780.093	-60.05011	4.602903E-008	0.0097506	8
	2	2	630984.4	2242.262	-3770.426	1	4386.782	-59.26017	1.633617E-007	0.0096169	8
	3	2	501234.4	2635.005	-4336.623	1	5074.401	-58.71643	2.240922E-008	0.0095179	8
	4	2	398109.4	3081.472	-4970.709	1	5848.369	-58.20415	4.801919E-008	0.0094821	8
	5	3	316265.6	3564.126	-5705.388	1	6727.143	-58.00719	3.879963E-008	0.0094673	8
	6	3	251203.1	4098.549	-6556.068	1	7731.762	-57.98829	4.87892E-008	0.0094344	8
	7	3	199546.9	4642.004	-7558.071	1	8869.76	-58.44265	2.523019E-008	0.0094601	8
	8	4	158578.1	5244.794	-8748.32	1	10200.05	-59.05647	3.638256E-008	0.0094492	8
	9	4	125953.1	5933.624	-10205.06	1	11804.71	-59.82459	4.695424E-010	0.0094468	7
	10	4	100078.1	6626.232	-11918.29	1	13636.44	-60.92717	1.265513E-009	0.0094288	7
	11	5	79453.13	7352.784	-14042.87	1	15851.36	-62.36364	6.235548E-010	0.00942	7
	12	5	63140.62	8101.298	-16671.68	1	18535.8	-64.08341	1.96076E-009	0.0094167	7
	13	5	50203.12	8917.438	-19871.74	1	21780.88	-65.83185	1.952625E-009	0.0094009	7
	14	6	39890.62	9776.79	-23831.02	1	25758.55	-67.69389	9.326555E-010	0.009412	7
	15	6	31640.63	10669.02	-28867.06	1	30775.56	-69.71612	2.053118E-009	0.0094047	7
	16	6	25171.88	11639.84	-35000.67	1	36885.4	-71.60491	2.010611E-009	0.0094087	7
	17	7	20015.62	12904.35	-42604.15	1	44515.57	-73.14899	9.793668E-010	0.0094058	7
	18	7	15890.62	14138.99	-52221.24	1	54101.47	-74.85029	1.514125E-009	0.0094059	7
	19	7	12609.37	15800.59	-64209.28	1	66124.81	-76.17537	5.828841E-010	0.0093997	6
	20	8	10078.13	17519.14	-78594.35	1	80523.24	-77.43387	4.255435E-010	0.0094098	6
	21	8	8015.625	19615.3	-96830.9	1	98797.7	-78.5484	4.700189E-010	0.0094102	6
	22	8	6328.125	22077.62	-120244.1	1	122254.1	-79.59599	5.446719E-010	0.0094065	6
	23	9	5015.625	25208.59	-148901.7	1	151020.5	-80.39112	5.133413E-010	0.0093946	6
	24	9	3984.375	29069.74	-184072.6	1	186353.9	-81.02567	3.346934E-010	0.0093956	6
	25	9	3170.956	33292.32	-227824.9	1	230244.6	-81.68615	4.033583E-010	0.0093989	6
	26	9	2527.573	37884.4	-281603.3	1	284140.1	-82.33794	5.430636E-010	0.0094048	6
	27	10	1976.103	44698.21	-354024.2	1	356834.8	-82.80405	4.780399E-010	0.0094032	6
	28	10	1577.524	53449.21	-437814.6	1	441065.1	-83.03967	3.753088E-010	0.0094043	6
	29	10	1265.625	67240.49	-537344.4	1	541535.2	-82.86738	5.626039E-011	0.0093969	5
	30	11	998.264	80178.81	-672108.1	1	676873.7	-83.19707	4.213189E-011	0.0093964	5
	31	11	796.875	96161.6	-830947.7	1	836493.3	-83.3988	3.708647E-011	0.0093911	5
	32	11	627.7902	116815.8	-1041053	1	1047586	-83.59766	5.266801E-011	0.0093978	5
	33	12	505.5147	144968.4	-1276946	1	1285149	-83.52309	2.616718E-011	0.0093819	5
	34	12	397.9953	181198.3	-1599974	1	1610202	-83.53873	6.612682E-013	0.0094121	5
	35	12	315.5048	229501	-1989665	1	2002857	-83.4202	-1.070704E-011	0.0094102	5
	36	13	252.4038	290993.3	-2450894	1	2468109	-83.229	-7.086689E-012	0.0094065	5
	37	13	198.6229	376797.3	-3061591	1	3084691	-82.98376	-6.348388E-012	0.0094094	5
	38	13	158.3615	484257.5	-3773927	1	3804869	-82.68796	-3.348828E-012	0.0094076	5
	39	13	125.558	631016.8	-4673239	1	4715649	-82.30999	-1.606177E-011	0.0094142	4
	40	14	100.4464	803926.4	-5730920	1	5787032	-82.01472	-1.853847E-011	0.0094096	4
	41	14	79.00281	1036263	-7117492	1	7192533	-81.71629	-1.826576E-011	0.009408	4
	42	14	63.3446	1350127	-8697359	1	8801528	-81.17617	-1.734844E-011	0.009407	4
	43	15	49.86702	1704603	-1.077078E+007	1	1.090483E+007	-81.00686	-1.784698E-011	0.0094042	4
	44	15	39.72458	2105663	-1.316808E+007	1	1.333537E+007	-80.91494	-1.663969E-011	0.0094084	4
	45	16	31.6723	2599395	-1.613203E+007	1	1.634012E+007	-80.84647	-1.634987E-011	0.009408	4
	46	16	24.93351	3274675	-1.996654E+007	1	2.023329E+007	-80.68594	-1.705249E-011	0.0094101	4
	47	16	19.86229	3995029	-2.451982E+007	1	2.484314E+007	-80.74608	-1.643402E-011	0.0094172	4
	48	16	15.83615	4841885	-3.006846E+007	1	3.045581E+007	-80.85226	-1.434487E-011	0.0094114	4
	49	17	12.40079	6394827	-3.75015E+007	1	3.804282E+007	-80.3229	-9.221454E-013	0.0094068	3
	50	17	9.93114	8099935	-4.588402E+007	1	4.659348E+007	-79.98869	-1.648015E-012	0.0094081	3
	51	17	7.944915	1.059947E+007	-5.598874E+007	1	5.698322E+007	-79.27995	5.85267E-013	0.0094057	3
	52	18	6.317385	1.350685E+007	-6.908671E+007	1	7.039466E+007	-78.93788	-9.934545E-013	0.0094043	3
	53	19	5.008013	1.790821E+007	-8.514554E+007	1	8.700842E+007	-78.12241	-6.901609E-013	0.0093972	3
	54	20	3.945707	2.42855E+007	-1.053153E+008	1	1.080791E+008	-77.01469	-1.979295E-013	0.0093969	3
	55	21	3.158693	3.210926E+007	-1.277658E+008	1	1.317387E+008	-75.89294	-3.597449E-013	0.0094168	3
	56	22	2.504006	4.380891E+007	-1.558098E+008	1	1.618515E+008	-74.29565	-3.770921E-013	0.0094026	3
	57	24	1.998082	5.911274E+007	-1.878472E+008	1	1.969286E+008	-72.53197	-1.905534E-013	0.0093703	3
	58	25	1.584686	8.129838E+007	-2.258625E+008	1	2.400485E+008	-70.20384	1.517235E-014	0.0094115	3
	59	27	1.266892	1.094871E+008	-2.665377E+008	1	2.881489E+008	-67.66836	-1.726422E-012	0.0094449	2
	60	30	0.999041	1.507035E+008	-3.152856E+008	1	3.494517E+008	-64.45265	-1.720868E-012	0.0094434	2
