EXPLAIN
TAG	EISPOT
TITLE	LABEL	Potentiostatic EIS	Test &Identifier
DATE	LABEL	6/10/2021	Date
TIME	LABEL	15:20:31	Time
NOTES	NOTES	1	&Notes...
	
PSTAT	PSTAT	REF600-11020	Potentiostat
VDC	POTEN	0.00000E+000	T	DC &Voltage (V)
FREQINIT	QUANT	1.00000E+006	Initial Fre&q. (Hz)
FREQFINAL	QUANT	1.00000E+000	Final Fre&q. (Hz)
PTSPERDEC	QUANT	1.00000E+001	Points/&decade
VAC	QUANT	2.50000E+001	AC &Voltage (mV rms)
AREA	QUANT	4.00000E-005	&Area (cm^2)
CONDIT	TWOPARAM	F	5.00000E+000	0.00000E+000	Conditionin&g	Time(s)	E(V)
DELAY	TWOPARAM	F	3.00000E+000	0.00000E+000	Init. De&lay	Time(s)	Stab.(mV/s)
SPEED	SELECTOR	0	&Optimize for:
ZGUESS	QUANT	1.00000E+003	E&stimated Z (ohms)
OCVCURVE	TABLE	39
	Pt	T	Vf	Vm	Ach	Over
	#	s	V vs. Ref.	V	V	bits
	0	0.258333	9.45474E-003	9.45474E-003	5.18826E-004	...........
	1	0.516667	9.45194E-003	9.30812E-003	5.20292E-004	...........
	2	0.775	9.43496E-003	9.18068E-003	5.25059E-004	...........
	3	1.03333	9.38970E-003	9.16537E-003	5.21792E-004	...........
	4	1.29167	9.32040E-003	9.22015E-003	5.21759E-004	...........
	5	1.55	9.25035E-003	9.01511E-003	5.22626E-004	...........
	6	1.80833	9.18852E-003	8.86041E-003	5.22759E-004	...........
	7	2.06667	9.11539E-003	8.73331E-003	5.24692E-004	...........
	8	2.325	9.01531E-003	8.71648E-003	5.25526E-004	...........
	9	2.58333	8.89570E-003	8.34805E-003	5.27159E-004	...........
	10	2.84167	8.76566E-003	8.42947E-003	5.27492E-004	...........
	11	3.1	8.63158E-003	8.36091E-003	5.30159E-004	...........
	12	3.35833	8.51054E-003	8.21750E-003	5.22193E-004	...........
	13	3.61667	8.41269E-003	8.16169E-003	5.20526E-004	...........
	14	3.875	8.32597E-003	7.96138E-003	5.22193E-004	...........
	15	4.13333	8.23353E-003	7.93599E-003	5.22826E-004	...........
	16	4.39167	8.13233E-003	7.88109E-003	5.22792E-004	...........
	17	4.65	8.03355E-003	7.78729E-003	5.17659E-004	...........
	18	4.90833	7.94766E-003	7.75952E-003	5.22626E-004	...........
	19	5.16667	7.87600E-003	7.74247E-003	5.19359E-004	...........
	20	5.425	7.81881E-003	7.75004E-003	5.18093E-004	...........
	21	5.68333	7.77882E-003	7.73504E-003	5.17959E-004	...........
	22	5.94167	7.75476E-003	7.69271E-003	5.20226E-004	...........
	23	6.2	7.73833E-003	7.66041E-003	5.15359E-004	...........
	24	6.45833	7.71979E-003	7.63430E-003	5.12693E-004	...........
	25	6.71667	7.69546E-003	7.61518E-003	5.18059E-004	...........
	26	6.975	7.66815E-003	7.59940E-003	5.14893E-004	...........
	27	7.23333	7.64235E-003	7.58974E-003	5.14926E-004	...........
	28	7.49167	7.62082E-003	7.57866E-003	5.09493E-004	...........
	29	7.75	7.60345E-003	7.54137E-003	5.13059E-004	...........
	30	8.00833	7.58615E-003	7.46127E-003	5.11026E-004	...........
	31	8.26667	7.56092E-003	7.39484E-003	5.13726E-004	...........
	32	8.525	7.52149E-003	7.35691E-003	5.14593E-004	...........
	33	8.78333	7.47010E-003	7.31377E-003	5.16826E-004	...........
	34	9.04167	7.41506E-003	7.25239E-003	5.16826E-004	...........
	35	9.3	7.36176E-003	7.19894E-003	5.18493E-004	...........
	36	9.5583	7.30944E-003	7.12907E-003	5.20059E-004	...........
	37	9.8167	7.25562E-003	7.09520E-003	5.19959E-004	...........
	38	10.075	7.20086E-003	7.05987E-003	5.17726E-004	...........
EOC	QUANT	0.0072009	Open Circuit (V)
PSTATMODEL	IQUANT	4	Pstat Model
PSTATSECTION	LABEL	REF600-11020	Pstat Section
PSTATSERIALNO	LABEL	11020	Pstat Serial Number
CTRLMODE	IQUANT	1	Control Mode
IESTAB	IQUANT	0	I/E Stability
CASPEED	IQUANT	1	Control Amp Speed
CONVENTION	IQUANT	1	Current Convention
ICHRANGE	IQUANT	2	Ich Range
ICHRANGEMODE	TOGGLE	F	Ich Auto Range
ICHOFFSETENABLE	TOGGLE	T	Ich Offset Enable
ICHOFFSET	QUANT	0	Ich Offset (V)
ICHFILTER	IQUANT	3	Ich Filter
VCHRANGE	IQUANT	2	Vch Range
VCHRANGEMODE	TOGGLE	F	Vch Auto Range
VCHOFFSETENABLE	TOGGLE	T	Vch Offset Enable
VCHOFFSET	QUANT	0	Vch Offset (V)
VCHFILTER	IQUANT	3	Vch Filter
ACHRANGE	IQUANT	2	Ach Range
ACHOFFSETENABLE	TOGGLE	F	Ach Offset Enable
ACHOFFSET	QUANT	0	Ach Offset (V)
ACHFILTER	IQUANT	3	Ach Filter
IERANGELOWERLIMIT	IQUANT	1	I/E Range Lower Limit
IERANGEMODE	TOGGLE	F	I/E AutoRange
IERANGE	IQUANT	7	I/E Range
POSFEEDENABLE	TOGGLE	F	Positive Feedback IR Comp
POSFEEDRESISTANCE	QUANT	0	Positive Feedback Resistance (ohm)
ACHSELECT	IQUANT	0	Ach Select
CABLEID	IQUANT	14	Cable ID
DCCALDATE	LABEL	9/1/2020	DC Calibration Date
ACCALDATE	LABEL	9/1/2020	AC Calibration Date
THERMOSELECT	IQUANT	1	Thermo Select
FRAMEWORKVERSION	QUANT	6.33	Framework Version
INSTRUMENTVERSION	LABEL	3.50	Instrument Version
ZCURVE	TABLE
	Pt	Time	Freq	Zreal	Zimag	Zsig	Zmod	Zphz	Idc	Vdc	IERange
	#	s	Hz	ohm	ohm	V	ohm	°	A	V	#
	0	1	1000078	1498.848	-3046.026	1	3394.823	-63.79973	-4.016445E-008	0.0094187	8
	1	1	794390.6	1860.957	-3519.622	1	3981.319	-62.1329	9.988516E-008	0.0090889	8
	2	1	630984.4	2272.762	-4044.236	1	4639.104	-60.66507	7.613161E-008	0.0088916	8
	3	2	501234.4	2740.879	-4617.966	1	5370.105	-59.3098	3.795803E-008	0.008822	8
	4	2	398109.4	3252.975	-5264.333	1	6188.299	-58.28695	5.527797E-008	0.0087709	8
	5	2	316265.6	3819.636	-5978.441	1	7094.461	-57.42542	3.384234E-008	0.0087384	8
	6	3	251203.1	4424.013	-6812.222	1	8122.7	-56.99939	4.804241E-008	0.0087285	8
	7	3	199546.9	5053.875	-7764.596	1	9264.48	-56.94041	-1.197019E-008	0.0087309	8
	8	3	158578.1	5729.455	-8896.043	1	10581.41	-57.21663	4.548653E-008	0.0087368	8
	9	4	125953.1	6548.883	-10223.15	1	12140.87	-57.35665	2.010223E-009	0.0087485	7
	10	4	100078.1	7351.957	-11841.35	1	13938.03	-58.16503	-9.360348E-010	0.0087083	7
	11	4	79453.13	8177.329	-13827.05	1	16064.13	-59.3999	-5.653632E-010	0.0087083	7
	12	5	63140.62	9070.605	-16269.33	1	18627.05	-60.85912	1.518677E-009	0.0086907	7
	13	5	50203.12	10056.98	-19202.64	1	21676.82	-62.35764	2.859941E-010	0.0086917	7
	14	5	39890.62	11093.93	-22852.02	1	25402.56	-64.10489	1.043919E-009	0.0086983	7
	15	6	31640.63	12311.17	-27303.23	1	29950.48	-65.72914	-2.129718E-010	0.0086916	7
	16	6	25171.88	13651.81	-32764.54	1	35494.89	-67.38026	-3.759679E-010	0.0086898	7
	17	6	20015.62	15052.54	-39581.32	1	42346.9	-69.17849	9.240487E-010	0.0086992	7
	18	7	15890.62	16868.48	-47867.72	1	50752.98	-70.58765	2.14887E-010	0.0086858	7
	19	7	12609.37	18986.72	-58307.69	1	61321.14	-71.9632	1.537674E-010	0.0086936	6
	20	7	10078.13	21194.32	-70730.11	1	73837.3	-73.31913	1.809977E-010	0.0086888	6
	21	8	8015.625	23785.18	-86435.84	1	89648.7	-74.6143	3.338152E-010	0.0086902	6
	22	8	6328.125	27211.51	-106442.2	1	109865.4	-75.65971	8.530267E-011	0.0086834	6
	23	8	5015.625	31168.75	-130926.2	1	134585.2	-76.60923	1.296673E-010	0.0086803	6
	24	8	3984.375	35889.69	-161151.3	1	165099.4	-77.44466	2.462755E-010	0.0086881	6
	25	9	3170.956	42538.68	-197868	1	202389	-77.86694	1.619679E-010	0.0086745	6
	26	9	2527.573	49711.66	-243292	1	248318.9	-78.45177	3.132063E-010	0.0086819	6
	27	9	1976.103	61094.96	-304361.8	1	310433.1	-78.64978	2.739827E-010	0.0086781	6
	28	10	1577.524	76013.78	-372791.9	1	380462.7	-78.47514	2.615438E-010	0.0086762	6
	29	10	1265.625	97565.3	-454661	1	465011.4	-77.88863	1.773932E-012	0.0086734	5
	30	10	998.264	124197	-563548.7	1	577071.9	-77.57161	-2.523205E-011	0.0086726	5
	31	11	796.875	158790.9	-689530.3	1	707577.9	-77.03153	-6.069734E-012	0.0086707	5
	32	11	627.7902	208567.4	-851274.5	1	876452.3	-76.23337	3.421374E-012	0.0086734	5
	33	11	505.5147	272869.2	-1027476	1	1063092	-75.12714	1.019416E-012	0.0086708	5
	34	12	397.9953	368320.6	-1259219	1	1311981	-73.69585	-3.660056E-011	0.008694	5
	35	12	315.5048	497239	-1524520	1	1603561	-71.9357	-3.826578E-011	0.0086925	5
	36	12	252.4038	664732.6	-1817838	1	1935563	-69.91395	-4.016597E-011	0.008692	5
	37	13	198.6229	907266.5	-2172076	1	2353942	-67.32992	-3.778709E-011	0.0086928	5
	38	13	158.3615	1210671	-2535085	1	2809338	-64.47244	-3.582997E-011	0.0086903	5
	39	13	125.558	1613043	-2916827	1	3333134	-61.05685	-1.854635E-011	0.0086948	4
	40	14	100.4464	2066839	-3271916	1	3870047	-57.71978	-1.706759E-011	0.0086921	4
	41	14	79.00281	2623172	-3614167	1	4465785	-54.02775	-2.012271E-011	0.0086878	4
	42	14	63.3446	3193418	-3895958	1	5037500	-50.6594	-1.815279E-011	0.0086872	4
	43	15	49.86702	3759338	-4160173	1	5607108	-47.89747	-1.725267E-011	0.0086853	4
	44	15	39.72458	4257666	-4395194	1	6119269	-45.91058	-1.640304E-011	0.0086902	4
	45	15	31.6723	4703047	-4687256	1	6639957	-44.90365	-1.797516E-011	0.008689	4
	46	16	24.93351	5127728	-5097681	1	7230488	-44.83164	-1.713188E-011	0.0086836	4
	47	16	19.86229	5478876	-5632313	1	7857546	-45.79116	-1.544415E-011	0.0086856	4
	48	16	15.83615	5824974	-6358066	1	8622953	-47.50549	-9.551736E-012	0.0086876	4
	49	16	12.40079	6114334	-7407319	1	9.604866E+006	-50.4622	-2.130347E-011	0.0086879	4
	50	17	9.93114	6439450	-8625210	1	1.076386E+007	-53.25554	3.428525E-014	0.0086776	3
	51	17	7.944915	6766820	-1.017433E+007	1	1.221912E+007	-56.37261	-2.084454E-012	0.0086789	3
	52	18	6.317385	7101194	-1.226182E+007	1	1.416966E+007	-59.92356	-1.030547E-012	0.0086958	3
	53	18	5.008013	7495131	-1.492134E+007	1	1.669801E+007	-63.32919	-1.636222E-012	0.0086837	3
	54	19	3.945707	7959417	-1.836754E+007	1	2.001797E+007	-66.57092	3.923753E-013	0.0086849	3
	55	20	3.158693	8521747	-2.241269E+007	1	2.397809E+007	-69.18221	-1.161578E-012	0.0086921	3
	56	21	2.504006	9260239	-2.767167E+007	1	2.918001E+007	-71.49734	-1.512505E-012	0.0086822	3
	57	22	1.998082	1.024668E+007	-3.401714E+007	1	3.552689E+007	-73.2366	6.336564E-013	0.0087229	3
	58	24	1.584686	1.147599E+007	-4.207632E+007	1	4.361324E+007	-74.74408	-3.969687E-014	0.0087119	3
	59	26	1.266892	1.350426E+007	-5.16782E+007	1	5.341349E+007	-75.35526	-2.053491E-012	0.0086736	3
	60	28	0.999041	1.58296E+007	-6.428282E+007	1	6.620315E+007	-76.16619	-4.175572E-013	0.0086516	3
