EXPLAIN
TAG	EISPOT
TITLE	LABEL	Potentiostatic EIS	Test &Identifier
DATE	LABEL	1/7/2021	Date
TIME	LABEL	16:18:02	Time
NOTES	NOTES	1	&Notes...
	
PSTAT	PSTAT	REF600-11020	Potentiostat
VDC	POTEN	0.00000E+000	T	DC &Voltage (V)
FREQINIT	QUANT	1.00000E+006	Initial Fre&q. (Hz)
FREQFINAL	QUANT	1.00000E+000	Final Fre&q. (Hz)
PTSPERDEC	QUANT	1.00000E+001	Points/&decade
VAC	QUANT	2.50000E+001	AC &Voltage (mV rms)
AREA	QUANT	4.00000E-005	&Area (cm^2)
CONDIT	TWOPARAM	F	5.00000E+000	0.00000E+000	Conditionin&g	Time(s)	E(V)
DELAY	TWOPARAM	F	3.00000E+000	0.00000E+000	Init. De&lay	Time(s)	Stab.(mV/s)
SPEED	SELECTOR	0	&Optimize for:
ZGUESS	QUANT	1.00000E+003	E&stimated Z (ohms)
OCVCURVE	TABLE	39
	Pt	T	Vf	Vm	Ach	Over
	#	s	V vs. Ref.	V	V	bits
	0	0.258333	6.77549E-002	6.77549E-002	6.10258E-004	...........
	1	0.516667	6.77547E-002	6.77458E-002	6.24524E-004	...........
	2	0.775	6.77537E-002	6.77370E-002	6.18658E-004	...........
	3	1.03333	6.77506E-002	6.77279E-002	6.10624E-004	...........
	4	1.29167	6.77450E-002	6.77168E-002	6.15658E-004	...........
	5	1.55	6.77373E-002	6.77073E-002	6.21591E-004	...........
	6	1.80833	6.77281E-002	6.77003E-002	6.17224E-004	...........
	7	2.06667	6.77186E-002	6.76932E-002	6.07958E-004	...........
	8	2.325	6.77095E-002	6.76831E-002	6.21291E-004	...........
	9	2.58333	6.77009E-002	6.76739E-002	6.19558E-004	...........
	10	2.84167	6.76925E-002	6.76678E-002	6.14024E-004	...........
	11	3.1	6.76841E-002	6.76595E-002	6.13924E-004	...........
	12	3.35833	6.76759E-002	6.76525E-002	6.12591E-004	...........
	13	3.61667	6.76681E-002	6.76477E-002	6.17091E-004	...........
	14	3.875	6.76607E-002	6.76414E-002	6.11824E-004	...........
	15	4.13333	6.76539E-002	6.76294E-002	6.13224E-004	...........
	16	4.39167	6.76471E-002	6.76239E-002	6.22658E-004	...........
	17	4.65	6.76397E-002	6.76150E-002	6.20324E-004	...........
	18	4.90833	6.76319E-002	6.76063E-002	6.15191E-004	...........
	19	5.16667	6.76238E-002	6.75976E-002	6.11458E-004	...........
	20	5.425	6.76154E-002	6.75871E-002	6.23824E-004	...........
	21	5.68333	6.76068E-002	6.75813E-002	6.30124E-004	...........
	22	5.94167	6.75981E-002	6.75749E-002	6.17691E-004	...........
	23	6.2	6.75898E-002	6.75691E-002	6.22958E-004	...........
	24	6.45833	6.75823E-002	6.75613E-002	6.27258E-004	...........
	25	6.71667	6.75754E-002	6.75525E-002	6.25758E-004	...........
	26	6.975	6.75685E-002	6.75472E-002	6.14424E-004	...........
	27	7.23333	6.75614E-002	6.75362E-002	6.13391E-004	...........
	28	7.49167	6.75539E-002	6.75295E-002	6.24724E-004	...........
	29	7.75	6.75461E-002	6.75232E-002	6.20524E-004	...........
	30	8.00833	6.75383E-002	6.75159E-002	6.23424E-004	...........
	31	8.26667	6.75307E-002	6.75092E-002	6.23158E-004	...........
	32	8.525	6.75235E-002	6.75011E-002	6.24391E-004	...........
	33	8.78333	6.75164E-002	6.74932E-002	6.10224E-004	...........
	34	9.04167	6.75092E-002	6.74878E-002	6.19758E-004	...........
	35	9.3	6.75019E-002	6.74785E-002	6.24491E-004	...........
	36	9.5583	6.74945E-002	6.74709E-002	6.25358E-004	...........
	37	9.8167	6.74871E-002	6.74637E-002	6.16724E-004	...........
	38	10.075	6.74796E-002	6.74601E-002	6.13524E-004	...........
EOC	QUANT	0.0674796	Open Circuit (V)
PSTATMODEL	IQUANT	4	Pstat Model
PSTATSECTION	LABEL	REF600-11020	Pstat Section
PSTATSERIALNO	LABEL	11020	Pstat Serial Number
CTRLMODE	IQUANT	1	Control Mode
IESTAB	IQUANT	0	I/E Stability
CASPEED	IQUANT	1	Control Amp Speed
CONVENTION	IQUANT	1	Current Convention
ICHRANGE	IQUANT	2	Ich Range
ICHRANGEMODE	TOGGLE	F	Ich Auto Range
ICHOFFSETENABLE	TOGGLE	T	Ich Offset Enable
ICHOFFSET	QUANT	0	Ich Offset (V)
ICHFILTER	IQUANT	3	Ich Filter
VCHRANGE	IQUANT	2	Vch Range
VCHRANGEMODE	TOGGLE	F	Vch Auto Range
VCHOFFSETENABLE	TOGGLE	T	Vch Offset Enable
VCHOFFSET	QUANT	0	Vch Offset (V)
VCHFILTER	IQUANT	3	Vch Filter
ACHRANGE	IQUANT	2	Ach Range
ACHOFFSETENABLE	TOGGLE	F	Ach Offset Enable
ACHOFFSET	QUANT	0	Ach Offset (V)
ACHFILTER	IQUANT	3	Ach Filter
IERANGELOWERLIMIT	IQUANT	1	I/E Range Lower Limit
IERANGEMODE	TOGGLE	F	I/E AutoRange
IERANGE	IQUANT	8	I/E Range
POSFEEDENABLE	TOGGLE	F	Positive Feedback IR Comp
POSFEEDRESISTANCE	QUANT	0	Positive Feedback Resistance (ohm)
ACHSELECT	IQUANT	0	Ach Select
CABLEID	IQUANT	14	Cable ID
DCCALDATE	LABEL	9/1/2020	DC Calibration Date
ACCALDATE	LABEL	9/1/2020	AC Calibration Date
THERMOSELECT	IQUANT	1	Thermo Select
FRAMEWORKVERSION	QUANT	6.33	Framework Version
INSTRUMENTVERSION	LABEL	3.50	Instrument Version
ZCURVE	TABLE
	Pt	Time	Freq	Zreal	Zimag	Zsig	Zmod	Zphz	Idc	Vdc	IERange
	#	s	Hz	ohm	ohm	V	ohm	°	A	V	#
	0	1	1000078	1466.747	-2421.936	1	2831.451	-58.80051	5.28607E-008	0.0695083	8
	1	1	794390.6	1812.469	-2762.775	1	3304.235	-56.73385	3.320521E-008	0.0692216	8
	2	2	630984.4	2213.974	-3107.489	1	3815.517	-54.5315	1.045851E-007	0.0690798	8
	3	2	501234.4	2660.13	-3456.653	1	4361.736	-52.41926	2.660271E-008	0.0690197	8
	4	2	398109.4	3141.009	-3805.893	1	4934.648	-50.46709	7.644172E-008	0.0689788	8
	5	3	316265.6	3658.202	-4164.435	1	5543.01	-48.70267	6.07417E-008	0.068986	8
	6	3	251203.1	4185.58	-4570.15	1	6197.205	-47.51494	3.182384E-008	0.0689491	8
	7	3	199546.9	4735.836	-4989.161	1	6878.944	-46.49215	4.366565E-008	0.0689472	8
	8	4	158578.1	5285	-5494.953	1	7624.023	-46.11576	4.39689E-008	0.0689703	8
	9	4	125953.1	5880.485	-6082.217	1	8460.11	-45.96611	-2.009877E-008	0.0689825	7
	10	4	100078.1	6471.888	-6787.788	1	9378.667	-46.36476	-6.010634E-009	0.0689348	7
	11	5	79453.13	7084.158	-7684.516	1	10451.65	-47.32784	2.065165E-009	0.0689127	7
	12	5	63140.62	7743.2	-8769.472	1	11698.75	-48.55639	2.445373E-009	0.0689138	7
	13	5	50203.12	8462.723	-10076.39	1	13158.7	-49.97457	9.773239E-009	0.0689135	7
	14	6	39890.62	9274.178	-11687.94	1	14920.4	-51.56861	4.970076E-009	0.0689176	7
	15	6	31640.63	10213.04	-13688	1	17078.27	-53.27225	-5.069102E-009	0.0689223	7
	16	6	25171.88	11275.19	-16113.82	1	19666.85	-55.01869	-1.345627E-009	0.0689063	7
	17	6	20015.62	12592.49	-19013.08	1	22805	-56.48323	-3.563432E-009	0.0689141	7
	18	7	15890.62	14195.69	-22598.44	1	26687.21	-57.86414	-6.960919E-009	0.068916	7
	19	7	12609.37	16276.01	-26944.64	1	31478.92	-58.86578	1.714434E-009	0.0688875	6
	20	7	10078.13	18861.37	-31967.68	1	37117.16	-59.45882	2.586733E-009	0.068903	6
	21	8	8015.625	22327.52	-38052.71	1	44119.46	-59.59763	-5.858545E-010	0.068922	6
	22	8	6328.125	27184.51	-45373.92	1	52894.14	-59.07325	2.734097E-009	0.0688882	6
	23	8	5015.625	33661.58	-53464.3	1	63178.58	-57.80513	2.391552E-009	0.0688982	6
	24	9	3984.375	42182.61	-62130.68	1	75097.23	-55.8261	8.256201E-012	0.0689079	6
	25	9	3170.956	53390.68	-70637.48	1	88545.01	-52.91653	2.527344E-009	0.0688911	6
	26	9	2527.573	67043.41	-78307.75	1	103087	-49.43142	-6.174607E-010	0.0689155	6
	27	10	1976.103	84805.43	-84066.62	1	119411.7	-44.74933	2.44954E-009	0.0688957	6
	28	10	1577.524	102626	-86321.3	1	134102.5	-40.06802	2.467496E-009	0.0688859	6
	29	10	1265.625	120629.3	-84346.4	1	147192.9	-34.96201	7.95699E-010	0.068879	5
	30	11	998.264	138057.8	-80131.27	1	159627.6	-30.13166	7.389847E-010	0.0688927	5
	31	11	796.875	151914.1	-73448.6	1	168738.2	-25.8032	7.606656E-010	0.0688685	5
	32	11	627.7902	163937.1	-65734.52	1	176625	-21.8495	6.733047E-010	0.0688708	5
	33	12	505.5147	172297.3	-58690.8	1	182019.1	-18.81074	4.516379E-010	0.0689141	5
	34	12	397.9953	179191.3	-51704.63	1	186501.8	-16.09519	5.802072E-010	0.0689148	5
	35	12	315.5048	184169.9	-46129.33	1	189859	-14.06167	4.539075E-010	0.0689143	5
	36	13	252.4038	187968.6	-42214.6	1	192650.6	-12.65765	4.223671E-010	0.0689108	5
	37	13	198.6229	190686.4	-39319.42	1	194698	-11.65106	3.873661E-010	0.0689117	5
	38	13	158.3615	193085.1	-38094.79	1	196807.2	-11.16085	4.491932E-010	0.0689095	5
	39	14	125.558	195667.3	-38385.82	1	199397	-11.09927	5.186951E-010	0.0689064	5
	40	14	100.4464	197933.8	-40033.56	1	201941.8	-11.43424	3.5218E-010	0.0689046	5
	41	14	79.00281	200015.4	-43266.3	1	204641.5	-12.20587	4.70377E-010	0.0689029	5
	42	15	63.3446	202953	-47901.52	1	208529.3	-13.28007	2.869481E-010	0.068903	5
	43	15	49.86702	206302.2	-54661.68	1	213420.9	-14.84005	4.014616E-011	0.0689062	5
	44	16	39.72458	209936.8	-63010.72	1	219189	-16.70667	3.410953E-010	0.0689092	5
	45	16	31.6723	214235	-73383.65	1	226454.8	-18.90829	3.189429E-010	0.068908	5
	46	16	24.93351	219940.6	-86795.5	1	236447.3	-21.53576	1.044883E-010	0.068905	5
	47	17	19.86229	226759.8	-102295.1	1	248765.5	-24.28092	8.295307E-010	0.0689082	5
	48	17	15.83615	236604.8	-120467.9	1	265507.7	-26.98302	-6.607588E-010	0.068906	5
	49	17	12.40079	248229.4	-143310.6	1	286628.3	-29.99919	5.533483E-010	0.0689068	5
	50	18	9.93114	262917.5	-167731.1	1	311864.3	-32.53628	-8.405704E-010	0.068912	5
	51	18	7.944915	279985.2	-195807	1	341660.8	-34.96694	-1.283643E-010	0.0689162	5
	52	19	6.317385	301259.1	-228306	1	377995.6	-37.15628	-3.87942E-011	0.0689088	5
	53	19	5.008013	328143	-265097.1	1	421846.3	-38.93372	-3.606262E-010	0.0689043	5
	54	20	3.945707	363262.7	-307620.2	1	476014.7	-40.25878	-4.030007E-010	0.0689102	5
	55	21	3.158693	399946.9	-349785.1	1	531325.8	-41.17226	-2.039396E-010	0.0688926	5
	56	22	2.504006	445056.5	-397478.8	1	596711.5	-41.76796	1.970175E-010	0.0688981	5
	57	24	1.998082	493076.9	-446890.1	1	665458.9	-42.18694	4.356794E-011	0.0688746	5
	58	25	1.584686	551114.1	-501921.9	1	745420.9	-42.32539	-1.353999E-010	0.0688499	5
	59	27	1.266892	608994.1	-561101.9	1	828075.6	-42.65619	-1.016031E-010	0.0688723	5
	60	30	0.999041	674271.9	-629260.8	1	922286.1	-43.02236	-7.717937E-011	0.0689037	5
