EXPLAIN
TAG	EISPOT
TITLE	LABEL	Potentiostatic EIS	Test &Identifier
DATE	LABEL	1/7/2021	Date
TIME	LABEL	16:26:21	Time
NOTES	NOTES	1	&Notes...
	
PSTAT	PSTAT	REF600-11020	Potentiostat
VDC	POTEN	0.00000E+000	T	DC &Voltage (V)
FREQINIT	QUANT	1.00000E+006	Initial Fre&q. (Hz)
FREQFINAL	QUANT	1.00000E+000	Final Fre&q. (Hz)
PTSPERDEC	QUANT	1.00000E+001	Points/&decade
VAC	QUANT	2.50000E+001	AC &Voltage (mV rms)
AREA	QUANT	4.00000E-005	&Area (cm^2)
CONDIT	TWOPARAM	F	5.00000E+000	0.00000E+000	Conditionin&g	Time(s)	E(V)
DELAY	TWOPARAM	F	3.00000E+000	0.00000E+000	Init. De&lay	Time(s)	Stab.(mV/s)
SPEED	SELECTOR	0	&Optimize for:
ZGUESS	QUANT	1.00000E+003	E&stimated Z (ohms)
OCVCURVE	TABLE	39
	Pt	T	Vf	Vm	Ach	Over
	#	s	V vs. Ref.	V	V	bits
	0	0.258333	4.04536E-002	4.04536E-002	5.07326E-004	...........
	1	0.516667	4.04540E-002	4.04736E-002	5.10559E-004	...........
	2	0.775	4.04561E-002	4.04791E-002	5.13426E-004	...........
	3	1.03333	4.04608E-002	4.04679E-002	5.11326E-004	...........
	4	1.29167	4.04665E-002	4.04681E-002	5.16559E-004	...........
	5	1.55	4.04698E-002	4.04558E-002	5.18093E-004	...........
	6	1.80833	4.04691E-002	4.04533E-002	5.20726E-004	...........
	7	2.06667	4.04650E-002	4.04418E-002	5.11926E-004	...........
	8	2.325	4.04590E-002	4.04427E-002	5.19126E-004	...........
	9	2.58333	4.04526E-002	4.04417E-002	5.10459E-004	...........
	10	2.84167	4.04472E-002	4.04382E-002	5.12026E-004	...........
	11	3.1	4.04432E-002	4.04278E-002	5.10693E-004	...........
	12	3.35833	4.04398E-002	4.04266E-002	5.19159E-004	...........
	13	3.61667	4.04357E-002	4.04221E-002	5.15093E-004	...........
	14	3.875	4.04312E-002	4.04205E-002	5.08959E-004	...........
	15	4.13333	4.04270E-002	4.04169E-002	5.17693E-004	...........
	16	4.39167	4.04234E-002	4.04153E-002	5.07926E-004	...........
	17	4.65	4.04203E-002	4.04111E-002	5.03293E-004	...........
	18	4.90833	4.04175E-002	4.04079E-002	5.10559E-004	...........
	19	5.16667	4.04146E-002	4.04059E-002	5.10026E-004	...........
	20	5.425	4.04116E-002	4.04022E-002	5.11226E-004	...........
	21	5.68333	4.04086E-002	4.04000E-002	5.06959E-004	...........
	22	5.94167	4.04057E-002	4.03977E-002	5.09959E-004	...........
	23	6.2	4.04029E-002	4.03930E-002	5.10493E-004	...........
	24	6.45833	4.04000E-002	4.03911E-002	5.09826E-004	...........
	25	6.71667	4.03971E-002	4.03876E-002	5.05993E-004	...........
	26	6.975	4.03941E-002	4.03863E-002	5.06226E-004	...........
	27	7.23333	4.03912E-002	4.03814E-002	5.04893E-004	...........
	28	7.49167	4.03883E-002	4.03793E-002	5.07859E-004	...........
	29	7.75	4.03854E-002	4.03753E-002	5.04626E-004	...........
	30	8.00833	4.03823E-002	4.03738E-002	5.07293E-004	...........
	31	8.26667	4.03793E-002	4.03687E-002	5.05659E-004	...........
	32	8.525	4.03762E-002	4.03674E-002	5.07226E-004	...........
	33	8.78333	4.03731E-002	4.03657E-002	5.10459E-004	...........
	34	9.04167	4.03703E-002	4.03621E-002	5.12326E-004	...........
	35	9.3	4.03676E-002	4.03583E-002	5.14659E-004	...........
	36	9.5583	4.03649E-002	4.03520E-002	5.13459E-004	...........
	37	9.8167	4.03617E-002	4.03508E-002	5.06126E-004	...........
	38	10.075	4.03580E-002	4.03488E-002	5.04293E-004	...........
EOC	QUANT	0.040358	Open Circuit (V)
PSTATMODEL	IQUANT	4	Pstat Model
PSTATSECTION	LABEL	REF600-11020	Pstat Section
PSTATSERIALNO	LABEL	11020	Pstat Serial Number
CTRLMODE	IQUANT	1	Control Mode
IESTAB	IQUANT	0	I/E Stability
CASPEED	IQUANT	1	Control Amp Speed
CONVENTION	IQUANT	1	Current Convention
ICHRANGE	IQUANT	2	Ich Range
ICHRANGEMODE	TOGGLE	F	Ich Auto Range
ICHOFFSETENABLE	TOGGLE	T	Ich Offset Enable
ICHOFFSET	QUANT	0	Ich Offset (V)
ICHFILTER	IQUANT	3	Ich Filter
VCHRANGE	IQUANT	2	Vch Range
VCHRANGEMODE	TOGGLE	F	Vch Auto Range
VCHOFFSETENABLE	TOGGLE	T	Vch Offset Enable
VCHOFFSET	QUANT	0	Vch Offset (V)
VCHFILTER	IQUANT	3	Vch Filter
ACHRANGE	IQUANT	2	Ach Range
ACHOFFSETENABLE	TOGGLE	F	Ach Offset Enable
ACHOFFSET	QUANT	0	Ach Offset (V)
ACHFILTER	IQUANT	3	Ach Filter
IERANGELOWERLIMIT	IQUANT	1	I/E Range Lower Limit
IERANGEMODE	TOGGLE	F	I/E AutoRange
IERANGE	IQUANT	7	I/E Range
POSFEEDENABLE	TOGGLE	F	Positive Feedback IR Comp
POSFEEDRESISTANCE	QUANT	0	Positive Feedback Resistance (ohm)
ACHSELECT	IQUANT	0	Ach Select
CABLEID	IQUANT	14	Cable ID
DCCALDATE	LABEL	9/1/2020	DC Calibration Date
ACCALDATE	LABEL	9/1/2020	AC Calibration Date
THERMOSELECT	IQUANT	1	Thermo Select
FRAMEWORKVERSION	QUANT	6.33	Framework Version
INSTRUMENTVERSION	LABEL	3.50	Instrument Version
ZCURVE	TABLE
	Pt	Time	Freq	Zreal	Zimag	Zsig	Zmod	Zphz	Idc	Vdc	IERange
	#	s	Hz	ohm	ohm	V	ohm	°	A	V	#
	0	1	1000078	1718.092	-2495.634	1	3029.856	-55.45496	5.122659E-008	0.042229	8
	1	2	794390.6	2117.205	-2794.96	1	3506.331	-52.85577	1.252542E-007	0.0419357	8
	2	2	630984.4	2565.183	-3078.333	1	4007.031	-50.19547	7.109634E-008	0.041832	8
	3	2	501234.4	3055.964	-3338.65	1	4526.091	-47.53122	3.957189E-008	0.0417476	8
	4	3	398109.4	3572.79	-3575.305	1	5054.467	-45.02016	8.213838E-008	0.0417189	8
	5	3	316265.6	4107.421	-3796.568	1	5593.285	-42.7478	5.837651E-008	0.0417107	8
	6	3	251203.1	4630.22	-4018.397	1	6130.779	-40.95351	6.522259E-008	0.041691	8
	7	4	199546.9	5149.614	-4273.316	1	6691.768	-39.68699	5.870071E-008	0.0417064	8
	8	4	158578.1	5664.881	-4568.394	1	7277.438	-38.88414	6.302007E-008	0.0417085	8
	9	4	125953.1	6213.91	-4923.567	1	7928.063	-38.39141	2.014781E-008	0.0416301	7
	10	5	100078.1	6752.386	-5355.713	1	8618.491	-38.41999	8.693723E-009	0.0416604	7
	11	5	79453.13	7314.797	-5902.49	1	9399.236	-38.90091	-5.966113E-009	0.041662	7
	12	5	63140.62	7901.972	-6570.564	1	10276.84	-39.74384	5.878022E-009	0.0416638	7
	13	6	50203.12	8548.718	-7389.085	1	11299.52	-40.8385	-5.084874E-009	0.0416557	7
	14	6	39890.62	9256.627	-8382.438	1	12488.01	-42.16275	3.231976E-010	0.0416564	7
	15	6	31640.63	10065.6	-9622.86	1	13925.36	-43.71179	3.167654E-009	0.0416382	7
	16	7	25171.88	11007.7	-11069.29	1	15610.85	-45.15985	-1.84303E-009	0.0416504	7
	17	7	20015.62	12140.1	-12861.18	1	17685.93	-46.65205	2.905111E-009	0.0416373	7
	18	7	15890.62	13563.25	-14966.55	1	20198.01	-47.81595	3.765851E-009	0.0416411	7
	19	7	12609.37	15419.11	-17369.04	1	23225.69	-48.4034	3.375415E-010	0.0416446	6
	20	8	10078.13	17650.5	-20027.96	1	26695.67	-48.6105	-1.203268E-010	0.0416477	6
	21	8	8015.625	20536.83	-22968.02	1	30810.57	-48.19854	-4.925677E-010	0.0416545	6
	22	8	6328.125	24218.55	-26118.85	1	35619.27	-47.16197	1.787414E-009	0.041627	6
	23	9	5015.625	28592.58	-29127.3	1	40815.87	-45.53077	1.734907E-009	0.0416277	6
	24	9	3984.375	33577.31	-31844.35	1	46276.33	-43.48265	-1.231421E-010	0.0416438	6
	25	9	3170.956	39033.92	-34142.55	1	51859.05	-41.17583	1.894304E-009	0.0416339	6
	26	10	2527.573	44743.16	-35999.29	1	57427.33	-38.81933	1.974782E-009	0.0416273	6
	27	10	1976.103	51057.92	-37539.24	1	63372.75	-36.32439	1.522849E-009	0.0416422	6
	28	10	1577.524	56732.86	-38712.15	1	68682.23	-34.30801	-6.01698E-010	0.0416505	6
	29	11	1265.625	62174.23	-39763.58	1	73802.29	-32.60098	1.611679E-009	0.0416312	6
	30	11	998.264	67868.76	-40996.07	1	79289.63	-31.13404	1.454878E-009	0.0416415	6
	31	11	796.875	73077.05	-42509.15	1	84541.61	-30.1867	1.994838E-009	0.0416276	6
	32	12	627.7902	78757.73	-44316.45	1	90369.95	-29.36616	1.901602E-009	0.0416307	6
	33	12	505.5147	84025.13	-46303.36	1	95938.6	-28.85765	3.117361E-010	0.0416167	5
	34	12	397.9953	90086.77	-49332.13	1	102709.7	-28.70541	3.19983E-010	0.0416544	5
	35	13	315.5048	96264.5	-52733.4	1	109761.8	-28.7138	3.224118E-010	0.0416525	5
	36	13	252.4038	102646.7	-56750.86	1	117290.2	-28.93715	2.097173E-010	0.0416504	5
	37	13	198.6229	109539.8	-61485.3	1	125616.1	-29.30574	2.107152E-010	0.0416501	5
	38	14	158.3615	116193.4	-66825.43	1	134039.3	-29.90418	2.441392E-010	0.0416479	5
	39	14	125.558	123076.1	-73406	1	143304.4	-30.81303	1.881788E-010	0.0416507	5
	40	14	100.4464	129894.4	-81269.68	1	153223.1	-32.03256	2.161484E-010	0.0416491	5
	41	15	79.00281	137805.2	-91994.31	1	165690.2	-33.7258	1.148951E-010	0.0416497	5
	42	15	63.3446	145958.4	-104228.4	1	179352.8	-35.5305	1.103946E-010	0.0416419	5
	43	15	49.86702	156237.7	-120458	1	197282.4	-37.63192	1.99351E-010	0.0416426	5
	44	16	39.72458	167940.9	-139061.7	1	218042	-39.62609	8.569457E-011	0.0416454	5
	45	16	31.6723	182031	-160750.3	1	242849.6	-41.44749	-5.667256E-012	0.0416461	5
	46	16	24.93351	200091.1	-187315.7	1	274086.9	-43.11127	1.808032E-010	0.041641	5
	47	17	19.86229	220785.5	-216157.9	1	308983	-44.39321	2.723516E-011	0.0416483	5
	48	17	15.83615	245175.1	-247878.1	1	348646.5	-45.3141	4.077963E-010	0.0416449	5
	49	17	12.40079	276320.5	-287315.1	1	398626.4	-46.1175	6.838223E-010	0.0416391	5
	50	17	9.93114	309115.8	-327117.4	1	450064.9	-46.6207	7.364027E-010	0.0416446	5
	51	18	7.944915	347514.8	-372306.8	1	509292.6	-46.9726	1.240825E-010	0.0416442	5
	52	18	6.317385	395879.6	-426274	1	581747.5	-47.11722	2.189389E-010	0.0416367	5
	53	19	5.008013	453268.7	-486154.1	1	664679.1	-47.00488	3.545913E-010	0.0416445	5
	54	20	3.945707	524849.8	-552307.6	1	761912.7	-46.46021	1.3284E-010	0.0416298	5
	55	21	3.158693	601411	-614881.8	1	860101.6	-45.63454	2.380233E-010	0.0416465	5
	56	22	2.504006	696773.6	-683249.9	1	975871	-44.43855	9.326902E-012	0.0416486	5
	57	23	1.998082	800457.8	-751298.6	1	1097808	-43.18549	-8.297511E-011	0.0416281	4
	58	25	1.584686	914357.7	-810091.3	1	1221596	-41.5399	4.343034E-011	0.0416771	4
	59	27	1.266892	1033358	-868637.1	1	1349948	-40.05029	9.789113E-011	0.0416763	4
	60	29	0.999041	1160906	-931027.3	1	1488124	-38.72903	1.531003E-010	0.0416597	4
