EXPLAIN
TAG	EISPOT
TITLE	LABEL	Potentiostatic EIS	Test &Identifier
DATE	LABEL	6/10/2021	Date
TIME	LABEL	15:10:11	Time
NOTES	NOTES	1	&Notes...
	
PSTAT	PSTAT	REF600-11020	Potentiostat
VDC	POTEN	0.00000E+000	T	DC &Voltage (V)
FREQINIT	QUANT	1.00000E+006	Initial Fre&q. (Hz)
FREQFINAL	QUANT	1.00000E+000	Final Fre&q. (Hz)
PTSPERDEC	QUANT	1.00000E+001	Points/&decade
VAC	QUANT	2.50000E+001	AC &Voltage (mV rms)
AREA	QUANT	4.00000E-005	&Area (cm^2)
CONDIT	TWOPARAM	F	5.00000E+000	0.00000E+000	Conditionin&g	Time(s)	E(V)
DELAY	TWOPARAM	F	3.00000E+000	0.00000E+000	Init. De&lay	Time(s)	Stab.(mV/s)
SPEED	SELECTOR	0	&Optimize for:
ZGUESS	QUANT	1.00000E+003	E&stimated Z (ohms)
OCVCURVE	TABLE	39
	Pt	T	Vf	Vm	Ach	Over
	#	s	V vs. Ref.	V	V	bits
	0	0.258333	5.53966E-002	5.53966E-002	5.34259E-004	...........
	1	0.516667	5.53969E-002	5.54149E-002	5.40159E-004	...........
	2	0.775	5.53991E-002	5.54303E-002	5.35726E-004	...........
	3	1.03333	5.54049E-002	5.54448E-002	5.31092E-004	...........
	4	1.29167	5.54151E-002	5.54588E-002	5.30526E-004	...........
	5	1.55	5.54282E-002	5.54695E-002	5.29126E-004	...........
	6	1.80833	5.54423E-002	5.54809E-002	5.28726E-004	...........
	7	2.06667	5.54559E-002	5.54955E-002	5.33792E-004	...........
	8	2.325	5.54686E-002	5.54985E-002	5.32426E-004	...........
	9	2.58333	5.54802E-002	5.55108E-002	5.38292E-004	...........
	10	2.84167	5.54907E-002	5.55169E-002	5.33859E-004	...........
	11	3.1	5.55000E-002	5.55249E-002	5.24392E-004	...........
	12	3.35833	5.55085E-002	5.55285E-002	5.29326E-004	...........
	13	3.61667	5.55161E-002	5.55352E-002	5.25992E-004	...........
	14	3.875	5.55228E-002	5.55401E-002	5.33826E-004	...........
	15	4.13333	5.55288E-002	5.55475E-002	5.27326E-004	...........
	16	4.39167	5.55346E-002	5.55520E-002	5.24392E-004	...........
	17	4.65	5.55404E-002	5.55565E-002	5.25459E-004	...........
	18	4.90833	5.55460E-002	5.55595E-002	5.31759E-004	...........
	19	5.16667	5.55511E-002	5.55651E-002	5.32492E-004	...........
	20	5.425	5.55556E-002	5.55652E-002	5.36226E-004	...........
	21	5.68333	5.55596E-002	5.55672E-002	5.33992E-004	...........
	22	5.94167	5.55629E-002	5.55731E-002	5.37259E-004	...........
	23	6.2	5.55657E-002	5.55745E-002	5.29659E-004	...........
	24	6.45833	5.55685E-002	5.55762E-002	5.29726E-004	...........
	25	6.71667	5.55713E-002	5.55771E-002	5.28792E-004	...........
	26	6.975	5.55738E-002	5.55814E-002	5.30059E-004	...........
	27	7.23333	5.55760E-002	5.55815E-002	5.30359E-004	...........
	28	7.49167	5.55780E-002	5.55843E-002	5.25792E-004	...........
	29	7.75	5.55801E-002	5.55877E-002	5.34059E-004	...........
	30	8.00833	5.55822E-002	5.55879E-002	5.22159E-004	...........
	31	8.26667	5.55843E-002	5.55902E-002	5.28792E-004	...........
	32	8.525	5.55863E-002	5.55900E-002	5.29092E-004	...........
	33	8.78333	5.55880E-002	5.55919E-002	5.26292E-004	...........
	34	9.04167	5.55894E-002	5.55941E-002	5.31759E-004	...........
	35	9.3	5.55906E-002	5.55909E-002	5.30526E-004	...........
	36	9.5583	5.55916E-002	5.55939E-002	5.34892E-004	...........
	37	9.8167	5.55922E-002	5.55910E-002	5.30826E-004	...........
	38	10.075	5.55924E-002	5.55941E-002	5.31092E-004	...........
EOC	QUANT	0.0555924	Open Circuit (V)
PSTATMODEL	IQUANT	4	Pstat Model
PSTATSECTION	LABEL	REF600-11020	Pstat Section
PSTATSERIALNO	LABEL	11020	Pstat Serial Number
CTRLMODE	IQUANT	1	Control Mode
IESTAB	IQUANT	0	I/E Stability
CASPEED	IQUANT	1	Control Amp Speed
CONVENTION	IQUANT	1	Current Convention
ICHRANGE	IQUANT	2	Ich Range
ICHRANGEMODE	TOGGLE	F	Ich Auto Range
ICHOFFSETENABLE	TOGGLE	T	Ich Offset Enable
ICHOFFSET	QUANT	0	Ich Offset (V)
ICHFILTER	IQUANT	3	Ich Filter
VCHRANGE	IQUANT	2	Vch Range
VCHRANGEMODE	TOGGLE	F	Vch Auto Range
VCHOFFSETENABLE	TOGGLE	T	Vch Offset Enable
VCHOFFSET	QUANT	0	Vch Offset (V)
VCHFILTER	IQUANT	3	Vch Filter
ACHRANGE	IQUANT	2	Ach Range
ACHOFFSETENABLE	TOGGLE	F	Ach Offset Enable
ACHOFFSET	QUANT	0	Ach Offset (V)
ACHFILTER	IQUANT	3	Ach Filter
IERANGELOWERLIMIT	IQUANT	1	I/E Range Lower Limit
IERANGEMODE	TOGGLE	F	I/E AutoRange
IERANGE	IQUANT	8	I/E Range
POSFEEDENABLE	TOGGLE	F	Positive Feedback IR Comp
POSFEEDRESISTANCE	QUANT	0	Positive Feedback Resistance (ohm)
ACHSELECT	IQUANT	0	Ach Select
CABLEID	IQUANT	14	Cable ID
DCCALDATE	LABEL	9/1/2020	DC Calibration Date
ACCALDATE	LABEL	9/1/2020	AC Calibration Date
THERMOSELECT	IQUANT	1	Thermo Select
FRAMEWORKVERSION	QUANT	6.33	Framework Version
INSTRUMENTVERSION	LABEL	3.50	Instrument Version
ZCURVE	TABLE
	Pt	Time	Freq	Zreal	Zimag	Zsig	Zmod	Zphz	Idc	Vdc	IERange
	#	s	Hz	ohm	ohm	V	ohm	°	A	V	#
	0	1	1000078	1419.842	-3532.678	1	3807.331	-68.10398	7.67502E-008	0.0575185	8
	1	1	794390.6	1754.764	-4204.822	1	4556.285	-67.34815	1.941842E-008	0.0572487	8
	2	2	630984.4	2167.231	-4988.591	1	5439.019	-66.51807	5.115193E-008	0.0570995	8
	3	2	501234.4	2679.538	-5894.325	1	6474.797	-65.55363	-4.379246E-010	0.0570269	8
	4	2	398109.4	3338.295	-6938.024	1	7699.376	-64.30503	5.296015E-008	0.0569784	8
	5	3	316265.6	4119.095	-8131.292	1	9115.089	-63.13445	-3.285899E-009	0.0569608	8
	6	3	251203.1	5127.67	-9456.123	1	10756.92	-61.53083	5.520124E-008	0.0569519	8
	7	3	199546.9	6330.828	-10923.4	1	12625.37	-59.90488	2.070448E-008	0.0569623	8
	8	4	158578.1	7762.775	-12549.32	1	14756.22	-58.25984	6.110861E-009	0.0569648	8
	9	4	125953.1	9597.97	-14297.28	1	17220.14	-56.12596	1.527323E-008	0.056936	7
	10	4	100078.1	11701.07	-16093.86	1	19897.92	-53.98091	2.274013E-010	0.0569318	7
	11	4	79453.13	14114.86	-18006.87	1	22879.62	-51.90853	3.971315E-011	0.056921	7
	12	5	63140.62	16881.1	-19983.93	1	26159.69	-49.81109	1.630249E-009	0.0569183	7
	13	5	50203.12	19988.45	-21842.48	1	29607.97	-47.5378	7.010601E-010	0.056919	7
	14	5	39890.62	23473.88	-23721.06	1	33372.32	-45.30007	1.783864E-009	0.056915	7
	15	6	31640.63	27301.62	-25487.36	1	37349.48	-43.03162	1.721507E-009	0.0569077	7
	16	6	25171.88	31327.4	-27072.69	1	41404.55	-40.8331	7.026143E-010	0.0569119	7
	17	6	20015.62	35623.84	-28524.79	1	45636.85	-38.68502	9.685843E-010	0.0569023	7
	18	7	15890.62	40205.37	-30036.85	1	50186.49	-36.76288	1.949188E-009	0.0569081	7
	19	7	12609.37	45023.52	-31092.68	1	54716.29	-34.62847	2.822206E-010	0.0569144	6
	20	7	10078.13	49618.61	-32202.57	1	59152.45	-32.98365	3.234777E-010	0.0569099	6
	21	8	8015.625	54399.41	-33283.82	1	63773.89	-31.46003	4.256362E-010	0.0568983	6
	22	8	6328.125	59460.64	-34447.7	1	68718.35	-30.08527	3.125896E-010	0.0569046	6
	23	8	5015.625	64419.51	-35648.86	1	73625.5	-28.95953	3.966653E-010	0.0569097	6
	24	9	3984.375	69403.05	-36911.5	1	78608.16	-28.00595	2.365987E-010	0.0569069	6
	25	9	3170.956	74507.13	-38340.1	1	83793.05	-27.22958	4.390472E-010	0.0568988	6
	26	9	2527.573	79662.3	-39896.76	1	89094.52	-26.60279	3.050605E-010	0.0568998	6
	27	10	1976.103	85479.59	-41873.6	1	95184.9	-26.09869	2.533825E-010	0.0569013	6
	28	10	1577.524	90997.34	-43915.14	1	101039.9	-25.76187	1.912821E-010	0.0569027	6
	29	10	1265.625	97128.5	-45342.45	1	107190.9	-25.02455	-1.208715E-010	0.0569008	5
	30	11	998.264	103353.5	-48247.65	1	114060.4	-25.02418	-1.149408E-010	0.056905	5
	31	11	796.875	109652.3	-51358.79	1	121084.1	-25.09738	-1.258552E-010	0.0568937	5
	32	11	627.7902	116686.5	-55045.51	1	129018.4	-25.25505	-8.752427E-011	0.0568992	5
	33	12	505.5147	123361.8	-58791.34	1	136654.8	-25.48138	-9.425601E-011	0.0569035	5
	34	12	397.9953	131372	-63500.28	1	145914	-25.79738	-1.27484E-011	0.0569242	5
	35	12	315.5048	139633.6	-68667.9	1	155604.7	-26.18667	2.048501E-011	0.0569203	5
	36	12	252.4038	148081.1	-74282.09	1	165667.8	-26.63977	2.605616E-012	0.0569169	5
	37	13	198.6229	157914.6	-81094.31	1	177519.8	-27.18199	3.039924E-011	0.0569191	5
	38	13	158.3615	168035.6	-88381.65	1	189861.3	-27.74301	-1.220803E-011	0.0569172	5
	39	13	125.558	179259.3	-96799.3	1	203725.3	-28.36885	-5.617065E-011	0.0569185	5
	40	14	100.4464	190843.8	-105900.1	1	218257.2	-29.02611	1.252528E-011	0.0569188	5
	41	14	79.00281	204288.9	-116989.7	1	235415.7	-29.79838	-6.331501E-011	0.0569185	5
	42	14	63.3446	217730.2	-128566.8	1	252855.4	-30.56128	-9.576865E-011	0.0569183	5
	43	15	49.86702	233540.9	-142871.9	1	273776.8	-31.45679	-6.948717E-011	0.056914	5
	44	15	39.72458	249991.2	-158540.8	1	296025	-32.38228	3.807568E-011	0.0569171	5
	45	16	31.6723	267885.4	-176580.7	1	320847.8	-33.39147	1.214353E-010	0.05692	5
	46	16	24.93351	288615.4	-198698	1	350399.4	-34.54557	-3.232926E-011	0.0569132	5
	47	16	19.86229	310729.3	-223442.1	1	382725.9	-35.71951	2.679477E-010	0.0569149	5
	48	16	15.83615	335873.4	-251596.5	1	419656.7	-36.83619	-3.15512E-010	0.0569102	5
	49	17	12.40079	366757.1	-286886.1	1	465633.3	-38.03336	-6.197159E-010	0.0569154	5
	50	17	9.93114	397947.3	-323742.4	1	513002.2	-39.12942	-6.907604E-010	0.0569109	5
	51	17	7.944915	435628.1	-366318.2	1	569175.6	-40.06037	-7.114336E-011	0.0569159	5
	52	18	6.317385	479938.2	-415460.4	1	634781.9	-40.88123	-4.57474E-011	0.0569135	5
	53	19	5.008013	531949	-471238.4	1	710658.4	-41.53681	-2.33579E-010	0.056906	5
	54	19	3.945707	595645.6	-534441.2	1	800263.1	-41.89994	-1.515115E-010	0.0569115	5
	55	20	3.158693	662584.8	-599098.1	1	893273.3	-42.11936	-1.474947E-010	0.0568954	5
	56	21	2.504006	746384.9	-671012.4	1	1003667	-41.95607	9.876291E-011	0.0569008	4
	57	23	1.998082	833609.9	-745380.1	1	1118256	-41.80179	8.090208E-011	0.0568979	4
	58	24	1.584686	937343.4	-823191.8	1	1247500	-41.29018	-4.586362E-011	0.0568583	4
	59	26	1.266892	1044278	-905374.9	1	1382108	-40.92484	-7.347713E-011	0.0568685	4
	60	29	0.999041	1162523	-996920	1	1531440	-40.61469	-8.158978E-011	0.056895	4
