EXPLAIN
TAG	EISPOT
TITLE	LABEL	Potentiostatic EIS	Test &Identifier
DATE	LABEL	6/10/2021	Date
TIME	LABEL	15:03:18	Time
NOTES	NOTES	1	&Notes...
	
PSTAT	PSTAT	REF600-11020	Potentiostat
VDC	POTEN	0.00000E+000	T	DC &Voltage (V)
FREQINIT	QUANT	1.00000E+006	Initial Fre&q. (Hz)
FREQFINAL	QUANT	1.00000E+000	Final Fre&q. (Hz)
PTSPERDEC	QUANT	1.00000E+001	Points/&decade
VAC	QUANT	2.50000E+001	AC &Voltage (mV rms)
AREA	QUANT	4.00000E-005	&Area (cm^2)
CONDIT	TWOPARAM	F	5.00000E+000	0.00000E+000	Conditionin&g	Time(s)	E(V)
DELAY	TWOPARAM	F	3.00000E+000	0.00000E+000	Init. De&lay	Time(s)	Stab.(mV/s)
SPEED	SELECTOR	0	&Optimize for:
ZGUESS	QUANT	1.00000E+003	E&stimated Z (ohms)
OCVCURVE	TABLE	39
	Pt	T	Vf	Vm	Ach	Over
	#	s	V vs. Ref.	V	V	bits
	0	0.258333	2.86547E-002	2.86547E-002	5.45874E-004	...........
	1	0.516667	2.86548E-002	2.86624E-002	5.58808E-004	...........
	2	0.775	2.86551E-002	2.86392E-002	5.56608E-004	...........
	3	1.03333	2.86545E-002	2.86378E-002	5.44875E-004	...........
	4	1.29167	2.86512E-002	2.86252E-002	5.40841E-004	...........
	5	1.55	2.86452E-002	2.86419E-002	5.62141E-004	...........
	6	1.80833	2.86392E-002	2.86302E-002	5.64108E-004	...........
	7	2.06667	2.86356E-002	2.86351E-002	5.46508E-004	...........
	8	2.325	2.86343E-002	2.86429E-002	5.42241E-004	...........
	9	2.58333	2.86353E-002	2.86638E-002	5.69174E-004	...........
	10	2.84167	2.86394E-002	2.86667E-002	5.62508E-004	...........
	11	3.1	2.86463E-002	2.86333E-002	5.41108E-004	...........
	12	3.35833	2.86505E-002	2.85846E-002	5.48441E-004	...........
	13	3.61667	2.86451E-002	2.85981E-002	5.63374E-004	...........
	14	3.875	2.86299E-002	2.85935E-002	5.56974E-004	...........
	15	4.13333	2.86126E-002	2.85846E-002	5.40675E-004	...........
	16	4.39167	2.85992E-002	2.85616E-002	5.53841E-004	...........
	17	4.65	2.85903E-002	2.86200E-002	5.53141E-004	...........
	18	4.90833	2.85864E-002	2.86026E-002	5.52874E-004	...........
	19	5.16667	2.85890E-002	2.86019E-002	5.47808E-004	...........
	20	5.425	2.85953E-002	2.85988E-002	5.53241E-004	...........
	21	5.68333	2.86000E-002	2.85971E-002	5.75674E-004	...........
	22	5.94167	2.86013E-002	2.86023E-002	5.63074E-004	...........
	23	6.2	2.86009E-002	2.86078E-002	5.51541E-004	...........
	24	6.45833	2.86008E-002	2.85929E-002	5.64408E-004	...........
	25	6.71667	2.86002E-002	2.85523E-002	5.65774E-004	...........
	26	6.975	2.85958E-002	2.85902E-002	5.45941E-004	...........
	27	7.23333	2.85878E-002	2.85673E-002	5.54808E-004	...........
	28	7.49167	2.85803E-002	2.85757E-002	5.71241E-004	...........
	29	7.75	2.85758E-002	2.85660E-002	5.63508E-004	...........
	30	8.00833	2.85730E-002	2.85547E-002	5.53708E-004	...........
	31	8.26667	2.85699E-002	2.85632E-002	5.52474E-004	...........
	32	8.525	2.85660E-002	2.85623E-002	5.62541E-004	...........
	33	8.78333	2.85626E-002	2.85414E-002	5.69174E-004	...........
	34	9.04167	2.85596E-002	2.85591E-002	5.56041E-004	...........
	35	9.3	2.85566E-002	2.85545E-002	5.52141E-004	...........
	36	9.5583	2.85544E-002	2.85498E-002	5.61541E-004	...........
	37	9.8167	2.85502E-002	2.83805E-002	5.62141E-004	...........
	38	10.075	2.85354E-002	2.85259E-002	5.62541E-004	...........
EOC	QUANT	0.0285354	Open Circuit (V)
PSTATMODEL	IQUANT	4	Pstat Model
PSTATSECTION	LABEL	REF600-11020	Pstat Section
PSTATSERIALNO	LABEL	11020	Pstat Serial Number
CTRLMODE	IQUANT	1	Control Mode
IESTAB	IQUANT	0	I/E Stability
CASPEED	IQUANT	1	Control Amp Speed
CONVENTION	IQUANT	1	Current Convention
ICHRANGE	IQUANT	2	Ich Range
ICHRANGEMODE	TOGGLE	F	Ich Auto Range
ICHOFFSETENABLE	TOGGLE	T	Ich Offset Enable
ICHOFFSET	QUANT	0	Ich Offset (V)
ICHFILTER	IQUANT	3	Ich Filter
VCHRANGE	IQUANT	2	Vch Range
VCHRANGEMODE	TOGGLE	F	Vch Auto Range
VCHOFFSETENABLE	TOGGLE	T	Vch Offset Enable
VCHOFFSET	QUANT	0	Vch Offset (V)
VCHFILTER	IQUANT	3	Vch Filter
ACHRANGE	IQUANT	2	Ach Range
ACHOFFSETENABLE	TOGGLE	F	Ach Offset Enable
ACHOFFSET	QUANT	0	Ach Offset (V)
ACHFILTER	IQUANT	1	Ach Filter
IERANGELOWERLIMIT	IQUANT	1	I/E Range Lower Limit
IERANGEMODE	TOGGLE	F	I/E AutoRange
IERANGE	IQUANT	7	I/E Range
POSFEEDENABLE	TOGGLE	F	Positive Feedback IR Comp
POSFEEDRESISTANCE	QUANT	0	Positive Feedback Resistance (ohm)
ACHSELECT	IQUANT	0	Ach Select
CABLEID	IQUANT	14	Cable ID
DCCALDATE	LABEL	9/1/2020	DC Calibration Date
ACCALDATE	LABEL	9/1/2020	AC Calibration Date
THERMOSELECT	IQUANT	1	Thermo Select
FRAMEWORKVERSION	QUANT	6.33	Framework Version
INSTRUMENTVERSION	LABEL	3.50	Instrument Version
ZCURVE	TABLE
	Pt	Time	Freq	Zreal	Zimag	Zsig	Zmod	Zphz	Idc	Vdc	IERange
	#	s	Hz	ohm	ohm	V	ohm	°	A	V	#
	0	1	1000078	1330.763	-3747.401	1	3976.675	-70.44923	1.550023E-007	0.0306452	8
	1	1	794390.6	1611.497	-4485.264	1	4765.975	-70.2373	1.084518E-008	0.0303085	8
	2	1	630984.4	1957.465	-5362.629	1	5708.718	-69.94693	1.086001E-008	0.0301796	8
	3	2	501234.4	2365.406	-6416.389	1	6838.508	-69.76356	1.191652E-008	0.0300605	8
	4	2	398109.4	2861.577	-7661.397	1	8178.364	-69.51904	4.176786E-009	0.0300071	8
	5	2	316265.6	3451.781	-9143.885	1	9773.71	-69.31867	6.619119E-009	0.0299735	8
	6	3	251203.1	4182.868	-10900.51	1	11675.51	-69.00662	1.481827E-007	0.0299669	8
	7	3	199546.9	5053.532	-13012.46	1	13959.31	-68.77577	6.702494E-008	0.0299625	8
	8	3	158578.1	6169.694	-15555.74	1	16734.58	-68.36581	5.078633E-008	0.0299544	8
	9	4	125953.1	7646.679	-18594.46	1	20105.37	-67.64586	-3.896711E-009	0.0299777	7
	10	4	100078.1	9477.226	-22194.95	1	24133.66	-66.87756	1.959937E-010	0.0299231	7
	11	4	79453.13	11779.81	-26407.46	1	28915.7	-65.95936	1.293016E-009	0.0299194	7
	12	5	63140.62	14735.59	-31234.82	1	34536.23	-64.74356	1.180187E-009	0.0299249	7
	13	5	50203.12	18617.29	-36592.58	1	41056.3	-63.03427	2.370838E-010	0.0299132	7
	14	5	39890.62	23508.25	-42606.52	1	48661.62	-61.11218	6.047843E-010	0.0299055	7
	15	5	31640.63	29526.92	-49149.73	1	57337.04	-59.00447	1.611639E-009	0.029916	7
	16	6	25171.88	36816.71	-55826.46	1	66873.49	-56.59575	1.570541E-009	0.0299117	7
	17	6	20015.62	45473.7	-62435.14	1	77239.91	-53.93284	8.134947E-010	0.0299075	7
	18	6	15890.62	55403.28	-69406.67	1	88807.71	-51.40168	2.009534E-009	0.0299106	7
	19	7	12609.37	67015.2	-75549.98	1	100989.3	-48.42597	4.155768E-010	0.0299112	6
	20	7	10078.13	79037.91	-81428.27	1	113479.3	-45.85344	4.381433E-010	0.0299137	6
	21	7	8015.625	92252.52	-86741.99	1	126628.2	-43.23665	2.718569E-010	0.0299079	6
	22	8	6328.125	106776.2	-91785.24	1	140803.7	-40.68249	4.208758E-010	0.0299056	6
	23	8	5015.625	121720.1	-96114.4	1	155092.7	-38.29583	4.674602E-010	0.0299143	6
	24	8	3984.375	136773.8	-99578.7	1	169183.3	-36.05663	4.179224E-010	0.0299015	6
	25	9	3170.956	151824.1	-102626	1	183255.7	-34.05687	3.25661E-010	0.0299063	6
	26	9	2527.573	166666.2	-105752.6	1	197386	-32.39585	4.628342E-010	0.0299136	6
	27	9	1976.103	182290.2	-109015.8	1	212400.9	-30.88087	3.83325E-010	0.0299059	6
	28	10	1577.524	196474.5	-113233.3	1	226768.6	-29.95595	4.966988E-010	0.0299113	6
	29	10	1265.625	211167.3	-115712	1	240792.2	-28.72114	1.567348E-010	0.0299074	5
	30	10	998.264	226371.3	-122673.1	1	257473.6	-28.45375	2.093259E-010	0.029895	5
	31	11	796.875	242516.8	-130173.2	1	275244.3	-28.22511	2.754871E-010	0.0298945	5
	32	11	627.7902	260516.8	-140142.2	1	295818.9	-28.27755	3.361004E-010	0.0298971	5
	33	11	505.5147	279056.2	-149374.2	1	316520.1	-28.15941	3.635374E-010	0.0298956	5
	34	12	397.9953	300968.2	-159660.9	1	340695.6	-27.94555	4.331704E-010	0.0299242	5
	35	12	315.5048	323090.2	-169261.8	1	364742.1	-27.64933	4.11406E-010	0.0299212	5
	36	12	252.4038	345793.8	-180955.9	1	390279.9	-27.62333	3.947098E-010	0.0299226	5
	37	13	198.6229	372254.6	-196011	1	420706.3	-27.76908	3.850028E-010	0.0299196	5
	38	13	158.3615	397411.2	-207313.3	1	448234.8	-27.54923	3.774717E-010	0.0299158	5
	39	13	125.558	425258.1	-223895.1	1	480597	-27.76646	3.600948E-010	0.0299201	5
	40	13	100.4464	454150.9	-241502.3	1	514369.9	-28.00255	3.610423E-010	0.0299174	5
	41	14	79.00281	486264.5	-261689	1	552208.5	-28.28744	2.963078E-010	0.0299161	5
	42	14	63.3446	516434.9	-280350.1	1	587623.4	-28.49561	2.398995E-010	0.0299149	5
	43	15	49.86702	551632.3	-306298.7	1	630965.2	-29.04161	2.757602E-010	0.0299107	5
	44	15	39.72458	588913.6	-335971.2	1	678008.8	-29.70446	2.424208E-010	0.0299191	5
	45	15	31.6723	631307.3	-376445.9	1	735024.1	-30.80745	2.823763E-010	0.0299151	5
	46	16	24.93351	675415.6	-416618.9	1	793572.7	-31.66767	3.32184E-010	0.0299106	5
	47	16	19.86229	733489.1	-473650.9	1	873127.3	-32.85237	5.124486E-010	0.0299161	5
	48	16	15.83615	789044.9	-517069.3	1	943373	-33.23724	7.725251E-011	0.0299128	5
	49	16	12.40079	875205	-595016.4	1	1058314	-34.21019	1.442636E-010	0.0299212	4
	50	17	9.93114	961099	-653885.6	1	1162444	-34.2295	-6.114522E-011	0.0299185	4
	51	17	7.944915	1062911	-712324.8	1	1279526	-33.82858	-1.528049E-010	0.0299157	4
	52	18	6.317385	1193110	-782503.4	1	1426823	-33.25893	1.766691E-010	0.029901	4
	53	18	5.008013	1326542	-828773	1	1564154	-31.99558	2.405769E-010	0.0299121	4
	54	19	3.945707	1483844	-873418.5	1	1721816	-30.48187	1.075868E-010	0.029905	4
	55	20	3.158693	1603727	-874112.4	1	1826476	-28.59262	1.473492E-010	0.0299064	4
	56	21	2.504006	1758700	-900083.7	1	1975646	-27.10288	1.345807E-010	0.0299083	4
	57	22	1.998082	1887593	-899728.6	1	2091057	-25.48499	3.952742E-011	0.0298643	4
	58	24	1.584686	1992341	-889506.8	1	2181890	-24.059	-8.695509E-011	0.0298851	4
	59	26	1.266892	2137836	-914023.9	1	2325034	-23.14895	8.26928E-012	0.0299182	4
	60	28	0.999041	2270147	-947185.6	1	2459822	-22.64763	2.732056E-011	0.0299365	4
