EXPLAIN
TAG	EISPOT
TITLE	LABEL	Potentiostatic EIS	Test &Identifier
DATE	LABEL	6/10/2021	Date
TIME	LABEL	15:32:28	Time
NOTES	NOTES	1	&Notes...
	
PSTAT	PSTAT	REF600-11020	Potentiostat
VDC	POTEN	0.00000E+000	T	DC &Voltage (V)
FREQINIT	QUANT	1.00000E+006	Initial Fre&q. (Hz)
FREQFINAL	QUANT	1.00000E+000	Final Fre&q. (Hz)
PTSPERDEC	QUANT	1.00000E+001	Points/&decade
VAC	QUANT	2.50000E+001	AC &Voltage (mV rms)
AREA	QUANT	4.00000E-005	&Area (cm^2)
CONDIT	TWOPARAM	F	5.00000E+000	0.00000E+000	Conditionin&g	Time(s)	E(V)
DELAY	TWOPARAM	F	3.00000E+000	0.00000E+000	Init. De&lay	Time(s)	Stab.(mV/s)
SPEED	SELECTOR	0	&Optimize for:
ZGUESS	QUANT	1.00000E+003	E&stimated Z (ohms)
OCVCURVE	TABLE	39
	Pt	T	Vf	Vm	Ach	Over
	#	s	V vs. Ref.	V	V	bits
	0	0.258333	-2.27935E-002	-2.27935E-002	5.53692E-004	...........
	1	0.516667	-2.27936E-002	-2.27969E-002	5.65525E-004	...........
	2	0.775	-2.27942E-002	-2.28087E-002	5.65525E-004	...........
	3	1.03333	-2.27963E-002	-2.28192E-002	5.63092E-004	...........
	4	1.29167	-2.28011E-002	-2.28298E-002	5.59525E-004	...........
	5	1.55	-2.28086E-002	-2.28361E-002	5.52659E-004	...........
	6	1.80833	-2.28175E-002	-2.28356E-002	5.61659E-004	...........
	7	2.06667	-2.28258E-002	-2.28427E-002	5.67158E-004	...........
	8	2.325	-2.28325E-002	-2.28520E-002	5.63092E-004	...........
	9	2.58333	-2.28384E-002	-2.28685E-002	5.55792E-004	...........
	10	2.84167	-2.28451E-002	-2.28645E-002	5.58259E-004	...........
	11	3.1	-2.28528E-002	-2.28702E-002	5.55159E-004	...........
	12	3.35833	-2.28605E-002	-2.28997E-002	5.58092E-004	...........
	13	3.61667	-2.28685E-002	-2.28991E-002	5.62125E-004	...........
	14	3.875	-2.28778E-002	-2.28845E-002	5.61959E-004	...........
	15	4.13333	-2.28860E-002	-2.28858E-002	5.64059E-004	...........
	16	4.39167	-2.28900E-002	-2.28959E-002	5.60559E-004	...........
	17	4.65	-2.28910E-002	-2.29039E-002	5.63025E-004	...........
	18	4.90833	-2.28924E-002	-2.29099E-002	5.63325E-004	...........
	19	5.16667	-2.28963E-002	-2.29160E-002	5.63258E-004	...........
	20	5.425	-2.29022E-002	-2.29220E-002	5.64925E-004	...........
	21	5.68333	-2.29087E-002	-2.29271E-002	5.67092E-004	...........
	22	5.94167	-2.29151E-002	-2.29330E-002	5.65058E-004	...........
	23	6.2	-2.29212E-002	-2.29379E-002	5.62925E-004	...........
	24	6.45833	-2.29269E-002	-2.29449E-002	5.61359E-004	...........
	25	6.71667	-2.29325E-002	-2.29502E-002	5.61559E-004	...........
	26	6.975	-2.29382E-002	-2.29574E-002	5.59892E-004	...........
	27	7.23333	-2.29441E-002	-2.29615E-002	5.64658E-004	...........
	28	7.49167	-2.29500E-002	-2.29654E-002	5.61192E-004	...........
	29	7.75	-2.29556E-002	-2.29716E-002	5.59325E-004	...........
	30	8.00833	-2.29609E-002	-2.29792E-002	5.62759E-004	...........
	31	8.26667	-2.29663E-002	-2.29883E-002	5.60859E-004	...........
	32	8.525	-2.29722E-002	-2.29835E-002	5.62859E-004	...........
	33	8.78333	-2.29780E-002	-2.29911E-002	5.66425E-004	...........
	34	9.04167	-2.29829E-002	-2.30000E-002	5.70525E-004	...........
	35	9.3	-2.29874E-002	-2.30045E-002	5.67858E-004	...........
	36	9.5583	-2.29924E-002	-2.30096E-002	5.66792E-004	...........
	37	9.8167	-2.29980E-002	-2.30149E-002	5.64059E-004	...........
	38	10.075	-2.30037E-002	-2.30202E-002	5.63925E-004	...........
EOC	QUANT	-0.0230037	Open Circuit (V)
PSTATMODEL	IQUANT	4	Pstat Model
PSTATSECTION	LABEL	REF600-11020	Pstat Section
PSTATSERIALNO	LABEL	11020	Pstat Serial Number
CTRLMODE	IQUANT	1	Control Mode
IESTAB	IQUANT	0	I/E Stability
CASPEED	IQUANT	1	Control Amp Speed
CONVENTION	IQUANT	1	Current Convention
ICHRANGE	IQUANT	2	Ich Range
ICHRANGEMODE	TOGGLE	F	Ich Auto Range
ICHOFFSETENABLE	TOGGLE	T	Ich Offset Enable
ICHOFFSET	QUANT	0	Ich Offset (V)
ICHFILTER	IQUANT	3	Ich Filter
VCHRANGE	IQUANT	2	Vch Range
VCHRANGEMODE	TOGGLE	F	Vch Auto Range
VCHOFFSETENABLE	TOGGLE	T	Vch Offset Enable
VCHOFFSET	QUANT	0	Vch Offset (V)
VCHFILTER	IQUANT	3	Vch Filter
ACHRANGE	IQUANT	2	Ach Range
ACHOFFSETENABLE	TOGGLE	F	Ach Offset Enable
ACHOFFSET	QUANT	0	Ach Offset (V)
ACHFILTER	IQUANT	3	Ach Filter
IERANGELOWERLIMIT	IQUANT	1	I/E Range Lower Limit
IERANGEMODE	TOGGLE	F	I/E AutoRange
IERANGE	IQUANT	7	I/E Range
POSFEEDENABLE	TOGGLE	F	Positive Feedback IR Comp
POSFEEDRESISTANCE	QUANT	0	Positive Feedback Resistance (ohm)
ACHSELECT	IQUANT	0	Ach Select
CABLEID	IQUANT	14	Cable ID
DCCALDATE	LABEL	9/1/2020	DC Calibration Date
ACCALDATE	LABEL	9/1/2020	AC Calibration Date
THERMOSELECT	IQUANT	1	Thermo Select
FRAMEWORKVERSION	QUANT	6.33	Framework Version
INSTRUMENTVERSION	LABEL	3.50	Instrument Version
ZCURVE	TABLE
	Pt	Time	Freq	Zreal	Zimag	Zsig	Zmod	Zphz	Idc	Vdc	IERange
	#	s	Hz	ohm	ohm	V	ohm	°	A	V	#
	0	1	1000078	1162.581	-3469.564	1	3659.162	-71.47504	1.232525E-008	-0.020872	8
	1	1	794390.6	1504.132	-4181.118	1	4443.44	-70.2141	4.073175E-008	-0.0211908	8
	2	2	630984.4	1960.688	-5000.732	1	5371.37	-68.59084	-2.668322E-008	-0.0213356	8
	3	2	501234.4	2557.957	-5955.486	1	6481.586	-66.75587	3.245631E-008	-0.0214692	8
	4	2	398109.4	3362.948	-6997.21	1	7763.4	-64.33047	-8.27759E-009	-0.0214998	8
	5	3	316265.6	4362.555	-8156.073	1	9249.509	-61.85838	3.357552E-008	-0.0215368	8
	6	3	251203.1	5648.027	-9361.203	1	10933.08	-58.89557	4.598259E-008	-0.0215758	8
	7	3	199546.9	7213.162	-10545.06	1	12776.07	-55.6266	7.544823E-008	-0.0215869	8
	8	4	158578.1	9059.273	-11562.66	1	14688.96	-51.92151	2.850784E-008	-0.0215787	8
	9	4	125953.1	11204.07	-12453.83	1	16751.98	-48.02392	-2.707525E-009	-0.0215751	7
	10	4	100078.1	13392.7	-13174.6	1	18786.55	-44.52966	-2.054787E-009	-0.0216018	7
	11	5	79453.13	15681.07	-13711.36	1	20830.2	-41.1661	-2.895452E-010	-0.0216102	7
	12	5	63140.62	17956.46	-14160.32	1	22868.08	-38.25904	-4.589488E-010	-0.0216083	7
	13	5	50203.12	20226.68	-14521.17	1	24899.46	-35.67539	-1.324874E-010	-0.0216064	7
	14	6	39890.62	22409.18	-14647.31	1	26771.54	-33.16984	-2.001066E-012	-0.0216174	7
	15	6	31640.63	24542.32	-14827.44	1	28673.65	-31.13861	2.275623E-010	-0.0216074	7
	16	6	25171.88	26562.71	-14966.11	1	30488.72	-29.39803	-4.489406E-010	-0.0216067	7
	17	7	20015.62	28689.57	-15388.99	1	32556.29	-28.20896	3.328853E-010	-0.0216123	7
	18	7	15890.62	30594.94	-15600.52	1	34342.79	-27.01727	4.774338E-010	-0.0216135	7
	19	7	12609.37	32814.79	-16046.65	1	36528.14	-26.05894	1.414229E-010	-0.0216179	6
	20	7	10078.13	34849.61	-16718.1	1	38652.17	-25.62803	1.509576E-010	-0.0216237	6
	21	8	8015.625	36850.44	-17478.67	1	40785.52	-25.37563	8.436559E-012	-0.0216224	6
	22	8	6328.125	39110.93	-18568.21	1	43294.84	-25.39639	1.908054E-010	-0.0216223	6
	23	8	5015.625	41272.92	-19736.32	1	45749.06	-25.55668	3.344176E-011	-0.0216325	6
	24	9	3984.375	43697.13	-21267.73	1	48597.9	-25.95254	4.516208E-011	-0.0216225	6
	25	9	3170.956	46454.7	-23194.63	1	51923.3	-26.53275	1.17202E-010	-0.0216198	6
	26	9	2527.573	49415.37	-25376.95	1	55550.6	-27.18248	2.123677E-010	-0.0216359	6
	27	10	1976.103	52697.23	-27931.48	1	59641.98	-27.92525	6.610069E-011	-0.0216234	6
	28	10	1577.524	55819.42	-30381.74	1	63552.01	-28.55885	1.517815E-011	-0.0216248	6
	29	10	1265.625	59133.4	-33160.54	1	67796.61	-29.28263	1.010788E-010	-0.0216332	6
	30	11	998.264	64479.52	-37094.1	1	74388.04	-29.91117	-5.519331E-011	-0.0216334	6
	31	11	796.875	68845.95	-40704.25	1	79978.75	-30.59314	1.055346E-010	-0.0216261	6
	32	11	627.7902	73755.31	-44883.27	1	86338.6	-31.32231	1.754366E-011	-0.0216302	6
	33	12	505.5147	79281.14	-49200.97	1	93307.21	-31.82327	-1.41965E-010	-0.021637	6
	34	12	397.9953	85685.66	-54300.6	1	101442.5	-32.3632	-3.409279E-011	-0.0216198	5
	35	12	315.5048	91671.29	-60131.18	1	109633	-33.26261	-2.910237E-011	-0.0216181	5
	36	13	252.4038	98471.5	-66547.72	1	118849.6	-34.05109	-4.783069E-011	-0.0216242	5
	37	13	198.6229	106715.7	-74519.47	1	130159.1	-34.92657	-3.923396E-011	-0.0216271	5
	38	13	158.3615	113667	-83203.96	1	140865.5	-36.20403	-4.792395E-011	-0.0216255	5
	39	14	125.558	123160	-93503.87	1	154632.9	-37.20601	-1.517994E-011	-0.0216257	5
	40	14	100.4464	131104	-105225.2	1	168108.8	-38.75082	-4.44412E-011	-0.0216285	5
	41	14	79.00281	140734.1	-120373.8	1	185191.7	-40.54129	-3.034527E-011	-0.0216312	5
	42	15	63.3446	150403.6	-137275.6	1	203631.6	-42.38717	-4.501727E-011	-0.0216316	5
	43	15	49.86702	161111.3	-159356.3	1	226608.2	-44.68623	-3.71418E-011	-0.0216284	5
	44	15	39.72458	171699.4	-185292.7	1	252614.5	-47.18062	-5.182977E-011	-0.021624	5
	45	16	31.6723	184357	-216836.8	1	284615	-49.62846	-5.919632E-011	-0.0216318	5
	46	16	24.93351	199250.4	-258222.1	1	326158.5	-52.34535	-1.010818E-010	-0.0216317	5
	47	16	19.86229	216072.9	-306710.8	1	375178.6	-54.8359	-3.112145E-010	-0.0216338	5
	48	16	15.83615	234051.7	-365113.7	1	433691.4	-57.3386	9.989402E-011	-0.0216294	5
	49	17	12.40079	259960.2	-442608.1	1	513304.2	-59.5727	-3.802754E-011	-0.0216285	5
	50	17	9.93114	287460.7	-528408.6	1	601539.1	-61.45327	5.399396E-011	-0.0216305	5
	51	17	7.944915	320466.3	-631500.3	1	708160.5	-63.09366	1.520774E-010	-0.0216314	5
	52	18	6.317385	364298.1	-760006.6	1	842806.7	-64.38995	-6.170007E-011	-0.0216151	5
	53	19	5.008013	417647.3	-915996.5	1	1006717	-65.48946	-6.51998E-011	-0.0216275	5
	54	20	3.945707	488055.9	-1109104	1	1211738	-66.24833	2.947413E-011	-0.0216209	4
	55	20	3.158693	568925.8	-1324320	1	1441353	-66.75171	-4.428304E-011	-0.021623	4
	56	21	2.504006	671146.5	-1587376	1	1723426	-67.08123	-1.757233E-011	-0.0216353	4
	57	23	1.998082	793333.6	-1891853	1	2051459	-67.24964	1.38607E-011	-0.0215938	4
	58	24	1.584686	944970.8	-2257358	1	2447169	-67.28493	-8.658105E-012	-0.021633	4
	59	26	1.266892	1133912	-2676597	1	2906875	-67.04057	-1.434162E-011	-0.0216718	4
	60	29	0.999041	1370166	-3205109	1	3485696	-66.85356	-1.638137E-011	-0.0216848	4
