EXPLAIN
TAG	EISPOT
TITLE	LABEL	Potentiostatic EIS	Test &Identifier
DATE	LABEL	6/10/2021	Date
TIME	LABEL	16:10:23	Time
NOTES	NOTES	1	&Notes...
	
PSTAT	PSTAT	REF600-11020	Potentiostat
VDC	POTEN	0.00000E+000	T	DC &Voltage (V)
FREQINIT	QUANT	1.00000E+006	Initial Fre&q. (Hz)
FREQFINAL	QUANT	1.00000E+000	Final Fre&q. (Hz)
PTSPERDEC	QUANT	1.00000E+001	Points/&decade
VAC	QUANT	2.50000E+001	AC &Voltage (mV rms)
AREA	QUANT	4.00000E-005	&Area (cm^2)
CONDIT	TWOPARAM	F	5.00000E+000	0.00000E+000	Conditionin&g	Time(s)	E(V)
DELAY	TWOPARAM	F	3.00000E+000	0.00000E+000	Init. De&lay	Time(s)	Stab.(mV/s)
SPEED	SELECTOR	0	&Optimize for:
ZGUESS	QUANT	1.00000E+003	E&stimated Z (ohms)
OCVCURVE	TABLE	39
	Pt	T	Vf	Vm	Ach	Over
	#	s	V vs. Ref.	V	V	bits
	0	0.258333	-4.23851E-002	-4.23851E-002	5.16359E-004	...........
	1	0.516667	-4.23853E-002	-4.23972E-002	5.21659E-004	...........
	2	0.775	-4.23865E-002	-4.23975E-002	5.23293E-004	...........
	3	1.03333	-4.23895E-002	-4.24109E-002	5.23726E-004	...........
	4	1.29167	-4.23945E-002	-4.24224E-002	5.25726E-004	...........
	5	1.55	-4.24015E-002	-4.24309E-002	5.19159E-004	...........
	6	1.80833	-4.24104E-002	-4.24405E-002	5.26259E-004	...........
	7	2.06667	-4.24201E-002	-4.24496E-002	5.21359E-004	...........
	8	2.325	-4.24299E-002	-4.24558E-002	5.19926E-004	...........
	9	2.58333	-4.24392E-002	-4.24642E-002	5.20226E-004	...........
	10	2.84167	-4.24478E-002	-4.24729E-002	5.21192E-004	...........
	11	3.1	-4.24559E-002	-4.24814E-002	5.18893E-004	...........
	12	3.35833	-4.24640E-002	-4.24892E-002	5.27992E-004	...........
	13	3.61667	-4.24721E-002	-4.24929E-002	5.30959E-004	...........
	14	3.875	-4.24799E-002	-4.25005E-002	5.24792E-004	...........
	15	4.13333	-4.24870E-002	-4.25059E-002	5.23526E-004	...........
	16	4.39167	-4.24934E-002	-4.25111E-002	5.25626E-004	...........
	17	4.65	-4.24995E-002	-4.25203E-002	5.18659E-004	...........
	18	4.90833	-4.25057E-002	-4.25293E-002	5.16826E-004	...........
	19	5.16667	-4.25125E-002	-4.25353E-002	5.15826E-004	...........
	20	5.425	-4.25197E-002	-4.25382E-002	5.20926E-004	...........
	21	5.68333	-4.25270E-002	-4.25526E-002	5.21459E-004	...........
	22	5.94167	-4.25342E-002	-4.25587E-002	5.22759E-004	...........
	23	6.2	-4.25417E-002	-4.25660E-002	5.28592E-004	...........
	24	6.45833	-4.25498E-002	-4.25820E-002	5.31259E-004	...........
	25	6.71667	-4.25591E-002	-4.26117E-002	5.31526E-004	...........
	26	6.975	-4.25710E-002	-4.26212E-002	5.22626E-004	...........
	27	7.23333	-4.25856E-002	-4.26089E-002	5.27859E-004	...........
	28	7.49167	-4.25994E-002	-4.26072E-002	5.28392E-004	...........
	29	7.75	-4.26081E-002	-4.26078E-002	5.26426E-004	...........
	30	8.00833	-4.26110E-002	-4.26222E-002	5.30726E-004	...........
	31	8.26667	-4.26119E-002	-4.26269E-002	5.22759E-004	...........
	32	8.525	-4.26144E-002	-4.26304E-002	5.27292E-004	...........
	33	8.78333	-4.26188E-002	-4.26233E-002	5.20792E-004	...........
	34	9.04167	-4.26232E-002	-4.26258E-002	5.29592E-004	...........
	35	9.3	-4.26259E-002	-4.26437E-002	5.21093E-004	...........
	36	9.5583	-4.26286E-002	-4.26617E-002	5.27526E-004	...........
	37	9.8167	-4.26344E-002	-4.26691E-002	5.30792E-004	...........
	38	10.075	-4.26438E-002	-4.26649E-002	5.24759E-004	...........
EOC	QUANT	-0.0426438	Open Circuit (V)
PSTATMODEL	IQUANT	4	Pstat Model
PSTATSECTION	LABEL	REF600-11020	Pstat Section
PSTATSERIALNO	LABEL	11020	Pstat Serial Number
CTRLMODE	IQUANT	1	Control Mode
IESTAB	IQUANT	0	I/E Stability
CASPEED	IQUANT	1	Control Amp Speed
CONVENTION	IQUANT	1	Current Convention
ICHRANGE	IQUANT	2	Ich Range
ICHRANGEMODE	TOGGLE	F	Ich Auto Range
ICHOFFSETENABLE	TOGGLE	T	Ich Offset Enable
ICHOFFSET	QUANT	0	Ich Offset (V)
ICHFILTER	IQUANT	3	Ich Filter
VCHRANGE	IQUANT	2	Vch Range
VCHRANGEMODE	TOGGLE	F	Vch Auto Range
VCHOFFSETENABLE	TOGGLE	T	Vch Offset Enable
VCHOFFSET	QUANT	0	Vch Offset (V)
VCHFILTER	IQUANT	3	Vch Filter
ACHRANGE	IQUANT	2	Ach Range
ACHOFFSETENABLE	TOGGLE	F	Ach Offset Enable
ACHOFFSET	QUANT	0	Ach Offset (V)
ACHFILTER	IQUANT	3	Ach Filter
IERANGELOWERLIMIT	IQUANT	1	I/E Range Lower Limit
IERANGEMODE	TOGGLE	F	I/E AutoRange
IERANGE	IQUANT	7	I/E Range
POSFEEDENABLE	TOGGLE	F	Positive Feedback IR Comp
POSFEEDRESISTANCE	QUANT	0	Positive Feedback Resistance (ohm)
ACHSELECT	IQUANT	0	Ach Select
CABLEID	IQUANT	14	Cable ID
DCCALDATE	LABEL	9/1/2020	DC Calibration Date
ACCALDATE	LABEL	9/1/2020	AC Calibration Date
THERMOSELECT	IQUANT	1	Thermo Select
FRAMEWORKVERSION	QUANT	6.33	Framework Version
INSTRUMENTVERSION	LABEL	3.50	Instrument Version
ZCURVE	TABLE
	Pt	Time	Freq	Zreal	Zimag	Zsig	Zmod	Zphz	Idc	Vdc	IERange
	#	s	Hz	ohm	ohm	V	ohm	°	A	V	#
	0	1	1000078	941.136	-3460.119	1	3585.828	-74.78393	3.557343E-008	-0.0406322	8
	1	2	794390.6	1190.173	-4208.938	1	4373.977	-74.21055	3.877676E-008	-0.0409643	8
	2	2	630984.4	1511.283	-5103.673	1	5322.729	-73.5051	3.807247E-008	-0.041106	8
	3	2	501234.4	1950.605	-6152.597	1	6454.402	-72.40942	-8.877442E-009	-0.0411782	8
	4	3	398109.4	2510.144	-7402.083	1	7816.115	-71.26752	8.063878E-008	-0.0412393	8
	5	3	316265.6	3202.756	-8836.417	1	9398.932	-70.07697	4.312322E-008	-0.0412639	8
	6	3	251203.1	4067.881	-10467.25	1	11229.91	-68.76241	4.894866E-008	-0.0412836	8
	7	4	199546.9	5114.879	-12367.83	1	13383.77	-67.53181	4.754348E-008	-0.0412946	8
	8	4	158578.1	6361.247	-14441.54	1	15780.48	-66.22734	4.375E-008	-0.041269	8
	9	4	125953.1	7914.289	-16950.36	1	18706.97	-64.97167	-1.628763E-009	-0.0412944	7
	10	5	100078.1	9612.63	-19774.85	1	21987.43	-64.07545	7.690522E-011	-0.0413141	7
	11	5	79453.13	11598.51	-23075.34	1	25826.28	-63.31422	1.248916E-010	-0.0413144	7
	12	5	63140.62	13986.53	-26958.31	1	30370.6	-62.57877	8.284229E-010	-0.0413253	7
	13	6	50203.12	16838.47	-31356.27	1	35591.43	-61.76399	-1.237415E-010	-0.0413274	7
	14	6	39890.62	20130.48	-36503.07	1	41685.86	-61.12443	1.192055E-009	-0.0413204	7
	15	6	31640.63	24285.05	-42487.12	1	48937.91	-60.24831	1.400048E-009	-0.0413259	7
	16	7	25171.88	29275.04	-49091.09	1	57157.36	-59.19064	7.477725E-010	-0.0413338	7
	17	7	20015.62	35315.43	-56453.43	1	66589.55	-57.97124	4.330421E-010	-0.0413391	7
	18	7	15890.62	42639.6	-64703.31	1	77489.7	-56.61504	6.812432E-010	-0.0413266	7
	19	8	12609.37	51368.88	-73893.68	1	89994.66	-55.19402	3.076867E-010	-0.0413256	6
	20	8	10078.13	61234.39	-83318.8	1	103400.5	-53.68631	2.666209E-010	-0.0413383	6
	21	8	8015.625	72680.43	-93636.33	1	118533.6	-52.18142	3.946227E-010	-0.0413255	6
	22	9	6328.125	86259.41	-104860.7	1	135780.9	-50.55896	3.923104E-010	-0.041329	6
	23	9	5015.625	101427.2	-116169.1	1	154216.5	-48.8758	2.836554E-010	-0.041338	6
	24	9	3984.375	118052.6	-128386	1	174411.5	-47.40106	3.751986E-010	-0.0413309	6
	25	10	3170.956	136560	-140182.7	1	195703.4	-45.75	1.134464E-010	-0.0413383	6
	26	10	2527.573	156483	-153249.2	1	219025.7	-44.40181	3.5929E-010	-0.0413362	6
	27	10	1976.103	180050.9	-167520.3	1	245929.6	-42.93528	3.354747E-010	-0.0413328	6
	28	10	1577.524	203412.6	-180774.9	1	272132.8	-41.62783	2.363684E-010	-0.0413418	6
	29	11	1265.625	229541.5	-192728.2	1	299722.3	-40.01757	-5.336879E-011	-0.0413426	5
	30	11	998.264	257675.2	-208821.3	1	331666.8	-39.02148	-2.476383E-011	-0.0413476	5
	31	11	796.875	286540.4	-225034	1	364342.8	-38.14426	-5.683759E-011	-0.0413419	5
	32	12	627.7902	319417.3	-243348.5	1	401554.3	-37.30201	-4.406978E-011	-0.0413473	5
	33	12	505.5147	351373.8	-261473.6	1	437986.3	-36.65465	-3.66181E-011	-0.0413441	5
	34	12	397.9953	390101.5	-283081.5	1	481990	-35.96694	-2.031838E-011	-0.0413263	5
	35	13	315.5048	430791.3	-305363.3	1	528041.6	-35.33064	-2.098543E-011	-0.0413278	5
	36	13	252.4038	474443.6	-328272	1	576939.5	-34.67973	-1.97782E-011	-0.0413323	5
	37	13	198.6229	525536.4	-353520.3	1	633376	-33.92812	-2.100865E-011	-0.0413292	5
	38	14	158.3615	578363.6	-377357.7	1	690581.8	-33.12274	-3.072688E-011	-0.0413316	5
	39	14	125.558	637379.6	-400809.9	1	752928.5	-32.16333	-4.270848E-011	-0.0413286	5
	40	14	100.4464	697402.5	-421772.9	1	815023.1	-31.16458	-1.177074E-011	-0.0413315	5
	41	15	79.00281	764759.6	-442218.3	1	883410.6	-30.03843	-3.037895E-011	-0.041334	5
	42	15	63.3446	828471	-460098.8	1	947657.7	-29.04599	-5.396093E-011	-0.0413302	4
	43	15	49.86702	895864.9	-478016.4	1	1015418	-28.08353	-1.796407E-011	-0.041332	4
	44	16	39.72458	958340	-495980.1	1	1079079	-27.36342	5.863658E-011	-0.0413314	4
	45	16	31.6723	1018191	-517460.8	1	1142138	-26.9404	-2.902349E-011	-0.0413355	4
	46	16	24.93351	1077770	-545915.8	1	1208145	-26.86328	7.964462E-011	-0.0413341	4
	47	17	19.86229	1130434	-583005.9	1	1271918	-27.28181	1.606994E-010	-0.041331	4
	48	17	15.83615	1183990	-632030.6	1	1342124	-28.09392	1.698318E-011	-0.0413389	4
	49	17	12.40079	1238701	-699526.2	1	1422574	-29.45452	2.019696E-010	-0.041336	4
	50	18	9.93114	1287413	-788084	1	1509473	-31.4727	1.268195E-010	-0.0413291	4
	51	18	7.944915	1342593	-895116.8	1	1613626	-33.69169	-1.112155E-010	-0.0413351	4
	52	18	6.317385	1403720	-1039272	1	1746573	-36.51512	1.076645E-011	-0.0413388	4
	53	19	5.008013	1474812	-1222313	1	1915495	-39.65168	5.348277E-011	-0.0413279	4
	54	20	3.945707	1564932	-1451556	1	2134485	-42.84752	-2.053927E-012	-0.0413447	4
	55	21	3.158693	1666834	-1717136	1	2393092	-45.85163	2.393913E-011	-0.0413222	4
	56	22	2.504006	1800167	-2043247	1	2723134	-48.6189	-2.041931E-011	-0.041331	4
	57	23	1.998082	1957940	-2425807	1	3117382	-51.09198	-1.824999E-011	-0.0413553	4
	58	25	1.584686	2162587	-2879211	1	3600923	-53.08964	4.592035E-012	-0.0413015	4
	59	27	1.266892	2402857	-3406772	1	4168911	-54.80401	2.758059E-012	-0.0412949	4
	60	29	0.999041	2698383	-4058934	1	4874035	-56.384	1.363093E-012	-0.0413113	4
