EXPLAIN
TAG	EISPOT
TITLE	LABEL	Potentiostatic EIS	Test &Identifier
DATE	LABEL	1/7/2021	Date
TIME	LABEL	16:37:34	Time
NOTES	NOTES	1	&Notes...
	
PSTAT	PSTAT	REF600-11020	Potentiostat
VDC	POTEN	0.00000E+000	T	DC &Voltage (V)
FREQINIT	QUANT	1.00000E+006	Initial Fre&q. (Hz)
FREQFINAL	QUANT	1.00000E+000	Final Fre&q. (Hz)
PTSPERDEC	QUANT	1.00000E+001	Points/&decade
VAC	QUANT	2.50000E+001	AC &Voltage (mV rms)
AREA	QUANT	4.00000E-005	&Area (cm^2)
CONDIT	TWOPARAM	F	5.00000E+000	0.00000E+000	Conditionin&g	Time(s)	E(V)
DELAY	TWOPARAM	F	3.00000E+000	0.00000E+000	Init. De&lay	Time(s)	Stab.(mV/s)
SPEED	SELECTOR	0	&Optimize for:
ZGUESS	QUANT	1.00000E+003	E&stimated Z (ohms)
OCVCURVE	TABLE	39
	Pt	T	Vf	Vm	Ach	Over
	#	s	V vs. Ref.	V	V	bits
	0	0.258333	7.53736E-002	7.53736E-002	5.32126E-004	...........
	1	0.516667	7.53735E-002	7.53653E-002	5.31392E-004	...........
	2	0.775	7.53725E-002	7.53569E-002	5.36926E-004	...........
	3	1.03333	7.53696E-002	7.53472E-002	5.29892E-004	...........
	4	1.29167	7.53644E-002	7.53397E-002	5.31459E-004	...........
	5	1.55	7.53571E-002	7.53300E-002	5.31459E-004	...........
	6	1.80833	7.53488E-002	7.53217E-002	5.33392E-004	...........
	7	2.06667	7.53400E-002	7.53150E-002	5.31992E-004	...........
	8	2.325	7.53314E-002	7.53076E-002	5.28559E-004	...........
	9	2.58333	7.53232E-002	7.52988E-002	5.31692E-004	...........
	10	2.84167	7.53153E-002	7.52906E-002	5.31326E-004	...........
	11	3.1	7.53075E-002	7.52842E-002	5.35792E-004	...........
	12	3.35833	7.52998E-002	7.52804E-002	5.32126E-004	...........
	13	3.61667	7.52925E-002	7.52733E-002	5.27492E-004	...........
	14	3.875	7.52858E-002	7.52629E-002	5.32892E-004	...........
	15	4.13333	7.52792E-002	7.52551E-002	5.34426E-004	...........
	16	4.39167	7.52721E-002	7.52472E-002	5.31892E-004	...........
	17	4.65	7.52645E-002	7.52503E-002	5.32059E-004	...........
	18	4.90833	7.52574E-002	7.52404E-002	5.40059E-004	...........
	19	5.16667	7.52514E-002	7.52297E-002	5.36626E-004	...........
	20	5.425	7.52457E-002	7.52208E-002	5.40959E-004	...........
	21	5.68333	7.52390E-002	7.52140E-002	5.36759E-004	...........
	22	5.94167	7.52312E-002	7.52115E-002	5.38126E-004	...........
	23	6.2	7.52234E-002	7.52034E-002	5.37059E-004	...........
	24	6.45833	7.52162E-002	7.51843E-002	5.39026E-004	...........
	25	6.71667	7.52086E-002	7.51799E-002	5.41592E-004	...........
	26	6.975	7.51998E-002	7.51726E-002	5.34492E-004	...........
	27	7.23333	7.51904E-002	7.51695E-002	5.32859E-004	...........
	28	7.49167	7.51817E-002	7.51601E-002	5.32259E-004	...........
	29	7.75	7.51743E-002	7.51513E-002	5.33626E-004	...........
	30	8.00833	7.51674E-002	7.51434E-002	5.35226E-004	...........
	31	8.26667	7.51601E-002	7.51381E-002	5.32959E-004	...........
	32	8.525	7.51526E-002	7.51326E-002	5.31059E-004	...........
	33	8.78333	7.51454E-002	7.51239E-002	5.27992E-004	...........
	34	9.04167	7.51386E-002	7.51203E-002	5.33726E-004	...........
	35	9.3	7.51322E-002	7.51141E-002	5.30092E-004	...........
	36	9.5583	7.51261E-002	7.51101E-002	5.32959E-004	...........
	37	9.8167	7.51203E-002	7.51002E-002	5.38792E-004	...........
	38	10.075	7.51146E-002	7.50946E-002	5.33426E-004	...........
EOC	QUANT	0.0751146	Open Circuit (V)
PSTATMODEL	IQUANT	4	Pstat Model
PSTATSECTION	LABEL	REF600-11020	Pstat Section
PSTATSERIALNO	LABEL	11020	Pstat Serial Number
CTRLMODE	IQUANT	1	Control Mode
IESTAB	IQUANT	0	I/E Stability
CASPEED	IQUANT	1	Control Amp Speed
CONVENTION	IQUANT	1	Current Convention
ICHRANGE	IQUANT	2	Ich Range
ICHRANGEMODE	TOGGLE	F	Ich Auto Range
ICHOFFSETENABLE	TOGGLE	T	Ich Offset Enable
ICHOFFSET	QUANT	0	Ich Offset (V)
ICHFILTER	IQUANT	3	Ich Filter
VCHRANGE	IQUANT	2	Vch Range
VCHRANGEMODE	TOGGLE	F	Vch Auto Range
VCHOFFSETENABLE	TOGGLE	T	Vch Offset Enable
VCHOFFSET	QUANT	0	Vch Offset (V)
VCHFILTER	IQUANT	3	Vch Filter
ACHRANGE	IQUANT	2	Ach Range
ACHOFFSETENABLE	TOGGLE	F	Ach Offset Enable
ACHOFFSET	QUANT	0	Ach Offset (V)
ACHFILTER	IQUANT	3	Ach Filter
IERANGELOWERLIMIT	IQUANT	1	I/E Range Lower Limit
IERANGEMODE	TOGGLE	F	I/E AutoRange
IERANGE	IQUANT	8	I/E Range
POSFEEDENABLE	TOGGLE	F	Positive Feedback IR Comp
POSFEEDRESISTANCE	QUANT	0	Positive Feedback Resistance (ohm)
ACHSELECT	IQUANT	0	Ach Select
CABLEID	IQUANT	14	Cable ID
DCCALDATE	LABEL	9/1/2020	DC Calibration Date
ACCALDATE	LABEL	9/1/2020	AC Calibration Date
THERMOSELECT	IQUANT	1	Thermo Select
FRAMEWORKVERSION	QUANT	6.33	Framework Version
INSTRUMENTVERSION	LABEL	3.50	Instrument Version
ZCURVE	TABLE
	Pt	Time	Freq	Zreal	Zimag	Zsig	Zmod	Zphz	Idc	Vdc	IERange
	#	s	Hz	ohm	ohm	V	ohm	°	A	V	#
	0	1	1000078	1449.581	-2691.646	1	3057.163	-61.6954	6.160957E-008	0.0770722	8
	1	1	794390.6	1789.534	-3131.573	1	3606.824	-60.25424	6.679586E-008	0.0767531	8
	2	2	630984.4	2211.759	-3612.442	1	4235.754	-58.52247	8.789213E-008	0.0766338	8
	3	2	501234.4	2713.016	-4129.278	1	4940.789	-56.69431	5.932388E-008	0.0765601	8
	4	2	398109.4	3313.073	-4668.364	1	5724.515	-54.6372	8.376717E-008	0.0765143	8
	5	3	316265.6	4019.263	-5232.759	1	6598.2	-52.47227	6.226951E-008	0.0764901	8
	6	3	251203.1	4820.12	-5809.875	1	7549.053	-50.31945	2.384119E-007	0.0764647	8
	7	3	199546.9	5752.773	-6390.764	1	8598.619	-48.00741	5.319568E-008	0.0764849	8
	8	4	158578.1	6797.552	-6932.102	1	9708.8	-45.56148	1.160314E-007	0.0765204	8
	9	4	125953.1	7965.838	-7445.378	1	10903.59	-43.06577	1.056389E-008	0.0765038	7
	10	4	100078.1	9233.402	-7918.048	1	12163.52	-40.61454	-3.36934E-009	0.0764681	7
	11	4	79453.13	10578.07	-8302.611	1	13447.26	-38.12798	-3.493573E-009	0.0764661	7
	12	5	63140.62	11978.1	-8613.192	1	14753.37	-35.71909	1.004249E-008	0.076456	7
	13	5	50203.12	13415.7	-8813.649	1	16051.83	-33.30353	6.527956E-009	0.0764639	7
	14	5	39890.62	14869.97	-8938.563	1	17349.75	-31.01072	-2.72706E-009	0.076454	7
	15	6	31640.63	16302.34	-8994.618	1	18619.06	-28.88718	5.794879E-009	0.0764636	7
	16	6	25171.88	17690.03	-8989.836	1	19843.24	-26.93907	-2.806455E-009	0.0764488	7
	17	6	20015.62	19031.25	-8985.57	1	21045.87	-25.27426	-4.911401E-010	0.0764418	7
	18	7	15890.62	20302.05	-8937.703	1	22182.33	-23.76085	6.843142E-009	0.0764571	7
	19	7	12609.37	21556.46	-8930.705	1	23333.21	-22.50391	-8.194774E-010	0.076447	6
	20	7	10078.13	22717.05	-8975.83	1	24426.01	-21.55968	-7.550962E-010	0.0764571	6
	21	8	8015.625	23868.28	-9091.936	1	25541.3	-20.8529	1.756159E-009	0.0764373	6
	22	8	6328.125	25032.14	-9297.676	1	26703.09	-20.37648	4.569349E-010	0.0764281	6
	23	8	5015.625	26189.35	-9611.34	1	27897.31	-20.15285	1.157979E-010	0.0764295	6
	24	9	3984.375	27343.57	-10029.68	1	29125	-20.14315	-8.093241E-010	0.0764523	6
	25	9	3170.956	28520.61	-10579.52	1	30419.59	-20.35198	-1.433311E-009	0.0764574	6
	26	9	2527.573	29762.11	-11266.83	1	31823.33	-20.7348	1.644896E-009	0.0764342	6
	27	10	1976.103	31161.56	-12183.03	1	33458.47	-21.35368	1.642236E-009	0.0764191	6
	28	10	1577.524	32562.69	-13197.29	1	35135.41	-22.06215	1.553792E-009	0.0764165	6
	29	10	1265.625	34026.17	-14365.52	1	36934.38	-22.889	-9.419954E-010	0.0764412	6
	30	11	998.264	35773.11	-15829.83	1	39119.03	-23.8697	-1.323641E-009	0.0764564	6
	31	11	796.875	37601.92	-17467.37	1	41460.99	-24.91647	8.241671E-010	0.0764157	6
	32	11	627.7902	39736.66	-19448.27	1	44240.68	-26.07846	-4.55303E-010	0.0764324	6
	33	12	505.5147	41885.82	-21492.36	1	47078.06	-27.16317	1.626924E-009	0.0764172	6
	34	12	397.9953	44523.39	-24078.38	1	50617.2	-28.40466	2.49806E-010	0.0764586	6
	35	12	315.5048	47364.75	-26933.5	1	54486.99	-29.6243	3.185243E-010	0.0764583	6
	36	13	252.4038	50387.88	-30046.98	1	58666.52	-30.8082	2.986782E-010	0.0764531	6
	37	13	198.6229	53975.9	-33851.66	1	63712.89	-32.09439	3.404786E-010	0.0764557	6
	38	13	158.3615	57722.29	-37963.52	1	69087.57	-33.33262	4.136011E-010	0.0764568	6
	39	13	125.558	61961.53	-42804.66	1	75309.16	-34.63774	3.76377E-010	0.0764561	6
	40	14	100.4464	66457.7	-48162.64	1	82074.75	-35.93127	3.730615E-010	0.0764472	6
	41	14	79.00281	71836.02	-54842.31	1	90377.5	-37.35947	3.156312E-010	0.0764481	6
	42	14	63.3446	77302.96	-61907.21	1	99036.6	-38.6891	-1.444043E-010	0.076441	5
	43	15	49.86702	83919.43	-70899.7	1	109860.1	-40.19294	1.890794E-011	0.0764401	5
	44	15	39.72458	90932.29	-80890.64	1	121704.5	-41.65533	-1.924062E-010	0.0764432	5
	45	16	31.6723	98742.7	-92526.84	1	135319.4	-43.13867	-1.071215E-010	0.0764419	5
	46	16	24.93351	107980.2	-107018.7	1	152028.7	-44.74377	-6.329903E-011	0.07644	5
	47	16	19.86229	117845.2	-123476.2	1	170686.4	-46.3367	-8.288128E-010	0.0764357	5
	48	16	15.83615	129237.5	-142766.6	1	192573.7	-47.84746	6.876506E-010	0.0764352	5
	49	17	12.40079	143316.7	-167616	1	220533	-49.46858	2.939635E-010	0.0764393	5
	50	17	9.93114	158552.7	-194581.1	1	250999.5	-50.82543	5.162379E-010	0.0764398	5
	51	17	7.944915	176317	-226386	1	286946.5	-52.08734	9.624581E-010	0.0764388	5
	52	18	6.317385	199365.1	-265032.9	1	331645.8	-53.0485	-2.017127E-010	0.0764606	5
	53	19	5.008013	228056.1	-310525.4	1	385273.4	-53.7057	-2.722641E-010	0.0764446	5
	54	20	3.945707	263806.7	-363089	1	448806.8	-53.99927	2.17079E-010	0.0764461	5
	55	20	3.158693	305024.1	-418734.6	1	518052.5	-53.92881	-1.860983E-010	0.0764443	5
	56	21	2.504006	354951	-482078.8	1	598657	-53.63607	-3.809116E-011	0.0764296	5
	57	23	1.998082	411949.7	-549868.9	1	687065	-53.16026	1.727788E-010	0.0764729	5
	58	24	1.584686	476071.3	-625910.8	1	786389.3	-52.74318	1.051555E-010	0.0764426	5
	59	26	1.266892	547687.8	-705533.8	1	893162.8	-52.17873	2.220101E-011	0.0764005	5
	60	29	0.999041	632011.8	-802575.8	1	1021551	-51.7803	-5.438937E-011	0.0763903	4
