EXPLAIN
TAG	EISPOT
TITLE	LABEL	Potentiostatic EIS	Test &Identifier
DATE	LABEL	6/10/2021	Date
TIME	LABEL	15:26:59	Time
NOTES	NOTES	1	&Notes...
	
PSTAT	PSTAT	REF600-11020	Potentiostat
VDC	POTEN	0.00000E+000	T	DC &Voltage (V)
FREQINIT	QUANT	1.00000E+006	Initial Fre&q. (Hz)
FREQFINAL	QUANT	1.00000E+000	Final Fre&q. (Hz)
PTSPERDEC	QUANT	1.00000E+001	Points/&decade
VAC	QUANT	2.50000E+001	AC &Voltage (mV rms)
AREA	QUANT	4.00000E-005	&Area (cm^2)
CONDIT	TWOPARAM	F	5.00000E+000	0.00000E+000	Conditionin&g	Time(s)	E(V)
DELAY	TWOPARAM	F	3.00000E+000	0.00000E+000	Init. De&lay	Time(s)	Stab.(mV/s)
SPEED	SELECTOR	0	&Optimize for:
ZGUESS	QUANT	1.00000E+003	E&stimated Z (ohms)
OCVCURVE	TABLE	39
	Pt	T	Vf	Vm	Ach	Over
	#	s	V vs. Ref.	V	V	bits
	0	0.258333	-4.50598E-002	-4.50598E-002	5.25126E-004	...........
	1	0.516667	-4.50639E-002	-4.52787E-002	5.21659E-004	...........
	2	0.775	-4.50885E-002	-4.54292E-002	5.25092E-004	...........
	3	1.03333	-4.51542E-002	-4.55585E-002	5.21326E-004	...........
	4	1.29167	-4.52632E-002	-4.56738E-002	5.22226E-004	...........
	5	1.55	-4.53962E-002	-4.57919E-002	5.22893E-004	...........
	6	1.80833	-4.55318E-002	-4.59066E-002	5.27126E-004	...........
	7	2.06667	-4.56599E-002	-4.60036E-002	5.22492E-004	...........
	8	2.325	-4.57789E-002	-4.60982E-002	5.13226E-004	...........
	9	2.58333	-4.58892E-002	-4.61888E-002	5.17926E-004	...........
	10	2.84167	-4.59917E-002	-4.62698E-002	5.14726E-004	...........
	11	3.1	-4.60874E-002	-4.63502E-002	5.15026E-004	...........
	12	3.35833	-4.61769E-002	-4.64240E-002	5.16393E-004	...........
	13	3.61667	-4.62611E-002	-4.64945E-002	5.14526E-004	...........
	14	3.875	-4.63404E-002	-4.65578E-002	5.19326E-004	...........
	15	4.13333	-4.64150E-002	-4.66220E-002	5.13593E-004	...........
	16	4.39167	-4.64853E-002	-4.66826E-002	5.16393E-004	...........
	17	4.65	-4.65518E-002	-4.67425E-002	5.22326E-004	...........
	18	4.90833	-4.66154E-002	-4.67976E-002	5.23426E-004	...........
	19	5.16667	-4.66766E-002	-4.68526E-002	5.22792E-004	...........
	20	5.425	-4.67355E-002	-4.69048E-002	5.25759E-004	...........
	21	5.68333	-4.67921E-002	-4.69528E-002	5.27092E-004	...........
	22	5.94167	-4.68465E-002	-4.70022E-002	5.19759E-004	...........
	23	6.2	-4.68986E-002	-4.70477E-002	5.23392E-004	...........
	24	6.45833	-4.69486E-002	-4.70941E-002	5.18726E-004	...........
	25	6.71667	-4.69969E-002	-4.71358E-002	5.25492E-004	...........
	26	6.975	-4.70435E-002	-4.71797E-002	5.28926E-004	...........
	27	7.23333	-4.70887E-002	-4.72203E-002	5.24259E-004	...........
	28	7.49167	-4.71325E-002	-4.72606E-002	5.29492E-004	...........
	29	7.75	-4.71750E-002	-4.73007E-002	5.24559E-004	...........
	30	8.00833	-4.72165E-002	-4.73391E-002	5.21593E-004	...........
	31	8.26667	-4.72570E-002	-4.73710E-002	5.19092E-004	...........
	32	8.525	-4.72961E-002	-4.74089E-002	5.22826E-004	...........
	33	8.78333	-4.73336E-002	-4.74440E-002	5.19859E-004	...........
	34	9.04167	-4.73699E-002	-4.74773E-002	5.19726E-004	...........
	35	9.3	-4.74054E-002	-4.75120E-002	5.20526E-004	...........
	36	9.5583	-4.74404E-002	-4.75451E-002	5.28992E-004	...........
	37	9.8167	-4.74748E-002	-4.75755E-002	5.23426E-004	...........
	38	10.075	-4.75085E-002	-4.76079E-002	5.29426E-004	...........
EOC	QUANT	-0.0475085	Open Circuit (V)
PSTATMODEL	IQUANT	4	Pstat Model
PSTATSECTION	LABEL	REF600-11020	Pstat Section
PSTATSERIALNO	LABEL	11020	Pstat Serial Number
CTRLMODE	IQUANT	1	Control Mode
IESTAB	IQUANT	0	I/E Stability
CASPEED	IQUANT	1	Control Amp Speed
CONVENTION	IQUANT	1	Current Convention
ICHRANGE	IQUANT	2	Ich Range
ICHRANGEMODE	TOGGLE	F	Ich Auto Range
ICHOFFSETENABLE	TOGGLE	T	Ich Offset Enable
ICHOFFSET	QUANT	0	Ich Offset (V)
ICHFILTER	IQUANT	3	Ich Filter
VCHRANGE	IQUANT	2	Vch Range
VCHRANGEMODE	TOGGLE	F	Vch Auto Range
VCHOFFSETENABLE	TOGGLE	T	Vch Offset Enable
VCHOFFSET	QUANT	0	Vch Offset (V)
VCHFILTER	IQUANT	3	Vch Filter
ACHRANGE	IQUANT	2	Ach Range
ACHOFFSETENABLE	TOGGLE	F	Ach Offset Enable
ACHOFFSET	QUANT	0	Ach Offset (V)
ACHFILTER	IQUANT	3	Ach Filter
IERANGELOWERLIMIT	IQUANT	1	I/E Range Lower Limit
IERANGEMODE	TOGGLE	F	I/E AutoRange
IERANGE	IQUANT	7	I/E Range
POSFEEDENABLE	TOGGLE	F	Positive Feedback IR Comp
POSFEEDRESISTANCE	QUANT	0	Positive Feedback Resistance (ohm)
ACHSELECT	IQUANT	0	Ach Select
CABLEID	IQUANT	14	Cable ID
DCCALDATE	LABEL	9/1/2020	DC Calibration Date
ACCALDATE	LABEL	9/1/2020	AC Calibration Date
THERMOSELECT	IQUANT	1	Thermo Select
FRAMEWORKVERSION	QUANT	6.33	Framework Version
INSTRUMENTVERSION	LABEL	3.50	Instrument Version
ZCURVE	TABLE
	Pt	Time	Freq	Zreal	Zimag	Zsig	Zmod	Zphz	Idc	Vdc	IERange
	#	s	Hz	ohm	ohm	V	ohm	°	A	V	#
	0	2	1000078	1479.412	-2700.509	1	3079.19	-61.28487	-4.783262E-009	-0.0454047	8
	1	2	794390.6	1777.346	-3117.645	1	3588.686	-60.31286	5.912547E-008	-0.045694	8
	2	2	630984.4	2114.708	-3594.086	1	4170.065	-59.52807	3.598269E-008	-0.0458647	8
	3	3	501234.4	2501.362	-4135.777	1	4833.37	-58.83401	1.391018E-007	-0.0459498	8
	4	3	398109.4	2946.474	-4772.619	1	5608.886	-58.31004	3.158214E-008	-0.046014	8
	5	3	316265.6	3455.375	-5508.516	1	6502.565	-57.90083	5.816723E-008	-0.0460306	8
	6	3	251203.1	4062.539	-6371.447	1	7556.425	-57.47775	1.194379E-009	-0.0460458	8
	7	4	199546.9	4802.828	-7346.627	1	8777.248	-56.82551	8.339237E-008	-0.0460366	8
	8	4	158578.1	5686.516	-8499.564	1	10226.39	-56.21605	5.534843E-008	-0.0460437	8
	9	4	125953.1	6877.129	-9757.46	1	11937.46	-54.82353	7.35896E-009	-0.0460668	7
	10	5	100078.1	8238.639	-11108.87	1	13830.48	-53.43837	-6.572516E-010	-0.0460754	7
	11	5	79453.13	9858.29	-12596.83	1	15995.81	-51.95324	-7.700788E-010	-0.0460702	7
	12	5	63140.62	11812.38	-14112.37	1	18403.57	-50.0699	-3.022009E-010	-0.0460889	7
	13	6	50203.12	14039.55	-15577.17	1	20970.39	-47.97197	-8.990052E-010	-0.0460821	7
	14	6	39890.62	16584.65	-17021.63	1	23765.24	-45.74498	7.165302E-010	-0.0460888	7
	15	6	31640.63	19384.35	-18283.26	1	26646.4	-43.32562	-1.195208E-010	-0.0460936	7
	16	7	25171.88	22318.63	-19440.86	1	29598.45	-41.05782	-7.451148E-011	-0.0460935	7
	17	7	20015.62	25356.77	-20410.9	1	32551.04	-38.83229	-4.89101E-010	-0.0460864	7
	18	7	15890.62	28495.29	-21402.76	1	35637.89	-36.91015	7.002758E-010	-0.0460897	7
	19	8	12609.37	31756.2	-22150.75	1	38718.37	-34.89674	1.553297E-010	-0.0460941	6
	20	8	10078.13	34764.98	-23085.56	1	41731.84	-33.58601	1.140761E-010	-0.0460826	6
	21	8	8015.625	37822.29	-24178.49	1	44890.15	-32.58938	1.765837E-010	-0.0460832	6
	22	9	6328.125	41002.79	-25474.75	1	48272.06	-31.8524	7.79764E-011	-0.0460926	6
	23	9	5015.625	44187.09	-27051.06	1	51809.83	-31.47471	2.345608E-010	-0.0460885	6
	24	9	3984.375	47447.08	-28945.08	1	55579.16	-31.38527	6.875639E-012	-0.046089	6
	25	10	3170.956	50830.6	-31235.31	1	59660.66	-31.57065	1.325145E-010	-0.0460926	6
	26	10	2527.573	54394.89	-33964.54	1	64127.95	-31.98093	1.201121E-010	-0.0460932	6
	27	10	1976.103	58635.1	-37532.36	1	69618.62	-32.62333	1.476186E-010	-0.0460971	6
	28	10	1577.524	62905.94	-41429.89	1	75323.26	-33.36892	6.563868E-011	-0.0460981	6
	29	11	1265.625	67560.36	-45802.35	1	81622.65	-34.13519	2.949329E-011	-0.0460966	6
	30	11	998.264	73316.57	-51333.27	1	89500.98	-34.99814	1.078513E-010	-0.0460907	6
	31	11	796.875	79836.73	-56648.65	1	97892.7	-35.35784	-1.662669E-010	-0.0461046	5
	32	12	627.7902	87247.82	-63661.88	1	108004.7	-36.117	-1.312782E-010	-0.0460992	5
	33	12	505.5147	94879.73	-70636.01	1	118286.1	-36.66692	-1.466217E-010	-0.0460964	5
	34	12	397.9953	104353.4	-78916.13	1	130833.4	-37.09801	-3.01477E-011	-0.0460794	5
	35	13	315.5048	114411.6	-87585.84	1	144087.8	-37.43525	-2.904725E-011	-0.0460819	5
	36	13	252.4038	124738.1	-96638.6	1	157792.9	-37.76609	-2.864574E-011	-0.0460804	5
	37	13	198.6229	136369	-107454.5	1	173617.3	-38.237	-2.305947E-011	-0.0460809	5
	38	14	158.3615	147779.4	-119172.6	1	189844.3	-38.88349	-4.176291E-011	-0.046085	5
	39	14	125.558	159843.3	-133316.4	1	208142.1	-39.8296	-2.89647E-011	-0.0460851	5
	40	14	100.4464	171901.9	-149626.6	1	227899.9	-41.03691	-2.209647E-011	-0.0460876	5
	41	15	79.00281	185537	-170952.5	1	252287	-42.65725	-2.763638E-011	-0.0460904	5
	42	15	63.3446	199011.8	-194990.9	1	278616.4	-44.41531	-2.164149E-011	-0.0460891	5
	43	15	49.86702	214825.7	-226763.4	1	312364.8	-46.54852	-6.194775E-011	-0.0460919	5
	44	16	39.72458	231558.6	-263722.1	1	350954	-48.71557	-7.004418E-012	-0.0460901	5
	45	16	31.6723	250351.4	-308434.3	1	397250	-50.93429	-7.475744E-012	-0.0460936	5
	46	16	24.93351	273117.7	-365969.5	1	456647.5	-53.26656	-8.11439E-011	-0.0460941	5
	47	17	19.86229	297955.3	-432767.3	1	525418.8	-55.45304	-1.704288E-010	-0.0460926	5
	48	17	15.83615	326805.1	-512582	1	607899.6	-57.47978	1.864121E-011	-0.046092	5
	49	17	12.40079	363413.3	-617319.6	1	716346.8	-59.51487	9.984725E-011	-0.0460929	5
	50	17	9.93114	402103.3	-732868.8	1	835932.9	-61.24773	9.785499E-011	-0.0460894	5
	51	18	7.944915	448300.1	-873009.7	1	981386	-62.819	-2.822939E-011	-0.0460939	5
	52	18	6.317385	505534.3	-1048014	1	1163572	-64.24857	-1.43312E-012	-0.0460846	4
	53	19	5.008013	575888.4	-1261820	1	1387025	-65.46828	1.752756E-011	-0.0460824	4
	54	20	3.945707	663725.1	-1529036	1	1666878	-66.53526	3.504081E-011	-0.046092	4
	55	21	3.158693	766094.8	-1827104	1	1981214	-67.25196	-5.025477E-012	-0.0460753	4
	56	22	2.504006	897742.6	-2202508	1	2378441	-67.82418	-2.181147E-011	-0.0460923	4
	57	23	1.998082	1057499	-2632379	1	2836851	-68.11331	7.996943E-012	-0.0460621	4
	58	25	1.584686	1256514	-3170576	1	3410480	-68.38135	4.272778E-012	-0.0460554	4
	59	27	1.266892	1494896	-3774979	1	4060195	-68.39638	-3.630277E-012	-0.0460838	4
	60	29	0.999041	1819608	-4535037	1	4886465	-68.1377	-6.106287E-012	-0.0461143	4
