EXPLAIN
TAG	EISPOT
TITLE	LABEL	Potentiostatic EIS	Test &Identifier
DATE	LABEL	1/7/2021	Date
TIME	LABEL	16:19:18	Time
NOTES	NOTES	1	&Notes...
	
PSTAT	PSTAT	REF600-11020	Potentiostat
VDC	POTEN	0.00000E+000	T	DC &Voltage (V)
FREQINIT	QUANT	1.00000E+006	Initial Fre&q. (Hz)
FREQFINAL	QUANT	1.00000E+000	Final Fre&q. (Hz)
PTSPERDEC	QUANT	1.00000E+001	Points/&decade
VAC	QUANT	2.50000E+001	AC &Voltage (mV rms)
AREA	QUANT	4.00000E-005	&Area (cm^2)
CONDIT	TWOPARAM	F	5.00000E+000	0.00000E+000	Conditionin&g	Time(s)	E(V)
DELAY	TWOPARAM	F	3.00000E+000	0.00000E+000	Init. De&lay	Time(s)	Stab.(mV/s)
SPEED	SELECTOR	0	&Optimize for:
ZGUESS	QUANT	1.00000E+003	E&stimated Z (ohms)
OCVCURVE	TABLE	39
	Pt	T	Vf	Vm	Ach	Over
	#	s	V vs. Ref.	V	V	bits
	0	0.258333	8.12955E-002	8.12955E-002	5.36492E-004	...........
	1	0.516667	8.12954E-002	8.12914E-002	5.33659E-004	...........
	2	0.775	8.12950E-002	8.12905E-002	5.33059E-004	...........
	3	1.03333	8.12940E-002	8.12941E-002	5.38692E-004	...........
	4	1.29167	8.12928E-002	8.12798E-002	5.34026E-004	...........
	5	1.55	8.12910E-002	8.12758E-002	5.29159E-004	...........
	6	1.80833	8.12877E-002	8.12743E-002	5.28359E-004	...........
	7	2.06667	8.12831E-002	8.12707E-002	5.34892E-004	...........
	8	2.325	8.12785E-002	8.12699E-002	5.35659E-004	...........
	9	2.58333	8.12747E-002	8.12684E-002	5.36026E-004	...........
	10	2.84167	8.12719E-002	8.12659E-002	5.35726E-004	...........
	11	3.1	8.12698E-002	8.12615E-002	5.31826E-004	...........
	12	3.35833	8.12677E-002	8.12609E-002	5.35626E-004	...........
	13	3.61667	8.12654E-002	8.12577E-002	5.27426E-004	...........
	14	3.875	8.12628E-002	8.12500E-002	5.36959E-004	...........
	15	4.13333	8.12598E-002	8.12464E-002	5.33326E-004	...........
	16	4.39167	8.12561E-002	8.12438E-002	5.31126E-004	...........
	17	4.65	8.12518E-002	8.12389E-002	5.28559E-004	...........
	18	4.90833	8.12476E-002	8.12374E-002	5.28726E-004	...........
	19	5.16667	8.12437E-002	8.12314E-002	5.30426E-004	...........
	20	5.425	8.12400E-002	8.12280E-002	5.35192E-004	...........
	21	5.68333	8.12362E-002	8.12249E-002	5.35059E-004	...........
	22	5.94167	8.12325E-002	8.12224E-002	5.26759E-004	...........
	23	6.2	8.12289E-002	8.12213E-002	5.31826E-004	...........
	24	6.45833	8.12261E-002	8.12370E-002	5.24426E-004	...........
	25	6.71667	8.12253E-002	8.12337E-002	5.31359E-004	...........
	26	6.975	8.12270E-002	8.12278E-002	5.30392E-004	...........
	27	7.23333	8.12292E-002	8.12183E-002	5.32092E-004	...........
	28	7.49167	8.12292E-002	8.12152E-002	5.29292E-004	...........
	29	7.75	8.12263E-002	8.12106E-002	5.29592E-004	...........
	30	8.00833	8.12214E-002	8.12067E-002	5.30192E-004	...........
	31	8.26667	8.12162E-002	8.12029E-002	5.32659E-004	...........
	32	8.525	8.12114E-002	8.11983E-002	5.30292E-004	...........
	33	8.78333	8.12070E-002	8.11939E-002	5.32326E-004	...........
	34	9.04167	8.12029E-002	8.11933E-002	5.33859E-004	...........
	35	9.3	8.11990E-002	8.11891E-002	5.38059E-004	...........
	36	9.5583	8.11956E-002	8.11874E-002	5.36726E-004	...........
	37	9.8167	8.11926E-002	8.11803E-002	5.39592E-004	...........
	38	10.075	8.11894E-002	8.11749E-002	5.33692E-004	...........
EOC	QUANT	0.0811894	Open Circuit (V)
PSTATMODEL	IQUANT	4	Pstat Model
PSTATSECTION	LABEL	REF600-11020	Pstat Section
PSTATSERIALNO	LABEL	11020	Pstat Serial Number
CTRLMODE	IQUANT	1	Control Mode
IESTAB	IQUANT	0	I/E Stability
CASPEED	IQUANT	1	Control Amp Speed
CONVENTION	IQUANT	1	Current Convention
ICHRANGE	IQUANT	2	Ich Range
ICHRANGEMODE	TOGGLE	F	Ich Auto Range
ICHOFFSETENABLE	TOGGLE	T	Ich Offset Enable
ICHOFFSET	QUANT	0	Ich Offset (V)
ICHFILTER	IQUANT	3	Ich Filter
VCHRANGE	IQUANT	2	Vch Range
VCHRANGEMODE	TOGGLE	F	Vch Auto Range
VCHOFFSETENABLE	TOGGLE	T	Vch Offset Enable
VCHOFFSET	QUANT	0	Vch Offset (V)
VCHFILTER	IQUANT	3	Vch Filter
ACHRANGE	IQUANT	2	Ach Range
ACHOFFSETENABLE	TOGGLE	F	Ach Offset Enable
ACHOFFSET	QUANT	0	Ach Offset (V)
ACHFILTER	IQUANT	3	Ach Filter
IERANGELOWERLIMIT	IQUANT	1	I/E Range Lower Limit
IERANGEMODE	TOGGLE	F	I/E AutoRange
IERANGE	IQUANT	8	I/E Range
POSFEEDENABLE	TOGGLE	F	Positive Feedback IR Comp
POSFEEDRESISTANCE	QUANT	0	Positive Feedback Resistance (ohm)
ACHSELECT	IQUANT	0	Ach Select
CABLEID	IQUANT	14	Cable ID
DCCALDATE	LABEL	9/1/2020	DC Calibration Date
ACCALDATE	LABEL	9/1/2020	AC Calibration Date
THERMOSELECT	IQUANT	1	Thermo Select
FRAMEWORKVERSION	QUANT	6.33	Framework Version
INSTRUMENTVERSION	LABEL	3.50	Instrument Version
ZCURVE	TABLE
	Pt	Time	Freq	Zreal	Zimag	Zsig	Zmod	Zphz	Idc	Vdc	IERange
	#	s	Hz	ohm	ohm	V	ohm	°	A	V	#
	0	1	1000078	1548.412	-2607.25	1	3032.381	-59.29447	7.352821E-008	0.0833403	8
	1	2	794390.6	1984.368	-2989.231	1	3587.927	-56.42224	4.5486E-008	0.0830154	8
	2	2	630984.4	2529.227	-3357.502	1	4203.547	-53.00906	6.880816E-008	0.0828958	8
	3	2	501234.4	3182.926	-3672.238	1	4859.666	-49.08277	9.864154E-008	0.0827646	8
	4	3	398109.4	3915.93	-3907.004	1	5531.653	-44.93462	3.443499E-008	0.0827334	8
	5	3	316265.6	4711.019	-4014.043	1	6189.203	-40.4328	9.600556E-008	0.0826845	8
	6	3	251203.1	5513.779	-3996.678	1	6809.934	-35.93658	6.45786E-008	0.0827254	8
	7	4	199546.9	6280.345	-3871.327	1	7377.663	-31.65049	1.252061E-007	0.0826931	8
	8	4	158578.1	6980.162	-3655.992	1	7879.653	-27.64415	6.232222E-008	0.0827003	8
	9	4	125953.1	7586.592	-3373.053	1	8302.642	-23.97027	2.627138E-008	0.0826879	7
	10	5	100078.1	8087.944	-3076.704	1	8653.378	-20.82712	-3.485607E-009	0.0826713	7
	11	5	79453.13	8504.244	-2806.241	1	8955.287	-18.26192	-7.008097E-009	0.0826618	7
	12	5	63140.62	8843.976	-2562.519	1	9207.736	-16.15881	8.733571E-009	0.0826507	7
	13	6	50203.12	9128.155	-2354.104	1	9426.825	-14.46118	-5.211604E-009	0.0826659	7
	14	6	39890.62	9371.812	-2193.146	1	9625.01	-13.17107	-5.296158E-009	0.0826613	7
	15	6	31640.63	9591.24	-2079.374	1	9814.05	-12.23239	-1.468449E-009	0.082648	7
	16	6	25171.88	9782.74	-2011.181	1	9987.34	-11.61726	-3.470756E-009	0.0826602	7
	17	7	20015.62	9971.14	-1993.659	1	10168.5	-11.30679	7.671074E-009	0.0826387	7
	18	7	15890.62	10152.45	-2019.036	1	10351.27	-11.24777	6.601094E-009	0.0826568	7
	19	7	12609.37	10347.98	-2076.01	1	10554.17	-11.34407	-1.073262E-009	0.0826487	6
	20	8	10078.13	10536.41	-2198.688	1	10763.37	-11.78706	-1.650841E-009	0.0826595	6
	21	8	8015.625	10742.07	-2374.865	1	11001.45	-12.46647	-1.610049E-009	0.082666	6
	22	8	6328.125	10973.36	-2614.914	1	11280.62	-13.40342	1.264689E-009	0.0826313	6
	23	9	5015.625	11223.31	-2911.243	1	11594.74	-14.54161	1.138738E-009	0.0826308	6
	24	9	3984.375	11495.2	-3273.405	1	11952.19	-15.89497	1.293751E-009	0.082617	6
	25	9	3170.956	11800.98	-3707.176	1	12369.57	-17.43967	1.275943E-009	0.0826133	6
	26	10	2527.573	12142.62	-4221.316	1	12855.46	-19.16973	-1.314857E-009	0.0826461	6
	27	10	1976.103	12567.43	-4890.658	1	13485.5	-21.26367	-1.870611E-010	0.0826483	6
	28	10	1577.524	13005.55	-5617.503	1	14166.88	-23.36103	-1.004829E-010	0.0826215	6
	29	11	1265.625	13498.74	-6455.031	1	14962.73	-25.55691	6.411632E-010	0.0826123	6
	30	11	998.264	14101.97	-7516.26	1	15979.98	-28.05733	-1.571758E-009	0.0826493	6
	31	11	796.875	14756.79	-8703.611	1	17132.3	-30.53227	-1.755224E-009	0.0826485	6
	32	12	627.7902	15549.41	-10200.33	1	18596.53	-33.26467	1.366108E-009	0.0826117	6
	33	12	505.5147	16370.88	-11793.88	1	20176.75	-35.76965	1.179368E-009	0.0826062	6
	34	12	397.9953	17400.54	-13887.2	1	22262.81	-38.59303	3.789793E-010	0.0826573	6
	35	13	315.5048	18553.13	-16311.92	1	24704.2	-41.32195	3.283677E-010	0.0826571	6
	36	13	252.4038	19826.29	-19082.59	1	27517.76	-43.90499	4.215684E-010	0.0826511	6
	37	13	198.6229	21409.25	-22636.34	1	31157.02	-46.59583	4.875911E-010	0.0826517	6
	38	14	158.3615	23155.96	-26660.57	1	35312.67	-49.02415	3.564036E-010	0.0826534	6
	39	14	125.558	25253.43	-31585.21	1	40439.6	-51.35649	2.784617E-010	0.0826533	6
	40	14	100.4464	27628.62	-37230.21	1	46361.94	-53.42082	3.637609E-010	0.0826505	6
	41	15	79.00281	30659.31	-44491.68	1	54032.43	-55.42919	2.859147E-010	0.0826466	6
	42	15	63.3446	33987.18	-52451.77	1	62500.54	-57.05797	2.425782E-010	0.0826437	6
	43	15	49.86702	38274.5	-62696.2	1	73455.77	-58.59695	2.01162E-010	0.082642	6
	44	16	39.72458	43145.29	-74279.49	1	85900.87	-59.84981	3.86618E-010	0.0826455	6
	45	16	31.6723	48913.32	-87936.37	1	100624.6	-60.91564	3.966147E-010	0.0826473	6
	46	16	24.93351	56097.92	-104978	1	119026.7	-61.88095	1.284837E-010	0.0826413	5
	47	17	19.86229	64072.13	-124298.8	1	139840.7	-62.73031	6.594458E-010	0.0826464	5
	48	17	15.83615	73456.25	-147255.7	1	164560.2	-63.48838	-2.423062E-010	0.0826397	5
	49	17	12.40079	85484.22	-176833.9	1	196412.3	-64.20016	1.926588E-010	0.0826407	5
	50	17	9.93114	98288.6	-209183.2	1	231123.9	-64.83264	4.786133E-011	0.0826444	5
	51	18	7.944915	113536.3	-247701.9	1	272482.5	-65.37524	-3.426534E-010	0.0826445	5
	52	18	6.317385	132565.6	-295340.7	1	323728	-65.82677	1.98045E-010	0.0826282	5
	53	19	5.008013	156108	-353283.6	1	386237	-66.16045	2.466271E-010	0.0826444	5
	54	20	3.945707	185978.4	-423868.5	1	462874.1	-66.30984	2.070785E-012	0.0826354	5
	55	21	3.158693	220767.9	-502890.6	1	549215.3	-66.29863	1.759966E-010	0.0826474	5
	56	22	2.504006	265410.7	-599008.9	1	655175.2	-66.10268	1.026823E-010	0.0826385	5
	57	23	1.998082	318992.9	-709175.9	1	777616.3	-65.78141	2.840476E-011	0.0825965	5
	58	25	1.584686	386537.9	-838730.3	1	923515	-65.25687	7.227849E-011	0.0826303	5
	59	27	1.266892	470780	-986099	1	1092715	-64.47942	5.243404E-011	0.0826622	4
	60	29	0.999041	577421.2	-1166657	1	1301731	-63.66751	7.134737E-011	0.0826704	4
