EXPLAIN
TAG	EISPOT
TITLE	LABEL	Potentiostatic EIS	Test &Identifier
DATE	LABEL	1/7/2021	Date
TIME	LABEL	15:48:53	Time
NOTES	NOTES	1	&Notes...
	
PSTAT	PSTAT	REF600-11020	Potentiostat
VDC	POTEN	0.00000E+000	T	DC &Voltage (V)
FREQINIT	QUANT	1.00000E+006	Initial Fre&q. (Hz)
FREQFINAL	QUANT	1.00000E+000	Final Fre&q. (Hz)
PTSPERDEC	QUANT	1.00000E+001	Points/&decade
VAC	QUANT	2.50000E+001	AC &Voltage (mV rms)
AREA	QUANT	4.00000E-005	&Area (cm^2)
CONDIT	TWOPARAM	F	5.00000E+000	0.00000E+000	Conditionin&g	Time(s)	E(V)
DELAY	TWOPARAM	F	3.00000E+000	0.00000E+000	Init. De&lay	Time(s)	Stab.(mV/s)
SPEED	SELECTOR	0	&Optimize for:
ZGUESS	QUANT	1.00000E+003	E&stimated Z (ohms)
OCVCURVE	TABLE	39
	Pt	T	Vf	Vm	Ach	Over
	#	s	V vs. Ref.	V	V	bits
	0	0.258333	3.86022E-002	3.86022E-002	5.11259E-004	...........
	1	0.516667	3.86022E-002	3.85995E-002	5.12126E-004	...........
	2	0.775	3.86020E-002	3.86035E-002	5.10359E-004	...........
	3	1.03333	3.86018E-002	3.86030E-002	5.04259E-004	...........
	4	1.29167	3.86019E-002	3.86065E-002	5.09459E-004	...........
	5	1.55	3.86027E-002	3.86074E-002	5.05226E-004	...........
	6	1.80833	3.86040E-002	3.86130E-002	5.10159E-004	...........
	7	2.06667	3.86061E-002	3.86184E-002	5.06593E-004	...........
	8	2.325	3.86090E-002	3.86191E-002	5.12859E-004	...........
	9	2.58333	3.86126E-002	3.86221E-002	5.08126E-004	...........
	10	2.84167	3.86161E-002	3.86255E-002	5.08026E-004	...........
	11	3.1	3.86192E-002	3.86262E-002	5.17226E-004	...........
	12	3.35833	3.86220E-002	3.86299E-002	5.14993E-004	...........
	13	3.61667	3.86246E-002	3.86362E-002	5.15859E-004	...........
	14	3.875	3.86274E-002	3.86397E-002	5.14126E-004	...........
	15	4.13333	3.86309E-002	3.86428E-002	5.16226E-004	...........
	16	4.39167	3.86349E-002	3.86464E-002	5.07226E-004	...........
	17	4.65	3.86388E-002	3.86488E-002	5.08893E-004	...........
	18	4.90833	3.86425E-002	3.86529E-002	5.10893E-004	...........
	19	5.16667	3.86459E-002	3.86561E-002	5.07226E-004	...........
	20	5.425	3.86491E-002	3.86593E-002	5.10326E-004	...........
	21	5.68333	3.86525E-002	3.86642E-002	5.12659E-004	...........
	22	5.94167	3.86560E-002	3.86680E-002	5.15893E-004	...........
	23	6.2	3.86597E-002	3.86721E-002	5.18459E-004	...........
	24	6.45833	3.86636E-002	3.86735E-002	5.14293E-004	...........
	25	6.71667	3.86674E-002	3.86771E-002	5.14559E-004	...........
	26	6.975	3.86708E-002	3.86811E-002	5.18259E-004	...........
	27	7.23333	3.86740E-002	3.86848E-002	5.18893E-004	...........
	28	7.49167	3.86773E-002	3.86871E-002	5.18159E-004	...........
	29	7.75	3.86806E-002	3.86910E-002	5.16626E-004	...........
	30	8.00833	3.86840E-002	3.86955E-002	5.11793E-004	...........
	31	8.26667	3.86875E-002	3.86989E-002	5.11726E-004	...........
	32	8.525	3.86911E-002	3.87031E-002	5.10059E-004	...........
	33	8.78333	3.86949E-002	3.87044E-002	5.20559E-004	...........
	34	9.04167	3.86985E-002	3.87095E-002	5.16293E-004	...........
	35	9.3	3.87021E-002	3.87171E-002	5.16693E-004	...........
	36	9.5583	3.87059E-002	3.87193E-002	5.12593E-004	...........
	37	9.8167	3.87102E-002	3.87217E-002	5.19226E-004	...........
	38	10.075	3.87145E-002	3.87257E-002	5.17626E-004	...........
EOC	QUANT	0.0387145	Open Circuit (V)
PSTATMODEL	IQUANT	4	Pstat Model
PSTATSECTION	LABEL	REF600-11020	Pstat Section
PSTATSERIALNO	LABEL	11020	Pstat Serial Number
CTRLMODE	IQUANT	1	Control Mode
IESTAB	IQUANT	0	I/E Stability
CASPEED	IQUANT	1	Control Amp Speed
CONVENTION	IQUANT	1	Current Convention
ICHRANGE	IQUANT	2	Ich Range
ICHRANGEMODE	TOGGLE	F	Ich Auto Range
ICHOFFSETENABLE	TOGGLE	T	Ich Offset Enable
ICHOFFSET	QUANT	0	Ich Offset (V)
ICHFILTER	IQUANT	3	Ich Filter
VCHRANGE	IQUANT	2	Vch Range
VCHRANGEMODE	TOGGLE	F	Vch Auto Range
VCHOFFSETENABLE	TOGGLE	T	Vch Offset Enable
VCHOFFSET	QUANT	0	Vch Offset (V)
VCHFILTER	IQUANT	3	Vch Filter
ACHRANGE	IQUANT	2	Ach Range
ACHOFFSETENABLE	TOGGLE	F	Ach Offset Enable
ACHOFFSET	QUANT	0	Ach Offset (V)
ACHFILTER	IQUANT	3	Ach Filter
IERANGELOWERLIMIT	IQUANT	1	I/E Range Lower Limit
IERANGEMODE	TOGGLE	F	I/E AutoRange
IERANGE	IQUANT	7	I/E Range
POSFEEDENABLE	TOGGLE	F	Positive Feedback IR Comp
POSFEEDRESISTANCE	QUANT	0	Positive Feedback Resistance (ohm)
ACHSELECT	IQUANT	0	Ach Select
CABLEID	IQUANT	14	Cable ID
DCCALDATE	LABEL	9/1/2020	DC Calibration Date
ACCALDATE	LABEL	9/1/2020	AC Calibration Date
THERMOSELECT	IQUANT	1	Thermo Select
FRAMEWORKVERSION	QUANT	6.33	Framework Version
INSTRUMENTVERSION	LABEL	3.50	Instrument Version
ZCURVE	TABLE
	Pt	Time	Freq	Zreal	Zimag	Zsig	Zmod	Zphz	Idc	Vdc	IERange
	#	s	Hz	ohm	ohm	V	ohm	°	A	V	#
	0	1	1000078	1556.584	-2292.901	1	2771.344	-55.82856	1.682E-007	0.0407408	8
	1	2	794390.6	1917.267	-2584.632	1	3218.111	-53.43217	7.831651E-008	0.0404677	8
	2	2	630984.4	2333.77	-2863.511	1	3694.073	-50.81987	8.309038E-008	0.0403742	8
	3	2	501234.4	2802.122	-3122.353	1	4195.351	-48.09395	1.467135E-007	0.0402758	8
	4	3	398109.4	3295.063	-3363.478	1	4708.548	-45.58868	3.187855E-008	0.0402194	8
	5	3	316265.6	3815.405	-3582.897	1	5233.972	-43.19995	3.750473E-008	0.0401916	8
	6	3	251203.1	4354.823	-3794.008	1	5775.724	-41.06303	4.274496E-008	0.0401975	8
	7	4	199546.9	4887.976	-4007.658	1	6320.889	-39.34837	3.889689E-008	0.0401904	8
	8	4	158578.1	5418.275	-4227.73	1	6872.511	-37.96393	2.191504E-007	0.040169	8
	9	4	125953.1	5992.608	-4479.369	1	7481.718	-36.77746	-3.554204E-008	0.0402285	7
	10	5	100078.1	6539.923	-4780.514	1	8100.859	-36.16583	-7.101695E-009	0.0401834	7
	11	5	79453.13	7102.728	-5173.57	1	8787.182	-36.06929	-1.118274E-008	0.0401705	7
	12	5	63140.62	7692.454	-5651.61	1	9545.39	-36.30455	1.474548E-008	0.0401511	7
	13	6	50203.12	8342.436	-6230.277	1	10412.14	-36.75302	-1.063157E-008	0.0401667	7
	14	6	39890.62	9068.73	-6932.77	1	11415.13	-37.39682	1.12611E-008	0.040147	7
	15	6	31640.63	9918.12	-7749.6	1	12586.71	-38.00257	8.6462E-009	0.0401566	7
	16	7	25171.88	10917.17	-8697.664	1	13958.29	-38.54419	-1.014526E-008	0.0401645	7
	17	7	20015.62	12103.33	-9741.29	1	15536.52	-38.82862	1.341811E-008	0.0401487	7
	18	7	15890.62	13537.25	-10884.72	1	17370.49	-38.80126	7.422606E-009	0.0401383	7
	19	8	12609.37	15255.05	-11993.91	1	19405.42	-38.17535	-1.454873E-009	0.0401753	6
	20	8	10078.13	17126.61	-13087.56	1	21554.7	-37.38579	-2.973821E-010	0.0401486	6
	21	8	8015.625	19254.42	-14120.46	1	23877.19	-36.25491	-1.184993E-009	0.0401793	6
	22	8	6328.125	21628.09	-15061.01	1	26355.42	-34.85195	4.686537E-010	0.0401359	6
	23	9	5015.625	24074.04	-15859.57	1	28828.56	-33.37622	-1.502378E-009	0.0401724	6
	24	9	3984.375	26564.34	-16573.59	1	31310.52	-31.96019	2.958035E-009	0.0401225	6
	25	9	3170.956	29041.12	-17214.3	1	33759.72	-30.6576	3.102894E-009	0.0401362	6
	26	10	2527.573	31512.29	-17891.24	1	36237.01	-29.58594	2.122455E-009	0.0401179	6
	27	10	1976.103	34204.37	-18653.24	1	38960.01	-28.60569	-1.27207E-010	0.0401482	6
	28	10	1577.524	36710.77	-19467.21	1	41553.01	-27.93639	4.141133E-010	0.0401361	6
	29	11	1265.625	39232.46	-20350.57	1	44196.51	-27.41657	2.941467E-009	0.0401213	6
	30	11	998.264	42042.66	-21463.54	1	47204.55	-27.04514	-2.229804E-010	0.0401484	6
	31	11	796.875	44877.77	-22684.84	1	50285.35	-26.8157	4.228651E-010	0.0401358	6
	32	12	627.7902	48059.31	-24066.81	1	53748.57	-26.60047	1.192476E-010	0.0401706	6
	33	12	505.5147	51080.6	-25478.6	1	57082.28	-26.50965	-1.296888E-009	0.0401766	6
	34	12	397.9953	54556.17	-27129.23	1	60929.23	-26.43986	6.74505E-010	0.0401666	6
	35	13	315.5048	57971.61	-28901.04	1	64776.37	-26.49799	7.403723E-010	0.0401665	6
	36	13	252.4038	61331.17	-30876.13	1	68664.75	-26.72219	6.516284E-010	0.0401629	6
	37	13	198.6229	64929.61	-33392.41	1	73013.06	-27.21614	6.15473E-010	0.0401637	6
	38	14	158.3615	68405.28	-36358.5	1	77467.56	-27.99136	6.545916E-010	0.0401633	6
	39	14	125.558	72019.59	-40104.06	1	82432.73	-29.11122	5.306511E-010	0.0401655	6
	40	14	100.4464	75638.52	-44573.61	1	87795.17	-30.51075	5.363406E-010	0.0401623	6
	41	15	79.00281	79661.7	-50432.94	1	94283.98	-32.33745	-1.728038E-011	0.0401563	5
	42	15	63.3446	83808.57	-57209	1	101472.9	-34.31804	-8.37762E-011	0.0401553	5
	43	15	49.86702	88872.01	-66244.97	1	110845.1	-36.70075	-6.398545E-011	0.0401554	5
	44	16	39.72458	94269.79	-76685.09	1	121521.2	-39.12712	1.33485E-010	0.0401597	5
	45	16	31.6723	100406.8	-89265.09	1	134349.5	-41.63818	1.146917E-010	0.0401599	5
	46	16	24.93351	108326.2	-105451	1	151177	-44.22945	-2.740257E-010	0.0401585	5
	47	17	19.86229	117600.9	-123997.5	1	170895.7	-46.51663	-2.27662E-011	0.0401566	5
	48	17	15.83615	129142.3	-145951.7	1	194883.6	-48.49668	-6.544308E-010	0.040155	5
	49	17	12.40079	145377.7	-174014.8	1	226750.6	-50.1235	-1.188903E-009	0.0401556	5
	50	17	9.93114	163107.5	-202968.8	1	260385.1	-51.21434	-1.286837E-009	0.040152	5
	51	18	7.944915	185439.5	-236191.5	1	300290.2	-51.86371	-3.109959E-010	0.0401539	5
	52	18	6.317385	213663.4	-273911	1	347389.3	-52.04411	-1.156944E-010	0.040152	5
	53	19	5.008013	248606.1	-316069.8	1	402125.8	-51.81303	-3.656613E-010	0.0401451	5
	54	20	3.945707	291424.6	-363202.2	1	465665.3	-51.25729	-3.712737E-010	0.0401535	5
	55	21	3.158693	336581.1	-409241.1	1	529872.8	-50.56435	-2.060885E-010	0.0401306	5
	56	22	2.504006	390854.7	-460927.9	1	604335.9	-49.70294	1.732709E-010	0.04014	5
	57	23	1.998082	447066.9	-514031.7	1	681246.9	-48.98566	2.226584E-011	0.040128	5
	58	25	1.584686	513241.9	-574348.3	1	770255.3	-48.21579	-1.285021E-010	0.040095	5
	59	27	1.266892	579684.6	-639368.5	1	863033.3	-47.80292	-1.110619E-010	0.0401119	5
	60	29	0.999041	654042.1	-714977.3	1	969001	-47.54856	-8.755915E-011	0.0401374	5
