EXPLAIN
TAG	EISPOT
TITLE	LABEL	Potentiostatic EIS	Test &Identifier
DATE	LABEL	1/7/2021	Date
TIME	LABEL	16:33:20	Time
NOTES	NOTES	1	&Notes...
	
PSTAT	PSTAT	REF600-11020	Potentiostat
VDC	POTEN	0.00000E+000	T	DC &Voltage (V)
FREQINIT	QUANT	1.00000E+006	Initial Fre&q. (Hz)
FREQFINAL	QUANT	1.00000E+000	Final Fre&q. (Hz)
PTSPERDEC	QUANT	1.00000E+001	Points/&decade
VAC	QUANT	2.50000E+001	AC &Voltage (mV rms)
AREA	QUANT	4.00000E-005	&Area (cm^2)
CONDIT	TWOPARAM	F	5.00000E+000	0.00000E+000	Conditionin&g	Time(s)	E(V)
DELAY	TWOPARAM	F	3.00000E+000	0.00000E+000	Init. De&lay	Time(s)	Stab.(mV/s)
SPEED	SELECTOR	0	&Optimize for:
ZGUESS	QUANT	1.00000E+003	E&stimated Z (ohms)
OCVCURVE	TABLE	39
	Pt	T	Vf	Vm	Ach	Over
	#	s	V vs. Ref.	V	V	bits
	0	0.258333	1.06074E-001	1.06074E-001	5.52392E-004	...........
	1	0.516667	1.06074E-001	1.06067E-001	5.54159E-004	...........
	2	0.775	1.06073E-001	1.06061E-001	5.49525E-004	...........
	3	1.03333	1.06071E-001	1.06057E-001	5.48892E-004	...........
	4	1.29167	1.06067E-001	1.06053E-001	5.53892E-004	...........
	5	1.55	1.06063E-001	1.06047E-001	5.44292E-004	...........
	6	1.80833	1.06058E-001	1.06040E-001	5.42592E-004	...........
	7	2.06667	1.06052E-001	1.06034E-001	5.56225E-004	...........
	8	2.325	1.06047E-001	1.06027E-001	5.52559E-004	...........
	9	2.58333	1.06040E-001	1.06021E-001	5.49892E-004	...........
	10	2.84167	1.06034E-001	1.06014E-001	5.48459E-004	...........
	11	3.1	1.06028E-001	1.06009E-001	5.54492E-004	...........
	12	3.35833	1.06021E-001	1.06004E-001	5.54725E-004	...........
	13	3.61667	1.06015E-001	1.06002E-001	5.56492E-004	...........
	14	3.875	1.06010E-001	1.05996E-001	5.55659E-004	...........
	15	4.13333	1.06005E-001	1.05993E-001	5.51892E-004	...........
	16	4.39167	1.06001E-001	1.05984E-001	5.52325E-004	...........
	17	4.65	1.05996E-001	1.05975E-001	5.62325E-004	...........
	18	4.90833	1.05991E-001	1.05971E-001	5.66492E-004	...........
	19	5.16667	1.05984E-001	1.05964E-001	5.58559E-004	...........
	20	5.425	1.05978E-001	1.05959E-001	5.52792E-004	...........
	21	5.68333	1.05971E-001	1.05955E-001	5.47359E-004	...........
	22	5.94167	1.05965E-001	1.05947E-001	5.48259E-004	...........
	23	6.2	1.05960E-001	1.05943E-001	5.56992E-004	...........
	24	6.45833	1.05954E-001	1.05937E-001	5.50525E-004	...........
	25	6.71667	1.05949E-001	1.05934E-001	5.50425E-004	...........
	26	6.975	1.05943E-001	1.05927E-001	5.58059E-004	...........
	27	7.23333	1.05938E-001	1.05923E-001	5.48525E-004	...........
	28	7.49167	1.05933E-001	1.05917E-001	5.43526E-004	...........
	29	7.75	1.05928E-001	1.05913E-001	5.55625E-004	...........
	30	8.00833	1.05923E-001	1.05906E-001	5.55625E-004	...........
	31	8.26667	1.05918E-001	1.05899E-001	5.57959E-004	...........
	32	8.525	1.05912E-001	1.05900E-001	5.49059E-004	...........
	33	8.78333	1.05907E-001	1.05895E-001	5.47725E-004	...........
	34	9.04167	1.05902E-001	1.05889E-001	5.52759E-004	...........
	35	9.3	1.05898E-001	1.05881E-001	5.49559E-004	...........
	36	9.5583	1.05894E-001	1.05876E-001	5.45059E-004	...........
	37	9.8167	1.05888E-001	1.05871E-001	5.47225E-004	...........
	38	10.075	1.05883E-001	1.05867E-001	5.53492E-004	...........
EOC	QUANT	0.1058827	Open Circuit (V)
PSTATMODEL	IQUANT	4	Pstat Model
PSTATSECTION	LABEL	REF600-11020	Pstat Section
PSTATSERIALNO	LABEL	11020	Pstat Serial Number
CTRLMODE	IQUANT	1	Control Mode
IESTAB	IQUANT	0	I/E Stability
CASPEED	IQUANT	1	Control Amp Speed
CONVENTION	IQUANT	1	Current Convention
ICHRANGE	IQUANT	2	Ich Range
ICHRANGEMODE	TOGGLE	F	Ich Auto Range
ICHOFFSETENABLE	TOGGLE	T	Ich Offset Enable
ICHOFFSET	QUANT	0	Ich Offset (V)
ICHFILTER	IQUANT	3	Ich Filter
VCHRANGE	IQUANT	2	Vch Range
VCHRANGEMODE	TOGGLE	F	Vch Auto Range
VCHOFFSETENABLE	TOGGLE	T	Vch Offset Enable
VCHOFFSET	QUANT	0	Vch Offset (V)
VCHFILTER	IQUANT	3	Vch Filter
ACHRANGE	IQUANT	2	Ach Range
ACHOFFSETENABLE	TOGGLE	F	Ach Offset Enable
ACHOFFSET	QUANT	0	Ach Offset (V)
ACHFILTER	IQUANT	3	Ach Filter
IERANGELOWERLIMIT	IQUANT	1	I/E Range Lower Limit
IERANGEMODE	TOGGLE	F	I/E AutoRange
IERANGE	IQUANT	8	I/E Range
POSFEEDENABLE	TOGGLE	F	Positive Feedback IR Comp
POSFEEDRESISTANCE	QUANT	0	Positive Feedback Resistance (ohm)
ACHSELECT	IQUANT	0	Ach Select
CABLEID	IQUANT	14	Cable ID
DCCALDATE	LABEL	9/1/2020	DC Calibration Date
ACCALDATE	LABEL	9/1/2020	AC Calibration Date
THERMOSELECT	IQUANT	1	Thermo Select
FRAMEWORKVERSION	QUANT	6.33	Framework Version
INSTRUMENTVERSION	LABEL	3.50	Instrument Version
ZCURVE	TABLE
	Pt	Time	Freq	Zreal	Zimag	Zsig	Zmod	Zphz	Idc	Vdc	IERange
	#	s	Hz	ohm	ohm	V	ohm	°	A	V	#
	0	1	1000078	1822.05	-1664.74	1	2468.041	-42.4168	-5.624119E-009	0.1080055	8
	1	2	794390.6	2104.888	-1736.397	1	2728.668	-39.52044	6.165437E-008	0.1076826	8
	2	2	630984.4	2388.555	-1792.052	1	2986.075	-36.87967	3.943928E-008	0.107555	8
	3	2	501234.4	2663.299	-1835.387	1	3234.472	-34.5723	4.375521E-008	0.1074763	8
	4	3	398109.4	2930.761	-1879.004	1	3481.381	-32.66522	2.608381E-008	0.1074226	8
	5	3	316265.6	3193.129	-1928.125	1	3730.113	-31.12507	6.702957E-008	0.1074033	8
	6	3	251203.1	3452.167	-1990.682	1	3985.006	-29.96976	3.465522E-008	0.1073894	8
	7	4	199546.9	3707.421	-2074.771	1	4248.488	-29.23253	7.289366E-008	0.1073939	8
	8	4	158578.1	3974.373	-2168.073	1	4527.271	-28.61305	7.829936E-008	0.1074013	8
	9	4	125953.1	4269.482	-2283.607	1	4841.832	-28.14087	2.035503E-008	0.1073811	7
	10	5	100078.1	4566.263	-2418.187	1	5167.048	-27.90465	-3.332477E-009	0.1073807	7
	11	5	79453.13	4878.416	-2587.732	1	5522.255	-27.94349	1.204305E-008	0.1073577	7
	12	5	63140.62	5211.093	-2779.77	1	5906.15	-28.07694	5.151485E-009	0.1073624	7
	13	6	50203.12	5568.229	-2997.858	1	6323.949	-28.29741	-7.800247E-009	0.1073602	7
	14	6	39890.62	5950.306	-3245.213	1	6777.724	-28.60743	1.13988E-008	0.1073437	7
	15	6	31640.63	6368.719	-3529.196	1	7281.195	-28.99283	5.577676E-009	0.1073405	7
	16	6	25171.88	6815.111	-3842.939	1	7823.932	-29.418	-7.672629E-010	0.1073574	7
	17	7	20015.62	7306.176	-4206.322	1	8430.501	-29.92995	-4.471684E-009	0.107349	7
	18	7	15890.62	7848.706	-4609.965	1	9102.415	-30.428	-4.285075E-009	0.1073516	7
	19	7	12609.37	8461.563	-5063.763	1	9861.02	-30.89811	2.313109E-009	0.1073395	6
	20	8	10078.13	9111.526	-5560.072	1	10674	-31.39255	-9.241831E-010	0.1073594	6
	21	8	8015.625	9853.11	-6103.603	1	11590.42	-31.77654	-9.31373E-010	0.1073542	6
	22	8	6328.125	10712.87	-6720.135	1	12646.17	-32.09987	-1.108419E-009	0.1073605	6
	23	9	5015.625	11654.91	-7366.623	1	13787.82	-32.29543	1.643796E-009	0.1073265	6
	24	9	3984.375	12678.53	-8032.581	1	15008.92	-32.35661	-8.513596E-010	0.1073647	6
	25	9	3170.956	13787.98	-8746.486	1	16328.18	-32.38924	2.051827E-009	0.107322	6
	26	10	2527.573	14951.31	-9465.346	1	17695.61	-32.33699	4.433321E-010	0.1073336	6
	27	10	1976.103	16263.29	-10255.9	1	19227.02	-32.2362	1.267813E-009	0.1073212	6
	28	10	1577.524	17525.37	-11091.56	1	20740.33	-32.32915	-2.723815E-010	0.107337	6
	29	11	1265.625	18831.31	-12062.93	1	22363.64	-32.64275	1.52941E-009	0.1073419	6
	30	11	998.264	20229.84	-13172.67	1	24140.54	-33.07017	-5.296147E-010	0.1073554	6
	31	11	796.875	21651.95	-14492.58	1	26054.59	-33.79609	-1.141241E-009	0.1073481	6
	32	12	627.7902	23316.99	-16271.32	1	28433.04	-34.90853	-3.365336E-010	0.1073565	6
	33	12	505.5147	24908.85	-18135.41	1	30811.42	-36.05727	1.849142E-009	0.10732	6
	34	12	397.9953	26811.98	-20559.37	1	33787.13	-37.48092	6.285131E-010	0.107365	6
	35	13	315.5048	28914.22	-23352.91	1	37167.07	-38.92649	5.168481E-010	0.1073654	6
	36	13	252.4038	31244.02	-26524.3	1	40984.48	-40.32927	5.70015E-010	0.1073598	6
	37	13	198.6229	34222.8	-30582.54	1	45896.54	-41.78494	3.639311E-010	0.1073611	6
	38	14	158.3615	37607.25	-35103.7	1	51444.88	-43.028	6.673666E-010	0.1073554	6
	39	14	125.558	41711.84	-40129.28	1	57881.23	-43.89221	5.930699E-010	0.1073567	6
	40	14	100.4464	46440.27	-45657.14	1	65125.06	-44.51281	5.358738E-010	0.1073517	6
	41	15	79.00281	52530.82	-52302	1	74128.18	-44.87494	4.937524E-010	0.1073525	6
	42	15	63.3446	59027.98	-59016.88	1	83470.32	-44.99461	3.855013E-010	0.1073501	6
	43	15	49.86702	66872.8	-66512.88	1	94318.27	-44.8454	3.377454E-010	0.107349	6
	44	16	39.72458	75232.94	-74392.11	1	105802.6	-44.67802	3.56343E-010	0.1073462	5
	45	16	31.6723	84358.27	-83174.59	1	118466.6	-44.59519	-1.608797E-010	0.1073453	5
	46	16	24.93351	94387.73	-92968.41	1	132484.6	-44.56596	6.395386E-010	0.107347	5
	47	17	19.86229	105127.6	-104207.4	1	148023.6	-44.74813	4.015463E-010	0.1073482	5
	48	17	15.83615	118446.3	-118399.1	1	167475	-44.98859	7.499962E-010	0.1073477	5
	49	17	12.40079	132070.5	-133731.9	1	187954.3	-45.35812	1.680318E-009	0.1073456	5
	50	17	9.93114	144811.8	-149824.9	1	208369.8	-45.97476	2.353338E-009	0.1073427	5
	51	18	7.944915	162720.2	-170311.5	1	235550.2	-46.30581	5.485049E-010	0.1073441	5
	52	18	6.317385	183100.7	-193045.9	1	266068.8	-46.51452	-1.992242E-010	0.1073549	5
	53	19	5.008013	207333.1	-219469.3	1	301916.8	-46.62877	2.060961E-010	0.1073518	5
	54	20	3.945707	232543.9	-249368.1	1	340970.8	-46.99946	4.354112E-010	0.1073435	5
	55	21	3.158693	259765.5	-280136.4	1	382040	-47.16079	7.234835E-011	0.1073571	5
	56	22	2.504006	291184.6	-316845.9	1	430325.2	-47.41668	-1.698766E-010	0.1073442	5
	57	23	1.998082	324340	-356771.9	1	482164.6	-47.72614	9.338183E-011	0.1073613	5
	58	25	1.584686	361869.3	-404370	1	542645.8	-48.17476	2.601515E-010	0.1073904	5
	59	27	1.266892	399741.3	-458339.3	1	608167.8	-48.90664	1.463201E-010	0.1073614	5
	60	29	0.999041	441849.5	-524568.1	1	685859.1	-49.89219	1.017759E-010	0.1073309	5
