EXPLAIN
TAG	EISPOT
TITLE	LABEL	Potentiostatic EIS	Test &Identifier
DATE	LABEL	6/10/2021	Date
TIME	LABEL	15:52:06	Time
NOTES	NOTES	1	&Notes...
	
PSTAT	PSTAT	REF600-11020	Potentiostat
VDC	POTEN	0.00000E+000	T	DC &Voltage (V)
FREQINIT	QUANT	1.00000E+006	Initial Fre&q. (Hz)
FREQFINAL	QUANT	1.00000E+000	Final Fre&q. (Hz)
PTSPERDEC	QUANT	1.00000E+001	Points/&decade
VAC	QUANT	2.50000E+001	AC &Voltage (mV rms)
AREA	QUANT	4.00000E-005	&Area (cm^2)
CONDIT	TWOPARAM	F	5.00000E+000	0.00000E+000	Conditionin&g	Time(s)	E(V)
DELAY	TWOPARAM	F	3.00000E+000	0.00000E+000	Init. De&lay	Time(s)	Stab.(mV/s)
SPEED	SELECTOR	0	&Optimize for:
ZGUESS	QUANT	1.00000E+003	E&stimated Z (ohms)
OCVCURVE	TABLE	39
	Pt	T	Vf	Vm	Ach	Over
	#	s	V vs. Ref.	V	V	bits
	0	0.258333	-3.07380E-002	-3.07380E-002	5.34126E-004	...........
	1	0.516667	-3.07408E-002	-3.08852E-002	5.30192E-004	...........
	2	0.775	-3.07580E-002	-3.10178E-002	5.32726E-004	...........
	3	1.03333	-3.08058E-002	-3.11341E-002	5.32992E-004	...........
	4	1.29167	-3.08896E-002	-3.12487E-002	5.28359E-004	...........
	5	1.55	-3.09989E-002	-3.13815E-002	5.28759E-004	...........
	6	1.80833	-3.11189E-002	-3.14658E-002	5.32126E-004	...........
	7	2.06667	-3.12384E-002	-3.15397E-002	5.32359E-004	...........
	8	2.325	-3.13490E-002	-3.16088E-002	5.24826E-004	...........
	9	2.58333	-3.14463E-002	-3.17078E-002	5.32059E-004	...........
	10	2.84167	-3.15327E-002	-3.17779E-002	5.29292E-004	...........
	11	3.1	-3.16138E-002	-3.18465E-002	5.26926E-004	...........
	12	3.35833	-3.16926E-002	-3.19256E-002	5.31426E-004	...........
	13	3.61667	-3.17687E-002	-3.19699E-002	5.29959E-004	...........
	14	3.875	-3.18405E-002	-3.20228E-002	5.28692E-004	...........
	15	4.13333	-3.19063E-002	-3.20873E-002	5.27026E-004	...........
	16	4.39167	-3.19661E-002	-3.21212E-002	5.29759E-004	...........
	17	4.65	-3.20209E-002	-3.21503E-002	5.26926E-004	...........
	18	4.90833	-3.20711E-002	-3.22432E-002	5.25892E-004	...........
	19	5.16667	-3.21192E-002	-3.22750E-002	5.31892E-004	...........
	20	5.425	-3.21689E-002	-3.23213E-002	5.26292E-004	...........
	21	5.68333	-3.22199E-002	-3.23455E-002	5.28792E-004	...........
	22	5.94167	-3.22672E-002	-3.23655E-002	5.26059E-004	...........
	23	6.2	-3.23077E-002	-3.24188E-002	5.28692E-004	...........
	24	6.45833	-3.23430E-002	-3.24730E-002	5.24226E-004	...........
	25	6.71667	-3.23790E-002	-3.25091E-002	5.24726E-004	...........
	26	6.975	-3.24190E-002	-3.25479E-002	5.19892E-004	...........
	27	7.23333	-3.24615E-002	-3.25781E-002	5.25026E-004	...........
	28	7.49167	-3.25027E-002	-3.26082E-002	5.25726E-004	...........
	29	7.75	-3.25405E-002	-3.26441E-002	5.23759E-004	...........
	30	8.00833	-3.25751E-002	-3.26732E-002	5.24126E-004	...........
	31	8.26667	-3.26079E-002	-3.27068E-002	5.25826E-004	...........
	32	8.525	-3.26398E-002	-3.27318E-002	5.22926E-004	...........
	33	8.78333	-3.26711E-002	-3.27622E-002	5.19692E-004	...........
	34	9.04167	-3.27014E-002	-3.27896E-002	5.20759E-004	...........
	35	9.3	-3.27307E-002	-3.28176E-002	5.19659E-004	...........
	36	9.5583	-3.27592E-002	-3.28416E-002	5.21593E-004	...........
	37	9.8167	-3.27871E-002	-3.28748E-002	5.32159E-004	...........
	38	10.075	-3.28147E-002	-3.28968E-002	5.25592E-004	...........
EOC	QUANT	-0.0328147	Open Circuit (V)
PSTATMODEL	IQUANT	4	Pstat Model
PSTATSECTION	LABEL	REF600-11020	Pstat Section
PSTATSERIALNO	LABEL	11020	Pstat Serial Number
CTRLMODE	IQUANT	1	Control Mode
IESTAB	IQUANT	0	I/E Stability
CASPEED	IQUANT	1	Control Amp Speed
CONVENTION	IQUANT	1	Current Convention
ICHRANGE	IQUANT	2	Ich Range
ICHRANGEMODE	TOGGLE	F	Ich Auto Range
ICHOFFSETENABLE	TOGGLE	T	Ich Offset Enable
ICHOFFSET	QUANT	0	Ich Offset (V)
ICHFILTER	IQUANT	3	Ich Filter
VCHRANGE	IQUANT	2	Vch Range
VCHRANGEMODE	TOGGLE	F	Vch Auto Range
VCHOFFSETENABLE	TOGGLE	T	Vch Offset Enable
VCHOFFSET	QUANT	0	Vch Offset (V)
VCHFILTER	IQUANT	3	Vch Filter
ACHRANGE	IQUANT	2	Ach Range
ACHOFFSETENABLE	TOGGLE	F	Ach Offset Enable
ACHOFFSET	QUANT	0	Ach Offset (V)
ACHFILTER	IQUANT	3	Ach Filter
IERANGELOWERLIMIT	IQUANT	1	I/E Range Lower Limit
IERANGEMODE	TOGGLE	F	I/E AutoRange
IERANGE	IQUANT	7	I/E Range
POSFEEDENABLE	TOGGLE	F	Positive Feedback IR Comp
POSFEEDRESISTANCE	QUANT	0	Positive Feedback Resistance (ohm)
ACHSELECT	IQUANT	0	Ach Select
CABLEID	IQUANT	14	Cable ID
DCCALDATE	LABEL	9/1/2020	DC Calibration Date
ACCALDATE	LABEL	9/1/2020	AC Calibration Date
THERMOSELECT	IQUANT	1	Thermo Select
FRAMEWORKVERSION	QUANT	6.33	Framework Version
INSTRUMENTVERSION	LABEL	3.50	Instrument Version
ZCURVE	TABLE
	Pt	Time	Freq	Zreal	Zimag	Zsig	Zmod	Zphz	Idc	Vdc	IERange
	#	s	Hz	ohm	ohm	V	ohm	°	A	V	#
	0	1	1000078	899.3057	-2824.128	1	2963.857	-72.33662	3.604314E-008	-0.030612	8
	1	1	794390.6	1075.403	-3422.005	1	3587.006	-72.55409	5.336384E-008	-0.0309204	8
	2	2	630984.4	1296.023	-4153.303	1	4350.816	-72.66966	-1.831147E-008	-0.0310793	8
	3	2	501234.4	1588.641	-5034.576	1	5279.274	-72.48711	5.60966E-008	-0.0311628	8
	4	2	398109.4	1967.072	-6113.354	1	6422.03	-72.16357	3.547358E-008	-0.0312257	8
	5	3	316265.6	2490.068	-7407.409	1	7814.739	-71.41946	5.719569E-008	-0.0312634	8
	6	3	251203.1	3170.507	-8916.734	1	9463.629	-70.42623	4.247779E-008	-0.0312837	8
	7	3	199546.9	4078.264	-10702.34	1	11453.05	-69.14002	5.224561E-008	-0.0312755	8
	8	3	158578.1	5276.06	-12760.32	1	13808.06	-67.53618	5.356188E-008	-0.0312808	8
	9	4	125953.1	6895.137	-15060.01	1	16563.42	-65.3996	9.988832E-010	-0.0312761	7
	10	4	100078.1	8922.477	-17576.23	1	19711.28	-63.08562	1.137526E-009	-0.031293	7
	11	4	79453.13	11426.07	-20248.65	1	23250.01	-60.56449	-4.617574E-010	-0.0313022	7
	12	5	63140.62	14421.57	-23089.82	1	27223.54	-58.0117	7.754475E-010	-0.0313116	7
	13	5	50203.12	17917.88	-25998.14	1	31574.57	-55.42546	1.173626E-009	-0.0313	7
	14	5	39890.62	22007.89	-28868.68	1	36300.8	-52.68011	1.508982E-009	-0.0313086	7
	15	6	31640.63	26643.38	-31583.2	1	41320.31	-49.84924	-6.53015E-011	-0.0313091	7
	16	6	25171.88	31704.4	-34309.51	1	46715.22	-47.25989	1.677274E-009	-0.0313093	7
	17	6	20015.62	37227.5	-36635.09	1	52230.41	-44.54047	4.908631E-010	-0.0313164	7
	18	7	15890.62	43126.46	-38941.66	1	58106.32	-42.08091	1.283158E-009	-0.0313247	7
	19	7	12609.37	49439.77	-40916.12	1	64174.91	-39.611	2.733139E-010	-0.0313182	6
	20	7	10078.13	55624.2	-42768.99	1	70165.79	-37.55639	2.521784E-010	-0.0313165	6
	21	8	8015.625	62117.84	-44581.54	1	76460.05	-35.66674	3.173743E-010	-0.0313222	6
	22	8	6328.125	68938.55	-46367.66	1	83081.19	-33.92455	2.159083E-010	-0.031323	6
	23	8	5015.625	75785.39	-48192.64	1	89810.66	-32.45266	2.156112E-010	-0.0313179	6
	24	9	3984.375	82667.91	-50017.43	1	96621.6	-31.17564	1.999855E-010	-0.0313192	6
	25	9	3170.956	89592.11	-52046.13	1	103612.5	-30.15329	3.403006E-010	-0.0313182	6
	26	9	2527.573	96600.3	-54215.79	1	110774.4	-29.30281	1.685629E-010	-0.0313286	6
	27	10	1976.103	104377.8	-57040.58	1	118946.8	-28.65582	3.792621E-010	-0.0313209	6
	28	10	1577.524	111744.3	-60027.72	1	126846.8	-28.24416	2.461819E-010	-0.0313271	6
	29	10	1265.625	119620.4	-62379.16	1	134908.1	-27.54096	-1.017873E-010	-0.031337	5
	30	11	998.264	128008.1	-66840.16	1	144408	-27.57157	-8.479552E-011	-0.0313232	5
	31	11	796.875	136590.3	-71770.28	1	154298	-27.71933	-9.808467E-011	-0.0313357	5
	32	11	627.7902	146289.2	-77573.66	1	165584.4	-27.93594	-7.25557E-011	-0.0313263	5
	33	11	505.5147	156038.8	-83545.13	1	176996.9	-28.16515	-9.130426E-011	-0.0313286	5
	34	12	397.9953	167698.1	-90685.9	1	190647.8	-28.40314	-2.406842E-011	-0.0313029	5
	35	12	315.5048	179970.5	-98109	1	204975.1	-28.59653	-8.453753E-012	-0.0313053	5
	36	12	252.4038	192560.4	-105642	1	219635.5	-28.74995	-2.749333E-011	-0.0313062	5
	37	13	198.6229	206435.1	-114279.2	1	235955.9	-28.96823	-1.057823E-011	-0.031307	5
	38	13	158.3615	220010.3	-123367	1	252237.9	-29.28078	-1.754299E-011	-0.0313071	5
	39	13	125.558	233594.2	-134077.6	1	269338.2	-29.8548	-3.118693E-011	-0.0313034	5
	40	14	100.4464	246451.7	-146539.5	1	286726.8	-30.7356	-4.287903E-011	-0.0313062	5
	41	14	79.00281	260200.5	-163307	1	307202.6	-32.1132	-1.870374E-011	-0.0313136	5
	42	14	63.3446	273027.5	-182765.8	1	328553.4	-33.79852	-8.984772E-012	-0.031317	5
	43	15	49.86702	287509.4	-209401.2	1	355683.2	-36.0669	-3.78454E-011	-0.0313199	5
	44	15	39.72458	302056	-241263.2	1	386582.2	-38.61564	-3.145826E-011	-0.0313159	5
	45	15	31.6723	318107.5	-280665.5	1	424223.4	-41.42188	-4.430752E-011	-0.0313146	5
	46	16	24.93351	337340.8	-332272.9	1	473502	-44.56636	-2.298527E-011	-0.0313169	5
	47	16	19.86229	358606.4	-392858.7	1	531917.8	-47.60977	-7.706547E-011	-0.0313134	5
	48	16	15.83615	383205	-466274.9	1	603538.2	-50.58515	7.012758E-011	-0.0313175	5
	49	17	12.40079	414878.7	-563536.1	1	699783.7	-53.63927	1.221865E-010	-0.0313175	5
	50	17	9.93114	448956.8	-670963.8	1	807313.2	-56.21264	1.111758E-010	-0.0313148	5
	51	17	7.944915	490855.3	-801935.6	1	940233.8	-58.52969	-3.037952E-011	-0.0313194	5
	52	18	6.317385	543074.2	-965071	1	1107381	-60.63225	4.369357E-012	-0.0313167	4
	53	19	5.008013	608464.5	-1164147	1	1313570	-62.40529	3.105477E-011	-0.0313051	4
	54	19	3.945707	692634.1	-1412326	1	1573024	-63.8757	2.385702E-011	-0.0313135	4
	55	20	3.158693	789252.9	-1689208	1	1864496	-64.95649	8.657536E-012	-0.0312959	4
	56	21	2.504006	918002.6	-2035401	1	2232842	-65.72376	-2.422444E-011	-0.0313072	4
	57	23	1.998082	1070442	-2429496	1	2654863	-66.22159	-3.448441E-013	-0.0313053	4
	58	24	1.584686	1274375	-2919833	1	3185821	-66.4209	6.814401E-012	-0.0312723	4
	59	26	1.266892	1507390	-3475508	1	3788322	-66.55276	4.285856E-013	-0.0312936	4
	60	29	0.999041	1819455	-4159684	1	4540197	-66.37532	-7.949151E-013	-0.0313211	4
