EXPLAIN
TAG	EISPOT
TITLE	LABEL	Potentiostatic EIS	Test &Identifier
DATE	LABEL	1/7/2021	Date
TIME	LABEL	16:04:35	Time
NOTES	NOTES	1	&Notes...
	
PSTAT	PSTAT	REF600-11020	Potentiostat
VDC	POTEN	0.00000E+000	T	DC &Voltage (V)
FREQINIT	QUANT	1.00000E+006	Initial Fre&q. (Hz)
FREQFINAL	QUANT	1.00000E+000	Final Fre&q. (Hz)
PTSPERDEC	QUANT	1.00000E+001	Points/&decade
VAC	QUANT	2.50000E+001	AC &Voltage (mV rms)
AREA	QUANT	4.00000E-005	&Area (cm^2)
CONDIT	TWOPARAM	F	5.00000E+000	0.00000E+000	Conditionin&g	Time(s)	E(V)
DELAY	TWOPARAM	F	3.00000E+000	0.00000E+000	Init. De&lay	Time(s)	Stab.(mV/s)
SPEED	SELECTOR	0	&Optimize for:
ZGUESS	QUANT	1.00000E+003	E&stimated Z (ohms)
OCVCURVE	TABLE	39
	Pt	T	Vf	Vm	Ach	Over
	#	s	V vs. Ref.	V	V	bits
	0	0.258333	2.06312E-002	2.06312E-002	5.29659E-004	...........
	1	0.516667	2.05519E-002	1.64843E-002	5.33626E-004	...........
	2	0.775	2.01282E-002	1.58374E-002	5.34726E-004	...........
	3	1.03333	1.90751E-002	1.19235E-002	5.31459E-004	...........
	4	1.29167	1.73916E-002	1.18990E-002	5.30259E-004	...........
	5	1.55	1.55347E-002	1.79286E-002	5.33592E-004	...........
	6	1.80833	1.44716E-002	2.22113E-002	5.27659E-004	...........
	7	2.06667	1.49137E-002	1.33136E-002	5.36192E-004	...........
	8	2.325	1.60839E-002	1.17052E-002	5.34959E-004	...........
	9	2.58333	1.65092E-002	2.04404E-002	5.31626E-004	...........
	10	2.84167	1.59914E-002	7.51473E-003	5.36292E-004	...........
	11	3.1	1.49883E-002	6.12522E-003	5.38126E-004	...........
	12	3.35833	1.32171E-002	5.49564E-003	5.27492E-004	...........
	13	3.61667	1.06261E-002	5.24945E-003	5.33392E-004	...........
	14	3.875	8.06666E-003	4.37857E-003	5.37559E-004	...........
	15	4.13333	6.23960E-003	4.02699E-003	5.29992E-004	...........
	16	4.39167	5.16007E-003	4.27459E-003	5.32426E-004	...........
	17	4.65	4.57559E-003	4.19573E-003	5.29192E-004	...........
	18	4.90833	4.29831E-003	4.35643E-003	5.33492E-004	...........
	19	5.16667	4.22779E-003	5.08419E-003	5.30892E-004	...........
	20	5.425	4.33360E-003	5.91135E-003	5.32226E-004	...........
	21	5.68333	4.63470E-003	6.31514E-003	5.31726E-004	...........
	22	5.94167	5.10677E-003	6.53371E-003	5.30859E-004	...........
	23	6.2	5.63956E-003	6.85764E-003	5.30159E-004	...........
	24	6.45833	6.11727E-003	7.03196E-003	5.26026E-004	...........
	25	6.71667	6.48921E-003	6.95200E-003	5.29159E-004	...........
	26	6.975	6.75129E-003	7.15157E-003	5.30692E-004	...........
	27	7.23333	6.92607E-003	7.50331E-003	5.30092E-004	...........
	28	7.49167	7.06802E-003	7.62828E-003	5.29192E-004	...........
	29	7.75	7.22557E-003	7.66002E-003	5.28626E-004	...........
	30	8.00833	7.39384E-003	7.68552E-003	5.31159E-004	...........
	31	8.26667	7.53642E-003	7.77529E-003	5.36426E-004	...........
	32	8.525	7.63643E-003	7.80354E-003	5.30326E-004	...........
	33	8.78333	7.70513E-003	7.86762E-003	5.32392E-004	...........
	34	9.04167	7.76225E-003	8.05049E-003	5.32626E-004	...........
	35	9.3	7.82491E-003	8.03213E-003	5.29726E-004	...........
	36	9.5583	7.89794E-003	8.06671E-003	5.30826E-004	...........
	37	9.8167	7.97294E-003	8.30275E-003	5.29726E-004	...........
	38	10.075	8.05079E-003	8.41734E-003	5.30092E-004	...........
EOC	QUANT	0.0080508	Open Circuit (V)
PSTATMODEL	IQUANT	4	Pstat Model
PSTATSECTION	LABEL	REF600-11020	Pstat Section
PSTATSERIALNO	LABEL	11020	Pstat Serial Number
CTRLMODE	IQUANT	1	Control Mode
IESTAB	IQUANT	0	I/E Stability
CASPEED	IQUANT	1	Control Amp Speed
CONVENTION	IQUANT	1	Current Convention
ICHRANGE	IQUANT	2	Ich Range
ICHRANGEMODE	TOGGLE	F	Ich Auto Range
ICHOFFSETENABLE	TOGGLE	T	Ich Offset Enable
ICHOFFSET	QUANT	0	Ich Offset (V)
ICHFILTER	IQUANT	3	Ich Filter
VCHRANGE	IQUANT	2	Vch Range
VCHRANGEMODE	TOGGLE	F	Vch Auto Range
VCHOFFSETENABLE	TOGGLE	T	Vch Offset Enable
VCHOFFSET	QUANT	0	Vch Offset (V)
VCHFILTER	IQUANT	3	Vch Filter
ACHRANGE	IQUANT	2	Ach Range
ACHOFFSETENABLE	TOGGLE	F	Ach Offset Enable
ACHOFFSET	QUANT	0	Ach Offset (V)
ACHFILTER	IQUANT	3	Ach Filter
IERANGELOWERLIMIT	IQUANT	1	I/E Range Lower Limit
IERANGEMODE	TOGGLE	F	I/E AutoRange
IERANGE	IQUANT	7	I/E Range
POSFEEDENABLE	TOGGLE	F	Positive Feedback IR Comp
POSFEEDRESISTANCE	QUANT	0	Positive Feedback Resistance (ohm)
ACHSELECT	IQUANT	0	Ach Select
CABLEID	IQUANT	14	Cable ID
DCCALDATE	LABEL	9/1/2020	DC Calibration Date
ACCALDATE	LABEL	9/1/2020	AC Calibration Date
THERMOSELECT	IQUANT	1	Thermo Select
FRAMEWORKVERSION	QUANT	6.33	Framework Version
INSTRUMENTVERSION	LABEL	3.50	Instrument Version
ZCURVE	TABLE
	Pt	Time	Freq	Zreal	Zimag	Zsig	Zmod	Zphz	Idc	Vdc	IERange
	#	s	Hz	ohm	ohm	V	ohm	°	A	V	#
	0	1	1000078	711.215	-6674.897	1	6712.681	-83.91805	4.096916E-008	0.0101039	8
	1	1	794390.6	817.3043	-8307.653	1	8347.76	-84.38134	4.875287E-008	0.0097867	8
	2	1	630984.4	945.0419	-10349.86	1	10392.92	-84.78281	1.912449E-008	0.0096499	8
	3	2	501234.4	1120.799	-12891.26	1	12939.89	-85.03105	8.823818E-008	0.0095435	8
	4	2	398109.4	1301.59	-16059.29	1	16111.95	-85.36636	3.089127E-008	0.0095013	8
	5	2	316265.6	1562.236	-20035.28	1	20096.1	-85.54143	7.672231E-009	0.0094842	8
	6	3	251203.1	1861.031	-24969.15	1	25038.41	-85.73744	7.882723E-008	0.0094761	8
	7	3	199546.9	2235.07	-31167.71	1	31247.75	-85.89828	8.273897E-008	0.0094897	8
	8	3	158578.1	2715.652	-38849.65	1	38944.45	-86.00144	6.111001E-008	0.0094696	8
	9	4	125953.1	3393.137	-48614.57	1	48732.84	-86.00742	-2.956269E-008	0.0095305	7
	10	4	100078.1	4226.469	-60657.64	1	60804.71	-86.01422	-7.520541E-009	0.009465	7
	11	4	79453.13	4958.774	-75656.45	1	75818.78	-86.25001	2.839072E-010	0.009417	7
	12	5	63140.62	6087.409	-94513.87	1	94709.7	-86.31481	-1.765615E-008	0.0094486	7
	13	5	50203.12	7551.146	-117593.5	1	117835.7	-86.32585	1.78471E-008	0.0094044	7
	14	5	39890.62	9063.13	-147077.2	1	147356.2	-86.4738	-1.80023E-008	0.0094484	7
	15	6	31640.63	11018.46	-183594.5	1	183924.8	-86.5655	9.581081E-010	0.0094103	7
	16	6	25171.88	14968.79	-228334.6	1	228824.7	-86.24926	1.802851E-008	0.0094222	7
	17	6	20015.62	17874.68	-285142.4	1	285702.2	-86.413	-5.996759E-009	0.0094452	7
	18	7	15890.62	23441.38	-355879.8	1	356651	-86.23144	-3.937623E-010	0.0094438	7
	19	7	12609.37	27758.04	-444956.2	1	445821.2	-86.4303	-3.901939E-009	0.0094671	6
	20	7	10078.13	33927.25	-552053.3	1	553094.8	-86.48322	2.105686E-010	0.0093924	6
	21	8	8015.625	43725.09	-687647.4	1	689036.1	-86.36166	4.525289E-009	0.0093852	6
	22	8	6328.125	54616.68	-862361.4	1	864089.3	-86.37608	-7.526439E-011	0.0094693	6
	23	8	5015.625	69120.48	-1077867	1	1080081	-86.33081	3.420341E-009	0.0094118	6
	24	9	3984.375	81135.73	-1343924	1	1346371	-86.54512	-3.541919E-009	0.0094803	6
	25	9	3170.956	95768	-1678835	1	1681564	-86.73514	1.357141E-009	0.0093723	6
	26	9	2527.573	126769.5	-2087548	1	2091393	-86.52489	2.586537E-009	0.0093665	6
	27	9	1976.103	188451.6	-2646211	1	2652913	-85.92652	4.161951E-009	0.0093938	6
	28	10	1577.524	147096.8	-3283361	1	3286655	-87.43482	-3.404209E-009	0.0094424	6
	29	10	1265.625	277744.9	-4053036	1	4062541	-86.07979	-3.406673E-010	0.0094707	5
	30	10	998.264	354776.3	-5094267	1	5106606	-86.01623	2.912825E-010	0.0094047	5
	31	11	796.875	438267	-6340456	1	6355584	-86.04588	4.370635E-010	0.009371	5
	32	11	627.7902	551410.7	-7954581	1	7973670	-86.03461	2.935298E-010	0.0094019	5
	33	11	505.5147	631082.1	-9.839257E+006	1	9.859475E+006	-86.33012	-8.013484E-011	0.0093769	5
	34	12	397.9953	840340.1	-1.234419E+007	1	1.237276E+007	-86.10555	1.211676E-011	0.0094268	5
	35	12	315.5048	1073229	-1.544463E+007	1	1.548187E+007	-86.02497	1.603781E-011	0.0094237	5
	36	12	252.4038	1367853	-1.912807E+007	1	1.917692E+007	-85.90973	1.866919E-011	0.009424	5
	37	13	198.6229	1779527	-2.409242E+007	1	2.415805E+007	-85.77566	2.2475E-011	0.0094281	5
	38	13	158.3615	2281519	-2.990859E+007	1	2.999548E+007	-85.63775	1.768113E-011	0.009423	5
	39	13	125.558	3023432	-3.736143E+007	1	3.748357E+007	-85.37348	-1.417125E-011	0.0094292	4
	40	14	100.4464	3853873	-4.621722E+007	1	4.637762E+007	-85.23336	-1.607439E-011	0.009425	4
	41	14	79.00281	5262964	-5.79935E+007	1	5.823182E+007	-84.81456	-1.841351E-011	0.0094225	4
	42	14	63.3446	6808074	-7.28507E+007	1	7.316813E+007	-84.66108	-1.60518E-011	0.0094168	4
	43	15	49.86702	8960414	-9.077935E+007	1	9.12205E+007	-84.36285	-1.564412E-011	0.0094147	4
	44	15	39.72458	1.279161E+007	-1.117052E+008	1	1.124352E+008	-83.46738	-1.612475E-011	0.0094182	4
	45	15	31.6723	1.657009E+007	-1.379508E+008	1	1.389424E+008	-83.15068	-1.601368E-011	0.0094173	4
	46	16	24.93351	2.336187E+007	-1.727868E+008	1	1.743589E+008	-82.29994	-1.603418E-011	0.0094149	4
	47	16	19.86229	3.156697E+007	-2.131696E+008	1	2.154943E+008	-81.57664	-1.540927E-011	0.0094256	4
	48	16	15.83615	4.830778E+007	-2.61287E+008	1	2.657151E+008	-79.52521	-1.396261E-011	0.0094164	4
	49	17	12.40079	5.891893E+007	-3.292235E+008	1	3.344541E+008	-79.85357	-1.643328E-012	0.0094177	3
	50	17	9.93114	8.696053E+007	-4.02478E+008	1	4.117653E+008	-77.80793	-2.652079E-012	0.0094142	3
	51	18	7.944915	1.208715E+008	-4.8731E+008	1	5.020767E+008	-76.0696	-2.736258E-012	0.0094196	3
	52	18	6.317385	1.710914E+008	-5.946052E+008	1	6.187306E+008	-73.94738	-2.639535E-012	0.0094182	3
	53	19	5.008013	2.395664E+008	-7.214806E+008	1	7.602147E+008	-71.63134	-2.493231E-012	0.0094192	3
	54	21	3.945707	3.407318E+008	-8.678845E+008	1	9.323742E+008	-68.56501	-2.456532E-012	0.0094093	3
	55	22	3.158693	4.712384E+008	-1.018674E+009	1	1.122391E+009	-65.17475	-2.285613E-012	0.0094256	3
	56	24	2.504006	5.689332E+008	-1.141849E+009	1	1.275737E+009	-63.51495	-1.239337E-012	0.0094181	3
	57	25	1.998082	8.65644E+008	-1.32941E+009	1	1.586402E+009	-56.92988	-2.131646E-012	0.0094138	3
	58	27	1.584686	1.115039E+009	-1.425227E+009	1	1.809582E+009	-51.96184	-1.921785E-012	0.0094589	3
	59	29	1.266892	1.423534E+009	-1.504097E+009	1	2.070931E+009	-46.57627	-4.389958E-012	0.0094552	2
	60	31	0.999041	1.700942E+009	-1.890955E+009	1	2.543406E+009	-48.02814	-3.910418E-012	0.0094244	2
