EXPLAIN
TAG	EISPOT
TITLE	LABEL	Potentiostatic EIS	Test &Identifier
DATE	LABEL	1/7/2021	Date
TIME	LABEL	15:35:30	Time
NOTES	NOTES	1	&Notes...
	
PSTAT	PSTAT	REF600-11020	Potentiostat
VDC	POTEN	0.00000E+000	T	DC &Voltage (V)
FREQINIT	QUANT	1.00000E+006	Initial Fre&q. (Hz)
FREQFINAL	QUANT	1.00000E+000	Final Fre&q. (Hz)
PTSPERDEC	QUANT	1.00000E+001	Points/&decade
VAC	QUANT	2.50000E+001	AC &Voltage (mV rms)
AREA	QUANT	4.00000E-005	&Area (cm^2)
CONDIT	TWOPARAM	F	5.00000E+000	0.00000E+000	Conditionin&g	Time(s)	E(V)
DELAY	TWOPARAM	F	3.00000E+000	0.00000E+000	Init. De&lay	Time(s)	Stab.(mV/s)
SPEED	SELECTOR	0	&Optimize for:
ZGUESS	QUANT	1.00000E+003	E&stimated Z (ohms)
OCVCURVE	TABLE	39
	Pt	T	Vf	Vm	Ach	Over
	#	s	V vs. Ref.	V	V	bits
	0	0.258333	8.60555E-002	8.60555E-002	5.37759E-004	...........
	1	0.516667	8.60549E-002	8.60215E-002	5.42092E-004	...........
	2	0.775	8.60509E-002	8.59882E-002	5.43392E-004	...........
	3	1.03333	8.60394E-002	8.59548E-002	5.40992E-004	...........
	4	1.29167	8.60188E-002	8.59287E-002	5.39426E-004	...........
	5	1.55	8.59912E-002	8.58831E-002	5.40892E-004	...........
	6	1.80833	8.59594E-002	8.58534E-002	5.37692E-004	...........
	7	2.06667	8.59258E-002	8.58361E-002	5.38426E-004	...........
	8	2.325	8.58927E-002	8.58016E-002	5.37559E-004	...........
	9	2.58333	8.58615E-002	8.57601E-002	5.38259E-004	...........
	10	2.84167	8.58313E-002	8.57350E-002	5.36992E-004	...........
	11	3.1	8.58003E-002	8.57089E-002	5.33526E-004	...........
	12	3.35833	8.57690E-002	8.56799E-002	5.38692E-004	...........
	13	3.61667	8.57390E-002	8.56578E-002	5.43392E-004	...........
	14	3.875	8.57109E-002	8.56319E-002	5.39992E-004	...........
	15	4.13333	8.56843E-002	8.56072E-002	5.41625E-004	...........
	16	4.39167	8.56587E-002	8.55739E-002	5.42859E-004	...........
	17	4.65	8.56328E-002	8.55431E-002	5.41259E-004	...........
	18	4.90833	8.56057E-002	8.55274E-002	5.42325E-004	...........
	19	5.16667	8.55783E-002	8.55111E-002	5.40526E-004	...........
	20	5.425	8.55528E-002	8.54846E-002	5.44025E-004	...........
	21	5.68333	8.55298E-002	8.54576E-002	5.34159E-004	...........
	22	5.94167	8.55076E-002	8.54297E-002	5.46425E-004	...........
	23	6.2	8.54842E-002	8.54021E-002	5.46925E-004	...........
	24	6.45833	8.54589E-002	8.53771E-002	5.38159E-004	...........
	25	6.71667	8.54324E-002	8.53510E-002	5.49525E-004	...........
	26	6.975	8.54056E-002	8.53262E-002	5.39592E-004	...........
	27	7.23333	8.53791E-002	8.52923E-002	5.46859E-004	...........
	28	7.49167	8.53525E-002	8.52675E-002	5.41292E-004	...........
	29	7.75	8.53252E-002	8.52436E-002	5.42925E-004	...........
	30	8.00833	8.52978E-002	8.52187E-002	5.41359E-004	...........
	31	8.26667	8.52712E-002	8.51994E-002	5.43926E-004	...........
	32	8.525	8.52458E-002	8.51595E-002	5.43459E-004	...........
	33	8.78333	8.52204E-002	8.51246E-002	5.46592E-004	...........
	34	9.04167	8.51928E-002	8.50997E-002	5.44359E-004	...........
	35	9.3	8.51629E-002	8.50747E-002	5.45525E-004	...........
	36	9.5583	8.51325E-002	8.50479E-002	5.41426E-004	...........
	37	9.8167	8.51037E-002	8.50268E-002	5.44925E-004	...........
	38	10.075	8.50768E-002	8.50021E-002	5.43726E-004	...........
EOC	QUANT	0.0850768	Open Circuit (V)
PSTATMODEL	IQUANT	4	Pstat Model
PSTATSECTION	LABEL	REF600-11020	Pstat Section
PSTATSERIALNO	LABEL	11020	Pstat Serial Number
CTRLMODE	IQUANT	1	Control Mode
IESTAB	IQUANT	0	I/E Stability
CASPEED	IQUANT	1	Control Amp Speed
CONVENTION	IQUANT	1	Current Convention
ICHRANGE	IQUANT	2	Ich Range
ICHRANGEMODE	TOGGLE	F	Ich Auto Range
ICHOFFSETENABLE	TOGGLE	T	Ich Offset Enable
ICHOFFSET	QUANT	0	Ich Offset (V)
ICHFILTER	IQUANT	3	Ich Filter
VCHRANGE	IQUANT	2	Vch Range
VCHRANGEMODE	TOGGLE	F	Vch Auto Range
VCHOFFSETENABLE	TOGGLE	T	Vch Offset Enable
VCHOFFSET	QUANT	0	Vch Offset (V)
VCHFILTER	IQUANT	3	Vch Filter
ACHRANGE	IQUANT	2	Ach Range
ACHOFFSETENABLE	TOGGLE	F	Ach Offset Enable
ACHOFFSET	QUANT	0	Ach Offset (V)
ACHFILTER	IQUANT	3	Ach Filter
IERANGELOWERLIMIT	IQUANT	1	I/E Range Lower Limit
IERANGEMODE	TOGGLE	F	I/E AutoRange
IERANGE	IQUANT	8	I/E Range
POSFEEDENABLE	TOGGLE	F	Positive Feedback IR Comp
POSFEEDRESISTANCE	QUANT	0	Positive Feedback Resistance (ohm)
ACHSELECT	IQUANT	0	Ach Select
CABLEID	IQUANT	14	Cable ID
DCCALDATE	LABEL	9/1/2020	DC Calibration Date
ACCALDATE	LABEL	9/1/2020	AC Calibration Date
THERMOSELECT	IQUANT	1	Thermo Select
FRAMEWORKVERSION	QUANT	6.33	Framework Version
INSTRUMENTVERSION	LABEL	3.50	Instrument Version
ZCURVE	TABLE
	Pt	Time	Freq	Zreal	Zimag	Zsig	Zmod	Zphz	Idc	Vdc	IERange
	#	s	Hz	ohm	ohm	V	ohm	°	A	V	#
	0	1	1000078	1128.431	-3378.986	1	3562.429	-71.53297	-1.559705E-008	0.0869124	8
	1	2	794390.6	1377.678	-4079.423	1	4305.774	-71.33946	4.528715E-008	0.0866416	8
	2	2	630984.4	1692.294	-4916.574	1	5199.669	-71.00644	6.844833E-008	0.086572	8
	3	2	501234.4	2090.698	-5913.625	1	6272.318	-70.5295	5.971601E-008	0.0864917	8
	4	3	398109.4	2582.033	-7088.475	1	7544.095	-69.98545	4.286186E-008	0.0864374	8
	5	3	316265.6	3220.969	-8482.742	1	9073.674	-69.2078	4.80624E-008	0.0864165	8
	6	3	251203.1	4028.905	-10088.15	1	10862.91	-68.22971	7.955211E-008	0.0864522	8
	7	4	199546.9	5028.958	-11994.09	1	13005.71	-67.25237	7.092936E-008	0.0864291	8
	8	4	158578.1	6243.528	-14151.62	1	15467.7	-66.19348	8.186012E-008	0.086448	8
	9	4	125953.1	7887.643	-16652.01	1	18425.64	-64.65425	1.714507E-008	0.0864315	7
	10	5	100078.1	9787.45	-19512.24	1	21829.38	-63.36141	-2.501412E-009	0.0863976	7
	11	5	79453.13	12125.4	-22669.03	1	25708.17	-61.85819	1.296992E-008	0.0863802	7
	12	5	63140.62	14941.12	-26232.63	1	30189.2	-60.33578	-5.888433E-009	0.0863858	7
	13	6	50203.12	18327.3	-30032.23	1	35182.73	-58.60619	-2.184429E-010	0.0863926	7
	14	6	39890.62	22252.85	-34320.84	1	40903.66	-57.04155	-1.989783E-009	0.0863766	7
	15	6	31640.63	26940.38	-38840.01	1	47268.71	-55.25387	1.197806E-008	0.086364	7
	16	7	25171.88	32269.31	-43634.79	1	54270.65	-53.5159	1.393738E-008	0.0863682	7
	17	7	20015.62	38477.71	-48649.88	1	62026.97	-51.65915	6.887671E-009	0.086381	7
	18	7	15890.62	45446.5	-53994.69	1	70574.86	-49.91319	4.642297E-009	0.0863826	7
	19	7	12609.37	53352.67	-59806	1	80145.27	-48.26398	2.755465E-009	0.086357	6
	20	8	10078.13	61817.31	-65630.09	1	90159.23	-46.71358	-5.47044E-011	0.0863679	6
	21	8	8015.625	71380.38	-71628.45	1	101122.7	-45.09938	2.432489E-009	0.0863614	6
	22	8	6328.125	82241.62	-78172.9	1	113466.7	-43.54707	-1.859337E-009	0.0864051	6
	23	9	5015.625	93943.23	-84543.13	1	126383.8	-41.98526	7.401034E-010	0.086389	6
	24	9	3984.375	106543.1	-91167.8	1	140224.8	-40.55325	2.105996E-009	0.0863697	6
	25	9	3170.956	120029.6	-97900.6	1	154892.4	-39.20196	-1.307813E-009	0.0864087	6
	26	10	2527.573	134370.9	-104563	1	170261.5	-37.88887	2.007688E-009	0.0863694	6
	27	10	1976.103	151170.7	-112014.2	1	188148.3	-36.53762	2.754079E-009	0.0863546	6
	28	10	1577.524	167578.7	-118827.1	1	205432.4	-35.33979	-7.163158E-010	0.0863946	6
	29	11	1265.625	185482.9	-124258.1	1	223257.7	-33.81879	-1.549171E-010	0.0863932	5
	30	11	998.264	204784	-131775.1	1	243518.3	-32.7606	-1.475093E-010	0.0863925	5
	31	11	796.875	224229.1	-138891.4	1	263760.3	-31.77481	2.877231E-010	0.0863427	5
	32	12	627.7902	245781.2	-146450	1	286104.9	-30.78882	-1.296286E-010	0.0863862	5
	33	12	505.5147	266422.7	-153187.4	1	307323.1	-29.89799	8.205834E-011	0.0863769	5
	34	12	397.9953	290151.1	-160826.2	1	331741.9	-28.99891	1.360762E-010	0.0863777	5
	35	13	315.5048	314200.8	-168248.1	1	356412.1	-28.16813	1.211917E-010	0.0863808	5
	36	13	252.4038	338171.2	-175497.2	1	380997.5	-27.42749	1.388605E-010	0.0863765	5
	37	13	198.6229	364603.9	-183045.6	1	407972.7	-26.65846	1.685882E-010	0.08638	5
	38	14	158.3615	390677.2	-190848.8	1	434801	-26.03587	2.029565E-010	0.086376	5
	39	14	125.558	418317	-199259.6	1	463350.3	-25.47015	1.880051E-010	0.0863778	5
	40	14	100.4464	445704.6	-207874.8	1	491797.2	-25.00415	9.362166E-011	0.08638	5
	41	15	79.00281	476260.8	-217833.4	1	523713.3	-24.57853	1.90731E-010	0.0863756	5
	42	15	63.3446	505241.8	-227920.2	1	554271.5	-24.28067	1.348331E-010	0.0863691	5
	43	15	49.86702	537652.4	-239922.9	1	588755.5	-24.04842	1.980228E-010	0.0863739	5
	44	16	39.72458	569495.1	-252609.4	1	623005.8	-23.92051	1.943703E-010	0.0863772	5
	45	16	31.6723	602321.6	-267097.7	1	658887.4	-23.91475	1.239019E-010	0.0863755	5
	46	16	24.93351	638210.7	-284258.6	1	698652.9	-24.00816	4.0934E-010	0.0863711	5
	47	17	19.86229	673193.6	-303957.3	1	738633.6	-24.29991	6.211714E-010	0.0863776	5
	48	17	15.83615	711691.1	-326154.2	1	782867.1	-24.62107	6.420532E-011	0.0863735	5
	49	17	12.40079	752920.7	-351476.8	1	830918.4	-25.024	6.133559E-010	0.086373	5
	50	17	9.93114	793971.4	-383128.6	1	881577.1	-25.75949	4.608607E-010	0.0863746	5
	51	18	7.944915	838898.3	-416521.4	1	936611.2	-26.40486	-2.796632E-010	0.0863782	4
	52	18	6.317385	889012.5	-458785.6	1	1000414	-27.29654	2.480427E-010	0.0863683	4
	53	19	5.008013	940744.3	-506671.2	1	1068511	-28.30626	4.392124E-010	0.0863833	4
	54	20	3.945707	1003710	-563347.6	1	1150997	-29.30399	2.17308E-010	0.0863673	4
	55	21	3.158693	1066247	-628642.7	1	1237770	-30.52295	2.713982E-010	0.0863811	4
	56	22	2.504006	1141476	-704125.5	1	1341179	-31.66858	9.995815E-011	0.0863745	4
	57	23	1.998082	1221683	-793911.7	1	1456985	-33.01785	7.629437E-011	0.0863625	4
	58	25	1.584686	1310504	-886155	1	1581990	-34.06632	1.885924E-010	0.0864117	4
	59	27	1.266892	1417944	-1002129	1	1736326	-35.25068	2.193263E-010	0.0864098	4
	60	29	0.999041	1545690	-1144475	1	1923273	-36.51735	2.354972E-010	0.0863893	4
