EXPLAIN
TAG	EISPOT
TITLE	LABEL	Potentiostatic EIS	Test &Identifier
DATE	LABEL	1/7/2021	Date
TIME	LABEL	16:09:17	Time
NOTES	NOTES	1	&Notes...
	
PSTAT	PSTAT	REF600-11020	Potentiostat
VDC	POTEN	0.00000E+000	T	DC &Voltage (V)
FREQINIT	QUANT	1.00000E+006	Initial Fre&q. (Hz)
FREQFINAL	QUANT	1.00000E+000	Final Fre&q. (Hz)
PTSPERDEC	QUANT	1.00000E+001	Points/&decade
VAC	QUANT	2.50000E+001	AC &Voltage (mV rms)
AREA	QUANT	4.00000E-005	&Area (cm^2)
CONDIT	TWOPARAM	F	5.00000E+000	0.00000E+000	Conditionin&g	Time(s)	E(V)
DELAY	TWOPARAM	F	3.00000E+000	0.00000E+000	Init. De&lay	Time(s)	Stab.(mV/s)
SPEED	SELECTOR	0	&Optimize for:
ZGUESS	QUANT	1.00000E+003	E&stimated Z (ohms)
OCVCURVE	TABLE	39
	Pt	T	Vf	Vm	Ach	Over
	#	s	V vs. Ref.	V	V	bits
	0	0.258333	1.09879E-001	1.09879E-001	5.32992E-004	...........
	1	0.516667	1.09879E-001	1.09871E-001	5.29626E-004	...........
	2	0.775	1.09878E-001	1.09874E-001	5.32559E-004	...........
	3	1.03333	1.09877E-001	1.09873E-001	5.34426E-004	...........
	4	1.29167	1.09875E-001	1.09874E-001	5.30159E-004	...........
	5	1.55	1.09874E-001	1.09872E-001	5.30592E-004	...........
	6	1.80833	1.09873E-001	1.09874E-001	5.29359E-004	...........
	7	2.06667	1.09873E-001	1.09868E-001	5.31992E-004	...........
	8	2.325	1.09873E-001	1.09870E-001	5.29726E-004	...........
	9	2.58333	1.09872E-001	1.09868E-001	5.28992E-004	...........
	10	2.84167	1.09870E-001	1.09859E-001	5.28292E-004	...........
	11	3.1	1.09868E-001	1.09861E-001	5.31692E-004	...........
	12	3.35833	1.09866E-001	1.09858E-001	5.32026E-004	...........
	13	3.61667	1.09863E-001	1.09860E-001	5.35459E-004	...........
	14	3.875	1.09861E-001	1.09857E-001	5.31826E-004	...........
	15	4.13333	1.09859E-001	1.09859E-001	5.25559E-004	...........
	16	4.39167	1.09859E-001	1.09854E-001	5.29326E-004	...........
	17	4.65	1.09858E-001	1.09854E-001	5.27892E-004	...........
	18	4.90833	1.09857E-001	1.09848E-001	5.25392E-004	...........
	19	5.16667	1.09855E-001	1.09858E-001	5.30292E-004	...........
	20	5.425	1.09854E-001	1.09851E-001	5.25692E-004	...........
	21	5.68333	1.09853E-001	1.09839E-001	5.24526E-004	...........
	22	5.94167	1.09851E-001	1.09839E-001	5.20626E-004	...........
	23	6.2	1.09848E-001	1.09839E-001	5.26326E-004	...........
	24	6.45833	1.09844E-001	1.09836E-001	5.22792E-004	...........
	25	6.71667	1.09841E-001	1.09835E-001	5.27492E-004	...........
	26	6.975	1.09838E-001	1.09830E-001	5.23526E-004	...........
	27	7.23333	1.09836E-001	1.09825E-001	5.23293E-004	...........
	28	7.49167	1.09833E-001	1.09825E-001	5.24226E-004	...........
	29	7.75	1.09830E-001	1.09822E-001	5.22726E-004	...........
	30	8.00833	1.09827E-001	1.09821E-001	5.28792E-004	...........
	31	8.26667	1.09825E-001	1.09815E-001	5.28092E-004	...........
	32	8.525	1.09822E-001	1.09812E-001	5.21792E-004	...........
	33	8.78333	1.09819E-001	1.09812E-001	5.23259E-004	...........
	34	9.04167	1.09816E-001	1.09809E-001	5.27359E-004	...........
	35	9.3	1.09814E-001	1.09805E-001	5.18459E-004	...........
	36	9.5583	1.09811E-001	1.09806E-001	5.20859E-004	...........
	37	9.8167	1.09809E-001	1.09802E-001	5.20692E-004	...........
	38	10.075	1.09807E-001	1.09798E-001	5.26526E-004	...........
EOC	QUANT	0.1098067	Open Circuit (V)
PSTATMODEL	IQUANT	4	Pstat Model
PSTATSECTION	LABEL	REF600-11020	Pstat Section
PSTATSERIALNO	LABEL	11020	Pstat Serial Number
CTRLMODE	IQUANT	1	Control Mode
IESTAB	IQUANT	0	I/E Stability
CASPEED	IQUANT	1	Control Amp Speed
CONVENTION	IQUANT	1	Current Convention
ICHRANGE	IQUANT	2	Ich Range
ICHRANGEMODE	TOGGLE	F	Ich Auto Range
ICHOFFSETENABLE	TOGGLE	T	Ich Offset Enable
ICHOFFSET	QUANT	0	Ich Offset (V)
ICHFILTER	IQUANT	3	Ich Filter
VCHRANGE	IQUANT	2	Vch Range
VCHRANGEMODE	TOGGLE	F	Vch Auto Range
VCHOFFSETENABLE	TOGGLE	T	Vch Offset Enable
VCHOFFSET	QUANT	0	Vch Offset (V)
VCHFILTER	IQUANT	3	Vch Filter
ACHRANGE	IQUANT	2	Ach Range
ACHOFFSETENABLE	TOGGLE	F	Ach Offset Enable
ACHOFFSET	QUANT	0	Ach Offset (V)
ACHFILTER	IQUANT	3	Ach Filter
IERANGELOWERLIMIT	IQUANT	1	I/E Range Lower Limit
IERANGEMODE	TOGGLE	F	I/E AutoRange
IERANGE	IQUANT	8	I/E Range
POSFEEDENABLE	TOGGLE	F	Positive Feedback IR Comp
POSFEEDRESISTANCE	QUANT	0	Positive Feedback Resistance (ohm)
ACHSELECT	IQUANT	0	Ach Select
CABLEID	IQUANT	14	Cable ID
DCCALDATE	LABEL	9/1/2020	DC Calibration Date
ACCALDATE	LABEL	9/1/2020	AC Calibration Date
THERMOSELECT	IQUANT	1	Thermo Select
FRAMEWORKVERSION	QUANT	6.33	Framework Version
INSTRUMENTVERSION	LABEL	3.50	Instrument Version
ZCURVE	TABLE
	Pt	Time	Freq	Zreal	Zimag	Zsig	Zmod	Zphz	Idc	Vdc	IERange
	#	s	Hz	ohm	ohm	V	ohm	°	A	V	#
	0	1	1000078	1554.28	-2801.263	1	3203.57	-60.97631	1.163065E-007	0.1115802	8
	1	1	794390.6	1869.898	-3231.7	1	3733.685	-59.94584	3.252924E-008	0.1113719	8
	2	1	630984.4	2227.061	-3712.903	1	4329.601	-59.04396	1.066215E-007	0.1112442	8
	3	2	501234.4	2626.604	-4252.46	1	4998.247	-58.29775	1.811856E-007	0.1111808	8
	4	2	398109.4	3067.01	-4870.981	1	5756.127	-57.80346	1.699288E-007	0.1111412	8
	5	2	316265.6	3541.039	-5599.568	1	6625.264	-57.69167	5.63836E-008	0.1111489	8
	6	3	251203.1	4094.274	-6436.319	1	7628.19	-57.53873	5.582919E-008	0.1111706	8
	7	3	199546.9	4699.617	-7424.571	1	8786.959	-57.66694	5.817127E-008	0.111157	8
	8	3	158578.1	5386.315	-8632.469	1	10175.06	-58.03749	4.976335E-008	0.1111503	8
	9	4	125953.1	6227.374	-10015.12	1	11793.34	-58.12677	1.206597E-009	0.1111767	7
	10	4	100078.1	7153.149	-11689.55	1	13704.49	-58.53641	-5.689338E-009	0.1111313	7
	11	4	79453.13	8233.213	-13646.22	1	15937.54	-58.89604	7.320242E-009	0.111129	7
	12	5	63140.62	9508.85	-15993.3	1	18606.55	-59.26632	-3.66907E-009	0.1111149	7
	13	5	50203.12	11023.5	-18655.6	1	21669.08	-59.42138	8.662759E-009	0.1111176	7
	14	5	39890.62	12858.57	-21801.89	1	25311.37	-59.46826	-3.742668E-009	0.1111215	7
	15	5	31640.63	14999.23	-25449.47	1	29540.69	-59.48606	-2.622774E-011	0.1111192	7
	16	6	25171.88	17455.54	-29697.04	1	34447.21	-59.55354	-3.967703E-009	0.1111105	7
	17	6	20015.62	20380.27	-34495.92	1	40066.49	-59.4253	-2.328264E-009	0.111116	7
	18	6	15890.62	23759.18	-40216.34	1	46710.3	-59.42608	-3.852229E-009	0.1111182	7
	19	7	12609.37	27734.1	-46918.9	1	54502.87	-59.41236	2.412789E-010	0.1111226	6
	20	7	10078.13	32260.89	-54576.99	1	63398.84	-59.41233	3.234789E-010	0.111129	6
	21	7	8015.625	37582.04	-64040.16	1	74253.29	-59.59341	6.401967E-010	0.1111075	6
	22	8	6328.125	44386.98	-75685.13	1	87740.77	-59.6097	2.363482E-010	0.1111153	6
	23	8	5015.625	53244.25	-88866.95	1	103596.7	-59.07225	1.938521E-009	0.111107	6
	24	8	3984.375	64375.3	-104190.7	1	122474	-58.28973	1.934251E-010	0.1111114	6
	25	9	3170.956	78838.03	-121105.1	1	144505.7	-56.93634	1.335868E-009	0.1110929	6
	26	9	2527.573	97224.3	-139917.2	1	170380.1	-55.20572	7.296656E-010	0.1111037	6
	27	9	1976.103	123396.8	-158539.1	1	200901.5	-52.10506	2.049083E-009	0.1110881	6
	28	10	1577.524	152672.2	-174567.4	1	231910.7	-48.82789	1.640938E-010	0.1111165	6
	29	10	1265.625	187261.7	-187932.5	1	265302.8	-45.10244	2.598465E-010	0.1110986	5
	30	10	998.264	226831.4	-194611.5	1	298874.7	-40.62816	4.74613E-010	0.1110907	5
	31	11	796.875	265223.8	-194366.8	1	328819.2	-36.23548	1.700143E-010	0.1111172	5
	32	11	627.7902	307234.2	-194903.2	1	363840.8	-32.39022	1.743237E-010	0.1111137	5
	33	11	505.5147	341780.3	-186735.6	1	389466.3	-28.6505	2.220478E-010	0.1111013	5
	34	12	397.9953	371785.8	-169954.2	1	408789.8	-24.56653	2.630775E-010	0.1111208	5
	35	12	315.5048	400615	-157632.5	1	430511.8	-21.47845	2.684943E-010	0.1111184	5
	36	12	252.4038	417189.9	-140200	1	440117.5	-18.57533	2.614041E-010	0.1111137	5
	37	13	198.6229	440113.1	-130131.3	1	458948.4	-16.47174	3.363876E-010	0.1111165	5
	38	13	158.3615	460113.4	-121466.3	1	475876.5	-14.78825	2.50458E-010	0.1111141	5
	39	13	125.558	463305.7	-108907.7	1	475933.9	-13.22817	2.968462E-010	0.1111133	5
	40	14	100.4464	472016.9	-102493.5	1	483016.4	-12.251	2.534714E-010	0.1111144	5
	41	14	79.00281	484109.5	-100559.2	1	494443.3	-11.7346	2.459935E-010	0.1111128	5
	42	14	63.3446	498802	-102379.3	1	509200.3	-11.5989	1.651467E-010	0.1111106	5
	43	15	49.86702	502928.5	-103742.4	1	513516.9	-11.65531	1.930225E-010	0.1111105	5
	44	15	39.72458	500804.3	-108144	1	512347.6	-12.18538	3.389265E-010	0.111113	5
	45	16	31.6723	511901.6	-117710.6	1	525260.9	-12.94991	1.658342E-010	0.11111	5
	46	16	24.93351	522259.5	-131644.4	1	538595.6	-14.14766	4.541573E-010	0.1111119	5
	47	16	19.86229	537154.9	-152617	1	558415	-15.86096	1.286345E-009	0.1111169	5
	48	16	15.83615	552971.3	-176009.3	1	580307.3	-17.65613	-3.053555E-010	0.1111124	5
	49	17	12.40079	570910.5	-201792	1	605523.6	-19.46628	3.810505E-010	0.1111124	5
	50	17	9.93114	589297.9	-236431.6	1	634958.3	-21.8611	7.826931E-010	0.1111156	5
	51	18	7.944915	606784.3	-272120.9	1	665009	-24.15452	-1.518652E-010	0.1111093	5
	52	18	6.317385	634071.5	-318442.8	1	709543.9	-26.66668	-8.045618E-011	0.111112	5
	53	19	5.008013	657192.8	-373121.4	1	755726.1	-29.58576	1.735963E-010	0.1111184	5
	54	20	3.945707	709572.1	-436593.6	1	833130.6	-31.60363	9.811615E-011	0.1111072	5
	55	21	3.158693	759509.1	-501672	1	910235.6	-33.44562	9.607585E-011	0.1111279	5
	56	22	2.504006	819543.3	-573871.6	1	1000490	-35.001	-1.811015E-010	0.1111222	4
	57	23	1.998082	890755.9	-652301.8	1	1104058	-36.21537	-6.389557E-011	0.1111211	4
	58	25	1.584686	970536	-738128.3	1	1219334	-37.25431	5.905988E-011	0.1111569	4
	59	27	1.266892	1051281	-834196.8	1	1342042	-38.43218	7.130375E-011	0.1111373	4
	60	29	0.999041	1151371	-944473.4	1	1489189	-39.36215	6.608267E-011	0.1111043	4
