EXPLAIN
TAG	EISPOT
TITLE	LABEL	Potentiostatic EIS	Test &Identifier
DATE	LABEL	6/10/2021	Date
TIME	LABEL	16:08:15	Time
NOTES	NOTES	1	&Notes...
	
PSTAT	PSTAT	REF600-11020	Potentiostat
VDC	POTEN	0.00000E+000	T	DC &Voltage (V)
FREQINIT	QUANT	1.00000E+006	Initial Fre&q. (Hz)
FREQFINAL	QUANT	1.00000E+000	Final Fre&q. (Hz)
PTSPERDEC	QUANT	1.00000E+001	Points/&decade
VAC	QUANT	2.50000E+001	AC &Voltage (mV rms)
AREA	QUANT	4.00000E-005	&Area (cm^2)
CONDIT	TWOPARAM	F	5.00000E+000	0.00000E+000	Conditionin&g	Time(s)	E(V)
DELAY	TWOPARAM	F	3.00000E+000	0.00000E+000	Init. De&lay	Time(s)	Stab.(mV/s)
SPEED	SELECTOR	0	&Optimize for:
ZGUESS	QUANT	1.00000E+003	E&stimated Z (ohms)
OCVCURVE	TABLE	39
	Pt	T	Vf	Vm	Ach	Over
	#	s	V vs. Ref.	V	V	bits
	0	0.258333	-3.81473E-002	-3.81473E-002	5.38126E-004	...........
	1	0.516667	-3.81473E-002	-3.81475E-002	5.33526E-004	...........
	2	0.775	-3.81473E-002	-3.81507E-002	5.38992E-004	...........
	3	1.03333	-3.81478E-002	-3.81575E-002	5.35559E-004	...........
	4	1.29167	-3.81494E-002	-3.81612E-002	5.33192E-004	...........
	5	1.55	-3.81523E-002	-3.81665E-002	5.28592E-004	...........
	6	1.80833	-3.81563E-002	-3.81696E-002	5.35892E-004	...........
	7	2.06667	-3.81609E-002	-3.81762E-002	5.29392E-004	...........
	8	2.325	-3.81656E-002	-3.81815E-002	5.29726E-004	...........
	9	2.58333	-3.81705E-002	-3.81888E-002	5.30259E-004	...........
	10	2.84167	-3.81759E-002	-3.81926E-002	5.35092E-004	...........
	11	3.1	-3.81814E-002	-3.81955E-002	5.29826E-004	...........
	12	3.35833	-3.81867E-002	-3.81978E-002	5.29326E-004	...........
	13	3.61667	-3.81912E-002	-3.82004E-002	5.36159E-004	...........
	14	3.875	-3.81949E-002	-3.82064E-002	5.36559E-004	...........
	15	4.13333	-3.81982E-002	-3.82125E-002	5.38792E-004	...........
	16	4.39167	-3.82019E-002	-3.82147E-002	5.31226E-004	...........
	17	4.65	-3.82061E-002	-3.82178E-002	5.32092E-004	...........
	18	4.90833	-3.82105E-002	-3.82255E-002	5.34926E-004	...........
	19	5.16667	-3.82148E-002	-3.82294E-002	5.38326E-004	...........
	20	5.425	-3.82192E-002	-3.82310E-002	5.33259E-004	...........
	21	5.68333	-3.82237E-002	-3.82361E-002	5.26292E-004	...........
	22	5.94167	-3.82280E-002	-3.82429E-002	5.35726E-004	...........
	23	6.2	-3.82321E-002	-3.82435E-002	5.33092E-004	...........
	24	6.45833	-3.82365E-002	-3.82597E-002	5.38059E-004	...........
	25	6.71667	-3.82416E-002	-3.82542E-002	5.31959E-004	...........
	26	6.975	-3.82470E-002	-3.82577E-002	5.35726E-004	...........
	27	7.23333	-3.82519E-002	-3.82635E-002	5.34626E-004	...........
	28	7.49167	-3.82557E-002	-3.82643E-002	5.31459E-004	...........
	29	7.75	-3.82589E-002	-3.82659E-002	5.33692E-004	...........
	30	8.00833	-3.82617E-002	-3.82703E-002	5.35759E-004	...........
	31	8.26667	-3.82642E-002	-3.82716E-002	5.29626E-004	...........
	32	8.525	-3.82668E-002	-3.82755E-002	5.35159E-004	...........
	33	8.78333	-3.82694E-002	-3.82790E-002	5.37192E-004	...........
	34	9.04167	-3.82723E-002	-3.82868E-002	5.32926E-004	...........
	35	9.3	-3.82759E-002	-3.82890E-002	5.36159E-004	...........
	36	9.5583	-3.82803E-002	-3.83090E-002	5.30092E-004	...........
	37	9.8167	-3.82860E-002	-3.82952E-002	5.32459E-004	...........
	38	10.075	-3.82921E-002	-3.82986E-002	5.31792E-004	...........
EOC	QUANT	-0.0382921	Open Circuit (V)
PSTATMODEL	IQUANT	4	Pstat Model
PSTATSECTION	LABEL	REF600-11020	Pstat Section
PSTATSERIALNO	LABEL	11020	Pstat Serial Number
CTRLMODE	IQUANT	1	Control Mode
IESTAB	IQUANT	0	I/E Stability
CASPEED	IQUANT	1	Control Amp Speed
CONVENTION	IQUANT	1	Current Convention
ICHRANGE	IQUANT	2	Ich Range
ICHRANGEMODE	TOGGLE	F	Ich Auto Range
ICHOFFSETENABLE	TOGGLE	T	Ich Offset Enable
ICHOFFSET	QUANT	0	Ich Offset (V)
ICHFILTER	IQUANT	3	Ich Filter
VCHRANGE	IQUANT	2	Vch Range
VCHRANGEMODE	TOGGLE	F	Vch Auto Range
VCHOFFSETENABLE	TOGGLE	T	Vch Offset Enable
VCHOFFSET	QUANT	0	Vch Offset (V)
VCHFILTER	IQUANT	3	Vch Filter
ACHRANGE	IQUANT	2	Ach Range
ACHOFFSETENABLE	TOGGLE	F	Ach Offset Enable
ACHOFFSET	QUANT	0	Ach Offset (V)
ACHFILTER	IQUANT	3	Ach Filter
IERANGELOWERLIMIT	IQUANT	1	I/E Range Lower Limit
IERANGEMODE	TOGGLE	F	I/E AutoRange
IERANGE	IQUANT	7	I/E Range
POSFEEDENABLE	TOGGLE	F	Positive Feedback IR Comp
POSFEEDRESISTANCE	QUANT	0	Positive Feedback Resistance (ohm)
ACHSELECT	IQUANT	0	Ach Select
CABLEID	IQUANT	14	Cable ID
DCCALDATE	LABEL	9/1/2020	DC Calibration Date
ACCALDATE	LABEL	9/1/2020	AC Calibration Date
THERMOSELECT	IQUANT	1	Thermo Select
FRAMEWORKVERSION	QUANT	6.33	Framework Version
INSTRUMENTVERSION	LABEL	3.50	Instrument Version
ZCURVE	TABLE
	Pt	Time	Freq	Zreal	Zimag	Zsig	Zmod	Zphz	Idc	Vdc	IERange
	#	s	Hz	ohm	ohm	V	ohm	°	A	V	#
	0	1	1000078	1154.315	-2506.53	1	2759.553	-65.27283	2.015769E-008	-0.0360854	8
	1	2	794390.6	1323.115	-2951.063	1	3234.1	-65.85083	-2.925795E-009	-0.0364364	8
	2	2	630984.4	1506.599	-3497.41	1	3808.112	-66.6948	-1.268744E-009	-0.0365629	8
	3	2	501234.4	1708.768	-4180.055	1	4515.833	-67.7657	2.923992E-008	-0.0366699	8
	4	3	398109.4	1931.585	-5026.173	1	5384.556	-68.97797	-3.207745E-009	-0.0367561	8
	5	3	316265.6	2229.255	-6087.083	1	6482.45	-69.88589	1.166421E-007	-0.0367734	8
	6	3	251203.1	2600.1	-7417.083	1	7859.621	-70.68159	3.639509E-008	-0.0367883	8
	7	3	199546.9	3132.199	-9022.471	1	9550.69	-70.85529	4.13041E-008	-0.0367736	8
	8	4	158578.1	3862.101	-11014.26	1	11671.75	-70.67701	4.380564E-008	-0.0367988	8
	9	4	125953.1	4979.899	-13432.03	1	14325.46	-69.65783	-1.940985E-009	-0.036804	7
	10	4	100078.1	6439.079	-16272.99	1	17500.62	-68.41173	-1.436891E-009	-0.0368192	7
	11	5	79453.13	8542.946	-19559.84	1	21344.07	-66.40624	6.791832E-010	-0.0368197	7
	12	5	63140.62	11437.19	-23215.77	1	25880.13	-63.77295	-3.423594E-010	-0.0368295	7
	13	5	50203.12	15395.28	-27035.95	1	31112.01	-60.34119	1.141745E-009	-0.0368369	7
	14	6	39890.62	20566.86	-30569.09	1	36843.79	-56.06736	8.768603E-010	-0.0368273	7
	15	6	31640.63	26954.78	-33556.5	1	43041.83	-51.22629	1.639461E-009	-0.0368303	7
	16	6	25171.88	34129.54	-35403.17	1	49175.3	-46.04937	2.484852E-010	-0.0368278	7
	17	7	20015.62	41641.85	-35119.52	1	54474.07	-40.1433	1.281574E-010	-0.0368441	7
	18	7	15890.62	48836.49	-34138.7	1	59585.68	-34.95512	1.807137E-009	-0.0368385	7
	19	7	12609.37	55572.24	-32080.37	1	64167.15	-29.99669	6.208664E-010	-0.0368466	6
	20	7	10078.13	61011.32	-29616.79	1	67819.88	-25.89338	4.096815E-010	-0.0368426	6
	21	8	8015.625	65840.66	-27138.47	1	71214.39	-22.40068	3.938363E-010	-0.0368363	6
	22	8	6328.125	68341.3	-23543.62	1	72283.02	-19.00886	3.891325E-010	-0.0368421	6
	23	8	5015.625	71018.11	-21349.12	1	74157.65	-16.73158	1.333189E-010	-0.0368472	6
	24	9	3984.375	72538.31	-19377.53	1	75081.92	-14.95647	4.148225E-010	-0.0368462	6
	25	9	3170.956	74940.66	-18465.33	1	77182.06	-13.84191	2.887759E-010	-0.0368495	6
	26	9	2527.573	76146.65	-17794.83	1	78198.26	-13.15349	2.721659E-010	-0.0368484	6
	27	10	1976.103	77048.8	-17710.61	1	79058.09	-12.94527	1.444288E-010	-0.036853	6
	28	10	1577.524	79192.09	-18429.96	1	81308.37	-13.10095	1.545246E-010	-0.0368477	6
	29	10	1265.625	80078.98	-19440.76	1	82405.02	-13.64569	2.226747E-010	-0.0368429	6
	30	11	998.264	83456.98	-21375.1	1	86150.81	-14.36585	5.928436E-011	-0.0368476	6
	31	11	796.875	83982.91	-23473.76	1	87201.77	-15.61602	-1.158842E-011	-0.0368461	6
	32	11	627.7902	86087.31	-26152.1	1	89971.98	-16.89804	-1.17007E-010	-0.036857	5
	33	12	505.5147	88017.77	-29571.66	1	92852.63	-18.571	-1.855644E-010	-0.0368516	5
	34	12	397.9953	91102.95	-34143.36	1	97290.9	-20.54488	-6.209734E-011	-0.0368333	5
	35	12	315.5048	93819.15	-39415.13	1	101762.4	-22.78816	-9.904233E-011	-0.0368361	5
	36	12	252.4038	98432.2	-45359.86	1	108380.9	-24.74136	-1.235772E-010	-0.0368378	5
	37	13	198.6229	103664.6	-52776.63	1	116325.9	-26.98107	-1.281275E-010	-0.036837	5
	38	13	158.3615	108620.6	-60910.86	1	124533.4	-29.28227	-7.77055E-011	-0.0368401	5
	39	13	125.558	114334.3	-70554.66	1	134351.4	-31.67836	-1.222681E-010	-0.0368395	5
	40	14	100.4464	121874	-81286.15	1	146494.7	-33.70206	-2.336442E-010	-0.0368393	5
	41	14	79.00281	130702.8	-94485.17	1	161278.2	-35.86321	-1.66548E-010	-0.0368439	5
	42	14	63.3446	141651.1	-108436.2	1	178391.3	-37.43465	-1.07988E-010	-0.0368422	5
	43	15	49.86702	154364.5	-125596.3	1	199004.6	-39.133	-9.398034E-011	-0.0368439	5
	44	15	39.72458	169469.9	-144191.1	1	222511	-40.39234	-2.001166E-010	-0.0368429	5
	45	15	31.6723	186522	-164655.6	1	248801	-41.43702	-2.219706E-010	-0.0368456	5
	46	16	24.93351	208921.9	-188662.7	1	281499.5	-42.08298	2.855576E-010	-0.0368422	5
	47	16	19.86229	232897.8	-214330.8	1	316510.8	-42.62269	1.054774E-009	-0.0368407	5
	48	16	15.83615	261874.6	-241029.1	1	355912	-42.62644	-6.138042E-010	-0.0368423	5
	49	17	12.40079	297685	-271536.6	1	402924.9	-42.36984	-9.746773E-010	-0.0368429	5
	50	17	9.93114	331484.5	-302074.9	1	448476.6	-42.34225	-3.155117E-010	-0.0368453	5
	51	17	7.944915	370464.2	-333275.2	1	498313.3	-41.97503	-1.027695E-010	-0.0368416	5
	52	18	6.317385	415279	-366883.4	1	554130	-41.45938	2.628654E-011	-0.0368478	5
	53	18	5.008013	465099.6	-404371.6	1	616306.8	-41.00468	3.194423E-010	-0.0368345	5
	54	19	3.945707	517739.2	-444386.4	1	682299.9	-40.64018	-4.792748E-011	-0.036851	5
	55	20	3.158693	571551.6	-487269.1	1	751067.4	-40.44883	1.486623E-010	-0.0368445	5
	56	21	2.504006	628836	-537068.4	1	826968.7	-40.49957	8.236516E-011	-0.0368483	5
	57	22	1.998082	689113.7	-592644.4	1	908903.2	-40.69585	-1.223538E-010	-0.0368919	5
	58	24	1.584686	753271.5	-662470.5	1	1003138	-41.33027	-7.679142E-011	-0.0368759	4
	59	26	1.266892	819947.6	-737859.4	1	1103064	-41.9836	-1.589315E-011	-0.0368382	4
	60	28	0.999041	898104.8	-832690.3	1	1224731	-42.83557	2.735874E-011	-0.0368167	4
