EXPLAIN
TAG	EISPOT
TITLE	LABEL	Potentiostatic EIS	Test &Identifier
DATE	LABEL	6/10/2021	Date
TIME	LABEL	16:01:30	Time
NOTES	NOTES	1	&Notes...
	
PSTAT	PSTAT	REF600-11020	Potentiostat
VDC	POTEN	0.00000E+000	T	DC &Voltage (V)
FREQINIT	QUANT	1.00000E+006	Initial Fre&q. (Hz)
FREQFINAL	QUANT	1.00000E+000	Final Fre&q. (Hz)
PTSPERDEC	QUANT	1.00000E+001	Points/&decade
VAC	QUANT	2.50000E+001	AC &Voltage (mV rms)
AREA	QUANT	4.00000E-005	&Area (cm^2)
CONDIT	TWOPARAM	F	5.00000E+000	0.00000E+000	Conditionin&g	Time(s)	E(V)
DELAY	TWOPARAM	F	3.00000E+000	0.00000E+000	Init. De&lay	Time(s)	Stab.(mV/s)
SPEED	SELECTOR	0	&Optimize for:
ZGUESS	QUANT	1.00000E+003	E&stimated Z (ohms)
OCVCURVE	TABLE	39
	Pt	T	Vf	Vm	Ach	Over
	#	s	V vs. Ref.	V	V	bits
	0	0.258333	-2.43589E-002	-2.43589E-002	5.62192E-004	...........
	1	0.516667	-2.43597E-002	-2.44021E-002	5.66958E-004	...........
	2	0.775	-2.43648E-002	-2.44447E-002	5.58125E-004	...........
	3	1.03333	-2.43794E-002	-2.44856E-002	5.57392E-004	...........
	4	1.29167	-2.44057E-002	-2.45314E-002	5.61059E-004	...........
	5	1.55	-2.44416E-002	-2.45758E-002	5.58092E-004	...........
	6	1.80833	-2.44830E-002	-2.46128E-002	5.64425E-004	...........
	7	2.06667	-2.45262E-002	-2.46535E-002	5.58859E-004	...........
	8	2.325	-2.45687E-002	-2.46886E-002	5.56659E-004	...........
	9	2.58333	-2.46095E-002	-2.47279E-002	5.49259E-004	...........
	10	2.84167	-2.46486E-002	-2.47610E-002	5.48659E-004	...........
	11	3.1	-2.46864E-002	-2.48005E-002	5.49625E-004	...........
	12	3.35833	-2.47235E-002	-2.48384E-002	5.47459E-004	...........
	13	3.61667	-2.47603E-002	-2.48738E-002	5.44925E-004	...........
	14	3.875	-2.47975E-002	-2.49150E-002	5.46059E-004	...........
	15	4.13333	-2.48348E-002	-2.49481E-002	5.49392E-004	...........
	16	4.39167	-2.48720E-002	-2.49726E-002	5.42992E-004	...........
	17	4.65	-2.49076E-002	-2.49944E-002	5.54459E-004	...........
	18	4.90833	-2.49390E-002	-2.49744E-002	5.50425E-004	...........
	19	5.16667	-2.49638E-002	-2.50480E-002	5.56425E-004	...........
	20	5.425	-2.49846E-002	-2.50896E-002	5.53559E-004	...........
	21	5.68333	-2.50091E-002	-2.51205E-002	5.54525E-004	...........
	22	5.94167	-2.50414E-002	-2.51496E-002	5.63758E-004	...........
	23	6.2	-2.50779E-002	-2.51796E-002	5.50592E-004	...........
	24	6.45833	-2.51135E-002	-2.52061E-002	5.55092E-004	...........
	25	6.71667	-2.51462E-002	-2.52364E-002	5.54492E-004	...........
	26	6.975	-2.51763E-002	-2.52584E-002	5.56692E-004	...........
	27	7.23333	-2.52046E-002	-2.52866E-002	5.58459E-004	...........
	28	7.49167	-2.52317E-002	-2.53140E-002	5.56725E-004	...........
	29	7.75	-2.52584E-002	-2.53466E-002	5.57925E-004	...........
	30	8.00833	-2.52855E-002	-2.53703E-002	5.49992E-004	...........
	31	8.26667	-2.53133E-002	-2.53946E-002	5.56992E-004	...........
	32	8.525	-2.53408E-002	-2.54194E-002	5.56259E-004	...........
	33	8.78333	-2.53673E-002	-2.54451E-002	5.50859E-004	...........
	34	9.04167	-2.53929E-002	-2.54686E-002	5.58159E-004	...........
	35	9.3	-2.54178E-002	-2.54911E-002	5.53459E-004	...........
	36	9.5583	-2.54422E-002	-2.55137E-002	5.52459E-004	...........
	37	9.8167	-2.54660E-002	-2.55374E-002	5.51259E-004	...........
	38	10.075	-2.54893E-002	-2.55610E-002	5.60059E-004	...........
EOC	QUANT	-0.0254893	Open Circuit (V)
PSTATMODEL	IQUANT	4	Pstat Model
PSTATSECTION	LABEL	REF600-11020	Pstat Section
PSTATSERIALNO	LABEL	11020	Pstat Serial Number
CTRLMODE	IQUANT	1	Control Mode
IESTAB	IQUANT	0	I/E Stability
CASPEED	IQUANT	1	Control Amp Speed
CONVENTION	IQUANT	1	Current Convention
ICHRANGE	IQUANT	2	Ich Range
ICHRANGEMODE	TOGGLE	F	Ich Auto Range
ICHOFFSETENABLE	TOGGLE	T	Ich Offset Enable
ICHOFFSET	QUANT	0	Ich Offset (V)
ICHFILTER	IQUANT	3	Ich Filter
VCHRANGE	IQUANT	2	Vch Range
VCHRANGEMODE	TOGGLE	F	Vch Auto Range
VCHOFFSETENABLE	TOGGLE	T	Vch Offset Enable
VCHOFFSET	QUANT	0	Vch Offset (V)
VCHFILTER	IQUANT	3	Vch Filter
ACHRANGE	IQUANT	2	Ach Range
ACHOFFSETENABLE	TOGGLE	F	Ach Offset Enable
ACHOFFSET	QUANT	0	Ach Offset (V)
ACHFILTER	IQUANT	3	Ach Filter
IERANGELOWERLIMIT	IQUANT	1	I/E Range Lower Limit
IERANGEMODE	TOGGLE	F	I/E AutoRange
IERANGE	IQUANT	7	I/E Range
POSFEEDENABLE	TOGGLE	F	Positive Feedback IR Comp
POSFEEDRESISTANCE	QUANT	0	Positive Feedback Resistance (ohm)
ACHSELECT	IQUANT	0	Ach Select
CABLEID	IQUANT	14	Cable ID
DCCALDATE	LABEL	9/1/2020	DC Calibration Date
ACCALDATE	LABEL	9/1/2020	AC Calibration Date
THERMOSELECT	IQUANT	1	Thermo Select
FRAMEWORKVERSION	QUANT	6.33	Framework Version
INSTRUMENTVERSION	LABEL	3.50	Instrument Version
ZCURVE	TABLE
	Pt	Time	Freq	Zreal	Zimag	Zsig	Zmod	Zphz	Idc	Vdc	IERange
	#	s	Hz	ohm	ohm	V	ohm	°	A	V	#
	0	1	1000078	1798.443	-3136.313	1	3615.364	-60.16893	3.930269E-009	-0.0234197	8
	1	2	794390.6	2342.857	-3566.238	1	4266.97	-56.6969	6.134538E-008	-0.0237307	8
	2	2	630984.4	3008.859	-3953.439	1	4968.19	-52.72618	-1.611618E-008	-0.0238592	8
	3	2	501234.4	3769.424	-4275.559	1	5699.908	-48.59991	5.049445E-008	-0.0239758	8
	4	2	398109.4	4607.912	-4499.846	1	6440.61	-44.3202	2.838884E-008	-0.0240106	8
	5	3	316265.6	5472.687	-4577.132	1	7134.455	-39.90773	4.554598E-008	-0.0240592	8
	6	3	251203.1	6304.125	-4532.637	1	7764.457	-35.71596	3.962335E-008	-0.0240754	8
	7	3	199546.9	7091.479	-4454.515	1	8374.472	-32.135	5.932384E-008	-0.0240673	8
	8	4	158578.1	7806.425	-4300.367	1	8912.544	-28.84929	3.843595E-008	-0.0240674	8
	9	4	125953.1	8474.087	-4114.614	1	9420.202	-25.89901	-2.471555E-009	-0.0240563	7
	10	4	100078.1	9054.406	-3954.477	1	9880.29	-23.59311	-5.490944E-010	-0.0240928	7
	11	5	79453.13	9532.57	-3812.395	1	10266.65	-21.79813	-2.155331E-012	-0.0241018	7
	12	5	63140.62	9995.3	-3738.314	1	10671.51	-20.50615	-5.650405E-010	-0.0240963	7
	13	5	50203.12	10415.81	-3712.374	1	11057.62	-19.61694	5.723082E-011	-0.0240992	7
	14	6	39890.62	10819.41	-3749.023	1	11450.54	-19.11166	-5.922369E-010	-0.0241022	7
	15	6	31640.63	11216.58	-3861.818	1	11862.77	-18.99836	7.451339E-010	-0.0241021	7
	16	6	25171.88	11563.16	-4041.262	1	12249.01	-19.26425	9.244105E-012	-0.0241088	7
	17	7	20015.62	11919.4	-4317.719	1	12677.34	-19.91256	1.480393E-009	-0.0241161	7
	18	7	15890.62	12336.31	-4701.437	1	13201.82	-20.86212	7.790274E-010	-0.0241169	7
	19	7	12609.37	12831.62	-5170.451	1	13834.16	-21.94678	2.766009E-010	-0.0241119	6
	20	8	10078.13	13289.24	-5778.022	1	14491.01	-23.4989	3.21302E-010	-0.0241091	6
	21	8	8015.625	13865.75	-6534.513	1	15328.37	-25.23309	-4.687836E-011	-0.0241193	6
	22	8	6328.125	14548.09	-7470.924	1	16354.25	-27.182	2.595703E-010	-0.0241142	6
	23	9	5015.625	15327.79	-8562.691	1	17557.35	-29.18941	1.378286E-010	-0.0241075	6
	24	9	3984.375	16221.05	-9834.27	1	18969.32	-31.227	9.766618E-011	-0.0241139	6
	25	9	3170.956	17230.12	-11298.34	1	20604.11	-33.25414	1.239187E-010	-0.0241083	6
	26	10	2527.573	18466.09	-12957	1	22558.38	-35.05597	2.372174E-010	-0.0241107	6
	27	10	1976.103	19979.58	-15038.93	1	25007.06	-36.96931	1.282982E-010	-0.0241084	6
	28	10	1577.524	21608.78	-17206.58	1	27622.56	-38.52952	3.183225E-010	-0.0241078	6
	29	11	1265.625	23504.03	-19595.65	1	30601.13	-39.81846	1.159497E-010	-0.0241127	6
	30	11	998.264	25830.44	-22519.72	1	34268.78	-41.08286	1.018849E-010	-0.0241123	6
	31	11	796.875	28438.7	-25619.76	1	38277.04	-42.01496	-4.531885E-011	-0.0241229	6
	32	11	627.7902	31557.35	-29304.75	1	43065.47	-42.88036	7.480133E-011	-0.0241158	6
	33	12	505.5147	34805.67	-33045.24	1	47993.98	-43.51376	-1.464258E-010	-0.0241144	6
	34	12	397.9953	38823.86	-37593.02	1	54041.9	-44.07723	1.23914E-010	-0.0240963	6
	35	12	315.5048	43202.82	-42536.24	1	60628.5	-44.55456	7.145968E-011	-0.0240951	6
	36	13	252.4038	47756.37	-47858.39	1	67609.88	-45.06113	5.733542E-011	-0.0240969	6
	37	13	198.6229	53036.41	-54416.34	1	75986.84	-45.73577	8.919501E-011	-0.0240993	6
	38	13	158.3615	58451.9	-61655.23	1	84958.77	-46.52775	3.26827E-011	-0.0241007	6
	39	14	125.558	64424.15	-70462.12	1	95474.5	-47.56304	6.883899E-011	-0.0240992	6
	40	14	100.4464	70792.74	-80491.03	1	107193.4	-48.66802	-1.458038E-011	-0.024107	5
	41	14	79.00281	78573.58	-93597.9	1	122206.3	-49.98721	-2.926009E-012	-0.0241093	5
	42	15	63.3446	86876.09	-107998.6	1	138604.3	-51.18616	-6.967468E-011	-0.0241086	5
	43	15	49.86702	97557.1	-126507.3	1	159754.4	-52.36212	-3.358722E-011	-0.0241105	5
	44	16	39.72458	109677.8	-147224.1	1	183586.9	-53.31493	-3.667295E-011	-0.0241051	5
	45	16	31.6723	124109	-171201.9	1	211454.8	-54.0606	-8.74561E-011	-0.0241093	5
	46	16	24.93351	142337.1	-200504.9	1	245890.3	-54.62931	1.358643E-010	-0.0241075	5
	47	16	19.86229	162953.1	-232717.6	1	284097.2	-54.9996	5.067373E-011	-0.0241032	5
	48	17	15.83615	187048.2	-269384.5	1	327955.8	-55.22567	2.656037E-010	-0.0241076	5
	49	17	12.40079	217903.2	-314787	1	382848.1	-55.30807	5.518902E-010	-0.0241129	5
	50	17	9.93114	249884.8	-361510.7	1	439468.3	-55.34684	5.520984E-010	-0.0241053	5
	51	18	7.944915	287621.8	-416107.7	1	505837.8	-55.34702	3.95319E-012	-0.0241082	5
	52	18	6.317385	332192.6	-479310.3	1	583172.6	-55.27557	-2.390498E-011	-0.0241055	5
	53	19	5.008013	384675.7	-552239.6	1	673011.1	-55.13993	1.105458E-010	-0.0240978	5
	54	20	3.945707	447294.9	-638455.4	1	779549.9	-54.98534	1.289784E-010	-0.0241138	5
	55	21	3.158693	513175.3	-728659.7	1	891231.6	-54.844	3.993276E-011	-0.024097	5
	56	22	2.504006	593537.7	-837914.6	1	1026834	-54.68811	-6.929162E-011	-0.0241034	4
	57	23	1.998082	677970.6	-955170	1	1171321	-54.63323	3.615424E-011	-0.0240848	4
	58	25	1.584686	778092.8	-1098449	1	1346112	-54.68791	6.761312E-011	-0.024062	4
	59	27	1.266892	881300.8	-1256634	1	1534868	-54.95729	4.410262E-011	-0.0240927	4
	60	29	0.999041	1005336	-1449570	1	1764073	-55.2571	2.965631E-011	-0.0241226	4
