EXPLAIN
TAG	EISPOT
TITLE	LABEL	Potentiostatic EIS	Test &Identifier
DATE	LABEL	1/7/2021	Date
TIME	LABEL	16:29:13	Time
NOTES	NOTES	1	&Notes...
	
PSTAT	PSTAT	REF600-11020	Potentiostat
VDC	POTEN	0.00000E+000	T	DC &Voltage (V)
FREQINIT	QUANT	1.00000E+006	Initial Fre&q. (Hz)
FREQFINAL	QUANT	1.00000E+000	Final Fre&q. (Hz)
PTSPERDEC	QUANT	1.00000E+001	Points/&decade
VAC	QUANT	2.50000E+001	AC &Voltage (mV rms)
AREA	QUANT	4.00000E-005	&Area (cm^2)
CONDIT	TWOPARAM	F	5.00000E+000	0.00000E+000	Conditionin&g	Time(s)	E(V)
DELAY	TWOPARAM	F	3.00000E+000	0.00000E+000	Init. De&lay	Time(s)	Stab.(mV/s)
SPEED	SELECTOR	0	&Optimize for:
ZGUESS	QUANT	1.00000E+003	E&stimated Z (ohms)
OCVCURVE	TABLE	39
	Pt	T	Vf	Vm	Ach	Over
	#	s	V vs. Ref.	V	V	bits
	0	0.258333	9.31763E-002	9.31763E-002	5.30426E-004	...........
	1	0.516667	9.31763E-002	9.31761E-002	5.29192E-004	...........
	2	0.775	9.31759E-002	9.31567E-002	5.31292E-004	...........
	3	1.03333	9.31740E-002	9.31600E-002	5.31626E-004	...........
	4	1.29167	9.31702E-002	9.31681E-002	5.30426E-004	...........
	5	1.55	9.31663E-002	9.31718E-002	5.36559E-004	...........
	6	1.80833	9.31652E-002	9.31820E-002	5.33492E-004	...........
	7	2.06667	9.31680E-002	9.31975E-002	5.37292E-004	...........
	8	2.325	9.31741E-002	9.31928E-002	5.31092E-004	...........
	9	2.58333	9.31814E-002	9.31764E-002	5.29626E-004	...........
	10	2.84167	9.31862E-002	9.31758E-002	5.26859E-004	...........
	11	3.1	9.31862E-002	9.31744E-002	5.36526E-004	...........
	12	3.35833	9.31827E-002	9.31785E-002	5.30592E-004	...........
	13	3.61667	9.31791E-002	9.31761E-002	5.30259E-004	...........
	14	3.875	9.31770E-002	9.31741E-002	5.29826E-004	...........
	15	4.13333	9.31761E-002	9.31737E-002	5.38892E-004	...........
	16	4.39167	9.31756E-002	9.31788E-002	5.36592E-004	...........
	17	4.65	9.31753E-002	9.31737E-002	5.34359E-004	...........
	18	4.90833	9.31753E-002	9.31716E-002	5.31192E-004	...........
	19	5.16667	9.31751E-002	9.31769E-002	5.34092E-004	...........
	20	5.425	9.31747E-002	9.31747E-002	5.35859E-004	...........
	21	5.68333	9.31745E-002	9.31719E-002	5.32059E-004	...........
	22	5.94167	9.31744E-002	9.31731E-002	5.27292E-004	...........
	23	6.2	9.31740E-002	9.31737E-002	5.31192E-004	...........
	24	6.45833	9.31736E-002	9.31729E-002	5.34526E-004	...........
	25	6.71667	9.31732E-002	9.31706E-002	5.27392E-004	...........
	26	6.975	9.31729E-002	9.31702E-002	5.32292E-004	...........
	27	7.23333	9.31723E-002	9.31739E-002	5.34359E-004	...........
	28	7.49167	9.31720E-002	9.31788E-002	5.30126E-004	...........
	29	7.75	9.31724E-002	9.31676E-002	5.30726E-004	...........
	30	8.00833	9.31730E-002	9.31664E-002	5.30126E-004	...........
	31	8.26667	9.31725E-002	9.31700E-002	5.30459E-004	...........
	32	8.525	9.31710E-002	9.31705E-002	5.24626E-004	...........
	33	8.78333	9.31697E-002	9.31707E-002	5.28859E-004	...........
	34	9.04167	9.31695E-002	9.31731E-002	5.26526E-004	...........
	35	9.3	9.31701E-002	9.31702E-002	5.33026E-004	...........
	36	9.5583	9.31708E-002	9.31734E-002	5.29959E-004	...........
	37	9.8167	9.31713E-002	9.31669E-002	5.30459E-004	...........
	38	10.075	9.31713E-002	9.31687E-002	5.30392E-004	...........
EOC	QUANT	0.0931713	Open Circuit (V)
PSTATMODEL	IQUANT	4	Pstat Model
PSTATSECTION	LABEL	REF600-11020	Pstat Section
PSTATSERIALNO	LABEL	11020	Pstat Serial Number
CTRLMODE	IQUANT	1	Control Mode
IESTAB	IQUANT	0	I/E Stability
CASPEED	IQUANT	1	Control Amp Speed
CONVENTION	IQUANT	1	Current Convention
ICHRANGE	IQUANT	2	Ich Range
ICHRANGEMODE	TOGGLE	F	Ich Auto Range
ICHOFFSETENABLE	TOGGLE	T	Ich Offset Enable
ICHOFFSET	QUANT	0	Ich Offset (V)
ICHFILTER	IQUANT	3	Ich Filter
VCHRANGE	IQUANT	2	Vch Range
VCHRANGEMODE	TOGGLE	F	Vch Auto Range
VCHOFFSETENABLE	TOGGLE	T	Vch Offset Enable
VCHOFFSET	QUANT	0	Vch Offset (V)
VCHFILTER	IQUANT	3	Vch Filter
ACHRANGE	IQUANT	2	Ach Range
ACHOFFSETENABLE	TOGGLE	F	Ach Offset Enable
ACHOFFSET	QUANT	0	Ach Offset (V)
ACHFILTER	IQUANT	3	Ach Filter
IERANGELOWERLIMIT	IQUANT	1	I/E Range Lower Limit
IERANGEMODE	TOGGLE	F	I/E AutoRange
IERANGE	IQUANT	8	I/E Range
POSFEEDENABLE	TOGGLE	F	Positive Feedback IR Comp
POSFEEDRESISTANCE	QUANT	0	Positive Feedback Resistance (ohm)
ACHSELECT	IQUANT	0	Ach Select
CABLEID	IQUANT	14	Cable ID
DCCALDATE	LABEL	9/1/2020	DC Calibration Date
ACCALDATE	LABEL	9/1/2020	AC Calibration Date
THERMOSELECT	IQUANT	1	Thermo Select
FRAMEWORKVERSION	QUANT	6.33	Framework Version
INSTRUMENTVERSION	LABEL	3.50	Instrument Version
ZCURVE	TABLE
	Pt	Time	Freq	Zreal	Zimag	Zsig	Zmod	Zphz	Idc	Vdc	IERange
	#	s	Hz	ohm	ohm	V	ohm	°	A	V	#
	0	1	1000078	1558.745	-2632.498	1	3059.368	-59.36953	6.159009E-008	0.0953763	8
	1	2	794390.6	1932.311	-3014.496	1	3580.644	-57.33988	7.759704E-008	0.0950342	8
	2	2	630984.4	2369.394	-3405.411	1	4148.596	-55.17084	6.021897E-008	0.0948821	8
	3	2	501234.4	2871.024	-3801.893	1	4764.155	-52.94149	6.897071E-008	0.0947955	8
	4	3	398109.4	3419.882	-4196.064	1	5413.183	-50.81923	1.125917E-007	0.0947271	8
	5	3	316265.6	4018.031	-4606.07	1	6112.319	-48.90071	9.996034E-008	0.0946845	8
	6	3	251203.1	4636.104	-5020.925	1	6833.97	-47.28196	4.302976E-008	0.094695	8
	7	4	199546.9	5277.941	-5462.026	1	7595.419	-45.98196	3.872266E-008	0.0946894	8
	8	4	158578.1	5950.396	-5932.169	1	8402.253	-44.91211	8.907552E-008	0.0946715	8
	9	4	125953.1	6653.678	-6487.307	1	9292.824	-44.27465	2.125248E-008	0.0946997	7
	10	5	100078.1	7351.187	-7131.168	1	10241.75	-44.12962	3.253451E-009	0.0946738	7
	11	5	79453.13	8046.004	-7923.577	1	11292.53	-44.56076	2.745252E-009	0.0946644	7
	12	5	63140.62	8753.247	-8895.979	1	12480.29	-45.46335	1.26583E-009	0.0946543	7
	13	6	50203.12	9478.372	-10055.91	1	13818.86	-46.69346	1.021734E-009	0.0946591	7
	14	6	39890.62	10223.04	-11512.28	1	15396.21	-48.39457	-1.252802E-009	0.0946568	7
	15	6	31640.63	10995.08	-13336.31	1	17284.36	-50.49623	8.030813E-009	0.0946544	7
	16	7	25171.88	11808.3	-15586.78	1	19554.63	-52.853	1.04813E-008	0.0946464	7
	17	7	20015.62	12711.26	-18364.49	1	22334.52	-55.31036	-4.359819E-010	0.0946567	7
	18	7	15890.62	13687.89	-21860.2	1	25791.99	-57.94702	7.081622E-009	0.0946556	7
	19	8	12609.37	14842.06	-26225.26	1	30133.88	-60.4925	1.628334E-009	0.0946305	6
	20	8	10078.13	16104.39	-31437.83	1	35322.64	-62.87568	-3.545774E-010	0.094657	6
	21	8	8015.625	17620.29	-38026.6	1	41910.59	-65.13853	1.035756E-009	0.09464	6
	22	9	6328.125	19536.35	-46450.3	1	50391.46	-67.18906	2.184182E-009	0.0946315	6
	23	9	5015.625	21857.91	-56683.55	1	60751.89	-68.91271	1.570824E-009	0.0946307	6
	24	9	3984.375	24802.16	-69190.48	1	73501.49	-70.27917	4.802383E-010	0.0946426	6
	25	9	3170.956	28608.19	-84387.3	1	89104.68	-71.2728	-3.259891E-010	0.0946631	6
	26	10	2527.573	33521.95	-102914.7	1	108236.6	-71.95824	1.844495E-009	0.0946327	6
	27	10	1976.103	40893.51	-127573.4	1	133967.3	-72.2268	1.920629E-009	0.0946355	6
	28	10	1577.524	49847.16	-155106.1	1	162919.2	-72.18391	-3.529567E-010	0.0946481	6
	29	11	1265.625	63418.3	-186594.5	1	197077.1	-71.22853	4.785608E-010	0.0946228	5
	30	11	998.264	80567.26	-228312.2	1	242110.6	-70.56299	5.019418E-010	0.0946159	5
	31	11	796.875	103855.4	-274575	1	293559.9	-69.28135	4.926669E-010	0.0946161	5
	32	12	627.7902	137178	-331492.5	1	358754.9	-67.51928	2.836855E-010	0.0946307	5
	33	12	505.5147	177959.9	-389889.1	1	428582.8	-65.46629	4.857141E-010	0.0946111	5
	34	12	397.9953	237580.3	-461807.1	1	519336.3	-62.77609	2.685638E-010	0.0946524	5
	35	13	315.5048	315655.2	-532164.9	1	618738.8	-59.32558	2.506343E-010	0.0946509	5
	36	13	252.4038	408958.8	-599629.8	1	725812.1	-55.70528	2.422785E-010	0.0946491	5
	37	13	198.6229	531346.4	-663063.1	1	849695	-51.29302	2.591188E-010	0.0946494	5
	38	14	158.3615	665487.9	-702463.1	1	967641	-46.5483	2.685298E-010	0.0946455	5
	39	14	125.558	813637.8	-722777.3	1	1088308	-41.61559	2.003335E-010	0.0946473	4
	40	14	100.4464	956168	-716935.8	1	1195096	-36.86259	2.584185E-010	0.0946443	4
	41	15	79.00281	1102996	-694317.3	1	1303333	-32.18972	2.411062E-010	0.0946451	4
	42	15	63.3446	1214034	-641577.3	1	1373135	-27.85498	1.932337E-010	0.0946463	4
	43	15	49.86702	1326652	-592791.8	1	1453069	-24.07666	2.187604E-010	0.0946432	4
	44	16	39.72458	1415339	-545302.9	1	1516753	-21.07071	1.740987E-010	0.0946479	4
	45	16	31.6723	1493774	-501474	1	1575702	-18.55739	1.792886E-010	0.0946444	4
	46	16	24.93351	1553398	-456675.6	1	1619135	-16.38254	1.606481E-010	0.0946446	4
	47	17	19.86229	1599059	-420033.6	1	1653305	-14.71771	2.414137E-010	0.0946484	4
	48	17	15.83615	1625360	-391312.3	1	1671802	-13.53659	-3.056639E-012	0.0946416	4
	49	17	12.40079	1679203	-376874.3	1	1720976	-12.64964	-2.330264E-010	0.0946496	4
	50	18	9.93114	1712743	-371346	1	1752537	-12.23317	-3.108926E-010	0.0946474	4
	51	18	7.944915	1737750	-372379.7	1	1777200	-12.09491	2.109579E-011	0.0946494	4
	52	18	6.317385	1788216	-383853	1	1828950	-12.1151	2.828581E-012	0.0946476	4
	53	19	5.008013	1851445	-403369.4	1	1894876	-12.29081	-1.325495E-010	0.0946393	4
	54	20	3.945707	1893169	-428390	1	1941032	-12.75028	-1.582047E-010	0.0946455	4
	55	21	3.158693	1948868	-460473.7	1	2002529	-13.2939	-1.079821E-010	0.0946264	4
	56	22	2.504006	1993513	-494248.6	1	2053869	-13.92448	7.806684E-011	0.0946279	4
	57	23	1.998082	2055608	-536702.6	1	2124517	-14.6328	1.065174E-010	0.0946178	4
	58	25	1.584686	2124056	-577679.2	1	2201211	-15.21472	-6.596863E-011	0.0945908	4
	59	27	1.266892	2192115	-627192.8	1	2280074	-15.96652	-1.047564E-010	0.0946066	4
	60	29	0.999041	2266033	-692554.9	1	2369501	-16.99443	-1.254808E-010	0.0946257	4
