EXPLAIN
TAG	EISPOT
TITLE	LABEL	Potentiostatic EIS	Test &Identifier
DATE	LABEL	1/7/2021	Date
TIME	LABEL	15:47:55	Time
NOTES	NOTES	1	&Notes...
	
PSTAT	PSTAT	REF600-11020	Potentiostat
VDC	POTEN	0.00000E+000	T	DC &Voltage (V)
FREQINIT	QUANT	1.00000E+006	Initial Fre&q. (Hz)
FREQFINAL	QUANT	1.00000E+000	Final Fre&q. (Hz)
PTSPERDEC	QUANT	1.00000E+001	Points/&decade
VAC	QUANT	2.50000E+001	AC &Voltage (mV rms)
AREA	QUANT	4.00000E-005	&Area (cm^2)
CONDIT	TWOPARAM	F	5.00000E+000	0.00000E+000	Conditionin&g	Time(s)	E(V)
DELAY	TWOPARAM	F	3.00000E+000	0.00000E+000	Init. De&lay	Time(s)	Stab.(mV/s)
SPEED	SELECTOR	0	&Optimize for:
ZGUESS	QUANT	1.00000E+003	E&stimated Z (ohms)
OCVCURVE	TABLE	39
	Pt	T	Vf	Vm	Ach	Over
	#	s	V vs. Ref.	V	V	bits
	0	0.258333	2.23250E-002	2.23250E-002	5.42192E-004	...........
	1	0.516667	2.23251E-002	2.23320E-002	5.37559E-004	...........
	2	0.775	2.23259E-002	2.23375E-002	5.40059E-004	...........
	3	1.03333	2.23281E-002	2.23439E-002	5.41659E-004	...........
	4	1.29167	2.23320E-002	2.23486E-002	5.40392E-004	...........
	5	1.55	2.23371E-002	2.23524E-002	5.39992E-004	...........
	6	1.80833	2.23424E-002	2.23527E-002	5.42992E-004	...........
	7	2.06667	2.23471E-002	2.23602E-002	5.40392E-004	...........
	8	2.325	2.23512E-002	2.23678E-002	5.42425E-004	...........
	9	2.58333	2.23555E-002	2.23707E-002	5.38992E-004	...........
	10	2.84167	2.23604E-002	2.23790E-002	5.44326E-004	...........
	11	3.1	2.23659E-002	2.23851E-002	5.45859E-004	...........
	12	3.35833	2.23719E-002	2.23923E-002	5.43959E-004	...........
	13	3.61667	2.23781E-002	2.23939E-002	5.41392E-004	...........
	14	3.875	2.23842E-002	2.23991E-002	5.41559E-004	...........
	15	4.13333	2.23898E-002	2.24078E-002	5.42759E-004	...........
	16	4.39167	2.23950E-002	2.24129E-002	5.40692E-004	...........
	17	4.65	2.24002E-002	2.24053E-002	5.42959E-004	...........
	18	4.90833	2.24048E-002	2.24169E-002	5.41759E-004	...........
	19	5.16667	2.24084E-002	2.24218E-002	5.42392E-004	...........
	20	5.425	2.24118E-002	2.24286E-002	5.36759E-004	...........
	21	5.68333	2.24162E-002	2.24364E-002	5.39692E-004	...........
	22	5.94167	2.24221E-002	2.24574E-002	5.41492E-004	...........
	23	6.2	2.24300E-002	2.24591E-002	5.35259E-004	...........
	24	6.45833	2.24395E-002	2.24605E-002	5.41392E-004	...........
	25	6.71667	2.24488E-002	2.24669E-002	5.36226E-004	...........
	26	6.975	2.24563E-002	2.24721E-002	5.35859E-004	...........
	27	7.23333	2.24620E-002	2.24782E-002	5.40392E-004	...........
	28	7.49167	2.24670E-002	2.24822E-002	5.45925E-004	...........
	29	7.75	2.24720E-002	2.24886E-002	5.50892E-004	...........
	30	8.00833	2.24772E-002	2.24938E-002	5.45825E-004	...........
	31	8.26667	2.24825E-002	2.25017E-002	5.41359E-004	...........
	32	8.525	2.24882E-002	2.25074E-002	5.42392E-004	...........
	33	8.78333	2.24942E-002	2.25141E-002	5.41525E-004	...........
	34	9.04167	2.25005E-002	2.25176E-002	5.44425E-004	...........
	35	9.3	2.25065E-002	2.25129E-002	5.36359E-004	...........
	36	9.5583	2.25113E-002	2.25223E-002	5.40325E-004	...........
	37	9.8167	2.25149E-002	2.25334E-002	5.40592E-004	...........
	38	10.075	2.25187E-002	2.25400E-002	5.46459E-004	...........
EOC	QUANT	0.0225187	Open Circuit (V)
PSTATMODEL	IQUANT	4	Pstat Model
PSTATSECTION	LABEL	REF600-11020	Pstat Section
PSTATSERIALNO	LABEL	11020	Pstat Serial Number
CTRLMODE	IQUANT	1	Control Mode
IESTAB	IQUANT	0	I/E Stability
CASPEED	IQUANT	1	Control Amp Speed
CONVENTION	IQUANT	1	Current Convention
ICHRANGE	IQUANT	2	Ich Range
ICHRANGEMODE	TOGGLE	F	Ich Auto Range
ICHOFFSETENABLE	TOGGLE	T	Ich Offset Enable
ICHOFFSET	QUANT	0	Ich Offset (V)
ICHFILTER	IQUANT	3	Ich Filter
VCHRANGE	IQUANT	2	Vch Range
VCHRANGEMODE	TOGGLE	F	Vch Auto Range
VCHOFFSETENABLE	TOGGLE	T	Vch Offset Enable
VCHOFFSET	QUANT	0	Vch Offset (V)
VCHFILTER	IQUANT	3	Vch Filter
ACHRANGE	IQUANT	2	Ach Range
ACHOFFSETENABLE	TOGGLE	F	Ach Offset Enable
ACHOFFSET	QUANT	0	Ach Offset (V)
ACHFILTER	IQUANT	3	Ach Filter
IERANGELOWERLIMIT	IQUANT	1	I/E Range Lower Limit
IERANGEMODE	TOGGLE	F	I/E AutoRange
IERANGE	IQUANT	7	I/E Range
POSFEEDENABLE	TOGGLE	F	Positive Feedback IR Comp
POSFEEDRESISTANCE	QUANT	0	Positive Feedback Resistance (ohm)
ACHSELECT	IQUANT	0	Ach Select
CABLEID	IQUANT	14	Cable ID
DCCALDATE	LABEL	9/1/2020	DC Calibration Date
ACCALDATE	LABEL	9/1/2020	AC Calibration Date
THERMOSELECT	IQUANT	1	Thermo Select
FRAMEWORKVERSION	QUANT	6.33	Framework Version
INSTRUMENTVERSION	LABEL	3.50	Instrument Version
ZCURVE	TABLE
	Pt	Time	Freq	Zreal	Zimag	Zsig	Zmod	Zphz	Idc	Vdc	IERange
	#	s	Hz	ohm	ohm	V	ohm	°	A	V	#
	0	1	1000078	1246.085	-3058.006	1	3302.14	-67.82995	2.345541E-008	0.0247401	8
	1	1	794390.6	1537.773	-3656.284	1	3966.505	-67.18918	5.620127E-008	0.0243738	8
	2	1	630984.4	1907.613	-4347.426	1	4747.537	-66.30855	8.749021E-008	0.0242202	8
	3	2	501234.4	2376.959	-5151.187	1	5673.153	-65.22955	1.624452E-007	0.0240752	8
	4	2	398109.4	2981.577	-6074.011	1	6766.344	-63.85476	6.805896E-008	0.0240552	8
	5	2	316265.6	3724.787	-7102.653	1	8020.083	-62.3265	7.975078E-008	0.0240199	8
	6	3	251203.1	4670.978	-8267.429	1	9495.705	-60.53418	4.293565E-008	0.0240003	8
	7	3	199546.9	5830.947	-9498.424	1	11145.4	-58.45483	3.999284E-008	0.0239969	8
	8	3	158578.1	7261.92	-10781.57	1	12999.15	-56.0378	8.048292E-008	0.0240103	8
	9	4	125953.1	9039.03	-12086.05	1	15092.27	-53.20756	-4.285222E-009	0.0239905	7
	10	4	100078.1	11046.3	-13329.75	1	17311.93	-50.35161	-3.624997E-009	0.0239708	7
	11	4	79453.13	13294.24	-14475.69	1	19654.07	-47.43613	-4.44276E-009	0.0239829	7
	12	5	63140.62	15736.69	-15527.17	1	22107.39	-44.61602	-1.024513E-008	0.0239731	7
	13	5	50203.12	18320.86	-16356.31	1	24559.78	-41.75751	-7.083279E-009	0.0239832	7
	14	5	39890.62	20974.5	-17065.59	1	27040.04	-39.13301	-7.210796E-009	0.0239753	7
	15	6	31640.63	23657.41	-17642.29	1	29511.42	-36.71339	-3.992235E-009	0.0239717	7
	16	6	25171.88	26250.55	-18177.69	1	31929.92	-34.70139	1.010406E-008	0.0239664	7
	17	6	20015.62	28855.71	-18807.15	1	34443.59	-33.09491	1.171115E-008	0.0239461	7
	18	6	15890.62	31440.4	-19443.96	1	36967.1	-31.73425	1.514802E-008	0.0239528	7
	19	7	12609.37	34168.55	-20241.38	1	39714.02	-30.64242	2.620645E-009	0.0239429	6
	20	7	10078.13	36861.66	-21239.87	1	42543.08	-29.95076	4.02393E-010	0.0239346	6
	21	7	8015.625	39805.46	-22420.27	1	45685.27	-29.39021	-1.563325E-009	0.0239683	6
	22	8	6328.125	43118.49	-23751.89	1	49227.6	-28.84824	-2.169651E-009	0.0239842	6
	23	8	5015.625	46672.12	-25082.52	1	52985.08	-28.25446	2.774883E-009	0.0239341	6
	24	8	3984.375	50431.75	-26375	1	56912.23	-27.60885	-1.572703E-009	0.0239862	6
	25	9	3170.956	54362.99	-27585.47	1	60961.41	-26.90465	-1.551761E-009	0.0239938	6
	26	9	2527.573	58348.39	-28749.98	1	65046.87	-26.23083	-1.74775E-009	0.0239636	6
	27	9	1976.103	62723.64	-29990.29	1	69524.62	-25.55404	2.699114E-009	0.0239341	6
	28	10	1577.524	66699.65	-31221.36	1	73645.21	-25.08377	-1.978904E-009	0.0239839	6
	29	10	1265.625	70608.84	-32638.13	1	77787.24	-24.8082	-1.971027E-009	0.0239853	6
	30	10	998.264	74912.97	-34531.57	1	82488.68	-24.74761	1.082487E-009	0.023921	6
	31	11	796.875	79120.04	-36665.13	1	87202.71	-24.86355	2.548376E-009	0.023917	6
	32	11	627.7902	83816.34	-39453.65	1	92637.84	-25.20709	2.69528E-009	0.0239245	6
	33	11	505.5147	88632.86	-42161.8	1	98149.9	-25.43998	-7.466799E-011	0.0239495	5
	34	12	397.9953	94307.27	-45992.6	1	104924.6	-25.99797	-1.751226E-011	0.0239614	5
	35	12	315.5048	100354.5	-50065.63	1	112149.9	-26.51405	3.313422E-011	0.023962	5
	36	12	252.4038	106663.4	-54298.55	1	119688.8	-26.97903	2.703496E-011	0.0239574	5
	37	13	198.6229	113884.9	-59209.65	1	128357.1	-27.47029	3.19794E-011	0.0239572	5
	38	13	158.3615	121028.1	-64323.07	1	137059.4	-27.9894	-5.390555E-011	0.0239569	5
	39	13	125.558	128505.4	-70269.52	1	146463.1	-28.67079	-4.016298E-011	0.0239604	5
	40	14	100.4464	135755.8	-76967.84	1	156056.7	-29.55141	9.411259E-011	0.0239571	5
	41	14	79.00281	143825	-85845.41	1	167496.5	-30.83187	1.260414E-010	0.0239562	5
	42	14	63.3446	151710.3	-95976.1	1	179519.9	-32.31857	5.898675E-011	0.0239561	5
	43	15	49.86702	161128.9	-109583.7	1	194861.8	-34.2196	-1.544901E-010	0.0239526	5
	44	15	39.72458	171357.2	-125430.5	1	212358.4	-36.20349	1.190157E-010	0.0239516	5
	45	15	31.6723	183512.3	-144483.1	1	233563.9	-38.2141	1.435565E-010	0.0239514	5
	46	16	24.93351	198888.5	-168335.5	1	260563.8	-40.24395	-8.367508E-011	0.023951	5
	47	16	19.86229	216788.2	-194989.9	1	291578.8	-41.96975	2.502125E-010	0.0239548	5
	48	16	15.83615	238771.1	-225172.9	1	328198.8	-43.32114	-4.928624E-010	0.0239483	5
	49	16	12.40079	267747.8	-262058.2	1	374651	-44.38472	-8.665479E-010	0.0239545	5
	50	17	9.93114	298676.8	-298801.7	1	422481.1	-45.01198	-9.198703E-010	0.0239493	5
	51	17	7.944915	336086.5	-340302.3	1	478288.4	-45.35712	-2.231802E-010	0.0239526	5
	52	18	6.317385	380535.9	-385496.3	1	541678	-45.37101	5.239266E-011	0.0239417	5
	53	18	5.008013	432396.3	-434268.1	1	612825.7	-45.12374	-1.693694E-010	0.0239394	5
	54	19	3.945707	493276.8	-488587.4	1	694290.8	-44.72636	-2.679555E-010	0.023948	5
	55	20	3.158693	555008.9	-540302	1	774571.6	-44.23072	-6.467447E-011	0.0239347	5
	56	21	2.504006	626289.4	-599326.8	1	866851.2	-43.73974	1.591846E-010	0.0239347	5
	57	22	1.998082	697431.7	-659614.4	1	959949	-43.40373	1.519245E-012	0.0239116	5
	58	24	1.584686	779093.6	-731936.3	1	1068980	-43.21245	-1.234833E-010	0.0238883	4
	59	26	1.266892	856809.6	-811617.3	1	1180189	-43.44842	-1.029335E-010	0.0239159	4
	60	28	0.999041	943941	-907633.1	1	1309512	-43.87662	-5.854144E-011	0.0239518	4
