EXPLAIN
TAG	EISPOT
TITLE	LABEL	Potentiostatic EIS	Test &Identifier
DATE	LABEL	1/7/2021	Date
TIME	LABEL	16:22:23	Time
NOTES	NOTES	1	&Notes...
	
PSTAT	PSTAT	REF600-11020	Potentiostat
VDC	POTEN	0.00000E+000	T	DC &Voltage (V)
FREQINIT	QUANT	1.00000E+006	Initial Fre&q. (Hz)
FREQFINAL	QUANT	1.00000E+000	Final Fre&q. (Hz)
PTSPERDEC	QUANT	1.00000E+001	Points/&decade
VAC	QUANT	2.50000E+001	AC &Voltage (mV rms)
AREA	QUANT	4.00000E-005	&Area (cm^2)
CONDIT	TWOPARAM	F	5.00000E+000	0.00000E+000	Conditionin&g	Time(s)	E(V)
DELAY	TWOPARAM	F	3.00000E+000	0.00000E+000	Init. De&lay	Time(s)	Stab.(mV/s)
SPEED	SELECTOR	0	&Optimize for:
ZGUESS	QUANT	1.00000E+003	E&stimated Z (ohms)
OCVCURVE	TABLE	39
	Pt	T	Vf	Vm	Ach	Over
	#	s	V vs. Ref.	V	V	bits
	0	0.258333	4.01808E-002	4.01808E-002	5.30659E-004	...........
	1	0.516667	4.01808E-002	4.01783E-002	5.33292E-004	...........
	2	0.775	4.01805E-002	4.01757E-002	5.28692E-004	...........
	3	1.03333	4.01796E-002	4.01741E-002	5.34426E-004	...........
	4	1.29167	4.01782E-002	4.01721E-002	5.28659E-004	...........
	5	1.55	4.01762E-002	4.01679E-002	5.34626E-004	...........
	6	1.80833	4.01740E-002	4.01649E-002	5.30626E-004	...........
	7	2.06667	4.01714E-002	4.01630E-002	5.30759E-004	...........
	8	2.325	4.01686E-002	4.01628E-002	5.28326E-004	...........
	9	2.58333	4.01660E-002	4.01622E-002	5.31392E-004	...........
	10	2.84167	4.01641E-002	4.01596E-002	5.32359E-004	...........
	11	3.1	4.01626E-002	4.01551E-002	5.29959E-004	...........
	12	3.35833	4.01611E-002	4.01552E-002	5.37826E-004	...........
	13	3.61667	4.01591E-002	4.01534E-002	5.34492E-004	...........
	14	3.875	4.01570E-002	4.01510E-002	5.34992E-004	...........
	15	4.13333	4.01550E-002	4.01482E-002	5.28859E-004	...........
	16	4.39167	4.01530E-002	4.01454E-002	5.34526E-004	...........
	17	4.65	4.01508E-002	4.01421E-002	5.33392E-004	...........
	18	4.90833	4.01483E-002	4.01418E-002	5.32559E-004	...........
	19	5.16667	4.01458E-002	4.01408E-002	5.32459E-004	...........
	20	5.425	4.01436E-002	4.01388E-002	5.32359E-004	...........
	21	5.68333	4.01419E-002	4.01372E-002	5.32459E-004	...........
	22	5.94167	4.01404E-002	4.01369E-002	5.34392E-004	...........
	23	6.2	4.01391E-002	4.01349E-002	5.28292E-004	...........
	24	6.45833	4.01377E-002	4.01327E-002	5.33892E-004	...........
	25	6.71667	4.01364E-002	4.01339E-002	5.26792E-004	...........
	26	6.975	4.01352E-002	4.01343E-002	5.30492E-004	...........
	27	7.23333	4.01343E-002	4.01315E-002	5.34292E-004	...........
	28	7.49167	4.01337E-002	4.01319E-002	5.23526E-004	...........
	29	7.75	4.01331E-002	4.01295E-002	5.28492E-004	...........
	30	8.00833	4.01323E-002	4.01298E-002	5.26326E-004	...........
	31	8.26667	4.01314E-002	4.01296E-002	5.32726E-004	...........
	32	8.525	4.01304E-002	4.01241E-002	5.34859E-004	...........
	33	8.78333	4.01293E-002	4.01217E-002	5.32426E-004	...........
	34	9.04167	4.01276E-002	4.01237E-002	5.28126E-004	...........
	35	9.3	4.01256E-002	4.01218E-002	5.22093E-004	...........
	36	9.5583	4.01240E-002	4.01248E-002	5.23959E-004	...........
	37	9.8167	4.01232E-002	4.01209E-002	5.32392E-004	...........
	38	10.075	4.01228E-002	4.01196E-002	5.36359E-004	...........
EOC	QUANT	0.0401228	Open Circuit (V)
PSTATMODEL	IQUANT	4	Pstat Model
PSTATSECTION	LABEL	REF600-11020	Pstat Section
PSTATSERIALNO	LABEL	11020	Pstat Serial Number
CTRLMODE	IQUANT	1	Control Mode
IESTAB	IQUANT	0	I/E Stability
CASPEED	IQUANT	1	Control Amp Speed
CONVENTION	IQUANT	1	Current Convention
ICHRANGE	IQUANT	2	Ich Range
ICHRANGEMODE	TOGGLE	F	Ich Auto Range
ICHOFFSETENABLE	TOGGLE	T	Ich Offset Enable
ICHOFFSET	QUANT	0	Ich Offset (V)
ICHFILTER	IQUANT	3	Ich Filter
VCHRANGE	IQUANT	2	Vch Range
VCHRANGEMODE	TOGGLE	F	Vch Auto Range
VCHOFFSETENABLE	TOGGLE	T	Vch Offset Enable
VCHOFFSET	QUANT	0	Vch Offset (V)
VCHFILTER	IQUANT	3	Vch Filter
ACHRANGE	IQUANT	2	Ach Range
ACHOFFSETENABLE	TOGGLE	F	Ach Offset Enable
ACHOFFSET	QUANT	0	Ach Offset (V)
ACHFILTER	IQUANT	3	Ach Filter
IERANGELOWERLIMIT	IQUANT	1	I/E Range Lower Limit
IERANGEMODE	TOGGLE	F	I/E AutoRange
IERANGE	IQUANT	7	I/E Range
POSFEEDENABLE	TOGGLE	F	Positive Feedback IR Comp
POSFEEDRESISTANCE	QUANT	0	Positive Feedback Resistance (ohm)
ACHSELECT	IQUANT	0	Ach Select
CABLEID	IQUANT	14	Cable ID
DCCALDATE	LABEL	9/1/2020	DC Calibration Date
ACCALDATE	LABEL	9/1/2020	AC Calibration Date
THERMOSELECT	IQUANT	1	Thermo Select
FRAMEWORKVERSION	QUANT	6.33	Framework Version
INSTRUMENTVERSION	LABEL	3.50	Instrument Version
ZCURVE	TABLE
	Pt	Time	Freq	Zreal	Zimag	Zsig	Zmod	Zphz	Idc	Vdc	IERange
	#	s	Hz	ohm	ohm	V	ohm	°	A	V	#
	0	1	1000078	1577.497	-2596.198	1	3037.884	-58.71638	5.426492E-008	0.0420853	8
	1	2	794390.6	2013.628	-2969.599	1	3587.926	-55.85955	7.814305E-008	0.0417546	8
	2	2	630984.4	2557.807	-3325.826	1	4195.652	-52.43704	5.371166E-008	0.0416251	8
	3	2	501234.4	3201.918	-3625.089	1	4836.688	-48.54693	1.219801E-007	0.0415116	8
	4	3	398109.4	3930.714	-3854.637	1	5505.338	-44.44014	3.334499E-008	0.0414661	8
	5	3	316265.6	4708.818	-3965.463	1	6156.125	-40.10192	5.229717E-008	0.0414509	8
	6	3	251203.1	5501.455	-3934.889	1	6763.827	-35.57406	5.815632E-008	0.0414388	8
	7	4	199546.9	6252.768	-3815.622	1	7325.031	-31.39276	3.901972E-008	0.0414351	8
	8	4	158578.1	6921.929	-3594.234	1	7799.463	-27.44074	6.637407E-008	0.041449	8
	9	4	125953.1	7537.763	-3321.363	1	8237.069	-23.77972	-1.509899E-008	0.0414295	7
	10	4	100078.1	8032.641	-3022.88	1	8582.605	-20.62255	-7.652257E-009	0.0414219	7
	11	5	79453.13	8440.199	-2749.927	1	8876.884	-18.04629	-1.174199E-009	0.041413	7
	12	5	63140.62	8777.768	-2504.363	1	9128.036	-15.92385	7.589828E-009	0.0413986	7
	13	5	50203.12	9060.863	-2292.871	1	9346.47	-14.20071	9.349751E-009	0.0413924	7
	14	6	39890.62	9300.476	-2122.089	1	9539.5	-12.85314	1.028941E-008	0.0413969	7
	15	6	31640.63	9510.21	-1994.058	1	9717.01	-11.84198	1.04274E-008	0.0413933	7
	16	6	25171.88	9698.51	-1912.012	1	9885.19	-11.15255	-6.550239E-009	0.0414038	7
	17	7	20015.62	9871.76	-1877.277	1	10048.67	-10.76717	9.591028E-009	0.0413919	7
	18	7	15890.62	10043.88	-1888.163	1	10219.82	-10.64685	5.917236E-009	0.0413887	7
	19	7	12609.37	10219.23	-1924.2	1	10398.8	-10.66349	1.094828E-009	0.0413747	6
	20	8	10078.13	10389.59	-2027.477	1	10585.57	-11.04221	8.857383E-010	0.041395	6
	21	8	8015.625	10568.52	-2179.829	1	10790.98	-11.65422	-1.868208E-009	0.0414098	6
	22	8	6328.125	10771.41	-2393.068	1	11034.04	-12.52587	6.158538E-010	0.0413712	6
	23	9	5015.625	10987.85	-2660.308	1	11305.31	-13.61019	-2.002441E-009	0.0414004	6
	24	9	3984.375	11227.81	-2993.171	1	11619.93	-14.92708	9.766624E-011	0.0413712	6
	25	9	3170.956	11495.77	-3396.013	1	11986.9	-16.45788	-2.503511E-010	0.0413988	6
	26	10	2527.573	11791.53	-3878.347	1	12412.97	-18.20653	1.868994E-010	0.0413898	6
	27	10	1976.103	12155.02	-4511.396	1	12965.23	-20.36265	-1.04576E-009	0.0413817	6
	28	10	1577.524	12539.02	-5210.111	1	13578.38	-22.56345	-1.139205E-010	0.0413693	6
	29	11	1265.625	12969.31	-6020.334	1	14298.51	-24.90065	-1.765382E-009	0.0413912	6
	30	11	998.264	13510.25	-7060.748	1	15244.05	-27.59254	-1.682021E-009	0.0413974	6
	31	11	796.875	14111.9	-8234.714	1	16338.8	-30.26483	1.504922E-010	0.0413867	6
	32	12	627.7902	14844.26	-9707.65	1	17736.71	-33.18334	-1.537555E-009	0.0414078	6
	33	12	505.5147	15625.16	-11293.95	1	19279.5	-35.8596	-1.419868E-009	0.0413933	6
	34	12	397.9953	16646.86	-13369.09	1	21350.65	-38.76796	2.765319E-010	0.0414055	6
	35	12	315.5048	17821.92	-15756.85	1	23788.63	-41.48079	2.642973E-010	0.0414051	6
	36	13	252.4038	19160.38	-18459.79	1	26606.09	-43.93312	2.20753E-010	0.0414005	6
	37	13	198.6229	20888.64	-21898.98	1	30263.85	-46.35266	3.567141E-010	0.0414012	6
	38	13	158.3615	22852.02	-25732.95	1	34415.11	-48.39349	3.327434E-010	0.0413972	6
	39	14	125.558	25261.45	-30315.19	1	39460.76	-50.19577	4.600844E-010	0.0413982	6
	40	14	100.4464	28028.78	-35435.79	1	45180.83	-51.65693	1.958861E-010	0.041398	6
	41	14	79.00281	31606.67	-41865.53	1	52456.69	-52.94877	3.713446E-010	0.0413988	6
	42	15	63.3446	35527.44	-48711.65	1	60291.16	-53.89517	3.854072E-010	0.0413959	6
	43	15	49.86702	40534.02	-57262.22	1	70156.74	-54.70659	-3.476461E-011	0.0413934	6
	44	16	39.72458	46072.81	-66631.28	1	81008.84	-55.33772	3.117053E-010	0.0413951	6
	45	16	31.6723	52493.75	-77465.82	1	93576.42	-55.87696	3.364933E-010	0.0413949	6
	46	16	24.93351	60285.55	-90738.73	1	108939.7	-56.40049	2.695808E-010	0.0413889	5
	47	17	19.86229	68998.02	-105614.9	1	126155.6	-56.84349	8.790608E-010	0.0413925	5
	48	17	15.83615	79121.78	-123147.4	1	146374.6	-57.27939	-8.391688E-012	0.0413911	5
	49	17	12.40079	92603.48	-145259.1	1	172266.1	-57.48226	1.211811E-009	0.041386	5
	50	17	9.93114	107133.5	-168710.2	1	199851.7	-57.58383	1.028561E-009	0.0413943	5
	51	18	7.944915	125280.4	-195687.9	1	232355.2	-57.37243	-6.715092E-010	0.0413926	5
	52	18	6.317385	147848.5	-227173.7	1	271048.1	-56.94324	2.255906E-010	0.0413853	5
	53	19	5.008013	175530	-262550.3	1	315821.9	-56.235	5.781587E-010	0.0413988	5
	54	20	3.945707	209984.1	-302058.8	1	367876.2	-55.19389	1.378571E-010	0.0413848	5
	55	21	3.158693	246327.4	-342009.2	1	421482.5	-54.23719	3.282621E-010	0.0414061	5
	56	22	2.504006	289903.6	-385795.2	1	482578.5	-53.07718	-9.039416E-011	0.0413982	5
	57	23	1.998082	334171.1	-432468.9	1	546534.3	-52.30655	-9.353335E-011	0.0413725	5
	58	25	1.584686	384024.8	-483546.1	1	617488.4	-51.54395	1.077056E-010	0.041415	5
	59	27	1.266892	434200.5	-541904.6	1	694399.5	-51.29658	1.361283E-010	0.0414225	5
	60	29	0.999041	487529	-614131.4	1	784118.6	-51.55565	1.31952E-010	0.0414108	5
