EXPLAIN
TAG	EISPOT
TITLE	LABEL	Potentiostatic EIS	Test &Identifier
DATE	LABEL	1/7/2021	Date
TIME	LABEL	16:30:40	Time
NOTES	NOTES	1	&Notes...
	
PSTAT	PSTAT	REF600-11020	Potentiostat
VDC	POTEN	0.00000E+000	T	DC &Voltage (V)
FREQINIT	QUANT	1.00000E+006	Initial Fre&q. (Hz)
FREQFINAL	QUANT	1.00000E+000	Final Fre&q. (Hz)
PTSPERDEC	QUANT	1.00000E+001	Points/&decade
VAC	QUANT	2.50000E+001	AC &Voltage (mV rms)
AREA	QUANT	4.00000E-005	&Area (cm^2)
CONDIT	TWOPARAM	F	5.00000E+000	0.00000E+000	Conditionin&g	Time(s)	E(V)
DELAY	TWOPARAM	F	3.00000E+000	0.00000E+000	Init. De&lay	Time(s)	Stab.(mV/s)
SPEED	SELECTOR	0	&Optimize for:
ZGUESS	QUANT	1.00000E+003	E&stimated Z (ohms)
OCVCURVE	TABLE	39
	Pt	T	Vf	Vm	Ach	Over
	#	s	V vs. Ref.	V	V	bits
	0	0.258333	5.11421E-002	5.11421E-002	5.34592E-004	...........
	1	0.516667	5.11416E-002	5.11138E-002	5.33192E-004	...........
	2	0.775	5.11389E-002	5.11185E-002	5.33926E-004	...........
	3	1.03333	5.11331E-002	5.11162E-002	5.31892E-004	...........
	4	1.29167	5.11260E-002	5.11164E-002	5.35992E-004	...........
	5	1.55	5.11203E-002	5.11041E-002	5.32592E-004	...........
	6	1.80833	5.11159E-002	5.10965E-002	5.31259E-004	...........
	7	2.06667	5.11113E-002	5.10958E-002	5.29826E-004	...........
	8	2.325	5.11059E-002	5.10943E-002	5.27159E-004	...........
	9	2.58333	5.11007E-002	5.10885E-002	5.30859E-004	...........
	10	2.84167	5.10964E-002	5.10844E-002	5.32426E-004	...........
	11	3.1	5.10926E-002	5.10803E-002	5.33526E-004	...........
	12	3.35833	5.10888E-002	5.10757E-002	5.39492E-004	...........
	13	3.61667	5.10849E-002	5.10788E-002	5.40259E-004	...........
	14	3.875	5.10813E-002	5.10701E-002	5.41525E-004	...........
	15	4.13333	5.10781E-002	5.10632E-002	5.47359E-004	...........
	16	4.39167	5.10746E-002	5.10608E-002	5.38759E-004	...........
	17	4.65	5.10704E-002	5.10584E-002	5.37292E-004	...........
	18	4.90833	5.10658E-002	5.10541E-002	5.43692E-004	...........
	19	5.16667	5.10617E-002	5.10487E-002	5.35826E-004	...........
	20	5.425	5.10578E-002	5.10461E-002	5.38492E-004	...........
	21	5.68333	5.10539E-002	5.10417E-002	5.30026E-004	...........
	22	5.94167	5.10499E-002	5.10385E-002	5.39959E-004	...........
	23	6.2	5.10461E-002	5.10360E-002	5.32959E-004	...........
	24	6.45833	5.10425E-002	5.10316E-002	5.35192E-004	...........
	25	6.71667	5.10389E-002	5.10258E-002	5.25826E-004	...........
	26	6.975	5.10353E-002	5.10245E-002	5.32492E-004	...........
	27	7.23333	5.10315E-002	5.10210E-002	5.30592E-004	...........
	28	7.49167	5.10278E-002	5.10172E-002	5.34159E-004	...........
	29	7.75	5.10244E-002	5.10170E-002	5.27259E-004	...........
	30	8.00833	5.10213E-002	5.10117E-002	5.33392E-004	...........
	31	8.26667	5.10185E-002	5.10127E-002	5.36492E-004	...........
	32	8.525	5.10159E-002	5.10064E-002	5.33059E-004	...........
	33	8.78333	5.10133E-002	5.10029E-002	5.31526E-004	...........
	34	9.04167	5.10105E-002	5.10008E-002	5.34692E-004	...........
	35	9.3	5.10072E-002	5.09938E-002	5.37726E-004	...........
	36	9.5583	5.10035E-002	5.09905E-002	5.30092E-004	...........
	37	9.8167	5.09995E-002	5.09884E-002	5.34759E-004	...........
	38	10.075	5.09954E-002	5.09828E-002	5.29292E-004	...........
EOC	QUANT	0.0509954	Open Circuit (V)
PSTATMODEL	IQUANT	4	Pstat Model
PSTATSECTION	LABEL	REF600-11020	Pstat Section
PSTATSERIALNO	LABEL	11020	Pstat Serial Number
CTRLMODE	IQUANT	1	Control Mode
IESTAB	IQUANT	0	I/E Stability
CASPEED	IQUANT	1	Control Amp Speed
CONVENTION	IQUANT	1	Current Convention
ICHRANGE	IQUANT	2	Ich Range
ICHRANGEMODE	TOGGLE	F	Ich Auto Range
ICHOFFSETENABLE	TOGGLE	T	Ich Offset Enable
ICHOFFSET	QUANT	0	Ich Offset (V)
ICHFILTER	IQUANT	3	Ich Filter
VCHRANGE	IQUANT	2	Vch Range
VCHRANGEMODE	TOGGLE	F	Vch Auto Range
VCHOFFSETENABLE	TOGGLE	T	Vch Offset Enable
VCHOFFSET	QUANT	0	Vch Offset (V)
VCHFILTER	IQUANT	3	Vch Filter
ACHRANGE	IQUANT	2	Ach Range
ACHOFFSETENABLE	TOGGLE	F	Ach Offset Enable
ACHOFFSET	QUANT	0	Ach Offset (V)
ACHFILTER	IQUANT	3	Ach Filter
IERANGELOWERLIMIT	IQUANT	1	I/E Range Lower Limit
IERANGEMODE	TOGGLE	F	I/E AutoRange
IERANGE	IQUANT	7	I/E Range
POSFEEDENABLE	TOGGLE	F	Positive Feedback IR Comp
POSFEEDRESISTANCE	QUANT	0	Positive Feedback Resistance (ohm)
ACHSELECT	IQUANT	0	Ach Select
CABLEID	IQUANT	14	Cable ID
DCCALDATE	LABEL	9/1/2020	DC Calibration Date
ACCALDATE	LABEL	9/1/2020	AC Calibration Date
THERMOSELECT	IQUANT	1	Thermo Select
FRAMEWORKVERSION	QUANT	6.33	Framework Version
INSTRUMENTVERSION	LABEL	3.50	Instrument Version
ZCURVE	TABLE
	Pt	Time	Freq	Zreal	Zimag	Zsig	Zmod	Zphz	Idc	Vdc	IERange
	#	s	Hz	ohm	ohm	V	ohm	°	A	V	#
	0	1	1000078	1658.93	-2530.622	1	3025.904	-56.75345	2.115184E-007	0.0532268	8
	1	2	794390.6	2039.106	-2864.709	1	3516.32	-54.55666	6.772817E-008	0.052877	8
	2	2	630984.4	2471.865	-3195.096	1	4039.648	-52.27291	8.110731E-008	0.0527158	8
	3	2	501234.4	2956.745	-3510.301	1	4589.614	-49.89239	8.485117E-008	0.05262	8
	4	3	398109.4	3484.138	-3820.061	1	5170.308	-47.6332	1.061971E-007	0.0525339	8
	5	3	316265.6	4029.776	-4122.388	1	5764.822	-45.65087	7.212071E-008	0.0525302	8
	6	3	251203.1	4583.837	-4441.154	1	6382.43	-44.09425	5.579566E-008	0.0524988	8
	7	4	199546.9	5136.239	-4765.742	1	7006.657	-42.85719	6.584895E-008	0.0525272	8
	8	4	158578.1	5676.474	-5157.596	1	7669.625	-42.25802	6.629078E-008	0.0525203	8
	9	4	125953.1	6250.337	-5614.56	1	8401.785	-41.93275	2.442089E-009	0.0525225	7
	10	5	100078.1	6791.022	-6185.1	1	9185.501	-42.3265	7.898136E-009	0.0524704	7
	11	5	79453.13	7338.612	-6914.64	1	10083.03	-43.2962	4.429699E-009	0.0524595	7
	12	5	63140.62	7890.674	-7806.771	1	11099.93	-44.69376	4.594562E-009	0.0524594	7
	13	6	50203.12	8451.781	-8907.695	1	12279.24	-46.50442	8.653242E-009	0.0524642	7
	14	6	39890.62	9039.714	-10295.43	1	13700.81	-48.71584	-4.007695E-009	0.0524685	7
	15	6	31640.63	9640.79	-12053.02	1	15434.38	-51.34492	6.747201E-009	0.0524567	7
	16	7	25171.88	10291.35	-14190.84	1	17529.74	-54.04998	4.029642E-009	0.0524641	7
	17	7	20015.62	10989.89	-16921.81	1	20177.35	-56.99823	-3.16978E-009	0.0524636	7
	18	7	15890.62	11778.18	-20342.8	1	23506.49	-59.92979	-2.679099E-009	0.0524655	7
	19	7	12609.37	12765.97	-24638.52	1	27749.35	-62.60995	9.730903E-010	0.0524677	6
	20	8	10078.13	13880.24	-29846.33	1	32916.03	-65.05889	1.161062E-010	0.0524578	6
	21	8	8015.625	15354.49	-36439.25	1	39542.12	-67.15079	1.324544E-009	0.0524401	6
	22	8	6328.125	17423.54	-44873.24	1	48137.17	-68.77962	2.417478E-010	0.0524601	6
	23	9	5015.625	20103.14	-55177.52	1	58725.59	-69.98151	3.375275E-011	0.0524583	6
	24	9	3984.375	24044.56	-67583.56	1	71733.39	-70.4157	1.638175E-009	0.0524551	6
	25	9	3170.956	29121.87	-82687.35	1	87665.73	-70.59811	2.560545E-010	0.0524565	6
	26	10	2527.573	36277.31	-100819.6	1	107147.7	-70.21004	2.524158E-009	0.0524364	6
	27	10	1976.103	47445.33	-124027.6	1	132792.7	-69.06622	2.473497E-009	0.0524463	6
	28	10	1577.524	62309.09	-148876.1	1	161389.3	-67.28924	2.471247E-009	0.0524382	6
	29	11	1265.625	83223.66	-175218.3	1	193978.4	-64.59362	8.473245E-010	0.0524367	5
	30	11	998.264	111854.8	-206761.5	1	235078.4	-61.5873	6.557151E-010	0.0524459	5
	31	11	796.875	147570.3	-237330.4	1	279468.6	-58.12696	6.520166E-010	0.0524329	5
	32	12	627.7902	196488.3	-263986.2	1	329084.1	-53.33922	7.799364E-010	0.0524315	5
	33	12	505.5147	247655	-284643.1	1	377299.2	-48.97495	7.82381E-010	0.05243	5
	34	12	397.9953	310009.6	-296504.6	1	428976.6	-43.72443	5.838187E-010	0.0524546	5
	35	13	315.5048	370801.3	-294658.1	1	473621.1	-38.47249	5.030968E-010	0.0524555	5
	36	13	252.4038	426192.5	-286708.9	1	513655.5	-33.92958	5.291289E-010	0.0524492	5
	37	13	198.6229	477014.9	-268395.3	1	547338.3	-29.36454	4.859439E-010	0.0524504	5
	38	14	158.3615	515763.6	-247697.6	1	572159.3	-25.65284	4.099058E-010	0.0524486	5
	39	14	125.558	549055.9	-229866.6	1	595231.9	-22.71701	5.270802E-010	0.052449	5
	40	14	100.4464	575564	-217441.2	1	615267.9	-20.69597	4.274287E-010	0.0524469	5
	41	15	79.00281	596157.4	-205983.1	1	630739.8	-19.06096	4.138382E-010	0.0524447	5
	42	16	63.3446	619306.6	-205320.9	1	652454.9	-18.34209	3.455189E-010	0.0524437	5
	43	16	49.86702	630040.7	-201604	1	661510	-17.74393	4.289532E-010	0.052442	5
	44	16	39.72458	652766.3	-211883.2	1	686293.1	-17.98306	3.561655E-010	0.0524461	5
	45	17	31.6723	670969.3	-224666.6	1	707583.9	-18.51255	2.863162E-010	0.0524431	5
	46	17	24.93351	698945.6	-243638	1	740192.2	-19.2175	3.685731E-010	0.0524424	5
	47	17	19.86229	729506.2	-259097.1	1	774151.5	-19.5534	3.398483E-010	0.0524449	5
	48	18	15.83615	765397.6	-283976.4	1	816379.9	-20.35577	8.201162E-010	0.0524422	5
	49	18	12.40079	829840.9	-319694.2	1	889292	-21.06906	1.187164E-009	0.0524434	5
	50	18	9.93114	859890.4	-336891.6	1	923529.9	-21.39447	1.210842E-009	0.0524476	5
	51	19	7.944915	905434.6	-353764.3	1	972091	-21.34119	1.675852E-010	0.0524436	4
	52	19	6.317385	972697	-386690.2	1	1046742	-21.68001	1.848362E-010	0.0524448	4
	53	20	5.008013	1019500	-405626.2	1	1097230	-21.69601	4.518866E-010	0.0524466	4
	54	21	3.945707	1086896	-427221.8	1	1167845	-21.4581	3.09038E-011	0.0524363	4
	55	22	3.158693	1139963	-446930.4	1	1224444	-21.408	2.733525E-010	0.0524417	4
	56	24	2.504006	1202916	-474678.8	1	1293185	-21.53453	1.564558E-010	0.0524294	4
	57	25	1.998082	1255721	-497903.2	1	1350831	-21.62871	-3.116069E-011	0.0523893	4
	58	27	1.584686	1327227	-540208.1	1	1432954	-22.14731	1.023172E-011	0.0524292	4
	59	29	1.266892	1375585	-580231.6	1	1492951	-22.87037	4.37914E-011	0.0524598	4
	60	31	0.999041	1444022	-633059	1	1576694	-23.67263	1.121137E-010	0.052473	4
