EXPLAIN
TAG	EISPOT
TITLE	LABEL	Potentiostatic EIS	Test &Identifier
DATE	LABEL	1/7/2021	Date
TIME	LABEL	15:41:21	Time
NOTES	NOTES	1	&Notes...
	
PSTAT	PSTAT	REF600-11020	Potentiostat
VDC	POTEN	0.00000E+000	T	DC &Voltage (V)
FREQINIT	QUANT	1.00000E+006	Initial Fre&q. (Hz)
FREQFINAL	QUANT	1.00000E+000	Final Fre&q. (Hz)
PTSPERDEC	QUANT	1.00000E+001	Points/&decade
VAC	QUANT	2.50000E+001	AC &Voltage (mV rms)
AREA	QUANT	4.00000E-005	&Area (cm^2)
CONDIT	TWOPARAM	F	5.00000E+000	0.00000E+000	Conditionin&g	Time(s)	E(V)
DELAY	TWOPARAM	F	3.00000E+000	0.00000E+000	Init. De&lay	Time(s)	Stab.(mV/s)
SPEED	SELECTOR	0	&Optimize for:
ZGUESS	QUANT	1.00000E+003	E&stimated Z (ohms)
OCVCURVE	TABLE	39
	Pt	T	Vf	Vm	Ach	Over
	#	s	V vs. Ref.	V	V	bits
	0	0.258333	2.35533E-002	2.35533E-002	5.45892E-004	...........
	1	0.516667	2.35505E-002	2.34083E-002	5.43792E-004	...........
	2	0.775	2.35331E-002	2.32508E-002	5.40526E-004	...........
	3	1.03333	2.34867E-002	2.33121E-002	5.42392E-004	...........
	4	1.29167	2.34175E-002	2.32962E-002	5.42792E-004	...........
	5	1.55	2.33533E-002	2.32958E-002	5.40792E-004	...........
	6	1.80833	2.33128E-002	2.32412E-002	5.48092E-004	...........
	7	2.06667	2.32907E-002	2.32259E-002	5.43659E-004	...........
	8	2.325	2.32746E-002	2.32950E-002	5.43959E-004	...........
	9	2.58333	2.32627E-002	2.32637E-002	5.42659E-004	...........
	10	2.84167	2.32583E-002	2.32076E-002	5.35826E-004	...........
	11	3.1	2.32560E-002	2.32292E-002	5.37426E-004	...........
	12	3.35833	2.32481E-002	2.32113E-002	5.41092E-004	...........
	13	3.61667	2.32357E-002	2.31942E-002	5.36726E-004	...........
	14	3.875	2.32228E-002	2.31931E-002	5.42459E-004	...........
	15	4.13333	2.32101E-002	2.31296E-002	5.52125E-004	...........
	16	4.39167	2.31945E-002	2.31195E-002	5.44425E-004	...........
	17	4.65	2.31747E-002	2.31739E-002	5.40726E-004	...........
	18	4.90833	2.31559E-002	2.30880E-002	5.50959E-004	...........
	19	5.16667	2.31416E-002	2.30918E-002	5.44892E-004	...........
	20	5.425	2.31286E-002	2.31178E-002	5.47359E-004	...........
	21	5.68333	2.31158E-002	2.30847E-002	5.46325E-004	...........
	22	5.94167	2.31064E-002	2.31029E-002	5.48625E-004	...........
	23	6.2	2.31013E-002	2.31093E-002	5.41992E-004	...........
	24	6.45833	2.30991E-002	2.30648E-002	5.39892E-004	...........
	25	6.71667	2.30975E-002	2.31170E-002	5.42192E-004	...........
	26	6.975	2.30959E-002	2.31102E-002	5.46659E-004	...........
	27	7.23333	2.30957E-002	2.30422E-002	5.41159E-004	...........
	28	7.49167	2.30938E-002	2.30659E-002	5.42425E-004	...........
	29	7.75	2.30870E-002	2.31148E-002	5.43859E-004	...........
	30	8.00833	2.30829E-002	2.32092E-002	5.41026E-004	...........
	31	8.26667	2.30941E-002	2.31360E-002	5.45459E-004	...........
	32	8.525	2.31182E-002	2.31222E-002	5.40692E-004	...........
	33	8.78333	2.31372E-002	2.31002E-002	5.40792E-004	...........
	34	9.04167	2.31391E-002	2.30902E-002	5.46125E-004	...........
	35	9.3	2.31262E-002	2.30453E-002	5.45325E-004	...........
	36	9.5583	2.31065E-002	2.30693E-002	5.48425E-004	...........
	37	9.8167	2.30837E-002	2.29104E-002	5.41459E-004	...........
	38	10.075	2.30557E-002	2.29899E-002	5.49659E-004	...........
EOC	QUANT	0.0230557	Open Circuit (V)
PSTATMODEL	IQUANT	4	Pstat Model
PSTATSECTION	LABEL	REF600-11020	Pstat Section
PSTATSERIALNO	LABEL	11020	Pstat Serial Number
CTRLMODE	IQUANT	1	Control Mode
IESTAB	IQUANT	0	I/E Stability
CASPEED	IQUANT	1	Control Amp Speed
CONVENTION	IQUANT	1	Current Convention
ICHRANGE	IQUANT	2	Ich Range
ICHRANGEMODE	TOGGLE	F	Ich Auto Range
ICHOFFSETENABLE	TOGGLE	T	Ich Offset Enable
ICHOFFSET	QUANT	0	Ich Offset (V)
ICHFILTER	IQUANT	3	Ich Filter
VCHRANGE	IQUANT	2	Vch Range
VCHRANGEMODE	TOGGLE	F	Vch Auto Range
VCHOFFSETENABLE	TOGGLE	T	Vch Offset Enable
VCHOFFSET	QUANT	0	Vch Offset (V)
VCHFILTER	IQUANT	3	Vch Filter
ACHRANGE	IQUANT	2	Ach Range
ACHOFFSETENABLE	TOGGLE	F	Ach Offset Enable
ACHOFFSET	QUANT	0	Ach Offset (V)
ACHFILTER	IQUANT	3	Ach Filter
IERANGELOWERLIMIT	IQUANT	1	I/E Range Lower Limit
IERANGEMODE	TOGGLE	F	I/E AutoRange
IERANGE	IQUANT	7	I/E Range
POSFEEDENABLE	TOGGLE	F	Positive Feedback IR Comp
POSFEEDRESISTANCE	QUANT	0	Positive Feedback Resistance (ohm)
ACHSELECT	IQUANT	0	Ach Select
CABLEID	IQUANT	14	Cable ID
DCCALDATE	LABEL	9/1/2020	DC Calibration Date
ACCALDATE	LABEL	9/1/2020	AC Calibration Date
THERMOSELECT	IQUANT	1	Thermo Select
FRAMEWORKVERSION	QUANT	6.33	Framework Version
INSTRUMENTVERSION	LABEL	3.50	Instrument Version
ZCURVE	TABLE
	Pt	Time	Freq	Zreal	Zimag	Zsig	Zmod	Zphz	Idc	Vdc	IERange
	#	s	Hz	ohm	ohm	V	ohm	°	A	V	#
	0	1	1000078	1726.391	-2102.937	1	2720.803	-50.61596	6.431698E-008	0.0250387	8
	1	1	794390.6	2046.979	-2295.023	1	3075.265	-48.26956	5.865904E-008	0.0247264	8
	2	2	630984.4	2379.332	-2477.967	1	3435.337	-46.16333	1.6692E-007	0.0245762	8
	3	2	501234.4	2713.25	-2665.771	1	3803.69	-44.49427	4.233619E-008	0.0245383	8
	4	2	398109.4	3048.435	-2863.625	1	4182.5	-43.20952	6.051614E-008	0.0245036	8
	5	3	316265.6	3362.099	-3093.567	1	4568.792	-42.61808	3.509053E-008	0.0244739	8
	6	3	251203.1	3687.976	-3375.378	1	4999.435	-42.46595	9.65106E-008	0.0244594	8
	7	3	199546.9	3992.06	-3726.437	1	5461.032	-43.02901	1.325012E-007	0.0244653	8
	8	4	158578.1	4308.694	-4172.452	1	5997.85	-44.07967	5.779958E-008	0.0244863	8
	9	4	125953.1	4655.753	-4725.825	1	6633.962	-45.42794	4.109115E-009	0.0245102	7
	10	4	100078.1	4998.971	-5435.847	1	7384.994	-47.39741	-8.444558E-009	0.0244554	7
	11	5	79453.13	5360.111	-6319.367	1	8286.445	-49.69526	1.347983E-008	0.0244371	7
	12	5	63140.62	5763.123	-7411.248	1	9388.3	-52.13071	1.210231E-008	0.0244427	7
	13	5	50203.12	6212.741	-8758.412	1	10738.15	-54.65018	1.221639E-008	0.0244406	7
	14	6	39890.62	6735.152	-10417.77	1	12405.33	-57.11707	-3.777509E-009	0.0244564	7
	15	6	31640.63	7330.415	-12480.94	1	14474.42	-59.57306	-1.271498E-008	0.0244573	7
	16	6	25171.88	8021.974	-14962.46	1	16977.26	-61.80246	1.349093E-008	0.0244337	7
	17	7	20015.62	8855.686	-17998.65	1	20059.27	-63.80191	7.838439E-009	0.0244433	7
	18	7	15890.62	9822.4	-21787.83	1	23899.56	-65.73318	-7.530059E-009	0.0244398	7
	19	7	12609.37	11101.89	-26337.23	1	28581.49	-67.1432	-7.944763E-010	0.0244641	6
	20	8	10078.13	12513.02	-31743.24	1	34120.5	-68.4859	2.597986E-009	0.024412	6
	21	8	8015.625	14264.54	-38436.89	1	40998.44	-69.63932	2.413429E-009	0.0244083	6
	22	8	6328.125	16499.9	-46850.09	1	49670.7	-70.5985	5.142818E-010	0.0244516	6
	23	9	5015.625	19191.42	-56926.12	1	60074.07	-71.36957	1.806792E-009	0.0244322	6
	24	9	3984.375	22465.42	-69091.03	1	72651.67	-71.98771	2.371712E-009	0.0244236	6
	25	9	3170.956	26345.6	-83780.75	1	87825.42	-72.54379	2.018389E-009	0.0244027	6
	26	9	2527.573	31418.72	-101382.3	1	106139	-72.78161	-1.781281E-009	0.0244505	6
	27	10	1976.103	38293.41	-124686.2	1	130434	-72.92732	1.866702E-009	0.0244269	6
	28	10	1577.524	46348.75	-150674.3	1	157641.8	-72.90163	1.937053E-009	0.0244288	6
	29	10	1265.625	57524.04	-180648.4	1	189586	-72.33691	2.504433E-010	0.0244235	5
	30	11	998.264	71097.98	-219980.8	1	231185	-72.08913	-6.231467E-011	0.024442	5
	31	11	796.875	87895.46	-264978.8	1	279176.2	-71.64893	3.567088E-010	0.0243895	5
	32	11	627.7902	110909.1	-321460.9	1	340055.8	-70.96474	1.554342E-010	0.0243963	5
	33	12	505.5147	137787.5	-382018.5	1	406107.8	-70.16649	-8.193224E-011	0.024436	5
	34	12	397.9953	176558.2	-459764.9	1	492500.3	-68.99229	9.923453E-011	0.0244411	5
	35	12	315.5048	224597.5	-548227.4	1	592450.3	-67.7221	9.939416E-011	0.0244383	5
	36	13	252.4038	283658.6	-645179.3	1	704782.6	-66.2669	8.994459E-011	0.0244348	5
	37	13	198.6229	364171.6	-763165.8	1	845602.2	-64.4902	9.726323E-011	0.024438	5
	38	13	158.3615	459172.8	-888514.5	1	1000149	-62.67066	9.621538E-011	0.0244352	5
	39	14	125.558	583135	-1028787	1	1182560	-60.45465	9.431912E-011	0.0244403	4
	40	14	100.4464	727223.8	-1173109	1	1380231	-58.20474	8.493905E-011	0.0244412	4
	41	14	79.00281	914526.5	-1340437	1	1622692	-55.69584	1.043407E-010	0.0244356	4
	42	15	63.3446	1121755	-1496126	1	1869954	-53.13844	9.163285E-011	0.0244386	4
	43	15	49.86702	1389956	-1649849	1	2157309	-49.8867	8.131369E-011	0.0244372	4
	44	15	39.72458	1680357	-1783711	1	2450556	-46.70897	1.065841E-010	0.0244409	4
	45	16	31.6723	1997114	-1887104	1	2747658	-43.37767	1.155491E-010	0.0244369	4
	46	16	24.93351	2344154	-1956382	1	3053275	-39.84767	1.033861E-010	0.0244373	4
	47	16	19.86229	2666064	-1989825	1	3326755	-36.73593	1.783015E-010	0.0244453	4
	48	17	15.83615	2979079	-2014859	1	3596466	-34.07191	5.838283E-011	0.0244391	4
	49	17	12.40079	3290724	-2019313	1	3860892	-31.53486	1.42295E-010	0.0244384	4
	50	17	9.93114	3538511	-2029835	1	4079374	-29.84035	1.268308E-010	0.0244429	4
	51	18	7.944915	3774399	-2078915	1	4309057	-28.84569	-1.083381E-011	0.024441	4
	52	18	6.317385	4027563	-2150061	1	4565526	-28.09493	1.217146E-010	0.0244277	4
	53	19	5.008013	4300167	-2289872	1	4871853	-28.03565	1.37327E-010	0.0244444	4
	54	20	3.945707	4577518	-2432871	1	5183873	-27.98987	7.528489E-011	0.0244309	4
	55	21	3.158693	4875803	-2615296	1	5532922	-28.20834	1.285805E-010	0.0244439	4
	56	22	2.504006	5224048	-2824656	1	5938801	-28.4002	8.655247E-011	0.024445	4
	57	23	1.998082	5599333	-3059539	1	6380699	-28.65269	5.202919E-011	0.0244121	4
	58	25	1.584686	5958359	-3265693	1	6794615	-28.72653	8.065121E-011	0.0244578	4
	59	27	1.266892	6384427	-3537597	1	7299006	-28.99074	9.094751E-011	0.0244746	4
	60	29	0.999041	6856520	-3863290	1	7869999	-29.39898	9.463481E-011	0.0244702	4
