EXPLAIN
TAG	EISPOT
TITLE	LABEL	Potentiostatic EIS	Test &Identifier
DATE	LABEL	1/7/2021	Date
TIME	LABEL	16:39:22	Time
NOTES	NOTES	1	&Notes...
	
PSTAT	PSTAT	REF600-11020	Potentiostat
VDC	POTEN	0.00000E+000	T	DC &Voltage (V)
FREQINIT	QUANT	1.00000E+006	Initial Fre&q. (Hz)
FREQFINAL	QUANT	1.00000E+000	Final Fre&q. (Hz)
PTSPERDEC	QUANT	1.00000E+001	Points/&decade
VAC	QUANT	2.50000E+001	AC &Voltage (mV rms)
AREA	QUANT	4.00000E-005	&Area (cm^2)
CONDIT	TWOPARAM	F	5.00000E+000	0.00000E+000	Conditionin&g	Time(s)	E(V)
DELAY	TWOPARAM	F	3.00000E+000	0.00000E+000	Init. De&lay	Time(s)	Stab.(mV/s)
SPEED	SELECTOR	0	&Optimize for:
ZGUESS	QUANT	1.00000E+003	E&stimated Z (ohms)
OCVCURVE	TABLE	39
	Pt	T	Vf	Vm	Ach	Over
	#	s	V vs. Ref.	V	V	bits
	0	0.258333	5.59038E-002	5.59038E-002	5.05959E-004	...........
	1	0.516667	5.59036E-002	5.58913E-002	5.10493E-004	...........
	2	0.775	5.59021E-002	5.58764E-002	5.06759E-004	...........
	3	1.03333	5.58976E-002	5.58625E-002	5.12093E-004	...........
	4	1.29167	5.58891E-002	5.58472E-002	5.07826E-004	...........
	5	1.55	5.58773E-002	5.58305E-002	5.06626E-004	...........
	6	1.80833	5.58632E-002	5.58163E-002	5.04659E-004	...........
	7	2.06667	5.58482E-002	5.58027E-002	5.05493E-004	...........
	8	2.325	5.58329E-002	5.57878E-002	5.07026E-004	...........
	9	2.58333	5.58180E-002	5.57748E-002	5.08426E-004	...........
	10	2.84167	5.58036E-002	5.57636E-002	5.08359E-004	...........
	11	3.1	5.57897E-002	5.57418E-002	5.08359E-004	...........
	12	3.35833	5.57755E-002	5.57232E-002	5.02493E-004	...........
	13	3.61667	5.57604E-002	5.57130E-002	5.03326E-004	...........
	14	3.875	5.57446E-002	5.57152E-002	5.09126E-004	...........
	15	4.13333	5.57303E-002	5.56940E-002	5.03226E-004	...........
	16	4.39167	5.57184E-002	5.56842E-002	5.04426E-004	...........
	17	4.65	5.57077E-002	5.56695E-002	5.07693E-004	...........
	18	4.90833	5.56965E-002	5.56600E-002	5.07326E-004	...........
	19	5.16667	5.56846E-002	5.56524E-002	5.07726E-004	...........
	20	5.425	5.56729E-002	5.56412E-002	5.10126E-004	...........
	21	5.68333	5.56619E-002	5.56233E-002	5.09126E-004	...........
	22	5.94167	5.56510E-002	5.56170E-002	5.03659E-004	...........
	23	6.2	5.56400E-002	5.56210E-002	5.01459E-004	...........
	24	6.45833	5.56300E-002	5.56109E-002	5.04826E-004	...........
	25	6.71667	5.56222E-002	5.55908E-002	5.01926E-004	...........
	26	6.975	5.56147E-002	5.55721E-002	5.02826E-004	...........
	27	7.23333	5.56048E-002	5.55629E-002	5.03959E-004	...........
	28	7.49167	5.55920E-002	5.55518E-002	4.98226E-004	...........
	29	7.75	5.55780E-002	5.55376E-002	5.01626E-004	...........
	30	8.00833	5.55645E-002	5.55303E-002	5.06193E-004	...........
	31	8.26667	5.55522E-002	5.55203E-002	5.03193E-004	...........
	32	8.525	5.55409E-002	5.55110E-002	5.03326E-004	...........
	33	8.78333	5.55307E-002	5.55033E-002	5.04226E-004	...........
	34	9.04167	5.55211E-002	5.54889E-002	5.00226E-004	...........
	35	9.3	5.55116E-002	5.54784E-002	5.03026E-004	...........
	36	9.5583	5.55015E-002	5.54677E-002	5.06159E-004	...........
	37	9.8167	5.54907E-002	5.54579E-002	5.07359E-004	...........
	38	10.075	5.54797E-002	5.54454E-002	5.06659E-004	...........
EOC	QUANT	0.0554797	Open Circuit (V)
PSTATMODEL	IQUANT	4	Pstat Model
PSTATSECTION	LABEL	REF600-11020	Pstat Section
PSTATSERIALNO	LABEL	11020	Pstat Serial Number
CTRLMODE	IQUANT	1	Control Mode
IESTAB	IQUANT	0	I/E Stability
CASPEED	IQUANT	1	Control Amp Speed
CONVENTION	IQUANT	1	Current Convention
ICHRANGE	IQUANT	2	Ich Range
ICHRANGEMODE	TOGGLE	F	Ich Auto Range
ICHOFFSETENABLE	TOGGLE	T	Ich Offset Enable
ICHOFFSET	QUANT	0	Ich Offset (V)
ICHFILTER	IQUANT	3	Ich Filter
VCHRANGE	IQUANT	2	Vch Range
VCHRANGEMODE	TOGGLE	F	Vch Auto Range
VCHOFFSETENABLE	TOGGLE	T	Vch Offset Enable
VCHOFFSET	QUANT	0	Vch Offset (V)
VCHFILTER	IQUANT	3	Vch Filter
ACHRANGE	IQUANT	2	Ach Range
ACHOFFSETENABLE	TOGGLE	F	Ach Offset Enable
ACHOFFSET	QUANT	0	Ach Offset (V)
ACHFILTER	IQUANT	3	Ach Filter
IERANGELOWERLIMIT	IQUANT	1	I/E Range Lower Limit
IERANGEMODE	TOGGLE	F	I/E AutoRange
IERANGE	IQUANT	8	I/E Range
POSFEEDENABLE	TOGGLE	F	Positive Feedback IR Comp
POSFEEDRESISTANCE	QUANT	0	Positive Feedback Resistance (ohm)
ACHSELECT	IQUANT	0	Ach Select
CABLEID	IQUANT	14	Cable ID
DCCALDATE	LABEL	9/1/2020	DC Calibration Date
ACCALDATE	LABEL	9/1/2020	AC Calibration Date
THERMOSELECT	IQUANT	1	Thermo Select
FRAMEWORKVERSION	QUANT	6.33	Framework Version
INSTRUMENTVERSION	LABEL	3.50	Instrument Version
ZCURVE	TABLE
	Pt	Time	Freq	Zreal	Zimag	Zsig	Zmod	Zphz	Idc	Vdc	IERange
	#	s	Hz	ohm	ohm	V	ohm	°	A	V	#
	0	1	1000078	1788.055	-1578.674	1	2385.237	-41.44129	4.316508E-008	0.0575397	8
	1	1	794390.6	2063.51	-1633.058	1	2631.53	-38.35802	8.27327E-008	0.057253	8
	2	2	630984.4	2334.077	-1666.63	1	2868.025	-35.52844	7.291213E-008	0.0571476	8
	3	2	501234.4	2591.395	-1686.632	1	3091.934	-33.05844	7.179026E-008	0.057048	8
	4	2	398109.4	2836.045	-1703.283	1	3308.22	-30.98835	9.747525E-008	0.0569817	8
	5	3	316265.6	3062.075	-1724.499	1	3514.285	-29.38734	1.33104E-007	0.0569681	8
	6	3	251203.1	3277.284	-1763.281	1	3721.525	-28.28163	6.686953E-008	0.0569834	8
	7	3	199546.9	3487.282	-1828.874	1	3937.755	-27.67437	8.348631E-008	0.0569915	8
	8	4	158578.1	3703.293	-1920.835	1	4171.809	-27.415	3.891452E-008	0.0570014	8
	9	4	125953.1	3928.668	-2030.433	1	4422.34	-27.33104	-1.083713E-008	0.0570124	7
	10	4	100078.1	4154.909	-2181.951	1	4692.993	-27.70622	1.124137E-008	0.0569428	7
	11	5	79453.13	4395.66	-2382.307	1	4999.721	-28.45628	9.484889E-009	0.0569341	7
	12	5	63140.62	4657.551	-2620.951	1	5344.358	-29.36783	3.587206E-009	0.0569462	7
	13	5	50203.12	4945.826	-2909.217	1	5738.008	-30.46475	1.020685E-008	0.0569322	7
	14	6	39890.62	5268.553	-3247.085	1	6188.797	-31.64612	7.443985E-009	0.0569504	7
	15	6	31640.63	5634.857	-3646.091	1	6711.602	-32.90529	-2.910691E-009	0.0569418	7
	16	6	25171.88	6046.623	-4107.993	1	7310.079	-34.19165	1.087245E-008	0.0569294	7
	17	7	20015.62	6520.798	-4638.572	1	8002.322	-35.42616	4.837434E-009	0.0569208	7
	18	7	15890.62	7067.238	-5239.166	1	8797.426	-36.5507	-5.466346E-009	0.0569401	7
	19	7	12609.37	7705.653	-5917.333	1	9715.55	-37.52142	4.672296E-011	0.056946	6
	20	8	10078.13	8399.506	-6662.324	1	10720.93	-38.42076	-4.627227E-010	0.0569343	6
	21	8	8015.625	9203.041	-7509.197	1	11877.88	-39.21264	9.391742E-010	0.0569148	6
	22	8	6328.125	10142.24	-8481.659	1	13221.33	-39.90475	1.799135E-009	0.0569224	6
	23	9	5015.625	11176.08	-9554.51	1	14703.52	-40.52736	2.183866E-009	0.0569057	6
	24	9	3984.375	12315.87	-10729.7	1	16334.24	-41.06268	-7.852562E-010	0.0569508	6
	25	9	3170.956	13572.75	-12052.71	1	18151.79	-41.60534	-5.083408E-010	0.0569437	6
	26	9	2527.573	14959.52	-13530.83	1	20171.03	-42.12923	2.040729E-009	0.0569208	6
	27	10	1976.103	16618.78	-15330.96	1	22610.22	-42.69178	3.745805E-010	0.0569365	6
	28	10	1577.524	18281.96	-17214.29	1	25110.99	-43.27715	-8.149439E-010	0.0569221	6
	29	10	1265.625	20045.97	-19303.87	1	27829.49	-43.91958	1.330483E-009	0.0569032	6
	30	11	998.264	22101.46	-21870.99	1	31093.64	-44.6997	1.296135E-009	0.0569173	6
	31	11	796.875	24174.43	-24720.94	1	34576.41	-45.64037	-6.810263E-010	0.0569408	6
	32	11	627.7902	26491.7	-28316.92	1	38777.03	-46.90735	1.372188E-009	0.0569191	6
	33	12	505.5147	28710.83	-32269.26	1	43192.79	-48.33964	1.613332E-009	0.0568979	6
	34	12	397.9953	31392.63	-37500.37	1	48905.77	-50.06634	4.602529E-010	0.0569429	6
	35	12	315.5048	34215.61	-43729.41	1	55524.5	-51.95897	4.330706E-010	0.0569401	6
	36	13	252.4038	37216.61	-51071.66	1	63193.28	-53.91867	4.469374E-010	0.056937	6
	37	13	198.6229	40886.34	-60715.64	1	73198.92	-56.0434	4.277357E-010	0.0569366	6
	38	13	158.3615	44907.74	-71895.38	1	84768.22	-58.01002	4.459276E-010	0.0569327	6
	39	14	125.558	49851.53	-85904.6	1	99321.6	-59.87286	4.045942E-010	0.0569305	6
	40	14	100.4464	55624.31	-102159.4	1	116321.1	-61.43235	1.079476E-010	0.0569266	5
	41	14	79.00281	63279.09	-123446	1	138719.7	-62.86007	1.242705E-010	0.056923	5
	42	15	63.3446	72003.05	-147156.6	1	163827.7	-63.92771	4.473603E-011	0.0569227	5
	43	15	49.86702	84111.09	-177957.5	1	196833.8	-64.70238	1.482945E-010	0.0569216	5
	44	15	39.72458	98719.2	-213126.5	1	234879.5	-65.14664	1.238796E-010	0.0569226	5
	45	16	31.6723	117408.1	-254574.5	1	280344.1	-65.24115	5.728121E-011	0.0569213	5
	46	16	24.93351	142954.2	-306385.7	1	338094.8	-64.98706	1.979293E-010	0.056919	5
	47	16	19.86229	174933.3	-363250.4	1	403178	-64.28558	2.566189E-010	0.0569286	5
	48	17	15.83615	215599.6	-428331.6	1	479532.2	-63.28172	2.829478E-010	0.0569237	5
	49	17	12.40079	272169.8	-508884.3	1	577095.8	-61.86051	4.823043E-010	0.0569197	5
	50	17	9.93114	336899.3	-589156.5	1	678679.9	-60.23764	5.559658E-010	0.0569242	5
	51	18	7.944915	419619.4	-675876	1	795543.1	-58.16581	2.171578E-010	0.0569218	5
	52	18	6.317385	520470.2	-771741.1	1	930845.6	-56.00387	1.668499E-010	0.0569219	5
	53	19	5.008013	646845.4	-870199	1	1084276	-53.37545	2.983797E-010	0.0569363	4
	54	20	3.945707	799576.8	-960281	1	1249585	-50.21758	2.768416E-010	0.0569286	4
	55	21	3.158693	958540	-1040588	1	1414787	-47.3502	2.021209E-010	0.0569483	4
	56	22	2.504006	1139700	-1108184	1	1589650	-44.19676	6.917333E-013	0.0569287	4
	57	23	1.998082	1320566	-1158692	1	1756832	-41.26439	5.900434E-011	0.056936	4
	58	24	1.584686	1506852	-1188119	1	1918914	-38.25499	1.12351E-010	0.0569693	4
	59	26	1.266892	1684307	-1222569	1	2081241	-35.97435	1.418573E-010	0.0569487	4
	60	29	0.999041	1863200	-1252889	1	2245272	-33.91845	1.348824E-010	0.0569173	4
