EXPLAIN
TAG	EISPOT
TITLE	LABEL	Potentiostatic EIS	Test &Identifier
DATE	LABEL	6/10/2021	Date
TIME	LABEL	15:35:38	Time
NOTES	NOTES	1	&Notes...
	
PSTAT	PSTAT	REF600-11020	Potentiostat
VDC	POTEN	0.00000E+000	T	DC &Voltage (V)
FREQINIT	QUANT	1.00000E+006	Initial Fre&q. (Hz)
FREQFINAL	QUANT	1.00000E+000	Final Fre&q. (Hz)
PTSPERDEC	QUANT	1.00000E+001	Points/&decade
VAC	QUANT	2.50000E+001	AC &Voltage (mV rms)
AREA	QUANT	4.00000E-005	&Area (cm^2)
CONDIT	TWOPARAM	F	5.00000E+000	0.00000E+000	Conditionin&g	Time(s)	E(V)
DELAY	TWOPARAM	F	3.00000E+000	0.00000E+000	Init. De&lay	Time(s)	Stab.(mV/s)
SPEED	SELECTOR	0	&Optimize for:
ZGUESS	QUANT	1.00000E+003	E&stimated Z (ohms)
OCVCURVE	TABLE	39
	Pt	T	Vf	Vm	Ach	Over
	#	s	V vs. Ref.	V	V	bits
	0	0.258333	-2.63978E-002	-2.63978E-002	5.16393E-004	...........
	1	0.516667	-2.63980E-002	-2.64087E-002	5.23293E-004	...........
	2	0.775	-2.63991E-002	-2.64091E-002	5.22893E-004	...........
	3	1.03333	-2.64016E-002	-2.64152E-002	5.20259E-004	...........
	4	1.29167	-2.64054E-002	-2.64201E-002	5.24326E-004	...........
	5	1.55	-2.64099E-002	-2.64256E-002	5.22559E-004	...........
	6	1.80833	-2.64148E-002	-2.64328E-002	5.22359E-004	...........
	7	2.06667	-2.64200E-002	-2.64344E-002	5.23826E-004	...........
	8	2.325	-2.64253E-002	-2.64393E-002	5.23326E-004	...........
	9	2.58333	-2.64303E-002	-2.64430E-002	5.24859E-004	...........
	10	2.84167	-2.64348E-002	-2.64495E-002	5.21759E-004	...........
	11	3.1	-2.64391E-002	-2.64526E-002	5.20292E-004	...........
	12	3.35833	-2.64435E-002	-2.64543E-002	5.25059E-004	...........
	13	3.61667	-2.64477E-002	-2.64577E-002	5.26892E-004	...........
	14	3.875	-2.64514E-002	-2.64595E-002	5.23526E-004	...........
	15	4.13333	-2.64545E-002	-2.64664E-002	5.20759E-004	...........
	16	4.39167	-2.64576E-002	-2.64697E-002	5.28026E-004	...........
	17	4.65	-2.64611E-002	-2.64713E-002	5.26559E-004	...........
	18	4.90833	-2.64649E-002	-2.64775E-002	5.21593E-004	...........
	19	5.16667	-2.64688E-002	-2.64858E-002	5.20059E-004	...........
	20	5.425	-2.64732E-002	-2.64928E-002	5.25192E-004	...........
	21	5.68333	-2.64783E-002	-2.64840E-002	5.26626E-004	...........
	22	5.94167	-2.64832E-002	-2.64941E-002	5.22392E-004	...........
	23	6.2	-2.64869E-002	-2.64967E-002	5.31226E-004	...........
	24	6.45833	-2.64898E-002	-2.65028E-002	5.26159E-004	...........
	25	6.71667	-2.64932E-002	-2.65073E-002	5.24226E-004	...........
	26	6.975	-2.64972E-002	-2.65089E-002	5.23526E-004	...........
	27	7.23333	-2.65015E-002	-2.65110E-002	5.24392E-004	...........
	28	7.49167	-2.65055E-002	-2.65189E-002	5.21526E-004	...........
	29	7.75	-2.65092E-002	-2.65237E-002	5.20959E-004	...........
	30	8.00833	-2.65132E-002	-2.65259E-002	5.19592E-004	...........
	31	8.26667	-2.65178E-002	-2.65441E-002	5.18726E-004	...........
	32	8.525	-2.65238E-002	-2.65574E-002	5.16193E-004	...........
	33	8.78333	-2.65317E-002	-2.65511E-002	5.16259E-004	...........
	34	9.04167	-2.65404E-002	-2.65514E-002	5.20093E-004	...........
	35	9.3	-2.65474E-002	-2.65548E-002	5.24492E-004	...........
	36	9.5583	-2.65513E-002	-2.65561E-002	5.23259E-004	...........
	37	9.8167	-2.65534E-002	-2.65628E-002	5.25659E-004	...........
	38	10.075	-2.65553E-002	-2.65656E-002	5.27059E-004	...........
EOC	QUANT	-0.0265553	Open Circuit (V)
PSTATMODEL	IQUANT	4	Pstat Model
PSTATSECTION	LABEL	REF600-11020	Pstat Section
PSTATSERIALNO	LABEL	11020	Pstat Serial Number
CTRLMODE	IQUANT	1	Control Mode
IESTAB	IQUANT	0	I/E Stability
CASPEED	IQUANT	1	Control Amp Speed
CONVENTION	IQUANT	1	Current Convention
ICHRANGE	IQUANT	2	Ich Range
ICHRANGEMODE	TOGGLE	F	Ich Auto Range
ICHOFFSETENABLE	TOGGLE	T	Ich Offset Enable
ICHOFFSET	QUANT	0	Ich Offset (V)
ICHFILTER	IQUANT	3	Ich Filter
VCHRANGE	IQUANT	2	Vch Range
VCHRANGEMODE	TOGGLE	F	Vch Auto Range
VCHOFFSETENABLE	TOGGLE	T	Vch Offset Enable
VCHOFFSET	QUANT	0	Vch Offset (V)
VCHFILTER	IQUANT	3	Vch Filter
ACHRANGE	IQUANT	2	Ach Range
ACHOFFSETENABLE	TOGGLE	F	Ach Offset Enable
ACHOFFSET	QUANT	0	Ach Offset (V)
ACHFILTER	IQUANT	3	Ach Filter
IERANGELOWERLIMIT	IQUANT	1	I/E Range Lower Limit
IERANGEMODE	TOGGLE	F	I/E AutoRange
IERANGE	IQUANT	7	I/E Range
POSFEEDENABLE	TOGGLE	F	Positive Feedback IR Comp
POSFEEDRESISTANCE	QUANT	0	Positive Feedback Resistance (ohm)
ACHSELECT	IQUANT	0	Ach Select
CABLEID	IQUANT	14	Cable ID
DCCALDATE	LABEL	9/1/2020	DC Calibration Date
ACCALDATE	LABEL	9/1/2020	AC Calibration Date
THERMOSELECT	IQUANT	1	Thermo Select
FRAMEWORKVERSION	QUANT	6.33	Framework Version
INSTRUMENTVERSION	LABEL	3.50	Instrument Version
ZCURVE	TABLE
	Pt	Time	Freq	Zreal	Zimag	Zsig	Zmod	Zphz	Idc	Vdc	IERange
	#	s	Hz	ohm	ohm	V	ohm	°	A	V	#
	0	1	1000078	1340.758	-2777.111	1	3083.825	-64.22927	1.126641E-008	-0.0244667	8
	1	1	794390.6	1644.592	-3285.139	1	3673.802	-63.40673	4.288606E-008	-0.0247361	8
	2	2	630984.4	2045.597	-3868.441	1	4375.992	-62.13052	7.429916E-008	-0.0248627	8
	3	2	501234.4	2562.158	-4523.194	1	5198.455	-60.47067	1.156752E-007	-0.0249498	8
	4	2	398109.4	3232.118	-5243.463	1	6159.585	-58.34995	3.739587E-008	-0.0249949	8
	5	2	316265.6	4081.342	-5974.378	1	7235.367	-55.66142	-9.27516E-009	-0.0249968	8
	6	3	251203.1	5099.483	-6742.912	1	8454.087	-52.90076	5.502238E-008	-0.0250264	8
	7	3	199546.9	6369.367	-7374.596	1	9744.41	-49.18315	3.872056E-008	-0.0250311	8
	8	3	158578.1	7775.541	-7878.576	1	11069.37	-45.37711	3.889901E-008	-0.0250321	8
	9	4	125953.1	9360.522	-8197.441	1	12442.57	-41.21013	-5.912657E-009	-0.0250064	7
	10	4	100078.1	10874.46	-8216.23	1	13629.39	-37.07298	-1.338901E-009	-0.02504	7
	11	4	79453.13	12330.52	-8133.093	1	14771.22	-33.40847	-1.187938E-009	-0.0250585	7
	12	5	63140.62	13616.96	-7920.228	1	15752.83	-30.18419	2.570914E-010	-0.0250529	7
	13	5	50203.12	14821.83	-7746.135	1	16723.91	-27.59232	2.466211E-010	-0.0250626	7
	14	5	39890.62	15754.62	-7493.092	1	17445.76	-25.43634	-1.059074E-011	-0.0250549	7
	15	6	31640.63	16567.43	-7346.938	1	18123.39	-23.91522	-3.887734E-010	-0.0250617	7
	16	6	25171.88	17394.88	-7419.615	1	18911.18	-23.10019	-1.798473E-010	-0.0250553	7
	17	6	20015.62	18088.92	-7594.473	1	19618.49	-22.77467	7.699738E-010	-0.0250662	7
	18	7	15890.62	18841.48	-8001.918	1	20470.28	-23.01078	1.53273E-009	-0.0250692	7
	19	7	12609.37	19618.25	-8502.302	1	21381.41	-23.4313	3.25507E-010	-0.0250601	6
	20	7	10078.13	20433.9	-9317.471	1	22457.96	-24.51208	9.78239E-011	-0.0250668	6
	21	8	8015.625	21138.37	-10346.28	1	23534.58	-26.07967	2.855025E-010	-0.0250725	6
	22	8	6328.125	22164.79	-11732.16	1	25078.31	-27.89294	2.015707E-011	-0.0250718	6
	23	8	5015.625	23089.12	-13376.51	1	26684.05	-30.08555	2.21906E-010	-0.0250668	6
	24	9	3984.375	24380.64	-15379.91	1	28826.33	-32.24475	2.003366E-010	-0.0250789	6
	25	9	3170.956	25773.08	-17758.77	1	31298.97	-34.56852	9.93885E-011	-0.0250725	6
	26	9	2527.573	27432.05	-20551.72	1	34276.68	-36.84006	2.420623E-010	-0.0250701	6
	27	9	1976.103	29467.38	-24137.09	1	38091.02	-39.32132	3.137891E-010	-0.0250782	6
	28	10	1577.524	31569.81	-28003.72	1	42200.25	-41.57435	1.523607E-010	-0.025084	6
	29	10	1265.625	34240.31	-32438.46	1	47166.22	-43.45208	-4.062865E-011	-0.0250729	6
	30	10	998.264	37443.75	-38015.48	1	53359.27	-45.4341	4.008833E-010	-0.0250797	6
	31	11	796.875	41090.19	-44119.01	1	60290.05	-47.03576	1.322052E-010	-0.0250908	6
	32	11	627.7902	45583.52	-51693.62	1	68920.88	-48.5941	3.040888E-010	-0.0250851	6
	33	11	505.5147	50471.59	-59661.67	1	78146.63	-49.77	1.218805E-010	-0.0250899	6
	34	12	397.9953	56715.35	-69800.15	1	89937.16	-50.90479	1.575303E-010	-0.0250622	6
	35	12	315.5048	64114.05	-81002.62	1	103305.5	-51.63818	9.180948E-012	-0.0250713	5
	36	12	252.4038	72370.04	-93631.41	1	118339.6	-52.29868	-2.640473E-011	-0.0250736	5
	37	13	198.6229	82830.04	-109238.9	1	137091	-52.82888	1.7411E-011	-0.0250688	5
	38	13	158.3615	94337.34	-126187.5	1	157552.6	-53.21833	-4.432951E-011	-0.0250727	5
	39	13	125.558	107940.2	-146060.6	1	181617.2	-53.53524	1.968269E-011	-0.0250704	5
	40	14	100.4464	123351.7	-167845	1	208296.8	-53.6873	-2.656121E-011	-0.0250761	5
	41	14	79.00281	142683.4	-194642.8	1	241338.7	-53.75663	-7.479477E-012	-0.0250769	5
	42	14	63.3446	163411.2	-222761.7	1	276271.6	-53.73736	9.578525E-012	-0.0250746	5
	43	15	49.86702	189604	-257413.6	1	319705.2	-53.62563	-6.296332E-011	-0.0250773	5
	44	15	39.72458	218697.1	-294962.8	1	367194	-53.44529	1.218875E-010	-0.0250725	5
	45	15	31.6723	252422.1	-337444.9	1	421409.5	-53.20206	9.101021E-011	-0.0250743	5
	46	16	24.93351	294118.3	-388188.7	1	487027.7	-52.84995	-9.570668E-011	-0.0250778	5
	47	16	19.86229	340484.5	-442608.8	1	558419.4	-52.4301	3.012601E-011	-0.0250771	5
	48	16	15.83615	394696.9	-503234.7	1	639555.2	-51.89221	-2.163675E-010	-0.0250778	5
	49	17	12.40079	463535	-575658.8	1	739085.8	-51.1581	-4.099374E-010	-0.0250695	5
	50	17	9.93114	534541.1	-646645.6	1	838978.4	-50.42161	-4.313249E-010	-0.0250743	5
	51	17	7.944915	618760.4	-725688	1	953671	-49.54732	-3.927365E-011	-0.0250695	5
	52	18	6.317385	717548.7	-813274.1	1	1084570	-48.57816	4.687454E-012	-0.0250724	4
	53	18	5.008013	830239	-905966	1	1228849	-47.49745	-9.134168E-011	-0.0250745	4
	54	19	3.945707	960891	-1008881	1	1393252	-46.39566	-1.378402E-010	-0.0250699	4
	55	20	3.158693	1093756	-1106113	1	1555567	-45.32184	-3.407177E-011	-0.0250846	4
	56	21	2.504006	1247528	-1215851	1	1742016	-44.26326	7.301796E-011	-0.0250808	4
	57	23	1.998082	1402476	-1326374	1	1930339	-43.40255	3.66018E-012	-0.0251024	4
	58	24	1.584686	1579643	-1454238	1	2147110	-42.63304	-5.005664E-011	-0.0251247	4
	59	26	1.266892	1754272	-1591359	1	2368521	-42.21222	-4.42078E-011	-0.0251021	4
	60	29	0.999041	1952221	-1750224	1	2621917	-41.87717	-3.470825E-011	-0.0250764	4
