EXPLAIN
TAG	EISPOT
TITLE	LABEL	Potentiostatic EIS	Test &Identifier
DATE	LABEL	6/10/2021	Date
TIME	LABEL	15:58:17	Time
NOTES	NOTES	1	&Notes...
	
PSTAT	PSTAT	REF600-11020	Potentiostat
VDC	POTEN	0.00000E+000	T	DC &Voltage (V)
FREQINIT	QUANT	1.00000E+006	Initial Fre&q. (Hz)
FREQFINAL	QUANT	1.00000E+000	Final Fre&q. (Hz)
PTSPERDEC	QUANT	1.00000E+001	Points/&decade
VAC	QUANT	2.50000E+001	AC &Voltage (mV rms)
AREA	QUANT	4.00000E-005	&Area (cm^2)
CONDIT	TWOPARAM	F	5.00000E+000	0.00000E+000	Conditionin&g	Time(s)	E(V)
DELAY	TWOPARAM	F	3.00000E+000	0.00000E+000	Init. De&lay	Time(s)	Stab.(mV/s)
SPEED	SELECTOR	0	&Optimize for:
ZGUESS	QUANT	1.00000E+003	E&stimated Z (ohms)
OCVCURVE	TABLE	39
	Pt	T	Vf	Vm	Ach	Over
	#	s	V vs. Ref.	V	V	bits
	0	0.258333	2.59781E-002	2.59781E-002	5.11759E-004	...........
	1	0.516667	2.59781E-002	2.59783E-002	5.04559E-004	...........
	2	0.775	2.59782E-002	2.59810E-002	5.04959E-004	...........
	3	1.03333	2.59785E-002	2.59809E-002	5.08093E-004	...........
	4	1.29167	2.59791E-002	2.59808E-002	5.02626E-004	...........
	5	1.55	2.59799E-002	2.59799E-002	5.05426E-004	...........
	6	1.80833	2.59804E-002	2.59808E-002	5.05526E-004	...........
	7	2.06667	2.59806E-002	2.59804E-002	5.02393E-004	...........
	8	2.325	2.59806E-002	2.59822E-002	5.01759E-004	...........
	9	2.58333	2.59807E-002	2.59831E-002	5.03259E-004	...........
	10	2.84167	2.59811E-002	2.59815E-002	5.00693E-004	...........
	11	3.1	2.59816E-002	2.59804E-002	5.03659E-004	...........
	12	3.35833	2.59818E-002	2.59799E-002	5.11359E-004	...........
	13	3.61667	2.59815E-002	2.59849E-002	5.07226E-004	...........
	14	3.875	2.59815E-002	2.59857E-002	5.08493E-004	...........
	15	4.13333	2.59821E-002	2.59830E-002	5.01693E-004	...........
	16	4.39167	2.59832E-002	2.59879E-002	5.00459E-004	...........
	17	4.65	2.59842E-002	2.59843E-002	5.02293E-004	...........
	18	4.90833	2.59849E-002	2.59827E-002	5.04793E-004	...........
	19	5.16667	2.59850E-002	2.59804E-002	5.04359E-004	...........
	20	5.425	2.59844E-002	2.59845E-002	5.02659E-004	...........
	21	5.68333	2.59839E-002	2.60064E-002	5.03226E-004	...........
	22	5.94167	2.59859E-002	2.60170E-002	5.04393E-004	...........
	23	6.2	2.59909E-002	2.59593E-002	5.12426E-004	...........
	24	6.45833	2.59946E-002	2.59820E-002	5.09059E-004	...........
	25	6.71667	2.59923E-002	2.59812E-002	5.05559E-004	...........
	26	6.975	2.59866E-002	2.59875E-002	5.04259E-004	...........
	27	7.23333	2.59828E-002	2.59888E-002	5.01059E-004	...........
	28	7.49167	2.59828E-002	2.59935E-002	5.02893E-004	...........
	29	7.75	2.59852E-002	2.59892E-002	5.03093E-004	...........
	30	8.00833	2.59880E-002	2.59863E-002	5.03026E-004	...........
	31	8.26667	2.59895E-002	2.59942E-002	5.05359E-004	...........
	32	8.525	2.59900E-002	2.59897E-002	4.99459E-004	...........
	33	8.78333	2.59901E-002	2.59843E-002	5.08326E-004	...........
	34	9.04167	2.59900E-002	2.59987E-002	5.04859E-004	...........
	35	9.3	2.59902E-002	2.59971E-002	5.05159E-004	...........
	36	9.5583	2.59913E-002	2.59901E-002	5.04159E-004	...........
	37	9.8167	2.59928E-002	2.59905E-002	5.07326E-004	...........
	38	10.075	2.59933E-002	2.59912E-002	5.04726E-004	...........
EOC	QUANT	0.0259933	Open Circuit (V)
PSTATMODEL	IQUANT	4	Pstat Model
PSTATSECTION	LABEL	REF600-11020	Pstat Section
PSTATSERIALNO	LABEL	11020	Pstat Serial Number
CTRLMODE	IQUANT	1	Control Mode
IESTAB	IQUANT	0	I/E Stability
CASPEED	IQUANT	1	Control Amp Speed
CONVENTION	IQUANT	1	Current Convention
ICHRANGE	IQUANT	2	Ich Range
ICHRANGEMODE	TOGGLE	F	Ich Auto Range
ICHOFFSETENABLE	TOGGLE	T	Ich Offset Enable
ICHOFFSET	QUANT	0	Ich Offset (V)
ICHFILTER	IQUANT	3	Ich Filter
VCHRANGE	IQUANT	2	Vch Range
VCHRANGEMODE	TOGGLE	F	Vch Auto Range
VCHOFFSETENABLE	TOGGLE	T	Vch Offset Enable
VCHOFFSET	QUANT	0	Vch Offset (V)
VCHFILTER	IQUANT	3	Vch Filter
ACHRANGE	IQUANT	2	Ach Range
ACHOFFSETENABLE	TOGGLE	F	Ach Offset Enable
ACHOFFSET	QUANT	0	Ach Offset (V)
ACHFILTER	IQUANT	3	Ach Filter
IERANGELOWERLIMIT	IQUANT	1	I/E Range Lower Limit
IERANGEMODE	TOGGLE	F	I/E AutoRange
IERANGE	IQUANT	7	I/E Range
POSFEEDENABLE	TOGGLE	F	Positive Feedback IR Comp
POSFEEDRESISTANCE	QUANT	0	Positive Feedback Resistance (ohm)
ACHSELECT	IQUANT	0	Ach Select
CABLEID	IQUANT	14	Cable ID
DCCALDATE	LABEL	9/1/2020	DC Calibration Date
ACCALDATE	LABEL	9/1/2020	AC Calibration Date
THERMOSELECT	IQUANT	1	Thermo Select
FRAMEWORKVERSION	QUANT	6.33	Framework Version
INSTRUMENTVERSION	LABEL	3.50	Instrument Version
ZCURVE	TABLE
	Pt	Time	Freq	Zreal	Zimag	Zsig	Zmod	Zphz	Idc	Vdc	IERange
	#	s	Hz	ohm	ohm	V	ohm	°	A	V	#
	0	1	1000078	1398.082	-2609.939	1	2960.814	-61.82311	7.000919E-008	0.0280981	8
	1	1	794390.6	1726.608	-3005.033	1	3465.746	-60.11953	6.886808E-008	0.027768	8
	2	2	630984.4	2114.77	-3431.009	1	4030.394	-58.35157	2.177184E-008	0.0276252	8
	3	2	501234.4	2556.052	-3879.67	1	4645.993	-56.62181	2.997609E-008	0.0275435	8
	4	2	398109.4	3051.297	-4362.54	1	5323.736	-55.02985	3.610338E-008	0.0274777	8
	5	3	316265.6	3583.906	-4878.951	1	6053.805	-53.7003	7.371613E-008	0.0274359	8
	6	3	251203.1	4141.343	-5453.805	1	6847.971	-52.7888	4.851459E-008	0.0274483	8
	7	3	199546.9	4724.687	-6080.069	1	7699.994	-52.15001	3.762858E-008	0.0274459	8
	8	4	158578.1	5307.2	-6835.611	1	8654.014	-52.17407	6.595374E-008	0.0274259	8
	9	4	125953.1	5941.501	-7764.76	1	9777.16	-52.57722	1.877258E-008	0.0274458	7
	10	4	100078.1	6585.919	-8878.16	1	11054.23	-53.43156	-7.780419E-010	0.0274335	7
	11	5	79453.13	7262.451	-10304.28	1	12606.4	-54.82383	8.113318E-011	0.0274315	7
	12	5	63140.62	8027.266	-12059.98	1	14487.24	-56.3518	-5.583188E-010	0.0274295	7
	13	5	50203.12	8942.484	-14245.42	1	16819.63	-57.88167	1.061422E-009	0.0274278	7
	14	6	39890.62	10062.56	-16912.45	1	19679.59	-59.24821	5.052489E-010	0.0274246	7
	15	6	31640.63	11545.04	-20193.83	1	23261.1	-60.24291	4.733656E-010	0.0274123	7
	16	6	25171.88	13388.11	-24153.36	1	27615.69	-61.00057	1.160189E-009	0.027416	7
	17	7	20015.62	15919.22	-28787.56	1	32895.98	-61.05786	8.479539E-010	0.0274142	7
	18	7	15890.62	19341.3	-34251.61	1	39335.21	-60.54733	-4.77978E-011	0.0274117	7
	19	7	12609.37	24088.02	-40464.98	1	47091.91	-59.23549	4.972499E-010	0.0274204	6
	20	8	10078.13	30049.41	-47107.59	1	55875.69	-57.46665	3.689532E-010	0.0274174	6
	21	8	8015.625	38031.01	-54129.85	1	66154.35	-54.90856	7.314971E-010	0.0274163	6
	22	8	6328.125	48564.06	-60959.44	1	77939.21	-51.457	7.641957E-010	0.0274162	6
	23	9	5015.625	61229.26	-66040.06	1	90057.27	-47.16476	6.968455E-010	0.0274151	6
	24	9	3984.375	75314.54	-68172.61	1	101586.3	-42.15051	6.743112E-010	0.0274176	6
	25	9	3170.956	89908.36	-68681.29	1	113139.9	-37.37633	5.737859E-010	0.0274105	6
	26	10	2527.573	104020.8	-66504.95	1	123463.5	-32.59252	4.929157E-010	0.0274119	6
	27	10	1976.103	117766.8	-61934.33	1	133059.7	-27.74018	4.383935E-010	0.0274102	6
	28	10	1577.524	127558.2	-55509.79	1	139113.1	-23.51733	5.602535E-010	0.027415	6
	29	11	1265.625	136282.8	-48683.96	1	144717.5	-19.65812	2.673979E-010	0.0274014	5
	30	11	998.264	143513.4	-43107.15	1	149847.7	-16.7187	3.148894E-010	0.0274063	5
	31	11	796.875	146553.9	-37307.84	1	151228	-14.28228	2.92977E-010	0.0273932	5
	32	11	627.7902	150815.5	-33280.59	1	154443.9	-12.44408	2.735857E-010	0.0274016	5
	33	12	505.5147	152729.1	-30131.51	1	155673	-11.1604	2.349589E-010	0.0273959	5
	34	12	397.9953	155624.7	-28092.43	1	158139.9	-10.2325	2.688587E-010	0.027428	5
	35	12	315.5048	156509.9	-26674.04	1	158766.7	-9.67201	1.957102E-010	0.0274253	5
	36	13	252.4038	157392	-26383.88	1	159588.1	-9.51611	1.997027E-010	0.027427	5
	37	13	198.6229	159430	-27102.24	1	161717.2	-9.64774	1.709911E-010	0.0274271	5
	38	13	158.3615	161375.5	-28713.04	1	163910	-10.08888	3.915535E-011	0.0274259	5
	39	14	125.558	163790.5	-31193.54	1	166734.4	-10.78273	2.915331E-010	0.0274244	5
	40	14	100.4464	166630.7	-34547.45	1	170174.3	-11.71315	3.21683E-011	0.0274206	5
	41	14	79.00281	169296	-39279.09	1	173792.9	-13.06233	3.508148E-010	0.027419	5
	42	15	63.3446	172440.8	-44545.02	1	178101.3	-14.48405	5.089215E-011	0.0274194	5
	43	15	49.86702	176916.5	-51851.95	1	184358.5	-16.33519	-1.389872E-011	0.0274204	5
	44	16	39.72458	181215.6	-60252.95	1	190970	-18.39161	2.198402E-010	0.0274198	5
	45	16	31.6723	187420.1	-70235.59	1	200148.3	-20.54346	2.453235E-010	0.0274162	5
	46	16	24.93351	194889	-82938.23	1	211802.9	-23.05298	5.925378E-010	0.027415	5
	47	16	19.86229	204247.3	-97140.2	1	226170.7	-25.43579	1.672375E-009	0.0274232	5
	48	17	15.83615	215442.6	-113445.2	1	243485.8	-27.76987	-1.039992E-009	0.0274186	5
	49	17	12.40079	229637.8	-132406	1	265075.2	-29.96715	-1.877729E-010	0.0274203	5
	50	17	9.93114	247138.2	-151316.4	1	289782.6	-31.47808	-8.283433E-010	0.0274208	5
	51	18	7.944915	266914.4	-171469.6	1	317246.2	-32.71726	-1.717455E-009	0.0274186	5
	52	18	6.317385	291089.9	-192362.4	1	348907.8	-33.45811	5.013043E-010	0.0274037	5
	53	19	5.008013	320377.9	-214661.9	1	385644.6	-33.82315	8.479342E-010	0.0274189	5
	54	20	3.945707	350305.2	-236173.8	1	422482.9	-33.98763	-2.232711E-010	0.0274073	5
	55	21	3.158693	381190.3	-257592.4	1	460065.1	-34.04917	4.932016E-010	0.0274226	5
	56	22	2.504006	413796.9	-279889	1	499565.5	-34.07411	-4.803582E-011	0.0274165	5
	57	23	1.998082	445601.3	-306246.8	1	540691.8	-34.49943	-2.854565E-010	0.0273831	5
	58	25	1.584686	475186.3	-336771	1	582423.1	-35.32572	-2.166245E-012	0.0274289	5
	59	27	1.266892	505333.9	-372751.9	1	627938.2	-36.41378	1.694247E-010	0.0274469	5
	60	29	0.999041	537501.8	-422652	1	683771.1	-38.17892	2.015124E-010	0.0274353	5
