EXPLAIN
TAG	EISPOT
TITLE	LABEL	Potentiostatic EIS	Test &Identifier
DATE	LABEL	1/7/2021	Date
TIME	LABEL	15:54:13	Time
NOTES	NOTES	1	&Notes...
	
PSTAT	PSTAT	REF600-11020	Potentiostat
VDC	POTEN	0.00000E+000	T	DC &Voltage (V)
FREQINIT	QUANT	1.00000E+006	Initial Fre&q. (Hz)
FREQFINAL	QUANT	1.00000E+000	Final Fre&q. (Hz)
PTSPERDEC	QUANT	1.00000E+001	Points/&decade
VAC	QUANT	2.50000E+001	AC &Voltage (mV rms)
AREA	QUANT	4.00000E-005	&Area (cm^2)
CONDIT	TWOPARAM	F	5.00000E+000	0.00000E+000	Conditionin&g	Time(s)	E(V)
DELAY	TWOPARAM	F	3.00000E+000	0.00000E+000	Init. De&lay	Time(s)	Stab.(mV/s)
SPEED	SELECTOR	0	&Optimize for:
ZGUESS	QUANT	1.00000E+003	E&stimated Z (ohms)
OCVCURVE	TABLE	39
	Pt	T	Vf	Vm	Ach	Over
	#	s	V vs. Ref.	V	V	bits
	0	0.258333	5.25625E-002	5.25625E-002	5.23859E-004	...........
	1	0.516667	5.25626E-002	5.25659E-002	5.26959E-004	...........
	2	0.775	5.25628E-002	5.25620E-002	5.24892E-004	...........
	3	1.03333	5.25632E-002	5.25618E-002	5.21959E-004	...........
	4	1.29167	5.25632E-002	5.25609E-002	5.26959E-004	...........
	5	1.55	5.25628E-002	5.25610E-002	5.18726E-004	...........
	6	1.80833	5.25620E-002	5.25581E-002	5.25726E-004	...........
	7	2.06667	5.25611E-002	5.25566E-002	5.18992E-004	...........
	8	2.325	5.25599E-002	5.25535E-002	5.18826E-004	...........
	9	2.58333	5.25583E-002	5.25523E-002	5.22826E-004	...........
	10	2.84167	5.25564E-002	5.25492E-002	5.23492E-004	...........
	11	3.1	5.25543E-002	5.25497E-002	5.26759E-004	...........
	12	3.35833	5.25523E-002	5.25482E-002	5.27559E-004	...........
	13	3.61667	5.25507E-002	5.25500E-002	5.26759E-004	...........
	14	3.875	5.25497E-002	5.25487E-002	5.22293E-004	...........
	15	4.13333	5.25492E-002	5.25467E-002	5.25392E-004	...........
	16	4.39167	5.25488E-002	5.25477E-002	5.28326E-004	...........
	17	4.65	5.25483E-002	5.25456E-002	5.28526E-004	...........
	18	4.90833	5.25476E-002	5.25434E-002	5.23259E-004	...........
	19	5.16667	5.25467E-002	5.25433E-002	5.23992E-004	...........
	20	5.425	5.25456E-002	5.25425E-002	5.27026E-004	...........
	21	5.68333	5.25444E-002	5.25411E-002	5.27392E-004	...........
	22	5.94167	5.25432E-002	5.25355E-002	5.33292E-004	...........
	23	6.2	5.25418E-002	5.25378E-002	5.27792E-004	...........
	24	6.45833	5.25401E-002	5.25353E-002	5.26792E-004	...........
	25	6.71667	5.25383E-002	5.25333E-002	5.29726E-004	...........
	26	6.975	5.25368E-002	5.25324E-002	5.25892E-004	...........
	27	7.23333	5.25353E-002	5.25316E-002	5.26592E-004	...........
	28	7.49167	5.25339E-002	5.25291E-002	5.24859E-004	...........
	29	7.75	5.25324E-002	5.25250E-002	5.22992E-004	...........
	30	8.00833	5.25307E-002	5.25239E-002	5.23293E-004	...........
	31	8.26667	5.25286E-002	5.25216E-002	5.26759E-004	...........
	32	8.525	5.25262E-002	5.25177E-002	5.26692E-004	...........
	33	8.78333	5.25238E-002	5.25159E-002	5.20492E-004	...........
	34	9.04167	5.25213E-002	5.25160E-002	5.21426E-004	...........
	35	9.3	5.25190E-002	5.25148E-002	5.24359E-004	...........
	36	9.5583	5.25170E-002	5.25091E-002	5.27059E-004	...........
	37	9.8167	5.25152E-002	5.25069E-002	5.28692E-004	...........
	38	10.075	5.25130E-002	5.25016E-002	5.27792E-004	...........
EOC	QUANT	0.052513	Open Circuit (V)
PSTATMODEL	IQUANT	4	Pstat Model
PSTATSECTION	LABEL	REF600-11020	Pstat Section
PSTATSERIALNO	LABEL	11020	Pstat Serial Number
CTRLMODE	IQUANT	1	Control Mode
IESTAB	IQUANT	0	I/E Stability
CASPEED	IQUANT	1	Control Amp Speed
CONVENTION	IQUANT	1	Current Convention
ICHRANGE	IQUANT	2	Ich Range
ICHRANGEMODE	TOGGLE	F	Ich Auto Range
ICHOFFSETENABLE	TOGGLE	T	Ich Offset Enable
ICHOFFSET	QUANT	0	Ich Offset (V)
ICHFILTER	IQUANT	3	Ich Filter
VCHRANGE	IQUANT	2	Vch Range
VCHRANGEMODE	TOGGLE	F	Vch Auto Range
VCHOFFSETENABLE	TOGGLE	T	Vch Offset Enable
VCHOFFSET	QUANT	0	Vch Offset (V)
VCHFILTER	IQUANT	3	Vch Filter
ACHRANGE	IQUANT	2	Ach Range
ACHOFFSETENABLE	TOGGLE	F	Ach Offset Enable
ACHOFFSET	QUANT	0	Ach Offset (V)
ACHFILTER	IQUANT	3	Ach Filter
IERANGELOWERLIMIT	IQUANT	1	I/E Range Lower Limit
IERANGEMODE	TOGGLE	F	I/E AutoRange
IERANGE	IQUANT	7	I/E Range
POSFEEDENABLE	TOGGLE	F	Positive Feedback IR Comp
POSFEEDRESISTANCE	QUANT	0	Positive Feedback Resistance (ohm)
ACHSELECT	IQUANT	0	Ach Select
CABLEID	IQUANT	14	Cable ID
DCCALDATE	LABEL	9/1/2020	DC Calibration Date
ACCALDATE	LABEL	9/1/2020	AC Calibration Date
THERMOSELECT	IQUANT	1	Thermo Select
FRAMEWORKVERSION	QUANT	6.33	Framework Version
INSTRUMENTVERSION	LABEL	3.50	Instrument Version
ZCURVE	TABLE
	Pt	Time	Freq	Zreal	Zimag	Zsig	Zmod	Zphz	Idc	Vdc	IERange
	#	s	Hz	ohm	ohm	V	ohm	°	A	V	#
	0	1	1000078	1771.209	-2138.229	1	2776.546	-50.36325	2.080762E-008	0.0546729	8
	1	2	794390.6	2174.239	-2325.893	1	3183.88	-46.93014	1.086877E-007	0.054353	8
	2	2	630984.4	2619.864	-2463.648	1	3596.282	-43.23986	6.617923E-008	0.0541807	8
	3	2	501234.4	3095.765	-2547.714	1	4009.315	-39.45327	5.778254E-008	0.0540754	8
	4	3	398109.4	3574.94	-2562.021	1	4398.198	-35.6277	1.039891E-007	0.0540056	8
	5	3	316265.6	4034.419	-2520.604	1	4757.099	-31.99611	1.116041E-007	0.0540148	8
	6	3	251203.1	4466.266	-2449.194	1	5093.729	-28.73931	1.981755E-008	0.0539956	8
	7	4	199546.9	4842.937	-2344.622	1	5380.641	-25.83312	1.120808E-007	0.0540027	8
	8	4	158578.1	5190.685	-2239.465	1	5653.177	-23.33726	2.118763E-007	0.0539571	8
	9	4	125953.1	5514.222	-2117.975	1	5906.984	-21.01144	-2.937914E-008	0.0539712	7
	10	5	100078.1	5782.11	-2024.886	1	6126.415	-19.30017	1.541961E-009	0.0539636	7
	11	5	79453.13	6028.467	-1970.355	1	6342.295	-18.09956	1.484597E-008	0.0539384	7
	12	5	63140.62	6259.782	-1940.773	1	6553.737	-17.22544	1.301589E-008	0.0539221	7
	13	6	50203.12	6479.618	-1939.064	1	6763.536	-16.66013	1.577893E-008	0.0539235	7
	14	6	39890.62	6698.739	-1968.124	1	6981.878	-16.37306	1.381066E-008	0.0539205	7
	15	6	31640.63	6922.066	-2028.304	1	7213.114	-16.33164	5.523444E-009	0.0539221	7
	16	7	25171.88	7148.179	-2118.348	1	7455.458	-16.50708	-6.998891E-009	0.053953	7
	17	7	20015.62	7387.567	-2243.365	1	7720.676	-16.89184	9.011718E-009	0.0539382	7
	18	7	15890.62	7646.154	-2405.164	1	8015.516	-17.46142	1.385708E-008	0.0539129	7
	19	8	12609.37	7924.5	-2601.81	1	8340.69	-18.17629	-1.371399E-008	0.053941	7
	20	8	10078.13	8219.165	-2830.373	1	8692.853	-19.00179	-5.578853E-009	0.0539224	7
	21	8	8015.625	8547.562	-3102.55	1	9093.219	-19.94962	1.654652E-008	0.0539183	7
	22	9	6328.125	8928.501	-3416.54	1	9559.86	-20.93962	-2.522828E-009	0.0539495	6
	23	9	5015.625	9333.442	-3788.259	1	10072.94	-22.09126	-2.18137E-009	0.0539656	6
	24	9	3984.375	9772.28	-4209.174	1	10640.24	-23.30279	-1.058736E-009	0.0539258	6
	25	10	3170.956	10250	-4688.418	1	11271.37	-24.57967	-2.838333E-009	0.053961	6
	26	10	2527.573	10770.74	-5234.758	1	11975.46	-25.92052	-2.22201E-009	0.0539666	6
	27	10	1976.103	11392.93	-5923.256	1	12840.71	-27.4702	-2.555326E-009	0.0539643	6
	28	10	1577.524	12023.57	-6654.222	1	13742.08	-28.96153	-2.644394E-009	0.0539481	6
	29	11	1265.625	12707.47	-7479.62	1	14745.32	-30.48108	2.05307E-009	0.0538869	6
	30	11	998.264	13521.56	-8508.854	1	15976.02	-32.1814	2.345231E-009	0.0539019	6
	31	11	796.875	14374.43	-9637	1	17305.95	-33.83897	-1.364702E-009	0.0539156	6
	32	12	627.7902	15382.51	-11029.87	1	18928.28	-35.64202	1.161396E-009	0.0538911	6
	33	12	505.5147	16381.92	-12503.01	1	20608.07	-37.35159	-7.128982E-010	0.0539442	6
	34	12	397.9953	17599.14	-14415.51	1	22749.43	-39.32101	3.327941E-010	0.0539427	6
	35	13	315.5048	18896.01	-16621.98	1	25166.43	-41.33664	3.40406E-010	0.0539428	6
	36	13	252.4038	20270.96	-19149.2	1	27885.54	-43.37001	3.666753E-010	0.0539348	6
	37	13	198.6229	21910.13	-22409.87	1	31340.96	-45.64603	2.961605E-010	0.0539379	6
	38	14	158.3615	23655.79	-26136.42	1	35252.07	-47.8521	3.6489E-010	0.0539409	6
	39	14	125.558	25714.65	-30740.43	1	40077.64	-50.08721	4.026115E-010	0.05394	6
	40	14	100.4464	28005.23	-36059.77	1	45657.42	-52.16588	2.912092E-010	0.0539384	6
	41	15	79.00281	30904.18	-42955.73	1	52917.51	-54.26715	4.242191E-010	0.0539344	6
	42	15	63.3446	34070.98	-50564.34	1	60972	-56.02734	4.060332E-010	0.0539334	6
	43	15	49.86702	38157.06	-60425.98	1	71465.09	-57.72891	1.483434E-010	0.0539383	6
	44	16	39.72458	42829.68	-71651.52	1	83476.48	-59.13114	3.32411E-010	0.0539422	6
	45	16	31.6723	48443.4	-84971.27	1	97810.4	-60.31188	4.062803E-010	0.0539379	6
	46	16	24.93351	55664.48	-101681.8	1	115921.2	-61.30203	4.354399E-011	0.0539316	5
	47	17	19.86229	64010.2	-120597.6	1	136532.4	-62.04176	4.566265E-010	0.0539377	5
	48	17	15.83615	74097.63	-142965.5	1	161026.7	-62.60274	2.692281E-011	0.0539352	5
	49	17	12.40079	87633.88	-171467.6	1	192563.9	-62.92928	6.742905E-010	0.0539331	5
	50	18	9.93114	102452.6	-201950.5	1	226452	-63.10062	6.290938E-010	0.0539375	5
	51	18	7.944915	120903.9	-237858.8	1	266823.1	-63.05572	-2.612133E-010	0.0539301	5
	52	18	6.317385	143840.9	-280795.4	1	315493.7	-62.87566	9.209243E-011	0.0539286	5
	53	19	5.008013	172726.6	-331256.6	1	373584.5	-62.46118	3.186436E-010	0.0539406	5
	54	20	3.945707	209867.6	-390957.4	1	443725.2	-61.7729	1.913677E-010	0.0539254	5
	55	21	3.158693	251267.9	-453961.7	1	518861.1	-61.03546	1.949647E-010	0.0539404	5
	56	22	2.504006	304419	-527461.1	1	609004.3	-60.00903	-3.520466E-011	0.0539288	5
	57	23	1.998082	363123.5	-606204.7	1	706641.9	-59.07792	4.717463E-013	0.053922	5
	58	25	1.584686	436473.1	-695670.4	1	821258.8	-57.89528	1.094843E-010	0.0539656	5
	59	27	1.266892	515151.3	-793566.9	1	946112.8	-57.01001	1.261453E-010	0.053964	5
	60	29	0.999041	608721.1	-908757.4	1	1093792	-56.18429	8.829321E-011	0.0539471	4
