EXPLAIN
TAG	EISPOT
TITLE	LABEL	Potentiostatic EIS	Test &Identifier
DATE	LABEL	6/10/2021	Date
TIME	LABEL	15:59:10	Time
NOTES	NOTES	1	&Notes...
	
PSTAT	PSTAT	REF600-11020	Potentiostat
VDC	POTEN	0.00000E+000	T	DC &Voltage (V)
FREQINIT	QUANT	1.00000E+006	Initial Fre&q. (Hz)
FREQFINAL	QUANT	1.00000E+000	Final Fre&q. (Hz)
PTSPERDEC	QUANT	1.00000E+001	Points/&decade
VAC	QUANT	2.50000E+001	AC &Voltage (mV rms)
AREA	QUANT	4.00000E-005	&Area (cm^2)
CONDIT	TWOPARAM	F	5.00000E+000	0.00000E+000	Conditionin&g	Time(s)	E(V)
DELAY	TWOPARAM	F	3.00000E+000	0.00000E+000	Init. De&lay	Time(s)	Stab.(mV/s)
SPEED	SELECTOR	0	&Optimize for:
ZGUESS	QUANT	1.00000E+003	E&stimated Z (ohms)
OCVCURVE	TABLE	39
	Pt	T	Vf	Vm	Ach	Over
	#	s	V vs. Ref.	V	V	bits
	0	0.258333	-3.15026E-002	-3.15026E-002	5.28492E-004	...........
	1	0.516667	-3.15690E-002	-3.49740E-002	5.30226E-004	...........
	2	0.775	-3.19342E-002	-3.60687E-002	5.30759E-004	...........
	3	1.03333	-3.27731E-002	-3.42370E-002	5.34459E-004	...........
	4	1.29167	-3.38041E-002	-3.45928E-002	5.35059E-004	...........
	5	1.55	-3.45169E-002	-3.46524E-002	5.29792E-004	...........
	6	1.80833	-3.47593E-002	-3.46031E-002	5.27192E-004	...........
	7	2.06667	-3.47440E-002	-3.46983E-002	5.23359E-004	...........
	8	2.325	-3.46840E-002	-3.46912E-002	5.26159E-004	...........
	9	2.58333	-3.46590E-002	-3.47783E-002	5.32426E-004	...........
	10	2.84167	-3.46710E-002	-3.46938E-002	5.23526E-004	...........
	11	3.1	-3.46970E-002	-3.47431E-002	5.32459E-004	...........
	12	3.35833	-3.47188E-002	-3.48029E-002	5.27292E-004	...........
	13	3.61667	-3.47377E-002	-3.48949E-002	5.30859E-004	...........
	14	3.875	-3.47671E-002	-3.49360E-002	5.24926E-004	...........
	15	4.13333	-3.48128E-002	-3.49553E-002	5.24726E-004	...........
	16	4.39167	-3.48640E-002	-3.48944E-002	5.33792E-004	...........
	17	4.65	-3.49047E-002	-3.50048E-002	5.29259E-004	...........
	18	4.90833	-3.49309E-002	-3.50094E-002	5.30526E-004	...........
	19	5.16667	-3.49532E-002	-3.50505E-002	5.31292E-004	...........
	20	5.425	-3.49769E-002	-3.49013E-002	5.31492E-004	...........
	21	5.68333	-3.49927E-002	-3.50451E-002	5.33726E-004	...........
	22	5.94167	-3.49976E-002	-3.50939E-002	5.28259E-004	...........
	23	6.2	-3.50077E-002	-3.51635E-002	5.32692E-004	...........
	24	6.45833	-3.50370E-002	-3.51146E-002	5.31692E-004	...........
	25	6.71667	-3.50777E-002	-3.51774E-002	5.27326E-004	...........
	26	6.975	-3.51157E-002	-3.52499E-002	5.31859E-004	...........
	27	7.23333	-3.51473E-002	-3.51262E-002	5.31659E-004	...........
	28	7.49167	-3.51680E-002	-3.50486E-002	5.30892E-004	...........
	29	7.75	-3.51570E-002	-3.46582E-002	5.32426E-004	...........
	30	8.00833	-3.50805E-002	-3.42434E-002	5.26592E-004	...........
	31	8.26667	-3.49382E-002	-3.54817E-002	5.31926E-004	...........
	32	8.525	-3.48285E-002	-3.52984E-002	5.26992E-004	...........
	33	8.78333	-3.48512E-002	-3.45204E-002	5.29526E-004	...........
	34	9.04167	-3.49406E-002	-3.49396E-002	5.27992E-004	...........
	35	9.3	-3.50060E-002	-3.68933E-002	5.29926E-004	...........
	36	9.5583	-3.51280E-002	-3.48884E-002	5.32826E-004	...........
	37	9.8167	-3.53501E-002	-3.57271E-002	5.28726E-004	...........
	38	10.075	-3.55336E-002	-3.55822E-002	5.28759E-004	...........
EOC	QUANT	-0.0355336	Open Circuit (V)
PSTATMODEL	IQUANT	4	Pstat Model
PSTATSECTION	LABEL	REF600-11020	Pstat Section
PSTATSERIALNO	LABEL	11020	Pstat Serial Number
CTRLMODE	IQUANT	1	Control Mode
IESTAB	IQUANT	0	I/E Stability
CASPEED	IQUANT	1	Control Amp Speed
CONVENTION	IQUANT	1	Current Convention
ICHRANGE	IQUANT	2	Ich Range
ICHRANGEMODE	TOGGLE	F	Ich Auto Range
ICHOFFSETENABLE	TOGGLE	T	Ich Offset Enable
ICHOFFSET	QUANT	0	Ich Offset (V)
ICHFILTER	IQUANT	3	Ich Filter
VCHRANGE	IQUANT	2	Vch Range
VCHRANGEMODE	TOGGLE	F	Vch Auto Range
VCHOFFSETENABLE	TOGGLE	T	Vch Offset Enable
VCHOFFSET	QUANT	0	Vch Offset (V)
VCHFILTER	IQUANT	3	Vch Filter
ACHRANGE	IQUANT	2	Ach Range
ACHOFFSETENABLE	TOGGLE	F	Ach Offset Enable
ACHOFFSET	QUANT	0	Ach Offset (V)
ACHFILTER	IQUANT	3	Ach Filter
IERANGELOWERLIMIT	IQUANT	1	I/E Range Lower Limit
IERANGEMODE	TOGGLE	F	I/E AutoRange
IERANGE	IQUANT	7	I/E Range
POSFEEDENABLE	TOGGLE	F	Positive Feedback IR Comp
POSFEEDRESISTANCE	QUANT	0	Positive Feedback Resistance (ohm)
ACHSELECT	IQUANT	0	Ach Select
CABLEID	IQUANT	14	Cable ID
DCCALDATE	LABEL	9/1/2020	DC Calibration Date
ACCALDATE	LABEL	9/1/2020	AC Calibration Date
THERMOSELECT	IQUANT	1	Thermo Select
FRAMEWORKVERSION	QUANT	6.33	Framework Version
INSTRUMENTVERSION	LABEL	3.50	Instrument Version
ZCURVE	TABLE
	Pt	Time	Freq	Zreal	Zimag	Zsig	Zmod	Zphz	Idc	Vdc	IERange
	#	s	Hz	ohm	ohm	V	ohm	°	A	V	#
	0	1	1000078	656.7486	-3777.041	1	3833.714	-80.13608	9.317118E-008	-0.0334025	8
	1	2	794390.6	769.4987	-4660.429	1	4723.529	-80.6243	1.052223E-009	-0.033664	8
	2	2	630984.4	900.3624	-5745.895	1	5816.009	-81.09436	1.374352E-007	-0.0338389	8
	3	2	501234.4	1054.293	-7094.442	1	7172.353	-81.54724	1.703502E-008	-0.0339457	8
	4	2	398109.4	1238.26	-8770.717	1	8857.695	-81.96403	2.974563E-008	-0.0340008	8
	5	3	316265.6	1447.071	-10841.14	1	10937.29	-82.39713	2.993183E-008	-0.0340314	8
	6	3	251203.1	1714.707	-13381.96	1	13491.37	-82.69815	3.77192E-008	-0.034047	8
	7	3	199546.9	1964.921	-16646.53	1	16762.09	-83.26807	-2.251648E-008	-0.034033	8
	8	4	158578.1	2279.476	-20590.95	1	20716.73	-83.68291	5.144909E-008	-0.0340373	8
	9	4	125953.1	2919.257	-25548.21	1	25714.46	-83.48139	-3.204947E-009	-0.0340259	7
	10	4	100078.1	3401.495	-31700.11	1	31882.08	-83.87547	-1.234047E-009	-0.0340536	7
	11	5	79453.13	3987.88	-39488.64	1	39689.49	-84.23336	-2.556381E-010	-0.0340716	7
	12	5	63140.62	4724.438	-49076.84	1	49303.72	-84.5013	2.289501E-010	-0.0340798	7
	13	5	50203.12	5774.969	-60867.22	1	61140.56	-84.58011	-8.032197E-010	-0.0340717	7
	14	6	39890.62	6543.547	-75852.27	1	76133.99	-85.06947	5.493506E-010	-0.0340771	7
	15	6	31640.63	7943.569	-94459.78	1	94793.2	-85.19304	2.778127E-010	-0.0340713	7
	16	6	25171.88	10069.77	-117271	1	117702.5	-85.09219	-5.901806E-010	-0.0340735	7
	17	7	20015.62	11463.25	-145977.8	1	146427.2	-85.50993	3.391978E-010	-0.0340759	7
	18	7	15890.62	15361.07	-181667.3	1	182315.5	-85.16679	-6.23856E-010	-0.034083	7
	19	7	12609.37	18737.81	-226926.2	1	227698.5	-85.27966	1.71032E-010	-0.034086	6
	20	8	10078.13	22663.69	-281016.2	1	281928.6	-85.38913	1.851432E-010	-0.0340816	6
	21	8	8015.625	27011.38	-349614.9	1	350656.8	-85.58208	3.15785E-010	-0.0340767	6
	22	8	6328.125	32652.98	-438710.1	1	439923.6	-85.74335	3.372258E-010	-0.0340783	6
	23	9	5015.625	41962.58	-547757.4	1	549362.4	-85.61924	1.977231E-010	-0.0340795	6
	24	9	3984.375	51007.95	-682911.4	1	684813.7	-85.7284	2.745767E-010	-0.0340858	6
	25	9	3170.956	61844.3	-849331.8	1	851580.4	-85.83534	3.420609E-010	-0.0340828	6
	26	10	2527.573	82860.85	-1055240	1	1058489	-85.51016	1.650446E-010	-0.0340841	6
	27	10	1976.103	95145	-1337246	1	1340627	-85.93027	3.551702E-010	-0.0340811	6
	28	10	1577.524	156438.8	-1654050	1	1661431	-84.59708	6.02749E-011	-0.034091	6
	29	11	1265.625	190412.5	-2043357	1	2052210	-84.6762	2.902176E-011	-0.0340849	5
	30	11	998.264	252394.1	-2560792	1	2573200	-84.37106	3.776994E-012	-0.034094	5
	31	11	796.875	323734.8	-3184883	1	3201294	-84.19597	-5.373374E-012	-0.0340915	5
	32	11	627.7902	443247.4	-3990394	1	4014937	-83.66165	-1.047699E-011	-0.0340907	5
	33	12	505.5147	581275.1	-4900845	1	4935197	-83.23592	-4.190473E-012	-0.0340959	5
	34	12	397.9953	782373.9	-6146588	1	6196181	-82.74606	-1.075266E-011	-0.0340703	5
	35	12	315.5048	1081727	-7637271	1	7713497	-81.93837	-1.286906E-011	-0.0340688	5
	36	13	252.4038	1447876	-9409721	1	9.520462E+006	-81.25249	-8.829488E-012	-0.0340699	5
	37	13	198.6229	2075144	-1.172857E+007	1	1.191073E+007	-79.96645	-1.013852E-011	-0.0340689	5
	38	13	158.3615	2885719	-1.442273E+007	1	1.470859E+007	-78.68559	-6.813532E-012	-0.034075	5
	39	14	125.558	4058744	-1.77697E+007	1	1.822734E+007	-77.1339	-8.180582E-012	-0.0340695	4
	40	14	100.4464	5581146	-2.167908E+007	1	2.238597E+007	-75.56305	-8.951142E-012	-0.0340723	4
	41	14	79.00281	8151991	-2.626031E+007	1	2.749653E+007	-72.75409	-4.999466E-012	-0.0340734	4
	42	15	63.3446	1.13355E+007	-3.21991E+007	1	3.413613E+007	-70.6057	-7.041156E-012	-0.0340773	4
	43	15	49.86702	1.60048E+007	-3.805688E+007	1	4.128535E+007	-67.19084	-1.0074E-011	-0.0340763	4
	44	16	39.72458	2.185259E+007	-4.395766E+007	1	4.908983E+007	-63.56673	-8.407916E-012	-0.0340704	4
	45	16	31.6723	2.912853E+007	-5.01108E+007	1	5.796174E+007	-59.83132	-9.606736E-012	-0.0340728	4
	46	16	24.93351	3.959602E+007	-5.629796E+007	1	6.882809E+007	-54.88015	-8.781522E-012	-0.0340733	4
	47	17	19.86229	5.103192E+007	-5.850852E+007	1	7.7637E+007	-48.90462	-6.793079E-012	-0.0340652	4
	48	17	15.83615	6.229568E+007	-6.308919E+007	1	8.866226E+007	-45.3626	-1.057725E-011	-0.0340729	4
	49	17	12.40079	7.77059E+007	-6.512141E+007	1	1.013854E+008	-39.96468	8.551419E-012	-0.0340736	3
	50	18	9.93114	8.943259E+007	-6.043187E+007	1	1.079361E+008	-34.04789	9.905923E-012	-0.0340799	3
	51	18	7.944915	9.993343E+007	-5.786151E+007	1	1.154757E+008	-30.07087	7.411109E-012	-0.0340767	3
	52	19	6.317385	1.082894E+008	-5.0821E+007	1	1.196218E+008	-25.141	6.601535E-012	-0.0340687	3
	53	20	5.008013	1.163993E+008	-4.663686E+007	1	1.253945E+008	-21.83414	7.769327E-012	-0.0340751	3
	54	21	3.945707	1.216568E+008	-4.052739E+007	1	1.282297E+008	-18.4244	6.651915E-012	-0.0340837	3
	55	22	3.158693	1.321074E+008	-3.938262E+007	1	1.378527E+008	-16.59988	6.91541E-012	-0.0340711	3
	56	24	2.504006	1.363464E+008	-3.452674E+007	1	1.4065E+008	-14.21019	6.863043E-012	-0.0340747	3
	57	25	1.998082	1.359718E+008	-2.942397E+007	1	1.391191E+008	-12.21039	5.628171E-012	-0.0340932	3
	58	27	1.584686	1.415862E+008	-2.820188E+007	1	1.443676E+008	-11.26504	5.795079E-012	-0.0340475	3
	59	29	1.266892	1.438387E+008	-2.519784E+007	1	1.460291E+008	-9.93632	3.068626E-012	-0.034036	2
	60	31	0.999041	1.473248E+008	-2.375032E+007	1	1.492269E+008	-9.157894	2.847761E-012	-0.0340496	2
