EXPLAIN
TAG	EISPOT
TITLE	LABEL	Potentiostatic IDE	Test &Identifier
DATE	LABEL	9/4/2019	Date
TIME	LABEL	10:45:22	Time
NOTES	NOTES	1	&Notes...
	
PSTAT	PSTAT	REF600-11020	Potentiostat
VDC	POTEN	0.00000E+000	T	DC &Voltage (V)
FREQINIT	QUANT	1.00000E+006	Initial Fre&q. (Hz)
FREQFINAL	QUANT	1.00000E+000	Final Fre&q. (Hz)
PTSPERDEC	QUANT	1.00000E+001	Points/&decade
VAC	QUANT	2.50000E+001	AC &Voltage (mV rms)
AREA	QUANT	1.00000E-002	&Area (cm^2)
CONDIT	TWOPARAM	T	5.00000E+000	0.00000E+000	Conditionin&g	Time(s)	E(V)
DELAY	TWOPARAM	T	5.00000E+000	0.00000E+000	Init. De&lay	Time(s)	Stab.(mV/s)
SPEED	SELECTOR	1	&Optimize for:
ZGUESS	QUANT	1.00000E+007	E&stimated Z (ohms)
OCVCURVE	TABLE	19
	Pt	T	Vf	Vm	Ach	Over
	#	s	V vs. Ref.	V	V	bits
	0	0.258333	1.11670E-001	1.11670E-001	5.67999E-004	...........
	1	0.516667	1.11784E-001	1.17623E-001	5.70466E-004	...........
	2	0.775	1.12482E-001	1.23268E-001	5.63832E-004	...........
	3	1.03333	1.14457E-001	1.28633E-001	5.69166E-004	...........
	4	1.29167	1.17983E-001	1.33609E-001	5.70299E-004	...........
	5	1.55	1.22651E-001	1.38436E-001	5.66199E-004	...........
	6	1.80833	1.27793E-001	1.43064E-001	5.65332E-004	...........
	7	2.06667	1.32932E-001	1.47538E-001	5.62766E-004	...........
	8	2.325	1.37870E-001	1.51897E-001	5.62366E-004	...........
	9	2.58333	1.42582E-001	1.56132E-001	5.66099E-004	...........
	10	2.84167	1.47105E-001	1.60309E-001	5.65332E-004	...........
	11	3.1	1.51489E-001	1.64630E-001	5.69999E-004	...........
	12	3.35833	1.55778E-001	1.68560E-001	5.67099E-004	...........
	13	3.61667	1.59994E-001	1.72298E-001	5.68332E-004	...........
	14	3.875	1.64111E-001	1.75891E-001	5.65566E-004	...........
	15	4.13333	1.68081E-001	1.79338E-001	5.62366E-004	...........
	16	4.39167	1.71877E-001	1.82620E-001	5.73799E-004	...........
	17	4.65	1.75500E-001	1.85848E-001	5.67599E-004	...........
	18	4.90833	1.78969E-001	1.89024E-001	5.67599E-004	...........
EOC	QUANT	0.1789693	Open Circuit (V)
PSTATMODEL	IQUANT	4	Pstat Model
PSTATSECTION	LABEL	REF600-11020	Pstat Section
PSTATSERIALNO	LABEL	11020	Pstat Serial Number
CTRLMODE	IQUANT	1	Control Mode
IESTAB	IQUANT	0	I/E Stability
CASPEED	IQUANT	1	Control Amp Speed
CONVENTION	IQUANT	1	Current Convention
ICHRANGE	IQUANT	2	Ich Range
ICHRANGEMODE	TOGGLE	F	Ich Auto Range
ICHOFFSETENABLE	TOGGLE	T	Ich Offset Enable
ICHOFFSET	QUANT	0	Ich Offset (V)
ICHFILTER	IQUANT	3	Ich Filter
VCHRANGE	IQUANT	2	Vch Range
VCHRANGEMODE	TOGGLE	F	Vch Auto Range
VCHOFFSETENABLE	TOGGLE	T	Vch Offset Enable
VCHOFFSET	QUANT	0	Vch Offset (V)
VCHFILTER	IQUANT	3	Vch Filter
ACHRANGE	IQUANT	2	Ach Range
ACHOFFSETENABLE	TOGGLE	F	Ach Offset Enable
ACHOFFSET	QUANT	0	Ach Offset (V)
ACHFILTER	IQUANT	3	Ach Filter
IERANGELOWERLIMIT	IQUANT	1	I/E Range Lower Limit
IERANGEMODE	TOGGLE	F	I/E AutoRange
IERANGE	IQUANT	4	I/E Range
POSFEEDENABLE	TOGGLE	F	Positive Feedback IR Comp
POSFEEDRESISTANCE	QUANT	0	Positive Feedback Resistance (ohm)
ACHSELECT	IQUANT	0	Ach Select
CABLEID	IQUANT	14	Cable ID
DCCALDATE	LABEL	8/19/2019	DC Calibration Date
ACCALDATE	LABEL	8/19/2019	AC Calibration Date
THERMOSELECT	IQUANT	1	Thermo Select
FRAMEWORKVERSION	QUANT	6.33	Framework Version
INSTRUMENTVERSION	LABEL	3.50	Instrument Version
ZCURVE	TABLE
	Pt	Time	Freq	Zreal	Zimag	Zsig	Zmod	Zphz	Idc	Vdc	IERange
	#	s	Hz	ohm	ohm	V	ohm	°	A	V	#
	0	2	1000078	1558.785	-3112.45	1	3480.971	-63.39726	1.191142E-005	0.1801624	8
	1	4	794390.6	1819.034	-3621.187	1	4052.392	-63.32821	1.091615E-005	0.1801526	8
	2	5	630984.4	2081.255	-4206.171	1	4692.92	-63.67334	9.793644E-006	0.1801387	8
	3	7	501234.4	2435.117	-4993.96	1	5556.027	-64.00555	8.284175E-006	0.1804462	8
	4	8	398109.4	2799.429	-5981.964	1	6604.597	-64.92142	1.015384E-005	0.180014	8
	5	10	316265.6	4149.712	-6671.359	1	7856.662	-58.1176	9.296346E-006	0.180206	8
	6	12	251203.1	4981.756	-8448.493	1	9807.9	-59.47376	9.218315E-006	0.1800983	8
	7	13	199546.9	5105.836	-10060.3	1	11281.8	-63.09114	1.097469E-005	0.1797891	8
	8	15	158578.1	7191.441	-11894.19	1	13899.23	-58.84209	1.088816E-005	0.1797832	8
	9	16	125953.1	8367.373	-13650.18	1	16010.63	-58.49228	4.367292E-007	0.1810672	7
	10	18	100078.1	10691.47	-15556.86	1	18876.53	-55.50116	9.326844E-007	0.1802713	7
	11	19	79453.13	13473.07	-17353.29	1	21969.54	-52.17429	8.58872E-007	0.1804174	7
	12	21	63140.62	16804.19	-18881.13	1	25276.03	-48.33094	9.329135E-007	0.1802688	7
	13	22	50203.12	20444.94	-19965.13	1	28576.25	-44.31974	9.047864E-007	0.1802828	7
	14	23	39890.62	24285.26	-20558.46	1	31818.61	-40.24927	9.07553E-007	0.1803375	7
	15	25	31640.63	28272.23	-20739.83	1	35063.65	-36.26288	9.595241E-007	0.180262	7
	16	26	25171.88	32010.5	-20271.18	1	37889.21	-32.34472	9.230159E-007	0.1803193	7
	17	27	20015.62	35511.3	-19585.73	1	40554.32	-28.87828	8.778182E-007	0.180381	7
	18	29	15890.62	38391.41	-18534.58	1	42631.34	-25.77029	8.894114E-007	0.1803917	7
	19	30	12609.37	41437.98	-17353.45	1	44924.92	-22.72302	8.300937E-008	0.1802994	6
	20	31	10078.13	43808.45	-16432.81	1	46789.07	-20.56137	9.129589E-008	0.1802818	6
	21	32	8015.625	45919.68	-15678.68	1	48522.55	-18.85181	9.567957E-008	0.1801205	6
	22	34	6328.125	47898.84	-15013.72	1	50196.72	-17.40341	8.443689E-008	0.1802775	6
	23	35	5015.625	49693.13	-14511.13	1	51768.52	-16.27858	8.740039E-008	0.1802466	6
	24	37	3984.375	51395.14	-14275.88	1	53340.99	-15.52354	8.954989E-008	0.1801759	6
	25	38	3170.956	53008.98	-14249.6	1	54890.83	-15.04627	8.879697E-008	0.1803178	6
	26	39	2527.573	54592.53	-14402.5	1	56460.4	-14.77893	9.086755E-008	0.1802876	6
	27	40	1976.103	56387.78	-14764.7	1	58288.75	-14.67304	8.926516E-008	0.1801715	6
	28	42	1577.524	58053.03	-15419.86	1	60066.02	-14.87525	8.485881E-008	0.1803619	6
	29	43	1265.625	59841.62	-16359.23	1	62037.45	-15.28968	9.598965E-007	0.1802478	7
	30	45	998.264	61780.59	-17122.26	1	64109.38	-15.49051	8.881011E-008	0.1801699	6
	31	46	796.875	63729.98	-18269.93	1	66297.06	-15.99638	8.764049E-008	0.1802389	6
	32	48	627.7902	65861.47	-19573.02	1	68708.34	-16.55114	8.857749E-008	0.1801825	6
	33	49	505.5147	67947.74	-21081.57	1	71143.02	-17.23711	9.084607E-008	0.1802705	6
	34	50	397.9953	69994.53	-22979.06	1	73670.02	-18.1749	9.024803E-008	0.17992	6
	35	52	315.5048	71913.12	-25359.43	1	76253.51	-19.42468	8.977194E-008	0.1799193	6
	36	53	252.4038	73724.03	-28296.84	1	78967.99	-20.99786	8.987774E-008	0.1799097	6
	37	54	198.6229	75585.53	-32453.99	1	82258.34	-23.23713	9.00239E-008	0.1799187	6
	38	56	158.3615	77422.09	-37545.85	1	86045.74	-25.87107	8.97771E-008	0.179916	6
	39	57	125.558	79314.63	-44212.98	1	90805.28	-29.13695	8.994059E-008	0.1799154	6
	40	58	100.4464	81516.13	-52185.18	1	96789.3	-32.62665	9.023207E-008	0.1799088	6
	41	60	79.00281	84000.74	-63461.91	1	105278.4	-37.07076	8.973105E-008	0.179912	6
	42	61	63.3446	85975.77	-74561.8	1	113803.8	-40.9332	8.99804E-008	0.179917	6
	43	63	49.86702	90750.13	-93289.45	1	130148	-45.7905	9.188837E-009	0.179921	5
	44	64	39.72458	95478.3	-111678.7	1	146929.4	-49.47162	9.05555E-009	0.1799179	5
	45	65	31.6723	101025.2	-135922.9	1	169355	-53.37828	8.86672E-009	0.1799193	5
	46	67	24.93351	108315.2	-166264.5	1	198434.1	-56.91724	8.997414E-009	0.1799176	5
	47	68	19.86229	117401.8	-201865.7	1	233522.9	-59.8184	8.973281E-009	0.1799218	5
	48	69	15.83615	127433	-245424.3	1	276536.2	-62.56006	9.250167E-009	0.1799107	5
	49	71	12.40079	143136.5	-299945.2	1	332348	-64.48911	9.082075E-009	0.1799206	5
	50	72	9.93114	159016.2	-361352.7	1	394793.5	-66.24771	8.892965E-009	0.1799204	5
	51	74	7.944915	179196.8	-435798.9	1	471202.9	-67.64795	8.955851E-009	0.1799142	5
	52	75	6.317385	202149.3	-527498.4	1	564906.1	-69.03204	8.941043E-009	0.179914	5
	53	77	5.008013	229478.4	-642199.1	1	681967.8	-70.33656	8.900397E-009	0.1799105	5
	54	80	3.945707	264426	-783411.6	1	826834.3	-71.34885	9.022266E-009	0.1799136	5
	55	83	3.158693	300845.6	-946540.4	1	993200	-72.36781	8.944304E-009	0.179903	5
	56	86	2.504006	348822.2	-1155401	1	1206909	-73.20064	8.874819E-009	0.1801991	5
	57	89	1.998082	407999.4	-1403916	1	1462000	-73.79533	7.780815E-010	0.1802388	4
	58	92	1.584686	477319.2	-1717712	1	1782798	-74.47041	7.765698E-010	0.1802311	4
	59	96	1.266892	574449.9	-2084091	1	2161811	-74.58989	7.766091E-010	0.1802281	4
	60	100	0.999041	694863.3	-2558178	1	2650870	-74.80372	8.122958E-010	0.180188	4
